Data from Subt2_051.txt Node
Date: Sat Aug 26 16:29:19 MSK 2023
User: vat
Spectrometer: MAYP114033
Trigger mode: 0
Integration Time (sec): 1,000000E0
Scans to average: 5
Electric dark correction enabled: true
Nonlinearity correction enabled: false
Boxcar width: 3
XAxis mode: Wavelengths
Number of Pixels in Spectrum: 2068
>>>>>Begin Spectral Data<<<<<
199,4	-0,2
199,9	-1,96
200,4	-2,167
200,8	-0,057
201,3	2,029
201,8	4,086
202,2	5,714
202,7	6,714
203,2	6,571
203,6	7,543
204,1	5,086
204,6	4,143
205	2,543
205,5	3,543
206	3,086
206,4	5,743
206,9	1,314
207,4	6,286
207,8	2,629
208,3	0,057
208,8	-2,286
209,2	1,514
209,7	-1
210,2	7,543
210,6	2,143
211,1	3,486
211,5	5,543
212	4,686
212,5	-5,8
212,9	-3,629
213,4	-5,057
213,9	-3,114
214,3	0,914
214,8	5,771
215,3	4,114
215,7	8,914
216,2	14,257
216,7	10,943
217,1	9,714
217,6	6,971
218,1	3,914
218,5	11,743
219	20,143
219,5	13,943
219,9	15
220,4	18,143
220,9	18,029
221,3	17,971
221,8	8,486
222,3	5,057
222,7	2,057
223,2	2,8
223,6	-1,486
224,1	-0,943
224,6	-3,714
225	-2,857
225,5	-3,771
226	-0,971
226,4	-1,571
226,9	-0,971
227,4	4,429
227,8	8,657
228,3	13,029
228,8	9,371
229,2	12,771
229,7	14,457
230,2	21,657
230,6	14,2
231,1	14,371
231,5	17,257
232	20,857
232,5	19,286
232,9	19,657
233,4	14
233,9	15,257
234,3	12,429
234,8	9,8
235,3	7,857
235,7	13,571
236,2	10,029
236,7	10,771
237,1	13,514
237,6	11,2
238,1	8,686
238,5	7,086
239	1,086
239,4	3,714
239,9	2,114
240,4	2,714
240,8	7,743
241,3	5,543
241,8	7,829
242,2	7,171
242,7	4,657
243,2	5,286
243,6	2,057
244,1	3,171
244,6	6,286
245	6,057
245,5	3,914
245,9	6,829
246,4	6,629
246,9	9,057
247,3	6,457
247,8	5,857
248,3	8,886
248,7	13,971
249,2	9,114
249,7	13,086
250,1	9,714
250,6	7,771
251	9,686
251,5	3,943
252	3,686
252,4	3,314
252,9	2,571
253,4	2,914
253,8	3,029
254,3	6,171
254,8	10,4
255,2	6,114
255,7	9,171
256,1	2,057
256,6	6,486
257,1	10,829
257,5	8,457
258	4,686
258,5	2,486
258,9	6,943
259,4	13,829
259,9	13,771
260,3	10,914
260,8	10,571
261,2	14,971
261,7	19,286
262,2	15,314
262,6	13,857
263,1	10,971
263,6	11,2
264	8,371
264,5	2,343
264,9	-1,171
265,4	-1,486
265,9	1,2
266,3	2,029
266,8	0,086
267,3	3,714
267,7	7,714
268,2	8,029
268,7	6,543
269,1	3,314
269,6	6
270	11,086
270,5	10,086
271	9,743
271,4	5,914
271,9	12,4
272,4	10,686
272,8	6,257
273,3	2,371
273,7	3,086
274,2	2,657
274,7	7,543
275,1	-0,829
275,6	2,857
276,1	4,257
276,5	5,743
277	8,514
277,4	10,057
277,9	9,571
278,4	13,314
278,8	12,543
279,3	11,914
279,8	13,4
280,2	8,743
280,7	7
281,1	12,743
281,6	13,943
282,1	14,2
282,5	16,086
283	14,714
283,4	16,457
283,9	14,657
284,4	8,686
284,8	10,057
285,3	4,257
285,8	2,743
286,2	-1,943
286,7	-1,914
287,1	-3,343
287,6	3,257
288,1	1,971
288,5	9,429
289	11,571
289,5	15,714
289,9	15
290,4	18,514
290,8	17,629
291,3	13,857
291,8	12,229
292,2	8,371
292,7	8,286
293,1	8,429
293,6	11,343
294,1	7,829
294,5	14
295	13,171
295,5	18,057
295,9	17,971
296,4	17,829
296,8	13,371
297,3	13,714
297,8	9,171
298,2	5,629
298,7	0,429
299,1	-3,371
299,6	-2,543
300,1	2,457
300,5	4,829
301	2,629
301,5	3,943
301,9	0
302,4	4,971
302,8	2,086
303,3	-3,743
303,8	-5,114
304,2	-2,8
304,7	-1,714
305,1	4,314
305,6	-2,4
306,1	-0,829
306,5	2,629
307	4
307,4	1,857
307,9	3,229
308,4	2,886
308,8	12,229
309,3	11,029
309,8	12,086
310,2	9,686
310,7	15,914
311,1	9,571
311,6	11,429
312,1	10,086
312,5	9,8
313	7,4
313,4	9,114
313,9	11,286
314,4	14,143
314,8	12,714
315,3	11
315,7	11,629
316,2	9,543
316,7	9,543
317,1	5,143
317,6	7,771
318	10,486
318,5	12,457
319	13,771
319,4	18,629
319,9	19,257
320,3	20,171
320,8	20,829
321,3	16,086
321,7	11,657
322,2	11,143
322,6	6,771
323,1	3,6
323,6	0,514
324	-3,829
324,5	-6,8
324,9	-2,429
325,4	-2,257
325,9	5,457
326,3	10,543
326,8	12,429
327,2	16,514
327,7	20,286
328,2	16,943
328,6	18,629
329,1	14,286
329,5	11,686
330	12,743
330,5	10,6
330,9	13,257
331,4	5,857
331,8	8,8
332,3	9,286
332,8	7,4
333,2	3,286
333,7	3,514
334,1	4,457
334,6	13,114
335,1	12,429
335,5	15,886
336	14
336,4	16,314
336,9	20
337,4	15,6
337,8	17,229
338,3	13,629
338,7	8,229
339,2	11,657
339,7	10,943
340,1	10,171
340,6	9,6
341	11,086
341,5	11,686
342	11,571
342,4	8,657
342,9	4,286
343,3	4,143
343,8	8,8
344,2	7,457
344,7	5,086
345,2	-0,971
345,6	2,657
346,1	7,829
346,5	5,771
347	7,771
347,5	2,2
347,9	2,8
348,4	13,543
348,8	14,4
349,3	17,686
349,8	22,629
350,2	19,314
350,7	24,514
351,1	28,4
351,6	28,171
352	34,086
352,5	33,029
353	38,114
353,4	47,2
353,9	60,543
354,3	72,171
354,8	83,857
355,3	100,629
355,7	125,2
356,2	147,686
356,6	174,971
357,1	199
357,5	233,314
358	276,543
358,5	320,457
358,9	371
359,4	429,771
359,8	490,743
360,3	568,114
360,8	652,943
361,2	744,029
361,7	835,257
362,1	942,171
362,6	1061,571
363	1192,486
363,5	1329,257
364	1468,829
364,4	1611,543
364,9	1766,6
365,3	1910,229
365,8	2045,943
366,3	2177,886
366,7	2296,743
367,2	2399
367,6	2486,057
368,1	2552,629
368,5	2598,457
369	2622,229
369,5	2623,257
369,9	2602,543
370,4	2559,486
370,8	2500,029
371,3	2425,771
371,7	2338,6
372,2	2241,543
372,7	2124,257
373,1	2010,943
373,6	1897,686
374	1775,6
374,5	1653,143
374,9	1539,029
375,4	1423,629
375,9	1323,114
376,3	1217,829
376,8	1119,029
377,2	1038,314
377,7	954,171
378,2	874,629
378,6	801,229
379,1	734,8
379,5	678,657
380	626,343
380,4	567,943
380,9	524,171
381,4	486,371
381,8	449,657
382,3	414,486
382,7	378,6
383,2	347,457
383,6	327,429
384,1	308,371
384,6	281,829
385	262,286
385,5	246,886
385,9	232,514
386,4	220
386,8	208,829
387,3	192
387,7	182,086
388,2	174,286
388,7	160,629
389,1	148,829
389,6	139,543
390	127,714
390,5	120,714
390,9	118,571
391,4	114,8
391,9	113,086
392,3	105,143
392,8	99,571
393,2	91,971
393,7	87,171
394,1	82,286
394,6	75,543
395,1	75,086
395,5	77,429
396	76,457
396,4	75,086
396,9	74,743
397,3	65,8
397,8	62,229
398,2	56,257
398,7	47,086
399,2	41,171
399,6	41,314
400,1	33,6
400,5	35,857
401	38,8
401,4	36,514
401,9	42,257
402,4	44,314
402,8	44,4
403,3	47,543
403,7	48,4
404,2	51,114
404,6	48,857
405,1	44,114
405,5	40,6
406	38,057
406,5	38,314
406,9	38,429
407,4	30,6
407,8	36,543
408,3	41,4
408,7	52,114
409,2	54,886
409,6	55,943
410,1	60,429
410,6	63,943
411	60,686
411,5	60,457
411,9	56,914
412,4	57,229
412,8	56,714
413,3	55,029
413,7	58,714
414,2	65,6
414,7	71,971
415,1	71,057
415,6	79,2
416	85,629
416,5	87,086
416,9	89,229
417,4	91,6
417,8	90,8
418,3	97,914
418,8	94,857
419,2	94,771
419,7	101,686
420,1	98,971
420,6	97,114
421	98,486
421,5	94,629
421,9	97,686
422,4	101,486
422,8	97,571
423,3	103,6
423,8	108,486
424,2	108,057
424,7	113,086
425,1	110,657
425,6	111,229
426	113,657
426,5	107,943
426,9	107,514
427,4	109,029
427,9	103,971
428,3	105,743
428,8	101,743
429,2	98,457
429,7	98,857
430,1	99,114
430,6	104,514
431	105,886
431,5	107,171
431,9	112,8
432,4	117,086
432,8	121,286
433,3	118,571
433,8	119,686
434,2	123,257
434,7	123,486
435,1	123,314
435,6	130,486
436	135,857
436,5	144,914
436,9	145,171
437,4	153,429
437,8	159,943
438,3	172,286
438,8	169,543
439,2	174,114
439,7	178,229
440,1	183,257
440,6	193,229
441	199,571
441,5	201,886
441,9	214,486
442,4	227,343
442,8	237,571
443,3	247,971
443,7	250,286
444,2	260,229
444,7	269,943
445,1	279,886
445,6	283,971
446	298,343
446,5	310,2
446,9	322,886
447,4	335,543
447,8	348,2
448,3	365,086
448,7	380,8
449,2	386,143
449,6	402,114
450,1	421,686
450,6	435,829
451	445,343
451,5	457,6
451,9	474,2
452,4	495,2
452,8	512,143
453,3	526,686
453,7	545,429
454,2	565,857
454,6	586,457
455,1	603,171
455,5	626,086
456	649,171
456,4	673,743
456,9	696,514
457,3	726,971
457,8	750,486
458,3	779,343
458,7	803,371
459,2	826,714
459,6	848,114
460,1	873,6
460,5	899,743
461	926,457
461,4	955,029
461,9	979,114
462,3	1004,629
462,8	1036,629
463,2	1069,286
463,7	1096,457
464,1	1126,6
464,6	1155,543
465	1188,543
465,5	1224,771
466	1257,314
466,4	1290,229
466,9	1325,229
467,3	1354,857
467,8	1394,8
468,2	1427,086
468,7	1460,114
469,1	1492,886
469,6	1522,057
470	1556,8
470,5	1596,8
470,9	1624,4
471,4	1666,286
471,8	1698,257
472,3	1727,257
472,7	1770,429
473,2	1801,629
473,6	1835,771
474,1	1865,543
474,5	1892,629
475	1932,457
475,4	1967,029
475,9	2000,114
476,4	2030,886
476,8	2061,029
477,3	2102,429
477,7	2138,571
478,2	2169,714
478,6	2207,114
479,1	2233,829
479,5	2270,029
480	2303,514
480,4	2329,029
480,9	2359,629
481,3	2389,571
481,8	2420,486
482,2	2450,371
482,7	2479,571
483,1	2504,543
483,6	2528,657
484	2553,057
484,5	2575,657
484,9	2600,686
485,4	2623,914
485,8	2644,4
486,3	2667,371
486,7	2697,114
487,2	2713,6
487,6	2738,286
488,1	2751,886
488,5	2774,029
489	2795,914
489,4	2818,857
489,9	2836,514
490,4	2862,286
490,8	2866,4
491,3	2886,371
491,7	2893,171
492,2	2907,829
492,6	2919,086
493,1	2933
493,5	2933,971
494	2954
494,4	2959,514
494,9	2973,229
495,3	2982,743
495,8	2995,057
496,2	3001,429
496,7	3014,943
497,1	3022,143
497,6	3036,943
498	3043,286
498,5	3045,743
498,9	3046,943
499,4	3051,286
499,8	3059,514
500,3	3065,143
500,7	3067,143
501,2	3073,971
501,6	3082,457
502,1	3084,857
502,5	3082,657
503	3089,029
503,4	3090,514
503,9	3094,714
504,3	3096,629
504,8	3098,886
505,2	3104,457
505,7	3117,686
506,1	3118,686
506,6	3117,543
507	3115,629
507,5	3112,629
507,9	3107,914
508,4	3111,829
508,8	3107,171
509,3	3105,8
509,7	3109,486
510,2	3115,371
510,6	3113,829
511,1	3116,6
511,5	3108,171
512	3108,171
512,4	3108,914
512,9	3104,743
513,3	3104,657
513,8	3112,114
514,2	3107,371
514,7	3112,2
515,1	3112
515,6	3106,429
516	3109,8
516,5	3105,314
516,9	3099,514
517,4	3103,886
517,8	3097,4
518,3	3092,657
518,7	3087,657
519,2	3087,514
519,6	3082,314
520,1	3084,429
520,5	3081,371
521	3081,229
521,4	3086,6
521,9	3094,914
522,3	3086,057
522,8	3087,171
523,2	3084,943
523,7	3082,971
524,1	3084,657
524,6	3078,2
525	3074,771
525,5	3080,257
525,9	3074
526,4	3071,086
526,8	3067,486
527,3	3065,314
527,7	3064,343
528,2	3061,657
528,6	3063,257
529,1	3069,029
529,5	3069,371
530	3079
530,4	3078,886
530,9	3077,314
531,3	3079,4
531,8	3081,486
532,2	3085,171
532,6	3086,257
533,1	3081,914
533,5	3081,314
534	3084,8
534,4	3085,2
534,9	3087,057
535,3	3089,486
535,8	3093,657
536,2	3096,171
536,7	3098,257
537,1	3102,229
537,6	3107,4
538	3105,886
538,5	3110,257
538,9	3109
539,4	3110,629
539,8	3114,171
540,3	3117,029
540,7	3117,857
541,2	3123,686
541,6	3126,143
542,1	3128,971
542,5	3136,743
543	3143,629
543,4	3152,286
543,9	3152,714
544,3	3149,829
544,8	3144,286
545,2	3151,143
545,7	3147,457
546,1	3153,029
546,5	3149,971
547	3155,771
547,4	3157,714
547,9	3166,286
548,3	3167,114
548,8	3172,229
549,2	3170,514
549,7	3176,943
550,1	3185,257
550,6	3193,829
551	3199,971
551,5	3199,029
551,9	3204,8
552,4	3210,657
552,8	3213
553,3	3212,086
553,7	3212,086
554,2	3211,629
554,6	3222,257
555,1	3226,2
555,5	3227,2
555,9	3228,914
556,4	3233,029
556,8	3238,914
557,3	3241,4
557,7	3245
558,2	3246,371
558,6	3251,629
559,1	3256,371
559,5	3253,629
560	3254,343
560,4	3258,657
560,9	3257,6
561,3	3261,2
561,8	3266,143
562,2	3266,057
562,7	3269,629
563,1	3268,486
563,6	3266,114
564	3267,6
564,4	3265,857
564,9	3261,371
565,3	3266,686
565,8	3275,743
566,2	3281,2
566,7	3283,543
567,1	3290,486
567,6	3298,229
568	3298,886
568,5	3299,429
568,9	3296,971
569,4	3298,771
569,8	3305,429
570,3	3301,629
570,7	3294,114
571,1	3293,8
571,6	3294,514
572	3293,743
572,5	3294,943
572,9	3291,114
573,4	3291,286
573,8	3296,8
574,3	3296,829
574,7	3292,514
575,2	3290,4
575,6	3288,6
576,1	3289,857
576,5	3287,6
576,9	3286,771
577,4	3287,914
577,8	3279,543
578,3	3270,4
578,7	3271,229
579,2	3267,743
579,6	3270,971
580,1	3271,714
580,5	3272,686
581	3278,971
581,4	3285,629
581,9	3276,714
582,3	3265,886
582,7	3262,8
583,2	3251,229
583,6	3239,829
584,1	3231,543
584,5	3229,029
585	3224,571
585,4	3223,514
585,9	3215,971
586,3	3211,4
586,8	3206,457
587,2	3201,114
587,6	3187,057
588,1	3181,057
588,5	3177,457
589	3173,943
589,4	3170,6
589,9	3169,086
590,3	3163,6
590,8	3164,4
591,2	3166,829
591,7	3161,886
592,1	3155,657
592,5	3148,829
593	3144,314
593,4	3141,457
593,9	3132,371
594,3	3116,229
594,8	3107,486
595,2	3102,057
595,7	3097,486
596,1	3093,971
596,6	3088,229
597	3086,971
597,4	3085,029
597,9	3089,4
598,3	3082,914
598,8	3073,114
599,2	3065,8
599,7	3065,743
600,1	3058,2
600,6	3053,629
601	3037,857
601,4	3032,914
601,9	3034,8
602,3	3029,086
602,8	3019,114
603,2	3014,629
603,7	3012,486
604,1	3014,629
604,6	3009,743
605	3004,4
605,4	2992,086
605,9	2983
606,3	2975,2
606,8	2962,314
607,2	2948,543
607,7	2938,114
608,1	2926,514
608,6	2922,514
609	2916,314
609,4	2908,2
609,9	2901,143
610,3	2896,371
610,8	2892,143
611,2	2880,514
611,7	2869,857
612,1	2863,714
612,6	2855,657
613	2850,514
613,4	2838,114
613,9	2824,886
614,3	2818,629
614,8	2813,2
615,2	2801,4
615,7	2792,6
616,1	2782,457
616,6	2773,286
617	2759,714
617,4	2745,8
617,9	2736,629
618,3	2725,286
618,8	2710,486
619,2	2693,457
619,7	2681,486
620,1	2671,514
620,5	2660,171
621	2644,686
621,4	2636,029
621,9	2630,886
622,3	2628,886
622,8	2625,057
623,2	2617,229
623,6	2610,257
624,1	2607,8
624,5	2593,714
625	2574,714
625,4	2560,657
625,9	2548
626,3	2536,686
626,8	2524,914
627,2	2505,257
627,6	2498,143
628,1	2493,857
628,5	2484,143
629	2474,771
629,4	2462,743
629,9	2456,086
630,3	2445,429
630,7	2429,8
631,2	2414,457
631,6	2403,057
632,1	2388,229
632,5	2384,171
633	2365,114
633,4	2358,171
633,8	2344,8
634,3	2336,314
634,7	2320,686
635,2	2304,086
635,6	2283,6
636,1	2282,8
636,5	2268,429
636,9	2258,057
637,4	2252,114
637,8	2242,229
638,3	2230,543
638,7	2219,286
639,2	2203,171
639,6	2194,2
640	2193,171
640,5	2180,514
640,9	2175,286
641,4	2171,8
641,8	2165,857
642,2	2159,114
642,7	2147,743
643,1	2136,429
643,6	2123,571
644	2113,971
644,5	2100
644,9	2091,657
645,3	2079,743
645,8	2071,029
646,2	2056,914
646,7	2044,314
647,1	2034,2
647,6	2025,371
648	2012,6
648,4	2001,743
648,9	1994,4
649,3	1985,514
649,8	1980,171
650,2	1970,486
650,6	1964,6
651,1	1960,486
651,5	1951,686
652	1943,657
652,4	1931,629
652,9	1923,4
653,3	1911,914
653,7	1898,971
654,2	1887,686
654,6	1879,286
655,1	1859,686
655,5	1852,571
655,9	1839,486
656,4	1828,943
656,8	1819,714
657,3	1808,286
657,7	1794,486
658,2	1797,2
658,6	1787,943
659	1776,686
659,5	1767,743
659,9	1762,857
660,4	1754,743
660,8	1750,657
661,2	1735,086
661,7	1726
662,1	1718,229
662,6	1701,914
663	1691,257
663,4	1677,514
663,9	1662,029
664,3	1648,571
664,8	1640,571
665,2	1629,114
665,6	1625,857
666,1	1611,257
666,5	1600,314
667	1589,829
667,4	1584,829
667,9	1566,743
668,3	1558
668,7	1551,229
669,2	1544,371
669,6	1535,229
670,1	1534,571
670,5	1522,229
670,9	1518,457
671,4	1514,114
671,8	1503,514
672,3	1496,971
672,7	1488,2
673,1	1469,314
673,6	1465,171
674	1454,086
674,5	1446,114
674,9	1434,8
675,3	1423,286
675,8	1417,229
676,2	1413,771
676,7	1406
677,1	1399,086
677,5	1389,429
678	1388,057
678,4	1380,686
678,9	1371,857
679,3	1359
679,7	1344,629
680,2	1336,314
680,6	1325,886
681,1	1312,229
681,5	1300,743
681,9	1296
682,4	1291,829
682,8	1284,571
683,3	1276,857
683,7	1270,314
684,1	1264,543
684,6	1259,371
685	1248,514
685,5	1238,171
685,9	1235,486
686,3	1229,571
686,8	1222,114
687,2	1214,6
687,7	1211,429
688,1	1206,686
688,5	1202,171
689	1192,857
689,4	1188,943
689,9	1178,743
690,3	1172,257
690,7	1160,486
691,2	1154,657
691,6	1148,4
692	1141,514
692,5	1131,571
692,9	1123,971
693,4	1117,571
693,8	1109,886
694,2	1092,743
694,7	1087
695,1	1082,343
695,6	1072,6
696	1068,2
696,4	1058,229
696,9	1058,057
697,3	1053,571
697,8	1045,486
698,2	1031,4
698,6	1027,914
699,1	1021,571
699,5	1014,371
699,9	1001,6
700,4	997,486
700,8	993,857
701,3	988,457
701,7	979,257
702,1	976,371
702,6	971,971
703	966,343
703,5	965,657
703,9	955,686
704,3	953,829
704,8	950,914
705,2	942,343
705,6	931,371
706,1	930,571
706,5	923,086
707	918,714
707,4	914,857
707,8	908,857
708,3	902,371
708,7	906
709,2	893,229
709,6	891,114
710	885,514
710,5	876,943
710,9	870,171
711,3	862,629
711,8	855,057
712,2	854,457
712,7	844,971
713,1	838,343
713,5	840
714	837,743
714,4	834,314
714,8	827,457
715,3	822,543
715,7	812
716,2	806
716,6	797,171
717	784,657
717,5	780,943
717,9	773,8
718,3	768,8
718,8	765,886
719,2	759,629
719,7	753,686
720,1	753,829
720,5	745,114
721	739,143
721,4	736
721,8	734,429
722,3	727,086
722,7	719,314
723,2	709,171
723,6	704,371
724	700,057
724,5	688,314
724,9	682,571
725,3	679,743
725,8	671,4
726,2	666,8
726,7	666,086
727,1	660,6
727,5	658,743
728	657,143
728,4	652,314
728,8	652
729,3	647,6
729,7	643,943
730,1	638,714
730,6	632,429
731	629,057
731,5	626,114
731,9	621,943
732,3	621,571
732,8	617,886
733,2	618,343
733,6	618,4
734,1	611,886
734,5	604,686
734,9	598,771
735,4	594,629
735,8	590,143
736,3	584,4
736,7	579,114
737,1	578,257
737,6	580,6
738	585,257
738,4	581,257
738,9	583,457
739,3	579,8
739,7	575,829
740,2	568,257
740,6	562,286
741,1	554,657
741,5	551,829
741,9	540,943
742,4	538,457
742,8	540,314
743,2	539,686
743,7	542,543
744,1	535,6
744,5	533,771
745	528,914
745,4	524,857
745,8	520,314
746,3	517,686
746,7	509,886
747,2	511,4
747,6	508,314
748	507,171
748,5	503,886
748,9	499,086
749,3	496,514
749,8	494,857
750,2	490,771
750,6	486,2
751,1	485
751,5	484,686
751,9	483,343
752,4	479,371
752,8	476,857
753,3	474,257
753,7	473,914
754,1	469,314
754,6	458,914
755	453,429
755,4	451,057
755,9	446,886
756,3	440,914
756,7	434,8
757,2	433,857
757,6	439,086
758	429,971
758,5	421,314
758,9	418
759,3	416,543
759,8	421,257
760,2	419,2
760,6	415,343
761,1	418,4
761,5	419,629
761,9	416,629
762,4	413,714
762,8	405,2
763,3	399,486
763,7	391,543
764,1	388,486
764,6	382,114
765	378,371
765,4	375,629
765,9	369,829
766,3	366,857
766,7	369,371
767,2	366,4
767,6	365,743
768	370,286
768,5	367,086
768,9	363,629
769,3	363,514
769,8	363,8
770,2	367,314
770,6	364,286
771,1	362,6
771,5	363,771
771,9	364,886
772,4	367,8
772,8	363,114
773,2	358,971
773,7	362,629
774,1	354,686
774,5	352,571
775	349,629
775,4	341,714
775,8	340,857
776,3	336
776,7	330,514
777,1	329,743
777,6	324,486
778	324,543
778,4	321,714
778,9	318,714
779,3	316,829
779,7	317
780,2	313,4
780,6	312,914
781	309,114
781,5	307,171
781,9	307,486
782,3	305,886
782,8	299,971
783,2	296,829
783,6	293,229
784,1	293,743
784,5	290,971
784,9	285,171
785,4	285,4
785,8	280,371
786,2	281,286
786,7	277,571
787,1	275,257
787,5	274,343
788	275,914
788,4	272
788,8	275
789,3	272,429
789,7	275,2
790,1	270,629
790,6	270
791	262,629
791,4	261,971
791,9	262,257
792,3	257,486
792,7	260,829
793,2	257,314
793,6	256,657
794	256,743
794,5	256,286
794,9	255,429
795,3	255,029
795,8	245,486
796,2	246,6
796,6	239,143
797,1	237,657
797,5	230,543
797,9	225,2
798,4	223,4
798,8	220,4
799,2	217,571
799,7	223,371
800,1	219,914
800,5	217,571
801	216,514
801,4	218,086
801,8	219,8
802,2	220,4
802,7	213,114
803,1	214,114
803,5	215,143
804	212,771
804,4	207,571
804,8	208,743
805,3	204,029
805,7	203,629
806,1	204,714
806,6	205,657
807	203,629
807,4	202,6
807,9	197,914
808,3	199,286
808,7	196,8
809,2	189,4
809,6	188,086
810	187,829
810,4	187,143
810,9	182,629
811,3	179,914
811,7	179,4
812,2	181,229
812,6	179,629
813	180,543
813,5	176,943
813,9	179,371
814,3	177,343
814,8	175,743
815,2	170,286
815,6	167,771
816,1	160,971
816,5	158,371
816,9	153,114
817,3	149,943
817,8	156,971
818,2	151,943
818,6	153,343
819,1	155,371
819,5	158,829
819,9	157,629
820,4	158,343
820,8	145,229
821,2	152,829
821,7	150,029
822,1	150,257
822,5	148,057
822,9	152
823,4	156,029
823,8	161,743
824,2	160,629
824,7	162,457
825,1	162,286
825,5	163,8
826	161,514
826,4	156,943
826,8	153,943
827,3	153,314
827,7	150,171
828,1	148,743
828,5	145,286
829	140,114
829,4	141,314
829,8	140,114
830,3	139,543
830,7	136,8
831,1	134,057
831,6	131,486
832	131,171
832,4	127,429
832,8	125,743
833,3	118,914
833,7	118,314
834,1	114,6
834,6	111,8
835	113,057
835,4	116,143
835,8	113
836,3	112,2
836,7	102,886
837,1	101,943
837,6	101,886
838	96,143
838,4	91,114
838,9	96,971
839,3	103,086
839,7	107,8
840,1	106,943
840,6	109,286
841	112,829
841,4	110,8
841,9	105,657
842,3	104,686
842,7	105,886
843,1	109,571
843,6	108,257
844	110,543
844,4	113,371
844,9	111,8
845,3	108,229
845,7	108,771
846,2	104,886
846,6	100,6
847	93,943
847,4	85,371
847,9	84,286
848,3	84,629
848,7	81,886
849,2	81,886
849,6	85
850	82,971
850,4	89,629
850,9	89,257
851,3	84,571
851,7	84,829
852,2	83,457
852,6	82,286
853	86,486
853,4	86,914
853,9	83,714
854,3	84,143
854,7	81,514
855,2	79,171
855,6	77,086
856	72,771
856,4	71,686
856,9	71,457
857,3	72,8
857,7	75,086
858,2	75,543
858,6	79,4
859	78,886
859,4	78,571
859,9	80,857
860,3	74,743
860,7	74,543
861,1	75,114
861,6	72,771
862	78,2
862,4	79,257
862,9	77,4
863,3	80,057
863,7	74,943
864,1	76,629
864,6	75,429
865	73,371
865,4	67,143
865,9	66,914
866,3	66,743
866,7	70
867,1	70,457
867,6	67,029
868	65,286
868,4	64,857
868,8	65,171
869,3	66,371
869,7	66,314
870,1	66,571
870,6	64,829
871	57,771
871,4	59,343
871,8	56,086
872,3	58,314
872,7	54,771
873,1	53,514
873,5	58,486
874	66,429
874,4	62,829
874,8	62,429
875,3	56,857
875,7	55,257
876,1	51,286
876,5	51
877	50,343
877,4	50,457
877,8	55,886
878,2	57,086
878,7	63,2
879,1	62,4
879,5	60,457
879,9	57,657
880,4	57,829
880,8	56,571
881,2	57,571
881,7	56,6
882,1	58,171
882,5	56,086
882,9	55,429
883,4	62,429
883,8	59,543
884,2	60,143
884,6	55,314
885,1	54,629
885,5	58,829
885,9	63,229
886,3	56,771
886,8	54,971
887,2	52,343
887,6	56,6
888	54,4
888,5	47,6
888,9	44,314
889,3	36,743
889,8	38,743
890,2	35,657
890,6	31,2
891	31,514
891,5	38,057
891,9	37,171
892,3	41,429
892,7	41,171
893,2	42,686
893,6	42,114
894	42,257
894,4	39,2
894,9	39,429
895,3	43,143
895,7	40,2
896,1	41,429
896,6	40,686
897	40,086
897,4	39,629
897,8	38,886
898,3	39,6
898,7	38,086
899,1	38,257
899,5	39,657
900	34,743
900,4	32,286
900,8	31,286
901,2	27,686
901,7	32,029
902,1	31,657
902,5	30,543
902,9	40,571
903,4	42,286
903,8	42
904,2	47,229
904,6	43,057
905,1	45,086
905,5	42,343
905,9	38,286
906,3	34,429
906,8	35,543
907,2	29,857
907,6	30,029
908	25,514
908,5	26,943
908,9	24,743
909,3	25,829
909,7	21,629
910,2	21,343
910,6	24,029
911	26,857
911,4	24,829
911,9	25,057
912,3	21,914
912,7	23,629
913,1	18,143
913,6	17,029
914	15,286
914,4	14,429
914,8	13,371
915,3	16,8
915,7	15,429
916,1	20,857
916,5	20,229
916,9	18,657
917,4	22,486
917,8	20,571
918,2	17,629
918,6	18,771
919,1	18,829
919,5	24,429
919,9	23,171
920,3	23,714
920,8	25,057
921,2	31,257
921,6	29,543
922	28,171
922,5	24,057
922,9	23,6
923,3	26,514
923,7	26,829
924,2	19,629
924,6	20,6
925	19,343
925,4	19,829
925,8	18,886
926,3	17,429
926,7	20,714
927,1	24,743
927,5	26,286
928	25,971
928,4	23,657
928,8	28,914
929,2	26,629
929,7	18,314
930,1	16,2
930,5	11,371
930,9	16,486
931,3	16,686
931,8	10,571
932,2	7,286
932,6	15,829
933	14,571
933,5	19,743
933,9	16,629
934,3	15,086
934,7	22,8
935,2	27,914
935,6	23,171
936	20,6
936,4	18,686
936,8	17,429
937,3	18,571
937,7	13,2
938,1	8,971
938,5	9,657
939	15,171
939,4	17
939,8	17,343
940,2	15,771
940,6	15,086
941,1	22,514
941,5	25,2
941,9	22,543
942,3	16,829
942,8	18,971
943,2	19,743
943,6	19,657
944	11,629
944,4	4,657
944,9	2,429
945,3	6,429
945,7	7,343
946,1	5,8
946,6	3,686
947	7,6
947,4	7,914
947,8	10,486
948,2	9,286
948,7	5,457
949,1	4,429
949,5	8,029
949,9	8,343
950,3	15,143
950,8	14,857
951,2	13,886
951,6	18,743
952	18,686
952,5	17,657
952,9	12,657
953,3	6,171
953,7	7,171
954,1	6,6
954,6	7,229
955	10,8
955,4	11,257
955,8	14,286
956,2	14,514
956,7	16,143
957,1	17
957,5	10,914
957,9	11,829
958,3	14,4
958,8	12,314
959,2	14,114
959,6	13,6
960	14,629
960,5	12,486
960,9	8,114
961,3	4,429
961,7	1,714
962,1	1,914
962,6	-1,857
963	-2,714
963,4	1,2
963,8	3,429
964,2	0,286
964,7	4
965,1	4,343
965,5	6,086
965,9	5,829
966,3	6,6
966,8	7
967,2	9,914
967,6	8,914
968	6,286
968,4	8,2
968,9	12,743
969,3	6,629
969,7	4,8
970,1	5,086
970,5	6,6
971	5,771
971,4	7,429
971,8	6,057
972,2	11,429
972,6	11,6
973,1	13,714
973,5	15,857
973,9	19,371
974,3	13,114
974,7	8,429
975,2	8,086
975,6	2,314
976	4,371
976,4	0,429
976,8	1,286
977,3	4,743
977,7	4,429
978,1	1,371
978,5	9,714
978,9	4,171
979,4	4,486
979,8	3
980,2	-1,971
980,6	4,2
981	10
981,5	9,457
981,9	7,743
982,3	7,6
982,7	9,057
983,1	16,457
983,6	12,171
984	8,943
984,4	10,857
984,8	14,257
985,2	15,514
985,6	14,314
986,1	10,2
986,5	7,143
986,9	9,6
987,3	3,029
987,7	3,143
988,2	5,457
988,6	4,143
989	6,314
989,4	12,429
989,8	11,8
990,3	12,657
990,7	12,371
991,1	6,514
991,5	4,743
991,9	8,457
992,3	6,771
992,8	12,743
993,2	16,086
993,6	14
994	16,2
994,4	18,657
994,9	15,143
995,3	13,286
995,7	3,971
996,1	1,171
996,5	-0,086
996,9	4,286
997,4	0,686
997,8	0,343
998,2	3,971
998,6	7,429
999	8,057
999,5	10,686
999,9	10,629
1000,3	15,371
1000,7	13,314
1001,1	11,886
1001,5	4,543
1002	0,914
1002,4	1,114
1002,8	0,971
1003,2	2,486
1003,6	5,571
1004	3,6
1004,5	7,171
1004,9	9,629
1005,3	5,343
1005,7	3,171
1006,1	-1,086
1006,6	-4,057
1007	-4,943
1007,4	-1,829
1007,8	0,057
1008,2	4,429
1008,6	-2,914
1009,1	-3,943
1009,5	2,343
1009,9	8,886
1010,3	10,057
1010,7	12,114
1011,1	14,143
1011,6	18,371
1012	16,829
1012,4	15,971
1012,8	7,429
1013,2	6,657
1013,6	3,6
1014,1	2,571
1014,5	3,8
1014,9	9,143
1015,3	5,457
1015,7	8,114
1016,1	8,171
1016,6	11,286
1017	10,6
1017,4	7,6
1017,8	3,943
1018,2	1,571
1018,6	1,286
1019,1	-4,257
1019,5	-5,171
1019,9	-5,486
1020,3	-5,314
1020,7	-3,457
1021,1	1,914
1021,6	-0,371
1022	0,8
1022,4	2,2
1022,8	5,886
1023,2	7,714
1023,6	5,771
1024,1	4,143
1024,5	5,771
1024,9	10,514
1025,3	8,829
1025,7	8,771
1026,1	11,457
1026,6	13,429
1027	8,714
1027,4	11,429
1027,8	7,486
1028,2	6,171
1028,6	2,714
1029	-1,971
1029,5	-0,629
1029,9	3,914
1030,3	4,486
1030,7	4,457
1031,1	1,229
1031,5	-1,543
1032	4,629
1032,4	7,714
1032,8	5,257
1033,2	4,8
1033,6	7,486
1034	12,429
1034,4	19,171
1034,9	13,257
1035,3	12,429
1035,7	14,114
1036,1	11,829
1036,5	4,486
1036,9	2,971
1037,4	0,086
1037,8	4,486
1038,2	0,829
1038,6	-3,4
1039	-3,8
1039,4	3,543
1039,8	0,771
1040,3	-2,114
1040,7	-7,314
1041,1	-3,743
1041,5	-3,943
1041,9	-2,943
1042,3	-2,4
1042,7	2,629
1043,2	6,486
1043,6	14,629
1044	10,714
1044,4	10,571
1044,8	7,429
1045,2	9,371
1045,6	9,114
1046,1	7,857
1046,5	5,057
1046,9	7,286
1047,3	11,2
1047,7	12,371
1048,1	9,086
1048,5	7,2
1049	10,429
1049,4	3,886
1049,8	2,914
1050,2	3,571
1050,6	8,2
1051	10,743
1051,4	8,943
1051,9	8
1052,3	7,914
1052,7	11,829
1053,1	12,114
1053,5	12,714
1053,9	10,2
1054,3	9,2
1054,8	14,286
1055,2	16,457
1055,6	11,114
1056	8,571
1056,4	5,571
1056,8	7,543
1057,2	12
1057,6	2,114
1058,1	4,943
1058,5	-0,4
1058,9	3,914
1059,3	10,743
1059,7	4,543
1060,1	1,2
1060,5	0,086
1061	-4,343
1061,4	5,714
1061,8	-2,143
1062,2	-8,4
1062,6	-7,657
1063	-5,829
1063,4	-2,343
1063,8	-0,686
1064,3	-3,057
1064,7	1,8
1065,1	5,343
1065,5	13,829
1065,9	13
1066,3	8,971
1066,7	9,714
1067,1	7,943
1067,6	9,429
1068	2,057
1068,4	-1,743
1068,8	-0,343
1069,2	2,457
1069,6	5,2
1070	5,514
1070,4	3,171
1070,9	5,057
1071,3	5,314
1071,7	5,143
1072,1	9,029
1072,5	11,086
1072,9	13,286
1073,3	13,514
1073,7	15
1074,2	15,629
1074,6	16
1075	9,114
1075,4	7,457
1075,8	7,4
1076,2	5,886
1076,6	4,943
1077	2,4
1077,5	3,886
1077,9	5,657
1078,3	0,257
1078,7	-1,057
1079,1	2,743
1079,5	-0,057
1079,9	4,886
1080,3	1,629
1080,7	5,029
1081,2	8,286
1081,6	9,971
1082	11,4
1082,4	13,229
1082,8	8,286
1083,2	7,086
1083,6	4,371
1084	3,829
1084,5	2,229
1084,9	1,029
1085,3	0,143
1085,7	-4,829
1086,1	-4,629
1086,5	-0,371
1086,9	1,6
1087,3	-0,4
1087,7	0,629
1088,2	1,229
1088,6	3,029
1089	3,343
1089,4	2,343
1089,8	3,057
1090,2	3,286
1090,6	-1,543
1091	1,143
1091,4	2,286
1091,9	6,657
1092,3	3,857
1092,7	1,2
1093,1	1,343
1093,5	2,886
1093,9	3,257
1094,3	8,029
1094,7	4,743
1095,1	2,714
1095,5	5,629
1096	0,543
1096,4	-0,543
1096,8	-3,943
1097,2	-5,686
1097,6	-6,771
1098	-1,429
1098,4	0,971
1098,8	8,343
1099,2	8
1099,6	11,286
1100,1	11,371
1100,5	13,686
1100,9	10,886
1101,3	6,743
1101,7	7,229
1102,1	9,086
1102,5	5
1102,9	2,371
1103,3	-0,457
1103,7	-2,371
1104,2	0,914
1104,6	0,543
1105	3,543
1105,4	9,114
1105,8	10,4
1106,2	11,771
1106,6	12,571
1107	8,343
1107,4	7,6
1107,8	3,8
1108,3	0,25
