Data from Subt2_087.txt Node
Date: Sat Aug 26 16:41:39 MSK 2023
User: vat
Spectrometer: MAYP114033
Trigger mode: 0
Integration Time (sec): 1,000000E0
Scans to average: 5
Electric dark correction enabled: true
Nonlinearity correction enabled: false
Boxcar width: 3
XAxis mode: Wavelengths
Number of Pixels in Spectrum: 2068
>>>>>Begin Spectral Data<<<<<
199,4	-0,75
199,9	2,48
200,4	0,2
200,8	-1,914
201,3	-0,657
201,8	2,143
202,2	3,943
202,7	8,2
203,2	6,114
203,6	8,886
204,1	12,143
204,6	18,143
205	16,886
205,5	13,886
206	12,171
206,4	12,514
206,9	8,829
207,4	11,2
207,8	4,029
208,3	3,714
208,8	5,171
209,2	4,457
209,7	3
210,2	8,914
210,6	6,886
211,1	6,886
211,5	5,029
212	4,657
212,5	2,743
212,9	4,257
213,4	0,971
213,9	-0,486
214,3	3,571
214,8	6,114
215,3	4,286
215,7	2,486
216,2	5
216,7	6,371
217,1	8,029
217,6	5,829
218,1	4,914
218,5	5,314
219	10,514
219,5	9,971
219,9	9,2
220,4	8,857
220,9	8,714
221,3	10,657
221,8	9,829
222,3	7,4
222,7	3,314
223,2	5,971
223,6	2,429
224,1	3,029
224,6	0,771
225	3,371
225,5	9
226	10,2
226,4	9,686
226,9	12,286
227,4	8,257
227,8	9,229
228,3	10,971
228,8	4,886
229,2	8,743
229,7	0,8
230,2	5,8
230,6	7,543
231,1	8,343
231,5	14,743
232	20,486
232,5	20,343
232,9	29,543
233,4	26,971
233,9	29,371
234,3	28,886
234,8	24,571
235,3	21,914
235,7	22,286
236,2	19,686
236,7	19,057
237,1	16,086
237,6	15,029
238,1	12,771
238,5	12,029
239	10,029
239,4	13,286
239,9	12,686
240,4	14,314
240,8	15,943
241,3	13,4
241,8	10,571
242,2	8,657
242,7	6,657
243,2	5,629
243,6	4,514
244,1	2,286
244,6	1,971
245	6,486
245,5	3,6
245,9	4,714
246,4	5,6
246,9	7,314
247,3	6,4
247,8	7,086
248,3	6,943
248,7	14,143
249,2	8,143
249,7	9,257
250,1	10,143
250,6	9,229
251	7,829
251,5	3,371
252	3,086
252,4	6,714
252,9	6,114
253,4	5,943
253,8	5,286
254,3	7,571
254,8	8,914
255,2	6,257
255,7	5,857
256,1	6,429
256,6	8,457
257,1	12,371
257,5	16
258	14,229
258,5	15,971
258,9	17,771
259,4	19,486
259,9	19,314
260,3	18,714
260,8	16,2
261,2	22,371
261,7	22,229
262,2	20
262,6	17,371
263,1	11,057
263,6	13,8
264	12,629
264,5	11,971
264,9	11,114
265,4	15,286
265,9	15,6
266,3	23,886
266,8	22,686
267,3	27,257
267,7	25,143
268,2	22,057
268,7	17,6
269,1	14,343
269,6	11,686
270	13,2
270,5	11,714
271	10,829
271,4	11,286
271,9	12,629
272,4	17,171
272,8	12,657
273,3	10,714
273,7	5,8
274,2	3,6
274,7	7,086
275,1	3
275,6	0,457
276,1	3,886
276,5	5,057
277	8,171
277,4	12,714
277,9	9,543
278,4	13,971
278,8	20
279,3	15,486
279,8	17,686
280,2	16,857
280,7	11,914
281,1	14,4
281,6	13,571
282,1	10,971
282,5	18,657
283	14,229
283,4	15,971
283,9	17,2
284,4	15,2
284,8	17,4
285,3	11,771
285,8	6,114
286,2	10,257
286,7	8,143
287,1	8,886
287,6	12,257
288,1	14,743
288,5	17,829
289	18,057
289,5	14,486
289,9	14,371
290,4	12,914
290,8	14
291,3	6,143
291,8	6,257
292,2	9,857
292,7	8,914
293,1	10,2
293,6	12,229
294,1	10,571
294,5	16,486
295	16,086
295,5	19,257
295,9	25,114
296,4	28,629
296,8	29,114
297,3	29,257
297,8	28,629
298,2	28,886
298,7	21
299,1	20,514
299,6	16,943
300,1	16,514
300,5	20,086
301	19,171
301,5	17,457
301,9	16,657
302,4	7,971
302,8	5,743
303,3	2,943
303,8	-4,743
304,2	-8,571
304,7	-7,371
305,1	-2,371
305,6	1,514
306,1	2,971
306,5	7,229
307	8,571
307,4	11,314
307,9	10,629
308,4	11,086
308,8	13,629
309,3	11,629
309,8	13,314
310,2	11,657
310,7	14,771
311,1	11,114
311,6	9,571
312,1	10,971
312,5	14,4
313	7,143
313,4	8,657
313,9	10,743
314,4	12,114
314,8	13,257
315,3	11,171
315,7	11,057
316,2	12,4
316,7	15,857
317,1	11,829
317,6	14,229
318	14,343
318,5	18,543
319	16,486
319,4	17,8
319,9	14,057
320,3	16,4
320,8	15,514
321,3	10,457
321,7	3,857
322,2	6,2
322,6	4,229
323,1	6,829
323,6	2,886
324	5,657
324,5	6,286
324,9	7,229
325,4	7,257
325,9	14,686
326,3	14,486
326,8	17,343
327,2	18,686
327,7	20,971
328,2	18,257
328,6	19,086
329,1	13,629
329,5	14,343
330	13,771
330,5	10,2
330,9	9,943
331,4	8,286
331,8	11,457
332,3	14,829
332,8	13,114
333,2	8,857
333,7	12,6
334,1	14,8
334,6	20,229
335,1	16,229
335,5	15,371
336	14,914
336,4	21,314
336,9	19,114
337,4	19,714
337,8	21,686
338,3	18,971
338,7	17,6
339,2	22,343
339,7	20,686
340,1	22,6
340,6	17,057
341	17,829
341,5	22
342	20,371
342,4	16,971
342,9	12,371
343,3	15,486
343,8	20,143
344,2	19,971
344,7	15,2
345,2	14,4
345,6	14,6
346,1	19,371
346,5	19,829
347	21,029
347,5	18,6
347,9	21,714
348,4	26,143
348,8	26
349,3	21,914
349,8	18,771
350,2	14,743
350,7	14,4
351,1	13,686
351,6	14,971
352	23,886
352,5	30,371
353	37,286
353,4	44,057
353,9	58,714
354,3	72,429
354,8	85,543
355,3	99,886
355,7	123,686
356,2	143,4
356,6	172,571
357,1	192,4
357,5	221,971
358	259,029
358,5	298,8
358,9	338,657
359,4	388,171
359,8	439,086
360,3	505,057
360,8	579
361,2	659,943
361,7	750,057
362,1	854,743
362,6	965
363	1086,514
363,5	1213,971
364	1341,971
364,4	1474,771
364,9	1600,914
365,3	1724,857
365,8	1845,257
366,3	1961,943
366,7	2066,514
367,2	2162,886
367,6	2235,829
368,1	2298,4
368,5	2336,371
369	2361,714
369,5	2362,371
369,9	2342,971
370,4	2302,971
370,8	2248,886
371,3	2185,457
371,7	2106,771
372,2	2015,8
372,7	1914,4
373,1	1812
373,6	1704,4
374	1599,571
374,5	1489,486
374,9	1385,629
375,4	1282,743
375,9	1194,886
376,3	1104,2
376,8	1020,743
377,2	943,943
377,7	866,429
378,2	798,914
378,6	732,629
379,1	667,657
379,5	611,857
380	562,371
380,4	513,714
380,9	472,657
381,4	433,829
381,8	404,6
382,3	377,6
382,7	349,629
383,2	321,514
383,6	294,2
384,1	278
384,6	256,914
385	239,4
385,5	219,914
385,9	207,229
386,4	195,057
386,8	187,286
387,3	167,457
387,7	160,514
388,2	147,971
388,7	135,857
389,1	120,171
389,6	111,743
390	105,771
390,5	104,543
390,9	99,2
391,4	97,743
391,9	92,057
392,3	85,629
392,8	84,257
393,2	76,171
393,7	73,486
394,1	69,771
394,6	61,714
395,1	58,857
395,5	64,143
396	57,686
396,4	56,371
396,9	55,571
397,3	47,629
397,8	47,314
398,2	47,114
398,7	38,657
399,2	35,8
399,6	38,086
400,1	30,857
400,5	36,057
401	37,086
401,4	37,743
401,9	44,886
402,4	51,229
402,8	48,486
403,3	48,257
403,7	43
404,2	41
404,6	38,486
405,1	35,943
405,5	27,086
406	25,714
406,5	26,914
406,9	31,4
407,4	31,4
407,8	35,457
408,3	37,429
408,7	46,543
409,2	49,943
409,6	52,029
410,1	53,971
410,6	56,8
411	56,429
411,5	52,629
411,9	49,286
412,4	51,829
412,8	54,657
413,3	54,914
413,7	58,943
414,2	62,4
414,7	74,2
415,1	76,8
415,6	78,829
416	80,114
416,5	81,457
416,9	86,2
417,4	87,486
417,8	84,743
418,3	91,971
418,8	90,229
419,2	94,857
419,7	102,286
420,1	99,8
420,6	101,914
421	102,714
421,5	102,057
421,9	105,943
422,4	105,429
422,8	102,486
423,3	104,029
423,8	107,629
424,2	107,714
424,7	105,6
425,1	101,571
425,6	106,6
426	108,6
426,5	106,743
426,9	108,6
427,4	111,514
427,9	112,2
428,3	117,971
428,8	116,657
429,2	115,657
429,7	116,6
430,1	116,914
430,6	117
431	116,943
431,5	117,171
431,9	118,343
432,4	121,457
432,8	124,657
433,3	122,571
433,8	128,571
434,2	136,743
434,7	142,314
435,1	146
435,6	153,086
436	156,829
436,5	167,543
436,9	171,429
437,4	176,914
437,8	180,829
438,3	187,971
438,8	189,971
439,2	197,771
439,7	200,743
440,1	207,257
440,6	216,314
441	225,286
441,5	235,629
441,9	246,657
442,4	263,429
442,8	275,029
443,3	287,486
443,7	292,714
444,2	307,343
444,7	317,486
445,1	331,629
445,6	338,057
446	353,8
446,5	367,857
446,9	389,029
447,4	403,914
447,8	417,971
448,3	436,8
448,7	454,229
449,2	469,714
449,6	485,429
450,1	505,486
450,6	528,971
451	545,514
451,5	564,6
451,9	586,057
452,4	608,571
452,8	636,657
453,3	655,486
453,7	671,657
454,2	699,343
454,6	723,171
455,1	744,029
455,5	773,2
456	796
456,4	824,371
456,9	853,229
457,3	885,657
457,8	916,714
458,3	951,629
458,7	977,657
459,2	1004,571
459,6	1033,771
460,1	1062,943
460,5	1090,943
461	1115,314
461,4	1148,2
461,9	1178
462,3	1215,857
462,8	1250
463,2	1287,457
463,7	1322,543
464,1	1361,8
464,6	1394,514
465	1432,657
465,5	1468,029
466	1506,2
466,4	1544,4
466,9	1584,257
467,3	1617,714
467,8	1661,2
468,2	1702,686
468,7	1740,171
469,1	1778,686
469,6	1816,857
470	1852,857
470,5	1897,743
470,9	1928,314
471,4	1966,743
471,8	2005,914
472,3	2043,486
472,7	2080,743
473,2	2119,457
473,6	2158,486
474,1	2198,314
474,5	2236,057
475	2278,114
475,4	2318,829
475,9	2363,286
476,4	2400,514
476,8	2438
477,3	2482,171
477,7	2529,8
478,2	2565,257
478,6	2595,943
479,1	2629,171
479,5	2668,629
480	2708,571
480,4	2745,371
480,9	2771,143
481,3	2803,143
481,8	2839,257
482,2	2870,286
482,7	2907,543
483,1	2940,086
483,6	2961,914
484	2995,114
484,5	3027,971
484,9	3060,657
485,4	3093,971
485,8	3115,171
486,3	3136,514
486,7	3174,971
487,2	3198,086
487,6	3221,771
488,1	3245
488,5	3265,657
489	3293,686
489,4	3313,429
489,9	3334,257
490,4	3358,4
490,8	3383,057
491,3	3410,971
491,7	3431,257
492,2	3450,771
492,6	3476,2
493,1	3490,514
493,5	3504,6
494	3519,4
494,4	3530,429
494,9	3553,629
495,3	3569,829
495,8	3583,571
496,2	3602,257
496,7	3617,229
497,1	3637,771
497,6	3656,286
498	3660,743
498,5	3672,086
498,9	3687,4
499,4	3687,571
499,8	3694,914
500,3	3706,686
500,7	3710,6
501,2	3723,629
501,6	3735,314
502,1	3741,086
502,5	3761,486
503	3779,714
503,4	3782,8
503,9	3797,714
504,3	3810,371
504,8	3812,943
505,2	3818,486
505,7	3828,657
506,1	3838,8
506,6	3847,543
507	3852,029
507,5	3855,171
507,9	3873,714
508,4	3888,086
508,8	3883,8
509,3	3884,914
509,7	3888,686
510,2	3894,857
510,6	3896,171
511,1	3896,829
511,5	3902,4
512	3916,543
512,4	3919,914
512,9	3925,6
513,3	3934,143
513,8	3942,286
514,2	3945,8
514,7	3949,8
515,1	3954,229
515,6	3952,914
516	3962,057
516,5	3966,829
516,9	3974,857
517,4	3985,857
517,8	3988,171
518,3	3988,857
518,7	4002,029
519,2	4002,514
519,6	4003,829
520,1	4009,714
520,5	4008,2
521	4009,686
521,4	4017,086
521,9	4025,429
522,3	4029,971
522,8	4041,571
523,2	4048,086
523,7	4051,571
524,1	4063,457
524,6	4068,229
525	4076,857
525,5	4085,343
525,9	4088,686
526,4	4095,629
526,8	4103,943
527,3	4106,371
527,7	4116,714
528,2	4114,971
528,6	4125,714
529,1	4125,829
529,5	4123,714
530	4124,971
530,4	4136,057
530,9	4141,743
531,3	4155,286
531,8	4165,086
532,2	4171,657
532,6	4188,314
533,1	4198,429
533,5	4197,571
534	4207,486
534,4	4211
534,9	4220,8
535,3	4238,629
535,8	4244,029
536,2	4248,943
536,7	4268,086
537,1	4275,886
537,6	4291,257
538	4291,857
538,5	4294,114
538,9	4300,343
539,4	4316,2
539,8	4317,686
540,3	4319,229
540,7	4323,371
541,2	4327,686
541,6	4338,4
542,1	4350,6
542,5	4358,743
543	4367,486
543,4	4381,257
543,9	4380,371
544,3	4385,514
544,8	4394,114
545,2	4396,771
545,7	4400,686
546,1	4409,257
546,5	4415,486
547	4434,686
547,4	4454,971
547,9	4458,057
548,3	4465,486
548,8	4478,629
549,2	4490,314
549,7	4501,343
550,1	4508,457
550,6	4512,686
551	4525,771
551,5	4536,143
551,9	4544,514
552,4	4549,4
552,8	4553,057
553,3	4560,114
553,7	4564,343
554,2	4569,486
554,6	4574,2
555,1	4578,829
555,5	4587,886
555,9	4599,086
556,4	4602,829
556,8	4613,286
557,3	4622,4
557,7	4634,057
558,2	4638,886
558,6	4645,286
559,1	4644,2
559,5	4657,029
560	4659,286
560,4	4664,257
560,9	4667,886
561,3	4677,8
561,8	4688,114
562,2	4699,971
562,7	4701,114
563,1	4702,857
563,6	4707,171
564	4716,2
564,4	4717,314
564,9	4710,429
565,3	4711,029
565,8	4718,314
566,2	4724,771
566,7	4726,629
567,1	4731,314
567,6	4732,514
568	4745,486
568,5	4745,029
568,9	4743,229
569,4	4753,029
569,8	4758,057
570,3	4755,714
570,7	4755,8
571,1	4750,086
571,6	4762,657
572	4763,629
572,5	4758,4
572,9	4761,286
573,4	4763,371
573,8	4768
574,3	4774,4
574,7	4766,429
575,2	4761,743
575,6	4760,714
576,1	4755,686
576,5	4752,2
576,9	4752,714
577,4	4747,943
577,8	4745,371
578,3	4740,943
578,7	4742,486
579,2	4744,857
579,6	4735,657
580,1	4731,686
580,5	4721,771
581	4720,514
581,4	4720,686
581,9	4708,171
582,3	4690,743
582,7	4690,657
583,2	4674,829
583,6	4665,686
584,1	4656,086
584,5	4651,229
585	4650,571
585,4	4650,171
585,9	4646,143
586,3	4641,371
586,8	4631,714
587,2	4625,143
587,6	4607,771
588,1	4604,171
588,5	4595,029
589	4578,171
589,4	4578,514
589,9	4582,686
590,3	4569,143
590,8	4575,029
591,2	4556,657
591,7	4547,629
592,1	4548,314
592,5	4538,257
593	4527,429
593,4	4525,086
593,9	4511,829
594,3	4502,686
594,8	4500,257
595,2	4488,2
595,7	4478,743
596,1	4473,771
596,6	4470,086
597	4457,257
597,4	4452,143
597,9	4440,257
598,3	4428,057
598,8	4417,657
599,2	4407,4
599,7	4400,314
600,1	4401,314
600,6	4392,743
601	4385,486
601,4	4381,2
601,9	4373,057
602,3	4365,257
602,8	4350,914
603,2	4338,8
603,7	4334,086
604,1	4326,629
604,6	4316,171
605	4307,543
605,4	4293,029
605,9	4283,486
606,3	4266,143
606,8	4243,629
607,2	4223,971
607,7	4212,486
608,1	4194,857
608,6	4184,771
609	4169,543
609,4	4160,029
609,9	4158,514
610,3	4144
610,8	4130,971
611,2	4117,2
611,7	4100,143
612,1	4085,143
612,6	4074,057
613	4056,943
613,4	4047,943
613,9	4028,943
614,3	4021,829
614,8	4004,6
615,2	3993,029
615,7	3973,743
616,1	3955,571
616,6	3939,457
617	3927,714
617,4	3906
617,9	3894,086
618,3	3875,514
618,8	3859,943
619,2	3847,714
619,7	3838,743
620,1	3819
620,5	3811,743
621	3793,143
621,4	3782,829
621,9	3765,486
622,3	3747,743
622,8	3723,943
623,2	3713,371
623,6	3683,657
624,1	3672
624,5	3648,543
625	3633,143
625,4	3616,486
625,9	3600,257
626,3	3580,686
626,8	3572,771
627,2	3553,8
627,6	3538,371
628,1	3518,8
628,5	3502,686
629	3489
629,4	3469,971
629,9	3446,286
630,3	3433,743
630,7	3414,914
631,2	3398,029
631,6	3374,686
632,1	3348,029
632,5	3334,429
633	3318,514
633,4	3295,371
633,8	3280,2
634,3	3261,343
634,7	3250,771
635,2	3242,771
635,6	3223,486
636,1	3211,857
636,5	3196,6
636,9	3181
637,4	3172,743
637,8	3149,371
638,3	3131,343
638,7	3120,943
639,2	3102,314
639,6	3086,343
640	3068,343
640,5	3042,714
640,9	3030,514
641,4	3009,514
641,8	2988,486
642,2	2979,8
642,7	2967,943
643,1	2956,114
643,6	2951,171
644	2946,371
644,5	2939,629
644,9	2924,571
645,3	2908,8
645,8	2888,171
646,2	2876,743
646,7	2856,657
647,1	2837,971
647,6	2815,714
648	2798,2
648,4	2778,429
648,9	2766,914
649,3	2749,057
649,8	2734,429
650,2	2717,829
650,6	2704,143
651,1	2701,629
651,5	2687,829
652	2675,314
652,4	2659,057
652,9	2648,286
653,3	2632,743
653,7	2622,314
654,2	2599,829
654,6	2583,829
655,1	2568,857
655,5	2551,171
655,9	2541,171
656,4	2525,429
656,8	2510,914
657,3	2495,486
657,7	2484,343
658,2	2472,429
658,6	2458,971
659	2434,143
659,5	2419,829
659,9	2404,8
660,4	2390,743
660,8	2377,571
661,2	2359,286
661,7	2346,543
662,1	2338,771
662,6	2324,286
663	2306,314
663,4	2291,2
663,9	2273,314
664,3	2257,229
664,8	2241,086
665,2	2227,743
665,6	2215,829
666,1	2205,943
666,5	2194,829
667	2178,457
667,4	2168,686
667,9	2157
668,3	2143,4
668,7	2126,886
669,2	2108,914
669,6	2096,229
670,1	2088
670,5	2067,771
670,9	2058,457
671,4	2038,771
671,8	2025,886
672,3	2013,086
672,7	1996,686
673,1	1979,543
673,6	1966,657
674	1952,6
674,5	1938,6
674,9	1925,371
675,3	1914,543
675,8	1904,2
676,2	1899,743
676,7	1888,914
677,1	1875,257
677,5	1867,429
678	1857,257
678,4	1845,829
678,9	1831,543
679,3	1813,4
679,7	1803,143
680,2	1792,571
680,6	1779,114
681,1	1765,4
681,5	1754,943
681,9	1742
682,4	1735,257
682,8	1721,771
683,3	1704
683,7	1693,229
684,1	1680,543
684,6	1671,571
685	1656,057
685,5	1638,6
685,9	1628,714
686,3	1622,457
686,8	1612,886
687,2	1607,657
687,7	1596,2
688,1	1595,2
688,5	1590,4
689	1582,514
689,4	1575,943
689,9	1569,029
690,3	1554,657
690,7	1546,114
691,2	1534,657
691,6	1519,4
692	1506,829
692,5	1492,029
692,9	1478,143
693,4	1471,143
693,8	1457,714
694,2	1447,229
694,7	1441,229
695,1	1432,829
695,6	1420,857
696	1411,257
696,4	1399,8
696,9	1393
697,3	1379,829
697,8	1362,629
698,2	1353,457
698,6	1349,686
699,1	1337,571
699,5	1331,143
699,9	1320,686
700,4	1313,057
700,8	1312,314
701,3	1305
701,7	1295,486
702,1	1292,686
702,6	1280,714
703	1268,457
703,5	1259,457
703,9	1245,314
704,3	1236,657
704,8	1226,971
705,2	1219,114
705,6	1208,886
706,1	1205,457
706,5	1198,114
707	1193,657
707,4	1186,686
707,8	1179,114
708,3	1167,257
708,7	1161,029
709,2	1147
709,6	1141,686
710	1131,057
710,5	1124,229
710,9	1115,057
711,3	1103,229
711,8	1098,171
712,2	1096,257
712,7	1091,057
713,1	1083,2
713,5	1071,257
714	1065,314
714,4	1063,657
714,8	1054,914
715,3	1048,086
715,7	1034,429
716,2	1028,686
716,6	1022,486
717	1010,914
717,5	1003,257
717,9	991,657
718,3	982,171
718,8	978,6
719,2	972,8
719,7	968,457
720,1	960,457
720,5	952,886
721	949,171
721,4	943,486
721,8	938,686
722,3	927,714
722,7	916,771
723,2	912,429
723,6	905,229
724	899,057
724,5	884,514
724,9	869,914
725,3	861,286
725,8	854,657
726,2	842,943
726,7	836,743
727,1	827,771
727,5	826,4
728	822,086
728,4	820,971
728,8	815,971
729,3	817,771
729,7	812,771
730,1	807,457
730,6	803,343
731	800,371
731,5	794,571
731,9	794,143
732,3	790,514
732,8	783,686
733,2	780,629
733,6	777,257
734,1	771,943
734,5	763,8
734,9	751,8
735,4	747,514
735,8	743,314
736,3	743,2
736,7	737,229
737,1	734,743
737,6	733,829
738	735,429
738,4	730,229
738,9	729,343
739,3	718,114
739,7	711,971
740,2	703,571
740,6	700,743
741,1	693,886
741,5	689,457
741,9	677,886
742,4	673,314
742,8	671,771
743,2	674,086
743,7	671,971
744,1	664,514
744,5	658,257
745	654,286
745,4	650,543
745,8	646,314
746,3	641,086
746,7	635,143
747,2	635,314
747,6	635,4
748	633,286
748,5	630,514
748,9	624,686
749,3	620,8
749,8	610,6
750,2	604,286
750,6	594,686
751,1	592,514
751,5	586,343
751,9	580,571
752,4	572,229
752,8	572,171
753,3	567,686
753,7	565,114
754,1	555,914
754,6	554,029
755	555,286
755,4	554,086
755,9	549,114
756,3	544,8
756,7	539,4
757,2	543,257
757,6	540,486
758	531,229
758,5	524,943
758,9	518,4
759,3	514,971
759,8	515,857
760,2	511,314
760,6	510,171
761,1	507,543
761,5	501,571
761,9	500,943
762,4	496,971
762,8	491,171
763,3	483,943
763,7	475,629
764,1	469,4
764,6	472,914
765	469,657
765,4	470,457
765,9	463,829
766,3	457,8
766,7	458,714
767,2	462,143
767,6	451
768	451,4
768,5	444,743
768,9	440,714
769,3	444,629
769,8	438,257
770,2	433,943
770,6	435,086
771,1	434,114
771,5	432,714
771,9	433,057
772,4	431,971
772,8	429,057
773,2	424,6
773,7	422,829
774,1	416,429
774,5	413,257
775	409,2
775,4	401,257
775,8	401,086
776,3	399,057
776,7	394,514
777,1	391,514
777,6	388,971
778	385,514
778,4	382,629
778,9	376,343
779,3	374,629
779,7	374,171
780,2	365,829
780,6	365,743
781	366,857
781,5	365,771
781,9	365,686
782,3	361,514
782,8	358,771
783,2	360
783,6	352,886
784,1	348,257
784,5	343,343
784,9	341,143
785,4	339,514
785,8	331,371
786,2	329,6
786,7	327,571
787,1	324,057
787,5	324,114
788	319,571
788,4	317,657
788,8	317,857
789,3	315,829
789,7	317,143
790,1	317,029
790,6	315,857
791	314,286
791,4	311,829
791,9	308,514
792,3	306,343
792,7	307,629
793,2	303,571
793,6	300,371
794	296,857
794,5	295
794,9	296,029
795,3	295,314
795,8	285,029
796,2	285,286
796,6	280,2
797,1	278,629
797,5	273,629
797,9	271,514
798,4	265,257
798,8	263,914
799,2	261,771
799,7	262,771
800,1	259,257
800,5	259,286
801	259
801,4	256,971
801,8	257,171
802,2	256,629
802,7	252,171
803,1	253,371
803,5	252,4
804	248,486
804,4	251,086
804,8	249,429
805,3	242,429
805,7	241,029
806,1	241,343
806,6	240,457
807	236,314
807,4	228,543
807,9	227,114
808,3	226,743
808,7	228,314
809,2	223,343
809,6	224,429
810	224,143
810,4	229,371
810,9	225,857
811,3	223,514
811,7	222,514
812,2	224,857
812,6	215,914
813	214,629
813,5	211,2
813,9	210,686
814,3	212,2
814,8	209,657
815,2	203,543
815,6	205,086
816,1	205,029
816,5	201,029
816,9	197,8
817,3	193,486
817,8	192,429
818,2	189,4
818,6	187
819,1	183,543
819,5	184,571
819,9	184,314
820,4	186,371
820,8	180,657
821,2	183,571
821,7	185,4
822,1	184,971
822,5	181,914
822,9	180,886
823,4	175,486
823,8	175,971
824,2	172,829
824,7	172,4
825,1	172,771
825,5	171,629
826	170,714
826,4	171,114
826,8	170,743
827,3	170,086
827,7	166,343
828,1	166,086
828,5	168,686
829	163,057
829,4	162,457
829,8	159,114
830,3	161,057
830,7	158,857
831,1	154,943
831,6	150,057
832	147,771
832,4	144,857
832,8	146,857
833,3	136,971
833,7	136,257
834,1	137,629
834,6	128,857
835	129,229
835,4	134,314
835,8	128,257
836,3	132,457
836,7	125,886
837,1	120,371
837,6	125,057
838	126,257
838,4	113,629
838,9	118,486
839,3	120,029
839,7	123
840,1	120,657
840,6	120,714
841	117,829
841,4	120,429
841,9	117,8
842,3	117,143
842,7	115,686
843,1	119,314
843,6	118,4
844	119,714
844,4	120,714
844,9	116,257
845,3	113,657
845,7	116,771
846,2	115,686
846,6	114,314
847	114,229
847,4	113,486
847,9	114,286
848,3	113,114
848,7	114,571
849,2	114,686
849,6	118,229
850	114,143
850,4	115,371
850,9	114,543
851,3	109,857
851,7	108,286
852,2	102,943
852,6	101,486
853	104,571
853,4	109,029
853,9	109,114
854,3	110,571
854,7	102,914
855,2	102,971
855,6	97,4
856	94,171
856,4	86,686
856,9	85,429
857,3	83,4
857,7	87,971
858,2	88,457
858,6	93,171
859	90,229
859,4	91,457
859,9	88,286
860,3	91,657
860,7	85,114
861,1	86,143
861,6	83,857
862	86,114
862,4	85,971
862,9	91,486
863,3	86,343
863,7	85
864,1	84,171
864,6	82,743
865	81,4
865,4	80,457
865,9	73,143
866,3	77,571
866,7	82,629
867,1	85,4
867,6	84,571
868	83,257
868,4	79,343
868,8	82,714
869,3	82,771
869,7	79,8
870,1	76,6
870,6	72,714
871	87,571
871,4	85,086
871,8	83,857
872,3	80,2
872,7	79,2
873,1	78,429
873,5	83,029
874	69,171
874,4	67,943
874,8	66,771
875,3	65,486
875,7	63,714
876,1	63
876,5	63,8
877	64
877,4	69,057
877,8	69,971
878,2	68,371
878,7	73,257
879,1	73,257
879,5	70,571
879,9	68,371
880,4	62,686
880,8	63,886
881,2	66,4
881,7	65,514
882,1	62,2
882,5	59,6
882,9	60,8
883,4	65,829
883,8	65,457
884,2	63,143
884,6	59,086
885,1	66,343
885,5	69,2
885,9	68,114
886,3	66,543
886,8	61,086
887,2	59,886
887,6	60,571
888	51,171
888,5	50,229
888,9	52,029
889,3	48,943
889,8	49,057
890,2	49,143
890,6	48,314
891	49
891,5	49,771
891,9	46,943
892,3	45,743
892,7	51,143
893,2	52,314
893,6	51,657
894	53,257
894,4	50,343
894,9	50,6
895,3	53,914
895,7	49,486
896,1	48,857
896,6	47,743
897	46,029
897,4	45,229
897,8	46,114
898,3	50,771
898,7	52,086
899,1	52,457
899,5	50,543
900	49,771
900,4	47,457
900,8	48,829
901,2	41,743
901,7	38,543
902,1	38,257
902,5	40,343
902,9	45,771
903,4	45,486
903,8	37,286
904,2	39,543
904,6	36,943
905,1	39,457
905,5	35,486
905,9	32,086
906,3	30,543
906,8	31,629
907,2	30,4
907,6	32,486
908	27,257
908,5	32,857
908,9	30,943
909,3	32,971
909,7	35,4
910,2	33,229
910,6	33,971
911	32,714
911,4	25,086
911,9	26
912,3	26,143
912,7	29,086
913,1	26,114
913,6	26,8
914	29,429
914,4	31,314
914,8	30,371
915,3	31,429
915,7	24,257
916,1	24,714
916,5	22,743
916,9	21,857
917,4	27,771
917,8	25,886
918,2	23,229
918,6	26,686
919,1	32,314
919,5	36,6
919,9	36,686
920,3	32,771
920,8	34,286
921,2	37
921,6	31,886
922	26
922,5	23
922,9	22,2
923,3	22,686
923,7	22,486
924,2	19,171
924,6	21,4
925	24,771
925,4	28,6
925,8	30,229
926,3	33,371
926,7	32,686
927,1	35,457
927,5	35,543
928	36
928,4	32,257
928,8	34,457
929,2	31,6
929,7	28,457
930,1	22,8
930,5	23,429
930,9	24,6
931,3	25,686
931,8	19,429
932,2	18
932,6	21,743
933	23,4
933,5	25,171
933,9	24,629
934,3	21,857
934,7	25,714
935,2	27,314
935,6	26,743
936	26,086
936,4	25,286
936,8	20,029
937,3	22,857
937,7	20,857
938,1	16,657
938,5	14,829
939	20
939,4	21,257
939,8	21,314
940,2	20,457
940,6	16,429
941,1	23,971
941,5	26,514
941,9	22
942,3	16,6
942,8	21,771
943,2	16,229
943,6	21,371
944	15,914
944,4	11,571
944,9	9,343
945,3	16,029
945,7	10,8
946,1	15,886
946,6	15,714
947	18,743
947,4	20,314
947,8	23,686
948,2	20,2
948,7	23,429
949,1	17,429
949,5	18,314
949,9	18,229
950,3	20,4
950,8	21
951,2	22,457
951,6	20,486
952	25,714
952,5	21,714
952,9	16,771
953,3	12,857
953,7	13,457
954,1	14,571
954,6	13,514
955	9,657
955,4	8,429
955,8	11,514
956,2	13,629
956,7	12,743
957,1	11,714
957,5	10,857
957,9	14,686
958,3	18,714
958,8	20,371
959,2	22
959,6	23,743
960	25,571
960,5	26,571
960,9	20,314
961,3	16,4
961,7	9,057
962,1	7,257
962,6	1,943
963	-2,6
963,4	-0,429
963,8	5,229
964,2	4,057
964,7	8,829
965,1	11,971
965,5	17,286
965,9	21,171
966,3	18,086
966,8	18,543
967,2	22,571
967,6	21,086
968	19,429
968,4	18,886
968,9	21,457
969,3	24,829
969,7	21,914
970,1	20,657
970,5	24,629
971	24,743
971,4	27,086
971,8	23
972,2	24,143
972,6	24,229
973,1	29,6
973,5	29,286
973,9	28,8
974,3	20,514
974,7	16,914
975,2	14,857
975,6	14,914
976	9,8
976,4	6,229
976,8	6,543
977,3	10,943
977,7	12,657
978,1	9,257
978,5	13,371
978,9	12,657
979,4	13,143
979,8	13,086
980,2	9,743
980,6	10,143
981	16,629
981,5	15,943
981,9	16,943
982,3	11,543
982,7	8,686
983,1	9,714
983,6	9,171
984	5,714
984,4	3,314
984,8	3,743
985,2	10,229
985,6	14,486
986,1	14,6
986,5	12,371
986,9	12,457
987,3	8,371
987,7	7,514
988,2	8,371
988,6	5,714
989	7,286
989,4	13,286
989,8	11,2
990,3	12,743
990,7	11,914
991,1	6,486
991,5	5,314
991,9	10,2
992,3	8,743
992,8	15
993,2	18,257
993,6	19,343
994	22,886
994,4	23,914
994,9	22,686
995,3	22,229
995,7	16,4
996,1	14,257
996,5	11,971
996,9	11,714
997,4	8,314
997,8	3,2
998,2	4,971
998,6	5,286
999	8,486
999,5	10,114
999,9	10,886
1000,3	20,486
1000,7	21,486
1001,1	20,686
1001,5	20,086
1002	14,714
1002,4	12,543
1002,8	13,571
1003,2	11,029
1003,6	14,971
1004	14,857
1004,5	15,971
1004,9	21,429
1005,3	21
1005,7	18,714
1006,1	12,2
1006,6	7,029
1007	6,771
1007,4	7,229
1007,8	4,971
1008,2	7,4
1008,6	7,943
1009,1	12,2
1009,5	20,829
1009,9	26,657
1010,3	26,457
1010,7	31,057
1011,1	37,2
1011,6	35,371
1012	33,8
1012,4	29,743
1012,8	17,886
1013,2	19,971
1013,6	13,686
1014,1	7,686
1014,5	11,229
1014,9	11,429
1015,3	9,943
1015,7	12,114
1016,1	12,886
1016,6	18,857
1017	19,143
1017,4	15,686
1017,8	12,629
1018,2	11,314
1018,6	16,571
1019,1	15,371
1019,5	12,371
1019,9	18,971
1020,3	21,257
1020,7	24,2
1021,1	25,371
1021,6	21,657
1022	18,571
1022,4	18,771
1022,8	8,171
1023,2	8,743
1023,6	4,914
1024,1	9,057
1024,5	8,943
1024,9	14,2
1025,3	11
1025,7	15
1026,1	16,057
1026,6	23,171
1027	17,4
1027,4	18,029
1027,8	10,257
1028,2	15,4
1028,6	15,143
1029	13,286
1029,5	11,829
1029,9	10,657
1030,3	13,657
1030,7	18
1031,1	15,714
1031,5	14,571
1032	16,686
1032,4	12,314
1032,8	11,629
1033,2	6,943
1033,6	11,914
1034	11,543
1034,4	12,143
1034,9	3,371
1035,3	8,086
1035,7	10,686
1036,1	12,171
1036,5	4,171
1036,9	1,457
1037,4	4,057
1037,8	8,857
1038,2	0,057
1038,6	-2,086
1039	-2,171
1039,4	1,857
1039,8	4,914
1040,3	2,257
1040,7	-0,029
1041,1	8,457
1041,5	3,914
1041,9	1,371
1042,3	3,514
1042,7	3,4
1043,2	4,829
1043,6	8,571
1044	4,257
1044,4	10,2
1044,8	11
1045,2	8,857
1045,6	10,571
1046,1	16,086
1046,5	22,143
1046,9	25,743
1047,3	28,143
1047,7	29,057
1048,1	28,114
1048,5	27,771
1049	22,2
1049,4	18,143
1049,8	19,114
1050,2	18,429
1050,6	18,514
1051	23,4
1051,4	22,629
1051,9	26,371
1052,3	20,571
1052,7	20,2
1053,1	21,514
1053,5	22,086
1053,9	17
1054,3	9,657
1054,8	8,6
1055,2	16,714
1055,6	13,543
1056	11,914
1056,4	9,914
1056,8	11,029
1057,2	19,829
1057,6	16,371
1058,1	15,486
1058,5	15
1058,9	15,8
1059,3	21,429
1059,7	16,571
1060,1	10,943
1060,5	10,829
1061	4,8
1061,4	9,914
1061,8	5,514
1062,2	3,457
1062,6	5,343
1063	8,343
1063,4	8,257
1063,8	11,086
1064,3	9,2
1064,7	9,743
1065,1	11,057
1065,5	12,743
1065,9	12
1066,3	10,229
1066,7	10,2
1067,1	7,543
1067,6	8,943
1068	6,171
1068,4	5,314
1068,8	9,057
1069,2	11,6
1069,6	15,771
1070	17,2
1070,4	20,771
1070,9	21,371
1071,3	21,486
1071,7	20,086
1072,1	23,371
1072,5	20,714
1072,9	23,429
1073,3	21,086
1073,7	16,857
1074,2	18,143
1074,6	16,4
1075	14,543
1075,4	14,114
1075,8	10,343
1076,2	10,171
1076,6	14,6
1077	11,571
1077,5	13,629
1077,9	11,829
1078,3	10,314
1078,7	11,486
1079,1	12
1079,5	10,571
1079,9	21,914
1080,3	16,343
1080,7	20,8
1081,2	21,914
1081,6	25,029
1082	26,943
1082,4	25,286
1082,8	16,114
1083,2	18,257
1083,6	15,8
1084	10,686
1084,5	5,314
1084,9	0,829
1085,3	3,886
1085,7	0,543
1086,1	-0,543
1086,5	0,229
1086,9	3,429
1087,3	4,543
1087,7	11,714
1088,2	8,057
1088,6	11,257
1089	10,429
1089,4	10,343
1089,8	16,143
1090,2	18,771
1090,6	13,229
1091	16,943
1091,4	16,8
1091,9	19,6
1092,3	17,686
1092,7	12,8
1093,1	9,4
1093,5	7,2
1093,9	8,743
1094,3	9
1094,7	6,429
1095,1	4,286
1095,5	2,514
1096	0,286
1096,4	3,714
1096,8	-2,114
1097,2	-0,2
1097,6	4,486
1098	5,714
1098,4	11,314
1098,8	17,4
1099,2	16,057
1099,6	21,514
1100,1	22,429
1100,5	22
1100,9	22,943
1101,3	19,743
1101,7	20,171
1102,1	19,914
1102,5	16,8
1102,9	9,743
1103,3	5,657
1103,7	3,029
1104,2	2,857
1104,6	0,886
1105	-0,771
1105,4	-1,486
1105,8	2,314
1106,2	3,286
1106,6	3,171
1107	1,486
1107,4	-1,233
1107,8	-0,44
1108,3	0,5
