Data from Subt2_227.txt Node
Date: Sat Aug 26 18:51:43 MSK 2023
User: vat
Spectrometer: MAYP114033
Trigger mode: 0
Integration Time (sec): 1,000000E0
Scans to average: 5
Electric dark correction enabled: true
Nonlinearity correction enabled: false
Boxcar width: 3
XAxis mode: Wavelengths
Number of Pixels in Spectrum: 2068
>>>>>Begin Spectral Data<<<<<
199,4	0,35
199,9	3,12
200,4	0,833
200,8	1,343
201,3	-3,457
201,8	-0,514
202,2	-1,257
202,7	1,029
203,2	-1,371
203,6	0,857
204,1	0,286
204,6	4,771
205	2,914
205,5	1,486
206	-2,029
206,4	-1,686
206,9	0,314
207,4	1,6
207,8	2,886
208,3	2,171
208,8	4,571
209,2	9,943
209,7	11,686
210,2	10,743
210,6	6,029
211,1	4,257
211,5	0,429
212	4,371
212,5	4
212,9	2,171
213,4	1,971
213,9	3,6
214,3	3,829
214,8	6,429
215,3	3,629
215,7	5,4
216,2	10,371
216,7	8,886
217,1	10,486
217,6	12,229
218,1	12,457
218,5	9,571
219	1,914
219,5	-3,6
219,9	-8,114
220,4	1,171
220,9	0,114
221,3	3,314
221,8	6,6
222,3	9,257
222,7	13,571
223,2	19,6
223,6	11,514
224,1	9,571
224,6	6,8
225	4,571
225,5	2,514
226	0,8
226,4	2,171
226,9	1,914
227,4	3,057
227,8	-0,829
228,3	3,171
228,8	5,057
229,2	5,629
229,7	0,114
230,2	2,6
230,6	3,6
231,1	13,8
231,5	9,714
232	11,286
232,5	10
232,9	15,457
233,4	18,886
233,9	17,343
234,3	14,857
234,8	15,543
235,3	13,686
235,7	13,714
236,2	15,714
236,7	7,943
237,1	10,257
237,6	5,429
238,1	5,286
238,5	3,771
239	6,343
239,4	5,171
239,9	8,886
240,4	8,171
240,8	12,057
241,3	11,114
241,8	13,257
242,2	13
242,7	8,6
243,2	3,629
243,6	0,771
244,1	0,657
244,6	1,343
245	-0,857
245,5	-3,171
245,9	-2,743
246,4	-0,8
246,9	0,6
247,3	0,486
247,8	2,543
248,3	4,486
248,7	5,886
249,2	9,029
249,7	9,743
250,1	13,314
250,6	12
251	10,086
251,5	9,286
252	9,4
252,4	8,143
252,9	3,6
253,4	-2,057
253,8	-6,657
254,3	-5,2
254,8	-2,829
255,2	-9,029
255,7	-11,057
256,1	-6,657
256,6	-2,514
257,1	3,029
257,5	-1,029
258	-4,314
258,5	2,171
258,9	3,314
259,4	2,2
259,9	1,029
260,3	-4,371
260,8	-5,514
261,2	-2,257
261,7	-0,943
262,2	-0,343
262,6	-1,343
263,1	-0,086
263,6	4,229
264	7,8
264,5	8,886
264,9	4,857
265,4	5,514
265,9	4,686
266,3	3,943
266,8	5,657
267,3	5,829
267,7	7,314
268,2	11,486
268,7	10,714
269,1	13,971
269,6	15,943
270	15,143
270,5	16,2
271	15,457
271,4	12,629
271,9	9,6
272,4	12,371
272,8	13,2
273,3	9,057
273,7	9,686
274,2	8,314
274,7	7,914
275,1	10,314
275,6	8,343
276,1	3,771
276,5	9,886
277	8,257
277,4	5,543
277,9	5,171
278,4	5,943
278,8	6,4
279,3	7,114
279,8	6,314
280,2	7,514
280,7	10,657
281,1	6,714
281,6	7,8
282,1	4,886
282,5	2,257
283	0,857
283,4	-2,343
283,9	-2,629
284,4	4,114
284,8	0,943
285,3	2,2
285,8	5,371
286,2	5,086
286,7	6,971
287,1	2,6
287,6	-3,543
288,1	-3,914
288,5	-1,857
289	0,6
289,5	1,486
289,9	1,143
290,4	7,343
290,8	13,257
291,3	13,486
291,8	12,429
292,2	9,257
292,7	11,4
293,1	14,086
293,6	14,914
294,1	10,4
294,5	11,114
295	11,171
295,5	9,571
295,9	7,286
296,4	1,857
296,8	0,514
297,3	2,886
297,8	4
298,2	1,943
298,7	10,086
299,1	10,543
299,6	9,343
300,1	5,257
300,5	8,8
301	8,171
301,5	15,286
301,9	9,143
302,4	6,943
302,8	11,286
303,3	13,743
303,8	4,171
304,2	2,2
304,7	-3,457
305,1	-6,257
305,6	-4,943
306,1	0,686
306,5	3,086
307	10,229
307,4	15,457
307,9	17,543
308,4	20,571
308,8	16,457
309,3	12,343
309,8	13,257
310,2	10,457
310,7	5,571
311,1	1,886
311,6	2,8
312,1	7,457
312,5	7,6
313	1,857
313,4	4,257
313,9	5,571
314,4	8,2
314,8	5,771
315,3	4,143
315,7	-1,4
316,2	0,743
316,7	0,514
317,1	2,514
317,6	0,457
318	5,571
318,5	5,029
319	7,314
319,4	10,686
319,9	14,257
320,3	12,257
320,8	10,6
321,3	11,143
321,7	13,514
322,2	15,657
322,6	13,2
323,1	6,486
323,6	5,343
324	6,371
324,5	0,971
324,9	2,886
325,4	3,8
325,9	4,657
326,3	7,029
326,8	12,914
327,2	10,486
327,7	12,371
328,2	10,943
328,6	12,429
329,1	9,886
329,5	8,314
330	5,286
330,5	10,286
330,9	13,629
331,4	11,771
331,8	10,286
332,3	11,857
332,8	14,457
333,2	14,943
333,7	13,4
334,1	13,657
334,6	11,543
335,1	7,314
335,5	6,571
336	5,514
336,4	7,829
336,9	16,286
337,4	17,8
337,8	20,429
338,3	22,514
338,7	20,057
339,2	18,571
339,7	15,114
340,1	6,686
340,6	3,571
341	-2,057
341,5	-0,343
342	-2,171
342,4	-2,771
342,9	-4,8
343,3	-1,257
343,8	-5,829
344,2	-0,8
344,7	2,571
345,2	3,429
345,6	4,543
346,1	6,457
346,5	3,743
347	5,343
347,5	5,714
347,9	5,686
348,4	7,486
348,8	10,543
349,3	15,229
349,8	20,8
350,2	28,343
350,7	25,429
351,1	24,714
351,6	32,629
352	36,829
352,5	38,457
353	45,314
353,4	49,029
353,9	67,314
354,3	81,686
354,8	96,629
355,3	118,714
355,7	142,771
356,2	169,429
356,6	199,457
357,1	232,057
357,5	268
358	310,914
358,5	358,943
358,9	417,343
359,4	476,543
359,8	549,714
360,3	639,486
360,8	733,543
361,2	835,829
361,7	953,257
362,1	1083,943
362,6	1227,6
363	1381,371
363,5	1534,829
364	1710,857
364,4	1887,029
364,9	2060,943
365,3	2224,343
365,8	2383,057
366,3	2534,286
366,7	2673,486
367,2	2786,286
367,6	2882,114
368,1	2957,286
368,5	3012,286
369	3040,343
369,5	3045,571
369,9	3017,514
370,4	2974,114
370,8	2909,229
371,3	2820,4
371,7	2724,371
372,2	2609,171
372,7	2479,057
373,1	2352,029
373,6	2208,943
374	2070
374,5	1936,171
374,9	1796,6
375,4	1672,229
375,9	1550
376,3	1429,743
376,8	1321,457
377,2	1220,629
377,7	1120,6
378,2	1024
378,6	936,314
379,1	856,4
379,5	789,857
380	727,629
380,4	665,886
380,9	612,257
381,4	564,857
381,8	520,914
382,3	486,429
382,7	450,114
383,2	416,171
383,6	383,343
384,1	353,257
384,6	330,8
385	305,571
385,5	280,886
385,9	257,314
386,4	238,914
386,8	225,114
387,3	207,743
387,7	196,4
388,2	183,286
388,7	170,229
389,1	157,4
389,6	145,771
390	137,4
390,5	131,571
390,9	122,686
391,4	115,057
391,9	108,686
392,3	104,771
392,8	99,429
393,2	91,029
393,7	85,4
394,1	75,886
394,6	73,343
395,1	69,886
395,5	64,371
396	61,2
396,4	59,343
396,9	56,029
397,3	59,343
397,8	57,143
398,2	54,657
398,7	50,686
399,2	51,114
399,6	50,314
400,1	52,371
400,5	44
401	39,629
401,4	34,657
401,9	40,829
402,4	41,429
402,8	34,171
403,3	31,857
403,7	32,8
404,2	37,229
404,6	38,971
405,1	33,257
405,5	25,486
406	27,943
406,5	24,914
406,9	26,686
407,4	25
407,8	27,771
408,3	28,057
408,7	29,171
409,2	36,086
409,6	41,2
410,1	40,314
410,6	44,029
411	44,143
411,5	48,057
411,9	52,829
412,4	46,086
412,8	47,4
413,3	50,914
413,7	50,371
414,2	49,286
414,7	52,2
415,1	61,114
415,6	68,286
416	68,6
416,5	69,257
416,9	69,029
417,4	74,286
417,8	79,571
418,3	79,029
418,8	84,086
419,2	87,257
419,7	95,171
420,1	94,886
420,6	94,886
421	90,857
421,5	87,257
421,9	86,086
422,4	88
422,8	80,771
423,3	80,571
423,8	78,886
424,2	75,571
424,7	78,086
425,1	76,943
425,6	76,4
426	72,229
426,5	76,571
426,9	77,714
427,4	76,114
427,9	69,343
428,3	69,029
428,8	65,743
429,2	69,171
429,7	65,8
430,1	61,257
430,6	62,629
431	67,571
431,5	65,314
431,9	62,314
432,4	64,457
432,8	65,571
433,3	73,229
433,8	71,029
434,2	69,229
434,7	70,229
435,1	70,171
435,6	70,114
436	68,4
436,5	65,457
436,9	66,057
437,4	66,143
437,8	68,114
438,3	71
438,8	67,857
439,2	71,2
439,7	74,114
440,1	79,143
440,6	82,686
441	79,314
441,5	81,943
441,9	88,743
442,4	82,629
442,8	82,714
443,3	86,171
443,7	85,771
444,2	90,257
444,7	91,714
445,1	96,914
445,6	105,571
446	107
446,5	106,543
446,9	108,143
447,4	109,829
447,8	116,143
448,3	117,514
448,7	120,743
449,2	125
449,6	131,343
450,1	135,571
450,6	143,429
451	146,829
451,5	150,771
451,9	159,457
452,4	168,657
452,8	171,457
453,3	183,543
453,7	187,286
454,2	193,8
454,6	200,8
455,1	203,086
455,5	204,771
456	211,8
456,4	207,229
456,9	212,029
457,3	217,343
457,8	217,429
458,3	225,457
458,7	233,286
459,2	240,229
459,6	250,4
460,1	258,686
460,5	259,571
461	271,714
461,4	272,914
461,9	276,714
462,3	281,8
462,8	291,886
463,2	293,114
463,7	304,657
464,1	311,686
464,6	326,429
465	338,086
465,5	344,486
466	350,886
466,4	363,829
466,9	374,571
467,3	378,943
467,8	383,657
468,2	391,514
468,7	400,429
469,1	411,086
469,6	419,2
470	423,371
470,5	430,457
470,9	436,343
471,4	436,771
471,8	444,143
472,3	452,029
472,7	460,371
473,2	464
473,6	470,486
474,1	480,514
474,5	489,714
475	499,114
475,4	500,743
475,9	508,314
476,4	516,514
476,8	529,943
477,3	533,429
477,7	545,6
478,2	549,629
478,6	552,914
479,1	554,457
479,5	564,714
480	561,114
480,4	569,086
480,9	567,114
481,3	573,743
481,8	581,514
482,2	580,629
482,7	583,771
483,1	591,057
483,6	590,314
484	594,371
484,5	596,171
484,9	595,571
485,4	607
485,8	608,171
486,3	613,8
486,7	617,2
487,2	625,629
487,6	627,171
488,1	630,457
488,5	626,371
489	629,2
489,4	633,171
489,9	633,4
490,4	628
490,8	630,286
491,3	636,543
491,7	639,4
492,2	636,257
492,6	631,886
493,1	636,714
493,5	632,886
494	625,829
494,4	618,629
494,9	619,371
495,3	624
495,8	621,686
496,2	617,657
496,7	618,4
497,1	621,029
497,6	621,943
498	620,229
498,5	610,971
498,9	608,057
499,4	605,429
499,8	613,629
500,3	610,629
500,7	602,914
501,2	592,914
501,6	588,629
502,1	582,743
502,5	576,2
503	560,286
503,4	554,543
503,9	551,571
504,3	553,057
504,8	549,029
505,2	548,771
505,7	543,314
506,1	545,914
506,6	538,914
507	534,2
507,5	526,714
507,9	523,857
508,4	512,943
508,8	510,229
509,3	499,086
509,7	497,829
510,2	495,543
510,6	486,171
511,1	482,257
511,5	478,114
512	469,857
512,4	467,514
512,9	460,714
513,3	455,4
513,8	450,086
514,2	445,229
514,7	442,286
515,1	437,629
515,6	426,429
516	418,971
516,5	415,571
516,9	415,057
517,4	408,629
517,8	406,2
518,3	400,686
518,7	398,314
519,2	398,229
519,6	390,743
520,1	386,857
520,5	382,114
521	373,743
521,4	371,286
521,9	367,2
522,3	361,686
522,8	356,8
523,2	352,571
523,7	346,114
524,1	342,657
524,6	336,371
525	334,4
525,5	327,6
525,9	325,057
526,4	314,6
526,8	308,343
527,3	303,143
527,7	304,914
528,2	301,857
528,6	294,543
529,1	288,657
529,5	290,514
530	285,457
530,4	281,543
530,9	275,486
531,3	269,971
531,8	270,714
532,2	268,971
532,6	262,771
533,1	262,2
533,5	259,971
534	250,114
534,4	247,171
534,9	241,8
535,3	233,429
535,8	232,171
536,2	233,943
536,7	229,343
537,1	230,429
537,6	224,371
538	222,571
538,5	225,971
538,9	219,029
539,4	214,314
539,8	215,2
540,3	214,943
540,7	212,914
541,2	206,8
541,6	201,714
542,1	203,771
542,5	202,286
543	197,857
543,4	194,4
543,9	191,714
544,3	194,6
544,8	192,229
545,2	190,943
545,7	186,543
546,1	183,886
546,5	184,914
547	184,457
547,4	183,6
547,9	180,914
548,3	174,571
548,8	174,229
549,2	170,171
549,7	168,971
550,1	172,143
550,6	170,914
551	171,457
551,5	171,857
551,9	167,914
552,4	168,943
552,8	167,4
553,3	161,143
553,7	155,486
554,2	153,886
554,6	151,743
555,1	155,743
555,5	153,571
555,9	147,771
556,4	144,543
556,8	144,571
557,3	140,086
557,7	141,886
558,2	134,829
558,6	134,229
559,1	131,371
559,5	133,457
560	135,086
560,4	138,829
560,9	136,229
561,3	134,429
561,8	131,771
562,2	134,143
562,7	132,514
563,1	131,943
563,6	125,571
564	126,486
564,4	130,2
564,9	131,743
565,3	131,686
565,8	131,457
566,2	129,771
566,7	132,714
567,1	133,429
567,6	131,6
568	128,943
568,5	125,543
568,9	123,571
569,4	123,686
569,8	122,2
570,3	116,971
570,7	110,086
571,1	110,571
571,6	113,229
572	116,143
572,5	111,771
572,9	108,486
573,4	109,257
573,8	111,486
574,3	108,486
574,7	104,429
575,2	98,6
575,6	96,143
576,1	103,2
576,5	106,943
576,9	106,4
577,4	108,286
577,8	107,114
578,3	107,114
578,7	111,429
579,2	108
579,6	99,314
580,1	94,2
580,5	96,543
581	100,086
581,4	100,4
581,9	95,2
582,3	91,714
582,7	96,8
583,2	102,857
583,6	101
584,1	101,457
584,5	103,086
585	106,2
585,4	101,514
585,9	98,629
586,3	100,514
586,8	100,029
587,2	96,114
587,6	97,371
588,1	101,257
588,5	106,371
589	111,629
589,4	109,714
589,9	110,2
590,3	110,171
590,8	105,857
591,2	103,314
591,7	104,486
592,1	97,943
592,5	100
593	93,029
593,4	94,4
593,9	92,2
594,3	87,029
594,8	83,886
595,2	85,886
595,7	82,4
596,1	83,257
596,6	79,286
597	80,514
597,4	81,086
597,9	81
598,3	85,457
598,8	87
599,2	89,429
599,7	88,629
600,1	86,886
600,6	87,629
601	88,571
601,4	90,743
601,9	91,829
602,3	88,543
602,8	89,229
603,2	89,143
603,7	89,657
604,1	86,486
604,6	79,886
605	75,086
605,4	80,057
605,9	79,543
606,3	75,6
606,8	70,714
607,2	67,971
607,7	64,171
608,1	67,114
608,6	69,171
609	75,171
609,4	81,657
609,9	87,429
610,3	95,057
610,8	96,829
611,2	94,571
611,7	88,114
612,1	81,429
612,6	78,286
613	77,657
613,4	74,086
613,9	72,543
614,3	68,743
614,8	72,2
615,2	70,286
615,7	74,371
616,1	71,343
616,6	65,886
617	64,829
617,4	66,771
617,9	67,8
618,3	72,171
618,8	73,657
619,2	77,2
619,7	81,486
620,1	84,686
620,5	87,514
621	86,857
621,4	85,657
621,9	81,771
622,3	77,571
622,8	74,486
623,2	72,457
623,6	67,743
624,1	66,286
624,5	63,371
625	66,343
625,4	67,4
625,9	72,629
626,3	72,4
626,8	74,086
627,2	73,4
627,6	68,771
628,1	61,286
628,5	66,114
629	62,171
629,4	59,686
629,9	61,2
630,3	57,657
630,7	61,971
631,2	68,114
631,6	60,4
632,1	63,6
632,5	67,486
633	67,943
633,4	72,543
633,8	75,229
634,3	75,657
634,7	75,857
635,2	73,4
635,6	74,771
636,1	75,657
636,5	73,657
636,9	67,514
637,4	64,371
637,8	61,743
638,3	57,743
638,7	50,6
639,2	46,4
639,6	45,829
640	47,371
640,5	46,629
640,9	50,714
641,4	50,886
641,8	57,486
642,2	56,314
642,7	61,943
643,1	68,429
643,6	69,143
644	71,771
644,5	76
644,9	73,429
645,3	76,6
645,8	68,771
646,2	66,314
646,7	63,514
647,1	60,771
647,6	63,743
648	66,457
648,4	61,029
648,9	63,943
649,3	58,971
649,8	61,286
650,2	59,971
650,6	55,4
651,1	49,6
651,5	53,029
652	48,886
652,4	51,429
652,9	50,771
653,3	52,629
653,7	52,971
654,2	53,743
654,6	52,171
655,1	57,943
655,5	63,057
655,9	61,743
656,4	58,257
656,8	58,457
657,3	58,371
657,7	60,229
658,2	56,143
658,6	49,371
659	48,971
659,5	48,114
659,9	46,571
660,4	46,429
660,8	45,114
661,2	46,486
661,7	49,171
662,1	49,286
662,6	53,629
663	54,914
663,4	50,8
663,9	47,743
664,3	46,114
664,8	42,286
665,2	41,457
665,6	35,114
666,1	33,086
666,5	36,743
667	37,457
667,4	34,2
667,9	36,657
668,3	35,171
668,7	36,771
669,2	40,714
669,6	38,571
670,1	41,4
670,5	42,314
670,9	43,829
671,4	45,114
671,8	48,943
672,3	49,086
672,7	52,571
673,1	48,429
673,6	47,743
674	47,171
674,5	47,143
674,9	40,971
675,3	35,829
675,8	29,886
676,2	29,943
676,7	29,686
677,1	25,829
677,5	24,143
678	28
678,4	31,571
678,9	35,914
679,3	37,4
679,7	39,657
680,2	36,6
680,6	36,571
681,1	36,057
681,5	35,743
681,9	35,771
682,4	39,086
682,8	40,543
683,3	44,514
683,7	45,171
684,1	45,514
684,6	41,886
685	44,171
685,5	39,314
685,9	33,229
686,3	32,914
686,8	31,914
687,2	31,029
687,7	31,743
688,1	24,229
688,5	26,771
689	32,286
689,4	31,943
689,9	30,943
690,3	29,229
690,7	31,343
691,2	37,714
691,6	38,657
692	37,057
692,5	39,286
692,9	41,286
693,4	41,114
693,8	41,229
694,2	37,257
694,7	34,8
695,1	31,086
695,6	30,914
696	29,429
696,4	34,2
696,9	29,714
697,3	29,457
697,8	27,914
698,2	27,829
698,6	28,343
699,1	27,314
699,5	25,914
699,9	24,143
700,4	21,743
700,8	24,657
701,3	29,057
701,7	28,629
702,1	31,743
702,6	29,486
703	32,914
703,5	39,6
703,9	37,886
704,3	38,171
704,8	34,829
705,2	34,914
705,6	34,086
706,1	31,543
706,5	28,629
707	30,571
707,4	29,657
707,8	28,514
708,3	27,371
708,7	28,257
709,2	28,057
709,6	26,8
710	28,057
710,5	25,943
710,9	27,943
711,3	26,771
711,8	28,257
712,2	34,543
712,7	32,886
713,1	32,543
713,5	34,114
714	37,486
714,4	38,057
714,8	36,943
715,3	31,057
715,7	30,657
716,2	29,314
716,6	29,6
717	21,686
717,5	23,571
717,9	24,8
718,3	22,8
718,8	27,514
719,2	22,429
719,7	21,6
720,1	25,686
720,5	28,086
721	25,257
721,4	32,857
721,8	34,8
722,3	36,514
722,7	39,486
723,2	35,457
723,6	26,257
724	23,971
724,5	20,6
724,9	12,743
725,3	11,029
725,8	6,914
726,2	9,686
726,7	10,486
727,1	15,971
727,5	15,257
728	18,457
728,4	18,714
728,8	17,2
729,3	17,057
729,7	18,429
730,1	17,686
730,6	16,257
731	12,886
731,5	16,086
731,9	17,314
732,3	20,886
732,8	22,343
733,2	20,086
733,6	21,371
734,1	22,6
734,5	19,2
734,9	24,429
735,4	20,257
735,8	19,229
736,3	21,343
736,7	18,457
737,1	18,714
737,6	19,114
738	13
738,4	14,029
738,9	17,229
739,3	14,171
739,7	16,657
740,2	15,629
740,6	19,257
741,1	23,714
741,5	18,943
741,9	17,543
742,4	21,743
742,8	21,8
743,2	22,086
743,7	18,886
744,1	10,771
744,5	14,743
745	12,571
745,4	8,971
745,8	8,629
746,3	9,229
746,7	9,714
747,2	16,686
747,6	19,629
748	23,514
748,5	28,571
748,9	22,829
749,3	21,029
749,8	21,8
750,2	20,543
750,6	16,771
751,1	20,057
751,5	15,971
751,9	22,943
752,4	27,371
752,8	27,057
753,3	23,857
753,7	24,857
754,1	15,429
754,6	12,886
755	8,514
755,4	5,143
755,9	7,771
756,3	11,886
756,7	16,886
757,2	19,714
757,6	22,343
758	23,543
758,5	24,029
758,9	23,171
759,3	21,8
759,8	16,171
760,2	15,543
760,6	14,057
761,1	16,486
761,5	19
761,9	15,514
762,4	13,629
762,8	14
763,3	15,886
763,7	20
764,1	20,029
764,6	19,6
765	21,543
765,4	22,4
765,9	21,629
766,3	22,2
766,7	14,886
767,2	9,571
767,6	9,886
768	10,686
768,5	10,086
768,9	12,171
769,3	10,143
769,8	10,8
770,2	17,714
770,6	16,743
771,1	16,686
771,5	16,343
771,9	17,943
772,4	21,171
772,8	25,086
773,2	20,4
773,7	20,029
774,1	21,143
774,5	15,2
775	11,086
775,4	8,657
775,8	2,943
776,3	6,771
776,7	5,943
777,1	2,286
777,6	12,857
778	18,257
778,4	15,514
778,9	23,2
779,3	20,543
779,7	23,257
780,2	27,4
780,6	25,286
781	22,257
781,5	24,371
781,9	20,257
782,3	15,029
782,8	16,257
783,2	13,4
783,6	14,429
784,1	10,2
784,5	8,629
784,9	9,429
785,4	18,943
785,8	18,2
786,2	19,629
786,7	15,543
787,1	16
787,5	17,571
788	19,4
788,4	17,371
788,8	14,486
789,3	13,114
789,7	18,343
790,1	19,286
790,6	19,229
791	10,743
791,4	10,314
791,9	10,829
792,3	8,657
792,7	10,314
793,2	9,714
793,6	9,314
794	16,743
794,5	13,257
794,9	19,6
795,3	21,343
795,8	15,486
796,2	17
796,6	19,657
797,1	15,8
797,5	15,114
797,9	6
798,4	3,543
798,8	0,743
799,2	-2,171
799,7	-3,171
800,1	-2,686
800,5	0,2
801	3,914
801,4	3,2
801,8	6,686
802,2	7,429
802,7	7,057
803,1	9,971
803,5	11,6
804	8,286
804,4	12,8
804,8	13,171
805,3	20,143
805,7	18,229
806,1	14,457
806,6	13,6
807	18,2
807,4	13,943
807,9	8,771
808,3	6,314
808,7	10,571
809,2	15,229
809,6	17,6
810	12,314
810,4	13,314
810,9	17,057
811,3	18,743
811,7	11,743
812,2	15,943
812,6	13,086
813	17,8
813,5	21,086
813,9	23,571
814,3	19,286
814,8	24,057
815,2	17,943
815,6	15,914
816,1	15,114
816,5	16,086
816,9	14,143
817,3	18,571
817,8	21,8
818,2	23,114
818,6	21,429
819,1	17,857
819,5	14,6
819,9	15,857
820,4	13,114
820,8	9,286
821,2	6,257
821,7	9,086
822,1	14,086
822,5	20,829
822,9	19,086
823,4	19,114
823,8	22,686
824,2	24,857
824,7	22,914
825,1	20,086
825,5	12,086
826	8,857
826,4	6,2
826,8	3,943
827,3	6,029
827,7	6,171
828,1	4,943
828,5	6,857
829	3,371
829,4	7,914
829,8	2,457
830,3	0,029
830,7	-0,171
831,1	3
831,6	4,714
832	11,8
832,4	7,286
832,8	13,314
833,3	12,257
833,7	11,229
834,1	9,543
834,6	5,686
835	5,114
835,4	10,486
835,8	4,286
836,3	3,171
836,7	6,857
837,1	7,943
837,6	13,371
838	12,657
838,4	11,286
838,9	18
839,3	19,829
839,7	15,914
840,1	10,2
840,6	4,4
841	6,657
841,4	5,6
841,9	2,743
842,3	-0,371
842,7	5,829
843,1	9,657
843,6	17
844	17,114
844,4	16,457
844,9	18,086
845,3	22,257
845,7	19,6
846,2	16,886
846,6	8,943
847	7,886
847,4	9,057
847,9	11,486
848,3	9,286
848,7	10,629
849,2	16,686
849,6	18,371
850	20,6
850,4	17,514
850,9	13,657
851,3	15,943
851,7	19,057
852,2	13,629
852,6	18,171
853	18
853,4	20,943
853,9	15,914
854,3	14,114
854,7	5,629
855,2	5,714
855,6	5,514
856	3,143
856,4	-2,2
856,9	-1,771
857,3	-1,486
857,7	5,429
858,2	12
858,6	7,743
859	8,4
859,4	11,886
859,9	16,257
860,3	10,4
860,7	10,743
861,1	11,2
861,6	12,286
862	11,6
862,4	8,514
862,9	7,686
863,3	13,314
863,7	10,343
864,1	7,029
864,6	5,429
865	3,086
865,4	7,229
865,9	9,657
866,3	8,4
866,7	6,943
867,1	6
867,6	7,914
868	5,371
868,4	3,171
868,8	3,229
869,3	6,114
869,7	12,6
870,1	7,314
870,6	7,943
871	-47,8
871,4	-42,114
871,8	-45,4
872,3	-44,829
872,7	-53,257
873,1	-49,857
873,5	-50,343
874	10,743
874,4	5,229
874,8	5,143
875,3	1,2
875,7	4,4
876,1	7,2
876,5	8,057
877	6,057
877,4	3,114
877,8	2
878,2	13,571
878,7	15,657
879,1	12,514
879,5	13,2
879,9	16,886
880,4	25,086
880,8	30,771
881,2	19,914
881,7	17,171
882,1	18,486
882,5	16,086
882,9	11,971
883,4	7,429
883,8	3,029
884,2	3,543
884,6	2,629
885,1	0,629
885,5	0,257
885,9	1,229
886,3	5,029
886,8	6,057
887,2	3,829
887,6	4,314
888	6,857
888,5	9,257
888,9	7
889,3	5,143
889,8	5,114
890,2	7,771
890,6	2,171
891	1,514
891,5	-1,514
891,9	2,971
892,3	-0,4
892,7	-0,114
893,2	-0,143
893,6	6,743
894	7,029
894,4	7,086
894,9	6,657
895,3	9
895,7	11,6
896,1	10,486
896,6	13,143
897	12,914
897,4	17,686
897,8	17,229
898,3	18,171
898,7	12,686
899,1	14,686
899,5	8,371
900	2,371
900,4	1,2
900,8	-2,686
901,2	-5,371
901,7	-0,514
902,1	1
902,5	6,686
902,9	10,2
903,4	8,514
903,8	11,886
904,2	12,886
904,6	9,2
905,1	9,686
905,5	7,543
905,9	11,429
906,3	14,114
906,8	18,343
907,2	23,029
907,6	30,4
908	29,686
908,5	25,371
908,9	20,2
909,3	15,343
909,7	14,171
910,2	10,8
910,6	5,714
911	1,171
911,4	5,429
911,9	5,629
912,3	3,8
912,7	3,829
913,1	3,971
913,6	1,314
914	6,486
914,4	2,429
914,8	9,457
915,3	9,629
915,7	8,114
916,1	3,743
916,5	8,743
916,9	7,743
917,4	7,057
917,8	5,486
918,2	6,686
918,6	0,743
919,1	6,143
919,5	6,6
919,9	3,257
920,3	4,2
920,8	3,486
921,2	2
921,6	2,143
922	-1,543
922,5	-7,143
922,9	-3,257
923,3	-3,543
923,7	-2,286
924,2	-3,286
924,6	-1,543
925	-0,457
925,4	1,8
925,8	0,914
926,3	3,314
926,7	-0,8
927,1	0,314
927,5	3,6
928	-2,143
928,4	-2,4
928,8	0,257
929,2	-2,029
929,7	1,229
930,1	3,286
930,5	1,029
930,9	10,143
931,3	8,571
931,8	4,114
932,2	3,914
932,6	0,457
933	-1,629
933,5	-0,171
933,9	-1,771
934,3	1,657
934,7	-0,486
935,2	0,571
935,6	0,2
936	3,286
936,4	3,029
936,8	2,457
937,3	0,057
937,7	7,886
938,1	13,486
938,5	13,714
939	15,171
939,4	14,057
939,8	12,114
940,2	9,543
940,6	7,171
941,1	4,714
941,5	9,086
941,9	1,429
942,3	2,257
942,8	1,8
943,2	3,857
943,6	1,343
944	-1,771
944,4	-2,543
944,9	3,286
945,3	2,2
945,7	2,943
946,1	3,314
946,6	0,057
947	0,571
947,4	3,914
947,8	4,914
948,2	2,057
948,7	4,743
949,1	5,457
949,5	13,743
949,9	17,171
950,3	11,4
950,8	9,943
951,2	12,086
951,6	6,857
952	9,371
952,5	2,343
952,9	0,257
953,3	3,829
953,7	5,571
954,1	10,657
954,6	14,4
955	9,657
955,4	10,286
955,8	12,914
956,2	9,286
956,7	8,514
957,1	3,057
957,5	3,086
957,9	8,829
958,3	10
958,8	9,486
959,2	12,857
959,6	13,229
960	13,829
960,5	17,6
960,9	15,914
961,3	10,943
961,7	7,657
962,1	2,086
962,6	-1,429
963	0,029
963,4	-6,971
963,8	-8,286
964,2	-2,629
964,7	-0,029
965,1	4
965,5	8,314
965,9	11
966,3	12,686
966,8	14,629
967,2	16,029
967,6	13,886
968	11,857
968,4	9,8
968,9	7,971
969,3	15,914
969,7	13,086
970,1	12,743
970,5	8,743
971	13,6
971,4	12,543
971,8	9,8
972,2	5,429
972,6	6,714
973,1	2,057
973,5	8,514
973,9	5,4
974,3	11,543
974,7	17,857
975,2	19,4
975,6	16,457
976	22,257
976,4	17,657
976,8	22,486
977,3	17,8
977,7	12,857
978,1	9,743
978,5	11,257
978,9	8,2
979,4	6,514
979,8	2,314
980,2	-0,6
980,6	-2,286
981	-1,686
981,5	-1,343
981,9	0,029
982,3	4,4
982,7	8,229
983,1	6,343
983,6	8,514
984	6,771
984,4	4,286
984,8	3,143
985,2	4,4
985,6	-2,914
986,1	3
986,5	1,6
986,9	0,743
987,3	6,629
987,7	8,229
988,2	7,286
988,6	13,743
989	12,457
989,4	12,571
989,8	12,429
990,3	8,771
990,7	3,943
991,1	1,829
991,5	1,4
991,9	2,857
992,3	8,057
992,8	12,371
993,2	10,6
993,6	16,486
994	22,371
994,4	19,657
994,9	19,514
995,3	15,6
995,7	10,714
996,1	10,543
996,5	9,714
996,9	2,714
997,4	7,4
997,8	5,629
998,2	5,571
998,6	3,286
999	4,943
999,5	3,886
999,9	8,571
1000,3	2,371
1000,7	2,714
1001,1	1,171
1001,5	6,971
1002	11,286
1002,4	11,657
1002,8	7,886
1003,2	10,629
1003,6	14,229
1004	14,143
1004,5	14
1004,9	11,4
1005,3	10,057
1005,7	15
1006,1	9,657
1006,6	6
1007	8,143
1007,4	5,229
1007,8	5,686
1008,2	3,4
1008,6	3,571
1009,1	4,971
1009,5	6,8
1009,9	8,057
1010,3	6,4
1010,7	7,086
1011,1	7,657
1011,6	1,343
1012	6,057
1012,4	4,743
1012,8	0,229
1013,2	5,343
1013,6	6,514
1014,1	9,543
1014,5	13,171
1014,9	11,029
1015,3	10,257
1015,7	12,886
1016,1	10,114
1016,6	4,2
1017	5,171
1017,4	5,257
1017,8	1,371
1018,2	4,114
1018,6	5,057
1019,1	4,629
1019,5	3,171
1019,9	1,629
1020,3	5,771
1020,7	9,171
1021,1	5,371
1021,6	8,914
1022	12,629
1022,4	16,371
1022,8	16,057
1023,2	11,257
1023,6	12,629
1024,1	19,086
1024,5	16,029
1024,9	13,429
1025,3	16,057
1025,7	14,771
1026,1	15,4
1026,6	14,514
1027	8,8
1027,4	11,229
1027,8	10,571
1028,2	7,857
1028,6	12,571
1029	11,114
1029,5	12,2
1029,9	11,457
1030,3	4,429
1030,7	5,914
1031,1	6,571
1031,5	2,886
1032	4,2
1032,4	1,4
1032,8	4,143
1033,2	10,829
1033,6	7,771
1034	7,286
1034,4	6,143
1034,9	7,914
1035,3	7,6
1035,7	8,943
1036,1	2,2
1036,5	0,371
1036,9	1,629
1037,4	5,2
1037,8	3,029
1038,2	2,457
1038,6	-0,4
1039	5,629
1039,4	13,657
1039,8	11,086
1040,3	12,343
1040,7	15,629
1041,1	16,686
1041,5	21,657
1041,9	14,743
1042,3	11,4
1042,7	14,114
1043,2	11,657
1043,6	5,343
1044	6,886
1044,4	5,057
1044,8	11,943
1045,2	9,571
1045,6	7,171
1046,1	6,8
1046,5	8,943
1046,9	7,714
1047,3	4,629
1047,7	3,543
1048,1	0,8
1048,5	3,771
1049	5,914
1049,4	6,914
1049,8	7,457
1050,2	9,8
1050,6	7,429
1051	9,457
1051,4	7,486
1051,9	3,743
1052,3	11,714
1052,7	12,829
1053,1	6,743
1053,5	12,486
1053,9	14,8
1054,3	16,314
1054,8	22,657
1055,2	17,286
1055,6	18,629
1056	23,429
1056,4	17,057
1056,8	19,086
1057,2	15,686
1057,6	9,429
1058,1	5,257
1058,5	2,6
1058,9	2,629
1059,3	2,371
1059,7	2,429
1060,1	4,514
1060,5	6,829
1061	12,686
1061,4	12,4
1061,8	16,257
1062,2	14,914
1062,6	16,114
1063	16,943
1063,4	14,114
1063,8	7,314
1064,3	1,686
1064,7	-2,886
1065,1	1,029
1065,5	-6,686
1065,9	-9,886
1066,3	-10,2
1066,7	-10,257
1067,1	-7,743
1067,6	-5,457
1068	-9,914
1068,4	-3,771
1068,8	-1,914
1069,2	-3,343
1069,6	0,4
1070	5,8
1070,4	5
1070,9	7,743
1071,3	6,743
1071,7	5,829
1072,1	8,457
1072,5	3,314
1072,9	0,629
1073,3	1,514
1073,7	2,657
1074,2	3,914
1074,6	7,943
1075	8,743
1075,4	12,086
1075,8	13,8
1076,2	11,971
1076,6	8,171
1077	4,2
1077,5	5
1077,9	2,6
1078,3	4,714
1078,7	4,029
1079,1	2,743
1079,5	8,714
1079,9	9,571
1080,3	5,171
1080,7	5,2
1081,2	6,714
1081,6	5,829
1082	6,029
1082,4	7
1082,8	5,943
1083,2	6,514
1083,6	10,229
1084	5,514
1084,5	7,4
1084,9	5,457
1085,3	-3,171
1085,7	-3,514
1086,1	-3,257
1086,5	-6,6
1086,9	-1,143
1087,3	-4,229
1087,7	-5
1088,2	0,143
1088,6	4,943
1089	5,829
1089,4	7,629
1089,8	5,086
1090,2	4,914
1090,6	6,914
1091	10,2
1091,4	11,029
1091,9	12,657
1092,3	11
1092,7	9,6
1093,1	15,429
1093,5	14,171
1093,9	8,571
1094,3	7,229
1094,7	2,286
1095,1	4,686
1095,5	7,657
1096	3,971
1096,4	6,714
1096,8	9,171
1097,2	6,457
1097,6	12,743
1098	13,286
1098,4	13,771
1098,8	16,543
1099,2	18,971
1099,6	16,371
1100,1	11,571
1100,5	7,086
1100,9	5,371
1101,3	3,2
1101,7	-0,057
1102,1	-5,914
1102,5	1,6
1102,9	9,029
1103,3	11,257
1103,7	12,286
1104,2	11,429
1104,6	10,857
1105	11,8
1105,4	8
1105,8	5,029
1106,2	2,829
1106,6	0,914
1107	0,286
1107,4	0,333
1107,8	2,72
1108,3	-0,15
