Data from Subt2_068.txt Node
Date: Sat Aug 26 16:34:14 MSK 2023
User: vat
Spectrometer: MAYP114033
Trigger mode: 0
Integration Time (sec): 1,000000E0
Scans to average: 5
Electric dark correction enabled: true
Nonlinearity correction enabled: false
Boxcar width: 3
XAxis mode: Wavelengths
Number of Pixels in Spectrum: 2068
>>>>>Begin Spectral Data<<<<<
199,4	-0,467
199,9	1,553
200,4	1,233
200,8	-0,167
201,3	1,719
201,8	4,576
202,2	4,09
202,7	5,548
203,2	3,176
203,6	1,519
204,1	4,719
204,6	5,976
205	6,262
205,5	4,205
206	5,233
206,4	8,576
206,9	8,862
207,4	9,89
207,8	7,776
208,3	6,09
208,8	9,119
209,2	7,148
209,7	3,633
210,2	8,805
210,6	6,862
211,1	6,376
211,5	5,49
212	3,69
212,5	2,833
212,9	6,633
213,4	4,976
213,9	3,976
214,3	4,919
214,8	6,89
215,3	8,148
215,7	6,719
216,2	7,948
216,7	1,176
217,1	0,49
217,6	0,833
218,1	-1,967
218,5	2,462
219	12,462
219,5	9,005
219,9	15,49
220,4	14,948
220,9	14,805
221,3	15,89
221,8	11,748
222,3	5,176
222,7	2,376
223,2	3,233
223,6	2,033
224,1	2,062
224,6	4,748
225	3,348
225,5	5,376
226	5,519
226,4	6,462
226,9	9,033
227,4	10,148
227,8	9,233
228,3	16,576
228,8	12,605
229,2	18,719
229,7	14,948
230,2	19,69
230,6	14,519
231,1	17,262
231,5	16,033
232	21,719
232,5	17,719
232,9	20,262
233,4	19,119
233,9	22,49
234,3	15,89
234,8	13,633
235,3	9,548
235,7	14,548
236,2	12,805
236,7	8,748
237,1	6,319
237,6	10,719
238,1	12,662
238,5	15,633
239	11,89
239,4	15,519
239,9	18,462
240,4	18,548
240,8	17,348
241,3	12,69
241,8	7,205
242,2	5,633
242,7	6,005
243,2	6,348
243,6	11,576
244,1	10,519
244,6	7,833
245	8,748
245,5	9,148
245,9	9,033
246,4	4,576
246,9	1,862
247,3	-1,538
247,8	2,662
248,3	3,262
248,7	11,262
249,2	3,919
249,7	2,005
250,1	0,719
250,6	3,69
251	0,519
251,5	-1,167
252	-5,052
252,4	-0,967
252,9	3,89
253,4	8,119
253,8	6,205
254,3	8,233
254,8	10,205
255,2	5,576
255,7	5,433
256,1	3,662
256,6	-1,852
257,1	0,862
257,5	-1,452
258	-2,738
258,5	0,69
258,9	0,176
259,4	5,348
259,9	10,719
260,3	5,319
260,8	10,69
261,2	18,662
261,7	20,748
262,2	24,548
262,6	17,576
263,1	14,605
263,6	19,148
264	14,262
264,5	8,376
264,9	4,005
265,4	1,805
265,9	7,833
266,3	8,633
266,8	7,262
267,3	10,176
267,7	13,033
268,2	9,662
268,7	6,262
269,1	2,576
269,6	3,348
270	8,205
270,5	8,948
271	4,633
271,4	3,262
271,9	9,662
272,4	10,405
272,8	8,09
273,3	4,805
273,7	1,548
274,2	2,948
274,7	6,462
275,1	-6,052
275,6	-4,967
276,1	-2,424
276,5	-1,51
277	2,805
277,4	4,033
277,9	5,205
278,4	13,833
278,8	17,319
279,3	18,262
279,8	21,633
280,2	17,29
280,7	13,29
281,1	16,119
281,6	16,833
282,1	12,462
282,5	12,605
283	8,948
283,4	8,948
283,9	8,662
284,4	7,062
284,8	5,89
285,3	7,462
285,8	1,233
286,2	0,805
286,7	3,833
287,1	5,69
287,6	9,148
288,1	9,919
288,5	9,662
289	17,09
289,5	16,633
289,9	14,148
290,4	13,205
290,8	12,662
291,3	11,948
291,8	10,433
292,2	8,948
292,7	11,348
293,1	11,833
293,6	15,176
294,1	11,005
294,5	14,662
295	12,033
295,5	12,376
295,9	13,348
296,4	17,919
296,8	14,833
297,3	16,833
297,8	10,805
298,2	11,633
298,7	5,976
299,1	6,89
299,6	2,119
300,1	3,805
300,5	4,262
301	9,976
301,5	11,576
301,9	13,119
302,4	9,662
302,8	11,462
303,3	12,576
303,8	9,062
304,2	5,633
304,7	8,462
305,1	12,29
305,6	10,576
306,1	11,09
306,5	8,348
307	9,462
307,4	8,005
307,9	5,719
308,4	4,948
308,8	8,633
309,3	2,833
309,8	3,89
310,2	1,29
310,7	9,262
311,1	4,862
311,6	4,576
312,1	3,948
312,5	6,776
313	6,976
313,4	10,548
313,9	7,062
314,4	8,548
314,8	9,262
315,3	10,605
315,7	12,69
316,2	10,233
316,7	11,119
317,1	7,89
317,6	12,062
318	12,576
318,5	14,748
319	14,205
319,4	20,405
319,9	20,976
320,3	20,09
320,8	19,348
321,3	16,976
321,7	10,062
322,2	9,09
322,6	4,919
323,1	3,005
323,6	1,548
324	3,29
324,5	0,919
324,9	5,09
325,4	7,805
325,9	9,462
326,3	10,09
326,8	13,405
327,2	10,005
327,7	10,69
328,2	8,719
328,6	5,976
329,1	4,348
329,5	6,976
330	7,776
330,5	6,748
330,9	6,348
331,4	2,89
331,8	6,576
332,3	10,119
332,8	3,205
333,2	2,348
333,7	4,748
334,1	10,033
334,6	14,119
335,1	14,69
335,5	11,49
336	12,605
336,4	10,233
336,9	12,976
337,4	7,919
337,8	10,205
338,3	9,433
338,7	12,405
339,2	15,662
339,7	17,29
340,1	11,062
340,6	10,119
341	12,948
341,5	13,233
342	14,005
342,4	14,033
342,9	13,433
343,3	15,033
343,8	20,89
344,2	15,719
344,7	10,319
345,2	4,319
345,6	6,805
346,1	8,919
346,5	12,119
347	10,49
347,5	6,805
347,9	12,719
348,4	18,405
348,8	15,205
349,3	15,605
349,8	17,062
350,2	16,233
350,7	19,062
351,1	20,062
351,6	20,548
352	30,319
352,5	33,262
353	37,405
353,4	46,319
353,9	59,233
354,3	67,176
354,8	74,633
355,3	83,89
355,7	98,576
356,2	112,233
356,6	133,148
357,1	154,062
357,5	179,976
358	214,833
358,5	247,662
358,9	289,376
359,4	336,719
359,8	382,719
360,3	437,405
360,8	504,548
361,2	572,09
361,7	649,748
362,1	736,376
362,6	829,89
363	931,776
363,5	1043,262
364	1150,633
364,4	1262,719
364,9	1373,462
365,3	1477,748
365,8	1584,805
366,3	1686,69
366,7	1772,005
367,2	1850,833
367,6	1918,919
368,1	1975,576
368,5	2019,548
369	2042,119
369,5	2042,948
369,9	2030,205
370,4	1998,919
370,8	1952,005
371,3	1895,348
371,7	1826,433
372,2	1748,348
372,7	1658,148
373,1	1568,748
373,6	1477,29
374	1386,005
374,5	1290,319
374,9	1195,233
375,4	1103,09
375,9	1028,119
376,3	948,719
376,8	873,376
377,2	807,433
377,7	745,319
378,2	684,319
378,6	631,348
379,1	577,062
379,5	535,09
380	499,748
380,4	458,748
380,9	424,376
381,4	394,605
381,8	367,69
382,3	338,062
382,7	306,462
383,2	280,233
383,6	261,09
384,1	242,405
384,6	221,69
385	205,719
385,5	195,176
385,9	186,005
386,4	171,148
386,8	164,548
387,3	152,376
387,7	151,805
388,2	140,69
388,7	133,119
389,1	125,233
389,6	119,233
390	107,662
390,5	98,462
390,9	91,89
391,4	90,69
391,9	86,319
392,3	79,433
392,8	79,89
393,2	72,948
393,7	76,033
394,1	71,576
394,6	63,948
395,1	65,205
395,5	62,719
396	59,576
396,4	61,69
396,9	57,605
397,3	52,033
397,8	50,262
398,2	45,005
398,7	45,49
399,2	38,148
399,6	40,862
400,1	33,576
400,5	37,89
401	42,862
401,4	43,233
401,9	44,719
402,4	51,319
402,8	45,948
403,3	52,633
403,7	49,576
404,2	46,09
404,6	43,148
405,1	39,49
405,5	32,005
406	36,548
406,5	32,605
406,9	31,776
407,4	30,519
407,8	30,09
408,3	29,89
408,7	42,805
409,2	38,262
409,6	44,062
410,1	49,319
410,6	53,919
411	60,005
411,5	63,176
411,9	56,976
412,4	60,662
412,8	60,548
413,3	60,776
413,7	61,462
414,2	62,948
414,7	70,148
415,1	74,29
415,6	78,119
416	83,262
416,5	82,033
416,9	86,919
417,4	89,89
417,8	90,148
418,3	93,576
418,8	92,405
419,2	92,262
419,7	96,262
420,1	94,09
420,6	89,919
421	91,376
421,5	88,376
421,9	92,948
422,4	94,49
422,8	96,405
423,3	98,176
423,8	107,062
424,2	107,805
424,7	109,948
425,1	106,148
425,6	106,462
426	107,29
426,5	106,148
426,9	100,719
427,4	95,119
427,9	91,262
428,3	93,919
428,8	96,919
429,2	94,148
429,7	91,919
430,1	94,976
430,6	99,605
431	103,49
431,5	103,319
431,9	100,49
432,4	107,433
432,8	113,576
433,3	108,148
433,8	109,633
434,2	109,033
434,7	111,205
435,1	114,89
435,6	119,262
436	121,405
436,5	132,462
436,9	139,948
437,4	146,719
437,8	151,29
438,3	157,519
438,8	155,633
439,2	164,805
439,7	170,005
440,1	170,833
440,6	179,862
441	185,605
441,5	189,919
441,9	202,005
442,4	210,233
442,8	216,748
443,3	226,062
443,7	231,319
444,2	243,948
444,7	256,09
445,1	261,862
445,6	267,119
446	280,005
446,5	292,605
446,9	306,262
447,4	319,948
447,8	329,033
448,3	346,49
448,7	358,776
449,2	370,062
449,6	381,433
450,1	402,062
450,6	413,29
451	424,719
451,5	433,633
451,9	451,348
452,4	470,748
452,8	493,119
453,3	502,09
453,7	517,519
454,2	537,29
454,6	562,49
455,1	577,605
455,5	596,462
456	612,49
456,4	636,233
456,9	658,89
457,3	685,005
457,8	703,319
458,3	733,776
458,7	762,005
459,2	786,833
459,6	812,719
460,1	841,119
460,5	864,976
461	891,833
461,4	917,89
461,9	936,662
462,3	966,833
462,8	993,176
463,2	1019,862
463,7	1046,119
464,1	1076,576
464,6	1104,29
465	1137,548
465,5	1168,348
466	1197,833
466,4	1228,205
466,9	1266,833
467,3	1294,662
467,8	1328,376
468,2	1358,633
468,7	1385,662
469,1	1418,405
469,6	1450,405
470	1482,49
470,5	1520,548
470,9	1547,776
471,4	1579,633
471,8	1612,005
472,3	1643,005
472,7	1682,948
473,2	1702,776
473,6	1731,748
474,1	1762,09
474,5	1792,976
475	1830,348
475,4	1863,662
475,9	1888,005
476,4	1926,176
476,8	1956,262
477,3	1990,062
477,7	2023,176
478,2	2056,605
478,6	2084,205
479,1	2117,719
479,5	2153,09
480	2185,148
480,4	2218,033
480,9	2250,405
481,3	2271,548
481,8	2299,005
482,2	2325,319
482,7	2345,49
483,1	2372,09
483,6	2388,233
484	2408,462
484,5	2432,148
484,9	2461,205
485,4	2479,833
485,8	2503,062
486,3	2521,405
486,7	2548,09
487,2	2569,319
487,6	2589,176
488,1	2608,205
488,5	2625,576
489	2639,433
489,4	2658,69
489,9	2680,09
490,4	2695,262
490,8	2711,176
491,3	2723,119
491,7	2740,319
492,2	2759,376
492,6	2773,005
493,1	2782,433
493,5	2788,833
494	2794,319
494,4	2798,376
494,9	2802,119
495,3	2809,89
495,8	2819,005
496,2	2826,862
496,7	2837,09
497,1	2846,748
497,6	2857,919
498	2867,405
498,5	2872,262
498,9	2881,233
499,4	2885,119
499,8	2888,005
500,3	2897,405
500,7	2899,948
501,2	2906,69
501,6	2912,376
502,1	2911,576
502,5	2909,376
503	2923,033
503,4	2920,576
503,9	2930,09
504,3	2931,005
504,8	2932,205
505,2	2928,233
505,7	2936,119
506,1	2929,348
506,6	2933,833
507	2927,69
507,5	2928,405
507,9	2931,176
508,4	2939,748
508,8	2939,462
509,3	2939,205
509,7	2935,862
510,2	2936,519
510,6	2936,376
511,1	2937,433
511,5	2930,805
512	2933,148
512,4	2934,719
512,9	2936,09
513,3	2935,805
513,8	2935,119
514,2	2934,548
514,7	2928,862
515,1	2921,976
515,6	2916,062
516	2916,205
516,5	2919,633
516,9	2915,348
517,4	2914,748
517,8	2919,833
518,3	2915,662
518,7	2914,805
519,2	2912,405
519,6	2902,49
520,1	2903,005
520,5	2900,205
521	2897,519
521,4	2900,948
521,9	2904,205
522,3	2905,233
522,8	2909,348
523,2	2910,462
523,7	2908,148
524,1	2906,348
524,6	2899,376
525	2907,176
525,5	2904,776
525,9	2902,49
526,4	2900,205
526,8	2891,433
527,3	2891,976
527,7	2898,09
528,2	2885,519
528,6	2883,69
529,1	2885,605
529,5	2882,748
530	2888,748
530,4	2890,205
530,9	2890,29
531,3	2897,09
531,8	2901,005
532,2	2904,805
532,6	2906,948
533,1	2906,49
533,5	2915,348
534	2918,805
534,4	2922,433
534,9	2932,148
535,3	2932,033
535,8	2934,233
536,2	2937,605
536,7	2931,719
537,1	2930,89
537,6	2927,262
538	2924,405
538,5	2927,119
538,9	2931,033
539,4	2940,062
539,8	2947,29
540,3	2950,119
540,7	2957,09
541,2	2960,205
541,6	2961,519
542,1	2962,833
542,5	2957,948
543	2958,976
543,4	2968,29
543,9	2967,605
544,3	2964,033
544,8	2965,376
545,2	2970,69
545,7	2975,005
546,1	2975,433
546,5	2974,376
547	2980,319
547,4	2984,662
547,9	2994,605
548,3	2996,948
548,8	3002,462
549,2	3006,748
549,7	3009,405
550,1	3004,205
550,6	3007,29
551	3010,405
551,5	3015,719
551,9	3019,49
552,4	3018,776
552,8	3021,205
553,3	3033,548
553,7	3037,319
554,2	3036,462
554,6	3034,376
555,1	3038,605
555,5	3049,319
555,9	3051,548
556,4	3055,69
556,8	3063,233
557,3	3063,605
557,7	3071,205
558,2	3073,49
558,6	3073,662
559,1	3076,69
559,5	3076,233
560	3078,862
560,4	3079,776
560,9	3083,548
561,3	3082,09
561,8	3089,348
562,2	3091,09
562,7	3091,005
563,1	3090,348
563,6	3095,49
564	3095,033
564,4	3103,005
564,9	3095,548
565,3	3099,09
565,8	3102,69
566,2	3105,833
566,7	3113,233
567,1	3113,862
567,6	3113,49
568	3122,89
568,5	3116,605
568,9	3117,205
569,4	3116,205
569,8	3114,605
570,3	3117,719
570,7	3112,49
571,1	3110,033
571,6	3123,262
572	3123,433
572,5	3122,662
572,9	3123,062
573,4	3114,919
573,8	3117,69
574,3	3109,662
574,7	3103,719
575,2	3097,062
575,6	3099,69
576,1	3091,348
576,5	3095,433
576,9	3093,433
577,4	3096,262
577,8	3093,176
578,3	3100,462
578,7	3099,919
579,2	3106,176
579,6	3107,005
580,1	3108,433
580,5	3099,176
581	3094,348
581,4	3088,89
581,9	3084,576
582,3	3071,919
582,7	3065,519
583,2	3056,519
583,6	3059,119
584,1	3054,09
584,5	3046,633
585	3041,976
585,4	3035,576
585,9	3033,005
586,3	3026,548
586,8	3016,176
587,2	3015,805
587,6	3016,662
588,1	3008,748
588,5	3009,062
589	3002,348
589,4	2998,033
589,9	2997,748
590,3	2989,605
590,8	2983,148
591,2	2976,548
591,7	2972,319
592,1	2967,29
592,5	2964,119
593	2962,233
593,4	2958,519
593,9	2950,776
594,3	2943,576
594,8	2939,776
595,2	2938,405
595,7	2932,033
596,1	2925,919
596,6	2926,548
597	2918,748
597,4	2915,348
597,9	2910,319
598,3	2910,062
598,8	2908,548
599,2	2906,433
599,7	2898,205
600,1	2894,033
600,6	2889,633
601	2882,29
601,4	2873,605
601,9	2864,605
602,3	2858,005
602,8	2851,548
603,2	2851,433
603,7	2844,862
604,1	2842,576
604,6	2829,89
605	2824,576
605,4	2814,576
605,9	2802,633
606,3	2788,633
606,8	2781,719
607,2	2772,69
607,7	2763,633
608,1	2758,119
608,6	2748,719
609	2743,49
609,4	2739,776
609,9	2729,69
610,3	2721,005
610,8	2720,576
611,2	2708,319
611,7	2703,176
612,1	2693,948
612,6	2683,805
613	2683,148
613,4	2671,205
613,9	2659,148
614,3	2658,09
614,8	2648,49
615,2	2644,89
615,7	2638,062
616,1	2616,805
616,6	2609,205
617	2598,319
617,4	2587,005
617,9	2575,605
618,3	2563,519
618,8	2554,09
619,2	2551,719
619,7	2543,69
620,1	2532,89
620,5	2518,119
621	2509,719
621,4	2499,176
621,9	2490,805
622,3	2480,833
622,8	2466,119
623,2	2455,605
623,6	2443,262
624,1	2434,919
624,5	2425,176
625	2410,233
625,4	2397,633
625,9	2387,405
626,3	2378,576
626,8	2373,633
627,2	2364,233
627,6	2351,119
628,1	2344,319
628,5	2339,176
629	2335,948
629,4	2322,862
629,9	2313,748
630,3	2300,49
630,7	2295,119
631,2	2284,919
631,6	2270,148
632,1	2250,348
632,5	2243,033
633	2226,348
633,4	2215,205
633,8	2198,89
634,3	2182,205
634,7	2174,148
635,2	2168,033
635,6	2157,519
636,1	2156,462
636,5	2148,09
636,9	2142,49
637,4	2136,548
637,8	2123,748
638,3	2115,833
638,7	2109,062
639,2	2097,09
639,6	2082,376
640	2073,605
640,5	2060,519
640,9	2056,205
641,4	2045,205
641,8	2031,09
642,2	2019,005
642,7	2007,776
643,1	1999,862
643,6	1990,49
644	1979,805
644,5	1973,262
644,9	1964,49
645,3	1955,376
645,8	1951,862
646,2	1942,148
646,7	1933,233
647,1	1924,919
647,6	1905,69
648	1898,805
648,4	1886,519
648,9	1877,433
649,3	1864,348
649,8	1858,89
650,2	1846,49
650,6	1845,033
651,1	1838,833
651,5	1831,89
652	1827,833
652,4	1814,29
652,9	1806,519
653,3	1795,062
653,7	1787,005
654,2	1770,433
654,6	1757,833
655,1	1738,176
655,5	1734,605
655,9	1723,119
656,4	1715,062
656,8	1703,748
657,3	1696,376
657,7	1685,29
658,2	1680,005
658,6	1661,89
659	1650,376
659,5	1642,948
659,9	1632,433
660,4	1626,833
660,8	1626,205
661,2	1619,576
661,7	1612,09
662,1	1605,433
662,6	1595,662
663	1591,833
663,4	1576,519
663,9	1561,89
664,3	1553,233
664,8	1549,148
665,2	1535,576
665,6	1528,433
666,1	1514,805
666,5	1506,49
667	1496,519
667,4	1488,576
667,9	1475,605
668,3	1470,348
668,7	1463,119
669,2	1452,976
669,6	1447,033
670,1	1441,405
670,5	1427,262
670,9	1425,433
671,4	1415,462
671,8	1404,633
672,3	1399,548
672,7	1390,205
673,1	1381,376
673,6	1372,319
674	1359,319
674,5	1355,462
674,9	1343,833
675,3	1335,405
675,8	1328,005
676,2	1319,719
676,7	1317,033
677,1	1314,405
677,5	1302,119
678	1299,919
678,4	1292,376
678,9	1285,576
679,3	1276,833
679,7	1265,919
680,2	1260,976
680,6	1252,633
681,1	1240,862
681,5	1234,89
681,9	1223,748
682,4	1218,805
682,8	1212,919
683,3	1196,633
683,7	1190,033
684,1	1183,748
684,6	1172,519
685	1166,348
685,5	1154,69
685,9	1145,376
686,3	1145,633
686,8	1134,09
687,2	1129,633
687,7	1122,462
688,1	1119,976
688,5	1113,262
689	1110,005
689,4	1102,719
689,9	1103,948
690,3	1098,605
690,7	1087,433
691,2	1081,519
691,6	1079,062
692	1067,233
692,5	1055,576
692,9	1047,919
693,4	1033,776
693,8	1035,948
694,2	1025,719
694,7	1017,919
695,1	1013,69
695,6	1007,49
696	1002,062
696,4	996,233
696,9	989,405
697,3	983,662
697,8	976,976
698,2	969,005
698,6	966,719
699,1	952,605
699,5	950,748
699,9	943,376
700,4	938,005
700,8	938,233
701,3	937,005
701,7	928,062
702,1	928,49
702,6	920,462
703	910,148
703,5	902,633
703,9	887,69
704,3	884,119
704,8	879,605
705,2	874,748
705,6	865,919
706,1	867,033
706,5	863,433
707	861,748
707,4	854,462
707,8	849,719
708,3	842,148
708,7	843,69
709,2	835,948
709,6	832,49
710	824,69
710,5	820,29
710,9	811,548
711,3	804,662
711,8	798,005
712,2	790,919
712,7	784,09
713,1	780,148
713,5	768,748
714	762,948
714,4	757,748
714,8	752,519
715,3	751,433
715,7	740,719
716,2	736,605
716,6	737,233
717	736,89
717,5	734,405
717,9	729,776
718,3	723,433
718,8	722,405
719,2	718,89
719,7	713,005
720,1	707,862
720,5	700,833
721	697,319
721,4	691,662
721,8	688,405
722,3	681,319
722,7	674,319
723,2	668,948
723,6	668,49
724	656,69
724,5	649,233
724,9	640,233
725,3	638,862
725,8	631,748
726,2	629,348
726,7	626,576
727,1	621,776
727,5	619,233
728	621,576
728,4	614,319
728,8	618,005
729,3	609,776
729,7	604,205
730,1	602,233
730,6	599,719
731	598,89
731,5	597,405
731,9	594,005
732,3	595,205
732,8	591,519
733,2	591,376
733,6	589,29
734,1	580,262
734,5	572,833
734,9	567,119
735,4	564,348
735,8	560,719
736,3	556,519
736,7	551,976
737,1	548,805
737,6	546,09
738	545,376
738,4	537,69
738,9	534,405
739,3	533,176
739,7	530,205
740,2	528,205
740,6	529,89
741,1	521,233
741,5	519,719
741,9	513,462
742,4	510,09
742,8	510,948
743,2	510,49
743,7	509,948
744,1	502,948
744,5	502,948
745	493,776
745,4	487,633
745,8	481,633
746,3	475,833
746,7	468,319
747,2	473,062
747,6	466,776
748	472,948
748,5	472,49
748,9	467,09
749,3	471,005
749,8	462,062
750,2	453,09
750,6	449,062
751,1	447,605
751,5	442,833
751,9	443,376
752,4	430,748
752,8	432,176
753,3	431,69
753,7	431,262
754,1	425,005
754,6	419,376
755	417,148
755,4	414,719
755,9	413,519
756,3	409,262
756,7	407,748
757,2	407,49
757,6	407,69
758	402,862
758,5	400,005
758,9	395,776
759,3	394,862
759,8	396,69
760,2	397,176
760,6	398,69
761,1	395,119
761,5	396,433
761,9	391,719
762,4	390,405
762,8	383,005
763,3	375,062
763,7	366,433
764,1	362,69
764,6	357,548
765	359,748
765,4	359,119
765,9	354,29
766,3	351,319
766,7	351,69
767,2	352,833
767,6	347,605
768	348,119
768,5	340,919
768,9	335,833
769,3	336,633
769,8	339,29
770,2	341,519
770,6	345,605
771,1	342,348
771,5	344,548
771,9	348,09
772,4	350,119
772,8	343,433
773,2	337,462
773,7	334,719
774,1	333,176
774,5	330,719
775	327,005
775,4	320,919
775,8	325,833
776,3	320,319
776,7	318,776
777,1	316,576
777,6	312,49
778	306,033
778,4	301,833
778,9	294,348
779,3	299,29
779,7	296,776
780,2	291,233
780,6	291,176
781	290,29
781,5	288,49
781,9	287,29
782,3	282,062
782,8	278,262
783,2	273,176
783,6	267,062
784,1	270,576
784,5	268,976
784,9	267,49
785,4	266,376
785,8	261,348
786,2	262,805
786,7	263,433
787,1	258,233
787,5	256,462
788	250,805
788,4	243,69
788,8	244,948
789,3	247,605
789,7	250,805
790,1	253,005
790,6	251,348
791	252,776
791,4	254,576
791,9	253,89
792,3	247,119
792,7	242,348
793,2	234,748
793,6	233,519
794	231,49
794,5	227,348
794,9	227,719
795,3	229,633
795,8	227,719
796,2	228,833
796,6	225,319
797,1	220,976
797,5	220,062
797,9	216,719
798,4	212,49
798,8	210,348
799,2	212,49
799,7	216,119
800,1	213,976
800,5	211,119
801	210,09
801,4	208,748
801,8	207,633
802,2	200,033
802,7	194,29
803,1	192,748
803,5	195,062
804	194,776
804,4	192,09
804,8	194,69
805,3	193,748
805,7	191,805
806,1	194,205
806,6	194,062
807	191,862
807,4	189,862
807,9	183,633
808,3	182,605
808,7	181,719
809,2	180,776
809,6	176,262
810	177,805
810,4	180,69
810,9	177,976
811,3	177,376
811,7	176,948
812,2	177,605
812,6	177,49
813	173,348
813,5	169,09
813,9	168,576
814,3	166,548
814,8	166,89
815,2	162,633
815,6	157,148
816,1	155,462
816,5	152,776
816,9	151,862
817,3	153,919
817,8	156,405
818,2	147,69
818,6	146,462
819,1	144,633
819,5	146,319
819,9	139,719
820,4	137,519
820,8	128,348
821,2	134,548
821,7	141,548
822,1	139,862
822,5	139,376
822,9	150,005
823,4	146,29
823,8	150,005
824,2	145,919
824,7	142,119
825,1	144,462
825,5	143,833
826	136,948
826,4	139,233
826,8	137,319
827,3	136,719
827,7	137,833
828,1	137,976
828,5	134,748
829	131,348
829,4	132,548
829,8	129,005
830,3	130,49
830,7	123,948
831,1	116,348
831,6	113,233
832	112,662
832,4	108,29
832,8	108,748
833,3	106,29
833,7	111,576
834,1	111,976
834,6	111,605
835	114,062
835,4	115,233
835,8	112,748
836,3	112,748
836,7	105,462
837,1	104,09
837,6	103,005
838	101,748
838,4	95,69
838,9	100,176
839,3	103,033
839,7	105,976
840,1	103,09
840,6	106,062
841	104,948
841,4	105,119
841,9	98,033
842,3	95,805
842,7	96,462
843,1	102,976
843,6	103,262
844	102,205
844,4	103,062
844,9	105,405
845,3	99,062
845,7	96,748
846,2	92,976
846,6	84,233
847	83,633
847,4	85,348
847,9	86,319
848,3	93,576
848,7	91,405
849,2	90,948
849,6	96,033
850	96,119
850,4	96,433
850,9	92,205
851,3	84,205
851,7	82,805
852,2	82,262
852,6	80,405
853	78,49
853,4	82,833
853,9	81,719
854,3	83,262
854,7	79,519
855,2	76,948
855,6	72,833
856	71,919
856,4	65,176
856,9	62,262
857,3	61,776
857,7	67,662
858,2	67,519
858,6	71,519
859	69,519
859,4	71,776
859,9	74,719
860,3	71,776
860,7	70,433
861,1	72,005
861,6	71,062
862	69,662
862,4	65,148
862,9	66,405
863,3	68,433
863,7	65,719
864,1	63,176
864,6	62,29
865	62,748
865,4	61,205
865,9	54,319
866,3	56,148
866,7	58,776
867,1	59,748
867,6	58,548
868	63,205
868,4	59,69
868,8	67,805
869,3	68,69
869,7	61,319
870,1	60,348
870,6	59,548
871	50,262
871,4	51,948
871,8	49,09
872,3	46,09
872,7	47,919
873,1	47,233
873,5	49,49
874	56,519
874,4	60,719
874,8	56,205
875,3	54,548
875,7	57,519
876,1	58,662
876,5	59,033
877	56,119
877,4	53,862
877,8	60,09
878,2	60,433
878,7	60,919
879,1	59,948
879,5	58,69
879,9	60,519
880,4	58,119
880,8	58,662
881,2	59,69
881,7	62,976
882,1	61,833
882,5	59,805
882,9	56,29
883,4	59,09
883,8	56,205
884,2	54,576
884,6	47,005
885,1	52,062
885,5	55,89
885,9	58,205
886,3	59,633
886,8	53,948
887,2	50,119
887,6	54,919
888	47,948
888,5	47,176
888,9	49,405
889,3	39,176
889,8	47,633
890,2	47,519
890,6	42,005
891	41,805
891,5	40,662
891,9	36,233
892,3	39,319
892,7	33,062
893,2	37,633
893,6	37,976
894	38,805
894,4	39,919
894,9	41,262
895,3	41,833
895,7	41,119
896,1	43,833
896,6	43,833
897	43,148
897,4	35,89
897,8	34,919
898,3	38,919
898,7	39,033
899,1	33,062
899,5	29,976
900	30,09
900,4	34,405
900,8	30,919
901,2	26,319
901,7	24,119
902,1	25,862
902,5	29,633
902,9	30,29
903,4	33,09
903,8	32,405
904,2	36,205
904,6	36,633
905,1	36,89
905,5	34,148
905,9	33,862
906,3	26,662
906,8	29,748
907,2	24,519
907,6	27,176
908	22,833
908,5	25,29
908,9	22,976
909,3	23,605
909,7	25,062
910,2	27,262
910,6	24,49
911	24,633
911,4	21,462
911,9	22,176
912,3	22,748
912,7	23,919
913,1	18,319
913,6	20,919
914	21,119
914,4	18,805
914,8	21,748
915,3	21,405
915,7	17,948
916,1	19,976
916,5	21,033
916,9	20,976
917,4	25,919
917,8	26,405
918,2	27,09
918,6	28,405
919,1	30,805
919,5	31,262
919,9	31,862
920,3	29,833
920,8	28,462
921,2	31,29
921,6	25,576
922	20,633
922,5	16,319
922,9	16,948
923,3	18,976
923,7	15,519
924,2	10,748
924,6	14,176
925	20,462
925,4	21,29
925,8	21,176
926,3	20,576
926,7	22,319
927,1	25,462
927,5	25,976
928	23,405
928,4	23,119
928,8	28,176
929,2	24,262
929,7	21,719
930,1	17,176
930,5	14,862
930,9	19,205
931,3	24,148
931,8	16,633
932,2	18,776
932,6	22,433
933	21,633
933,5	20,405
933,9	17,119
934,3	13,348
934,7	18,376
935,2	23,005
935,6	22,976
936	21,69
936,4	23,576
936,8	23,519
937,3	24,033
937,7	21,748
938,1	14,148
938,5	10,29
939	18,662
939,4	22,519
939,8	22,69
940,2	22,433
940,6	21,148
941,1	27,548
941,5	27,576
941,9	21,405
942,3	18,433
942,8	21,233
943,2	17,976
943,6	17,119
944	15,405
944,4	10,29
944,9	9,262
945,3	8,748
945,7	4,833
946,1	7,262
946,6	7,462
947	6,976
947,4	10,348
947,8	15,69
948,2	12,833
948,7	14,919
949,1	9,548
949,5	11,205
949,9	12,605
950,3	15,69
950,8	10,633
951,2	16,148
951,6	14,69
952	17,748
952,5	14,748
952,9	12,605
953,3	9,805
953,7	12,376
954,1	9,548
954,6	8,148
955	7,748
955,4	7,005
955,8	10,005
956,2	10,205
956,7	9,005
957,1	11,805
957,5	10,805
957,9	11,519
958,3	14,919
958,8	12,748
959,2	15,948
959,6	20,062
960	17,576
960,5	17,348
960,9	18,062
961,3	17,948
961,7	13,062
962,1	9,49
962,6	4,548
963	2,662
963,4	4,548
963,8	8,348
964,2	8,033
964,7	10,005
965,1	13,719
965,5	11,89
965,9	15,862
966,3	13,376
966,8	9,748
967,2	10,576
967,6	9,919
968	9,805
968,4	15,69
968,9	19,148
969,3	17,233
969,7	16,548
970,1	16,005
970,5	21,376
971	16,69
971,4	17,833
971,8	12,776
972,2	16,262
972,6	14,719
973,1	17,519
973,5	15,405
973,9	19,376
974,3	12,89
974,7	11,005
975,2	11,29
975,6	9,576
976	8,919
976,4	5,005
976,8	1,462
977,3	4,805
977,7	4,833
978,1	5,462
978,5	9,919
978,9	6,148
979,4	6,948
979,8	8,119
980,2	3,376
980,6	3,433
981	2,662
981,5	4,176
981,9	2,805
982,3	0,205
982,7	0,119
983,1	6,948
983,6	10,062
984	13,205
984,4	12,519
984,8	13,748
985,2	13,119
985,6	15,548
986,1	10,862
986,5	3,719
986,9	3,776
987,3	1,662
987,7	1,262
988,2	8,119
988,6	7,805
989	10,89
989,4	19,519
989,8	17,176
990,3	15,462
990,7	14,348
991,1	8,748
991,5	5,576
991,9	6,548
992,3	2,605
992,8	4,29
993,2	8,405
993,6	11,233
994	14,176
994,4	14,462
994,9	16,09
995,3	16,233
995,7	11,833
996,1	8,633
996,5	5,119
996,9	4,29
997,4	7,062
997,8	2,776
998,2	6,576
998,6	10,862
999	10,69
999,5	11,833
999,9	12,862
1000,3	16,348
1000,7	14,748
1001,1	8,49
1001,5	3,119
1002	1,89
1002,4	2,605
1002,8	6,548
1003,2	2,633
1003,6	5,633
1004	9,262
1004,5	11,519
1004,9	13,748
1005,3	11,176
1005,7	7,205
1006,1	6,233
1006,6	6,776
1007	3,376
1007,4	4,633
1007,8	-0,367
1008,2	0,605
1008,6	-5,081
1009,1	-7,767
1009,5	-2,052
1009,9	2,776
1010,3	5,576
1010,7	15,005
1011,1	20,062
1011,6	23,005
1012	26,862
1012,4	22,833
1012,8	16,576
1013,2	13,576
1013,6	10,49
1014,1	6,862
1014,5	9,719
1014,9	8,548
1015,3	8,462
1015,7	10,548
1016,1	11,662
1016,6	12,005
1017	13,633
1017,4	12,69
1017,8	15,119
1018,2	9,148
1018,6	10,49
1019,1	8,605
1019,5	7,805
1019,9	8,633
1020,3	8,033
1020,7	7,805
1021,1	14,576
1021,6	16,062
1022	11,576
1022,4	14,519
1022,8	10,69
1023,2	11,948
1023,6	7,119
1024,1	7,748
1024,5	8,576
1024,9	16,319
1025,3	12,776
1025,7	19,119
1026,1	18,633
1026,6	24,833
1027	18,176
1027,4	13,033
1027,8	9,605
1028,2	11,348
1028,6	9,976
1029	4,776
1029,5	3,548
1029,9	2,976
1030,3	9,548
1030,7	9,405
1031,1	5,976
1031,5	4,148
1032	9,233
1032,4	3,69
1032,8	5,405
1033,2	-1,167
1033,6	2,148
1034	2,062
1034,4	3,233
1034,9	-0,11
1035,3	7,519
1035,7	7,49
1036,1	9,605
1036,5	2,405
1036,9	2,376
1037,4	0,205
1037,8	1,69
1038,2	-8,167
1038,6	-7,338
1039	-8,452
1039,4	-3,738
1039,8	-2,31
1040,3	-5,681
1040,7	-7,024
1041,1	-3,424
1041,5	-0,424
1041,9	1,119
1042,3	2,205
1042,7	3,005
1043,2	6,633
1043,6	13,176
1044	15,433
1044,4	13,633
1044,8	11,633
1045,2	13,69
1045,6	15,433
1046,1	18,09
1046,5	15,748
1046,9	15,776
1047,3	12,919
1047,7	12,176
1048,1	8,805
1048,5	7,433
1049	8,633
1049,4	8,833
1049,8	8,69
1050,2	12,662
1050,6	15,605
1051	17,49
1051,4	19,976
1051,9	22,262
1052,3	19,205
1052,7	18,605
1053,1	17,805
1053,5	19,176
1053,9	17,748
1054,3	12,748
1054,8	8,233
1055,2	15,748
1055,6	13,919
1056	13,033
1056,4	13,09
1056,8	14,176
1057,2	17,862
1057,6	17,376
1058,1	11,748
1058,5	13,719
1058,9	15,49
1059,3	15,233
1059,7	8,919
1060,1	7,69
1060,5	1,405
1061	-0,538
1061,4	6,205
1061,8	0,776
1062,2	-3,252
1062,6	3,09
1063	1,805
1063,4	8,548
1063,8	8,919
1064,3	2,576
1064,7	6,748
1065,1	12,005
1065,5	9,633
1065,9	7,119
1066,3	2,519
1066,7	1,748
1067,1	3,176
1067,6	3,805
1068	-0,081
1068,4	3,29
1068,8	6,748
1069,2	7,576
1069,6	6,748
1070	5,119
1070,4	1,605
1070,9	-0,367
1071,3	-1,052
1071,7	1,062
1072,1	6,376
1072,5	12,005
1072,9	18,148
1073,3	22,176
1073,7	25,348
1074,2	25,605
1074,6	21,29
1075	17,148
1075,4	14,262
1075,8	9,948
1076,2	5,833
1076,6	5,462
1077	2,776
1077,5	6,748
1077,9	10,233
1078,3	6,776
1078,7	5,405
1079,1	9,462
1079,5	6,748
1079,9	12,719
1080,3	10,576
1080,7	10,233
1081,2	13,833
1081,6	13,948
1082	12,405
1082,4	12,748
1082,8	4,29
1083,2	0,433
1083,6	0,633
1084	-1,024
1084,5	-1,624
1084,9	-2,652
1085,3	2,205
1085,7	3,262
1086,1	4,233
1086,5	8,69
1086,9	12,176
1087,3	13,148
1087,7	14,433
1088,2	12,49
1088,6	11,633
1089	12,948
1089,4	6,119
1089,8	9,605
1090,2	9,89
1090,6	3,005
1091	5,633
1091,4	10,09
1091,9	14,176
1092,3	13,033
1092,7	6,605
1093,1	3,205
1093,5	7,405
1093,9	4,605
1094,3	3,748
1094,7	-2,567
1095,1	-5,795
1095,5	-3,852
1096	-5,738
1096,4	-0,995
1096,8	-1,995
1097,2	-3,224
1097,6	-0,824
1098	5,09
1098,4	5,062
1098,8	9,205
1099,2	7,119
1099,6	6,976
1100,1	8,776
1100,5	10,69
1100,9	11,233
1101,3	9,948
1101,7	14,433
1102,1	11,919
1102,5	13,519
1102,9	11,262
1103,3	8,633
1103,7	5,805
1104,2	10,176
1104,6	7,205
1105	8,833
1105,4	9,462
1105,8	9,805
1106,2	10,176
1106,6	9,233
1107	4,805
1107,4	2,633
1107,8	2,273
1108,3	-0,167
