Data from Subt2_022.txt Node
Date: Sat Aug 26 16:17:04 MSK 2023
User: vat
Spectrometer: MAYP114033
Trigger mode: 0
Integration Time (sec): 1,000000E0
Scans to average: 5
Electric dark correction enabled: true
Nonlinearity correction enabled: false
Boxcar width: 3
XAxis mode: Wavelengths
Number of Pixels in Spectrum: 2068
>>>>>Begin Spectral Data<<<<<
199,4	-0,2
199,9	4,12
200,4	2,8
200,8	1,6
201,3	2,829
201,8	4,171
202,2	3,914
202,7	6,029
203,2	3,143
203,6	7,371
204,1	10,2
204,6	8,943
205	9,8
205,5	11,486
206	10,029
206,4	9,086
206,9	7,114
207,4	7,057
207,8	11,657
208,3	7,629
208,8	8,486
209,2	8,086
209,7	11,571
210,2	12,914
210,6	7,971
211,1	5,343
211,5	6,286
212	6,4
212,5	3,629
212,9	2,886
213,4	-2,143
213,9	0,514
214,3	-4,429
214,8	-0,8
215,3	1,4
215,7	5,571
216,2	4,6
216,7	5,229
217,1	2,086
217,6	3,571
218,1	-0,057
218,5	-6,057
219	-11,543
219,5	-8,4
219,9	-10,057
220,4	-0,514
220,9	-3,057
221,3	-1,4
221,8	-3,343
222,3	0,114
222,7	-0,829
223,2	4,857
223,6	2,914
224,1	6,857
224,6	2,686
225	10,571
225,5	9,543
226	7,457
226,4	5,714
226,9	2,286
227,4	3,029
227,8	5,914
228,3	3,371
228,8	9,086
229,2	6,143
229,7	3,714
230,2	2,857
230,6	1
231,1	2,314
231,5	3,229
232	-3,314
232,5	0,771
232,9	1,286
233,4	1,286
233,9	1,543
234,3	-0,771
234,8	-2,743
235,3	1,057
235,7	-5,943
236,2	-6,314
236,7	-7,829
237,1	-6,714
237,6	-6,086
238,1	-7,714
238,5	-7,571
239	-0,514
239,4	5,086
239,9	0,8
240,4	5,114
240,8	5,857
241,3	9,029
241,8	7,971
242,2	6,343
242,7	9,4
243,2	20,486
243,6	16,029
244,1	14,743
244,6	10
245	6,714
245,5	8,057
245,9	4,343
246,4	-0,171
246,9	3,857
247,3	5,229
247,8	7,686
248,3	7,714
248,7	6,514
249,2	4,371
249,7	3,8
250,1	-0,029
250,6	-0,114
251	0,429
251,5	4,686
252	7,514
252,4	7,286
252,9	1,686
253,4	1,657
253,8	2,286
254,3	1,257
254,8	-0
255,2	-2,029
255,7	-3,943
256,1	1,029
256,6	0,286
257,1	0,429
257,5	0,114
258	0,371
258,5	-1,714
258,9	-2,343
259,4	-4,257
259,9	-3,429
260,3	0,829
260,8	2,943
261,2	1,543
261,7	-1,857
262,2	0,286
262,6	3,2
263,1	4,543
263,6	2,857
264	3,029
264,5	5,743
264,9	11
265,4	9,4
265,9	11,629
266,3	9,686
266,8	3,343
267,3	0,086
267,7	-3,543
268,2	-4,657
268,7	-3,4
269,1	-6,429
269,6	-10,029
270	-7,114
270,5	-2,943
271	-5,514
271,4	-7,371
271,9	-6,229
272,4	-8,429
272,8	-2,486
273,3	-1,943
273,7	-0,286
274,2	1,257
274,7	4,429
275,1	4,429
275,6	6,457
276,1	7,743
276,5	8,086
277	4,4
277,4	3,286
277,9	1,571
278,4	1,743
278,8	1,686
279,3	2,486
279,8	-0,229
280,2	3,143
280,7	9,371
281,1	7,371
281,6	5
282,1	8,057
282,5	3,343
283	7,743
283,4	-1,086
283,9	-5,086
284,4	-5,486
284,8	-4,657
285,3	-5,371
285,8	-6,229
286,2	-9,8
286,7	-6,543
287,1	-2
287,6	0,8
288,1	-0,571
288,5	-3,429
289	1,029
289,5	4,429
289,9	5,2
290,4	-2,2
290,8	-0,686
291,3	4,486
291,8	6,029
292,2	6,8
292,7	6,743
293,1	11,371
293,6	18,257
294,1	17,314
294,5	12,286
295	12,571
295,5	8,829
295,9	6,029
296,4	0,429
296,8	1,743
297,3	2,714
297,8	3,029
298,2	3,029
298,7	8,657
299,1	12,657
299,6	14,286
300,1	14,829
300,5	14,486
301	15,257
301,5	14,971
301,9	9,943
302,4	6,914
302,8	8,629
303,3	4,571
303,8	2,686
304,2	2,029
304,7	3,8
305,1	3,886
305,6	5,143
306,1	0,886
306,5	-0,571
307	-1,743
307,4	-2,514
307,9	-1,771
308,4	-6,6
308,8	-2,943
309,3	-0,6
309,8	4,029
310,2	5,029
310,7	6,343
311,1	3,686
311,6	9,743
312,1	4,714
312,5	6,114
313	1,486
313,4	1,457
313,9	-3,143
314,4	-0,771
314,8	-1,257
315,3	-2,314
315,7	-4,686
316,2	0,714
316,7	-0,229
317,1	3,4
317,6	4,229
318	0,943
318,5	2,829
319	6,743
319,4	0,029
319,9	-2,629
320,3	2,8
320,8	0,543
321,3	3,314
321,7	4,829
322,2	3,686
322,6	6,771
323,1	12,571
323,6	8,457
324	12,457
324,5	13,943
324,9	11,029
325,4	10,114
325,9	8,857
326,3	9,886
326,8	12,8
327,2	6,714
327,7	4,029
328,2	4,2
328,6	3,829
329,1	-0,429
329,5	-2,257
330	-6,343
330,5	-3,914
330,9	-3,057
331,4	-0,943
331,8	1,143
332,3	5,343
332,8	5,543
333,2	6,371
333,7	9,029
334,1	9,086
334,6	7,686
335,1	8,514
335,5	9,743
336	11,486
336,4	14,286
336,9	11,857
337,4	13,4
337,8	14,2
338,3	10,657
338,7	11,657
339,2	7,543
339,7	8,257
340,1	9,543
340,6	4,457
341	1,857
341,5	6,857
342	11,086
342,4	20,457
342,9	23,286
343,3	20,457
343,8	24,057
344,2	25,629
344,7	22,343
345,2	18,343
345,6	10,314
346,1	7,771
346,5	9,657
347	14,286
347,5	17
347,9	21,229
348,4	19,914
348,8	23,4
349,3	25,2
349,8	25,543
350,2	26,629
350,7	27,943
351,1	27,514
351,6	34,029
352	39,486
352,5	44,8
353	58,743
353,4	69,2
353,9	84,029
354,3	102,971
354,8	124,029
355,3	148,343
355,7	172,571
356,2	202,771
356,6	240,6
357,1	281,057
357,5	326,371
358	383,771
358,5	450,8
358,9	528,171
359,4	612,857
359,8	701,943
360,3	810,629
360,8	930,029
361,2	1059,829
361,7	1204,4
362,1	1364,343
362,6	1541,029
363	1735,829
363,5	1938,771
364	2148,629
364,4	2365,2
364,9	2583,457
365,3	2801,686
365,8	3004,086
366,3	3195,4
366,7	3375,171
367,2	3528,486
367,6	3659,086
368,1	3759,257
368,5	3821,314
369	3857,2
369,5	3863,514
369,9	3833,857
370,4	3777,914
370,8	3690,686
371,3	3577,229
371,7	3447,714
372,2	3307,114
372,7	3150,086
373,1	2980,571
373,6	2812,343
374	2642,143
374,5	2471,686
374,9	2304,571
375,4	2145,571
375,9	1987,371
376,3	1831,971
376,8	1689,114
377,2	1551,543
377,7	1424,886
378,2	1310,886
378,6	1195,971
379,1	1090,829
379,5	1003,914
380	918,286
380,4	843,514
380,9	774,514
381,4	707,743
381,8	650,914
382,3	605,029
382,7	559,2
383,2	519,486
383,6	482,743
384,1	451,114
384,6	423,114
385	389,686
385,5	362,857
385,9	334,029
386,4	310,143
386,8	285,543
387,3	266,914
387,7	250,429
388,2	235,914
388,7	214,257
389,1	202,143
389,6	185,457
390	176,629
390,5	161,771
390,9	148,429
391,4	139,257
391,9	132,743
392,3	124,086
392,8	120,886
393,2	107,371
393,7	99,829
394,1	94,086
394,6	85,171
395,1	78,371
395,5	74,4
396	68,229
396,4	66,829
396,9	60,886
397,3	56,6
397,8	55,086
398,2	56,714
398,7	52,8
399,2	50,4
399,6	44,686
400,1	44,4
400,5	42,114
401	38,457
401,4	33,514
401,9	37,657
402,4	36,543
402,8	41,857
403,3	42,8
403,7	45,943
404,2	48,229
404,6	48,914
405,1	40,571
405,5	39,486
406	34,629
406,5	35,257
406,9	35,029
407,4	34,114
407,8	38,971
408,3	41,543
408,7	43,514
409,2	51,571
409,6	57,857
410,1	64,286
410,6	67,343
411	69,829
411,5	78,886
411,9	86,829
412,4	90,8
412,8	94,829
413,3	94,914
413,7	99,143
414,2	105,486
414,7	108,143
415,1	105,4
415,6	110,486
416	108,029
416,5	116,514
416,9	125,029
417,4	124,2
417,8	128,286
418,3	141,571
418,8	146,229
419,2	156,229
419,7	158,057
420,1	164
420,6	176,486
421	180,543
421,5	182,771
421,9	187,886
422,4	189,686
422,8	195,429
423,3	200,8
423,8	202,886
424,2	211,629
424,7	220,771
425,1	226,514
425,6	234,943
426	240,971
426,5	248,514
426,9	257,2
427,4	268,8
427,9	280,286
428,3	295,114
428,8	309,6
429,2	325,286
429,7	339,086
430,1	357,171
430,6	368,914
431	379,171
431,5	393,743
431,9	409,714
432,4	421,714
432,8	437,829
433,3	451,457
433,8	472,314
434,2	490,429
434,7	508,029
435,1	535,171
435,6	555,629
436	580,771
436,5	607,943
436,9	628,171
437,4	656,943
437,8	685,457
438,3	710,743
438,8	744,371
439,2	777,686
439,7	805,686
440,1	842,857
440,6	879,971
441	916,457
441,5	954,114
441,9	997,971
442,4	1032
442,8	1068,943
443,3	1112,171
443,7	1152,257
444,2	1190,086
444,7	1233,257
445,1	1276,343
445,6	1327,971
446	1379,943
446,5	1426,543
446,9	1478,429
447,4	1539,743
447,8	1595,8
448,3	1645,6
448,7	1698,943
449,2	1760,514
449,6	1819,143
450,1	1874,543
450,6	1934,8
451	1990,086
451,5	2058
451,9	2126,971
452,4	2187,171
452,8	2261,229
453,3	2333,114
453,7	2398,914
454,2	2475,257
454,6	2544,314
455,1	2609,657
455,5	2687,257
456	2752,971
456,4	2832,143
456,9	2912,086
457,3	2986,371
457,8	3068,571
458,3	3146,914
458,7	3226,2
459,2	3312,486
459,6	3384,886
460,1	3467,571
460,5	3558,657
461	3642,629
461,4	3732,543
461,9	3822,086
462,3	3902,8
462,8	3993,343
463,2	4078,029
463,7	4160,171
464,1	4244,771
464,6	4327,514
465	4408,229
465,5	4497,4
466	4585,057
466,4	4668,686
466,9	4748,514
467,3	4830,171
467,8	4921,486
468,2	4995,971
468,7	5082,714
469,1	5166,057
469,6	5249,743
470	5328,371
470,5	5412,286
470,9	5488,771
471,4	5575,2
471,8	5650,543
472,3	5724,886
472,7	5797,6
473,2	5874,486
473,6	5934,971
474,1	6001,6
474,5	6076,943
475	6150
475,4	6223,829
475,9	6294,171
476,4	6360,286
476,8	6429,543
477,3	6492
477,7	6547,143
478,2	6601,143
478,6	6650,171
479,1	6701,686
479,5	6756
480	6810,657
480,4	6858,543
480,9	6902,657
481,3	6942,686
481,8	6981,886
482,2	7017,8
482,7	7053,629
483,1	7092,714
483,6	7124,429
484	7153,343
484,5	7180,314
484,9	7216,943
485,4	7250,4
485,8	7267,571
486,3	7280,314
486,7	7299,171
487,2	7310,457
487,6	7312,657
488,1	7309,857
488,5	7308,686
489	7307,971
489,4	7313,629
489,9	7312,543
490,4	7317,229
490,8	7321,429
491,3	7317,314
491,7	7300,971
492,2	7299,143
492,6	7287,286
493,1	7266,114
493,5	7243,029
494	7223,571
494,4	7198,886
494,9	7173,371
495,3	7145,629
495,8	7110,086
496,2	7084,571
496,7	7052,2
497,1	7027,943
497,6	7002,4
498	6973,086
498,5	6934,514
498,9	6900,229
499,4	6867,571
499,8	6836,4
500,3	6784,543
500,7	6742,8
501,2	6700,457
501,6	6664,2
502,1	6626,314
502,5	6590,171
503	6554,6
503,4	6515,257
503,9	6471,2
504,3	6431,571
504,8	6381
505,2	6340,571
505,7	6286,914
506,1	6227,486
506,6	6185,2
507	6132,029
507,5	6086,029
507,9	6039,143
508,4	5984,743
508,8	5930,943
509,3	5885,429
509,7	5834,6
510,2	5784,457
510,6	5728,486
511,1	5675,171
511,5	5619,429
512	5559,829
512,4	5505,171
512,9	5445,857
513,3	5390,514
513,8	5332,771
514,2	5276,829
514,7	5219,314
515,1	5174,029
515,6	5120,543
516	5067,057
516,5	5006,743
516,9	4950,886
517,4	4901,857
517,8	4843,057
518,3	4782,857
518,7	4723,743
519,2	4666,657
519,6	4619,429
520,1	4572,629
520,5	4516,829
521	4472,543
521,4	4422,971
521,9	4372,6
522,3	4323,657
522,8	4265,857
523,2	4212,743
523,7	4162,229
524,1	4113,171
524,6	4063,6
525	4012,886
525,5	3963,257
525,9	3924,6
526,4	3876,229
526,8	3829,057
527,3	3780,971
527,7	3740,657
528,2	3701,857
528,6	3661,543
529,1	3611,457
529,5	3567,571
530	3529,429
530,4	3492,086
530,9	3445,714
531,3	3403,371
531,8	3358,286
532,2	3329,229
532,6	3294,343
533,1	3260,029
533,5	3218,486
534	3179,057
534,4	3141,457
534,9	3115,171
535,3	3079,229
535,8	3044,514
536,2	3006,714
536,7	2977,514
537,1	2947,8
537,6	2918,057
538	2876,657
538,5	2843,029
538,9	2807,343
539,4	2768,2
539,8	2735,143
540,3	2701,457
540,7	2669,057
541,2	2648
541,6	2618,171
542,1	2591,286
542,5	2566,657
543	2538,314
543,4	2519,171
543,9	2496,057
544,3	2466,2
544,8	2434,714
545,2	2416,171
545,7	2391,714
546,1	2365,943
546,5	2337,114
547	2312,657
547,4	2286,971
547,9	2265,657
548,3	2239,743
548,8	2217,171
549,2	2194,371
549,7	2171,171
550,1	2144,4
550,6	2126,829
551	2107,257
551,5	2082,371
551,9	2063,743
552,4	2044,686
552,8	2030,8
553,3	2006,886
553,7	1989,457
554,2	1970,143
554,6	1954,714
555,1	1932,257
555,5	1914
555,9	1892,286
556,4	1886,229
556,8	1865,914
557,3	1851,857
557,7	1835,429
558,2	1824,829
558,6	1808,743
559,1	1793,857
559,5	1776,029
560	1760,086
560,4	1746,971
560,9	1735,314
561,3	1718,571
561,8	1705,257
562,2	1689,971
562,7	1681
563,1	1668,029
563,6	1659,743
564	1648,171
564,4	1632,6
564,9	1620,286
565,3	1614,514
565,8	1600,886
566,2	1585,343
566,7	1559,8
567,1	1540,743
567,6	1528,514
568	1514,629
568,5	1500,886
568,9	1482,514
569,4	1474,114
569,8	1469,4
570,3	1461,857
570,7	1456,857
571,1	1450,429
571,6	1441,114
572	1432,429
572,5	1422,086
572,9	1411,629
573,4	1394,971
573,8	1381,086
574,3	1366,829
574,7	1356,514
575,2	1348,771
575,6	1339,743
576,1	1330,4
576,5	1327,6
576,9	1315,114
577,4	1305,743
577,8	1296
578,3	1288,571
578,7	1275,4
579,2	1267,486
579,6	1261,829
580,1	1262,429
580,5	1257,714
581	1246,086
581,4	1235,029
581,9	1232,114
582,3	1220,8
582,7	1211,114
583,2	1191,829
583,6	1176,943
584,1	1172,257
584,5	1165,057
585	1158,829
585,4	1152,771
585,9	1141,714
586,3	1141,857
586,8	1142
587,2	1130,457
587,6	1120,657
588,1	1112,914
588,5	1103,257
589	1094,2
589,4	1085,714
589,9	1077
590,3	1074,657
590,8	1065,514
591,2	1056,029
591,7	1051,686
592,1	1048,2
592,5	1039,457
593	1026,314
593,4	1018,6
593,9	1018,2
594,3	1011,743
594,8	1004,629
595,2	1000,429
595,7	995,629
596,1	991,114
596,6	980,829
597	974,171
597,4	966,829
597,9	965,143
598,3	956,429
598,8	952,543
599,2	952,714
599,7	954,371
600,1	943,829
600,6	941,029
601	937,771
601,4	935,971
601,9	934,257
602,3	928,057
602,8	920,8
603,2	916,829
603,7	911,914
604,1	901,857
604,6	894,143
605	888,486
605,4	884,629
605,9	882,029
606,3	881,2
606,8	879,657
607,2	878,4
607,7	874,514
608,1	869,6
608,6	867,143
609	860,257
609,4	855,057
609,9	854,771
610,3	847,429
610,8	843,886
611,2	836,514
611,7	827,886
612,1	821,886
612,6	821,343
613	810,914
613,4	805
613,9	798,171
614,3	793,971
614,8	790,2
615,2	788,371
615,7	779,914
616,1	772,086
616,6	769,314
617	767,914
617,4	758,771
617,9	758,457
618,3	749,229
618,8	747,286
619,2	742,914
619,7	737,371
620,1	730,714
620,5	725,371
621	714,2
621,4	712,8
621,9	707,6
622,3	701,171
622,8	699,429
623,2	695,343
623,6	697,371
624,1	689,514
624,5	688,571
625	687,114
625,4	684,657
625,9	671,571
626,3	669,514
626,8	668,829
627,2	673,771
627,6	668,2
628,1	655,629
628,5	656,171
629	664,029
629,4	659,914
629,9	654,2
630,3	645,6
630,7	636,6
631,2	636,6
631,6	624,057
632,1	619,286
632,5	613,629
633	609,771
633,4	612,857
633,8	613,6
634,3	607,771
634,7	611,286
635,2	602,286
635,6	595,457
636,1	587,257
636,5	576,343
636,9	567,971
637,4	564,229
637,8	556,429
638,3	550,114
638,7	548,629
639,2	542,371
639,6	543,629
640	543,6
640,5	543,057
640,9	543,486
641,4	544,6
641,8	542,829
642,2	548,514
642,7	539,371
643,1	535,457
643,6	529,257
644	524,171
644,5	522,457
644,9	517,743
645,3	515,257
645,8	512,314
646,2	506,943
646,7	505,886
647,1	508,486
647,6	501,686
648	496,686
648,4	491,057
648,9	492,429
649,3	493,429
649,8	485,514
650,2	483,486
650,6	481,943
651,1	485,314
651,5	480,029
652	480,314
652,4	478,029
652,9	480,457
653,3	469,029
653,7	467,4
654,2	458,971
654,6	454,829
655,1	444,371
655,5	435,6
655,9	431,514
656,4	431,743
656,8	428,743
657,3	427,857
657,7	424,429
658,2	424,829
658,6	429,686
659	427,971
659,5	423,6
659,9	424,343
660,4	423,057
660,8	424,429
661,2	420,6
661,7	413,629
662,1	414,886
662,6	409,371
663	400,2
663,4	396,886
663,9	395,914
664,3	399,914
664,8	399,229
665,2	393,457
665,6	394,629
666,1	401,086
666,5	399,2
667	390,543
667,4	381,857
667,9	374,486
668,3	374,143
668,7	372,486
669,2	365,029
669,6	365,114
670,1	365,971
670,5	360,171
670,9	361,943
671,4	357,8
671,8	354,629
672,3	349,4
672,7	344,457
673,1	341,086
673,6	341,571
674	337,2
674,5	335,029
674,9	333,143
675,3	334,857
675,8	330,029
676,2	328,914
676,7	329,114
677,1	326,971
677,5	318,771
678	317,629
678,4	317,286
678,9	319,257
679,3	317
679,7	313,429
680,2	313,914
680,6	317,743
681,1	317,543
681,5	311,229
681,9	310,143
682,4	306,886
682,8	308,057
683,3	305,143
683,7	305,429
684,1	298,971
684,6	295,543
685	289,286
685,5	290,229
685,9	280,886
686,3	274,429
686,8	268,086
687,2	272,086
687,7	270,171
688,1	270,971
688,5	265,257
689	269,2
689,4	268,371
689,9	265,286
690,3	253,457
690,7	253,857
691,2	252,514
691,6	252,6
692	249,086
692,5	249,029
692,9	248,229
693,4	254,857
693,8	250,971
694,2	247,314
694,7	242,857
695,1	237,086
695,6	239
696	238,686
696,4	234,371
696,9	236,057
697,3	231,171
697,8	238,086
698,2	235,686
698,6	236,143
699,1	235,171
699,5	235,686
699,9	232,657
700,4	233,029
700,8	227
701,3	232,343
701,7	225,314
702,1	219,343
702,6	214,943
703	212,2
703,5	211,229
703,9	209,657
704,3	205,229
704,8	204
705,2	202,686
705,6	201,743
706,1	199,714
706,5	195,657
707	193,086
707,4	195,657
707,8	194,171
708,3	197,886
708,7	198,171
709,2	193,629
709,6	198,686
710	198,229
710,5	195,171
710,9	193
711,3	190,286
711,8	189,143
712,2	195,829
712,7	191,629
713,1	192,2
713,5	189,6
714	192,4
714,4	195,629
714,8	190,429
715,3	187,743
715,7	183,629
716,2	178,943
716,6	177,886
717	172,543
717,5	164,857
717,9	167,343
718,3	162,314
718,8	164,029
719,2	158,714
719,7	159,2
720,1	160,314
720,5	159,2
721	155,457
721,4	159,343
721,8	156,086
722,3	159,057
722,7	155,114
723,2	150,2
723,6	148,829
724	149,429
724,5	143,257
724,9	141,543
725,3	139,657
725,8	138,143
726,2	138,686
726,7	139,543
727,1	137,543
727,5	137,514
728	135,771
728,4	137,943
728,8	132,171
729,3	133,714
729,7	132
730,1	132,657
730,6	130,714
731	131,257
731,5	130,914
731,9	133,8
732,3	128,371
732,8	126,257
733,2	123,686
733,6	126,657
734,1	128,057
734,5	123,057
734,9	125,086
735,4	121,771
735,8	123,086
736,3	122,857
736,7	123,486
737,1	124,971
737,6	126,714
738	125,571
738,4	132,629
738,9	134,543
739,3	130,086
739,7	132,771
740,2	129,143
740,6	127,857
741,1	125,829
741,5	120,771
741,9	114,143
742,4	117,714
742,8	107,943
743,2	105,114
743,7	105,286
744,1	107,143
744,5	110,171
745	113,486
745,4	109
745,8	114,229
746,3	116,343
746,7	116
747,2	109,943
747,6	109,514
748	103,086
748,5	101,8
748,9	101,6
749,3	101,886
749,8	100,714
750,2	102,029
750,6	100,943
751,1	104,429
751,5	108,686
751,9	105,171
752,4	99,914
752,8	92
753,3	92,286
753,7	91,114
754,1	91,8
754,6	89,286
755	88,714
755,4	87,6
755,9	95,143
756,3	96,857
756,7	95,6
757,2	95,657
757,6	96,543
758	95,657
758,5	100,686
758,9	98,714
759,3	95,686
759,8	96,371
760,2	94,686
760,6	91,971
761,1	86,743
761,5	88,343
761,9	86,629
762,4	82,857
762,8	83,686
763,3	85,057
763,7	78,371
764,1	80,6
764,6	74,114
765	76,829
765,4	76,6
765,9	67,257
766,3	64,543
766,7	74,943
767,2	74,343
767,6	78,429
768	76,829
768,5	81,429
768,9	83,486
769,3	83,686
769,8	81,114
770,2	79,029
770,6	69,914
771,1	67,971
771,5	65,914
771,9	68,657
772,4	65,486
772,8	62,914
773,2	64,714
773,7	74,457
774,1	70,714
774,5	72,086
775	70,8
775,4	73,543
775,8	77
776,3	81
776,7	76,6
777,1	77,8
777,6	74,971
778	76,086
778,4	72,143
778,9	70,057
779,3	64,629
779,7	63,343
780,2	66,543
780,6	63,543
781	63
781,5	65,429
781,9	63,629
782,3	66,6
782,8	68
783,2	71,029
783,6	79,514
784,1	73
784,5	68
784,9	64,6
785,4	60,171
785,8	57,8
786,2	50,771
786,7	45,629
787,1	48,714
787,5	53,429
788	57,429
788,4	57,714
788,8	58,514
789,3	59,571
789,7	61,086
790,1	61,743
790,6	59,771
791	58,8
791,4	57,886
791,9	59,286
792,3	59,514
792,7	63,343
793,2	65,429
793,6	67,657
794	67,8
794,5	71,543
794,9	69,6
795,3	67,286
795,8	62,6
796,2	60,514
796,6	59,486
797,1	64
797,5	62,8
797,9	61,857
798,4	59,486
798,8	58,771
799,2	59,543
799,7	58,971
800,1	56,257
800,5	54,314
801	54,743
801,4	57,229
801,8	54
802,2	51,943
802,7	52,857
803,1	50,971
803,5	52,2
804	54,114
804,4	52,4
804,8	54,743
805,3	56,629
805,7	52,143
806,1	47,429
806,6	44,286
807	40,857
807,4	44,8
807,9	40,371
808,3	36,571
808,7	33,4
809,2	35,571
809,6	36,571
810	40,571
810,4	35,114
810,9	36,629
811,3	35,543
811,7	41,4
812,2	42,743
812,6	40,257
813	35,914
813,5	39,257
813,9	42,857
814,3	43,943
814,8	45,171
815,2	44,171
815,6	45,629
816,1	42,886
816,5	43,8
816,9	39,6
817,3	41,343
817,8	37,829
818,2	39,314
818,6	40,714
819,1	42,914
819,5	42,857
819,9	42,4
820,4	40,886
820,8	44,657
821,2	37,657
821,7	36,371
822,1	38,629
822,5	39,229
822,9	42,543
823,4	40,4
823,8	42
824,2	45,229
824,7	42,486
825,1	40,686
825,5	37,314
826	33,171
826,4	37,629
826,8	25,743
827,3	25,286
827,7	27,429
828,1	30,6
828,5	29,829
829	28,543
829,4	28,571
829,8	35,857
830,3	34,314
830,7	30,2
831,1	27,514
831,6	29,657
832	29,229
832,4	24,514
832,8	27,314
833,3	28,229
833,7	31,029
834,1	31,857
834,6	33,914
835	37,771
835,4	45,086
835,8	40,714
836,3	40,543
836,7	40,057
837,1	33,429
837,6	26,171
838	22,743
838,4	13,886
838,9	12,086
839,3	15,771
839,7	16,686
840,1	26,086
840,6	27,4
841	28,829
841,4	30,143
841,9	31,4
842,3	32,486
842,7	34,486
843,1	28,371
843,6	33,086
844	35,4
844,4	36,457
844,9	35,971
845,3	34,314
845,7	32,314
846,2	31,086
846,6	24,914
847	24,314
847,4	22,343
847,9	20,086
848,3	14,886
848,7	13,829
849,2	16,486
849,6	17,6
850	12,914
850,4	19,086
850,9	22,486
851,3	18,6
851,7	19,457
852,2	12,229
852,6	13,886
853	16,714
853,4	9,686
853,9	7,343
854,3	13,657
854,7	12,143
855,2	15,514
855,6	13,314
856	13,286
856,4	15,629
856,9	17,629
857,3	17,743
857,7	17,257
858,2	18,457
858,6	16,114
859	15,486
859,4	14,657
859,9	11,743
860,3	16,429
860,7	19,743
861,1	20,4
861,6	22,8
862	26,257
862,4	28,714
862,9	29,257
863,3	25,6
863,7	23,543
864,1	22,086
864,6	28,543
865	24,4
865,4	22,229
865,9	23,829
866,3	18,486
866,7	18,057
867,1	17,229
867,6	7,057
868	2,743
868,4	4,171
868,8	1,2
869,3	7,6
869,7	7,571
870,1	8,629
870,6	8,971
871	16,343
871,4	15,829
871,8	17,543
872,3	9,943
872,7	6,571
873,1	8,914
873,5	12,829
874	11,914
874,4	16,429
874,8	18,229
875,3	22,114
875,7	22
876,1	18,686
876,5	18,8
877	17,2
877,4	11,971
877,8	9,629
878,2	10,857
878,7	15,486
879,1	14,829
879,5	14,914
879,9	9,486
880,4	11,057
880,8	7,429
881,2	2,857
881,7	0,486
882,1	5,143
882,5	6,229
882,9	8,657
883,4	6,314
883,8	4,229
884,2	10,886
884,6	12,371
885,1	5,486
885,5	4,371
885,9	6,657
886,3	2,286
886,8	7,286
887,2	5,971
887,6	3,8
888	9,057
888,5	10,4
888,9	7,4
889,3	11,314
889,8	11,086
890,2	7,914
890,6	5,486
891	4,686
891,5	-0,829
891,9	1
892,3	-1,4
892,7	-1,057
893,2	1,486
893,6	0,971
894	-2
894,4	1,829
894,9	1,057
895,3	2,571
895,7	6,514
896,1	1,971
896,6	8,086
897	9,686
897,4	5,2
897,8	6,943
898,3	8,514
898,7	2,971
899,1	2,771
899,5	3,086
900	3,943
900,4	8,314
900,8	6,6
901,2	5,486
901,7	9,857
902,1	16,714
902,5	16,886
902,9	15,171
903,4	14,286
903,8	16,971
904,2	17
904,6	14,457
905,1	7,514
905,5	1,657
905,9	4,2
906,3	1,857
906,8	-1,743
907,2	-3,543
907,6	-3,486
908	-0,714
908,5	4,914
908,9	-0,143
909,3	1,571
909,7	4,086
910,2	9,371
910,6	11,457
911	13,229
911,4	13,286
911,9	16,857
912,3	20,6
912,7	18,971
913,1	15,686
913,6	13,771
914	10,686
914,4	9,257
914,8	10,343
915,3	8,8
915,7	12,286
916,1	16,457
916,5	13,943
916,9	17,514
917,4	13,229
917,8	9,229
918,2	7,286
918,6	6,4
919,1	2,657
919,5	0,086
919,9	-0,314
920,3	3,743
920,8	11,2
921,2	13,2
921,6	8,8
922	7,914
922,5	10,486
922,9	8,314
923,3	9,086
923,7	1,143
924,2	-3,286
924,6	0,457
925	2,029
925,4	2,486
925,8	2,886
926,3	-0,2
926,7	9,571
927,1	14,114
927,5	12,743
928	10,114
928,4	11,8
928,8	13,886
929,2	17,914
929,7	12,829
930,1	9,343
930,5	10,543
930,9	16,571
931,3	16,714
931,8	15,4
932,2	11,629
932,6	10,514
933	11,143
933,5	5,829
933,9	-1,657
934,3	-5,629
934,7	-8,743
935,2	-14,057
935,6	-16,829
936	-12,086
936,4	-9,343
936,8	-4,257
937,3	3,629
937,7	2,114
938,1	6,6
938,5	7,286
939	2,771
939,4	8,143
939,8	7,886
940,2	5,143
940,6	7,457
941,1	7,171
941,5	13,857
941,9	10,714
942,3	3,857
942,8	-2,514
943,2	-3,143
943,6	-3,886
944	-7,029
944,4	-17,657
944,9	-17,629
945,3	-19,086
945,7	-11,943
946,1	-16,257
946,6	-9,829
947	-7,886
947,4	-1,914
947,8	1,314
948,2	5,114
948,7	2,514
949,1	5,886
949,5	2,714
949,9	6,971
950,3	9,914
950,8	7,771
951,2	5,143
951,6	6,771
952	7,886
952,5	3,943
952,9	2,6
953,3	-4,429
953,7	-1,4
954,1	6,743
954,6	5,314
955	5,114
955,4	8,743
955,8	5,514
956,2	8,457
956,7	11,114
957,1	5,714
957,5	5,657
957,9	4,914
958,3	3,086
958,8	4,571
959,2	3,829
959,6	-0,371
960	2,657
960,5	-0,829
960,9	-1,914
961,3	-2,714
961,7	-6,571
962,1	-8,429
962,6	-6,543
963	-4,343
963,4	0,543
963,8	4
964,2	2,771
964,7	5,429
965,1	8,429
965,5	3,486
965,9	-3,229
966,3	-3
966,8	-5,943
967,2	-2,029
967,6	1,629
968	0,971
968,4	5,286
968,9	6,171
969,3	7,943
969,7	13,543
970,1	9,971
970,5	8,486
971	4,6
971,4	4,457
971,8	5,914
972,2	2,771
972,6	-5,457
973,1	-2,743
973,5	-0,429
973,9	1,971
974,3	4,714
974,7	3,629
975,2	-0,257
975,6	5,229
976	1,914
976,4	-4,486
976,8	0,257
977,3	-3,314
977,7	-6,886
978,1	-1,514
978,5	-3,914
978,9	-1,657
979,4	0,2
979,8	-1,714
980,2	1
980,6	4,857
981	4,229
981,5	-0,086
981,9	-0,943
982,3	5,971
982,7	0,286
983,1	2,314
983,6	3,371
984	-0,2
984,4	5,371
984,8	8,4
985,2	3,771
985,6	7,829
986,1	3,514
986,5	4,8
986,9	3,371
987,3	5,657
987,7	2,657
988,2	1,257
988,6	3,743
989	6,486
989,4	2,343
989,8	2,371
990,3	1,057
990,7	4,657
991,1	6,029
991,5	6,771
991,9	2,857
992,3	3,686
992,8	4,686
993,2	-2,686
993,6	-7,486
994	-1,629
994,4	-2,486
994,9	-2,229
995,3	2,229
995,7	6,543
996,1	10,886
996,5	11,029
996,9	3,229
997,4	-0,286
997,8	1,686
998,2	-4,4
998,6	-7,286
999	-7,829
999,5	-7,629
999,9	-3,629
1000,3	-4,771
1000,7	-5,629
1001,1	-4,714
1001,5	-4,914
1002	-7,143
1002,4	-8,571
1002,8	-10,886
1003,2	-11
1003,6	-7,4
1004	-9,571
1004,5	-9,371
1004,9	-5,2
1005,3	-2,429
1005,7	-4,429
1006,1	-2,229
1006,6	-7,657
1007	-2,457
1007,4	2,314
1007,8	0,2
1008,2	2,886
1008,6	3,086
1009,1	3,057
1009,5	10,086
1009,9	10,143
1010,3	3,2
1010,7	9,143
1011,1	7,886
1011,6	12,629
1012	13,229
1012,4	7,514
1012,8	5,457
1013,2	4,829
1013,6	2,743
1014,1	1,286
1014,5	-1,829
1014,9	0,057
1015,3	1,486
1015,7	7,314
1016,1	12,514
1016,6	11,457
1017	14,543
1017,4	10,829
1017,8	12,429
1018,2	7,714
1018,6	4,029
1019,1	3,2
1019,5	4,429
1019,9	2,314
1020,3	6,286
1020,7	-1,2
1021,1	0,229
1021,6	1,543
1022	-1,143
1022,4	-5,543
1022,8	-10,114
1023,2	-3,343
1023,6	1,114
1024,1	4,343
1024,5	-3,8
1024,9	-3,686
1025,3	0,657
1025,7	2,486
1026,1	-2,543
1026,6	-6,571
1027	-5,971
1027,4	-2,457
1027,8	-0,971
1028,2	-3,114
1028,6	-0,714
1029	-6,6
1029,5	-10,029
1029,9	-13,971
1030,3	-17,829
1030,7	-15,429
1031,1	-19,543
1031,5	-21,6
1032	-17,2
1032,4	-12
1032,8	-6,657
1033,2	0,629
1033,6	-2,886
1034	3,8
1034,4	1,2
1034,9	1,514
1035,3	6,543
1035,7	3,6
1036,1	4
1036,5	1,829
1036,9	0,2
1037,4	4,286
1037,8	6,143
1038,2	6,543
1038,6	6,429
1039	5,057
1039,4	12,971
1039,8	14,286
1040,3	15,743
1040,7	10,286
1041,1	6,629
1041,5	4,457
1041,9	8
1042,3	4,886
1042,7	1,257
1043,2	5,343
1043,6	4,886
1044	5,057
1044,4	8,743
1044,8	6,686
1045,2	3,886
1045,6	3,971
1046,1	-2,4
1046,5	1
1046,9	2,143
1047,3	-2,343
1047,7	0,429
1048,1	0,314
1048,5	-0,686
1049	2,971
1049,4	4,686
1049,8	0,514
1050,2	4,714
1050,6	1,343
1051	5,971
1051,4	8,171
1051,9	0,914
1052,3	0,714
1052,7	6,2
1053,1	6,343
1053,5	6,4
1053,9	4,429
1054,3	4,6
1054,8	9,286
1055,2	7,657
1055,6	7,343
1056	6,171
1056,4	10,057
1056,8	9,771
1057,2	10,086
1057,6	4,543
1058,1	8,371
1058,5	4,486
1058,9	5,114
1059,3	3,429
1059,7	4,629
1060,1	5,457
1060,5	15,629
1061	13,657
1061,4	12,743
1061,8	14,686
1062,2	12,771
1062,6	10,486
1063	9,257
1063,4	7,657
1063,8	3,857
1064,3	8,514
1064,7	6,943
1065,1	7,229
1065,5	6,943
1065,9	3,143
1066,3	2,286
1066,7	8,429
1067,1	10,571
1067,6	9,543
1068	9,229
1068,4	8,743
1068,8	10,857
1069,2	7,657
1069,6	2,371
1070	-0,6
1070,4	2,457
1070,9	1,086
1071,3	0,629
1071,7	3,829
1072,1	6,086
1072,5	9,857
1072,9	10,657
1073,3	6,629
1073,7	3,457
1074,2	5,057
1074,6	0,429
1075	0,314
1075,4	0,714
1075,8	-1,371
1076,2	3,086
1076,6	5,6
1077	3,914
1077,5	8,229
1077,9	6,943
1078,3	2,6
1078,7	3,943
1079,1	-0,171
1079,5	1,8
1079,9	2,286
1080,3	-3,886
1080,7	-5,143
1081,2	-3,657
1081,6	-4,371
1082	-4,4
1082,4	-8,714
1082,8	-8,343
1083,2	-3,914
1083,6	-3,657
1084	0,257
1084,5	-3,943
1084,9	-3,457
1085,3	-3,286
1085,7	-2,4
1086,1	-0,029
1086,5	-1
1086,9	-3,914
1087,3	0,571
1087,7	-1,714
1088,2	-0,171
1088,6	0,8
1089	0,543
1089,4	-0,171
1089,8	-1,6
1090,2	-4,143
1090,6	-0,629
1091	2,171
1091,4	1,257
1091,9	-2,571
1092,3	2,457
1092,7	-1,857
1093,1	1,8
1093,5	-0,229
1093,9	-0,229
1094,3	0,543
1094,7	3,029
1095,1	3,943
1095,5	8,714
1096	10,629
1096,4	14,029
1096,8	14,457
1097,2	14
1097,6	13,371
1098	11,829
1098,4	13,114
1098,8	8,229
1099,2	5,543
1099,6	4,429
1100,1	6,257
1100,5	6,857
1100,9	5,4
1101,3	1,914
1101,7	1,143
1102,1	1,971
1102,5	0,971
1102,9	1,171
1103,3	-3,429
1103,7	-2,4
1104,2	2,143
1104,6	1,914
1105	4,029
1105,4	2,4
1105,8	-0,257
1106,2	3,343
1106,6	2,171
1107	0,314
1107,4	1,933
1107,8	-1,8
1108,3	-0,05
