Data from Subt2_229.txt Node
Date: Sat Aug 26 18:51:53 MSK 2023
User: vat
Spectrometer: MAYP114033
Trigger mode: 0
Integration Time (sec): 1,000000E0
Scans to average: 5
Electric dark correction enabled: true
Nonlinearity correction enabled: false
Boxcar width: 3
XAxis mode: Wavelengths
Number of Pixels in Spectrum: 2068
>>>>>Begin Spectral Data<<<<<
199,4	-0,017
199,9	5,933
200,4	6,667
200,8	9,105
201,3	8,133
201,8	11,048
202,2	11,448
202,7	14,59
203,2	10,562
203,6	9,19
204,1	6,305
204,6	6,362
205	3,762
205,5	3,219
206	3,419
206,4	3,505
206,9	3,419
207,4	4,648
207,8	4,076
208,3	3,762
208,8	3,933
209,2	2,305
209,7	4,59
210,2	8,219
210,6	6,962
211,1	7,705
211,5	3,733
212	2,39
212,5	4,333
212,9	0,105
213,4	-4,01
213,9	-7,41
214,3	-4,324
214,8	0,39
215,3	-1,124
215,7	-0,01
216,2	3,619
216,7	2,79
217,1	6,19
217,6	6,505
218,1	6,419
218,5	5,476
219	-5,324
219,5	-5,267
219,9	-8,695
220,4	-5,124
220,9	-6,781
221,3	-8,095
221,8	-4,124
222,3	5,762
222,7	4,105
223,2	9,562
223,6	4,762
224,1	3,562
224,6	6,019
225	3,133
225,5	1,905
226	2,105
226,4	4,048
226,9	7,99
227,4	9,362
227,8	5,99
228,3	7,505
228,8	4,648
229,2	6,276
229,7	4,162
230,2	1,276
230,6	4,362
231,1	11,276
231,5	15,248
232	16,619
232,5	14,819
232,9	18,248
233,4	20,562
233,9	17,533
234,3	11,448
234,8	9,019
235,3	7,962
235,7	7,476
236,2	3,276
236,7	5,505
237,1	7,162
237,6	5,933
238,1	4,562
238,5	3,19
239	4,476
239,4	6,705
239,9	4,048
240,4	3,133
240,8	7,476
241,3	5,305
241,8	6,819
242,2	4,448
242,7	1,133
243,2	-0,067
243,6	-0,924
244,1	-0,81
244,6	3,562
245	2,733
245,5	2,99
245,9	1,648
246,4	0,419
246,9	1,419
247,3	1,876
247,8	-0,038
248,3	4,533
248,7	5,248
249,2	11,133
249,7	12,619
250,1	15,533
250,6	9,99
251	11,162
251,5	8,79
252	8,79
252,4	9,876
252,9	5,076
253,4	-0,21
253,8	-0,095
254,3	0,733
254,8	-0,352
255,2	-0,295
255,7	-6,524
256,1	-1,467
256,6	-3,495
257,1	0,79
257,5	-3,524
258	-3,295
258,5	-4,21
258,9	0,276
259,4	-0,695
259,9	3,819
260,3	2,505
260,8	0,619
261,2	-1,324
261,7	-0,781
262,2	-2,495
262,6	-4,295
263,1	0,133
263,6	0,676
264	8,533
264,5	15,248
264,9	15,276
265,4	16,848
265,9	16,105
266,3	13,133
266,8	13,848
267,3	9,705
267,7	4,733
268,2	7,79
268,7	5,19
269,1	7,876
269,6	4,076
270	8,248
270,5	7,219
271	10,905
271,4	11,648
271,9	7,79
272,4	11,19
272,8	14,59
273,3	5,705
273,7	9,162
274,2	9,648
274,7	8,619
275,1	11,39
275,6	9,276
276,1	6,819
276,5	11,733
277	10,79
277,4	8,733
277,9	11,905
278,4	14,79
278,8	12,962
279,3	14,905
279,8	15,19
280,2	14,905
280,7	15,648
281,1	9,933
281,6	9,248
282,1	10,79
282,5	9,876
283	11,105
283,4	10,39
283,9	8,448
284,4	18,362
284,8	18,219
285,3	14,305
285,8	16,619
286,2	13,962
286,7	12,162
287,1	10,848
287,6	2,362
288,1	-1,724
288,5	4,676
289	-2,524
289,5	-4,81
289,9	-2,01
290,4	0,619
290,8	1,619
291,3	5,19
291,8	2,79
292,2	4,333
292,7	9,19
293,1	6,276
293,6	5,99
294,1	5,248
294,5	4,362
295	3,99
295,5	3,905
295,9	1,819
296,4	1,162
296,8	0,933
297,3	1,105
297,8	-0,838
298,2	-2,924
298,7	2,133
299,1	3,962
299,6	1,762
300,1	0,162
300,5	3,162
301	5,676
301,5	13,162
301,9	7,848
302,4	5,762
302,8	11,562
303,3	8,59
303,8	0,819
304,2	-3,838
304,7	-9,295
305,1	-8,181
305,6	-6,181
306,1	-2,638
306,5	2,105
307	8,105
307,4	16,305
307,9	15,476
308,4	15,705
308,8	5,762
309,3	2,933
309,8	0,333
310,2	-0,495
310,7	-9,752
311,1	-12,952
311,6	-12,952
312,1	-6,552
312,5	-4,924
313	-2,438
313,4	-4,952
313,9	5,162
314,4	9,905
314,8	9,076
315,3	11,19
315,7	3,419
316,2	1,876
316,7	2,619
317,1	2,362
317,6	1,905
318	6,533
318,5	5,476
319	10,562
319,4	9,448
319,9	14,476
320,3	12,048
320,8	12,99
321,3	13,619
321,7	17,19
322,2	15,39
322,6	20,505
323,1	17,59
323,6	18,476
324	15,476
324,5	13,048
324,9	13,362
325,4	14,99
325,9	13,333
326,3	13,819
326,8	13,648
327,2	10,648
327,7	8,419
328,2	3,476
328,6	2,448
329,1	-3,038
329,5	-6,495
330	-8,61
330,5	-2,152
330,9	4,99
331,4	6,133
331,8	5,99
332,3	9,79
332,8	14,962
333,2	14,476
333,7	16,59
334,1	13,219
334,6	11,19
335,1	7,248
335,5	7,905
336	4,248
336,4	7,533
336,9	10,162
337,4	10,99
337,8	11,505
338,3	14,162
338,7	15,019
339,2	15,59
339,7	14,876
340,1	7,733
340,6	4,419
341	1,505
341,5	6,619
342	1,305
342,4	1,019
342,9	-0,152
343,3	1,762
343,8	1,905
344,2	6,705
344,7	9,133
345,2	12,019
345,6	8,562
346,1	9,419
346,5	9,533
347	8,533
347,5	7,19
347,9	5,59
348,4	5,505
348,8	6,733
349,3	8,705
349,8	7,333
350,2	11,248
350,7	9,619
351,1	7,705
351,6	14,248
352	23,219
352,5	27,133
353	38,076
353,4	45,933
353,9	59,619
354,3	76,705
354,8	88,848
355,3	112,39
355,7	135,276
356,2	162,276
356,6	194,276
357,1	233,333
357,5	270,819
358	319,419
358,5	362,305
358,9	417,248
359,4	479,419
359,8	549,476
360,3	629,533
360,8	719,362
361,2	820,162
361,7	934,333
362,1	1062,762
362,6	1199,59
363	1345,133
363,5	1501,962
364	1670,419
364,4	1837,333
364,9	2008,762
365,3	2179,162
365,8	2336,333
366,3	2486,99
366,7	2616,562
367,2	2735,133
367,6	2828,105
368,1	2903,562
368,5	2949,333
369	2974,876
369,5	2984,876
369,9	2970,448
370,4	2921,59
370,8	2860,276
371,3	2777,076
371,7	2678,905
372,2	2575,019
372,7	2446,133
373,1	2316,419
373,6	2187,219
374	2059,905
374,5	1922,362
374,9	1793,848
375,4	1663,219
375,9	1543,533
376,3	1421,59
376,8	1303,276
377,2	1196,648
377,7	1098,419
378,2	1005,99
378,6	919,105
379,1	837,248
379,5	773,705
380	715,619
380,4	652,962
380,9	601,59
381,4	550,048
381,8	506,248
382,3	471,876
382,7	435,762
383,2	403,79
383,6	378,162
384,1	352,648
384,6	331,705
385	310,562
385,5	288,162
385,9	265,305
386,4	246,933
386,8	228,276
387,3	209,962
387,7	195,133
388,2	181,533
388,7	170,619
389,1	160,476
389,6	147,19
390	137,562
390,5	132,648
390,9	123,819
391,4	114,248
391,9	104,219
392,3	98,019
392,8	89,99
393,2	81,876
393,7	74,59
394,1	69,505
394,6	65,505
395,1	63,619
395,5	54,333
396	55,59
396,4	53,248
396,9	49,505
397,3	49,105
397,8	49,105
398,2	49,105
398,7	54,79
399,2	52,762
399,6	52,962
400,1	51,448
400,5	42,819
401	40,305
401,4	31,39
401,9	27,305
402,4	25,648
402,8	23,648
403,3	30,419
403,7	28,19
404,2	27,962
404,6	36,105
405,1	35,048
405,5	32,19
406	36,162
406,5	27,705
406,9	35,105
407,4	32,505
407,8	29,648
408,3	33,762
408,7	34,705
409,2	31,619
409,6	37,105
410,1	36,076
410,6	43,533
411	43,39
411,5	42,448
411,9	48,162
412,4	50,733
412,8	51,39
413,3	55,619
413,7	53,362
414,2	55,648
414,7	59,962
415,1	65,248
415,6	67,162
416	70,276
416,5	69,39
416,9	70,819
417,4	73,219
417,8	80,962
418,3	81,276
418,8	83,99
419,2	82,162
419,7	85,419
420,1	90,305
420,6	90,219
421	81,876
421,5	81,105
421,9	78,505
422,4	81,819
422,8	80,476
423,3	78,133
423,8	77,105
424,2	75,79
424,7	73,79
425,1	73,819
425,6	74,762
426	72,648
426,5	72,19
426,9	77,19
427,4	73,762
427,9	67,219
428,3	72,048
428,8	68,59
429,2	66,448
429,7	64,762
430,1	57,505
430,6	61,676
431	66,733
431,5	59,562
431,9	52,648
432,4	55,733
432,8	57,048
433,3	60,133
433,8	59,162
434,2	61,619
434,7	66,19
435,1	73,048
435,6	76,448
436	75,248
436,5	77,333
436,9	72,562
437,4	69,59
437,8	70,419
438,3	68,705
438,8	65,105
439,2	66,876
439,7	66,933
440,1	75,59
440,6	81,39
441	79,076
441,5	82,333
441,9	88,59
442,4	88,876
442,8	90,933
443,3	94,905
443,7	96,419
444,2	104,533
444,7	107,276
445,1	109,59
445,6	113,79
446	112,619
446,5	107,648
446,9	102,39
447,4	102,019
447,8	106,533
448,3	108,962
448,7	108,848
449,2	119,048
449,6	131,39
450,1	140,19
450,6	146,819
451	150,676
451,5	155,162
451,9	167,933
452,4	174,105
452,8	172,733
453,3	181,819
453,7	180,676
454,2	189,076
454,6	192,505
455,1	194,19
455,5	193,505
456	202,105
456,4	200,933
456,9	208,676
457,3	213,19
457,8	214,962
458,3	220,219
458,7	220,705
459,2	226,305
459,6	234,562
460,1	245,676
460,5	246,219
461	257,505
461,4	258,705
461,9	269,59
462,3	275,562
462,8	284,59
463,2	286,933
463,7	300,876
464,1	309,39
464,6	324,248
465	335,505
465,5	342,733
466	349,876
466,4	359,762
466,9	365,276
467,3	371,905
467,8	377,076
468,2	383,562
468,7	393,905
469,1	403,019
469,6	409,276
470	415,419
470,5	426,562
470,9	433,248
471,4	443,762
471,8	450,819
472,3	459,933
472,7	472,876
473,2	475,648
473,6	476,419
474,1	488,848
474,5	496,133
475	501,533
475,4	505,476
475,9	508,19
476,4	519,562
476,8	528,819
477,3	529,562
477,7	535,076
478,2	543,133
478,6	546,505
479,1	548,419
479,5	555,248
480	560,19
480,4	572,79
480,9	577,962
481,3	579,962
481,8	587,162
482,2	589,219
482,7	591,733
483,1	596,476
483,6	590,162
484	588,019
484,5	595,133
484,9	593,99
485,4	604,076
485,8	602,962
486,3	604,905
486,7	613,39
487,2	621,019
487,6	616,99
488,1	620,676
488,5	610,276
489	613,733
489,4	615,19
489,9	612,933
490,4	611,39
490,8	615,848
491,3	619,305
491,7	626,476
492,2	627,648
492,6	627,505
493,1	629,905
493,5	623,276
494	617,333
494,4	611,533
494,9	613,333
495,3	613,105
495,8	611,105
496,2	609,819
496,7	607,99
497,1	607,733
497,6	607,733
498	604,619
498,5	600,819
498,9	595,19
499,4	592,819
499,8	598,505
500,3	599,705
500,7	595,019
501,2	586,476
501,6	583,39
502,1	578,876
502,5	569,562
503	563,848
503,4	554,619
503,9	548,905
504,3	548,048
504,8	544,419
505,2	542,362
505,7	540,933
506,1	538,733
506,6	533,248
507	530,619
507,5	525,362
507,9	517,848
508,4	510,99
508,8	504,105
509,3	489,562
509,7	487,105
510,2	487,676
510,6	483,648
511,1	475,876
511,5	474,19
512	467,505
512,4	467,362
512,9	460,248
513,3	450,876
513,8	443,562
514,2	440,848
514,7	432,362
515,1	426,533
515,6	420,562
516	412,419
516,5	408,048
516,9	404,848
517,4	402,048
517,8	399,819
518,3	398,99
518,7	394,133
519,2	394,248
519,6	387,648
520,1	380,39
520,5	375,79
521	369,19
521,4	363,248
521,9	358,333
522,3	353,505
522,8	346,962
523,2	345,99
523,7	338,79
524,1	333,676
524,6	329,305
525	324,333
525,5	315,333
525,9	311,676
526,4	302,276
526,8	298,99
527,3	293,905
527,7	293,133
528,2	291,333
528,6	288,848
529,1	286,533
529,5	287,248
530	280,819
530,4	280,648
530,9	277,305
531,3	272,333
531,8	272,962
532,2	270,162
532,6	265,133
533,1	262,676
533,5	258,933
534	251,876
534,4	247,962
534,9	244,105
535,3	240,533
535,8	235,99
536,2	235,476
536,7	231,362
537,1	229,162
537,6	224,59
538	221,476
538,5	220,19
538,9	215,505
539,4	213,848
539,8	211,505
540,3	209,59
540,7	208,019
541,2	201,019
541,6	197,305
542,1	199,819
542,5	198,362
543	193,59
543,4	186,705
543,9	189,048
544,3	195,133
544,8	189,19
545,2	185,905
545,7	186,105
546,1	191,333
546,5	195,448
547	189,39
547,4	183,248
547,9	184,419
548,3	182,619
548,8	177,019
549,2	166,819
549,7	163,905
550,1	170,305
550,6	170,305
551	167,505
551,5	166,19
551,9	162,648
552,4	166,162
552,8	163,19
553,3	153,048
553,7	146,962
554,2	147,533
554,6	148,705
555,1	152,533
555,5	147,876
555,9	149,905
556,4	148,076
556,8	149,076
557,3	148,705
557,7	145,962
558,2	140,533
558,6	142,819
559,1	138,19
559,5	135,39
560	132,248
560,4	131,562
560,9	128,419
561,3	127,733
561,8	125,905
562,2	124,333
562,7	125,133
563,1	128,419
563,6	124,562
564	124,876
564,4	124,105
564,9	124,419
565,3	126,362
565,8	127,133
566,2	127,676
566,7	127,39
567,1	130,048
567,6	130,019
568	127,99
568,5	125,476
568,9	123,133
569,4	122,962
569,8	125,162
570,3	121,419
570,7	118,819
571,1	117,619
571,6	121,962
572	125,905
572,5	124,019
572,9	121,476
573,4	120,819
573,8	123,419
574,3	121,419
574,7	116,733
575,2	113,305
575,6	106,105
576,1	108,419
576,5	109,219
576,9	103,076
577,4	103,733
577,8	98,448
578,3	99,99
578,7	102,905
579,2	107,219
579,6	101,905
580,1	105,133
580,5	102,676
581	107,933
581,4	105,59
581,9	107,562
582,3	97,648
582,7	101,19
583,2	101,419
583,6	104,505
584,1	104,19
584,5	104,762
585	101,333
585,4	95,39
585,9	95,848
586,3	95,619
586,8	94,048
587,2	89,676
587,6	91,676
588,1	95,419
588,5	101,105
589	103,848
589,4	100,876
589,9	101,333
590,3	101,305
590,8	96,905
591,2	95,99
591,7	101,533
592,1	99,448
592,5	103,59
593	100,819
593,4	102,333
593,9	101,019
594,3	94,876
594,8	88,79
595,2	83,333
595,7	79,79
596,1	77,619
596,6	80,019
597	80,39
597,4	84,505
597,9	87,39
598,3	86,505
598,8	90,905
599,2	95,305
599,7	95,39
600,1	91,819
600,6	91,905
601	88,648
601,4	94,848
601,9	88,819
602,3	84,419
602,8	79,99
603,2	82,476
603,7	87,505
604,1	84,848
604,6	80,048
605	79,105
605,4	83,962
605,9	79,305
606,3	76,99
606,8	68,505
607,2	67,619
607,7	62,933
608,1	62,248
608,6	60,048
609	66,762
609,4	75,276
609,9	74,733
610,3	80,505
610,8	83,848
611,2	85,39
611,7	83,419
612,1	79,162
612,6	74,276
613	76,076
613,4	72,762
613,9	73,505
614,3	69,219
614,8	73,505
615,2	72,19
615,7	71,962
616,1	76,962
616,6	74,476
617	72,105
617,4	76,419
617,9	77,562
618,3	81,505
618,8	81,905
619,2	75,19
619,7	78,562
620,1	80,99
620,5	83,333
621	78,533
621,4	79,819
621,9	78,505
622,3	78,79
622,8	75,676
623,2	76,419
623,6	74,448
624,1	75,876
624,5	70,79
625	73,276
625,4	72,99
625,9	75,248
626,3	74,333
626,8	69,848
627,2	70,162
627,6	67,105
628,1	62,905
628,5	66,99
629	62,905
629,4	62,733
629,9	61,848
630,3	58,505
630,7	60,79
631,2	63,019
631,6	58,048
632,1	61,676
632,5	60,733
633	64,705
633,4	67,048
633,8	66,933
634,3	65,705
634,7	67,962
635,2	58,162
635,6	54,105
636,1	51,476
636,5	47,276
636,9	44,562
637,4	44,562
637,8	41,848
638,3	48,105
638,7	49,219
639,2	47,19
639,6	48,133
640	50,562
640,5	53,676
640,9	54,505
641,4	54,79
641,8	56,79
642,2	57,933
642,7	62,933
643,1	67,448
643,6	62,933
644	61,648
644,5	60,819
644,9	60,162
645,3	61,562
645,8	53,562
646,2	49,819
646,7	52,39
647,1	50,762
647,6	51,59
648	53,162
648,4	49,333
648,9	55,219
649,3	54,648
649,8	52,162
650,2	50,133
650,6	48,848
651,1	46,362
651,5	50,19
652	48,476
652,4	45,762
652,9	45,39
653,3	49,733
653,7	49,533
654,2	47,333
654,6	46,762
655,1	47,619
655,5	54,533
655,9	57,505
656,4	58,876
656,8	60,048
657,3	64,448
657,7	66,19
658,2	64,162
658,6	61,19
659	55,99
659,5	53,162
659,9	54,505
660,4	54,848
660,8	51,419
661,2	48,876
661,7	50,105
662,1	51,133
662,6	51,59
663	49,248
663,4	46,076
663,9	47,333
664,3	49,819
664,8	44,076
665,2	41,905
665,6	37,933
666,1	39,933
666,5	42,333
667	40,619
667,4	36,962
667,9	40,162
668,3	43,248
668,7	44,79
669,2	43,59
669,6	40,933
670,1	43,819
670,5	40,962
670,9	38,362
671,4	36,248
671,8	40,105
672,3	41,619
672,7	45,362
673,1	39,19
673,6	42,105
674	45,848
674,5	41,905
674,9	35,39
675,3	32,276
675,8	27,933
676,2	32,762
676,7	32,533
677,1	30,162
677,5	32,676
678	36,876
678,4	40,705
678,9	41,762
679,3	41,133
679,7	44,248
680,2	39,619
680,6	40,048
681,1	37,59
681,5	33,733
681,9	35,676
682,4	37,219
682,8	39,219
683,3	44,219
683,7	47,762
684,1	53,219
684,6	53,133
685	48,933
685,5	46,419
685,9	38,705
686,3	33,476
686,8	28,648
687,2	27,562
687,7	23,019
688,1	23,105
688,5	23,79
689	31,676
689,4	34,333
689,9	34,848
690,3	29,848
690,7	36,419
691,2	43,105
691,6	41,648
692	36,048
692,5	39,619
692,9	40,105
693,4	37,905
693,8	37,733
694,2	31,162
694,7	31,419
695,1	28,333
695,6	25,019
696	26,248
696,4	30,619
696,9	23,848
697,3	22,733
697,8	21,819
698,2	22,219
698,6	23,648
699,1	22,476
699,5	23,848
699,9	26,048
700,4	22,733
700,8	27,705
701,3	32,562
701,7	30,333
702,1	30,305
702,6	28,133
703	32,905
703,5	36,476
703,9	28,962
704,3	30,99
704,8	32,105
705,2	29,933
705,6	30,705
706,1	28,59
706,5	28,905
707	32,676
707,4	31,79
707,8	29,905
708,3	33,933
708,7	32,448
709,2	31,505
709,6	28,905
710	34,676
710,5	28,876
710,9	30,505
711,3	27,733
711,8	32,99
712,2	34,276
712,7	36,962
713,1	31,419
713,5	35,19
714	36,99
714,4	36,676
714,8	33,733
715,3	29,276
715,7	30,933
716,2	26,505
716,6	26,39
717	23,219
717,5	25,705
717,9	26,448
718,3	30,505
718,8	31,048
719,2	35,362
719,7	29,676
720,1	30,276
720,5	34,133
721	28,105
721,4	29,19
721,8	30,733
722,3	27,819
722,7	35,505
723,2	33,762
723,6	22,362
724	26,733
724,5	22,362
724,9	16,59
725,3	17,562
725,8	11,99
726,2	11,933
726,7	15,505
727,1	15,019
727,5	16,076
728	15,448
728,4	16,933
728,8	17,276
729,3	18,848
729,7	16,619
730,1	15,876
730,6	19,39
731	20,676
731,5	21,105
731,9	18,99
732,3	16,676
732,8	20,876
733,2	20,505
733,6	16,705
734,1	18,019
734,5	14,476
734,9	19,505
735,4	22,848
735,8	20,305
736,3	24,248
736,7	22,19
737,1	23,448
737,6	26,105
738	24,19
738,4	23,962
738,9	24,99
739,3	19,333
739,7	25,819
740,2	22,676
740,6	23,562
741,1	24,305
741,5	19,19
741,9	19,848
742,4	23,248
742,8	18,248
743,2	20,533
743,7	14,79
744,1	11,533
744,5	12,305
745	8,219
745,4	2,105
745,8	0,99
746,3	1,79
746,7	0,305
747,2	5,362
747,6	10,905
748	15,39
748,5	21,676
748,9	23,648
749,3	22,933
749,8	30,133
750,2	24,505
750,6	18,276
751,1	18,733
751,5	15,705
751,9	15,076
752,4	13,733
752,8	10,276
753,3	11,876
753,7	19,048
754,1	14,076
754,6	14,79
755	16,019
755,4	13,305
755,9	13,762
756,3	15,162
756,7	13,019
757,2	20,162
757,6	21,39
758	20,905
758,5	23,162
758,9	22,019
759,3	21,505
759,8	19,619
760,2	17,419
760,6	18,505
761,1	15,333
761,5	15,905
761,9	15,333
762,4	13,019
762,8	11,99
763,3	9,276
763,7	5,419
764,1	11,248
764,6	12,333
765	16,819
765,4	19,733
765,9	20,79
766,3	23,162
766,7	20,705
767,2	14,876
767,6	15,533
768	18,019
768,5	17,133
768,9	18,133
769,3	17,876
769,8	22,733
770,2	26,162
770,6	24,533
771,1	21,248
771,5	20,619
771,9	23,333
772,4	22,333
772,8	22,419
773,2	20,905
773,7	21,133
774,1	22,705
774,5	18,076
775	15,076
775,4	16,105
775,8	10,362
776,3	12,362
776,7	13,419
777,1	11,133
777,6	15,733
778	16,79
778,4	15,476
778,9	21,048
779,3	20,305
779,7	19,048
780,2	20,219
780,6	18,59
781	14,848
781,5	16,876
781,9	18,59
782,3	18,076
782,8	19,619
783,2	16,533
783,6	23,476
784,1	25,076
784,5	20,448
784,9	16,876
785,4	18,276
785,8	17,419
786,2	18,59
786,7	14,133
787,1	11,733
787,5	12,933
788	12,562
788,4	13,39
788,8	11,419
789,3	8,248
789,7	13,676
790,1	16,505
790,6	18,99
791	17,048
791,4	16,99
791,9	13,648
792,3	13,676
792,7	13,99
793,2	10,162
793,6	9,733
794	14,248
794,5	7,848
794,9	12,219
795,3	17,79
795,8	12,448
796,2	17,476
796,6	17,933
797,1	14,848
797,5	17,819
797,9	16,762
798,4	12,79
798,8	13,476
799,2	8,819
799,7	10,362
800,1	11,99
800,5	13,933
801	19,133
801,4	17,476
801,8	13,733
802,2	15,905
802,7	13,276
803,1	15,505
803,5	14,248
804	7,59
804,4	9,076
804,8	15,705
805,3	19,305
805,7	19,39
806,1	14,562
806,6	16,019
807	21,133
807,4	20,333
807,9	13,733
808,3	9,79
808,7	8,105
809,2	11,848
809,6	13,533
810	7,848
810,4	9,962
810,9	9,848
811,3	12,305
811,7	15,419
812,2	15,99
812,6	11,305
813	17,705
813,5	19,59
813,9	21,276
814,3	19,19
814,8	15,105
815,2	8,933
815,6	12,59
816,1	12,419
816,5	8,619
816,9	10,305
817,3	11,419
817,8	18,333
818,2	23,876
818,6	20,105
819,1	15,933
819,5	12,905
819,9	13,276
820,4	14,962
820,8	10,676
821,2	7,476
821,7	9,562
822,1	14,076
822,5	24,448
822,9	19,276
823,4	14,448
823,8	17,676
824,2	20,848
824,7	17,79
825,1	13,419
825,5	2,933
826	4,819
826,4	7,39
826,8	2,19
827,3	3,848
827,7	2,076
828,1	1,305
828,5	7,276
829	6,962
829,4	6,962
829,8	3,99
830,3	-0,381
830,7	1,733
831,1	4,933
831,6	3,648
832	1,476
832,4	0,705
832,8	11,219
833,3	10,276
833,7	11,076
834,1	4,419
834,6	3,762
835	10,448
835,4	12,162
835,8	3,819
836,3	3,248
836,7	-0,352
837,1	3,162
837,6	5,562
838	0,505
838,4	-0,81
838,9	2,876
839,3	4,419
839,7	11,019
840,1	6,248
840,6	3,333
841	2,648
841,4	4,448
841,9	3,562
842,3	5,876
842,7	5,876
843,1	11,39
843,6	15,076
844	17,248
844,4	19,562
844,9	18,448
845,3	18,733
845,7	17,476
846,2	13,848
846,6	9,219
847	10,676
847,4	10,79
847,9	9,848
848,3	9,933
848,7	9,305
849,2	11,133
849,6	11,076
850	12,305
850,4	8,39
850,9	14,105
851,3	13,79
851,7	15,076
852,2	17,305
852,6	22,562
853	19,333
853,4	19,162
853,9	14,676
854,3	12,419
854,7	12,162
855,2	14,733
855,6	10,305
856	10,79
856,4	9,962
856,9	6,476
857,3	7,762
857,7	12,048
858,2	13,676
858,6	12,39
859	15,505
859,4	14,562
859,9	17,676
860,3	15,533
860,7	13,933
861,1	10,048
861,6	10,162
862	8,676
862,4	5,533
862,9	7,133
863,3	8,305
863,7	4,276
864,1	7,276
864,6	5,276
865	1,79
865,4	7,39
865,9	9,505
866,3	4,79
866,7	4,362
867,1	-1,124
867,6	8,105
868	9,162
868,4	7,505
868,8	5,162
869,3	8,448
869,7	10,933
870,1	9,59
870,6	3,705
871	-51,324
871,4	-46,952
871,8	-48,067
872,3	-45,038
872,7	-47,838
873,1	-45,295
873,5	-41,695
874	15,99
874,4	14,619
874,8	14,276
875,3	14,905
875,7	13,505
876,1	14,933
876,5	12,819
877	10,819
877,4	4,676
877,8	10,019
878,2	11,076
878,7	15,105
879,1	15,248
879,5	15,133
879,9	18,448
880,4	23,476
880,8	18,705
881,2	11,848
881,7	7,933
882,1	7,962
882,5	6,733
882,9	2,848
883,4	1,333
883,8	3,162
884,2	8,705
884,6	10,362
885,1	9,79
885,5	9,79
885,9	11,648
886,3	12,962
886,8	9,476
887,2	6,505
887,6	2,733
888	-0,81
888,5	2,705
888,9	-0,152
889,3	-6,838
889,8	-4,381
890,2	-2,552
890,6	-1,01
891	4,876
891,5	0,819
891,9	7,076
892,3	11,733
892,7	12,019
893,2	14,276
893,6	16,733
894	14,99
894,4	12,705
894,9	9,59
895,3	9,676
895,7	11,362
896,1	8,048
896,6	8,962
897	8,79
897,4	15,419
897,8	16,562
898,3	19,048
898,7	14,79
899,1	15,933
899,5	15,162
900	6,562
900,4	5,362
900,8	2,076
901,2	-2,924
901,7	-5,01
902,1	-4,495
902,5	-4,381
902,9	-0,41
903,4	1,39
903,8	3,19
904,2	8,476
904,6	11,448
905,1	9,162
905,5	11,133
905,9	15,705
906,3	13,162
906,8	10,705
907,2	7,505
907,6	6,819
908	11,333
908,5	7,219
908,9	3,99
909,3	2,39
909,7	2,533
910,2	2,362
910,6	6,762
911	1,533
911,4	4,333
911,9	4,933
912,3	3,419
912,7	6,419
913,1	10,476
913,6	5,733
914	6,905
914,4	6,619
914,8	7,39
915,3	6,876
915,7	6,333
916,1	4,905
916,5	7,905
916,9	9,59
917,4	7,39
917,8	7,533
918,2	6,105
918,6	1,59
919,1	1,362
919,5	-0,467
919,9	-0,724
920,3	0,448
920,8	1,733
921,2	10,219
921,6	13,448
922	13,562
922,5	12,19
922,9	10,99
923,3	9,676
923,7	4,362
924,2	-1,324
924,6	-1,867
925	-4,467
925,4	-3,895
925,8	-3,838
926,3	-5,181
926,7	-6,01
927,1	-3,21
927,5	0,562
928	3,048
928,4	0,933
928,8	6,048
929,2	8,533
929,7	11,676
930,1	8,019
930,5	6,19
930,9	8,648
931,3	10,762
931,8	8,333
932,2	7,448
932,6	7,99
933	4,362
933,5	2,905
933,9	1,848
934,3	3,79
934,7	-0,181
935,2	2,648
935,6	4,533
936	10,39
936,4	11,619
936,8	10,476
937,3	8,876
937,7	12,276
938,1	13,819
938,5	8,59
939	5,562
939,4	6,162
939,8	5,19
940,2	8,762
940,6	9,162
941,1	5,59
941,5	14,619
941,9	14,048
942,3	9,733
942,8	13,276
943,2	13,019
943,6	11,476
944	14,419
944,4	11,048
944,9	10,19
945,3	11,105
945,7	3,133
946,1	-3,81
946,6	-8,924
947	-10,495
947,4	-9,01
947,8	-6,895
948,2	-10,495
948,7	-9,152
949,1	-5,438
949,5	1,476
949,9	2,276
950,3	2,105
950,8	1,219
951,2	7,676
951,6	9,619
952	11,648
952,5	6,876
952,9	4,619
953,3	2,648
953,7	2,333
954,1	4,79
954,6	6,419
955	9,762
955,4	9,705
955,8	13,362
956,2	10,219
956,7	11,562
957,1	6,819
957,5	5,676
957,9	2,648
958,3	2,819
958,8	3,59
959,2	9,362
959,6	14,105
960	11,733
960,5	13,505
960,9	14,19
961,3	13,79
961,7	9,419
962,1	4,105
962,6	3,19
963	7,276
963,4	4,333
963,8	3,448
964,2	8,133
964,7	10,848
965,1	15,248
965,5	9,705
965,9	9,105
966,3	13,019
966,8	12,819
967,2	11,105
967,6	5,99
968	3,19
968,4	6,705
968,9	6,019
969,3	7,305
969,7	2,019
970,1	2,905
970,5	4,39
971	9,248
971,4	6,59
971,8	9,19
972,2	7,59
972,6	11,59
973,1	11,219
973,5	15,99
973,9	15,562
974,3	16,933
974,7	19,019
975,2	20,333
975,6	19,876
976	20,819
976,4	15,762
976,8	10,99
977,3	13,19
977,7	8,048
978,1	4,848
978,5	-0,124
978,9	-2,667
979,4	-5,467
979,8	-5,21
980,2	-9,724
980,6	-10,924
981	-7,61
981,5	-5,21
981,9	-5,724
982,3	0,076
982,7	2,105
983,1	4,705
983,6	7,305
984	6,905
984,4	7,333
984,8	6,59
985,2	4,99
985,6	0,305
986,1	3,133
986,5	2,819
986,9	-3,81
987,3	0,162
987,7	-0,524
988,2	-2,324
988,6	-0,438
989	-5,324
989,4	-4,324
989,8	-0,352
990,3	-1,181
990,7	0,819
991,1	3,305
991,5	6,248
991,9	10,333
992,3	11,962
992,8	12,533
993,2	9,533
993,6	12,276
994	13,476
994,4	12,248
994,9	12,733
995,3	9,533
995,7	7,333
996,1	5,533
996,5	5,048
996,9	2,676
997,4	4,876
997,8	-1,838
998,2	-1,81
998,6	-6,495
999	-0,41
999,5	-3,838
999,9	-4,952
1000,3	-8,095
1000,7	-1,381
1001,1	-2,01
1001,5	6,219
1002	10,105
1002,4	9,048
1002,8	10,048
1003,2	14,162
1003,6	14,39
1004	15,648
1004,5	8,305
1004,9	4,848
1005,3	6,533
1005,7	5,505
1006,1	4,219
1006,6	1,99
1007	3,648
1007,4	5,533
1007,8	5,962
1008,2	2,676
1008,6	4,705
1009,1	1,962
1009,5	3,162
1009,9	4,905
1010,3	7,105
1010,7	6,59
1011,1	7,076
1011,6	9,705
1012	14,876
1012,4	14,076
1012,8	9,648
1013,2	13,076
1013,6	14,476
1014,1	17,219
1014,5	16,533
1014,9	12,162
1015,3	10,133
1015,7	9,219
1016,1	7,048
1016,6	4,105
1017	5,048
1017,4	4,733
1017,8	7,619
1018,2	14,276
1018,6	10,676
1019,1	12,476
1019,5	11,733
1019,9	7,533
1020,3	8,848
1020,7	7,276
1021,1	4,448
1021,6	9,848
1022	7,705
1022,4	9,505
1022,8	14,476
1023,2	13,619
1023,6	15,276
1024,1	19,819
1024,5	24,648
1024,9	21,59
1025,3	24,933
1025,7	24,762
1026,1	24,19
1026,6	19,133
1027	13,048
1027,4	7,19
1027,8	7,048
1028,2	1,248
1028,6	3,019
1029	-0,01
1029,5	7,162
1029,9	5,305
1030,3	10,219
1030,7	12,676
1031,1	13,933
1031,5	9,933
1032	13,162
1032,4	10,276
1032,8	12,905
1033,2	13,962
1033,6	16,076
1034	14,333
1034,4	13,505
1034,9	13,362
1035,3	8,133
1035,7	6,905
1036,1	1,905
1036,5	-1,81
1036,9	-2,124
1037,4	3,533
1037,8	-4,21
1038,2	-0,924
1038,6	-1,438
1039	2,648
1039,4	7,105
1039,8	7,276
1040,3	4,39
1040,7	6,533
1041,1	7,19
1041,5	8,19
1041,9	1,362
1042,3	0,762
1042,7	1,648
1043,2	0,39
1043,6	4,048
1044	6,019
1044,4	6,305
1044,8	7,962
1045,2	5,848
1045,6	4,133
1046,1	3,762
1046,5	1,962
1046,9	-1,324
1047,3	-0,152
1047,7	2,39
1048,1	0,99
1048,5	-0,181
1049	2,505
1049,4	7,248
1049,8	6,248
1050,2	5,105
1050,6	5,733
1051	7,79
1051,4	11,79
1051,9	11,79
1052,3	14,733
1052,7	17,505
1053,1	16,676
1053,5	17,419
1053,9	16,476
1054,3	19,476
1054,8	24,362
1055,2	20,99
1055,6	21,562
1056	19,248
1056,4	17,876
1056,8	19,848
1057,2	13,39
1057,6	4,333
1058,1	2,762
1058,5	-5,381
1058,9	0,619
1059,3	0,39
1059,7	1,305
1060,1	8,619
1060,5	14,905
1061	14,19
1061,4	21,933
1061,8	22,19
1062,2	24,19
1062,6	26,59
1063	24,648
1063,4	20,676
1063,8	20,705
1064,3	13,562
1064,7	9,533
1065,1	4,619
1065,5	0,448
1065,9	-3,638
1066,3	-2,638
1066,7	-4,21
1067,1	0,362
1067,6	4,762
1068	2,562
1068,4	1,59
1068,8	5,848
1069,2	4,105
1069,6	7,733
1070	10,333
1070,4	5,105
1070,9	5,562
1071,3	6,933
1071,7	4,162
1072,1	4,133
1072,5	1,533
1072,9	-0,238
1073,3	0,305
1073,7	-0,267
1074,2	-2,295
1074,6	-2,495
1075	-5,124
1075,4	-5,267
1075,8	-3,467
1076,2	-6,267
1076,6	1,819
1077	3,39
1077,5	8,848
1077,9	11,219
1078,3	11,39
1078,7	6,819
1079,1	10,276
1079,5	5,59
1079,9	8,105
1080,3	2,933
1080,7	2,933
1081,2	8,419
1081,6	10,105
1082	9,733
1082,4	14,79
1082,8	13,676
1083,2	13,933
1083,6	18,476
1084	11,99
1084,5	14,133
1084,9	9,848
1085,3	2,733
1085,7	3,305
1086,1	1,305
1086,5	-1,752
1086,9	-2,41
1087,3	-5,667
1087,7	-2,524
1088,2	-1,924
1088,6	-5,524
1089	-1,667
1089,4	-6,467
1089,8	-4,81
1090,2	-2,61
1090,6	0,533
1091	4,162
1091,4	7,79
1091,9	6,019
1092,3	13,99
1092,7	14,248
1093,1	15,59
1093,5	11,962
1093,9	8,648
1094,3	13,276
1094,7	8,933
1095,1	8,419
1095,5	8,076
1096	3,533
1096,4	7,19
1096,8	7,733
1097,2	1,705
1097,6	12,533
1098	8,076
1098,4	9,562
1098,8	12,305
1099,2	16,905
1099,6	17,676
1100,1	17,619
1100,5	9,819
1100,9	10,419
1101,3	10,39
1101,7	7,762
1102,1	2,219
1102,5	5,39
1102,9	4,933
1103,3	9,362
1103,7	10,648
1104,2	10,333
1104,6	11,505
1105	9,105
1105,4	7,819
1105,8	6,248
1106,2	2,019
1106,6	1,133
1107	0,019
1107,4	1,267
1107,8	2,413
1108,3	-0,417
