Data from Subt2_107.txt Node
Date: Sat Aug 26 18:20:08 MSK 2023
User: vat
Spectrometer: MAYP114033
Trigger mode: 0
Integration Time (sec): 1,000000E0
Scans to average: 5
Electric dark correction enabled: true
Nonlinearity correction enabled: false
Boxcar width: 3
XAxis mode: Wavelengths
Number of Pixels in Spectrum: 2068
>>>>>Begin Spectral Data<<<<<
199,4	1
199,9	1,64
200,4	-1,167
200,8	-2,657
201,3	-3,429
201,8	-2,657
202,2	-6,6
202,7	-4,343
203,2	-5,771
203,6	-3,571
204,1	-6,771
204,6	-7,429
205	-7,286
205,5	-5,229
206	-5,971
206,4	-2,943
206,9	-5,057
207,4	2,314
207,8	3,771
208,3	1,114
208,8	4,371
209,2	6,429
209,7	4,743
210,2	6,971
210,6	5,4
211,1	5
211,5	4,457
212	0,143
212,5	-6,314
212,9	-9,143
213,4	-7,029
213,9	-11,486
214,3	-12,029
214,8	-6,829
215,3	-6,114
215,7	0,943
216,2	2,714
216,7	2,829
217,1	7,514
217,6	11,057
218,1	8,943
218,5	10,629
219	-0,343
219,5	5,086
219,9	-0,057
220,4	2,171
220,9	-1
221,3	-0,571
221,8	1,857
222,3	8,314
222,7	5,943
223,2	11,057
223,6	9,086
224,1	9,4
224,6	11,514
225	6,314
225,5	4,486
226	1,829
226,4	1,257
226,9	1,029
227,4	4,629
227,8	-4,714
228,3	-3,971
228,8	-1,571
229,2	1,6
229,7	-1,286
230,2	0,086
230,6	0,371
231,1	4,886
231,5	3,543
232	2,914
232,5	-0,343
232,9	4,171
233,4	4,829
233,9	-1,343
234,3	0,457
234,8	4
235,3	1,171
235,7	0,514
236,2	-0,314
236,7	0,457
237,1	3,314
237,6	-1,2
238,1	-5,629
238,5	-6
239	-2,4
239,4	-2,057
239,9	-6,771
240,4	-6,971
240,8	-0,171
241,3	2,657
241,8	4,771
242,2	2,371
242,7	1,8
243,2	2,971
243,6	3,171
244,1	6,057
244,6	8,286
245	7,686
245,5	8,229
245,9	4,857
246,4	7,943
246,9	9,057
247,3	6,029
247,8	10,657
248,3	16,686
248,7	17,314
249,2	20,457
249,7	18,229
250,1	19,257
250,6	18,914
251	13,086
251,5	7,857
252	5,543
252,4	3,057
252,9	1,029
253,4	-5,286
253,8	-7,429
254,3	-6,114
254,8	-1,743
255,2	-1,086
255,7	-1,514
256,1	3,743
256,6	7,971
257,1	8,371
257,5	3,857
258	-2,029
258,5	-2,743
258,9	-3,743
259,4	-8,457
259,9	-8
260,3	-10,514
260,8	-10,314
261,2	-8,629
261,7	-7,114
262,2	-10,257
262,6	-10,514
263,1	-10,257
263,6	-7,686
264	-1,571
264,5	1,914
264,9	2,743
265,4	4,943
265,9	4,057
266,3	6,257
266,8	7,743
267,3	1,943
267,7	-0,286
268,2	-1,257
268,7	3,886
269,1	5,8
269,6	0,286
270	-0,857
270,5	4,543
271	6,314
271,4	3,143
271,9	-4,8
272,4	-2,714
272,8	0,114
273,3	-2,171
273,7	-4,829
274,2	-6,657
274,7	-3,171
275,1	1,657
275,6	2,571
276,1	-0,371
276,5	4,057
277	3,571
277,4	2,029
277,9	3,971
278,4	4,143
278,8	1,086
279,3	5
279,8	4,457
280,2	6,171
280,7	8,943
281,1	5,514
281,6	5,514
282,1	5,8
282,5	5,8
283	3,714
283,4	2,657
283,9	4,686
284,4	6,914
284,8	10,029
285,3	9,371
285,8	8,657
286,2	7,514
286,7	3,686
287,1	-0,286
287,6	0,371
288,1	-7,086
288,5	-5,4
289	-5,371
289,5	-1,771
289,9	-1,114
290,4	3,314
290,8	2,543
291,3	6,714
291,8	5,771
292,2	4,629
292,7	7,857
293,1	7,486
293,6	6,457
294,1	5,743
294,5	3,543
295	3,8
295,5	4,857
295,9	0,114
296,4	0,771
296,8	-3,143
297,3	-1,171
297,8	-1,886
298,2	-2,714
298,7	-0,143
299,1	1,857
299,6	1,686
300,1	2,886
300,5	2,486
301	8,8
301,5	14,971
301,9	13,4
302,4	7,6
302,8	12,2
303,3	15,543
303,8	8,457
304,2	5,143
304,7	-1,914
305,1	-6,829
305,6	-5,2
306,1	-4,371
306,5	-6,543
307	3,171
307,4	8,286
307,9	7,6
308,4	6,714
308,8	3,457
309,3	2,686
309,8	2,514
310,2	-3,571
310,7	-11,371
311,1	-7,943
311,6	-3,057
312,1	3,457
312,5	6,086
313	5,571
313,4	8,057
313,9	6,857
314,4	5,771
314,8	3,2
315,3	1,457
315,7	-8,086
316,2	-6,286
316,7	-9,514
317,1	0,571
317,6	2
318	5,286
318,5	6,657
319	12,857
319,4	10,857
319,9	16,229
320,3	11,286
320,8	6,543
321,3	8,257
321,7	8
322,2	9,257
322,6	12,371
323,1	10,943
323,6	8,829
324	8,914
324,5	3,286
324,9	3,771
325,4	0,229
325,9	-2,829
326,3	-3,457
326,8	-0,8
327,2	-1,429
327,7	0,4
328,2	0,314
328,6	-0,857
329,1	-5,486
329,5	-4,629
330	-8,286
330,5	-6,571
330,9	-2,371
331,4	-4,4
331,8	-4,543
332,3	1,886
332,8	3,029
333,2	7,057
333,7	10,943
334,1	8,143
334,6	9,914
335,1	6,486
335,5	7,257
336	4,371
336,4	5,143
336,9	9,6
337,4	13,314
337,8	9,914
338,3	19,743
338,7	19,057
339,2	17,486
339,7	16,486
340,1	8
340,6	5,486
341	5,943
341,5	3,086
342	-0,429
342,4	-0,771
342,9	-4,8
343,3	0,057
343,8	-1,343
344,2	1
344,7	4,543
345,2	5,314
345,6	3,171
346,1	4,886
346,5	0,029
347	-0,286
347,5	-1,571
347,9	0,629
348,4	2,829
348,8	8,743
349,3	13,829
349,8	18,971
350,2	25,771
350,7	23,029
351,1	19,914
351,6	26,429
352	31,086
352,5	29,086
353	35,514
353,4	39,057
353,9	54,429
354,3	62,971
354,8	67,829
355,3	81,657
355,7	107
356,2	124,943
356,6	144,686
357,1	173,971
357,5	209,057
358	252,486
358,5	290,229
358,9	333,057
359,4	387,514
359,8	446,514
360,3	515,943
360,8	584,857
361,2	664,457
361,7	760,771
362,1	865,343
362,6	975,143
363	1095,486
363,5	1213,914
364	1348,714
364,4	1486,229
364,9	1619,086
365,3	1753,029
365,8	1877,971
366,3	1997,457
366,7	2098,171
367,2	2192,4
367,6	2268,771
368,1	2329,629
368,5	2361,086
369	2379,629
369,5	2382,457
369,9	2370,829
370,4	2331,086
370,8	2274,086
371,3	2208,2
371,7	2133,743
372,2	2046,686
372,7	1947,714
373,1	1845,629
373,6	1742,4
374	1634,657
374,5	1525,686
374,9	1418,971
375,4	1315,714
375,9	1217,743
376,3	1120,971
376,8	1028,314
377,2	946,8
377,7	866,371
378,2	793,314
378,6	726,4
379,1	665,971
379,5	616,086
380	570,2
380,4	525,086
380,9	481,514
381,4	440,171
381,8	406,771
382,3	374,886
382,7	344,4
383,2	320,486
383,6	293,143
384,1	273,914
384,6	258,943
385	240,514
385,5	219,771
385,9	205,914
386,4	185,543
386,8	176,543
387,3	164,6
387,7	150,371
388,2	139,029
388,7	130,8
389,1	119,314
389,6	112,8
390	103,086
390,5	98,886
390,9	96,571
391,4	89,771
391,9	83,486
392,3	80,314
392,8	74,714
393,2	67,686
393,7	63,943
394,1	56,6
394,6	55,343
395,1	54,743
395,5	49,286
396	50,571
396,4	51,343
396,9	47,543
397,3	50,657
397,8	50,4
398,2	50,514
398,7	50,486
399,2	50,429
399,6	51,943
400,1	49,2
400,5	44,229
401	43,114
401,4	40,229
401,9	44,171
402,4	43,371
402,8	38,657
403,3	47,857
403,7	45,943
404,2	51,429
404,6	58,486
405,1	54,743
405,5	51,829
406	57,171
406,5	52,429
406,9	62,771
407,4	62,771
407,8	63,886
408,3	70,2
408,7	78,343
409,2	82,971
409,6	91,571
410,1	95,714
410,6	99,429
411	104,371
411,5	107,914
411,9	113,8
412,4	123,486
412,8	132,257
413,3	139,371
413,7	147,914
414,2	151,714
414,7	167,314
415,1	181,486
415,6	194,6
416	200,514
416,5	212,943
416,9	224,914
417,4	242,686
417,8	259,943
418,3	275,914
418,8	289,057
419,2	307,914
419,7	323,914
420,1	342,314
420,6	362,371
421	373,057
421,5	391,829
421,9	408,943
422,4	430,8
422,8	454,857
423,3	482,714
423,8	504,514
424,2	532,314
424,7	558,029
425,1	592,4
425,6	629,571
426	661
426,5	700,971
426,9	745,029
427,4	782,657
427,9	821,114
428,3	861,314
428,8	901,914
429,2	949,229
429,7	989,943
430,1	1037,429
430,6	1091,714
431	1152,171
431,5	1214,486
431,9	1273,743
432,4	1337,429
432,8	1411,6
433,3	1483,057
433,8	1557,371
434,2	1637
434,7	1716,371
435,1	1802,4
435,6	1895,743
436	1987,114
436,5	2088,171
436,9	2186,4
437,4	2293,457
437,8	2402,343
438,3	2517,457
438,8	2634,114
439,2	2757,571
439,7	2884,829
440,1	3023,086
440,6	3164,6
441	3303,429
441,5	3453,229
441,9	3600,514
442,4	3749,4
442,8	3909,2
443,3	4073,657
443,7	4237,714
444,2	4413
444,7	4588,714
445,1	4777,886
445,6	4974,429
446	5173,371
446,5	5373,057
446,9	5576,229
447,4	5785,543
447,8	6000,571
448,3	6229,429
448,7	6453,4
449,2	6685,971
449,6	6923,857
450,1	7165,4
450,6	7419,171
451	7667,257
451,5	7919,714
451,9	8190,914
452,4	8458,6
452,8	8737,486
453,3	9025,8
453,7	9307,257
454,2	9596,343
454,6	9889,029
455,1	10174,029
455,5	10452,6
456	10743,571
456,4	11034,457
456,9	11338,829
457,3	11652,343
457,8	11950,657
458,3	12264,571
458,7	12596,343
459,2	12916,486
459,6	13236
460,1	13565
460,5	13885,371
461	14214
461,4	14539,457
461,9	14864
462,3	15201,343
462,8	15537,371
463,2	15860,514
463,7	16196,286
464,1	16533,171
464,6	16869,914
465	17204,086
465,5	17527
466	17852,8
466,4	18171,657
466,9	18492,343
467,3	18806,8
467,8	19130,257
468,2	19442,486
468,7	19762,6
469,1	20076,4
469,6	20390,114
470	20703,429
470,5	21009,743
470,9	21295,886
471,4	21594,343
471,8	21872,771
472,3	22157,4
472,7	22431,229
473,2	22700,714
473,6	22968,943
474,1	23237,229
474,5	23490,257
475	23754,857
475,4	24005,343
475,9	24260,057
476,4	24486,829
476,8	24712,943
477,3	24933,914
477,7	25166,886
478,2	25371,571
478,6	25568,057
479,1	25751,657
479,5	25936,486
480	26108,029
480,4	26281,114
480,9	26418,629
481,3	26570,114
481,8	26699,4
482,2	26844,629
482,7	26990,286
483,1	27126,8
483,6	27234,086
484	27347,229
484,5	27454,143
484,9	27565,4
485,4	27652,514
485,8	27710,429
486,3	27763,171
486,7	27821,743
487,2	27877,857
487,6	27909,914
488,1	27934
488,5	27958,2
489	27966,914
489,4	28000,971
489,9	27994,771
490,4	27981,371
490,8	27964,229
491,3	27936,743
491,7	27890,771
492,2	27878,571
492,6	27823,657
493,1	27781,714
493,5	27709,771
494	27634,886
494,4	27560,8
494,9	27483,171
495,3	27387,8
495,8	27281,829
496,2	27198,8
496,7	27094,943
497,1	27004,514
497,6	26911,2
498	26823,429
498,5	26708,486
498,9	26598,6
499,4	26472
499,8	26367,6
500,3	26249,914
500,7	26115,914
501,2	25973,914
501,6	25850,543
502,1	25705,6
502,5	25560,914
503	25422,686
503,4	25267
503,9	25114,2
504,3	24957,8
504,8	24789,886
505,2	24637,743
505,7	24464,429
506,1	24293,629
506,6	24099,657
507	23927,429
507,5	23748,943
507,9	23568,143
508,4	23381,686
508,8	23201,114
509,3	23011,143
509,7	22834,657
510,2	22633,114
510,6	22440,4
511,1	22252,457
511,5	22054,743
512	21861,086
512,4	21668,343
512,9	21475,314
513,3	21285,514
513,8	21081,629
514,2	20880,514
514,7	20691,314
515,1	20482,8
515,6	20272,6
516	20073,686
516,5	19868,086
516,9	19672,457
517,4	19467,2
517,8	19256,171
518,3	19061,171
518,7	18866,8
519,2	18672
519,6	18483,6
520,1	18279,629
520,5	18091,771
521	17896,771
521,4	17720,514
521,9	17525,857
522,3	17333,686
522,8	17142,6
523,2	16965,057
523,7	16771,429
524,1	16600,486
524,6	16394,171
525	16216,971
525,5	16035,629
525,9	15863,714
526,4	15678,571
526,8	15500,829
527,3	15306,943
527,7	15146
528,2	14975,6
528,6	14801,971
529,1	14631,629
529,5	14476,143
530	14311,057
530,4	14162,2
530,9	14001,457
531,3	13832,114
531,8	13675,286
532,2	13514,743
532,6	13352,457
533,1	13199,857
533,5	13047,971
534	12890,543
534,4	12748,057
534,9	12611,086
535,3	12459,171
535,8	12315,771
536,2	12182,229
536,7	12051,143
537,1	11920,257
537,6	11792,857
538	11648,286
538,5	11524,029
538,9	11382,286
539,4	11248,971
539,8	11109,629
540,3	10983,543
540,7	10851,029
541,2	10731,8
541,6	10614,457
542,1	10510,029
542,5	10390,6
543	10282,114
543,4	10170,314
543,9	10054,486
544,3	9943,686
544,8	9828,171
545,2	9717,857
545,7	9616,771
546,1	9503,514
546,5	9395,171
547	9301,629
547,4	9202,571
547,9	9090,314
548,3	8995,086
548,8	8896,229
549,2	8805,543
549,7	8702,486
550,1	8610,971
550,6	8517,143
551	8441,8
551,5	8351,943
551,9	8260,6
552,4	8176,686
552,8	8104,257
553,3	8010,4
553,7	7928,771
554,2	7846,829
554,6	7764,171
555,1	7696,6
555,5	7625
555,9	7546,343
556,4	7479
556,8	7409,914
557,3	7331,257
557,7	7265,371
558,2	7185,2
558,6	7120,543
559,1	7051,771
559,5	6980,257
560	6911,143
560,4	6853,086
560,9	6788,286
561,3	6727,6
561,8	6646,714
562,2	6588,371
562,7	6526,2
563,1	6464,629
563,6	6398,2
564	6342,457
564,4	6284,743
564,9	6233,343
565,3	6168,714
565,8	6116,229
566,2	6064,771
566,7	6018,4
567,1	5963,314
567,6	5907,8
568	5848,514
568,5	5800,171
568,9	5743,4
569,4	5694,029
569,8	5639,514
570,3	5578,286
570,7	5521,2
571,1	5476,857
571,6	5426,114
572	5380,771
572,5	5329,371
572,9	5275,914
573,4	5229,857
573,8	5193,343
574,3	5146,6
574,7	5099,6
575,2	5056,057
575,6	5010,886
576,1	4976,743
576,5	4941,171
576,9	4894,257
577,4	4853
577,8	4813,343
578,3	4772,029
578,7	4729,743
579,2	4689,229
579,6	4642,143
580,1	4601,743
580,5	4565,6
581	4532,657
581,4	4494,4
581,9	4453,886
582,3	4415,057
582,7	4384,543
583,2	4350,629
583,6	4310,8
584,1	4274,486
584,5	4234,771
585	4201,8
585,4	4160,029
585,9	4114,886
586,3	4085,943
586,8	4054,829
587,2	4014,486
587,6	3985,314
588,1	3957,943
588,5	3930,029
589	3904,286
589,4	3868,257
589,9	3839,657
590,3	3805,143
590,8	3774,914
591,2	3738,343
591,7	3712,343
592,1	3688,029
592,5	3663,4
593	3630,571
593,4	3610,457
593,9	3581,571
594,3	3557,714
594,8	3530,543
595,2	3501,457
595,7	3476,114
596,1	3453,314
596,6	3433,629
597	3415,086
597,4	3391,257
597,9	3371,314
598,3	3355,714
598,8	3331,343
599,2	3309,686
599,7	3285,514
600,1	3254,029
600,6	3232,543
601	3204,943
601,4	3184,143
601,9	3161
602,3	3134,114
602,8	3112,057
603,2	3098,571
603,7	3077,914
604,1	3056,086
604,6	3030,286
605	3002
605,4	2989,657
605,9	2968,143
606,3	2938,943
606,8	2917,371
607,2	2894,629
607,7	2868,371
608,1	2854,829
608,6	2832,514
609	2820,457
609,4	2809,629
609,9	2790,714
610,3	2772,371
610,8	2760,743
611,2	2745,486
611,7	2728,857
612,1	2705,657
612,6	2684,343
613	2670,229
613,4	2654,714
613,9	2635
614,3	2608,714
614,8	2588,6
615,2	2563,686
615,7	2545,829
616,1	2520,257
616,6	2502,143
617	2476,143
617,4	2462,771
617,9	2448,771
618,3	2434,171
618,8	2419,2
619,2	2398,286
619,7	2384,314
620,1	2371,771
620,5	2360,457
621	2340,543
621,4	2326,314
621,9	2301,2
622,3	2289,229
622,8	2270,514
623,2	2254,657
623,6	2228,8
624,1	2213,514
624,5	2193,143
625	2188,829
625,4	2180,057
625,9	2164,457
626,3	2151,6
626,8	2142,714
627,2	2127,857
627,6	2113,286
628,1	2089,6
628,5	2071,514
629	2056,171
629,4	2038,571
629,9	2023,114
630,3	2003,171
630,7	1986,971
631,2	1980,057
631,6	1967,886
632,1	1957,229
632,5	1944,057
633	1924,943
633,4	1909,314
633,8	1899,371
634,3	1882,886
634,7	1867,629
635,2	1848,6
635,6	1834,971
636,1	1825,286
636,5	1809,457
636,9	1791,657
637,4	1778,686
637,8	1757,8
638,3	1740,657
638,7	1722,686
639,2	1705,914
639,6	1698,971
640	1682,857
640,5	1670,029
640,9	1665,086
641,4	1658,257
641,8	1654,686
642,2	1648,171
642,7	1640,457
643,1	1640,229
643,6	1630,371
644	1620,343
644,5	1607,486
644,9	1594,2
645,3	1580,743
645,8	1565,371
646,2	1550,514
646,7	1538,086
647,1	1522,543
647,6	1522,171
648	1517,657
648,4	1506
648,9	1499,114
649,3	1490,229
649,8	1480,143
650,2	1471,914
650,6	1457,314
651,1	1440,571
651,5	1436,886
652	1426,543
652,4	1416,429
652,9	1411,057
653,3	1403,657
653,7	1392,457
654,2	1380,486
654,6	1367,571
655,1	1362,114
655,5	1355,286
655,9	1345,257
656,4	1334,686
656,8	1327
657,3	1321,943
657,7	1313,971
658,2	1301,143
658,6	1284,143
659	1270,571
659,5	1259,914
659,9	1246,143
660,4	1238,457
660,8	1229,943
661,2	1220,2
661,7	1216,771
662,1	1208,6
662,6	1203,114
663	1198,257
663,4	1185,714
663,9	1175,171
664,3	1166
664,8	1154,771
665,2	1144,429
665,6	1130,771
666,1	1120,429
666,5	1116,257
667	1108,571
667,4	1101,057
667,9	1093,657
668,3	1085,429
668,7	1078,2
669,2	1075,371
669,6	1066,286
670,1	1060,257
670,5	1048,886
670,9	1039,514
671,4	1033,857
671,8	1029,343
672,3	1017,314
672,7	1009,829
673,1	1002,429
673,6	995,514
674	995,857
674,5	983,4
674,9	970,686
675,3	962,086
675,8	955,771
676,2	946,286
676,7	938,057
677,1	929,057
677,5	925,743
678	925,8
678,4	921
678,9	913,743
679,3	908,8
679,7	907,2
680,2	896,229
680,6	888,286
681,1	881,914
681,5	879,771
681,9	870,229
682,4	863,857
682,8	855,6
683,3	854,829
683,7	853,343
684,1	843,4
684,6	835,543
685	827,229
685,5	815,2
685,9	807,686
686,3	793,743
686,8	788,4
687,2	781,514
687,7	775,257
688,1	768,829
688,5	769,4
689	768,2
689,4	767,571
689,9	757,057
690,3	754,114
690,7	751,314
691,2	751,029
691,6	744,171
692	737,943
692,5	732,943
692,9	732,286
693,4	725,171
693,8	712,143
694,2	707,229
694,7	704,429
695,1	698,029
695,6	691,514
696	691,171
696,4	686,857
696,9	685,829
697,3	679,743
697,8	670,486
698,2	664,2
698,6	661,114
699,1	651,486
699,5	652,743
699,9	647,086
700,4	638,971
700,8	636,829
701,3	634,857
701,7	628,857
702,1	621,171
702,6	611
703	606,257
703,5	605,314
703,9	597,2
704,3	593,429
704,8	590,6
705,2	587,057
705,6	585,629
706,1	583,4
706,5	575,029
707	572,057
707,4	567,8
707,8	559,914
708,3	561,057
708,7	552,029
709,2	546,371
709,6	543,771
710	542,857
710,5	535,657
710,9	532,343
711,3	522,257
711,8	522,143
712,2	516,6
712,7	515,114
713,1	512,257
713,5	513,8
714	511,886
714,4	504,286
714,8	502,571
715,3	499,314
715,7	497,086
716,2	491,114
716,6	486,143
717	479,686
717,5	480,314
717,9	480,543
718,3	474,257
718,8	469,514
719,2	462,429
719,7	459,914
720,1	457,371
720,5	459,714
721	444,857
721,4	444,286
721,8	445,371
722,3	443,086
722,7	439,143
723,2	434,8
723,6	421,714
724	420,057
724,5	416,114
724,9	408,171
725,3	406,314
725,8	401,229
726,2	401,114
726,7	407,343
727,1	405,8
727,5	402,857
728	394,6
728,4	391,314
728,8	390,314
729,3	381,514
729,7	374,029
730,1	369,686
730,6	370,143
731	367,629
731,5	364,457
731,9	357,657
732,3	358,857
732,8	354,914
733,2	356,286
733,6	353,143
734,1	360,486
734,5	359,143
734,9	359,371
735,4	359,829
735,8	357,286
736,3	356,686
736,7	354
737,1	345,943
737,6	343,8
738	339,029
738,4	336,657
738,9	333,971
739,3	327,543
739,7	323,286
740,2	320,543
740,6	324,714
741,1	325,429
741,5	318,171
741,9	318,914
742,4	319,371
742,8	319,143
743,2	320,486
743,7	307
744,1	299,257
744,5	299,143
745	298,629
745,4	294,314
745,8	292,429
746,3	289,2
746,7	290,914
747,2	291,943
747,6	293,886
748	288,886
748,5	292,686
748,9	283,8
749,3	278,429
749,8	274,086
750,2	276,343
750,6	270,914
751,1	273,486
751,5	268,371
751,9	271,771
752,4	274,343
752,8	277,771
753,3	271,943
753,7	272,629
754,1	262,743
754,6	259,857
755	255,743
755,4	253,657
755,9	250,743
756,3	248
756,7	243,2
757,2	243,657
757,6	243,343
758	247,429
758,5	246,486
758,9	248,429
759,3	251,4
759,8	252,686
760,2	254,829
760,6	251,057
761,1	243,286
761,5	241,286
761,9	236,229
762,4	231,857
762,8	228,371
763,3	225,686
763,7	228,4
764,1	229,829
764,6	229,114
765	229,571
765,4	232,086
765,9	231,2
766,3	233,029
766,7	228,8
767,2	226,971
767,6	228,429
768	226,914
768,5	220,771
768,9	220,857
769,3	217,943
769,8	216,429
770,2	216,229
770,6	210,6
771,1	211,429
771,5	213
771,9	212,143
772,4	209,257
772,8	206
773,2	205,171
773,7	201,6
774,1	198,086
774,5	193,6
775	190,486
775,4	188,486
775,8	186,629
776,3	186,571
776,7	187,886
777,1	183,6
777,6	183,343
778	183,086
778,4	181,4
778,9	183,286
779,3	180,457
779,7	182,571
780,2	184,429
780,6	183,771
781	181,143
781,5	178,2
781,9	177,371
782,3	173,343
782,8	169,514
783,2	165,886
783,6	167,857
784,1	163,743
784,5	164,971
784,9	161,914
785,4	166,171
785,8	165,6
786,2	167,486
786,7	163,686
787,1	166,029
787,5	167,343
788	169,114
788,4	164,286
788,8	161,371
789,3	154,371
789,7	156,771
790,1	154,8
790,6	154,429
791	148,257
791,4	149,714
791,9	144,771
792,3	145,229
792,7	145,6
793,2	145,514
793,6	144
794	148,657
794,5	143,686
794,9	148,571
795,3	149,914
795,8	145,286
796,2	148,257
796,6	144,743
797,1	144,371
797,5	145,6
797,9	140
798,4	134,371
798,8	134,857
799,2	130,057
799,7	130,143
800,1	126,943
800,5	129,114
801	133
801,4	134
801,8	127,8
802,2	124,286
802,7	120,743
803,1	120
803,5	119,429
804	113,2
804,4	116,314
804,8	116,657
805,3	121,8
805,7	125,829
806,1	122,257
806,6	118,143
807	119,171
807,4	116,514
807,9	113,343
808,3	107,514
808,7	102,286
809,2	106,629
809,6	109,143
810	108,4
810,4	110,143
810,9	111,057
811,3	115,057
811,7	118
812,2	120,143
812,6	115,943
813	118,514
813,5	117,2
813,9	119,714
814,3	114,086
814,8	112,257
815,2	102,686
815,6	99,829
816,1	99,686
816,5	94,457
816,9	93,114
817,3	93,514
817,8	95,686
818,2	97,4
818,6	94,829
819,1	92,057
819,5	93,686
819,9	94,457
820,4	95,914
820,8	91,457
821,2	87,857
821,7	92,657
822,1	94,743
822,5	100,771
822,9	97,829
823,4	96,4
823,8	97,343
824,2	100,771
824,7	93,714
825,1	87,143
825,5	75,857
826	71,829
826,4	70,286
826,8	68,029
827,3	68,143
827,7	67,686
828,1	68,429
828,5	70,457
829	67,886
829,4	69
829,8	64,429
830,3	63,486
830,7	63,229
831,1	65,914
831,6	66,8
832	69,914
832,4	68,971
832,8	74,914
833,3	69,2
833,7	71,657
834,1	64,371
834,6	63,657
835	64,543
835,4	64
835,8	59,257
836,3	61,514
836,7	63,514
837,1	66,257
837,6	67,286
838	68,543
838,4	68,2
838,9	66,686
839,3	67,343
839,7	65,829
840,1	61,2
840,6	58,829
841	57,343
841,4	57,314
841,9	59,143
842,3	56,829
842,7	53,6
843,1	56,571
843,6	60,8
844	60,286
844,4	59,886
844,9	62,857
845,3	63,057
845,7	62,343
846,2	62,686
846,6	56,314
847	56,257
847,4	56,8
847,9	53,829
848,3	53,6
848,7	54,314
849,2	53,8
849,6	51,886
850	52,314
850,4	49,886
850,9	49,486
851,3	48,857
851,7	49,971
852,2	46,2
852,6	51,171
853	50,829
853,4	49,057
853,9	46,457
854,3	47,686
854,7	50,229
855,2	50,286
855,6	47,657
856	45,886
856,4	42,371
856,9	40,314
857,3	38,371
857,7	37,029
858,2	41,571
858,6	40,857
859	39,286
859,4	42,257
859,9	44,2
860,3	44,971
860,7	42,229
861,1	43,429
861,6	41,314
862	42,829
862,4	39,629
862,9	40,771
863,3	38,657
863,7	41
864,1	38,743
864,6	39,229
865	35,971
865,4	40,086
865,9	43,714
866,3	37,686
866,7	34,457
867,1	30,2
867,6	31,429
868	33,057
868,4	30,771
868,8	27,229
869,3	29,857
869,7	32,057
870,1	33,2
870,6	30,086
871	13,286
871,4	18,2
871,8	14,057
872,3	18,029
872,7	16,886
873,1	18,457
873,5	20,686
874	35,771
874,4	33,829
874,8	32,714
875,3	33,429
875,7	32,486
876,1	32,571
876,5	29,457
877	28,343
877,4	25,571
877,8	29,714
878,2	29,943
878,7	30,057
879,1	29,829
879,5	34,657
879,9	35,486
880,4	32,457
880,8	30,914
881,2	27,171
881,7	25,371
882,1	20,343
882,5	18,029
882,9	17,743
883,4	18,943
883,8	20,114
884,2	21,4
884,6	20,714
885,1	24,457
885,5	22,057
885,9	20,143
886,3	22,514
886,8	19,857
887,2	15,657
887,6	17,086
888	15,971
888,5	15,457
888,9	17,429
889,3	16,686
889,8	13,514
890,2	16,514
890,6	12,429
891	14,829
891,5	19,029
891,9	16,257
892,3	16,943
892,7	19,571
893,2	19,686
893,6	25,286
894	26,714
894,4	24,171
894,9	24,943
895,3	22,057
895,7	24,314
896,1	23,486
896,6	21,829
897	19,743
897,4	25,886
897,8	29,2
898,3	30,286
898,7	25,486
899,1	26,971
899,5	25,886
900	21,486
900,4	15,771
900,8	12,257
901,2	12,171
901,7	15,114
902,1	14,943
902,5	16,714
902,9	16,543
903,4	17,429
903,8	19,714
904,2	17,343
904,6	15,914
905,1	14,914
905,5	14
905,9	16,429
906,3	15,543
906,8	17,171
907,2	21,429
907,6	20,914
908	25,257
908,5	23,743
908,9	23,514
909,3	21,314
909,7	19,857
910,2	14,057
910,6	21
911	14
911,4	16,171
911,9	13,486
912,3	16,657
912,7	20,343
913,1	24,229
913,6	17,514
914	20,657
914,4	17,857
914,8	24,171
915,3	16,829
915,7	14,086
916,1	10,857
916,5	13,229
916,9	10,429
917,4	12,286
917,8	7,286
918,2	8,771
918,6	2,857
919,1	5,4
919,5	6,029
919,9	11,8
920,3	7,743
920,8	5,4
921,2	10,886
921,6	14,486
922	12,314
922,5	10,886
922,9	6,714
923,3	7,571
923,7	11,543
924,2	7,514
924,6	5,6
925	5,657
925,4	3,8
925,8	5,714
926,3	5,314
926,7	1,114
927,1	4,171
927,5	7,914
928	7,371
928,4	5,086
928,8	6,743
929,2	10,429
929,7	13,714
930,1	13,029
930,5	6,886
930,9	14,8
931,3	17,657
931,8	15,571
932,2	13,771
932,6	12,371
933	6,2
933,5	11,8
933,9	6,171
934,3	8,029
934,7	1,8
935,2	2,943
935,6	4,4
936	6,2
936,4	3,429
936,8	4,943
937,3	0,8
937,7	6,2
938,1	9,714
938,5	8
939	10,543
939,4	11,057
939,8	11,343
940,2	14,429
940,6	14,457
941,1	8,771
941,5	11,714
941,9	8,371
942,3	8,029
942,8	4,914
943,2	8,229
943,6	4,114
944	8,314
944,4	7,486
944,9	10,2
945,3	8,171
945,7	3,971
946,1	-3,286
946,6	-0,171
947	-5,286
947,4	-4,886
947,8	-4,457
948,2	-6
948,7	-2,914
949,1	-0,971
949,5	3,657
949,9	7,886
950,3	7,2
950,8	4,857
951,2	6,971
951,6	5,629
952	11,143
952,5	5,143
952,9	2,657
953,3	2,2
953,7	1,771
954,1	6
954,6	8,057
955	8,771
955,4	8,057
955,8	12,257
956,2	9,486
956,7	15,371
957,1	8,8
957,5	7,2
957,9	5,571
958,3	4,743
958,8	1,657
959,2	8,143
959,6	7,714
960	9,286
960,5	12,029
960,9	10,143
961,3	9,286
961,7	6,429
962,1	1,629
962,6	2,543
963	1
963,4	-0,286
963,8	-0,343
964,2	-0,343
964,7	2,657
965,1	4,914
965,5	3,057
965,9	7,6
966,3	11,829
966,8	8,114
967,2	9,486
967,6	11,4
968	6,543
968,4	7
968,9	5,886
969,3	6,029
969,7	4,343
970,1	8,886
970,5	3,286
971	9,429
971,4	4,657
971,8	3,2
972,2	-0,686
972,6	1,457
973,1	-2,543
973,5	-2,6
973,9	-4,886
974,3	-2,629
974,7	1,086
975,2	2,543
975,6	1,8
976	5,371
976,4	3,657
976,8	3,6
977,3	3,343
977,7	1,371
978,1	1,486
978,5	1,514
978,9	-5
979,4	-5
979,8	-4
980,2	-4,943
980,6	-7,829
981	-5,143
981,5	-8,514
981,9	-6
982,3	-3,8
982,7	-4,286
983,1	-6,943
983,6	-2,971
984	-7,2
984,4	-0,6
984,8	1,457
985,2	1,714
985,6	-3,914
986,1	0,029
986,5	0,914
986,9	-3,114
987,3	-2,029
987,7	-3,6
988,2	-3,4
988,6	0,514
989	0,229
989,4	-2,6
989,8	-0,829
990,3	-2,743
990,7	-3,086
991,1	-2,8
991,5	-1,943
991,9	1,171
992,3	4,914
992,8	10,343
993,2	7,4
993,6	9,171
994	12,657
994,4	15,314
994,9	11,657
995,3	8,114
995,7	5,086
996,1	7,4
996,5	5,829
996,9	2,943
997,4	3,029
997,8	-0,971
998,2	0,714
998,6	-5,8
999	-5,4
999,5	-7,086
999,9	-9,571
1000,3	-11,686
1000,7	-6,314
1001,1	-9,371
1001,5	-3,457
1002	-1,514
1002,4	-1,914
1002,8	-1,343
1003,2	0,943
1003,6	2,257
1004	6,114
1004,5	3,657
1004,9	-1,229
1005,3	-1,314
1005,7	0,657
1006,1	-4,429
1006,6	-7,029
1007	-6,686
1007,4	-5,714
1007,8	-3,229
1008,2	-3,457
1008,6	-0,943
1009,1	1,657
1009,5	1,571
1009,9	2,914
1010,3	5,571
1010,7	6
1011,1	8,086
1011,6	6,314
1012	10,371
1012,4	9,114
1012,8	2,857
1013,2	8,6
1013,6	5,314
1014,1	5,171
1014,5	3,886
1014,9	-2,657
1015,3	-1,714
1015,7	1,857
1016,1	-4,171
1016,6	-0,571
1017	0,2
1017,4	1,771
1017,8	4,457
1018,2	5,829
1018,6	-0,943
1019,1	-3,486
1019,5	-3,743
1019,9	-8,571
1020,3	-9,257
1020,7	-11,457
1021,1	-14,857
1021,6	-11,257
1022	-8,914
1022,4	-8,514
1022,8	-2,171
1023,2	-2,829
1023,6	-0,971
1024,1	9,029
1024,5	11,629
1024,9	8,829
1025,3	8,257
1025,7	5,171
1026,1	9,657
1026,6	12,4
1027	6,2
1027,4	4,314
1027,8	6,486
1028,2	3,971
1028,6	11,143
1029	7,914
1029,5	11,429
1029,9	10,114
1030,3	11,143
1030,7	13,229
1031,1	20,6
1031,5	11,714
1032	7,714
1032,4	2,943
1032,8	3,743
1033,2	3,971
1033,6	3,114
1034	-0,6
1034,4	-1
1034,9	2,543
1035,3	-0,229
1035,7	0,571
1036,1	-2,6
1036,5	-4,8
1036,9	-6,143
1037,4	0,8
1037,8	-4,629
1038,2	-5,114
1038,6	-6,457
1039	-0,943
1039,4	2,943
1039,8	-2,857
1040,3	-4,429
1040,7	-1,086
1041,1	1,457
1041,5	0,143
1041,9	-0,914
1042,3	-4,229
1042,7	6
1043,2	2,486
1043,6	2,686
1044	0,2
1044,4	-0,971
1044,8	-5,029
1045,2	-4,943
1045,6	-10,143
1046,1	-8,829
1046,5	-8,886
1046,9	-6,286
1047,3	-4,971
1047,7	-4,257
1048,1	-5,543
1048,5	-2,6
1049	0,286
1049,4	4,571
1049,8	5,086
1050,2	9,886
1050,6	15,4
1051	15,2
1051,4	11,514
1051,9	8,2
1052,3	9,914
1052,7	8,857
1053,1	4,571
1053,5	2,886
1053,9	5,114
1054,3	6,286
1054,8	12,4
1055,2	7,2
1055,6	7,743
1056	6,8
1056,4	5,086
1056,8	8,4
1057,2	4,229
1057,6	-1,771
1058,1	-4,143
1058,5	-13,257
1058,9	-9,257
1059,3	-6,171
1059,7	-9,343
1060,1	-1,514
1060,5	0,771
1061	3
1061,4	9,286
1061,8	10,229
1062,2	3,486
1062,6	2,429
1063	1,057
1063,4	-0,543
1063,8	0,657
1064,3	-1,286
1064,7	-4,229
1065,1	-1,2
1065,5	-3,457
1065,9	-8,114
1066,3	-9,686
1066,7	-9,743
1067,1	-12,286
1067,6	-12,229
1068	-17,829
1068,4	-13,6
1068,8	-10,743
1069,2	-8,143
1069,6	-8,143
1070	-0,314
1070,4	-1,143
1070,9	2,771
1071,3	2,743
1071,7	-1,114
1072,1	-2,6
1072,5	-6,257
1072,9	-9,886
1073,3	-9,314
1073,7	-13,486
1074,2	-12,886
1074,6	-5,771
1075	-7,486
1075,4	-1,971
1075,8	-1,114
1076,2	-2,4
1076,6	3,343
1077	0,943
1077,5	0,743
1077,9	0,543
1078,3	-5,143
1078,7	-6,057
1079,1	-4,2
1079,5	-4,714
1079,9	-1,743
1080,3	-3,143
1080,7	1,571
1081,2	9,6
1081,6	9,114
1082	7,371
1082,4	14,771
1082,8	15,571
1083,2	14,4
1083,6	13,457
1084	7,886
1084,5	13,629
1084,9	13,286
1085,3	1,971
1085,7	-2,429
1086,1	-4,314
1086,5	-5,743
1086,9	-5,257
1087,3	-7,6
1087,7	-7,143
1088,2	-2,486
1088,6	-0,743
1089	1,629
1089,4	3,686
1089,8	4,743
1090,2	2,429
1090,6	1,886
1091	4,343
1091,4	3,371
1091,9	2,543
1092,3	1,914
1092,7	-1,171
1093,1	0,429
1093,5	0,114
1093,9	-4,914
1094,3	-3,257
1094,7	-4,229
1095,1	-1,771
1095,5	1,114
1096	-0,914
1096,4	1,2
1096,8	3,2
1097,2	1,257
1097,6	6,771
1098	3,343
1098,4	6,743
1098,8	8,886
1099,2	14,743
1099,6	16,2
1100,1	13,2
1100,5	7,057
1100,9	8,629
1101,3	4,229
1101,7	3,171
1102,1	0,371
1102,5	5,257
1102,9	11,8
1103,3	16,343
1103,7	16,543
1104,2	19,229
1104,6	19,857
1105	17,343
1105,4	10,857
1105,8	7,514
1106,2	3,971
1106,6	2,343
1107	-0,343
1107,4	-1,267
1107,8	-1,92
1108,3	-1,2
