Data from Subt2_148.txt Node
Date: Sat Aug 26 18:30:43 MSK 2023
User: vat
Spectrometer: MAYP114033
Trigger mode: 0
Integration Time (sec): 1,000000E0
Scans to average: 5
Electric dark correction enabled: true
Nonlinearity correction enabled: false
Boxcar width: 3
XAxis mode: Wavelengths
Number of Pixels in Spectrum: 2068
>>>>>Begin Spectral Data<<<<<
199,4	-0,183
199,9	0,947
200,4	-3,267
200,8	-4,533
201,3	-6,476
201,8	-4,419
202,2	-5,676
202,7	-2,076
203,2	-5,848
203,6	-3,19
204,1	-5,105
204,6	-2,962
205	-2,848
205,5	-0,533
206	-3,533
206,4	0,01
206,9	2,295
207,4	7,524
207,8	5,095
208,3	5,152
208,8	4,61
209,2	6,038
209,7	5,067
210,2	3,21
210,6	1,495
211,1	4,21
211,5	-0,676
212	-2,59
212,5	-6,362
212,9	-6,533
213,4	-9,733
213,9	-9,905
214,3	-9,076
214,8	-1,648
215,3	-1,676
215,7	0,124
216,2	1,21
216,7	7,781
217,1	6,838
217,6	9,324
218,1	3,924
218,5	2,238
219	-0,905
219,5	-0,419
219,9	-5,705
220,4	-0,305
220,9	-2,933
221,3	-2,99
221,8	2,752
222,3	5,867
222,7	6,267
223,2	6,324
223,6	2,438
224,1	0,067
224,6	2,238
225	-4,59
225,5	-5,133
226	-4,419
226,4	-0,619
226,9	0,324
227,4	5,867
227,8	2,581
228,3	5,352
228,8	6,381
229,2	6,61
229,7	2,695
230,2	0,324
230,6	-0,39
231,1	5,695
231,5	5,495
232	6,41
232,5	2,867
232,9	9,295
233,4	14,295
233,9	9,724
234,3	4,724
234,8	5,381
235,3	-1,733
235,7	0,295
236,2	-2,933
236,7	-7,362
237,1	-1,59
237,6	-2,476
238,1	-5,876
238,5	-3,762
239	-4,276
239,4	-0,676
239,9	0,981
240,4	-2,419
240,8	0,467
241,3	2,581
241,8	5,067
242,2	5,181
242,7	-1,362
243,2	-3,162
243,6	-9,105
244,1	-10,19
244,6	-6,333
245	-7,105
245,5	-6,162
245,9	-8,276
246,4	-7,19
246,9	0,467
247,3	2,381
247,8	1,324
248,3	4,267
248,7	0,238
249,2	4,838
249,7	4,81
250,1	0,124
250,6	-3,648
251	-3,133
251,5	-3,962
252	0,438
252,4	-0,133
252,9	-0,933
253,4	2,267
253,8	3,267
254,3	0,695
254,8	0,695
255,2	-2,448
255,7	-6,419
256,1	-4,419
256,6	-6,876
257,1	-6,39
257,5	-10,076
258	-9,505
258,5	-7,848
258,9	-3,305
259,4	-6,219
259,9	-5,59
260,3	-6,905
260,8	-4,705
261,2	-6,505
261,7	-6,248
262,2	-6,648
262,6	-8,105
263,1	-4,276
263,6	-2,876
264	-0,39
264,5	1,381
264,9	2,238
265,4	4,267
265,9	2,924
266,3	-0,933
266,8	3,038
267,3	1,295
267,7	-1,39
268,2	-1,476
268,7	-1,19
269,1	2,61
269,6	1,924
270	-0,733
270,5	0,038
271	0,638
271,4	-0,648
271,9	-7,333
272,4	-1,362
272,8	1,381
273,3	-0,59
273,7	0,552
274,2	2,181
274,7	2,895
275,1	9,495
275,6	5,21
276,1	0,381
276,5	8,667
277	8,267
277,4	7,238
277,9	7,981
278,4	6,095
278,8	6,581
279,3	11,981
279,8	5,324
280,2	5,924
280,7	9,695
281,1	7,324
281,6	8,095
282,1	7,61
282,5	5,81
283	5,638
283,4	2,01
283,9	2,638
284,4	5,41
284,8	5,838
285,3	3,295
285,8	3,438
286,2	0,495
286,7	6,467
287,1	2,181
287,6	0,01
288,1	-2,819
288,5	0,41
289	-0,819
289,5	-2,39
289,9	-5,733
290,4	-0,676
290,8	-0,219
291,3	1,124
291,8	-0,476
292,2	0,495
292,7	5,81
293,1	6,838
293,6	3,667
294,1	4,552
294,5	2,867
295	4,667
295,5	3,81
295,9	1,495
296,4	-1,619
296,8	-0,705
297,3	0,81
297,8	-1,648
298,2	-4,762
298,7	-5,076
299,1	-5,648
299,6	-6,248
300,1	-9,019
300,5	-9,562
301	-6,819
301,5	0,952
301,9	-0,305
302,4	0,238
302,8	2,524
303,3	-0,19
303,8	-8,59
304,2	-7,848
304,7	-12,733
305,1	-12,848
305,6	-10,962
306,1	-7,676
306,5	-4,448
307	5,267
307,4	7,81
307,9	5,038
308,4	4,181
308,8	2,638
309,3	-1,59
309,8	-4,705
310,2	-8,448
310,7	-11,133
311,1	-10,848
311,6	-7,419
312,1	-4,476
312,5	-2,476
313	-0,162
313,4	0,181
313,9	1,01
314,4	2,61
314,8	-3,133
315,3	-5,305
315,7	-6,448
316,2	-3,162
316,7	-5,905
317,1	-3,476
317,6	-2,276
318	6,524
318,5	4,295
319	2,01
319,4	-1,162
319,9	8,124
320,3	8,438
320,8	9,181
321,3	7,267
321,7	11,924
322,2	14,495
322,6	11,895
323,1	5,61
323,6	1,438
324	-2,219
324,5	-8,105
324,9	-9,876
325,4	-11,019
325,9	-6,019
326,3	-5,248
326,8	-3,333
327,2	-9,848
327,7	-6,962
328,2	-9,162
328,6	-5,533
329,1	-10,19
329,5	-9,476
330	-10,962
330,5	-3,762
330,9	-1,219
331,4	2,467
331,8	0,781
332,3	5,781
332,8	5,524
333,2	6,952
333,7	8,81
334,1	8,952
334,6	6,181
335,1	0,295
335,5	1,324
336	-2,705
336,4	-2,219
336,9	0,924
337,4	4,267
337,8	5,61
338,3	10,724
338,7	12,095
339,2	16,41
339,7	16,695
340,1	9,581
340,6	5,124
341	5,01
341,5	3,067
342	-2,076
342,4	-2,219
342,9	-5,333
343,3	-4,876
343,8	-7,762
344,2	-8,476
344,7	-2,362
345,2	-1,448
345,6	-4,762
346,1	0,295
346,5	-0,648
347	0,181
347,5	-0,533
347,9	0,21
348,4	4,838
348,8	6,667
349,3	3,695
349,8	4,467
350,2	8,61
350,7	4,752
351,1	5,067
351,6	3,867
352	5,781
352,5	10,638
353	18,781
353,4	20,724
353,9	33,61
354,3	38,21
354,8	45,581
355,3	61,267
355,7	70,981
356,2	88,095
356,6	105,238
357,1	124,495
357,5	148,21
358	175,438
358,5	198,638
358,9	234,381
359,4	267,895
359,8	305,81
360,3	356,752
360,8	402,267
361,2	456,724
361,7	519,01
362,1	584,781
362,6	658,924
363	742,01
363,5	818,238
364	912,724
364,4	1005,524
364,9	1097,752
365,3	1190,238
365,8	1274,838
366,3	1352,352
366,7	1425,467
367,2	1493,695
367,6	1540,667
368,1	1586,01
368,5	1610,095
369	1623,781
369,5	1631,381
369,9	1622,067
370,4	1591,495
370,8	1562,752
371,3	1509,981
371,7	1454,981
372,2	1391,41
372,7	1322,867
373,1	1252,238
373,6	1179,152
374	1104,581
374,5	1038,238
374,9	966,638
375,4	898,524
375,9	832,238
376,3	765,867
376,8	705,724
377,2	646,352
377,7	589,41
378,2	543,01
378,6	498,21
379,1	451,867
379,5	420,781
380	388,924
380,4	358,038
380,9	326,41
381,4	296,895
381,8	276,838
382,3	261,695
382,7	242,181
383,2	223,152
383,6	209,61
384,1	195,952
384,6	187,438
385	169,895
385,5	155,181
385,9	138,495
386,4	129,324
386,8	124,295
387,3	116,752
387,7	105,724
388,2	100,867
388,7	94,152
389,1	92,752
389,6	83,552
390	74,495
390,5	70,124
390,9	70,124
391,4	65,752
391,9	61,724
392,3	58,038
392,8	53,467
393,2	49,324
393,7	45,21
394,1	38,952
394,6	39,524
395,1	40,267
395,5	35,924
396	38,438
396,4	36,352
396,9	37,952
397,3	40,552
397,8	40,295
398,2	38,838
398,7	41,038
399,2	39,181
399,6	38,41
400,1	38,152
400,5	32,524
401	31,552
401,4	25,01
401,9	25,238
402,4	25,21
402,8	20,838
403,3	25,981
403,7	25,381
404,2	28,524
404,6	35,238
405,1	32,381
405,5	33,181
406	34,495
406,5	29,838
406,9	33,838
407,4	33,781
407,8	37,924
408,3	43,41
408,7	44,067
409,2	50,295
409,6	55,638
410,1	62,495
410,6	69,638
411	71,438
411,5	72,324
411,9	75,495
412,4	78,81
412,8	83,01
413,3	85,952
413,7	85,952
414,2	91,838
414,7	101,267
415,1	115,81
415,6	127,495
416	133,095
416,5	140,61
416,9	148,01
417,4	153,867
417,8	163,752
418,3	172,438
418,8	178,495
419,2	184,895
419,7	189,61
420,1	198,895
420,6	207,924
421	211,895
421,5	219,152
421,9	229,81
422,4	241,924
422,8	254,61
423,3	264,667
423,8	271,81
424,2	282,238
424,7	291,952
425,1	306,381
425,6	324,81
426	338,981
426,5	354,924
426,9	374,038
427,4	388,038
427,9	395,181
428,3	405,838
428,8	419,724
429,2	436,524
429,7	456,981
430,1	479,238
430,6	506,61
431	533,981
431,5	563,038
431,9	585,038
432,4	617,781
432,8	644,524
433,3	677,81
433,8	709,238
434,2	748,552
434,7	785,267
435,1	826,067
435,6	866,324
436	908,152
436,5	951,924
436,9	994,381
437,4	1038,724
437,8	1082,81
438,3	1131,695
438,8	1177,352
439,2	1231,952
439,7	1284,81
440,1	1346,295
440,6	1408,495
441	1468,381
441,5	1534,21
441,9	1601,867
442,4	1663,81
442,8	1732,238
443,3	1807,267
443,7	1882,238
444,2	1964,581
444,7	2044,61
445,1	2123,61
445,6	2212,467
446	2298,981
446,5	2371,838
446,9	2457,324
447,4	2546,581
447,8	2638,067
448,3	2740,667
448,7	2840,438
449,2	2943,352
449,6	3057,495
450,1	3166,124
450,6	3278,038
451	3385,067
451,5	3495,752
451,9	3611,467
452,4	3730,095
452,8	3846,01
453,3	3969,524
453,7	4093,552
454,2	4222,267
454,6	4351,324
455,1	4480,581
455,5	4601,438
456	4733,667
456,4	4853,895
456,9	4985,552
457,3	5121,181
457,8	5250,181
458,3	5389,924
458,7	5533,095
459,2	5674,038
459,6	5823,952
460,1	5966,81
460,5	6107,067
461	6261,752
461,4	6404,724
461,9	6553,981
462,3	6696,552
462,8	6843,581
463,2	6986,238
463,7	7131,352
464,1	7278,81
464,6	7421,21
465	7561,324
465,5	7711,467
466	7862,181
466,4	8009,267
466,9	8162,438
467,3	8300,238
467,8	8441,324
468,2	8593,867
468,7	8743,695
469,1	8887,467
469,6	9033,238
470	9170,895
470,5	9302,724
470,9	9441,524
471,4	9566,695
471,8	9694,152
472,3	9821,267
472,7	9947,667
473,2	10072,495
473,6	10200,181
474,1	10318,267
474,5	10440,295
475	10561,181
475,4	10677,981
475,9	10780,495
476,4	10888,552
476,8	10995,438
477,3	11101,295
477,7	11214,095
478,2	11302,724
478,6	11386,181
479,1	11479,895
479,5	11554,781
480	11640,41
480,4	11719,067
480,9	11776,524
481,3	11848,695
481,8	11924,438
482,2	11986,01
482,7	12057,638
483,1	12119,895
483,6	12174,667
484	12233,552
484,5	12287,667
484,9	12322,038
485,4	12359,724
485,8	12387,952
486,3	12407,981
486,7	12424,61
487,2	12438,924
487,6	12455,495
488,1	12473,21
488,5	12481,667
489	12503,181
489,4	12516,638
489,9	12528,952
490,4	12535,495
490,8	12523,752
491,3	12517,695
491,7	12508,21
492,2	12477,495
492,6	12453,124
493,1	12425,838
493,5	12387,695
494	12359,867
494,4	12325,695
494,9	12290,124
495,3	12261,181
495,8	12222,067
496,2	12177,552
496,7	12136,238
497,1	12094,21
497,6	12054,524
498	12007,067
498,5	11961,981
498,9	11906,724
499,4	11858,895
499,8	11808,295
500,3	11751,238
500,7	11683,467
501,2	11631,324
501,6	11561,724
502,1	11498,124
502,5	11432,667
503	11362,495
503,4	11294,581
503,9	11227,352
504,3	11159,752
504,8	11085,952
505,2	11014,438
505,7	10939,438
506,1	10870,838
506,6	10778,552
507	10695,895
507,5	10603,152
507,9	10517,095
508,4	10436,581
508,8	10352,724
509,3	10262,981
509,7	10192,495
510,2	10108,124
510,6	10021,01
511,1	9940,038
511,5	9841,61
512	9759,324
512,4	9672,752
512,9	9576,981
513,3	9491,752
513,8	9406,41
514,2	9316,981
514,7	9235,438
515,1	9141,524
515,6	9047,467
516	8947,01
516,5	8854,838
516,9	8764,581
517,4	8674,01
517,8	8581,981
518,3	8482,581
518,7	8395,524
519,2	8315,067
519,6	8227,095
520,1	8143,838
520,5	8054,667
521	7960,838
521,4	7879,352
521,9	7796,067
522,3	7709,524
522,8	7623,21
523,2	7528,124
523,7	7445,381
524,1	7365,152
524,6	7285,067
525	7196,61
525,5	7119,495
525,9	7038,867
526,4	6963,867
526,8	6884,352
527,3	6811,267
527,7	6732,067
528,2	6655,238
528,6	6582,524
529,1	6505,438
529,5	6436,21
530	6355,61
530,4	6279,895
530,9	6211,438
531,3	6140,581
531,8	6065,924
532,2	5999,695
532,6	5920,324
533,1	5853,124
533,5	5783,581
534	5710,352
534,4	5647,895
534,9	5579,41
535,3	5509,067
535,8	5446,895
536,2	5395,467
536,7	5332,581
537,1	5271,038
537,6	5209,638
538	5157,095
538,5	5103,781
538,9	5042,495
539,4	4983,038
539,8	4933,581
540,3	4880,095
540,7	4823,524
541,2	4760,438
541,6	4708,552
542,1	4663,495
542,5	4610,438
543	4552,781
543,4	4496,781
543,9	4447,867
544,3	4399,952
544,8	4338,352
545,2	4281,867
545,7	4235,581
546,1	4190,181
546,5	4148,352
547	4105,61
547,4	4068,267
547,9	4026,81
548,3	3993,038
548,8	3948,895
549,2	3910,667
549,7	3875,552
550,1	3838,552
550,6	3794,295
551	3757,181
551,5	3719,381
551,9	3681,495
552,4	3641,581
552,8	3600,124
553,3	3557,467
553,7	3515,267
554,2	3482,038
554,6	3443,267
555,1	3408,01
555,5	3373,752
555,9	3345,095
556,4	3307,981
556,8	3282,981
557,3	3252,438
557,7	3223,524
558,2	3191,41
558,6	3160,752
559,1	3119,638
559,5	3094,952
560	3063,581
560,4	3038,61
560,9	3009,01
561,3	2979,467
561,8	2950,61
562,2	2927,438
562,7	2903,181
563,1	2875,381
563,6	2838,61
564	2814,381
564,4	2785,838
564,9	2759,524
565,3	2738,781
565,8	2711,381
566,2	2689,438
566,7	2667,667
567,1	2641,495
567,6	2620,495
568	2598,438
568,5	2576,124
568,9	2553,238
569,4	2532,695
569,8	2512,952
570,3	2487,267
570,7	2460,152
571,1	2444,124
571,6	2419,895
572	2398,238
572,5	2373,667
572,9	2353,124
573,4	2337,41
573,8	2327,895
574,3	2299,295
574,7	2281,552
575,2	2259,81
575,6	2238,152
576,1	2222,324
576,5	2206,21
576,9	2181,152
577,4	2164,038
577,8	2143,324
578,3	2126,438
578,7	2110,838
579,2	2097,581
579,6	2077,781
580,1	2060,467
580,5	2045,124
581	2030,981
581,4	2015,21
581,9	1997,067
582,3	1970,61
582,7	1954,124
583,2	1941,381
583,6	1926,895
584,1	1912,41
584,5	1897,838
585	1879,552
585,4	1866,181
585,9	1849,581
586,3	1838,295
586,8	1825,238
587,2	1806,952
587,6	1796,81
588,1	1793,124
588,5	1781,467
589	1772,638
589,4	1750,524
589,9	1736,781
590,3	1722,095
590,8	1707,41
591,2	1694,067
591,7	1685,838
592,1	1670,038
592,5	1664,524
593	1653,467
593,4	1645,324
593,9	1632,038
594,3	1619,267
594,8	1602,495
595,2	1588,924
595,7	1575,524
596,1	1561,924
596,6	1553,124
597	1543,552
597,4	1532,381
597,9	1528,152
598,3	1525,81
598,8	1519,152
599,2	1509,495
599,7	1498,381
600,1	1487,181
600,6	1477,095
601	1465,01
601,4	1460,724
601,9	1451,352
602,3	1446,667
602,8	1434,41
603,2	1424,838
603,7	1409,952
604,1	1403,352
604,6	1386,467
605	1371,152
605,4	1364,438
605,9	1355,181
606,3	1342,21
606,8	1337,467
607,2	1323,324
607,7	1308,552
608,1	1303,095
608,6	1291,981
609	1291,81
609,4	1288,781
609,9	1275,324
610,3	1265,781
610,8	1261,61
611,2	1248,381
611,7	1235,21
612,1	1220,867
612,6	1216,01
613	1211,838
613,4	1202,61
613,9	1191,238
614,3	1183,552
614,8	1182,181
615,2	1175,581
615,7	1168,152
616,1	1167,867
616,6	1159,01
617	1150,41
617,4	1142,552
617,9	1136,467
618,3	1130,781
618,8	1120,381
619,2	1104,124
619,7	1104,21
620,1	1102,61
620,5	1107,952
621	1093,752
621,4	1084,552
621,9	1075,981
622,3	1073,01
622,8	1060,781
623,2	1051,238
623,6	1037,524
624,1	1035,124
624,5	1026,181
625	1024,095
625,4	1018,21
625,9	1011,924
626,3	1008,324
626,8	999,581
627,2	988,438
627,6	979,724
628,1	963,667
628,5	956,981
629	946,752
629,4	936,381
629,9	931,838
630,3	921,524
630,7	913,467
631,2	911,467
631,6	904,781
632,1	904,181
632,5	897,552
633	891,924
633,4	890,638
633,8	890,038
634,3	882,295
634,7	873,438
635,2	863,924
635,6	857,981
636,1	851,724
636,5	844,267
636,9	836,01
637,4	830,752
637,8	823,41
638,3	815,181
638,7	808,952
639,2	801,267
639,6	799,067
640	794,838
640,5	790,81
640,9	788,267
641,4	785,467
641,8	781,038
642,2	776,352
642,7	770,038
643,1	766,124
643,6	762,038
644	756,867
644,5	756,21
644,9	750,181
645,3	745,21
645,8	735,324
646,2	738,495
646,7	731,781
647,1	725,324
647,6	722,267
648	721,638
648,4	716,61
648,9	715,695
649,3	699,61
649,8	698,238
650,2	696,952
650,6	691,467
651,1	682,067
651,5	679,781
652	673,038
652,4	669,81
652,9	664,124
653,3	662,152
653,7	655,067
654,2	655,867
654,6	649,181
655,1	649,838
655,5	653,181
655,9	646,381
656,4	635,752
656,8	630,267
657,3	625,838
657,7	627,467
658,2	620,152
658,6	608,324
659	602,695
659,5	600,038
659,9	595,01
660,4	590,867
660,8	583,324
661,2	579,124
661,7	575,124
662,1	573,41
662,6	574,124
663	570,295
663,4	562,552
663,9	561,781
664,3	559,438
664,8	552,295
665,2	549,324
665,6	536,267
666,1	536,267
666,5	536,981
667	531,724
667,4	525,895
667,9	528,095
668,3	522,695
668,7	522,495
669,2	522,667
669,6	518,152
670,1	511,352
670,5	507,324
670,9	504,352
671,4	502,552
671,8	501,667
672,3	500,267
672,7	497,781
673,1	492,724
673,6	496,238
674	490,438
674,5	487,895
674,9	480,61
675,3	471,524
675,8	465,952
676,2	462,867
676,7	452,895
677,1	451,61
677,5	442,524
678	441,067
678,4	439,981
678,9	437,01
679,3	432,41
679,7	430,124
680,2	420,41
680,6	416,752
681,1	414,181
681,5	412,381
681,9	411,781
682,4	411,238
682,8	410,352
683,3	414,981
683,7	417,038
684,1	415,438
684,6	408,838
685	404,638
685,5	401,552
685,9	392,381
686,3	384,781
686,8	382,638
687,2	380,181
687,7	377,895
688,1	371,752
688,5	372,524
689	377,61
689,4	375,124
689,9	372,41
690,3	365,952
690,7	363,81
691,2	366,181
691,6	364,695
692	356,895
692,5	357,638
692,9	359,267
693,4	357,152
693,8	352,724
694,2	345,981
694,7	338,724
695,1	336,467
695,6	336,981
696	332,724
696,4	334,181
696,9	329,324
697,3	325,467
697,8	326,61
698,2	326,038
698,6	321,695
699,1	316,552
699,5	314,067
699,9	318,438
700,4	316,724
700,8	313,924
701,3	311,295
701,7	303,81
702,1	297,467
702,6	297,781
703	294,124
703,5	295,124
703,9	290,581
704,3	292,438
704,8	291,21
705,2	292,81
705,6	289,21
706,1	284,41
706,5	277,495
707	277,667
707,4	275,41
707,8	270,181
708,3	270,267
708,7	271,552
709,2	271,267
709,6	273,238
710	272,867
710,5	266,41
710,9	270,867
711,3	268,295
711,8	265,467
712,2	260,724
712,7	257,438
713,1	256,352
713,5	257,524
714	257,495
714,4	256,781
714,8	252,952
715,3	249,295
715,7	248,695
716,2	242,381
716,6	242,495
717	232,667
717,5	227,067
717,9	227,095
718,3	227,952
718,8	227,095
719,2	226,61
719,7	220,124
720,1	226,267
720,5	231,038
721	223,724
721,4	224,838
721,8	226,924
722,3	221,438
722,7	225,095
723,2	219,781
723,6	207,238
724	208,41
724,5	202,124
724,9	195,181
725,3	194,152
725,8	191,295
726,2	190,552
726,7	194,152
727,1	191,238
727,5	191,067
728	186,181
728,4	188,838
728,8	184,381
729,3	181,838
729,7	178,181
730,1	178,381
730,6	180,295
731	182,467
731,5	182,352
731,9	182,41
732,3	183,695
732,8	186,067
733,2	184,695
733,6	179,667
734,1	180,867
734,5	176,41
734,9	175,981
735,4	177,981
735,8	172,581
736,3	173,467
736,7	174,981
737,1	175,267
737,6	176,695
738	174,467
738,4	167,381
738,9	169,352
739,3	167,01
739,7	168,038
740,2	163,581
740,6	166,781
741,1	169,981
741,5	166,952
741,9	168,952
742,4	169,981
742,8	166,524
743,2	166,61
743,7	157,152
744,1	148,752
744,5	147,695
745	142,038
745,4	137,438
745,8	136,181
746,3	133,267
746,7	133,952
747,2	135,238
747,6	139,467
748	144,724
748,5	145,867
748,9	142,067
749,3	140,324
749,8	141,181
750,2	141,181
750,6	135,781
751,1	133,924
751,5	131,781
751,9	134,324
752,4	135,981
752,8	134,438
753,3	133,01
753,7	139,495
754,1	134,524
754,6	131,038
755	126,838
755,4	125,981
755,9	124,038
756,3	125,552
756,7	120,61
757,2	123,467
757,6	125,695
758	128,552
758,5	128,124
758,9	127,524
759,3	127,124
759,8	128,238
760,2	124,867
760,6	123,524
761,1	120,981
761,5	117,552
761,9	117,238
762,4	114,438
762,8	111,724
763,3	109,81
763,7	109,21
764,1	108,21
764,6	110,581
765	111,895
765,4	109,838
765,9	111,295
766,3	112,838
766,7	108,638
767,2	105,295
767,6	106,724
768	103,895
768,5	104,81
768,9	101,695
769,3	100,695
769,8	103,352
770,2	107,124
770,6	99,495
771,1	102,41
771,5	102,638
771,9	104,21
772,4	102,867
772,8	99,41
773,2	96,067
773,7	96,295
774,1	96,524
774,5	89,867
775	84,067
775,4	87,495
775,8	88,038
776,3	91,495
776,7	93,381
777,1	90,867
777,6	99,038
778	103,038
778,4	96,295
778,9	95,638
779,3	93,324
779,7	92,524
780,2	90,124
780,6	85,324
781	84,952
781,5	84,838
781,9	89,752
782,3	82,438
782,8	81,467
783,2	79,781
783,6	85,895
784,1	79,524
784,5	82,495
784,9	78,21
785,4	87,924
785,8	89,381
786,2	92,152
786,7	84,867
787,1	86,81
787,5	85,695
788	84,352
788,4	80,752
788,8	81,438
789,3	80,667
789,7	82,038
790,1	83,495
790,6	83,781
791	78,41
791,4	79,238
791,9	72,552
792,3	67,095
792,7	70,181
793,2	65,61
793,6	62,638
794	68,41
794,5	63,867
794,9	69,352
795,3	75,095
795,8	68,838
796,2	70,895
796,6	71,581
797,1	70,61
797,5	69,152
797,9	67,838
798,4	58,524
798,8	58,467
799,2	59,238
799,7	61,038
800,1	57,381
800,5	62,238
801	64,581
801,4	71,581
801,8	68,095
802,2	66,695
802,7	59,695
803,1	63,81
803,5	60,152
804	54,752
804,4	52,095
804,8	54,095
805,3	55,695
805,7	58,981
806,1	55,552
806,6	56,295
807	54,467
807,4	53,438
807,9	48,952
808,3	50,695
808,7	51,181
809,2	55,61
809,6	55,981
810	61,295
810,4	59,724
810,9	66,438
811,3	66,324
811,7	65,381
812,2	70,124
812,6	65,924
813	68,467
813,5	70,638
813,9	67,438
814,3	63,495
814,8	62,067
815,2	52,067
815,6	55,152
816,1	51,467
816,5	52,038
816,9	53,095
817,3	52,552
817,8	57,781
818,2	57,752
818,6	52,838
819,1	47,838
819,5	43,781
819,9	42,581
820,4	41,467
820,8	36,438
821,2	35,467
821,7	40,81
822,1	47,724
822,5	54,181
822,9	53,467
823,4	53,552
823,8	55,495
824,2	58,867
824,7	56,267
825,1	48,752
825,5	39,067
826	37,238
826,4	37,81
826,8	36,581
827,3	36,438
827,7	35,267
828,1	37,124
828,5	41,524
829	39,438
829,4	37,838
829,8	32,924
830,3	31,81
830,7	28,952
831,1	28,352
831,6	29,41
832	33,324
832,4	32,238
832,8	37,124
833,3	35,61
833,7	36,467
834,1	35,838
834,6	33,267
835	34,781
835,4	37,124
835,8	31,095
836,3	28,124
836,7	34,781
837,1	34,81
837,6	39,324
838	33,352
838,4	35,581
838,9	37,524
839,3	38,238
839,7	33,152
840,1	30,267
840,6	25,267
841	27,324
841,4	21,61
841,9	24,41
842,3	25,41
842,7	26,495
843,1	31,524
843,6	34,667
844	35,924
844,4	42,495
844,9	42,924
845,3	43,21
845,7	40,181
846,2	35,21
846,6	30,695
847	31,267
847,4	29,21
847,9	27,724
848,3	25,152
848,7	26,981
849,2	25,838
849,6	25,81
850	30,038
850,4	24,467
850,9	25,524
851,3	27,152
851,7	29,381
852,2	33,381
852,6	35,61
853	30,095
853,4	29,495
853,9	23,981
854,3	26,295
854,7	27,495
855,2	23,524
855,6	24,495
856	28,095
856,4	27,81
856,9	30,81
857,3	29,181
857,7	26,524
858,2	32,467
858,6	29,638
859	25,495
859,4	28,952
859,9	29,752
860,3	26,267
860,7	26,267
861,1	23,61
861,6	21,695
862	21,61
862,4	23,238
862,9	21,467
863,3	25,667
863,7	22,495
864,1	23,924
864,6	23,781
865	24,41
865,4	21,238
865,9	21,81
866,3	18,867
866,7	16,752
867,1	12,952
867,6	15,752
868	15,067
868,4	14,838
868,8	18,01
869,3	16,438
869,7	23,21
870,1	20,038
870,6	18,667
871	18,524
871,4	18,752
871,8	14,295
872,3	16,61
872,7	15,981
873,1	21,838
873,5	24,752
874	18,752
874,4	19,267
874,8	19,324
875,3	21,524
875,7	19,581
876,1	17,61
876,5	14,895
877	19,295
877,4	13,752
877,8	15,781
878,2	15,867
878,7	18,324
879,1	18,152
879,5	16,695
879,9	19,695
880,4	22,781
880,8	20,124
881,2	15,552
881,7	10,152
882,1	9,01
882,5	7,524
882,9	6,61
883,4	7,638
883,8	10,924
884,2	12,467
884,6	13,295
885,1	16,552
885,5	21,581
885,9	15,524
886,3	17,895
886,8	12,695
887,2	13,152
887,6	11,981
888	10,467
888,5	7,667
888,9	10,924
889,3	8,438
889,8	11,095
890,2	8,581
890,6	6,752
891	5,781
891,5	6,21
891,9	8,752
892,3	8,952
892,7	8,781
893,2	12,01
893,6	14,01
894	17,867
894,4	14,724
894,9	13,038
895,3	15,067
895,7	15,81
896,1	13,181
896,6	10,81
897	7,238
897,4	14,495
897,8	17,924
898,3	16,181
898,7	15,267
899,1	15,467
899,5	15,324
900	12,781
900,4	8,381
900,8	4,01
901,2	1,61
901,7	-0,133
902,1	0,495
902,5	6,295
902,9	5,495
903,4	7,324
903,8	8,467
904,2	8,981
904,6	12,01
905,1	11,21
905,5	7,152
905,9	14,324
906,3	17,381
906,8	19,01
907,2	17,467
907,6	18,81
908	18,238
908,5	15,467
908,9	7,095
909,3	1,467
909,7	2,638
910,2	4,438
910,6	6,524
911	2,238
911,4	6,038
911,9	8,61
912,3	7,524
912,7	7,152
913,1	7,295
913,6	-1,619
914	4,467
914,4	-0,419
914,8	1,524
915,3	-0,19
915,7	-2,019
916,1	-2,276
916,5	-1,333
916,9	-2,333
917,4	0,838
917,8	-0,305
918,2	-2,676
918,6	-7,219
919,1	-5,105
919,5	1,381
919,9	1,724
920,3	3,61
920,8	1,352
921,2	6,01
921,6	7,381
922	4,095
922,5	1,895
922,9	3,295
923,3	1,61
923,7	1,924
924,2	1,124
924,6	4,638
925	10,552
925,4	6,267
925,8	3,724
926,3	3,438
926,7	3,552
927,1	4,524
927,5	1,61
928	-4,648
928,4	-3,79
928,8	-3,705
929,2	-4,419
929,7	-3,305
930,1	-5,048
930,5	-4,648
930,9	0,895
931,3	4,695
931,8	5,952
932,2	5,152
932,6	2,867
933	1,21
933,5	1,81
933,9	-1,076
934,3	-1,39
934,7	-2,705
935,2	0,267
935,6	1,724
936	6,352
936,4	8,381
936,8	11,638
937,3	10,181
937,7	11,067
938,1	13,438
938,5	9,238
939	6,352
939,4	2,524
939,8	-1,162
940,2	-4,076
940,6	-3,819
941,1	-6,162
941,5	-1,762
941,9	-1,99
942,3	1,038
942,8	-2,133
943,2	1,352
943,6	-1,39
944	1,038
944,4	1,438
944,9	1,438
945,3	-0,876
945,7	-1,048
946,1	-4,733
946,6	-4,79
947	-7,762
947,4	-5,733
947,8	-1,79
948,2	-1,505
948,7	3,324
949,1	4,067
949,5	10,467
949,9	8,524
950,3	6,81
950,8	3,181
951,2	0,038
951,6	-1,076
952	3,381
952,5	-3,076
952,9	-1,419
953,3	-1,448
953,7	-3,105
954,1	3,867
954,6	4,752
955	8,124
955,4	7,667
955,8	11,467
956,2	10,695
956,7	15,295
957,1	9,752
957,5	8,124
957,9	4,438
958,3	5,038
958,8	4,638
959,2	5,61
959,6	6,352
960	10,381
960,5	12,781
960,9	13,295
961,3	13,524
961,7	11,238
962,1	12,381
962,6	11,752
963	7,981
963,4	3,495
963,8	4,895
964,2	4,581
964,7	3,924
965,1	5,067
965,5	4,524
965,9	6,895
966,3	12,867
966,8	10,067
967,2	8,752
967,6	8,838
968	5,638
968,4	3,667
968,9	-0,248
969,3	-1,276
969,7	-3,19
970,1	0,895
970,5	-2,076
971	5,467
971,4	8,295
971,8	16,038
972,2	16,752
972,6	17,552
973,1	15,552
973,5	19,324
973,9	13,181
974,3	8,724
974,7	11,352
975,2	11,524
975,6	9,667
976	13,067
976,4	10,752
976,8	11,838
977,3	10,467
977,7	0,495
978,1	-6,448
978,5	-10,333
978,9	-14,962
979,4	-14,19
979,8	-17,619
980,2	-15,705
980,6	-15,562
981	-9,448
981,5	-5,733
981,9	-2,105
982,3	-1,676
982,7	1,81
983,1	4,438
983,6	6,152
984	5,61
984,4	9,124
984,8	6,752
985,2	6,067
985,6	2,495
986,1	5,095
986,5	6,924
986,9	4,238
987,3	3,438
987,7	1,324
988,2	-1,99
988,6	-0,79
989	-5,162
989,4	-5,905
989,8	-6,733
990,3	-10,619
990,7	-7,762
991,1	-4,276
991,5	-2,562
991,9	-1,048
992,3	0,352
992,8	0,981
993,2	2,324
993,6	0,695
994	0,895
994,4	2,038
994,9	-0,79
995,3	-2,219
995,7	-2,705
996,1	-2,562
996,5	-5,819
996,9	-8,362
997,4	-9,133
997,8	-10,99
998,2	-13,59
998,6	-21,876
999	-20,648
999,5	-18,819
999,9	-15,648
1000,3	-19,733
1000,7	-14,276
1001,1	-13,79
1001,5	-5,39
1002	-2,905
1002,4	1,581
1002,8	-1,219
1003,2	4,267
1003,6	3,21
1004	11,695
1004,5	10,324
1004,9	7,838
1005,3	4,724
1005,7	11,552
1006,1	8,838
1006,6	3,638
1007	-1,876
1007,4	-1,076
1007,8	0,01
1008,2	0,152
1008,6	-3,162
1009,1	-6,333
1009,5	-0,39
1009,9	3,895
1010,3	2,124
1010,7	-1,99
1011,1	-0,333
1011,6	-0,619
1012	1,867
1012,4	-2,133
1012,8	-7,99
1013,2	-3,962
1013,6	-0,362
1014,1	-0,848
1014,5	0,152
1014,9	-0,733
1015,3	-0,076
1015,7	1,638
1016,1	5,295
1016,6	5,295
1017	9,867
1017,4	7,152
1017,8	10,838
1018,2	12,41
1018,6	6,781
1019,1	1,867
1019,5	1,324
1019,9	-3,619
1020,3	-2,162
1020,7	-3,333
1021,1	-3,905
1021,6	-1,733
1022	-0,99
1022,4	-1,705
1022,8	-0,676
1023,2	-1,276
1023,6	-3,933
1024,1	-0,762
1024,5	0,467
1024,9	-6,305
1025,3	-4,19
1025,7	-4,905
1026,1	-1,448
1026,6	-0,19
1027	-3,762
1027,4	-0,962
1027,8	2,181
1028,2	-1,19
1028,6	3,438
1029	-3,19
1029,5	0,467
1029,9	-0,276
1030,3	-5,076
1030,7	0,695
1031,1	4,381
1031,5	-1,019
1032	0,324
1032,4	-5,59
1032,8	-0,99
1033,2	2,952
1033,6	0,238
1034	-0,79
1034,4	-2,333
1034,9	-0,019
1035,3	-0,533
1035,7	-3,648
1036,1	-8,962
1036,5	-8,276
1036,9	-6,848
1037,4	-1,619
1037,8	-3,219
1038,2	0,238
1038,6	5,724
1039	17,352
1039,4	20,324
1039,8	10,324
1040,3	8,038
1040,7	8,552
1041,1	9,238
1041,5	7,724
1041,9	-3,305
1042,3	-7,305
1042,7	2,467
1043,2	3,41
1043,6	2,781
1044	4,667
1044,4	-1,19
1044,8	2,01
1045,2	5,752
1045,6	4,61
1046,1	4,381
1046,5	6,01
1046,9	-1,705
1047,3	2,324
1047,7	2,552
1048,1	-3,133
1048,5	-6,505
1049	-8,19
1049,4	-5,59
1049,8	-2,019
1050,2	-0,076
1050,6	3,552
1051	4,981
1051,4	5,952
1051,9	2,81
1052,3	5,438
1052,7	4,495
1053,1	-0,819
1053,5	-1,248
1053,9	1,067
1054,3	0,41
1054,8	8,467
1055,2	4,181
1055,6	6,838
1056	8,61
1056,4	3,267
1056,8	3,038
1057,2	4,324
1057,6	-3,905
1058,1	-4,848
1058,5	-6,819
1058,9	-3,99
1059,3	-0,133
1059,7	-1,476
1060,1	-1,333
1060,5	1,295
1061	2,495
1061,4	5,038
1061,8	3,21
1062,2	-2,162
1062,6	1,667
1063	2,981
1063,4	2,352
1063,8	-0,905
1064,3	-5,19
1064,7	-6,248
1065,1	-1,933
1065,5	-6,676
1065,9	-5,448
1066,3	-4,648
1066,7	-4,162
1067,1	-3,476
1067,6	-2,876
1068	-4,362
1068,4	-1,619
1068,8	-1,562
1069,2	-1,219
1069,6	-0,848
1070	-0,619
1070,4	-0,733
1070,9	0,924
1071,3	-0,448
1071,7	-7,333
1072,1	-8,676
1072,5	-8,533
1072,9	-6,619
1073,3	-6,362
1073,7	-6,019
1074,2	-4,333
1074,6	2,467
1075	4,01
1075,4	7,781
1075,8	11,981
1076,2	16,038
1076,6	14,267
1077	14,41
1077,5	15,124
1077,9	11,552
1078,3	10,152
1078,7	5,581
1079,1	-0,619
1079,5	1,438
1079,9	0,667
1080,3	-0,79
1080,7	4,352
1081,2	4,21
1081,6	4,067
1082	4,01
1082,4	5,724
1082,8	4,267
1083,2	0,838
1083,6	2,61
1084	-1,762
1084,5	0,324
1084,9	-1,162
1085,3	-8,305
1085,7	-7,762
1086,1	-5,619
1086,5	-6,933
1086,9	-1,419
1087,3	-1,448
1087,7	1,61
1088,2	6,181
1088,6	0,61
1089	0,467
1089,4	-2,105
1089,8	-2,076
1090,2	-4,219
1090,6	-3,19
1091	-3,419
1091,4	3,095
1091,9	3,038
1092,3	5,238
1092,7	2,095
1093,1	3,181
1093,5	1,467
1093,9	-0,505
1094,3	0,124
1094,7	-1,19
1095,1	-0,162
1095,5	0,667
1096	-1,333
1096,4	-3,019
1096,8	-4,39
1097,2	-6,305
1097,6	-0,305
1098	-3,162
1098,4	0,01
1098,8	3,924
1099,2	11,81
1099,6	15,324
1100,1	14,352
1100,5	6,781
1100,9	7,238
1101,3	5,295
1101,7	-0,248
1102,1	-4,533
1102,5	-2,505
1102,9	-1,019
1103,3	3,438
1103,7	1,895
1104,2	-0,762
1104,6	3,895
1105	3,01
1105,4	2,352
1105,8	1,638
1106,2	0,352
1106,6	1,952
1107	3,124
1107,4	1,733
1107,8	2,227
1108,3	-0,533
