Data from Subt2_060.txt Node
Date: Sat Aug 26 16:31:09 MSK 2023
User: vat
Spectrometer: MAYP114033
Trigger mode: 0
Integration Time (sec): 1,000000E0
Scans to average: 5
Electric dark correction enabled: true
Nonlinearity correction enabled: false
Boxcar width: 3
XAxis mode: Wavelengths
Number of Pixels in Spectrum: 2068
>>>>>Begin Spectral Data<<<<<
199,4	-0,083
199,9	3,287
200,4	-0,133
200,8	-0,748
201,3	1,595
201,8	3,024
202,2	4,795
202,7	5,595
203,2	4,395
203,6	7,281
204,1	7,052
204,6	8,338
205	9,795
205,5	8,338
206	6,681
206,4	7,195
206,9	8,452
207,4	14,71
207,8	9,252
208,3	8,538
208,8	11,481
209,2	14,624
209,7	13,767
210,2	16,538
210,6	9,567
211,1	10,652
211,5	11,481
212	4,995
212,5	2,424
212,9	2,367
213,4	1,338
213,9	1,652
214,3	1,938
214,8	-0,919
215,3	1,167
215,7	-1,948
216,2	0,452
216,7	-4,005
217,1	-2,548
217,6	1,624
218,1	4,652
218,5	5,938
219	14,738
219,5	11,595
219,9	13,91
220,4	16,11
220,9	12,51
221,3	9,195
221,8	9,795
222,3	5,938
222,7	5,138
223,2	6,652
223,6	0,938
224,1	1,91
224,6	3,938
225	4,138
225,5	12,138
226	13,795
226,4	11,624
226,9	14,995
227,4	13,31
227,8	14,281
228,3	18,538
228,8	8,967
229,2	6,595
229,7	5,367
230,2	11,767
230,6	11,052
231,1	11,224
231,5	9,967
232	18,052
232,5	20,91
232,9	20,367
233,4	15,338
233,9	17,624
234,3	17,024
234,8	15,024
235,3	12,824
235,7	14,11
236,2	15,024
236,7	14,081
237,1	15,167
237,6	12,338
238,1	10,881
238,5	8,167
239	6,338
239,4	8,767
239,9	7,681
240,4	6,224
240,8	9,767
241,3	7,081
241,8	2,138
242,2	0,052
242,7	-1,433
243,2	0,51
243,6	1,31
244,1	-2,69
244,6	-3,319
245	-0,319
245,5	0,681
245,9	2,081
246,4	3,338
246,9	4,252
247,3	7,281
247,8	10,595
248,3	17,195
248,7	21,252
249,2	17,538
249,7	14,052
250,1	10,681
250,6	7,367
251	6,938
251,5	-1,148
252	-3,519
252,4	1,452
252,9	2,852
253,4	4,195
253,8	5,167
254,3	6,081
254,8	5,938
255,2	5,31
255,7	5,538
256,1	-2,09
256,6	-1,205
257,1	2,138
257,5	5,567
258	8,367
258,5	10,452
258,9	9,452
259,4	19,31
259,9	21,052
260,3	14,938
260,8	10,824
261,2	13,995
261,7	11,91
262,2	9,052
262,6	10,052
263,1	7,481
263,6	14,624
264	11,767
264,5	9,624
264,9	6,31
265,4	5,281
265,9	5,995
266,3	8,481
266,8	3,51
267,3	7,481
267,7	3,252
268,2	6,052
268,7	6,824
269,1	4,31
269,6	1,51
270	9,71
270,5	10,338
271	12,31
271,4	9,995
271,9	12,481
272,4	10,338
272,8	8,624
273,3	1,795
273,7	-2,919
274,2	-1,233
274,7	4,824
275,1	-2,633
275,6	2,052
276,1	4,195
276,5	6,024
277	9,538
277,4	7,738
277,9	0,338
278,4	9,595
278,8	7,938
279,3	5,624
279,8	5,51
280,2	3,138
280,7	2,995
281,1	10,424
281,6	7,281
282,1	6,938
282,5	12,795
283	10,167
283,4	15,452
283,9	15,024
284,4	8,967
284,8	5,795
285,3	3,767
285,8	-1,09
286,2	-1,833
286,7	-9,433
287,1	-11,233
287,6	-5,919
288,1	1,052
288,5	5,481
289	7,138
289,5	6,738
289,9	9,681
290,4	13,91
290,8	12,481
291,3	6,538
291,8	5,452
292,2	7,367
292,7	11,11
293,1	14,51
293,6	14,995
294,1	11,652
294,5	15,338
295	12,595
295,5	15,195
295,9	16,424
296,4	14,938
296,8	12,624
297,3	16,738
297,8	11,995
298,2	10,538
298,7	4,624
299,1	2,595
299,6	4,367
300,1	8,338
300,5	9,11
301	13,567
301,5	14,481
301,9	15,567
302,4	15,767
302,8	12,681
303,3	8,767
303,8	5,91
304,2	2,252
304,7	1,052
305,1	2,681
305,6	0,167
306,1	0,824
306,5	1,652
307	-1,633
307,4	-2,519
307,9	-2,49
308,4	-3,748
308,8	1,795
309,3	3,824
309,8	2,738
310,2	3,052
310,7	13,167
311,1	9,167
311,6	6,281
312,1	6,938
312,5	5,967
313	5,91
313,4	10,395
313,9	5,281
314,4	8,452
314,8	14,167
315,3	8,024
315,7	7,767
316,2	7,395
316,7	8,224
317,1	8,252
317,6	8,481
318	9,024
318,5	13,71
319	15,481
319,4	16,367
319,9	13,795
320,3	14,224
320,8	15,738
321,3	9,881
321,7	5,681
322,2	5,624
322,6	4,081
323,1	3,852
323,6	0,052
324	-1,748
324,5	-1,176
324,9	0,11
325,4	-1,948
325,9	2,624
326,3	3,852
326,8	3,852
327,2	9,738
327,7	13,824
328,2	13,881
328,6	16,538
329,1	9,452
329,5	10,538
330	12,881
330,5	9,081
330,9	7,738
331,4	2,824
331,8	2,281
332,3	7,795
332,8	6,652
333,2	7,852
333,7	11,881
334,1	11,224
334,6	17,024
335,1	18,195
335,5	17,824
336	11,395
336,4	9,024
336,9	9,738
337,4	11,195
337,8	12,052
338,3	9,452
338,7	7,224
339,2	17,224
339,7	19,824
340,1	15,938
340,6	12,281
341	14,281
341,5	17,11
342	17,424
342,4	15,767
342,9	10,738
343,3	12,652
343,8	15,852
344,2	13,995
344,7	10,567
345,2	7,481
345,6	10,652
346,1	16,195
346,5	15,138
347	16,995
347,5	12,795
347,9	12,51
348,4	14,024
348,8	8,195
349,3	9,424
349,8	7,681
350,2	3,367
350,7	10,11
351,1	8,395
351,6	14,51
352	26,51
352,5	30,338
353	39,852
353,4	52,91
353,9	59,481
354,3	75,795
354,8	80,881
355,3	88,567
355,7	105,11
356,2	119,452
356,6	141,824
357,1	167,195
357,5	192,681
358	234,338
358,5	274,938
358,9	317,281
359,4	366,824
359,8	417,91
360,3	475,538
360,8	541,938
361,2	613,481
361,7	687,024
362,1	771,052
362,6	870,624
363	974,624
363,5	1091,424
364	1209,138
364,4	1323,167
364,9	1444,995
365,3	1567,567
365,8	1673,995
366,3	1777,738
366,7	1867,624
367,2	1940,395
367,6	2013,71
368,1	2065,11
368,5	2096,824
369	2115,824
369,5	2117,11
369,9	2097,452
370,4	2071,195
370,8	2024,795
371,3	1969,767
371,7	1896,681
372,2	1821,567
372,7	1727,424
373,1	1638,624
373,6	1548,71
374	1446,195
374,5	1346,31
374,9	1255,224
375,4	1164,767
375,9	1083,31
376,3	1004,652
376,8	925,938
377,2	861,138
377,7	792,995
378,2	727,881
378,6	668,224
379,1	612,624
379,5	562,052
380	520,595
380,4	476,852
380,9	444,652
381,4	413,338
381,8	380,252
382,3	352,195
382,7	322,967
383,2	293,395
383,6	274,252
384,1	254,738
384,6	233,852
385	218,281
385,5	207,224
385,9	198,424
386,4	190,738
386,8	184,824
387,3	169,881
387,7	163,195
388,2	155,452
388,7	146,081
389,1	129,652
389,6	119,967
390	106,367
390,5	98,795
390,9	95,738
391,4	92,595
391,9	86,852
392,3	84,052
392,8	82,424
393,2	75,938
393,7	75,51
394,1	76,538
394,6	72,567
395,1	69,424
395,5	69,395
396	67,51
396,4	68,481
396,9	68,567
397,3	59,167
397,8	55,367
398,2	54,052
398,7	51,824
399,2	47,71
399,6	48,11
400,1	40,624
400,5	43,224
401	46,338
401,4	48,567
401,9	51,195
402,4	51,624
402,8	49,367
403,3	54,138
403,7	50,995
404,2	50,938
404,6	48,167
405,1	46,938
405,5	46,338
406	47,31
406,5	48,424
406,9	46,881
407,4	42,338
407,8	43,595
408,3	44,138
408,7	50,595
409,2	51,967
409,6	50,967
410,1	58,338
410,6	63,881
411	66,51
411,5	69,767
411,9	63,91
412,4	64,624
412,8	64,767
413,3	61,71
413,7	63,51
414,2	68,11
414,7	71,424
415,1	73,538
415,6	78,881
416	82,11
416,5	86,338
416,9	84,71
417,4	84,395
417,8	82,167
418,3	87,795
418,8	84,138
419,2	86,795
419,7	93,51
420,1	95,281
420,6	95,338
421	100,824
421,5	96,738
421,9	97,795
422,4	99,052
422,8	90,652
423,3	93,881
423,8	97,052
424,2	98,367
424,7	100,967
425,1	103,967
425,6	104,367
426	109,595
426,5	108,881
426,9	108,31
427,4	107,738
427,9	107,71
428,3	108,224
428,8	111,167
429,2	107,452
429,7	105,452
430,1	107,167
430,6	105,738
431	106,795
431,5	105,052
431,9	104,481
432,4	107,852
432,8	111,995
433,3	111,795
433,8	116,738
434,2	121,252
434,7	126,538
435,1	129,31
435,6	140,31
436	144,652
436,5	151,91
436,9	155,11
437,4	161,395
437,8	163,595
438,3	170,052
438,8	166,51
439,2	170,51
439,7	172,595
440,1	176,224
440,6	182,795
441	190,795
441,5	195,967
441,9	210,767
442,4	225,167
442,8	237,167
443,3	247,081
443,7	249,424
444,2	259,481
444,7	270,795
445,1	277,595
445,6	279,71
446	288,567
446,5	303,767
446,9	319,71
447,4	334,395
447,8	347,452
448,3	361,338
448,7	376,738
449,2	389,795
449,6	397,395
450,1	419,081
450,6	438,767
451	449,024
451,5	463,795
451,9	480,91
452,4	502,252
452,8	527,567
453,3	536,767
453,7	551,252
454,2	574,652
454,6	598,938
455,1	619,881
455,5	639,995
456	661,281
456,4	686,081
456,9	703,252
457,3	730,624
457,8	749,338
458,3	773,424
458,7	799,252
459,2	818,481
459,6	847,738
460,1	877,452
460,5	904,281
461	929,652
461,4	963,052
461,9	992,281
462,3	1025,881
462,8	1052,31
463,2	1083,31
463,7	1111,795
464,1	1149,024
464,6	1173,824
465	1204,967
465,5	1238,224
466	1272,738
466,4	1306,538
466,9	1336,167
467,3	1365,11
467,8	1411,881
468,2	1440,652
468,7	1474,881
469,1	1509,91
469,6	1540,967
470	1582,567
470,5	1618,195
470,9	1648,367
471,4	1691,195
471,8	1723,738
472,3	1755,024
472,7	1790,681
473,2	1814,652
473,6	1848,967
474,1	1872,281
474,5	1900,995
475	1937,195
475,4	1974,424
475,9	2014,852
476,4	2051,081
476,8	2086,938
477,3	2127,938
477,7	2161,51
478,2	2193,338
478,6	2221,71
479,1	2245,824
479,5	2280,367
480	2309,138
480,4	2341,624
480,9	2374,167
481,3	2397,881
481,8	2427,395
482,2	2454,938
482,7	2483,738
483,1	2515,395
483,6	2538,024
484	2558,567
484,5	2590,452
484,9	2621,052
485,4	2647,51
485,8	2668,995
486,3	2688,595
486,7	2713,624
487,2	2739,081
487,6	2758,567
488,1	2778,881
488,5	2797,738
489	2818,281
489,4	2836,824
489,9	2857,91
490,4	2873,31
490,8	2889,652
491,3	2897,681
491,7	2912,395
492,2	2928,31
492,6	2936,91
493,1	2941,624
493,5	2949,138
494	2954,795
494,4	2970,824
494,9	2980,252
495,3	2993,252
495,8	3008,881
496,2	3022,452
496,7	3035,795
497,1	3051,71
497,6	3056,624
498	3066,595
498,5	3069,852
498,9	3074,081
499,4	3078,881
499,8	3084,367
500,3	3087,252
500,7	3092,138
501,2	3097,595
501,6	3103,795
502,1	3111,367
502,5	3110,995
503	3117,938
503,4	3118,91
503,9	3128,281
504,3	3131,824
504,8	3132,852
505,2	3128,167
505,7	3136,767
506,1	3140,681
506,6	3144,224
507	3139,824
507,5	3142,538
507,9	3143,652
508,4	3151,738
508,8	3151,91
509,3	3147,31
509,7	3143,167
510,2	3141,052
510,6	3140,11
511,1	3140,938
511,5	3132,052
512	3121,081
512,4	3120,681
512,9	3121,71
513,3	3124,91
513,8	3122,91
514,2	3122,767
514,7	3125,538
515,1	3127,681
515,6	3120,567
516	3116,681
516,5	3118,51
516,9	3111,995
517,4	3104,081
517,8	3102,652
518,3	3103,195
518,7	3101,481
519,2	3102,052
519,6	3099,338
520,1	3101,338
520,5	3100,967
521	3101,024
521,4	3099,11
521,9	3103,767
522,3	3103,338
522,8	3102,024
523,2	3100,938
523,7	3100,138
524,1	3100,91
524,6	3099,795
525	3104,195
525,5	3108,881
525,9	3100,938
526,4	3099,052
526,8	3096,852
527,3	3095,595
527,7	3102,567
528,2	3089,938
528,6	3088,967
529,1	3091,738
529,5	3089,052
530	3092,281
530,4	3095,881
530,9	3085,738
531,3	3097,852
531,8	3099,681
532,2	3101,652
532,6	3107,71
533,1	3105,052
533,5	3104,824
534	3114,538
534,4	3114,624
534,9	3117,995
535,3	3119,71
535,8	3121,31
536,2	3127,91
536,7	3123,281
537,1	3120,91
537,6	3121,652
538	3118,138
538,5	3121,881
538,9	3124,595
539,4	3127,424
539,8	3134,195
540,3	3137,138
540,7	3138,795
541,2	3143,052
541,6	3145,195
542,1	3146,824
542,5	3147,824
543	3147,595
543,4	3157,367
543,9	3155,652
544,3	3160,224
544,8	3163,052
545,2	3167,367
545,7	3175,967
546,1	3183,795
546,5	3181,91
547	3189,252
547,4	3191,024
547,9	3197,91
548,3	3201,538
548,8	3200,224
549,2	3201,595
549,7	3205,424
550,1	3212,71
550,6	3214,91
551	3214,824
551,5	3217,71
551,9	3223,481
552,4	3223,252
552,8	3225,881
553,3	3225,767
553,7	3227,91
554,2	3230,538
554,6	3230,795
555,1	3235,681
555,5	3244,795
555,9	3252,224
556,4	3257,567
556,8	3259,31
557,3	3264,138
557,7	3270,281
558,2	3270,252
558,6	3273,195
559,1	3270,595
559,5	3275,281
560	3284,481
560,4	3287,852
560,9	3290,195
561,3	3296,052
561,8	3298,024
562,2	3296,624
562,7	3293,995
563,1	3289,795
563,6	3286,395
564	3292,224
564,4	3292,452
564,9	3291,081
565,3	3301,167
565,8	3308,424
566,2	3314,567
566,7	3319,224
567,1	3322,052
567,6	3323,824
568	3326,738
568,5	3323,11
568,9	3315,11
569,4	3316,452
569,8	3314,652
570,3	3312,767
570,7	3308,195
571,1	3313,395
571,6	3319,824
572	3325,881
572,5	3319,167
572,9	3330,424
573,4	3325,681
573,8	3332,367
574,3	3328,081
574,7	3320,767
575,2	3321,167
575,6	3326,652
576,1	3315,052
576,5	3320,852
576,9	3316,538
577,4	3308,967
577,8	3305,367
578,3	3298,367
578,7	3292,681
579,2	3291,967
579,6	3284,681
580,1	3286,71
580,5	3293,281
581	3294,71
581,4	3296,167
581,9	3294,281
582,3	3287,11
582,7	3285,024
583,2	3270,795
583,6	3260,281
584,1	3249,195
584,5	3250,338
585	3245,738
585,4	3240,881
585,9	3234,195
586,3	3227,938
586,8	3219,424
587,2	3217,795
587,6	3205,167
588,1	3197,395
588,5	3196,567
589	3188,081
589,4	3186,824
589,9	3191,167
590,3	3186,567
590,8	3183,738
591,2	3179,881
591,7	3179,881
592,1	3179,224
592,5	3176,852
593	3165,224
593,4	3164,51
593,9	3155,367
594,3	3148,281
594,8	3143,367
595,2	3141,024
595,7	3137,567
596,1	3133,624
596,6	3126,967
597	3126,138
597,4	3124,995
597,9	3116,481
598,3	3109,595
598,8	3098,452
599,2	3095,167
599,7	3090,281
600,1	3079,424
600,6	3075,424
601	3063,052
601,4	3059,167
601,9	3049,081
602,3	3047,538
602,8	3043,91
603,2	3040,081
603,7	3034,71
604,1	3033,738
604,6	3025,367
605	3022,967
605,4	3012,252
605,9	2998,281
606,3	2992,852
606,8	2979,881
607,2	2971,11
607,7	2960,052
608,1	2958,881
608,6	2948,681
609	2943,795
609,4	2933,167
609,9	2928,681
610,3	2919,167
610,8	2917,367
611,2	2899,51
611,7	2889,595
612,1	2879,281
612,6	2873,567
613	2863,081
613,4	2854,138
613,9	2837,081
614,3	2831,395
614,8	2821,567
615,2	2814,738
615,7	2807,31
616,1	2793,138
616,6	2783,938
617	2777,967
617,4	2764,938
617,9	2753,91
618,3	2744,824
618,8	2728,424
619,2	2724,252
619,7	2714,481
620,1	2699,652
620,5	2692,681
621	2687,167
621,4	2670,652
621,9	2657,138
622,3	2649,767
622,8	2633,995
623,2	2620,767
623,6	2608,51
624,1	2595,138
624,5	2590,395
625	2580,51
625,4	2567,052
625,9	2562,567
626,3	2553,91
626,8	2544,938
627,2	2535,738
627,6	2523,338
628,1	2516,138
628,5	2504,367
629	2495,024
629,4	2480,71
629,9	2471,681
630,3	2460,052
630,7	2451,824
631,2	2436,995
631,6	2422,967
632,1	2404,281
632,5	2394,452
633	2378,938
633,4	2363,567
633,8	2345,624
634,3	2330,91
634,7	2322,338
635,2	2310,51
635,6	2304,224
636,1	2298,481
636,5	2291,338
636,9	2281,767
637,4	2274,195
637,8	2258,167
638,3	2246,195
638,7	2236,738
639,2	2215,624
639,6	2201,795
640	2190,452
640,5	2182,91
640,9	2178,51
641,4	2171,595
641,8	2157,852
642,2	2159,938
642,7	2151,31
643,1	2150,024
643,6	2137,252
644	2128,567
644,5	2121,281
644,9	2108,852
645,3	2092,852
645,8	2086,995
646,2	2073,681
646,7	2062,567
647,1	2046,71
647,6	2038,91
648	2030,967
648,4	2020,567
648,9	2008,224
649,3	1994,881
649,8	1985,538
650,2	1980,281
650,6	1967,395
651,1	1965,081
651,5	1958,252
652	1949,967
652,4	1938,538
652,9	1934,538
653,3	1920,681
653,7	1911,795
654,2	1899,138
654,6	1893,167
655,1	1876,567
655,5	1868,852
655,9	1854,738
656,4	1848,567
656,8	1837,595
657,3	1824,395
657,7	1806,881
658,2	1803,367
658,6	1790,51
659	1778,624
659,5	1765,881
659,9	1755,224
660,4	1751,367
660,8	1744,281
661,2	1734,252
661,7	1728,138
662,1	1717,938
662,6	1710,624
663	1704,481
663,4	1691,052
663,9	1679,424
664,3	1667,567
664,8	1657,538
665,2	1650,91
665,6	1636,281
666,1	1626,795
666,5	1616,938
667	1605,71
667,4	1599,452
667,9	1586,624
668,3	1574,852
668,7	1571,967
669,2	1560,767
669,6	1549,652
670,1	1545,824
670,5	1528,738
670,9	1525,367
671,4	1518,452
671,8	1507,51
672,3	1498,567
672,7	1488,652
673,1	1479,852
673,6	1478,538
674	1468,195
674,5	1460,481
674,9	1453,367
675,3	1445,31
675,8	1442,11
676,2	1436,795
676,7	1424,995
677,1	1417,481
677,5	1412,91
678	1400,595
678,4	1390,31
678,9	1380,51
679,3	1362,795
679,7	1357,881
680,2	1346,824
680,6	1335,967
681,1	1326,71
681,5	1320,767
681,9	1306,452
682,4	1305,338
682,8	1292,938
683,3	1285,652
683,7	1277,995
684,1	1272,967
684,6	1263,51
685	1257,052
685,5	1245,738
685,9	1236,538
686,3	1230,281
686,8	1219,824
687,2	1215,367
687,7	1207,052
688,1	1201,195
688,5	1195,452
689	1195,224
689,4	1187,967
689,9	1187,481
690,3	1176,91
690,7	1167,967
691,2	1158,51
691,6	1151,024
692	1141,138
692,5	1129,567
692,9	1113,91
693,4	1106,224
693,8	1104,052
694,2	1097,795
694,7	1093,538
695,1	1084,167
695,6	1077,252
696	1072,367
696,4	1061,424
696,9	1050,51
697,3	1047,024
697,8	1035,51
698,2	1030,081
698,6	1025,252
699,1	1017,824
699,5	1016,824
699,9	1014,595
700,4	1007,167
700,8	1006,852
701,3	1000,481
701,7	992,338
702,1	988,795
702,6	980,652
703	968,652
703,5	962,881
703,9	954,252
704,3	949,31
704,8	948,652
705,2	946,081
705,6	938,738
706,1	940,11
706,5	932,824
707	924,424
707,4	919,624
707,8	911,281
708,3	899,624
708,7	900,938
709,2	893,167
709,6	888,738
710	882,195
710,5	878,281
710,9	872,138
711,3	865,595
711,8	856,938
712,2	850,824
712,7	847,71
713,1	842,71
713,5	834,395
714	830,081
714,4	826,881
714,8	820,881
715,3	817,052
715,7	807,395
716,2	804,824
716,6	801,538
717	793,338
717,5	786,652
717,9	778,367
718,3	770,852
718,8	770,31
719,2	764,51
719,7	759,938
720,1	756,852
720,5	756,281
721	751,595
721,4	750,224
721,8	746,224
722,3	734,281
722,7	725,738
723,2	719,538
723,6	710,938
724	707,824
724,5	695,281
724,9	683,881
725,3	683,367
725,8	674,567
726,2	668,567
726,7	664,767
727,1	654,738
727,5	655,338
728	654,51
728,4	649,91
728,8	652,052
729,3	650,195
729,7	647,424
730,1	645,138
730,6	636,767
731	635,452
731,5	632,852
731,9	630,195
732,3	628,738
732,8	625,738
733,2	624,91
733,6	624,91
734,1	614,824
734,5	605,795
734,9	599,224
735,4	597,624
735,8	593,967
736,3	591,338
736,7	590,481
737,1	595,024
737,6	597,938
738	594,852
738,4	587,567
738,9	586,652
739,3	580,824
739,7	574,938
740,2	566,795
740,6	560,51
741,1	558,852
741,5	556,824
741,9	547,281
742,4	542,567
742,8	542,595
743,2	544,138
743,7	542,195
744,1	531,71
744,5	529,567
745	528,252
745,4	530,252
745,8	524,795
746,3	518,767
746,7	517,967
747,2	522,024
747,6	515,824
748	515,252
748,5	513,31
748,9	513,967
749,3	515,367
749,8	509,481
750,2	504,452
750,6	504,424
751,1	501,081
751,5	493,795
751,9	489,624
752,4	482,167
752,8	484,31
753,3	480,681
753,7	473,052
754,1	465,91
754,6	460,338
755	451,795
755,4	448,767
755,9	441,481
756,3	439,967
756,7	437,881
757,2	436,852
757,6	438,31
758	433,91
758,5	426,31
758,9	421,795
759,3	418,367
759,8	422,567
760,2	423,824
760,6	424,738
761,1	422,052
761,5	423,824
761,9	421,938
762,4	420,024
762,8	416,167
763,3	409,024
763,7	402,252
764,1	399,052
764,6	392,881
765	389,281
765,4	390,738
765,9	381,224
766,3	379,71
766,7	376,795
767,2	377,281
767,6	374,881
768	372,167
768,5	365,424
768,9	362,852
769,3	359,052
769,8	360,852
770,2	360,881
770,6	358,595
771,1	361,224
771,5	355,91
771,9	356,252
772,4	358,424
772,8	351,11
773,2	348,567
773,7	348,652
774,1	346,11
774,5	348,538
775	347,51
775,4	345,081
775,8	344,624
776,3	343,881
776,7	344,967
777,1	343,481
777,6	339,052
778	336,652
778,4	330,881
778,9	328,138
779,3	329,138
779,7	324,195
780,2	320,938
780,6	322,681
781	319,538
781,5	317,624
781,9	318,052
782,3	312,567
782,8	309,281
783,2	305,652
783,6	296,738
784,1	297,567
784,5	291,824
784,9	288,281
785,4	286,338
785,8	283,595
786,2	279,481
786,7	277,252
787,1	274,595
787,5	276,567
788	275,595
788,4	270,995
788,8	269,195
789,3	272,595
789,7	271,252
790,1	267,91
790,6	266,624
791	266,367
791,4	264,395
791,9	262,424
792,3	254,824
792,7	260,052
793,2	257,595
793,6	258,71
794	251,167
794,5	247,452
794,9	248,081
795,3	248,424
795,8	243,367
796,2	245,738
796,6	239,481
797,1	240,252
797,5	238,71
797,9	232,652
798,4	227,881
798,8	222,138
799,2	219,824
799,7	222,795
800,1	218,11
800,5	218,31
801	221,967
801,4	220,224
801,8	222,824
802,2	219,481
802,7	213,224
803,1	212,824
803,5	211,938
804	207,052
804,4	208,767
804,8	205,852
805,3	202,595
805,7	203,767
806,1	207,91
806,6	204,852
807	203,795
807,4	201,824
807,9	200,367
808,3	201,624
808,7	201,081
809,2	194,567
809,6	194,081
810	194,252
810,4	193,367
810,9	190,652
811,3	191,738
811,7	186,938
812,2	188,595
812,6	189,195
813	186,481
813,5	184,738
813,9	186,281
814,3	179,224
814,8	182,024
815,2	176,11
815,6	172,138
816,1	173,967
816,5	172,881
816,9	170,91
817,3	173,452
817,8	174,338
818,2	174,138
818,6	173,91
819,1	166,738
819,5	167,595
819,9	166,567
820,4	160,167
820,8	148,652
821,2	151,367
821,7	150,367
822,1	153,595
822,5	148,652
822,9	152,081
823,4	152,71
823,8	155,624
824,2	150,824
824,7	154,167
825,1	152,052
825,5	157,852
826	151,852
826,4	154,824
826,8	152,967
827,3	155,852
827,7	153,624
828,1	152,195
828,5	149,338
829	147,624
829,4	147,967
829,8	144,51
830,3	140,824
830,7	135,367
831,1	132,567
831,6	128,167
832	122,652
832,4	113,995
832,8	121,367
833,3	114,91
833,7	117,767
834,1	117,31
834,6	115,424
835	122,024
835,4	124,052
835,8	117,652
836,3	121,624
836,7	111,452
837,1	110,395
837,6	109,481
838	100,052
838,4	97,681
838,9	100,024
839,3	101,795
839,7	111,224
840,1	108,967
840,6	109,995
841	115,538
841,4	114,967
841,9	107,595
842,3	103,995
842,7	99,081
843,1	101,938
843,6	102,081
844	102,338
844,4	105,11
844,9	108,795
845,3	107,538
845,7	108,281
846,2	104,424
846,6	101,681
847	96,795
847,4	93,224
847,9	91,167
848,3	94,51
848,7	94,938
849,2	98,424
849,6	100,681
850	98,91
850,4	101,538
850,9	100,852
851,3	99,481
851,7	96,024
852,2	89,338
852,6	84,281
853	88,31
853,4	85,024
853,9	86,938
854,3	83,881
854,7	81,424
855,2	83,681
855,6	81,367
856	80,595
856,4	80,31
856,9	76,195
857,3	73,795
857,7	76,395
858,2	77,224
858,6	84,281
859	80,224
859,4	76,995
859,9	78,852
860,3	81,595
860,7	78,11
861,1	79,652
861,6	74,338
862	77,024
862,4	79,252
862,9	81,424
863,3	79,052
863,7	78,395
864,1	74,195
864,6	70,967
865	67,367
865,4	66,11
865,9	60,452
866,3	63,024
866,7	63,138
867,1	66,167
867,6	66,852
868	69,424
868,4	68,767
868,8	71,395
869,3	69,852
869,7	68,624
870,1	67,624
870,6	67,567
871	116,624
871,4	115,538
871,8	113,881
872,3	108,195
872,7	108,681
873,1	109,938
873,5	110,51
874	57,624
874,4	53,281
874,8	51,71
875,3	51,91
875,7	53,367
876,1	47,538
876,5	49,71
877	50,138
877,4	51,567
877,8	55,052
878,2	58,91
878,7	57,738
879,1	58,452
879,5	57,081
879,9	55,224
880,4	54,567
880,8	54,652
881,2	52,567
881,7	56,338
882,1	58,652
882,5	57,167
882,9	59,052
883,4	62,138
883,8	56,738
884,2	59,081
884,6	54,767
885,1	57,167
885,5	59,281
885,9	61,281
886,3	62,024
886,8	63,567
887,2	61,452
887,6	57,995
888	49,767
888,5	51,31
888,9	49,652
889,3	45,11
889,8	43,567
890,2	38,652
890,6	37,938
891	42,138
891,5	40,367
891,9	39,881
892,3	41,395
892,7	42,424
893,2	46,395
893,6	49,852
894	48,281
894,4	43,538
894,9	44,71
895,3	45,338
895,7	42,11
896,1	40,652
896,6	37,452
897	36,881
897,4	37,424
897,8	32,852
898,3	39,71
898,7	39,795
899,1	40,824
899,5	38,081
900	37,967
900,4	38,538
900,8	42,538
901,2	32,052
901,7	33,138
902,1	31,824
902,5	35,938
902,9	36,738
903,4	39,395
903,8	33,995
904,2	39,224
904,6	37,567
905,1	40,624
905,5	37,595
905,9	39,852
906,3	33,852
906,8	38,595
907,2	34,338
907,6	36,938
908	32,824
908,5	35,767
908,9	31,252
909,3	32,595
909,7	29,31
910,2	28,138
910,6	29,481
911	30,081
911,4	29,938
911,9	29,967
912,3	30,024
912,7	32,424
913,1	32,652
913,6	32,338
914	30,995
914,4	30,024
914,8	31,481
915,3	32,138
915,7	26,995
916,1	24,738
916,5	24,938
916,9	24,995
917,4	27,11
917,8	22,767
918,2	17,738
918,6	20,31
919,1	24,052
919,5	23,11
919,9	19,51
920,3	16,71
920,8	21,91
921,2	26,567
921,6	24,052
922	20,91
922,5	19,767
922,9	24,567
923,3	26,71
923,7	22,31
924,2	21,252
924,6	24,11
925	26,252
925,4	26,824
925,8	24,652
926,3	25,767
926,7	29,395
927,1	31,338
927,5	31,595
928	29,624
928,4	26,252
928,8	28,481
929,2	25,31
929,7	21,081
930,1	19,252
930,5	15,824
930,9	19,91
931,3	20,91
931,8	20,252
932,2	15,852
932,6	19,052
933	12,595
933,5	13,281
933,9	12,024
934,3	12,11
934,7	14,767
935,2	17,967
935,6	19,881
936	24,681
936,4	26,31
936,8	21,71
937,3	25,252
937,7	23,567
938,1	21,024
938,5	18,281
939	20,11
939,4	19,338
939,8	22,31
940,2	20,51
940,6	13,767
941,1	20,567
941,5	18,71
941,9	20,395
942,3	19,967
942,8	21,71
943,2	17,481
943,6	23,624
944	17,595
944,4	16,538
944,9	11,452
945,3	9,881
945,7	7,195
946,1	12,367
946,6	14,338
947	17,395
947,4	17,11
947,8	22,91
948,2	21,452
948,7	24,395
949,1	17,967
949,5	14,081
949,9	13,767
950,3	16,195
950,8	12,852
951,2	16,795
951,6	15,538
952	15,281
952,5	10,824
952,9	6,652
953,3	6,852
953,7	11,624
954,1	9,11
954,6	6,195
955	5,995
955,4	8,824
955,8	15,767
956,2	10,995
956,7	4,881
957,1	4,024
957,5	2,967
957,9	7,824
958,3	10,481
958,8	12,195
959,2	17,452
959,6	19,424
960	23,395
960,5	26,91
960,9	25,824
961,3	24,71
961,7	18,138
962,1	15,995
962,6	15,195
963	9,252
963,4	9,195
963,8	7,338
964,2	4,938
964,7	4,452
965,1	5,995
965,5	6,652
965,9	10,852
966,3	9,424
966,8	9,395
967,2	11,995
967,6	10,138
968	10,881
968,4	13,852
968,9	15,424
969,3	16,281
969,7	14,338
970,1	11,224
970,5	18,852
971	15,738
971,4	13,252
971,8	14,881
972,2	12,91
972,6	15,652
973,1	20,338
973,5	18,538
973,9	18,624
974,3	16,824
974,7	12,424
975,2	12,252
975,6	10,281
976	9,11
976,4	5,052
976,8	4,052
977,3	2,652
977,7	-0,09
978,1	-0,805
978,5	3,052
978,9	3,395
979,4	4,052
979,8	5,967
980,2	3,71
980,6	12,624
981	16,795
981,5	14,31
981,9	10,624
982,3	10,71
982,7	11,767
983,1	16,138
983,6	10,967
984	10,967
984,4	14,767
984,8	18,595
985,2	16,995
985,6	14,567
986,1	15,395
986,5	12,167
986,9	10,938
987,3	3,595
987,7	1,652
988,2	5,995
988,6	5,281
989	0,424
989,4	4,967
989,8	4,567
990,3	8,681
990,7	6,852
991,1	1,595
991,5	2,852
991,9	10,31
992,3	10,452
992,8	14,11
993,2	14,995
993,6	16,71
994	18,224
994,4	19,395
994,9	16,995
995,3	16,767
995,7	11,624
996,1	8,081
996,5	9,052
996,9	10,652
997,4	8,224
997,8	5,452
998,2	4,31
998,6	7,452
999	11,224
999,5	8,024
999,9	8,91
1000,3	13,367
1000,7	13,31
1001,1	12,567
1001,5	6,681
1002	5,681
1002,4	6,567
1002,8	4,795
1003,2	3,595
1003,6	5,624
1004	6,31
1004,5	11,024
1004,9	12,91
1005,3	7,824
1005,7	6,252
1006,1	4,138
1006,6	4,167
1007	3,538
1007,4	2,11
1007,8	-2,633
1008,2	3,024
1008,6	2,452
1009,1	1,367
1009,5	4,938
1009,9	9,138
1010,3	7,852
1010,7	12,624
1011,1	17,71
1011,6	17,167
1012	16,938
1012,4	14,795
1012,8	7,367
1013,2	9,367
1013,6	6,824
1014,1	3,881
1014,5	9,795
1014,9	12,252
1015,3	9,738
1015,7	10,338
1016,1	12,052
1016,6	15,595
1017	14,624
1017,4	7,624
1017,8	4,71
1018,2	3,367
1018,6	6,281
1019,1	4,395
1019,5	5,167
1019,9	9,71
1020,3	14,71
1020,7	17,252
1021,1	18,224
1021,6	14,881
1022	10,852
1022,4	9,052
1022,8	6,71
1023,2	7,081
1023,6	4,281
1024,1	6,11
1024,5	9,767
1024,9	17,967
1025,3	14,767
1025,7	15,138
1026,1	16,452
1026,6	19,51
1027	18,281
1027,4	15,395
1027,8	9,052
1028,2	11,252
1028,6	7,767
1029	2,395
1029,5	1,281
1029,9	-1,376
1030,3	2,681
1030,7	0,195
1031,1	-5,29
1031,5	-4,205
1032	1,081
1032,4	-2,233
1032,8	1,138
1033,2	-1,348
1033,6	5,881
1034	10,738
1034,4	16,538
1034,9	14,11
1035,3	16,138
1035,7	18,681
1036,1	19,195
1036,5	10,338
1036,9	10,824
1037,4	6,31
1037,8	5,395
1038,2	2,738
1038,6	-3,462
1039	-2,976
1039,4	4,624
1039,8	2,138
1040,3	-2,548
1040,7	-6,976
1041,1	-2,833
1041,5	-0,976
1041,9	-3,119
1042,3	-3,662
1042,7	0,51
1043,2	4,367
1043,6	11,567
1044	8,252
1044,4	5,338
1044,8	3,795
1045,2	9,567
1045,6	11,167
1046,1	13,395
1046,5	10,595
1046,9	14,51
1047,3	18,481
1047,7	18,967
1048,1	12,938
1048,5	10,71
1049	9,481
1049,4	11,51
1049,8	12,681
1050,2	15,624
1050,6	19,795
1051	20,481
1051,4	20,081
1051,9	21,452
1052,3	19,71
1052,7	21,367
1053,1	17,938
1053,5	16,795
1053,9	15,567
1054,3	13,052
1054,8	13,795
1055,2	13,538
1055,6	8,367
1056	8,967
1056,4	9,395
1056,8	8,91
1057,2	10,024
1057,6	2,31
1058,1	3,367
1058,5	2,738
1058,9	2,424
1059,3	4,995
1059,7	4,024
1060,1	4,195
1060,5	6,795
1061	5,395
1061,4	13,652
1061,8	11,424
1062,2	9,395
1062,6	10,424
1063	7,738
1063,4	9,281
1063,8	7,595
1064,3	3,424
1064,7	5,424
1065,1	8,624
1065,5	9,424
1065,9	9,252
1066,3	4,91
1066,7	7,567
1067,1	7,481
1067,6	6,738
1068	1,195
1068,4	1,767
1068,8	4,852
1069,2	8,91
1069,6	13,91
1070	15,71
1070,4	15,281
1070,9	15,71
1071,3	17,367
1071,7	14,31
1072,1	20,367
1072,5	21,452
1072,9	22,824
1073,3	22,624
1073,7	19,967
1074,2	23,052
1074,6	24,938
1075	18,224
1075,4	11,567
1075,8	12,224
1076,2	15,452
1076,6	16,11
1077	6,052
1077,5	4,081
1077,9	5,11
1078,3	3,395
1078,7	-0,29
1079,1	0,338
1079,5	1,31
1079,9	8,395
1080,3	11,252
1080,7	11,852
1081,2	15,91
1081,6	14,652
1082	11,995
1082,4	14,224
1082,8	14,71
1083,2	9,624
1083,6	11,252
1084	5,595
1084,5	6,595
1084,9	6,281
1085,3	4,938
1085,7	-4,348
1086,1	-4,205
1086,5	-6,09
1086,9	-1,405
1087,3	0,31
1087,7	2,224
1088,2	1,481
1088,6	7,31
1089	8,481
1089,4	8,71
1089,8	10,395
1090,2	8,481
1090,6	4,281
1091	6,938
1091,4	6,538
1091,9	12,795
1092,3	11,595
1092,7	8,024
1093,1	4,052
1093,5	4,595
1093,9	4,824
1094,3	7,338
1094,7	3,824
1095,1	2,824
1095,5	2,824
1096	3,367
1096,4	9,595
1096,8	5,681
1097,2	3,967
1097,6	3,795
1098	4,51
1098,4	5,967
1098,8	8,51
1099,2	2,967
1099,6	6,367
1100,1	6,052
1100,5	5,967
1100,9	6,338
1101,3	5,138
1101,7	5,195
1102,1	6,938
1102,5	6,024
1102,9	3,338
1103,3	1,767
1103,7	2,681
1104,2	5,824
1104,6	6,71
1105	8,567
1105,4	9,595
1105,8	11,252
1106,2	12,567
1106,6	10,538
1107	6,938
1107,4	5,5
1107,8	2,527
1108,3	0,017
