Data from Subt2_257.txt Node
Date: Sat Aug 26 19:00:48 MSK 2023
User: vat
Spectrometer: MAYP114033
Trigger mode: 0
Integration Time (sec): 1,000000E0
Scans to average: 5
Electric dark correction enabled: true
Nonlinearity correction enabled: false
Boxcar width: 3
XAxis mode: Wavelengths
Number of Pixels in Spectrum: 2068
>>>>>Begin Spectral Data<<<<<
199,4	0,033
199,9	-0,287
200,4	1,6
200,8	6,09
201,3	4,719
201,8	7,262
202,2	3,519
202,7	9,205
203,2	8,89
203,6	7,205
204,1	1,205
204,6	4,948
205	3,576
205,5	5,405
206	0,062
206,4	0,633
206,9	2,748
207,4	8,005
207,8	3,29
208,3	3,319
208,8	8,205
209,2	11,205
209,7	13,348
210,2	11,776
210,6	10,033
211,1	14,462
211,5	10,49
212	8,805
212,5	6,89
212,9	4,948
213,4	3,89
213,9	1,948
214,3	1,233
214,8	6,005
215,3	2,919
215,7	6,176
216,2	11,548
216,7	13,919
217,1	13,605
217,6	16,319
218,1	13,062
218,5	15,09
219	6,69
219,5	1,09
219,9	-4,052
220,4	2,005
220,9	-2,481
221,3	0,805
221,8	2,805
222,3	9,919
222,7	13,519
223,2	19,29
223,6	13,833
224,1	14,69
224,6	13,776
225	7,719
225,5	6,462
226	3,69
226,4	-0,367
226,9	3,09
227,4	1,69
227,8	-2,281
228,3	1,662
228,8	-1,767
229,2	0,119
229,7	2,433
230,2	0,748
230,6	4,348
231,1	11,605
231,5	13,005
232	13,633
232,5	11,176
232,9	14,576
233,4	14,519
233,9	11,262
234,3	7,548
234,8	8,662
235,3	10,348
235,7	11,262
236,2	7,662
236,7	3,405
237,1	3,776
237,6	2,976
238,1	-3,395
238,5	-6,681
239	-6,395
239,4	-1,538
239,9	1,976
240,4	6,376
240,8	9,005
241,3	11,519
241,8	12,319
242,2	12,748
242,7	5,833
243,2	2,319
243,6	-4,281
244,1	-3,281
244,6	-2,681
245	0,633
245,5	-2,338
245,9	-1,224
246,4	1,119
246,9	5,319
247,3	3,69
247,8	5,833
248,3	6,662
248,7	9,69
249,2	9,49
249,7	9,633
250,1	10,862
250,6	8,148
251	9,205
251,5	7,776
252	9,148
252,4	12,062
252,9	8,919
253,4	6,405
253,8	7,662
254,3	2,376
254,8	3,719
255,2	-1,481
255,7	-4,881
256,1	-3,195
256,6	0,548
257,1	1,29
257,5	1,233
258	-4,824
258,5	-0,281
258,9	0,519
259,4	4,69
259,9	3,69
260,3	1,948
260,8	4,433
261,2	6,319
261,7	10,262
262,2	8,833
262,6	2,519
263,1	1,319
263,6	5,29
264	7,49
264,5	11,519
264,9	2,376
265,4	4,29
265,9	8,09
266,3	9,405
266,8	11,148
267,3	12,862
267,7	8,09
268,2	17,062
268,7	18,462
269,1	18,862
269,6	16,49
270	17,405
270,5	9,233
271	13,148
271,4	8,462
271,9	5,748
272,4	9,033
272,8	10,119
273,3	1,005
273,7	5,262
274,2	7,119
274,7	5,033
275,1	10,29
275,6	8,09
276,1	5,633
276,5	14,376
277	12,805
277,4	9,776
277,9	11,09
278,4	7,205
278,8	9,319
279,3	8,605
279,8	7,919
280,2	10,233
280,7	13,433
281,1	10,09
281,6	12,548
282,1	9,405
282,5	10,776
283	8,49
283,4	8,776
283,9	7,09
284,4	12,205
284,8	9,776
285,3	8,862
285,8	8,976
286,2	5,633
286,7	3,148
287,1	0,033
287,6	-2,538
288,1	-3,681
288,5	-0,624
289	-2,738
289,5	1,348
289,9	-1,767
290,4	0,462
290,8	0,405
291,3	4,776
291,8	2,976
292,2	6,005
292,7	7,833
293,1	10,633
293,6	13,433
294,1	12,89
294,5	8,833
295	9,662
295,5	7,548
295,9	4,662
296,4	8,205
296,8	2,348
297,3	3,719
297,8	0,633
298,2	-3,624
298,7	1,205
299,1	1,09
299,6	-3,567
300,1	2,176
300,5	2,519
301	8,748
301,5	16,633
301,9	14,29
302,4	7,376
302,8	7,519
303,3	4,376
303,8	1,605
304,2	-0,081
304,7	-3,395
305,1	-7,91
305,6	-2,795
306,1	7,09
306,5	5,576
307	11,576
307,4	17,548
307,9	17,719
308,4	23,09
308,8	20,033
309,3	11,833
309,8	8,919
310,2	8,262
310,7	-1,567
311,1	-3,338
311,6	-5,252
312,1	2,005
312,5	7,148
313	15,319
313,4	11,405
313,9	14,033
314,4	13,633
314,8	10,948
315,3	9,405
315,7	3,205
316,2	-1,31
316,7	0,633
317,1	7,69
317,6	10,205
318	13,033
318,5	10,033
319	12,176
319,4	12,662
319,9	18,748
320,3	13,49
320,8	11,776
321,3	11,633
321,7	15,519
322,2	16,519
322,6	17,433
323,1	12,548
323,6	9,862
324	6,348
324,5	4,948
324,9	4,605
325,4	4,49
325,9	3,49
326,3	3,119
326,8	4,548
327,2	7,29
327,7	7,176
328,2	2,862
328,6	2,148
329,1	1,29
329,5	1,89
330	1,948
330,5	5,319
330,9	9,605
331,4	12,262
331,8	10,09
332,3	15,062
332,8	14,948
333,2	14,976
333,7	13,376
334,1	13,433
334,6	11,405
335,1	8,062
335,5	7,062
336	4,148
336,4	6,405
336,9	8,205
337,4	8,09
337,8	8,119
338,3	12,69
338,7	15,09
339,2	16,833
339,7	20,033
340,1	15,49
340,6	13,605
341	14,262
341,5	14,833
342	7,348
342,4	2,033
342,9	-0,681
343,3	0,405
343,8	-0,852
344,2	-0,395
344,7	4,662
345,2	6,033
345,6	11,576
346,1	12,548
346,5	6,319
347	8,576
347,5	6,033
347,9	5,833
348,4	6,69
348,8	8,205
349,3	8,405
349,8	16,348
350,2	19,09
350,7	19,548
351,1	18,433
351,6	24,062
352	23,148
352,5	25,519
353	29,348
353,4	31,09
353,9	42,519
354,3	43,833
354,8	49,09
355,3	62,833
355,7	75,805
356,2	91,976
356,6	107,862
357,1	125,09
357,5	152,262
358	178,405
358,5	205,319
358,9	235,376
359,4	265,919
359,8	304,605
360,3	353,176
360,8	400,805
361,2	453,919
361,7	515,176
362,1	583,719
362,6	660,176
363	739,748
363,5	818,005
364	912,376
364,4	1002,576
364,9	1093,119
365,3	1182,233
365,8	1264,433
366,3	1341,233
366,7	1414,005
367,2	1473,062
367,6	1519,833
368,1	1558,405
368,5	1583,148
369	1600,49
369,5	1607,233
369,9	1592,805
370,4	1566,348
370,8	1536,376
371,3	1487,89
371,7	1437,148
372,2	1373,833
372,7	1304,633
373,1	1238,062
373,6	1164,262
374	1094,433
374,5	1022,833
374,9	951,262
375,4	879,405
375,9	813,062
376,3	750,433
376,8	691,719
377,2	633,319
377,7	579,69
378,2	530,919
378,6	490,862
379,1	451,49
379,5	416,805
380	386,49
380,4	354,662
380,9	328,176
381,4	293,862
381,8	271,548
382,3	252,776
382,7	234,033
383,2	218,976
383,6	205,576
384,1	196,176
384,6	189,919
385	174,833
385,5	160,633
385,9	145,033
386,4	130,919
386,8	125,176
387,3	108,976
387,7	99,319
388,2	96,319
388,7	90,348
389,1	87,519
389,6	84,633
390	75,605
390,5	77,89
390,9	78,548
391,4	73,805
391,9	68,319
392,3	66,09
392,8	59,89
393,2	53,89
393,7	46,833
394,1	40,033
394,6	34,805
395,1	36,919
395,5	29,148
396	29,548
396,4	31,433
396,9	33,548
397,3	35,69
397,8	41,948
398,2	39,233
398,7	42,319
399,2	44,605
399,6	45,833
400,1	40,776
400,5	37,062
401	32,548
401,4	30,405
401,9	35,548
402,4	31,49
402,8	31,662
403,3	39,662
403,7	37,148
404,2	37,148
404,6	38,633
405,1	31,605
405,5	30,862
406	29,262
406,5	22,062
406,9	28,69
407,4	24,29
407,8	23,976
408,3	24,233
408,7	26,119
409,2	28,89
409,6	33,205
410,1	32,005
410,6	40,576
411	44,519
411,5	48,69
411,9	47,748
412,4	49,433
412,8	50,662
413,3	52,576
413,7	52,89
414,2	50,605
414,7	57,176
415,1	66,176
415,6	67,49
416	71,976
416,5	74,148
416,9	74,433
417,4	81,319
417,8	84,09
418,3	84,176
418,8	88,976
419,2	88,433
419,7	89,033
420,1	93,49
420,6	91,748
421	87,405
421,5	87,519
421,9	85,176
422,4	86,719
422,8	89,633
423,3	85,548
423,8	85,862
424,2	84,09
424,7	80,319
425,1	78,519
425,6	80,062
426	77,519
426,5	82,062
426,9	87,176
427,4	87,948
427,9	85,833
428,3	89,376
428,8	86,205
429,2	81,405
429,7	76,176
430,1	70,833
430,6	73,69
431	78,89
431,5	79,633
431,9	77,405
432,4	85,376
432,8	92,09
433,3	94,69
433,8	93,69
434,2	96,233
434,7	97,319
435,1	104,805
435,6	108,233
436	106,29
436,5	112,805
436,9	111,576
437,4	112,29
437,8	112,176
438,3	113,948
438,8	115,233
439,2	123,748
439,7	126,29
440,1	136,605
440,6	147,519
441	153,805
441,5	159,462
441,9	166,49
442,4	164,662
442,8	170,033
443,3	176,405
443,7	177,09
444,2	185,662
444,7	193,519
445,1	201,633
445,6	214,605
446	225,576
446,5	231,862
446,9	237,062
447,4	243,29
447,8	251,976
448,3	262,462
448,7	267,005
449,2	270,89
449,6	284,005
450,1	297,519
450,6	311,605
451	323,719
451,5	330,148
451,9	349,119
452,4	365,976
452,8	376,462
453,3	393,948
453,7	402,662
454,2	419,662
454,6	435,748
455,1	444,29
455,5	457,662
456	475,519
456,4	483,662
456,9	504,319
457,3	514,633
457,8	525,805
458,3	547,748
458,7	567,69
459,2	581,462
459,6	601,29
460,1	617,519
460,5	633,69
461	659,976
461,4	675,262
461,9	687,833
462,3	707,262
462,8	727,433
463,2	748,29
463,7	774,005
464,1	797,148
464,6	822,148
465	849,519
465,5	873,062
466	897,148
466,4	916,348
466,9	940,005
467,3	958,119
467,8	983,033
468,2	1007,776
468,7	1029,776
469,1	1058,433
469,6	1083,319
470	1107,176
470,5	1127,09
470,9	1142,205
471,4	1162,519
471,8	1186,69
472,3	1208,633
472,7	1231,062
473,2	1249,148
473,6	1274,948
474,1	1307,548
474,5	1334,719
475	1361,29
475,4	1380,662
475,9	1409,376
476,4	1433,062
476,8	1461,519
477,3	1481,119
477,7	1501,348
478,2	1521,833
478,6	1540,862
479,1	1557,862
479,5	1579,033
480	1596,976
480,4	1619,919
480,9	1636,405
481,3	1654,29
481,8	1675,319
482,2	1688,633
482,7	1714,69
483,1	1736,919
483,6	1754,633
484	1775,605
484,5	1794,233
484,9	1811,576
485,4	1838,833
485,8	1849,948
486,3	1865,148
486,7	1876,862
487,2	1891,662
487,6	1907,519
488,1	1916,862
488,5	1928,148
489	1949,348
489,4	1966,605
489,9	1980,233
490,4	1996,69
490,8	2009,662
491,3	2031,205
491,7	2042,519
492,2	2046,862
492,6	2055,205
493,1	2070,833
493,5	2078,633
494	2082,748
494,4	2092,633
494,9	2102,605
495,3	2119,062
495,8	2122,69
496,2	2132,405
496,7	2134,205
497,1	2152,976
497,6	2160,548
498	2168,49
498,5	2172,348
498,9	2179,69
499,4	2179,348
499,8	2196,233
500,3	2198,719
500,7	2201,605
501,2	2207,062
501,6	2208,833
502,1	2219,262
502,5	2235,748
503	2235,548
503,4	2238,576
503,9	2246,319
504,3	2257,89
504,8	2266,89
505,2	2273,748
505,7	2272,29
506,1	2285,69
506,6	2290,433
507	2298,405
507,5	2298,062
507,9	2307,09
508,4	2309,605
508,8	2317,205
509,3	2314,348
509,7	2326,519
510,2	2327,29
510,6	2329,233
511,1	2327,29
511,5	2330,376
512	2333,719
512,4	2340,719
512,9	2343,833
513,3	2356,948
513,8	2359,862
514,2	2367,833
514,7	2375,09
515,1	2378,576
515,6	2385,833
516	2386,405
516,5	2386,862
516,9	2398,062
517,4	2404,548
517,8	2412,49
518,3	2414,862
518,7	2421,805
519,2	2435,89
519,6	2438,976
520,1	2445,89
520,5	2448,062
521	2445,376
521,4	2456,062
521,9	2455,033
522,3	2451,205
522,8	2457,519
523,2	2463,948
523,7	2469,833
524,1	2475,862
524,6	2479,176
525	2485,319
525,5	2489,405
525,9	2502,719
526,4	2507,69
526,8	2514,576
527,3	2526,719
527,7	2535,862
528,2	2548,69
528,6	2555,776
529,1	2558,605
529,5	2566,29
530	2575,319
530,4	2578,233
530,9	2583,833
531,3	2587,805
531,8	2596,633
532,2	2601,033
532,6	2605,662
533,1	2612,319
533,5	2620,433
534	2627,148
534,4	2633,348
534,9	2642,205
535,3	2649,119
535,8	2656,49
536,2	2668,062
536,7	2678,29
537,1	2688,119
537,6	2696,148
538	2708,319
538,5	2717,576
538,9	2725,776
539,4	2727,776
539,8	2736,148
540,3	2745,262
540,7	2753,605
541,2	2757,519
541,6	2765,348
542,1	2776,148
542,5	2788,205
543	2791,319
543,4	2793,719
543,9	2803,119
544,3	2810,548
544,8	2814,119
545,2	2820,119
545,7	2825,233
546,1	2839,976
546,5	2850,262
547	2852,09
547,4	2862,148
547,9	2869,433
548,3	2875,89
548,8	2886,119
549,2	2888,233
549,7	2899,976
550,1	2914,862
550,6	2922,976
551	2932,148
551,5	2931,833
551,9	2934,548
552,4	2945,862
552,8	2947,462
553,3	2948,09
553,7	2953,233
554,2	2962,833
554,6	2977,776
555,1	2988,433
555,5	2988,862
555,9	2994,548
556,4	2999,976
556,8	3002,833
557,3	3008,062
557,7	3009,462
558,2	3014,119
558,6	3025,462
559,1	3026,49
559,5	3033,176
560	3039,69
560,4	3044,319
560,9	3050,062
561,3	3056,976
561,8	3060,576
562,2	3075,519
562,7	3079,805
563,1	3089,833
563,6	3089,919
564	3094,119
564,4	3093,662
564,9	3095,719
565,3	3091,605
565,8	3097,148
566,2	3099,862
566,7	3102,862
567,1	3109,548
567,6	3117,033
568	3120,462
568,5	3126,376
568,9	3121,633
569,4	3121,29
569,8	3125,233
570,3	3129,319
570,7	3127,576
571,1	3128,948
571,6	3130,49
572	3140,176
572,5	3139,49
572,9	3139,148
573,4	3137,519
573,8	3135,576
574,3	3136,148
574,7	3135,976
575,2	3134,49
575,6	3134,719
576,1	3133,462
576,5	3133,976
576,9	3131,433
577,4	3127,948
577,8	3126,033
578,3	3121,376
578,7	3125,262
579,2	3132,262
579,6	3122,748
580,1	3122,633
580,5	3126,376
581	3123,719
581,4	3122,462
581,9	3113,633
582,3	3106,862
582,7	3107,919
583,2	3107,148
583,6	3097,833
584,1	3093,09
584,5	3088,776
585	3090,662
585,4	3077,662
585,9	3076,748
586,3	3068,405
586,8	3065,005
587,2	3060,548
587,6	3058,805
588,1	3052,49
588,5	3058,033
589	3052,548
589,4	3046,005
589,9	3041,205
590,3	3039,09
590,8	3030,262
591,2	3025,633
591,7	3023,833
592,1	3017,005
592,5	3016,833
593	3015,262
593,4	3008,805
593,9	3006,319
594,3	2994,205
594,8	2983,233
595,2	2977,319
595,7	2972,119
596,1	2963,89
596,6	2958,09
597	2957,919
597,4	2959,376
597,9	2951,49
598,3	2955,262
598,8	2952,033
599,2	2947,776
599,7	2942,719
600,1	2930,49
600,6	2924,005
601	2918,462
601,4	2908,948
601,9	2901,862
602,3	2897,719
602,8	2891,148
603,2	2884,89
603,7	2876,062
604,1	2871,805
604,6	2862,233
605	2849,233
605,4	2839,49
605,9	2829,319
606,3	2817,376
606,8	2806,976
607,2	2795,176
607,7	2787,462
608,1	2785,376
608,6	2775,576
609	2775,919
609,4	2773,519
609,9	2764,262
610,3	2760,148
610,8	2751,805
611,2	2741,862
611,7	2727,005
612,1	2712,776
612,6	2704,633
613	2698,662
613,4	2689,433
613,9	2674,89
614,3	2666,49
614,8	2662,576
615,2	2650,833
615,7	2639,376
616,1	2626,89
616,6	2617,119
617	2610,976
617,4	2599,262
617,9	2586,69
618,3	2582,29
618,8	2573,976
619,2	2567,662
619,7	2553,69
620,1	2542,719
620,5	2531,433
621	2524,49
621,4	2507,376
621,9	2499,748
622,3	2484,148
622,8	2472,376
623,2	2460,348
623,6	2448,605
624,1	2438,89
624,5	2427,405
625	2413,405
625,4	2404,633
625,9	2396,976
626,3	2388,29
626,8	2375,319
627,2	2364,29
627,6	2351,062
628,1	2339,976
628,5	2331,605
629	2316,49
629,4	2305,319
629,9	2289,376
630,3	2272,89
630,7	2260,319
631,2	2248,976
631,6	2236,805
632,1	2225,719
632,5	2214,89
633	2210,49
633,4	2203,805
633,8	2205,148
634,3	2192,748
634,7	2179,605
635,2	2167,262
635,6	2153,576
636,1	2146,805
636,5	2133,719
636,9	2111,233
637,4	2101,605
637,8	2086,862
638,3	2074,605
638,7	2065,376
639,2	2045,605
639,6	2036,319
640	2030,29
640,5	2016,519
640,9	2010,176
641,4	2004,948
641,8	1992,433
642,2	1992,262
642,7	1986,433
643,1	1977,576
643,6	1967,919
644	1958,49
644,5	1949,376
644,9	1942,49
645,3	1926,319
645,8	1909,119
646,2	1898,662
646,7	1888,462
647,1	1870,805
647,6	1864,719
648	1852,119
648,4	1843,719
648,9	1835,262
649,3	1825,548
649,8	1818,49
650,2	1815,948
650,6	1803,49
651,1	1793,633
651,5	1791,09
652	1784,233
652,4	1769,576
652,9	1760,062
653,3	1748,433
653,7	1737,405
654,2	1727,862
654,6	1710,405
655,1	1701,233
655,5	1696,862
655,9	1687,748
656,4	1683,948
656,8	1670,548
657,3	1661,576
657,7	1653,405
658,2	1638,862
658,6	1631,576
659	1618,462
659,5	1599,062
659,9	1595,376
660,4	1585,405
660,8	1571,119
661,2	1565,976
661,7	1555,005
662,1	1546,233
662,6	1540,919
663	1526,062
663,4	1517,262
663,9	1510,948
664,3	1499,548
664,8	1482,605
665,2	1472,148
665,6	1459,719
666,1	1454,119
666,5	1443,89
667	1433,605
667,4	1421,062
667,9	1415,319
668,3	1404,405
668,7	1395,719
669,2	1387,748
669,6	1377,062
670,1	1371,062
670,5	1361,09
670,9	1350,233
671,4	1345,033
671,8	1337,205
672,3	1328,948
672,7	1320,662
673,1	1307,633
673,6	1301,89
674	1300,062
674,5	1290,519
674,9	1278,205
675,3	1266,148
675,8	1258,205
676,2	1248,748
676,7	1242,633
677,1	1233,29
677,5	1225,119
678	1221,69
678,4	1214,09
678,9	1209,29
679,3	1204,462
679,7	1194,576
680,2	1184,148
680,6	1173,919
681,1	1163,548
681,5	1157,062
681,9	1148,319
682,4	1139,89
682,8	1134,033
683,3	1129,69
683,7	1124,205
684,1	1120,348
684,6	1112,062
685	1101,433
685,5	1089,719
685,9	1078,09
686,3	1067,576
686,8	1057,748
687,2	1054,29
687,7	1045,862
688,1	1036,148
688,5	1033,148
689	1032,033
689,4	1023,29
689,9	1016,405
690,3	1004,405
690,7	1001,433
691,2	1005,605
691,6	1002,748
692	993,776
692,5	987,919
692,9	984,176
693,4	974,348
693,8	960,69
694,2	946,062
694,7	934,233
695,1	924,605
695,6	924,89
696	916,319
696,4	913,69
696,9	912,605
697,3	904,833
697,8	900,862
698,2	895,89
698,6	886,005
699,1	881,662
699,5	878,919
699,9	869,548
700,4	861,519
700,8	858,976
701,3	858,319
701,7	849,433
702,1	845,262
702,6	836,319
703	836,748
703,5	834,119
703,9	822,062
704,3	813,862
704,8	804,748
705,2	798,462
705,6	789,776
706,1	782,776
706,5	777,405
707	776,662
707,4	772,948
707,8	768,233
708,3	761,69
708,7	758,976
709,2	753,462
709,6	744,348
710	744,033
710,5	728,433
710,9	727,233
711,3	721,976
711,8	722,948
712,2	715,576
712,7	713,948
713,1	704,233
713,5	708,09
714	704,376
714,4	700,519
714,8	692,376
715,3	687,633
715,7	687,633
716,2	676,89
716,6	672,319
717	659,919
717,5	649,69
717,9	643,319
718,3	638,89
718,8	629,576
719,2	629,833
719,7	623,348
720,1	625,376
720,5	631,005
721	620,862
721,4	616,748
721,8	619,976
722,3	615,005
722,7	616,376
723,2	606,033
723,6	592,348
724	592,376
724,5	584,433
724,9	572,005
725,3	565,29
725,8	556,833
726,2	555,376
726,7	551,519
727,1	549,148
727,5	548,205
728	540,919
728,4	540,719
728,8	531,319
729,3	524,29
729,7	520,033
730,1	515,548
730,6	513,862
731	513,69
731,5	505,69
731,9	503,119
732,3	505,662
732,8	511,633
733,2	508,69
733,6	502,29
734,1	499,948
734,5	498,948
734,9	501,405
735,4	496,862
735,8	486,119
736,3	485,833
736,7	481,862
737,1	479,405
737,6	475,148
738	469,719
738,4	461,805
738,9	462,062
739,3	457,519
739,7	457,776
740,2	455,176
740,6	456,462
741,1	457,433
741,5	456,948
741,9	453,776
742,4	448,948
742,8	443,976
743,2	440,062
743,7	430,833
744,1	421,605
744,5	423,719
745	422,062
745,4	419,748
745,8	416,833
746,3	413,205
746,7	416,805
747,2	413,376
747,6	411,605
748	413,29
748,5	411,205
748,9	407,49
749,3	406,176
749,8	406,862
750,2	405,89
750,6	399,462
751,1	392,605
751,5	389,262
751,9	391,605
752,4	389,662
752,8	382,662
753,3	381,148
753,7	383,233
754,1	378,662
754,6	374,49
755	368,433
755,4	361,09
755,9	358,205
756,3	356,09
756,7	351,205
757,2	349,519
757,6	350,033
758	349,49
758,5	348,748
758,9	345,062
759,3	345,262
759,8	340,233
760,2	333,919
760,6	330,548
761,1	323,376
761,5	325,776
761,9	319,205
762,4	312,548
762,8	310,89
763,3	309,69
763,7	307,919
764,1	309,605
764,6	307,462
765	311,433
765,4	311,519
765,9	310,176
766,3	315,776
766,7	311,319
767,2	307,976
767,6	306,319
768	300,833
768,5	298,176
768,9	294,919
769,3	289,919
769,8	288,919
770,2	291,605
770,6	289,005
771,1	291,262
771,5	290,748
771,9	291,09
772,4	288,148
772,8	289,89
773,2	285,89
773,7	281,748
774,1	280,948
774,5	271,69
775	267,776
775,4	271,69
775,8	264,319
776,3	262,548
776,7	259,948
777,1	253,319
777,6	255,033
778	255,29
778,4	244,576
778,9	246,548
779,3	242,405
779,7	245,719
780,2	248,033
780,6	248,748
781	245,233
781,5	244,89
781,9	242,262
782,3	239,348
782,8	234,89
783,2	229,662
783,6	230,462
784,1	229,576
784,5	228,005
784,9	222,519
785,4	225,348
785,8	224,662
786,2	225,062
786,7	225,49
787,1	221,462
787,5	219,833
788	225,09
788,4	221,062
788,8	217,09
789,3	214,805
789,7	208,233
790,1	210,033
790,6	208,376
791	202,29
791,4	205,862
791,9	200,805
792,3	192,719
792,7	195,376
793,2	191,319
793,6	189,205
794	190,976
794,5	182,348
794,9	185,776
795,3	190,205
795,8	186,005
796,2	187,348
796,6	189,805
797,1	186,519
797,5	186,348
797,9	183,833
798,4	181,348
798,8	179,719
799,2	180,462
799,7	179,805
800,1	182,376
800,5	182,519
801	184,49
801,4	182,233
801,8	176,119
802,2	171,976
802,7	166,69
803,1	163,148
803,5	163,29
804	156,948
804,4	156,376
804,8	159,948
805,3	159,776
805,7	158,662
806,1	155,376
806,6	153,405
807	156,319
807,4	159,348
807,9	151,948
808,3	149,205
808,7	147,119
809,2	149,405
809,6	149,233
810	143,233
810,4	142,948
810,9	146,719
811,3	147,548
811,7	150,119
812,2	152,919
812,6	151,176
813	155,062
813,5	154,719
813,9	153,833
814,3	146,89
814,8	144,433
815,2	135,548
815,6	134,462
816,1	134,805
816,5	129,548
816,9	130,805
817,3	132,948
817,8	136,833
818,2	135,976
818,6	134,376
819,1	129,033
819,5	127,148
819,9	121,062
820,4	119,176
820,8	111,862
821,2	108,405
821,7	107,433
822,1	110,148
822,5	113,148
822,9	115,062
823,4	116,005
823,8	118,062
824,2	119,862
824,7	116,49
825,1	110,29
825,5	105,719
826	99,89
826,4	96,519
826,8	93,605
827,3	96,69
827,7	94,719
828,1	96,805
828,5	94,662
829	96,319
829,4	100,005
829,8	97,862
830,3	91,262
830,7	92,319
831,1	94,033
831,6	98,176
832	101,262
832,4	98,548
832,8	100,319
833,3	103,033
833,7	99,976
834,1	95,69
834,6	91,833
835	92,748
835,4	94,576
835,8	89,09
836,3	87,148
836,7	86,948
837,1	84,09
837,6	89,576
838	82,548
838,4	79,662
838,9	82,719
839,3	78,633
839,7	81,119
840,1	80,09
840,6	72,462
841	74,119
841,4	77,29
841,9	77,948
842,3	81,662
842,7	80,262
843,1	84,148
843,6	85,605
844	87,748
844,4	87,148
844,9	86,119
845,3	85,89
845,7	85,948
846,2	82,719
846,6	81,405
847	80,376
847,4	77,633
847,9	78,89
848,3	76,805
848,7	77,69
849,2	77,405
849,6	74,748
850	74,119
850,4	72,89
850,9	68,548
851,3	73,69
851,7	72,348
852,2	71,262
852,6	78,205
853	80,376
853,4	77,005
853,9	73,576
854,3	68,69
854,7	69,148
855,2	67,976
855,6	66,319
856	61,405
856,4	59,833
856,9	62,719
857,3	62,462
857,7	62,69
858,2	67,205
858,6	59,69
859	61,262
859,4	65,633
859,9	63,233
860,3	59,205
860,7	59,262
861,1	56,233
861,6	57,348
862	54,948
862,4	51,405
862,9	52,233
863,3	54,405
863,7	52,576
864,1	56,519
864,6	56,662
865	57,976
865,4	59,89
865,9	62,033
866,3	60,033
866,7	58,89
867,1	50,862
867,6	49,462
868	50,376
868,4	46,09
868,8	42,805
869,3	41,49
869,7	44,319
870,1	46,605
870,6	47,262
871	8,176
871,4	11,633
871,8	10,519
872,3	13,433
872,7	8,433
873,1	6,148
873,5	11,148
874	46,976
874,4	48,662
874,8	45,205
875,3	44,29
875,7	44,062
876,1	47,69
876,5	41,662
877	40,262
877,4	34,633
877,8	42,148
878,2	46,233
878,7	47,29
879,1	43,548
879,5	45,233
879,9	48,033
880,4	52,49
880,8	46,919
881,2	38,89
881,7	36,49
882,1	37,833
882,5	35,233
882,9	32,49
883,4	30,033
883,8	32,033
884,2	34,319
884,6	37,662
885,1	37,948
885,5	38,205
885,9	39,005
886,3	37,719
886,8	36,548
887,2	35,462
887,6	29,005
888	28,376
888,5	31,633
888,9	31,89
889,3	29,405
889,8	26,662
890,2	27,833
890,6	28,205
891	29,548
891,5	27,748
891,9	27,576
892,3	33,776
892,7	39,748
893,2	38,519
893,6	41,405
894	44,29
894,4	43,462
894,9	41,805
895,3	37,233
895,7	33,09
896,1	35,662
896,6	35,433
897	34,805
897,4	38,148
897,8	41,376
898,3	41,205
898,7	40,319
899,1	36,605
899,5	37,719
900	28,633
900,4	22,005
900,8	17,233
901,2	12,89
901,7	13,005
902,1	13,748
902,5	14,033
902,9	18,605
903,4	19,233
903,8	22,319
904,2	27,205
904,6	31,49
905,1	30,862
905,5	28,033
905,9	28,976
906,3	32,29
906,8	32,09
907,2	33,205
907,6	27,748
908	33,433
908,5	31,862
908,9	28,033
909,3	25,862
909,7	24,662
910,2	23,719
910,6	28,948
911	20,719
911,4	24,033
911,9	23,862
912,3	22,605
912,7	23,69
913,1	25,948
913,6	23,662
914	26,319
914,4	22,605
914,8	23,662
915,3	20,433
915,7	19,262
916,1	16,176
916,5	21,148
916,9	23,49
917,4	26,376
917,8	27,376
918,2	27,833
918,6	23,919
919,1	24,89
919,5	23,262
919,9	21,69
920,3	18,548
920,8	21,69
921,2	24,462
921,6	28,919
922	30,176
922,5	24,605
922,9	26,376
923,3	28,348
923,7	24,948
924,2	24,69
924,6	24,948
925	23,09
925,4	25,29
925,8	22,262
926,3	20,348
926,7	18,948
927,1	18,09
927,5	20,033
928	18,205
928,4	14,519
928,8	18,29
929,2	18,633
929,7	17,748
930,1	16,033
930,5	11,405
930,9	15,862
931,3	17,09
931,8	12,633
932,2	11,205
932,6	9,062
933	5,548
933,5	7,433
933,9	1,519
934,3	0,462
934,7	-3,167
935,2	1,976
935,6	5,09
936	10,033
936,4	8,633
936,8	11,233
937,3	10,348
937,7	14,69
938,1	17,805
938,5	16,519
939	17,462
939,4	15,976
939,8	19,405
940,2	20,776
940,6	27,062
941,1	19,319
941,5	25,29
941,9	25,119
942,3	27,233
942,8	26,833
943,2	28,29
943,6	17,433
944	19,09
944,4	12,462
944,9	10,548
945,3	9,033
945,7	2,176
946,1	0,519
946,6	2,576
947	4,033
947,4	9,719
947,8	13,69
948,2	9,633
948,7	11,148
949,1	12,176
949,5	19,062
949,9	18,376
950,3	15,748
950,8	10,462
951,2	14,148
951,6	11,69
952	14,748
952,5	6,462
952,9	8,062
953,3	6,605
953,7	6,919
954,1	7,748
954,6	13,405
955	12,719
955,4	16,005
955,8	15,548
956,2	14,89
956,7	20,233
957,1	17,605
957,5	18,976
957,9	17,233
958,3	17,719
958,8	16,919
959,2	21,748
959,6	23,233
960	24,462
960,5	27,948
960,9	30,633
961,3	30,005
961,7	29,205
962,1	25,148
962,6	20,033
963	18,119
963,4	9,548
963,8	8,205
964,2	9,29
964,7	10,833
965,1	12,176
965,5	11,605
965,9	13,748
966,3	18,776
966,8	17,89
967,2	18,662
967,6	13,719
968	9,405
968,4	10,119
968,9	8,548
969,3	8,348
969,7	5,548
970,1	9,033
970,5	11,633
971	14,948
971,4	15,033
971,8	15,662
972,2	12,205
972,6	15,176
973,1	10,09
973,5	10,805
973,9	14,862
974,3	14,262
974,7	16,005
975,2	19,176
975,6	18,148
976	20,262
976,4	15,348
976,8	10,719
977,3	11,719
977,7	11,148
978,1	7,976
978,5	5,176
978,9	1,833
979,4	3,49
979,8	3,89
980,2	4,976
980,6	2,576
981	8,49
981,5	6,376
981,9	6,005
982,3	10,405
982,7	9,748
983,1	4,348
983,6	6,09
984	0,976
984,4	4,176
984,8	5,348
985,2	3,662
985,6	1,376
986,1	9,319
986,5	11,033
986,9	8,262
987,3	11,69
987,7	9,776
988,2	10,433
988,6	11,605
989	10,148
989,4	8,719
989,8	10,433
990,3	6,976
990,7	8,976
991,1	9,862
991,5	16,833
991,9	16,662
992,3	18,433
992,8	20,662
993,2	19,89
993,6	19,805
994	20,148
994,4	17,633
994,9	16,062
995,3	12,09
995,7	9,776
996,1	11,033
996,5	13,862
996,9	8,748
997,4	7,205
997,8	2,433
998,2	6,862
998,6	1,49
999	1,89
999,5	1,176
999,9	3,976
1000,3	-1,652
1000,7	2,062
1001,1	-2,91
1001,5	3,805
1002	7,89
1002,4	8,262
1002,8	6,462
1003,2	13,262
1003,6	15,433
1004	19,519
1004,5	17,662
1004,9	17,233
1005,3	13,09
1005,7	16,405
1006,1	13,462
1006,6	11,405
1007	13,462
1007,4	11,548
1007,8	6,89
1008,2	6,776
1008,6	6,433
1009,1	6,176
1009,5	6,662
1009,9	9,319
1010,3	15,405
1010,7	13,748
1011,1	14,69
1011,6	11,576
1012	14,748
1012,4	12,662
1012,8	4,29
1013,2	1,433
1013,6	4,49
1014,1	5,176
1014,5	6,776
1014,9	4,719
1015,3	3,09
1015,7	6,405
1016,1	5,233
1016,6	5,119
1017	4,976
1017,4	4,062
1017,8	1,49
1018,2	8,205
1018,6	6,29
1019,1	5,405
1019,5	7,005
1019,9	8,119
1020,3	11,319
1020,7	16,005
1021,1	13,29
1021,6	16,062
1022	20,405
1022,4	21,033
1022,8	22,605
1023,2	21,662
1023,6	19,005
1024,1	22,462
1024,5	21,462
1024,9	16,548
1025,3	14,719
1025,7	14,205
1026,1	14,29
1026,6	15,148
1027	12,233
1027,4	15,833
1027,8	16,776
1028,2	11,776
1028,6	10,919
1029	9,405
1029,5	11,405
1029,9	10,919
1030,3	2,176
1030,7	4,776
1031,1	7,633
1031,5	3,69
1032	2,605
1032,4	2,805
1032,8	6,376
1033,2	12,605
1033,6	9,176
1034	13,462
1034,4	11,748
1034,9	12,548
1035,3	10,433
1035,7	8,633
1036,1	4,005
1036,5	3,976
1036,9	1,119
1037,4	10,548
1037,8	7,348
1038,2	4,062
1038,6	0,319
1039	6,719
1039,4	14,148
1039,8	10,033
1040,3	3,976
1040,7	7,433
1041,1	11,405
1041,5	15,433
1041,9	13,548
1042,3	6,576
1042,7	11,29
1043,2	11,605
1043,6	7,262
1044	5,919
1044,4	4,919
1044,8	6,148
1045,2	7,005
1045,6	9,548
1046,1	11,576
1046,5	17,119
1046,9	16,719
1047,3	17,69
1047,7	14,433
1048,1	17,776
1048,5	16,862
1049	18,462
1049,4	20,862
1049,8	22,462
1050,2	21,805
1050,6	25,033
1051	19,89
1051,4	18,919
1051,9	16,09
1052,3	22,605
1052,7	22,033
1053,1	19,719
1053,5	15,519
1053,9	15,89
1054,3	14,176
1054,8	19,033
1055,2	8,405
1055,6	11,09
1056	10,319
1056,4	11,976
1056,8	14,576
1057,2	13,919
1057,6	7,319
1058,1	6,09
1058,5	-1,252
1058,9	1,233
1059,3	4,148
1059,7	6,976
1060,1	9,176
1060,5	8,119
1061	10,862
1061,4	15,662
1061,8	20,005
1062,2	16,005
1062,6	16,376
1063	17,948
1063,4	22,348
1063,8	21,89
1064,3	16,69
1064,7	9,462
1065,1	12,49
1065,5	3,833
1065,9	0,776
1066,3	0,748
1066,7	-0,167
1067,1	0,005
1067,6	2,719
1068	-0,138
1068,4	6,233
1068,8	8,833
1069,2	8,433
1069,6	9,805
1070	19,548
1070,4	19,719
1070,9	18,748
1071,3	15,633
1071,7	10,405
1072,1	10,148
1072,5	10,09
1072,9	1,833
1073,3	3,405
1073,7	3,033
1074,2	3,919
1074,6	8,405
1075	6,29
1075,4	8,89
1075,8	12,662
1076,2	13,405
1076,6	15,633
1077	18,29
1077,5	14,576
1077,9	14,033
1078,3	11,005
1078,7	11,29
1079,1	10,49
1079,5	10,576
1079,9	9,462
1080,3	12,948
1080,7	15,148
1081,2	17,976
1081,6	15,09
1082	12,148
1082,4	15,433
1082,8	17,69
1083,2	15,376
1083,6	15,005
1084	12,405
1084,5	14,233
1084,9	13,033
1085,3	7,605
1085,7	5,833
1086,1	8,005
1086,5	9,119
1086,9	11,433
1087,3	11,348
1087,7	12,748
1088,2	14,776
1088,6	10,176
1089	13,662
1089,4	12,262
1089,8	11,005
1090,2	8,919
1090,6	9,119
1091	10,005
1091,4	14,519
1091,9	11,433
1092,3	11,662
1092,7	9,205
1093,1	11,519
1093,5	10,89
1093,9	9,919
1094,3	12,976
1094,7	11,862
1095,1	13,462
1095,5	12,262
1096	9,605
1096,4	12,719
1096,8	11,862
1097,2	8,29
1097,6	11,862
1098	10,833
1098,4	13,176
1098,8	15,462
1099,2	14,376
1099,6	15,205
1100,1	15,062
1100,5	11,605
1100,9	11,748
1101,3	13,633
1101,7	14,033
1102,1	10,348
1102,5	13,405
1102,9	12,69
1103,3	15,633
1103,7	13,062
1104,2	11,233
1104,6	11,433
1105	10,662
1105,4	6,719
1105,8	5,205
1106,2	0,69
1106,6	1,348
1107	0,233
1107,4	-2,067
1107,8	0,273
1108,3	-0,417
