Data from Subt2_277.txt Node
Date: Sat Aug 26 19:05:53 MSK 2023
User: vat
Spectrometer: MAYP114033
Trigger mode: 0
Integration Time (sec): 1,000000E0
Scans to average: 5
Electric dark correction enabled: true
Nonlinearity correction enabled: false
Boxcar width: 3
XAxis mode: Wavelengths
Number of Pixels in Spectrum: 2068
>>>>>Begin Spectral Data<<<<<
199,4	0,183
199,9	0,273
200,4	1,433
200,8	2,062
201,3	1,405
201,8	3,319
202,2	2,633
202,7	8,062
203,2	8,376
203,6	8,376
204,1	5,319
204,6	5,176
205	6,29
205,5	7,405
206	4,919
206,4	4,89
206,9	1,833
207,4	3,548
207,8	4,805
208,3	3,833
208,8	2,205
209,2	1,348
209,7	4,462
210,2	11,319
210,6	13,376
211,1	13,548
211,5	9,176
212	9,976
212,5	10,862
212,9	5,233
213,4	2,719
213,9	0,69
214,3	2,633
214,8	4,89
215,3	6,719
215,7	7,348
216,2	12,519
216,7	10,605
217,1	9,062
217,6	10,519
218,1	11,948
218,5	4,833
219	-0,081
219,5	-0,738
219,9	-4,481
220,4	4,862
220,9	3,976
221,3	3,69
221,8	12,948
222,3	14,433
222,7	14,862
223,2	17,09
223,6	11,319
224,1	8,662
224,6	11,69
225	9,205
225,5	10,719
226	10,376
226,4	14,948
226,9	14,662
227,4	16,205
227,8	9,719
228,3	6,89
228,8	6,976
229,2	6,719
229,7	1,376
230,2	2,89
230,6	2,662
231,1	7,49
231,5	8,033
232	7,548
232,5	5,29
232,9	7,548
233,4	10,262
233,9	6,919
234,3	5,862
234,8	9,662
235,3	7,519
235,7	10,49
236,2	9,662
236,7	3,033
237,1	6,519
237,6	1,233
238,1	-2,824
238,5	-3,881
239	-3,852
239,4	0,605
239,9	1,29
240,4	0,29
240,8	9,376
241,3	14,005
241,8	16,205
242,2	15,662
242,7	12,462
243,2	15,805
243,6	15,605
244,1	12,319
244,6	7,29
245	6,433
245,5	6,005
245,9	3,69
246,4	0,49
246,9	-0,081
247,3	-0,252
247,8	3,89
248,3	6,833
248,7	6,005
249,2	12,033
249,7	14,805
250,1	21,205
250,6	19,776
251	19,376
251,5	19,519
252	14,005
252,4	14,462
252,9	9,633
253,4	-0,424
253,8	-1,052
254,3	-0,31
254,8	0,662
255,2	7,605
255,7	5,405
256,1	11,748
256,6	16,976
257,1	19,519
257,5	15,148
258	11,233
258,5	8,033
258,9	4,633
259,4	-0,024
259,9	1,348
260,3	-1,91
260,8	-3,881
261,2	-2,852
261,7	0,148
262,2	-1,367
262,6	-2,51
263,1	0,548
263,6	2,833
264	6,976
264,5	9,176
264,9	3,348
265,4	4,462
265,9	3,919
266,3	2,433
266,8	5,633
267,3	3,433
267,7	1,576
268,2	6,633
268,7	12,348
269,1	14,262
269,6	4,29
270	5,976
270,5	8,376
271	7,633
271,4	6,948
271,9	-1,967
272,4	-4,252
272,8	3,862
273,3	-4,367
273,7	-2,024
274,2	-1,281
274,7	-1,252
275,1	6,119
275,6	14,262
276,1	12,348
276,5	15,376
277	12,405
277,4	12,462
277,9	14,205
278,4	11,119
278,8	7,405
279,3	9,005
279,8	12,176
280,2	14,89
280,7	19,119
281,1	15,519
281,6	16,319
282,1	18,719
282,5	19,062
283	15,062
283,4	10,662
283,9	7,062
284,4	12,548
284,8	11,319
285,3	7,49
285,8	4,919
286,2	4,405
286,7	3,319
287,1	2,862
287,6	-0,224
288,1	2,176
288,5	4,919
289	5,233
289,5	7,605
289,9	10,919
290,4	13,519
290,8	14,862
291,3	11,462
291,8	13,29
292,2	13,176
292,7	14,548
293,1	12,748
293,6	12,005
294,1	13,005
294,5	14,005
295	12,49
295,5	10,69
295,9	10,062
296,4	8,633
296,8	7,09
297,3	5,805
297,8	5,69
298,2	2,548
298,7	7,119
299,1	7,176
299,6	8,233
300,1	8,919
300,5	10,519
301	14,062
301,5	18,405
301,9	15,576
302,4	12,033
302,8	13,805
303,3	8,633
303,8	2,433
304,2	-2,967
304,7	-7,224
305,1	-11,367
305,6	-9,51
306,1	-8,681
306,5	-1,967
307	4,09
307,4	7,262
307,9	8,062
308,4	10,29
308,8	8,605
309,3	5,69
309,8	5,976
310,2	3,29
310,7	0,919
311,1	1,976
311,6	4,633
312,1	5,862
312,5	10,005
313	5,205
313,4	5,348
313,9	6,49
314,4	4,29
314,8	-1,052
315,3	-1,31
315,7	-8,938
316,2	-8,11
316,7	-7,167
317,1	-3,624
317,6	-3,367
318	3,633
318,5	2,576
319	9,148
319,4	11,662
319,9	15,776
320,3	15,633
320,8	14,405
321,3	12,519
321,7	15,233
322,2	15,233
322,6	17,405
323,1	12,033
323,6	10,548
324	9,205
324,5	8,633
324,9	9,062
325,4	4,405
325,9	2,89
326,3	7,148
326,8	8,205
327,2	8,548
327,7	7,748
328,2	8,49
328,6	13,033
329,1	9,29
329,5	4,119
330	2,119
330,5	4,948
330,9	9,433
331,4	8,662
331,8	8,176
332,3	12,948
332,8	14,176
333,2	14,176
333,7	15,69
334,1	12,776
334,6	8,233
335,1	4,033
335,5	2,919
336	2,148
336,4	2,662
336,9	7,205
337,4	8,976
337,8	10,462
338,3	13,319
338,7	14,148
339,2	12,89
339,7	16,805
340,1	12,09
340,6	11,462
341	11,69
341,5	13,405
342	8,433
342,4	7,49
342,9	3,605
343,3	2,719
343,8	-0,852
344,2	2,833
344,7	6,662
345,2	10,29
345,6	15,205
346,1	15,005
346,5	12,462
347	6,576
347,5	4,033
347,9	3,519
348,4	2,776
348,8	1,29
349,3	6,119
349,8	11,033
350,2	28,405
350,7	31,805
351,1	32,233
351,6	41,69
352	52,519
352,5	62,033
353	75,376
353,4	83,005
353,9	103,462
354,3	127,319
354,8	148,719
355,3	179,348
355,7	212,09
356,2	253,605
356,6	305,148
357,1	361,519
357,5	425,605
358	502,633
358,5	585,433
358,9	683,29
359,4	794,948
359,8	919,605
360,3	1060,919
360,8	1214,662
361,2	1391,262
361,7	1590,833
362,1	1807,833
362,6	2041,376
363	2291,89
363,5	2561,919
364	2855,862
364,4	3153,433
364,9	3454,119
365,3	3753,319
365,8	4044,233
366,3	4324,548
366,7	4576,719
367,2	4801,49
367,6	4992,319
368,1	5138,948
368,5	5251,062
369	5319,605
369,5	5343,405
369,9	5326,348
370,4	5258,176
370,8	5149,862
371,3	5017,033
371,7	4850,748
372,2	4655,776
372,7	4435,576
373,1	4202,776
373,6	3963,262
374	3729,69
374,5	3486,348
374,9	3246,633
375,4	3018,148
375,9	2801,576
376,3	2596,548
376,8	2394,519
377,2	2201,776
377,7	2019,176
378,2	1853,262
378,6	1696,976
379,1	1549,919
379,5	1418,89
380	1308,29
380,4	1198,805
380,9	1104,205
381,4	1011,405
381,8	930,69
382,3	864,948
382,7	799,576
383,2	742,519
383,6	690,519
384,1	643,405
384,6	602,69
385	565,919
385,5	524,69
385,9	483,062
386,4	451,719
386,8	422,69
387,3	393,662
387,7	366,119
388,2	342,69
388,7	321,576
389,1	302,719
389,6	279,833
390	257,89
390,5	242,405
390,9	227,205
391,4	206,033
391,9	189,948
392,3	177,205
392,8	159,948
393,2	154,062
393,7	144,319
394,1	129,633
394,6	124,376
395,1	119,29
395,5	113,119
396	111,119
396,4	101,776
396,9	96,262
397,3	100,862
397,8	98,976
398,2	96,548
398,7	95,919
399,2	90,176
399,6	86,748
400,1	82,262
400,5	75,433
401	75,462
401,4	68,548
401,9	69,262
402,4	76,662
402,8	80,348
403,3	88,176
403,7	90,348
404,2	89,176
404,6	97,005
405,1	94,719
405,5	91,348
406	92,348
406,5	89,29
406,9	92,862
407,4	96,09
407,8	98,605
408,3	104,148
408,7	104,605
409,2	111,119
409,6	119,69
410,1	126,89
410,6	136,862
411	144,576
411,5	149,976
411,9	159,548
412,4	162,605
412,8	167,662
413,3	174,176
413,7	171,376
414,2	171,49
414,7	177,805
415,1	187,148
415,6	192,09
416	193,576
416,5	195,948
416,9	201,119
417,4	205,633
417,8	214,548
418,3	216,976
418,8	220,89
419,2	220,833
419,7	218,176
420,1	220,29
420,6	223,119
421	214,462
421,5	213,605
421,9	214,519
422,4	217,119
422,8	219,605
423,3	218,633
423,8	213,805
424,2	212,748
424,7	207,748
425,1	206,262
425,6	206,49
426	204,89
426,5	204,576
426,9	210,148
427,4	204,576
427,9	196,833
428,3	193,405
428,8	188,748
429,2	184,29
429,7	179,119
430,1	174,89
430,6	181,348
431	186,833
431,5	190,348
431,9	186,519
432,4	189,233
432,8	195,119
433,3	193,148
433,8	191,148
434,2	194,062
434,7	193,605
435,1	196,433
435,6	197,519
436	196,233
436,5	201,748
436,9	202,776
437,4	199,233
437,8	198,748
438,3	205,433
438,8	205,548
439,2	208,605
439,7	209,948
440,1	213,462
440,6	226,005
441	225,948
441,5	224,433
441,9	232,49
442,4	232,348
442,8	231,948
443,3	233,548
443,7	231,519
444,2	238,719
444,7	243,576
445,1	243,319
445,6	246,176
446	250,662
446,5	250,605
446,9	244,205
447,4	242,862
447,8	244,148
448,3	249,148
448,7	250,119
449,2	249,948
449,6	257,49
450,1	265,119
450,6	266,548
451	267,49
451,5	265,519
451,9	272,605
452,4	277,748
452,8	279,348
453,3	285,605
453,7	288,519
454,2	294,748
454,6	298,262
455,1	298,519
455,5	299,548
456	306,776
456,4	304,748
456,9	313,119
457,3	314,09
457,8	312,148
458,3	318,948
458,7	322,548
459,2	319,89
459,6	327,805
460,1	330,519
460,5	332,148
461	348,576
461,4	349,433
461,9	356,262
462,3	367,662
462,8	374,605
463,2	379,49
463,7	391,948
464,1	396,605
464,6	410,748
465	422,519
465,5	429,405
466	433,862
466,4	444,833
466,9	460,205
467,3	467,005
467,8	477,548
468,2	482,433
468,7	491,805
469,1	508,233
469,6	516,862
470	521,576
470,5	533,833
470,9	536,548
471,4	546,576
471,8	555,605
472,3	564,148
472,7	572,976
473,2	577,262
473,6	580,748
474,1	593,433
474,5	602,348
475	612,862
475,4	619,462
475,9	629,576
476,4	641,462
476,8	654,433
477,3	660,919
477,7	673,462
478,2	680,548
478,6	686,005
479,1	688,948
479,5	692,205
480	697,433
480,4	709,69
480,9	713,576
481,3	720,376
481,8	728,033
482,2	733,462
482,7	745,376
483,1	755,976
483,6	758,833
484	764,119
484,5	771,233
484,9	779,719
485,4	796,776
485,8	800,805
486,3	806,348
486,7	810,005
487,2	817,462
487,6	819,548
488,1	819,69
488,5	815,062
489	821,319
489,4	827,49
489,9	831,948
490,4	835,69
490,8	843,29
491,3	853,719
491,7	860,233
492,2	867,005
492,6	865,119
493,1	867,833
493,5	870,748
494	871,576
494,4	872,49
494,9	877,748
495,3	880,605
495,8	884,262
496,2	893,005
496,7	891,862
497,1	900,405
497,6	908,462
498	913,633
498,5	922,262
498,9	924,205
499,4	923,662
499,8	938,348
500,3	940,776
500,7	942,205
501,2	944,205
501,6	937,433
502,1	944,405
502,5	950,119
503	950,719
503,4	951,462
503,9	950,69
504,3	952,09
504,8	953,805
505,2	954,948
505,7	955,862
506,1	960,919
506,6	965,462
507	969,062
507,5	971,776
507,9	979,062
508,4	981,319
508,8	983,49
509,3	978,748
509,7	980,062
510,2	985,948
510,6	984,805
511,1	983,319
511,5	990,833
512	993,576
512,4	998,062
512,9	999,005
513,3	996,433
513,8	1003,033
514,2	1006,405
514,7	1008,376
515,1	1010,805
515,6	1014,148
516	1014,433
516,5	1021,548
516,9	1025,233
517,4	1036,69
517,8	1040,405
518,3	1046,033
518,7	1048,319
519,2	1059,776
519,6	1059,662
520,1	1061,29
520,5	1060,748
521	1058,29
521,4	1062,433
521,9	1067,29
522,3	1069,119
522,8	1077,805
523,2	1080,948
523,7	1085,433
524,1	1093,605
524,6	1098,005
525	1103,748
525,5	1102,49
525,9	1105,462
526,4	1112,119
526,8	1117,233
527,3	1122,233
527,7	1128,319
528,2	1135,633
528,6	1136,948
529,1	1142,062
529,5	1143,29
530	1144,176
530,4	1146,405
530,9	1150,519
531,3	1149,776
531,8	1159,948
532,2	1163,833
532,6	1171,748
533,1	1172,948
533,5	1180,119
534	1180,233
534,4	1184,976
534,9	1189,405
535,3	1193,148
535,8	1195,776
536,2	1208,69
536,7	1212,576
537,1	1217,062
537,6	1223,233
538	1232,89
538,5	1242,576
538,9	1248,262
539,4	1254,319
539,8	1252,69
540,3	1265,405
540,7	1268,776
541,2	1263,976
541,6	1266,862
542,1	1272,662
542,5	1271,948
543	1281,976
543,4	1278,062
543,9	1285,29
544,3	1293,748
544,8	1293,205
545,2	1299,862
545,7	1306,576
546,1	1317,348
546,5	1328,519
547	1332,89
547,4	1341,805
547,9	1349,205
548,3	1354,119
548,8	1363,348
549,2	1360,976
549,7	1359,262
550,1	1364,633
550,6	1369,319
551	1371,633
551,5	1378,005
551,9	1376,262
552,4	1382,405
552,8	1391,148
553,3	1388,862
553,7	1389,519
554,2	1396,862
554,6	1400,348
555,1	1408,119
555,5	1410,119
555,9	1411,605
556,4	1423,576
556,8	1424,548
557,3	1427,605
557,7	1429,976
558,2	1432,548
558,6	1441,405
559,1	1443,719
559,5	1440,633
560	1448,548
560,4	1451,548
560,9	1454,262
561,3	1452,748
561,8	1453,605
562,2	1459,462
562,7	1460,262
563,1	1465,176
563,6	1465,948
564	1471,433
564,4	1474,662
564,9	1476,976
565,3	1478,748
565,8	1487,09
566,2	1489,805
566,7	1499,433
567,1	1503,919
567,6	1509,719
568	1509,176
568,5	1510,033
568,9	1506,49
569,4	1503,005
569,8	1501,148
570,3	1496,49
570,7	1495,948
571,1	1496,805
571,6	1502,976
572	1511,89
572,5	1511,005
572,9	1507,205
573,4	1509,319
573,8	1508,519
574,3	1508,119
574,7	1506,005
575,2	1499,919
575,6	1501,776
576,1	1506,348
576,5	1507,662
576,9	1509,748
577,4	1507,862
577,8	1502,519
578,3	1502,462
578,7	1507,119
579,2	1511,005
579,6	1509,176
580,1	1503,062
580,5	1507,748
581	1513,148
581,4	1514,348
581,9	1505,862
582,3	1498,29
582,7	1498,748
583,2	1505,605
583,6	1503,319
584,1	1499,89
584,5	1496,576
585	1498,548
585,4	1496,49
585,9	1492,29
586,3	1491,519
586,8	1496,89
587,2	1492,09
587,6	1495,776
588,1	1499,433
588,5	1501,776
589	1502,119
589,4	1492,548
589,9	1480,176
590,3	1484,176
590,8	1481,519
591,2	1477,748
591,7	1478,462
592,1	1480,376
592,5	1484,49
593	1482,833
593,4	1477,576
593,9	1472,548
594,3	1465,976
594,8	1457,49
595,2	1451,548
595,7	1446,348
596,1	1444,805
596,6	1439,89
597	1441,519
597,4	1444,548
597,9	1445,005
598,3	1442,748
598,8	1441,662
599,2	1439,262
599,7	1438,89
600,1	1433,376
600,6	1423,462
601	1416,433
601,4	1415,433
601,9	1413,062
602,3	1405,262
602,8	1406,576
603,2	1399,662
603,7	1398,89
604,1	1396,576
604,6	1392,605
605	1386,69
605,4	1394,719
605,9	1384,319
606,3	1379,69
606,8	1376,233
607,2	1370,948
607,7	1359,633
608,1	1352,948
608,6	1340,89
609	1347,462
609,4	1348,148
609,9	1342,548
610,3	1339,719
610,8	1337,919
611,2	1338,405
611,7	1337,69
612,1	1325,748
612,6	1324,976
613	1324,148
613,4	1318,49
613,9	1316,633
614,3	1306,919
614,8	1305,119
615,2	1297,948
615,7	1288,49
616,1	1284,776
616,6	1280,919
617	1269,89
617,4	1269,919
617,9	1266,176
618,3	1265,605
618,8	1266,262
619,2	1259,662
619,7	1258,805
620,1	1253,805
620,5	1251,833
621	1238,748
621,4	1238,948
621,9	1231,348
622,3	1223,319
622,8	1216,633
623,2	1219,119
623,6	1213,148
624,1	1215,862
624,5	1204,776
625	1199,033
625,4	1196,348
625,9	1191,233
626,3	1183,776
626,8	1173,205
627,2	1166,862
627,6	1157,462
628,1	1150,033
628,5	1145,833
629	1136,576
629,4	1133,119
629,9	1131,948
630,3	1122,462
630,7	1115,948
631,2	1111,005
631,6	1103,605
632,1	1102,69
632,5	1092,005
633	1082,348
633,4	1079,89
633,8	1076,176
634,3	1067,49
634,7	1060,576
635,2	1049,433
635,6	1044,376
636,1	1037,205
636,5	1025,348
636,9	1022,662
637,4	1018,062
637,8	1013,09
638,3	1008,462
638,7	1001,062
639,2	1000,262
639,6	1001,919
640	994,69
640,5	990,89
640,9	983,69
641,4	982,433
641,8	980,29
642,2	975,776
642,7	972,833
643,1	969,176
643,6	966,005
644	965,433
644,5	958,09
644,9	957,948
645,3	952,433
645,8	939,976
646,2	939,148
646,7	934,976
647,1	926,519
647,6	927,205
648	920,005
648,4	912,262
648,9	914,919
649,3	903,348
649,8	898,69
650,2	895,29
650,6	884,176
651,1	878,605
651,5	878,69
652	866,919
652,4	865,205
652,9	866,319
653,3	866,69
653,7	861,405
654,2	857,605
654,6	848,205
655,1	849,176
655,5	848,748
655,9	835,319
656,4	825,776
656,8	824,89
657,3	820,49
657,7	822,062
658,2	815,748
658,6	803,319
659	802,033
659,5	795,262
659,9	789,719
660,4	784,862
660,8	771,033
661,2	764,89
661,7	765,519
662,1	760,69
662,6	757,662
663	753,462
663,4	745,862
663,9	744,319
664,3	740,862
664,8	736,805
665,2	729,719
665,6	727,233
666,1	722,005
666,5	718,89
667	715,833
667,4	707,633
667,9	700,89
668,3	699,29
668,7	692,433
669,2	687,919
669,6	682,805
670,1	682,176
670,5	681,348
670,9	674,719
671,4	665,348
671,8	662,405
672,3	660,176
672,7	660,148
673,1	652,833
673,6	645,062
674	645,405
674,5	645,405
674,9	632,576
675,3	627,633
675,8	621,433
676,2	615,148
676,7	610,062
677,1	607,262
677,5	597,49
678	602,119
678,4	598,862
678,9	594,576
679,3	590,833
679,7	589,005
680,2	578,748
680,6	576,719
681,1	576,148
681,5	579,433
681,9	579,405
682,4	578,862
682,8	578,405
683,3	580,376
683,7	577,119
684,1	572,176
684,6	559,748
685	550,776
685,5	547,176
685,9	541,205
686,3	536,662
686,8	534,348
687,2	530,633
687,7	525,805
688,1	523,148
688,5	520,29
689	518,748
689,4	509,176
689,9	505,176
690,3	497,862
690,7	493,405
691,2	493,176
691,6	492,519
692	487,576
692,5	487,948
692,9	485,462
693,4	482,69
693,8	480,376
694,2	472,976
694,7	463,433
695,1	460,519
695,6	461,805
696	461,748
696,4	458,605
696,9	455,09
697,3	449,605
697,8	446,062
698,2	440,462
698,6	438,033
699,1	435,119
699,5	440,205
699,9	437,205
700,4	436,633
700,8	439,233
701,3	443,833
701,7	435,519
702,1	431,148
702,6	424,033
703	426,519
703,5	421,976
703,9	416,176
704,3	413,262
704,8	409,976
705,2	405,548
705,6	406,833
706,1	399,119
706,5	398,862
707	396,805
707,4	391,69
707,8	388,805
708,3	393,09
708,7	384,376
709,2	386,062
709,6	383,405
710	382,062
710,5	377,319
710,9	376,176
711,3	366,462
711,8	366,233
712,2	360,205
712,7	358,519
713,1	355,148
713,5	357,833
714	358,519
714,4	355,49
714,8	351,89
715,3	347,576
715,7	348,69
716,2	344,748
716,6	339,09
717	331,119
717,5	326,833
717,9	326,348
718,3	325,919
718,8	321,176
719,2	318,119
719,7	314,633
720,1	315,862
720,5	321,69
721	319,033
721,4	318,89
721,8	320,09
722,3	316,176
722,7	320,662
723,2	316,319
723,6	305,433
724	297,919
724,5	293,176
724,9	283,433
725,3	286,148
725,8	276,776
726,2	274,005
726,7	277,005
727,1	279,662
727,5	284,662
728	285,005
728,4	281,948
728,8	278,233
729,3	277,719
729,7	269,319
730,1	266,462
730,6	261,976
731	260,662
731,5	263,376
731,9	261,748
732,3	261,719
732,8	264,89
733,2	261,519
733,6	256,748
734,1	256,919
734,5	253,033
734,9	258,433
735,4	254,348
735,8	249,719
736,3	251,433
736,7	249,833
737,1	250,319
737,6	246,29
738	241,29
738,4	239,348
738,9	244,005
739,3	243,005
739,7	244,833
740,2	239,805
740,6	242,233
741,1	242,862
741,5	240,776
741,9	236,805
742,4	235,09
742,8	227,919
743,2	228,69
743,7	220,633
744,1	214,405
744,5	212,49
745	207,205
745,4	203,748
745,8	207,633
746,3	203,433
746,7	204,148
747,2	204,148
747,6	208,719
748	216,605
748,5	217,69
748,9	211,976
749,3	210,376
749,8	209,29
750,2	208,605
750,6	205,748
751,1	205,348
751,5	205,49
751,9	209,605
752,4	213,519
752,8	211,862
753,3	209,49
753,7	212,09
754,1	204,833
754,6	201,89
755	196,633
755,4	189,005
755,9	187,719
756,3	187,319
756,7	182,462
757,2	183,662
757,6	185,262
758	182,719
758,5	187,29
758,9	189,148
759,3	189,376
759,8	184,09
760,2	180,748
760,6	172,919
761,1	172,948
761,5	169,005
761,9	164,719
762,4	157,948
762,8	159,319
763,3	155,919
763,7	158,605
764,1	158,833
764,6	156,262
765	157,176
765,4	163,605
765,9	163,29
766,3	169,405
766,7	168,605
767,2	166,605
767,6	167,605
768	165,29
768,5	162,833
768,9	160,205
769,3	155,576
769,8	153,148
770,2	155,119
770,6	156,033
771,1	158,576
771,5	158,148
771,9	162,319
772,4	164,205
772,8	165,348
773,2	163,748
773,7	160,605
774,1	158,033
774,5	151,119
775	146,662
775,4	143,919
775,8	139,005
776,3	140,776
776,7	134,376
777,1	130,519
777,6	131,605
778	131,462
778,4	128,09
778,9	130,005
779,3	122,948
779,7	125,09
780,2	129,576
780,6	134,405
781	133,919
781,5	133,89
781,9	132,462
782,3	129,205
782,8	130,033
783,2	126,605
783,6	125,09
784,1	121,49
784,5	117,948
784,9	115,348
785,4	122,09
785,8	124,062
786,2	123,262
786,7	121,748
787,1	117,633
787,5	117,49
788	116,376
788,4	116,119
788,8	113,49
789,3	110,233
789,7	108,376
790,1	110,805
790,6	115,576
791	116,262
791,4	113,776
791,9	110,948
792,3	108,748
792,7	109,49
793,2	106,405
793,6	101,29
794	102,662
794,5	102,376
794,9	106,005
795,3	112,805
795,8	109,062
796,2	108,976
796,6	108,262
797,1	108,376
797,5	103,976
797,9	101,548
798,4	95,605
798,8	98,062
799,2	99,376
799,7	100,662
800,1	95,548
800,5	94,119
801	95,119
801,4	91,748
801,8	88,376
802,2	86,548
802,7	83,948
803,1	85,262
803,5	88,89
804	82,433
804,4	86,805
804,8	86,89
805,3	91,862
805,7	94,605
806,1	93,348
806,6	93,233
807	94,862
807,4	89,89
807,9	83,976
808,3	82,205
808,7	81,776
809,2	83,176
809,6	82,69
810	80,433
810,4	82,748
810,9	88,119
811,3	88,348
811,7	88,09
812,2	91,348
812,6	87,69
813	94,062
813,5	95,662
813,9	90,69
814,3	87,09
814,8	82,633
815,2	77,319
815,6	78,433
816,1	78,148
816,5	75,748
816,9	81,862
817,3	80,548
817,8	86,376
818,2	87,862
818,6	85,405
819,1	81,605
819,5	78,033
819,9	79,833
820,4	80,233
820,8	71,148
821,2	67,176
821,7	66,948
822,1	67,633
822,5	74,662
822,9	70,376
823,4	68,605
823,8	76,519
824,2	75,776
824,7	72,948
825,1	65,033
825,5	57,319
826	48,576
826,4	49,948
826,8	43,719
827,3	47,805
827,7	49,462
828,1	56,033
828,5	57,919
829	63,748
829,4	62,805
829,8	61,033
830,3	58,005
830,7	54,662
831,1	56,748
831,6	56,433
832	50,776
832,4	48,919
832,8	52,29
833,3	53,262
833,7	52,748
834,1	48,605
834,6	44,748
835	50,205
835,4	51,976
835,8	45,405
836,3	45,29
836,7	44,29
837,1	47,748
837,6	51,348
838	50,605
838,4	51,205
838,9	54,119
839,3	47,49
839,7	53,033
840,1	42,662
840,6	41,319
841	42,176
841,4	42,948
841,9	46,576
842,3	52,862
842,7	51,233
843,1	54,776
843,6	56,605
844	54,348
844,4	53,662
844,9	54,948
845,3	53,405
845,7	56,976
846,2	55,833
846,6	48,605
847	52,233
847,4	49,49
847,9	46,605
848,3	43,433
848,7	38,633
849,2	39,976
849,6	45,148
850	43,348
850,4	44,376
850,9	42,89
851,3	46,033
851,7	48,405
852,2	49,633
852,6	50,948
853	49,719
853,4	44,262
853,9	43,033
854,3	44,605
854,7	46,062
855,2	41,89
855,6	41,319
856	41,462
856,4	41,176
856,9	37,348
857,3	35,262
857,7	35,262
858,2	44,49
858,6	42,405
859	43,576
859,4	46,605
859,9	47,49
860,3	42,69
860,7	39,948
861,1	36,49
861,6	37,519
862	34,405
862,4	34,09
862,9	35,719
863,3	39,776
863,7	38,519
864,1	36,348
864,6	35,233
865	37,319
865,4	39,433
865,9	43,519
866,3	40,805
866,7	42,176
867,1	34,776
867,6	33,519
868	28,948
868,4	27,576
868,8	23,862
869,3	21,662
869,7	22,862
870,1	28,69
870,6	28,633
871	36,833
871,4	38,662
871,8	37,576
872,3	40,519
872,7	37,29
873,1	32,69
873,5	35,176
874	26,89
874,4	29,148
874,8	26,348
875,3	29,69
875,7	28,719
876,1	34,49
876,5	31,348
877	30,405
877,4	24,69
877,8	29,605
878,2	29,49
878,7	31,348
879,1	32,49
879,5	35,233
879,9	37,862
880,4	38,348
880,8	36,776
881,2	35,405
881,7	33,062
882,1	29,833
882,5	28,862
882,9	24,776
883,4	22,033
883,8	24,462
884,2	23,262
884,6	23,862
885,1	26,69
885,5	23,662
885,9	27,29
886,3	31,262
886,8	25,948
887,2	22,462
887,6	20,833
888	18,919
888,5	23,119
888,9	21,862
889,3	18,833
889,8	19,776
890,2	22,919
890,6	19,719
891	22,033
891,5	18,205
891,9	17,519
892,3	22,49
892,7	24,405
893,2	26,033
893,6	30,519
894	29,433
894,4	29,576
894,9	33,69
895,3	31,29
895,7	33,262
896,1	30,548
896,6	30,148
897	30,433
897,4	32,748
897,8	33,576
898,3	31,776
898,7	26,462
899,1	26,548
899,5	28,205
900	20,633
900,4	19,976
900,8	11,862
901,2	11,605
901,7	11,776
902,1	14,548
902,5	13,176
902,9	14,662
903,4	15,205
903,8	23,148
904,2	21,233
904,6	19,519
905,1	16,776
905,5	18,433
905,9	24,29
906,3	23,548
906,8	21,033
907,2	24,205
907,6	29,205
908	29,348
908,5	21,69
908,9	15,748
909,3	15,033
909,7	12,348
910,2	9,662
910,6	13,89
911	8,148
911,4	13,519
911,9	18,033
912,3	17,29
912,7	21,462
913,1	23,89
913,6	16,576
914	24,148
914,4	21,49
914,8	21,548
915,3	20,348
915,7	16,376
916,1	15,462
916,5	15,719
916,9	13,09
917,4	16,262
917,8	11,09
918,2	11,833
918,6	11,348
919,1	14,833
919,5	16,519
919,9	17,376
920,3	14,005
920,8	17,776
921,2	17,576
921,6	18,033
922	13,662
922,5	15,69
922,9	12,862
923,3	11,519
923,7	11,09
924,2	10,005
924,6	10,633
925	11,319
925,4	7,29
925,8	8,119
926,3	9,376
926,7	5,462
927,1	5,462
927,5	7,69
928	4,548
928,4	5,633
928,8	9,005
929,2	8,319
929,7	14,862
930,1	17,233
930,5	12,176
930,9	18,176
931,3	19,976
931,8	18,719
932,2	21,033
932,6	18,29
933	12,09
933,5	13,719
933,9	13,119
934,3	11,233
934,7	12,148
935,2	14,433
935,6	12,29
936	16,576
936,4	16,405
936,8	16,205
937,3	11,805
937,7	11,719
938,1	10,69
938,5	10,462
939	12,348
939,4	12,49
939,8	7,776
940,2	9,519
940,6	4,633
941,1	2,376
941,5	8,748
941,9	6,09
942,3	9,748
942,8	13,89
943,2	18,69
943,6	17,833
944	20,719
944,4	16,862
944,9	14,833
945,3	16,748
945,7	12,376
946,1	5,205
946,6	10,176
947	6,633
947,4	4,262
947,8	9,976
948,2	3,862
948,7	4,662
949,1	6,262
949,5	7,919
949,9	11,09
950,3	12,805
950,8	10,29
951,2	10,205
951,6	5,919
952	10,49
952,5	3,005
952,9	-0,024
953,3	-0,538
953,7	-1,567
954,1	7,662
954,6	14,348
955	14,005
955,4	17,205
955,8	21,205
956,2	19,805
956,7	20,319
957,1	10,89
957,5	10,662
957,9	8,805
958,3	7,919
958,8	8,605
959,2	13,49
959,6	19,519
960	17,776
960,5	16,29
960,9	22,319
961,3	20,033
961,7	16,09
962,1	9,805
962,6	4,548
963	6,205
963,4	5,862
963,8	2,29
964,2	4,262
964,7	4,719
965,1	10,205
965,5	10,49
965,9	11,948
966,3	13,662
966,8	12,233
967,2	13,919
967,6	15,633
968	10,005
968,4	10,462
968,9	9,548
969,3	13,976
969,7	8,948
970,1	8,233
970,5	9,69
971	17,919
971,4	17,119
971,8	20,405
972,2	17,833
972,6	23,776
973,1	23,462
973,5	20,376
973,9	14,776
974,3	18,119
974,7	18,548
975,2	17,748
975,6	16,176
976	17,176
976,4	16,69
976,8	19,748
977,3	13,776
977,7	8,462
978,1	9,119
978,5	6,719
978,9	3,576
979,4	-1,281
979,8	-2,538
980,2	-0,767
980,6	0,205
981	0,09
981,5	1,462
981,9	2,062
982,3	7,576
982,7	8,519
983,1	2,29
983,6	1,519
984	-0,938
984,4	0,548
984,8	3,376
985,2	-0,167
985,6	-4,795
986,1	2,605
986,5	8,662
986,9	6,833
987,3	14,976
987,7	12,919
988,2	18,262
988,6	21,348
989	20,576
989,4	13,833
989,8	15,805
990,3	6,719
990,7	9,519
991,1	7,49
991,5	9,319
991,9	10,776
992,3	13,49
992,8	13,862
993,2	16,119
993,6	15,148
994	19,462
994,4	17,719
994,9	13,862
995,3	13,09
995,7	13,148
996,1	10,348
996,5	9,548
996,9	0,462
997,4	2,776
997,8	3,433
998,2	0,833
998,6	-7,424
999	-8,395
999,5	-8,91
999,9	-6,738
1000,3	-16,024
1000,7	-15,138
1001,1	-13,995
1001,5	-2,31
1002	4,548
1002,4	6,919
1002,8	6,119
1003,2	14,148
1003,6	15,576
1004	20,119
1004,5	12,462
1004,9	10,719
1005,3	4,576
1005,7	7,976
1006,1	7,919
1006,6	5,062
1007	4,633
1007,4	6,433
1007,8	0,519
1008,2	0,49
1008,6	5,376
1009,1	5,49
1009,5	4,805
1009,9	6,033
1010,3	6,662
1010,7	8,548
1011,1	12,748
1011,6	9,033
1012	9,433
1012,4	8,948
1012,8	2,462
1013,2	8,633
1013,6	8,919
1014,1	9,348
1014,5	9,29
1014,9	6,69
1015,3	8,319
1015,7	11,519
1016,1	5,862
1016,6	4,862
1017	2,662
1017,4	-0,824
1017,8	0,948
1018,2	0,319
1018,6	-6,195
1019,1	-6,652
1019,5	-4,567
1019,9	-3,11
1020,3	-2,567
1020,7	-5,281
1021,1	-1,567
1021,6	4,89
1022	5,748
1022,4	4,376
1022,8	6,69
1023,2	7,119
1023,6	9,462
1024,1	14,319
1024,5	15,719
1024,9	15,233
1025,3	16,205
1025,7	13,319
1026,1	15,833
1026,6	16,833
1027	12,29
1027,4	12,376
1027,8	11,119
1028,2	10,09
1028,6	14,576
1029	13,89
1029,5	13,233
1029,9	10,919
1030,3	9,09
1030,7	12,005
1031,1	15,833
1031,5	11,205
1032	14,09
1032,4	14,062
1032,8	14,376
1033,2	16,033
1033,6	16,233
1034	14,49
1034,4	15,462
1034,9	12,176
1035,3	3,776
1035,7	9,833
1036,1	9,29
1036,5	6,376
1036,9	6,662
1037,4	9,862
1037,8	6,605
1038,2	11,805
1038,6	7,148
1039	7,69
1039,4	12,69
1039,8	8,233
1040,3	4,89
1040,7	10,119
1041,1	12,605
1041,5	12,862
1041,9	10,462
1042,3	4,033
1042,7	9,49
1043,2	10,433
1043,6	3,948
1044	3,605
1044,4	3,776
1044,8	8,005
1045,2	9,548
1045,6	10,005
1046,1	9,633
1046,5	13,805
1046,9	13,262
1047,3	13,948
1047,7	14,205
1048,1	13,633
1048,5	9,433
1049	13,262
1049,4	15,119
1049,8	16,833
1050,2	12,462
1050,6	15,719
1051	18,005
1051,4	19,919
1051,9	14,948
1052,3	24,633
1052,7	25,148
1053,1	24,405
1053,5	23,633
1053,9	25,433
1054,3	25,033
1054,8	32,576
1055,2	20,205
1055,6	19,233
1056	22,119
1056,4	14,948
1056,8	11,862
1057,2	11,833
1057,6	6,719
1058,1	6,605
1058,5	0,348
1058,9	3,805
1059,3	11,319
1059,7	12,033
1060,1	13,49
1060,5	14,062
1061	18,548
1061,4	20,89
1061,8	18,633
1062,2	12,29
1062,6	14,862
1063	13,662
1063,4	11,033
1063,8	8,633
1064,3	10,405
1064,7	8,948
1065,1	6,376
1065,5	1,948
1065,9	2,005
1066,3	1,29
1066,7	-2,281
1067,1	-3,167
1067,6	-1,195
1068	-2,595
1068,4	2,148
1068,8	4,548
1069,2	7,633
1069,6	11,176
1070	17,148
1070,4	15,433
1070,9	13,69
1071,3	11,033
1071,7	5,519
1072,1	3,462
1072,5	-1,481
1072,9	-7,595
1073,3	-7,51
1073,7	-2,71
1074,2	-1,624
1074,6	1,976
1075	0,005
1075,4	2,148
1075,8	5,548
1076,2	5,69
1076,6	10,062
1077	7,148
1077,5	9,833
1077,9	9,976
1078,3	11,033
1078,7	9,348
1079,1	9,662
1079,5	5,833
1079,9	8,833
1080,3	3,519
1080,7	5,433
1081,2	9,148
1081,6	9,748
1082	6,233
1082,4	11,148
1082,8	9,605
1083,2	9,89
1083,6	10,205
1084	7,262
1084,5	9,176
1084,9	10,633
1085,3	2,748
1085,7	6,576
1086,1	8,319
1086,5	8,348
1086,9	11,148
1087,3	8,205
1087,7	10,605
1088,2	13,89
1088,6	11,862
1089	11,405
1089,4	13,005
1089,8	9,433
1090,2	7,519
1090,6	5,29
1091	12,119
1091,4	12,862
1091,9	11,176
1092,3	10,805
1092,7	11,719
1093,1	15,262
1093,5	16,005
1093,9	10,348
1094,3	10,205
1094,7	14,148
1095,1	13,805
1095,5	14,09
1096	11,519
1096,4	12,719
1096,8	11,233
1097,2	8,205
1097,6	6,833
1098	8,805
1098,4	15,148
1098,8	15,433
1099,2	17,519
1099,6	16,348
1100,1	15,09
1100,5	13,576
1100,9	8,319
1101,3	2,062
1101,7	2,748
1102,1	0,148
1102,5	2,205
1102,9	6,005
1103,3	8,433
1103,7	11,09
1104,2	11,033
1104,6	11,205
1105	9,005
1105,4	10,862
1105,8	8,09
1106,2	5,176
1106,6	3,805
1107	2,462
1107,4	2,133
1107,8	4,313
1108,3	-0,317
