Data from Subt2_274.txt Node
Date: Sat Aug 26 19:04:38 MSK 2023
User: vat
Spectrometer: MAYP114033
Trigger mode: 0
Integration Time (sec): 1,000000E0
Scans to average: 5
Electric dark correction enabled: true
Nonlinearity correction enabled: false
Boxcar width: 3
XAxis mode: Wavelengths
Number of Pixels in Spectrum: 2068
>>>>>Begin Spectral Data<<<<<
199,4	-0,517
199,9	2,373
200,4	1,233
200,8	2,19
201,3	1,79
201,8	4,562
202,2	2,733
202,7	6,648
203,2	4,219
203,6	3,248
204,1	-1,752
204,6	-0,638
205	1,305
205,5	2,276
206	-3,324
206,4	-1,924
206,9	2,848
207,4	8,905
207,8	8,276
208,3	6,162
208,8	7,305
209,2	11,733
209,7	6,39
210,2	5,476
210,6	5,076
211,1	5,962
211,5	1,39
212	-1,038
212,5	-1,638
212,9	1,248
213,4	-0,124
213,9	-3,41
214,3	-1,295
214,8	7,676
215,3	11,276
215,7	10,219
216,2	15,79
216,7	17,362
217,1	14,305
217,6	14,876
218,1	7,562
218,5	5,219
219	2,19
219,5	-3,181
219,9	-6,752
220,4	6,39
220,9	5,048
221,3	5,476
221,8	5,905
222,3	4,79
222,7	9,019
223,2	8,562
223,6	0,848
224,1	-0,81
224,6	0,876
225	0,076
225,5	3,219
226	1,962
226,4	3,162
226,9	4,648
227,4	3,619
227,8	-3,01
228,3	1,448
228,8	1,362
229,2	1,533
229,7	1,448
230,2	-0,01
230,6	5,19
231,1	13,39
231,5	14,819
232	14,819
232,5	13,676
232,9	17,333
233,4	20,048
233,9	12,333
234,3	11,705
234,8	9,705
235,3	11,419
235,7	10,533
236,2	9,276
236,7	7,276
237,1	13,99
237,6	9,019
238,1	4,276
238,5	-0,038
239	4,733
239,4	8,933
239,9	6,79
240,4	5,476
240,8	13,333
241,3	12,248
241,8	15,19
242,2	10,019
242,7	4,362
243,2	6,533
243,6	4,362
244,1	3,248
244,6	10,133
245	10,819
245,5	6,448
245,9	3,79
246,4	1,905
246,9	5,105
247,3	2,648
247,8	1,619
248,3	1,733
248,7	6,99
249,2	7,333
249,7	7,533
250,1	7,619
250,6	8,99
251	6,876
251,5	5,448
252	6,705
252,4	12,476
252,9	10,733
253,4	4,705
253,8	2,276
254,3	0,962
254,8	5,505
255,2	3,105
255,7	1,762
256,1	4,562
256,6	8,676
257,1	6,876
257,5	3,905
258	-0,838
258,5	1,076
258,9	-2,238
259,4	-5,352
259,9	-2,895
260,3	-2,524
260,8	-0,724
261,2	2,133
261,7	-0,067
262,2	-1,724
262,6	0,905
263,1	3,448
263,6	6,905
264	9,99
264,5	14,962
264,9	17,876
265,4	23,019
265,9	21,333
266,3	18,305
266,8	20,533
267,3	18,419
267,7	8,59
268,2	8,819
268,7	9,248
269,1	9,419
269,6	6,619
270	6,819
270,5	9,048
271	12,333
271,4	10,019
271,9	3,562
272,4	10,705
272,8	14,19
273,3	8,305
273,7	5,819
274,2	6,362
274,7	6,99
275,1	12,419
275,6	10,79
276,1	3,762
276,5	5,533
277	4,733
277,4	4,162
277,9	8,219
278,4	7,79
278,8	6,505
279,3	11,448
279,8	13,305
280,2	19,705
280,7	24,705
281,1	18,762
281,6	18,533
282,1	13,99
282,5	12,133
283	10,362
283,4	6,19
283,9	1,562
284,4	7,533
284,8	8,019
285,3	2,505
285,8	4,448
286,2	2,19
286,7	1,362
287,1	0,076
287,6	-0,552
288,1	-6,981
288,5	1,162
289	-1,638
289,5	0,419
289,9	2,905
290,4	6,019
290,8	2,876
291,3	5,248
291,8	3,848
292,2	4,39
292,7	8,505
293,1	6,105
293,6	8,219
294,1	7,133
294,5	5,962
295	8,933
295,5	6,133
295,9	1,59
296,4	-1,581
296,8	-4,552
297,3	-1,467
297,8	-5,01
298,2	-7,838
298,7	0,333
299,1	0,476
299,6	2,448
300,1	3,79
300,5	2,562
301	9,419
301,5	10,962
301,9	7,476
302,4	5,219
302,8	7,276
303,3	7,105
303,8	2,105
304,2	3,933
304,7	5,133
305,1	-0,981
305,6	1,962
306,1	10,733
306,5	11,333
307	21,105
307,4	20,505
307,9	19,39
308,4	22,133
308,8	16,619
309,3	12,733
309,8	10,162
310,2	7,962
310,7	2,99
311,1	4,533
311,6	5,276
312,1	10,962
312,5	9,619
313	9,39
313,4	7,79
313,9	12,39
314,4	9,933
314,8	9,533
315,3	8,676
315,7	-0,895
316,2	-0,752
316,7	-2,724
317,1	-0,124
317,6	5,448
318	7,848
318,5	5,505
319	13,448
319,4	15,105
319,9	22,019
320,3	19,676
320,8	13,933
321,3	16,076
321,7	20,019
322,2	16,362
322,6	13,162
323,1	7,848
323,6	6,705
324	6,19
324,5	2,648
324,9	1,533
325,4	-0,181
325,9	2,848
326,3	4,076
326,8	4,276
327,2	0,019
327,7	1,962
328,2	2,162
328,6	5,619
329,1	1,59
329,5	0,99
330	1,19
330,5	7,905
330,9	7,733
331,4	6,419
331,8	4,933
332,3	8,933
332,8	8,905
333,2	9,105
333,7	9,59
334,1	11,79
334,6	11,19
335,1	8,962
335,5	11,99
336	12,048
336,4	13,819
336,9	16,019
337,4	17,99
337,8	19,248
338,3	24,276
338,7	20,048
339,2	16,305
339,7	17,505
340,1	13,133
340,6	8,676
341	7,105
341,5	2,619
342	0,19
342,4	2,819
342,9	4,105
343,3	3,962
343,8	1,248
344,2	1,876
344,7	9,619
345,2	10,762
345,6	9,676
346,1	9,848
346,5	8,705
347	9,619
347,5	11,305
347,9	8,162
348,4	9,362
348,8	11,133
349,3	13,219
349,8	12,59
350,2	20,505
350,7	16,362
351,1	16,905
351,6	21,79
352	22,733
352,5	21,362
353	33,248
353,4	29,19
353,9	39,076
354,3	46,333
354,8	49,848
355,3	65,076
355,7	79,848
356,2	87,448
356,6	110,505
357,1	132,305
357,5	156,019
358	186,105
358,5	209,676
358,9	238,705
359,4	273,99
359,8	308,505
360,3	353,476
360,8	399,048
361,2	450,419
361,7	512,048
362,1	583,933
362,6	657,419
363	734,676
363,5	815,762
364	906,933
364,4	999,248
364,9	1086,505
365,3	1170,962
365,8	1253,219
366,3	1333,933
366,7	1399,676
367,2	1461,276
367,6	1508,705
368,1	1549,79
368,5	1571,762
369	1583,762
369,5	1586,848
369,9	1580,219
370,4	1555,248
370,8	1518,133
371,3	1470,848
371,7	1418,39
372,2	1360,105
372,7	1295,933
373,1	1226,362
373,6	1153,162
374	1086,419
374,5	1016,933
374,9	948,105
375,4	879,305
375,9	809,305
376,3	744,619
376,8	684,219
377,2	626,248
377,7	573,733
378,2	525,99
378,6	484,59
379,1	445,905
379,5	410,333
380	382,676
380,4	350,819
380,9	322,39
381,4	297,248
381,8	273,362
382,3	256,848
382,7	241,105
383,2	224,076
383,6	206,248
384,1	190,019
384,6	175,99
385	162,248
385,5	150,048
385,9	133,533
386,4	119,276
386,8	116,133
387,3	110,962
387,7	103,276
388,2	102,619
388,7	90,105
389,1	86,076
389,6	81,562
390	76,133
390,5	74,476
390,9	72,448
391,4	64,276
391,9	65,419
392,3	64,333
392,8	58,305
393,2	50,505
393,7	44,762
394,1	37,362
394,6	36,162
395,1	34,962
395,5	32,562
396	32,076
396,4	33,019
396,9	33,505
397,3	40,99
397,8	44,248
398,2	39,276
398,7	41,705
399,2	41,59
399,6	42,362
400,1	41,076
400,5	31,162
401	27,619
401,4	27,19
401,9	27,476
402,4	31,476
402,8	28,733
403,3	32,562
403,7	35,819
404,2	38,105
404,6	38,333
405,1	34,933
405,5	30,676
406	35,219
406,5	29,476
406,9	33,39
407,4	30,819
407,8	30,533
408,3	34,505
408,7	33,533
409,2	36,19
409,6	40,276
410,1	40,305
410,6	43,105
411	45,648
411,5	43,59
411,9	48,933
412,4	46,39
412,8	44,933
413,3	43,476
413,7	44,876
414,2	46,362
414,7	51,762
415,1	58,105
415,6	63,933
416	70,248
416,5	68,705
416,9	68,733
417,4	70,962
417,8	74,99
418,3	74,876
418,8	76,533
419,2	75,219
419,7	83,905
420,1	84,476
420,6	85,619
421	82,19
421,5	80,99
421,9	80,933
422,4	83,505
422,8	81,076
423,3	82,048
423,8	82,048
424,2	81,105
424,7	78,476
425,1	78,162
425,6	80,305
426	80,248
426,5	82,59
426,9	85,733
427,4	83,076
427,9	80,219
428,3	81,248
428,8	77,733
429,2	73,762
429,7	68,105
430,1	64,248
430,6	66,219
431	65,848
431,5	60,19
431,9	52,248
432,4	55,048
432,8	56,762
433,3	58,933
433,8	56,276
434,2	58,505
434,7	63,305
435,1	69,019
435,6	67,333
436	68,762
436,5	71,533
436,9	72,248
437,4	73,705
437,8	72,533
438,3	74,676
438,8	78,933
439,2	80,676
439,7	77,533
440,1	82,733
440,6	84,105
441	81,305
441,5	83,619
441,9	85,619
442,4	85,419
442,8	85,79
443,3	84,619
443,7	90,533
444,2	100,448
444,7	104,076
445,1	109,962
445,6	117,248
446	123,305
446,5	127,59
446,9	124,876
447,4	126,762
447,8	130,876
448,3	132,962
448,7	136,105
449,2	143,619
449,6	155,476
450,1	160,476
450,6	171,733
451	178,562
451,5	185,133
451,9	195,076
452,4	201,248
452,8	202,248
453,3	216,533
453,7	212,448
454,2	222,048
454,6	228,648
455,1	229,248
455,5	230,819
456	241,79
456,4	242,076
456,9	254,99
457,3	259,276
457,8	262,562
458,3	278,59
458,7	290,362
459,2	298,048
459,6	310,419
460,1	318,848
460,5	325,076
461	339,905
461,4	340,905
461,9	348,99
462,3	359,019
462,8	367,79
463,2	378,019
463,7	393,962
464,1	405,248
464,6	421,162
465	435,533
465,5	446,619
466	460,648
466,4	470,19
466,9	482,562
467,3	493,133
467,8	505,276
468,2	516,648
468,7	529,076
469,1	541,79
469,6	553,733
470	562,733
470,5	575,476
470,9	583,476
471,4	592,533
471,8	602,105
472,3	612,876
472,7	625,962
473,2	634,333
473,6	642,39
474,1	662,476
474,5	678,648
475	692,19
475,4	705,59
475,9	721,905
476,4	737,448
476,8	753,333
477,3	761,533
477,7	774,876
478,2	791,19
478,6	802,762
479,1	813,305
479,5	823,533
480	837,533
480,4	853,762
480,9	860,962
481,3	863,219
481,8	875,39
482,2	882,733
482,7	891,39
483,1	897,59
483,6	902,59
484	909,762
484,5	923,305
484,9	927,876
485,4	940,305
485,8	949,333
486,3	960,162
486,7	969,848
487,2	987,019
487,6	998,476
488,1	1007,676
488,5	1007,162
489	1020,933
489,4	1028,962
489,9	1035,019
490,4	1037,248
490,8	1043,562
491,3	1057,19
491,7	1067,562
492,2	1073,762
492,6	1083,219
493,1	1091,076
493,5	1094,933
494	1098,019
494,4	1103,219
494,9	1108,648
495,3	1116,619
495,8	1116,39
496,2	1121,619
496,7	1127,819
497,1	1138,99
497,6	1141,79
498	1151,59
498,5	1153,448
498,9	1159,619
499,4	1163,362
499,8	1174,019
500,3	1176,276
500,7	1177,39
501,2	1176,476
501,6	1180,505
502,1	1186,019
502,5	1191,648
503	1192,448
503,4	1192,848
503,9	1197,762
504,3	1206,276
504,8	1207,705
505,2	1210,448
505,7	1212,476
506,1	1223,19
506,6	1225,99
507	1230,848
507,5	1236,105
507,9	1242,476
508,4	1245,562
508,8	1246,59
509,3	1240,39
509,7	1247,305
510,2	1246,876
510,6	1242,962
511,1	1245,19
511,5	1253,248
512	1255,648
512,4	1261,305
512,9	1264,533
513,3	1273,619
513,8	1282,019
514,2	1280,476
514,7	1279,019
515,1	1289,933
515,6	1293,248
516	1290,79
516,5	1295,19
516,9	1300,733
517,4	1311,79
517,8	1319,59
518,3	1320,933
518,7	1325,79
519,2	1337,99
519,6	1340,762
520,1	1346,676
520,5	1349,762
521	1349,419
521,4	1355,533
521,9	1364,619
522,3	1366,562
522,8	1370,762
523,2	1374,105
523,7	1380,048
524,1	1386,99
524,6	1388,133
525	1389,905
525,5	1391,133
525,9	1396,419
526,4	1399,333
526,8	1400,676
527,3	1410,419
527,7	1422,133
528,2	1431,476
528,6	1435,905
529,1	1447,39
529,5	1457,076
530	1465,276
530,4	1464,848
530,9	1466,59
531,3	1467,133
531,8	1480,962
532,2	1478,905
532,6	1480,162
533,1	1484,076
533,5	1492,219
534	1494,505
534,4	1503,076
534,9	1505,533
535,3	1511,105
535,8	1518,048
536,2	1528,905
536,7	1536,448
537,1	1541,79
537,6	1548,276
538	1552,676
538,5	1562,762
538,9	1567,419
539,4	1568,276
539,8	1571,19
540,3	1580,99
540,7	1584,79
541,2	1591,562
541,6	1596,39
542,1	1606,933
542,5	1618,505
543	1626,933
543,4	1630,933
543,9	1636,99
544,3	1648,676
544,8	1652,333
545,2	1653,848
545,7	1657,362
546,1	1662,019
546,5	1669,705
547	1676,876
547,4	1679,448
547,9	1686,876
548,3	1695,448
548,8	1703,79
549,2	1706,733
549,7	1713,048
550,1	1721,305
550,6	1724,962
551	1727,448
551,5	1730,562
551,9	1732,59
552,4	1742,276
552,8	1745,619
553,3	1748,819
553,7	1753,762
554,2	1763,276
554,6	1770,076
555,1	1777,105
555,5	1780,19
555,9	1785,962
556,4	1787,362
556,8	1790,362
557,3	1794,248
557,7	1797,676
558,2	1798,476
558,6	1805,648
559,1	1809,419
559,5	1812,819
560	1821,762
560,4	1826,99
560,9	1828,59
561,3	1828,619
561,8	1829,59
562,2	1836,505
562,7	1838,362
563,1	1840,305
563,6	1844,39
564	1854,248
564,4	1859,505
564,9	1862,476
565,3	1862,448
565,8	1870,676
566,2	1874,019
566,7	1874,105
567,1	1877,105
567,6	1880,476
568	1881,676
568,5	1884,305
568,9	1881,905
569,4	1885,476
569,8	1887,762
570,3	1884,676
570,7	1883,248
571,1	1889,419
571,6	1892,962
572	1900,276
572,5	1901,819
572,9	1902,762
573,4	1907,505
573,8	1919,276
574,3	1913,162
574,7	1914,248
575,2	1911,59
575,6	1907,705
576,1	1910,19
576,5	1912,733
576,9	1899,962
577,4	1903,962
577,8	1894,762
578,3	1896,39
578,7	1895,219
579,2	1894,733
579,6	1886,219
580,1	1889,79
580,5	1887,79
581	1894,762
581,4	1892,019
581,9	1892,276
582,3	1888,362
582,7	1894,19
583,2	1896,019
583,6	1893,933
584,1	1889,248
584,5	1892,019
585	1889,619
585,4	1885,162
585,9	1875,305
586,3	1870,333
586,8	1869,219
587,2	1868,248
587,6	1865,619
588,1	1868,162
588,5	1867,79
589	1866,048
589,4	1863,048
589,9	1862,933
590,3	1859,933
590,8	1853,962
591,2	1850,219
591,7	1854,505
592,1	1857,648
592,5	1861,762
593	1855,276
593,4	1851,448
593,9	1847,79
594,3	1838,819
594,8	1829,305
595,2	1820,733
595,7	1815,448
596,1	1810,362
596,6	1811,505
597	1807,419
597,4	1809,219
597,9	1806,362
598,3	1810,019
598,8	1809,733
599,2	1805,99
599,7	1795,876
600,1	1790,933
600,6	1786,048
601	1781,59
601,4	1778,962
601,9	1773,848
602,3	1771,39
602,8	1770,219
603,2	1763,105
603,7	1763,476
604,1	1766,219
604,6	1755,733
605	1746,248
605,4	1748,333
605,9	1744,048
606,3	1738,619
606,8	1730,076
607,2	1714,962
607,7	1707,99
608,1	1709,133
608,6	1700,333
609	1697,276
609,4	1697,505
609,9	1690,476
610,3	1686,162
610,8	1685,848
611,2	1673,305
611,7	1666,419
612,1	1660,819
612,6	1656,505
613	1654,705
613,4	1652,533
613,9	1640,79
614,3	1636,933
614,8	1634,962
615,2	1624,676
615,7	1620,419
616,1	1611,39
616,6	1604,676
617	1599,105
617,4	1592,676
617,9	1586,19
618,3	1587,219
618,8	1581,562
619,2	1575,39
619,7	1568,305
620,1	1562,419
620,5	1560,076
621	1556,105
621,4	1544,705
621,9	1538,819
622,3	1532,076
622,8	1525,362
623,2	1522,79
623,6	1514,248
624,1	1503,533
624,5	1500,076
625	1496,076
625,4	1490,905
625,9	1492,676
626,3	1481,905
626,8	1478,076
627,2	1471,933
627,6	1460,048
628,1	1446,39
628,5	1439,419
629	1425,962
629,4	1420,762
629,9	1410,848
630,3	1399,19
630,7	1393,248
631,2	1385,019
631,6	1374,505
632,1	1365,648
632,5	1360,19
633	1353,219
633,4	1349,533
633,8	1340,19
634,3	1331,905
634,7	1330,648
635,2	1317,79
635,6	1314,648
636,1	1304,362
636,5	1293,905
636,9	1290,39
637,4	1283,533
637,8	1268,019
638,3	1266,962
638,7	1255,59
639,2	1247,562
639,6	1244,162
640	1235,419
640,5	1231,848
640,9	1232,533
641,4	1223,019
641,8	1219,39
642,2	1216,648
642,7	1218,676
643,1	1219,19
643,6	1217,476
644	1211,048
644,5	1214,076
644,9	1204,419
645,3	1200,648
645,8	1185,676
646,2	1180,876
646,7	1169,076
647,1	1159,705
647,6	1149,133
648	1146,733
648,4	1136,276
648,9	1131,99
649,3	1125,933
649,8	1124,562
650,2	1120,619
650,6	1112,876
651,1	1107,648
651,5	1104,333
652	1098,448
652,4	1081,705
652,9	1071,619
653,3	1066,476
653,7	1060,448
654,2	1052,79
654,6	1044,533
655,1	1039,219
655,5	1045,505
655,9	1041,905
656,4	1036,076
656,8	1028,333
657,3	1020,648
657,7	1016,79
658,2	1009,962
658,6	996,533
659	991,305
659,5	982,333
659,9	980,248
660,4	974,562
660,8	965,419
661,2	956,276
661,7	953,19
662,1	943,19
662,6	941,133
663	934,19
663,4	930,019
663,9	927,505
664,3	923,419
664,8	915,962
665,2	911,39
665,6	903,676
666,1	899,105
666,5	893,105
667	887,362
667,4	884,476
667,9	880,648
668,3	874,476
668,7	867,962
669,2	866,333
669,6	860,848
670,1	857,676
670,5	848,848
670,9	839,648
671,4	834,705
671,8	832,333
672,3	830,562
672,7	829,076
673,1	816,276
673,6	811,219
674	811,933
674,5	806,362
674,9	794,39
675,3	781,705
675,8	770,333
676,2	772,19
676,7	769,19
677,1	762,219
677,5	759,162
678	758,019
678,4	753,533
678,9	754,305
679,3	743,905
679,7	741,019
680,2	729,648
680,6	725,133
681,1	719,533
681,5	716,39
681,9	710,248
682,4	708,819
682,8	702,276
683,3	705,705
683,7	700,819
684,1	698,762
684,6	691,619
685	684,19
685,5	682,99
685,9	675,219
686,3	662,133
686,8	659,048
687,2	654,219
687,7	647,105
688,1	640,476
688,5	631,705
689	629,619
689,4	630,448
689,9	622,59
690,3	612,276
690,7	610,676
691,2	612,619
691,6	610,133
692	609,99
692,5	603,676
692,9	600,962
693,4	599,076
693,8	597,476
694,2	589,448
694,7	584,105
695,1	573,848
695,6	569,105
696	566,619
696,4	566,705
696,9	559,448
697,3	550,505
697,8	547,59
698,2	548,933
698,6	548,876
699,1	546,848
699,5	544,076
699,9	540,476
700,4	541,876
700,8	539,39
701,3	532,019
701,7	526,505
702,1	519,105
702,6	515,505
703	517,076
703,5	511,448
703,9	509,99
704,3	511,619
704,8	510,448
705,2	505,162
705,6	498,905
706,1	493,19
706,5	488,505
707	480,676
707,4	473,676
707,8	468,048
708,3	468,333
708,7	468,248
709,2	461,362
709,6	462,733
710	464,933
710,5	456,105
710,9	457,333
711,3	453,619
711,8	450,99
712,2	453,162
712,7	446,962
713,1	441,533
713,5	443,505
714	438,448
714,4	429,562
714,8	421,962
715,3	412,676
715,7	411,905
716,2	405,905
716,6	403,79
717	399,619
717,5	403,362
717,9	406,105
718,3	406,448
718,8	403,79
719,2	400,562
719,7	397,19
720,1	396,962
720,5	393,305
721	386,219
721,4	382,705
721,8	382,676
722,3	379,648
722,7	377,048
723,2	365,762
723,6	358,819
724	358,762
724,5	357,648
724,9	353,476
725,3	355,59
725,8	352,276
726,2	353,105
726,7	352,79
727,1	348,99
727,5	347,19
728	340,276
728,4	340,019
728,8	340,733
729,3	339,505
729,7	335,676
730,1	335,019
730,6	330,59
731	328,276
731,5	319,248
731,9	312,019
732,3	309,733
732,8	312,619
733,2	308,476
733,6	305,933
734,1	306,362
734,5	306,333
734,9	309,705
735,4	309,219
735,8	305,162
736,3	309,276
736,7	309,362
737,1	310,933
737,6	310,99
738	308,505
738,4	302,762
738,9	300,99
739,3	297,99
739,7	294,448
740,2	284,676
740,6	286,962
741,1	287,648
741,5	287,448
741,9	287,39
742,4	284,876
742,8	287,448
743,2	291,905
743,7	282,533
744,1	273,076
744,5	271,248
745	263,79
745,4	257,562
745,8	252,733
746,3	249,39
746,7	251,333
747,2	251,505
747,6	255,619
748	261,19
748,5	261,133
748,9	258,476
749,3	256,19
749,8	253,248
750,2	253,276
750,6	247,933
751,1	248,59
751,5	244,076
751,9	245,248
752,4	245,333
752,8	245,876
753,3	245,505
753,7	247,162
754,1	237,276
754,6	235,876
755	231,133
755,4	230,333
755,9	225,19
756,3	223,39
756,7	219,99
757,2	220,876
757,6	224,876
758	224,733
758,5	220,476
758,9	222,219
759,3	222,076
759,8	219,048
760,2	218,905
760,6	213,448
761,1	209,648
761,5	208,39
761,9	206,162
762,4	201,362
762,8	200,248
763,3	197,933
763,7	197,59
764,1	199,705
764,6	201,705
765	199,533
765,4	201,676
765,9	203,562
766,3	208,19
766,7	203,648
767,2	199,476
767,6	197,048
768	196,105
768,5	190,476
768,9	184,019
769,3	175,533
769,8	175,99
770,2	179,219
770,6	175,333
771,1	177,905
771,5	178,448
771,9	180,648
772,4	185,248
772,8	186,248
773,2	185,562
773,7	186,59
774,1	182,79
774,5	176,362
775	175,076
775,4	170,248
775,8	163,733
776,3	161,648
776,7	158,676
777,1	157,248
777,6	163,076
778	167,248
778,4	164,305
778,9	167,705
779,3	162,59
779,7	165,019
780,2	165,333
780,6	162,648
781	156,533
781,5	151,219
781,9	147,705
782,3	147,933
782,8	146,19
783,2	143,676
783,6	146,19
784,1	145,333
784,5	146,705
784,9	145,19
785,4	146,476
785,8	148,648
786,2	148,848
786,7	147,219
787,1	143,905
787,5	145,905
788	151,676
788,4	151,305
788,8	148,962
789,3	146,276
789,7	146,99
790,1	146,248
790,6	150,676
791	141,676
791,4	141,59
791,9	134,305
792,3	130,733
792,7	130,305
793,2	126,676
793,6	121,448
794	126,848
794,5	121,562
794,9	123,562
795,3	124,59
795,8	118,162
796,2	127,333
796,6	128,705
797,1	124,219
797,5	121,59
797,9	121,676
798,4	119,105
798,8	118,276
799,2	109,676
799,7	110,333
800,1	106,476
800,5	109,419
801	108,99
801,4	108,733
801,8	109,733
802,2	110,933
802,7	107,476
803,1	110,676
803,5	112,505
804	108,333
804,4	108,79
804,8	108,39
805,3	106,133
805,7	106,39
806,1	104,848
806,6	100,676
807	105,705
807,4	107,648
807,9	103,99
808,3	105,162
808,7	105,133
809,2	107,79
809,6	111,133
810	106,705
810,4	100,876
810,9	102,162
811,3	103,362
811,7	98,648
812,2	100,39
812,6	94,162
813	97,79
813,5	97,962
813,9	98,276
814,3	93,79
814,8	95,076
815,2	88,733
815,6	89,219
816,1	87,619
816,5	88,19
816,9	85,876
817,3	89,848
817,8	93,819
818,2	94,19
818,6	91,305
819,1	86,219
819,5	85,219
819,9	87,79
820,4	83,962
820,8	76,79
821,2	71,39
821,7	75,619
822,1	79,305
822,5	84,076
822,9	81,333
823,4	79,276
823,8	82,19
824,2	87,162
824,7	83,39
825,1	75,362
825,5	67,705
826	63,505
826,4	63,162
826,8	61,59
827,3	62,676
827,7	60,99
828,1	65,248
828,5	66,305
829	63,333
829,4	64,562
829,8	64,419
830,3	62,705
830,7	62,076
831,1	66,505
831,6	69,019
832	72,59
832,4	71,248
832,8	68,933
833,3	70,305
833,7	71,733
834,1	65,59
834,6	64,733
835	68,39
835,4	69,819
835,8	64,79
836,3	61,162
836,7	61,476
837,1	59,962
837,6	58,076
838	57,162
838,4	57,219
838,9	57,619
839,3	59,562
839,7	57,533
840,1	54,305
840,6	51,276
841	48,533
841,4	44,048
841,9	50,305
842,3	48,362
842,7	49,59
843,1	53,219
843,6	57,162
844	56,276
844,4	62,076
844,9	62,505
845,3	62,99
845,7	61,362
846,2	60,476
846,6	59,076
847	61,59
847,4	59,39
847,9	56,19
848,3	54,105
848,7	52,676
849,2	52,705
849,6	48,476
850	47,476
850,4	44,305
850,9	43,133
851,3	44,876
851,7	50,105
852,2	51,248
852,6	55,619
853	56,276
853,4	57,105
853,9	55,133
854,3	54,819
854,7	53,019
855,2	51,562
855,6	51,248
856	46,248
856,4	42,733
856,9	41,333
857,3	41,819
857,7	43,419
858,2	46,905
858,6	45,476
859	46,133
859,4	50,162
859,9	50,99
860,3	49,419
860,7	46,362
861,1	44,105
861,6	41,933
862	43,419
862,4	39,59
862,9	42,962
863,3	44,133
863,7	39,619
864,1	37,562
864,6	38,019
865	37,59
865,4	41,048
865,9	45,076
866,3	35,162
866,7	37,076
867,1	34,305
867,6	33,848
868	34,476
868,4	32,762
868,8	29,19
869,3	33,619
869,7	38,333
870,1	39,79
870,6	39,705
871	-4,952
871,4	-0,752
871,8	-3,81
872,3	0,133
872,7	-2,095
873,1	1,305
873,5	0,39
874	44,505
874,4	38,676
874,8	34,533
875,3	30,762
875,7	25,962
876,1	24,705
876,5	22,705
877	19,533
877,4	17,019
877,8	19,733
878,2	21,819
878,7	28,105
879,1	28,59
879,5	31,162
879,9	36,533
880,4	38,019
880,8	38,962
881,2	38,276
881,7	32,705
882,1	30,019
882,5	29,076
882,9	27,819
883,4	24,819
883,8	23,048
884,2	22,59
884,6	21,276
885,1	18,162
885,5	19,705
885,9	15,848
886,3	20,79
886,8	22,333
887,2	24,048
887,6	23,305
888	27,505
888,5	26,676
888,9	26,819
889,3	24,648
889,8	24,133
890,2	22,533
890,6	21,79
891	27,705
891,5	26,562
891,9	23,162
892,3	22,733
892,7	21,99
893,2	23,705
893,6	28,876
894	24,248
894,4	22,876
894,9	26,705
895,3	27,105
895,7	30,362
896,1	28,362
896,6	25,562
897	23,362
897,4	28,419
897,8	30,59
898,3	34,448
898,7	30,648
899,1	30,333
899,5	29,533
900	24,505
900,4	18,133
900,8	16,99
901,2	11,562
901,7	10,99
902,1	12,419
902,5	15,448
902,9	19,333
903,4	22,705
903,8	19,533
904,2	18,076
904,6	17,419
905,1	16,162
905,5	16,333
905,9	18,048
906,3	20,648
906,8	23,876
907,2	27,59
907,6	32,819
908	33,419
908,5	29,419
908,9	23,933
909,3	16,562
909,7	16,505
910,2	15,533
910,6	17,133
911	15,505
911,4	17,476
911,9	16,533
912,3	19,305
912,7	21,448
913,1	21,533
913,6	12,619
914	12,362
914,4	11,505
914,8	15,533
915,3	16,533
915,7	12,39
916,1	10,79
916,5	14,962
916,9	16,876
917,4	17,219
917,8	20,39
918,2	15,99
918,6	10,99
919,1	10,733
919,5	13,676
919,9	12,505
920,3	11,619
920,8	9,305
921,2	12,59
921,6	17,048
922	20,048
922,5	14,448
922,9	15,162
923,3	15,733
923,7	15,762
924,2	15,476
924,6	15,133
925	14,99
925,4	15,79
925,8	13,419
926,3	13,762
926,7	11,133
927,1	13,248
927,5	15,762
928	11,705
928,4	8,19
928,8	9,505
929,2	5,733
929,7	7,733
930,1	7,705
930,5	3,99
930,9	10,305
931,3	14,448
931,8	12,048
932,2	13,362
932,6	9,79
933	2,848
933,5	2,905
933,9	1,39
934,3	4,048
934,7	4,333
935,2	6,876
935,6	7,476
936	13,848
936,4	18,448
936,8	18,133
937,3	14,505
937,7	18,733
938,1	20,733
938,5	18,419
939	20,876
939,4	18,219
939,8	15,362
940,2	14,876
940,6	12,933
941,1	6,39
941,5	13,219
941,9	4,848
942,3	3,59
942,8	3,619
943,2	6,99
943,6	5,419
944	10,019
944,4	7,99
944,9	7,819
945,3	6,733
945,7	7,39
946,1	0,362
946,6	-0,124
947	0,562
947,4	0,162
947,8	6,19
948,2	6,333
948,7	6,533
949,1	9,076
949,5	14,076
949,9	13,505
950,3	14,79
950,8	11,076
951,2	10,419
951,6	8,676
952	13,105
952,5	9,933
952,9	8,762
953,3	6,333
953,7	6,905
954,1	10,505
954,6	12,876
955	11,562
955,4	7,362
955,8	7,59
956,2	7,905
956,7	11,905
957,1	7,276
957,5	8,219
957,9	8,705
958,3	8,905
958,8	10,105
959,2	14,162
959,6	14,105
960	13,648
960,5	13,876
960,9	14,333
961,3	16,733
961,7	15,819
962,1	10,476
962,6	9,248
963	13,476
963,4	9,39
963,8	8,276
964,2	8,619
964,7	7,705
965,1	9,819
965,5	12,648
965,9	11,448
966,3	13,019
966,8	11,362
967,2	12,276
967,6	16,562
968	15,705
968,4	12,905
968,9	13,19
969,3	19,819
969,7	20,362
970,1	20,219
970,5	16,79
971	21,39
971,4	17,448
971,8	17,819
972,2	14,905
972,6	11,933
973,1	12,048
973,5	10,105
973,9	9,048
974,3	11,819
974,7	17,19
975,2	19,419
975,6	20,648
976	20,619
976,4	18,362
976,8	17,333
977,3	15,876
977,7	8,419
978,1	1,762
978,5	0,419
978,9	-2,581
979,4	-2,152
979,8	-4,752
980,2	-3,895
980,6	-6,038
981	-2,095
981,5	-2,038
981,9	-0,524
982,3	2,076
982,7	5,019
983,1	2,59
983,6	7,162
984	6,333
984,4	9,762
984,8	12,933
985,2	12,419
985,6	7,105
986,1	7,619
986,5	7,162
986,9	-0,21
987,3	2,105
987,7	-1,867
988,2	-0,924
988,6	2,905
989	3,99
989,4	7,333
989,8	12,762
990,3	12,305
990,7	10,19
991,1	11,048
991,5	13,476
991,9	14,276
992,3	9,305
992,8	8,819
993,2	8,219
993,6	13,819
994	18,19
994,4	15,39
994,9	16,733
995,3	17,248
995,7	16,848
996,1	14,648
996,5	12,619
996,9	6,99
997,4	6,419
997,8	1,39
998,2	-1,038
998,6	-5,838
999	-5,152
999,5	-4,495
999,9	-5,495
1000,3	-6,638
1000,7	-2,01
1001,1	-0,324
1001,5	9,076
1002	14,476
1002,4	12,933
1002,8	10,133
1003,2	15,99
1003,6	15,962
1004	19,648
1004,5	12,562
1004,9	10,048
1005,3	7,905
1005,7	12,819
1006,1	8,648
1006,6	5,476
1007	1,905
1007,4	3,362
1007,8	0,676
1008,2	3,219
1008,6	4,962
1009,1	4,705
1009,5	9,79
1009,9	10,562
1010,3	12,905
1010,7	8,59
1011,1	4,276
1011,6	2,476
1012	9,562
1012,4	8,619
1012,8	7,533
1013,2	10,676
1013,6	14,848
1014,1	21,619
1014,5	24,419
1014,9	18,533
1015,3	18,333
1015,7	20,448
1016,1	17,59
1016,6	17,676
1017	15,99
1017,4	15,076
1017,8	17,105
1018,2	18,133
1018,6	14,448
1019,1	11,333
1019,5	8,448
1019,9	5,048
1020,3	2,333
1020,7	0,762
1021,1	-1,124
1021,6	0,219
1022	5,59
1022,4	10,619
1022,8	16,048
1023,2	16,533
1023,6	15,362
1024,1	20,419
1024,5	23,19
1024,9	16,133
1025,3	12,505
1025,7	9,762
1026,1	9,705
1026,6	7,648
1027	2,362
1027,4	4,248
1027,8	5,819
1028,2	4,105
1028,6	9,819
1029	11,276
1029,5	18,99
1029,9	16,819
1030,3	14,562
1030,7	18,676
1031,1	23,019
1031,5	14,79
1032	8,819
1032,4	3,533
1032,8	9,619
1033,2	12,648
1033,6	11,19
1034	11,362
1034,4	14,419
1034,9	18,733
1035,3	17,219
1035,7	17,733
1036,1	11,562
1036,5	10,076
1036,9	8,562
1037,4	11,962
1037,8	8,962
1038,2	12,59
1038,6	6,276
1039	11,019
1039,4	13,562
1039,8	11,276
1040,3	7,848
1040,7	8,248
1041,1	7,162
1041,5	11,219
1041,9	9,819
1042,3	7,962
1042,7	10,962
1043,2	10,133
1043,6	11,476
1044	9,419
1044,4	8,79
1044,8	10,019
1045,2	11,476
1045,6	8,762
1046,1	13,105
1046,5	14,133
1046,9	14,705
1047,3	13,819
1047,7	11,39
1048,1	7,305
1048,5	9,39
1049	9,048
1049,4	12,305
1049,8	10,676
1050,2	11,79
1050,6	17,619
1051	23,619
1051,4	22,676
1051,9	19,39
1052,3	25,133
1052,7	25,476
1053,1	20,79
1053,5	17,362
1053,9	12,562
1054,3	11,162
1054,8	13,848
1055,2	8,019
1055,6	10,333
1056	12,933
1056,4	8,105
1056,8	8,048
1057,2	5,59
1057,6	-1,524
1058,1	-5,21
1058,5	-8,21
1058,9	-5,695
1059,3	0,305
1059,7	4,133
1060,1	10,476
1060,5	14,676
1061	15,705
1061,4	14,733
1061,8	12,99
1062,2	13,39
1062,6	13,133
1063	12,248
1063,4	12,133
1063,8	8,762
1064,3	8,905
1064,7	8,276
1065,1	4,619
1065,5	0,333
1065,9	-1,667
1066,3	-4,41
1066,7	1,705
1067,1	1,819
1067,6	4,848
1068	0,79
1068,4	2,276
1068,8	6,79
1069,2	13,905
1069,6	7,219
1070	9,962
1070,4	8,59
1070,9	8,39
1071,3	9,448
1071,7	4,676
1072,1	-1,952
1072,5	1,533
1072,9	2,99
1073,3	2,219
1073,7	5,333
1074,2	5,676
1074,6	5,133
1075	7,162
1075,4	5,448
1075,8	4,648
1076,2	4,476
1076,6	5,99
1077	5,562
1077,5	8,39
1077,9	6,305
1078,3	7,733
1078,7	9,305
1079,1	9,133
1079,5	9,876
1079,9	9,648
1080,3	10,819
1080,7	10,705
1081,2	15,048
1081,6	13,905
1082	12,876
1082,4	16,219
1082,8	18,419
1083,2	17,048
1083,6	19,276
1084	15,676
1084,5	17,733
1084,9	16,676
1085,3	8,79
1085,7	8,933
1086,1	6,762
1086,5	9,59
1086,9	12,533
1087,3	7,733
1087,7	9,248
1088,2	13,848
1088,6	10,362
1089	12,905
1089,4	9,019
1089,8	7,933
1090,2	10,476
1090,6	14,333
1091	14,533
1091,4	20,59
1091,9	18,676
1092,3	18,933
1092,7	14,79
1093,1	16,105
1093,5	11,248
1093,9	7,905
1094,3	5,705
1094,7	3,076
1095,1	4,99
1095,5	7,248
1096	1,99
1096,4	2,762
1096,8	4,476
1097,2	2,99
1097,6	9,533
1098	10,248
1098,4	12,705
1098,8	17,933
1099,2	24,362
1099,6	24,248
1100,1	22,219
1100,5	17,533
1100,9	14,848
1101,3	12,933
1101,7	7,19
1102,1	-0,438
1102,5	0,676
1102,9	2,848
1103,3	7,362
1103,7	10,448
1104,2	9,305
1104,6	14,133
1105	14,705
1105,4	14,505
1105,8	11,79
1106,2	8,019
1106,6	4,648
1107	4,105
1107,4	1,5
1107,8	1,933
1108,3	-0,367
