Data from Subt2_183.txt Node
Date: Sat Aug 26 18:40:33 MSK 2023
User: vat
Spectrometer: MAYP114033
Trigger mode: 0
Integration Time (sec): 1,000000E0
Scans to average: 5
Electric dark correction enabled: true
Nonlinearity correction enabled: false
Boxcar width: 3
XAxis mode: Wavelengths
Number of Pixels in Spectrum: 2068
>>>>>Begin Spectral Data<<<<<
199,4	-0,25
199,9	-2,26
200,4	-5,733
200,8	-3,986
201,3	-5,529
201,8	-3,7
202,2	-8,3
202,7	-2,443
203,2	-2,557
203,6	-2,271
204,1	-5,386
204,6	-5,186
205	-5,786
205,5	-0,786
206	-4,7
206,4	-3,614
206,9	0,871
207,4	2,471
207,8	2,757
208,3	1,643
208,8	0,929
209,2	2,043
209,7	0,786
210,2	-0,671
210,6	1,186
211,1	3,957
211,5	0,271
212	2,843
212,5	1,043
212,9	1,157
213,4	0,757
213,9	-4,586
214,3	-2,557
214,8	2,529
215,3	-3,3
215,7	-0,986
216,2	3,214
216,7	3,757
217,1	7,043
217,6	4,614
218,1	4,157
218,5	6,357
219	-4,071
219,5	-8,1
219,9	-8,957
220,4	-2,3
220,9	-1,3
221,3	-2,329
221,8	0,871
222,3	7,186
222,7	8,814
223,2	9,443
223,6	3,386
224,1	2,9
224,6	4,729
225	-0,614
225,5	-1,1
226	-1,529
226,4	-0,786
226,9	-0,957
227,4	-2,1
227,8	-7,786
228,3	-5,214
228,8	-2,786
229,2	-3,157
229,7	-6,5
230,2	-4,757
230,6	-0,529
231,1	5,071
231,5	7,757
232	6,271
232,5	7,814
232,9	13,014
233,4	12,557
233,9	7,071
234,3	6,386
234,8	2,214
235,3	2,329
235,7	3,671
236,2	2,471
236,7	2,786
237,1	10,329
237,6	9,729
238,1	10,729
238,5	7,986
239	8,157
239,4	10,1
239,9	8,357
240,4	1,157
240,8	5,529
241,3	5,7
241,8	4,414
242,2	2,443
242,7	1,043
243,2	4,671
243,6	6,271
244,1	5,529
244,6	5,843
245	10,843
245,5	7,986
245,9	7,557
246,4	9,386
246,9	11,043
247,3	7,414
247,8	11,071
248,3	11,3
248,7	17,071
249,2	16,157
249,7	11,5
250,1	8,7
250,6	8,529
251	6,814
251,5	7,614
252	7,014
252,4	10,071
252,9	8,643
253,4	4,5
253,8	4,443
254,3	4,243
254,8	0,557
255,2	-4,843
255,7	-10,529
256,1	-8,271
256,6	-5,814
257,1	-4,043
257,5	-6,7
258	-2,1
258,5	-0,614
258,9	2,071
259,4	-1,214
259,9	1,271
260,3	-0,3
260,8	0,157
261,2	-2,071
261,7	3,443
262,2	1,471
262,6	4,471
263,1	5,586
263,6	5,614
264	5,871
264,5	10,243
264,9	5,214
265,4	6,814
265,9	8,9
266,3	9,871
266,8	12,043
267,3	11,614
267,7	7,014
268,2	9,243
268,7	9,443
269,1	4,414
269,6	2,5
270	2,671
270,5	-0,557
271	2,529
271,4	2,986
271,9	0,814
272,4	5,957
272,8	5,757
273,3	0,386
273,7	5,3
274,2	0,386
274,7	-2,757
275,1	-0,986
275,6	-5,871
276,1	-7,3
276,5	-2,443
277	-1,929
277,4	0,271
277,9	4,071
278,4	6,214
278,8	9,3
279,3	12,929
279,8	13,529
280,2	13,071
280,7	13,243
281,1	9,786
281,6	7,586
282,1	8,586
282,5	4,071
283	2,614
283,4	-0,957
283,9	-4,957
284,4	0,071
284,8	1,014
285,3	3,214
285,8	4,357
286,2	1,443
286,7	6,157
287,1	8,843
287,6	8,414
288,1	4,071
288,5	-0,157
289	1,071
289,5	4,729
289,9	-0,529
290,4	1,043
290,8	-2,443
291,3	0,557
291,8	3,557
292,2	3,357
292,7	2,357
293,1	3,757
293,6	6,9
294,1	6,871
294,5	6,014
295	2,986
295,5	1,329
295,9	2,757
296,4	2,9
296,8	-2,443
297,3	3,5
297,8	-0,986
298,2	-3,014
298,7	2,329
299,1	1,414
299,6	-0,843
300,1	6,586
300,5	3,386
301	12,471
301,5	18,557
301,9	13,729
302,4	12,929
302,8	13,643
303,3	6,071
303,8	0,614
304,2	-4,243
304,7	-9,157
305,1	-10,443
305,6	-10,243
306,1	-3,014
306,5	1,529
307	5,557
307,4	10,9
307,9	11,471
308,4	11,157
308,8	4,871
309,3	3,043
309,8	-1,243
310,2	-1,357
310,7	-8,071
311,1	-4,414
311,6	-3,614
312,1	3,443
312,5	3,643
313	4,529
313,4	4,243
313,9	6,786
314,4	3,214
314,8	0,871
315,3	-2,7
315,7	-8,471
316,2	-9,471
316,7	-8,929
317,1	-4,957
317,6	-4,671
318	2,529
318,5	4,757
319	9,357
319,4	12,443
319,9	15,214
320,3	18,929
320,8	18,957
321,3	17,357
321,7	19,929
322,2	18,271
322,6	17,414
323,1	11,443
323,6	4,186
324	-0,614
324,5	-3,329
324,9	-6,586
325,4	-9,529
325,9	-8,986
326,3	-6,871
326,8	-3,243
327,2	-1,671
327,7	-0,7
328,2	4,386
328,6	12,671
329,1	6,529
329,5	7,414
330	8,186
330,5	11,186
330,9	12,643
331,4	8,843
331,8	1,7
332,3	6,357
332,8	5,386
333,2	-1,3
333,7	3,471
334,1	4,671
334,6	2,014
335,1	2,1
335,5	3,014
336	4,871
336,4	5,614
336,9	7,7
337,4	11,129
337,8	13,814
338,3	16,729
338,7	17,5
339,2	13,586
339,7	19,357
340,1	10,071
340,6	9,614
341	6,929
341,5	4,071
342	2,643
342,4	4,186
342,9	-1,443
343,3	3,7
343,8	-2,643
344,2	-0,129
344,7	7,186
345,2	6,7
345,6	8,129
346,1	12,129
346,5	8,729
347	6,243
347,5	3,329
347,9	3,3
348,4	3,329
348,8	5,871
349,3	8,614
349,8	11,9
350,2	21,986
350,7	23,157
351,1	21,329
351,6	27,986
352	28,757
352,5	28,986
353	35,871
353,4	40,271
353,9	52,986
354,3	63,757
354,8	72,443
355,3	92,557
355,7	109,843
356,2	131,614
356,6	152,271
357,1	180,214
357,5	213,929
358	255,357
358,5	289,786
358,9	337,1
359,4	391,386
359,8	454,7
360,3	524,043
360,8	590,586
361,2	668,243
361,7	762,986
362,1	863,929
362,6	970,757
363	1084,643
363,5	1204,157
364	1344,271
364,4	1478,271
364,9	1611,014
365,3	1741,843
365,8	1865,3
366,3	1979,329
366,7	2089,671
367,2	2181,443
367,6	2258,671
368,1	2319,7
368,5	2360,871
369	2385,129
369,5	2397,729
369,9	2380,614
370,4	2341,186
370,8	2290,329
371,3	2221,586
371,7	2143,9
372,2	2051,5
372,7	1951,729
373,1	1844,214
373,6	1736,243
374	1632,3
374,5	1524,929
374,9	1419,157
375,4	1317,986
375,9	1217,757
376,3	1127,014
376,8	1040,214
377,2	955,7
377,7	876,557
378,2	802,329
378,6	734,9
379,1	668,986
379,5	615,586
380	567,986
380,4	522,3
380,9	482,157
381,4	442,271
381,8	410,329
382,3	384,3
382,7	355,5
383,2	331,529
383,6	303,386
384,1	284,671
384,6	272,9
385	252,557
385,5	232,814
385,9	213,386
386,4	194,786
386,8	183,9
387,3	168,071
387,7	154,557
388,2	145,214
388,7	138,414
389,1	133,1
389,6	125,5
390	116,5
390,5	110,957
390,9	105,329
391,4	98,5
391,9	91,357
392,3	84,643
392,8	73,729
393,2	65,557
393,7	58,729
394,1	50,843
394,6	50,9
395,1	50,729
395,5	47,014
396	55,786
396,4	56,7
396,9	57,157
397,3	57,671
397,8	55,043
398,2	49,7
398,7	52,471
399,2	48,129
399,6	48,014
400,1	47,357
400,5	43,157
401	41,7
401,4	36,586
401,9	36,3
402,4	38,671
402,8	35,329
403,3	41,129
403,7	43,1
404,2	43,614
404,6	50,443
405,1	49,471
405,5	46,271
406	51,871
406,5	44,386
406,9	48,757
407,4	47,586
407,8	51,271
408,3	53,757
408,7	53,871
409,2	60,5
409,6	68,214
410,1	70,957
410,6	80,786
411	85,043
411,5	89,9
411,9	99,529
412,4	102,614
412,8	109,871
413,3	116,786
413,7	125,186
414,2	127,443
414,7	139,214
415,1	149,643
415,6	158,986
416	167,157
416,5	176,614
416,9	179,014
417,4	193,843
417,8	203,1
418,3	215,3
418,8	226,929
419,2	239,5
419,7	250,729
420,1	266,7
420,6	276,329
421	282,243
421,5	294,786
421,9	308,357
422,4	322,214
422,8	338,757
423,3	353,757
423,8	367,9
424,2	386,471
424,7	399,986
425,1	418,9
425,6	438,557
426	457,957
426,5	478,214
426,9	509,357
427,4	533,414
427,9	552,329
428,3	576,471
428,8	601,271
429,2	624,7
429,7	656,186
430,1	678,529
430,6	709,843
431	746,671
431,5	781,957
431,9	813,014
432,4	851,929
432,8	896,529
433,3	940,786
433,8	987,7
434,2	1038,1
434,7	1086,186
435,1	1143,214
435,6	1198,386
436	1248,129
436,5	1309,414
436,9	1365,329
437,4	1425,043
437,8	1490,043
438,3	1559,414
438,8	1628,1
439,2	1699,014
439,7	1773,014
440,1	1850,671
440,6	1929,3
441	2007,843
441,5	2094,443
441,9	2186,814
442,4	2277,414
442,8	2375,043
443,3	2481,614
443,7	2584,357
444,2	2693,443
444,7	2797,871
445,1	2904,386
445,6	3023,843
446	3135,386
446,5	3247,986
446,9	3369,757
447,4	3495,329
447,8	3623,414
448,3	3758,3
448,7	3891,729
449,2	4035,9
449,6	4180,271
450,1	4323,443
450,6	4469,843
451	4614,471
451,5	4767,414
451,9	4923,329
452,4	5086,3
452,8	5241,957
453,3	5409,386
453,7	5570,414
454,2	5743,243
454,6	5913,014
455,1	6083,129
455,5	6243,043
456	6426,186
456,4	6601,529
456,9	6794,214
457,3	6985,643
457,8	7164,957
458,3	7351,214
458,7	7553,814
459,2	7748,786
459,6	7940,471
460,1	8129,043
460,5	8315,043
461	8522,443
461,4	8726,386
461,9	8925,557
462,3	9119,186
462,8	9325,5
463,2	9527,614
463,7	9734,786
464,1	9939,214
464,6	10140,957
465	10334,271
465,5	10534,443
466	10736,014
466,4	10942,243
466,9	11142,414
467,3	11335,929
467,8	11529,671
468,2	11728,9
468,7	11932,271
469,1	12131,5
469,6	12320,671
470	12518,386
470,5	12707,071
470,9	12906,071
471,4	13092,586
471,8	13269,043
472,3	13448,986
472,7	13623,529
473,2	13798,386
473,6	13973,214
474,1	14132,471
474,5	14300,043
475	14476,1
475,4	14642,3
475,9	14805,357
476,4	14950,3
476,8	15105,471
477,3	15257,9
477,7	15402,957
478,2	15539,3
478,6	15666,157
479,1	15793,129
479,5	15928,529
480	16042,3
480,4	16157,214
480,9	16260,871
481,3	16353,271
481,8	16448,243
482,2	16528,614
482,7	16606,214
483,1	16682,929
483,6	16755,643
484	16829,557
484,5	16902,043
484,9	16965,271
485,4	17030,957
485,8	17075,871
486,3	17121,586
486,7	17160,814
487,2	17190,671
487,6	17218,357
488,1	17231,843
488,5	17252,5
489	17275,329
489,4	17300,186
489,9	17296,929
490,4	17295,957
490,8	17280,757
491,3	17280,7
491,7	17259,157
492,2	17229,157
492,6	17178,186
493,1	17132,614
493,5	17083,7
494	17046,614
494,4	16991,9
494,9	16940,929
495,3	16884,243
495,8	16834,043
496,2	16790,157
496,7	16727,186
497,1	16666,986
497,6	16597,271
498	16535,9
498,5	16473,157
498,9	16395,614
499,4	16311,729
499,8	16239,329
500,3	16150,871
500,7	16064,071
501,2	15965,271
501,6	15871,843
502,1	15783,186
502,5	15697,757
503	15598,9
503,4	15495,443
503,9	15395,471
504,3	15308,471
504,8	15204,529
505,2	15091,7
505,7	14983,7
506,1	14884,957
506,6	14773,129
507	14659,843
507,5	14531,957
507,9	14413,271
508,4	14306,814
508,8	14183,529
509,3	14053,271
509,7	13930,357
510,2	13813,814
510,6	13693,671
511,1	13577,386
511,5	13440,614
512	13314,929
512,4	13201,157
512,9	13088,471
513,3	12965,957
513,8	12838,271
514,2	12694,5
514,7	12573,329
515,1	12453,071
515,6	12321,757
516	12189,443
516,5	12063,443
516,9	11947,3
517,4	11842,329
517,8	11722,3
518,3	11597,043
518,7	11474,929
519,2	11352,5
519,6	11234,5
520,1	11108,729
520,5	10979,871
521	10854,814
521,4	10738,7
521,9	10624,729
522,3	10508,7
522,8	10390,614
523,2	10269,957
523,7	10156,929
524,1	10043,843
524,6	9930,271
525	9810,5
525,5	9699,671
525,9	9589,3
526,4	9475,329
526,8	9371,843
527,3	9279,7
527,7	9178,871
528,2	9073,214
528,6	8976,386
529,1	8875,986
529,5	8793,843
530	8697,129
530,4	8593,814
530,9	8492,871
531,3	8405,357
531,8	8309,843
532,2	8219,1
532,6	8115,471
533,1	8022,757
533,5	7936,643
534	7850,929
534,4	7763,529
534,9	7680,5
535,3	7596,129
535,8	7509,243
536,2	7424,757
536,7	7339,557
537,1	7253,757
537,6	7172,614
538	7092,643
538,5	7018,5
538,9	6937,1
539,4	6862,643
539,8	6785,414
540,3	6722,9
540,7	6653,843
541,2	6574,729
541,6	6502,814
542,1	6451,729
542,5	6379,414
543	6320,929
543,4	6245,471
543,9	6180,3
544,3	6127,329
544,8	6057,443
545,2	5989,071
545,7	5939,214
546,1	5874,9
546,5	5822,014
547	5761,471
547,4	5699,129
547,9	5641,5
548,3	5587,186
548,8	5530,271
549,2	5475,129
549,7	5418,957
550,1	5377,786
550,6	5328,9
551	5288,386
551,5	5239,757
551,9	5187,329
552,4	5147,614
552,8	5101,9
553,3	5048,014
553,7	4999,129
554,2	4953,186
554,6	4910,729
555,1	4873,814
555,5	4822,157
555,9	4789,3
556,4	4746,957
556,8	4707,614
557,3	4657,671
557,7	4615,071
558,2	4573,071
558,6	4546,386
559,1	4498,186
559,5	4466,671
560	4432,614
560,4	4400,929
560,9	4364,5
561,3	4324,5
561,8	4279,814
562,2	4250,814
562,7	4217,529
563,1	4186,5
563,6	4149,986
564	4120,1
564,4	4085,157
564,9	4057,129
565,3	4024,014
565,8	3985,986
566,2	3955,5
566,7	3934,843
567,1	3906,614
567,6	3878,043
568	3845,043
568,5	3812,186
568,9	3782,014
569,4	3744,614
569,8	3708,5
570,3	3682,843
570,7	3655,357
571,1	3628,729
571,6	3602,186
572	3578,871
572,5	3556,329
572,9	3537,129
573,4	3502,986
573,8	3484,129
574,3	3455,7
574,7	3431,214
575,2	3407,7
575,6	3382,5
576,1	3355,614
576,5	3338,3
576,9	3307,386
577,4	3287,557
577,8	3262,3
578,3	3232,929
578,7	3211,671
579,2	3190,757
579,6	3166,043
580,1	3149,157
580,5	3125,5
581	3107,157
581,4	3090,843
581,9	3066,014
582,3	3036,9
582,7	3014,471
583,2	2991,071
583,6	2974,271
584,1	2953,186
584,5	2936,3
585	2921,729
585,4	2901,614
585,9	2881,157
586,3	2865,329
586,8	2846,786
587,2	2824,786
587,6	2807,157
588,1	2793,1
588,5	2780,643
589	2770,786
589,4	2751,186
589,9	2731,414
590,3	2714,386
590,8	2690,786
591,2	2669,529
591,7	2659,271
592,1	2640,729
592,5	2627,043
593	2609,329
593,4	2598,786
593,9	2583,1
594,3	2569,929
594,8	2545,129
595,2	2528,986
595,7	2511,271
596,1	2498,271
596,6	2487,3
597	2479,529
597,4	2465,186
597,9	2456,329
598,3	2442,014
598,8	2428,557
599,2	2416,186
599,7	2397,329
600,1	2378,7
600,6	2358,557
601	2343,614
601,4	2335,814
601,9	2327,757
602,3	2314,929
602,8	2303,129
603,2	2289,3
603,7	2279,014
604,1	2271,929
604,6	2252,129
605	2233,557
605,4	2223,957
605,9	2211,3
606,3	2201,329
606,8	2188,814
607,2	2168,471
607,7	2154,157
608,1	2146,043
608,6	2134,329
609	2120,329
609,4	2111,671
609,9	2102,071
610,3	2092,129
610,8	2080,5
611,2	2064,214
611,7	2047,386
612,1	2038,043
612,6	2020,957
613	2008,386
613,4	1995,786
613,9	1986,9
614,3	1974,157
614,8	1963,014
615,2	1946,271
615,7	1939,814
616,1	1927,986
616,6	1919,386
617	1901,929
617,4	1891,843
617,9	1883,871
618,3	1875,757
618,8	1868,071
619,2	1854,643
619,7	1846,843
620,1	1842,586
620,5	1834,529
621	1820,471
621,4	1812,671
621,9	1792,1
622,3	1781,671
622,8	1761,643
623,2	1748,729
623,6	1738,357
624,1	1730,871
624,5	1718,929
625	1712,186
625,4	1699,014
625,9	1694,986
626,3	1686,071
626,8	1672,386
627,2	1665,186
627,6	1645,7
628,1	1626,786
628,5	1624,414
629	1608,014
629,4	1593,843
629,9	1579,386
630,3	1557,614
630,7	1554,443
631,2	1555,243
631,6	1543,043
632,1	1535,3
632,5	1525,671
633	1520,129
633,4	1508,586
633,8	1504,271
634,3	1484,929
634,7	1473,186
635,2	1460,957
635,6	1453,071
636,1	1443,129
636,5	1440,5
636,9	1417,414
637,4	1410,871
637,8	1397,671
638,3	1387,614
638,7	1374,014
639,2	1361,186
639,6	1351,757
640	1344,871
640,5	1341,243
640,9	1336,557
641,4	1332,357
641,8	1329,414
642,2	1325,443
642,7	1316,814
643,1	1318,7
643,6	1309,786
644	1302,957
644,5	1296,957
644,9	1285,871
645,3	1278,443
645,8	1270,814
646,2	1260,386
646,7	1251,957
647,1	1242,157
647,6	1229,014
648	1226,357
648,4	1214,7
648,9	1207,557
649,3	1196,557
649,8	1191,871
650,2	1189,9
650,6	1185,786
651,1	1174,214
651,5	1171,957
652	1163,786
652,4	1157,157
652,9	1148,129
653,3	1137,5
653,7	1128,729
654,2	1125,214
654,6	1113,3
655,1	1103,843
655,5	1102,3
655,9	1095,157
656,4	1084,471
656,8	1078,671
657,3	1070,3
657,7	1069,243
658,2	1066,443
658,6	1053,814
659	1042,014
659,5	1037,643
659,9	1033,186
660,4	1030,986
660,8	1017,814
661,2	1009,043
661,7	1001,243
662,1	999,671
662,6	992,357
663	982,129
663,4	967,843
663,9	963,271
664,3	956,471
664,8	945,9
665,2	935,871
665,6	927,329
666,1	923,043
666,5	917,957
667	912,014
667,4	902,157
667,9	902,071
668,3	893,786
668,7	888,157
669,2	884,186
669,6	878,843
670,1	868,614
670,5	862,586
670,9	852,214
671,4	848,814
671,8	846,271
672,3	836,7
672,7	832,386
673,1	830,843
673,6	833,814
674	834,5
674,5	825,871
674,9	813,757
675,3	808,729
675,8	800,414
676,2	790,871
676,7	777,043
677,1	766,014
677,5	761,357
678	756,9
678,4	751,843
678,9	749,357
679,3	746,843
679,7	745,186
680,2	733,9
680,6	731,157
681,1	728,957
681,5	723,414
681,9	716,443
682,4	710,243
682,8	705,3
683,3	713,1
683,7	710,386
684,1	706,671
684,6	698,386
685	694,814
685,5	691,157
685,9	681,186
686,3	664,071
686,8	655,929
687,2	647,471
687,7	645,529
688,1	632,586
688,5	628,9
689	629,814
689,4	633,586
689,9	627,157
690,3	623,729
690,7	619,843
691,2	624,557
691,6	621,129
692	614,7
692,5	612,7
692,9	611,614
693,4	607,357
693,8	602,614
694,2	593,186
694,7	583,529
695,1	575,471
695,6	567,471
696	562,5
696,4	557,443
696,9	549,071
697,3	540,871
697,8	540,614
698,2	538,214
698,6	536,814
699,1	529,929
699,5	528,557
699,9	527,643
700,4	527,471
700,8	526,357
701,3	523,843
701,7	517,586
702,1	515,271
702,6	512,071
703	510,586
703,5	507,529
703,9	498,929
704,3	493,814
704,8	489,357
705,2	486,786
705,6	479,243
706,1	472,9
706,5	470,986
707	471,357
707,4	471,586
707,8	465,871
708,3	463,014
708,7	463,014
709,2	461,871
709,6	455,471
710	457,586
710,5	451,5
710,9	452,357
711,3	447,014
711,8	443,157
712,2	438,871
712,7	437,786
713,1	430,014
713,5	430,071
714	425,729
714,4	422,214
714,8	419,043
715,3	412,786
715,7	408,957
716,2	403,671
716,6	401,329
717	397,3
717,5	393,071
717,9	391,071
718,3	390,386
718,8	389,957
719,2	389,9
719,7	383,9
720,1	384,643
720,5	387,786
721	383,214
721,4	381,186
721,8	379,443
722,3	373,1
722,7	380,671
723,2	372,814
723,6	363,843
724	356,843
724,5	350,9
724,9	348,671
725,3	344,671
725,8	333,871
726,2	329,386
726,7	331,614
727,1	332,814
727,5	335,786
728	329,471
728,4	327,671
728,8	324,929
729,3	326,757
729,7	318,329
730,1	318,529
730,6	314,671
731	312,557
731,5	312,871
731,9	310,157
732,3	305,243
732,8	308,929
733,2	303,186
733,6	298,643
734,1	298,014
734,5	294,9
734,9	292,157
735,4	296,243
735,8	289,3
736,3	292,871
736,7	291,071
737,1	288,986
737,6	286,7
738	286,986
738,4	279,871
738,9	281,329
739,3	275,7
739,7	274,243
740,2	270,614
740,6	275,671
741,1	273,586
741,5	270,186
741,9	272,414
742,4	274,614
742,8	271,5
743,2	273,729
743,7	264,186
744,1	259,929
744,5	258,214
745	251,929
745,4	245,043
745,8	243,157
746,3	239,871
746,7	240,014
747,2	241,129
747,6	244,7
748	247,414
748,5	250,814
748,9	251,7
749,3	247,814
749,8	248,957
750,2	245,157
750,6	239,9
751,1	236,043
751,5	232,786
751,9	235,271
752,4	237,814
752,8	234,814
753,3	232,786
753,7	237,414
754,1	233,271
754,6	231,814
755	225,043
755,4	219,043
755,9	216,386
756,3	211,9
756,7	205,9
757,2	207,414
757,6	207,843
758	208,014
758,5	206,157
758,9	199,186
759,3	202,986
759,8	201,357
760,2	196,786
760,6	190,7
761,1	188,386
761,5	189,386
761,9	189,586
762,4	186,957
762,8	183,757
763,3	184,186
763,7	184,443
764,1	186,871
764,6	186,157
765	189,729
765,4	187,243
765,9	187,443
766,3	188,9
766,7	186,986
767,2	180,014
767,6	180,786
768	179,614
768,5	179,157
768,9	178,357
769,3	176,386
769,8	174,243
770,2	176,643
770,6	174,729
771,1	174,871
771,5	174,814
771,9	175,671
772,4	172,957
772,8	172,7
773,2	171,843
773,7	168,443
774,1	166,043
774,5	158,529
775	155,157
775,4	158,014
775,8	153,786
776,3	153,557
776,7	152,871
777,1	147,929
777,6	153,843
778	157,671
778,4	151,3
778,9	156,271
779,3	153,586
779,7	152,643
780,2	156,586
780,6	151,814
781	147,1
781,5	145,129
781,9	141,671
782,3	139,014
782,8	136,729
783,2	131,014
783,6	140,157
784,1	138,414
784,5	137,186
784,9	135,271
785,4	137,243
785,8	138,986
786,2	141,929
786,7	135,986
787,1	134,671
787,5	137,157
788	138,271
788,4	134,357
788,8	132,7
789,3	132,186
789,7	131,643
790,1	130,443
790,6	129,1
791	124,529
791,4	130,243
791,9	124,329
792,3	121,414
792,7	121,9
793,2	118,929
793,6	118,186
794	122,014
794,5	115,3
794,9	122,729
795,3	121,871
795,8	114,043
796,2	117,186
796,6	116,414
797,1	112,443
797,5	111,729
797,9	103,3
798,4	101,1
798,8	102,529
799,2	100,329
799,7	99,386
800,1	95,3
800,5	96,386
801	102,014
801,4	100,7
801,8	98,386
802,2	99,1
802,7	97,271
803,1	100,614
803,5	99,529
804	95,357
804,4	98,757
804,8	101,5
805,3	105,214
805,7	105,843
806,1	107,357
806,6	105,357
807	104,9
807,4	104,129
807,9	99,357
808,3	94,043
808,7	93,7
809,2	90,757
809,6	97,129
810	96,814
810,4	93,929
810,9	99,586
811,3	99,186
811,7	94,529
812,2	98,071
812,6	89,986
813	92,357
813,5	93,729
813,9	88,557
814,3	86,129
814,8	85,5
815,2	79,9
815,6	77,271
816,1	75,357
816,5	73,214
816,9	72,557
817,3	74,957
817,8	82,014
818,2	85,814
818,6	82,986
819,1	79,471
819,5	76,529
819,9	76,814
820,4	76,471
820,8	66,129
821,2	59,814
821,7	68,214
822,1	74,243
822,5	80,643
822,9	79,614
823,4	76,529
823,8	83,443
824,2	86,929
824,7	78,614
825,1	70,814
825,5	65,071
826	61,5
826,4	65,529
826,8	60,757
827,3	62,814
827,7	64,843
828,1	66,9
828,5	64,071
829	65,071
829,4	62,043
829,8	60,129
830,3	58,586
830,7	59,357
831,1	60,986
831,6	62,586
832	65,786
832,4	63,957
832,8	68,243
833,3	65,186
833,7	61,557
834,1	58,014
834,6	57,471
835	54,729
835,4	53,043
835,8	50,843
836,3	47,871
836,7	51,814
837,1	51,814
837,6	52,043
838	50,357
838,4	50,986
838,9	51,186
839,3	50,386
839,7	48,5
840,1	43,3
840,6	41,329
841	43,014
841,4	44,243
841,9	40,214
842,3	45,557
842,7	45,957
843,1	52,186
843,6	56,243
844	56,671
844,4	58,586
844,9	64,157
845,3	59,357
845,7	58,129
846,2	54,157
846,6	47,386
847	50,043
847,4	46,9
847,9	46,329
848,3	47,786
848,7	48,5
849,2	50,1
849,6	47,471
850	43,557
850,4	43,671
850,9	44,757
851,3	43,1
851,7	41,9
852,2	41,1
852,6	48,729
853	48,443
853,4	48,214
853,9	42,843
854,3	45,757
854,7	49,357
855,2	46,757
855,6	46,157
856	43,529
856,4	40,757
856,9	40,129
857,3	38,843
857,7	36,386
858,2	43,586
858,6	38,729
859	40,1
859,4	42,643
859,9	41,671
860,3	35,1
860,7	33,757
861,1	30,471
861,6	29,786
862	31,329
862,4	28,586
862,9	29,271
863,3	34,9
863,7	34,329
864,1	32,043
864,6	35,1
865	32,671
865,4	34,157
865,9	34,043
866,3	29,071
866,7	27,329
867,1	25,271
867,6	24,5
868	24,7
868,4	20,129
868,8	22,443
869,3	26,243
869,7	30,214
870,1	31,043
870,6	27,557
871	-1,529
871,4	5,214
871,8	0,929
872,3	-2,157
872,7	-4,414
873,1	-4,786
873,5	-1,329
874	28,5
874,4	23,7
874,8	23,671
875,3	25,871
875,7	25,157
876,1	30,843
876,5	28,014
877	26,443
877,4	23,557
877,8	27,014
878,2	31,414
878,7	37,071
879,1	30,014
879,5	32,986
879,9	35,929
880,4	39,3
880,8	38,157
881,2	32,7
881,7	23,386
882,1	25,9
882,5	22,843
882,9	18,614
883,4	15,186
883,8	15,186
884,2	15,014
884,6	15,557
885,1	16,614
885,5	19,043
885,9	17,7
886,3	22,843
886,8	17,243
887,2	17,214
887,6	19,671
888	17,443
888,5	18,3
888,9	16,529
889,3	11,357
889,8	15,929
890,2	11,814
890,6	8,214
891	9,9
891,5	8,871
891,9	9,271
892,3	11,443
892,7	11,186
893,2	18,1
893,6	19,186
894	18,557
894,4	13,671
894,9	16,329
895,3	17,357
895,7	19,157
896,1	19,443
896,6	23,443
897	23,271
897,4	32,586
897,8	34,871
898,3	39,757
898,7	37,329
899,1	29,957
899,5	26,243
900	21,586
900,4	14,357
900,8	9,871
901,2	3,071
901,7	3,157
902,1	7,071
902,5	7,014
902,9	8,214
903,4	9,386
903,8	10,443
904,2	10,786
904,6	12,529
905,1	10,471
905,5	9,414
905,9	14,671
906,3	17,186
906,8	19,786
907,2	18,929
907,6	17,757
908	19,414
908,5	16,471
908,9	12,586
909,3	8,814
909,7	8,7
910,2	8,357
910,6	8,129
911	4,471
911,4	10,529
911,9	12,557
912,3	15,357
912,7	20,243
913,1	21,786
913,6	17,786
914	21,929
914,4	21,1
914,8	14,529
915,3	14,786
915,7	7,986
916,1	5,3
916,5	7,671
916,9	6,071
917,4	5,5
917,8	11,071
918,2	6,271
918,6	4,643
919,1	2,9
919,5	3,157
919,9	3,929
920,3	3,986
920,8	4,671
921,2	2,729
921,6	3,157
922	12,214
922,5	10,986
922,9	11,186
923,3	7,843
923,7	5,043
924,2	6,243
924,6	7,929
925	2,986
925,4	1,443
925,8	-0,3
926,3	-0,214
926,7	-2,357
927,1	0,957
927,5	3,071
928	-0,414
928,4	-0,529
928,8	-1,443
929,2	0,414
929,7	4,871
930,1	8,214
930,5	4,214
930,9	6,7
931,3	9,671
931,8	10,871
932,2	9,843
932,6	6,814
933	-3,9
933,5	-2,214
933,9	-2,129
934,3	0,443
934,7	0,871
935,2	5,957
935,6	5,386
936	12,529
936,4	10,014
936,8	12,786
937,3	9,443
937,7	12,014
938,1	10,986
938,5	10,357
939	9,186
939,4	11,014
939,8	8,357
940,2	4,843
940,6	5,671
941,1	3,871
941,5	10,529
941,9	8,271
942,3	9,157
942,8	10,929
943,2	12,071
943,6	7,929
944	8,871
944,4	4,357
944,9	5,129
945,3	3,186
945,7	-4,671
946,1	-2,357
946,6	-3,757
947	-8,3
947,4	-10,271
947,8	-9,729
948,2	-11,614
948,7	-7,386
949,1	-6,643
949,5	1,129
949,9	0,586
950,3	1,129
950,8	2,329
951,2	1,071
951,6	0,357
952	-1,129
952,5	-10,214
952,9	-6,386
953,3	-5,386
953,7	-5,929
954,1	-0,129
954,6	3,1
955	7,243
955,4	8,357
955,8	7,186
956,2	8,929
956,7	11,329
957,1	7,329
957,5	5,843
957,9	4,814
958,3	6,786
958,8	9,271
959,2	4,5
959,6	6,729
960	6,786
960,5	10,986
960,9	9,129
961,3	5,386
961,7	1,957
962,1	3,186
962,6	2,957
963	3,243
963,4	-4,271
963,8	-3,471
964,2	2,357
964,7	6,929
965,1	11,329
965,5	5,957
965,9	6,1
966,3	14,243
966,8	10,414
967,2	7,014
967,6	0,986
968	-3,043
968,4	-3,043
968,9	1,243
969,3	1,957
969,7	0,871
970,1	3,214
970,5	5,357
971	8,643
971,4	10,214
971,8	7,586
972,2	4,471
972,6	8,671
973,1	9,186
973,5	10,357
973,9	8,014
974,3	11,643
974,7	11,443
975,2	8,157
975,6	6,757
976	4,471
976,4	0,186
976,8	2,471
977,3	-3,386
977,7	-6,214
978,1	-4,757
978,5	-5,614
978,9	-4,357
979,4	-4,529
979,8	-5,871
980,2	-5,386
980,6	-4,414
981	-2,357
981,5	-4,071
981,9	-4,386
982,3	-1,3
982,7	-1,643
983,1	-3,186
983,6	-1,3
984	-0,014
984,4	3,1
984,8	3,9
985,2	3,643
985,6	0,014
986,1	3,843
986,5	2,643
986,9	-4,329
987,3	-2,329
987,7	-0,843
988,2	-3,3
988,6	-0,757
989	-3,643
989,4	-1,757
989,8	0,271
990,3	-0,643
990,7	-6,129
991,1	-2,443
991,5	-0,214
991,9	2,3
992,3	0,586
992,8	5,9
993,2	3,1
993,6	6,414
994	5,5
994,4	7,957
994,9	7,471
995,3	5,786
995,7	3,357
996,1	4,043
996,5	3,814
996,9	0,929
997,4	-0,643
997,8	-5,214
998,2	-3,929
998,6	-12,157
999	-10,529
999,5	-9,214
999,9	-6,557
1000,3	-8,529
1000,7	-2,586
1001,1	-2,757
1001,5	4,643
1002	4,7
1002,4	5,471
1002,8	8,3
1003,2	9,014
1003,6	10,414
1004	11,214
1004,5	10,757
1004,9	13,529
1005,3	6,3
1005,7	5,757
1006,1	5,357
1006,6	2,814
1007	4,043
1007,4	-2,1
1007,8	-4,014
1008,2	-4,443
1008,6	-2,214
1009,1	-5,014
1009,5	-3,614
1009,9	-0,671
1010,3	8,129
1010,7	5,157
1011,1	7,986
1011,6	1,414
1012	4,7
1012,4	0,386
1012,8	-5,5
1013,2	-3,357
1013,6	-1,871
1014,1	-0,814
1014,5	0,671
1014,9	0,529
1015,3	1,814
1015,7	6,843
1016,1	0,957
1016,6	1,329
1017	5,7
1017,4	7,557
1017,8	4,3
1018,2	5,186
1018,6	0,357
1019,1	2,1
1019,5	0,157
1019,9	-5,043
1020,3	-2,957
1020,7	1,957
1021,1	0,9
1021,6	1,614
1022	3,386
1022,4	4,3
1022,8	5,7
1023,2	3,843
1023,6	3,386
1024,1	7,9
1024,5	9,757
1024,9	3,986
1025,3	3,757
1025,7	4,586
1026,1	6,643
1026,6	6,1
1027	3,7
1027,4	5,157
1027,8	8,643
1028,2	9,614
1028,6	15,186
1029	14,586
1029,5	17,3
1029,9	14,929
1030,3	11,529
1030,7	12,043
1031,1	15,871
1031,5	8,671
1032	8,957
1032,4	6,129
1032,8	9,9
1033,2	12,1
1033,6	10,757
1034	9,729
1034,4	10,871
1034,9	9,7
1035,3	4,329
1035,7	7,9
1036,1	5,671
1036,5	5,157
1036,9	4,529
1037,4	9,129
1037,8	8,586
1038,2	13,043
1038,6	6,214
1039	12,014
1039,4	18,7
1039,8	18,243
1040,3	14,9
1040,7	13,529
1041,1	16,271
1041,5	19,414
1041,9	13,929
1042,3	5,643
1042,7	2,329
1043,2	1,5
1043,6	0,471
1044	-7,129
1044,4	-7,643
1044,8	-7,814
1045,2	-6,129
1045,6	-3,014
1046,1	-2,786
1046,5	-1,986
1046,9	1,471
1047,3	-2,243
1047,7	-2,529
1048,1	-5,986
1048,5	-8,3
1049	-3,5
1049,4	1,186
1049,8	-2,071
1050,2	2,929
1050,6	7,386
1051	12,757
1051,4	10,3
1051,9	0,386
1052,3	2,1
1052,7	4,443
1053,1	0,243
1053,5	1,786
1053,9	-2,329
1054,3	1,729
1054,8	12,329
1055,2	6,929
1055,6	10,929
1056	11,814
1056,4	8,9
1056,8	13,557
1057,2	14,129
1057,6	5,729
1058,1	4,443
1058,5	-1,643
1058,9	0,643
1059,3	1,043
1059,7	1,357
1060,1	1,643
1060,5	3,929
1061	5,071
1061,4	8,071
1061,8	11,957
1062,2	9,757
1062,6	10,043
1063	8,786
1063,4	13,1
1063,8	11,871
1064,3	11,643
1064,7	5,357
1065,1	3,1
1065,5	-1,729
1065,9	-3,757
1066,3	-8,471
1066,7	-9,186
1067,1	-11,814
1067,6	-9,9
1068	-10,614
1068,4	-6,214
1068,8	-1,071
1069,2	0,071
1069,6	3,9
1070	7,871
1070,4	6,871
1070,9	9,757
1071,3	8,386
1071,7	4,014
1072,1	7,529
1072,5	-0,443
1072,9	-1,271
1073,3	0,529
1073,7	-4,471
1074,2	-5,1
1074,6	-0,3
1075	-5,643
1075,4	-0,586
1075,8	6,043
1076,2	3,557
1076,6	12,357
1077	11,014
1077,5	11,357
1077,9	13,357
1078,3	11,443
1078,7	5,814
1079,1	7,871
1079,5	4,414
1079,9	5,386
1080,3	1,186
1080,7	-1,414
1081,2	6,443
1081,6	5,929
1082	0,586
1082,4	6,386
1082,8	8,5
1083,2	8,186
1083,6	10,271
1084	3,214
1084,5	6,243
1084,9	11,271
1085,3	1,386
1085,7	0,043
1086,1	-3,586
1086,5	-7,329
1086,9	-2,757
1087,3	-8,043
1087,7	-10,043
1088,2	-7,157
1088,6	-8,1
1089	-2,786
1089,4	-0,643
1089,8	-3,557
1090,2	-1,386
1090,6	-5,043
1091	0,443
1091,4	1,271
1091,9	0,529
1092,3	3,7
1092,7	3,129
1093,1	7,614
1093,5	11,786
1093,9	7,757
1094,3	12,357
1094,7	9,757
1095,1	10,214
1095,5	11,1
1096	3,843
1096,4	5,443
1096,8	4,386
1097,2	-1,557
1097,6	1,814
1098	-0,071
1098,4	4,3
1098,8	7,614
1099,2	10,957
1099,6	9,643
1100,1	7,129
1100,5	1,871
1100,9	0,186
1101,3	-1,586
1101,7	-5,243
1102,1	-8,957
1102,5	-4,357
1102,9	0,7
1103,3	7,329
1103,7	10,271
1104,2	8,671
1104,6	10,671
1105	8,929
1105,4	7,529
1105,8	5,586
1106,2	2,529
1106,6	0,843
1107	-0,614
1107,4	0,6
1107,8	1,74
1108,3	-0,55
