Data from Subt2_095.txt Node
Date: Sat Aug 26 16:43:24 MSK 2023
User: vat
Spectrometer: MAYP114033
Trigger mode: 0
Integration Time (sec): 1,000000E0
Scans to average: 5
Electric dark correction enabled: true
Nonlinearity correction enabled: false
Boxcar width: 3
XAxis mode: Wavelengths
Number of Pixels in Spectrum: 2068
>>>>>Begin Spectral Data<<<<<
199,4	-0,533
199,9	-0,873
200,4	-1,133
200,8	-1,119
201,3	1,138
201,8	5,281
202,2	5,11
202,7	8,424
203,2	10,081
203,6	10,195
204,1	9,852
204,6	10,71
205	12,195
205,5	12,881
206	11,71
206,4	10,995
206,9	10,367
207,4	15,138
207,8	12,652
208,3	8,138
208,8	7,881
209,2	7,795
209,7	12,367
210,2	18,31
210,6	16,538
211,1	14,624
211,5	12,51
212	8,138
212,5	2,767
212,9	-0,833
213,4	-3,462
213,9	-6,49
214,3	-3,148
214,8	-0,033
215,3	4,538
215,7	8,167
216,2	11,538
216,7	9,338
217,1	10,795
217,6	10,11
218,1	13,51
218,5	13,252
219	19,71
219,5	13,767
219,9	16,395
220,4	17,31
220,9	18,11
221,3	14,338
221,8	11,538
222,3	9,31
222,7	8,481
223,2	9,395
223,6	7,395
224,1	6,995
224,6	6,452
225	7,51
225,5	9,767
226	12,024
226,4	11,367
226,9	12,081
227,4	13,738
227,8	15,91
228,3	21,538
228,8	13,281
229,2	15,31
229,7	12,624
230,2	18,338
230,6	14,795
231,1	13,195
231,5	16,367
232	24,681
232,5	25,11
232,9	25,852
233,4	20,281
233,9	24,538
234,3	25,31
234,8	18,995
235,3	12,824
235,7	15,138
236,2	16,024
236,7	16,767
237,1	13,11
237,6	12,681
238,1	12,081
238,5	13,567
239	10,281
239,4	13,881
239,9	13,881
240,4	12,938
240,8	14,738
241,3	11,338
241,8	10,824
242,2	6,681
242,7	5,852
243,2	8,367
243,6	10,081
244,1	7,252
244,6	9,91
245	9,395
245,5	13,424
245,9	9,481
246,4	5,681
246,9	5,567
247,3	7,538
247,8	6,424
248,3	7,767
248,7	10,31
249,2	7,595
249,7	8,71
250,1	10,995
250,6	9,852
251	11,538
251,5	8,91
252	5,881
252,4	8,652
252,9	12,595
253,4	10,424
253,8	6,424
254,3	8,624
254,8	10,538
255,2	11,138
255,7	14,51
256,1	9,652
256,6	14,538
257,1	18,91
257,5	17,767
258	20,795
258,5	20,795
258,9	16,567
259,4	14,595
259,9	14,738
260,3	12,281
260,8	14,881
261,2	15,71
261,7	14,71
262,2	14,938
262,6	15,338
263,1	10,252
263,6	11,881
264	10,395
264,5	10,281
264,9	9,967
265,4	11,652
265,9	14,052
266,3	17,31
266,8	16,91
267,3	15,51
267,7	13,11
268,2	11,91
268,7	6,967
269,1	5,481
269,6	5,967
270	11,11
270,5	13,624
271	15,395
271,4	16,224
271,9	20,767
272,4	23,224
272,8	17,081
273,3	8,224
273,7	4,51
274,2	3,681
274,7	2,852
275,1	0,024
275,6	-1,862
276,1	4,595
276,5	11,281
277	13,967
277,4	11,824
277,9	11,852
278,4	15,767
278,8	19,138
279,3	12,081
279,8	10,195
280,2	9,11
280,7	5,71
281,1	9,71
281,6	10,052
282,1	12,024
282,5	18,995
283	21,167
283,4	18,767
283,9	20,567
284,4	17,767
284,8	16,881
285,3	11,938
285,8	5,11
286,2	3,767
286,7	1,995
287,1	1,31
287,6	4,538
288,1	7,995
288,5	13,624
289	17,424
289,5	16,881
289,9	20,081
290,4	23,31
290,8	23,71
291,3	18,567
291,8	14,452
292,2	17,652
292,7	17,767
293,1	18,281
293,6	15,081
294,1	11,252
294,5	16,51
295	15,252
295,5	15,424
295,9	17,167
296,4	18,252
296,8	18,51
297,3	20,767
297,8	17,824
298,2	16,767
298,7	10,91
299,1	9,51
299,6	12,967
300,1	14,31
300,5	18,052
301	16,795
301,5	20,31
301,9	20,452
302,4	21,567
302,8	18,567
303,3	23,024
303,8	17,167
304,2	18,195
304,7	15,852
305,1	16,51
305,6	12,824
306,1	11,881
306,5	7,91
307	7,824
307,4	5,052
307,9	4,995
308,4	8,052
308,8	13,567
309,3	15,624
309,8	16,224
310,2	15,367
310,7	22,51
311,1	21,767
311,6	23,395
312,1	19,538
312,5	17,252
313	17,367
313,4	18,738
313,9	16,824
314,4	15,11
314,8	12,252
315,3	12,795
315,7	14,081
316,2	10,795
316,7	12,71
317,1	12,767
317,6	14,938
318	17,452
318,5	19,395
319	16,452
319,4	20,681
319,9	17,91
320,3	16,938
320,8	17,281
321,3	12,681
321,7	12,595
322,2	15,138
322,6	8,938
323,1	9,967
323,6	4,738
324	7,395
324,5	5,51
324,9	5,795
325,4	5,824
325,9	13,452
326,3	19,024
326,8	21,681
327,2	22,567
327,7	23,624
328,2	20,995
328,6	20,081
329,1	15,395
329,5	11,767
330	11,338
330,5	10,395
330,9	16,138
331,4	13,938
331,8	19,624
332,3	24,167
332,8	22,395
333,2	24,138
333,7	20,395
334,1	20,624
334,6	24,71
335,1	21,538
335,5	23,481
336	23,081
336,4	22,91
336,9	26,738
337,4	26,138
337,8	26,824
338,3	26,452
338,7	22,595
339,2	26,51
339,7	25,024
340,1	20,881
340,6	15,51
341	18,195
341,5	17,881
342	16,367
342,4	13,224
342,9	13,852
343,3	17,71
343,8	25,167
344,2	21,424
344,7	22,052
345,2	22,652
345,6	23,881
346,1	29,595
346,5	30,91
347	28,052
347,5	24,395
347,9	25,11
348,4	25,624
348,8	27,367
349,3	26,195
349,8	28,195
350,2	29,31
350,7	37,681
351,1	39,367
351,6	44,538
352	54,967
352,5	62,167
353	73,852
353,4	85,852
353,9	99,052
354,3	121,11
354,8	139,452
355,3	162,167
355,7	192,31
356,2	225,195
356,6	266,967
357,1	316,624
357,5	365,767
358	437,281
358,5	509,424
358,9	589,252
359,4	681,624
359,8	786,024
360,3	903,967
360,8	1035,795
361,2	1182,052
361,7	1346,024
362,1	1526,995
362,6	1729,195
363	1945,31
363,5	2173,195
364	2413,51
364,4	2658,052
364,9	2909,052
365,3	3163,71
365,8	3397,538
366,3	3627,195
366,7	3837,052
367,2	4026,452
367,6	4185,281
368,1	4309,567
368,5	4387,024
369	4447,052
369,5	4462,767
369,9	4442,424
370,4	4381,367
370,8	4287,995
371,3	4171,252
371,7	4035,052
372,2	3865,824
372,7	3670,51
373,1	3479,595
373,6	3281,91
374	3077,91
374,5	2869,138
374,9	2665,281
375,4	2480,681
375,9	2305,624
376,3	2122,167
376,8	1951,938
377,2	1798,738
377,7	1650,852
378,2	1517,51
378,6	1378,938
379,1	1259,624
379,5	1155,881
380	1062,338
380,4	971,995
380,9	895,824
381,4	820,652
381,8	755,881
382,3	696,367
382,7	636,91
383,2	585,567
383,6	543,11
384,1	505,767
384,6	468,824
385	434,767
385,5	402,195
385,9	382,338
386,4	358,481
386,8	334,595
387,3	306,11
387,7	286,024
388,2	269,852
388,7	253,595
389,1	230,452
389,6	211,481
390	199,51
390,5	186,51
390,9	179,595
391,4	168,567
391,9	156,71
392,3	143,652
392,8	137,681
393,2	120,795
393,7	116,281
394,1	108,338
394,6	101,938
395,1	101,767
395,5	100,424
396	98,281
396,4	96,681
396,9	95,167
397,3	85,738
397,8	81,852
398,2	74,681
398,7	70,481
399,2	66,481
399,6	66,967
400,1	54,481
400,5	56,452
401	55,138
401,4	54,31
401,9	53,738
402,4	50,881
402,8	49,738
403,3	54,252
403,7	51,567
404,2	50,224
404,6	45,195
405,1	43,538
405,5	40,567
406	38,31
406,5	38,195
406,9	38,967
407,4	34,024
407,8	37,538
408,3	38,881
408,7	49,195
409,2	50,052
409,6	49,71
410,1	54,481
410,6	62,281
411	63,595
411,5	63,338
411,9	56,367
412,4	58,538
412,8	61,224
413,3	58,338
413,7	58,824
414,2	64,11
414,7	70,338
415,1	72,195
415,6	77,91
416	84,252
416,5	86,767
416,9	93,024
417,4	98,081
417,8	101,824
418,3	109,567
418,8	104,538
419,2	104,081
419,7	109,538
420,1	102,71
420,6	100,11
421	97,967
421,5	97,252
421,9	103,195
422,4	102,824
422,8	101,681
423,3	104,424
423,8	107,395
424,2	108,795
424,7	106,538
425,1	108,31
425,6	109,681
426	112,51
426,5	114,081
426,9	112,681
427,4	111,767
427,9	108,395
428,3	105,681
428,8	110,767
429,2	105,995
429,7	105,452
430,1	104,224
430,6	106,281
431	112,081
431,5	113,538
431,9	109,252
432,4	115,795
432,8	123,138
433,3	125,252
433,8	129,31
434,2	133,481
434,7	132,024
435,1	134,681
435,6	139,481
436	138,91
436,5	145,881
436,9	149,652
437,4	157,11
437,8	166,567
438,3	176,852
438,8	178,224
439,2	184,452
439,7	190,938
440,1	199,224
440,6	204,224
441	208,567
441,5	215,538
441,9	228,71
442,4	241,424
442,8	250,367
443,3	259,71
443,7	260,281
444,2	271,767
444,7	280,481
445,1	287,052
445,6	296,024
446	311,624
446,5	320,91
446,9	340,481
447,4	357,31
447,8	370,252
448,3	387,252
448,7	399,538
449,2	408,681
449,6	421,31
450,1	440,652
450,6	457,652
451	470,881
451,5	486,538
451,9	505,71
452,4	525,824
452,8	548,824
453,3	562,881
453,7	580,652
454,2	602,081
454,6	623,91
455,1	642,481
455,5	666,995
456	690,481
456,4	717,167
456,9	736,452
457,3	765,024
457,8	787,567
458,3	812,424
458,7	836,967
459,2	861,738
459,6	887,481
460,1	915,795
460,5	940,452
461	964,367
461,4	992,167
461,9	1019,052
462,3	1045,624
462,8	1072,852
463,2	1104,081
463,7	1132,252
464,1	1170,624
464,6	1206,167
465	1236,367
465,5	1271,424
466	1301,624
466,4	1334,995
466,9	1371,91
467,3	1396,767
467,8	1428,252
468,2	1461,052
468,7	1494,31
469,1	1532,024
469,6	1568,167
470	1601,681
470,5	1642,395
470,9	1674,538
471,4	1709,595
471,8	1742,395
472,3	1772,91
472,7	1807,767
473,2	1836,281
473,6	1865,167
474,1	1898,71
474,5	1934,595
475	1968,11
475,4	2001,452
475,9	2040,795
476,4	2079,595
476,8	2116,852
477,3	2150,167
477,7	2189,567
478,2	2224,195
478,6	2256,995
479,1	2281,852
479,5	2313,281
480	2345,195
480,4	2381,91
480,9	2406,538
481,3	2432,11
481,8	2465,795
482,2	2495,424
482,7	2522,738
483,1	2546,624
483,6	2565,91
484	2590,31
484,5	2624,31
484,9	2648,795
485,4	2671,967
485,8	2695,452
486,3	2719,167
486,7	2747,11
487,2	2768,71
487,6	2785,795
488,1	2808,652
488,5	2827,081
489	2846,938
489,4	2865,852
489,9	2882,967
490,4	2901,824
490,8	2913,852
491,3	2931,652
491,7	2947,881
492,2	2965,767
492,6	2985,624
493,1	3003,852
493,5	3016,795
494	3041,395
494,4	3051,652
494,9	3070,11
495,3	3085,167
495,8	3095,767
496,2	3104,024
496,7	3120,967
497,1	3127,252
497,6	3142,052
498	3153,252
498,5	3161,738
498,9	3170,338
499,4	3187,481
499,8	3198,252
500,3	3212,938
500,7	3221,881
501,2	3227,024
501,6	3235,767
502,1	3253,367
502,5	3256,224
503	3262,738
503,4	3264,71
503,9	3271,395
504,3	3282,652
504,8	3291,195
505,2	3292,795
505,7	3309,11
506,1	3317,424
506,6	3333,167
507	3340,052
507,5	3346,138
507,9	3355,167
508,4	3361,052
508,8	3363,881
509,3	3371,881
509,7	3369,481
510,2	3375,738
510,6	3382,024
511,1	3385,795
511,5	3393,652
512	3395,681
512,4	3397,167
512,9	3403,681
513,3	3413,71
513,8	3416,367
514,2	3426,538
514,7	3432,052
515,1	3438,367
515,6	3445,795
516	3454,995
516,5	3455,91
516,9	3464,595
517,4	3464,938
517,8	3468,224
518,3	3472,452
518,7	3472,91
519,2	3475,795
519,6	3480,51
520,1	3482,481
520,5	3492,195
521	3492,252
521,4	3498,11
521,9	3511,395
522,3	3515,424
522,8	3525,252
523,2	3535,538
523,7	3533,71
524,1	3542,167
524,6	3543,11
525	3549,967
525,5	3558,395
525,9	3560,852
526,4	3558,424
526,8	3563,938
527,3	3576,281
527,7	3588,567
528,2	3585,652
528,6	3587,624
529,1	3593,167
529,5	3595,795
530	3605,167
530,4	3611,167
530,9	3611,31
531,3	3621,281
531,8	3635,71
532,2	3648,852
532,6	3663,967
533,1	3667,481
533,5	3673,967
534	3688,395
534,4	3697,224
534,9	3703,938
535,3	3701,995
535,8	3711,624
536,2	3722,738
536,7	3729,881
537,1	3739,91
537,6	3748,795
538	3754,052
538,5	3768,224
538,9	3777,081
539,4	3786,024
539,8	3793,224
540,3	3792,481
540,7	3795,938
541,2	3802,31
541,6	3810,852
542,1	3819,024
542,5	3830,252
543	3835,624
543,4	3852,338
543,9	3858,252
544,3	3867,71
544,8	3876,081
545,2	3878,452
545,7	3887,852
546,1	3902,281
546,5	3910,681
547	3923,11
547,4	3928,11
547,9	3936,881
548,3	3943,481
548,8	3952,252
549,2	3953,852
549,7	3956,052
550,1	3963,881
550,6	3978,224
551	3986,481
551,5	3997,824
551,9	4003,51
552,4	4014,824
552,8	4021,567
553,3	4031,795
553,7	4036,167
554,2	4038,738
554,6	4042,967
555,1	4049,91
555,5	4053,052
555,9	4063,395
556,4	4068,481
556,8	4078,024
557,3	4083,338
557,7	4094,195
558,2	4097,538
558,6	4108,624
559,1	4115,167
559,5	4122,224
560	4128,595
560,4	4135,852
560,9	4142,538
561,3	4154,11
561,8	4163,024
562,2	4164,167
562,7	4167,824
563,1	4171,538
563,6	4170,681
564	4175,967
564,4	4177,967
564,9	4185,652
565,3	4195,681
565,8	4198,881
566,2	4198,852
566,7	4210,367
567,1	4216,795
567,6	4222,224
568	4224,938
568,5	4222,167
568,9	4220,31
569,4	4224,51
569,8	4225,967
570,3	4224,31
570,7	4220,424
571,1	4213,71
571,6	4215,652
572	4225,795
572,5	4217,795
572,9	4219,681
573,4	4218,567
573,8	4222,224
574,3	4222,652
574,7	4220,224
575,2	4215,71
575,6	4223,567
576,1	4223,452
576,5	4223,852
576,9	4220,11
577,4	4217,852
577,8	4220,995
578,3	4213,138
578,7	4213,567
579,2	4209,281
579,6	4205,995
580,1	4202,024
580,5	4199,052
581	4192,738
581,4	4196,367
581,9	4190,738
582,3	4180,795
582,7	4182,11
583,2	4168,195
583,6	4161,224
584,1	4147,91
584,5	4148,824
585	4139,024
585,4	4137,252
585,9	4127,31
586,3	4130,567
586,8	4120,024
587,2	4125,167
587,6	4112,052
588,1	4112,795
588,5	4106,367
589	4094,967
589,4	4089,452
589,9	4085,624
590,3	4075,567
590,8	4064,852
591,2	4057,338
591,7	4048,395
592,1	4042,538
592,5	4035,881
593	4031,795
593,4	4026,424
593,9	4017,31
594,3	4000,367
594,8	3993,395
595,2	3986,138
595,7	3975,538
596,1	3968,567
596,6	3963,081
597	3959,624
597,4	3962,281
597,9	3957,338
598,3	3950,367
598,8	3945,967
599,2	3934,824
599,7	3921,51
600,1	3910,367
600,6	3896,224
601	3887,624
601,4	3882,681
601,9	3877,252
602,3	3875,595
602,8	3871,024
603,2	3866,881
603,7	3860,595
604,1	3860,538
604,6	3844,024
605	3826,71
605,4	3815,624
605,9	3803,91
606,3	3793,11
606,8	3779,881
607,2	3758,224
607,7	3749,938
608,1	3739,624
608,6	3729,024
609	3715,995
609,4	3702,167
609,9	3698,481
610,3	3689,281
610,8	3688,624
611,2	3677,338
611,7	3663,51
612,1	3652,281
612,6	3643,138
613	3629,71
613,4	3617,767
613,9	3596,71
614,3	3590,91
614,8	3572,852
615,2	3563,852
615,7	3553,681
616,1	3530,852
616,6	3517,224
617	3503,767
617,4	3480,91
617,9	3472,281
618,3	3458,51
618,8	3439,281
619,2	3430,595
619,7	3415,795
620,1	3399,395
620,5	3391,967
621	3374,395
621,4	3359,938
621,9	3344,224
622,3	3330,424
622,8	3306,281
623,2	3293,31
623,6	3276,395
624,1	3262,995
624,5	3248,452
625	3233,224
625,4	3211,767
625,9	3203,91
626,3	3189,081
626,8	3173,738
627,2	3157,995
627,6	3142,195
628,1	3128,367
628,5	3117,795
629	3108,481
629,4	3091,738
629,9	3076,424
630,3	3065,281
630,7	3047,481
631,2	3033,338
631,6	3019,281
632,1	2996,31
632,5	2985,138
633	2971,252
633,4	2950,881
633,8	2931,024
634,3	2915,767
634,7	2894,852
635,2	2883,052
635,6	2863,367
636,1	2850,824
636,5	2841,852
636,9	2834,852
637,4	2821,224
637,8	2813,11
638,3	2797,624
638,7	2791,481
639,2	2773,395
639,6	2753,681
640	2737,681
640,5	2720,795
640,9	2707,567
641,4	2693,652
641,8	2671,138
642,2	2658,767
642,7	2644,795
643,1	2632,938
643,6	2622,852
644	2609,71
644,5	2598,767
644,9	2584,938
645,3	2572,881
645,8	2567,881
646,2	2555,738
646,7	2536,71
647,1	2525,167
647,6	2510,624
648	2499,738
648,4	2483,024
648,9	2463,167
649,3	2444,595
649,8	2440,31
650,2	2421,481
650,6	2405,995
651,1	2396,081
651,5	2384,195
652	2369,624
652,4	2358,281
652,9	2342,281
653,3	2329,252
653,7	2319,11
654,2	2308,081
654,6	2299,995
655,1	2286,938
655,5	2276,538
655,9	2263,767
656,4	2253,224
656,8	2238,367
657,3	2223,252
657,7	2204,395
658,2	2194,71
658,6	2177,767
659	2165,51
659,5	2153,595
659,9	2143,452
660,4	2131,824
660,8	2119,052
661,2	2102,938
661,7	2093,995
662,1	2076,967
662,6	2063,881
663	2055,024
663,4	2041,795
663,9	2029,91
664,3	2020,624
664,8	2007,195
665,2	1996,767
665,6	1986,024
666,1	1967,31
666,5	1949,71
667	1932,481
667,4	1920,252
667,9	1904,195
668,3	1888,91
668,7	1875,852
669,2	1868,852
669,6	1857,281
670,1	1850,252
670,5	1833,795
670,9	1825,395
671,4	1813,824
671,8	1799,395
672,3	1787,338
672,7	1775,252
673,1	1766,024
673,6	1755,652
674	1743,852
674,5	1736,824
674,9	1728,624
675,3	1712,281
675,8	1704,252
676,2	1693,738
676,7	1684,424
677,1	1675,024
677,5	1664,338
678	1651,995
678,4	1642,224
678,9	1628,767
679,3	1614,081
679,7	1603,71
680,2	1596,395
680,6	1583,938
681,1	1568,567
681,5	1559,338
681,9	1549,424
682,4	1540,567
682,8	1527,081
683,3	1507,081
683,7	1495,795
684,1	1486,281
684,6	1472,567
685	1462,824
685,5	1451,424
685,9	1447,71
686,3	1442,481
686,8	1435,595
687,2	1426,824
687,7	1421,024
688,1	1415,452
688,5	1406,824
689	1397,281
689,4	1391,567
689,9	1381,367
690,3	1375,338
690,7	1360,652
691,2	1346,91
691,6	1334,595
692	1321,824
692,5	1304,624
692,9	1293,11
693,4	1285,224
693,8	1282,424
694,2	1269,681
694,7	1267,624
695,1	1259,767
695,6	1252,195
696	1243,11
696,4	1231,081
696,9	1222,71
697,3	1216,938
697,8	1201,281
698,2	1194,538
698,6	1189,567
699,1	1179,824
699,5	1172,567
699,9	1164,281
700,4	1160,995
700,8	1159,767
701,3	1152,338
701,7	1145,395
702,1	1146,824
702,6	1139,995
703	1127,71
703,5	1118,995
703,9	1111,681
704,3	1106,481
704,8	1096,567
705,2	1081,167
705,6	1070,367
706,1	1066,824
706,5	1063,91
707	1049,424
707,4	1039,967
707,8	1036,767
708,3	1030,652
708,7	1029,995
709,2	1022,995
709,6	1011,51
710	1007,224
710,5	1002,652
710,9	992,395
711,3	986,424
711,8	976,338
712,2	974,367
712,7	968,91
713,1	960,052
713,5	947,195
714	941,567
714,4	933,967
714,8	926,452
715,3	916,138
715,7	907,824
716,2	904,024
716,6	900,538
717	894,767
717,5	893,567
717,9	893,11
718,3	884,252
718,8	877,167
719,2	871,51
719,7	862,11
720,1	849,624
720,5	838,367
721	824,338
721,4	823,281
721,8	821,852
722,3	815,395
722,7	812,767
723,2	809,795
723,6	805,281
724	802,795
724,5	792,452
724,9	776,51
725,3	768,681
725,8	759,424
726,2	753,052
726,7	747,424
727,1	741,91
727,5	735,881
728	734,738
728,4	732,024
728,8	730,338
729,3	728,481
729,7	722,71
730,1	714,624
730,6	715,71
731	717,538
731,5	712,91
731,9	713,052
732,3	710,481
732,8	706,595
733,2	705,881
733,6	697,681
734,1	689,795
734,5	680,652
734,9	670,967
735,4	669,167
735,8	662,167
736,3	654,91
736,7	651,11
737,1	648,481
737,6	647,71
738	644,395
738,4	638,452
738,9	640,281
739,3	638,595
739,7	632,538
740,2	626,881
740,6	622,738
741,1	615,452
741,5	612,424
741,9	602,938
742,4	595,338
742,8	591,881
743,2	586,881
743,7	586,995
744,1	581,452
744,5	578,767
745	578,938
745,4	577,624
745,8	575,51
746,3	574,767
746,7	568,995
747,2	570,024
747,6	562,595
748	555,395
748,5	548,91
748,9	541,31
749,3	539,881
749,8	528,367
750,2	523,424
750,6	518,967
751,1	519,11
751,5	518,11
751,9	520,367
752,4	511,081
752,8	513,424
753,3	508,51
753,7	504,081
754,1	499,195
754,6	495,138
755	486,681
755,4	485,71
755,9	483,052
756,3	480,31
756,7	476,567
757,2	472,024
757,6	468,795
758	463,967
758,5	460,167
758,9	455,51
759,3	452,567
759,8	453,652
760,2	451,138
760,6	449,738
761,1	450,367
761,5	448,252
761,9	444,252
762,4	442,338
762,8	433,767
763,3	424,767
763,7	417,91
764,1	411,338
764,6	407,195
765	404,795
765,4	402,967
765,9	400,481
766,3	405,167
766,7	402,795
767,2	406,11
767,6	403,71
768	406,367
768,5	396,995
768,9	393,395
769,3	388,367
769,8	389,71
770,2	388,195
770,6	382,252
771,1	378,481
771,5	383,052
771,9	382,824
772,4	387,795
772,8	380,824
773,2	375,195
773,7	379,852
774,1	379,052
774,5	374,224
775	370,567
775,4	363,024
775,8	367,51
776,3	363,852
776,7	358,11
777,1	353,31
777,6	350,91
778	351,224
778,4	346,995
778,9	345,024
779,3	341,71
779,7	342,367
780,2	340,367
780,6	336,71
781	332,652
781,5	334,024
781,9	330,395
782,3	333,824
782,8	325,852
783,2	319,252
783,6	319,424
784,1	322,11
784,5	316,738
784,9	312,995
785,4	303,338
785,8	297,91
786,2	299,738
786,7	297,595
787,1	292,71
787,5	289,452
788	288,138
788,4	286,624
788,8	286,767
789,3	283,51
789,7	279,767
790,1	277,11
790,6	278,338
791	275,652
791,4	274,31
791,9	276,338
792,3	276,652
792,7	277,795
793,2	274,652
793,6	271,881
794	267,167
794,5	266,138
794,9	263,595
795,3	261,452
795,8	257,224
796,2	254,481
796,6	245,195
797,1	241,51
797,5	236,11
797,9	231,481
798,4	230,567
798,8	227,395
799,2	230,852
799,7	239,252
800,1	239,367
800,5	241,224
801	241,881
801,4	230,338
801,8	232,024
802,2	223,938
802,7	218,052
803,1	216,91
803,5	216,167
804	215,081
804,4	220,31
804,8	215,252
805,3	216,224
805,7	220,31
806,1	224,252
806,6	221,224
807	218,938
807,4	212,052
807,9	212,51
808,3	209,652
808,7	205,51
809,2	200,738
809,6	202,11
810	202,138
810,4	209,538
810,9	207,824
811,3	208,081
811,7	204,852
812,2	204,31
812,6	200,395
813	193,967
813,5	190,738
813,9	186,481
814,3	182,91
814,8	181,738
815,2	176,252
815,6	175,824
816,1	178,967
816,5	174,024
816,9	179,252
817,3	176,595
817,8	177,424
818,2	176,281
818,6	172,795
819,1	170,281
819,5	169,567
819,9	163,367
820,4	165,538
820,8	156,91
821,2	158,824
821,7	157,224
822,1	153,224
822,5	153,252
822,9	155,595
823,4	154,967
823,8	158,51
824,2	154,281
824,7	157,538
825,1	155,91
825,5	158,481
826	153,567
826,4	150,995
826,8	151,71
827,3	156,395
827,7	154,681
828,1	161,51
828,5	158,767
829	153,252
829,4	156,624
829,8	149,681
830,3	144,195
830,7	140,31
831,1	136,367
831,6	128,452
832	130,852
832,4	122,738
832,8	128,052
833,3	126,167
833,7	126,338
834,1	120,081
834,6	120,938
835	125,338
835,4	129,91
835,8	123,852
836,3	121,795
836,7	117,452
837,1	118,481
837,6	117,138
838	113,395
838,4	109,252
838,9	114,995
839,3	118,024
839,7	119,624
840,1	117,681
840,6	120,281
841	120,138
841,4	116,024
841,9	107,938
842,3	108,252
842,7	107,481
843,1	112,767
843,6	112,738
844	105,824
844,4	109,052
844,9	110,967
845,3	105,938
845,7	109,281
846,2	103,795
846,6	100,881
847	104,995
847,4	106,138
847,9	103,91
848,3	104,795
848,7	102,481
849,2	105,595
849,6	102,967
850	97,567
850,4	94,224
850,9	92,995
851,3	88,424
851,7	85,824
852,2	76,652
852,6	77,167
853	80,51
853,4	82,995
853,9	80,252
854,3	83,424
854,7	79,938
855,2	82,11
855,6	80,538
856	79,081
856,4	78,881
856,9	80,652
857,3	79,824
857,7	86,052
858,2	85,024
858,6	88,081
859	86,195
859,4	82,052
859,9	83,367
860,3	84,281
860,7	79,938
861,1	83,481
861,6	81,51
862	82,681
862,4	84,195
862,9	82,138
863,3	76,595
863,7	75,224
864,1	72,11
864,6	68,424
865	65,624
865,4	59,91
865,9	58,481
866,3	63,31
866,7	60,567
867,1	64,538
867,6	67,252
868	70,281
868,4	72,11
868,8	75,167
869,3	74,767
869,7	76,367
870,1	73,767
870,6	70,31
871	121,195
871,4	118,91
871,8	114,195
872,3	111,938
872,7	115,024
873,1	113,024
873,5	118,424
874	64,424
874,4	65,51
874,8	68,995
875,3	67,652
875,7	64,91
876,1	64,424
876,5	65,452
877	64,452
877,4	63,51
877,8	62,652
878,2	61,481
878,7	62,481
879,1	62,31
879,5	56,595
879,9	57,881
880,4	58,052
880,8	59,595
881,2	60,824
881,7	59,91
882,1	63,252
882,5	64,252
882,9	62,395
883,4	64,11
883,8	60,224
884,2	62,624
884,6	63,51
885,1	61,138
885,5	65,024
885,9	66,91
886,3	66,738
886,8	65,338
887,2	60,91
887,6	56,052
888	53,338
888,5	49,995
888,9	49,967
889,3	44,538
889,8	45,31
890,2	43,338
890,6	45,338
891	48,595
891,5	47,681
891,9	51,11
892,3	50,967
892,7	53,052
893,2	54,767
893,6	53,681
894	48,938
894,4	48,024
894,9	39,538
895,3	45,938
895,7	44,424
896,1	46,652
896,6	43,852
897	47,452
897,4	47,967
897,8	54,224
898,3	57,081
898,7	56,538
899,1	50,281
899,5	50,767
900	47,367
900,4	45,252
900,8	45,281
901,2	36,167
901,7	34,052
902,1	42,252
902,5	44,824
902,9	47,052
903,4	46,938
903,8	39,795
904,2	47,052
904,6	43,767
905,1	41,852
905,5	37,681
905,9	32,995
906,3	30,281
906,8	35,052
907,2	26,967
907,6	31,681
908	29,338
908,5	30,738
908,9	34,567
909,3	34,71
909,7	32,824
910,2	36,424
910,6	34,767
911	34,824
911,4	34,538
911,9	31,91
912,3	31,824
912,7	33,338
913,1	33,51
913,6	33,567
914	33,252
914,4	32,624
914,8	34,995
915,3	35,767
915,7	31,338
916,1	26,081
916,5	27,595
916,9	26,424
917,4	30,367
917,8	28,595
918,2	27,538
918,6	31,595
919,1	36,852
919,5	38,167
919,9	38,252
920,3	37,024
920,8	38,91
921,2	44,71
921,6	40,395
922	36,167
922,5	35,938
922,9	34,395
923,3	34,481
923,7	31,652
924,2	27,424
924,6	29,481
925	30,195
925,4	26,824
925,8	28,081
926,3	29,481
926,7	29,452
927,1	28,252
927,5	27,795
928	27,452
928,4	29,395
928,8	29,795
929,2	26,224
929,7	24,424
930,1	24,281
930,5	22,081
930,9	26,71
931,3	28,624
931,8	24,138
932,2	23,567
932,6	29,51
933	29,795
933,5	29,824
933,9	28,224
934,3	20,481
934,7	26,681
935,2	28,481
935,6	23,052
936	21,624
936,4	24,938
936,8	21,595
937,3	26,938
937,7	22,024
938,1	17,795
938,5	19,767
939	21,11
939,4	20,481
939,8	22,681
940,2	19,224
940,6	18,481
941,1	24,481
941,5	26,367
941,9	25,281
942,3	22,252
942,8	21,338
943,2	21,167
943,6	25,595
944	24,224
944,4	17,738
944,9	16,624
945,3	16,395
945,7	17,71
946,1	21,452
946,6	20,91
947	21,624
947,4	21,681
947,8	26,195
948,2	25,624
948,7	21,71
949,1	17,824
949,5	12,824
949,9	11,967
950,3	17,138
950,8	14,71
951,2	18,252
951,6	21,195
952	17,567
952,5	18,881
952,9	16,31
953,3	13,71
953,7	9,567
954,1	8,767
954,6	8,652
955	12,824
955,4	9,652
955,8	16,31
956,2	13,852
956,7	19,824
957,1	18,195
957,5	12,481
957,9	12,795
958,3	17,938
958,8	12,395
959,2	15,995
959,6	14,881
960	16,91
960,5	21,081
960,9	20,738
961,3	16,367
961,7	10,567
962,1	8,281
962,6	2,938
963	1,024
963,4	2,881
963,8	5,938
964,2	6,367
964,7	10,052
965,1	14,967
965,5	17,967
965,9	18,31
966,3	15,31
966,8	11,595
967,2	13,024
967,6	17,224
968	13,481
968,4	17,767
968,9	23,824
969,3	25,138
969,7	25,824
970,1	27,71
970,5	26,567
971	18,824
971,4	20,91
971,8	17,338
972,2	18,595
972,6	19,995
973,1	19,652
973,5	16,167
973,9	24,195
974,3	13,938
974,7	10,824
975,2	12,395
975,6	7,567
976	10,538
976,4	12,31
976,8	11,052
977,3	16,852
977,7	18,195
978,1	14,481
978,5	17,652
978,9	14,995
979,4	14,452
979,8	14,11
980,2	9,538
980,6	11,024
981	15,71
981,5	14,681
981,9	12,967
982,3	8,252
982,7	7,424
983,1	13,195
983,6	12,738
984	10,424
984,4	11,081
984,8	17,395
985,2	23,052
985,6	26,795
986,1	23,767
986,5	20,024
986,9	19,538
987,3	18,138
987,7	15,624
988,2	17,624
988,6	12,767
989	13,338
989,4	13,91
989,8	13,595
990,3	18,938
990,7	13,938
991,1	5,738
991,5	6,967
991,9	9,738
992,3	12,91
992,8	14,024
993,2	13,51
993,6	18,11
994	23,081
994,4	24,538
994,9	20,338
995,3	16,995
995,7	16,995
996,1	12,481
996,5	6,881
996,9	9,995
997,4	11,595
997,8	13,852
998,2	16,31
998,6	14,824
999	14,624
999,5	17,395
999,9	13,195
1000,3	13,967
1000,7	14,367
1001,1	13,681
1001,5	11,367
1002	11,767
1002,4	14,967
1002,8	17,995
1003,2	17,595
1003,6	19,424
1004	19,195
1004,5	18,138
1004,9	19,052
1005,3	12,652
1005,7	7,881
1006,1	5,795
1006,6	2,195
1007	3,167
1007,4	4,824
1007,8	4,71
1008,2	7,824
1008,6	7,595
1009,1	4,938
1009,5	11,767
1009,9	14,452
1010,3	15,424
1010,7	17,024
1011,1	20,51
1011,6	21,995
1012	24,224
1012,4	19,71
1012,8	15,195
1013,2	13,967
1013,6	14,195
1014,1	10,881
1014,5	14,567
1014,9	16,681
1015,3	14,452
1015,7	14,395
1016,1	16,338
1016,6	17,681
1017	20,681
1017,4	19,681
1017,8	15,367
1018,2	12,71
1018,6	16,11
1019,1	14,481
1019,5	12,138
1019,9	12,024
1020,3	7,338
1020,7	9,281
1021,1	14,681
1021,6	6,395
1022	2,652
1022,4	5,824
1022,8	2,31
1023,2	6,081
1023,6	4,167
1024,1	10,338
1024,5	18,252
1024,9	24,738
1025,3	21,71
1025,7	18,795
1026,1	18,281
1026,6	23,281
1027	12,567
1027,4	10,481
1027,8	4,881
1028,2	5,567
1028,6	11,395
1029	9,938
1029,5	7,452
1029,9	11,881
1030,3	16,367
1030,7	19,052
1031,1	17,167
1031,5	11,367
1032	13,852
1032,4	9,795
1032,8	8,195
1033,2	5,395
1033,6	8,31
1034	7,052
1034,4	14,624
1034,9	13,967
1035,3	22,195
1035,7	22,538
1036,1	27,195
1036,5	21,652
1036,9	23,767
1037,4	23,138
1037,8	26,767
1038,2	16,195
1038,6	14,395
1039	8,024
1039,4	11,138
1039,8	10,595
1040,3	10,71
1040,7	5,281
1041,1	13,452
1041,5	10,881
1041,9	9,252
1042,3	13,938
1042,7	14,995
1043,2	13,652
1043,6	17,281
1044	14,795
1044,4	15,252
1044,8	15,852
1045,2	11,052
1045,6	12,51
1046,1	13,881
1046,5	15,967
1046,9	15,71
1047,3	18,081
1047,7	18,452
1048,1	18,481
1048,5	15,595
1049	14,567
1049,4	12,31
1049,8	14,881
1050,2	17,452
1050,6	20,481
1051	26,367
1051,4	24,967
1051,9	27,852
1052,3	23,195
1052,7	24,395
1053,1	21,138
1053,5	22,367
1053,9	18,795
1054,3	18,281
1054,8	19,338
1055,2	21,624
1055,6	16,852
1056	23,652
1056,4	20,51
1056,8	15,91
1057,2	20,052
1057,6	9,738
1058,1	9,938
1058,5	15,224
1058,9	9,738
1059,3	13,224
1059,7	16,967
1060,1	13,167
1060,5	20,081
1061	16,138
1061,4	16,395
1061,8	13,71
1062,2	9,967
1062,6	7,538
1063	6,31
1063,4	5,71
1063,8	8,338
1064,3	6,681
1064,7	5,51
1065,1	6,024
1065,5	8,967
1065,9	13,738
1066,3	8,681
1066,7	9,938
1067,1	4,367
1067,6	10,252
1068	8,767
1068,4	8,967
1068,8	8,795
1069,2	13,395
1069,6	14,024
1070	22,938
1070,4	20,652
1070,9	21,767
1071,3	23,367
1071,7	24,481
1072,1	28,052
1072,5	31,167
1072,9	29,367
1073,3	28,367
1073,7	24,738
1074,2	26,195
1074,6	21,767
1075	16,51
1075,4	15,424
1075,8	13,052
1076,2	13,338
1076,6	15,91
1077	13,367
1077,5	17,71
1077,9	19,052
1078,3	16,167
1078,7	13,91
1079,1	16,738
1079,5	14,281
1079,9	18,252
1080,3	15,338
1080,7	17,424
1081,2	18,081
1081,6	19,195
1082	17,967
1082,4	19,795
1082,8	13,367
1083,2	8,51
1083,6	6,424
1084	6,11
1084,5	6,195
1084,9	2,881
1085,3	3,881
1085,7	3,51
1086,1	5,881
1086,5	6,11
1086,9	6,767
1087,3	7,281
1087,7	14,167
1088,2	13,224
1088,6	11,738
1089	12,624
1089,4	12,538
1089,8	16,481
1090,2	16,91
1090,6	8,081
1091	11,995
1091,4	16,424
1091,9	21,652
1092,3	19,167
1092,7	15,052
1093,1	11,252
1093,5	15,367
1093,9	17,224
1094,3	17,767
1094,7	15,795
1095,1	15,024
1095,5	17,081
1096	13,938
1096,4	16,081
1096,8	9,081
1097,2	9,738
1097,6	6,367
1098	10,024
1098,4	10,91
1098,8	13,881
1099,2	11,538
1099,6	15,31
1100,1	10,852
1100,5	16,91
1100,9	14,995
1101,3	11,224
1101,7	16,224
1102,1	14,795
1102,5	13,795
1102,9	14,224
1103,3	8,395
1103,7	9,51
1104,2	13,052
1104,6	11,681
1105	14,567
1105,4	13,195
1105,8	12,624
1106,2	12,71
1106,6	9,681
1107	4,995
1107,4	2,833
1107,8	0,087
1108,3	-0,333
