Data from Subt2_050.txt Node
Date: Sat Aug 26 16:26:54 MSK 2023
User: vat
Spectrometer: MAYP114033
Trigger mode: 0
Integration Time (sec): 1,000000E0
Scans to average: 5
Electric dark correction enabled: true
Nonlinearity correction enabled: false
Boxcar width: 3
XAxis mode: Wavelengths
Number of Pixels in Spectrum: 2068
>>>>>Begin Spectral Data<<<<<
199,4	-1,117
199,9	-3,727
200,4	-5,467
200,8	-5,138
201,3	-5,424
201,8	-3,824
202,2	-2,281
202,7	-1,367
203,2	-0,995
203,6	2,433
204,1	4,805
204,6	9,833
205	9,833
205,5	7,862
206	8,605
206,4	8,548
206,9	5,519
207,4	6,119
207,8	-0,852
208,3	-2,452
208,8	-2,167
209,2	-3,424
209,7	-0,081
210,2	6,033
210,6	5,748
211,1	7,433
211,5	5,348
212	3,29
212,5	0,948
212,9	1,748
213,4	-2,252
213,9	-4,652
214,3	-2,652
214,8	1,919
215,3	2,548
215,7	0,405
216,2	0,976
216,7	2,29
217,1	-0,538
217,6	-3,938
218,1	-4,795
218,5	-2,481
219	3,519
219,5	2,005
219,9	-1,052
220,4	1,262
220,9	7,519
221,3	6,948
221,8	2,919
222,3	1,862
222,7	-1,081
223,2	3,29
223,6	1,776
224,1	-2,252
224,6	-1,71
225	0,519
225,5	0,233
226	0,548
226,4	-2,081
226,9	-1,738
227,4	0,89
227,8	2,262
228,3	5,062
228,8	5,605
229,2	6,376
229,7	4,576
230,2	8,948
230,6	3,033
231,1	1,033
231,5	0,176
232	4,605
232,5	7,205
232,9	5,69
233,4	6,919
233,9	11,919
234,3	11,662
234,8	12,148
235,3	8,148
235,7	9,748
236,2	16,176
236,7	14,462
237,1	13,29
237,6	14,09
238,1	12,49
238,5	15,576
239	11,319
239,4	8,233
239,9	5,519
240,4	7,776
240,8	6,833
241,3	0,376
241,8	-3,452
242,2	-6,052
242,7	-5,281
243,2	-3,052
243,6	-6,024
244,1	-1,767
244,6	6,319
245	7,433
245,5	9,576
245,9	13,033
246,4	10,519
246,9	8,576
247,3	4,833
247,8	5,519
248,3	10,433
248,7	12,633
249,2	3,005
249,7	3,976
250,1	2,919
250,6	3,119
251	-0,51
251,5	-6,567
252	-6,281
252,4	0,89
252,9	1,548
253,4	5,176
253,8	2,605
254,3	3,89
254,8	3,176
255,2	2,033
255,7	2,09
256,1	-0,11
256,6	-0,052
257,1	4,462
257,5	5,605
258	4,119
258,5	6,262
258,9	5,148
259,4	8,576
259,9	12,948
260,3	10,005
260,8	7,29
261,2	13,005
261,7	12,348
262,2	8,862
262,6	6,69
263,1	0,319
263,6	1,919
264	1,348
264,5	0,062
264,9	0,633
265,4	4,948
265,9	8,176
266,3	13,662
266,8	10,062
267,3	14,776
267,7	15,29
268,2	11,405
268,7	8,29
269,1	3,348
269,6	2,176
270	7,605
270,5	9,005
271	11,148
271,4	9,548
271,9	9,862
272,4	15,176
272,8	12,005
273,3	6,662
273,7	1,662
274,2	-6,024
274,7	-1,595
275,1	-2,967
275,6	-6,795
276,1	-3,481
276,5	1,29
277	5,062
277,4	7,348
277,9	4,948
278,4	9,005
278,8	13,062
279,3	8,948
279,8	12,433
280,2	11,948
280,7	11,49
281,1	15,69
281,6	14,776
282,1	13,49
282,5	17,519
283	7,09
283,4	6,919
283,9	7,576
284,4	7,405
284,8	5,548
285,3	1,062
285,8	-1,252
286,2	3,976
286,7	-1,081
287,1	-5,424
287,6	-2,967
288,1	-2,11
288,5	4,119
289	6,805
289,5	5,89
289,9	6,776
290,4	10,262
290,8	9,348
291,3	4,89
291,8	2,948
292,2	3,69
292,7	5,09
293,1	6,89
293,6	7,405
294,1	-1,224
294,5	7,29
295	5,805
295,5	6,09
295,9	3,49
296,4	6,462
296,8	5,862
297,3	14,519
297,8	12,09
298,2	11,09
298,7	8,576
299,1	12,576
299,6	11,09
300,1	13,062
300,5	11,805
301	11,576
301,5	15,633
301,9	11,976
302,4	9,805
302,8	7,405
303,3	7,405
303,8	4,948
304,2	3,205
304,7	0,319
305,1	0,29
305,6	-1,91
306,1	-0,681
306,5	2,662
307	1,519
307,4	1,09
307,9	2,405
308,4	3,005
308,8	9,005
309,3	13,805
309,8	14,176
310,2	11,29
310,7	15,662
311,1	12,433
311,6	15,262
312,1	16,033
312,5	9,976
313	5,633
313,4	9,119
313,9	10,462
314,4	9,805
314,8	11,433
315,3	4,862
315,7	7,776
316,2	8,033
316,7	7,005
317,1	2,919
317,6	3,548
318	3,948
318,5	7,405
319	4,548
319,4	7,548
319,9	7,605
320,3	8,062
320,8	10,776
321,3	8,262
321,7	7,348
322,2	7,89
322,6	1,89
323,1	3,033
323,6	6,719
324	5,262
324,5	1,719
324,9	0,948
325,4	-0,995
325,9	6,376
326,3	9,005
326,8	5,805
327,2	5,033
327,7	6,119
328,2	3,005
328,6	9,119
329,1	3,576
329,5	0,69
330	1,605
330,5	2,633
330,9	5,948
331,4	4,719
331,8	5,005
332,3	8,69
332,8	5,49
333,2	5,233
333,7	7,89
334,1	8,49
334,6	12,319
335,1	9,405
335,5	8,662
336	8,976
336,4	8,662
336,9	12,233
337,4	11,005
337,8	14,433
338,3	14,205
338,7	17,205
339,2	19,89
339,7	20,633
340,1	15,748
340,6	10,976
341	13,119
341,5	15,862
342	8,719
342,4	7,262
342,9	1,519
343,3	3,462
343,8	10,919
344,2	8,176
344,7	8,719
345,2	8,719
345,6	12,348
346,1	14,176
346,5	12,748
347	13,49
347,5	10,119
347,9	7,948
348,4	12,776
348,8	12,719
349,3	17,148
349,8	19,69
350,2	19,433
350,7	24,433
351,1	26,262
351,6	26,976
352	34,976
352,5	35,548
353	44,348
353,4	49,69
353,9	59,662
354,3	77,233
354,8	90,69
355,3	105,433
355,7	130,148
356,2	149,29
356,6	178,605
357,1	207,433
357,5	239,148
358	284,633
358,5	328,605
358,9	382,233
359,4	443,976
359,8	507,462
360,3	578,662
360,8	665,433
361,2	755,719
361,7	861,319
362,1	974,948
362,6	1102,176
363	1241,062
363,5	1396,319
364	1544,433
364,4	1700,09
364,9	1855,262
365,3	2006,148
365,8	2144,89
366,3	2281,49
366,7	2398,233
367,2	2503,862
367,6	2589,319
368,1	2656,662
368,5	2701,405
369	2724,205
369,5	2725,633
369,9	2703,919
370,4	2662,148
370,8	2601,09
371,3	2522,119
371,7	2436,662
372,2	2337,519
372,7	2220,719
373,1	2103,433
373,6	1975,862
374	1850,348
374,5	1729,605
374,9	1597,262
375,4	1480,89
375,9	1370,405
376,3	1259,005
376,8	1163,376
377,2	1072,662
377,7	983,148
378,2	903,605
378,6	828,662
379,1	761,033
379,5	701,033
380	643,862
380,4	592,033
380,9	544,433
381,4	503,805
381,8	461,576
382,3	421,09
382,7	388,776
383,2	354,805
383,6	324,29
384,1	299,49
384,6	273,205
385	250,805
385,5	232,405
385,9	215,69
386,4	207,833
386,8	198,033
387,3	186,148
387,7	177,862
388,2	171,376
388,7	159,405
389,1	147,662
389,6	132,633
390	121,862
390,5	111,09
390,9	108,176
391,4	98,148
391,9	95,433
392,3	87,205
392,8	85,09
393,2	77,148
393,7	75,319
394,1	71,062
394,6	68,005
395,1	64,69
395,5	65,748
396	61,662
396,4	60,719
396,9	58,205
397,3	48,09
397,8	43,776
398,2	41,119
398,7	36,49
399,2	28,719
399,6	29,033
400,1	19,89
400,5	24,319
401	24,376
401,4	24,548
401,9	26,548
402,4	30,948
402,8	31,119
403,3	36,205
403,7	35,09
404,2	35,062
404,6	34,09
405,1	29,948
405,5	26,005
406	25,719
406,5	22,576
406,9	21,776
407,4	24,548
407,8	21,033
408,3	21,633
408,7	31,348
409,2	30,405
409,6	35,005
410,1	38,205
410,6	37,348
411	42,405
411,5	45,576
411,9	42,805
412,4	46,348
412,8	49,919
413,3	49,89
413,7	55,005
414,2	58,005
414,7	66,348
415,1	69,519
415,6	74,719
416	75,233
416,5	77,29
416,9	75,576
417,4	82,576
417,8	82,405
418,3	88,548
418,8	87,805
419,2	92,576
419,7	99,833
420,1	100,09
420,6	100,033
421	97,376
421,5	97,776
421,9	100,062
422,4	97,833
422,8	93,976
423,3	98,719
423,8	101,433
424,2	105,633
424,7	103,748
425,1	102,605
425,6	106,09
426	113,233
426,5	115,062
426,9	112,462
427,4	112,805
427,9	108,976
428,3	112,462
428,8	112,748
429,2	108,919
429,7	106,748
430,1	112,09
430,6	113,633
431	117,119
431,5	119,205
431,9	124,405
432,4	130,062
432,8	139,062
433,3	137,405
433,8	142,89
434,2	148,29
434,7	147,233
435,1	148,005
435,6	154,405
436	157,005
436,5	167,605
436,9	171,548
437,4	179,462
437,8	190,462
438,3	200,748
438,8	204,49
439,2	211,548
439,7	214,148
440,1	224,062
440,6	233,433
441	244,89
441,5	253,776
441,9	266,89
442,4	282,462
442,8	297,719
443,3	309,319
443,7	318,148
444,2	331,233
444,7	342,462
445,1	352,148
445,6	360,89
446	374,005
446,5	385,633
446,9	405,462
447,4	417,119
447,8	434,69
448,3	451,748
448,7	465,033
449,2	481,919
449,6	502,576
450,1	521,662
450,6	541,805
451	555,319
451,5	572,376
451,9	594,89
452,4	611,205
452,8	631,29
453,3	644,548
453,7	666,605
454,2	694,519
454,6	717,119
455,1	739,633
455,5	767,376
456	789,319
456,4	814,576
456,9	836,205
457,3	861,405
457,8	886,719
458,3	914,319
458,7	938,148
459,2	964,119
459,6	993,919
460,1	1022,262
460,5	1049,605
461	1072,348
461,4	1097,49
461,9	1118,662
462,3	1146,062
462,8	1172,148
463,2	1194,262
463,7	1217,519
464,1	1247,719
464,6	1274,319
465	1307,462
465,5	1335,69
466	1362,805
466,4	1391,376
466,9	1422,29
467,3	1454,805
467,8	1487,862
468,2	1512,662
468,7	1540,148
469,1	1564,09
469,6	1597,833
470	1627,119
470,5	1656,948
470,9	1676,776
471,4	1709,033
471,8	1733,833
472,3	1763,433
472,7	1794,233
473,2	1806,433
473,6	1822,062
474,1	1846,148
474,5	1872,976
475	1902,748
475,4	1924,89
475,9	1949,29
476,4	1983,262
476,8	2011,633
477,3	2040,948
477,7	2059,919
478,2	2078,205
478,6	2102,376
479,1	2115,005
479,5	2131,833
480	2148,376
480,4	2162,09
480,9	2183,062
481,3	2195,49
481,8	2212,319
482,2	2224,319
482,7	2241,548
483,1	2257,862
483,6	2272,262
484	2278,605
484,5	2288,805
484,9	2293,948
485,4	2304,89
485,8	2303,69
486,3	2308,719
486,7	2320,633
487,2	2328,376
487,6	2337,662
488,1	2348,576
488,5	2344,176
489	2354,148
489,4	2357,633
489,9	2354,062
490,4	2349,49
490,8	2345,862
491,3	2342,262
491,7	2348,548
492,2	2350,176
492,6	2342,605
493,1	2337,176
493,5	2331,633
494	2327,748
494,4	2319,748
494,9	2318,719
495,3	2310,205
495,8	2308,69
496,2	2303,748
496,7	2299,176
497,1	2297,233
497,6	2292,462
498	2280,29
498,5	2275,805
498,9	2260,033
499,4	2250,376
499,8	2238,433
500,3	2223,69
500,7	2209,062
501,2	2198,805
501,6	2177,519
502,1	2172,833
502,5	2153,805
503	2144,919
503,4	2129,176
503,9	2120,033
504,3	2104,805
504,8	2091,376
505,2	2075,376
505,7	2067,89
506,1	2048,69
506,6	2033,462
507	2018,405
507,5	1997,376
507,9	1985,976
508,4	1969,805
508,8	1952,348
509,3	1939,348
509,7	1914,033
510,2	1894,69
510,6	1874,433
511,1	1855,29
511,5	1833,262
512	1816,062
512,4	1798,319
512,9	1793,262
513,3	1775,376
513,8	1762,405
514,2	1750,233
514,7	1737,633
515,1	1715,433
515,6	1693,033
516	1672,633
516,5	1654,148
516,9	1637,919
517,4	1613,776
517,8	1590,862
518,3	1572,919
518,7	1558,49
519,2	1538,405
519,6	1515,633
520,1	1496,748
520,5	1481,748
521	1471,033
521,4	1452,833
521,9	1440,576
522,3	1425,376
522,8	1417,748
523,2	1403,176
523,7	1388,062
524,1	1368,033
524,6	1355,833
525	1337,09
525,5	1322,062
525,9	1299,662
526,4	1281,405
526,8	1259,776
527,3	1247,376
527,7	1230,805
528,2	1213,519
528,6	1200,005
529,1	1185,376
529,5	1170,805
530	1164,262
530,4	1147,233
530,9	1132,605
531,3	1119,633
531,8	1105,862
532,2	1093,433
532,6	1076,462
533,1	1058,119
533,5	1045,862
534	1032,348
534,4	1022,748
534,9	1011,948
535,3	1002,976
535,8	993,033
536,2	982,948
536,7	966,662
537,1	957,633
537,6	946,919
538	933,033
538,5	922,376
538,9	914,462
539,4	903,233
539,8	899,662
540,3	885,605
540,7	869,09
541,2	864,09
541,6	851,062
542,1	840,548
542,5	829,605
543	819,49
543,4	815,262
543,9	803,005
544,3	787,233
544,8	784,176
545,2	776,605
545,7	769,148
546,1	759,205
546,5	750,662
547	747,776
547,4	742,719
547,9	733,69
548,3	725,919
548,8	716,376
549,2	708,348
549,7	700,348
550,1	695,833
550,6	688,148
551	676,576
551,5	669,748
551,9	665,119
552,4	661,548
552,8	650,462
553,3	645,29
553,7	637,576
554,2	632,519
554,6	624,833
555,1	621,462
555,5	610,976
555,9	609,205
556,4	599,033
556,8	591,662
557,3	591,033
557,7	585,605
558,2	572,833
558,6	570,376
559,1	564,69
559,5	560,833
560	558,176
560,4	547,205
560,9	545,148
561,3	544,748
561,8	545,719
562,2	538,662
562,7	532,319
563,1	527,776
563,6	520,605
564	517,49
564,4	515,576
564,9	501,805
565,3	501,233
565,8	496,462
566,2	492,176
566,7	489,348
567,1	485,748
567,6	478,29
568	478,205
568,5	474,405
568,9	471,09
569,4	470,262
569,8	472,49
570,3	467,976
570,7	463,233
571,1	457,09
571,6	455,662
572	454,919
572,5	449,548
572,9	447,033
573,4	441,919
573,8	441,262
574,3	437,976
574,7	431,862
575,2	426,319
575,6	422,89
576,1	417,919
576,5	412,319
576,9	411,433
577,4	410,262
577,8	406,09
578,3	400,119
578,7	400,405
579,2	399,948
579,6	402,405
580,1	398,205
580,5	394,062
581	391,033
581,4	395,462
581,9	392,576
582,3	383,976
582,7	382,976
583,2	375,89
583,6	370,605
584,1	370,49
584,5	369,976
585	366,548
585,4	365,176
585,9	361,948
586,3	363,09
586,8	364,69
587,2	363,748
587,6	358,576
588,1	359,89
588,5	358,262
589	351,662
589,4	347,348
589,9	344,348
590,3	339,348
590,8	341,205
591,2	332,376
591,7	330,748
592,1	331,605
592,5	330,262
593	326,433
593,4	323,033
593,9	315,29
594,3	310,462
594,8	308,89
595,2	307,376
595,7	310,119
596,1	312,062
596,6	313,29
597	314,776
597,4	316,89
597,9	313,576
598,3	310,262
598,8	302,433
599,2	297,319
599,7	293,176
600,1	288,862
600,6	288,862
601	287,576
601,4	287,062
601,9	286,662
602,3	287,862
602,8	284,148
603,2	287,776
603,7	286,605
604,1	286,519
604,6	277,605
605	278,662
605,4	275,976
605,9	276,49
606,3	266,319
606,8	265,348
607,2	262,49
607,7	268,005
608,1	262,719
608,6	264,29
609	265,119
609,4	266,319
609,9	263,833
610,3	260,205
610,8	259,062
611,2	258,576
611,7	248,519
612,1	241,005
612,6	237,376
613	240,205
613,4	241,576
613,9	238,69
614,3	240,319
614,8	242,376
615,2	249,033
615,7	250,719
616,1	243,976
616,6	244,662
617	244,376
617,4	238,748
617,9	238,462
618,3	238,176
618,8	234,862
619,2	235,89
619,7	231,919
620,1	228,29
620,5	230,148
621	232,148
621,4	226,576
621,9	229,09
622,3	225,805
622,8	221,69
623,2	221,148
623,6	218,519
624,1	216,462
624,5	214,205
625	211,176
625,4	213,49
625,9	213,233
626,3	214,69
626,8	216,548
627,2	211,719
627,6	213,433
628,1	209,633
628,5	203,29
629	208,205
629,4	203,948
629,9	200,033
630,3	204,633
630,7	204,376
631,2	203,519
631,6	205,633
632,1	201,805
632,5	203,748
633	200,605
633,4	197,49
633,8	192,862
634,3	191,233
634,7	193,205
635,2	188,29
635,6	185,519
636,1	188,576
636,5	189,148
636,9	189,462
637,4	193,662
637,8	182,376
638,3	182,805
638,7	183,262
639,2	181,348
639,6	175,862
640	172,69
640,5	168,662
640,9	175,976
641,4	174,633
641,8	169,776
642,2	168,862
642,7	171,148
643,1	175,176
643,6	173,376
644	171,49
644,5	170,662
644,9	173,033
645,3	171,633
645,8	174,29
646,2	170,833
646,7	170,262
647,1	169,462
647,6	168,29
648	164,405
648,4	165,376
648,9	161,576
649,3	160,119
649,8	164,662
650,2	162,948
650,6	164,576
651,1	172,89
651,5	170,548
652	166,662
652,4	162,319
652,9	158,49
653,3	158,805
653,7	159,633
654,2	155,319
654,6	154,605
655,1	151,262
655,5	156,348
655,9	154,405
656,4	150,062
656,8	143,319
657,3	142,548
657,7	138,233
658,2	144,176
658,6	139,09
659	135,119
659,5	137,662
659,9	140,433
660,4	136,862
660,8	141,662
661,2	138,005
661,7	137,662
662,1	139,09
662,6	136,348
663	136,176
663,4	135,748
663,9	132,29
664,3	128,919
664,8	129,748
665,2	131,148
665,6	130,462
666,1	126,805
666,5	125,319
667	122,576
667,4	127,119
667,9	123,29
668,3	118,376
668,7	119,719
669,2	120,062
669,6	117,405
670,1	118,976
670,5	111,09
670,9	116,033
671,4	117,748
671,8	114,633
672,3	113,948
672,7	115,348
673,1	114,748
673,6	116,605
674	112,033
674,5	111,033
674,9	112,262
675,3	110,69
675,8	113,49
676,2	113,862
676,7	116,376
677,1	121,005
677,5	121,348
678	119,833
678,4	121,89
678,9	115,176
679,3	110,29
679,7	110,576
680,2	107,376
680,6	103,49
681,1	99,976
681,5	100,348
681,9	99,119
682,4	101,948
682,8	97,148
683,3	91,833
683,7	93,776
684,1	96,69
684,6	94,948
685	96,548
685,5	95,148
685,9	95,633
686,3	100,348
686,8	102,776
687,2	99,348
687,7	98,662
688,1	100,348
688,5	102,576
689	105,433
689,4	108,033
689,9	102,09
690,3	103,605
690,7	103,233
691,2	98,119
691,6	97,319
692	92,376
692,5	86,405
692,9	86,719
693,4	87,776
693,8	82,662
694,2	80,605
694,7	80,09
695,1	80,119
695,6	77,49
696	79,319
696,4	74,833
696,9	76,776
697,3	81,433
697,8	76,519
698,2	76,776
698,6	80,062
699,1	75,176
699,5	74,09
699,9	75,719
700,4	73,062
700,8	73,862
701,3	73,176
701,7	70,605
702,1	72,405
702,6	76,176
703	73,348
703,5	74,176
703,9	73,805
704,3	76,633
704,8	76,519
705,2	76,605
705,6	70,633
706,1	76,119
706,5	77,376
707	77,89
707,4	75,948
707,8	80,976
708,3	76,148
708,7	84,576
709,2	79,405
709,6	82,405
710	82,919
710,5	82,662
710,9	76,805
711,3	78,119
711,8	75,376
712,2	75,605
712,7	69,09
713,1	63,833
713,5	58,776
714	58,233
714,4	62,69
714,8	62,262
715,3	63,89
715,7	62,29
716,2	64,633
716,6	69,605
717	70,348
717,5	68,748
717,9	67,605
718,3	65,319
718,8	68,376
719,2	69,119
719,7	69,519
720,1	66,033
720,5	64,405
721	64,205
721,4	64,376
721,8	62,348
722,3	61,462
722,7	53,69
723,2	56,148
723,6	57,833
724	55,89
724,5	53,976
724,9	52,605
725,3	51,405
725,8	56,033
726,2	54,376
726,7	54,833
727,1	49,662
727,5	51,09
728	54,119
728,4	53,605
728,8	49,633
729,3	49,49
729,7	46,119
730,1	47,319
730,6	44,49
731	46,69
731,5	47,148
731,9	53,148
732,3	56,462
732,8	58,062
733,2	60,862
733,6	64,919
734,1	61,262
734,5	55,919
734,9	53,69
735,4	54,69
735,8	55,062
736,3	56,176
736,7	52,862
737,1	50,662
737,6	53,233
738	52,662
738,4	49,948
738,9	51,69
739,3	45,49
739,7	45,262
740,2	44,376
740,6	44,09
741,1	42,148
741,5	41,005
741,9	30,805
742,4	32,805
742,8	38,148
743,2	45,09
743,7	46,69
744,1	41,033
744,5	39,062
745	43,462
745,4	42,548
745,8	38,605
746,3	37,205
746,7	35,805
747,2	44,148
747,6	47,09
748	48,89
748,5	52,062
748,9	48,376
749,3	46,033
749,8	45,49
750,2	43,348
750,6	40,948
751,1	41,548
751,5	38,29
751,9	38,776
752,4	34,69
752,8	37,519
753,3	35,833
753,7	37,262
754,1	36,348
754,6	36,462
755	40,29
755,4	42,862
755,9	41,548
756,3	39,719
756,7	35,433
757,2	34,405
757,6	36,176
758	29,69
758,5	26,89
758,9	28,033
759,3	29,605
759,8	33,862
760,2	37,862
760,6	39,919
761,1	42,119
761,5	45,633
761,9	43,69
762,4	44,776
762,8	42,862
763,3	38,49
763,7	38,148
764,1	36,633
764,6	31,833
765	32,205
765,4	31,09
765,9	31,605
766,3	32,062
766,7	30,119
767,2	30,776
767,6	31,462
768	31,376
768,5	31,462
768,9	28,119
769,3	27,776
769,8	25,29
770,2	29,919
770,6	29,319
771,1	33,405
771,5	36,919
771,9	37,49
772,4	39,319
772,8	41,919
773,2	39,633
773,7	42,948
774,1	40,462
774,5	38,776
775	39,605
775,4	34,433
775,8	34,433
776,3	28,49
776,7	29,605
777,1	29,233
777,6	22,833
778	20,119
778,4	24,09
778,9	21,462
779,3	27,09
779,7	25,948
780,2	21,89
780,6	26,49
781	29,69
781,5	26,433
781,9	28,29
782,3	29,262
782,8	27,405
783,2	27,462
783,6	21,833
784,1	22,69
784,5	24,09
784,9	23,519
785,4	24,176
785,8	22,09
786,2	23,29
786,7	28,176
787,1	28,176
787,5	29,776
788	29,576
788,4	24,548
788,8	25,919
789,3	25,633
789,7	22,976
790,1	19,976
790,6	18,833
791	18,805
791,4	19,033
791,9	16,233
792,3	15,405
792,7	23,233
793,2	19,719
793,6	23,433
794	24,548
794,5	26,976
794,9	29,662
795,3	33,233
795,8	26,719
796,2	34,005
796,6	27,576
797,1	21,89
797,5	24,062
797,9	27,833
798,4	23,033
798,8	20,148
799,2	17,319
799,7	21,748
800,1	28,633
800,5	24,862
801	26,776
801,4	26,033
801,8	29,462
802,2	28,405
802,7	22,233
803,1	17,233
803,5	22,148
804	15,548
804,4	18,29
804,8	18,976
805,3	15,919
805,7	18,119
806,1	21,748
806,6	19,519
807	21,062
807,4	18,519
807,9	19,119
808,3	21,176
808,7	21,805
809,2	18,205
809,6	18,29
810	20,062
810,4	22,348
810,9	17,205
811,3	15,576
811,7	13,233
812,2	17,948
812,6	13,976
813	12,948
813,5	13,776
813,9	19,119
814,3	20,833
814,8	24,69
815,2	20,89
815,6	18,833
816,1	22,776
816,5	22,005
816,9	22,233
817,3	24,205
817,8	28,148
818,2	24,748
818,6	29,205
819,1	24,233
819,5	22,233
819,9	17,29
820,4	14,405
820,8	8,405
821,2	15,49
821,7	15,205
822,1	13,148
822,5	11,833
822,9	16,319
823,4	20,462
823,8	22,348
824,2	18,662
824,7	20,89
825,1	22,719
825,5	27,748
826	24,719
826,4	25,033
826,8	24,805
827,3	27,29
827,7	23,319
828,1	25,433
828,5	26,176
829	22,69
829,4	23,548
829,8	21,033
830,3	20,405
830,7	17,719
831,1	14,519
831,6	8,576
832	9,605
832,4	7,548
832,8	14,719
833,3	8,262
833,7	14,062
834,1	10,776
834,6	10,833
835	14,033
835,4	16,49
835,8	6,948
836,3	10,09
836,7	6,233
837,1	8,748
837,6	9,519
838	7,176
838,4	0,176
838,9	6,89
839,3	11,405
839,7	13,376
840,1	9,605
840,6	12,176
841	14,262
841,4	18,462
841,9	13,405
842,3	12,69
842,7	11,748
843,1	18,49
843,6	16,976
844	16,319
844,4	17,405
844,9	21,748
845,3	18,576
845,7	20,862
846,2	19,29
846,6	16,662
847	16,748
847,4	11,262
847,9	6,433
848,3	9,462
848,7	6,176
849,2	8,148
849,6	11,348
850	8,176
850,4	15,262
850,9	16,519
851,3	12,948
851,7	13,576
852,2	6,376
852,6	6,89
853	15,605
853,4	12,948
853,9	11,748
854,3	11,576
854,7	8,09
855,2	13,348
855,6	9,519
856	3,119
856,4	4,948
856,9	7,005
857,3	5,833
857,7	10,805
858,2	6,319
858,6	11,976
859	10,148
859,4	9,662
859,9	10,233
860,3	13,062
860,7	9,662
861,1	15,062
861,6	14,576
862	16,062
862,4	12,062
862,9	14,805
863,3	13,176
863,7	11,033
864,1	8,519
864,6	4,719
865	3,119
865,4	2,319
865,9	-3,052
866,3	-0,252
866,7	2,148
867,1	6,862
867,6	8,433
868	10,748
868,4	14,09
868,8	15,89
869,3	12,262
869,7	12,176
870,1	10,033
870,6	9,833
871	6,976
871,4	5,605
871,8	2,605
872,3	5,89
872,7	7,148
873,1	8,662
873,5	9,033
874	12,148
874,4	9,462
874,8	10,233
875,3	9,433
875,7	6,376
876,1	1,062
876,5	2,462
877	3,862
877,4	5,548
877,8	8,005
878,2	8,919
878,7	16,233
879,1	17,376
879,5	17,033
879,9	17,605
880,4	16,405
880,8	17,433
881,2	18,005
881,7	17,119
882,1	16,662
882,5	13,862
882,9	14,262
883,4	17,49
883,8	15,919
884,2	10,776
884,6	7,805
885,1	11,348
885,5	14,319
885,9	13,462
886,3	12,805
886,8	11,062
887,2	13,548
887,6	10,719
888	8,576
888,5	9,148
888,9	8,033
889,3	4,062
889,8	5,833
890,2	-0,281
890,6	3,433
891	5,233
891,5	5,148
891,9	6,748
892,3	8,69
892,7	9,633
893,2	15,176
893,6	12,862
894	10,262
894,4	8,033
894,9	4,005
895,3	4,719
895,7	3,205
896,1	3,233
896,6	4,862
897	5,033
897,4	2,69
897,8	6,519
898,3	11,319
898,7	7,548
899,1	8,719
899,5	4,148
900	2,776
900,4	3,119
900,8	4,662
901,2	0,005
901,7	3,662
902,1	6,862
902,5	9,348
902,9	10,948
903,4	14,462
903,8	7,89
904,2	14,633
904,6	12,319
905,1	11,319
905,5	8,833
905,9	10,89
906,3	8,69
906,8	12,776
907,2	2,062
907,6	1,548
908	-1,31
908,5	3,348
908,9	0,519
909,3	-4,081
909,7	-4,138
910,2	-1,91
910,6	1,548
911	0,348
911,4	-3,081
911,9	-0,91
912,3	1,89
912,7	-0,338
913,1	-3,51
913,6	-3,795
914	-3,567
914,4	-3,995
914,8	-4,967
915,3	-4,224
915,7	-7,11
916,1	-5,167
916,5	-3,11
916,9	-4,31
917,4	-2,281
917,8	-4,967
918,2	-4,081
918,6	2,862
919,1	5,433
919,5	3,433
919,9	5,605
920,3	4,805
920,8	8,433
921,2	16,719
921,6	12,862
922	9,119
922,5	10,948
922,9	6,69
923,3	8,862
923,7	6,462
924,2	-3,052
924,6	-3,052
925	1,119
925,4	-3,881
925,8	1,005
926,3	1,576
926,7	4,319
927,1	4,548
927,5	3,719
928	2,376
928,4	5,262
928,8	12,548
929,2	12,69
929,7	6,462
930,1	11,89
930,5	11,405
930,9	16,033
931,3	15,176
931,8	6,776
932,2	3,776
932,6	8,69
933	0,433
933,5	1,405
933,9	-3,538
934,3	-3,767
934,7	0,119
935,2	0,748
935,6	-0,31
936	2,719
936,4	6,319
936,8	6,605
937,3	8,348
937,7	4,29
938,1	-2,767
938,5	-2,224
939	2,776
939,4	0,462
939,8	1,148
940,2	1,919
940,6	0,548
941,1	11,033
941,5	11,119
941,9	6,262
942,3	5,033
942,8	8,576
943,2	6,605
943,6	9,948
944	6,376
944,4	1,033
944,9	4,262
945,3	6,69
945,7	5,89
946,1	5,948
946,6	3,348
947	6,09
947,4	8,89
947,8	4,833
948,2	2,805
948,7	2,262
949,1	1,69
949,5	3,919
949,9	5,976
950,3	7,976
950,8	7,833
951,2	8,719
951,6	6,09
952	6,205
952,5	1,376
952,9	-3,338
953,3	-5,481
953,7	-3,138
954,1	-3,938
954,6	-1,795
955	-0,024
955,4	1,89
955,8	7,176
956,2	7,262
956,7	7,576
957,1	9,776
957,5	3,69
957,9	0,662
958,3	4,548
958,8	1,062
959,2	6,69
959,6	8,148
960	7,262
960,5	10,376
960,9	14,89
961,3	12,776
961,7	8,719
962,1	4,605
962,6	0,205
963	-2,767
963,4	1,062
963,8	-1,738
964,2	-3,595
964,7	-1,852
965,1	1,09
965,5	-1,424
965,9	1,919
966,3	-1,452
966,8	1,548
967,2	3,405
967,6	2,148
968	2,062
968,4	8,948
968,9	11,662
969,3	11,005
969,7	7,205
970,1	9,062
970,5	16,433
971	10,262
971,4	10,29
971,8	10,948
972,2	12,205
972,6	9,833
973,1	9,69
973,5	4,29
973,9	7,319
974,3	1,376
974,7	-4,367
975,2	-4,11
975,6	-7,367
976	-7,338
976,4	-7,51
976,8	-6,452
977,3	-2,624
977,7	-2,91
978,1	-4,081
978,5	4,405
978,9	3,519
979,4	1,976
979,8	1,405
980,2	-0,481
980,6	-0,938
981	6,576
981,5	4,348
981,9	0,776
982,3	-1,024
982,7	-1,31
983,1	1,405
983,6	3,662
984	-2,224
984,4	-2,738
984,8	0,376
985,2	4,576
985,6	3,976
986,1	2,348
986,5	-2,052
986,9	-0,052
987,3	1,233
987,7	2,119
988,2	3,976
988,6	4,348
989	8,176
989,4	16,205
989,8	12,862
990,3	12,09
990,7	6,833
991,1	2,948
991,5	1,605
991,9	2,748
992,3	-1,71
992,8	3,005
993,2	6,69
993,6	9,919
994	11,176
994,4	11,176
994,9	10,062
995,3	8,205
995,7	7,319
996,1	3,319
996,5	2,776
996,9	0,576
997,4	0,748
997,8	-3,881
998,2	-2,967
998,6	-5,538
999	-2,767
999,5	-2,224
999,9	5,576
1000,3	8,319
1000,7	8,605
1001,1	7,919
1001,5	5,348
1002	1,176
1002,4	1,548
1002,8	-1,052
1003,2	-0,452
1003,6	3,862
1004	2,69
1004,5	4,605
1004,9	5,662
1005,3	1,376
1005,7	-2,395
1006,1	-6,71
1006,6	-7,681
1007	-2,795
1007,4	-3,31
1007,8	-4,938
1008,2	-0,452
1008,6	-1,624
1009,1	-2,481
1009,5	-0,195
1009,9	0,262
1010,3	2,805
1010,7	10,005
1011,1	13,319
1011,6	14,062
1012	17,005
1012,4	12,576
1012,8	6,633
1013,2	7,89
1013,6	4,119
1014,1	-0,252
1014,5	1,005
1014,9	0,833
1015,3	0,405
1015,7	2,148
1016,1	-1,652
1016,6	0,119
1017	-0,224
1017,4	-2,938
1017,8	-2,967
1018,2	-3,452
1018,6	-0,367
1019,1	-0,995
1019,5	-5,767
1019,9	-0,681
1020,3	3,176
1020,7	1,148
1021,1	7,262
1021,6	3,633
1022	3,148
1022,4	8,948
1022,8	9,09
1023,2	8,119
1023,6	8,776
1024,1	5,176
1024,5	7,148
1024,9	12,605
1025,3	9,348
1025,7	7,576
1026,1	8,69
1026,6	12,49
1027	9,405
1027,4	6,376
1027,8	7,233
1028,2	8,919
1028,6	10,376
1029	8,262
1029,5	8,033
1029,9	9,948
1030,3	15,776
1030,7	13,376
1031,1	8,376
1031,5	1,805
1032	3,033
1032,4	-3,424
1032,8	-3,595
1033,2	-5,138
1033,6	-4,967
1034	0,433
1034,4	5,319
1034,9	0,433
1035,3	10,033
1035,7	10,862
1036,1	11,348
1036,5	7,49
1036,9	6,148
1037,4	2,062
1037,8	9,033
1038,2	-0,338
1038,6	-2,967
1039	-1,71
1039,4	2,205
1039,8	-1,681
1040,3	-0,795
1040,7	-6,195
1041,1	-5,167
1041,5	-5,11
1041,9	-11,824
1042,3	-14,567
1042,7	-12,024
1043,2	-9,31
1043,6	-4,595
1044	-6,281
1044,4	-7,31
1044,8	-8,767
1045,2	-5,167
1045,6	-3,938
1046,1	-4,824
1046,5	-3,138
1046,9	1,862
1047,3	3,405
1047,7	9,176
1048,1	2,748
1048,5	-0,881
1049	2,805
1049,4	1,348
1049,8	-0,195
1050,2	3,605
1050,6	3,633
1051	9,033
1051,4	8,433
1051,9	5,262
1052,3	2,319
1052,7	4,748
1053,1	3,433
1053,5	5,433
1053,9	4,319
1054,3	4,748
1054,8	8,576
1055,2	10,348
1055,6	7,176
1056	8,605
1056,4	4,119
1056,8	2,89
1057,2	10,119
1057,6	3,805
1058,1	6,062
1058,5	4,948
1058,9	4,433
1059,3	11,605
1059,7	4,948
1060,1	2,348
1060,5	3,805
1061	-2,51
1061,4	4,89
1061,8	-1,052
1062,2	-4,595
1062,6	-0,938
1063	-2,681
1063,4	-4,252
1063,8	-1,024
1064,3	-6,824
1064,7	-6,51
1065,1	-9,738
1065,5	-1,452
1065,9	-1,538
1066,3	-2,195
1066,7	-1,538
1067,1	0,548
1067,6	5,462
1068	3,862
1068,4	-0,424
1068,8	0,576
1069,2	-0,024
1069,6	1,833
1070	4,148
1070,4	-0,795
1070,9	1,319
1071,3	4,005
1071,7	4,119
1072,1	9,948
1072,5	7,148
1072,9	7,319
1073,3	11,09
1073,7	11,376
1074,2	9,348
1074,6	5,576
1075	4,862
1075,4	5,89
1075,8	4,519
1076,2	3,376
1076,6	4,605
1077	1,033
1077,5	5,633
1077,9	7,205
1078,3	4,976
1078,7	5,519
1079,1	8,462
1079,5	3,062
1079,9	8,119
1080,3	3,548
1080,7	0,776
1081,2	4,805
1081,6	4,49
1082	2,719
1082,4	5,919
1082,8	1,862
1083,2	0,976
1083,6	0,605
1084	-4,538
1084,5	-5,567
1084,9	-9,595
1085,3	-7,91
1085,7	-10,595
1086,1	-11,967
1086,5	-8,995
1086,9	-3,71
1087,3	-0,481
1087,7	5,69
1088,2	3,262
1088,6	5,148
1089	7,319
1089,4	6,748
1089,8	9,462
1090,2	6,119
1090,6	2,576
1091	6,49
1091,4	9,319
1091,9	12,919
1092,3	9,233
1092,7	2,862
1093,1	0,348
1093,5	0,776
1093,9	3,319
1094,3	2,233
1094,7	0,748
1095,1	0,662
1095,5	1,29
1096	-0,452
1096,4	-0,11
1096,8	-5,252
1097,2	-4,424
1097,6	-5,652
1098	-4,738
1098,4	-2,91
1098,8	2,348
1099,2	3,49
1099,6	7,033
1100,1	9,005
1100,5	13,519
1100,9	14,319
1101,3	15,405
1101,7	17,433
1102,1	18,805
1102,5	18,148
1102,9	16,433
1103,3	11,405
1103,7	11,576
1104,2	11,119
1104,6	9,319
1105	7,176
1105,4	3,462
1105,8	3,119
1106,2	5,033
1106,6	3,148
1107	0,719
1107,4	-1,467
1107,8	-2,487
1108,3	0,583
