Data from Subt2_281.txt Node
Date: Sat Aug 26 19:06:58 MSK 2023
User: vat
Spectrometer: MAYP114033
Trigger mode: 0
Integration Time (sec): 1,000000E0
Scans to average: 5
Electric dark correction enabled: true
Nonlinearity correction enabled: false
Boxcar width: 3
XAxis mode: Wavelengths
Number of Pixels in Spectrum: 2068
>>>>>Begin Spectral Data<<<<<
199,4	-0,383
199,9	1,687
200,4	-1,067
200,8	-1,833
201,3	-3,748
201,8	-0,119
202,2	-3,262
202,7	2,538
203,2	-1,005
203,6	0,624
204,1	1,681
204,6	3,624
205	0,195
205,5	4,167
206	0,452
206,4	3,938
206,9	1,367
207,4	2,224
207,8	1,281
208,3	2,91
208,8	3,881
209,2	4,367
209,7	7,424
210,2	13,338
210,6	13,624
211,1	18,852
211,5	13,31
212	11,681
212,5	11,195
212,9	3,024
213,4	-0,119
213,9	0,567
214,3	-0,262
214,8	8,795
215,3	8,11
215,7	8,452
216,2	13,452
216,7	16,167
217,1	12,852
217,6	11,024
218,1	6,195
218,5	8,167
219	1,252
219,5	3,252
219,9	-1,719
220,4	7,91
220,9	8,024
221,3	7,395
221,8	7,052
222,3	12,481
222,7	11,195
223,2	17,738
223,6	7,681
224,1	6,452
224,6	13,138
225	9,452
225,5	11,567
226	12,31
226,4	12,624
226,9	17,71
227,4	17,452
227,8	7,167
228,3	12,11
228,8	10,367
229,2	12,367
229,7	7,452
230,2	5,538
230,6	9,595
231,1	15,052
231,5	10,281
232	8,338
232,5	6,024
232,9	12,538
233,4	14,138
233,9	7,91
234,3	9,767
234,8	13,51
235,3	14,395
235,7	16,31
236,2	8,767
236,7	3,767
237,1	9,567
237,6	5,681
238,1	4,738
238,5	1,652
239	-0,976
239,4	5,367
239,9	12,395
240,4	7,624
240,8	12,452
241,3	11,51
241,8	11,852
242,2	10,767
242,7	5,538
243,2	-0,433
243,6	0,881
244,1	2,452
244,6	7,51
245	13,11
245,5	14,195
245,9	9,852
246,4	12,91
246,9	16,252
247,3	12,567
247,8	10,71
248,3	9,681
248,7	10,252
249,2	19,252
249,7	18,681
250,1	17,51
250,6	14,681
251	16,395
251,5	15,852
252	15,481
252,4	10,824
252,9	9,824
253,4	5,11
253,8	4,652
254,3	3,624
254,8	3,281
255,2	-0,033
255,7	-1,205
256,1	-1,433
256,6	4,31
257,1	8,967
257,5	4,51
258	1,967
258,5	4,338
258,9	8,967
259,4	8,281
259,9	8,995
260,3	5,852
260,8	6,738
261,2	9,252
261,7	12,052
262,2	6,967
262,6	7,167
263,1	7,624
263,6	6,652
264	8,967
264,5	14,338
264,9	13,395
265,4	16,767
265,9	16,252
266,3	16,824
266,8	22,795
267,3	19,167
267,7	12,281
268,2	9,767
268,7	9,881
269,1	10,824
269,6	7,281
270	4,024
270,5	2,367
271	3,767
271,4	9,195
271,9	4,881
272,4	7,024
272,8	3,624
273,3	2,738
273,7	11,967
274,2	11,052
274,7	6,71
275,1	10,852
275,6	11,11
276,1	11,824
276,5	16,395
277	11,11
277,4	15,51
277,9	17,767
278,4	18,824
278,8	21,652
279,3	23,595
279,8	20,624
280,2	22,538
280,7	22,367
281,1	18,395
281,6	13,71
282,1	10,967
282,5	11,795
283	11,652
283,4	6,681
283,9	2,167
284,4	6,081
284,8	10,652
285,3	6,91
285,8	6,567
286,2	5,395
286,7	9,567
287,1	11,252
287,6	6,938
288,1	2,767
288,5	6,395
289	6,995
289,5	8,31
289,9	6,624
290,4	11,881
290,8	14,424
291,3	19,852
291,8	20,31
292,2	19,424
292,7	24,338
293,1	21,967
293,6	17,452
294,1	15,652
294,5	12,224
295	8,338
295,5	6,167
295,9	0,138
296,4	-1,576
296,8	-2,948
297,3	0,567
297,8	-4,176
298,2	-3,776
298,7	1,11
299,1	1,71
299,6	5,338
300,1	8,252
300,5	8,31
301	15,91
301,5	23,852
301,9	22,424
302,4	18,595
302,8	16,995
303,3	14,795
303,8	9,052
304,2	8,081
304,7	2,652
305,1	-1,748
305,6	0,338
306,1	8,31
306,5	9,967
307	14,91
307,4	13,138
307,9	12,024
308,4	13,91
308,8	10,167
309,3	4,367
309,8	1,652
310,2	-0,005
310,7	-4,976
311,1	-3,262
311,6	-0,605
312,1	7,167
312,5	9,052
313	10,452
313,4	7,795
313,9	14,281
314,4	13,452
314,8	12,195
315,3	6,31
315,7	-1,319
316,2	-4,805
316,7	-3,09
317,1	2,11
317,6	2,395
318	4,967
318,5	3,167
319	9,424
319,4	15,481
319,9	23,338
320,3	16,795
320,8	14,795
321,3	13,138
321,7	18,595
322,2	16,938
322,6	14,538
323,1	7,624
323,6	9,138
324	5,224
324,5	4,967
324,9	3,538
325,4	3,481
325,9	7,91
326,3	7,624
326,8	8,052
327,2	7,624
327,7	4,11
328,2	5,767
328,6	11,567
329,1	-0,805
329,5	0,738
330	-2,89
330,5	3,167
330,9	7,995
331,4	8,824
331,8	0,052
332,3	8,624
332,8	10,538
333,2	11,281
333,7	13,595
334,1	9,938
334,6	7,081
335,1	5,595
335,5	3,91
336	-1,576
336,4	-0,319
336,9	2,795
337,4	3,938
337,8	3,252
338,3	7,995
338,7	12,024
339,2	15,31
339,7	16,995
340,1	11,367
340,6	12,081
341	12,652
341,5	9,852
342	6,452
342,4	3,424
342,9	-0,405
343,3	-1,005
343,8	-4,948
344,2	-5,49
344,7	3,024
345,2	0,481
345,6	2,138
346,1	6,567
346,5	3,395
347	3,595
347,5	2,538
347,9	1,481
348,4	7,738
348,8	10,081
349,3	11,967
349,8	16,824
350,2	26,795
350,7	27,624
351,1	28,138
351,6	26,938
352	29,395
352,5	30,138
353	35,338
353,4	36,881
353,9	47,567
354,3	53,281
354,8	59,852
355,3	73,395
355,7	86,081
356,2	102,452
356,6	114,252
357,1	131,367
357,5	153,995
358	185,452
358,5	204,395
358,9	233,795
359,4	266,595
359,8	304,167
360,3	350,281
360,8	396,024
361,2	446,91
361,7	511,938
362,1	583,081
362,6	657,795
363	740,281
363,5	826,252
364	920,167
364,4	1011,51
364,9	1103,424
365,3	1191,795
365,8	1274,681
366,3	1355,252
366,7	1422,081
367,2	1483,024
367,6	1530,424
368,1	1571,195
368,5	1596,91
369	1610,767
369,5	1615,91
369,9	1603,481
370,4	1581,424
370,8	1552,681
371,3	1505,538
371,7	1451,824
372,2	1393,31
372,7	1327,338
373,1	1260,052
373,6	1182,738
374	1111,024
374,5	1038,881
374,9	968,938
375,4	896,138
375,9	824,11
376,3	760,138
376,8	699,938
377,2	641,91
377,7	590,081
378,2	540,424
378,6	497,91
379,1	461,91
379,5	425,595
380	396,681
380,4	363,567
380,9	333,367
381,4	304,195
381,8	283,595
382,3	263,91
382,7	244,967
383,2	226,624
383,6	211,252
384,1	195,652
384,6	188,967
385	173,11
385,5	155,652
385,9	145,681
386,4	130,652
386,8	121,995
387,3	115,167
387,7	107,31
388,2	102,652
388,7	96,71
389,1	89,481
389,6	88,91
390	83,852
390,5	82,081
390,9	77,195
391,4	66,367
391,9	64,652
392,3	63,024
392,8	57,167
393,2	52,624
393,7	46,11
394,1	37,995
394,6	42,995
395,1	39,538
395,5	32,395
396	38,424
396,4	36,367
396,9	36,967
397,3	41,71
397,8	40,481
398,2	41,738
398,7	45,138
399,2	40,767
399,6	42,395
400,1	42,795
400,5	37,967
401	33,538
401,4	29,367
401,9	27,967
402,4	26,052
402,8	18,138
403,3	23,224
403,7	15,595
404,2	21,395
404,6	23,052
405,1	23,481
405,5	19,938
406	25,424
406,5	20,138
406,9	27,767
407,4	24,538
407,8	28,195
408,3	30,338
408,7	31,31
409,2	36,567
409,6	35,71
410,1	38,881
410,6	41,538
411	41,195
411,5	41,595
411,9	44,11
412,4	40,595
412,8	44,452
413,3	45,195
413,7	44,595
414,2	44,71
414,7	49,967
415,1	58,395
415,6	63,51
416	64,767
416,5	70,538
416,9	72,11
417,4	73,481
417,8	76,938
418,3	76,824
418,8	79,938
419,2	80,052
419,7	78,11
420,1	82,167
420,6	83,195
421	82,51
421,5	85,481
421,9	85,71
422,4	88,452
422,8	88,338
423,3	86,367
423,8	83,681
424,2	78,024
424,7	70,024
425,1	66,138
425,6	66,195
426	64,424
426,5	65,881
426,9	67,052
427,4	63,652
427,9	59,51
428,3	58,71
428,8	51,795
429,2	48,11
429,7	44,481
430,1	43,081
430,6	44,481
431	46,681
431,5	46,624
431,9	44,852
432,4	47,195
432,8	49,138
433,3	47,738
433,8	43,91
434,2	45,395
434,7	47,795
435,1	49,91
435,6	48,91
436	49,252
436,5	55,224
436,9	56,938
437,4	53,995
437,8	50,195
438,3	55,538
438,8	54,71
439,2	51,767
439,7	52,538
440,1	54,71
440,6	58,71
441	57,424
441,5	57,138
441,9	59,967
442,4	55,738
442,8	51,852
443,3	56,081
443,7	57,024
444,2	63,51
444,7	60,452
445,1	62,51
445,6	67,252
446	69,11
446,5	66,195
446,9	62,11
447,4	57,938
447,8	60,252
448,3	61,567
448,7	65,138
449,2	72,652
449,6	80,11
450,1	83,881
450,6	88,967
451	90,567
451,5	96,91
451,9	100,824
452,4	97,938
452,8	96,938
453,3	105,767
453,7	108,795
454,2	117,224
454,6	116,367
455,1	115,595
455,5	115,024
456	121,881
456,4	120,195
456,9	127,567
457,3	128,281
457,8	128,31
458,3	137,367
458,7	142,681
459,2	141,395
459,6	149,481
460,1	149,567
460,5	151,852
461	156,224
461,4	156,024
461,9	164,081
462,3	169,081
462,8	169,71
463,2	171,881
463,7	178,481
464,1	187,852
464,6	194,767
465	201,824
465,5	211,224
466	219,795
466,4	229,024
466,9	241,767
467,3	247,452
467,8	256,51
468,2	262,195
468,7	267,452
469,1	274,367
469,6	280,538
470	281,224
470,5	288,538
470,9	293,824
471,4	296,567
471,8	299,995
472,3	307,852
472,7	314,367
473,2	318,738
473,6	320,91
474,1	326,452
474,5	333,681
475	343,281
475,4	349,395
475,9	356,681
476,4	363,567
476,8	372,967
477,3	374,681
477,7	384,938
478,2	390,452
478,6	390,681
479,1	388,824
479,5	394,795
480	400,452
480,4	411,081
480,9	412,852
481,3	415,567
481,8	421,681
482,2	425,395
482,7	434,367
483,1	437,167
483,6	439,595
484	444,11
484,5	455,138
484,9	460,195
485,4	474,024
485,8	473,624
486,3	480,681
486,7	486,424
487,2	488,824
487,6	486,681
488,1	492,995
488,5	490,595
489	497,91
489,4	504,624
489,9	506,938
490,4	510,652
490,8	518,824
491,3	522,852
491,7	528,71
492,2	531,252
492,6	532,081
493,1	535,224
493,5	541,481
494	540,052
494,4	542,338
494,9	545,052
495,3	550,681
495,8	550,224
496,2	555,167
496,7	550,824
497,1	556,11
497,6	559,91
498	568,367
498,5	567,938
498,9	571,395
499,4	574,452
499,8	592,11
500,3	596,681
500,7	596,11
501,2	593,195
501,6	591,081
502,1	600,195
502,5	603,824
503	600,167
503,4	598,967
503,9	600,224
504,3	600,567
504,8	605,081
505,2	600,767
505,7	601,138
506,1	602,795
506,6	603,938
507	608,195
507,5	617,252
507,9	618,738
508,4	619,081
508,8	618,938
509,3	615,51
509,7	622,567
510,2	626,681
510,6	624,281
511,1	627,052
511,5	633,195
512	633,767
512,4	639,881
512,9	638,195
513,3	643,138
513,8	642,938
514,2	650,167
514,7	650,767
515,1	657,252
515,6	657,31
516	657,367
516,5	657,938
516,9	665,481
517,4	666,995
517,8	672,967
518,3	676,081
518,7	679,052
519,2	686,738
519,6	690,11
520,1	693,852
520,5	697,367
521	693,567
521,4	695,738
521,9	703,595
522,3	703,538
522,8	702,624
523,2	706,395
523,7	708,881
524,1	719,081
524,6	720,652
525	721,681
525,5	727,595
525,9	736,995
526,4	734,738
526,8	735,595
527,3	737,767
527,7	745,967
528,2	750,881
528,6	750,652
529,1	749,795
529,5	755,595
530	761,424
530,4	761,338
530,9	765,738
531,3	768,424
531,8	778,11
532,2	784,395
532,6	784,224
533,1	784,738
533,5	794,195
534	793,852
534,4	800,11
534,9	801,681
535,3	800,624
535,8	806,424
536,2	814,738
536,7	817,567
537,1	818,967
537,6	819,224
538	823,024
538,5	830,195
538,9	833,767
539,4	839,567
539,8	841,852
540,3	849,51
540,7	851,738
541,2	847,71
541,6	846,852
542,1	851,824
542,5	852,052
543	853,424
543,4	859,367
543,9	866,652
544,3	881,424
544,8	886,338
545,2	890,31
545,7	892,995
546,1	902,081
546,5	903,71
547	905,71
547,4	907,338
547,9	913,852
548,3	917,995
548,8	923,11
549,2	921,71
549,7	927,052
550,1	932,71
550,6	933,538
551	939,767
551,5	940,538
551,9	942,224
552,4	944,081
552,8	944,195
553,3	943,967
553,7	943,11
554,2	941,824
554,6	950,195
555,1	955,224
555,5	957,681
555,9	960,881
556,4	961,024
556,8	966,424
557,3	970,11
557,7	967,881
558,2	965,31
558,6	969,11
559,1	968,31
559,5	974,738
560	977,138
560,4	983,824
560,9	988,652
561,3	993,71
561,8	994,31
562,2	1001,681
562,7	1005,224
563,1	1012,424
563,6	1007,795
564	1010,795
564,4	1008,91
564,9	1012,224
565,3	1006,224
565,8	1010,767
566,2	1009,024
566,7	1014,567
567,1	1016,367
567,6	1019,652
568	1020,567
568,5	1029,938
568,9	1024,081
569,4	1028,452
569,8	1030,481
570,3	1031,995
570,7	1033,824
571,1	1039,052
571,6	1037,395
572	1045,052
572,5	1043,081
572,9	1041,395
573,4	1040,824
573,8	1047,795
574,3	1046,452
574,7	1050,167
575,2	1046,824
575,6	1046,938
576,1	1051,967
576,5	1055,967
576,9	1053,652
577,4	1053,967
577,8	1047,852
578,3	1046,281
578,7	1048,024
579,2	1049,195
579,6	1044,338
580,1	1041,11
580,5	1043,138
581	1050,31
581,4	1051,024
581,9	1048,138
582,3	1038,995
582,7	1039,452
583,2	1035,824
583,6	1036,138
584,1	1033,938
584,5	1034,795
585	1036,51
585,4	1033,481
585,9	1033,938
586,3	1044,624
586,8	1043,767
587,2	1038,938
587,6	1045,31
588,1	1047,424
588,5	1050,424
589	1050,738
589,4	1038,252
589,9	1036,195
590,3	1038,71
590,8	1033,481
591,2	1033,652
591,7	1033,424
592,1	1029,795
592,5	1032,767
593	1030,224
593,4	1027,024
593,9	1019,052
594,3	1008,738
594,8	1006,795
595,2	1004,881
595,7	1002,395
596,1	997,824
596,6	994,652
597	994,51
597,4	996,652
597,9	997,71
598,3	1001,767
598,8	1003,595
599,2	1004,538
599,7	1005,338
600,1	1001,024
600,6	998,652
601	994,281
601,4	990,652
601,9	991,052
602,3	989,51
602,8	985,738
603,2	987,081
603,7	981,367
604,1	981,167
604,6	975,795
605	962,71
605,4	961,367
605,9	959,11
606,3	952,424
606,8	952,91
607,2	947,71
607,7	942,024
608,1	941,881
608,6	939,338
609	938,681
609,4	946,31
609,9	943,31
610,3	941,081
610,8	942,195
611,2	940,31
611,7	936,167
612,1	932,652
612,6	924,052
613	921,195
613,4	922,424
613,9	918,538
614,3	915,938
614,8	912,567
615,2	907,538
615,7	906,51
616,1	903,452
616,6	892,167
617	889,824
617,4	890,995
617,9	897,71
618,3	901,081
618,8	899,138
619,2	896,338
619,7	899,738
620,1	893,652
620,5	889,852
621	878,852
621,4	872,767
621,9	867,481
622,3	863,367
622,8	857,31
623,2	855,71
623,6	849,652
624,1	845,481
624,5	840,681
625	843,538
625,4	840,938
625,9	840,938
626,3	835,824
626,8	831,51
627,2	829,081
627,6	820,138
628,1	809,452
628,5	811,424
629	802,252
629,4	800,252
629,9	798,51
630,3	788,424
630,7	785,567
631,2	782,824
631,6	775,081
632,1	774,395
632,5	769,852
633	766,367
633,4	766,424
633,8	764,738
634,3	757,395
634,7	752,195
635,2	742,51
635,6	739,71
636,1	738,51
636,5	730,367
636,9	724,081
637,4	721,881
637,8	713,367
638,3	712,395
638,7	706,881
639,2	694,567
639,6	699,195
640	696,995
640,5	694,881
640,9	695,452
641,4	696,91
641,8	695,338
642,2	696,967
642,7	691,224
643,1	691,624
643,6	685,367
644	683,481
644,5	679,024
644,9	673,395
645,3	671,081
645,8	664,738
646,2	662,452
646,7	659,995
647,1	656,281
647,6	656,252
648	656,91
648,4	645,738
648,9	643,938
649,3	638,767
649,8	641,91
650,2	636,567
650,6	631,881
651,1	626,738
651,5	633,024
652	630,367
652,4	626,224
652,9	619,852
653,3	615,995
653,7	609,452
654,2	607,881
654,6	598,024
655,1	598,91
655,5	598,91
655,9	596,881
656,4	597,795
656,8	592,167
657,3	586,281
657,7	590,852
658,2	584,252
658,6	573,91
659	568,367
659,5	561,481
659,9	561,252
660,4	559,538
660,8	549,681
661,2	546,367
661,7	549,624
662,1	549,195
662,6	547,138
663	543,538
663,4	538,024
663,9	538,224
664,3	530,738
664,8	524,252
665,2	515,71
665,6	510,052
666,1	505,252
666,5	508,338
667	502,252
667,4	501,481
667,9	497,424
668,3	498,081
668,7	495,824
669,2	497,452
669,6	492,567
670,1	493,681
670,5	490,652
670,9	487,224
671,4	481,767
671,8	479,138
672,3	476,052
672,7	473,767
673,1	463,881
673,6	462,167
674	463,538
674,5	462,31
674,9	455,624
675,3	450,081
675,8	444,452
676,2	446,024
676,7	439,481
677,1	433,738
677,5	426,595
678	430,452
678,4	433,024
678,9	434,081
679,3	430,081
679,7	429,395
680,2	427,195
680,6	427,795
681,1	423,281
681,5	420,338
681,9	415,138
682,4	417,224
682,8	417,138
683,3	415,452
683,7	412,595
684,1	408,338
684,6	404,338
685	397,11
685,5	393,681
685,9	386,852
686,3	380,138
686,8	379,91
687,2	379,595
687,7	371,481
688,1	370,881
688,5	369,11
689	371,11
689,4	368,995
689,9	362,024
690,3	358,795
690,7	358,852
691,2	360,281
691,6	356,595
692	351,481
692,5	353,538
692,9	354,852
693,4	351,567
693,8	349,252
694,2	346,338
694,7	341,967
695,1	339,881
695,6	339,224
696	339,338
696,4	340,538
696,9	336,71
697,3	329,538
697,8	328,824
698,2	326,31
698,6	324,31
699,1	322,767
699,5	323,195
699,9	319,824
700,4	322,481
700,8	319,081
701,3	319,138
701,7	312,51
702,1	306,767
702,6	302,31
703	303,881
703,5	299,367
703,9	295,995
704,3	298,024
704,8	296,652
705,2	294,71
705,6	290,195
706,1	285,881
706,5	284,452
707	289,195
707,4	282,767
707,8	279,167
708,3	281,11
708,7	278,51
709,2	278,024
709,6	275,824
710	275,138
710,5	271,424
710,9	273,167
711,3	266,452
711,8	269,252
712,2	272,31
712,7	272,91
713,1	270,51
713,5	273,538
714	275,795
714,4	271,395
714,8	266,481
715,3	258,452
715,7	257,395
716,2	250,881
716,6	248,538
717	242,167
717,5	244,224
717,9	247,281
718,3	246,338
718,8	242,024
719,2	241,481
719,7	236,31
720,1	236,081
720,5	238,195
721	231,167
721,4	232,395
721,8	234,995
722,3	232,51
722,7	236,567
723,2	232,567
723,6	225,538
724	223,71
724,5	216,938
724,9	211,167
725,3	209,967
725,8	206,795
726,2	207,052
726,7	210,652
727,1	214,71
727,5	216,538
728	213,795
728,4	214,51
728,8	215,195
729,3	216,11
729,7	210,538
730,1	208,11
730,6	211,567
731	211,395
731,5	208,938
731,9	202,995
732,3	200,052
732,8	200,738
733,2	199,252
733,6	194,367
734,1	194,31
734,5	198,138
734,9	201,681
735,4	201,11
735,8	196,681
736,3	198,567
736,7	195,367
737,1	193,052
737,6	188,624
738	187,881
738,4	184,624
738,9	185,424
739,3	179,31
739,7	182,738
740,2	179,367
740,6	178,967
741,1	176,881
741,5	174,91
741,9	177,424
742,4	180,852
742,8	176,395
743,2	178,71
743,7	173,824
744,1	164,91
744,5	162,624
745	154,995
745,4	152,281
745,8	154,91
746,3	156,767
746,7	154,624
747,2	159,224
747,6	167,395
748	174,481
748,5	174,824
748,9	165,51
749,3	160,738
749,8	162,11
750,2	163,024
750,6	155,938
751,1	155,052
751,5	153,081
751,9	159,595
752,4	160,481
752,8	162,395
753,3	157,624
753,7	159,681
754,1	152,452
754,6	147,51
755	145,624
755,4	142,624
755,9	139,138
756,3	140,452
756,7	136,367
757,2	135,624
757,6	140,11
758	138,224
758,5	139,91
758,9	139,138
759,3	139,738
759,8	141,052
760,2	143,452
760,6	141,652
761,1	138,938
761,5	140,338
761,9	135,91
762,4	130,967
762,8	129,567
763,3	128,824
763,7	125,081
764,1	133,138
764,6	131,167
765	135,51
765,4	137,852
765,9	137,681
766,3	139,252
766,7	136,795
767,2	127,395
767,6	127,481
768	126,452
768,5	124,681
768,9	121,738
769,3	117,652
769,8	118,395
770,2	125,881
770,6	122,538
771,1	123,252
771,5	126,338
771,9	126,967
772,4	129,138
772,8	126,138
773,2	120,224
773,7	121,367
774,1	117,938
774,5	110,681
775	110,71
775,4	110,052
775,8	111,052
776,3	112,052
776,7	112,252
777,1	110,767
777,6	114,538
778	115,767
778,4	111,738
778,9	111,452
779,3	106,938
779,7	105,681
780,2	106,481
780,6	103,224
781	100,167
781,5	99,338
781,9	104,024
782,3	101,252
782,8	99,481
783,2	96,652
783,6	102,624
784,1	102,767
784,5	100,481
784,9	91,681
785,4	97,252
785,8	98,424
786,2	101,395
786,7	98,51
787,1	96,824
787,5	99,424
788	101,338
788,4	98,624
788,8	94,224
789,3	90,995
789,7	91,081
790,1	90,595
790,6	91,424
791	89,71
791,4	91,738
791,9	92,11
792,3	89,681
792,7	89,795
793,2	83,824
793,6	82,252
794	86,51
794,5	79,995
794,9	82,91
795,3	80,024
795,8	74,224
796,2	78,567
796,6	79,995
797,1	76,938
797,5	80,881
797,9	76,11
798,4	78,624
798,8	78,881
799,2	78,024
799,7	76,91
800,1	76,195
800,5	73,652
801	77,195
801,4	78,51
801,8	78,367
802,2	76,652
802,7	74,195
803,1	73,71
803,5	74,767
804	70,081
804,4	71,138
804,8	70,51
805,3	70,11
805,7	70,71
806,1	70,767
806,6	71,681
807	73,252
807,4	66,967
807,9	64,71
808,3	66,938
808,7	64,167
809,2	68,052
809,6	67,595
810	65,51
810,4	67,395
810,9	70,281
811,3	72,081
811,7	72,338
812,2	71,31
812,6	69,51
813	74,995
813,5	77,024
813,9	72,767
814,3	67,252
814,8	67,538
815,2	64,081
815,6	62,567
816,1	61,338
816,5	60,367
816,9	64,31
817,3	66,224
817,8	70,71
818,2	68,138
818,6	64,51
819,1	58,395
819,5	55,652
819,9	54,167
820,4	55,367
820,8	49,452
821,2	48,538
821,7	52,367
822,1	55,452
822,5	63,252
822,9	61,538
823,4	58,824
823,8	59,481
824,2	60,538
824,7	57,995
825,1	53,167
825,5	44,624
826	40,71
826,4	38,481
826,8	38,538
827,3	40,852
827,7	41,767
828,1	44,767
828,5	45,138
829	46,195
829,4	44,424
829,8	40,11
830,3	34,795
830,7	34,081
831,1	35,081
831,6	34,795
832	34,31
832,4	35,595
832,8	37,224
833,3	37,652
833,7	32,395
834,1	30,138
834,6	28,138
835	32,481
835,4	34,938
835,8	31,081
836,3	35,081
836,7	41,738
837,1	42,367
837,6	46,452
838	38,738
838,4	34,881
838,9	39,824
839,3	35,052
839,7	36,71
840,1	30,71
840,6	30,91
841	37,767
841,4	40,938
841,9	39,681
842,3	40,395
842,7	36,624
843,1	43,024
843,6	46,11
844	41,138
844,4	41,395
844,9	43,338
845,3	47,081
845,7	47,367
846,2	45,995
846,6	37,452
847	43,567
847,4	43,424
847,9	41,252
848,3	38,967
848,7	34,881
849,2	34,024
849,6	37,024
850	35,281
850,4	36,652
850,9	35,595
851,3	34,481
851,7	37,681
852,2	34,681
852,6	38,424
853	36,31
853,4	37,567
853,9	38,767
854,3	38,624
854,7	42,795
855,2	44,51
855,6	39,595
856	38,281
856,4	31,338
856,9	26,995
857,3	30,852
857,7	27,567
858,2	30,367
858,6	33,167
859	34,31
859,4	37,338
859,9	40,881
860,3	35,224
860,7	38,081
861,1	40,481
861,6	35,738
862	37,281
862,4	37,938
862,9	35,595
863,3	37,652
863,7	33,338
864,1	31,281
864,6	32,967
865	29,652
865,4	29,31
865,9	31,167
866,3	26,624
866,7	25,195
867,1	21,767
867,6	22,938
868	23,652
868,4	24,767
868,8	27,024
869,3	30,567
869,7	34,052
870,1	33,824
870,6	33,195
871	40,167
871,4	39,138
871,8	36,824
872,3	38,195
872,7	34,338
873,1	36,052
873,5	36,538
874	29,338
874,4	30,681
874,8	27,681
875,3	25,424
875,7	25,167
876,1	25,967
876,5	26,195
877	25,481
877,4	19,767
877,8	24,138
878,2	27,395
878,7	25,395
879,1	23,624
879,5	24,481
879,9	26,852
880,4	27,738
880,8	26,11
881,2	24,281
881,7	27,167
882,1	26,167
882,5	23,71
882,9	19,51
883,4	21,595
883,8	20,424
884,2	19,681
884,6	19,367
885,1	21,652
885,5	25,595
885,9	27,138
886,3	29,167
886,8	29,31
887,2	22,31
887,6	23,452
888	18,967
888,5	15,11
888,9	15,852
889,3	9,595
889,8	8,281
890,2	16,795
890,6	15,824
891	20,738
891,5	20,881
891,9	18,567
892,3	22,252
892,7	23,424
893,2	21,71
893,6	22,881
894	19,138
894,4	16,738
894,9	20,738
895,3	22,738
895,7	25,11
896,1	21,081
896,6	19,167
897	20,681
897,4	27,081
897,8	26,91
898,3	27,281
898,7	23,424
899,1	27,452
899,5	27,795
900	24,652
900,4	21,281
900,8	16,195
901,2	11,11
901,7	11,252
902,1	13,595
902,5	17,681
902,9	15,138
903,4	16,452
903,8	21,824
904,2	18,395
904,6	20,967
905,1	18,424
905,5	13,652
905,9	22,91
906,3	25,11
906,8	28,024
907,2	33,51
907,6	34,71
908	34,881
908,5	32,595
908,9	28,624
909,3	24,395
909,7	19,538
910,2	22,281
910,6	22,51
911	22,024
911,4	26,91
911,9	27,024
912,3	25,767
912,7	34,11
913,1	31,938
913,6	28,224
914	29,252
914,4	23,252
914,8	21,452
915,3	19,195
915,7	10,167
916,1	6,367
916,5	7,31
916,9	8,252
917,4	10,31
917,8	9,91
918,2	8,167
918,6	4,852
919,1	7,795
919,5	7,938
919,9	3,767
920,3	5,367
920,8	6,738
921,2	9,881
921,6	12,252
922	9,024
922,5	9,224
922,9	11,767
923,3	8,852
923,7	10,024
924,2	10,281
924,6	12,481
925	15,338
925,4	11,852
925,8	10,11
926,3	12,31
926,7	8,338
927,1	9,567
927,5	10,91
928	9,624
928,4	9,052
928,8	10,795
929,2	7,052
929,7	10,881
930,1	10,252
930,5	3,967
930,9	7,024
931,3	9,424
931,8	10,081
932,2	15,481
932,6	12,195
933	6,195
933,5	9,995
933,9	7,795
934,3	11,252
934,7	6,224
935,2	4,567
935,6	7,167
936	10,052
936,4	10,595
936,8	10,195
937,3	5,91
937,7	10,481
938,1	14,624
938,5	8,624
939	9,51
939,4	6,91
939,8	3,367
940,2	2,795
940,6	3,052
941,1	-0,919
941,5	6,424
941,9	6,281
942,3	7,567
942,8	13,91
943,2	19,567
943,6	16,195
944	18,481
944,4	16,081
944,9	16,767
945,3	15,624
945,7	10,881
946,1	3,081
946,6	1,824
947	-3,433
947,4	0,681
947,8	1,338
948,2	2,71
948,7	5,452
949,1	8,338
949,5	13,424
949,9	16,624
950,3	13,995
950,8	13,624
951,2	10,024
951,6	7,938
952	9,138
952,5	6,91
952,9	6,081
953,3	3,024
953,7	1,31
954,1	8,052
954,6	10,967
955	10,224
955,4	8,367
955,8	11,767
956,2	14,567
956,7	19,938
957,1	16,052
957,5	13,995
957,9	15,995
958,3	12,938
958,8	10,767
959,2	14,481
959,6	16,824
960	13,252
960,5	20,367
960,9	21,452
961,3	21,91
961,7	21,995
962,1	16,51
962,6	12,281
963	15,052
963,4	4,767
963,8	3,167
964,2	7,995
964,7	8,795
965,1	11,31
965,5	11,052
965,9	9,995
966,3	15,138
966,8	10,51
967,2	11,395
967,6	10,595
968	7,424
968,4	7,11
968,9	7,252
969,3	7,595
969,7	11,824
970,1	11,91
970,5	10,024
971	14,424
971,4	13,624
971,8	19,31
972,2	18,081
972,6	15,795
973,1	13,195
973,5	13,824
973,9	13,024
974,3	9,567
974,7	9,824
975,2	10,738
975,6	10,881
976	12,481
976,4	11,71
976,8	6,91
977,3	11,024
977,7	5,138
978,1	5,11
978,5	3,967
978,9	1,824
979,4	0,652
979,8	0,852
980,2	-0,719
980,6	-3,405
981	-2,776
981,5	-2,49
981,9	0,881
982,3	5,195
982,7	8,367
983,1	5,424
983,6	11,224
984	11,538
984,4	16,881
984,8	14,338
985,2	12,91
985,6	12,938
986,1	17,51
986,5	16,938
986,9	10,938
987,3	6,652
987,7	6,995
988,2	7,224
988,6	3,824
989	2,281
989,4	-0,405
989,8	5,538
990,3	6,11
990,7	6,452
991,1	5,138
991,5	12,395
991,9	16,452
992,3	18,652
992,8	19,31
993,2	19,281
993,6	24,452
994	26,195
994,4	19,024
994,9	15,395
995,3	14,938
995,7	10,938
996,1	9,881
996,5	5,795
996,9	0,481
997,4	1,338
997,8	0,052
998,2	-1,176
998,6	-3,09
999	-2,233
999,5	-1,576
999,9	-0,176
1000,3	0,995
1000,7	1,538
1001,1	2,167
1001,5	5,767
1002	8,767
1002,4	12,138
1002,8	18,167
1003,2	19,738
1003,6	21,138
1004	23,567
1004,5	21,252
1004,9	21,052
1005,3	12,281
1005,7	8,624
1006,1	5,338
1006,6	5,024
1007	2,538
1007,4	0,681
1007,8	-3,662
1008,2	1,052
1008,6	4,824
1009,1	8,11
1009,5	6,681
1009,9	8,71
1010,3	11,567
1010,7	14,738
1011,1	11,795
1011,6	10,538
1012	10,995
1012,4	13,538
1012,8	11,852
1013,2	19,31
1013,6	20,11
1014,1	20,51
1014,5	19,081
1014,9	17,938
1015,3	15,252
1015,7	17,938
1016,1	12,91
1016,6	7,71
1017	10,995
1017,4	10,167
1017,8	7,081
1018,2	13,681
1018,6	8,995
1019,1	7,795
1019,5	11,252
1019,9	10,681
1020,3	13,681
1020,7	19,938
1021,1	16,91
1021,6	16,195
1022	19,481
1022,4	19,624
1022,8	20,624
1023,2	15,538
1023,6	13,595
1024,1	18,052
1024,5	24,024
1024,9	17,31
1025,3	20,138
1025,7	17,767
1026,1	21,852
1026,6	19,795
1027	16,738
1027,4	15,51
1027,8	17,995
1028,2	12,11
1028,6	14,624
1029	12,11
1029,5	17,538
1029,9	13,995
1030,3	11,71
1030,7	10,881
1031,1	19,367
1031,5	13,252
1032	8,967
1032,4	5,424
1032,8	10,252
1033,2	11,51
1033,6	12,052
1034	3,567
1034,4	5,795
1034,9	13,795
1035,3	9,595
1035,7	5,852
1036,1	7,652
1036,5	4,824
1036,9	8,681
1037,4	13,71
1037,8	5,967
1038,2	9,767
1038,6	7,738
1039	5,681
1039,4	10,424
1039,8	5,995
1040,3	2,681
1040,7	7,224
1041,1	7,281
1041,5	12,91
1041,9	10,081
1042,3	7,024
1042,7	14,481
1043,2	15,967
1043,6	14,652
1044	14,538
1044,4	12,138
1044,8	15,824
1045,2	19,367
1045,6	18,51
1046,1	17,11
1046,5	16,024
1046,9	15,052
1047,3	10,252
1047,7	8,71
1048,1	6,795
1048,5	1,51
1049	5,052
1049,4	9,824
1049,8	10,71
1050,2	17,967
1050,6	24,224
1051	21,624
1051,4	23,138
1051,9	19,938
1052,3	23,081
1052,7	20,167
1053,1	10,167
1053,5	9,452
1053,9	12,738
1054,3	10,167
1054,8	13,938
1055,2	7,995
1055,6	11,624
1056	16,595
1056,4	13,024
1056,8	12,195
1057,2	15,71
1057,6	8,452
1058,1	7,052
1058,5	7,481
1058,9	10,424
1059,3	10,195
1059,7	12,481
1060,1	14,167
1060,5	17,338
1061	22,31
1061,4	20,652
1061,8	20,138
1062,2	21,11
1062,6	24,167
1063	23,195
1063,4	22,738
1063,8	18,967
1064,3	12,767
1064,7	11,652
1065,1	5,767
1065,5	-1,262
1065,9	0,567
1066,3	-2,205
1066,7	-3,576
1067,1	-5,948
1067,6	-3,233
1068	-4,005
1068,4	2,138
1068,8	0,681
1069,2	0,91
1069,6	0,395
1070	7,167
1070,4	2,595
1070,9	8,167
1071,3	3,767
1071,7	-0,09
1072,1	5,338
1072,5	5,138
1072,9	6,738
1073,3	9,452
1073,7	7,652
1074,2	6,624
1074,6	10,595
1075	4,51
1075,4	7,167
1075,8	8,252
1076,2	8,224
1076,6	10,367
1077	12,338
1077,5	14,224
1077,9	14,11
1078,3	15,738
1078,7	14,452
1079,1	11,967
1079,5	13,138
1079,9	12,938
1080,3	11,624
1080,7	12,31
1081,2	12,824
1081,6	11,91
1082	8,395
1082,4	8,481
1082,8	9,024
1083,2	6,71
1083,6	8,167
1084	3,024
1084,5	7,281
1084,9	10,11
1085,3	2,71
1085,7	0,081
1086,1	-1,319
1086,5	-1,262
1086,9	3,738
1087,3	1,824
1087,7	5,452
1088,2	10,338
1088,6	9,795
1089	11,452
1089,4	10,224
1089,8	9,281
1090,2	4,852
1090,6	3,795
1091	5,252
1091,4	6,91
1091,9	5,881
1092,3	7,481
1092,7	7,881
1093,1	12,138
1093,5	11,281
1093,9	7,052
1094,3	10,338
1094,7	9,967
1095,1	11,624
1095,5	7,852
1096	5,424
1096,4	6,595
1096,8	9,967
1097,2	5,424
1097,6	9,91
1098	8,052
1098,4	13,624
1098,8	12,31
1099,2	15,424
1099,6	14,567
1100,1	14,795
1100,5	9,51
1100,9	10,367
1101,3	8,424
1101,7	10,938
1102,1	7,624
1102,5	10,224
1102,9	12,024
1103,3	15,11
1103,7	15,281
1104,2	12,024
1104,6	12,052
1105	9,91
1105,4	6,252
1105,8	4,395
1106,2	2,024
1106,6	0,624
1107	1,338
1107,4	-0,2
1107,8	0,247
1108,3	-0,383
