Data from Subt2_020.txt Node
Date: Sat Aug 26 16:15:49 MSK 2023
User: vat
Spectrometer: MAYP114033
Trigger mode: 0
Integration Time (sec): 1,000000E0
Scans to average: 5
Electric dark correction enabled: true
Nonlinearity correction enabled: false
Boxcar width: 3
XAxis mode: Wavelengths
Number of Pixels in Spectrum: 2068
>>>>>Begin Spectral Data<<<<<
199,4	-1,133
199,9	-2,013
200,4	-3,167
200,8	-0,99
201,3	-2,705
201,8	-4,105
202,2	-3,333
202,7	-2,133
203,2	-0,905
203,6	4,438
204,1	5,124
204,6	6,495
205	12,952
205,5	14,267
206	13,724
206,4	11,324
206,9	10,124
207,4	8,41
207,8	13,095
208,3	9,038
208,8	9,838
209,2	10,352
209,7	13,724
210,2	12,21
210,6	15,524
211,1	15,467
211,5	14,41
212	12,638
212,5	13,038
212,9	14,61
213,4	11,238
213,9	9,752
214,3	3,81
214,8	6,61
215,3	10,867
215,7	11,838
216,2	7,752
216,7	7,981
217,1	6,295
217,6	7,924
218,1	2,467
218,5	-4,276
219	-8,819
219,5	-5,676
219,9	-4,133
220,4	-0,019
220,9	-3,533
221,3	-0,248
221,8	-2,962
222,3	-1,276
222,7	-4,105
223,2	0,952
223,6	2,01
224,1	6,152
224,6	5,981
225	17,238
225,5	19,41
226	21,438
226,4	19,381
226,9	16,267
227,4	19,181
227,8	21,267
228,3	11,695
228,8	12,438
229,2	12,438
229,7	5,667
230,2	4,238
230,6	1,61
231,1	1,61
231,5	8,267
232	6,781
232,5	7,238
232,9	12,152
233,4	16,181
233,9	13,524
234,3	9,552
234,8	6,267
235,3	12,952
235,7	12,038
236,2	12,124
236,7	8,067
237,1	13,181
237,6	14,438
238,1	12,895
238,5	2,695
239	5,152
239,4	7,952
239,9	4,01
240,4	1,695
240,8	6,295
241,3	11,438
241,8	15,381
242,2	10,467
242,7	11,838
243,2	12,238
243,6	13,867
244,1	12,41
244,6	6,952
245	2,81
245,5	4,638
245,9	5,067
246,4	8,324
246,9	10,724
247,3	11,695
247,8	13,924
248,3	14,438
248,7	18,01
249,2	13,41
249,7	12,381
250,1	11,181
250,6	8,638
251	5,867
251,5	9,695
252	7,095
252,4	8,867
252,9	5,724
253,4	6,038
253,8	3,21
254,3	8,552
254,8	7,81
255,2	7,638
255,7	3,324
256,1	11,524
256,6	8,495
257,1	10,238
257,5	4,781
258	3,552
258,5	-0,905
258,9	2,124
259,4	-5,933
259,9	-7,733
260,3	-5,362
260,8	-3,876
261,2	-4,848
261,7	-4,419
262,2	-5,848
262,6	0,067
263,1	0,324
263,6	1,067
264	1,381
264,5	6,781
264,9	10,381
265,4	9,352
265,9	6,095
266,3	6,581
266,8	5,495
267,3	7,01
267,7	5,295
268,2	4,838
268,7	9,381
269,1	11,838
269,6	9,952
270	10,124
270,5	10,238
271	8,438
271,4	8,152
271,9	7,181
272,4	5,552
272,8	10,981
273,3	8,667
273,7	8,352
274,2	1,952
274,7	6,152
275,1	6,467
275,6	5,038
276,1	6,924
276,5	7,152
277	4,095
277,4	10,124
277,9	4,781
278,4	4,752
278,8	3,067
279,3	0,01
279,8	1,438
280,2	6,781
280,7	6,095
281,1	9,438
281,6	3,638
282,1	9,295
282,5	3,01
283	5,381
283,4	-2,705
283,9	-4,59
284,4	-6,876
284,8	-0,305
285,3	-3,99
285,8	0,895
286,2	-4,79
286,7	-2,276
287,1	4,552
287,6	6,238
288,1	2,724
288,5	4,667
289	6,667
289,5	10,41
289,9	9,181
290,4	3,695
290,8	2,752
291,3	4,295
291,8	1,467
292,2	1,381
292,7	2,067
293,1	6,067
293,6	5,838
294,1	8,21
294,5	7,381
295	9,667
295,5	4,267
295,9	-0,219
296,4	-2,79
296,8	0,038
297,3	-1,305
297,8	-0,905
298,2	-3,39
298,7	3,238
299,1	7,152
299,6	7,524
300,1	10,181
300,5	11,552
301	9,21
301,5	11,181
301,9	7,467
302,4	1,467
302,8	4,095
303,3	1,21
303,8	-4,962
304,2	-3,476
304,7	-1,676
305,1	-1,133
305,6	1,581
306,1	-0,762
306,5	-4,048
307	-3,848
307,4	-3,533
307,9	-3,762
308,4	-6,048
308,8	-1,162
309,3	1,781
309,8	7,667
310,2	10,467
310,7	11,81
311,1	9,781
311,6	9,21
312,1	5,238
312,5	4,667
313	-0,848
313,4	0,895
313,9	-1,162
314,4	3,552
314,8	8,867
315,3	9,924
315,7	11,867
316,2	15,524
316,7	9,838
317,1	11,724
317,6	10,61
318	7,781
318,5	10,152
319	11,181
319,4	4,667
319,9	9,381
320,3	7,667
320,8	4,981
321,3	5,838
321,7	3,067
322,2	-1,762
322,6	7,067
323,1	1,581
323,6	6,01
324	6,095
324,5	2,21
324,9	-0,133
325,4	4,724
325,9	-3,019
326,3	3,238
326,8	-0,562
327,2	1,238
327,7	2,21
328,2	4,552
328,6	1,295
329,1	4,467
329,5	3,724
330	4,495
330,5	5,495
330,9	7,695
331,4	5,495
331,8	4,01
332,3	6,381
332,8	8,238
333,2	5,61
333,7	6,352
334,1	2,267
334,6	9,181
335,1	11,724
335,5	11,724
336	8,867
336,4	15,41
336,9	10,61
337,4	17,552
337,8	17,21
338,3	15,181
338,7	14,438
339,2	12,61
339,7	7,438
340,1	10,495
340,6	5,552
341	-0,933
341,5	2,952
342	8,867
342,4	15,724
342,9	20,067
343,3	18,467
343,8	22,581
344,2	27,438
344,7	27,01
345,2	25,41
345,6	22,038
346,1	18,295
346,5	20,981
347	17,581
347,5	15,038
347,9	21,381
348,4	17,467
348,8	16,781
349,3	21,01
349,8	20,01
350,2	26,952
350,7	36,695
351,1	34,01
351,6	42,924
352	57,467
352,5	65,61
353	82,667
353,4	95,095
353,9	109,267
354,3	135,981
354,8	163,267
355,3	192,01
355,7	228,981
356,2	269,41
356,6	320,895
357,1	376,295
357,5	439,352
358	509,095
358,5	596,324
358,9	695,724
359,4	809,752
359,8	932,61
360,3	1082,867
360,8	1238,695
361,2	1414,495
361,7	1611,267
362,1	1826,295
362,6	2056,124
363	2309,752
363,5	2563,038
364	2833,41
364,4	3114,981
364,9	3393,381
365,3	3668,095
365,8	3925,981
366,3	4173,21
366,7	4402,438
367,2	4606,267
367,6	4773,552
368,1	4896,781
368,5	4980,267
369	5033,952
369,5	5033,181
369,9	4994,324
370,4	4914,124
370,8	4805,095
371,3	4666,81
371,7	4496,924
372,2	4309,581
372,7	4110,01
373,1	3894,524
373,6	3675,352
374	3445,41
374,5	3226,01
374,9	3007,438
375,4	2793,781
375,9	2584,152
376,3	2389,438
376,8	2203,581
377,2	2030,295
377,7	1858,124
378,2	1709,238
378,6	1566,61
379,1	1434,924
379,5	1313,552
380	1203,352
380,4	1101,724
380,9	1012,667
381,4	923,895
381,8	845,552
382,3	779,495
382,7	722,067
383,2	670,238
383,6	627,724
384,1	585,695
384,6	548,467
385	512,295
385,5	481,381
385,9	444,724
386,4	411,524
386,8	377,038
387,3	346,095
387,7	328,41
388,2	306,124
388,7	283,381
389,1	261,952
389,6	243,495
390	229,21
390,5	215,21
390,9	193,724
391,4	180,124
391,9	166,438
392,3	158,695
392,8	148,61
393,2	139,181
393,7	129,267
394,1	123,238
394,6	118,095
395,1	112,41
395,5	108,095
396	102,324
396,4	93,924
396,9	91,781
397,3	89,752
397,8	84,581
398,2	82,838
398,7	80,552
399,2	77,667
399,6	72,924
400,1	67,867
400,5	63,724
401	59,467
401,4	59,581
401,9	58,581
402,4	59,752
402,8	63,724
403,3	68,21
403,7	70,924
404,2	74,038
404,6	70,495
405,1	66,61
405,5	66,438
406	65,181
406,5	64,667
406,9	65,095
407,4	64,81
407,8	69,952
408,3	73,495
408,7	76,924
409,2	85,781
409,6	92,952
410,1	97,667
410,6	103,095
411	103,838
411,5	113,324
411,9	120,181
412,4	125,552
412,8	125,524
413,3	131,895
413,7	138,467
414,2	151,495
414,7	157,495
415,1	161,724
415,6	168,952
416	183,667
416,5	189,695
416,9	198,838
417,4	208,038
417,8	215,895
418,3	227,495
418,8	239,81
419,2	249,324
419,7	261,095
420,1	269,238
420,6	282,324
421	291,61
421,5	302,21
421,9	312,324
422,4	319,752
422,8	335,152
423,3	358,267
423,8	372,152
424,2	391,552
424,7	411,41
425,1	430,638
425,6	451,152
426	471,638
426,5	488,152
426,9	505,181
427,4	531,81
427,9	554,467
428,3	579,238
428,8	604,124
429,2	632,838
429,7	665,524
430,1	705,067
430,6	737,095
431	771,724
431,5	809,524
431,9	850,21
432,4	891,695
432,8	931,524
433,3	965,695
433,8	1014,467
434,2	1060,724
434,7	1106,581
435,1	1161,438
435,6	1209,295
436	1264,61
436,5	1325,952
436,9	1380,924
437,4	1440,667
437,8	1513,924
438,3	1582,952
438,8	1656,152
439,2	1732,238
439,7	1809,267
440,1	1886,781
440,6	1973,181
441	2053,038
441,5	2142,61
441,9	2231,41
442,4	2319,038
442,8	2412,181
443,3	2511,438
443,7	2611,524
444,2	2709,01
444,7	2811,867
445,1	2924,352
445,6	3041,695
446	3162,352
446,5	3280,695
446,9	3400,41
447,4	3534,61
447,8	3664,924
448,3	3794,295
448,7	3924,867
449,2	4061,981
449,6	4202,324
450,1	4346,267
450,6	4488,038
451	4631,752
451,5	4792,352
451,9	4952,581
452,4	5102,867
452,8	5272,524
453,3	5442,952
453,7	5608,095
454,2	5779,867
454,6	5940,695
455,1	6116,438
455,5	6304,152
456	6474,381
456,4	6648,981
456,9	6842,238
457,3	7037,695
457,8	7234,267
458,3	7425,638
458,7	7616,981
459,2	7816,667
459,6	8015,695
460,1	8216,981
460,5	8410,352
461	8618,152
461,4	8820,781
461,9	9021,552
462,3	9227,552
462,8	9439,295
463,2	9627,41
463,7	9841,781
464,1	10049,667
464,6	10258,01
465	10464,81
465,5	10659,752
466	10876,838
466,4	11091,781
466,9	11278,41
467,3	11473,181
467,8	11666,01
468,2	11882,124
468,7	12099,867
469,1	12286,781
469,6	12482,552
470	12695,752
470,5	12887,438
470,9	13086,238
471,4	13261,152
471,8	13445,124
472,3	13617,152
472,7	13795,695
473,2	13972,095
473,6	14145,238
474,1	14311,581
474,5	14485,124
475	14651,724
475,4	14828,095
475,9	15000,095
476,4	15159,924
476,8	15312,61
477,3	15465,095
477,7	15618,21
478,2	15743,638
478,6	15883,724
479,1	16010,495
479,5	16130,238
480	16243,238
480,4	16363,867
480,9	16458,352
481,3	16569,21
481,8	16662,61
482,2	16748,467
482,7	16827,81
483,1	16918,552
483,6	16983,524
484	17059,895
484,5	17127,581
484,9	17190,524
485,4	17254,438
485,8	17304,238
486,3	17360,467
486,7	17412,495
487,2	17446,324
487,6	17467,638
488,1	17481,895
488,5	17491,438
489	17501,152
489,4	17499,152
489,9	17495,21
490,4	17498,41
490,8	17494,581
491,3	17489,838
491,7	17459,038
492,2	17448,981
492,6	17414,924
493,1	17381,438
493,5	17335,61
494	17308,81
494,4	17249,038
494,9	17217,124
495,3	17159,238
495,8	17101,038
496,2	17032,41
496,7	16954,438
497,1	16883,438
497,6	16815,81
498	16741,41
498,5	16661,81
498,9	16589,21
499,4	16518,61
499,8	16453,924
500,3	16360,895
500,7	16290,552
501,2	16202,81
501,6	16112,781
502,1	16026,895
502,5	15927,61
503	15825,01
503,4	15732,438
503,9	15615,295
504,3	15507,41
504,8	15403,638
505,2	15293,552
505,7	15187,667
506,1	15083,124
506,6	14959,238
507	14849,752
507,5	14736,352
507,9	14621,41
508,4	14509,324
508,8	14384,867
509,3	14264,381
509,7	14152,495
510,2	14032,038
510,6	13907,581
511,1	13781,952
511,5	13640,924
512	13514,095
512,4	13384,238
512,9	13250,352
513,3	13116,352
513,8	12986,552
514,2	12849,838
514,7	12729,152
515,1	12617,695
515,6	12486,867
516	12353,124
516,5	12230,181
516,9	12107,667
517,4	11986,038
517,8	11856,295
518,3	11725,724
518,7	11603,095
519,2	11489,324
519,6	11359,752
520,1	11240,21
520,5	11117,61
521	10998,781
521,4	10873,552
521,9	10757,038
522,3	10637,952
522,8	10528,295
523,2	10391,495
523,7	10274,638
524,1	10161,095
524,6	10040,61
525	9917,267
525,5	9806,867
525,9	9692,952
526,4	9596,867
526,8	9490,095
527,3	9383,895
527,7	9287,495
528,2	9188,438
528,6	9081,267
529,1	8977,581
529,5	8879,695
530	8787,724
530,4	8685,752
530,9	8576,495
531,3	8482,752
531,8	8391,438
532,2	8303,781
532,6	8215,467
533,1	8115,981
533,5	8027,095
534	7941,067
534,4	7846,924
534,9	7756,867
535,3	7669,124
535,8	7579,581
536,2	7505,095
536,7	7420,667
537,1	7344,467
537,6	7273,238
538	7193,267
538,5	7117,295
538,9	7035,41
539,4	6954,667
539,8	6881,181
540,3	6814,667
540,7	6733,352
541,2	6665,467
541,6	6596,01
542,1	6524,838
542,5	6450,381
543	6390,067
543,4	6321,895
543,9	6261,752
544,3	6193,381
544,8	6127,352
545,2	6068,981
545,7	6012,01
546,1	5948,467
546,5	5885,752
547	5830,867
547,4	5774,667
547,9	5718,867
548,3	5667,324
548,8	5612,638
549,2	5561,238
549,7	5505,981
550,1	5452,867
550,6	5406,638
551	5353,752
551,5	5306,752
551,9	5257,467
552,4	5206,524
552,8	5164,124
553,3	5113,238
553,7	5063,381
554,2	5020,724
554,6	4971,838
555,1	4932,838
555,5	4885,01
555,9	4841,867
556,4	4799,01
556,8	4756,124
557,3	4712,124
557,7	4671,924
558,2	4634,638
558,6	4600,181
559,1	4559,924
559,5	4525,438
560	4486,095
560,4	4450,667
560,9	4419,352
561,3	4379,01
561,8	4339,867
562,2	4303,01
562,7	4266,924
563,1	4241,095
563,6	4217,524
564	4186,01
564,4	4151,438
564,9	4126,267
565,3	4097,667
565,8	4072,867
566,2	4035,324
566,7	3994,41
567,1	3955,724
567,6	3928,352
568	3894,552
568,5	3862,067
568,9	3825,752
569,4	3800,438
569,8	3779,152
570,3	3748,495
570,7	3716,267
571,1	3685,667
571,6	3660,067
572	3631,438
572,5	3603,495
572,9	3573,238
573,4	3547,81
573,8	3523,381
574,3	3502,067
574,7	3474,81
575,2	3457,067
575,6	3430,524
576,1	3404,867
576,5	3386,552
576,9	3363,467
577,4	3342,895
577,8	3325,267
578,3	3300,781
578,7	3276,81
579,2	3251,81
579,6	3227,667
580,1	3210,181
580,5	3187,152
581	3160,638
581,4	3132,067
581,9	3114,981
582,3	3094,781
582,7	3076,324
583,2	3051,467
583,6	3026,295
584,1	3007,924
584,5	2984,952
585	2965,695
585,4	2943,895
585,9	2919,152
586,3	2898,781
586,8	2879,752
587,2	2857,41
587,6	2845,924
588,1	2829,324
588,5	2816,181
589	2797,867
589,4	2781,238
589,9	2767,495
590,3	2748,267
590,8	2731,581
591,2	2714,924
591,7	2692,295
592,1	2682,152
592,5	2671,495
593	2651,752
593,4	2639,838
593,9	2629,467
594,3	2609,267
594,8	2595,21
595,2	2584,124
595,7	2565,752
596,1	2549,352
596,6	2532,095
597	2513,295
597,4	2502,295
597,9	2494,181
598,3	2474,524
598,8	2460,41
599,2	2449,724
599,7	2440,524
600,1	2425,267
600,6	2404,352
601	2388,124
601,4	2381,895
601,9	2373,61
602,3	2359,21
602,8	2341,467
603,2	2337,895
603,7	2331,581
604,1	2319,638
604,6	2299,895
605	2284,095
605,4	2266,81
605,9	2257,524
606,3	2239,295
606,8	2226,638
607,2	2217,381
607,7	2204,695
608,1	2189,638
608,6	2184,181
609	2172,324
609,4	2155,267
609,9	2150,895
610,3	2133,352
610,8	2121,581
611,2	2109,895
611,7	2093,81
612,1	2081,61
612,6	2075,21
613	2051,924
613,4	2042,01
613,9	2028,924
614,3	2014,124
614,8	2006,524
615,2	1998,438
615,7	1984,552
616,1	1973,095
616,6	1961,724
617	1956,352
617,4	1946,781
617,9	1936,152
618,3	1925,038
618,8	1910,638
619,2	1901,952
619,7	1892,495
620,1	1876,724
620,5	1862,152
621	1847,524
621,4	1830,752
621,9	1821,924
622,3	1809,152
622,8	1797,638
623,2	1783,352
623,6	1778,667
624,1	1762,695
624,5	1750,581
625	1740,038
625,4	1730,61
625,9	1711,895
626,3	1700,81
626,8	1694,581
627,2	1689,01
627,6	1680,895
628,1	1668,724
628,5	1656,495
629	1650,752
629,4	1642,038
629,9	1627,638
630,3	1613,895
630,7	1599,81
631,2	1588,924
631,6	1576,695
632,1	1565,01
632,5	1550,381
633	1540,267
633,4	1532,324
633,8	1523,552
634,3	1508,952
634,7	1498,981
635,2	1490,552
635,6	1484,467
636,1	1470,581
636,5	1463,01
636,9	1450,781
637,4	1447,038
637,8	1434,781
638,3	1423,41
638,7	1414,267
639,2	1404,581
639,6	1395,438
640	1393,838
640,5	1385,124
640,9	1377,41
641,4	1372,61
641,8	1364,552
642,2	1356,352
642,7	1350,924
643,1	1340,267
643,6	1328,524
644	1327,695
644,5	1321,352
644,9	1313,124
645,3	1304,01
645,8	1293,467
646,2	1280,352
646,7	1272,352
647,1	1264,01
647,6	1250,81
648	1237,724
648,4	1237,124
648,9	1229,524
649,3	1227,867
649,8	1224,924
650,2	1215,181
650,6	1207,638
651,1	1208,781
651,5	1196,181
652	1190,067
652,4	1180,067
652,9	1174,838
653,3	1168,781
653,7	1163,495
654,2	1154,01
654,6	1145,238
655,1	1130,724
655,5	1122,752
655,9	1110,467
656,4	1100,61
656,8	1094,067
657,3	1087,381
657,7	1078,067
658,2	1075,152
658,6	1071,295
659	1066,667
659,5	1055,095
659,9	1047,152
660,4	1040,81
660,8	1039,695
661,2	1033,838
661,7	1023,867
662,1	1018,038
662,6	1015,667
663	1009,838
663,4	999,095
663,9	989,495
664,3	985,81
664,8	981,81
665,2	969,781
665,6	965,21
666,1	957,495
666,5	950,324
667	944,381
667,4	935,095
667,9	925,038
668,3	926,324
668,7	919,381
669,2	914,924
669,6	911,895
670,1	905,695
670,5	896,238
670,9	893,067
671,4	880,952
671,8	872,638
672,3	862,981
672,7	853,152
673,1	846,524
673,6	838,495
674	829,124
674,5	822,981
674,9	817,352
675,3	813,838
675,8	811,267
676,2	804,952
676,7	803,781
677,1	798,81
677,5	791,495
678	784,467
678,4	775,495
678,9	771,295
679,3	764,495
679,7	757,267
680,2	754,381
680,6	749,695
681,1	746,952
681,5	742,324
681,9	735,067
682,4	732,581
682,8	729,581
683,3	720,01
683,7	718,81
684,1	711,61
684,6	706,981
685	699,124
685,5	694,638
685,9	689,038
686,3	690,467
686,8	679,124
687,2	676,381
687,7	672,581
688,1	669,524
688,5	663,581
689	660,01
689,4	651,952
689,9	654,524
690,3	649,152
690,7	642,695
691,2	638,895
691,6	634,952
692	629,267
692,5	625,41
692,9	616,067
693,4	611,124
693,8	602,61
694,2	597,895
694,7	593,124
695,1	590,21
695,6	587,981
696	583,895
696,4	577,095
696,9	580,381
697,3	571,467
697,8	570,667
698,2	561,21
698,6	558,552
699,1	557,952
699,5	555,467
699,9	549,952
700,4	551,552
700,8	542,067
701,3	543,895
701,7	533,924
702,1	526,495
702,6	524,21
703	521,41
703,5	518,238
703,9	518,438
704,3	512,952
704,8	505,81
705,2	504,21
705,6	498,467
706,1	493,924
706,5	486,81
707	481,924
707,4	479,838
707,8	478,924
708,3	476,895
708,7	474,181
709,2	466,981
709,6	462,267
710	460,181
710,5	455,61
710,9	453,381
711,3	447,924
711,8	446,61
712,2	444,895
712,7	444,724
713,1	438,924
713,5	436,238
714	432,438
714,4	427,238
714,8	422,21
715,3	423,295
715,7	416,238
716,2	411,781
716,6	408,781
717	402,21
717,5	401,467
717,9	397,267
718,3	389,552
718,8	392,752
719,2	386,838
719,7	382,295
720,1	382,552
720,5	379,81
721	375,267
721,4	374,324
721,8	369,781
722,3	370,095
722,7	365,438
723,2	362,752
723,6	357,324
724	353,724
724,5	351,01
724,9	346,038
725,3	344,21
725,8	343,352
726,2	337,867
726,7	337,238
727,1	338,324
727,5	333,095
728	331,552
728,4	329,295
728,8	323,581
729,3	324,581
729,7	319,667
730,1	320,038
730,6	319,295
731	316,781
731,5	315,952
731,9	319,695
732,3	316,81
732,8	317,352
733,2	315,152
733,6	316,638
734,1	314,352
734,5	308,638
734,9	301,695
735,4	296,81
735,8	294,295
736,3	290,267
736,7	288,81
737,1	291,238
737,6	292,238
738	294,438
738,4	296,495
738,9	300,752
739,3	300,295
739,7	303,324
740,2	301,552
740,6	299,924
741,1	295,895
741,5	293,61
741,9	283,752
742,4	277,924
742,8	267,181
743,2	258,981
743,7	258,581
744,1	261,752
744,5	256,867
745	260,381
745,4	258,781
745,8	262,152
746,3	265,267
746,7	265,61
747,2	255,838
747,6	260,981
748	255,067
748,5	255,01
748,9	249,181
749,3	248,495
749,8	244,638
750,2	244,781
750,6	242,067
751,1	241,81
751,5	241,667
751,9	240,981
752,4	236,124
752,8	231,21
753,3	233,324
753,7	228,41
754,1	229,781
754,6	228,695
755	229,295
755,4	227,324
755,9	224,438
756,3	223,638
756,7	221,352
757,2	215,038
757,6	211,781
758	207,238
758,5	206,467
758,9	206,267
759,3	204,581
759,8	202,467
760,2	201,924
760,6	199,552
761,1	196,295
761,5	196,867
761,9	196,467
762,4	190,924
762,8	193,267
763,3	191,581
763,7	185,552
764,1	185,352
764,6	180,667
765	181,467
765,4	178,924
765,9	173,41
766,3	174,152
766,7	180,152
767,2	183,152
767,6	190,867
768	189,581
768,5	192,81
768,9	194,952
769,3	195,067
769,8	192,924
770,2	190,181
770,6	176,981
771,1	174,095
771,5	170,752
771,9	170,667
772,4	168,267
772,8	163,038
773,2	159,781
773,7	163,61
774,1	161,438
774,5	166,295
775	168,495
775,4	170,924
775,8	174,81
776,3	174,238
776,7	173,01
777,1	173,867
777,6	167,867
778	162,181
778,4	156,038
778,9	155,638
779,3	151,695
779,7	154,438
780,2	152,495
780,6	150,067
781	149,238
781,5	149,695
781,9	148,895
782,3	151,038
782,8	146,352
783,2	145,61
783,6	147,295
784,1	145,838
784,5	141,495
784,9	134,981
785,4	134,124
785,8	137,467
786,2	140,295
786,7	136,895
787,1	136,038
787,5	138,867
788	145,324
788,4	142,638
788,8	138,41
789,3	133,781
789,7	139,295
790,1	135,924
790,6	133,724
791	132,152
791,4	133,438
791,9	133,752
792,3	132,781
792,7	127,695
793,2	132,895
793,6	134,781
794	131,352
794,5	131,695
794,9	130,295
795,3	129,867
795,8	131,638
796,2	127,095
796,6	123,781
797,1	125,267
797,5	122,152
797,9	118,01
798,4	115,438
798,8	112,21
799,2	116,41
799,7	119,41
800,1	118,952
800,5	116,895
801	117,324
801,4	120,181
801,8	119,181
802,2	116,467
802,7	113,295
803,1	111,038
803,5	111,067
804	111,724
804,4	105,467
804,8	103,467
805,3	101,724
805,7	100,752
806,1	96,981
806,6	100,838
807	104,095
807,4	109,038
807,9	108,924
808,3	105,038
808,7	100,838
809,2	104,981
809,6	101,695
810	97,095
810,4	92,295
810,9	91,267
811,3	91,467
811,7	95,552
812,2	97,352
812,6	94,838
813	94,067
813,5	93,695
813,9	96,152
814,3	97,324
814,8	99,21
815,2	91,81
815,6	92,21
816,1	87,867
816,5	93,067
816,9	83,924
817,3	81,267
817,8	75,438
818,2	78,01
818,6	76,267
819,1	79,324
819,5	77,41
819,9	81,924
820,4	84,21
820,8	85,895
821,2	80,867
821,7	81,152
822,1	79,667
822,5	79,038
822,9	80,61
823,4	77,01
823,8	74,152
824,2	76,152
824,7	74,667
825,1	77,21
825,5	73,695
826	74,41
826,4	78,238
826,8	71,01
827,3	71,124
827,7	73,952
828,1	69,324
828,5	68,495
829	60,61
829,4	57,295
829,8	66,638
830,3	65,838
830,7	63,238
831,1	66,352
831,6	66,295
832	69,524
832,4	67,752
832,8	66,781
833,3	67,181
833,7	63,61
834,1	62,752
834,6	60,638
835	61,01
835,4	69,724
835,8	66,552
836,3	66,152
836,7	67,324
837,1	61,21
837,6	60,667
838	57,895
838,4	42,695
838,9	41,238
839,3	44,324
839,7	45,181
840,1	49,495
840,6	49,438
841	55,095
841,4	60,61
841,9	59,952
842,3	57,381
842,7	59,467
843,1	58,81
843,6	62,581
844	59,924
844,4	61,495
844,9	62,181
845,3	58,895
845,7	60,267
846,2	58,838
846,6	54,81
847	52,267
847,4	47,152
847,9	46,324
848,3	45,981
848,7	41,238
849,2	39,667
849,6	42,352
850	37,181
850,4	45,781
850,9	47,495
851,3	46,581
851,7	47,381
852,2	49,924
852,6	45,267
853	53,552
853,4	47,238
853,9	52,667
854,3	54,438
854,7	51,324
855,2	48,524
855,6	54,267
856	50,552
856,4	51,295
856,9	47,581
857,3	46,695
857,7	49,724
858,2	48,895
858,6	40,581
859	43,638
859,4	44,381
859,9	41,781
860,3	42,152
860,7	41,095
861,1	43,038
861,6	49,81
862	48,81
862,4	47,838
862,9	43,467
863,3	43,267
863,7	42,838
864,1	42,295
864,6	43,924
865	44,495
865,4	41,695
865,9	45,181
866,3	42,895
866,7	41,295
867,1	43,295
867,6	34,438
868	28,524
868,4	28,152
868,8	28,581
869,3	28,61
869,7	30,581
870,1	26,524
870,6	30,295
871	60,381
871,4	64,467
871,8	61,467
872,3	57,438
872,7	53,067
873,1	52,552
873,5	50,838
874	23,667
874,4	19,752
874,8	17,981
875,3	26,124
875,7	27,438
876,1	28,752
876,5	28,724
877	28,038
877,4	29,095
877,8	30,895
878,2	23,838
878,7	28,124
879,1	26,952
879,5	27,381
879,9	20,324
880,4	18,21
880,8	16,352
881,2	19,838
881,7	17,21
882,1	20,124
882,5	21,152
882,9	28,01
883,4	30,01
883,8	28,552
884,2	26,038
884,6	25,581
885,1	19,038
885,5	20,038
885,9	16,581
886,3	12,41
886,8	14,095
887,2	15,381
887,6	13,895
888	23,781
888,5	20,724
888,9	21,781
889,3	24,924
889,8	26,381
890,2	24,095
890,6	24,21
891	22,01
891,5	18,295
891,9	18,038
892,3	11,952
892,7	11,581
893,2	13,495
893,6	13,238
894	5,695
894,4	12,181
894,9	9,238
895,3	16,581
895,7	17,295
896,1	10,324
896,6	10,067
897	12,838
897,4	10,267
897,8	12,838
898,3	7,867
898,7	3,867
899,1	10,267
899,5	8,438
900	10,981
900,4	12,181
900,8	12,981
901,2	16,495
901,7	20,981
902,1	24,752
902,5	24,267
902,9	22,524
903,4	18,752
903,8	20,381
904,2	16,638
904,6	15,552
905,1	10,638
905,5	13,867
905,9	13,41
906,3	10,752
906,8	8,81
907,2	10,124
907,6	8,524
908	8,724
908,5	10,21
908,9	8,467
909,3	11,924
909,7	13,267
910,2	17,61
910,6	18,267
911	19,552
911,4	14,095
911,9	12,81
912,3	14,781
912,7	14,295
913,1	11,724
913,6	12,01
914	10,952
914,4	10,038
914,8	11,41
915,3	13,667
915,7	10,352
916,1	13,152
916,5	11,295
916,9	14,752
917,4	16,438
917,8	17,667
918,2	14,095
918,6	18,581
919,1	12,867
919,5	13,752
919,9	11,038
920,3	12,867
920,8	14,724
921,2	14,838
921,6	13,895
922	18,495
922,5	19,181
922,9	18,238
923,3	20,895
923,7	14,067
924,2	12,952
924,6	11,581
925	11,952
925,4	12,638
925,8	10,581
926,3	6,381
926,7	15,781
927,1	18,267
927,5	18,524
928	15,895
928,4	16,495
928,8	17,21
929,2	20,21
929,7	12,695
930,1	8,524
930,5	10,81
930,9	13,61
931,3	13,952
931,8	17,095
932,2	18,838
932,6	23,067
933	23,952
933,5	22,695
933,9	18,724
934,3	14,667
934,7	13,238
935,2	6,867
935,6	2,81
936	4,667
936,4	-1,333
936,8	-0,448
937,3	6,152
937,7	3,038
938,1	6,324
938,5	5,267
939	6,438
939,4	12,895
939,8	19,124
940,2	14,895
940,6	19,381
941,1	16,667
941,5	22,495
941,9	17,895
942,3	13,838
942,8	6,238
943,2	4,752
943,6	5,867
944	3,867
944,4	-1,019
944,9	1,038
945,3	-1,048
945,7	5,238
946,1	5,495
946,6	3,01
947	6,152
947,4	7,838
947,8	4,21
948,2	9,752
948,7	2,638
949,1	3,495
949,5	6,552
949,9	5,724
950,3	6,295
950,8	8,924
951,2	3,61
951,6	9,267
952	11,524
952,5	5,867
952,9	9,238
953,3	6,581
953,7	6,667
954,1	11,867
954,6	5,695
955	4,352
955,4	7,152
955,8	5,552
956,2	6,895
956,7	14,41
957,1	12,667
957,5	10,581
957,9	10,667
958,3	6,924
958,8	6,638
959,2	5,438
959,6	1,895
960	8,038
960,5	12,638
960,9	13,895
961,3	16,095
961,7	14,838
962,1	14,41
962,6	14,21
963	12,724
963,4	14,524
963,8	11,867
964,2	10,038
964,7	8,724
965,1	16,152
965,5	10,238
965,9	5,781
966,3	4,352
966,8	5,467
967,2	7,152
967,6	9,467
968	3,01
968,4	6,324
968,9	7,61
969,3	3,552
969,7	5,124
970,1	3,438
970,5	6,352
971	6,095
971,4	5,838
971,8	-0,248
972,2	3,438
972,6	1,324
973,1	2,895
973,5	-0,133
973,9	-0,819
974,3	-2,619
974,7	-1,448
975,2	-3,448
975,6	-4,676
976	-5,305
976,4	-6,362
976,8	-1,105
977,3	3,352
977,7	3,352
978,1	6,581
978,5	7,924
978,9	8,638
979,4	5,895
979,8	2,124
980,2	-0,848
980,6	3,267
981	3,267
981,5	-2,333
981,9	-2,79
982,3	2,038
982,7	-1,019
983,1	-0,848
983,6	-0,762
984	-1,219
984,4	9,895
984,8	12,81
985,2	11,924
985,6	12,895
986,1	12,152
986,5	13,381
986,9	10,181
987,3	6,267
987,7	6,038
988,2	5,267
988,6	7,467
989	8,552
989,4	5,352
989,8	6,495
990,3	3,495
990,7	4,238
991,1	0,752
991,5	5,267
991,9	7,61
992,3	8,724
992,8	5,724
993,2	5,752
993,6	1,695
994	10,181
994,4	7,781
994,9	8,81
995,3	11,352
995,7	16,581
996,1	17,895
996,5	16,695
996,9	12,667
997,4	9,695
997,8	8,867
998,2	2,581
998,6	-2,162
999	-4,276
999,5	-2,79
999,9	-1,676
1000,3	-4,105
1000,7	-4,99
1001,1	-1,276
1001,5	-2,762
1002	-1,819
1002,4	-2,133
1002,8	-4,419
1003,2	-3,848
1003,6	-3,648
1004	-3,619
1004,5	2,352
1004,9	2,01
1005,3	1,924
1005,7	3,095
1006,1	5,41
1006,6	3,924
1007	1,495
1007,4	-1,048
1007,8	1,238
1008,2	5,524
1008,6	6,067
1009,1	7,552
1009,5	7,267
1009,9	8,61
1010,3	6,095
1010,7	4,781
1011,1	-0,705
1011,6	3,21
1012	5,524
1012,4	3,552
1012,8	5,41
1013,2	7,295
1013,6	7,438
1014,1	7,41
1014,5	0,867
1014,9	1,181
1015,3	3,81
1015,7	2,638
1016,1	6,81
1016,6	8,41
1017	14,21
1017,4	17,067
1017,8	18,067
1018,2	14,581
1018,6	14,238
1019,1	12,495
1019,5	12,267
1019,9	6,438
1020,3	1,495
1020,7	-7,876
1021,1	-8,048
1021,6	-4,619
1022	-4,276
1022,4	-6,219
1022,8	-7,533
1023,2	-0,962
1023,6	4,238
1024,1	8,952
1024,5	1,867
1024,9	2,867
1025,3	1,895
1025,7	8,438
1026,1	5,524
1026,6	4,581
1027	6,581
1027,4	8,867
1027,8	12,61
1028,2	15,524
1028,6	10,267
1029	10,524
1029,5	5,495
1029,9	-2,619
1030,3	-2,59
1030,7	-6,219
1031,1	-8,448
1031,5	-5,448
1032	-5,19
1032,4	0,267
1032,8	7,152
1033,2	11,181
1033,6	9,352
1034	8,952
1034,4	9,381
1034,9	8,981
1035,3	10,181
1035,7	9,438
1036,1	9,01
1036,5	7,752
1036,9	11,695
1037,4	13,21
1037,8	15,581
1038,2	17,695
1038,6	17,695
1039	14,495
1039,4	16,41
1039,8	14,981
1040,3	15,41
1040,7	8,41
1041,1	2,495
1041,5	-1,362
1041,9	2,581
1042,3	1,952
1042,7	1,067
1043,2	-1,362
1043,6	-2,562
1044	-1,219
1044,4	6,181
1044,8	3,21
1045,2	-0,848
1045,6	-0,676
1046,1	-2,99
1046,5	4,867
1046,9	5,01
1047,3	-1,019
1047,7	1,695
1048,1	4,924
1048,5	3,981
1049	7,838
1049,4	8,41
1049,8	6,81
1050,2	6,067
1050,6	3,41
1051	4,724
1051,4	5,181
1051,9	0,981
1052,3	-2,248
1052,7	-1,505
1053,1	0,667
1053,5	-2,162
1053,9	-5,276
1054,3	-6,476
1054,8	0,781
1055,2	0,495
1055,6	3,21
1056	1,381
1056,4	8,81
1056,8	13,467
1057,2	13,867
1057,6	0,495
1058,1	0,781
1058,5	-2,59
1058,9	1,152
1059,3	2,352
1059,7	3,038
1060,1	4,352
1060,5	13,924
1061	16,867
1061,4	18,838
1061,8	20,924
1062,2	15,981
1062,6	5,124
1063	3,724
1063,4	2,895
1063,8	-2,79
1064,3	-1,848
1064,7	-4,848
1065,1	-3,219
1065,5	4,181
1065,9	7,238
1066,3	5,438
1066,7	9,667
1067,1	10,067
1067,6	10,581
1068	8,124
1068,4	9,21
1068,8	3,124
1069,2	3,752
1069,6	0,952
1070	-0,59
1070,4	-0,076
1070,9	-1,419
1071,3	-0,962
1071,7	6,752
1072,1	7,667
1072,5	10,752
1072,9	13,61
1073,3	9,267
1073,7	11,638
1074,2	13,667
1074,6	5,924
1075	6,095
1075,4	8,695
1075,8	3,524
1076,2	9,095
1076,6	7,181
1077	2,152
1077,5	6,152
1077,9	4,781
1078,3	0,61
1078,7	3,695
1079,1	-2,562
1079,5	0,438
1079,9	3,724
1080,3	-0,076
1080,7	1,381
1081,2	0,41
1081,6	0,095
1082	0,21
1082,4	-3,39
1082,8	-3,79
1083,2	-1,962
1083,6	-4,562
1084	-0,562
1084,5	-3,819
1084,9	-3,819
1085,3	-6,105
1085,7	-9,248
1086,1	-5,562
1086,5	-6,39
1086,9	-9,19
1087,3	-4,733
1087,7	-4,105
1088,2	-0,162
1088,6	3,638
1089	-0,019
1089,4	-1,19
1089,8	1,467
1090,2	-2,133
1090,6	-1,419
1091	2,41
1091,4	0,61
1091,9	0,467
1092,3	7,152
1092,7	-0,533
1093,1	6,238
1093,5	6,21
1093,9	5,038
1094,3	6,695
1094,7	11,867
1095,1	12,21
1095,5	21,238
1096	19,038
1096,4	21,524
1096,8	17,838
1097,2	18,867
1097,6	15,438
1098	13,724
1098,4	8,867
1098,8	5,61
1099,2	2,152
1099,6	6,152
1100,1	5,467
1100,5	10,124
1100,9	6,324
1101,3	3,267
1101,7	5,038
1102,1	6,667
1102,5	4,981
1102,9	5,61
1103,3	-2,19
1103,7	0,867
1104,2	5,781
1104,6	4,438
1105	5,181
1105,4	1,952
1105,8	-1,248
1106,2	1,61
1106,6	0,667
1107	-0,619
1107,4	-0,1
1107,8	-1,853
1108,3	0,167
