Data from Subt2_264.txt Node
Date: Sat Aug 26 19:02:08 MSK 2023
User: vat
Spectrometer: MAYP114033
Trigger mode: 0
Integration Time (sec): 1,000000E0
Scans to average: 5
Electric dark correction enabled: true
Nonlinearity correction enabled: false
Boxcar width: 3
XAxis mode: Wavelengths
Number of Pixels in Spectrum: 2068
>>>>>Begin Spectral Data<<<<<
199,4	-0,667
199,9	-1,747
200,4	-1,967
200,8	-0,695
201,3	-2,381
201,8	-1,324
202,2	-3,21
202,7	1,419
203,2	2,848
203,6	-0,01
204,1	-3,181
204,6	-2,581
205	-2,01
205,5	-0,552
206	-3,267
206,4	-1,981
206,9	-0,01
207,4	2,076
207,8	5,105
208,3	3,362
208,8	1,333
209,2	3,705
209,7	6,048
210,2	8,105
210,6	11,248
211,1	11,819
211,5	11,876
212	16,105
212,5	12,648
212,9	8,619
213,4	9,448
213,9	4,933
214,3	3,19
214,8	4,676
215,3	4,276
215,7	5,562
216,2	5,648
216,7	8,419
217,1	6,648
217,6	6,133
218,1	2,676
218,5	0,733
219	-4,238
219,5	-2,695
219,9	-7,924
220,4	2,876
220,9	0,733
221,3	4,733
221,8	6,048
222,3	9,219
222,7	9,276
223,2	9,705
223,6	3,019
224,1	3,848
224,6	3,362
225	1,276
225,5	-0,924
226	-1,21
226,4	0,505
226,9	1,019
227,4	4,362
227,8	-0,552
228,3	4,162
228,8	5,962
229,2	9,219
229,7	11,876
230,2	13,076
230,6	18,619
231,1	26,419
231,5	17,962
232	20,933
232,5	18,59
232,9	16,648
233,4	15,562
233,9	7,848
234,3	3,733
234,8	9,733
235,3	7,133
235,7	7,705
236,2	8,733
236,7	8,362
237,1	8,648
237,6	8,362
238,1	5,448
238,5	5,676
239	5,648
239,4	7,133
239,9	6,905
240,4	9,162
240,8	11,876
241,3	16,133
241,8	17,076
242,2	13,79
242,7	8,676
243,2	10,99
243,6	6,676
244,1	8,962
244,6	7,962
245	6,019
245,5	6,99
245,9	5,248
246,4	5,962
246,9	11,076
247,3	8,162
247,8	6,39
248,3	11,219
248,7	12,305
249,2	18,19
249,7	16,248
250,1	17,19
250,6	17,876
251	21,476
251,5	16,619
252	14,019
252,4	14,819
252,9	11,305
253,4	6,733
253,8	4,276
254,3	2,619
254,8	1,19
255,2	-0,295
255,7	-6,01
256,1	-4,752
256,6	-3,21
257,1	0,419
257,5	-3,638
258	-3,638
258,5	-1,381
258,9	2,562
259,4	3,905
259,9	0,19
260,3	-6,067
260,8	-7,638
261,2	-6,552
261,7	-0,495
262,2	-6,067
262,6	-10,41
263,1	-2,924
263,6	0,733
264	3,533
264,5	6,819
264,9	1,305
265,4	5,933
265,9	6,305
266,3	5,676
266,8	7,933
267,3	7,505
267,7	4,39
268,2	2,019
268,7	-2,01
269,1	5,505
269,6	0,848
270	0,39
270,5	0,819
271	3,905
271,4	7,333
271,9	9,276
272,4	8,419
272,8	8,848
273,3	7,076
273,7	8,59
274,2	8,705
274,7	8,419
275,1	9,733
275,6	7,59
276,1	4,048
276,5	10,419
277	8,419
277,4	10,39
277,9	12,905
278,4	13,562
278,8	14,19
279,3	18,19
279,8	16,39
280,2	18,79
280,7	16,476
281,1	13,79
281,6	12,819
282,1	11,448
282,5	12,19
283	9,362
283,4	9,99
283,9	9,419
284,4	11,533
284,8	13,019
285,3	12,19
285,8	13,162
286,2	11,105
286,7	9,59
287,1	8,905
287,6	5,762
288,1	1,762
288,5	5,076
289	0,619
289,5	1,619
289,9	1,305
290,4	1,533
290,8	1,99
291,3	5,219
291,8	3,476
292,2	4,362
292,7	7,533
293,1	6,048
293,6	4,276
294,1	7,505
294,5	5,276
295	7,962
295,5	8,048
295,9	6,39
296,4	6,162
296,8	8,59
297,3	4,19
297,8	1,448
298,2	-1,295
298,7	5,648
299,1	2,59
299,6	4,962
300,1	4,533
300,5	6,79
301	9,876
301,5	14,362
301,9	11,476
302,4	7,39
302,8	8,762
303,3	9,448
303,8	4,962
304,2	6,562
304,7	2,333
305,1	-1,124
305,6	3,733
306,1	6,19
306,5	4,99
307	12,648
307,4	15,133
307,9	15,362
308,4	10,619
308,8	5,448
309,3	4,362
309,8	2,219
310,2	-0,752
310,7	-0,81
311,1	0,876
311,6	4,133
312,1	11,076
312,5	10,162
313	11,562
313,4	10,133
313,9	9,533
314,4	5,619
314,8	6,39
315,3	5,019
315,7	0,705
316,2	-1,638
316,7	0,219
317,1	2,819
317,6	4,019
318	11,133
318,5	12,048
319	14,305
319,4	18,248
319,9	17,248
320,3	12,676
320,8	11,048
321,3	7,533
321,7	9,333
322,2	7,248
322,6	6,819
323,1	5,99
323,6	4,676
324	5,848
324,5	3,105
324,9	-0,41
325,4	2,533
325,9	5,048
326,3	6,276
326,8	8,762
327,2	2,59
327,7	1,648
328,2	2,505
328,6	5,362
329,1	-0,095
329,5	-1,695
330	-2,952
330,5	6,59
330,9	10,076
331,4	12,99
331,8	11,448
332,3	14,362
332,8	16,619
333,2	17,705
333,7	20,162
334,1	20,019
334,6	14,733
335,1	8,676
335,5	10,933
336	4,648
336,4	4,133
336,9	3,962
337,4	7,019
337,8	9,476
338,3	14,276
338,7	15,162
339,2	20,933
339,7	24,505
340,1	18,362
340,6	16,619
341	15,533
341,5	12,048
342	9,248
342,4	8,448
342,9	1,39
343,3	4,962
343,8	4,362
344,2	5,419
344,7	13,648
345,2	13,448
345,6	14,505
346,1	18,305
346,5	13,876
347	13,276
347,5	13,705
347,9	12,762
348,4	12,962
348,8	11,19
349,3	13,133
349,8	10,362
350,2	14,476
350,7	11,876
351,1	8,619
351,6	10,448
352	15,476
352,5	16,019
353	32,333
353,4	38,619
353,9	48,305
354,3	58,248
354,8	65,476
355,3	79,219
355,7	92,705
356,2	105,676
356,6	119,219
357,1	142,962
357,5	166,562
358	203,733
358,5	231,819
358,9	269,276
359,4	303,819
359,8	348,305
360,3	399,333
360,8	452,648
361,2	510,648
361,7	583,705
362,1	667,39
362,6	754,676
363	848,048
363,5	940,762
364	1046,333
364,4	1146,133
364,9	1248,276
365,3	1347,419
365,8	1444,362
366,3	1531,705
366,7	1615,419
367,2	1685,276
367,6	1741,362
368,1	1789,733
368,5	1814,048
369	1823,505
369,5	1822,876
369,9	1808,819
370,4	1782,333
370,8	1745,905
371,3	1693,848
371,7	1635,933
372,2	1573,305
372,7	1503,476
373,1	1427,362
373,6	1342,99
374	1262,162
374,5	1173,676
374,9	1089,619
375,4	1008,533
375,9	930,105
376,3	855,733
376,8	788,362
377,2	726,533
377,7	670,79
378,2	616,476
378,6	564,819
379,1	520,105
379,5	477,819
380	443,79
380,4	402,276
380,9	365,876
381,4	336,876
381,8	314,276
382,3	291,705
382,7	272,048
383,2	253,105
383,6	236,848
384,1	222,448
384,6	211,962
385	193,648
385,5	179,562
385,9	162,648
386,4	147,076
386,8	142,876
387,3	133,019
387,7	121,476
388,2	119,39
388,7	109,305
389,1	106,79
389,6	99,619
390	90,876
390,5	88,39
390,9	85,79
391,4	82,79
391,9	79,99
392,3	75,505
392,8	70,19
393,2	63,762
393,7	58,39
394,1	52,933
394,6	46,962
395,1	48,819
395,5	47,048
396	51,19
396,4	53,762
396,9	50,733
397,3	51,99
397,8	54,076
398,2	48,448
398,7	41,962
399,2	37,848
399,6	35,076
400,1	39,448
400,5	32,762
401	29,162
401,4	26,333
401,9	31,448
402,4	32,619
402,8	30,876
403,3	32,048
403,7	32,819
404,2	36,619
404,6	39,819
405,1	37,762
405,5	35,762
406	32,705
406,5	26,105
406,9	29,762
407,4	26,476
407,8	28,905
408,3	30,162
408,7	28,79
409,2	35,019
409,6	40,39
410,1	44,476
410,6	47,59
411	45,705
411,5	44,905
411,9	50,533
412,4	53,819
412,8	55,019
413,3	54,562
413,7	54,79
414,2	57,99
414,7	68,705
415,1	75,219
415,6	75,448
416	79,962
416,5	79,876
416,9	80,933
417,4	86,619
417,8	89,048
418,3	90,076
418,8	96,476
419,2	94,905
419,7	95,59
420,1	96,248
420,6	95,562
421	89,962
421,5	90,562
421,9	85,362
422,4	86,39
422,8	85,505
423,3	86,99
423,8	86,505
424,2	84,733
424,7	79,362
425,1	82,133
425,6	83,19
426	84,105
426,5	84,39
426,9	85,19
427,4	82,19
427,9	80,162
428,3	81,019
428,8	73,19
429,2	73,305
429,7	69,362
430,1	64,819
430,6	65,819
431	68,762
431,5	68,448
431,9	68,448
432,4	70,533
432,8	72,79
433,3	78,105
433,8	80,99
434,2	84,648
434,7	84,762
435,1	90,562
435,6	91,419
436	96,79
436,5	99,848
436,9	97,505
437,4	96,59
437,8	100,676
438,3	105,705
438,8	109,276
439,2	112,39
439,7	116,476
440,1	125,933
440,6	133,276
441	134,19
441,5	135,219
441,9	141,39
442,4	142,39
442,8	141,962
443,3	149,905
443,7	152,076
444,2	160,19
444,7	168,99
445,1	176,39
445,6	183,476
446	191,619
446,5	192,733
446,9	198,505
447,4	204,562
447,8	214,59
448,3	222,733
448,7	233,105
449,2	243,419
449,6	257,219
450,1	264,819
450,6	281,505
451	291,99
451,5	301,819
451,9	315,162
452,4	329,39
452,8	341,676
453,3	359,19
453,7	364,276
454,2	374,505
454,6	386,505
455,1	395,905
455,5	405,905
456	423,162
456,4	432,048
456,9	447,876
457,3	460,19
457,8	469,133
458,3	486,619
458,7	499,648
459,2	510,562
459,6	526,733
460,1	541,333
460,5	556,419
461	581,762
461,4	588,219
461,9	606,362
462,3	622,619
462,8	640,419
463,2	655,619
463,7	677,219
464,1	692,333
464,6	719,876
465	738,105
465,5	755,99
466	776,219
466,4	799,305
466,9	821,39
467,3	841,562
467,8	863,619
468,2	883,305
468,7	905,905
469,1	928,505
469,6	946,39
470	963,533
470,5	980,733
470,9	994,876
471,4	1014,362
471,8	1030,305
472,3	1051,79
472,7	1071,219
473,2	1090,476
473,6	1108,105
474,1	1132,705
474,5	1150,733
475	1174,162
475,4	1191,848
475,9	1215,762
476,4	1235,876
476,8	1261,733
477,3	1282,876
477,7	1308,419
478,2	1325,933
478,6	1344,248
479,1	1354,819
479,5	1376,619
480	1389,905
480,4	1405,219
480,9	1424,962
481,3	1440,105
481,8	1458,448
482,2	1474,505
482,7	1486,048
483,1	1506,476
483,6	1520,105
484	1527,476
484,5	1549,19
484,9	1560,19
485,4	1584,99
485,8	1602,962
486,3	1618,105
486,7	1635,99
487,2	1655,79
487,6	1669,505
488,1	1689,248
488,5	1696,048
489	1713,305
489,4	1725,848
489,9	1731,276
490,4	1744,133
490,8	1756,133
491,3	1770,79
491,7	1780,362
492,2	1791,333
492,6	1802,333
493,1	1819,762
493,5	1824,705
494	1828,933
494,4	1834,533
494,9	1842,39
495,3	1849,876
495,8	1854,99
496,2	1864,105
496,7	1868,819
497,1	1883,048
497,6	1887,733
498	1902,076
498,5	1905,733
498,9	1909,562
499,4	1915,219
499,8	1928,876
500,3	1931,39
500,7	1933,133
501,2	1934,448
501,6	1936,905
502,1	1945,562
502,5	1953,505
503	1953,59
503,4	1958,562
503,9	1962,133
504,3	1971,848
504,8	1979,848
505,2	1987,419
505,7	1985,219
506,1	1998,848
506,6	2001,705
507	2010,305
507,5	2016,876
507,9	2021,705
508,4	2022,848
508,8	2028,533
509,3	2026,905
509,7	2031,448
510,2	2040,562
510,6	2038,39
511,1	2041,705
511,5	2048,19
512	2060,419
512,4	2064,048
512,9	2070,962
513,3	2073,562
513,8	2081,79
514,2	2091,762
514,7	2099,448
515,1	2101,962
515,6	2109,933
516	2109,762
516,5	2115,076
516,9	2118,733
517,4	2121,648
517,8	2128,79
518,3	2133,219
518,7	2141,162
519,2	2148,733
519,6	2148,933
520,1	2156,905
520,5	2159,876
521	2160,105
521,4	2156,99
521,9	2156,705
522,3	2164,876
522,8	2176,419
523,2	2177,219
523,7	2181,99
524,1	2183,762
524,6	2192,79
525	2203,19
525,5	2206,219
525,9	2212,876
526,4	2219,19
526,8	2226,619
527,3	2239,79
527,7	2250,848
528,2	2264,305
528,6	2270,562
529,1	2273,048
529,5	2285,905
530	2291,476
530,4	2300,762
530,9	2307,762
531,3	2305,79
531,8	2317,648
532,2	2328,362
532,6	2330,876
533,1	2335,133
533,5	2337,419
534	2342,705
534,4	2347,133
534,9	2353,276
535,3	2357,048
535,8	2363,048
536,2	2375,076
536,7	2385,048
537,1	2390,19
537,6	2398,505
538	2404,619
538,5	2416,419
538,9	2419,305
539,4	2431,219
539,8	2434,648
540,3	2445,533
540,7	2459,876
541,2	2465,99
541,6	2475,648
542,1	2491,933
542,5	2495,333
543	2504,19
543,4	2509,99
543,9	2511,219
544,3	2521,448
544,8	2525,505
545,2	2531,876
545,7	2541,276
546,1	2549,79
546,5	2558,733
547	2563,905
547,4	2569,048
547,9	2574,762
548,3	2577,362
548,8	2585,762
549,2	2585,362
549,7	2588,333
550,1	2598,733
550,6	2607,362
551	2612,933
551,5	2623,105
551,9	2621,648
552,4	2630,962
552,8	2637,733
553,3	2640,705
553,7	2639,848
554,2	2650,133
554,6	2660,448
555,1	2669,648
555,5	2677,048
555,9	2687,762
556,4	2694,99
556,8	2705,505
557,3	2708,562
557,7	2714,048
558,2	2718,876
558,6	2729,648
559,1	2729,59
559,5	2732,019
560	2733,962
560,4	2732,876
560,9	2735,419
561,3	2744,476
561,8	2747,019
562,2	2758,562
562,7	2763,59
563,1	2771,933
563,6	2776,419
564	2776,19
564,4	2777,276
564,9	2774,876
565,3	2777,648
565,8	2786,476
566,2	2795,276
566,7	2807,162
567,1	2814,962
567,6	2816,99
568	2815,362
568,5	2815,962
568,9	2812,505
569,4	2808,533
569,8	2805,448
570,3	2804,048
570,7	2799,448
571,1	2809,733
571,6	2808,99
572	2811,79
572,5	2817,362
572,9	2817,933
573,4	2824,105
573,8	2834,876
574,3	2833,819
574,7	2836,533
575,2	2836,676
575,6	2834,905
576,1	2841,276
576,5	2840,99
576,9	2833,305
577,4	2831,276
577,8	2823,819
578,3	2823,362
578,7	2819,762
579,2	2817,248
579,6	2805,162
580,1	2803,133
580,5	2806,019
581	2807,248
581,4	2802,876
581,9	2797,219
582,3	2792,019
582,7	2797,076
583,2	2796,076
583,6	2791,219
584,1	2789,933
584,5	2791,505
585	2786,819
585,4	2778,476
585,9	2766,876
586,3	2764,762
586,8	2757,848
587,2	2754,79
587,6	2751,619
588,1	2754,562
588,5	2753,505
589	2757,505
589,4	2747,305
589,9	2746,533
590,3	2739,962
590,8	2733,59
591,2	2727,876
591,7	2729,733
592,1	2719,362
592,5	2725,59
593	2716,876
593,4	2713,905
593,9	2705,476
594,3	2699,105
594,8	2689,933
595,2	2689,219
595,7	2680,705
596,1	2676,619
596,6	2669,705
597	2670,476
597,4	2666,333
597,9	2661,105
598,3	2657,676
598,8	2653,562
599,2	2649,876
599,7	2650,362
600,1	2640,876
600,6	2636,105
601	2627,19
601,4	2623,562
601,9	2620,562
602,3	2611,419
602,8	2601,362
603,2	2598,933
603,7	2595,448
604,1	2592,333
604,6	2580,933
605	2565,962
605,4	2565,076
605,9	2555,562
606,3	2548,048
606,8	2535,733
607,2	2524,848
607,7	2517,076
608,1	2513,619
608,6	2507,676
609	2505,019
609,4	2496,162
609,9	2492,533
610,3	2488,905
610,8	2482,39
611,2	2476,248
611,7	2467,133
612,1	2452,562
612,6	2448,476
613	2446,962
613,4	2435,19
613,9	2427,39
614,3	2418,39
614,8	2411,59
615,2	2411,705
615,7	2400,648
616,1	2383,19
616,6	2377,162
617	2363,876
617,4	2350,076
617,9	2338,619
618,3	2327,19
618,8	2318,962
619,2	2309,419
619,7	2298,762
620,1	2288,476
620,5	2284,362
621	2274,333
621,4	2262,476
621,9	2251,905
622,3	2240,819
622,8	2231,162
623,2	2224,533
623,6	2217,219
624,1	2205,076
624,5	2195,105
625	2188,476
625,4	2181,362
625,9	2174,276
626,3	2164,248
626,8	2150,733
627,2	2140,79
627,6	2125,219
628,1	2105,19
628,5	2092,305
629	2075,562
629,4	2067,619
629,9	2057,533
630,3	2045,419
630,7	2039,076
631,2	2033,733
631,6	2026,305
632,1	2016,448
632,5	2005,676
633	1991,905
633,4	1983,562
633,8	1975,79
634,3	1963,39
634,7	1951,162
635,2	1941,105
635,6	1933,505
636,1	1927,59
636,5	1919,99
636,9	1904,419
637,4	1896,648
637,8	1882,733
638,3	1874,733
638,7	1857,676
639,2	1842,79
639,6	1829,333
640	1817,19
640,5	1806,705
640,9	1799,819
641,4	1788,076
641,8	1782,933
642,2	1781,333
642,7	1779,133
643,1	1779,533
643,6	1772,076
644	1768,448
644,5	1764,105
644,9	1755,105
645,3	1742,733
645,8	1730,962
646,2	1717,362
646,7	1708,333
647,1	1693,962
647,6	1684,619
648	1679,99
648,4	1666,705
648,9	1660,019
649,3	1650,419
649,8	1640,162
650,2	1630,048
650,6	1619,533
651,1	1607,39
651,5	1606,419
652	1591,705
652,4	1588,619
652,9	1580,676
653,3	1576,448
653,7	1567,619
654,2	1562,19
654,6	1544,762
655,1	1541,105
655,5	1533,619
655,9	1526,162
656,4	1515,019
656,8	1508,648
657,3	1495,79
657,7	1494,505
658,2	1480,133
658,6	1465,733
659	1456,705
659,5	1447,59
659,9	1437,533
660,4	1430,962
660,8	1418,676
661,2	1414,105
661,7	1408,048
662,1	1398,476
662,6	1388,59
663	1379,476
663,4	1368,333
663,9	1356,248
664,3	1348,762
664,8	1336,848
665,2	1325,39
665,6	1315,505
666,1	1305,448
666,5	1295,876
667	1291,105
667,4	1281,705
667,9	1275,019
668,3	1270,333
668,7	1267,019
669,2	1263,648
669,6	1259,962
670,1	1251,476
670,5	1240,419
670,9	1227,79
671,4	1217,048
671,8	1206,848
672,3	1203,162
672,7	1196,162
673,1	1184,905
673,6	1180,19
674	1177,133
674,5	1170,962
674,9	1162,305
675,3	1147,59
675,8	1140,076
676,2	1136,733
676,7	1125,59
677,1	1121,133
677,5	1113,162
678	1106,219
678,4	1102,905
678,9	1089,933
679,3	1082,962
679,7	1078,105
680,2	1060,905
680,6	1051,39
681,1	1042,333
681,5	1036,59
681,9	1031,019
682,4	1021,362
682,8	1014,133
683,3	1015,248
683,7	1014,19
684,1	1012,59
684,6	1003,076
685	995,99
685,5	991,933
685,9	976,333
686,3	965,619
686,8	957,333
687,2	948,048
687,7	937,705
688,1	930,248
688,5	926,076
689	927,19
689,4	923,59
689,9	919,076
690,3	910,876
690,7	912,19
691,2	913,048
691,6	905,733
692	899,305
692,5	892,505
692,9	886,419
693,4	881,676
693,8	871,819
694,2	859,819
694,7	855,648
695,1	849,448
695,6	843,476
696	840,305
696,4	831,648
696,9	824,505
697,3	819,276
697,8	810,848
698,2	804,676
698,6	800,219
699,1	789,533
699,5	792,648
699,9	786,533
700,4	779,362
700,8	774,448
701,3	772,505
701,7	765,048
702,1	759,648
702,6	748,876
703	747,105
703,5	743,676
703,9	737,133
704,3	732,962
704,8	731,219
705,2	726,276
705,6	723,59
706,1	714,876
706,5	710,219
707	706,905
707,4	700,533
707,8	691,105
708,3	689,133
708,7	683,162
709,2	680,619
709,6	677,476
710	676,762
710,5	667,19
710,9	666,048
711,3	657,79
711,8	654,19
712,2	647,79
712,7	642,219
713,1	636,019
713,5	640,59
714	639,276
714,4	633,962
714,8	626,448
715,3	625,476
715,7	619,79
716,2	610,705
716,6	601,362
717	590,105
717,5	585,133
717,9	585,076
718,3	575,59
718,8	569,676
719,2	562,219
719,7	558,962
720,1	561,762
720,5	561,79
721	556,39
721,4	556,019
721,8	556,048
722,3	554,762
722,7	551,648
723,2	544,705
723,6	535,619
724	529,505
724,5	520,962
724,9	513,733
725,3	509,248
725,8	503,79
726,2	498,305
726,7	494,39
727,1	490,19
727,5	491,419
728	485,105
728,4	481,562
728,8	476,305
729,3	473,705
729,7	474,019
730,1	472,762
730,6	466,305
731	465,648
731,5	462,305
731,9	458,562
732,3	454,705
732,8	449,133
733,2	446,019
733,6	444,39
734,1	442,419
734,5	437,533
734,9	437,848
735,4	433,219
735,8	427,419
736,3	427,39
736,7	424,648
737,1	420,39
737,6	421,39
738	418,876
738,4	420,648
738,9	426,276
739,3	420,219
739,7	418,248
740,2	414,705
740,6	416,905
741,1	416,219
741,5	409,905
741,9	403,876
742,4	404,019
742,8	400,333
743,2	404,562
743,7	394,933
744,1	388,876
744,5	386,505
745	382,733
745,4	378,105
745,8	375,248
746,3	369,076
746,7	370,333
747,2	367,705
747,6	367,819
748	367,476
748,5	370,048
748,9	366,676
749,3	362,362
749,8	360,362
750,2	359,676
750,6	353,048
751,1	353,076
751,5	340,676
751,9	341,619
752,4	346,219
752,8	344,048
753,3	339,905
753,7	345,933
754,1	338,305
754,6	339,076
755	330,133
755,4	321,848
755,9	319,305
756,3	315,619
756,7	310,876
757,2	316,448
757,6	316,705
758	318,819
758,5	318,276
758,9	315,905
759,3	315,79
759,8	310,419
760,2	300,676
760,6	297,276
761,1	298,876
761,5	300,248
761,9	295,562
762,4	291,848
762,8	290,276
763,3	290,362
763,7	289,819
764,1	283,59
764,6	278,305
765	279,562
765,4	280,905
765,9	280,048
766,3	280,733
766,7	276,905
767,2	275,905
767,6	276,419
768	271,876
768,5	267,133
768,9	263,362
769,3	260,219
769,8	258,733
770,2	259,905
770,6	254,419
771,1	256,248
771,5	257,133
771,9	261,39
772,4	258,048
772,8	259,076
773,2	258,305
773,7	256,333
774,1	250,848
774,5	242,19
775	234,962
775,4	234,133
775,8	227,105
776,3	224,562
776,7	224,762
777,1	226,962
777,6	234,076
778	237,419
778,4	237,448
778,9	240,648
779,3	232,705
779,7	229,162
780,2	224,733
780,6	222,448
781	214,276
781,5	210,876
781,9	208,962
782,3	207,99
782,8	209,876
783,2	208,676
783,6	211,105
784,1	212,133
784,5	206,79
784,9	200,448
785,4	205,533
785,8	205,19
786,2	203,619
786,7	196,19
787,1	192,99
787,5	195,162
788	199,162
788,4	195,562
788,8	190,676
789,3	186,19
789,7	185,362
790,1	187,076
790,6	187,39
791	185,733
791,4	186,99
791,9	183,476
792,3	183,076
792,7	184,876
793,2	179,19
793,6	175,876
794	174,99
794,5	168,99
794,9	170,019
795,3	170,562
795,8	168,276
796,2	171,819
796,6	174,705
797,1	172,905
797,5	171,99
797,9	173,648
798,4	170,162
798,8	168,048
799,2	166,962
799,7	164,562
800,1	161,105
800,5	160,019
801	157,762
801,4	157,505
801,8	153,99
802,2	148,819
802,7	142,39
803,1	143,99
803,5	142,99
804	138,448
804,4	138,705
804,8	140,933
805,3	145,133
805,7	145,562
806,1	142,705
806,6	143,276
807	141,133
807,4	140,762
807,9	135,219
808,3	132,505
808,7	135,419
809,2	139,705
809,6	140,533
810	144,162
810,4	144,305
810,9	143,219
811,3	143,048
811,7	138,705
812,2	135,619
812,6	132,333
813	134,305
813,5	132,419
813,9	133,476
814,3	128,448
814,8	129,448
815,2	123,876
815,6	124,819
816,1	119,162
816,5	116,619
816,9	117,848
817,3	118,562
817,8	120,848
818,2	121,419
818,6	117,562
819,1	113,962
819,5	113,19
819,9	112,533
820,4	110,848
820,8	103,648
821,2	101,19
821,7	100,19
822,1	107,59
822,5	112,648
822,9	107,819
823,4	107,99
823,8	112,733
824,2	114,276
824,7	113,648
825,1	102,962
825,5	93,276
826	90,419
826,4	90,762
826,8	81,562
827,3	82,648
827,7	79,505
828,1	83,762
828,5	86,762
829	82,876
829,4	79,99
829,8	79,419
830,3	77,419
830,7	77,019
831,1	78,39
831,6	77,99
832	83,505
832,4	82,105
832,8	85,248
833,3	84,533
833,7	85,305
834,1	79,333
834,6	75,333
835	78,333
835,4	79,276
835,8	79,276
836,3	75,162
836,7	77,162
837,1	76,448
837,6	82,79
838	78,162
838,4	76,505
838,9	74,876
839,3	74,476
839,7	74,848
840,1	74,076
840,6	68,648
841	70,105
841,4	73,39
841,9	76,19
842,3	75,105
842,7	71,162
843,1	71,933
843,6	72,133
844	70,19
844,4	69,705
844,9	68,305
845,3	74,733
845,7	73,476
846,2	72,648
846,6	70,505
847	71,533
847,4	68,048
847,9	69,99
848,3	66,133
848,7	68,105
849,2	71,048
849,6	70,705
850	67,333
850,4	67,533
850,9	69,076
851,3	69,133
851,7	70,419
852,2	66,276
852,6	67,705
853	72,99
853,4	70,819
853,9	63,733
854,3	62,619
854,7	61,362
855,2	63,476
855,6	63,333
856	61,019
856,4	62,762
856,9	66,305
857,3	64,962
857,7	65,448
858,2	68,248
858,6	67,162
859	64,133
859,4	63,448
859,9	57,648
860,3	55,162
860,7	55,476
861,1	55,39
861,6	56,733
862	59,105
862,4	53,333
862,9	54,705
863,3	54,819
863,7	53,448
864,1	52,505
864,6	51,533
865	46,876
865,4	51,619
865,9	53,733
866,3	52,362
866,7	48,905
867,1	41,39
867,6	40,905
868	43,733
868,4	42,676
868,8	37,99
869,3	37,733
869,7	43,076
870,1	44,19
870,6	42,105
871	0,762
871,4	7,19
871,8	10,533
872,3	13,619
872,7	7,619
873,1	10,762
873,5	10,733
874	48,562
874,4	43,419
874,8	39,162
875,3	39,105
875,7	36,105
876,1	37,048
876,5	37,105
877	38,019
877,4	31,019
877,8	36,105
878,2	37,39
878,7	42,419
879,1	41,562
879,5	44,076
879,9	46,562
880,4	50,305
880,8	46,419
881,2	45,362
881,7	41,076
882,1	36,219
882,5	32,276
882,9	27,933
883,4	28,476
883,8	32,619
884,2	32,076
884,6	32,933
885,1	35,619
885,5	36,105
885,9	37,648
886,3	39,505
886,8	35,448
887,2	29,705
887,6	35,19
888	33,305
888,5	35,733
888,9	35,248
889,3	30,762
889,8	30,99
890,2	34,79
890,6	26,762
891	30,676
891,5	25,933
891,9	27,019
892,3	30,733
892,7	30,276
893,2	28,419
893,6	31,219
894	29,848
894,4	29,819
894,9	31,333
895,3	24,676
895,7	25,99
896,1	27,133
896,6	27,448
897	26,019
897,4	32,619
897,8	31,305
898,3	36,619
898,7	31,648
899,1	34,533
899,5	31,99
900	29,276
900,4	23,333
900,8	20,876
901,2	16,562
901,7	18,162
902,1	15,79
902,5	22,248
902,9	24,39
903,4	26,162
903,8	27,019
904,2	25,362
904,6	29,048
905,1	31,79
905,5	27,419
905,9	27,79
906,3	31,648
906,8	32,533
907,2	37,933
907,6	38,733
908	38,476
908,5	37,448
908,9	37,59
909,3	30,962
909,7	30,99
910,2	27,619
910,6	31,162
911	24,819
911,4	27,19
911,9	27,99
912,3	29,419
912,7	31,733
913,1	37,705
913,6	26,59
914	29,076
914,4	27,048
914,8	25,476
915,3	24,133
915,7	19,448
916,1	14,219
916,5	20,419
916,9	18,476
917,4	17,619
917,8	16,19
918,2	13,933
918,6	12,076
919,1	13,762
919,5	12,59
919,9	15,733
920,3	12,39
920,8	12,79
921,2	14,676
921,6	16,276
922	19,619
922,5	18,619
922,9	19,333
923,3	20,276
923,7	22,79
924,2	24,105
924,6	23,676
925	19,476
925,4	18,133
925,8	21,505
926,3	23,933
926,7	20,39
927,1	18,59
927,5	17,505
928	19,962
928,4	18,333
928,8	12,048
929,2	9,505
929,7	9,162
930,1	11,819
930,5	15,162
930,9	17,762
931,3	17,019
931,8	18,762
932,2	20,276
932,6	21,59
933	13,876
933,5	14,39
933,9	15,562
934,3	20,933
934,7	16,248
935,2	16,505
935,6	14,962
936	20,762
936,4	18,933
936,8	15,19
937,3	13,762
937,7	18,562
938,1	20,79
938,5	17,076
939	15,476
939,4	15,619
939,8	14,19
940,2	13,219
940,6	13,362
941,1	12,276
941,5	19,362
941,9	19,648
942,3	15,905
942,8	16,676
943,2	18,162
943,6	13,048
944	13,419
944,4	14,019
944,9	11,648
945,3	13,619
945,7	9,676
946,1	4,39
946,6	7,362
947	5,933
947,4	6,333
947,8	11,305
948,2	10,848
948,7	12,562
949,1	12,705
949,5	14,876
949,9	12,962
950,3	7,505
950,8	4,448
951,2	4,876
951,6	-0,438
952	5,819
952,5	2,162
952,9	3,648
953,3	3,59
953,7	4,733
954,1	8,905
954,6	12,962
955	12,905
955,4	11,133
955,8	14,476
956,2	15,79
956,7	15,933
957,1	13,305
957,5	12,648
957,9	10,562
958,3	13,39
958,8	14,162
959,2	16,819
959,6	19,133
960	15,276
960,5	20,39
960,9	17,619
961,3	13,333
961,7	9,39
962,1	7,59
962,6	7,048
963	8,533
963,4	1,562
963,8	2,705
964,2	8,133
964,7	7,619
965,1	11,39
965,5	9,076
965,9	10,533
966,3	17,076
966,8	18,733
967,2	17,762
967,6	19,476
968	10,505
968,4	10,705
968,9	11,219
969,3	11,333
969,7	7,105
970,1	7,619
970,5	4,648
971	9,276
971,4	8,248
971,8	10,933
972,2	12,648
972,6	15,419
973,1	8,962
973,5	11,705
973,9	12,476
974,3	16,733
974,7	12,133
975,2	9,248
975,6	10,619
976	17,619
976,4	14,362
976,8	13,133
977,3	7,762
977,7	9,705
978,1	10,505
978,5	8,19
978,9	3,219
979,4	2,248
979,8	3,619
980,2	4,733
980,6	0,248
981	1,79
981,5	1,962
981,9	6,076
982,3	11,562
982,7	9,762
983,1	7,876
983,6	10,105
984	9,448
984,4	6,79
984,8	4,619
985,2	2,733
985,6	0,133
986,1	3,362
986,5	4,362
986,9	-3,552
987,3	1,705
987,7	3,733
988,2	0,762
988,6	6,705
989	3,448
989,4	2,048
989,8	5,476
990,3	3,962
990,7	5,39
991,1	5,962
991,5	6,305
991,9	9,962
992,3	14,676
992,8	17,019
993,2	16,019
993,6	13,505
994	16,39
994,4	18,333
994,9	16,733
995,3	11,762
995,7	11,562
996,1	11,505
996,5	12,476
996,9	11,733
997,4	12,505
997,8	10,562
998,2	9,962
998,6	0,39
999	-2,324
999,5	-2,581
999,9	-2,067
1000,3	-6,152
1000,7	-3,924
1001,1	-2,381
1001,5	5,848
1002	12,076
1002,4	12,762
1002,8	13,419
1003,2	13,705
1003,6	15,076
1004	19,819
1004,5	16,019
1004,9	14,048
1005,3	12,048
1005,7	11,333
1006,1	8,819
1006,6	7,19
1007	4,505
1007,4	8,819
1007,8	6,705
1008,2	3,848
1008,6	6,905
1009,1	5,733
1009,5	7,19
1009,9	8,533
1010,3	9,705
1010,7	11,305
1011,1	16,676
1011,6	13,362
1012	17,819
1012,4	17,848
1012,8	16,276
1013,2	19,476
1013,6	19,876
1014,1	18,648
1014,5	16,19
1014,9	16,876
1015,3	13,762
1015,7	9,248
1016,1	2,762
1016,6	-1,61
1017	-2,352
1017,4	1,219
1017,8	-5,867
1018,2	-3,295
1018,6	-4,067
1019,1	-2,038
1019,5	4,59
1019,9	3,619
1020,3	2,076
1020,7	5,962
1021,1	5,79
1021,6	9,133
1022	14,59
1022,4	11,133
1022,8	14,39
1023,2	12,933
1023,6	14,105
1024,1	18,99
1024,5	21,562
1024,9	14,905
1025,3	19,676
1025,7	19,448
1026,1	22,305
1026,6	20,476
1027	16,448
1027,4	15,962
1027,8	16,533
1028,2	11,219
1028,6	12,562
1029	8,39
1029,5	12,333
1029,9	11,733
1030,3	10,105
1030,7	11,333
1031,1	13,762
1031,5	7,048
1032	7,676
1032,4	7,305
1032,8	10,219
1033,2	10,162
1033,6	8,333
1034	9,19
1034,4	12,162
1034,9	16,533
1035,3	13,476
1035,7	13,933
1036,1	12,305
1036,5	10,705
1036,9	7,762
1037,4	8,733
1037,8	5,248
1038,2	3,276
1038,6	0,619
1039	8,59
1039,4	16,419
1039,8	13,476
1040,3	17,305
1040,7	17,333
1041,1	19,39
1041,5	20,533
1041,9	12,59
1042,3	7,562
1042,7	9,619
1043,2	3,905
1043,6	1,648
1044	1,676
1044,4	1,305
1044,8	5,419
1045,2	4,362
1045,6	3,419
1046,1	3,819
1046,5	5,105
1046,9	5,476
1047,3	5,819
1047,7	5,59
1048,1	6,133
1048,5	8,762
1049	15,105
1049,4	17,648
1049,8	19,676
1050,2	21,305
1050,6	23,333
1051	24,448
1051,4	20,962
1051,9	15,076
1052,3	20,619
1052,7	21,762
1053,1	18,133
1053,5	15,276
1053,9	19,619
1054,3	24,562
1054,8	29,733
1055,2	30,476
1055,6	32,076
1056	31,133
1056,4	29,362
1056,8	27,133
1057,2	24,905
1057,6	20,705
1058,1	11,248
1058,5	2,39
1058,9	2,933
1059,3	4,962
1059,7	-1,41
1060,1	0,705
1060,5	5,59
1061	11,733
1061,4	16,79
1061,8	21,705
1062,2	22,105
1062,6	24,79
1063	26,848
1063,4	23,648
1063,8	22,676
1064,3	18,79
1064,7	11,876
1065,1	9,362
1065,5	3,048
1065,9	-3,552
1066,3	-9,724
1066,7	-16,095
1067,1	-18,638
1067,6	-14,895
1068	-20,695
1068,4	-15,838
1068,8	-8,952
1069,2	-1,724
1069,6	0,962
1070	8,848
1070,4	8,333
1070,9	12,619
1071,3	10,219
1071,7	4,076
1072,1	1,448
1072,5	0,133
1072,9	-3,01
1073,3	-1,238
1073,7	-1,095
1074,2	4,362
1074,6	7,476
1075	5,705
1075,4	8,876
1075,8	9,562
1076,2	11,019
1076,6	13,648
1077	14,762
1077,5	16,133
1077,9	15,39
1078,3	11,933
1078,7	10,305
1079,1	1,848
1079,5	0,505
1079,9	0,19
1080,3	-0,667
1080,7	2,59
1081,2	7,219
1081,6	5,933
1082	10,619
1082,4	15,762
1082,8	12,733
1083,2	9,705
1083,6	8,99
1084	8,533
1084,5	8,048
1084,9	5,19
1085,3	-2,867
1085,7	0,362
1086,1	3,019
1086,5	2,848
1086,9	1,762
1087,3	1,276
1087,7	3,848
1088,2	5,505
1088,6	1,533
1089	1,305
1089,4	-0,952
1089,8	-0,41
1090,2	1,705
1090,6	1,59
1091	2,99
1091,4	5,248
1091,9	4,819
1092,3	7,105
1092,7	2,733
1093,1	7,905
1093,5	6,219
1093,9	6,876
1094,3	11,619
1094,7	11,276
1095,1	12,39
1095,5	16,79
1096	9,648
1096,4	10,59
1096,8	11,533
1097,2	6,276
1097,6	8,533
1098	10,933
1098,4	12,362
1098,8	17,933
1099,2	22,419
1099,6	19,99
1100,1	19,733
1100,5	16,19
1100,9	12,219
1101,3	9,676
1101,7	7,39
1102,1	3,048
1102,5	6,876
1102,9	10,419
1103,3	14,476
1103,7	15,39
1104,2	15,933
1104,6	16,162
1105	16,276
1105,4	15,476
1105,8	11,076
1106,2	6,819
1106,6	5,105
1107	3,848
1107,4	2,933
1107,8	3,373
1108,3	-0,467
