Data from Subt2_110.txt Node
Date: Sat Aug 26 18:20:23 MSK 2023
User: vat
Spectrometer: MAYP114033
Trigger mode: 0
Integration Time (sec): 1,000000E0
Scans to average: 5
Electric dark correction enabled: true
Nonlinearity correction enabled: false
Boxcar width: 3
XAxis mode: Wavelengths
Number of Pixels in Spectrum: 2068
>>>>>Begin Spectral Data<<<<<
199,4	-0,233
199,9	-2,233
200,4	-1,467
200,8	-1,49
201,3	-1,348
201,8	-3,033
202,2	-4,633
202,7	-1,49
203,2	-2,148
203,6	-3,49
204,1	-5,976
204,6	-5,148
205	-0,205
205,5	3,252
206	1,252
206,4	4,995
206,9	5,024
207,4	8,395
207,8	6,338
208,3	3,967
208,8	1,624
209,2	5,452
209,7	4,967
210,2	5,824
210,6	7,367
211,1	11,11
211,5	5,938
212	7,395
212,5	6,252
212,9	6,71
213,4	8,481
213,9	3,652
214,3	5,252
214,8	9,452
215,3	3,624
215,7	1,852
216,2	2,024
216,7	-0,119
217,1	-1,29
217,6	-2,662
218,1	-1,262
218,5	4,767
219	-0,976
219,5	0,281
219,9	-2,405
220,4	4,338
220,9	0,195
221,3	-0,262
221,8	-3,348
222,3	-0,005
222,7	0,052
223,2	-1,205
223,6	-3,29
224,1	-4,776
224,6	-6,605
225	-6,405
225,5	-8,319
226	-9,09
226,4	-1,69
226,9	-1,69
227,4	1,024
227,8	0,567
228,3	-0,576
228,8	4,31
229,2	2,738
229,7	0,567
230,2	1,681
230,6	6,11
231,1	9,452
231,5	11,938
232	11,91
232,5	9,852
232,9	12,281
233,4	13,367
233,9	6,424
234,3	7,967
234,8	8,252
235,3	5,024
235,7	9,252
236,2	7,938
236,7	4,967
237,1	7,652
237,6	3,738
238,1	3,452
238,5	1,795
239	-0,519
239,4	2,081
239,9	0,738
240,4	2,538
240,8	6,367
241,3	6,224
241,8	6,681
242,2	6,538
242,7	2,652
243,2	4,881
243,6	2,081
244,1	1,967
244,6	4,824
245	5,738
245,5	7,91
245,9	4,71
246,4	3,452
246,9	7,167
247,3	7,081
247,8	7,252
248,3	11,138
248,7	12,452
249,2	16,652
249,7	16,081
250,1	16,652
250,6	13,252
251	14,367
251,5	10,024
252	9,91
252,4	8,024
252,9	5,195
253,4	0,538
253,8	2,195
254,3	-1,348
254,8	0,281
255,2	-3,576
255,7	-3,405
256,1	5,195
256,6	3,767
257,1	3,51
257,5	-0,262
258	-3,148
258,5	-0,233
258,9	-1,176
259,4	-7,005
259,9	-2,948
260,3	-9,89
260,8	-9,205
261,2	-9,262
261,7	-9,205
262,2	-8,519
262,6	-8,948
263,1	-5,519
263,6	2,767
264	10,252
264,5	16,195
264,9	13,567
265,4	14,024
265,9	12,624
266,3	11,795
266,8	12,081
267,3	8,767
267,7	0,624
268,2	3,252
268,7	6,052
269,1	6,224
269,6	2,767
270	2,738
270,5	2,11
271	7,252
271,4	3,824
271,9	-4,29
272,4	1,538
272,8	0,767
273,3	-2,748
273,7	-2,233
274,2	0,567
274,7	1,424
275,1	7,252
275,6	5,424
276,1	5,224
276,5	7,367
277	4,31
277,4	2,224
277,9	0,452
278,4	-1,233
278,8	-0,376
279,3	-0,376
279,8	1,281
280,2	2,881
280,7	4,795
281,1	5,138
281,6	2,11
282,1	0,052
282,5	0,281
283	-4,776
283,4	-2,576
283,9	-4,29
284,4	1,681
284,8	6,138
285,3	4,967
285,8	3,081
286,2	3,195
286,7	-2,319
287,1	-5,976
287,6	-11,805
288,1	-16,548
288,5	-13,348
289	-13,519
289,5	-11,49
289,9	-9,89
290,4	-3,348
290,8	0,567
291,3	3,481
291,8	0,224
292,2	0,995
292,7	5,195
293,1	5,338
293,6	4,595
294,1	5,367
294,5	10,567
295	12,938
295,5	12,252
295,9	9,367
296,4	9,024
296,8	6,424
297,3	-0,805
297,8	-5,662
298,2	-10,348
298,7	-6,576
299,1	-3,976
299,6	-7,119
300,1	-6,89
300,5	0,11
301	1,995
301,5	10,538
301,9	9,852
302,4	2,424
302,8	4,31
303,3	3,824
303,8	-1,376
304,2	0,452
304,7	-3,233
305,1	-4,062
305,6	2,195
306,1	12,395
306,5	12,395
307	17,31
307,4	19,795
307,9	17,624
308,4	15,624
308,8	9,481
309,3	4,852
309,8	0,367
310,2	0,481
310,7	-7,49
311,1	-8,662
311,6	-7,09
312,1	-1,976
312,5	-3,005
313	1,481
313,4	-0,262
313,9	5,452
314,4	8,51
314,8	6,51
315,3	9,081
315,7	7,252
316,2	4,595
316,7	-1,748
317,1	-0,062
317,6	-0,919
318	5,052
318,5	-0,976
319	-2,49
319,4	1,652
319,9	13,881
320,3	14,452
320,8	10,567
321,3	7,738
321,7	11,424
322,2	13,338
322,6	10,795
323,1	4,967
323,6	-0,433
324	2,224
324,5	3,224
324,9	2,052
325,4	1,481
325,9	4,052
326,3	3,652
326,8	4,138
327,2	3,424
327,7	0,31
328,2	1,824
328,6	5,681
329,1	-2,005
329,5	-2,376
330	-6,09
330,5	-1,09
330,9	3,652
331,4	3,967
331,8	-0,833
332,3	7,395
332,8	8,395
333,2	11,652
333,7	9,252
334,1	6,138
334,6	2,738
335,1	-0,919
335,5	-0,433
336	-0,119
336,4	1,224
336,9	7,195
337,4	8,91
337,8	9,024
338,3	12,424
338,7	15,824
339,2	12,11
339,7	19,481
340,1	10,281
340,6	8,881
341	6,424
341,5	6,252
342	-2,948
342,4	-1,719
342,9	-10,748
343,3	-6,176
343,8	-4,376
344,2	-1,348
344,7	6,338
345,2	6,167
345,6	5,424
346,1	10,167
346,5	2,481
347	-2,319
347,5	-2,319
347,9	-1,976
348,4	1,224
348,8	5,395
349,3	4,995
349,8	14,538
350,2	23,91
350,7	22,252
351,1	18,338
351,6	25,881
352	31,224
352,5	35,51
353	40,424
353,4	45,91
353,9	58,024
354,3	71,71
354,8	79,767
355,3	93,967
355,7	112,195
356,2	134,824
356,6	162,31
357,1	192,452
357,5	228,995
358	272,91
358,5	313,967
358,9	362,481
359,4	419,367
359,8	476,395
360,3	550,395
360,8	625,167
361,2	710,681
361,7	810,024
362,1	915,852
362,6	1031,567
363	1153,71
363,5	1284,652
364	1426,024
364,4	1567,652
364,9	1708,081
365,3	1844,195
365,8	1970,138
366,3	2095,424
366,7	2205,31
367,2	2297,338
367,6	2368,624
368,1	2430,767
368,5	2473,567
369	2496,795
369,5	2501,567
369,9	2479,567
370,4	2441,824
370,8	2392,567
371,3	2318,395
371,7	2232,738
372,2	2136,538
372,7	2027,967
373,1	1918,195
373,6	1803,51
374	1685,481
374,5	1579,681
374,9	1475,424
375,4	1371,595
375,9	1272,852
376,3	1179,91
376,8	1085,424
377,2	1005,824
377,7	914,624
378,2	832,281
378,6	761,138
379,1	696,567
379,5	639,71
380	592,195
380,4	544,281
380,9	501,11
381,4	464,195
381,8	431,024
382,3	401,795
382,7	369,452
383,2	345,681
383,6	318,11
384,1	297,167
384,6	277,195
385	257,052
385,5	235,595
385,9	218,624
386,4	195,51
386,8	184,252
387,3	173,71
387,7	162,595
388,2	152,024
388,7	143,252
389,1	134,967
389,6	129,224
390	117,538
390,5	111,91
390,9	105,538
391,4	97,281
391,9	90,795
392,3	85,224
392,8	80,51
393,2	77,224
393,7	69,624
394,1	62,081
394,6	58,51
395,1	56,31
395,5	51,595
396	49,995
396,4	48,881
396,9	46,367
397,3	50,767
397,8	54,224
398,2	51,852
398,7	51,395
399,2	50,481
399,6	49,081
400,1	51,367
400,5	46,538
401	43,624
401,4	40,881
401,9	47,481
402,4	52,138
402,8	49,681
403,3	52,138
403,7	53,652
404,2	59,51
404,6	63,167
405,1	60,567
405,5	57,767
406	59,852
406,5	59,167
406,9	59,51
407,4	57,91
407,8	61,681
408,3	68,51
408,7	69,31
409,2	77,052
409,6	80,852
410,1	90,51
410,6	99,824
411	105,852
411,5	110,91
411,9	121,31
412,4	126,624
412,8	141,452
413,3	149,167
413,7	153,567
414,2	159,852
414,7	169,395
415,1	181,195
415,6	197,024
416	201,595
416,5	213,938
416,9	224,567
417,4	242,738
417,8	262,338
418,3	280,938
418,8	296,538
419,2	315,424
419,7	330,024
420,1	349,338
420,6	368,967
421	380,852
421,5	397,91
421,9	416,338
422,4	440,281
422,8	465,738
423,3	493,452
423,8	513,224
424,2	540,652
424,7	566,538
425,1	594,367
425,6	631,71
426	664,081
426,5	700,652
426,9	743,367
427,4	777,11
427,9	817,452
428,3	866,224
428,8	906,795
429,2	952,938
429,7	1000,652
430,1	1047,881
430,6	1104,595
431	1161,538
431,5	1215,252
431,9	1269,281
432,4	1335,252
432,8	1402,281
433,3	1471,938
433,8	1544,195
434,2	1626,538
434,7	1710,138
435,1	1794,938
435,6	1883,252
436	1975,624
436,5	2078,595
436,9	2180,652
437,4	2283,31
437,8	2394,738
438,3	2514,224
438,8	2630,91
439,2	2754,424
439,7	2883,11
440,1	3016,881
440,6	3154,224
441	3286,452
441,5	3429,852
441,9	3585,767
442,4	3734,052
442,8	3891,567
443,3	4059,967
443,7	4236,681
444,2	4419,424
444,7	4602,767
445,1	4788,995
445,6	4982,967
446	5180,31
446,5	5378,024
446,9	5578,024
447,4	5786,11
447,8	6006,052
448,3	6227,338
448,7	6463,91
449,2	6695,452
449,6	6935,395
450,1	7168,195
450,6	7416,195
451	7655,481
451,5	7913,681
451,9	8170,767
452,4	8432,338
452,8	8702,052
453,3	8986,395
453,7	9267,938
454,2	9560,452
454,6	9842,795
455,1	10124,11
455,5	10416,138
456	10717,652
456,4	11012,424
456,9	11318,681
457,3	11623,424
457,8	11923,967
458,3	12239,481
458,7	12559,881
459,2	12877,052
459,6	13203,481
460,1	13523,195
460,5	13851,567
461	14184,652
461,4	14507,481
461,9	14832,595
462,3	15158,995
462,8	15483,995
463,2	15815,281
463,7	16142,652
464,1	16471,081
464,6	16809,881
465	17143,824
465,5	17464,91
466	17786,995
466,4	18101,081
466,9	18419,395
467,3	18745,995
467,8	19061,024
468,2	19365,938
468,7	19679,967
469,1	20002,31
469,6	20317,338
470	20616,167
470,5	20913,738
470,9	21216,652
471,4	21516,281
471,8	21798,881
472,3	22074,795
472,7	22349,252
473,2	22636,31
473,6	22902,338
474,1	23155,395
474,5	23411,738
475	23684,91
475,4	23945,738
475,9	24189,567
476,4	24421,967
476,8	24665,852
477,3	24884,967
477,7	25110,881
478,2	25308,224
478,6	25492,167
479,1	25691,167
479,5	25871,367
480	26039,452
480,4	26221,995
480,9	26383,224
481,3	26534,224
481,8	26682,052
482,2	26802,51
482,7	26932,995
483,1	27050,51
483,6	27158,424
484	27253,881
484,5	27363,281
484,9	27459,938
485,4	27559,567
485,8	27631,881
486,3	27686,424
486,7	27730,624
487,2	27777,595
487,6	27810,424
488,1	27832,595
488,5	27853,195
489	27878,081
489,4	27890,967
489,9	27889,881
490,4	27889,138
490,8	27871,567
491,3	27848,452
491,7	27807,052
492,2	27770,024
492,6	27740,71
493,1	27691,881
493,5	27615,281
494	27540,652
494,4	27471,195
494,9	27402,995
495,3	27316,681
495,8	27222,452
496,2	27149,567
496,7	27066,567
497,1	26971,452
497,6	26867,71
498	26754,024
498,5	26636,881
498,9	26514,51
499,4	26381,967
499,8	26269,567
500,3	26145,738
500,7	26022,995
501,2	25888,567
501,6	25752,11
502,1	25609,252
502,5	25474,281
503	25312,767
503,4	25157,767
503,9	24996,081
504,3	24847,567
504,8	24685,167
505,2	24521,881
505,7	24336,224
506,1	24174,195
506,6	23995,881
507	23820,595
507,5	23643,367
507,9	23460,652
508,4	23287,795
508,8	23122,081
509,3	22938,024
509,7	22759,138
510,2	22579,024
510,6	22384,624
511,1	22205,081
511,5	22006,424
512	21806,995
512,4	21611,11
512,9	21418,624
513,3	21220,967
513,8	21015,452
514,2	20818,652
514,7	20622,538
515,1	20426,995
515,6	20220,995
516	20017,595
516,5	19813,767
516,9	19615,51
517,4	19416,738
517,8	19231,31
518,3	19035,424
518,7	18840,852
519,2	18643,167
519,6	18436,91
520,1	18247,595
520,5	18042,024
521	17826,681
521,4	17634,224
521,9	17440,738
522,3	17240,481
522,8	17062,281
523,2	16877,452
523,7	16694,338
524,1	16523,852
524,6	16336,424
525	16161,91
525,5	15998,652
525,9	15819,081
526,4	15637,595
526,8	15465,567
527,3	15289,224
527,7	15115,31
528,2	14938,767
528,6	14764,167
529,1	14592,567
529,5	14423,938
530	14263,595
530,4	14092,567
530,9	13929,995
531,3	13777,852
531,8	13626,31
532,2	13481,195
532,6	13328,252
533,1	13162,51
533,5	13011,51
534	12872,624
534,4	12722,424
534,9	12570,967
535,3	12420,624
535,8	12278,852
536,2	12145,252
536,7	12014,738
537,1	11871,167
537,6	11730,852
538	11601,738
538,5	11480,052
538,9	11348,767
539,4	11223,567
539,8	11087,138
540,3	10959,51
540,7	10840,738
541,2	10714,652
541,6	10584,738
542,1	10478,71
542,5	10361,138
543	10252,395
543,4	10141,481
543,9	10026,538
544,3	9915,624
544,8	9800,138
545,2	9681,31
545,7	9572,995
546,1	9477,967
546,5	9380,595
547	9288,51
547,4	9189,195
547,9	9092,224
548,3	9001,881
548,8	8907,081
549,2	8803,881
549,7	8701,91
550,1	8607,852
550,6	8516,767
551	8435,224
551,5	8344,338
551,9	8258,824
552,4	8177,51
552,8	8101,738
553,3	8013,595
553,7	7930,738
554,2	7849,71
554,6	7777,338
555,1	7701,424
555,5	7620,195
555,9	7537,452
556,4	7465,195
556,8	7394,31
557,3	7320,31
557,7	7243,738
558,2	7167,738
558,6	7102,424
559,1	7034,71
559,5	6964,452
560	6903,624
560,4	6833,624
560,9	6769,538
561,3	6703,824
561,8	6632,967
562,2	6567,395
562,7	6501,824
563,1	6441,167
563,6	6383,224
564	6315,052
564,4	6256,567
564,9	6202,824
565,3	6145,081
565,8	6093,424
566,2	6035,338
566,7	5979,567
567,1	5932,652
567,6	5886,138
568	5831,795
568,5	5784,824
568,9	5731,767
569,4	5672,595
569,8	5624,138
570,3	5577,481
570,7	5515,51
571,1	5475,367
571,6	5424,281
572	5373,338
572,5	5329,51
572,9	5278,624
573,4	5229,624
573,8	5195,481
574,3	5140,767
574,7	5092,681
575,2	5051,195
575,6	5007,424
576,1	4965,824
576,5	4923,338
576,9	4871,995
577,4	4826,167
577,8	4792,824
578,3	4747,938
578,7	4709,338
579,2	4671,995
579,6	4635,424
580,1	4600,252
580,5	4566,567
581	4529,938
581,4	4494,395
581,9	4450,052
582,3	4416,881
582,7	4372,681
583,2	4329,367
583,6	4289,91
584,1	4253,052
584,5	4219,167
585	4187,938
585,4	4145,481
585,9	4103,31
586,3	4076,052
586,8	4043,681
587,2	4003,595
587,6	3971,995
588,1	3942,824
588,5	3916,71
589	3899,681
589,4	3868,224
589,9	3841,538
590,3	3814,624
590,8	3782,167
591,2	3754,738
591,7	3725,31
592,1	3692,281
592,5	3671,252
593	3639,71
593,4	3613,51
593,9	3590,052
594,3	3556,052
594,8	3526,481
595,2	3496,852
595,7	3467,852
596,1	3446,452
596,6	3425,71
597	3399,967
597,4	3378,91
597,9	3357,252
598,3	3336,024
598,8	3316,167
599,2	3291,338
599,7	3265,681
600,1	3241,281
600,6	3219,31
601	3198,624
601,4	3187,538
601,9	3161,338
602,3	3139,881
602,8	3121,538
603,2	3102,481
603,7	3082,852
604,1	3068,052
604,6	3035,567
605	3011,71
605,4	2995,195
605,9	2964,71
606,3	2940,824
606,8	2917,767
607,2	2889,338
607,7	2872,081
608,1	2854,481
608,6	2829,024
609	2819,824
609,4	2801,31
609,9	2781,567
610,3	2760,995
610,8	2734,595
611,2	2713,452
611,7	2691,881
612,1	2669,224
612,6	2648,795
613	2633,167
613,4	2614,367
613,9	2598,395
614,3	2577,881
614,8	2565,31
615,2	2545,31
615,7	2533,452
616,1	2514,11
616,6	2496,538
617	2478,624
617,4	2464,652
617,9	2446,224
618,3	2431,995
618,8	2408,252
619,2	2393,538
619,7	2379,452
620,1	2368,995
620,5	2358,338
621	2343,081
621,4	2325,938
621,9	2310,252
622,3	2298,11
622,8	2276,252
623,2	2256,795
623,6	2229,795
624,1	2213,995
624,5	2191,31
625	2174,767
625,4	2154,338
625,9	2143,938
626,3	2126,081
626,8	2113,452
627,2	2098,252
627,6	2086,738
628,1	2073,595
628,5	2062,167
629	2044,281
629,4	2032,652
629,9	2019,567
630,3	2000,538
630,7	1984,91
631,2	1973,51
631,6	1957,052
632,1	1943,538
632,5	1926,852
633	1912,51
633,4	1895,452
633,8	1883,052
634,3	1863,252
634,7	1849,795
635,2	1830,395
635,6	1818,338
636,1	1812,224
636,5	1799,195
636,9	1780,167
637,4	1769,31
637,8	1746,567
638,3	1740,652
638,7	1728,395
639,2	1705,31
639,6	1698,624
640	1692,538
640,5	1679,767
640,9	1674,624
641,4	1659,852
641,8	1650,795
642,2	1645,852
642,7	1637,795
643,1	1627,938
643,6	1613,881
644	1601,967
644,5	1597,51
644,9	1584,995
645,3	1573,71
645,8	1558,11
646,2	1551,681
646,7	1547,681
647,1	1535,595
647,6	1517,995
648	1512,681
648,4	1501,481
648,9	1496,367
649,3	1482,052
649,8	1473,71
650,2	1468,738
650,6	1465,967
651,1	1455,652
651,5	1448,824
652	1434,995
652,4	1419,538
652,9	1409,338
653,3	1396,995
653,7	1384,224
654,2	1375,224
654,6	1360,224
655,1	1354,424
655,5	1352,91
655,9	1337,624
656,4	1332,11
656,8	1321,967
657,3	1310,795
657,7	1306,567
658,2	1298,71
658,6	1287,967
659	1282,424
659,5	1267,967
659,9	1257,224
660,4	1249,252
660,8	1237,138
661,2	1223,71
661,7	1216,767
662,1	1206,967
662,6	1198,767
663	1190,767
663,4	1178,567
663,9	1173,938
664,3	1165,367
664,8	1151,195
665,2	1141,795
665,6	1135,967
666,1	1125,224
666,5	1116,995
667	1106,281
667,4	1098,681
667,9	1092,995
668,3	1084,624
668,7	1074,681
669,2	1074,967
669,6	1068,624
670,1	1058,738
670,5	1047,824
670,9	1037,824
671,4	1034,395
671,8	1028,452
672,3	1018,652
672,7	1017,224
673,1	1006,852
673,6	997,252
674	993,452
674,5	983,681
674,9	972,767
675,3	961,91
675,8	947,738
676,2	943,51
676,7	938,167
677,1	929,395
677,5	922,652
678	922,852
678,4	920,852
678,9	913,881
679,3	905,081
679,7	899,138
680,2	890,338
680,6	879,224
681,1	869,138
681,5	863,91
681,9	860,024
682,4	858,252
682,8	856,252
683,3	855,795
683,7	852,767
684,1	841,967
684,6	828,967
685	819,824
685,5	809,824
685,9	798,681
686,3	782,881
686,8	777,767
687,2	775,824
687,7	771,052
688,1	765,024
688,5	763,138
689	764,624
689,4	763,995
689,9	760,424
690,3	752,681
690,7	752,51
691,2	749,538
691,6	745,224
692	732,452
692,5	731,281
692,9	723,281
693,4	719,652
693,8	712,71
694,2	701,681
694,7	692,824
695,1	690,195
695,6	686,452
696	681,024
696,4	673,767
696,9	664,91
697,3	660,452
697,8	656,252
698,2	648,11
698,6	640,767
699,1	636,824
699,5	636,481
699,9	632,681
700,4	628,51
700,8	624,967
701,3	628,995
701,7	620,71
702,1	617,138
702,6	614,424
703	612,138
703,5	606,624
703,9	600,395
704,3	596,595
704,8	594,252
705,2	591,738
705,6	583,052
706,1	574,481
706,5	568,481
707	568,452
707,4	562,481
707,8	554,024
708,3	545,738
708,7	543,138
709,2	544,281
709,6	545,395
710	541,167
710,5	531,138
710,9	531,852
711,3	528,224
711,8	522,738
712,2	515,195
712,7	509,967
713,1	503,395
713,5	507,338
714	504,481
714,4	504,281
714,8	508,31
715,3	504,252
715,7	503,367
716,2	498,167
716,6	490,767
717	482,852
717,5	476,681
717,9	471,452
718,3	469,052
718,8	461,91
719,2	464,024
719,7	460,138
720,1	456,681
720,5	460,024
721	449,081
721,4	447,652
721,8	449,567
722,3	439,338
722,7	438,881
723,2	437,052
723,6	421,367
724	420,71
724,5	415,71
724,9	408,11
725,3	405,795
725,8	398,938
726,2	397,195
726,7	399,024
727,1	398,824
727,5	399,424
728	391,652
728,4	388,652
728,8	386,681
729,3	380,538
729,7	374,852
730,1	370,11
730,6	364,595
731	368,538
731,5	366,452
731,9	361,652
732,3	368,195
732,8	364,681
733,2	360,738
733,6	357,767
734,1	356,395
734,5	353,481
734,9	355,481
735,4	350,91
735,8	350,424
736,3	351,167
736,7	344,995
737,1	344,938
737,6	345,995
738	343,567
738,4	337,91
738,9	339,481
739,3	334,481
739,7	336,367
740,2	329,624
740,6	330,938
741,1	328,595
741,5	324,367
741,9	322,224
742,4	326,795
742,8	326,824
743,2	326,424
743,7	319,567
744,1	315,852
744,5	316,652
745	311,767
745,4	305,195
745,8	300,481
746,3	295,738
746,7	294,824
747,2	290,338
747,6	286,652
748	288,367
748,5	292,595
748,9	287,11
749,3	284,338
749,8	281,595
750,2	285,452
750,6	285,852
751,1	282,481
751,5	272,652
751,9	277,595
752,4	278,881
752,8	278,624
753,3	274,281
753,7	272,71
754,1	266,367
754,6	265,681
755	259,052
755,4	253,938
755,9	251,081
756,3	249,195
756,7	248,995
757,2	253,852
757,6	255,938
758	253,195
758,5	254,252
758,9	251,51
759,3	252,938
759,8	250,024
760,2	245,71
760,6	243,081
761,1	245,424
761,5	241,91
761,9	240,481
762,4	234,881
762,8	230,852
763,3	227,881
763,7	227,881
764,1	226,195
764,6	226,481
765	227,624
765,4	227,195
765,9	225,195
766,3	229,852
766,7	222,767
767,2	215,51
767,6	214,195
768	209,481
768,5	206,424
768,9	208,338
769,3	204,052
769,8	204,224
770,2	208,795
770,6	208,081
771,1	209,995
771,5	207,51
771,9	204,938
772,4	201,71
772,8	201,681
773,2	204,395
773,7	203,367
774,1	202,567
774,5	196,367
775	192,395
775,4	191,91
775,8	186,424
776,3	182,138
776,7	179,567
777,1	173,91
777,6	180,967
778	184,538
778,4	184,91
778,9	187,138
779,3	184,481
779,7	183,738
780,2	186,995
780,6	183,91
781	176,91
781,5	173,167
781,9	172,91
782,3	167,767
782,8	168,138
783,2	167,024
783,6	170,252
784,1	175,11
784,5	173,367
784,9	172,51
785,4	177,567
785,8	174,795
786,2	172,538
786,7	163,938
787,1	160,595
787,5	159,538
788	157,424
788,4	154,138
788,8	151,938
789,3	148,881
789,7	153,052
790,1	149,795
790,6	155,081
791	151,681
791,4	151,081
791,9	150,91
792,3	145,767
792,7	151,252
793,2	147,91
793,6	142,881
794	142,252
794,5	138,367
794,9	137,024
795,3	138,424
795,8	126,652
796,2	129,281
796,6	129,195
797,1	128,024
797,5	126,938
797,9	128,452
798,4	128,338
798,8	128,852
799,2	123,681
799,7	123,938
800,1	124,395
800,5	125,081
801	127,224
801,4	128,252
801,8	125,938
802,2	129,852
802,7	124,281
803,1	121,91
803,5	125,795
804	122,167
804,4	122,138
804,8	122,852
805,3	123,195
805,7	123,71
806,1	124,138
806,6	120,252
807	114,195
807,4	112,395
807,9	108,481
808,3	106,91
808,7	105,024
809,2	105,424
809,6	101,852
810	103,052
810,4	103,224
810,9	106,138
811,3	108,652
811,7	113,767
812,2	114,938
812,6	114,824
813	120,852
813,5	120,824
813,9	119,424
814,3	114,024
814,8	106,281
815,2	102,938
815,6	101,31
816,1	102,31
816,5	98,795
816,9	96,452
817,3	98,995
817,8	103,052
818,2	103,51
818,6	103,567
819,1	97,881
819,5	98,424
819,9	102,824
820,4	98,252
820,8	97,881
821,2	94,881
821,7	96,652
822,1	98,338
822,5	99,71
822,9	98,338
823,4	99,424
823,8	98,11
824,2	99,195
824,7	93,367
825,1	87,424
825,5	81,167
826	73,71
826,4	71,681
826,8	69,281
827,3	71,51
827,7	71,452
828,1	74,595
828,5	77,995
829	75,081
829,4	76,652
829,8	75,195
830,3	74,624
830,7	75,881
831,1	74,195
831,6	69,738
832	78,567
832,4	75,081
832,8	75,767
833,3	71,052
833,7	68,481
834,1	68,138
834,6	69,824
835	66,652
835,4	65,452
835,8	62,595
836,3	63,481
836,7	69,052
837,1	67,052
837,6	68,567
838	67,681
838,4	70,967
838,9	71,024
839,3	68,795
839,7	65,481
840,1	58,852
840,6	57,481
841	61,395
841,4	58,538
841,9	59,652
842,3	60,852
842,7	58,11
843,1	63,338
843,6	62,167
844	56,11
844,4	60,538
844,9	61,481
845,3	60,91
845,7	63,538
846,2	61,652
846,6	60,938
847	64,652
847,4	62,452
847,9	60,367
848,3	60,11
848,7	55,852
849,2	57,167
849,6	51,395
850	50,738
850,4	49,652
850,9	49,71
851,3	50,767
851,7	55,424
852,2	54,567
852,6	63,167
853	62,824
853,4	63,024
853,9	61,852
854,3	59,367
854,7	61,367
855,2	54,452
855,6	52,824
856	48,795
856,4	42,995
856,9	41,967
857,3	42,11
857,7	40,167
858,2	49,71
858,6	49,024
859	47,681
859,4	51,138
859,9	50,052
860,3	49,652
860,7	47,052
861,1	43,91
861,6	38,538
862	38,738
862,4	35,167
862,9	36,795
863,3	38,395
863,7	36,881
864,1	40,024
864,6	39,081
865	39,195
865,4	41,452
865,9	46,738
866,3	38,852
866,7	37,538
867,1	30,652
867,6	32,081
868	31,31
868,4	27,538
868,8	22,738
869,3	28,767
869,7	33,11
870,1	31,652
870,6	32,338
871	13,224
871,4	17,224
871,8	15,452
872,3	13,681
872,7	11,681
873,1	12,481
873,5	13,224
874	33,967
874,4	34,51
874,8	29,995
875,3	30,424
875,7	29,395
876,1	29,338
876,5	28,024
877	27,024
877,4	26,995
877,8	34,71
878,2	35,567
878,7	36,567
879,1	41,567
879,5	43,881
879,9	45,11
880,4	39,624
880,8	34,252
881,2	31,224
881,7	28,024
882,1	26,081
882,5	21,138
882,9	20,367
883,4	19,91
883,8	24,024
884,2	24,681
884,6	21,367
885,1	20,938
885,5	21,11
885,9	20,767
886,3	26,795
886,8	22,681
887,2	20,338
887,6	24,567
888	23,71
888,5	27,338
888,9	23,652
889,3	17,195
889,8	15,995
890,2	14,452
890,6	10,595
891	9,338
891,5	8,11
891,9	9,995
892,3	14,681
892,7	15,795
893,2	22,395
893,6	27,367
894	33,91
894,4	30,281
894,9	30,31
895,3	28,595
895,7	31,224
896,1	28,224
896,6	26,624
897	23,11
897,4	28,567
897,8	32,738
898,3	31,538
898,7	27,31
899,1	27,024
899,5	22,452
900	14,824
900,4	14,252
900,8	8,395
901,2	4,624
901,7	5,595
902,1	5,195
902,5	9,367
902,9	9,538
903,4	7,367
903,8	9,452
904,2	15,71
904,6	14,795
905,1	18,881
905,5	17,967
905,9	24,538
906,3	25,224
906,8	27,224
907,2	26,71
907,6	27,395
908	22,824
908,5	16,967
908,9	13,567
909,3	14,281
909,7	10,824
910,2	9,624
910,6	16,252
911	12,767
911,4	18,938
911,9	16,824
912,3	12,938
912,7	14,595
913,1	14,224
913,6	9,681
914	13,167
914,4	7,624
914,8	11,995
915,3	8,081
915,7	5,852
916,1	4,852
916,5	2,995
916,9	0,652
917,4	3,91
917,8	-0,662
918,2	-2,405
918,6	-4,605
919,1	-2,262
919,5	0,624
919,9	1,595
920,3	-1,319
920,8	-0,748
921,2	6,081
921,6	10,31
922	10,11
922,5	7,31
922,9	8,224
923,3	8,452
923,7	9,71
924,2	8,538
924,6	8,138
925	7,767
925,4	10,052
925,8	7,767
926,3	12,567
926,7	11,624
927,1	12,081
927,5	11,424
928	7,424
928,4	1,995
928,8	6,367
929,2	1,11
929,7	2,252
930,1	5,481
930,5	5,167
930,9	9,224
931,3	15,367
931,8	13,338
932,2	14,881
932,6	16,338
933	11,595
933,5	12,71
933,9	12,252
934,3	9,624
934,7	9,567
935,2	13,481
935,6	11,624
936	14,995
936,4	14,052
936,8	15,995
937,3	12,938
937,7	11,995
938,1	10,967
938,5	7,024
939	5,167
939,4	2,595
939,8	0,51
940,2	4,395
940,6	6,567
941,1	2,967
941,5	9,367
941,9	7,795
942,3	8,081
942,8	7,138
943,2	4,624
943,6	-1,29
944	1,367
944,4	-0,633
944,9	-4,29
945,3	-2,776
945,7	-5,833
946,1	-6,548
946,6	-4,748
947	-5,005
947,4	0,081
947,8	4,938
948,2	1,938
948,7	4,967
949,1	2,681
949,5	7,024
949,9	9,024
950,3	3,424
950,8	1,767
951,2	2,567
951,6	1,538
952	7,138
952,5	2,281
952,9	0,195
953,3	1,995
953,7	-0,148
954,1	5,71
954,6	7,595
955	5,91
955,4	7,795
955,8	10,738
956,2	8,167
956,7	12,995
957,1	8,052
957,5	11,024
957,9	10,081
958,3	9,967
958,8	9,51
959,2	15,51
959,6	15,081
960	16,51
960,5	15,767
960,9	18,995
961,3	16,652
961,7	14,081
962,1	9,51
962,6	10,567
963	11,51
963,4	4,738
963,8	0,852
964,2	5,624
964,7	6,967
965,1	9,481
965,5	7,938
965,9	8,195
966,3	9,967
966,8	12,052
967,2	6,595
967,6	3,538
968	-0,233
968,4	1,767
968,9	0,938
969,3	3,71
969,7	-2,033
970,1	1,138
970,5	-1,662
971	1,167
971,4	-1,376
971,8	-1,176
972,2	-2,49
972,6	1,767
973,1	0,995
973,5	4,481
973,9	7,91
974,3	10,71
974,7	14,795
975,2	17,852
975,6	15,738
976	14,71
976,4	16,195
976,8	12,624
977,3	9,052
977,7	3,481
978,1	-0,748
978,5	1,395
978,9	-2,062
979,4	-2,062
979,8	-5,69
980,2	-4,005
980,6	-5,948
981	-1,519
981,5	-2,09
981,9	1,138
982,3	-1,748
982,7	1,195
983,1	-4,462
983,6	-1,005
984	-1,548
984,4	-1,462
984,8	-0,662
985,2	0,224
985,6	-4,262
986,1	0,367
986,5	-2,233
986,9	-9,233
987,3	-5,948
987,7	-2,919
988,2	-1,776
988,6	1,567
989	1,91
989,4	1,881
989,8	3,338
990,3	-1,576
990,7	-4,176
991,1	-2,633
991,5	-2,662
991,9	-6,233
992,3	-1,376
992,8	1,71
993,2	1,195
993,6	4,11
994	4,281
994,4	6,367
994,9	6,938
995,3	3,281
995,7	2,681
996,1	0,938
996,5	-3,119
996,9	-9,119
997,4	-7,119
997,8	-5,148
998,2	-8,776
998,6	-18,49
999	-11,948
999,5	-7,119
999,9	-4,348
1000,3	-11,205
1000,7	-7,376
1001,1	-5,148
1001,5	3,767
1002	2,624
1002,4	3,024
1002,8	2,824
1003,2	6,195
1003,6	4,51
1004	6,824
1004,5	4,624
1004,9	1,652
1005,3	-7,148
1005,7	-5,548
1006,1	-8,662
1006,6	-11,662
1007	-11,919
1007,4	-11,862
1007,8	-9,805
1008,2	-6,662
1008,6	-6,005
1009,1	-4,376
1009,5	-6,319
1009,9	-5,233
1010,3	-3,833
1010,7	-7,062
1011,1	-6,348
1011,6	-5,948
1012	-0,319
1012,4	2,224
1012,8	0,024
1013,2	7,024
1013,6	12,224
1014,1	13,938
1014,5	13,338
1014,9	9,281
1015,3	7,167
1015,7	7,481
1016,1	1,252
1016,6	1,967
1017	-0,319
1017,4	-0,176
1017,8	-1,719
1018,2	1,738
1018,6	3,567
1019,1	6,338
1019,5	5,252
1019,9	4,538
1020,3	5,481
1020,7	10,881
1021,1	11,71
1021,6	6,824
1022	6,852
1022,4	4,31
1022,8	8,395
1023,2	6,567
1023,6	-0,919
1024,1	0,195
1024,5	1,852
1024,9	-1,348
1025,3	-1,348
1025,7	-6,919
1026,1	-4,748
1026,6	-1,262
1027	-2,205
1027,4	2,595
1027,8	1,71
1028,2	-0,89
1028,6	4,767
1029	2,424
1029,5	7,91
1029,9	5,081
1030,3	-0,233
1030,7	-1,862
1031,1	4,967
1031,5	-0,433
1032	-0,862
1032,4	-5,862
1032,8	-4,29
1033,2	-1,09
1033,6	-0,719
1034	-6,519
1034,4	-4,119
1034,9	-3,005
1035,3	-4,205
1035,7	-4,148
1036,1	-11,09
1036,5	-10,29
1036,9	-8,462
1037,4	-3,548
1037,8	-7,805
1038,2	-7,462
1038,6	-4,49
1039	3,452
1039,4	9,452
1039,8	7,052
1040,3	2,024
1040,7	6,91
1041,1	7,481
1041,5	5,138
1041,9	3,31
1042,3	-2,319
1042,7	1,995
1043,2	3,652
1043,6	-0,319
1044	1,167
1044,4	2,252
1044,8	3,252
1045,2	5,652
1045,6	5,938
1046,1	5,195
1046,5	6,11
1046,9	2,767
1047,3	1,567
1047,7	0,767
1048,1	-1,89
1048,5	-2,062
1049	-3,576
1049,4	3,138
1049,8	-0,605
1050,2	0,738
1050,6	7,681
1051	12,538
1051,4	12,367
1051,9	13,195
1052,3	17,795
1052,7	23,024
1053,1	15,395
1053,5	11,938
1053,9	11,424
1054,3	11,424
1054,8	17,795
1055,2	9,452
1055,6	14,252
1056	18,195
1056,4	10,852
1056,8	6,395
1057,2	2,824
1057,6	-4,062
1058,1	-3,09
1058,5	-9,576
1058,9	-10,233
1059,3	-3,176
1059,7	0,281
1060,1	5,424
1060,5	7,681
1061	8,91
1061,4	8,567
1061,8	10,91
1062,2	8,852
1062,6	13,052
1063	12,167
1063,4	12,881
1063,8	9,31
1064,3	5,224
1064,7	5,652
1065,1	6,795
1065,5	-2,862
1065,9	-7,576
1066,3	-12,576
1066,7	-13,576
1067,1	-14,49
1067,6	-10,948
1068	-19,09
1068,4	-13,405
1068,8	-8,376
1069,2	-8,633
1069,6	-7,462
1070	0,024
1070,4	-5,29
1070,9	0,024
1071,3	-2,262
1071,7	-5,805
1072,1	-0,148
1072,5	-0,548
1072,9	-2,005
1073,3	1,481
1073,7	0,367
1074,2	2,71
1074,6	5,338
1075	2,31
1075,4	3,938
1075,8	3,795
1076,2	0,224
1076,6	0,767
1077	-4,09
1077,5	-4,719
1077,9	-6,633
1078,3	-5,433
1078,7	-4,262
1079,1	-1,89
1079,5	-1,89
1079,9	1,252
1080,3	0,452
1080,7	3,052
1081,2	6,995
1081,6	5,224
1082	1,424
1082,4	5,624
1082,8	7,852
1083,2	9,424
1083,6	11,081
1084	5,081
1084,5	8,538
1084,9	11,995
1085,3	3,281
1085,7	1,852
1086,1	-0,462
1086,5	0,167
1086,9	4,138
1087,3	3,767
1087,7	2,252
1088,2	6,338
1088,6	3,852
1089	5,938
1089,4	1,538
1089,8	-2,462
1090,2	-6,805
1090,6	-6,948
1091	-3,376
1091,4	-1,89
1091,9	-0,49
1092,3	2,138
1092,7	2,424
1093,1	6,367
1093,5	6,995
1093,9	3,995
1094,3	7,681
1094,7	3,138
1095,1	6,738
1095,5	7,424
1096	5,11
1096,4	5,71
1096,8	6,367
1097,2	2,938
1097,6	9,081
1098	8,167
1098,4	11,538
1098,8	13,138
1099,2	16,538
1099,6	15,995
1100,1	16,652
1100,5	11,852
1100,9	8,367
1101,3	4,852
1101,7	2,652
1102,1	-0,805
1102,5	0,91
1102,9	3,024
1103,3	7,11
1103,7	8,224
1104,2	5,424
1104,6	6,052
1105	4,51
1105,4	1,881
1105,8	-1,205
1106,2	-5,262
1106,6	-5,69
1107	-3,405
1107,4	-3,367
1107,8	-1,673
1108,3	-0,283
