Data from Subt2_188.txt Node
Date: Sat Aug 26 18:41:43 MSK 2023
User: vat
Spectrometer: MAYP114033
Trigger mode: 0
Integration Time (sec): 1,000000E0
Scans to average: 5
Electric dark correction enabled: true
Nonlinearity correction enabled: false
Boxcar width: 3
XAxis mode: Wavelengths
Number of Pixels in Spectrum: 2068
>>>>>Begin Spectral Data<<<<<
199,4	0,267
199,9	-0,293
200,4	-0,733
200,8	1,124
201,3	-0,133
201,8	1,61
202,2	-1,219
202,7	2,61
203,2	1,438
203,6	2,438
204,1	-0,59
204,6	2,867
205	3,038
205,5	5,267
206	2,352
206,4	2,381
206,9	1,61
207,4	5,267
207,8	3,867
208,3	3,295
208,8	2,01
209,2	2,238
209,7	5,581
210,2	6,124
210,6	3,524
211,1	1,952
211,5	3,01
212	3,152
212,5	2,41
212,9	-3,59
213,4	-4,019
213,9	-3,419
214,3	-1,933
214,8	0,724
215,3	2,267
215,7	7,124
216,2	12,381
216,7	15,352
217,1	13,867
217,6	16,467
218,1	12,952
218,5	10,724
219	1,552
219,5	2,724
219,9	-4,476
220,4	3,324
220,9	2,01
221,3	1,61
221,8	3,152
222,3	7,952
222,7	5,838
223,2	9,838
223,6	3,295
224,1	0,324
224,6	0,495
225	1,41
225,5	-0,562
226	0,724
226,4	3,038
226,9	6,781
227,4	7,381
227,8	2,924
228,3	1,495
228,8	4,724
229,2	4,895
229,7	3,667
230,2	1,267
230,6	7,267
231,1	15,61
231,5	18,124
232	18,438
232,5	16,952
232,9	18,638
233,4	18,867
233,9	16,267
234,3	12,61
234,8	12,695
235,3	11,867
235,7	12,324
236,2	12,495
236,7	8,667
237,1	5,638
237,6	0,438
238,1	-1,819
238,5	-3,048
239	-2,448
239,4	0,038
239,9	0,61
240,4	3,181
240,8	9,238
241,3	7,724
241,8	6,752
242,2	7,381
242,7	-0,619
243,2	-0,105
243,6	-4,162
244,1	-3,448
244,6	-0,133
245	-1,219
245,5	-1,419
245,9	-0,848
246,4	0,381
246,9	5,781
247,3	5,838
247,8	6,352
248,3	7,724
248,7	7,724
249,2	11,752
249,7	13,238
250,1	9,61
250,6	5,981
251	6,724
251,5	6,41
252	8,552
252,4	11,724
252,9	6,838
253,4	5,581
253,8	5,924
254,3	6,581
254,8	6,667
255,2	0,724
255,7	-4,705
256,1	-0,648
256,6	0,638
257,1	4,01
257,5	-0,162
258	-3,848
258,5	0,067
258,9	-2,505
259,4	-3,619
259,9	-1,962
260,3	-5,419
260,8	-7,162
261,2	-1,019
261,7	-0,99
262,2	-2,048
262,6	-6,476
263,1	-4,648
263,6	-6,676
264	0,438
264,5	1,838
264,9	1,238
265,4	8,238
265,9	11,524
266,3	12,924
266,8	14,152
267,3	9,752
267,7	4,267
268,2	4,581
268,7	2,238
269,1	6,952
269,6	1,152
270	5,467
270,5	5,295
271	7,095
271,4	6,381
271,9	4,581
272,4	6,095
272,8	7,924
273,3	2,41
273,7	5,41
274,2	7,638
274,7	5,867
275,1	7,438
275,6	5,981
276,1	2,61
276,5	6,752
277	3,895
277,4	3,724
277,9	5,124
278,4	8,267
278,8	8,581
279,3	14,952
279,8	17,238
280,2	16,781
280,7	16,038
281,1	15,581
281,6	11,781
282,1	11,238
282,5	6,895
283	3,467
283,4	4,981
283,9	5,038
284,4	10,41
284,8	11,152
285,3	6,724
285,8	6,838
286,2	6,952
286,7	7,352
287,1	3,581
287,6	-4,79
288,1	-7,019
288,5	-2,019
289	-2,105
289,5	-2,848
289,9	-5,59
290,4	4,181
290,8	6,267
291,3	7,238
291,8	4,095
292,2	2,924
292,7	10,267
293,1	11,095
293,6	8,067
294,1	9,552
294,5	9,81
295	12,381
295,5	11,667
295,9	7,952
296,4	6,724
296,8	2,438
297,3	0,238
297,8	-3,619
298,2	-6,505
298,7	0,124
299,1	-0,733
299,6	-3,39
300,1	-1,819
300,5	0,81
301	6,752
301,5	8,352
301,9	4,581
302,4	-0,019
302,8	4,324
303,3	4,01
303,8	2,067
304,2	2,352
304,7	0,238
305,1	-2,533
305,6	-0,99
306,1	3,181
306,5	4,81
307	8,21
307,4	8,867
307,9	8,867
308,4	8,095
308,8	5,295
309,3	3,181
309,8	-1,276
310,2	-2,219
310,7	-4,905
311,1	-5,905
311,6	-5,419
312,1	0,467
312,5	1,152
313	4,552
313,4	4,924
313,9	7,638
314,4	7,324
314,8	6,867
315,3	8,295
315,7	3,038
316,2	2,495
316,7	1,695
317,1	3,152
317,6	7,038
318	13,581
318,5	13,152
319	13,638
319,4	15,238
319,9	17,981
320,3	19,01
320,8	15,01
321,3	17,067
321,7	17,781
322,2	17,238
322,6	18,324
323,1	14,381
323,6	8,038
324	5,752
324,5	2,038
324,9	1,638
325,4	2,267
325,9	-0,59
326,3	0,038
326,8	5,238
327,2	7,267
327,7	5,181
328,2	1,352
328,6	5,981
329,1	1,01
329,5	2,981
330	1,238
330,5	5,124
330,9	6,295
331,4	6,752
331,8	3,495
332,3	11,181
332,8	11,21
333,2	10,495
333,7	8,981
334,1	6,81
334,6	4,124
335,1	0,638
335,5	-1,79
336	-2,505
336,4	-3,505
336,9	4,352
337,4	7,752
337,8	7,524
338,3	9,124
338,7	10,524
339,2	7,752
339,7	10,352
340,1	2,495
340,6	0,238
341	3,295
341,5	6,981
342	5,524
342,4	1,981
342,9	-2,619
343,3	-3,333
343,8	-3,419
344,2	-2,219
344,7	0,867
345,2	-2,019
345,6	1,81
346,1	9,752
346,5	9,495
347	10,01
347,5	8,524
347,9	10,41
348,4	15,295
348,8	17,61
349,3	15,181
349,8	15,81
350,2	20,952
350,7	18,867
351,1	15,21
351,6	16,724
352	19,067
352,5	20,238
353	31,952
353,4	36,724
353,9	51,495
354,3	64,552
354,8	76,867
355,3	98,752
355,7	121,01
356,2	138,124
356,6	163,267
357,1	193,152
357,5	223,495
358	265,381
358,5	303,838
358,9	350,552
359,4	403,352
359,8	462,581
360,3	527,267
360,8	602,495
361,2	682,838
361,7	776,352
362,1	880,238
362,6	994,124
363	1112,352
363,5	1239,638
364	1376,038
364,4	1511,781
364,9	1651,81
365,3	1786,295
365,8	1915,438
366,3	2037,267
366,7	2149,41
367,2	2246,067
367,6	2321,067
368,1	2379,267
368,5	2417,324
369	2430,952
369,5	2435,638
369,9	2417,152
370,4	2381,181
370,8	2335,495
371,3	2263,038
371,7	2182,61
372,2	2097,067
372,7	1998,695
373,1	1892,952
373,6	1782,238
374	1668,924
374,5	1560,181
374,9	1458,181
375,4	1354,438
375,9	1251,667
376,3	1151,638
376,8	1055,752
377,2	969,752
377,7	892,981
378,2	813,124
378,6	747,81
379,1	682,438
379,5	634,01
380	589,61
380,4	543,124
380,9	495,495
381,4	458,41
381,8	421,638
382,3	394,267
382,7	362,952
383,2	332,467
383,6	310,724
384,1	294,667
384,6	273,924
385	253,981
385,5	237,01
385,9	216,581
386,4	201,267
386,8	188,61
387,3	170,695
387,7	162,495
388,2	154,867
388,7	139,924
389,1	135,095
389,6	128,552
390	119,695
390,5	117,01
390,9	109,552
391,4	98,895
391,9	93,495
392,3	86,952
392,8	81,638
393,2	75,238
393,7	69,381
394,1	60,181
394,6	59,981
395,1	59,667
395,5	56,438
396	55,124
396,4	53,924
396,9	51,495
397,3	56,238
397,8	53,267
398,2	49,667
398,7	50,067
399,2	47,61
399,6	46,895
400,1	46,724
400,5	41,438
401	43,324
401,4	43,295
401,9	43,095
402,4	44,467
402,8	45,352
403,3	49,638
403,7	49,495
404,2	50,581
404,6	54,695
405,1	52,61
405,5	51,667
406	52,752
406,5	46,638
406,9	50,552
407,4	50,181
407,8	52,238
408,3	57,895
408,7	60,695
409,2	67,838
409,6	76,924
410,1	84,352
410,6	91,381
411	92,981
411,5	96,524
411,9	101,667
412,4	101,495
412,8	107,924
413,3	108,638
413,7	113,638
414,2	120,81
414,7	131,467
415,1	141,952
415,6	155,667
416	160,067
416,5	169,752
416,9	174,952
417,4	187,895
417,8	198,981
418,3	209,41
418,8	216,867
419,2	232,895
419,7	242,152
420,1	260,695
420,6	271,695
421	276,724
421,5	289,524
421,9	304,152
422,4	318,867
422,8	339,552
423,3	350,067
423,8	363,638
424,2	381,838
424,7	397,638
425,1	414,895
425,6	434,124
426	449,324
426,5	474,952
426,9	499,324
427,4	519,81
427,9	543,324
428,3	569,467
428,8	597,438
429,2	624,41
429,7	648,01
430,1	674,552
430,6	711,181
431	746,21
431,5	779,952
431,9	806,81
432,4	847,724
432,8	887,524
433,3	931,238
433,8	972,238
434,2	1015,038
434,7	1060,952
435,1	1116,295
435,6	1165,152
436	1220,467
436,5	1281,752
436,9	1343,238
437,4	1402,295
437,8	1467,895
438,3	1534,41
438,8	1604,695
439,2	1675,495
439,7	1746,038
440,1	1818,438
440,6	1902,067
441	1978,81
441,5	2058,867
441,9	2146,295
442,4	2233,124
442,8	2327,438
443,3	2427,067
443,7	2524,267
444,2	2632,295
444,7	2737,495
445,1	2844,638
445,6	2961,81
446	3076,81
446,5	3186,438
446,9	3298,552
447,4	3418,324
447,8	3545,981
448,3	3677,867
448,7	3807,724
449,2	3939,01
449,6	4078,924
450,1	4220,581
450,6	4371,21
451	4513,01
451,5	4660,667
451,9	4810,495
452,4	4965,752
452,8	5117,895
453,3	5279,267
453,7	5427,21
454,2	5599,952
454,6	5766,981
455,1	5945,238
455,5	6112,352
456	6295,438
456,4	6469,038
456,9	6655,295
457,3	6829,152
457,8	7008,41
458,3	7174,581
458,7	7362,924
459,2	7550,41
459,6	7747,581
460,1	7931,181
460,5	8121,581
461	8314,352
461,4	8508,81
461,9	8698,267
462,3	8884,438
462,8	9085,952
463,2	9276,41
463,7	9479,01
464,1	9682,238
464,6	9887,524
465	10087,495
465,5	10285,61
466	10481,324
466,4	10677,352
466,9	10872,552
467,3	11056,781
467,8	11256,638
468,2	11449,267
468,7	11637,981
469,1	11820,895
469,6	12013,667
470	12201,181
470,5	12400,381
470,9	12571,295
471,4	12753,781
471,8	12931,81
472,3	13110,924
472,7	13288,752
473,2	13449,524
473,6	13601,638
474,1	13772,638
474,5	13935,524
475	14102,667
475,4	14250,124
475,9	14407,552
476,4	14561,124
476,8	14706,124
477,3	14845,552
477,7	14985,867
478,2	15114,524
478,6	15253,867
479,1	15376,21
479,5	15492,667
480	15606,981
480,4	15721,752
480,9	15813,552
481,3	15913,381
481,8	16004,581
482,2	16084,552
482,7	16166,21
483,1	16244,781
483,6	16315,867
484	16393,781
484,5	16465,152
484,9	16513,524
485,4	16571,638
485,8	16618,438
486,3	16674,81
486,7	16705,467
487,2	16720,152
487,6	16738,61
488,1	16756,381
488,5	16766,495
489	16790,181
489,4	16781,752
489,9	16788,924
490,4	16806,838
490,8	16797,495
491,3	16782,781
491,7	16760,638
492,2	16726,21
492,6	16697,695
493,1	16650,838
493,5	16600,838
494	16551,638
494,4	16516,01
494,9	16471,067
495,3	16417,295
495,8	16367,181
496,2	16327,838
496,7	16252,552
497,1	16199,238
497,6	16127,381
498	16070,41
498,5	15997,867
498,9	15915,095
499,4	15824,952
499,8	15775,838
500,3	15689,524
500,7	15604,038
501,2	15504,838
501,6	15430,495
502,1	15349,038
502,5	15264,695
503	15166,581
503,4	15074,152
503,9	14977,752
504,3	14884,524
504,8	14776,438
505,2	14673,152
505,7	14566,895
506,1	14453,667
506,6	14341,01
507	14226,438
507,5	14117,067
507,9	14007,124
508,4	13896,01
508,8	13776,752
509,3	13654,381
509,7	13544,295
510,2	13439,038
510,6	13307,924
511,1	13181,981
511,5	13060,638
512	12943,01
512,4	12822,752
512,9	12704,695
513,3	12580,667
513,8	12463,095
514,2	12341,352
514,7	12210,095
515,1	12091,124
515,6	11970,981
516	11841,095
516,5	11717,267
516,9	11603,467
517,4	11488,838
517,8	11374,067
518,3	11255,981
518,7	11142,352
519,2	11016,295
519,6	10899,724
520,1	10783,895
520,5	10658,981
521	10542,067
521,4	10421,667
521,9	10301,724
522,3	10192,667
522,8	10075,838
523,2	9955,552
523,7	9839,495
524,1	9725,238
524,6	9608,752
525	9498,41
525,5	9394,21
525,9	9292,81
526,4	9184,352
526,8	9080,724
527,3	8985,438
527,7	8889,41
528,2	8791,067
528,6	8691,638
529,1	8591,238
529,5	8502,095
530	8410,638
530,4	8312,924
530,9	8220,781
531,3	8128,924
531,8	8038,438
532,2	7947,495
532,6	7851,981
533,1	7766,495
533,5	7687,181
534	7591,81
534,4	7507,638
534,9	7424,867
535,3	7346,095
535,8	7271,838
536,2	7192,638
536,7	7112,152
537,1	7042,067
537,6	6967,724
538	6893,067
538,5	6823,61
538,9	6745,924
539,4	6671,781
539,8	6594,21
540,3	6528,095
540,7	6459,895
541,2	6392,752
541,6	6319,638
542,1	6250,381
542,5	6189,295
543	6130,781
543,4	6062,952
543,9	5997,724
544,3	5937,181
544,8	5875,924
545,2	5820,695
545,7	5764,781
546,1	5705,267
546,5	5655,324
547	5599,41
547,4	5536,952
547,9	5481,152
548,3	5434,381
548,8	5373,152
549,2	5322,838
549,7	5268,438
550,1	5222,01
550,6	5174,467
551	5129,21
551,5	5076,324
551,9	5033,61
552,4	4980,81
552,8	4935,41
553,3	4886,667
553,7	4841,895
554,2	4797,381
554,6	4753,552
555,1	4715,067
555,5	4676,981
555,9	4637,41
556,4	4594,01
556,8	4554,581
557,3	4521,438
557,7	4489,238
558,2	4449,895
558,6	4410,61
559,1	4369,41
559,5	4338,581
560	4302,495
560,4	4258,41
560,9	4217,381
561,3	4182,238
561,8	4147,438
562,2	4117,438
562,7	4079,438
563,1	4050,038
563,6	4010,238
564	3977,981
564,4	3944,638
564,9	3921,667
565,3	3891,352
565,8	3862,21
566,2	3836,781
566,7	3819,067
567,1	3793,067
567,6	3765,067
568	3730,324
568,5	3697,495
568,9	3666,495
569,4	3635,381
569,8	3605,124
570,3	3573,924
570,7	3543,324
571,1	3513,352
571,6	3490,41
572	3476,152
572,5	3451,724
572,9	3425,352
573,4	3402,038
573,8	3387,01
574,3	3364,467
574,7	3336,895
575,2	3307,295
575,6	3278,152
576,1	3257,838
576,5	3243,181
576,9	3216,924
577,4	3192,838
577,8	3174,238
578,3	3151,124
578,7	3128,381
579,2	3109,638
579,6	3075,924
580,1	3048,21
580,5	3026,638
581	3007,01
581,4	2989,21
581,9	2970,095
582,3	2942,867
582,7	2922,438
583,2	2900,124
583,6	2883,924
584,1	2862,895
584,5	2840,01
585	2820,21
585,4	2796,981
585,9	2787,724
586,3	2778,638
586,8	2761,552
587,2	2738,267
587,6	2724,667
588,1	2706,724
588,5	2697,495
589	2675,381
589,4	2652,552
589,9	2636,352
590,3	2621,038
590,8	2599,952
591,2	2587,581
591,7	2575,181
592,1	2561,067
592,5	2548,581
593	2531,552
593,4	2516,552
593,9	2502,352
594,3	2484,61
594,8	2459,067
595,2	2439,781
595,7	2424,095
596,1	2404,095
596,6	2394,952
597	2383,895
597,4	2369,724
597,9	2360,324
598,3	2354,61
598,8	2345,095
599,2	2336,381
599,7	2324,324
600,1	2302,21
600,6	2289,181
601	2277,524
601,4	2261,61
601,9	2245,924
602,3	2232,952
602,8	2216,267
603,2	2211,152
603,7	2200,181
604,1	2187,381
604,6	2175,81
605	2158,01
605,4	2148,21
605,9	2135,324
606,3	2114,495
606,8	2104,41
607,2	2089,324
607,7	2072,895
608,1	2064,095
608,6	2054,21
609	2043,61
609,4	2040,81
609,9	2023,524
610,3	2011,867
610,8	2005,638
611,2	1996,381
611,7	1984,181
612,1	1968,124
612,6	1956,438
613	1952,21
613,4	1942,495
613,9	1926,752
614,3	1910,095
614,8	1895,924
615,2	1885,267
615,7	1872,981
616,1	1861,295
616,6	1850,952
617	1840,781
617,4	1834,038
617,9	1827,152
618,3	1820,295
618,8	1812,095
619,2	1796,438
619,7	1786,21
620,1	1771,952
620,5	1765,352
621	1751,867
621,4	1741,095
621,9	1728,467
622,3	1720,324
622,8	1706,295
623,2	1699,324
623,6	1682,01
624,1	1670,295
624,5	1659,495
625	1645,61
625,4	1634,295
625,9	1626,124
626,3	1615,21
626,8	1605,752
627,2	1598,952
627,6	1588,952
628,1	1577,324
628,5	1570,295
629	1557,61
629,4	1542,01
629,9	1532,467
630,3	1516,295
630,7	1497,61
631,2	1492,838
631,6	1482,295
632,1	1473,438
632,5	1470,438
633	1459,638
633,4	1453,438
633,8	1455,295
634,3	1443,524
634,7	1426,952
635,2	1418,038
635,6	1409,438
636,1	1404,667
636,5	1391,238
636,9	1375,152
637,4	1368,895
637,8	1362,267
638,3	1350,838
638,7	1338,267
639,2	1319,981
639,6	1312,695
640	1309,267
640,5	1296,752
640,9	1292,981
641,4	1288,61
641,8	1282,41
642,2	1279,438
642,7	1275,038
643,1	1265,238
643,6	1258,124
644	1250,467
644,5	1243,438
644,9	1236,638
645,3	1230,924
645,8	1221,524
646,2	1214,638
646,7	1206,524
647,1	1196,038
647,6	1190,267
648	1184,381
648,4	1171,81
648,9	1164,01
649,3	1156,495
649,8	1148,781
650,2	1139,524
650,6	1137,524
651,1	1124,981
651,5	1127,038
652	1119,067
652,4	1111,724
652,9	1109,752
653,3	1104,981
653,7	1092,924
654,2	1089,352
654,6	1076,124
655,1	1074,838
655,5	1072,524
655,9	1061,095
656,4	1054,838
656,8	1045,267
657,3	1040,095
657,7	1037,695
658,2	1029,61
658,6	1017,067
659	1014,638
659,5	1005,41
659,9	998,124
660,4	991,981
660,8	982,067
661,2	969,524
661,7	964,838
662,1	958,295
662,6	952,924
663	946,695
663,4	935,581
663,9	929,81
664,3	925,924
664,8	916,324
665,2	902,838
665,6	896,581
666,1	891,467
666,5	889,724
667	882,352
667,4	875,695
667,9	870,638
668,3	870,867
668,7	862,581
669,2	861,181
669,6	850,781
670,1	845,895
670,5	839,61
670,9	832,752
671,4	824,638
671,8	827,981
672,3	822,352
672,7	818,838
673,1	809,438
673,6	802,41
674	800,238
674,5	798,095
674,9	783,695
675,3	773,038
675,8	774,41
676,2	772,752
676,7	768,552
677,1	766,181
677,5	754,124
678	751,324
678,4	746,495
678,9	735,552
679,3	726,124
679,7	719,581
680,2	709,552
680,6	704,838
681,1	701,752
681,5	698,181
681,9	693,324
682,4	694,867
682,8	694,352
683,3	691,41
683,7	689,467
684,1	684,267
684,6	674,41
685	667,352
685,5	654,695
685,9	643,895
686,3	631,724
686,8	628,381
687,2	623,238
687,7	619,467
688,1	610,867
688,5	613,181
689	613,781
689,4	611,924
689,9	605,295
690,3	597,324
690,7	598,438
691,2	599,61
691,6	596,267
692	589,581
692,5	589,552
692,9	587,295
693,4	581,552
693,8	576,467
694,2	569,381
694,7	564,124
695,1	558,495
695,6	557,752
696	553,981
696,4	550,552
696,9	539,495
697,3	532,295
697,8	527,067
698,2	529,095
698,6	523,667
699,1	519,61
699,5	521,238
699,9	519,952
700,4	519,495
700,8	519,581
701,3	512,838
701,7	503,952
702,1	497,952
702,6	492,495
703	493,038
703,5	489,724
703,9	477,81
704,3	474,181
704,8	472,667
705,2	470,981
705,6	467,21
706,1	463,067
706,5	459,238
707	465,867
707,4	465,495
707,8	461,324
708,3	459,124
708,7	456,381
709,2	456,581
709,6	452,61
710	446,524
710,5	434,524
710,9	431,981
711,3	426,181
711,8	423,038
712,2	420,152
712,7	416,781
713,1	410,352
713,5	412,324
714	412,667
714,4	408,838
714,8	406,067
715,3	401,695
715,7	404,81
716,2	398,895
716,6	399,952
717	393,324
717,5	390,667
717,9	389,924
718,3	382,61
718,8	375,581
719,2	379,552
719,7	375,81
720,1	374,038
720,5	374,41
721	368,724
721,4	366,21
721,8	368,638
722,3	361,181
722,7	360,81
723,2	353,095
723,6	343,21
724	341,21
724,5	340,41
724,9	328,067
725,3	326,095
725,8	317,524
726,2	318,41
726,7	324,152
727,1	321,895
727,5	320,524
728	322,238
728,4	319,124
728,8	320,295
729,3	318,867
729,7	309,381
730,1	305,181
730,6	302,838
731	300,695
731,5	298,324
731,9	290,61
732,3	289,752
732,8	290,238
733,2	291,552
733,6	286,552
734,1	287,81
734,5	288,124
734,9	291,352
735,4	291,667
735,8	290,038
736,3	290,21
736,7	289,381
737,1	285,238
737,6	282,781
738	277,467
738,4	272,181
738,9	272,095
739,3	265,867
739,7	264,924
740,2	257,352
740,6	259,695
741,1	264,01
741,5	260,524
741,9	258,238
742,4	259,438
742,8	260,495
743,2	267,552
743,7	260,038
744,1	253,095
744,5	249,867
745	248,067
745,4	245,524
745,8	243,552
746,3	236,295
746,7	235,295
747,2	236,01
747,6	244,781
748	243,895
748,5	242,181
748,9	234,21
749,3	235,638
749,8	233,181
750,2	231,838
750,6	217,81
751,1	221,524
751,5	219,867
751,9	225,152
752,4	223,552
752,8	224,295
753,3	220,867
753,7	228,381
754,1	215,952
754,6	211,952
755	204,724
755,4	201,495
755,9	204,238
756,3	200,124
756,7	194,81
757,2	199,81
757,6	200,638
758	203,495
758,5	203,552
758,9	198,667
759,3	202,867
759,8	204,238
760,2	204,581
760,6	204,095
761,1	199,181
761,5	198,724
761,9	195,238
762,4	189,638
762,8	188,038
763,3	183,638
763,7	182,667
764,1	182,867
764,6	181,781
765	185,495
765,4	186,781
765,9	183,724
766,3	187,295
766,7	184,238
767,2	180,038
767,6	182,867
768	176,924
768,5	177,495
768,9	178,981
769,3	170,095
769,8	169,152
770,2	171,267
770,6	164,267
771,1	166,552
771,5	163,638
771,9	159,638
772,4	161,581
772,8	162,324
773,2	162,724
773,7	166,381
774,1	164,295
774,5	162,467
775	162,295
775,4	162,781
775,8	159,095
776,3	158,924
776,7	155,352
777,1	153,21
777,6	150,21
778	151,867
778,4	150,895
778,9	152,267
779,3	149,552
779,7	148,952
780,2	147,467
780,6	146,181
781	142,524
781,5	139,552
781,9	137,124
782,3	131,095
782,8	133,381
783,2	131,495
783,6	135,21
784,1	129,067
784,5	126,21
784,9	125,61
785,4	130,41
785,8	127,152
786,2	129,81
786,7	128,381
787,1	128,238
787,5	127,552
788	126,267
788,4	126,295
788,8	125,238
789,3	120,667
789,7	122,552
790,1	128,638
790,6	131,238
791	125,981
791,4	122,124
791,9	122,095
792,3	122,752
792,7	123,552
793,2	117,324
793,6	113,781
794	119,095
794,5	118,038
794,9	117,581
795,3	117,952
795,8	113,324
796,2	115,352
796,6	115,324
797,1	113,295
797,5	112,324
797,9	109,21
798,4	108,724
798,8	105,638
799,2	105,238
799,7	107,067
800,1	105,381
800,5	105,752
801	105,981
801,4	107,924
801,8	108,781
802,2	108,41
802,7	102,41
803,1	101,295
803,5	104,124
804	103,81
804,4	100,924
804,8	101,01
805,3	100,295
805,7	104,924
806,1	102,238
806,6	101,695
807	103,41
807,4	103,324
807,9	96,495
808,3	93,181
808,7	90,552
809,2	95,781
809,6	93,41
810	89,781
810,4	89,124
810,9	91,895
811,3	96,895
811,7	96,238
812,2	97,924
812,6	98,41
813	102,752
813,5	100,952
813,9	102,067
814,3	95,41
814,8	94,724
815,2	91,152
815,6	91,295
816,1	90,267
816,5	90,152
816,9	92,352
817,3	90,267
817,8	96,095
818,2	95,724
818,6	92,238
819,1	84,438
819,5	83,038
819,9	78,41
820,4	81,781
820,8	71,638
821,2	66,61
821,7	66,752
822,1	68,41
822,5	70,667
822,9	71,181
823,4	69,095
823,8	73,524
824,2	76,038
824,7	71,552
825,1	66,181
825,5	58,895
826	56,01
826,4	59,952
826,8	57,695
827,3	57,095
827,7	56,381
828,1	61,581
828,5	61,01
829	58,238
829,4	54,838
829,8	49,724
830,3	51,552
830,7	52,181
831,1	53,867
831,6	56,781
832	59,152
832,4	56,324
832,8	65,438
833,3	63,352
833,7	60,667
834,1	57,067
834,6	55,095
835	57,552
835,4	63,295
835,8	56,581
836,3	54,295
836,7	58,667
837,1	57,238
837,6	61,381
838	61,295
838,4	59,381
838,9	62,81
839,3	59,467
839,7	59,381
840,1	54,438
840,6	50,981
841	49,81
841,4	44,838
841,9	42,181
842,3	46,238
842,7	41,581
843,1	44,352
843,6	44,295
844	43,781
844,4	47,095
844,9	48,21
845,3	46,724
845,7	52,095
846,2	50,21
846,6	50,324
847	49,895
847,4	47,01
847,9	48,838
848,3	47,067
848,7	42,724
849,2	43,638
849,6	38,181
850	39,81
850,4	40,467
850,9	39,552
851,3	41,095
851,7	41,067
852,2	40,924
852,6	47,352
853	45,324
853,4	45,838
853,9	40,295
854,3	38,838
854,7	42,924
855,2	45,581
855,6	41,21
856	37,924
856,4	34,352
856,9	35,01
857,3	37,838
857,7	34,781
858,2	35,695
858,6	34,352
859	36,924
859,4	41,01
859,9	38,21
860,3	33,295
860,7	36,324
861,1	33,667
861,6	36,867
862	35,41
862,4	32,381
862,9	35,381
863,3	36,895
863,7	32,095
864,1	34,695
864,6	33,124
865	33,752
865,4	34,495
865,9	36,638
866,3	36,01
866,7	40,438
867,1	33,41
867,6	35,41
868	32,295
868,4	33,295
868,8	30,152
869,3	31,352
869,7	32,381
870,1	34,524
870,6	34,524
871	-38,933
871,4	-33,448
871,8	-35,476
872,3	-34,705
872,7	-37,276
873,1	-37,505
873,5	-36,448
874	39,924
874,4	35,238
874,8	38,495
875,3	39,067
875,7	37,581
876,1	39,067
876,5	35,095
877	38,895
877,4	38,152
877,8	39,924
878,2	39,524
878,7	40,895
879,1	40,695
879,5	39,781
879,9	37,038
880,4	32,295
880,8	29,895
881,2	28,038
881,7	21,752
882,1	20,895
882,5	18,724
882,9	16,552
883,4	17,552
883,8	20,095
884,2	22,21
884,6	24,952
885,1	26,495
885,5	28,41
885,9	28,067
886,3	31,267
886,8	28,724
887,2	23,295
887,6	21,981
888	19,181
888,5	20,952
888,9	19,21
889,3	13,238
889,8	12,238
890,2	12,152
890,6	12,324
891	12,495
891,5	10,238
891,9	10,952
892,3	16,924
892,7	18,895
893,2	22,124
893,6	23,467
894	27,981
894,4	24,667
894,9	25,381
895,3	22,038
895,7	20,495
896,1	19,095
896,6	21,495
897	22,381
897,4	31,467
897,8	33,095
898,3	36,495
898,7	34,924
899,1	34,295
899,5	30,124
900	23,552
900,4	19,981
900,8	13,495
901,2	9,867
901,7	9,438
902,1	10,381
902,5	10,467
902,9	10,867
903,4	8,324
903,8	13,181
904,2	11,838
904,6	14,495
905,1	15,352
905,5	19,752
905,9	21,581
906,3	28,181
906,8	29,238
907,2	34,638
907,6	31,867
908	33,438
908,5	28,61
908,9	25,552
909,3	16,124
909,7	14,952
910,2	10,895
910,6	14,152
911	10,467
911,4	14,067
911,9	16,067
912,3	20,895
912,7	23,981
913,1	26,152
913,6	22,838
914	23,924
914,4	18,524
914,8	19,667
915,3	16,695
915,7	9,924
916,1	7,867
916,5	7,381
916,9	4,581
917,4	6,438
917,8	5,552
918,2	4,638
918,6	2,667
919,1	3,724
919,5	7,867
919,9	12,695
920,3	10,924
920,8	8,638
921,2	9,581
921,6	9,267
922	10,61
922,5	8,181
922,9	4,295
923,3	3,467
923,7	5,41
924,2	6,21
924,6	9,067
925	9,152
925,4	8,467
925,8	10,724
926,3	11,981
926,7	11,638
927,1	13,438
927,5	17,181
928	12,352
928,4	9,495
928,8	7,724
929,2	7,581
929,7	8,238
930,1	7,695
930,5	8,01
930,9	11,467
931,3	12,895
931,8	13,21
932,2	11,41
932,6	5,924
933	-2,733
933,5	-0,705
933,9	-2,905
934,3	-2,105
934,7	-5,962
935,2	-0,305
935,6	2,352
936	10,095
936,4	8,095
936,8	9,981
937,3	9,552
937,7	14,581
938,1	11,924
938,5	8,21
939	9,467
939,4	7,095
939,8	5,638
940,2	5,667
940,6	8,181
941,1	6,152
941,5	13,21
941,9	9,267
942,3	6,152
942,8	6,895
943,2	8,181
943,6	2,267
944	3,952
944,4	2,838
944,9	1,324
945,3	3,01
945,7	-0,476
946,1	-2,505
946,6	-7,162
947	-7,762
947,4	-3,819
947,8	-2,019
948,2	-1,076
948,7	-0,19
949,1	-3,362
949,5	9,238
949,9	11,124
950,3	7,781
950,8	8,724
951,2	9,352
951,6	9,981
952	16,467
952,5	8,581
952,9	8,838
953,3	7,581
953,7	6,638
954,1	7,095
954,6	5,552
955	5,381
955,4	3,552
955,8	1,181
956,2	-1,962
956,7	0,352
957,1	-2,276
957,5	1,667
957,9	2,524
958,3	5,095
958,8	8,095
959,2	10,724
959,6	10,21
960	9,924
960,5	10,01
960,9	8,952
961,3	7,952
961,7	7,524
962,1	8,981
962,6	12,867
963	10,638
963,4	6,724
963,8	7,267
964,2	10,41
964,7	8,295
965,1	8,524
965,5	4,267
965,9	7,495
966,3	13,81
966,8	11,867
967,2	12,21
967,6	14,467
968	10,381
968,4	12,095
968,9	12,581
969,3	11,038
969,7	10,067
970,1	12,01
970,5	6,781
971	17,095
971,4	16,781
971,8	15,01
972,2	12,238
972,6	12,838
973,1	8,695
973,5	12,81
973,9	6,495
974,3	6,81
974,7	11,752
975,2	12,781
975,6	12,524
976	15,267
976,4	14,095
976,8	12,352
977,3	9,695
977,7	2,038
978,1	2,724
978,5	0,41
978,9	-5,019
979,4	-4,705
979,8	-3,019
980,2	-4,448
980,6	-2,962
981	-0,39
981,5	2,495
981,9	4,81
982,3	5,81
982,7	4,238
983,1	1,438
983,6	5,552
984	1,124
984,4	-0,276
984,8	-1,562
985,2	-0,562
985,6	-2,333
986,1	4,124
986,5	3,981
986,9	3,667
987,3	6,41
987,7	9,152
988,2	3,495
988,6	5,981
989	3,781
989,4	3,981
989,8	4,238
990,3	-0,962
990,7	0,438
991,1	3,124
991,5	3,124
991,9	4,267
992,3	3,467
992,8	5,124
993,2	9,752
993,6	9,838
994	12,181
994,4	11,867
994,9	12,524
995,3	13,067
995,7	10,924
996,1	5,667
996,5	4,067
996,9	0,667
997,4	5,295
997,8	1,838
998,2	-2,79
998,6	-8,99
999	-6,762
999,5	-3,362
999,9	-2,905
1000,3	-4,105
1000,7	-2,019
1001,1	0,495
1001,5	6,81
1002	10,067
1002,4	8,238
1002,8	7,267
1003,2	5,381
1003,6	8,524
1004	12,095
1004,5	11,067
1004,9	9,524
1005,3	4,467
1005,7	8,724
1006,1	4,667
1006,6	1,181
1007	-0,648
1007,4	1,924
1007,8	3,724
1008,2	5,038
1008,6	5,952
1009,1	6,724
1009,5	5,181
1009,9	7,924
1010,3	8,981
1010,7	7,352
1011,1	7,867
1011,6	7,238
1012	12,438
1012,4	14,495
1012,8	8,381
1013,2	12,352
1013,6	11,21
1014,1	13,21
1014,5	11,81
1014,9	9,895
1015,3	10,867
1015,7	11,552
1016,1	3,067
1016,6	2,667
1017	2,952
1017,4	3,21
1017,8	-1,762
1018,2	-0,733
1018,6	-2,676
1019,1	-1,419
1019,5	-1,962
1019,9	-5,476
1020,3	-6,648
1020,7	-2,219
1021,1	-6,048
1021,6	-2,048
1022	2,581
1022,4	4,81
1022,8	7,295
1023,2	6,838
1023,6	7,267
1024,1	18,038
1024,5	15,81
1024,9	7,924
1025,3	10,752
1025,7	10,267
1026,1	13,695
1026,6	14,181
1027	8,867
1027,4	11,924
1027,8	18,267
1028,2	12,381
1028,6	17,552
1029	14,867
1029,5	19,21
1029,9	13,581
1030,3	9,895
1030,7	9,638
1031,1	16,752
1031,5	9,724
1032	10,438
1032,4	6,124
1032,8	9,438
1033,2	12,552
1033,6	11,467
1034	-0,219
1034,4	3,267
1034,9	1,81
1035,3	-5,619
1035,7	-2,705
1036,1	-6,99
1036,5	-9,048
1036,9	0,524
1037,4	-1,819
1037,8	-4,876
1038,2	-2,048
1038,6	-8,962
1039	1,552
1039,4	7,667
1039,8	2,152
1040,3	1,324
1040,7	3,838
1041,1	6,752
1041,5	8,61
1041,9	1,638
1042,3	0,067
1042,7	3,381
1043,2	0,267
1043,6	-0,076
1044	-0,248
1044,4	0,095
1044,8	1,781
1045,2	-3,133
1045,6	-4,562
1046,1	-2,276
1046,5	0,524
1046,9	-2,962
1047,3	-1,59
1047,7	-2,505
1048,1	-4,905
1048,5	-5,505
1049	0,21
1049,4	4,41
1049,8	8,667
1050,2	12,695
1050,6	15,895
1051	21,952
1051,4	26,324
1051,9	24,067
1052,3	25,438
1052,7	25,895
1053,1	17,352
1053,5	15,495
1053,9	11,124
1054,3	8,724
1054,8	12,181
1055,2	5,067
1055,6	6,21
1056	11,038
1056,4	9,981
1056,8	14,552
1057,2	12,467
1057,6	5,295
1058,1	8,667
1058,5	4,838
1058,9	5,752
1059,3	5,495
1059,7	1,581
1060,1	5,781
1060,5	13,238
1061	12,267
1061,4	12,61
1061,8	15,067
1062,2	15,324
1062,6	19,552
1063	17,952
1063,4	16,352
1063,8	15,181
1064,3	11,495
1064,7	7,952
1065,1	9,181
1065,5	5,381
1065,9	3,695
1066,3	-0,362
1066,7	-4,276
1067,1	-3,362
1067,6	-0,19
1068	-6,876
1068,4	-7,59
1068,8	-2,79
1069,2	-3,019
1069,6	-1,019
1070	3,838
1070,4	1,781
1070,9	3,924
1071,3	6,038
1071,7	0,095
1072,1	1,495
1072,5	-0,59
1072,9	-3,705
1073,3	-1,505
1073,7	-4,876
1074,2	-4,733
1074,6	-0,248
1075	-1,676
1075,4	0,752
1075,8	6,467
1076,2	3,781
1076,6	11,752
1077	12,21
1077,5	14,81
1077,9	14,181
1078,3	13,038
1078,7	7,467
1079,1	1,781
1079,5	-1,705
1079,9	-1,648
1080,3	-5,79
1080,7	-4,79
1081,2	-0,619
1081,6	-0,362
1082	1,267
1082,4	9,324
1082,8	6,552
1083,2	6,867
1083,6	10,638
1084	7,952
1084,5	7,867
1084,9	5,381
1085,3	-4,619
1085,7	-1,419
1086,1	-2,562
1086,5	-3,533
1086,9	-1,933
1087,3	-1,305
1087,7	2,695
1088,2	4,524
1088,6	0,81
1089	2,038
1089,4	0,267
1089,8	0,61
1090,2	0,752
1090,6	2,295
1091	5,724
1091,4	9,838
1091,9	8,552
1092,3	8,381
1092,7	6,067
1093,1	7,981
1093,5	7,295
1093,9	4,381
1094,3	6,838
1094,7	5,21
1095,1	6,724
1095,5	5,61
1096	2,867
1096,4	2,581
1096,8	1,295
1097,2	-2,79
1097,6	1,238
1098	1,124
1098,4	5,924
1098,8	9,21
1099,2	13,61
1099,6	14,467
1100,1	14,295
1100,5	11,095
1100,9	6,524
1101,3	5,495
1101,7	4,781
1102,1	1,067
1102,5	3,352
1102,9	2,924
1103,3	8,01
1103,7	11,552
1104,2	8,924
1104,6	7,124
1105	6,181
1105,4	7,438
1105,8	7,667
1106,2	2,781
1106,6	1,838
1107	1,981
1107,4	2,733
1107,8	3,907
1108,3	-0,683
