Data from Subt2_304.txt Node
Date: Sat Aug 26 19:13:28 MSK 2023
User: vat
Spectrometer: MAYP114033
Trigger mode: 0
Integration Time (sec): 1,000000E0
Scans to average: 5
Electric dark correction enabled: true
Nonlinearity correction enabled: false
Boxcar width: 3
XAxis mode: Wavelengths
Number of Pixels in Spectrum: 2068
>>>>>Begin Spectral Data<<<<<
199,4	-0,317
199,9	1,553
200,4	1,633
200,8	1,605
201,3	1,805
201,8	4,033
202,2	-0,338
202,7	2,805
203,2	-0,281
203,6	-0,11
204,1	-1,452
204,6	-0,195
205	-3,424
205,5	0,348
206	-0,11
206,4	1,119
206,9	3,262
207,4	6,148
207,8	5,433
208,3	7,119
208,8	11,69
209,2	14,462
209,7	16,49
210,2	15,348
210,6	12,29
211,1	11,49
211,5	11,948
212	8,348
212,5	1,833
212,9	0,976
213,4	1,033
213,9	3,633
214,3	7,805
214,8	9,233
215,3	10,976
215,7	17,605
216,2	17,948
216,7	18,49
217,1	17,833
217,6	15,176
218,1	11,862
218,5	10,89
219	1,948
219,5	3,09
219,9	1,29
220,4	9,233
220,9	7,576
221,3	12,233
221,8	12,348
222,3	18,005
222,7	17,09
223,2	18,348
223,6	6,205
224,1	6,405
224,6	6,49
225	8,062
225,5	3,805
226	6,376
226,4	7,005
226,9	13,033
227,4	13,719
227,8	5,576
228,3	-0,31
228,8	7,233
229,2	4,319
229,7	3,433
230,2	3,319
230,6	10,29
231,1	21,148
231,5	24,976
232	21,605
232,5	22,433
232,9	22,205
233,4	21,519
233,9	13,262
234,3	7,605
234,8	7,119
235,3	8,548
235,7	9,433
236,2	6,262
236,7	6,633
237,1	10,948
237,6	13,748
238,1	14,548
238,5	9,205
239	9,176
239,4	15,033
239,9	14,919
240,4	15,119
240,8	17,033
241,3	15,776
241,8	19,033
242,2	19,519
242,7	16,176
243,2	21,205
243,6	16,776
244,1	13,062
244,6	14,062
245	10,662
245,5	8,519
245,9	7,748
246,4	-1,481
246,9	0,605
247,3	1,119
247,8	4,09
248,3	10,205
248,7	11,548
249,2	14,233
249,7	18,519
250,1	20,233
250,6	16,348
251	18,519
251,5	17,319
252	16,633
252,4	17,633
252,9	10,633
253,4	2,662
253,8	3,033
254,3	-1,081
254,8	-1,71
255,2	-1,424
255,7	-6,624
256,1	-0,195
256,6	3,662
257,1	6,09
257,5	2,49
258	1,49
258,5	1,062
258,9	2,49
259,4	-0,71
259,9	3,719
260,3	0,005
260,8	1,405
261,2	2,119
261,7	4,576
262,2	3,662
262,6	5,519
263,1	7,976
263,6	14,805
264	18,919
264,5	23,005
264,9	18,519
265,4	21,748
265,9	22,09
266,3	19,119
266,8	18,033
267,3	14,633
267,7	14,719
268,2	16,005
268,7	16,548
269,1	17,919
269,6	15,89
270	17,605
270,5	16,433
271	12,605
271,4	14,776
271,9	12,605
272,4	14,776
272,8	14,919
273,3	9,976
273,7	11,919
274,2	11,262
274,7	10,319
275,1	10,69
275,6	8,29
276,1	9,519
276,5	17,748
277	18,662
277,4	16,576
277,9	18,462
278,4	22,862
278,8	24,69
279,3	28,233
279,8	23,69
280,2	24,148
280,7	28,719
281,1	21,833
281,6	18,062
282,1	19,405
282,5	14,148
283	10,433
283,4	10,405
283,9	6,89
284,4	12,89
284,8	12,976
285,3	8,062
285,8	9,405
286,2	7,29
286,7	5,49
287,1	3,776
287,6	4,69
288,1	2,976
288,5	7,148
289	4,919
289,5	11,205
289,9	8,233
290,4	13,519
290,8	6,976
291,3	7,833
291,8	7,919
292,2	8,748
292,7	8,748
293,1	8,49
293,6	6,919
294,1	11,719
294,5	14,376
295	11,262
295,5	6,976
295,9	4,548
296,4	2,548
296,8	0,148
297,3	-2,995
297,8	-7,995
298,2	-10,052
298,7	-1,71
299,1	-0,395
299,6	0,605
300,1	5,576
300,5	9,119
301	14,49
301,5	17,576
301,9	14,319
302,4	12,376
302,8	17,719
303,3	13,233
303,8	9,176
304,2	4,548
304,7	3,662
305,1	-0,338
305,6	0,29
306,1	6,033
306,5	10,29
307	15,69
307,4	17,576
307,9	17,09
308,4	19,176
308,8	16,09
309,3	10,405
309,8	6,662
310,2	9,348
310,7	8,948
311,1	8,29
311,6	7,805
312,1	10,519
312,5	9,576
313	12,062
313,4	6,776
313,9	7,719
314,4	12,576
314,8	10,005
315,3	10,948
315,7	7,862
316,2	2,319
316,7	2,948
317,1	6,776
317,6	4,748
318	12,462
318,5	10,49
319	12,376
319,4	14,519
319,9	20,262
320,3	16,89
320,8	13,633
321,3	11,862
321,7	15,062
322,2	14,462
322,6	19,833
323,1	11,948
323,6	10,719
324	10,148
324,5	9,005
324,9	9,976
325,4	10,09
325,9	8,633
326,3	9,433
326,8	12,833
327,2	9,833
327,7	8,719
328,2	7,348
328,6	11,233
329,1	3,433
329,5	7,976
330	3,548
330,5	9,719
330,9	10,633
331,4	8,919
331,8	2,605
332,3	9,976
332,8	5,49
333,2	6,662
333,7	7,119
334,1	8,205
334,6	10,148
335,1	9,605
335,5	7,033
336	7,519
336,4	8,176
336,9	12,776
337,4	14,49
337,8	12,89
338,3	17,948
338,7	19,462
339,2	19,49
339,7	21,176
340,1	13,69
340,6	12,862
341	14,69
341,5	12,376
342	10,862
342,4	6,919
342,9	4,548
343,3	5,919
343,8	3,833
344,2	2,376
344,7	8,776
345,2	7,862
345,6	16,348
346,1	19,833
346,5	14,662
347	15,09
347,5	12,405
347,9	12,576
348,4	14,033
348,8	10,748
349,3	13,519
349,8	21,776
350,2	26,862
350,7	24,862
351,1	22,033
351,6	28,033
352	33,176
352,5	32,776
353	37,376
353,4	38,833
353,9	53,976
354,3	65,062
354,8	74,662
355,3	90,833
355,7	109,405
356,2	129,89
356,6	155,062
357,1	185,319
357,5	216,262
358	252,09
358,5	285,519
358,9	325,776
359,4	373,833
359,8	427,519
360,3	489,09
360,8	553,662
361,2	631,433
361,7	722,09
362,1	825,29
362,6	935,948
363	1051,605
363,5	1171,29
364	1305,319
364,4	1433,376
364,9	1562,49
365,3	1688,233
365,8	1804,748
366,3	1914,805
366,7	2018,462
367,2	2105,948
367,6	2181,805
368,1	2240,69
368,5	2270,748
369	2291,776
369,5	2297,348
369,9	2278,376
370,4	2239,119
370,8	2189,976
371,3	2119,49
371,7	2045,776
372,2	1957,062
372,7	1864,033
373,1	1765,376
373,6	1662,89
374	1558,119
374,5	1460,49
374,9	1366,89
375,4	1269,462
375,9	1174,719
376,3	1083,062
376,8	999,348
377,2	918,09
377,7	844,176
378,2	772,148
378,6	709,376
379,1	647,005
379,5	595,833
380	551,919
380,4	510,233
380,9	463,262
381,4	427,29
381,8	394,862
382,3	371,262
382,7	344,662
383,2	319,948
383,6	295,405
384,1	279,433
384,6	261,49
385	242,662
385,5	224,29
385,9	208,062
386,4	194,119
386,8	185,348
387,3	172,005
387,7	159,576
388,2	153,148
388,7	141,462
389,1	135,005
389,6	128,576
390	119,662
390,5	118,262
390,9	114,576
391,4	109,462
391,9	104,376
392,3	99,576
392,8	91,005
393,2	83,319
393,7	75,662
394,1	68,09
394,6	65,005
395,1	67,376
395,5	60,005
396	62,376
396,4	60,348
396,9	58,862
397,3	59,919
397,8	61,319
398,2	56,233
398,7	60,433
399,2	56,262
399,6	58,09
400,1	58,719
400,5	56,319
401	49,776
401,4	45,376
401,9	44,119
402,4	44,69
402,8	40,748
403,3	43,405
403,7	39,29
404,2	41,776
404,6	45,576
405,1	43,433
405,5	40,49
406	40,405
406,5	35,119
406,9	41,662
407,4	41,262
407,8	41,948
408,3	41,805
408,7	38,748
409,2	45,862
409,6	49,405
410,1	49,062
410,6	53,462
411	53,319
411,5	59,976
411,9	67,776
412,4	64,976
412,8	69,033
413,3	70,405
413,7	67,005
414,2	71,262
414,7	73,005
415,1	76,833
415,6	81,748
416	78,719
416,5	79,319
416,9	78,176
417,4	81,976
417,8	87,205
418,3	88,119
418,8	91,29
419,2	92,89
419,7	96,49
420,1	101,233
420,6	101,805
421	96,605
421,5	100,576
421,9	98,633
422,4	102,519
422,8	101,205
423,3	102,348
423,8	99,262
424,2	95,976
424,7	93,805
425,1	94,862
425,6	96,148
426	97,462
426,5	99,319
426,9	104,29
427,4	107,405
427,9	101,462
428,3	104,233
428,8	100,833
429,2	99,205
429,7	97,462
430,1	94,348
430,6	97,719
431	100,89
431,5	98,062
431,9	98,005
432,4	103,262
432,8	103,09
433,3	102,548
433,8	96,719
434,2	103,633
434,7	107,862
435,1	110,462
435,6	106,919
436	115,433
436,5	121,205
436,9	122,576
437,4	121,405
437,8	121,09
438,3	126,833
438,8	133,805
439,2	135,09
439,7	138,633
440,1	147,462
440,6	158,09
441	163,605
441,5	172,005
441,9	182,405
442,4	187,119
442,8	195,719
443,3	205,062
443,7	211,776
444,2	226,262
444,7	229,748
445,1	233,548
445,6	236,576
446	245,719
446,5	250,348
446,9	248,833
447,4	250,662
447,8	259,376
448,3	271,119
448,7	291,548
449,2	301,319
449,6	317,062
450,1	331,205
450,6	347,462
451	362,49
451,5	374,262
451,9	386,405
452,4	403,262
452,8	416,033
453,3	437,776
453,7	447,233
454,2	467,605
454,6	489,433
455,1	503,805
455,5	514,49
456	537,433
456,4	550,776
456,9	570,262
457,3	584,148
457,8	590,833
458,3	613,205
458,7	635,948
459,2	648,005
459,6	670,29
460,1	694,49
460,5	712,633
461	744,262
461,4	758,376
461,9	776,49
462,3	801,262
462,8	821,09
463,2	839,062
463,7	860,605
464,1	881,776
464,6	910,576
465	938,033
465,5	961,319
466	989,633
466,4	1013,319
466,9	1045,49
467,3	1071,348
467,8	1096,719
468,2	1124,662
468,7	1149,576
469,1	1176,948
469,6	1208,033
470	1229,69
470,5	1254,433
470,9	1276,776
471,4	1296,89
471,8	1328,119
472,3	1355,176
472,7	1381,462
473,2	1401,49
473,6	1423,148
474,1	1457,719
474,5	1485,49
475	1508,405
475,4	1532,005
475,9	1557,805
476,4	1589,69
476,8	1622,633
477,3	1641,662
477,7	1670,89
478,2	1701,89
478,6	1723,348
479,1	1744,233
479,5	1766,005
480	1786,719
480,4	1815,09
480,9	1835,148
481,3	1850,919
481,8	1877,833
482,2	1901,719
482,7	1922,462
483,1	1938,09
483,6	1958,576
484	1975,062
484,5	2000,319
484,9	2013,119
485,4	2034,833
485,8	2057,405
486,3	2076,948
486,7	2087,348
487,2	2105,719
487,6	2112,262
488,1	2126,005
488,5	2137,433
489	2150,062
489,4	2162,005
489,9	2169,633
490,4	2182,662
490,8	2197,862
491,3	2216,376
491,7	2220,548
492,2	2231,576
492,6	2248,719
493,1	2263,148
493,5	2268,062
494	2270,062
494,4	2274,776
494,9	2287,176
495,3	2295,319
495,8	2297,005
496,2	2307,919
496,7	2313,005
497,1	2325,405
497,6	2327,005
498	2331,948
498,5	2337,976
498,9	2343,348
499,4	2341,662
499,8	2355,748
500,3	2359,633
500,7	2368,005
501,2	2370,119
501,6	2365,176
502,1	2367,89
502,5	2372,862
503	2366,49
503,4	2368,976
503,9	2368,29
504,3	2369,119
504,8	2374,262
505,2	2374,09
505,7	2375,519
506,1	2385,719
506,6	2374,148
507	2374,576
507,5	2377,09
507,9	2377,062
508,4	2374,205
508,8	2364,348
509,3	2352,748
509,7	2363,576
510,2	2358,148
510,6	2353,205
511,1	2353,319
511,5	2359,805
512	2362,148
512,4	2361,119
512,9	2353,205
513,3	2354,376
513,8	2352,005
514,2	2348,548
514,7	2342,548
515,1	2342,833
515,6	2340,976
516	2344,662
516,5	2347,862
516,9	2354,262
517,4	2356,176
517,8	2357,176
518,3	2354,119
518,7	2355,862
519,2	2351,405
519,6	2349,805
520,1	2342,005
520,5	2340,205
521	2336,805
521,4	2341,948
521,9	2342,148
522,3	2343,348
522,8	2335,119
523,2	2336,033
523,7	2333,405
524,1	2332,29
524,6	2331,176
525	2332,89
525,5	2327,062
525,9	2333,862
526,4	2329,119
526,8	2329,976
527,3	2328,348
527,7	2327,748
528,2	2326,833
528,6	2331,605
529,1	2333,033
529,5	2342,69
530	2345,605
530,4	2350,919
530,9	2348,433
531,3	2346,005
531,8	2349,29
532,2	2348,29
532,6	2340,176
533,1	2337,005
533,5	2338,49
534	2340,948
534,4	2343,748
534,9	2343,662
535,3	2340,205
535,8	2344,176
536,2	2347,576
536,7	2346,062
537,1	2347,605
537,6	2352,948
538	2354,919
538,5	2365,376
538,9	2369,548
539,4	2378,176
539,8	2377,576
540,3	2384,262
540,7	2387,319
541,2	2387,719
541,6	2388,862
542,1	2394,833
542,5	2391,948
543	2396,662
543,4	2396,262
543,9	2394,948
544,3	2401,805
544,8	2400,833
545,2	2404,405
545,7	2403,205
546,1	2412,976
546,5	2419,719
547	2421,662
547,4	2429,405
547,9	2433,49
548,3	2438,662
548,8	2444,033
549,2	2440,919
549,7	2440,548
550,1	2448,462
550,6	2446,062
551	2447,862
551,5	2450,405
551,9	2453,433
552,4	2459,119
552,8	2464,49
553,3	2463,719
553,7	2467,09
554,2	2470,29
554,6	2471,062
555,1	2476,548
555,5	2479,605
555,9	2482,748
556,4	2485,919
556,8	2488,748
557,3	2493,433
557,7	2492,176
558,2	2494,433
558,6	2499,433
559,1	2499,348
559,5	2501,89
560	2500,976
560,4	2502,062
560,9	2508,319
561,3	2506,176
561,8	2503,462
562,2	2509,033
562,7	2511,948
563,1	2520,348
563,6	2518,862
564	2513,633
564,4	2515,862
564,9	2520,948
565,3	2516,548
565,8	2511,205
566,2	2510,405
566,7	2512,405
567,1	2515,919
567,6	2517,09
568	2511,405
568,5	2515,233
568,9	2522,319
569,4	2523,662
569,8	2527,062
570,3	2529,519
570,7	2529,69
571,1	2532,576
571,6	2534,348
572	2537,519
572,5	2536,605
572,9	2536,148
573,4	2537,29
573,8	2541,29
574,3	2537,433
574,7	2532,862
575,2	2529,005
575,6	2527,062
576,1	2525,948
576,5	2529,719
576,9	2526,005
577,4	2527,405
577,8	2525,976
578,3	2522,719
578,7	2516,205
579,2	2516,262
579,6	2508,605
580,1	2498,319
580,5	2500,148
581	2503,09
581,4	2498,948
581,9	2498,833
582,3	2494,233
582,7	2487,319
583,2	2490,29
583,6	2484,719
584,1	2481,176
584,5	2480,433
585	2478,605
585,4	2468,605
585,9	2466,376
586,3	2461,576
586,8	2458,29
587,2	2448,805
587,6	2445,833
588,1	2448,576
588,5	2449,119
589	2441,862
589,4	2439,376
589,9	2428,748
590,3	2425,919
590,8	2420,433
591,2	2411,576
591,7	2412,119
592,1	2416,862
592,5	2417,89
593	2412,548
593,4	2406,605
593,9	2404,005
594,3	2394,319
594,8	2386,748
595,2	2375,776
595,7	2366,09
596,1	2366,662
596,6	2364,376
597	2356,662
597,4	2359,862
597,9	2358,205
598,3	2365,062
598,8	2363,233
599,2	2364,376
599,7	2360,205
600,1	2362,948
600,6	2355,605
601	2349,119
601,4	2342,233
601,9	2340,005
602,3	2330,919
602,8	2326,49
603,2	2315,29
603,7	2306,233
604,1	2304,348
604,6	2293,862
605	2281,833
605,4	2273,605
605,9	2268,462
606,3	2258,148
606,8	2251,633
607,2	2239,405
607,7	2232,633
608,1	2230,348
608,6	2231,262
609	2228,376
609,4	2234,09
609,9	2227,633
610,3	2225,976
610,8	2221,233
611,2	2218,119
611,7	2201,348
612,1	2192,519
612,6	2180,89
613	2178,205
613,4	2166,005
613,9	2161,319
614,3	2147,805
614,8	2149,405
615,2	2134,119
615,7	2130,09
616,1	2118,69
616,6	2112,662
617	2100,062
617,4	2089,662
617,9	2079,548
618,3	2085,205
618,8	2075,662
619,2	2073,262
619,7	2071,376
620,1	2067,776
620,5	2066,09
621	2055,233
621,4	2047,748
621,9	2041,519
622,3	2031,433
622,8	2017,805
623,2	2009,776
623,6	2000,548
624,1	1993,633
624,5	1980,319
625	1973,919
625,4	1964,805
625,9	1960,005
626,3	1947,433
626,8	1940,548
627,2	1937,09
627,6	1922,862
628,1	1906,776
628,5	1904,262
629	1891,233
629,4	1884,519
629,9	1876,29
630,3	1856,005
630,7	1847,433
631,2	1836,69
631,6	1823,576
632,1	1816,548
632,5	1806,69
633	1797,119
633,4	1788,919
633,8	1782,376
634,3	1773,776
634,7	1763,862
635,2	1749,633
635,6	1740,119
636,1	1732,376
636,5	1725,29
636,9	1714,348
637,4	1704,262
637,8	1696,033
638,3	1691,748
638,7	1686,576
639,2	1675,605
639,6	1673,29
640	1665,833
640,5	1661,119
640,9	1653,405
641,4	1646,462
641,8	1640,005
642,2	1632,262
642,7	1627,29
643,1	1623,833
643,6	1614,748
644	1607,005
644,5	1598,233
644,9	1589,319
645,3	1583,49
645,8	1572,833
646,2	1563,719
646,7	1559,062
647,1	1551,605
647,6	1544,119
648	1536,919
648,4	1525,205
648,9	1523,233
649,3	1511,833
649,8	1505,976
650,2	1500,633
650,6	1500,348
651,1	1489,462
651,5	1486,319
652	1472,89
652,4	1467,576
652,9	1460,862
653,3	1450,519
653,7	1435,719
654,2	1429,29
654,6	1419,576
655,1	1413,348
655,5	1412,233
655,9	1398,805
656,4	1393,805
656,8	1389,033
657,3	1379,633
657,7	1378,805
658,2	1367,233
658,6	1354,262
659	1349,776
659,5	1341,319
659,9	1334,69
660,4	1328,233
660,8	1310,862
661,2	1304,69
661,7	1297,976
662,1	1288,919
662,6	1282,148
663	1274,29
663,4	1267,49
663,9	1261,976
664,3	1255,005
664,8	1251,548
665,2	1247,919
665,6	1236,319
666,1	1230,633
666,5	1223,376
667	1223,776
667,4	1216,633
667,9	1202,805
668,3	1193,205
668,7	1184,69
669,2	1175,29
669,6	1171,862
670,1	1161,576
670,5	1153,062
670,9	1147,033
671,4	1140,262
671,8	1134,205
672,3	1125,462
672,7	1116,862
673,1	1106,176
673,6	1102,576
674	1100,776
674,5	1087,833
674,9	1078,062
675,3	1068,919
675,8	1062,462
676,2	1052,748
676,7	1040,119
677,1	1030,776
677,5	1030,205
678	1030,948
678,4	1030,976
678,9	1020,833
679,3	1017,719
679,7	1014,319
680,2	1002,262
680,6	996,776
681,1	989,262
681,5	982,376
681,9	976,948
682,4	968,519
682,8	966,205
683,3	964,833
683,7	958,205
684,1	953,948
684,6	946,719
685	942,29
685,5	940,233
685,9	929,776
686,3	923,033
686,8	917,119
687,2	910,09
687,7	898,919
688,1	889,005
688,5	883,376
689	882,49
689,4	878,233
689,9	870,09
690,3	864,09
690,7	862,09
691,2	861,919
691,6	856,033
692	848,29
692,5	847,49
692,9	850,148
693,4	843,662
693,8	839,005
694,2	832,576
694,7	829,005
695,1	823,548
695,6	816,09
696	803,69
696,4	797,748
696,9	790,633
697,3	783,262
697,8	775,833
698,2	769,49
698,6	766,69
699,1	766,719
699,5	764,005
699,9	757,49
700,4	752,662
700,8	749,462
701,3	746,633
701,7	734,462
702,1	728,662
702,6	723,833
703	725,405
703,5	723,09
703,9	716,29
704,3	715,262
704,8	711,633
705,2	705,948
705,6	702,833
706,1	699,776
706,5	696,976
707	693,919
707,4	690,948
707,8	687,805
708,3	686,09
708,7	682,033
709,2	675,833
709,6	666,748
710	668,633
710,5	661,005
710,9	657,89
711,3	653,89
711,8	651,348
712,2	648,262
712,7	645,348
713,1	636,833
713,5	632,605
714	630,833
714,4	620,09
714,8	613,69
715,3	602,548
715,7	602,805
716,2	596,319
716,6	593,205
717	585,262
717,5	583,433
717,9	578,748
718,3	578,948
718,8	574,833
719,2	576,348
719,7	570,062
720,1	571,948
720,5	573,69
721	564,862
721,4	561,405
721,8	559,29
722,3	546,462
722,7	547,519
723,2	536,09
723,6	523,976
724	522,262
724,5	516,976
724,9	511,633
725,3	509,548
725,8	505,233
726,2	503,033
726,7	506,662
727,1	506,233
727,5	503,205
728	497,719
728,4	497,262
728,8	490,605
729,3	486,948
729,7	477,376
730,1	474,662
730,6	476,462
731	471,29
731,5	470,49
731,9	468,548
732,3	469,89
732,8	471,462
733,2	472,09
733,6	465,662
734,1	466,69
734,5	461,976
734,9	459,09
735,4	457,69
735,8	449,948
736,3	442,89
736,7	438,862
737,1	437,005
737,6	435,205
738	429,176
738,4	421,805
738,9	425,776
739,3	426,005
739,7	425,833
740,2	418,662
740,6	418,776
741,1	421,919
741,5	417,005
741,9	413,433
742,4	413,405
742,8	412,605
743,2	412,919
743,7	405,262
744,1	401,09
744,5	400,748
745	396,69
745,4	388,69
745,8	383,576
746,3	380,433
746,7	381,033
747,2	379,348
747,6	383,633
748	383,205
748,5	384,862
748,9	378,29
749,3	381,605
749,8	380,776
750,2	377,519
750,6	366,976
751,1	368,748
751,5	367,09
751,9	368,233
752,4	362,462
752,8	360,005
753,3	359,919
753,7	365,005
754,1	354,719
754,6	348,776
755	344,405
755,4	341,948
755,9	338,462
756,3	334,548
756,7	325,062
757,2	326,319
757,6	325,433
758	326,89
758,5	322,29
758,9	320,319
759,3	321,033
759,8	323,462
760,2	316,205
760,6	313,576
761,1	312,376
761,5	309,69
761,9	307,976
762,4	300,776
762,8	299,233
763,3	301,205
763,7	303,576
764,1	300,805
764,6	299,89
765	301,262
765,4	302,319
765,9	301,233
766,3	302,119
766,7	296,033
767,2	294,405
767,6	298,205
768	292,919
768,5	290,49
768,9	289,119
769,3	284,148
769,8	279,805
770,2	278,205
770,6	270,776
771,1	269,776
771,5	271,148
771,9	272,119
772,4	272,833
772,8	273,662
773,2	275,833
773,7	272,262
774,1	270,776
774,5	264,462
775	256,605
775,4	250,89
775,8	247,433
776,3	241,89
776,7	245,576
777,1	243,319
777,6	245,948
778	248,519
778,4	249,548
778,9	249,062
779,3	247,29
779,7	247,548
780,2	249,205
780,6	242,033
781	238,262
781,5	231,862
781,9	229,719
782,3	230,833
782,8	226,433
783,2	218,376
783,6	223,662
784,1	217,919
784,5	220,033
784,9	218,862
785,4	216,833
785,8	216,376
786,2	217,662
786,7	212,176
787,1	211,919
787,5	212,89
788	213,148
788,4	211,948
788,8	207,919
789,3	205,69
789,7	208,005
790,1	208,062
790,6	205,976
791	202,89
791,4	200,89
791,9	195,005
792,3	191,433
792,7	192,748
793,2	190,262
793,6	190,662
794	188,89
794,5	185,348
794,9	193,69
795,3	197,29
795,8	191,605
796,2	195,062
796,6	190,948
797,1	191,976
797,5	190,033
797,9	185,062
798,4	182,519
798,8	181,49
799,2	177,605
799,7	179,919
800,1	176,433
800,5	177,319
801	179,548
801,4	177,776
801,8	172,033
802,2	172,576
802,7	168,262
803,1	167,005
803,5	165,633
804	158,576
804,4	158,605
804,8	157,433
805,3	155,605
805,7	156,833
806,1	155,119
806,6	155,89
807	154,433
807,4	150,062
807,9	148,148
808,3	146,662
808,7	144,405
809,2	148,462
809,6	148,348
810	147,119
810,4	148,033
810,9	150,605
811,3	148,605
811,7	149,233
812,2	148,919
812,6	142,605
813	144,605
813,5	147,033
813,9	143,462
814,3	142,29
814,8	137,09
815,2	129,462
815,6	131,319
816,1	129,605
816,5	127,205
816,9	128,176
817,3	130,148
817,8	136,262
818,2	138,919
818,6	136,49
819,1	135,062
819,5	131,805
819,9	132,262
820,4	131,262
820,8	124,748
821,2	120,862
821,7	122,748
822,1	126,805
822,5	130,09
822,9	127,433
823,4	122,376
823,8	125,348
824,2	125,348
824,7	118,919
825,1	110,69
825,5	104,69
826	102,633
826,4	105,405
826,8	101,319
827,3	102,433
827,7	100,49
828,1	103,805
828,5	105,319
829	100,462
829,4	98,433
829,8	92,776
830,3	90,09
830,7	93,919
831,1	93,119
831,6	91,033
832	96,805
832,4	92,319
832,8	100,805
833,3	102,033
833,7	97,376
834,1	92,262
834,6	91,319
835	89,776
835,4	94,033
835,8	88,776
836,3	86,862
836,7	88,462
837,1	90,662
837,6	92,119
838	89,205
838,4	83,719
838,9	82,348
839,3	81,49
839,7	84,633
840,1	82,062
840,6	79,348
841	81,348
841,4	86,862
841,9	89,033
842,3	88,205
842,7	84,205
843,1	83,69
843,6	87,233
844	90,09
844,4	91,805
844,9	92,405
845,3	90,49
845,7	90,433
846,2	87,062
846,6	80,519
847	77,89
847,4	75,548
847,9	72,005
848,3	72,776
848,7	73,119
849,2	78,719
849,6	78,719
850	79,033
850,4	76,005
850,9	77,69
851,3	77,233
851,7	77,948
852,2	76,805
852,6	82,405
853	83,205
853,4	78,29
853,9	73,09
854,3	74,805
854,7	73,89
855,2	68,776
855,6	63,119
856	58,462
856,4	58,205
856,9	60,605
857,3	58,148
857,7	59,548
858,2	64,719
858,6	62,233
859	66,976
859,4	68,719
859,9	66,005
860,3	60,262
860,7	61,948
861,1	62,548
861,6	66,548
862	63,805
862,4	62,433
862,9	62,319
863,3	68,69
863,7	63,548
864,1	63,29
864,6	57,233
865	52,576
865,4	56,062
865,9	58,348
866,3	50,519
866,7	49,233
867,1	44,09
867,6	49,233
868	49,605
868,4	46,033
868,8	48,433
869,3	54,09
869,7	56,062
870,1	56,633
870,6	53,89
871	-18,195
871,4	-12,452
871,8	-17,167
872,3	-14,852
872,7	-17,31
873,1	-15,024
873,5	-12,624
874	56,89
874,4	56,319
874,8	56,033
875,3	53,776
875,7	52,29
876,1	54,519
876,5	53,662
877	54,233
877,4	47,262
877,8	49,319
878,2	48,605
878,7	53,433
879,1	48,69
879,5	46,519
879,9	51,005
880,4	54,176
880,8	52,033
881,2	51,376
881,7	48,805
882,1	48,919
882,5	46,262
882,9	43,119
883,4	40,776
883,8	40,348
884,2	38,976
884,6	38,033
885,1	38,69
885,5	38,319
885,9	38,148
886,3	40,948
886,8	37,205
887,2	36,405
887,6	32,948
888	30,548
888,5	33,69
888,9	30,605
889,3	26,919
889,8	33,405
890,2	32,862
890,6	34,462
891	36,805
891,5	36,005
891,9	36,176
892,3	39,948
892,7	35,519
893,2	36,519
893,6	38,433
894	37,719
894,4	35,29
894,9	38,376
895,3	33,548
895,7	39,233
896,1	37,033
896,6	34,176
897	35,29
897,4	40,948
897,8	40,948
898,3	43,062
898,7	34,948
899,1	38,119
899,5	38,833
900	31,062
900,4	26,605
900,8	25,719
901,2	23,376
901,7	27,176
902,1	29,233
902,5	31,833
902,9	38,433
903,4	40,976
903,8	41,376
904,2	41,948
904,6	39,576
905,1	34,148
905,5	34,405
905,9	32,833
906,3	34,148
906,8	35,719
907,2	36,605
907,6	36,548
908	37,319
908,5	34,462
908,9	31,29
909,3	24,319
909,7	22,148
910,2	20,29
910,6	19,633
911	15,605
911,4	17,376
911,9	17,319
912,3	22,176
912,7	24,262
913,1	25,519
913,6	24,805
914	29,205
914,4	23,662
914,8	25,662
915,3	20,519
915,7	14,833
916,1	15,776
916,5	13,862
916,9	13,919
917,4	18,233
917,8	18,29
918,2	16,433
918,6	15,433
919,1	15,633
919,5	22,462
919,9	26,033
920,3	26,005
920,8	26,919
921,2	29,576
921,6	27,69
922	27,805
922,5	24,719
922,9	20,405
923,3	16,433
923,7	15,919
924,2	17,833
924,6	20,605
925	17,348
925,4	17,205
925,8	16,605
926,3	17,605
926,7	14,919
927,1	15,148
927,5	19,233
928	18,776
928,4	14,49
928,8	19,69
929,2	18,49
929,7	15,09
930,1	12,405
930,5	8,033
930,9	14,776
931,3	17,519
931,8	12,262
932,2	11,89
932,6	14,719
933	12,319
933,5	14,233
933,9	11,89
934,3	12,519
934,7	15,062
935,2	12,548
935,6	11,005
936	13,862
936,4	15,09
936,8	16,69
937,3	18,976
937,7	21,148
938,1	26,262
938,5	26,062
939	26,69
939,4	28,262
939,8	21,748
940,2	14,633
940,6	12,919
941,1	12,09
941,5	18,862
941,9	14,148
942,3	9,719
942,8	15,09
943,2	22,376
943,6	17,919
944	17,233
944,4	14,376
944,9	19,319
945,3	21,29
945,7	12,176
946,1	8,776
946,6	12,948
947	8,776
947,4	11,833
947,8	9,719
948,2	6,348
948,7	11,233
949,1	8,805
949,5	11,662
949,9	17,633
950,3	12,548
950,8	12,89
951,2	14,776
951,6	14,29
952	21,233
952,5	15,033
952,9	12,89
953,3	14,69
953,7	13,405
954,1	19,976
954,6	18,748
955	17,005
955,4	16,062
955,8	17,576
956,2	15,262
956,7	18,576
957,1	13,548
957,5	17,662
957,9	17,09
958,3	20,405
958,8	21,805
959,2	26,319
959,6	28,69
960	25,633
960,5	26,576
960,9	25,348
961,3	23,262
961,7	19,862
962,1	17,69
962,6	17,033
963	17,348
963,4	11,633
963,8	12,748
964,2	17,09
964,7	17,776
965,1	17,519
965,5	13,205
965,9	14,976
966,3	22,119
966,8	21,519
967,2	19,033
967,6	17,262
968	14,833
968,4	16,462
968,9	19,662
969,3	16,605
969,7	14,005
970,1	14,833
970,5	14,119
971	19,348
971,4	19,376
971,8	15,433
972,2	17,805
972,6	19,719
973,1	15,519
973,5	20,062
973,9	18,719
974,3	21,062
974,7	27,29
975,2	25,005
975,6	22,833
976	27,519
976,4	23,09
976,8	22,262
977,3	19,948
977,7	11,748
978,1	8,119
978,5	8,719
978,9	5,033
979,4	4,376
979,8	1,862
980,2	1,833
980,6	1,89
981	7,548
981,5	7,348
981,9	5,319
982,3	8,948
982,7	10,433
983,1	8,89
983,6	11,605
984	5,148
984,4	4,605
984,8	7,233
985,2	4,119
985,6	3,548
986,1	3,633
986,5	6,519
986,9	3,319
987,3	7,119
987,7	8,662
988,2	9,633
988,6	7,89
989	5,548
989,4	0,376
989,8	6,662
990,3	4,519
990,7	2,948
991,1	3,633
991,5	7,719
991,9	10,948
992,3	14,462
992,8	15,233
993,2	10,976
993,6	9,948
994	13,062
994,4	12,548
994,9	9,69
995,3	6,89
995,7	4,09
996,1	8,633
996,5	11,376
996,9	5,462
997,4	7,633
997,8	7,119
998,2	5,262
998,6	1,205
999	-1,852
999,5	-0,452
999,9	2,69
1000,3	-2,967
1000,7	1,376
1001,1	0,833
1001,5	8,09
1002	17,519
1002,4	12,948
1002,8	14,176
1003,2	17,176
1003,6	16,49
1004	22,119
1004,5	17,69
1004,9	12,519
1005,3	13,176
1005,7	13,233
1006,1	11,376
1006,6	10,462
1007	8,976
1007,4	12,205
1007,8	16,09
1008,2	14,005
1008,6	20,348
1009,1	21,948
1009,5	23,033
1009,9	26,605
1010,3	29,205
1010,7	26,033
1011,1	27,49
1011,6	17,948
1012	18,519
1012,4	19,69
1012,8	14,548
1013,2	14,719
1013,6	11,29
1014,1	14,09
1014,5	16,576
1014,9	14,948
1015,3	12,605
1015,7	14,005
1016,1	10,919
1016,6	13,348
1017	14,633
1017,4	13,548
1017,8	11,49
1018,2	13,405
1018,6	9,176
1019,1	11,633
1019,5	10,319
1019,9	6,348
1020,3	7,09
1020,7	10,319
1021,1	8,519
1021,6	10,119
1022	11,09
1022,4	11,805
1022,8	12,805
1023,2	10,748
1023,6	10,033
1024,1	13,833
1024,5	18,805
1024,9	13,49
1025,3	13,605
1025,7	14,005
1026,1	18,69
1026,6	19,262
1027	17,376
1027,4	21,69
1027,8	24,719
1028,2	24,176
1028,6	31,662
1029	27,262
1029,5	28,862
1029,9	26,062
1030,3	16,605
1030,7	16,405
1031,1	18,748
1031,5	12,376
1032	13,919
1032,4	12,548
1032,8	15,605
1033,2	20,976
1033,6	18,319
1034	16,09
1034,4	14,376
1034,9	16,69
1035,3	15,805
1035,7	14,033
1036,1	8,833
1036,5	6,633
1036,9	7,833
1037,4	13,948
1037,8	7,348
1038,2	4,233
1038,6	6,633
1039	14,576
1039,4	22,433
1039,8	12,662
1040,3	9,948
1040,7	12,805
1041,1	18,433
1041,5	18,348
1041,9	11,433
1042,3	10,09
1042,7	20,662
1043,2	16,976
1043,6	15,89
1044	15,005
1044,4	13,605
1044,8	15,548
1045,2	15,062
1045,6	11,948
1046,1	9,862
1046,5	9,176
1046,9	6,262
1047,3	3,748
1047,7	2,862
1048,1	-3,481
1048,5	-2,252
1049	5,719
1049,4	14,976
1049,8	15,576
1050,2	15,176
1050,6	19,576
1051	24,49
1051,4	25,976
1051,9	22,176
1052,3	24,89
1052,7	25,519
1053,1	24,176
1053,5	24,09
1053,9	23,919
1054,3	23,319
1054,8	29,005
1055,2	21,519
1055,6	22,09
1056	23,062
1056,4	14,919
1056,8	13,776
1057,2	9,605
1057,6	1,148
1058,1	-1,481
1058,5	-2,424
1058,9	3,033
1059,3	6,862
1059,7	7,462
1060,1	11,49
1060,5	13,319
1061	15,662
1061,4	15,89
1061,8	17,148
1062,2	13,348
1062,6	18,262
1063	16,605
1063,4	14,805
1063,8	13,119
1064,3	11,89
1064,7	9,976
1065,1	12,376
1065,5	6,833
1065,9	8,29
1066,3	11,348
1066,7	11,462
1067,1	11,176
1067,6	12,233
1068	9,319
1068,4	9,033
1068,8	10,433
1069,2	9,176
1069,6	10,262
1070	15,519
1070,4	12,519
1070,9	12,433
1071,3	10,462
1071,7	8,662
1072,1	8,976
1072,5	6,919
1072,9	-0,052
1073,3	-0,395
1073,7	2,662
1074,2	3,662
1074,6	3,376
1075	1,662
1075,4	2,862
1075,8	9,29
1076,2	10,462
1076,6	11,462
1077	11,49
1077,5	16,519
1077,9	14,576
1078,3	13,348
1078,7	10,262
1079,1	10,862
1079,5	10,405
1079,9	13,348
1080,3	8,605
1080,7	11,29
1081,2	18,519
1081,6	17,405
1082	15,348
1082,4	19,548
1082,8	19,89
1083,2	17,062
1083,6	17,462
1084	8,033
1084,5	6,662
1084,9	4,262
1085,3	-6,852
1085,7	-8,281
1086,1	-7,624
1086,5	-5,624
1086,9	4,148
1087,3	9,433
1087,7	12,148
1088,2	20,005
1088,6	15,119
1089	20,662
1089,4	17,548
1089,8	14,748
1090,2	10,005
1090,6	10,319
1091	12,033
1091,4	18,919
1091,9	12,89
1092,3	14,605
1092,7	7,605
1093,1	12,662
1093,5	11,376
1093,9	5,89
1094,3	7,405
1094,7	9,119
1095,1	11,348
1095,5	16,405
1096	11,49
1096,4	14,233
1096,8	17,862
1097,2	15,005
1097,6	19,262
1098	17,119
1098,4	15,748
1098,8	17,433
1099,2	21,233
1099,6	18,433
1100,1	17,948
1100,5	15,233
1100,9	14,033
1101,3	13,948
1101,7	10,462
1102,1	5,49
1102,5	8,919
1102,9	8,119
1103,3	8,576
1103,7	10,776
1104,2	10,205
1104,6	11,348
1105	9,69
1105,4	8,033
1105,8	6,462
1106,2	2,776
1106,6	-0,224
1107	-0,595
1107,4	0,1
1107,8	0,553
1108,3	-0,617
