Data from Subt2_054.txt Node
Date: Sat Aug 26 16:29:34 MSK 2023
User: vat
Spectrometer: MAYP114033
Trigger mode: 0
Integration Time (sec): 1,000000E0
Scans to average: 5
Electric dark correction enabled: true
Nonlinearity correction enabled: false
Boxcar width: 3
XAxis mode: Wavelengths
Number of Pixels in Spectrum: 2068
>>>>>Begin Spectral Data<<<<<
199,4	-0,533
199,9	-1,933
200,4	-4,067
200,8	-3,362
201,3	-4,39
201,8	-3,848
202,2	-3,419
202,7	-4,048
203,2	-3,533
203,6	-2,162
204,1	-2,305
204,6	1,41
205	2,381
205,5	0,267
206	0,667
206,4	3,952
206,9	2,381
207,4	4,81
207,8	1,438
208,3	-0,733
208,8	1,695
209,2	4,067
209,7	2,867
210,2	13,038
210,6	10,181
211,1	10,352
211,5	11,267
212	5,352
212,5	1,695
212,9	3,981
213,4	-3,59
213,9	-4,762
214,3	-1,219
214,8	-0,59
215,3	3,781
215,7	3,895
216,2	2,724
216,7	-0,219
217,1	-1,99
217,6	-2,076
218,1	-1,933
218,5	-0,133
219	7,267
219,5	7,324
219,9	15,467
220,4	17,352
220,9	15,181
221,3	11,667
221,8	8,152
222,3	2,152
222,7	-3,048
223,2	-6,562
223,6	-6,59
224,1	-7,048
224,6	-3,819
225	-3,419
225,5	1,067
226	-0,533
226,4	-0,476
226,9	-1,419
227,4	0,695
227,8	1,21
228,3	4,924
228,8	0,495
229,2	4,467
229,7	0,524
230,2	4,981
230,6	5,181
231,1	4,695
231,5	6,61
232	13,152
232,5	13,895
232,9	17,467
233,4	16,724
233,9	16,495
234,3	19,838
234,8	17,01
235,3	13,267
235,7	16,581
236,2	14,181
236,7	14,552
237,1	14,724
237,6	15,524
238,1	14,267
238,5	9,095
239	6,267
239,4	7,638
239,9	6,638
240,4	5,238
240,8	5,724
241,3	4,724
241,8	7,238
242,2	4,952
242,7	7,638
243,2	6,467
243,6	7,095
244,1	0,752
244,6	1,867
245	4,895
245,5	8,352
245,9	7,152
246,4	7,895
246,9	5,695
247,3	8,124
247,8	10,01
248,3	7,781
248,7	10,41
249,2	8,838
249,7	11,181
250,1	11,267
250,6	11,667
251	7,552
251,5	5,267
252	3,61
252,4	6,01
252,9	2,638
253,4	4,495
253,8	0,581
254,3	6,838
254,8	12,781
255,2	8,524
255,7	8,638
256,1	11,438
256,6	11,495
257,1	16,295
257,5	17,095
258	13,067
258,5	15,41
258,9	16,41
259,4	15,324
259,9	18,495
260,3	15,381
260,8	10,067
261,2	12,724
261,7	14,524
262,2	11,895
262,6	9,21
263,1	3,438
263,6	5,867
264	6,667
264,5	4,324
264,9	-1,876
265,4	-4,105
265,9	-1,619
266,3	-1,19
266,8	-5,733
267,3	-2,248
267,7	0,01
268,2	0,752
268,7	1,095
269,1	1,238
269,6	4,124
270	12,81
270,5	12,21
271	10,61
271,4	8,267
271,9	7,124
272,4	8,752
272,8	4,724
273,3	-2,048
273,7	-5,276
274,2	-5,019
274,7	-1,619
275,1	-1,676
275,6	-1,905
276,1	4,524
276,5	5,61
277	7,152
277,4	4,81
277,9	5,81
278,4	8,01
278,8	9,095
279,3	0,924
279,8	3,895
280,2	-0,248
280,7	1,438
281,1	4,638
281,6	6,067
282,1	5,61
282,5	10,495
283	6,924
283,4	11,181
283,9	9,324
284,4	6,752
284,8	2,324
285,3	-2,133
285,8	-4,819
286,2	-4,476
286,7	-4,362
287,1	-2,99
287,6	-0,448
288,1	3,524
288,5	8,552
289	8,352
289,5	6,467
289,9	4,295
290,4	4,552
290,8	8,724
291,3	4,781
291,8	0,867
292,2	3,21
292,7	3,61
293,1	7,295
293,6	8,467
294,1	-0,99
294,5	7,781
295	9,095
295,5	11,352
295,9	14,867
296,4	14,924
296,8	12,838
297,3	17,267
297,8	13,267
298,2	11,238
298,7	6,438
299,1	6,381
299,6	6,638
300,1	8,324
300,5	8,181
301	6,438
301,5	10,324
301,9	9,438
302,4	8,152
302,8	7,781
303,3	8,752
303,8	6,752
304,2	8,038
304,7	6,352
305,1	12,781
305,6	8,352
306,1	3,981
306,5	0,724
307	3,381
307,4	-2,105
307,9	-3,476
308,4	-5,905
308,8	2,781
309,3	4,381
309,8	10,181
310,2	7,181
310,7	18,667
311,1	17,152
311,6	18,352
312,1	19,838
312,5	18,752
313	14,581
313,4	16,724
313,9	11,41
314,4	9,21
314,8	8,295
315,3	4,01
315,7	6,867
316,2	5,638
316,7	8,667
317,1	10,181
317,6	13,381
318	14,81
318,5	16,724
319	16,695
319,4	17,667
319,9	12,41
320,3	11,267
320,8	13,238
321,3	10,752
321,7	10,867
322,2	10,552
322,6	7,152
323,1	9,381
323,6	7,01
324	3,124
324,5	-2,99
324,9	-4,762
325,4	0,61
325,9	7,838
326,3	10,667
326,8	10,638
327,2	15,438
327,7	20,41
328,2	21,438
328,6	17,324
329,1	13,61
329,5	11,524
330	14,895
330,5	10,467
330,9	15,295
331,4	9,524
331,8	10,981
332,3	14,638
332,8	13,724
333,2	8,952
333,7	16,267
334,1	14,695
334,6	22,181
335,1	20,41
335,5	19,124
336	15,61
336,4	17,752
336,9	17,752
337,4	14,552
337,8	13,61
338,3	14,781
338,7	15,181
339,2	20,61
339,7	17,238
340,1	15,095
340,6	14,524
341	16,181
341,5	13,61
342	10,952
342,4	3,838
342,9	3,038
343,3	2,124
343,8	7,495
344,2	7,267
344,7	3,152
345,2	-0,105
345,6	6,41
346,1	11,01
346,5	14,581
347	11,667
347,5	4,552
347,9	12,867
348,4	19,895
348,8	17,924
349,3	17,695
349,8	13,495
350,2	13,21
350,7	20,838
351,1	19,667
351,6	19,81
352	32,267
352,5	36,752
353	46,81
353,4	58,152
353,9	65,581
354,3	76,752
354,8	87,752
355,3	100,267
355,7	124,152
356,2	144,238
356,6	169,181
357,1	198,41
357,5	232,152
358	276,267
358,5	323,81
358,9	372,781
359,4	432,695
359,8	496,438
360,3	572,61
360,8	655,581
361,2	749,267
361,7	844,267
362,1	961,41
362,6	1080,724
363	1212,267
363,5	1353,495
364	1495,895
364,4	1641,438
364,9	1791,524
365,3	1930,01
365,8	2065,581
366,3	2198,01
366,7	2306,495
367,2	2411,438
367,6	2493,038
368,1	2558,295
368,5	2601,781
369	2626,152
369,5	2625,638
369,9	2603,124
370,4	2561,667
370,8	2501,781
371,3	2423,524
371,7	2337,838
372,2	2239,61
372,7	2125,124
373,1	2017,238
373,6	1898,238
374	1779,352
374,5	1662,781
374,9	1543,838
375,4	1431,41
375,9	1329,124
376,3	1229,781
376,8	1133,495
377,2	1050,552
377,7	962,038
378,2	881,352
378,6	814,038
379,1	745,638
379,5	684,667
380	634,21
380,4	579,467
380,9	539,638
381,4	500,81
381,8	457,41
382,3	421,381
382,7	386,524
383,2	353,752
383,6	328,124
384,1	304,61
384,6	280,095
385	264,152
385,5	249,981
385,9	238,067
386,4	225,867
386,8	214,267
387,3	200,867
387,7	188,438
388,2	172,238
388,7	162,867
389,1	145,124
389,6	131,01
390	117,095
390,5	108,124
390,9	104,781
391,4	105,781
391,9	96,724
392,3	93,295
392,8	93,467
393,2	87,752
393,7	84,295
394,1	81,752
394,6	70,381
395,1	67,981
395,5	70,867
396	63,581
396,4	67,152
396,9	63,981
397,3	59,238
397,8	58,638
398,2	52,352
398,7	42,695
399,2	42,067
399,6	40,352
400,1	32,095
400,5	32,267
401	36,81
401,4	40,324
401,9	44,152
402,4	44,552
402,8	44,61
403,3	48,981
403,7	47,867
404,2	43,495
404,6	39,524
405,1	32,952
405,5	31,438
406	27,295
406,5	28,438
406,9	25,124
407,4	26,295
407,8	32,295
408,3	36,838
408,7	42,81
409,2	47,724
409,6	48,524
410,1	58,524
410,6	61,41
411	60,524
411,5	59,152
411,9	53,61
412,4	52,581
412,8	55,324
413,3	50,267
413,7	50,41
414,2	55,038
414,7	61,838
415,1	65,295
415,6	71,095
416	77,61
416,5	80,724
416,9	82,324
417,4	84,324
417,8	85,981
418,3	91,552
418,8	89,438
419,2	90,952
419,7	96,381
420,1	99,152
420,6	102,267
421	102,867
421,5	102,867
421,9	107,867
422,4	103,467
422,8	100,952
423,3	98,781
423,8	99,752
424,2	100,724
424,7	101,61
425,1	99,038
425,6	105,81
426	107,238
426,5	110,724
426,9	108,895
427,4	111,295
427,9	110,095
428,3	110,21
428,8	109,067
429,2	107,552
429,7	105,552
430,1	104,924
430,6	106,01
431	103,01
431,5	103,324
431,9	97,381
432,4	102,867
432,8	107,295
433,3	106,895
433,8	111,724
434,2	119,724
434,7	120,867
435,1	131,438
435,6	136,981
436	136,838
436,5	144,61
436,9	147,381
437,4	154,152
437,8	159,41
438,3	165,152
438,8	165,552
439,2	173,524
439,7	175,267
440,1	178,41
440,6	185,295
441	194,752
441,5	200,267
441,9	212,238
442,4	223,581
442,8	234,724
443,3	243,181
443,7	246,552
444,2	254,324
444,7	263,467
445,1	272,81
445,6	281,581
446	290,438
446,5	305,438
446,9	320,724
447,4	337,352
447,8	351,838
448,3	367,324
448,7	379,295
449,2	394,695
449,6	408,524
450,1	426,581
450,6	440,638
451	447,067
451,5	455,124
451,9	473,924
452,4	492,981
452,8	509,067
453,3	519,352
453,7	533,495
454,2	559,124
454,6	586,095
455,1	602,238
455,5	624,467
456	644,781
456,4	669,895
456,9	694,324
457,3	719,41
457,8	740,352
458,3	771,152
458,7	796,438
459,2	822,01
459,6	850,638
460,1	874,267
460,5	899,21
461	921,867
461,4	944,524
461,9	968,238
462,3	998,952
462,8	1027,895
463,2	1057,981
463,7	1085,552
464,1	1121,01
464,6	1151,781
465	1180,381
465,5	1212,838
466	1240,152
466,4	1277,238
466,9	1315,81
467,3	1345,438
467,8	1384,581
468,2	1423,21
468,7	1454,21
469,1	1492,352
469,6	1526,152
470	1553,552
470,5	1590,21
470,9	1621,81
471,4	1657,867
471,8	1696,752
472,3	1730,124
472,7	1763,238
473,2	1797,467
473,6	1832,695
474,1	1858,552
474,5	1888,695
475	1917,438
475,4	1951,895
475,9	1990,524
476,4	2022,324
476,8	2049,495
477,3	2089,438
477,7	2122,21
478,2	2159,095
478,6	2190,924
479,1	2213,41
479,5	2253,124
480	2287,095
480,4	2316,61
480,9	2350,41
481,3	2372,038
481,8	2401,21
482,2	2430,438
482,7	2452,467
483,1	2486,095
483,6	2507,838
484	2525,81
484,5	2556,467
484,9	2578,324
485,4	2602,324
485,8	2623,01
486,3	2638,638
486,7	2661,524
487,2	2687,695
487,6	2710,61
488,1	2735,867
488,5	2755,038
489	2771,124
489,4	2791,838
489,9	2812,895
490,4	2831,21
490,8	2839,981
491,3	2851,924
491,7	2862,838
492,2	2882,095
492,6	2893,438
493,1	2900,495
493,5	2908,895
494	2926,381
494,4	2931,381
494,9	2942,124
495,3	2949,324
495,8	2960,781
496,2	2968,552
496,7	2979,495
497,1	2983,952
497,6	2997,152
498	3009,524
498,5	3015,838
498,9	3017,095
499,4	3030,467
499,8	3033,41
500,3	3036,21
500,7	3034,781
501,2	3037,238
501,6	3045,124
502,1	3053,381
502,5	3050,524
503	3058,495
503,4	3063,524
503,9	3071,781
504,3	3075,467
504,8	3076,581
505,2	3079,352
505,7	3087,21
506,1	3087,352
506,6	3080,152
507	3082,381
507,5	3078,895
507,9	3083,438
508,4	3080,981
508,8	3076,067
509,3	3075,267
509,7	3077,581
510,2	3079,038
510,6	3079,295
511,1	3079,495
511,5	3082,581
512	3080,752
512,4	3074,61
512,9	3074,067
513,3	3074,867
513,8	3076,581
514,2	3075,667
514,7	3070,01
515,1	3075,495
515,6	3074,838
516	3074,495
516,5	3068,781
516,9	3064,295
517,4	3057,038
517,8	3055,21
518,3	3051,695
518,7	3050,324
519,2	3052,124
519,6	3043,21
520,1	3047,61
520,5	3042,981
521	3044,81
521,4	3035,295
521,9	3036,238
522,3	3039,81
522,8	3047,238
523,2	3044,695
523,7	3049,952
524,1	3043,695
524,6	3044,867
525	3051,352
525,5	3048,61
525,9	3047,295
526,4	3046,952
526,8	3047,095
527,3	3055,152
527,7	3060,152
528,2	3049,21
528,6	3051,61
529,1	3050,981
529,5	3051,581
530	3050,895
530,4	3043,152
530,9	3043,867
531,3	3045,41
531,8	3046,61
532,2	3049,41
532,6	3049,952
533,1	3047,838
533,5	3059,067
534	3063,21
534,4	3067,01
534,9	3069,124
535,3	3072,524
535,8	3074,124
536,2	3082,552
536,7	3078,038
537,1	3074,667
537,6	3082,152
538	3078,01
538,5	3075,81
538,9	3077,095
539,4	3074,952
539,8	3077,81
540,3	3084,01
540,7	3081,895
541,2	3086,924
541,6	3096,038
542,1	3102,781
542,5	3109,81
543	3110,781
543,4	3114,524
543,9	3115,724
544,3	3116,438
544,8	3117,324
545,2	3117,41
545,7	3113,495
546,1	3114,067
546,5	3114,667
547	3120,552
547,4	3120,324
547,9	3125,724
548,3	3131,924
548,8	3140,952
549,2	3146,638
549,7	3154,61
550,1	3160,267
550,6	3168,895
551	3170,495
551,5	3171,895
551,9	3175,41
552,4	3178,752
552,8	3176,724
553,3	3180,067
553,7	3183,038
554,2	3184,238
554,6	3187,438
555,1	3189,267
555,5	3192,095
555,9	3197,61
556,4	3196,095
556,8	3197,552
557,3	3199,61
557,7	3203,21
558,2	3204,495
558,6	3214,524
559,1	3219,324
559,5	3228,295
560	3235,524
560,4	3237,01
560,9	3236,924
561,3	3240,638
561,8	3242,838
562,2	3240,267
562,7	3246,038
563,1	3249,381
563,6	3252,095
564	3256,124
564,4	3261,038
564,9	3257,181
565,3	3267,067
565,8	3261,238
566,2	3257,524
566,7	3258,952
567,1	3259,981
567,6	3259,438
568	3268,038
568,5	3258,981
568,9	3258,41
569,4	3264,838
569,8	3266,238
570,3	3265,838
570,7	3265,324
571,1	3261,095
571,6	3269,781
572	3269,381
572,5	3267,095
572,9	3270,095
573,4	3269,267
573,8	3271,181
574,3	3271,038
574,7	3270,952
575,2	3271,495
575,6	3268,038
576,1	3261,038
576,5	3259,495
576,9	3252,295
577,4	3254,61
577,8	3241,838
578,3	3236,838
578,7	3237,867
579,2	3240,095
579,6	3240,524
580,1	3243,895
580,5	3234,152
581	3236,781
581,4	3239,61
581,9	3229,695
582,3	3222,381
582,7	3217,667
583,2	3207,381
583,6	3203,381
584,1	3192,152
584,5	3186,667
585	3183,524
585,4	3175,495
585,9	3172,495
586,3	3172,867
586,8	3167,324
587,2	3170,267
587,6	3163,895
588,1	3160,895
588,5	3156,581
589	3145,524
589,4	3133,552
589,9	3137,781
590,3	3132,038
590,8	3129,981
591,2	3127,781
591,7	3126,438
592,1	3122,181
592,5	3124,695
593	3113,295
593,4	3110,095
593,9	3098,038
594,3	3085,495
594,8	3074,895
595,2	3073,467
595,7	3068,638
596,1	3065,438
596,6	3058,581
597	3060,267
597,4	3056,267
597,9	3059,067
598,3	3053,524
598,8	3045,524
599,2	3034,067
599,7	3030,838
600,1	3020,667
600,6	3017,524
601	3009,724
601,4	3002,124
601,9	2993,152
602,3	2993,324
602,8	2983,667
603,2	2986,41
603,7	2986,781
604,1	2980,724
604,6	2970,21
605	2964,467
605,4	2951,381
605,9	2949,524
606,3	2934,981
606,8	2917,867
607,2	2910,981
607,7	2904,581
608,1	2898,238
608,6	2894,238
609	2885,524
609,4	2882,438
609,9	2879,838
610,3	2875,81
610,8	2871,81
611,2	2864,638
611,7	2857,038
612,1	2844,095
612,6	2833,438
613	2826,867
613,4	2808,981
613,9	2800,638
614,3	2790,667
614,8	2773,667
615,2	2770,352
615,7	2759,467
616,1	2744,895
616,6	2741,152
617	2730,181
617,4	2718,752
617,9	2720,01
618,3	2705,667
618,8	2699,467
619,2	2691,781
619,7	2677,381
620,1	2661,467
620,5	2652,552
621	2632,81
621,4	2623,867
621,9	2608,124
622,3	2599,124
622,8	2588,81
623,2	2583,495
623,6	2571,981
624,1	2571,467
624,5	2560,752
625	2544,152
625,4	2534,952
625,9	2524,752
626,3	2516,352
626,8	2513,181
627,2	2492,324
627,6	2476,181
628,1	2472,295
628,5	2454,124
629	2443,524
629,4	2426,638
629,9	2410,095
630,3	2401,438
630,7	2396,981
631,2	2380,581
631,6	2376,095
632,1	2363,695
632,5	2360,181
633	2345,838
633,4	2333,381
633,8	2315,752
634,3	2308,21
634,7	2294,467
635,2	2282,952
635,6	2265,438
636,1	2259,952
636,5	2250,552
636,9	2247,095
637,4	2240,067
637,8	2226,667
638,3	2209,981
638,7	2205,124
639,2	2193,238
639,6	2181,924
640	2169,695
640,5	2156,467
640,9	2150,867
641,4	2145,581
641,8	2132,267
642,2	2123,152
642,7	2115,381
643,1	2109,41
643,6	2099,924
644	2089,267
644,5	2081,752
644,9	2071,181
645,3	2060,752
645,8	2047,067
646,2	2032,724
646,7	2023,61
647,1	2013,667
647,6	1998,01
648	1984,295
648,4	1970,695
648,9	1965,181
649,3	1951,21
649,8	1940,724
650,2	1933,667
650,6	1926,838
651,1	1926,038
651,5	1919,295
652	1906,695
652,4	1898,495
652,9	1887,924
653,3	1876,638
653,7	1871,238
654,2	1858,952
654,6	1849,381
655,1	1842,838
655,5	1834,581
655,9	1823,695
656,4	1817,124
656,8	1804,095
657,3	1790,895
657,7	1778,581
658,2	1769,638
658,6	1755,238
659	1744,695
659,5	1730,695
659,9	1723,552
660,4	1714,295
660,8	1709,124
661,2	1702,838
661,7	1696,238
662,1	1688,324
662,6	1675,867
663	1670,981
663,4	1663,152
663,9	1648,352
664,3	1640,352
664,8	1630,524
665,2	1623,552
665,6	1617,781
666,1	1600,067
666,5	1590,581
667	1582,038
667,4	1572,495
667,9	1565,238
668,3	1557,152
668,7	1543,152
669,2	1539,324
669,6	1529,781
670,1	1521,867
670,5	1506,638
670,9	1500,267
671,4	1489,867
671,8	1487,895
672,3	1482,152
672,7	1473,581
673,1	1464,781
673,6	1457,324
674	1445,381
674,5	1437,467
674,9	1422,838
675,3	1409,41
675,8	1400,81
676,2	1393,124
676,7	1381,581
677,1	1375,124
677,5	1359,41
678	1357,095
678,4	1348,638
678,9	1343,01
679,3	1336,81
679,7	1333,152
680,2	1323,752
680,6	1318,781
681,1	1304,467
681,5	1297,752
681,9	1286,01
682,4	1278,838
682,8	1267,61
683,3	1259,352
683,7	1252,981
684,1	1248,667
684,6	1239,352
685	1233,352
685,5	1221,695
685,9	1219,438
686,3	1209,267
686,8	1205,324
687,2	1197,381
687,7	1191,152
688,1	1185,495
688,5	1177,01
689	1165,352
689,4	1165,267
689,9	1159,838
690,3	1154,324
690,7	1146,152
691,2	1135,752
691,6	1133,295
692	1124,124
692,5	1112,124
692,9	1099,467
693,4	1094,695
693,8	1089,352
694,2	1081,095
694,7	1072,352
695,1	1066,038
695,6	1058,638
696	1053,095
696,4	1037,667
696,9	1034,952
697,3	1032,667
697,8	1024,152
698,2	1019,495
698,6	1012,81
699,1	1002,41
699,5	1000,724
699,9	991,867
700,4	982,695
700,8	980,238
701,3	971,095
701,7	965,095
702,1	962,381
702,6	955,495
703	943,981
703,5	938,61
703,9	929,695
704,3	929,924
704,8	928,581
705,2	924,295
705,6	917,295
706,1	916,695
706,5	917,152
707	909,267
707,4	898,038
707,8	891,038
708,3	883,352
708,7	882,667
709,2	876,324
709,6	868,238
710	866,638
710,5	865,838
710,9	859,61
711,3	854,838
711,8	845,924
712,2	841,352
712,7	834,981
713,1	825,752
713,5	817,438
714	813,952
714,4	812,095
714,8	807,552
715,3	804,781
715,7	798,952
716,2	793,552
716,6	794,695
717	787,752
717,5	779,41
717,9	774,838
718,3	767,781
718,8	763,41
719,2	760,067
719,7	756,981
720,1	749,295
720,5	747,61
721	742,467
721,4	734,724
721,8	729,352
722,3	722,01
722,7	707,695
723,2	707,01
723,6	697,838
724	690,295
724,5	683,524
724,9	675,381
725,3	670,524
725,8	669,524
726,2	664,638
726,7	660,981
727,1	656,438
727,5	650,895
728	648,981
728,4	645,21
728,8	640,41
729,3	632,095
729,7	628,781
730,1	625,01
730,6	625,067
731	623,038
731,5	623,381
731,9	617,067
732,3	616,61
732,8	612,238
733,2	613,667
733,6	610,781
734,1	607,095
734,5	598,524
734,9	598,552
735,4	597,295
735,8	594,181
736,3	589,41
736,7	586,495
737,1	583,752
737,6	584,324
738	581,181
738,4	578,21
738,9	578,752
739,3	573,21
739,7	568,924
740,2	564,124
740,6	561,981
741,1	555,981
741,5	551,724
741,9	542,81
742,4	537,038
742,8	537,352
743,2	533,867
743,7	527,61
744,1	520,838
744,5	519,724
745	516,695
745,4	516,41
745,8	511,152
746,3	508,781
746,7	506,41
747,2	508,21
747,6	503,238
748	499,495
748,5	495,038
748,9	488,952
749,3	485,438
749,8	481,095
750,2	479,324
750,6	472,381
751,1	470,667
751,5	466,267
751,9	467,581
752,4	463,381
752,8	464,867
753,3	460,381
753,7	459,181
754,1	457,867
754,6	455,495
755	448,438
755,4	446,61
755,9	441,21
756,3	438,352
756,7	430,695
757,2	428,038
757,6	426,952
758	426,181
758,5	420,952
758,9	418,581
759,3	415,895
759,8	422,695
760,2	421,438
760,6	418,638
761,1	411,124
761,5	408,124
761,9	408,552
762,4	402,495
762,8	397,924
763,3	392,924
763,7	385,752
764,1	384,667
764,6	384,781
765	377,781
765,4	377,695
765,9	368,21
766,3	363,524
766,7	366,267
767,2	365,41
767,6	359,267
768	357,81
768,5	354,752
768,9	353,867
769,3	357,095
769,8	355,152
770,2	355,838
770,6	355,781
771,1	354,724
771,5	352,238
771,9	353,267
772,4	352,495
772,8	350,095
773,2	345,41
773,7	346,981
774,1	345,981
774,5	346,495
775	341,038
775,4	333,581
775,8	335,095
776,3	328,81
776,7	323,381
777,1	322,067
777,6	320,41
778	318,438
778,4	317,781
778,9	308,295
779,3	311,752
779,7	310,295
780,2	305,924
780,6	302,067
781	298,438
781,5	297,067
781,9	295,352
782,3	294,495
782,8	292,952
783,2	289,324
783,6	280,381
784,1	281,895
784,5	280,867
784,9	280,581
785,4	276,352
785,8	273,695
786,2	270,752
786,7	273,295
787,1	272,61
787,5	268,667
788	269,267
788,4	268,21
788,8	265,038
789,3	264,695
789,7	262,752
790,1	261,324
790,6	260,01
791	255,867
791,4	251,581
791,9	252,181
792,3	250,238
792,7	251,267
793,2	245,867
793,6	245,067
794	246,867
794,5	246,438
794,9	244,952
795,3	243,752
795,8	241,924
796,2	242,952
796,6	235,524
797,1	227,61
797,5	227,724
797,9	224,552
798,4	223,01
798,8	216,581
799,2	212,981
799,7	218,124
800,1	214,381
800,5	209,238
801	207,895
801,4	200,924
801,8	202,781
802,2	207,895
802,7	200,924
803,1	204,867
803,5	205,895
804	205,01
804,4	205,695
804,8	205,724
805,3	193,752
805,7	192,267
806,1	193,981
806,6	191,867
807	188,21
807,4	188,895
807,9	189,41
808,3	194,152
808,7	194,181
809,2	189,21
809,6	189,01
810	189,638
810,4	189,895
810,9	183,724
811,3	185,581
811,7	183,181
812,2	181,781
812,6	179,61
813	181,095
813,5	179,467
813,9	178,981
814,3	173,295
814,8	176,638
815,2	172,495
815,6	165,581
816,1	161,752
816,5	157,124
816,9	157,352
817,3	158,695
817,8	157,895
818,2	157,21
818,6	160,752
819,1	158,352
819,5	157,524
819,9	152,124
820,4	146,495
820,8	140,81
821,2	144,667
821,7	145,324
822,1	143,038
822,5	143,838
822,9	149,267
823,4	148,838
823,8	152,124
824,2	151,495
824,7	150,067
825,1	148,038
825,5	151,524
826	148,552
826,4	151,381
826,8	148,41
827,3	146,581
827,7	145,667
828,1	153,124
828,5	143,867
829	141,924
829,4	140,924
829,8	139,41
830,3	135,838
830,7	133,467
831,1	127,781
831,6	128,152
832	122,895
832,4	118,152
832,8	119,524
833,3	113,095
833,7	114,838
834,1	111,895
834,6	110,724
835	114,752
835,4	115,638
835,8	106,21
836,3	108,667
836,7	102,81
837,1	98,724
837,6	96,581
838	93,952
838,4	90,581
838,9	99,067
839,3	103,61
839,7	103,067
840,1	105,61
840,6	108,01
841	108,152
841,4	106,924
841,9	100,295
842,3	102,038
842,7	107,581
843,1	107,781
843,6	107,61
844	103,981
844,4	107,41
844,9	111,01
845,3	101,752
845,7	99,752
846,2	97,952
846,6	95,752
847	95,181
847,4	91,124
847,9	87,81
848,3	92,238
848,7	91,924
849,2	88,838
849,6	92,095
850	90,524
850,4	93,981
850,9	92,724
851,3	83,438
851,7	77,981
852,2	76,095
852,6	73,695
853	76,152
853,4	77,181
853,9	74,752
854,3	81,61
854,7	80,095
855,2	82,21
855,6	74,867
856	71,924
856,4	67,524
856,9	68,81
857,3	66,781
857,7	73,41
858,2	70,724
858,6	77,724
859	75,981
859,4	78,467
859,9	78,352
860,3	78,667
860,7	74,324
861,1	79,095
861,6	78,41
862	80,295
862,4	78,638
862,9	78,524
863,3	78,352
863,7	74,667
864,1	72,238
864,6	67,695
865	63,181
865,4	59,238
865,9	57,238
866,3	55,067
866,7	57,038
867,1	58,295
867,6	60,352
868	65,267
868,4	64,152
868,8	69,01
869,3	70,667
869,7	65,467
870,1	64,895
870,6	65,924
871	65,267
871,4	63,724
871,8	53,61
872,3	52,238
872,7	53,752
873,1	56,267
873,5	53,238
874	48,895
874,4	48,638
874,8	49,267
875,3	46,324
875,7	44,867
876,1	39,61
876,5	41,295
877	44,21
877,4	46,867
877,8	53,01
878,2	57,352
878,7	62,238
879,1	62,867
879,5	60,81
879,9	59,581
880,4	55,124
880,8	54,752
881,2	53,81
881,7	53,581
882,1	50,838
882,5	48,838
882,9	50,867
883,4	55,21
883,8	49,067
884,2	47,01
884,6	44,781
885,1	47,21
885,5	55,81
885,9	56,438
886,3	56,01
886,8	55,152
887,2	55,324
887,6	55,067
888	50,952
888,5	46,524
888,9	42,895
889,3	35,038
889,8	37,095
890,2	32,981
890,6	30,181
891	32,124
891,5	29,581
891,9	30,381
892,3	36,924
892,7	39,01
893,2	44,438
893,6	44,295
894	43,352
894,4	45,867
894,9	45,81
895,3	46,038
895,7	46,41
896,1	43,952
896,6	43,752
897	44,152
897,4	37,638
897,8	39,181
898,3	40,724
898,7	35,067
899,1	31,295
899,5	29,438
900	29,495
900,4	30,61
900,8	31,438
901,2	28,01
901,7	30,352
902,1	34,581
902,5	35,21
902,9	36,724
903,4	40,038
903,8	32,952
904,2	34,21
904,6	30,124
905,1	29,41
905,5	28,038
905,9	24,152
906,3	19,81
906,8	22,095
907,2	20,324
907,6	31,238
908	28,867
908,5	33,181
908,9	33,467
909,3	33,667
909,7	33,752
910,2	31,01
910,6	23,838
911	24,524
911,4	21,438
911,9	24,01
912,3	26,124
912,7	25,152
913,1	21,124
913,6	23,752
914	24,61
914,4	26,895
914,8	26,152
915,3	21,667
915,7	18,867
916,1	24,152
916,5	21,724
916,9	19,295
917,4	16,152
917,8	10,524
918,2	8,41
918,6	10,924
919,1	12,124
919,5	13,01
919,9	13,238
920,3	15,095
920,8	21,495
921,2	31,81
921,6	32,438
922	24,438
922,5	27,352
922,9	27,238
923,3	31,467
923,7	25,01
924,2	17,124
924,6	16,324
925	18,724
925,4	17,581
925,8	19,695
926,3	17,495
926,7	22,81
927,1	26,295
927,5	27,21
928	30,438
928,4	27,781
928,8	27,352
929,2	25,524
929,7	20,067
930,1	17,124
930,5	18,295
930,9	19,895
931,3	22,438
931,8	17,924
932,2	17,324
932,6	20,41
933	17,295
933,5	15,81
933,9	13,41
934,3	10,095
934,7	11,495
935,2	12,924
935,6	11,038
936	16,324
936,4	12,895
936,8	12,895
937,3	10,838
937,7	13,438
938,1	8,895
938,5	10,667
939	8,41
939,4	13,924
939,8	14,867
940,2	16,381
940,6	13,81
941,1	21,667
941,5	23,552
941,9	26,152
942,3	22,981
942,8	23,952
943,2	20,495
943,6	25,495
944	22,838
944,4	14,895
944,9	12,267
945,3	14,181
945,7	13,695
946,1	17,952
946,6	11,552
947	10,924
947,4	14,124
947,8	13,067
948,2	8,924
948,7	9,638
949,1	9,752
949,5	15,124
949,9	11,838
950,3	18,152
950,8	18,295
951,2	18,152
951,6	17,724
952	18,038
952,5	13,495
952,9	11,381
953,3	2,067
953,7	5,152
954,1	6,381
954,6	6,81
955	4,81
955,4	4,667
955,8	8,524
956,2	11,952
956,7	14,552
957,1	17,867
957,5	12,781
957,9	11,724
958,3	11,581
958,8	9,267
959,2	13,981
959,6	10,695
960	7,181
960,5	6,781
960,9	8,724
961,3	10,781
961,7	8,038
962,1	3,524
962,6	0,181
963	-2,648
963,4	0,238
963,8	-1,505
964,2	-3,762
964,7	-0,105
965,1	3,467
965,5	5,038
965,9	8,981
966,3	5,638
966,8	10,524
967,2	13,667
967,6	14,352
968	15,324
968,4	15,752
968,9	20,981
969,3	24,01
969,7	17,667
970,1	11,438
970,5	13,352
971	7,667
971,4	9,667
971,8	5,295
972,2	6,752
972,6	10,038
973,1	17,095
973,5	17,095
973,9	19,352
974,3	13,667
974,7	10,838
975,2	8,438
975,6	1,067
976	2,495
976,4	0,352
976,8	-2,619
977,3	0,01
977,7	1,752
978,1	1,352
978,5	9,524
978,9	2,924
979,4	0,695
979,8	6,952
980,2	7,152
980,6	6,552
981	8,01
981,5	9,238
981,9	9,695
982,3	6,752
982,7	1,438
983,1	2,181
983,6	5,867
984	11,124
984,4	9,467
984,8	8,381
985,2	12,752
985,6	13,61
986,1	13,667
986,5	7,238
986,9	4,495
987,3	3,324
987,7	9,924
988,2	10,724
988,6	10,438
989	10,238
989,4	13,381
989,8	11,181
990,3	9,495
990,7	1,495
991,1	-3,79
991,5	-2,876
991,9	-0,048
992,3	-2,019
992,8	0,352
993,2	0,81
993,6	4,495
994	9,752
994,4	10,267
994,9	7,638
995,3	8,552
995,7	7,838
996,1	6,581
996,5	8,21
996,9	4,181
997,4	-0,162
997,8	0,438
998,2	2,581
998,6	-0,59
999	0,895
999,5	1,81
999,9	5,01
1000,3	10,838
1000,7	7,81
1001,1	7,61
1001,5	5,781
1002	5,038
1002,4	2,324
1002,8	4,924
1003,2	3,181
1003,6	6,981
1004	5,01
1004,5	8,181
1004,9	11,181
1005,3	8,381
1005,7	6,638
1006,1	6,638
1006,6	5,267
1007	6,181
1007,4	5,867
1007,8	1,838
1008,2	5,924
1008,6	1,267
1009,1	-1,133
1009,5	4,695
1009,9	5,21
1010,3	8,524
1010,7	12,838
1011,1	14,267
1011,6	16,295
1012	18,867
1012,4	16,552
1012,8	9,952
1013,2	6,838
1013,6	5,638
1014,1	5,41
1014,5	3,495
1014,9	6,581
1015,3	2,495
1015,7	8,981
1016,1	10,352
1016,6	10,352
1017	5,381
1017,4	5,238
1017,8	-3,305
1018,2	-2,962
1018,6	-2,905
1019,1	-6,19
1019,5	-4,076
1019,9	1,781
1020,3	5,21
1020,7	6,295
1021,1	7,524
1021,6	5,724
1022	6,495
1022,4	5,324
1022,8	3,038
1023,2	4,781
1023,6	5,095
1024,1	5,61
1024,5	5,638
1024,9	9,41
1025,3	6,467
1025,7	7,038
1026,1	8,495
1026,6	14,467
1027	9,438
1027,4	11,638
1027,8	7,924
1028,2	8,181
1028,6	8,952
1029	5,124
1029,5	3,381
1029,9	0,238
1030,3	2,41
1030,7	6,238
1031,1	1,381
1031,5	-5,019
1032	-1,705
1032,4	-2,848
1032,8	0,895
1033,2	-2,305
1033,6	-1,79
1034	3,01
1034,4	10,467
1034,9	4,924
1035,3	9,724
1035,7	12,181
1036,1	15,924
1036,5	8,21
1036,9	7,324
1037,4	4,324
1037,8	4,581
1038,2	-3,676
1038,6	-8,419
1039	-11,105
1039,4	-8,019
1039,8	-10,762
1040,3	-11,333
1040,7	-13,933
1041,1	-7,905
1041,5	-5,705
1041,9	-10,448
1042,3	-8,848
1042,7	-4,276
1043,2	-6,219
1043,6	3,352
1044	1,21
1044,4	1,41
1044,8	0,81
1045,2	-2,962
1045,6	-1,248
1046,1	2,781
1046,5	0,838
1046,9	-0,133
1047,3	1,895
1047,7	4,295
1048,1	9,067
1048,5	8,695
1049	12,838
1049,4	7,552
1049,8	6,61
1050,2	10,695
1050,6	14,952
1051	14,181
1051,4	10,267
1051,9	7,238
1052,3	10,41
1052,7	12,381
1053,1	8,981
1053,5	8,352
1053,9	11,41
1054,3	13,41
1054,8	13,895
1055,2	14,924
1055,6	15,01
1056	14,524
1056,4	13,181
1056,8	12,095
1057,2	17,438
1057,6	8,638
1058,1	9,152
1058,5	5,924
1058,9	5,81
1059,3	9,638
1059,7	4,152
1060,1	-0,676
1060,5	0,81
1061	0,267
1061,4	6,781
1061,8	7,067
1062,2	6,324
1062,6	10,324
1063	10,267
1063,4	11,381
1063,8	9,41
1064,3	4,524
1064,7	4,41
1065,1	2,067
1065,5	2,838
1065,9	6,467
1066,3	7,524
1066,7	7,21
1067,1	6,724
1067,6	9,238
1068	5,867
1068,4	6,981
1068,8	3,924
1069,2	7,867
1069,6	5,152
1070	8,667
1070,4	6,467
1070,9	9,495
1071,3	8,124
1071,7	9,238
1072,1	8,524
1072,5	14,41
1072,9	17,267
1073,3	16,295
1073,7	11,067
1074,2	12,238
1074,6	11,352
1075	9,895
1075,4	6,724
1075,8	5,295
1076,2	3,924
1076,6	6,01
1077	1,495
1077,5	3,467
1077,9	5,181
1078,3	7,381
1078,7	1,81
1079,1	5,181
1079,5	4,552
1079,9	6,952
1080,3	5,781
1080,7	8,467
1081,2	8,067
1081,6	13,752
1082	11,467
1082,4	8,81
1082,8	4,295
1083,2	1,438
1083,6	0,81
1084	-2,619
1084,5	-8,419
1084,9	-10,762
1085,3	-6,105
1085,7	-2,276
1086,1	-4,59
1086,5	-0,562
1086,9	0,295
1087,3	5,324
1087,7	12,267
1088,2	10,352
1088,6	8,124
1089	10,895
1089,4	1,467
1089,8	6,61
1090,2	5,038
1090,6	-0,019
1091	4,067
1091,4	7,124
1091,9	9,581
1092,3	11,095
1092,7	1,41
1093,1	-3,39
1093,5	-3,219
1093,9	-1,99
1094,3	-0,219
1094,7	-2,848
1095,1	-1,876
1095,5	3,438
1096	4,438
1096,4	5,524
1096,8	0,038
1097,2	-0,59
1097,6	-0,79
1098	-1,476
1098,4	-0,848
1098,8	1,267
1099,2	-0,448
1099,6	2,752
1100,1	2,752
1100,5	4,467
1100,9	4,41
1101,3	6,61
1101,7	11,038
1102,1	13,095
1102,5	14,352
1102,9	7,895
1103,3	3,695
1103,7	4,181
1104,2	5,152
1104,6	4,667
1105	5,152
1105,4	4,324
1105,8	8,581
1106,2	11,61
1106,6	10,01
1107	6,152
1107,4	2,6
1107,8	1,467
1108,3	-0,133
