Data from Subt2_205.txt Node
Date: Sat Aug 26 18:45:53 MSK 2023
User: vat
Spectrometer: MAYP114033
Trigger mode: 0
Integration Time (sec): 1,000000E0
Scans to average: 5
Electric dark correction enabled: true
Nonlinearity correction enabled: false
Boxcar width: 3
XAxis mode: Wavelengths
Number of Pixels in Spectrum: 2068
>>>>>Begin Spectral Data<<<<<
199,4	-1,233
199,9	2,987
200,4	0,4
200,8	1,352
201,3	2,095
201,8	1,61
202,2	-1,162
202,7	2,724
203,2	-0,276
203,6	-0,276
204,1	-4,819
204,6	-5,933
205	-1,933
205,5	-1,79
206	-5,048
206,4	-5,305
206,9	-0,705
207,4	3,495
207,8	1,238
208,3	-0,19
208,8	4,781
209,2	3,924
209,7	6,752
210,2	5,41
210,6	2,781
211,1	5,524
211,5	0,095
212	-0,705
212,5	1,124
212,9	-3,676
213,4	-3,648
213,9	-1,448
214,3	-1,533
214,8	4,01
215,3	-0,362
215,7	0,81
216,2	4,61
216,7	4,181
217,1	2,095
217,6	4,438
218,1	4,41
218,5	5,152
219	-4,305
219,5	-5,333
219,9	-8,048
220,4	-2,162
220,9	-3,476
221,3	-5,305
221,8	-1,733
222,3	6,552
222,7	11,867
223,2	11,495
223,6	5,095
224,1	1,667
224,6	5,152
225	4,781
225,5	5,581
226	3,41
226,4	6,61
226,9	9,61
227,4	15,552
227,8	9,467
228,3	9,238
228,8	7,724
229,2	3,524
229,7	3,695
230,2	6,495
230,6	3,381
231,1	9,495
231,5	10,124
232	9,724
232,5	12,438
232,9	14,495
233,4	9,952
233,9	7,552
234,3	7,581
234,8	5,467
235,3	5,438
235,7	7,838
236,2	5,724
236,7	9,524
237,1	14,867
237,6	5,61
238,1	7,295
238,5	2,952
239	-3,276
239,4	-0,248
239,9	-3,076
240,4	-6,19
240,8	3,324
241,3	-0,276
241,8	-0,305
242,2	3,981
242,7	1,524
243,2	3,295
243,6	-1,505
244,1	-4,419
244,6	-0,619
245	4,981
245,5	4,095
245,9	0,581
246,4	-0,648
246,9	5,267
247,3	4,61
247,8	6,267
248,3	7,21
248,7	8,324
249,2	8,895
249,7	10,181
250,1	11,895
250,6	12,238
251	11,21
251,5	12,267
252	8,952
252,4	9,495
252,9	6,381
253,4	-1,019
253,8	-2,019
254,3	-3,962
254,8	-7,39
255,2	-7,248
255,7	-4,99
256,1	-4,39
256,6	0,924
257,1	5,438
257,5	2,381
258	0,695
258,5	2,352
258,9	2,01
259,4	1,152
259,9	3,295
260,3	-0,105
260,8	2,238
261,2	2,895
261,7	2,552
262,2	-0,248
262,6	-1,562
263,1	2,552
263,6	4,752
264	5,61
264,5	8,152
264,9	7,638
265,4	9,324
265,9	9,81
266,3	7,781
266,8	8,952
267,3	8,924
267,7	6,181
268,2	7,038
268,7	8,21
269,1	9,695
269,6	4,038
270	2,781
270,5	0,495
271	1,467
271,4	2,124
271,9	0,838
272,4	5,467
272,8	6,467
273,3	4,324
273,7	6,638
274,2	2,952
274,7	2,381
275,1	3,295
275,6	2,438
276,1	-1,276
276,5	0,41
277	2,638
277,4	6,124
277,9	6,181
278,4	6,124
278,8	2,038
279,3	8,61
279,8	10,067
280,2	11,01
280,7	13,524
281,1	11,61
281,6	13,438
282,1	18,581
282,5	16,981
283	13,667
283,4	7,381
283,9	6,61
284,4	10,752
284,8	6,924
285,3	2,724
285,8	3,924
286,2	5,181
286,7	10,752
287,1	4,981
287,6	0,61
288,1	-1,276
288,5	2,381
289	0,41
289,5	0,21
289,9	-2,305
290,4	5,267
290,8	4,295
291,3	7,952
291,8	8,381
292,2	5,838
292,7	5,267
293,1	2,924
293,6	1,867
294,1	3,352
294,5	3,124
295	1,724
295,5	4,524
295,9	6,438
296,4	6,724
296,8	2,124
297,3	1,752
297,8	-2,705
298,2	-9,19
298,7	-8,248
299,1	-12,619
299,6	-13,848
300,1	-8,562
300,5	-8,333
301	-3,362
301,5	9,352
301,9	5,41
302,4	7,152
302,8	10,01
303,3	12,381
303,8	6,667
304,2	4,552
304,7	-2,476
305,1	-4,876
305,6	-2,133
306,1	4,324
306,5	2,81
307	12,724
307,4	18,295
307,9	18,867
308,4	23,038
308,8	17,552
309,3	10,438
309,8	9,095
310,2	6,524
310,7	-1,39
311,1	-4,333
311,6	-3,19
312,1	0,095
312,5	2,81
313	1,124
313,4	-0,79
313,9	1,752
314,4	2,01
314,8	-0,676
315,3	-1,448
315,7	-5,99
316,2	-8,762
316,7	-9,019
317,1	-3,648
317,6	-4,19
318	1,181
318,5	1,324
319	5,41
319,4	12,095
319,9	18,438
320,3	15,581
320,8	16,01
321,3	13,552
321,7	13,667
322,2	11,61
322,6	6,61
323,1	-0,59
323,6	-1,219
324	-0,505
324,5	-1,505
324,9	-0,648
325,4	-1,933
325,9	3,295
326,3	6,324
326,8	4,638
327,2	2,238
327,7	3,867
328,2	-1,676
328,6	4,21
329,1	-3,476
329,5	-1,476
330	-2,619
330,5	4,124
330,9	2,695
331,4	9,495
331,8	5,495
332,3	11,524
332,8	9,324
333,2	11,467
333,7	12,095
334,1	14,238
334,6	12,467
335,1	6,295
335,5	6,41
336	2,952
336,4	2,495
336,9	6,667
337,4	6,41
337,8	7,495
338,3	11,61
338,7	12,895
339,2	19,067
339,7	22,838
340,1	12,781
340,6	7,895
341	4,895
341,5	9,781
342	0,724
342,4	-2,99
342,9	-9,933
343,3	-7,819
343,8	-3,733
344,2	-3,762
344,7	-2,59
345,2	1,324
345,6	0,324
346,1	7,381
346,5	7,524
347	5,267
347,5	6,838
347,9	7,21
348,4	8,81
348,8	14,81
349,3	12,352
349,8	10,01
350,2	18,124
350,7	16,295
351,1	14,21
351,6	16,524
352	19,267
352,5	22,781
353	31,695
353,4	34,867
353,9	44,524
354,3	56,895
354,8	66,238
355,3	78,924
355,7	97,152
356,2	118,067
356,6	138,038
357,1	168,781
357,5	197,267
358	236,981
358,5	272,695
358,9	316,695
359,4	370,352
359,8	428,638
360,3	493,238
360,8	558,21
361,2	636,324
361,7	726,01
362,1	827,21
362,6	929,152
363	1043,01
363,5	1157,038
364	1294,695
364,4	1425,181
364,9	1556,581
365,3	1679,752
365,8	1803,495
366,3	1913,21
366,7	2011,867
367,2	2098,61
367,6	2163,838
368,1	2223,581
368,5	2260,61
369	2276,295
369,5	2283,981
369,9	2277,124
370,4	2238,61
370,8	2199,267
371,3	2130,095
371,7	2051,638
372,2	1960,01
372,7	1865,038
373,1	1767,467
373,6	1666,01
374	1558,867
374,5	1455,267
374,9	1360,81
375,4	1265,381
375,9	1168,638
376,3	1074,581
376,8	984,438
377,2	906,895
377,7	832,838
378,2	760,01
378,6	698,924
379,1	643,381
379,5	592,724
380	551,724
380,4	502,524
380,9	461,524
381,4	425,695
381,8	395,324
382,3	365,524
382,7	340,524
383,2	315,352
383,6	296,067
384,1	278,467
384,6	260,667
385	241,781
385,5	221,238
385,9	201,295
386,4	183,267
386,8	167,781
387,3	153,267
387,7	143,838
388,2	133,981
388,7	127,867
389,1	121,467
389,6	119,238
390	115,781
390,5	112,981
390,9	106,295
391,4	99,41
391,9	88,724
392,3	83,724
392,8	73,324
393,2	65,867
393,7	59,124
394,1	54,067
394,6	52,867
395,1	55,438
395,5	49,152
396	50,924
396,4	50,01
396,9	47,981
397,3	52,352
397,8	49,267
398,2	46,495
398,7	48,238
399,2	47,01
399,6	42,181
400,1	39,838
400,5	30,695
401	34,181
401,4	31,867
401,9	32,01
402,4	33,067
402,8	33,181
403,3	38,467
403,7	35,724
404,2	38,324
404,6	40,895
405,1	38,21
405,5	36,895
406	40,295
406,5	36,21
406,9	46,21
407,4	39,438
407,8	42,238
408,3	47,381
408,7	49,124
409,2	52,324
409,6	59,152
410,1	60,21
410,6	67,352
411	70,924
411,5	75,495
411,9	81,581
412,4	88,552
412,8	95,181
413,3	96,638
413,7	98,924
414,2	104,895
414,7	111,352
415,1	118,81
415,6	126,095
416	130,638
416,5	139,181
416,9	146,381
417,4	155,181
417,8	163,238
418,3	172,895
418,8	180,952
419,2	187,81
419,7	199,038
420,1	208,61
420,6	217,438
421	225,238
421,5	236,067
421,9	244,61
422,4	255,267
422,8	263,181
423,3	275,952
423,8	283,438
424,2	293,238
424,7	301,495
425,1	313,095
425,6	328,067
426	336,095
426,5	349,552
426,9	366,724
427,4	382,067
427,9	392,667
428,3	410,124
428,8	421,181
429,2	445,067
429,7	462,238
430,1	476,267
430,6	497,524
431	523,638
431,5	545,552
431,9	567,752
432,4	590,524
432,8	618,781
433,3	649,781
433,8	681,467
434,2	708,095
434,7	741,438
435,1	776,095
435,6	814,552
436	851,21
436,5	891,867
436,9	923,952
437,4	964,724
437,8	1007,352
438,3	1055,01
438,8	1098,467
439,2	1147,352
439,7	1196,81
440,1	1251,981
440,6	1310,838
441	1360,124
441,5	1413,695
441,9	1472,238
442,4	1519,981
442,8	1573,581
443,3	1638,981
443,7	1696,352
444,2	1764,352
444,7	1834,238
445,1	1909,067
445,6	1990,524
446	2070,752
446,5	2146,667
446,9	2225,324
447,4	2302,467
447,8	2384,181
448,3	2461,952
448,7	2543,295
449,2	2634,867
449,6	2719,21
450,1	2809,038
450,6	2908,495
451	3003,238
451,5	3102,038
451,9	3202,581
452,4	3299,352
452,8	3397,067
453,3	3502,924
453,7	3601,695
454,2	3712,667
454,6	3823,581
455,1	3929,352
455,5	4036,724
456	4157,067
456,4	4265,067
456,9	4382,067
457,3	4485,81
457,8	4597,552
458,3	4720,895
458,7	4849,352
459,2	4972,152
459,6	5097,095
460,1	5224,638
460,5	5350,352
461	5473,267
461,4	5593,095
461,9	5704,667
462,3	5825,01
462,8	5950,01
463,2	6067,638
463,7	6196,638
464,1	6324,238
464,6	6461,495
465	6591,267
465,5	6720,695
466	6849,495
466,4	6974,124
466,9	7108,981
467,3	7229,352
467,8	7342,124
468,2	7463,867
468,7	7581,61
469,1	7701,21
469,6	7823,438
470	7934,981
470,5	8054,152
470,9	8171,181
471,4	8280,467
471,8	8388,952
472,3	8498,867
472,7	8607,81
473,2	8710,152
473,6	8809,095
474,1	8914,952
474,5	9021,867
475	9130,238
475,4	9227,038
475,9	9323,667
476,4	9414,467
476,8	9509,867
477,3	9601,352
477,7	9685,495
478,2	9773,181
478,6	9850,21
479,1	9923,41
479,5	10003,724
480	10076,667
480,4	10149,895
480,9	10219,724
481,3	10265,695
481,8	10328,924
482,2	10383,952
482,7	10433,124
483,1	10478,495
483,6	10511,952
484	10541,61
484,5	10593,752
484,9	10632,01
485,4	10667,81
485,8	10694,21
486,3	10721,295
486,7	10740,981
487,2	10768,667
487,6	10768,924
488,1	10772,381
488,5	10772,638
489	10782,295
489,4	10783,895
489,9	10780,038
490,4	10774,638
490,8	10772,895
491,3	10767,124
491,7	10757,752
492,2	10736,324
492,6	10720,781
493,1	10696,295
493,5	10662,61
494	10628,267
494,4	10588,952
494,9	10549,124
495,3	10521,61
495,8	10472,638
496,2	10433,61
496,7	10386,581
497,1	10349,667
497,6	10307,21
498	10266,638
498,5	10214,524
498,9	10170,324
499,4	10121,152
499,8	10076,095
500,3	10019,552
500,7	9966,152
501,2	9903,752
501,6	9846,324
502,1	9789,752
502,5	9732,981
503	9678,867
503,4	9614,21
503,9	9557,552
504,3	9496,867
504,8	9421,695
505,2	9349,038
505,7	9273,467
506,1	9203,038
506,6	9124,124
507	9033,495
507,5	8960,667
507,9	8888,581
508,4	8812,295
508,8	8740,924
509,3	8657,838
509,7	8593,352
510,2	8525,267
510,6	8444,524
511,1	8364,524
511,5	8290,752
512	8213,41
512,4	8133,467
512,9	8046,667
513,3	7964,267
513,8	7880,81
514,2	7805,352
514,7	7728,01
515,1	7643,095
515,6	7564,467
516	7486,324
516,5	7410,981
516,9	7338,581
517,4	7256,552
517,8	7178,781
518,3	7099,467
518,7	7018,581
519,2	6941,238
519,6	6864,152
520,1	6784,524
520,5	6707,781
521	6620,552
521,4	6545,895
521,9	6472,895
522,3	6396,124
522,8	6321,781
523,2	6255,695
523,7	6183,667
524,1	6109,552
524,6	6039,524
525	5973,21
525,5	5908,838
525,9	5846,038
526,4	5772,352
526,8	5702,181
527,3	5642,695
527,7	5586,467
528,2	5523,21
528,6	5457,924
529,1	5394,667
529,5	5330,895
530	5274,21
530,4	5212,81
530,9	5147,552
531,3	5080,895
531,8	5019,781
532,2	4958,467
532,6	4904,952
533,1	4847,61
533,5	4790,181
534	4735,152
534,4	4685,152
534,9	4636,981
535,3	4586,152
535,8	4527,838
536,2	4481,695
536,7	4436,924
537,1	4384,867
537,6	4334,181
538	4282,238
538,5	4232,41
538,9	4189,438
539,4	4145,867
539,8	4098,838
540,3	4053,324
540,7	4017,41
541,2	3971,952
541,6	3929,238
542,1	3883,695
542,5	3838,267
543	3794,324
543,4	3747,895
543,9	3703,638
544,3	3667,695
544,8	3631,124
545,2	3594,467
545,7	3557,495
546,1	3521,581
546,5	3493,467
547	3456,467
547,4	3422,095
547,9	3380,352
548,3	3348,21
548,8	3314,352
549,2	3283,21
549,7	3253,095
550,1	3219,152
550,6	3183,41
551	3156,324
551,5	3129,638
551,9	3091,952
552,4	3060,981
552,8	3031,524
553,3	3004,552
553,7	2979,924
554,2	2952,981
554,6	2923,638
555,1	2907,267
555,5	2881,095
555,9	2855,067
556,4	2828,352
556,8	2799,524
557,3	2774,81
557,7	2750,781
558,2	2719,581
558,6	2694,952
559,1	2662,124
559,5	2642,124
560	2620,467
560,4	2601,295
560,9	2577,467
561,3	2558,01
561,8	2536,267
562,2	2528,524
562,7	2503,752
563,1	2485,524
563,6	2459,781
564	2439,324
564,4	2412,324
564,9	2394,781
565,3	2371,01
565,8	2353,267
566,2	2331,181
566,7	2314,067
567,1	2298,038
567,6	2284,152
568	2264,324
568,5	2246,381
568,9	2229,067
569,4	2214,724
569,8	2197,695
570,3	2177,581
570,7	2157,581
571,1	2144,495
571,6	2129,238
572	2114,752
572,5	2101,667
572,9	2083,352
573,4	2066,952
573,8	2059,41
574,3	2043,41
574,7	2024,438
575,2	2009,067
575,6	1986,495
576,1	1976,867
576,5	1966,695
576,9	1947,381
577,4	1931,61
577,8	1918,924
578,3	1906,067
578,7	1897,238
579,2	1884,324
579,6	1868,038
580,1	1855,038
580,5	1841,752
581	1830,238
581,4	1816,581
581,9	1801,01
582,3	1782,324
582,7	1770,952
583,2	1755,238
583,6	1746,352
584,1	1736,352
584,5	1723,467
585	1712,695
585,4	1695,952
585,9	1682,667
586,3	1678,895
586,8	1665,067
587,2	1650,638
587,6	1640,724
588,1	1637,81
588,5	1633,838
589	1627,638
589,4	1611,067
589,9	1600,838
590,3	1588,324
590,8	1577,324
591,2	1563,181
591,7	1554,238
592,1	1545,095
592,5	1541,695
593	1532,867
593,4	1520,267
593,9	1513,067
594,3	1504,838
594,8	1494,924
595,2	1484,667
595,7	1477,095
596,1	1465,781
596,6	1462,952
597	1451,724
597,4	1444,467
597,9	1438,524
598,3	1430,038
598,8	1417,524
599,2	1411,781
599,7	1406,838
600,1	1393,667
600,6	1378,552
601	1369,952
601,4	1369,724
601,9	1366,352
602,3	1362,324
602,8	1355,095
603,2	1351,924
603,7	1344,667
604,1	1340,038
604,6	1323,238
605	1307,724
605,4	1300,495
605,9	1289,038
606,3	1283,381
606,8	1277,552
607,2	1266,524
607,7	1258,667
608,1	1255,238
608,6	1249,295
609	1246,867
609,4	1240,552
609,9	1233,21
610,3	1228,438
610,8	1222,095
611,2	1216,295
611,7	1202,352
612,1	1190,238
612,6	1186,581
613	1181,952
613,4	1171,81
613,9	1167,581
614,3	1160,724
614,8	1157,781
615,2	1151,81
615,7	1146,352
616,1	1140,495
616,6	1131,238
617	1118,352
617,4	1116,81
617,9	1111,095
618,3	1105,867
618,8	1100,981
619,2	1090,295
619,7	1091,381
620,1	1088,81
620,5	1083,695
621	1076,01
621,4	1070,21
621,9	1056,381
622,3	1053,61
622,8	1038,21
623,2	1035,61
623,6	1022,095
624,1	1019,41
624,5	1011,552
625	1010,295
625,4	1001,895
625,9	1001,038
626,3	994,467
626,8	988,552
627,2	982,495
627,6	971,924
628,1	961,867
628,5	962,152
629	952,952
629,4	945,638
629,9	941,352
630,3	925,924
630,7	924,724
631,2	914,124
631,6	905,781
632,1	901,495
632,5	893,124
633	887,981
633,4	886,01
633,8	879,495
634,3	877,838
634,7	873,438
635,2	865,667
635,6	862,295
636,1	855,895
636,5	845,695
636,9	840,067
637,4	836,324
637,8	828,524
638,3	820,438
638,7	813,438
639,2	803,01
639,6	806,238
640	798,438
640,5	793,895
640,9	787,152
641,4	790,752
641,8	786,867
642,2	784,895
642,7	780,238
643,1	783,752
643,6	771,21
644	765,438
644,5	761,267
644,9	753,924
645,3	748,752
645,8	733,895
646,2	726,21
646,7	727,467
647,1	722,61
647,6	717,667
648	719,067
648,4	715,152
648,9	717,724
649,3	703,21
649,8	701,152
650,2	702,895
650,6	697,267
651,1	690,981
651,5	688,924
652	684,695
652,4	685,838
652,9	680,61
653,3	672,952
653,7	665,981
654,2	659,838
654,6	653,495
655,1	651,952
655,5	657,01
655,9	650,181
656,4	647,838
656,8	644,467
657,3	642,324
657,7	639,067
658,2	631,695
658,6	620,61
659	621,181
659,5	611,324
659,9	607,295
660,4	601,352
660,8	595,81
661,2	590,724
661,7	587,438
662,1	579,438
662,6	577,952
663	575,495
663,4	572,352
663,9	568,181
664,3	564,638
664,8	556,924
665,2	551,238
665,6	545,181
666,1	542,038
666,5	538,981
667	536,581
667,4	533,552
667,9	533,924
668,3	530,41
668,7	525,895
669,2	521,981
669,6	519,638
670,1	514,467
670,5	505,924
670,9	495,924
671,4	492,61
671,8	496,295
672,3	495,61
672,7	493,324
673,1	490,238
673,6	490,181
674	495,952
674,5	491,667
674,9	480,295
675,3	469,952
675,8	465,067
676,2	459,381
676,7	457,581
677,1	450,038
677,5	447,01
678	450,095
678,4	455,124
678,9	451,495
679,3	453,352
679,7	448,295
680,2	441,095
680,6	433,638
681,1	430,724
681,5	427,41
681,9	422,152
682,4	419,638
682,8	421,152
683,3	424,924
683,7	433,038
684,1	432,924
684,6	423,981
685	423,781
685,5	421,01
685,9	412,238
686,3	405,067
686,8	396,61
687,2	391,267
687,7	386,867
688,1	381,724
688,5	379,552
689	382,695
689,4	380,552
689,9	376,895
690,3	367,81
690,7	370,838
691,2	366,581
691,6	361,924
692	354,81
692,5	351,067
692,9	352,41
693,4	353,552
693,8	349,867
694,2	347,238
694,7	343,552
695,1	340,124
695,6	343,924
696	343,867
696,4	341,267
696,9	337,438
697,3	332,867
697,8	331,438
698,2	326,295
698,6	322,495
699,1	314,867
699,5	314,924
699,9	312,467
700,4	310,581
700,8	308,152
701,3	311,581
701,7	308,438
702,1	302,552
702,6	299,838
703	300,41
703,5	299,181
703,9	298,524
704,3	297,981
704,8	292,467
705,2	297,981
705,6	293,61
706,1	286,61
706,5	287,438
707	282,724
707,4	283,038
707,8	284,581
708,3	281,638
708,7	280,838
709,2	282,552
709,6	277,895
710	282,238
710,5	276,61
710,9	272,095
711,3	266,381
711,8	265,638
712,2	263,952
712,7	263,524
713,1	256,867
713,5	258,924
714	262,324
714,4	258,81
714,8	258,124
715,3	253,467
715,7	255,781
716,2	251,238
716,6	245,01
717	236,695
717,5	239,01
717,9	239,695
718,3	239,81
718,8	232,038
719,2	235,61
719,7	234,124
720,1	234,895
720,5	237,724
721	231,467
721,4	228,838
721,8	231,952
722,3	225,695
722,7	228,552
723,2	223,895
723,6	211,952
724	209,41
724,5	205,152
724,9	202,21
725,3	201,581
725,8	197,81
726,2	197,295
726,7	199,867
727,1	199,124
727,5	203,61
728	199,267
728,4	200,181
728,8	195,752
729,3	196,581
729,7	191,095
730,1	188,638
730,6	186,181
731	185,238
731,5	182,41
731,9	183,038
732,3	182,438
732,8	186,467
733,2	186,524
733,6	180,867
734,1	179,381
734,5	174,895
734,9	173,038
735,4	171,895
735,8	167,038
736,3	169,067
736,7	168,924
737,1	170,467
737,6	168,867
738	166,295
738,4	164,895
738,9	168,352
739,3	167,467
739,7	166,295
740,2	164,267
740,6	171,81
741,1	174,867
741,5	165,038
741,9	162,295
742,4	163,495
742,8	164,352
743,2	165,324
743,7	156,495
744,1	149,21
744,5	154,467
745	153,952
745,4	144,352
745,8	142,01
746,3	140,895
746,7	143,724
747,2	145,124
747,6	148,381
748	149,61
748,5	151,152
748,9	148,267
749,3	144,61
749,8	142,81
750,2	143,981
750,6	139,124
751,1	137,695
751,5	136,924
751,9	140,752
752,4	138,038
752,8	138,895
753,3	138,552
753,7	142,41
754,1	139,295
754,6	139,038
755	134,352
755,4	135,895
755,9	133,61
756,3	132,21
756,7	128,952
757,2	132,181
757,6	135,067
758	136,952
758,5	137,667
758,9	135,752
759,3	134,21
759,8	130,924
760,2	126,838
760,6	119,667
761,1	117,524
761,5	117,467
761,9	115,581
762,4	112,81
762,8	112,61
763,3	110,438
763,7	113,267
764,1	116,124
764,6	115,267
765	115,552
765,4	118,781
765,9	121,124
766,3	123,038
766,7	117,981
767,2	113,267
767,6	115,61
768	116,41
768,5	112,638
768,9	108,467
769,3	108,438
769,8	110,01
770,2	113,295
770,6	107,238
771,1	109,552
771,5	107,924
771,9	110,01
772,4	110,638
772,8	108,438
773,2	104,61
773,7	105,267
774,1	103,552
774,5	101,552
775	96,438
775,4	95,095
775,8	95,867
776,3	97,61
776,7	95,181
777,1	94,152
777,6	96,81
778	101,01
778,4	97,781
778,9	102,267
779,3	99,438
779,7	102,552
780,2	101,324
780,6	99,495
781	98,238
781,5	96,838
781,9	91,324
782,3	87,324
782,8	88,752
783,2	88,781
783,6	94,467
784,1	93,981
784,5	92,638
784,9	92,752
785,4	97,067
785,8	94,095
786,2	95,381
786,7	91,924
787,1	90,495
787,5	91,41
788	88,524
788,4	89,895
788,8	87,41
789,3	84,581
789,7	85,867
790,1	88,21
790,6	92,552
791	91,295
791,4	89,581
791,9	85,495
792,3	79,581
792,7	79,838
793,2	75,695
793,6	70,895
794	73,81
794,5	69,552
794,9	74,695
795,3	84,01
795,8	77,61
796,2	77,124
796,6	77,638
797,1	80,867
797,5	81,124
797,9	78,067
798,4	71,638
798,8	70,838
799,2	69,124
799,7	68,01
800,1	63,81
800,5	63,781
801	65,667
801,4	61,095
801,8	61,695
802,2	64,638
802,7	62,867
803,1	62,238
803,5	63,724
804	60,152
804,4	62,067
804,8	64,267
805,3	63,238
805,7	64,781
806,1	65,467
806,6	63,438
807	65,038
807,4	63,152
807,9	61,267
808,3	62,41
808,7	61,152
809,2	59,095
809,6	63,895
810	61,752
810,4	64,438
810,9	64,638
811,3	67,952
811,7	69,352
812,2	74,295
812,6	70,867
813	74,438
813,5	74,981
813,9	71,952
814,3	65,524
814,8	63,581
815,2	59,267
815,6	59,781
816,1	59,752
816,5	61,867
816,9	61,324
817,3	63,124
817,8	67,667
818,2	67,181
818,6	61,838
819,1	60,467
819,5	56,095
819,9	61,638
820,4	57,238
820,8	47,952
821,2	45,781
821,7	53,638
822,1	58,152
822,5	61,524
822,9	57,724
823,4	58,381
823,8	62,695
824,2	64,152
824,7	52,838
825,1	41,438
825,5	35,952
826	33,638
826,4	33,295
826,8	28,524
827,3	31,581
827,7	36,638
828,1	40,381
828,5	43,21
829	38,181
829,4	34,724
829,8	36,867
830,3	33,867
830,7	30,438
831,1	31,352
831,6	30,467
832	37,324
832,4	40,095
832,8	43,838
833,3	39,41
833,7	42,352
834,1	40,238
834,6	39,924
835	39,781
835,4	40,467
835,8	32,838
836,3	37,667
836,7	36,581
837,1	34,81
837,6	34,781
838	31,238
838,4	30,781
838,9	33,124
839,3	30,552
839,7	32,267
840,1	33,695
840,6	34,381
841	38,352
841,4	39,095
841,9	40,895
842,3	40,152
842,7	37,238
843,1	36,981
843,6	37,924
844	37,41
844,4	40,295
844,9	41,038
845,3	41,152
845,7	42,981
846,2	38,524
846,6	35,381
847	37,467
847,4	35,295
847,9	35,095
848,3	32,924
848,7	30,895
849,2	35,867
849,6	33,552
850	31,295
850,4	28,067
850,9	30,781
851,3	30,038
851,7	32,981
852,2	30,895
852,6	37,152
853	33,581
853,4	34,438
853,9	28,867
854,3	33,01
854,7	28,552
855,2	27,21
855,6	27,924
856	29,267
856,4	26,781
856,9	27,038
857,3	24,638
857,7	29,724
858,2	37,581
858,6	30,01
859	32,695
859,4	33,581
859,9	31,895
860,3	32,867
860,7	32,724
861,1	32,552
861,6	35,067
862	33,181
862,4	34,21
862,9	34,781
863,3	36,124
863,7	33,667
864,1	31,152
864,6	29,324
865	26,381
865,4	26,067
865,9	27,038
866,3	22,124
866,7	18,352
867,1	14,41
867,6	16,581
868	14,638
868,4	13,552
868,8	15,467
869,3	16,781
869,7	22,21
870,1	19,495
870,6	17,724
871	-57,19
871,4	-51,276
871,8	-56,648
872,3	-54,819
872,7	-58,333
873,1	-55,505
873,5	-53,105
874	21,095
874,4	16,781
874,8	19,695
875,3	18,667
875,7	15,067
876,1	17,324
876,5	17,124
877	20,352
877,4	17,152
877,8	17,095
878,2	20,81
878,7	25,067
879,1	24,352
879,5	23,524
879,9	25,61
880,4	28,81
880,8	32,01
881,2	27,524
881,7	27,638
882,1	26,61
882,5	24,124
882,9	23,295
883,4	20,495
883,8	17,21
884,2	14,895
884,6	13,638
885,1	13,124
885,5	12,352
885,9	8,838
886,3	10,952
886,8	10,895
887,2	13,495
887,6	14,152
888	13,838
888,5	15,238
888,9	16,81
889,3	13,124
889,8	13,21
890,2	12,467
890,6	10,524
891	12,638
891,5	11,41
891,9	14,695
892,3	19,324
892,7	17,581
893,2	16,61
893,6	18,495
894	18,867
894,4	16,381
894,9	14,295
895,3	14,21
895,7	17,181
896,1	16,381
896,6	14,724
897	13,667
897,4	21,781
897,8	21,038
898,3	21,752
898,7	17,838
899,1	16,495
899,5	12,667
900	6,581
900,4	1,181
900,8	-2,133
901,2	-8,019
901,7	-6,99
902,1	-2,762
902,5	0,095
902,9	4,61
903,4	7,124
903,8	9,181
904,2	9,924
904,6	7,495
905,1	5,667
905,5	9,067
905,9	8,638
906,3	6,095
906,8	9,352
907,2	12,267
907,6	17,124
908	17,438
908,5	16,181
908,9	16,267
909,3	16,352
909,7	15,324
910,2	15,295
910,6	20,238
911	17,552
911,4	17,581
911,9	14,467
912,3	13,067
912,7	14,61
913,1	16,381
913,6	8,752
914	13,01
914,4	10,667
914,8	10,981
915,3	14,438
915,7	11,324
916,1	7,838
916,5	11,981
916,9	9,952
917,4	11,924
917,8	12,724
918,2	7,638
918,6	5,181
919,1	3,695
919,5	1,752
919,9	2,495
920,3	0,924
920,8	1,067
921,2	0,924
921,6	-0,133
922	3,381
922,5	3,181
922,9	1,267
923,3	1,781
923,7	3,438
924,2	4,724
924,6	7,81
925	7,61
925,4	5,695
925,8	6,181
926,3	2,867
926,7	-1,676
927,1	0,981
927,5	2,81
928	0,267
928,4	-2,676
928,8	1,638
929,2	5,867
929,7	9,152
930,1	11,438
930,5	10,924
930,9	11,924
931,3	20,01
931,8	17,552
932,2	18,581
932,6	18,095
933	8,61
933,5	8,495
933,9	7,267
934,3	4,238
934,7	2,467
935,2	4,41
935,6	3,124
936	8,467
936,4	6,638
936,8	6,724
937,3	4,238
937,7	6,638
938,1	4,038
938,5	-0,19
939	0,181
939,4	1,267
939,8	-0,276
940,2	-1,162
940,6	0,695
941,1	2,667
941,5	13,467
941,9	11,695
942,3	9,81
942,8	12,952
943,2	19,295
943,6	12,381
944	12,267
944,4	8,781
944,9	9,467
945,3	10,01
945,7	4,295
946,1	-5,105
946,6	-1,419
947	-7,619
947,4	-3,333
947,8	-3,476
948,2	-5,619
948,7	-3,705
949,1	0,01
949,5	5,867
949,9	10,124
950,3	4,724
950,8	7,095
951,2	5,438
951,6	6,324
952	10,752
952,5	2,038
952,9	1,267
953,3	0,867
953,7	-0,533
954,1	6,038
954,6	11,467
955	13,838
955,4	13,61
955,8	15,467
956,2	18,638
956,7	21,752
957,1	13,638
957,5	14,724
957,9	7,038
958,3	8,324
958,8	6,581
959,2	4,352
959,6	5,124
960	8,467
960,5	10,095
960,9	14,41
961,3	14,924
961,7	12,152
962,1	8,81
962,6	7,638
963	9,695
963,4	1,438
963,8	0,267
964,2	3,781
964,7	5,638
965,1	11,124
965,5	8,61
965,9	8,01
966,3	11,581
966,8	10,81
967,2	8,924
967,6	10,181
968	4,895
968,4	3,638
968,9	5,41
969,3	9,295
969,7	8,381
970,1	7,238
970,5	4,581
971	9,095
971,4	10,638
971,8	6,695
972,2	2,552
972,6	-0,133
973,1	2,21
973,5	3,295
973,9	5,01
974,3	7,152
974,7	14,038
975,2	14,638
975,6	18,01
976	18,524
976,4	14,438
976,8	8,667
977,3	6,81
977,7	4,067
978,1	5,524
978,5	5,61
978,9	1,067
979,4	4,781
979,8	6,095
980,2	8,095
980,6	2,752
981	1,867
981,5	-0,448
981,9	0,41
982,3	2,467
982,7	2,552
983,1	-2,305
983,6	2,067
984	2,667
984,4	4,324
984,8	8,924
985,2	7,724
985,6	5,667
986,1	8,695
986,5	9,267
986,9	2,01
987,3	4,381
987,7	3,21
988,2	4,952
988,6	9,752
989	9,124
989,4	5,038
989,8	8,21
990,3	5,867
990,7	5,838
991,1	2,638
991,5	1,752
991,9	0,952
992,3	4,152
992,8	6,838
993,2	7,552
993,6	6,724
994	9,895
994,4	10,152
994,9	11,238
995,3	7,61
995,7	3,295
996,1	1,324
996,5	-1,076
996,9	-9,705
997,4	-7,39
997,8	-10,105
998,2	-8,933
998,6	-15,076
999	-15,876
999,5	-16,762
999,9	-10,276
1000,3	-15,362
1000,7	-15,362
1001,1	-16,79
1001,5	-8,99
1002	-3,705
1002,4	-1,533
1002,8	-2,219
1003,2	-0,219
1003,6	0,267
1004	7,781
1004,5	5,524
1004,9	4,181
1005,3	1,324
1005,7	0,295
1006,1	-2,905
1006,6	-0,305
1007	-5,162
1007,4	-3,819
1007,8	-4,533
1008,2	-6,276
1008,6	-2,219
1009,1	0,981
1009,5	-0,962
1009,9	-0,133
1010,3	8,352
1010,7	7,552
1011,1	11,124
1011,6	9,124
1012	10,981
1012,4	9,495
1012,8	6,867
1013,2	3,124
1013,6	3,581
1014,1	6,21
1014,5	7,152
1014,9	1,552
1015,3	3,438
1015,7	8,895
1016,1	6,267
1016,6	5,781
1017	2,838
1017,4	3,095
1017,8	6,952
1018,2	11,81
1018,6	7,495
1019,1	7,895
1019,5	7,352
1019,9	2,81
1020,3	2,152
1020,7	3,067
1021,1	-3,905
1021,6	-4,933
1022	-2,333
1022,4	-1,533
1022,8	5,638
1023,2	4,781
1023,6	5,095
1024,1	12,552
1024,5	18,01
1024,9	12,981
1025,3	12,324
1025,7	8,524
1026,1	12,295
1026,6	12,067
1027	9,552
1027,4	11,838
1027,8	12,524
1028,2	12,524
1028,6	16,381
1029	12,238
1029,5	13,124
1029,9	9,895
1030,3	1,924
1030,7	2,21
1031,1	1,581
1031,5	-4,476
1032	-3,362
1032,4	-8,476
1032,8	-5,19
1033,2	-1,79
1033,6	-3,419
1034	-1,248
1034,4	0,152
1034,9	2,324
1035,3	0,895
1035,7	-0,59
1036,1	-6,105
1036,5	-3,819
1036,9	-1,99
1037,4	1,867
1037,8	-2,333
1038,2	2,467
1038,6	3,838
1039	11,038
1039,4	13,381
1039,8	3,638
1040,3	3,267
1040,7	4,01
1041,1	3,038
1041,5	0,524
1041,9	-6,076
1042,3	-6,076
1042,7	2,438
1043,2	0,667
1043,6	-0,876
1044	-0,905
1044,4	3,324
1044,8	11,495
1045,2	6,61
1045,6	4,238
1046,1	6,095
1046,5	2,238
1046,9	2,352
1047,3	-0,905
1047,7	-6,39
1048,1	-3,876
1048,5	-3,248
1049	-1,105
1049,4	10,552
1049,8	9,81
1050,2	11,324
1050,6	14,095
1051	13,924
1051,4	11,067
1051,9	6,267
1052,3	5,81
1052,7	5,81
1053,1	1,21
1053,5	2,41
1053,9	-0,505
1054,3	5,924
1054,8	13,781
1055,2	12,267
1055,6	15,181
1056	21,581
1056,4	19,152
1056,8	27,095
1057,2	21,038
1057,6	14,638
1058,1	7,524
1058,5	2,495
1058,9	0,238
1059,3	5,41
1059,7	2,895
1060,1	5,467
1060,5	2,181
1061	6,181
1061,4	9,895
1061,8	10,381
1062,2	6,61
1062,6	4,438
1063	3,21
1063,4	7,524
1063,8	7,924
1064,3	3,895
1064,7	2,552
1065,1	0,295
1065,5	1,41
1065,9	-2,619
1066,3	-1,819
1066,7	-4,276
1067,1	-6,219
1067,6	-5,219
1068	-6,276
1068,4	-5,39
1068,8	0,724
1069,2	-0,648
1069,6	1,152
1070	10,495
1070,4	10,867
1070,9	8,952
1071,3	3,524
1071,7	3,381
1072,1	1,895
1072,5	-0,733
1072,9	-7,79
1073,3	-9,79
1073,7	-11,133
1074,2	-7,305
1074,6	-7,39
1075	-7,476
1075,4	-7,39
1075,8	-2,19
1076,2	-2,248
1076,6	3,067
1077	4,238
1077,5	5,352
1077,9	4,924
1078,3	4,752
1078,7	4,124
1079,1	2,495
1079,5	4,067
1079,9	2,781
1080,3	2,924
1080,7	4,781
1081,2	9,838
1081,6	7,752
1082	5,724
1082,4	12,438
1082,8	12,267
1083,2	10,924
1083,6	9,952
1084	7,067
1084,5	8,095
1084,9	12,524
1085,3	4,924
1085,7	7,467
1086,1	6,095
1086,5	12,781
1086,9	15,667
1087,3	15,695
1087,7	14,981
1088,2	14,438
1088,6	11,095
1089	14,152
1089,4	7,895
1089,8	5,695
1090,2	5,067
1090,6	7,295
1091	7,752
1091,4	6,038
1091,9	2,667
1092,3	4,324
1092,7	3,61
1093,1	8,095
1093,5	10,467
1093,9	8,038
1094,3	15,924
1094,7	16,924
1095,1	16,238
1095,5	17,552
1096	9,981
1096,4	10,01
1096,8	8,838
1097,2	2,952
1097,6	5,752
1098	4,838
1098,4	5,781
1098,8	8,324
1099,2	8,867
1099,6	7,524
1100,1	7,752
1100,5	4,438
1100,9	6,095
1101,3	6,524
1101,7	6,581
1102,1	1,181
1102,5	6,267
1102,9	9,381
1103,3	12,181
1103,7	11,495
1104,2	9,581
1104,6	8,895
1105	6,924
1105,4	4,81
1105,8	1,495
1106,2	-1,419
1106,6	-2,476
1107	-3,133
1107,4	-3,2
1107,8	-0,773
1108,3	0,067
