Data from Subt2_329.txt Node
Date: Sat Aug 26 19:19:38 MSK 2023
User: vat
Spectrometer: MAYP114033
Trigger mode: 0
Integration Time (sec): 1,000000E0
Scans to average: 5
Electric dark correction enabled: true
Nonlinearity correction enabled: false
Boxcar width: 3
XAxis mode: Wavelengths
Number of Pixels in Spectrum: 2068
>>>>>Begin Spectral Data<<<<<
199,4	-0,2
199,9	-0,32
200,4	1,767
200,8	1
201,3	0,571
201,8	2,714
202,2	0,743
202,7	7,143
203,2	7,4
203,6	5,229
204,1	4,657
204,6	6,914
205	7,114
205,5	9,486
206	3,257
206,4	2,771
206,9	5,2
207,4	8,714
207,8	7,457
208,3	7,257
208,8	8,971
209,2	12,143
209,7	13,771
210,2	15,4
210,6	11,829
211,1	12,886
211,5	7,714
212	6,286
212,5	4,286
212,9	3,857
213,4	1,886
213,9	2,4
214,3	3,743
214,8	9,829
215,3	12,286
215,7	14,686
216,2	18,057
216,7	16,486
217,1	17,6
217,6	18,286
218,1	18,943
218,5	14,4
219	6,086
219,5	4,514
219,9	1,2
220,4	5,057
220,9	4,743
221,3	0,714
221,8	3,114
222,3	8,571
222,7	8,629
223,2	11,114
223,6	8,057
224,1	5,771
224,6	8,543
225	5,629
225,5	4,229
226	3,514
226,4	7,4
226,9	9,257
227,4	12
227,8	6,8
228,3	11,171
228,8	13
229,2	14,114
229,7	10,257
230,2	10,171
230,6	11,771
231,1	19,8
231,5	20,714
232	22,886
232,5	22,257
232,9	24,857
233,4	23,629
233,9	16,2
234,3	11,571
234,8	11,171
235,3	9,143
235,7	7,971
236,2	10,571
236,7	12,229
237,1	20,343
237,6	20,343
238,1	16,743
238,5	10,229
239	6,314
239,4	9,029
239,9	6,714
240,4	4,6
240,8	9,943
241,3	10,2
241,8	13,771
242,2	20,514
242,7	12,8
243,2	13,029
243,6	10,943
244,1	10,257
244,6	12,886
245	15,486
245,5	11,829
245,9	9,514
246,4	6,914
246,9	8,286
247,3	6,457
247,8	6,743
248,3	6,829
248,7	11,8
249,2	17,143
249,7	15,086
250,1	14,857
250,6	11,143
251	11,571
251,5	11,114
252	5,4
252,4	5,686
252,9	5,429
253,4	2,2
253,8	0,829
254,3	-1,914
254,8	-2,257
255,2	2,886
255,7	2,829
256,1	7,114
256,6	11,257
257,1	14,286
257,5	10,514
258	9,371
258,5	4,629
258,9	1
259,4	0,486
259,9	-0,114
260,3	-1,657
260,8	1,257
261,2	4,686
261,7	4,914
262,2	5,686
262,6	4,629
263,1	5,029
263,6	7,829
264	13,343
264,5	13,286
264,9	16
265,4	17,514
265,9	18,057
266,3	18,457
266,8	17,029
267,3	14,571
267,7	15,771
268,2	15,771
268,7	16
269,1	15,914
269,6	12,229
270	15
270,5	13,857
271	13,029
271,4	8,229
271,9	2,914
272,4	7,829
272,8	10,086
273,3	4,114
273,7	5,4
274,2	4,4
274,7	7,686
275,1	14,257
275,6	15,086
276,1	12,857
276,5	20,914
277	21,2
277,4	20,943
277,9	26,2
278,4	25,829
278,8	22,171
279,3	23,371
279,8	21,086
280,2	19,914
280,7	21,857
281,1	16,971
281,6	15,4
282,1	14,543
282,5	14,971
283	13
283,4	13,971
283,9	13,143
284,4	13,657
284,8	16,229
285,3	15,886
285,8	15,286
286,2	13,771
286,7	13,514
287,1	8,657
287,6	7,543
288,1	4,629
288,5	10,057
289	13,086
289,5	15,057
289,9	12,829
290,4	18,343
290,8	19,143
291,3	19,543
291,8	16,714
292,2	12,886
292,7	17,429
293,1	15,857
293,6	15,743
294,1	13,657
294,5	15,457
295	11,8
295,5	10,571
295,9	6,771
296,4	8,686
296,8	5,457
297,3	4,514
297,8	-1,429
298,2	-1,543
298,7	6,571
299,1	7,657
299,6	6,457
300,1	8,6
300,5	12,429
301	22,914
301,5	29,314
301,9	23,086
302,4	20,114
302,8	20,086
303,3	21,057
303,8	19,771
304,2	14,143
304,7	16,171
305,1	12,829
305,6	13,4
306,1	20,829
306,5	19,057
307	22,743
307,4	23,257
307,9	16,657
308,4	17,914
308,8	12,714
309,3	6,371
309,8	3,657
310,2	2,514
310,7	1,8
311,1	2,771
311,6	5,229
312,1	13,429
312,5	14,086
313	18,457
313,4	19,114
313,9	21,086
314,4	20,486
314,8	19,371
315,3	16,914
315,7	14,143
316,2	14,771
316,7	6,543
317,1	11,543
317,6	9,143
318	10,857
318,5	11,457
319	14,086
319,4	16,029
319,9	22,886
320,3	16,457
320,8	17,571
321,3	20,4
321,7	21,143
322,2	19,771
322,6	17,114
323,1	13,086
323,6	12,171
324	11,914
324,5	7,943
324,9	8,171
325,4	8
325,9	8
326,3	11,457
326,8	12,571
327,2	12,457
327,7	14,629
328,2	11,686
328,6	14,457
329,1	10,657
329,5	11,286
330	8,343
330,5	13,714
330,9	11,886
331,4	11,971
331,8	9,457
332,3	13,114
332,8	13,657
333,2	16,029
333,7	11,457
334,1	13,514
334,6	12,686
335,1	10,914
335,5	10,857
336	7,2
336,4	8,857
336,9	15,057
337,4	17,514
337,8	20,057
338,3	20,8
338,7	18,771
339,2	20
339,7	21,8
340,1	15,886
340,6	14,629
341	10,686
341,5	13,371
342	12,629
342,4	8,686
342,9	5,029
343,3	6,257
343,8	4,543
344,2	7,629
344,7	14,114
345,2	15,486
345,6	19,086
346,1	21,714
346,5	17,8
347	17,8
347,5	14,743
347,9	10,457
348,4	11,057
348,8	12,171
349,3	9,486
349,8	14,4
350,2	17,2
350,7	19,914
351,1	20,143
351,6	28,057
352	33,229
352,5	41,371
353	49,829
353,4	54,971
353,9	64,486
354,3	79,057
354,8	85
355,3	104,857
355,7	124,6
356,2	147,714
356,6	173,343
357,1	206,657
357,5	239,743
358	281,543
358,5	319,371
358,9	366,943
359,4	424,486
359,8	489,657
360,3	561,8
360,8	639,229
361,2	729
361,7	833,314
362,1	947,029
362,6	1060,4
363	1182,8
363,5	1313,943
364	1456
364,4	1603,143
364,9	1750,8
365,3	1892,286
365,8	2030,543
366,3	2164,8
366,7	2278,943
367,2	2384,514
367,6	2465,343
368,1	2531
368,5	2575,657
369	2600,743
369,5	2609,314
369,9	2597,829
370,4	2562,229
370,8	2509,314
371,3	2436,429
371,7	2350,086
372,2	2252,257
372,7	2141,971
373,1	2032
373,6	1910,714
374	1794,457
374,5	1672
374,9	1557,4
375,4	1446,429
375,9	1334,771
376,3	1226,829
376,8	1128,857
377,2	1036,457
377,7	955,743
378,2	876,057
378,6	807,171
379,1	742,114
379,5	682,829
380	631,514
380,4	583,343
380,9	531,886
381,4	491,457
381,8	451
382,3	420,314
382,7	391,943
383,2	365,743
383,6	336,143
384,1	314,829
384,6	290,743
385	272,086
385,5	253,514
385,9	233,914
386,4	217,314
386,8	204,486
387,3	194,286
387,7	182,714
388,2	170,514
388,7	158,171
389,1	148,429
389,6	137,886
390	127,6
390,5	120,486
390,9	116,771
391,4	108,057
391,9	102,514
392,3	101,4
392,8	91,943
393,2	85,143
393,7	76,971
394,1	71,171
394,6	72,171
395,1	68,686
395,5	61,829
396	61,714
396,4	61,657
396,9	59,943
397,3	64,6
397,8	62,771
398,2	61,4
398,7	61,829
399,2	61,514
399,6	60,771
400,1	59,286
400,5	49,543
401	46,8
401,4	40,286
401,9	42,771
402,4	41,057
402,8	39,429
403,3	38,657
403,7	36
404,2	36,8
404,6	44,114
405,1	41,486
405,5	40,429
406	43,343
406,5	43,429
406,9	46,943
407,4	42,371
407,8	41,743
408,3	41,943
408,7	42,886
409,2	42,686
409,6	46,8
410,1	48,171
410,6	53,857
411	53
411,5	53,171
411,9	55,343
412,4	55,029
412,8	56,486
413,3	56
413,7	54,514
414,2	55,114
414,7	59,343
415,1	64,571
415,6	70,914
416	67,457
416,5	71,257
416,9	74,029
417,4	79,114
417,8	82,971
418,3	84,314
418,8	88,686
419,2	92,343
419,7	95,143
420,1	97,657
420,6	93,314
421	88,714
421,5	90,743
421,9	87,057
422,4	89,086
422,8	86,686
423,3	81,657
423,8	86,286
424,2	81,771
424,7	82,429
425,1	78,4
425,6	80,686
426	82,971
426,5	88,943
426,9	89,914
427,4	92,514
427,9	81,629
428,3	83,343
428,8	76,771
429,2	71,486
429,7	64,971
430,1	61
430,6	60,943
431	63,857
431,5	64,6
431,9	62,143
432,4	63,257
432,8	67,914
433,3	67,714
433,8	66,971
434,2	65,943
434,7	64,829
435,1	66,286
435,6	65,486
436	61,657
436,5	62,829
436,9	60,343
437,4	61,171
437,8	60,829
438,3	64,286
438,8	66,429
439,2	67,029
439,7	65,257
440,1	68,229
440,6	73,057
441	70,029
441,5	71,457
441,9	73,486
442,4	74,829
442,8	76,629
443,3	82,429
443,7	84,457
444,2	92,829
444,7	94,6
445,1	97,971
445,6	101,714
446	105,571
446,5	102,857
446,9	98,114
447,4	97,457
447,8	98,886
448,3	100,8
448,7	106,429
449,2	109,743
449,6	115,543
450,1	119,429
450,6	126,657
451	135,6
451,5	137,286
451,9	140,514
452,4	149,171
452,8	152,229
453,3	163,886
453,7	165,829
454,2	172,571
454,6	177,943
455,1	179,771
455,5	178,8
456	186,886
456,4	186,943
456,9	193,486
457,3	196,543
457,8	193,829
458,3	202,114
458,7	208,857
459,2	214,143
459,6	221,657
460,1	228,971
460,5	230,343
461	247,143
461,4	249,8
461,9	253,143
462,3	255,629
462,8	263,514
463,2	266,2
463,7	276,486
464,1	282,686
464,6	295,286
465	309,743
465,5	323,943
466	331,257
466,4	342,314
466,9	356,229
467,3	361,771
467,8	371,371
468,2	380,943
468,7	389,4
469,1	404,543
469,6	414,943
470	415,057
470,5	430,171
470,9	436,771
471,4	440,829
471,8	446,571
472,3	457,314
472,7	463,171
473,2	471,286
473,6	476,543
474,1	489,514
474,5	495,629
475	510,257
475,4	511,543
475,9	519,4
476,4	533,6
476,8	545,343
477,3	546,371
477,7	561,657
478,2	568,743
478,6	576,314
479,1	584,543
479,5	591,657
480	597,943
480,4	616,686
480,9	623,486
481,3	622,629
481,8	633,914
482,2	638,143
482,7	641,057
483,1	647
483,6	649,114
484	651,486
484,5	664,857
484,9	666,486
485,4	680,171
485,8	688,4
486,3	694,057
486,7	697,057
487,2	704,657
487,6	709,6
488,1	711,8
488,5	711,514
489	719,143
489,4	727,914
489,9	730,971
490,4	736,143
490,8	739,943
491,3	749,629
491,7	753,2
492,2	758,457
492,6	760,914
493,1	763,257
493,5	761,657
494	763,543
494,4	766,114
494,9	772,486
495,3	772,771
495,8	774,714
496,2	780,086
496,7	778,571
497,1	786,286
497,6	790,429
498	792,143
498,5	794,257
498,9	794,743
499,4	798,143
499,8	813,771
500,3	808,886
500,7	804,971
501,2	802,486
501,6	798,914
502,1	800,943
502,5	801,657
503	799,086
503,4	799,229
503,9	800,829
504,3	803,029
504,8	808,543
505,2	805,686
505,7	803,429
506,1	805,829
506,6	805,543
507	804,714
507,5	806,314
507,9	802,2
508,4	802,429
508,8	801,514
509,3	796,771
509,7	799,657
510,2	803,657
510,6	799,914
511,1	802,543
511,5	803,314
512	797,343
512,4	801,571
512,9	800,6
513,3	803,629
513,8	803,657
514,2	803,6
514,7	803,886
515,1	813,343
515,6	807,743
516	807,257
516,5	807,543
516,9	810,514
517,4	816,114
517,8	817,029
518,3	813,714
518,7	818,943
519,2	823,2
519,6	822,314
520,1	827,257
520,5	825,314
521	826,257
521,4	827,229
521,9	827,086
522,3	821,343
522,8	818,229
523,2	813,286
523,7	809,171
524,1	812,171
524,6	814,143
525	811,543
525,5	813,971
525,9	820,857
526,4	823,457
526,8	826,543
527,3	824,971
527,7	830,457
528,2	834,771
528,6	835,457
529,1	833
529,5	838,143
530	839,829
530,4	841,714
530,9	846,286
531,3	847,686
531,8	856,514
532,2	861,229
532,6	858,971
533,1	862,971
533,5	867,143
534	861,4
534,4	865,657
534,9	864,343
535,3	862,8
535,8	864,6
536,2	864,629
536,7	865,457
537,1	868,057
537,6	867,857
538	870,029
538,5	874,143
538,9	874,171
539,4	881,257
539,8	883,057
540,3	885,486
540,7	883,914
541,2	883,057
541,6	884,971
542,1	895,057
542,5	895,857
543	894,943
543,4	895,8
543,9	897,943
544,3	904,429
544,8	906,486
545,2	907,714
545,7	908,8
546,1	920,457
546,5	929,486
547	934,2
547,4	937,943
547,9	937,514
548,3	939,686
548,8	942,029
549,2	935,971
549,7	938,486
550,1	946,971
550,6	944,571
551	951,514
551,5	950
551,9	951,029
552,4	955,6
552,8	952,6
553,3	948,771
553,7	952,086
554,2	953,286
554,6	956,029
555,1	960,943
555,5	961,2
555,9	965,686
556,4	966,314
556,8	967,714
557,3	968,771
557,7	974
558,2	967,943
558,6	975,429
559,1	973,6
559,5	975,057
560	978,886
560,4	982,743
560,9	982,371
561,3	991,171
561,8	985,714
562,2	993,057
562,7	998,514
563,1	1002,343
563,6	995,286
564	996,429
564,4	996,486
564,9	1001,114
565,3	995,686
565,8	1000
566,2	1000,286
566,7	1011,429
567,1	1017,714
567,6	1017,6
568	1017,8
568,5	1023,6
568,9	1020,6
569,4	1023,486
569,8	1020,629
570,3	1019,229
570,7	1016,514
571,1	1019,486
571,6	1018,229
572	1019,686
572,5	1019,457
572,9	1015,4
573,4	1014,429
573,8	1021
574,3	1014,629
574,7	1012,229
575,2	1015,8
575,6	1010,286
576,1	1015,686
576,5	1018,029
576,9	1013,629
577,4	1016,943
577,8	1016,943
578,3	1012,114
578,7	1014,4
579,2	1016,857
579,6	1009,629
580,1	1009,629
580,5	1010,286
581	1015,514
581,4	1014,6
581,9	1010,771
582,3	1007,8
582,7	1011,514
583,2	1006,771
583,6	1007,257
584,1	1003,343
584,5	1002,657
585	1004,171
585,4	996,286
585,9	994,771
586,3	1000,371
586,8	996,286
587,2	994,914
587,6	999,143
588,1	1000,029
588,5	1004,571
589	1007,657
589,4	1004,971
589,9	1009,6
590,3	1007,771
590,8	1001,857
591,2	999,629
591,7	1001,057
592,1	998,2
592,5	996,371
593	990,314
593,4	988,343
593,9	983,714
594,3	977,571
594,8	968,371
595,2	966,057
595,7	966,714
596,1	960,829
596,6	962,057
597	963,743
597,4	973,2
597,9	975,657
598,3	972,229
598,8	968,143
599,2	973,286
599,7	969,6
600,1	962,286
600,6	954,629
601	956,857
601,4	963,829
601,9	961,514
602,3	957,8
602,8	954,743
603,2	958,8
603,7	954,771
604,1	946,086
604,6	934,914
605	930,4
605,4	930,171
605,9	925,771
606,3	917,457
606,8	911,057
607,2	907,714
607,7	900,171
608,1	902,2
608,6	901,886
609	905,914
609,4	906,171
609,9	904
610,3	906,286
610,8	909,257
611,2	904,943
611,7	898,229
612,1	896,629
612,6	897
613	901,429
613,4	898,314
613,9	894,143
614,3	892,343
614,8	892,457
615,2	883,857
615,7	883,6
616,1	875,229
616,6	872,229
617	867,171
617,4	863
617,9	860,029
618,3	856,371
618,8	851,829
619,2	850,114
619,7	847
620,1	848,857
620,5	847,743
621	839,629
621,4	841,4
621,9	838,971
622,3	836,171
622,8	831,857
623,2	825,114
623,6	820,457
624,1	820,514
624,5	811,8
625	806,714
625,4	806,143
625,9	803,057
626,3	799,4
626,8	794,257
627,2	790,514
627,6	781,886
628,1	778,543
628,5	779,143
629	771,143
629,4	766,771
629,9	765,457
630,3	757,4
630,7	755,657
631,2	750,771
631,6	743,171
632,1	741,371
632,5	743,343
633	740,629
633,4	737,114
633,8	734,229
634,3	731,371
634,7	725,257
635,2	719,486
635,6	714,314
636,1	711,114
636,5	708,571
636,9	707,714
637,4	702,229
637,8	696,029
638,3	695,571
638,7	690,829
639,2	684,771
639,6	686,743
640	682,4
640,5	679,971
640,9	677,857
641,4	676,371
641,8	672,571
642,2	670,457
642,7	672,343
643,1	677,943
643,6	672,771
644	672,486
644,5	671,8
644,9	670,971
645,3	671,657
645,8	660,086
646,2	651,257
646,7	651,6
647,1	649,143
647,6	641,429
648	633,886
648,4	624,4
648,9	625
649,3	623,314
649,8	618,771
650,2	617,543
650,6	617,943
651,1	617,571
651,5	619,971
652	617,657
652,4	609,657
652,9	609,057
653,3	605,543
653,7	600,6
654,2	597,486
654,6	589,171
655,1	587,514
655,5	591,686
655,9	583,286
656,4	575,343
656,8	572,257
657,3	572
657,7	576,429
658,2	569,371
658,6	561,714
659	559,2
659,5	556,743
659,9	556,543
660,4	554,6
660,8	544,286
661,2	541,143
661,7	540,714
662,1	541,371
662,6	537,914
663	533,4
663,4	525,143
663,9	526
664,3	521,143
664,8	513,286
665,2	508,543
665,6	505,057
666,1	498,143
666,5	496,029
667	490,029
667,4	485,543
667,9	483,343
668,3	480,057
668,7	479,514
669,2	482,743
669,6	481,4
670,1	481,371
670,5	478
670,9	475,943
671,4	473,771
671,8	470,429
672,3	466,314
672,7	463,286
673,1	454,429
673,6	453
674	454,429
674,5	447,543
674,9	440,914
675,3	434,857
675,8	434,657
676,2	436,086
676,7	432,857
677,1	430,257
677,5	430,914
678	434,457
678,4	436,229
678,9	432,6
679,3	430,943
679,7	430,114
680,2	421,057
680,6	417,114
681,1	414,886
681,5	411,657
681,9	407,4
682,4	406,857
682,8	408,857
683,3	409,257
683,7	412,6
684,1	410,2
684,6	403,943
685	401,229
685,5	393,286
685,9	381,8
686,3	377,943
686,8	371,886
687,2	370,714
687,7	367,4
688,1	362,514
688,5	363,743
689	365,571
689,4	366,257
689,9	366,8
690,3	359,2
690,7	360,686
691,2	364,2
691,6	362,086
692	359,343
692,5	358,686
692,9	356,829
693,4	354,2
693,8	354,029
694,2	346,514
694,7	344,543
695,1	345,086
695,6	344,571
696	345,743
696,4	348,029
696,9	340,257
697,3	339,371
697,8	336,429
698,2	332,257
698,6	327,486
699,1	320,657
699,5	319,343
699,9	320,057
700,4	315,714
700,8	317,543
701,3	319,971
701,7	317,914
702,1	315,143
702,6	306,571
703	306,829
703,5	306,4
703,9	297,829
704,3	294,229
704,8	290,8
705,2	291
705,6	291,657
706,1	288,143
706,5	285,6
707	287,886
707,4	286,143
707,8	283,029
708,3	281,286
708,7	283,857
709,2	281,457
709,6	281,371
710	283,314
710,5	276,571
710,9	275,114
711,3	269,029
711,8	267,4
712,2	269,171
712,7	267,286
713,1	262,914
713,5	265,343
714	268,829
714,4	271,743
714,8	271,8
715,3	264,943
715,7	267,229
716,2	261,514
716,6	261,086
717	253,886
717,5	250,829
717,9	249,286
718,3	249,086
718,8	245
719,2	248,229
719,7	243,971
720,1	248,4
720,5	253,686
721	247,629
721,4	249,086
721,8	246,286
722,3	239,229
722,7	242,686
723,2	236,486
723,6	222,514
724	219,886
724,5	216,971
724,9	216,857
725,3	214,229
725,8	210,086
726,2	207
726,7	212,286
727,1	213,514
727,5	211,771
728	209,143
728,4	213,086
728,8	211,2
729,3	213,457
729,7	207,8
730,1	206,343
730,6	206,629
731	206
731,5	202,029
731,9	198,029
732,3	199,257
732,8	203,686
733,2	199,457
733,6	195,2
734,1	196,057
734,5	195,2
734,9	198,714
735,4	196,514
735,8	187,914
736,3	191,371
736,7	191,343
737,1	188,914
737,6	191,171
738	187,171
738,4	184,286
738,9	189,057
739,3	189,657
739,7	190,629
740,2	185,429
740,6	188,171
741,1	188,2
741,5	180,657
741,9	179,2
742,4	180,4
742,8	177,829
743,2	181
743,7	170,743
744,1	168,771
744,5	172,229
745	169,371
745,4	159,143
745,8	161,429
746,3	159,429
746,7	163,571
747,2	163
747,6	167,943
748	170,829
748,5	178,714
748,9	173,286
749,3	169,8
749,8	169,743
750,2	170,229
750,6	164,257
751,1	163,543
751,5	157,771
751,9	160,686
752,4	165,029
752,8	163,2
753,3	161,943
753,7	167,257
754,1	163,571
754,6	161,286
755	156,543
755,4	153,8
755,9	153,857
756,3	152,343
756,7	148,686
757,2	146,6
757,6	146,057
758	146,829
758,5	143,114
758,9	140,886
759,3	141,886
759,8	139,543
760,2	140,486
760,6	138,714
761,1	135,714
761,5	141
761,9	140,314
762,4	136,543
762,8	134,257
763,3	131,8
763,7	129,486
764,1	132,486
764,6	132,257
765	132,171
765,4	129,257
765,9	132,457
766,3	134,429
766,7	135,686
767,2	129,171
767,6	129,514
768	127,857
768,5	130,457
768,9	127,143
769,3	122,971
769,8	121,686
770,2	128,171
770,6	120,343
771,1	121
771,5	122,857
771,9	124,057
772,4	124,971
772,8	127,257
773,2	125,857
773,7	126,229
774,1	124,743
774,5	119,629
775	117
775,4	119,286
775,8	115,829
776,3	114,857
776,7	113,886
777,1	111,629
777,6	114,4
778	116,486
778,4	115,771
778,9	118,343
779,3	113,657
779,7	113,343
780,2	114,657
780,6	111,971
781	107,6
781,5	102,971
781,9	104,829
782,3	104,371
782,8	105,943
783,2	103,486
783,6	105,629
784,1	103,143
784,5	97,514
784,9	95,514
785,4	102,686
785,8	102,486
786,2	102,457
786,7	97,857
787,1	99,943
787,5	104,371
788	104,457
788,4	101
788,8	99,057
789,3	100,029
789,7	102,857
790,1	104,2
790,6	106,343
791	100,857
791,4	101,943
791,9	98,429
792,3	92,914
792,7	95,114
793,2	91,371
793,6	92,4
794	95,886
794,5	89,514
794,9	92,514
795,3	98,486
795,8	97,657
796,2	96,514
796,6	96,086
797,1	92,057
797,5	89,343
797,9	89,8
798,4	84,686
798,8	80,943
799,2	80,8
799,7	78,171
800,1	75,429
800,5	76,4
801	75,714
801,4	73,629
801,8	69,029
802,2	70,6
802,7	70,971
803,1	73,857
803,5	76,886
804	71,857
804,4	73,771
804,8	78,2
805,3	80,514
805,7	80,257
806,1	80,457
806,6	80,114
807	81,571
807,4	82,286
807,9	78,571
808,3	75,257
808,7	72,229
809,2	71,343
809,6	73,371
810	75,257
810,4	75,457
810,9	75,029
811,3	77,886
811,7	80,6
812,2	83,343
812,6	77,943
813	79,114
813,5	79,486
813,9	80,829
814,3	75,514
814,8	72,686
815,2	68,429
815,6	71,829
816,1	72,429
816,5	68,914
816,9	68,886
817,3	70,457
817,8	74,371
818,2	77,714
818,6	72,943
819,1	73,514
819,5	74,657
819,9	73,171
820,4	71,4
820,8	66,6
821,2	61,771
821,7	62,629
822,1	61,857
822,5	67,629
822,9	65,8
823,4	66,914
823,8	75,571
824,2	79,086
824,7	75,543
825,1	71,057
825,5	61,429
826	59,057
826,4	56,2
826,8	47,086
827,3	48,029
827,7	47
828,1	50,229
828,5	50,114
829	48,4
829,4	50,571
829,8	50,8
830,3	46,457
830,7	48,429
831,1	43,257
831,6	41,943
832	47,543
832,4	46,571
832,8	46
833,3	44,8
833,7	41,829
834,1	42,943
834,6	42,371
835	47,086
835,4	47,714
835,8	44,257
836,3	45,829
836,7	53,057
837,1	51,514
837,6	58,629
838	50,457
838,4	52,143
838,9	52,2
839,3	47,343
839,7	46,714
840,1	42,686
840,6	38
841	39,657
841,4	38,829
841,9	42,686
842,3	44,143
842,7	41,086
843,1	44,543
843,6	49,171
844	48,286
844,4	49,229
844,9	52
845,3	53,457
845,7	49,457
846,2	45,114
846,6	42,286
847	44,771
847,4	43,857
847,9	40,229
848,3	41,343
848,7	41,486
849,2	46,314
849,6	41,486
850	41,629
850,4	39,286
850,9	41,571
851,3	41,343
851,7	47,086
852,2	43,829
852,6	49,057
853	47,743
853,4	47
853,9	40,8
854,3	38,686
854,7	34,714
855,2	32,457
855,6	29,171
856	23,8
856,4	17,286
856,9	18,8
857,3	16,714
857,7	19,943
858,2	28,114
858,6	26,943
859	28,857
859,4	32,457
859,9	29,771
860,3	28,8
860,7	27,057
861,1	27,114
861,6	27,571
862	29,743
862,4	31,714
862,9	34,714
863,3	37,743
863,7	39,6
864,1	37,714
864,6	34,057
865	32,2
865,4	32,486
865,9	33,543
866,3	31,714
866,7	28,914
867,1	26,714
867,6	30,257
868	32,743
868,4	30,714
868,8	29,057
869,3	26,514
869,7	28,686
870,1	24,943
870,6	24,686
871	30,686
871,4	37,8
871,8	35,486
872,3	41,114
872,7	37,829
873,1	45
873,5	45,686
874	38,086
874,4	32,857
874,8	35,571
875,3	37,486
875,7	38,571
876,1	39,057
876,5	38,229
877	37,857
877,4	35,543
877,8	36,029
878,2	33,829
878,7	32,771
879,1	30
879,5	33,229
879,9	32,229
880,4	33,8
880,8	31,114
881,2	28,629
881,7	27,4
882,1	24,2
882,5	21,257
882,9	22,314
883,4	23,743
883,8	26,171
884,2	24,6
884,6	24,057
885,1	26,229
885,5	29,8
885,9	28,257
886,3	24,857
886,8	24,971
887,2	26,971
887,6	26,829
888	26,686
888,5	22,771
888,9	20,343
889,3	19,629
889,8	17,4
890,2	17,171
890,6	16,371
891	15,886
891,5	9,486
891,9	13,343
892,3	14,457
892,7	18,029
893,2	21,686
893,6	24,429
894	24,943
894,4	27,857
894,9	25,371
895,3	26,057
895,7	25,829
896,1	20,743
896,6	20,771
897	21,8
897,4	28,943
897,8	33,114
898,3	33,429
898,7	26,571
899,1	29,371
899,5	30,514
900	25,829
900,4	23,029
900,8	20,286
901,2	17,114
901,7	19,143
902,1	19,314
902,5	17,914
902,9	19,4
903,4	19,143
903,8	19,914
904,2	18,771
904,6	21,714
905,1	21,314
905,5	20
905,9	19,114
906,3	18,429
906,8	17,829
907,2	20,229
907,6	23,229
908	25,314
908,5	24
908,9	26,543
909,3	27,057
909,7	26,829
910,2	29,657
910,6	30
911	24,686
911,4	25,171
911,9	20,057
912,3	20,257
912,7	24,229
913,1	21,857
913,6	16,257
914	19,457
914,4	17,286
914,8	22,143
915,3	18,943
915,7	15,543
916,1	16,029
916,5	14,314
916,9	13,771
917,4	16,486
917,8	16,286
918,2	16,743
918,6	13,914
919,1	14,771
919,5	19,686
919,9	20,743
920,3	17,086
920,8	18,457
921,2	15,057
921,6	20,314
922	19,743
922,5	15,2
922,9	10,029
923,3	14,114
923,7	10
924,2	10,629
924,6	8,029
925	7,086
925,4	7,857
925,8	14,629
926,3	14,4
926,7	14,343
927,1	20,371
927,5	23,571
928	21,6
928,4	20,943
928,8	20,514
929,2	16,8
929,7	20,114
930,1	17,314
930,5	15,486
930,9	18,4
931,3	19,6
931,8	15,229
932,2	22,286
932,6	18,2
933	13,371
933,5	14,114
933,9	17,657
934,3	17,257
934,7	17,2
935,2	15,829
935,6	18,829
936	24,543
936,4	22,771
936,8	18,686
937,3	15,143
937,7	18,371
938,1	17,486
938,5	14
939	11,971
939,4	10,829
939,8	10,943
940,2	18,114
940,6	18,057
941,1	15,771
941,5	22,314
941,9	21,686
942,3	23,343
942,8	25,886
943,2	26,571
943,6	26,314
944	26,314
944,4	22,543
944,9	20,857
945,3	17,971
945,7	15,829
946,1	12,829
946,6	9,914
947	10,857
947,4	15,886
947,8	18,371
948,2	16,371
948,7	14,571
949,1	10,486
949,5	12,886
949,9	10,229
950,3	5,6
950,8	7,771
951,2	8,6
951,6	9,343
952	16,029
952,5	9,657
952,9	9,6
953,3	7,4
953,7	3,029
954,1	7,543
954,6	3,571
955	3,886
955,4	9,086
955,8	15
956,2	14,943
956,7	17,286
957,1	13,457
957,5	19,629
957,9	18,029
958,3	15,543
958,8	14,486
959,2	20,914
959,6	27,086
960	27,971
960,5	28,543
960,9	30,343
961,3	28,943
961,7	27,486
962,1	25,057
962,6	20,314
963	19,429
963,4	14,943
963,8	14,543
964,2	18,229
964,7	18,914
965,1	16,829
965,5	14,8
965,9	14,714
966,3	20,114
966,8	19,657
967,2	17,629
967,6	15,457
968	14,371
968,4	13,057
968,9	12,743
969,3	14,543
969,7	10,171
970,1	11,886
970,5	11,314
971	14,229
971,4	19,314
971,8	21,629
972,2	18,886
972,6	18,714
973,1	15,743
973,5	19,029
973,9	17,486
974,3	15,171
974,7	15,6
975,2	14
975,6	7,914
976	10,6
976,4	4,971
976,8	2,086
977,3	0,057
977,7	0,543
978,1	1,371
978,5	9,257
978,9	7,857
979,4	11,714
979,8	9,857
980,2	12,086
980,6	3,057
981	5,457
981,5	3,286
981,9	7,257
982,3	6,057
982,7	13,086
983,1	10,543
983,6	21,486
984	18,714
984,4	18,657
984,8	15,543
985,2	14,029
985,6	9,943
986,1	10,057
986,5	7,171
986,9	2,514
987,3	7,514
987,7	10,029
988,2	9,343
988,6	12,657
989	15,114
989,4	13,743
989,8	16,143
990,3	11,686
990,7	7,514
991,1	9,886
991,5	9,257
991,9	14,314
992,3	17,543
992,8	15,829
993,2	13,657
993,6	14,829
994	17
994,4	17,629
994,9	13,657
995,3	7,629
995,7	9,371
996,1	12,886
996,5	13,886
996,9	10,257
997,4	5,914
997,8	0,057
998,2	1,886
998,6	-2,971
999	-5,543
999,5	-6,771
999,9	-7,029
1000,3	-7,257
1000,7	-2,571
1001,1	-1,6
1001,5	6,086
1002	10,629
1002,4	13,457
1002,8	16,486
1003,2	24,4
1003,6	25,829
1004	27,629
1004,5	23,486
1004,9	24
1005,3	19,771
1005,7	18,457
1006,1	14,029
1006,6	11,286
1007	12,086
1007,4	13,486
1007,8	14,086
1008,2	14,2
1008,6	17,086
1009,1	14,8
1009,5	17,114
1009,9	15,771
1010,3	19,229
1010,7	17,286
1011,1	19,6
1011,6	18,114
1012	23,2
1012,4	22,343
1012,8	21,657
1013,2	22,771
1013,6	25,457
1014,1	23,457
1014,5	23
1014,9	20,429
1015,3	19,486
1015,7	21,971
1016,1	19,286
1016,6	15,2
1017	15,057
1017,4	17,543
1017,8	14,371
1018,2	17,514
1018,6	13,8
1019,1	13,314
1019,5	14,343
1019,9	15,714
1020,3	13,914
1020,7	13,714
1021,1	8,8
1021,6	9,829
1022	10,286
1022,4	6,714
1022,8	8,857
1023,2	5,743
1023,6	7,943
1024,1	17,514
1024,5	17,571
1024,9	13,943
1025,3	16,114
1025,7	10,286
1026,1	16,429
1026,6	17,714
1027	9,771
1027,4	9,086
1027,8	10,371
1028,2	8,029
1028,6	17,971
1029	13,914
1029,5	16,314
1029,9	13,971
1030,3	16,086
1030,7	18,171
1031,1	24,286
1031,5	16,514
1032	14,657
1032,4	9,714
1032,8	14,971
1033,2	15,8
1033,6	13,2
1034	11,057
1034,4	9,229
1034,9	12,571
1035,3	15,543
1035,7	17,2
1036,1	11,571
1036,5	13,657
1036,9	12,914
1037,4	19,886
1037,8	15,829
1038,2	15,2
1038,6	13,314
1039	18,8
1039,4	25,771
1039,8	22,371
1040,3	23,6
1040,7	25,486
1041,1	28,886
1041,5	27,371
1041,9	25,971
1042,3	18,057
1042,7	22,514
1043,2	20,486
1043,6	17,086
1044	9,743
1044,4	12,457
1044,8	12,171
1045,2	10,914
1045,6	13,371
1046,1	11,771
1046,5	12,743
1046,9	15,829
1047,3	15,714
1047,7	13,143
1048,1	11,086
1048,5	4,543
1049	5,2
1049,4	11,914
1049,8	13,229
1050,2	12,371
1050,6	20,514
1051	26,486
1051,4	29,886
1051,9	29,629
1052,3	35
1052,7	30,314
1053,1	23,686
1053,5	21,429
1053,9	19,086
1054,3	14,943
1054,8	16,057
1055,2	8,2
1055,6	10,543
1056	15,229
1056,4	13,343
1056,8	14,6
1057,2	19,943
1057,6	17,029
1058,1	15,971
1058,5	14,2
1058,9	16,4
1059,3	14,6
1059,7	12,486
1060,1	11,314
1060,5	15,686
1061	18,657
1061,4	20,486
1061,8	21,486
1062,2	24,486
1062,6	30,457
1063	32,171
1063,4	30,886
1063,8	26,486
1064,3	23,343
1064,7	19,114
1065,1	15,286
1065,5	8,857
1065,9	6,114
1066,3	1,257
1066,7	0,971
1067,1	3,114
1067,6	6,486
1068	4,857
1068,4	8,057
1068,8	8,543
1069,2	13,457
1069,6	14,029
1070	17,657
1070,4	11,257
1070,9	13,686
1071,3	11,886
1071,7	11,229
1072,1	5,943
1072,5	7,286
1072,9	3,771
1073,3	9,486
1073,7	8,171
1074,2	10,229
1074,6	13
1075	15,429
1075,4	15,629
1075,8	18,743
1076,2	15,886
1076,6	16,857
1077	13,629
1077,5	13,314
1077,9	11,8
1078,3	7,771
1078,7	3,486
1079,1	4,086
1079,5	5,229
1079,9	6,943
1080,3	2,8
1080,7	4,657
1081,2	11,657
1081,6	11,771
1082	9,4
1082,4	10,943
1082,8	11,2
1083,2	13,343
1083,6	12,457
1084	9,943
1084,5	14,114
1084,9	16,686
1085,3	13,543
1085,7	15,571
1086,1	14,829
1086,5	16,486
1086,9	18,029
1087,3	17,229
1087,7	16,086
1088,2	14,971
1088,6	13,057
1089	13,686
1089,4	13,829
1089,8	14,314
1090,2	12,686
1090,6	14,914
1091	16,743
1091,4	15,457
1091,9	16,971
1092,3	16,543
1092,7	14,857
1093,1	19,2
1093,5	19,343
1093,9	16,943
1094,3	24,229
1094,7	20,029
1095,1	24,457
1095,5	24,143
1096	21,371
1096,4	21,314
1096,8	20,257
1097,2	11,714
1097,6	17,429
1098	10,057
1098,4	10,429
1098,8	8,514
1099,2	12,114
1099,6	12,571
1100,1	13,343
1100,5	7,971
1100,9	12
1101,3	8,571
1101,7	9,857
1102,1	5,314
1102,5	10,086
1102,9	12,229
1103,3	13,771
1103,7	13,114
1104,2	14,943
1104,6	15,457
1105	13,314
1105,4	12,114
1105,8	8,543
1106,2	7,543
1106,6	5,029
1107	3,943
1107,4	1,867
1107,8	2,52
1108,3	-0,95
