Data from Subt2_162.txt Node
Date: Sat Aug 26 18:34:18 MSK 2023
User: vat
Spectrometer: MAYP114033
Trigger mode: 0
Integration Time (sec): 1,000000E0
Scans to average: 5
Electric dark correction enabled: true
Nonlinearity correction enabled: false
Boxcar width: 3
XAxis mode: Wavelengths
Number of Pixels in Spectrum: 2068
>>>>>Begin Spectral Data<<<<<
199,4	-1,133
199,9	-1,733
200,4	-2,833
200,8	-4,019
201,3	-7,448
201,8	-8,219
202,2	-10,648
202,7	-7,305
203,2	-8,133
203,6	-7,362
204,1	-8,933
204,6	-6,619
205	-5,819
205,5	-2,676
206	-7,048
206,4	-6,019
206,9	-9,962
207,4	-4,819
207,8	-4,276
208,3	-4,648
208,8	-7,333
209,2	-8,619
209,7	-7,162
210,2	1,21
210,6	-2,219
211,1	-0,705
211,5	-2,876
212	-2,105
212,5	-1,79
212,9	-4,219
213,4	-8,219
213,9	-8,933
214,3	-8,933
214,8	-3,133
215,3	-0,876
215,7	2,981
216,2	3,695
216,7	4,781
217,1	5,724
217,6	5,124
218,1	-1,619
218,5	-7,248
219	-12,819
219,5	-10,876
219,9	-16,448
220,4	-9,048
220,9	-8,676
221,3	-1,133
221,8	3,838
222,3	6,638
222,7	5,267
223,2	7,067
223,6	3,267
224,1	3,181
224,6	1,781
225	-1,962
225,5	-2,905
226	-2,733
226,4	0,067
226,9	-2,19
227,4	-0,476
227,8	-8,419
228,3	-9,762
228,8	-8,79
229,2	-8,362
229,7	-10,39
230,2	-11,019
230,6	-7,848
231,1	1,238
231,5	7,267
232	11,981
232,5	12,838
232,9	17,524
233,4	18,895
233,9	11,667
234,3	9,724
234,8	10,038
235,3	5,81
235,7	6,038
236,2	5,21
236,7	5,438
237,1	8,124
237,6	4,695
238,1	4,21
238,5	0,267
239	1,352
239,4	1,638
239,9	-4,048
240,4	-4,733
240,8	2,981
241,3	-3,505
241,8	-1,819
242,2	-3,876
242,7	-9,905
243,2	-4,876
243,6	-7,905
244,1	-11,533
244,6	-4,39
245	-2,19
245,5	-1,676
245,9	-0,876
246,4	0,21
246,9	6,438
247,3	3,295
247,8	4,638
248,3	5,01
248,7	1,581
249,2	5,095
249,7	3,067
250,1	-1,905
250,6	-0,19
251	-1,933
251,5	-0,133
252	1,267
252,4	2,238
252,9	-4,076
253,4	-5,248
253,8	-5,419
254,3	-5,219
254,8	-4,133
255,2	-8,162
255,7	-12,19
256,1	-6,248
256,6	-3,105
257,1	-4,39
257,5	-9,133
258	-12,733
258,5	-11,219
258,9	-9,762
259,4	-10,705
259,9	-9,105
260,3	-9,762
260,8	-12,305
261,2	-15,762
261,7	-10,562
262,2	-10,505
262,6	-8,905
263,1	-8,905
263,6	-6,305
264	1,152
264,5	7,038
264,9	4,238
265,4	5,838
265,9	5,324
266,3	5,21
266,8	8,267
267,3	7,21
267,7	1,01
268,2	-2,933
268,7	-0,819
269,1	-0,79
269,6	-3,219
270	-4,219
270,5	-7,848
271	-5,562
271,4	0,095
271,9	-5,59
272,4	-0,505
272,8	-0,476
273,3	-5,59
273,7	-4,39
274,2	-4,448
274,7	-5,476
275,1	-2,248
275,6	-8,505
276,1	-10,419
276,5	-5,848
277	-5,676
277,4	-1,39
277,9	1,781
278,4	-0,419
278,8	2,381
279,3	4,952
279,8	2,381
280,2	3,867
280,7	4,295
281,1	-0,248
281,6	2,238
282,1	0,152
282,5	-0,59
283	0,267
283,4	-1,933
283,9	-6,59
284,4	-1,362
284,8	-0,362
285,3	3,152
285,8	4,638
286,2	3,524
286,7	7,724
287,1	7,638
287,6	5,152
288,1	-1,419
288,5	-3,133
289	-7,819
289,5	-6,276
289,9	-9,276
290,4	-6,848
290,8	-10,362
291,3	-5,762
291,8	-3,39
292,2	-3,276
292,7	-0,362
293,1	-1,933
293,6	-2,076
294,1	0,952
294,5	0,524
295	-0,733
295,5	-0,305
295,9	-2,133
296,4	-2,619
296,8	-4,019
297,3	-5,162
297,8	-9,248
298,2	-12,39
298,7	-8,333
299,1	-10,162
299,6	-12,048
300,1	-7,448
300,5	-5,733
301	3,724
301,5	6,867
301,9	10,124
302,4	7,724
302,8	9,381
303,3	5,01
303,8	-1,905
304,2	-12,248
304,7	-12,733
305,1	-21,562
305,6	-16,648
306,1	-10,248
306,5	-6,59
307	-0,219
307,4	7,781
307,9	3,867
308,4	7,867
308,8	-0,276
309,3	-6,248
309,8	-6,905
310,2	-4,076
310,7	-8,762
311,1	-5,562
311,6	-6,648
312,1	0,695
312,5	5,695
313	3,81
313,4	-0,219
313,9	0,667
314,4	1,781
314,8	-0,905
315,3	-4,019
315,7	-9,105
316,2	-9,505
316,7	-9,105
317,1	-4,276
317,6	-6,876
318	-2,819
318,5	-0,619
319	0,181
319,4	-1,305
319,9	4,61
320,3	1,295
320,8	-0,819
321,3	1,895
321,7	1,152
322,2	1,152
322,6	4,61
323,1	0,867
323,6	0,067
324	0,952
324,5	-3,305
324,9	-0,162
325,4	2,838
325,9	3,638
326,3	2,581
326,8	5,695
327,2	6,21
327,7	8,181
328,2	2,152
328,6	4,238
329,1	-1,79
329,5	-0,905
330	-6,248
330,5	-2,962
330,9	0,495
331,4	4,038
331,8	-0,876
332,3	2,01
332,8	1,124
333,2	2,752
333,7	3,381
334,1	-2,076
334,6	-4,99
335,1	-10,619
335,5	-8,619
336	-11,79
336,4	-9,619
336,9	-6,619
337,4	-0,019
337,8	0,895
338,3	7,467
338,7	8,352
339,2	8,838
339,7	11,81
340,1	4,01
340,6	0,752
341	0,181
341,5	1,524
342	-2,619
342,4	0,095
342,9	-7,876
343,3	-5,933
343,8	-8,705
344,2	-7,648
344,7	-4,819
345,2	-3,505
345,6	-4,933
346,1	-0,219
346,5	-1,505
347	-1,248
347,5	-2,362
347,9	-3,133
348,4	-7,105
348,8	-6,876
349,3	-4,419
349,8	-0,905
350,2	5,752
350,7	3,952
351,1	5,467
351,6	11,895
352	14,924
352,5	16,752
353	21,752
353,4	22,152
353,9	30,067
354,3	34,581
354,8	42,61
355,3	53,838
355,7	67,695
356,2	82,295
356,6	98,267
357,1	119,695
357,5	136,21
358	159,295
358,5	183,924
358,9	210,695
359,4	242,267
359,8	276,181
360,3	318,924
360,8	363,667
361,2	415,952
361,7	472,267
362,1	538,81
362,6	603,638
363	672,581
363,5	745,095
364	835,552
364,4	918,695
364,9	1004,095
365,3	1080,552
365,8	1154,095
366,3	1231,152
366,7	1297,295
367,2	1349,638
367,6	1393,495
368,1	1430,981
368,5	1453,952
369	1470,352
369,5	1475,381
369,9	1461,895
370,4	1436,667
370,8	1404,695
371,3	1351,61
371,7	1304,467
372,2	1247,21
372,7	1185,61
373,1	1123,981
373,6	1058,638
374	994,267
374,5	934,438
374,9	867,324
375,4	806,61
375,9	741,124
376,3	685,638
376,8	632,152
377,2	583,695
377,7	534,981
378,2	490,495
378,6	447,067
379,1	408,61
379,5	375,095
380	347,895
380,4	316,724
380,9	289,752
381,4	267,41
381,8	249,552
382,3	236,524
382,7	218,181
383,2	199,095
383,6	182,067
384,1	170,524
384,6	156,867
385	145,638
385,5	133,581
385,9	121,067
386,4	110,838
386,8	101,581
387,3	94,895
387,7	88,981
388,2	82,01
388,7	77,524
389,1	76,81
389,6	75,295
390	74,295
390,5	69,21
390,9	69,41
391,4	62,095
391,9	55,952
392,3	49,552
392,8	41,324
393,2	34,238
393,7	32,181
394,1	24,038
394,6	26,238
395,1	29,21
395,5	27,552
396	32,952
396,4	35,41
396,9	35,41
397,3	41,781
397,8	41,781
398,2	36,552
398,7	37,324
399,2	34,638
399,6	36,295
400,1	35,267
400,5	28,895
401	26,095
401,4	22,667
401,9	24,781
402,4	22,438
402,8	15,552
403,3	17,61
403,7	13,61
404,2	20,667
404,6	24,695
405,1	18,467
405,5	18,524
406	21,781
406,5	22,21
406,9	29,381
407,4	21,724
407,8	21,724
408,3	28,438
408,7	25,21
409,2	30,867
409,6	32,924
410,1	32,638
410,6	37,724
411	40,581
411,5	41,638
411,9	51,124
412,4	51,981
412,8	54,524
413,3	57,952
413,7	62,438
414,2	65,438
414,7	72,21
415,1	78,238
415,6	83,095
416	82,867
416,5	86,467
416,9	87,924
417,4	92,21
417,8	96,781
418,3	96,724
418,8	97,867
419,2	104,01
419,7	108,552
420,1	111,838
420,6	115,152
421	110,552
421,5	116,924
421,9	122,038
422,4	126,581
422,8	127,61
423,3	129,381
423,8	131,695
424,2	136,438
424,7	137,21
425,1	135,067
425,6	135,952
426	137,095
426,5	142,067
426,9	146,381
427,4	145,838
427,9	140,638
428,3	149,867
428,8	152,495
429,2	155,81
429,7	160,867
430,1	161,238
430,6	170,181
431	180,152
431,5	184,61
431,9	186,295
432,4	193,724
432,8	199,181
433,3	211,038
433,8	214,895
434,2	227,895
434,7	237,095
435,1	255,467
435,6	267,438
436	278,752
436,5	288,124
436,9	299,838
437,4	308,495
437,8	320,638
438,3	329,352
438,8	342,952
439,2	354,781
439,7	372,581
440,1	397,267
440,6	419,524
441	436,038
441,5	462,61
441,9	483,952
442,4	503,21
442,8	522,895
443,3	540,581
443,7	560,095
444,2	586,781
444,7	601,01
445,1	624,695
445,6	649,467
446	676,638
446,5	696,695
446,9	717,41
447,4	738,981
447,8	767,495
448,3	797,552
448,7	828,981
449,2	860,924
449,6	901,867
450,1	931,895
450,6	968,467
451	1000,124
451,5	1029,895
451,9	1069,952
452,4	1103,667
452,8	1132,924
453,3	1178,81
453,7	1211,895
454,2	1255,552
454,6	1295,81
455,1	1326,038
455,5	1359,352
456	1401,181
456,4	1435,752
456,9	1480,781
457,3	1519,552
457,8	1557,352
458,3	1605,495
458,7	1651,524
459,2	1695,381
459,6	1737,952
460,1	1785,552
460,5	1825,81
461	1871,638
461,4	1911,895
461,9	1960,124
462,3	2010,124
462,8	2062,01
463,2	2102,238
463,7	2151,952
464,1	2207,381
464,6	2261,467
465	2309,352
465,5	2354,152
466	2397,381
466,4	2446,181
466,9	2498,467
467,3	2538,638
467,8	2585,981
468,2	2628,781
468,7	2672,638
469,1	2722,695
469,6	2766,495
470	2807,124
470,5	2854,267
470,9	2892,81
471,4	2934,495
471,8	2975,352
472,3	3017,952
472,7	3062,095
473,2	3105,038
473,6	3147,581
474,1	3190,581
474,5	3236,067
475	3279,352
475,4	3320,952
475,9	3359,41
476,4	3396,695
476,8	3429,752
477,3	3469,667
477,7	3503,21
478,2	3540,467
478,6	3566,324
479,1	3593,724
479,5	3626,124
480	3657,724
480,4	3683,924
480,9	3705,01
481,3	3728,438
481,8	3756,324
482,2	3779,724
482,7	3795,467
483,1	3817,952
483,6	3835,838
484	3859,381
484,5	3870,21
484,9	3881,638
485,4	3901,467
485,8	3913,295
486,3	3920,924
486,7	3928,581
487,2	3938,124
487,6	3950,181
488,1	3954,952
488,5	3955,352
489	3965,095
489,4	3972,381
489,9	3971,552
490,4	3964,752
490,8	3964,952
491,3	3967,924
491,7	3967,752
492,2	3969,095
492,6	3962,781
493,1	3963,152
493,5	3960,838
494	3951,638
494,4	3943,267
494,9	3930,152
495,3	3916,124
495,8	3897,352
496,2	3886,981
496,7	3868,924
497,1	3855,238
497,6	3836,552
498	3821,581
498,5	3800,638
498,9	3787,924
499,4	3766,867
499,8	3753,495
500,3	3731,867
500,7	3706,81
501,2	3681,067
501,6	3660,21
502,1	3633,01
502,5	3608,267
503	3584,495
503,4	3561,295
503,9	3543,581
504,3	3526,924
504,8	3506,667
505,2	3490,21
505,7	3467,41
506,1	3446,667
506,6	3418,638
507	3394,924
507,5	3371,867
507,9	3339,038
508,4	3306,781
508,8	3280,581
509,3	3251,181
509,7	3228,295
510,2	3194,61
510,6	3162,895
511,1	3140,467
511,5	3117,638
512	3087,181
512,4	3055,952
512,9	3024,667
513,3	3005,838
513,8	2972,095
514,2	2936,41
514,7	2902,467
515,1	2872,124
515,6	2844,438
516	2807,095
516,5	2777,038
516,9	2752,152
517,4	2730,981
517,8	2708,981
518,3	2678,038
518,7	2650,152
519,2	2632,638
519,6	2600,61
520,1	2575,524
520,5	2544,324
521	2509,438
521,4	2486,41
521,9	2460,695
522,3	2430,295
522,8	2400,524
523,2	2371,981
523,7	2342,324
524,1	2320,41
524,6	2287,952
525	2255,752
525,5	2225,238
525,9	2201,981
526,4	2169,552
526,8	2146,695
527,3	2114,581
527,7	2094,552
528,2	2070,152
528,6	2049,924
529,1	2026,838
529,5	2010,724
530	1983,381
530,4	1961,267
530,9	1936,495
531,3	1912,495
531,8	1892,181
532,2	1870,467
532,6	1846,724
533,1	1823,381
533,5	1800,21
534	1779,352
534,4	1762,838
534,9	1741,867
535,3	1715,467
535,8	1692,438
536,2	1676,638
536,7	1660,067
537,1	1640,438
537,6	1620,524
538	1602,01
538,5	1587,152
538,9	1567,381
539,4	1552,752
539,8	1531,124
540,3	1514,181
540,7	1494,152
541,2	1469,41
541,6	1446,867
542,1	1434,267
542,5	1415,695
543	1401,838
543,4	1378,267
543,9	1365,181
544,3	1357,238
544,8	1346,095
545,2	1331,952
545,7	1319,61
546,1	1308,667
546,5	1306,21
547	1291,438
547,4	1275,324
547,9	1258,438
548,3	1243,952
548,8	1231,238
549,2	1212,438
549,7	1193,552
550,1	1184,895
550,6	1171,295
551	1162,752
551,5	1149,238
551,9	1133,038
552,4	1125,581
552,8	1114,038
553,3	1098,095
553,7	1087,267
554,2	1078,267
554,6	1066,295
555,1	1059,695
555,5	1048,124
555,9	1042,895
556,4	1034,067
556,8	1025,81
557,3	1014,267
557,7	1009,438
558,2	993,895
558,6	988,781
559,1	973,924
559,5	965,324
560	953,095
560,4	947,467
560,9	932,381
561,3	928,324
561,8	915,581
562,2	906,038
562,7	894,781
563,1	894,181
563,6	881,381
564	879,124
564,4	868,895
564,9	864,21
565,3	859,01
565,8	854,61
566,2	844,124
566,7	839,21
567,1	830,295
567,6	824,238
568	812,61
568,5	807,952
568,9	797,638
569,4	790,295
569,8	784,152
570,3	775,61
570,7	766,467
571,1	765,295
571,6	759,238
572	758,952
572,5	753,41
572,9	747,01
573,4	743,981
573,8	744,124
574,3	734,01
574,7	726,381
575,2	715,267
575,6	710,124
576,1	707,467
576,5	705,295
576,9	695,381
577,4	690,095
577,8	682,524
578,3	675,895
578,7	669,324
579,2	667,695
579,6	654,124
580,1	646,752
580,5	647,324
581	648,495
581,4	646,752
581,9	638,838
582,3	628,952
582,7	629,781
583,2	632,695
583,6	623,552
584,1	616,067
584,5	613,752
585	611,838
585,4	597,924
585,9	589,895
586,3	578,981
586,8	580,581
587,2	572,952
587,6	569,01
588,1	569,581
588,5	574,095
589	574,01
589,4	572,381
589,9	564,524
590,3	562,981
590,8	561,21
591,2	555,895
591,7	556,867
592,1	550,324
592,5	547,295
593	541,41
593,4	539,638
593,9	532,867
594,3	527,495
594,8	520,924
595,2	520,01
595,7	515,838
596,1	514,038
596,6	510,981
597	505,21
597,4	506,495
597,9	503,867
598,3	504,552
598,8	502,267
599,2	500,381
599,7	498,438
600,1	495,181
600,6	488,61
601	484,467
601,4	485,695
601,9	488,352
602,3	483,867
602,8	478,352
603,2	478,838
603,7	478,467
604,1	480,01
604,6	469,838
605	457,352
605,4	456,895
605,9	453,21
606,3	445,267
606,8	438,438
607,2	429,41
607,7	424,352
608,1	425,324
608,6	424,324
609	425,924
609,4	425,895
609,9	421,124
610,3	419,895
610,8	417,924
611,2	416,581
611,7	410,438
612,1	404,381
612,6	405,638
613	405,667
613,4	401,981
613,9	400,381
614,3	395,924
614,8	398,41
615,2	392,695
615,7	391,667
616,1	387,21
616,6	388,552
617	381,438
617,4	381,295
617,9	375,81
618,3	380,867
618,8	380,181
619,2	379,867
619,7	378,524
620,1	380,152
620,5	380,524
621	378,981
621,4	375,324
621,9	371,61
622,3	371,095
622,8	363,267
623,2	360,724
623,6	355,867
624,1	352,238
624,5	347,924
625	349,152
625,4	347,61
625,9	348,324
626,3	345,867
626,8	342,724
627,2	342,667
627,6	336,438
628,1	330,552
628,5	331,038
629	321,867
629,4	320,352
629,9	318,638
630,3	311,352
630,7	310,724
631,2	307,781
631,6	301,467
632,1	307,352
632,5	303,895
633	303,324
633,4	305,267
633,8	305,895
634,3	301,038
634,7	301,581
635,2	296,038
635,6	299,267
636,1	296,981
636,5	296,324
636,9	291,895
637,4	291,81
637,8	283,524
638,3	279,41
638,7	273,181
639,2	266,952
639,6	266,438
640	267,81
640,5	265,81
640,9	267,981
641,4	268,01
641,8	272,352
642,2	273,181
642,7	274,981
643,1	272,181
643,6	266,295
644	265,267
644,5	265,095
644,9	257,952
645,3	255,667
645,8	247,381
646,2	249,438
646,7	250,781
647,1	248,124
647,6	251,952
648	254,01
648,4	250,01
648,9	252,181
649,3	247,895
649,8	248,61
650,2	248,238
650,6	245,838
651,1	241,81
651,5	245,038
652	241,324
652,4	237,638
652,9	237,324
653,3	236,01
653,7	234,61
654,2	235,267
654,6	232,038
655,1	233,838
655,5	239,41
655,9	238,638
656,4	234,981
656,8	228,01
657,3	227,524
657,7	231,495
658,2	225,095
658,6	220,124
659	214,381
659,5	214,01
659,9	218,695
660,4	216,095
660,8	212,524
661,2	211,867
661,7	208,924
662,1	210,895
662,6	211,61
663	209,41
663,4	206,981
663,9	205,61
664,3	205,81
664,8	204,581
665,2	199,21
665,6	189,524
666,1	185,238
666,5	186,352
667	185,638
667,4	184,581
667,9	183,038
668,3	184,067
668,7	190,295
669,2	192,781
669,6	188,838
670,1	183,41
670,5	179,61
670,9	179,095
671,4	178,924
671,8	178,952
672,3	180,724
672,7	181,752
673,1	182,381
673,6	183,467
674	182,495
674,5	184,838
674,9	177,524
675,3	169,324
675,8	166,524
676,2	163,752
676,7	157,381
677,1	158,667
677,5	149,01
678	157,381
678,4	159,267
678,9	157,952
679,3	158,724
679,7	157,724
680,2	146,467
680,6	150,781
681,1	143,324
681,5	142,524
681,9	143,01
682,4	144,752
682,8	147,067
683,3	156,981
683,7	157,01
684,1	158,324
684,6	156,038
685	151,638
685,5	150,581
685,9	147,381
686,3	141,124
686,8	139,867
687,2	137,552
687,7	133,81
688,1	132,495
688,5	128,781
689	128,838
689,4	130,295
689,9	127,495
690,3	127,867
690,7	131,838
691,2	137,095
691,6	138,324
692	138,667
692,5	138,81
692,9	137,61
693,4	136,295
693,8	129,381
694,2	121,324
694,7	116,838
695,1	115,552
695,6	114,381
696	114,352
696,4	112,181
696,9	110,838
697,3	110,838
697,8	111,21
698,2	107,295
698,6	107,21
699,1	105,038
699,5	106,438
699,9	109,752
700,4	109,067
700,8	107,924
701,3	113,695
701,7	110,381
702,1	109,781
702,6	107,695
703	108,724
703,5	110,952
703,9	106,838
704,3	105,438
704,8	104,495
705,2	102,724
705,6	102,41
706,1	95,781
706,5	94,181
707	95,524
707,4	94,638
707,8	95,81
708,3	96,152
708,7	98,41
709,2	103,21
709,6	100,381
710	104,981
710,5	100,952
710,9	96,867
711,3	96,981
711,8	97,095
712,2	94,524
712,7	91,924
713,1	90,581
713,5	92,552
714	98,895
714,4	94,724
714,8	90,467
715,3	88,095
715,7	90,124
716,2	85,352
716,6	87,81
717	81,838
717,5	82,438
717,9	85,467
718,3	82,667
718,8	83,81
719,2	82,352
719,7	74,324
720,1	77,524
720,5	82,781
721	78,695
721,4	79,867
721,8	84,038
722,3	82,038
722,7	90,095
723,2	84,81
723,6	81,152
724	78,067
724,5	78,495
724,9	71,867
725,3	73,038
725,8	67,067
726,2	68,381
726,7	67,581
727,1	71,667
727,5	71,438
728	71,924
728,4	75,552
728,8	74,981
729,3	72,324
729,7	69,952
730,1	68,038
730,6	68,81
731	67,381
731,5	65,924
731,9	61,867
732,3	66,295
732,8	67,381
733,2	65,981
733,6	60,238
734,1	59,01
734,5	54,867
734,9	59,724
735,4	54,81
735,8	50,152
736,3	54,238
736,7	57,352
737,1	58,01
737,6	60,181
738	60,21
738,4	63,095
738,9	64,124
739,3	57,981
739,7	58,952
740,2	58,352
740,6	65,352
741,1	66,152
741,5	61,895
741,9	65,324
742,4	70,752
742,8	69,295
743,2	72,895
743,7	60,838
744,1	54,695
744,5	52,067
745	48,695
745,4	42,667
745,8	44,381
746,3	39,724
746,7	42,924
747,2	48,467
747,6	57,467
748	63,695
748,5	67,838
748,9	64,781
749,3	65,352
749,8	66,981
750,2	61,238
750,6	53,524
751,1	49,895
751,5	46,895
751,9	51,124
752,4	51,895
752,8	51,238
753,3	56,181
753,7	59,838
754,1	57,695
754,6	54,781
755	49,067
755,4	46,81
755,9	45,552
756,3	41,352
756,7	40,21
757,2	42,695
757,6	45,724
758	46,267
758,5	48,752
758,9	48,495
759,3	51,01
759,8	48,524
760,2	43,067
760,6	43,781
761,1	41,438
761,5	40,695
761,9	40,467
762,4	37,752
762,8	39,067
763,3	44,81
763,7	44,467
764,1	48,152
764,6	47,61
765	47,81
765,4	48,61
765,9	51,267
766,3	50,552
766,7	47,381
767,2	43,581
767,6	45,495
768	43,895
768,5	43,524
768,9	38,638
769,3	34,381
769,8	33,895
770,2	41,324
770,6	36,267
771,1	40,21
771,5	40,21
771,9	43,981
772,4	46,752
772,8	45,238
773,2	40,952
773,7	42,81
774,1	36,867
774,5	34,295
775	28,524
775,4	25,352
775,8	26,638
776,3	28,267
776,7	26,181
777,1	29,067
777,6	32,181
778	36,01
778,4	38,01
778,9	40,924
779,3	36,124
779,7	41,181
780,2	42,381
780,6	37,924
781	35,124
781,5	31,067
781,9	28,038
782,3	27,381
782,8	20,981
783,2	20,152
783,6	27,181
784,1	26,981
784,5	26,724
784,9	26,21
785,4	33,152
785,8	37,324
786,2	36,267
786,7	33,867
787,1	36,267
787,5	37,495
788	36,21
788,4	32,895
788,8	29,552
789,3	27,21
789,7	29,381
790,1	27,21
790,6	30,752
791	29,952
791,4	30,095
791,9	26,695
792,3	26,181
792,7	26,038
793,2	24,695
793,6	23,895
794	28,581
794,5	24,467
794,9	33,124
795,3	36,067
795,8	29,381
796,2	34,352
796,6	35,238
797,1	32,438
797,5	32,181
797,9	26,61
798,4	25,152
798,8	25,467
799,2	20,952
799,7	20,981
800,1	19,524
800,5	21,81
801	24,981
801,4	21,952
801,8	22,467
802,2	23,467
802,7	22,638
803,1	23,181
803,5	24,295
804	20,838
804,4	25,01
804,8	28,895
805,3	31,181
805,7	31,924
806,1	33,152
806,6	35,181
807	35,924
807,4	35,41
807,9	30,924
808,3	30,638
808,7	30,352
809,2	31,695
809,6	30,124
810	29,21
810,4	30,438
810,9	32,581
811,3	31,752
811,7	30,095
812,2	31,581
812,6	31,21
813	37,295
813,5	35,352
813,9	32,695
814,3	30,81
814,8	30,01
815,2	22,181
815,6	18,324
816,1	16,781
816,5	15,781
816,9	17,61
817,3	20,038
817,8	26,067
818,2	29,01
818,6	31,581
819,1	25,61
819,5	25,124
819,9	28,181
820,4	26,01
820,8	16,01
821,2	12,095
821,7	12,895
822,1	17,638
822,5	18,81
822,9	17,238
823,4	18,867
823,8	22,838
824,2	31,667
824,7	28,238
825,1	24,124
825,5	22,724
826	16,81
826,4	16,295
826,8	14,524
827,3	13,61
827,7	11,81
828,1	10,781
828,5	8,267
829	9,095
829,4	7,838
829,8	6,752
830,3	4,952
830,7	7,238
831,1	13,21
831,6	16,067
832	18,638
832,4	18,01
832,8	23,324
833,3	23,867
833,7	24,61
834,1	20,552
834,6	19,667
835	19,524
835,4	22,352
835,8	16,438
836,3	11,124
836,7	11,61
837,1	10,267
837,6	11,981
838	5,695
838,4	1,638
838,9	5,21
839,3	7,467
839,7	7,752
840,1	3,61
840,6	3,895
841	11,038
841,4	12,581
841,9	12,638
842,3	14,438
842,7	11,695
843,1	15,181
843,6	13,724
844	15,067
844,4	19,724
844,9	19,552
845,3	19,667
845,7	21,324
846,2	21,924
846,6	20,552
847	19,324
847,4	14,381
847,9	13,81
848,3	14,581
848,7	13,667
849,2	15,695
849,6	11,552
850	15,095
850,4	14,495
850,9	12,352
851,3	10,238
851,7	10,695
852,2	9,381
852,6	17,981
853	11,095
853,4	11,867
853,9	11,752
854,3	11,41
854,7	9,638
855,2	8,667
855,6	5,81
856	4,21
856,4	5,952
856,9	3,552
857,3	3,752
857,7	9,695
858,2	17,095
858,6	17,581
859	19,352
859,4	14,21
859,9	14,552
860,3	11,381
860,7	8,381
861,1	0,038
861,6	-3,505
862	-2,905
862,4	0,038
862,9	-0,305
863,3	2,552
863,7	0,41
864,1	0,067
864,6	0,238
865	1,21
865,4	4,381
865,9	11,067
866,3	6,21
866,7	5,867
867,1	6,41
867,6	7,981
868	5,895
868,4	0,752
868,8	-2,048
869,3	2,895
869,7	9,324
870,1	10,152
870,6	7,667
871	-5,19
871,4	1,752
871,8	-3,448
872,3	-3,99
872,7	-9,276
873,1	-7,305
873,5	-1,133
874	14,524
874,4	8,124
874,8	10,61
875,3	11,467
875,7	11,724
876,1	12,038
876,5	6,752
877	1,267
877,4	1,495
877,8	3,181
878,2	6,381
878,7	5,695
879,1	6,295
879,5	11,038
879,9	15,438
880,4	17,752
880,8	15,838
881,2	10,552
881,7	9,781
882,1	6,924
882,5	4,752
882,9	2,838
883,4	-3,876
883,8	-3,048
884,2	-1,019
884,6	-1,762
885,1	0,381
885,5	-1,39
885,9	-4,562
886,3	3,124
886,8	1,981
887,2	0,324
887,6	-0,676
888	-4,105
888,5	-3,819
888,9	-0,39
889,3	-6,448
889,8	-3,333
890,2	-3,762
890,6	-5,133
891	-2,305
891,5	-1,419
891,9	1,352
892,3	4,867
892,7	5,552
893,2	3,467
893,6	11,752
894	11,495
894,4	10,381
894,9	7,21
895,3	5,01
895,7	4,924
896,1	8,438
896,6	3,867
897	2,495
897,4	5,638
897,8	7,067
898,3	12,01
898,7	8,724
899,1	8,81
899,5	6,067
900	2,867
900,4	0,21
900,8	-4,676
901,2	-8,39
901,7	-6,419
902,1	-6,619
902,5	-2,905
902,9	-1,933
903,4	-2,705
903,8	4,924
904,2	5,524
904,6	6,01
905,1	4,895
905,5	4,524
905,9	7,324
906,3	10,61
906,8	11,21
907,2	11,81
907,6	9,467
908	11,238
908,5	11,781
908,9	6,095
909,3	5,01
909,7	1,81
910,2	-0,876
910,6	4,152
911	0,781
911,4	0,41
911,9	-0,048
912,3	-0,248
912,7	2,867
913,1	9,295
913,6	3,124
914	6,524
914,4	2,781
914,8	10,638
915,3	7,467
915,7	4,41
916,1	-1,476
916,5	2,324
916,9	-1,533
917,4	-2,819
917,8	-4,133
918,2	-4,133
918,6	-8,362
919,1	-5,79
919,5	-4,905
919,9	-3,19
920,3	0,038
920,8	0,524
921,2	-2,59
921,6	-2,276
922	-5,162
922,5	-9,762
922,9	-4,933
923,3	-3,619
923,7	-3,905
924,2	-2,39
924,6	0,181
925	-0,762
925,4	2,467
925,8	-5,048
926,3	-5,905
926,7	-8,105
927,1	-5,248
927,5	-4,619
928	-3,905
928,4	-7,448
928,8	-1,762
929,2	-0,105
929,7	0,21
930,1	1,238
930,5	0,781
930,9	2,752
931,3	2,81
931,8	1,038
932,2	2,581
932,6	0,524
933	-6,219
933,5	-2,562
933,9	0,21
934,3	5,981
934,7	7,467
935,2	3,61
935,6	4,524
936	8,124
936,4	6,038
936,8	4,267
937,3	0,124
937,7	-1,248
938,1	1,438
938,5	1,41
939	0,81
939,4	-0,133
939,8	0,095
940,2	4,124
940,6	4,095
941,1	1,581
941,5	3,267
941,9	-1,99
942,3	-0,362
942,8	-2,219
943,2	-4,762
943,6	-9,219
944	-8,962
944,4	-7,79
944,9	-1,505
945,3	-2,476
945,7	-4,276
946,1	-11,562
946,6	-11,448
947	-13,362
947,4	-14,162
947,8	-13,362
948,2	-15,333
948,7	-9,99
949,1	-4,219
949,5	0,495
949,9	4,667
950,3	6,352
950,8	7,467
951,2	6,895
951,6	3,095
952	4,01
952,5	3,667
952,9	1,495
953,3	1,152
953,7	1,21
954,1	5,267
954,6	6,752
955	10,381
955,4	10,667
955,8	13,724
956,2	11,324
956,7	12,581
957,1	4,552
957,5	5,581
957,9	6,895
958,3	3,867
958,8	1,181
959,2	4,495
959,6	7,21
960	10,638
960,5	11,752
960,9	10,581
961,3	10,21
961,7	9,21
962,1	8,095
962,6	2,01
963	1,667
963,4	-6,59
963,8	-6,59
964,2	-4,219
964,7	-7,105
965,1	-4,99
965,5	-6,19
965,9	-3,99
966,3	5,924
966,8	-0,533
967,2	1,524
967,6	3,752
968	-2,848
968,4	1,61
968,9	3,038
969,3	-0,219
969,7	-0,705
970,1	-2,819
970,5	-2,19
971	2,381
971,4	0,81
971,8	-1,305
972,2	1,524
972,6	0,41
973,1	-1,676
973,5	1,838
973,9	2,867
974,3	4,981
974,7	6,952
975,2	3,924
975,6	4,781
976	9,067
976,4	5,781
976,8	1,724
977,3	-0,448
977,7	-4,819
978,1	-4,762
978,5	-3,133
978,9	-6,419
979,4	-10,105
979,8	-10,533
980,2	-11,219
980,6	-10,59
981	-9,848
981,5	-9,333
981,9	-10,048
982,3	-5,476
982,7	-0,676
983,1	-3,762
983,6	-2,676
984	-3,419
984,4	-2,505
984,8	0,238
985,2	-0,876
985,6	-7,933
986,1	-3,476
986,5	-0,562
986,9	-3,905
987,3	-3,419
987,7	-3,048
988,2	-6,305
988,6	-2,505
989	0,124
989,4	-0,99
989,8	2,381
990,3	-0,276
990,7	-2,105
991,1	0,724
991,5	2,438
991,9	0,495
992,3	1,038
992,8	-1,505
993,2	-3,333
993,6	-4,648
994	-0,848
994,4	-2,619
994,9	-2,105
995,3	-2,019
995,7	-2,848
996,1	-2,219
996,5	1,295
996,9	-1,39
997,4	4,752
997,8	-3,59
998,2	-5,962
998,6	-7,705
999	-3,162
999,5	-5,933
999,9	-4,419
1000,3	-9,648
1000,7	-5,19
1001,1	-5,848
1001,5	-1,219
1002	1,895
1002,4	5,324
1002,8	3,295
1003,2	2,638
1003,6	7,067
1004	12,895
1004,5	10,552
1004,9	9,381
1005,3	4,095
1005,7	6,295
1006,1	3,524
1006,6	1,638
1007	0,895
1007,4	-0,733
1007,8	-5,048
1008,2	-3,39
1008,6	-2,905
1009,1	-0,648
1009,5	0,352
1009,9	0,124
1010,3	2,781
1010,7	4,152
1011,1	3,981
1011,6	3,152
1012	6,352
1012,4	3,01
1012,8	-1,019
1013,2	2,267
1013,6	-0,362
1014,1	0,895
1014,5	-1,162
1014,9	-5,162
1015,3	-5,476
1015,7	-3,533
1016,1	-7,419
1016,6	-6,162
1017	-3,59
1017,4	-4,162
1017,8	-4,705
1018,2	-3,219
1018,6	-7,448
1019,1	-8,876
1019,5	-5,39
1019,9	-10,676
1020,3	-10,505
1020,7	-7,762
1021,1	-6,105
1021,6	-2,619
1022	1,895
1022,4	0,381
1022,8	4,867
1023,2	9,524
1023,6	5,581
1024,1	8,267
1024,5	11,467
1024,9	6,238
1025,3	4,467
1025,7	5,495
1026,1	2,067
1026,6	4,067
1027	-0,705
1027,4	-1,819
1027,8	-1,848
1028,2	-2,19
1028,6	-5,076
1029	-3,933
1029,5	-3,933
1029,9	-4,133
1030,3	-9,419
1030,7	-8,162
1031,1	-3,562
1031,5	-7,276
1032	-5,59
1032,4	-4,476
1032,8	-2,362
1033,2	4,01
1033,6	4,638
1034	0,01
1034,4	1,638
1034,9	-0,39
1035,3	-4,705
1035,7	-5,876
1036,1	-12,79
1036,5	-16,476
1036,9	-13,676
1037,4	-9,39
1037,8	-16,562
1038,2	-19,39
1038,6	-17,162
1039	-10,819
1039,4	-0,39
1039,8	-5,219
1040,3	-6,648
1040,7	-3,19
1041,1	6,21
1041,5	2,952
1041,9	-1,876
1042,3	-5,905
1042,7	-4,19
1043,2	-7,162
1043,6	-9,048
1044	-15,248
1044,4	-10,019
1044,8	-5,076
1045,2	-5,419
1045,6	-3,276
1046,1	-0,79
1046,5	-0,676
1046,9	0,352
1047,3	-2,305
1047,7	-5,219
1048,1	-7,219
1048,5	-11,79
1049	-5,99
1049,4	0,324
1049,8	2,267
1050,2	2,81
1050,6	6,267
1051	7,867
1051,4	13,752
1051,9	5,01
1052,3	13,467
1052,7	14,01
1053,1	10,581
1053,5	11,495
1053,9	9,752
1054,3	7,352
1054,8	13,152
1055,2	1,61
1055,6	5,524
1056	9,181
1056,4	6,467
1056,8	10,867
1057,2	8,61
1057,6	3,752
1058,1	5,524
1058,5	1,695
1058,9	-0,019
1059,3	4,324
1059,7	-0,562
1060,1	4,01
1060,5	5,152
1061	5,495
1061,4	2,095
1061,8	2,781
1062,2	-4,419
1062,6	4,638
1063	2,667
1063,4	1,981
1063,8	-0,562
1064,3	-3,419
1064,7	-6,219
1065,1	-7,219
1065,5	-15,876
1065,9	-16,99
1066,3	-18,59
1066,7	-20,848
1067,1	-14,305
1067,6	-9,562
1068	-8,019
1068,4	-8,048
1068,8	-4,505
1069,2	-3,076
1069,6	-0,39
1070	-1,419
1070,4	-4,733
1070,9	-5,219
1071,3	-4,39
1071,7	-5,819
1072,1	-6,276
1072,5	-6,39
1072,9	-6,962
1073,3	-3,305
1073,7	-4,248
1074,2	-3,619
1074,6	-6,533
1075	-5,419
1075,4	-4,705
1075,8	-1,876
1076,2	-3,876
1076,6	1,267
1077	1,952
1077,5	3,781
1077,9	0,867
1078,3	-2,105
1078,7	-3,305
1079,1	-5,419
1079,5	-7,105
1079,9	-8,39
1080,3	-8,476
1080,7	-3,705
1081,2	1,438
1081,6	2,124
1082	-1,448
1082,4	1,752
1082,8	2,695
1083,2	4,467
1083,6	5,124
1084	2,952
1084,5	5,467
1084,9	8,067
1085,3	2,324
1085,7	4,124
1086,1	2,838
1086,5	2,752
1086,9	7,295
1087,3	3,21
1087,7	2,01
1088,2	3,267
1088,6	3,038
1089	6,267
1089,4	5,638
1089,8	3,238
1090,2	2,267
1090,6	7,581
1091	10,267
1091,4	11,238
1091,9	5,952
1092,3	6,41
1092,7	3,495
1093,1	9,038
1093,5	6,952
1093,9	5,238
1094,3	5,324
1094,7	7,381
1095,1	9,124
1095,5	9,267
1096	4,838
1096,4	2,924
1096,8	0,895
1097,2	0,695
1097,6	2,895
1098	2,038
1098,4	3,41
1098,8	3,981
1099,2	10,438
1099,6	11,952
1100,1	6,095
1100,5	3,924
1100,9	2,667
1101,3	2,095
1101,7	1,21
1102,1	-3,79
1102,5	-4,505
1102,9	-1,39
1103,3	1,781
1103,7	1,61
1104,2	1,81
1104,6	3,21
1105	1,838
1105,4	0,952
1105,8	0,467
1106,2	-3,219
1106,6	-3,762
1107	-3,048
1107,4	-4,467
1107,8	-2,613
1108,3	-0,783
