Data from Subt2_271.txt Node
Date: Sat Aug 26 19:04:23 MSK 2023
User: vat
Spectrometer: MAYP114033
Trigger mode: 0
Integration Time (sec): 1,000000E0
Scans to average: 5
Electric dark correction enabled: true
Nonlinearity correction enabled: false
Boxcar width: 3
XAxis mode: Wavelengths
Number of Pixels in Spectrum: 2068
>>>>>Begin Spectral Data<<<<<
199,4	-0,15
199,9	3,8
200,4	2,067
200,8	3,057
201,3	-0,4
201,8	-0,057
202,2	-2,571
202,7	2,6
203,2	0,829
203,6	0,543
204,1	-2,4
204,6	2,714
205	4,686
205,5	9,657
206	3,314
206,4	2,457
206,9	5,943
207,4	10,029
207,8	9,6
208,3	5,914
208,8	2,571
209,2	3,714
209,7	6,314
210,2	4,743
210,6	1,743
211,1	1,714
211,5	0,914
212	0,971
212,5	4,686
212,9	2,286
213,4	3,486
213,9	2,971
214,3	4,571
214,8	8,086
215,3	10,343
215,7	10,771
216,2	12,714
216,7	11
217,1	13,514
217,6	12,371
218,1	12,714
218,5	11,6
219	2,8
219,5	6,6
219,9	4
220,4	9,286
220,9	7,6
221,3	7,629
221,8	9,057
222,3	15,486
222,7	14,571
223,2	19,629
223,6	14,514
224,1	16,629
224,6	19,029
225	15,8
225,5	13,057
226	10,371
226,4	9,743
226,9	8,629
227,4	9
227,8	-1,286
228,3	-0,429
228,8	-0,286
229,2	-3,143
229,7	-2,657
230,2	-3,2
230,6	0,229
231,1	12,829
231,5	14,6
232	18,229
232,5	17,543
232,9	16,057
233,4	19,229
233,9	11,743
234,3	4,657
234,8	4,771
235,3	3,429
235,7	5,629
236,2	7,314
236,7	7,029
237,1	11,743
237,6	12,571
238,1	8,914
238,5	6,314
239	6,829
239,4	5,057
239,9	6,229
240,4	5
240,8	8
241,3	7,371
241,8	5,086
242,2	6
242,7	5,114
243,2	-0,857
243,6	-5,657
244,1	-5,371
244,6	0,686
245	3,686
245,5	3,629
245,9	0,686
246,4	3,857
246,9	11,086
247,3	9,829
247,8	9,514
248,3	12,257
248,7	9,486
249,2	13,886
249,7	13,686
250,1	11,971
250,6	9,829
251	9,057
251,5	7,971
252	7,829
252,4	8
252,9	7,171
253,4	3
253,8	2,486
254,3	2,314
254,8	2,371
255,2	0,971
255,7	0,457
256,1	-1,086
256,6	2,743
257,1	5,6
257,5	1,971
258	-0,571
258,5	-0,286
258,9	-3,857
259,4	-5,057
259,9	-5,629
260,3	-9,229
260,8	-8,829
261,2	-5,514
261,7	-1,857
262,2	-2,2
262,6	-2,486
263,1	0,886
263,6	4,743
264	9
264,5	13,171
264,9	13,229
265,4	15,943
265,9	16,629
266,3	14,171
266,8	14,371
267,3	13,886
267,7	7,629
268,2	9,714
268,7	14,543
269,1	15,314
269,6	12,514
270	13,457
270,5	11
271	13,771
271,4	12,371
271,9	5,514
272,4	12,629
272,8	16,314
273,3	12,686
273,7	13,8
274,2	12,171
274,7	8,857
275,1	12,371
275,6	9,514
276,1	7,343
276,5	12,057
277	13
277,4	10,943
277,9	15,6
278,4	16,886
278,8	16,886
279,3	18,314
279,8	16,4
280,2	15,371
280,7	20,743
281,1	17,886
281,6	17,743
282,1	16,286
282,5	13,971
283	14,257
283,4	12,114
283,9	7,343
284,4	8,857
284,8	6,429
285,3	5,657
285,8	3,857
286,2	-3,971
286,7	-1,086
287,1	0,8
287,6	-0,371
288,1	-2,657
288,5	0,486
289	2,171
289,5	9
289,9	7,857
290,4	9,4
290,8	9,771
291,3	11,771
291,8	11,886
292,2	13,314
292,7	14,543
293,1	13,229
293,6	14,486
294,1	15,114
294,5	15,514
295	11,029
295,5	8,914
295,9	11,343
296,4	10,371
296,8	6,514
297,3	4,6
297,8	0,857
298,2	1,943
298,7	7,257
299,1	3,886
299,6	1,343
300,1	6,429
300,5	7,229
301	12,771
301,5	18,571
301,9	16,657
302,4	13,143
302,8	15,543
303,3	12,343
303,8	7,686
304,2	7,743
304,7	2,543
305,1	-1,686
305,6	0,114
306,1	7,314
306,5	4,514
307	11,771
307,4	13,857
307,9	14,314
308,4	15,4
308,8	10,257
309,3	5,229
309,8	6,057
310,2	5,171
310,7	-0,343
311,1	-1,571
311,6	-0,429
312,1	6,286
312,5	10,2
313	10,343
313,4	7,029
313,9	7,971
314,4	8,171
314,8	4,629
315,3	5,114
315,7	-1,457
316,2	-4,343
316,7	-5,057
317,1	-1,6
317,6	2,429
318	4,714
318,5	4,571
319	6,6
319,4	7,371
319,9	14,6
320,3	15,143
320,8	5,857
321,3	7,429
321,7	7,343
322,2	8,429
322,6	10,971
323,1	4,4
323,6	3,114
324	8,486
324,5	5,714
324,9	4,771
325,4	6,143
325,9	7,171
326,3	10,086
326,8	12,829
327,2	12,8
327,7	16,743
328,2	17,6
328,6	16,914
329,1	12,457
329,5	10,8
330	4,257
330,5	4,514
330,9	1,429
331,4	-2,286
331,8	-8,314
332,3	-1,743
332,8	1,629
333,2	5,2
333,7	5,429
334,1	9,143
334,6	9,886
335,1	14,4
335,5	12,171
336	8,086
336,4	6,2
336,9	14,229
337,4	14,286
337,8	16,914
338,3	18,029
338,7	19,057
339,2	16,457
339,7	17,057
340,1	7,943
340,6	5,086
341	2,229
341,5	-0,6
342	-3,686
342,4	-3,714
342,9	-4,6
343,3	-3,429
343,8	0,371
344,2	4,657
344,7	9,829
345,2	9,143
345,6	11,943
346,1	15,257
346,5	14,914
347	12,629
347,5	9,143
347,9	11,143
348,4	14,571
348,8	16,657
349,3	19,571
349,8	23,486
350,2	27,6
350,7	26,029
351,1	20,543
351,6	20,486
352	25,571
352,5	26,714
353	30,829
353,4	33,971
353,9	45,6
354,3	57,314
354,8	67,143
355,3	79,171
355,7	91,771
356,2	107,571
356,6	126,943
357,1	149,543
357,5	174,143
358	205,486
358,5	232,8
358,9	267,743
359,4	307,571
359,8	351,143
360,3	401,086
360,8	455,029
361,2	517,229
361,7	586,171
362,1	663,829
362,6	750,086
363	839,343
363,5	932,514
364	1039,086
364,4	1142,771
364,9	1250,229
365,3	1352,4
365,8	1445,086
366,3	1537,371
366,7	1628,314
367,2	1702,171
367,6	1762,371
368,1	1809,457
368,5	1844,943
369	1862,8
369,5	1870,686
369,9	1856,657
370,4	1829,514
370,8	1793,086
371,3	1741,771
371,7	1683,029
372,2	1622,114
372,7	1543,943
373,1	1459,686
373,6	1374,629
374	1291,486
374,5	1209,943
374,9	1127,086
375,4	1042,8
375,9	967,743
376,3	898,229
376,8	830,314
377,2	765,457
377,7	701,886
378,2	642,6
378,6	589,257
379,1	540,314
379,5	500,629
380	462,029
380,4	421,486
380,9	387,171
381,4	356,971
381,8	332,257
382,3	314,829
382,7	292,114
383,2	272,657
383,6	256,971
384,1	245,629
384,6	233,086
385	216,4
385,5	199,314
385,9	180,457
386,4	167,914
386,8	156,714
387,3	144,486
387,7	134,343
388,2	130,086
388,7	118,629
389,1	114,4
389,6	105,571
390	98,629
390,5	93,257
390,9	90,8
391,4	84,914
391,9	76,686
392,3	75,114
392,8	68,8
393,2	61,914
393,7	56,543
394,1	46,8
394,6	41,943
395,1	46,143
395,5	39,686
396	40,8
396,4	41,629
396,9	40,429
397,3	48,571
397,8	50,629
398,2	44,286
398,7	45,4
399,2	44
399,6	46,657
400,1	47,057
400,5	38,314
401	35,914
401,4	34,657
401,9	39,6
402,4	42,486
402,8	38,229
403,3	43,429
403,7	40,8
404,2	42,057
404,6	44,6
405,1	36,229
405,5	32,657
406	32,743
406,5	31,143
406,9	37,714
407,4	33,743
407,8	35,914
408,3	42
408,7	37,171
409,2	43,971
409,6	44,2
410,1	44,229
410,6	50,257
411	53,257
411,5	53
411,9	62,571
412,4	60,4
412,8	60,429
413,3	60,743
413,7	60,029
414,2	59,286
414,7	64,229
415,1	67,086
415,6	73,314
416	77,629
416,5	80,486
416,9	84,057
417,4	87,657
417,8	92,343
418,3	98,743
418,8	100,943
419,2	99,343
419,7	100,457
420,1	102,143
420,6	105,229
421	99,829
421,5	96,086
421,9	94,457
422,4	94,971
422,8	95,429
423,3	92,4
423,8	89,229
424,2	85
424,7	82,686
425,1	81,429
425,6	86,057
426	82,657
426,5	86,143
426,9	89,571
427,4	91,486
427,9	85,229
428,3	82,571
428,8	78,657
429,2	78,029
429,7	75,486
430,1	71,429
430,6	72,943
431	75,4
431,5	78,086
431,9	75,486
432,4	79,114
432,8	80,371
433,3	80,8
433,8	80,114
434,2	84,943
434,7	85,171
435,1	89,4
435,6	90,286
436	89,4
436,5	92,429
436,9	89,629
437,4	89,286
437,8	93
438,3	93,686
438,8	94,829
439,2	98,2
439,7	99,914
440,1	103,971
440,6	109,057
441	105,143
441,5	106,4
441,9	108,543
442,4	103,629
442,8	103,457
443,3	105,457
443,7	106,657
444,2	116,2
444,7	117,771
445,1	121,4
445,6	130,829
446	136,857
446,5	138,143
446,9	136,657
447,4	136,286
447,8	143,657
448,3	150,314
448,7	155,171
449,2	156,571
449,6	171,886
450,1	177,6
450,6	186,629
451	189,857
451,5	191,257
451,9	198
452,4	209,886
452,8	206,743
453,3	221,229
453,7	225,943
454,2	235,2
454,6	249,029
455,1	252,057
455,5	251,943
456	266,086
456,4	266,629
456,9	276,143
457,3	281,657
457,8	281,657
458,3	293,257
458,7	303,286
459,2	307,286
459,6	318,4
460,1	329,171
460,5	337,229
461	348,371
461,4	356,914
461,9	368,829
462,3	383,486
462,8	391,914
463,2	394,286
463,7	405,314
464,1	421,629
464,6	434,429
465	446,229
465,5	456,114
466	471,543
466,4	482,343
466,9	499,971
467,3	506,686
467,8	520,057
468,2	533,086
468,7	544,657
469,1	558,743
469,6	579,286
470	588,171
470,5	603,6
470,9	609,6
471,4	619,086
471,8	626,857
472,3	633,771
472,7	645,771
473,2	655,629
473,6	663,886
474,1	680,314
474,5	692,286
475	712,457
475,4	731,971
475,9	741,114
476,4	750,371
476,8	767,257
477,3	781,686
477,7	798,029
478,2	807,314
478,6	811,857
479,1	822,771
479,5	837,4
480	847,914
480,4	858,057
480,9	868,314
481,3	878,114
481,8	890,629
482,2	893,257
482,7	903
483,1	912,657
483,6	921,514
484	930,343
484,5	946,286
484,9	954,686
485,4	972,257
485,8	984,771
486,3	993,371
486,7	1001,771
487,2	1006,829
487,6	1008,371
488,1	1014,657
488,5	1018,257
489	1028,8
489,4	1040,286
489,9	1043,457
490,4	1050,543
490,8	1059,714
491,3	1075,543
491,7	1082,114
492,2	1090,086
492,6	1093,886
493,1	1106,943
493,5	1111,914
494	1111,429
494,4	1114,486
494,9	1121,971
495,3	1125,171
495,8	1129,086
496,2	1134,029
496,7	1141,314
497,1	1154,429
497,6	1157,286
498	1164,971
498,5	1170,171
498,9	1175,857
499,4	1179,829
499,8	1191,486
500,3	1195,086
500,7	1200,2
501,2	1202,229
501,6	1201,486
502,1	1204,629
502,5	1212,2
503	1209,514
503,4	1212,571
503,9	1208,6
504,3	1216,286
504,8	1219,971
505,2	1225,886
505,7	1230,514
506,1	1238,771
506,6	1241,429
507	1248,743
507,5	1250,657
507,9	1257,886
508,4	1253,886
508,8	1254,4
509,3	1256,829
509,7	1263,771
510,2	1273,743
510,6	1274,257
511,1	1276,457
511,5	1287,057
512	1287,514
512,4	1293,714
512,9	1296,314
513,3	1297,714
513,8	1305,686
514,2	1311,943
514,7	1314,857
515,1	1319,114
515,6	1318,4
516	1319,2
516,5	1326,286
516,9	1330,057
517,4	1329
517,8	1338,143
518,3	1342,143
518,7	1349,486
519,2	1356,514
519,6	1354,743
520,1	1357,543
520,5	1368,257
521	1370,286
521,4	1375,714
521,9	1380
522,3	1379,971
522,8	1385,629
523,2	1392,743
523,7	1394,886
524,1	1392,914
524,6	1401,543
525	1406,057
525,5	1414,971
525,9	1425,229
526,4	1426,771
526,8	1433,6
527,3	1445,171
527,7	1449,257
528,2	1454,8
528,6	1457,971
529,1	1465,171
529,5	1476,971
530	1477,686
530,4	1480,829
530,9	1487,714
531,3	1493,229
531,8	1499
532,2	1499,343
532,6	1499,143
533,1	1507,457
533,5	1514,286
534	1520,286
534,4	1522,971
534,9	1531,714
535,3	1538,8
535,8	1548,286
536,2	1555,8
536,7	1561,943
537,1	1566,143
537,6	1575,343
538	1582,057
538,5	1588,057
538,9	1592,686
539,4	1600,914
539,8	1606,543
540,3	1613,457
540,7	1620,829
541,2	1622
541,6	1631,086
542,1	1633,171
542,5	1633,971
543	1642,771
543,4	1644,857
543,9	1648,086
544,3	1656,514
544,8	1656,543
545,2	1667,029
545,7	1676,057
546,1	1676,257
546,5	1685,229
547	1692,343
547,4	1698
547,9	1707,2
548,3	1717,143
548,8	1722,429
549,2	1728,571
549,7	1735,714
550,1	1744,229
550,6	1757,743
551	1758,371
551,5	1764,4
551,9	1767,943
552,4	1776,171
552,8	1780,4
553,3	1780,457
553,7	1776,086
554,2	1787,229
554,6	1785,543
555,1	1795,6
555,5	1796,543
555,9	1799,143
556,4	1804,629
556,8	1810,029
557,3	1813,371
557,7	1821,943
558,2	1822,886
558,6	1832,6
559,1	1834,286
559,5	1837,143
560	1839,857
560,4	1844,257
560,9	1847,543
561,3	1849,114
561,8	1850,971
562,2	1855,829
562,7	1860,6
563,1	1870,486
563,6	1867,371
564	1868,571
564,4	1870,486
564,9	1875,629
565,3	1882,714
565,8	1882,914
566,2	1882,514
566,7	1892,486
567,1	1896,343
567,6	1905,6
568	1903,457
568,5	1900,714
568,9	1902,8
569,4	1907,886
569,8	1909,171
570,3	1909,4
570,7	1905,514
571,1	1908,6
571,6	1913,886
572	1921,486
572,5	1921,771
572,9	1921,143
573,4	1920,543
573,8	1923,514
574,3	1923,914
574,7	1925,343
575,2	1925,029
575,6	1918
576,1	1920,114
576,5	1922,686
576,9	1920,514
577,4	1919,743
577,8	1916,514
578,3	1915,943
578,7	1922,029
579,2	1923,286
579,6	1917,143
580,1	1915,857
580,5	1920,314
581	1922,886
581,4	1916,629
581,9	1914,743
582,3	1910,686
582,7	1915,943
583,2	1912,2
583,6	1904,457
584,1	1903,429
584,5	1906,771
585	1905,629
585,4	1898,714
585,9	1893,2
586,3	1894,629
586,8	1893,171
587,2	1884,229
587,6	1882,057
588,1	1879,514
588,5	1880,371
589	1879,829
589,4	1873,829
589,9	1873,057
590,3	1871,886
590,8	1867,571
591,2	1864,543
591,7	1864,686
592,1	1863,829
592,5	1865,543
593	1863,971
593,4	1859,2
593,9	1852,743
594,3	1846,971
594,8	1840,829
595,2	1836,657
595,7	1831,886
596,1	1827,4
596,6	1828,486
597	1830,2
597,4	1831,8
597,9	1831,571
598,3	1831,771
598,8	1833,714
599,2	1835,886
599,7	1830,829
600,1	1822,743
600,6	1819,171
601	1813,286
601,4	1810
601,9	1813,229
602,3	1800,229
602,8	1800,771
603,2	1800,286
603,7	1791,543
604,1	1787,486
604,6	1779,429
605	1755,286
605,4	1755,314
605,9	1743,457
606,3	1735,114
606,8	1730,057
607,2	1721,971
607,7	1711,029
608,1	1713,829
608,6	1711,086
609	1716
609,4	1713,171
609,9	1706,857
610,3	1705,114
610,8	1706,543
611,2	1702,914
611,7	1698,343
612,1	1685,257
612,6	1679,343
613	1680,114
613,4	1674,114
613,9	1665,4
614,3	1654,286
614,8	1649,343
615,2	1645,086
615,7	1643,086
616,1	1632,8
616,6	1624,457
617	1619,714
617,4	1619,829
617,9	1612,2
618,3	1606,371
618,8	1599,114
619,2	1595,714
619,7	1593,457
620,1	1587,057
620,5	1582,057
621	1569,971
621,4	1567,143
621,9	1563,6
622,3	1554,743
622,8	1539,714
623,2	1532,171
623,6	1519,943
624,1	1519,771
624,5	1509
625	1501,429
625,4	1495,857
625,9	1496,571
626,3	1492,686
626,8	1483,143
627,2	1480,086
627,6	1471,286
628,1	1459,114
628,5	1451,229
629	1437,486
629,4	1426,771
629,9	1421,914
630,3	1401,8
630,7	1391,943
631,2	1383,629
631,6	1377,6
632,1	1371,314
632,5	1369,971
633	1364,457
633,4	1361,314
633,8	1357,657
634,3	1353,143
634,7	1349,914
635,2	1346,171
635,6	1334,457
636,1	1329,371
636,5	1321
636,9	1311,229
637,4	1304,2
637,8	1289,514
638,3	1278,943
638,7	1270,571
639,2	1264,571
639,6	1263,086
640	1260,143
640,5	1248,2
640,9	1246,686
641,4	1245,829
641,8	1240,029
642,2	1232,343
642,7	1224,714
643,1	1221,4
643,6	1220,2
644	1210,943
644,5	1208,286
644,9	1203,486
645,3	1195,857
645,8	1184,086
646,2	1176,6
646,7	1171,971
647,1	1166,086
647,6	1163,429
648	1163,029
648,4	1156,286
648,9	1154,286
649,3	1146,771
649,8	1141,229
650,2	1135,4
650,6	1126,8
651,1	1113,171
651,5	1113,314
652	1105,971
652,4	1096,857
652,9	1089,514
653,3	1081
653,7	1069,4
654,2	1064,2
654,6	1053,371
655,1	1053,657
655,5	1057,143
655,9	1052,114
656,4	1046,714
656,8	1044,657
657,3	1039,8
657,7	1039,829
658,2	1028,171
658,6	1015,429
659	1009,629
659,5	1006,2
659,9	992,686
660,4	988
660,8	978,171
661,2	971,914
661,7	966,943
662,1	959,714
662,6	953,829
663	953,829
663,4	944,857
663,9	938,771
664,3	932,514
664,8	922,114
665,2	910,8
665,6	904,114
666,1	899,029
666,5	897,886
667	888,171
667,4	884,543
667,9	882,086
668,3	882,2
668,7	875,686
669,2	871,486
669,6	867,143
670,1	861,343
670,5	853,857
670,9	849,514
671,4	842,771
671,8	841,686
672,3	835,829
672,7	828,343
673,1	822,086
673,6	816,657
674	812,829
674,5	808,857
674,9	797,4
675,3	788,943
675,8	780,914
676,2	779,429
676,7	774,257
677,1	766,086
677,5	757,743
678	758,086
678,4	755,4
678,9	752,086
679,3	745,486
679,7	739,829
680,2	732,086
680,6	724,914
681,1	714,543
681,5	710,086
681,9	706,743
682,4	704,057
682,8	700,543
683,3	702,6
683,7	704,429
684,1	701,629
684,6	694
685	691,086
685,5	686,486
685,9	680,457
686,3	668,371
686,8	659,571
687,2	658,686
687,7	653,286
688,1	643,629
688,5	640,2
689	639,257
689,4	637,514
689,9	634,057
690,3	625,543
690,7	624,8
691,2	626,371
691,6	623,771
692	620,457
692,5	619,371
692,9	619,6
693,4	618,571
693,8	612,914
694,2	605,029
694,7	599,829
695,1	587,8
695,6	585,057
696	579,429
696,4	576,057
696,9	570,229
697,3	564,543
697,8	561,4
698,2	560,4
698,6	557,286
699,1	552,914
699,5	552,286
699,9	547,971
700,4	543,686
700,8	539,914
701,3	537,771
701,7	529,6
702,1	524,629
702,6	520,257
703	520,229
703,5	516,686
703,9	509,886
704,3	512,771
704,8	510,429
705,2	507,486
705,6	502,114
706,1	498,2
706,5	495,429
707	493,829
707,4	488,514
707,8	483,629
708,3	481,8
708,7	481,2
709,2	477,857
709,6	470,6
710	471,886
710,5	465,143
710,9	467,057
711,3	460,657
711,8	458,229
712,2	460,029
712,7	461,257
713,1	452,714
713,5	452,971
714	448,857
714,4	449,571
714,8	439,686
715,3	428,971
715,7	427,629
716,2	424,429
716,6	421,6
717	414,943
717,5	410,057
717,9	408,857
718,3	404,371
718,8	400,771
719,2	400,057
719,7	395,229
720,1	396
720,5	395,571
721	393
721,4	395,429
721,8	395,314
722,3	386,429
722,7	385,2
723,2	376,657
723,6	366,143
724	362,971
724,5	355,6
724,9	351,629
725,3	354,286
725,8	349,086
726,2	353,086
726,7	354,257
727,1	352,286
727,5	353,114
728	352,429
728,4	348,914
728,8	346,457
729,3	341,486
729,7	335,8
730,1	335,086
730,6	334,486
731	327,2
731,5	325,229
731,9	323,629
732,3	323,257
732,8	327,457
733,2	324,743
733,6	319,457
734,1	320,857
734,5	316,771
734,9	315,886
735,4	311,286
735,8	304,629
736,3	307,057
736,7	304,686
737,1	301,543
737,6	304,143
738	300,857
738,4	298,829
738,9	300,8
739,3	294,571
739,7	295,429
740,2	287,571
740,6	284,257
741,1	287,686
741,5	286,657
741,9	283,429
742,4	282,114
742,8	281,229
743,2	283,829
743,7	280,743
744,1	269
744,5	262,857
745	259,086
745,4	256,829
745,8	257,571
746,3	255
746,7	250,714
747,2	252,771
747,6	259,286
748	263,371
748,5	263,257
748,9	253,171
749,3	253,571
749,8	256,343
750,2	259,571
750,6	254,143
751,1	253,743
751,5	250,971
751,9	256,257
752,4	255,486
752,8	252,771
753,3	246,086
753,7	247,771
754,1	240,257
754,6	236,857
755	233,914
755,4	231,829
755,9	226,371
756,3	224,571
756,7	219,886
757,2	222,371
757,6	222,029
758	218,714
758,5	218,829
758,9	223,629
759,3	226,114
759,8	224,286
760,2	223,686
760,6	221,057
761,1	220,829
761,5	220,057
761,9	213,743
762,4	210
762,8	208,086
763,3	205,486
763,7	209,029
764,1	206,343
764,6	203,686
765	206,229
765,4	206,571
765,9	204,886
766,3	208,543
766,7	204,257
767,2	201,886
767,6	204,971
768	202,886
768,5	199,771
768,9	202,257
769,3	191,229
769,8	185,514
770,2	188,286
770,6	180,8
771,1	183
771,5	183,029
771,9	181,286
772,4	186,4
772,8	188,629
773,2	188,429
773,7	189,971
774,1	188,571
774,5	182,971
775	181,8
775,4	177,171
775,8	175,314
776,3	173,4
776,7	171
777,1	167,343
777,6	171,514
778	171,114
778,4	171,857
778,9	175,314
779,3	170,457
779,7	169,486
780,2	168,229
780,6	166,029
781	166,229
781,5	163,543
781,9	159,029
782,3	154,771
782,8	153,714
783,2	150,514
783,6	150,657
784,1	145,486
784,5	141,114
784,9	140,629
785,4	144,086
785,8	141,286
786,2	142,829
786,7	137,943
787,1	135,457
787,5	138,343
788	139,371
788,4	138,257
788,8	141,057
789,3	137,229
789,7	142,229
790,1	143,914
790,6	145,829
791	139,6
791,4	142,6
791,9	139
792,3	133,371
792,7	133,4
793,2	130,514
793,6	127,657
794	132,286
794,5	125,886
794,9	128,229
795,3	134,714
795,8	130
796,2	133,8
796,6	131,6
797,1	125,971
797,5	122,771
797,9	118,343
798,4	116,029
798,8	114,314
799,2	107,571
799,7	108,714
800,1	107,857
800,5	110,314
801	108,314
801,4	105,543
801,8	105,971
802,2	109,514
802,7	102,8
803,1	105,057
803,5	106,286
804	106,086
804,4	110,343
804,8	111,514
805,3	113,8
805,7	118,514
806,1	119,114
806,6	118,657
807	121,143
807,4	115,714
807,9	108,829
808,3	106
808,7	104,886
809,2	101,743
809,6	102,543
810	99,2
810,4	100,114
810,9	102,914
811,3	100,257
811,7	96,114
812,2	97,257
812,6	95,571
813	97,714
813,5	98,657
813,9	95,4
814,3	91,629
814,8	95,4
815,2	92,686
815,6	89,543
816,1	92,857
816,5	89,286
816,9	93,257
817,3	96,229
817,8	101,343
818,2	104,943
818,6	101,943
819,1	93,829
819,5	91,314
819,9	89,229
820,4	88,771
820,8	82,086
821,2	74,486
821,7	76,914
822,1	80,971
822,5	87,286
822,9	85,171
823,4	80,629
823,8	81,314
824,2	83,457
824,7	83,629
825,1	73,829
825,5	68,8
826	66,371
826,4	68,229
826,8	67,771
827,3	69,114
827,7	65,971
828,1	70,4
828,5	71,771
829	71,657
829,4	73,857
829,8	66,171
830,3	65,143
830,7	64,943
831,1	64,057
831,6	63,571
832	63,943
832,4	61,4
832,8	69,4
833,3	65
833,7	61,8
834,1	58,286
834,6	57,2
835	61,086
835,4	64,343
835,8	56,657
836,3	59,486
836,7	64,914
837,1	70,057
837,6	68,771
838	65,229
838,4	60,943
838,9	61,029
839,3	59,8
839,7	58,171
840,1	56,086
840,6	58,286
841	58,971
841,4	56,543
841,9	58,486
842,3	55,743
842,7	56,171
843,1	51,743
843,6	51,829
844	49,714
844,4	54,543
844,9	55,829
845,3	54,857
845,7	49,714
846,2	52,4
846,6	45,229
847	47,114
847,4	41,314
847,9	39,943
848,3	40,429
848,7	45,514
849,2	47,714
849,6	50,486
850	54,543
850,4	55,429
850,9	57,086
851,3	60,371
851,7	62,6
852,2	59,229
852,6	61,171
853	54,114
853,4	56,314
853,9	51,029
854,3	50,771
854,7	50,571
855,2	49,886
855,6	46,657
856	46,971
856,4	45,714
856,9	47,629
857,3	49,857
857,7	49
858,2	55,057
858,6	55,943
859	55,257
859,4	56,057
859,9	56,857
860,3	50,971
860,7	48,429
861,1	44,914
861,6	42,6
862	43,343
862,4	37,857
862,9	39,771
863,3	39,114
863,7	36,086
864,1	36,029
864,6	36,314
865	35,257
865,4	40,571
865,9	39,4
866,3	38,314
866,7	37,714
867,1	34,171
867,6	39,114
868	37,8
868,4	33,8
868,8	31,771
869,3	34,457
869,7	35,571
870,1	32,714
870,6	27,143
871	-24
871,4	-19,686
871,8	-23,657
872,3	-25,429
872,7	-24,857
873,1	-22,657
873,5	-19,571
874	32,114
874,4	29,714
874,8	29,857
875,3	30,771
875,7	27,8
876,1	30,629
876,5	30,457
877	31,171
877,4	26,886
877,8	29,486
878,2	28,543
878,7	31,886
879,1	30,229
879,5	31,686
879,9	31,714
880,4	33,571
880,8	31,2
881,2	32,171
881,7	27,543
882,1	29,4
882,5	24,029
882,9	22,2
883,4	20,8
883,8	25
884,2	23,629
884,6	23,686
885,1	23,657
885,5	27,686
885,9	24,543
886,3	26,771
886,8	22,2
887,2	22,114
887,6	23
888	20,086
888,5	20,486
888,9	22,114
889,3	20,371
889,8	23,6
890,2	25,857
890,6	23,857
891	25,543
891,5	22,886
891,9	25,114
892,3	25,457
892,7	23,714
893,2	23,314
893,6	28,429
894	27,629
894,4	26,057
894,9	27,314
895,3	28,829
895,7	30,886
896,1	25,771
896,6	23,543
897	25,371
897,4	30,543
897,8	32,057
898,3	31,829
898,7	27,514
899,1	30,6
899,5	30,486
900	24,057
900,4	19,857
900,8	14
901,2	6,686
901,7	6,2
902,1	7,429
902,5	10,6
902,9	12,6
903,4	12,571
903,8	14,429
904,2	19,286
904,6	24
905,1	23,743
905,5	21,714
905,9	28,829
906,3	30,486
906,8	29,514
907,2	30,743
907,6	29
908	29,486
908,5	28,629
908,9	18,143
909,3	16,429
909,7	17,743
910,2	16,914
910,6	19,571
911	13,743
911,4	14,771
911,9	16,029
912,3	17,171
912,7	19,971
913,1	20,686
913,6	15,857
914	18,8
914,4	14,514
914,8	16,429
915,3	15
915,7	13,771
916,1	12,971
916,5	18,486
916,9	17,6
917,4	20,829
917,8	23,2
918,2	20,657
918,6	13,886
919,1	15,086
919,5	14,286
919,9	14,029
920,3	11,2
920,8	8,114
921,2	12,343
921,6	17,029
922	17,086
922,5	13,886
922,9	17
923,3	17
923,7	17,543
924,2	13,914
924,6	14,743
925	13,143
925,4	13,714
925,8	13,6
926,3	10,657
926,7	10,686
927,1	11,086
927,5	11,429
928	7,857
928,4	5,171
928,8	9,657
929,2	9,857
929,7	10,343
930,1	10,114
930,5	5,029
930,9	12,029
931,3	15,171
931,8	10,314
932,2	14,743
932,6	13,371
933	7,686
933,5	11,829
933,9	10,086
934,3	9,371
934,7	5,143
935,2	1,514
935,6	2,2
936	11,343
936,4	7,057
936,8	6,343
937,3	2,914
937,7	9,829
938,1	14
938,5	6,429
939	4,057
939,4	8,086
939,8	5,571
940,2	7,486
940,6	2,971
941,1	0,486
941,5	14,257
941,9	10,486
942,3	12,886
942,8	15,571
943,2	16,771
943,6	16,314
944	15,057
944,4	10,2
944,9	10,229
945,3	7,229
945,7	3,4
946,1	-1,371
946,6	-2,857
947	-1,114
947,4	-0,286
947,8	2,657
948,2	1,057
948,7	4,4
949,1	3,429
949,5	9,457
949,9	11,629
950,3	11,6
950,8	12,057
951,2	14,943
951,6	11,286
952	16,714
952,5	12,143
952,9	10,971
953,3	8,4
953,7	5,914
954,1	7,029
954,6	12,086
955	12,743
955,4	12,457
955,8	12,6
956,2	12,457
956,7	13,571
957,1	8,886
957,5	9,657
957,9	8,029
958,3	6,629
958,8	6,914
959,2	10,114
959,6	11,6
960	12,6
960,5	14,343
960,9	16,914
961,3	15,943
961,7	14,514
962,1	13,686
962,6	15,686
963	17,286
963,4	8,686
963,8	6,514
964,2	10,629
964,7	12,143
965,1	11,4
965,5	9,457
965,9	7,914
966,3	12,886
966,8	14,143
967,2	11,543
967,6	8,429
968	8,829
968,4	8,286
968,9	11,486
969,3	16,829
969,7	14,086
970,1	17,229
970,5	18,429
971	23,543
971,4	24,914
971,8	21,6
972,2	15,371
972,6	14,229
973,1	12,257
973,5	13,6
973,9	10,971
974,3	12,543
974,7	14
975,2	15,571
975,6	17,229
976	16,229
976,4	9,086
976,8	8,314
977,3	3,171
977,7	2,314
978,1	1,086
978,5	-2,629
978,9	-2,629
979,4	3
979,8	-2,571
980,2	-0,686
980,6	-4,286
981	-0,8
981,5	4,114
981,9	1,543
982,3	2,771
982,7	9,543
983,1	8,714
983,6	11,029
984	11,2
984,4	12,943
984,8	17,114
985,2	17
985,6	12,114
986,1	15,543
986,5	17,629
986,9	9,114
987,3	7,8
987,7	5
988,2	1,943
988,6	3,429
989	-0,771
989,4	-1,057
989,8	2,943
990,3	1,857
990,7	3,686
991,1	5,571
991,5	6,286
991,9	10,057
992,3	11,371
992,8	14,343
993,2	11,457
993,6	10,457
994	15,086
994,4	15,943
994,9	14,229
995,3	11,914
995,7	9,114
996,1	11,514
996,5	13,514
996,9	8,429
997,4	9,8
997,8	4,457
998,2	4,114
998,6	0,229
999	-2,6
999,5	-3,629
999,9	-1,4
1000,3	-4,029
1000,7	2,371
1001,1	4,657
1001,5	5,286
1002	11,4
1002,4	14,886
1002,8	9,886
1003,2	9,8
1003,6	8,743
1004	11,943
1004,5	10,286
1004,9	8,543
1005,3	1,514
1005,7	5,743
1006,1	2,571
1006,6	0,8
1007	-3,086
1007,4	1,2
1007,8	3,057
1008,2	3,971
1008,6	3,743
1009,1	2,743
1009,5	0,029
1009,9	1,257
1010,3	0,4
1010,7	-4,086
1011,1	-3,257
1011,6	2,229
1012	7,714
1012,4	12,686
1012,8	10,171
1013,2	14,8
1013,6	18,257
1014,1	18,2
1014,5	12,657
1014,9	11,514
1015,3	10,229
1015,7	8,629
1016,1	6,114
1016,6	7,8
1017	12,371
1017,4	12,429
1017,8	11,343
1018,2	15,514
1018,6	15,857
1019,1	15,229
1019,5	13,029
1019,9	9,4
1020,3	9,771
1020,7	12,4
1021,1	9,457
1021,6	11,943
1022	12,314
1022,4	12,486
1022,8	16
1023,2	14,629
1023,6	14,171
1024,1	17,829
1024,5	20,486
1024,9	17,971
1025,3	18,4
1025,7	19,457
1026,1	21,457
1026,6	20,114
1027	14,429
1027,4	14,257
1027,8	16,229
1028,2	12,914
1028,6	13,629
1029	10,114
1029,5	14,857
1029,9	12,914
1030,3	2,714
1030,7	5,514
1031,1	8,486
1031,5	1,886
1032	2,4
1032,4	-2,629
1032,8	0,857
1033,2	8,371
1033,6	3,343
1034	2,2
1034,4	6,629
1034,9	8,886
1035,3	6,286
1035,7	4,943
1036,1	3,257
1036,5	4,2
1036,9	5,829
1037,4	5,8
1037,8	3,229
1038,2	4,286
1038,6	3,057
1039	7,286
1039,4	13,457
1039,8	7,229
1040,3	6,543
1040,7	8,171
1041,1	12,771
1041,5	15,286
1041,9	8,8
1042,3	1,571
1042,7	4,8
1043,2	4,771
1043,6	5,714
1044	6,457
1044,4	8,714
1044,8	11,229
1045,2	14,886
1045,6	18,343
1046,1	14,543
1046,5	13,543
1046,9	6,514
1047,3	3,543
1047,7	4,857
1048,1	1,629
1048,5	1,371
1049	4,657
1049,4	9,886
1049,8	15,229
1050,2	19,029
1050,6	19,343
1051	23,343
1051,4	20,629
1051,9	21
1052,3	25,4
1052,7	24,771
1053,1	20,714
1053,5	23,543
1053,9	26,143
1054,3	28,143
1054,8	33,086
1055,2	27,057
1055,6	31,543
1056	29,314
1056,4	27,543
1056,8	22,514
1057,2	18,743
1057,6	13,8
1058,1	6,143
1058,5	0,714
1058,9	7,629
1059,3	8,371
1059,7	8,4
1060,1	12,229
1060,5	10,8
1061	17,2
1061,4	19,971
1061,8	18,543
1062,2	16,057
1062,6	17,714
1063	18,371
1063,4	17,971
1063,8	16,229
1064,3	6,6
1064,7	5,343
1065,1	6,143
1065,5	2,4
1065,9	-1,343
1066,3	-1,571
1066,7	-1,486
1067,1	2,829
1067,6	1,486
1068	0,457
1068,4	4
1068,8	6,714
1069,2	10,629
1069,6	12,571
1070	16,486
1070,4	14,571
1070,9	16,2
1071,3	15,143
1071,7	9,914
1072,1	5,314
1072,5	3,514
1072,9	2,629
1073,3	6,686
1073,7	3,514
1074,2	6,743
1074,6	10,257
1075	11,743
1075,4	7,314
1075,8	7,286
1076,2	4,686
1076,6	6,429
1077	-2,114
1077,5	0,257
1077,9	1,229
1078,3	-1,457
1078,7	-2,714
1079,1	-4,8
1079,5	-6,343
1079,9	-2,743
1080,3	-4,571
1080,7	-3,771
1081,2	6,829
1081,6	6,229
1082	8,314
1082,4	12,314
1082,8	16,229
1083,2	19,8
1083,6	21,543
1084	15,886
1084,5	19,971
1084,9	20,086
1085,3	13,229
1085,7	15,2
1086,1	12,857
1086,5	13
1086,9	17,514
1087,3	13,743
1087,7	13,371
1088,2	16,829
1088,6	12,829
1089	13
1089,4	8,714
1089,8	5,629
1090,2	6,371
1090,6	8,8
1091	12,257
1091,4	16
1091,9	15,114
1092,3	18,743
1092,7	17,486
1093,1	18,914
1093,5	17,229
1093,9	15,743
1094,3	14,029
1094,7	13,886
1095,1	12,486
1095,5	13,457
1096	10,914
1096,4	11,229
1096,8	8,914
1097,2	7,229
1097,6	12,286
1098	10,371
1098,4	13,829
1098,8	13,229
1099,2	18,114
1099,6	18,114
1100,1	17,6
1100,5	12,571
1100,9	12,743
1101,3	11,486
1101,7	10,771
1102,1	4,543
1102,5	9,629
1102,9	12,171
1103,3	14
1103,7	13,114
1104,2	10,943
1104,6	12,429
1105	11,4
1105,4	6,914
1105,8	2,914
1106,2	-0,457
1106,6	-0,171
1107	0,057
1107,4	-0,5
1107,8	0,84
1108,3	-0,5
