Data from Subt2_181.txt Node
Date: Sat Aug 26 18:40:23 MSK 2023
User: vat
Spectrometer: MAYP114033
Trigger mode: 0
Integration Time (sec): 1,000000E0
Scans to average: 5
Electric dark correction enabled: true
Nonlinearity correction enabled: false
Boxcar width: 3
XAxis mode: Wavelengths
Number of Pixels in Spectrum: 2068
>>>>>Begin Spectral Data<<<<<
199,4	-0,117
199,9	3,673
200,4	2,333
200,8	4,919
201,3	2,519
201,8	3,776
202,2	1,862
202,7	5,948
203,2	2,976
203,6	4,119
204,1	0,033
204,6	2,576
205	2,662
205,5	5,29
206	1,205
206,4	1,462
206,9	0,805
207,4	2,919
207,8	4,09
208,3	4,176
208,8	1,09
209,2	5,348
209,7	8,862
210,2	9,233
210,6	6,548
211,1	4,576
211,5	2,633
212	2,919
212,5	-2,31
212,9	-7,995
213,4	-8,138
213,9	-6,938
214,3	-5,824
214,8	-4,91
215,3	-5,681
215,7	-2,11
216,2	6,69
216,7	8,948
217,1	8,262
217,6	9,662
218,1	8,29
218,5	6,519
219	1,948
219,5	-2,681
219,9	-7,767
220,4	3,148
220,9	3,405
221,3	3,948
221,8	9,805
222,3	15,205
222,7	15,548
223,2	21,576
223,6	10,519
224,1	7,462
224,6	7,748
225	3,433
225,5	1,319
226	1,176
226,4	-0,881
226,9	2,919
227,4	8,919
227,8	4,833
228,3	7,862
228,8	4,119
229,2	6,119
229,7	4,719
230,2	6,29
230,6	6,262
231,1	13,176
231,5	13,548
232	18,89
232,5	13,519
232,9	13,662
233,4	11,205
233,9	4,262
234,3	3,176
234,8	4,348
235,3	-0,481
235,7	-0,024
236,2	2,433
236,7	0,576
237,1	5,633
237,6	2,405
238,1	-0,252
238,5	-2,338
239	-0,767
239,4	1,062
239,9	2,519
240,4	-0,71
240,8	3,605
241,3	3,69
241,8	8,09
242,2	7,976
242,7	2,605
243,2	1,633
243,6	1,748
244,1	1,148
244,6	-0,938
245	1,033
245,5	0,233
245,9	1,833
246,4	3,605
246,9	6,376
247,3	4,548
247,8	6,919
248,3	5,405
248,7	4,633
249,2	4,519
249,7	2,319
250,1	2,176
250,6	4,548
251	4,833
251,5	5,405
252	11,119
252,4	11,233
252,9	7,719
253,4	1,89
253,8	-1,252
254,3	1,833
254,8	0,633
255,2	-8,995
255,7	-10,31
256,1	-6,881
256,6	-3,081
257,1	-0,338
257,5	-4,852
258	-5,595
258,5	0,148
258,9	2,776
259,4	1,09
259,9	0,89
260,3	-2,538
260,8	-4,938
261,2	-3,881
261,7	-1,281
262,2	-7,081
262,6	-6,567
263,1	-3,424
263,6	1,719
264	7,805
264,5	13,519
264,9	10,29
265,4	12,548
265,9	10,69
266,3	9,462
266,8	8,662
267,3	6,976
267,7	2,805
268,2	0,405
268,7	0,89
269,1	4,29
269,6	0,833
270	0,376
270,5	-0,938
271	-3,31
271,4	-1,852
271,9	-2,852
272,4	5,205
272,8	21,69
273,3	19,69
273,7	22,548
274,2	27,576
274,7	28,176
275,1	30,633
275,6	22,205
276,1	8,09
276,5	12,033
277	7,033
277,4	3,748
277,9	4,633
278,4	6,348
278,8	7,348
279,3	11,119
279,8	10,119
280,2	10,662
280,7	10,348
281,1	8,662
281,6	4,376
282,1	5,605
282,5	1,805
283	-0,51
283,4	1,405
283,9	3,233
284,4	9,319
284,8	12,262
285,3	9,919
285,8	10,89
286,2	9,633
286,7	9,776
287,1	9,433
287,6	8,433
288,1	3,033
288,5	5,719
289	2,005
289,5	3,719
289,9	2,062
290,4	1,976
290,8	-3,51
291,3	3,005
291,8	5,433
292,2	4,005
292,7	3,833
293,1	5,748
293,6	6,919
294,1	9,948
294,5	7,948
295	4,005
295,5	6,148
295,9	6,462
296,4	3,89
296,8	-1,138
297,3	-3,024
297,8	-3,567
298,2	-9,052
298,7	-3,538
299,1	-2,51
299,6	-2,452
300,1	-0,595
300,5	-0,31
301	-1,51
301,5	10,033
301,9	1,205
302,4	0,348
302,8	4,719
303,3	7,033
303,8	2,833
304,2	4,833
304,7	1,319
305,1	3,262
305,6	2,176
306,1	0,69
306,5	0,062
307	6,29
307,4	6,119
307,9	2,948
308,4	3,776
308,8	-1,024
309,3	1,69
309,8	1,205
310,2	0,662
310,7	-2,452
311,1	-2,224
311,6	0,148
312,1	7,262
312,5	3,805
313	6,233
313,4	4,376
313,9	6,348
314,4	8,205
314,8	2,29
315,3	1,805
315,7	-1,224
316,2	-7,167
316,7	-4,967
317,1	-0,024
317,6	1,89
318	10,005
318,5	7,69
319	7,548
319,4	9,29
319,9	13,319
320,3	10,148
320,8	6,862
321,3	6,605
321,7	9,662
322,2	11,862
322,6	15,033
323,1	8,205
323,6	8,005
324	6,005
324,5	3,976
324,9	1,405
325,4	3,033
325,9	3,69
326,3	4,576
326,8	7,948
327,2	5,148
327,7	8,976
328,2	7,776
328,6	10,119
329,1	1,605
329,5	2,519
330	-0,681
330,5	5,376
330,9	-0,167
331,4	1,29
331,8	-0,224
332,3	4,833
332,8	4,69
333,2	3,805
333,7	3,748
334,1	7,376
334,6	3,662
335,1	0,976
335,5	5,262
336	3,576
336,4	3,919
336,9	9,519
337,4	5,548
337,8	6,862
338,3	9,405
338,7	9,519
339,2	9,948
339,7	13,519
340,1	7,376
340,6	10,776
341	13,205
341,5	10,662
342	6,919
342,4	6,376
342,9	2,205
343,3	1,89
343,8	-1,424
344,2	-2,11
344,7	6,69
345,2	6,005
345,6	5,148
346,1	8,776
346,5	6,976
347	7,49
347,5	5,233
347,9	1,005
348,4	2,376
348,8	3,862
349,3	6,633
349,8	7,976
350,2	15,376
350,7	20,233
351,1	21,633
351,6	24,662
352	29,805
352,5	33,062
353	44,548
353,4	50,805
353,9	61,462
354,3	73,69
354,8	87,548
355,3	112,205
355,7	132,89
356,2	158,319
356,6	185,262
357,1	221,919
357,5	261,89
358	310,376
358,5	353,29
358,9	412,205
359,4	473,748
359,8	543,948
360,3	628,833
360,8	715,89
361,2	816,262
361,7	937,605
362,1	1060,605
362,6	1200,462
363	1352,262
363,5	1505,09
364	1678,176
364,4	1845,405
364,9	2007,405
365,3	2179,89
365,8	2330,719
366,3	2473,462
366,7	2604,633
367,2	2713,462
367,6	2808,862
368,1	2887,948
368,5	2934,919
369	2963,948
369,5	2969,862
369,9	2949,748
370,4	2909,062
370,8	2847,976
371,3	2766,776
371,7	2666,376
372,2	2554,433
372,7	2435,405
373,1	2302,576
373,6	2167,319
374	2030,69
374,5	1893,29
374,9	1758,833
375,4	1636,69
375,9	1514,605
376,3	1402,09
376,8	1292,062
377,2	1190,919
377,7	1089,29
378,2	1000,205
378,6	916,605
379,1	837,348
379,5	769,919
380	710,719
380,4	649,662
380,9	599,376
381,4	552,29
381,8	509,119
382,3	475,548
382,7	438,662
383,2	405,29
383,6	376,548
384,1	349,605
384,6	326,033
385	301,662
385,5	276,948
385,9	255,376
386,4	236,205
386,8	222,348
387,3	209,348
387,7	196,576
388,2	183,262
388,7	171,262
389,1	163,319
389,6	152,176
390	140,233
390,5	136,805
390,9	126,89
391,4	117,348
391,9	108,89
392,3	103,833
392,8	97,833
393,2	86,633
393,7	73,062
394,1	66,29
394,6	63,576
395,1	64,119
395,5	56,119
396	54,633
396,4	59,433
396,9	59,748
397,3	61,776
397,8	64,119
398,2	58,319
398,7	55,748
399,2	53,348
399,6	53,348
400,1	51,119
400,5	46,548
401	47,633
401,4	48,005
401,9	53,148
402,4	55,176
402,8	50,319
403,3	52,433
403,7	54,748
404,2	53,405
404,6	53,919
405,1	49,748
405,5	44,233
406	47,49
406,5	48,462
406,9	51,576
407,4	50,976
407,8	55,205
408,3	60,519
408,7	63,462
409,2	71,319
409,6	75,49
410,1	77,776
410,6	87,633
411	90,49
411,5	94,862
411,9	104,205
412,4	105,033
412,8	112,119
413,3	120,805
413,7	121,29
414,2	127,776
414,7	136,233
415,1	148,519
415,6	158,805
416	167,062
416,5	174,805
416,9	185,262
417,4	196,862
417,8	212,319
418,3	217,748
418,8	230,176
419,2	237,062
419,7	246,462
420,1	258,805
420,6	270,09
421	272,348
421,5	287,176
421,9	301,319
422,4	317,376
422,8	334,376
423,3	347,49
423,8	361,519
424,2	383,519
424,7	403,462
425,1	419,033
425,6	442,748
426	460,319
426,5	481,29
426,9	506,433
427,4	530,262
427,9	551,262
428,3	580,605
428,8	599,69
429,2	628,49
429,7	658,69
430,1	690,119
430,6	725,89
431	760,319
431,5	794,805
431,9	831,833
432,4	871,662
432,8	914,005
433,3	957,09
433,8	996,233
434,2	1040,405
434,7	1089,348
435,1	1140,519
435,6	1190,519
436	1247,148
436,5	1305,948
436,9	1366,633
437,4	1431,033
437,8	1495,519
438,3	1565,776
438,8	1638,405
439,2	1704,976
439,7	1779,462
440,1	1856,405
440,6	1941,862
441	2022,376
441,5	2111,662
441,9	2201,833
442,4	2298,005
442,8	2389,348
443,3	2488,633
443,7	2585,262
444,2	2692,576
444,7	2796,662
445,1	2907,805
445,6	3022,205
446	3140,919
446,5	3260,519
446,9	3379,348
447,4	3500,205
447,8	3634,119
448,3	3763,948
448,7	3899,005
449,2	4033,69
449,6	4174,433
450,1	4319,862
450,6	4475,462
451	4614,119
451,5	4771,976
451,9	4929,662
452,4	5095,233
452,8	5252,576
453,3	5414,69
453,7	5570,548
454,2	5744,262
454,6	5905,805
455,1	6076,69
455,5	6255,29
456	6441,633
456,4	6626,462
456,9	6814,69
457,3	7003,919
457,8	7192,433
458,3	7383,719
458,7	7569,919
459,2	7769,033
459,6	7958,548
460,1	8157,033
460,5	8351,062
461	8556,005
461,4	8749,89
461,9	8947,69
462,3	9141,176
462,8	9350,862
463,2	9540,405
463,7	9746,262
464,1	9947,062
464,6	10157,576
465	10363,262
465,5	10568,805
466	10768,033
466,4	10970,662
466,9	11173,462
467,3	11370,862
467,8	11579,176
468,2	11780,433
468,7	11970,033
469,1	12171,576
469,6	12373,748
470	12563,433
470,5	12766,548
470,9	12944,748
471,4	13127,376
471,8	13317,462
472,3	13499,462
472,7	13678,805
473,2	13861,062
473,6	14027,233
474,1	14198,062
474,5	14367,005
475	14536,09
475,4	14693,805
475,9	14857,348
476,4	15011,805
476,8	15163,462
477,3	15307,548
477,7	15452,405
478,2	15576,89
478,6	15707,748
479,1	15823,205
479,5	15936,376
480	16053,719
480,4	16165,89
480,9	16266,748
481,3	16360,805
481,8	16455,062
482,2	16538,862
482,7	16636,433
483,1	16717,319
483,6	16782,005
484	16854,519
484,5	16945,405
484,9	17011,862
485,4	17084,576
485,8	17122,319
486,3	17161,519
486,7	17215,748
487,2	17258,205
487,6	17281,462
488,1	17298,948
488,5	17318,205
489	17336,805
489,4	17352,49
489,9	17344,148
490,4	17329,805
490,8	17308,205
491,3	17299,948
491,7	17277,519
492,2	17261,776
492,6	17230,062
493,1	17204,062
493,5	17170,148
494	17121,862
494,4	17072,89
494,9	17015,405
495,3	16942,633
495,8	16876,548
496,2	16812,005
496,7	16740,033
497,1	16687,033
497,6	16631,833
498	16566,119
498,5	16504,976
498,9	16425,948
499,4	16348,319
499,8	16273,09
500,3	16184,09
500,7	16090,09
501,2	16010,948
501,6	15913,033
502,1	15827,348
502,5	15731,976
503	15648,576
503,4	15567,805
503,9	15468,49
504,3	15362,748
504,8	15267,662
505,2	15171,033
505,7	15074,462
506,1	14962,548
506,6	14837,205
507	14725,205
507,5	14609,605
507,9	14488,433
508,4	14365,233
508,8	14240,633
509,3	14126,062
509,7	14009,319
510,2	13882,69
510,6	13751,748
511,1	13634,719
511,5	13511,89
512	13391,776
512,4	13249,948
512,9	13133,09
513,3	13011,89
513,8	12891,29
514,2	12758,062
514,7	12624,976
515,1	12498,033
515,6	12383,805
516	12247,462
516,5	12120,462
516,9	11993,376
517,4	11872,176
517,8	11763,062
518,3	11635,005
518,7	11497,405
519,2	11382,633
519,6	11261,262
520,1	11147,119
520,5	11027,09
521	10894,119
521,4	10774,633
521,9	10659,205
522,3	10538,748
522,8	10423,119
523,2	10303,948
523,7	10189,948
524,1	10079,919
524,6	9959,548
525	9853,405
525,5	9736,69
525,9	9619,29
526,4	9501,376
526,8	9396,748
527,3	9295,062
527,7	9198,148
528,2	9087,948
528,6	8986,89
529,1	8889,033
529,5	8806,176
530	8707,348
530,4	8607,062
530,9	8516,833
531,3	8430,69
531,8	8338,148
532,2	8253,748
532,6	8156,69
533,1	8058,205
533,5	7966,719
534	7870,005
534,4	7776,662
534,9	7692,262
535,3	7594,262
535,8	7520,919
536,2	7443,09
536,7	7360,433
537,1	7281,976
537,6	7201,119
538	7121,89
538,5	7048,605
538,9	6958,348
539,4	6885,062
539,8	6819,319
540,3	6747,662
540,7	6682,576
541,2	6612,119
541,6	6547,89
542,1	6484,033
542,5	6421,262
543	6353,119
543,4	6287,776
543,9	6223,033
544,3	6162,348
544,8	6093,062
545,2	6028,919
545,7	5969,405
546,1	5910,89
546,5	5855,805
547	5797,005
547,4	5731,005
547,9	5671,09
548,3	5618,09
548,8	5556,062
549,2	5498,519
549,7	5444,69
550,1	5394,748
550,6	5349,519
551	5311,176
551,5	5257,633
551,9	5212,776
552,4	5160,519
552,8	5116,205
553,3	5064,69
553,7	5017,748
554,2	4968,519
554,6	4927,319
555,1	4879,262
555,5	4842,376
555,9	4799,89
556,4	4762,948
556,8	4718,49
557,3	4678,262
557,7	4636,776
558,2	4600,062
558,6	4562,033
559,1	4523,376
559,5	4484,176
560	4456,119
560,4	4415,033
560,9	4383,148
561,3	4341,605
561,8	4307,605
562,2	4270,376
562,7	4231,262
563,1	4196,919
563,6	4164,29
564	4129,805
564,4	4100,462
564,9	4064,89
565,3	4034,833
565,8	4004,262
566,2	3968,662
566,7	3940,833
567,1	3908,09
567,6	3882,919
568	3848,719
568,5	3818,49
568,9	3789,348
569,4	3763,233
569,8	3732,576
570,3	3705,09
570,7	3671,119
571,1	3649,948
571,6	3622,405
572	3602,719
572,5	3567,005
572,9	3542,976
573,4	3509,719
573,8	3488,89
574,3	3460,49
574,7	3430,948
575,2	3403,205
575,6	3386,433
576,1	3368,233
576,5	3358,776
576,9	3334,776
577,4	3311,49
577,8	3293,576
578,3	3267,033
578,7	3246,376
579,2	3216,062
579,6	3179,348
580,1	3154,605
580,5	3138,776
581	3116,548
581,4	3094,976
581,9	3070,119
582,3	3053,233
582,7	3035,462
583,2	3019,576
583,6	2995,976
584,1	2977,49
584,5	2958,633
585	2941,376
585,4	2918,148
585,9	2901,033
586,3	2878,005
586,8	2860,29
587,2	2834,29
587,6	2823,348
588,1	2807,348
588,5	2794,69
589	2776,862
589,4	2758,719
589,9	2737,062
590,3	2722,29
590,8	2699,233
591,2	2678,148
591,7	2658,748
592,1	2649,376
592,5	2635,948
593	2622,09
593,4	2603,09
593,9	2588,948
594,3	2575,548
594,8	2558,462
595,2	2537,09
595,7	2519,519
596,1	2501,519
596,6	2491,262
597	2482,062
597,4	2473,719
597,9	2461,319
598,3	2453,69
598,8	2442,633
599,2	2432,776
599,7	2423,605
600,1	2403,89
600,6	2383,405
601	2370,176
601,4	2355,89
601,9	2349,576
602,3	2335,633
602,8	2320,633
603,2	2307,033
603,7	2297,233
604,1	2283,033
604,6	2266,662
605	2239,29
605,4	2229,548
605,9	2210,89
606,3	2199,576
606,8	2183,948
607,2	2170,462
607,7	2161,633
608,1	2155,148
608,6	2145,69
609	2142,519
609,4	2127,29
609,9	2115,319
610,3	2101,748
610,8	2087,805
611,2	2079,205
611,7	2057,605
612,1	2041,233
612,6	2031,976
613	2022,776
613,4	2006,633
613,9	1993,405
614,3	1970,319
614,8	1964,919
615,2	1949,433
615,7	1938,462
616,1	1928,862
616,6	1923,919
617	1911,976
617,4	1907,29
617,9	1898,948
618,3	1893,948
618,8	1888,662
619,2	1873,205
619,7	1866,262
620,1	1855,662
620,5	1851,462
621	1833,776
621,4	1825,548
621,9	1804,662
622,3	1789,805
622,8	1772,033
623,2	1764,89
623,6	1752,662
624,1	1746,576
624,5	1728,062
625	1724,748
625,4	1714,805
625,9	1705,005
626,3	1688,519
626,8	1674,119
627,2	1660,433
627,6	1644,605
628,1	1632,29
628,5	1625,005
629	1611,205
629,4	1601,862
629,9	1589,633
630,3	1574,09
630,7	1569,176
631,2	1556,719
631,6	1545,462
632,1	1536,233
632,5	1526,605
633	1522,433
633,4	1517,49
633,8	1502,633
634,3	1489,376
634,7	1477,576
635,2	1464,69
635,6	1455,919
636,1	1444,662
636,5	1431,69
636,9	1426,948
637,4	1419,805
637,8	1411,862
638,3	1405,862
638,7	1391,005
639,2	1374,748
639,6	1370,69
640	1359,69
640,5	1349,033
640,9	1340,49
641,4	1336,862
641,8	1329,69
642,2	1327,976
642,7	1326,519
643,1	1325,462
643,6	1315,69
644	1309,319
644,5	1305,033
644,9	1301,205
645,3	1292,176
645,8	1277,548
646,2	1269,633
646,7	1268,348
647,1	1256,776
647,6	1241,69
648	1233,233
648,4	1221,233
648,9	1210,262
649,3	1198,548
649,8	1191,09
650,2	1190,062
650,6	1185,119
651,1	1176,719
651,5	1176,805
652	1173,748
652,4	1165,862
652,9	1160,776
653,3	1147,319
653,7	1139,748
654,2	1134,49
654,6	1123,148
655,1	1113,576
655,5	1113,49
655,9	1099,976
656,4	1094,748
656,8	1090,776
657,3	1088,69
657,7	1084,262
658,2	1074,062
658,6	1058,633
659	1051,49
659,5	1040,09
659,9	1030,862
660,4	1017,348
660,8	1003,433
661,2	1001,033
661,7	996,148
662,1	993,605
662,6	991,176
663	981,805
663,4	969,005
663,9	970,176
664,3	960,233
664,8	954,548
665,2	940,776
665,6	931,176
666,1	925,948
666,5	924,833
667	913,462
667,4	905,833
667,9	899,633
668,3	895,519
668,7	890,433
669,2	886,433
669,6	880,29
670,1	872,148
670,5	868,719
670,9	860,805
671,4	855,862
671,8	851,376
672,3	843,462
672,7	833,862
673,1	824,976
673,6	815,49
674	813,376
674,5	808,862
674,9	800,605
675,3	790,233
675,8	787,776
676,2	783,948
676,7	779,176
677,1	771,833
677,5	763,148
678	760,519
678,4	765,462
678,9	759,919
679,3	758,005
679,7	752,576
680,2	744,833
680,6	739,119
681,1	734,148
681,5	723,262
681,9	720,433
682,4	712,748
682,8	708,919
683,3	709,205
683,7	707,805
684,1	700,433
684,6	695,919
685	690,719
685,5	685,176
685,9	679,033
686,3	666,833
686,8	661,033
687,2	657,119
687,7	650,719
688,1	640,833
688,5	640,633
689	638,348
689,4	636,948
689,9	632,062
690,3	625,405
690,7	620,776
691,2	619,69
691,6	614,119
692	609,776
692,5	606,233
692,9	604,033
693,4	603,262
693,8	604,319
694,2	600,433
694,7	593,005
695,1	588,519
695,6	586,662
696	583,49
696,4	580,976
696,9	568,69
697,3	561,233
697,8	559,433
698,2	547,548
698,6	546,805
699,1	541,405
699,5	539,176
699,9	540,49
700,4	537,69
700,8	534,605
701,3	539,033
701,7	529,748
702,1	523,548
702,6	515,09
703	509,233
703,5	506,033
703,9	497,519
704,3	493,69
704,8	486,748
705,2	483,376
705,6	479,919
706,1	474,69
706,5	469,776
707	473,176
707,4	470,119
707,8	468,005
708,3	466,205
708,7	462,633
709,2	461,176
709,6	460,748
710	458,262
710,5	451,519
710,9	447,805
711,3	442,862
711,8	441,719
712,2	439,805
712,7	432,719
713,1	427,262
713,5	428,119
714	426,662
714,4	421,462
714,8	413,376
715,3	407,748
715,7	406,433
716,2	400,062
716,6	396,69
717	394,748
717,5	392,262
717,9	395,89
718,3	389,89
718,8	389,29
719,2	384,005
719,7	377,919
720,1	374,719
720,5	376,919
721	366,862
721,4	368,89
721,8	372,976
722,3	368,233
722,7	368,119
723,2	360,205
723,6	348,719
724	345,376
724,5	337,948
724,9	326,262
725,3	327,948
725,8	323,576
726,2	319,662
726,7	323,433
727,1	326,719
727,5	328,69
728	326,719
728,4	325,89
728,8	322,348
729,3	321,148
729,7	314,748
730,1	312,062
730,6	311,005
731	307,605
731,5	308,148
731,9	305,29
732,3	303,662
732,8	309,862
733,2	305,005
733,6	298,319
734,1	298,405
734,5	292,233
734,9	294,09
735,4	292,748
735,8	279,948
736,3	282,49
736,7	279,176
737,1	279,119
737,6	276,548
738	275,776
738,4	273,976
738,9	278,748
739,3	275,005
739,7	275,976
740,2	268,605
740,6	274,548
741,1	269,976
741,5	269,205
741,9	267,69
742,4	267,519
742,8	269,262
743,2	272,29
743,7	261,576
744,1	259,605
744,5	258,319
745	252,805
745,4	248,29
745,8	243,376
746,3	240,205
746,7	242,919
747,2	240,89
747,6	241,376
748	246,319
748,5	248,205
748,9	246,976
749,3	248,262
749,8	248,833
750,2	249,233
750,6	244,719
751,1	240,119
751,5	234,062
751,9	230,89
752,4	229,948
752,8	227,605
753,3	223,776
753,7	223,405
754,1	218,319
754,6	215,348
755	214,376
755,4	205,548
755,9	200,033
756,3	198,519
756,7	199,919
757,2	201,319
757,6	203,919
758	202,89
758,5	204,662
758,9	206,09
759,3	210,49
759,8	206,348
760,2	205,29
760,6	205,233
761,1	202,205
761,5	205,033
761,9	203,976
762,4	200,69
762,8	201,148
763,3	197,29
763,7	195,033
764,1	195,462
764,6	193,119
765	193,005
765,4	190,605
765,9	191,89
766,3	192,976
766,7	189,519
767,2	189,29
767,6	192,605
768	189,833
768,5	187,69
768,9	184,262
769,3	181,605
769,8	177,262
770,2	177,748
770,6	169,776
771,1	168,49
771,5	168,805
771,9	168,119
772,4	172,548
772,8	174,462
773,2	172,633
773,7	168,49
774,1	169,319
774,5	164,176
775	161,176
775,4	157,29
775,8	151,09
776,3	151,548
776,7	156,062
777,1	152,69
777,6	155,405
778	158,376
778,4	154,376
778,9	160,205
779,3	154,719
779,7	154,576
780,2	155,719
780,6	154,29
781	146,119
781,5	145,062
781,9	145,605
782,3	143,262
782,8	144,119
783,2	137,976
783,6	137,976
784,1	139,49
784,5	139,576
784,9	132,948
785,4	137,09
785,8	130,948
786,2	135,405
786,7	131,633
787,1	129,433
787,5	130,89
788	133,376
788,4	134,09
788,8	133,462
789,3	131,262
789,7	134,833
790,1	135,433
790,6	135,748
791	128,776
791,4	127,376
791,9	125,719
792,3	120,805
792,7	120,748
793,2	117,833
793,6	113,605
794	119,548
794,5	116,576
794,9	118,233
795,3	124,348
795,8	118,29
796,2	121,776
796,6	123,919
797,1	120,69
797,5	114,919
797,9	111,976
798,4	104,262
798,8	106,319
799,2	103,49
799,7	104,776
800,1	107,548
800,5	112,176
801	115,49
801,4	113,862
801,8	109,719
802,2	107,633
802,7	100,576
803,1	97,062
803,5	98,176
804	93,033
804,4	94,69
804,8	95,49
805,3	96,748
805,7	98,262
806,1	99,062
806,6	97,805
807	98,319
807,4	98,948
807,9	94,348
808,3	93,376
808,7	93,862
809,2	93,262
809,6	94,69
810	95,376
810,4	95,348
810,9	98,776
811,3	99,405
811,7	98,948
812,2	103,605
812,6	96,348
813	97,005
813,5	95,062
813,9	93,662
814,3	94,033
814,8	90,633
815,2	83,348
815,6	87,833
816,1	88,319
816,5	90,033
816,9	89,89
817,3	87,005
817,8	92,976
818,2	97,033
818,6	92,805
819,1	91,462
819,5	92,148
819,9	95,09
820,4	94,09
820,8	85,205
821,2	75,69
821,7	77,462
822,1	76,033
822,5	78,033
822,9	74,69
823,4	74,405
823,8	79,405
824,2	85,719
824,7	81,576
825,1	76,005
825,5	69,319
826	63,262
826,4	65,005
826,8	61,062
827,3	62,348
827,7	61,976
828,1	65,662
828,5	66,405
829	66,433
829,4	65,519
829,8	61,176
830,3	57,976
830,7	58,033
831,1	54,376
831,6	51,919
832	56,776
832,4	56,062
832,8	59,633
833,3	58,119
833,7	58,033
834,1	60,605
834,6	62,405
835	61,405
835,4	60,69
835,8	54,005
836,3	55,719
836,7	57,919
837,1	55,576
837,6	56,576
838	54,433
838,4	52,576
838,9	57,376
839,3	53,462
839,7	54,719
840,1	47,09
840,6	44,862
841	45,948
841,4	46,719
841,9	48,319
842,3	47,948
842,7	43,09
843,1	51,69
843,6	53,462
844	50,748
844,4	53,49
844,9	54,29
845,3	58,176
845,7	58,233
846,2	53,405
846,6	49,862
847	54,548
847,4	50,033
847,9	49,348
848,3	45,433
848,7	46,948
849,2	48,433
849,6	46,148
850	47,062
850,4	46,29
850,9	48,148
851,3	52,376
851,7	52,062
852,2	50,148
852,6	53,233
853	49,176
853,4	48,662
853,9	41,148
854,3	37,662
854,7	37,49
855,2	38,976
855,6	40,576
856	39,776
856,4	38,433
856,9	41,119
857,3	40,062
857,7	41,576
858,2	45,233
858,6	42,233
859	43,29
859,4	39,148
859,9	36,49
860,3	35,776
860,7	31,233
861,1	31,29
861,6	31,205
862	30,605
862,4	35,262
862,9	33,405
863,3	34,09
863,7	36,519
864,1	35,233
864,6	32,176
865	29,348
865,4	30,062
865,9	38,319
866,3	31,833
866,7	27,833
867,1	22,976
867,6	26,976
868	26,005
868,4	22,319
868,8	21,89
869,3	25,576
869,7	29,148
870,1	29,719
870,6	27,09
871	11,605
871,4	17,748
871,8	14,719
872,3	18,748
872,7	20,319
873,1	24,605
873,5	25,405
874	43,548
874,4	40,405
874,8	39,548
875,3	42,662
875,7	37,976
876,1	36,119
876,5	36,548
877	35,29
877,4	32,319
877,8	32,176
878,2	30,862
878,7	29,405
879,1	28,433
879,5	27,89
879,9	28,633
880,4	31,833
880,8	30,005
881,2	24,205
881,7	26,062
882,1	23,862
882,5	21,233
882,9	17,576
883,4	14,576
883,8	17,233
884,2	18,462
884,6	17,462
885,1	21,519
885,5	22,09
885,9	22,89
886,3	25,09
886,8	21,805
887,2	21,062
887,6	20,376
888	15,89
888,5	15,033
888,9	12,919
889,3	10,948
889,8	11,69
890,2	10,348
890,6	10,462
891	13,948
891,5	12,805
891,9	17,405
892,3	19,176
892,7	19,405
893,2	21,719
893,6	23,748
894	24,719
894,4	26,919
894,9	23,09
895,3	21,576
895,7	23,862
896,1	19,833
896,6	21,376
897	16,919
897,4	22,062
897,8	25,176
898,3	27,548
898,7	26,205
899,1	27,833
899,5	21,119
900	19,319
900,4	13,576
900,8	11,576
901,2	6,09
901,7	3,433
902,1	4,748
902,5	8,319
902,9	6,919
903,4	8,919
903,8	8,576
904,2	12,233
904,6	9,919
905,1	8,433
905,5	9,548
905,9	15,205
906,3	14,462
906,8	17,862
907,2	12,49
907,6	18,548
908	21,29
908,5	18,519
908,9	13,148
909,3	12,948
909,7	12,148
910,2	16,605
910,6	16,062
911	12,948
911,4	15,062
911,9	18,519
912,3	18,576
912,7	19,919
913,1	22,49
913,6	16,633
914	16,662
914,4	12,748
914,8	11,262
915,3	9,805
915,7	7,319
916,1	3,89
916,5	5,405
916,9	9,49
917,4	11,462
917,8	15,605
918,2	11,405
918,6	10,262
919,1	11,348
919,5	14,376
919,9	12,89
920,3	9,376
920,8	8,69
921,2	12,948
921,6	9,805
922	9,176
922,5	9,062
922,9	10,433
923,3	11,405
923,7	11,89
924,2	7,89
924,6	9,719
925	10,062
925,4	7,748
925,8	2,633
926,3	2,519
926,7	-2,681
927,1	0,062
927,5	2,948
928	1,062
928,4	-0,081
928,8	5,976
929,2	7,348
929,7	9,748
930,1	8,719
930,5	5,233
930,9	9,833
931,3	11,376
931,8	9,948
932,2	12,176
932,6	12,09
933	8,005
933,5	10,233
933,9	8,576
934,3	9,633
934,7	5,09
935,2	6,919
935,6	9,748
936	12,833
936,4	14,919
936,8	17,948
937,3	14,976
937,7	18,29
938,1	18,948
938,5	14,033
939	16,548
939,4	15,49
939,8	8,49
940,2	8,519
940,6	8,776
941,1	3,605
941,5	8,662
941,9	9,062
942,3	4,09
942,8	6,605
943,2	9,262
943,6	4,062
944	4,29
944,4	1,948
944,9	-1,538
945,3	-0,567
945,7	-5,681
946,1	-11,881
946,6	-13,681
947	-13,652
947,4	-10,424
947,8	-9,881
948,2	-9,424
948,7	-5,367
949,1	-1,452
949,5	6,49
949,9	8,662
950,3	2,062
950,8	3,662
951,2	5,948
951,6	6,29
952	12,233
952,5	5,948
952,9	4,29
953,3	4,919
953,7	3,89
954,1	2,29
954,6	2,49
955	2,176
955,4	2,805
955,8	9,862
956,2	10,319
956,7	10,348
957,1	8,805
957,5	8,919
957,9	4,89
958,3	7,405
958,8	3,119
959,2	3,662
959,6	6,662
960	5,148
960,5	11,062
960,9	14,119
961,3	12,948
961,7	12,148
962,1	10,919
962,6	13,462
963	15,062
963,4	5,862
963,8	6,948
964,2	8,376
964,7	6,862
965,1	15,948
965,5	12,719
965,9	12,662
966,3	17,062
966,8	14,519
967,2	17,148
967,6	17,49
968	9,919
968,4	9,033
968,9	10,633
969,3	12,519
969,7	9,748
970,1	6,09
970,5	8,062
971	9,405
971,4	8,919
971,8	11,29
972,2	6,976
972,6	4,919
973,1	4,919
973,5	1,976
973,9	3,319
974,3	4,462
974,7	8,005
975,2	11,49
975,6	14,262
976	16,49
976,4	11,748
976,8	7,719
977,3	6,176
977,7	-3,281
978,1	-4,824
978,5	-8,024
978,9	-14,624
979,4	-11,167
979,8	-12,738
980,2	-14,167
980,6	-10,481
981	-12,252
981,5	-8,91
981,9	-1,71
982,3	4,348
982,7	7,976
983,1	5,433
983,6	6,662
984	10,205
984,4	12,748
984,8	10,433
985,2	6,348
985,6	5,605
986,1	11,405
986,5	11,548
986,9	6,605
987,3	9,576
987,7	9,862
988,2	7,119
988,6	6,89
989	5,862
989,4	3,948
989,8	7,462
990,3	-0,681
990,7	0,719
991,1	1,348
991,5	2,662
991,9	2,29
992,3	5,605
992,8	8,719
993,2	10,862
993,6	11,548
994	14,09
994,4	14,29
994,9	14,833
995,3	13,662
995,7	5,348
996,1	5,605
996,5	3,805
996,9	2,633
997,4	3,976
997,8	-3,567
998,2	-6,767
998,6	-11,367
999	-9,995
999,5	-11,795
999,9	-9,395
1000,3	-10,652
1000,7	-7,738
1001,1	-9,538
1001,5	1,09
1002	3,176
1002,4	5,376
1002,8	3,348
1003,2	5,033
1003,6	13,376
1004	15,862
1004,5	8,776
1004,9	6,148
1005,3	1,548
1005,7	1,719
1006,1	-2,938
1006,6	-7,452
1007	-2,367
1007,4	1,005
1007,8	-0,11
1008,2	0,89
1008,6	6,09
1009,1	10,433
1009,5	9,376
1009,9	7,776
1010,3	9,776
1010,7	8,833
1011,1	9,348
1011,6	3,462
1012	0,233
1012,4	0,976
1012,8	-3,338
1013,2	0,948
1013,6	2,062
1014,1	3,833
1014,5	3,148
1014,9	2,062
1015,3	0,976
1015,7	3,833
1016,1	-2,538
1016,6	-1,281
1017	1,119
1017,4	2,948
1017,8	4,976
1018,2	7,948
1018,6	3,405
1019,1	3,205
1019,5	2,805
1019,9	-3,281
1020,3	-6,681
1020,7	-8,624
1021,1	-10,567
1021,6	-6,31
1022	-2,51
1022,4	-1,967
1022,8	4,833
1023,2	11,49
1023,6	13,519
1024,1	16,919
1024,5	16,89
1024,9	13,576
1025,3	12,348
1025,7	9,205
1026,1	7,976
1026,6	5,69
1027	8,205
1027,4	8,09
1027,8	9,348
1028,2	3,748
1028,6	2,748
1029	-3,195
1029,5	1,69
1029,9	-5,195
1030,3	-4,795
1030,7	-5,795
1031,1	1,033
1031,5	0,948
1032	5,633
1032,4	3,719
1032,8	5,605
1033,2	5,605
1033,6	8,376
1034	5,633
1034,4	4,948
1034,9	5,748
1035,3	4,862
1035,7	7,633
1036,1	3,69
1036,5	-1,338
1036,9	3,233
1037,4	5,89
1037,8	2,062
1038,2	2,605
1038,6	2,748
1039	10,262
1039,4	18,833
1039,8	8,69
1040,3	9,976
1040,7	10,833
1041,1	12,605
1041,5	11,862
1041,9	4,89
1042,3	-5,052
1042,7	2,405
1043,2	-1,595
1043,6	-0,51
1044	-2,538
1044,4	-2,938
1044,8	-0,252
1045,2	1,033
1045,6	3,148
1046,1	5,662
1046,5	5,89
1046,9	-0,224
1047,3	-3,767
1047,7	-2,11
1048,1	0,548
1048,5	-1,195
1049	-1,024
1049,4	3,719
1049,8	11,062
1050,2	14,462
1050,6	18,405
1051	16,119
1051,4	13,09
1051,9	9,233
1052,3	10,348
1052,7	10,062
1053,1	3,062
1053,5	0,148
1053,9	5,433
1054,3	5,919
1054,8	12,176
1055,2	6,69
1055,6	10,433
1056	15,405
1056,4	9,548
1056,8	7,233
1057,2	5,776
1057,6	0,176
1058,1	-2,881
1058,5	-8,452
1058,9	-6,967
1059,3	-4,481
1059,7	-3,767
1060,1	0,89
1060,5	3,976
1061	5,833
1061,4	7,519
1061,8	7,119
1062,2	11,576
1062,6	10,69
1063	12,405
1063,4	14,205
1063,8	14,776
1064,3	15,262
1064,7	15,548
1065,1	10,605
1065,5	7,576
1065,9	-1,51
1066,3	-6,367
1066,7	-5,367
1067,1	-11,395
1067,6	-8,852
1068	-10,024
1068,4	-5,11
1068,8	4,205
1069,2	6,033
1069,6	5,348
1070	10,176
1070,4	5,033
1070,9	4,605
1071,3	2,062
1071,7	-3,767
1072,1	-1,995
1072,5	-3,624
1072,9	-6,795
1073,3	-4,052
1073,7	-6,195
1074,2	-1,995
1074,6	0,548
1075	-2,538
1075,4	-2,481
1075,8	1,633
1076,2	3,49
1076,6	6,548
1077	4,548
1077,5	7,976
1077,9	7,805
1078,3	7,462
1078,7	7,89
1079,1	4,69
1079,5	3,776
1079,9	2,119
1080,3	0,205
1080,7	1,605
1081,2	5,862
1081,6	0,948
1082	-2,795
1082,4	9,176
1082,8	10,833
1083,2	9,033
1083,6	10,748
1084	8,462
1084,5	10,405
1084,9	15,09
1085,3	2,919
1085,7	5,205
1086,1	5,69
1086,5	5,576
1086,9	6,033
1087,3	6,833
1087,7	3,005
1088,2	8,233
1088,6	2,09
1089	4,719
1089,4	2,719
1089,8	4,062
1090,2	0,062
1090,6	1,662
1091	1,948
1091,4	6,633
1091,9	4,119
1092,3	4,205
1092,7	0,548
1093,1	4,062
1093,5	4,033
1093,9	-0,31
1094,3	2,09
1094,7	-1,767
1095,1	-0,195
1095,5	1,462
1096	0,976
1096,4	3,948
1096,8	3,662
1097,2	-1,252
1097,6	6,89
1098	4,748
1098,4	8,119
1098,8	12,29
1099,2	15,062
1099,6	16,805
1100,1	15,29
1100,5	8,776
1100,9	9,148
1101,3	7,89
1101,7	4,319
1102,1	0,09
1102,5	1,748
1102,9	3,805
1103,3	9,205
1103,7	8,976
1104,2	4,862
1104,6	6,319
1105	5,262
1105,4	4,09
1105,8	2,89
1106,2	-1,281
1106,6	-0,91
1107	1,005
1107,4	-0,533
1107,8	0,473
1108,3	-0,717
