Data from Subt2_167.txt Node
Date: Sat Aug 26 18:35:28 MSK 2023
User: vat
Spectrometer: MAYP114033
Trigger mode: 0
Integration Time (sec): 1,000000E0
Scans to average: 5
Electric dark correction enabled: true
Nonlinearity correction enabled: false
Boxcar width: 3
XAxis mode: Wavelengths
Number of Pixels in Spectrum: 2068
>>>>>Begin Spectral Data<<<<<
199,4	0,467
199,9	1,767
200,4	-0,6
200,8	-0,576
201,3	-1,833
201,8	-1,719
202,2	-3,29
202,7	-0,005
203,2	1,795
203,6	0,738
204,1	-2,605
204,6	-3,976
205	-1,919
205,5	-2,519
206	-4,376
206,4	-8,005
206,9	-6,005
207,4	-1,176
207,8	0,195
208,3	-2,119
208,8	1,738
209,2	6,11
209,7	4,995
210,2	7,995
210,6	5,967
211,1	3,881
211,5	-0,262
212	-2,548
212,5	-7,062
212,9	-6,205
213,4	-7,519
213,9	-7,633
214,3	-2,148
214,8	4,138
215,3	1,052
215,7	-0,119
216,2	1,31
216,7	-0,119
217,1	0,881
217,6	0,91
218,1	-2,348
218,5	0,681
219	-3,376
219,5	-1,119
219,9	-6,033
220,4	1,938
220,9	-0,319
221,3	3,052
221,8	6,852
222,3	10,681
222,7	7,938
223,2	12,595
223,6	1,738
224,1	0,595
224,6	2,995
225	-3,148
225,5	-6,176
226	-5,662
226,4	-3,976
226,9	-2,033
227,4	-3,033
227,8	-14,033
228,3	-11,062
228,8	-8,49
229,2	-8,948
229,7	-9,919
230,2	-9,205
230,6	-2,605
231,1	9,624
231,5	8,624
232	12,567
232,5	12,11
232,9	15,567
233,4	16,11
233,9	12,681
234,3	7,967
234,8	7,881
235,3	4,052
235,7	6,395
236,2	3,052
236,7	0,852
237,1	-1,919
237,6	-5,89
238,1	-6,148
238,5	-10,748
239	-11,805
239,4	-7,548
239,9	-5,976
240,4	-6,062
240,8	-1,262
241,3	1,081
241,8	6,424
242,2	5,595
242,7	-1,062
243,2	1,395
243,6	1,938
244,1	2,167
244,6	-1,805
245	-3,205
245,5	-2,919
245,9	-1,233
246,4	-0,148
246,9	6,567
247,3	7,852
247,8	11,367
248,3	13,024
248,7	12,824
249,2	15,395
249,7	13,195
250,1	12,681
250,6	5,71
251	9,595
251,5	10,31
252	11,795
252,4	12,195
252,9	9,738
253,4	1,367
253,8	3,252
254,3	-0,69
254,8	-1,062
255,2	-2,976
255,7	-5,49
256,1	-3,319
256,6	0,71
257,1	3,795
257,5	3,795
258	0,424
258,5	0,767
258,9	1,024
259,4	-1,833
259,9	-3,376
260,3	-6,805
260,8	-14,262
261,2	-12,29
261,7	-10,576
262,2	-13,005
262,6	-13,348
263,1	-9,062
263,6	-6,49
264	1,738
264,5	5,338
264,9	1,767
265,4	2,595
265,9	4,852
266,3	3,11
266,8	3,852
267,3	3,538
267,7	-0,49
268,2	1,224
268,7	3,852
269,1	0,338
269,6	-3,662
270	1,138
270,5	-0,462
271	0,481
271,4	2,167
271,9	-2,033
272,4	1,738
272,8	1,967
273,3	-4,519
273,7	-3,319
274,2	-3,776
274,7	-4,948
275,1	-0,176
275,6	3,224
276,1	4,481
276,5	8,338
277	8,938
277,4	7,624
277,9	9,052
278,4	8,567
278,8	6,71
279,3	7,567
279,8	4,795
280,2	3,167
280,7	9,71
281,1	6,481
281,6	1,51
282,1	1,938
282,5	1,224
283	0,224
283,4	0,51
283,9	1,11
284,4	2,367
284,8	5,795
285,3	1,567
285,8	3,138
286,2	2,824
286,7	-0,148
287,1	-4,833
287,6	-5,348
288,1	-8,176
288,5	-4,919
289	-4,205
289,5	-5,062
289,9	-4,233
290,4	-4,376
290,8	-1,49
291,3	2,595
291,8	5,081
292,2	2,91
292,7	10,824
293,1	11,024
293,6	11,995
294,1	7,252
294,5	8,281
295	3,452
295,5	0,138
295,9	-2,205
296,4	-4,862
296,8	-8,833
297,3	-5,605
297,8	-12,919
298,2	-13,833
298,7	-8,09
299,1	-9,062
299,6	-7,919
300,1	-6,49
300,5	-5,89
301	1,224
301,5	5,338
301,9	-1,005
302,4	-3,205
302,8	-1,862
303,3	-3,919
303,8	-6,748
304,2	-10,433
304,7	-10,89
305,1	-7,319
305,6	-7,776
306,1	-4,233
306,5	3,052
307	7,881
307,4	10,252
307,9	8,681
308,4	8,538
308,8	5,538
309,3	3,852
309,8	-3,69
310,2	-5,69
310,7	-9,205
311,1	-9,09
311,6	-5,919
312,1	-3,119
312,5	-2,548
313	2,624
313,4	1,338
313,9	5,167
314,4	4,252
314,8	0,167
315,3	-0,49
315,7	-2,433
316,2	-3,205
316,7	-5,748
317,1	-3,376
317,6	-2,805
318	1,681
318,5	-0,033
319	2,281
319,4	1,967
319,9	9,652
320,3	8,195
320,8	3,367
321,3	4,624
321,7	7,767
322,2	4,595
322,6	6,395
323,1	1,767
323,6	-0,348
324	1,738
324,5	-5,719
324,9	-6,433
325,4	-5,433
325,9	-6,319
326,3	-5,633
326,8	-4,49
327,2	-3,748
327,7	-0,919
328,2	-0,29
328,6	2,995
329,1	-0,405
329,5	0,595
330	0,767
330,5	2,51
330,9	4,738
331,4	4,195
331,8	0,738
332,3	3,481
332,8	2,052
333,2	1,767
333,7	2,624
334,1	6,91
334,6	4,367
335,1	2,452
335,5	2,11
336	2,081
336,4	2,452
336,9	7,452
337,4	6,024
337,8	9,681
338,3	11,824
338,7	14,481
339,2	12,195
339,7	12,767
340,1	6,538
340,6	3,367
341	0,452
341,5	1,281
342	-4,29
342,4	-4,69
342,9	-7,205
343,3	-7,69
343,8	-7,405
344,2	-3,176
344,7	0,995
345,2	3,481
345,6	2,681
346,1	7,224
346,5	5,195
347	4,852
347,5	0,11
347,9	-1,062
348,4	-1,748
348,8	-0,262
349,3	-2,919
349,8	0,624
350,2	5,624
350,7	6,91
351,1	6,995
351,6	12,538
352	16,452
352,5	22,567
353	29,652
353,4	30,224
353,9	39,681
354,3	48,995
354,8	54,252
355,3	70,252
355,7	83,081
356,2	96,51
356,6	114,738
357,1	133,595
357,5	152,624
358	182,224
358,5	207,081
358,9	239,938
359,4	277,995
359,8	318,11
360,3	369,881
360,8	419,567
361,2	476,367
361,7	542,138
362,1	616,795
362,6	692,252
363	776,052
363,5	858,824
364	958,795
364,4	1052,738
364,9	1143,395
365,3	1232,881
365,8	1321,852
366,3	1404,595
366,7	1478,052
367,2	1544,367
367,6	1594,081
368,1	1640,624
368,5	1663,967
369	1679,081
369,5	1684,224
369,9	1672,167
370,4	1638,852
370,8	1604,967
371,3	1551,395
371,7	1499,538
372,2	1430,595
372,7	1359,138
373,1	1283,767
373,6	1214,081
374	1137,995
374,5	1068,538
374,9	991,852
375,4	924,767
375,9	855,138
376,3	790,852
376,8	724,252
377,2	667,167
377,7	608,281
378,2	555,595
378,6	508,824
379,1	467,367
379,5	435,938
380	403,938
380,4	370,595
380,9	340,424
381,4	308,567
381,8	288,195
382,3	264,167
382,7	241,652
383,2	225,31
383,6	210,538
384,1	196,138
384,6	188,081
385	170,738
385,5	160,452
385,9	143,224
386,4	127,538
386,8	118,224
387,3	108,338
387,7	101,567
388,2	98,852
388,7	89,595
389,1	86,052
389,6	81,338
390	73,424
390,5	71,967
390,9	72,081
391,4	62,395
391,9	57,767
392,3	57,31
392,8	49,481
393,2	43,652
393,7	39,71
394,1	30,052
394,6	26,224
395,1	25,967
395,5	22,795
396	26,738
396,4	29,681
396,9	28,081
397,3	31,424
397,8	35,252
398,2	34,51
398,7	29,995
399,2	30,052
399,6	27,195
400,1	28,31
400,5	25,395
401	22,995
401,4	20,567
401,9	27,252
402,4	24,024
402,8	21,767
403,3	22,281
403,7	25,51
404,2	31,767
404,6	38,052
405,1	33,681
405,5	32,081
406	36,624
406,5	33,281
406,9	29,881
407,4	24,595
407,8	17,167
408,3	22,967
408,7	23,281
409,2	24,51
409,6	29,024
410,1	30,852
410,6	38,052
411	46,024
411,5	43,31
411,9	48,51
412,4	48,795
412,8	50,367
413,3	54,852
413,7	52,938
414,2	51,252
414,7	55,938
415,1	62,367
415,6	66,11
416	69,852
416,5	70,795
416,9	70,281
417,4	76,081
417,8	82,595
418,3	87,367
418,8	90,31
419,2	91,738
419,7	93,538
420,1	99,595
420,6	102,795
421	95,252
421,5	94,395
421,9	97,538
422,4	101,967
422,8	106,224
423,3	108,824
423,8	106,424
424,2	110,967
424,7	116,252
425,1	118,91
425,6	120,538
426	120,195
426,5	121,852
426,9	126,652
427,4	128,167
427,9	120,595
428,3	120,395
428,8	120,052
429,2	119,11
429,7	120,995
430,1	124,481
430,6	131,138
431	133,824
431,5	139,91
431,9	145,824
432,4	154,024
432,8	159,452
433,3	162,824
433,8	165,51
434,2	178,567
434,7	183,91
435,1	191,967
435,6	200,481
436	204,281
436,5	215,281
436,9	220,681
437,4	225,51
437,8	234,967
438,3	242,595
438,8	251,71
439,2	265,224
439,7	275,538
440,1	290,624
440,6	305,052
441	315,195
441,5	326,938
441,9	339,852
442,4	349,652
442,8	361,052
443,3	377,281
443,7	392,538
444,2	409,852
444,7	425,995
445,1	443,252
445,6	456,195
446	471,881
446,5	482,738
446,9	498,11
447,4	518,567
447,8	537,881
448,3	558,652
448,7	582,51
449,2	606,852
449,6	637,51
450,1	654,252
450,6	672,652
451	695,167
451,5	718,967
451,9	747,91
452,4	777,424
452,8	794,967
453,3	825,738
453,7	851,652
454,2	880,395
454,6	908,624
455,1	934,681
455,5	954,995
456	987,138
456,4	1014,281
456,9	1045,081
457,3	1073,195
457,8	1098,51
458,3	1122,481
458,7	1151,51
459,2	1185,338
459,6	1220,567
460,1	1252,967
460,5	1279,852
461	1317,71
461,4	1350,367
461,9	1387,167
462,3	1417,481
462,8	1453,738
463,2	1488,367
463,7	1526,31
464,1	1561,795
464,6	1608,281
465	1640,824
465,5	1677,281
466	1708,681
466,4	1742,567
466,9	1780,395
467,3	1806,652
467,8	1836,252
468,2	1874,481
468,7	1902,652
469,1	1945,681
469,6	1974,338
470	2005,452
470,5	2041,424
470,9	2071,538
471,4	2098,624
471,8	2134,567
472,3	2158,881
472,7	2193,795
473,2	2223,652
473,6	2253,595
474,1	2288,024
474,5	2320,252
475	2353,824
475,4	2377,71
475,9	2408,052
476,4	2438,481
476,8	2466,538
477,3	2490,824
477,7	2522,624
478,2	2547,91
478,6	2576,967
479,1	2595,681
479,5	2620,367
480	2641,567
480,4	2659,195
480,9	2674,595
481,3	2690,224
481,8	2706,938
482,2	2722,624
482,7	2729,595
483,1	2744,281
483,6	2756,024
484	2763,595
484,5	2775,195
484,9	2781,881
485,4	2795,081
485,8	2806,624
486,3	2820,738
486,7	2832,395
487,2	2844,138
487,6	2847,91
488,1	2855,51
488,5	2857,31
489	2873,338
489,4	2868,281
489,9	2865,081
490,4	2865,824
490,8	2865,424
491,3	2863,452
491,7	2861,795
492,2	2853,195
492,6	2855,767
493,1	2854,824
493,5	2847,538
494	2840,11
494,4	2835,567
494,9	2830,967
495,3	2825,881
495,8	2807,595
496,2	2801,481
496,7	2786,424
497,1	2781,367
497,6	2770,081
498	2764,767
498,5	2752,652
498,9	2749,824
499,4	2731,967
499,8	2733,024
500,3	2717,595
500,7	2700,281
501,2	2678,938
501,6	2658,052
502,1	2637,252
502,5	2626,595
503	2602,767
503,4	2581,31
503,9	2566,481
504,3	2549,395
504,8	2536,138
505,2	2518,91
505,7	2500,681
506,1	2485,424
506,6	2474,51
507	2457,481
507,5	2442,138
507,9	2414,824
508,4	2394,567
508,8	2370,824
509,3	2340,995
509,7	2321,481
510,2	2299,538
510,6	2274,567
511,1	2257,767
511,5	2243,71
512	2221,538
512,4	2213,024
512,9	2185,738
513,3	2173,195
513,8	2150,824
514,2	2130,31
514,7	2107,881
515,1	2093,938
515,6	2070,024
516	2047,795
516,5	2020,452
516,9	2000,452
517,4	1978,795
517,8	1952,281
518,3	1925,138
518,7	1895,452
519,2	1876,967
519,6	1854,252
520,1	1832,167
520,5	1810,938
521	1789,224
521,4	1773,052
521,9	1758,738
522,3	1739,281
522,8	1715,081
523,2	1698,481
523,7	1677,367
524,1	1658,852
524,6	1638,681
525	1615,71
525,5	1596,367
525,9	1583,167
526,4	1563,452
526,8	1541,995
527,3	1523,395
527,7	1505,081
528,2	1489,652
528,6	1469,595
529,1	1453,367
529,5	1438,681
530	1425,167
530,4	1409,081
530,9	1392,11
531,3	1370,91
531,8	1359,367
532,2	1343,567
532,6	1321,71
533,1	1305,224
533,5	1293,538
534	1276,481
534,4	1266,91
534,9	1249,681
535,3	1232,195
535,8	1222,052
536,2	1206,138
536,7	1186,252
537,1	1172,652
537,6	1154,681
538	1138,595
538,5	1129,281
538,9	1115,31
539,4	1105,938
539,8	1093,652
540,3	1082,91
540,7	1073,167
541,2	1055,567
541,6	1041,71
542,1	1027,224
542,5	1016,71
543	1003,395
543,4	988,395
543,9	976,481
544,3	972,938
544,8	957,967
545,2	949,51
545,7	941,424
546,1	935,11
546,5	931,767
547	920,824
547,4	910,167
547,9	904,195
548,3	891,824
548,8	878,995
549,2	867,424
549,7	856,91
550,1	853,51
550,6	848,681
551	837,624
551,5	833,767
551,9	823,452
552,4	818,024
552,8	806,681
553,3	794,252
553,7	776,281
554,2	770,995
554,6	761,281
555,1	761,424
555,5	753,481
555,9	748,738
556,4	740,138
556,8	738,71
557,3	731,452
557,7	727,967
558,2	715,824
558,6	709,995
559,1	698,652
559,5	690,252
560	686,567
560,4	680,481
560,9	669,652
561,3	660,767
561,8	653,967
562,2	654,252
562,7	654,652
563,1	649,938
563,6	640,767
564	639,938
564,4	633,595
564,9	626,595
565,3	613,481
565,8	608,881
566,2	602,052
566,7	601,11
567,1	594,281
567,6	588,91
568	584,567
568,5	585,967
568,9	578,281
569,4	573,052
569,8	568,338
570,3	560,224
570,7	554,624
571,1	553,995
571,6	548,138
572	547,195
572,5	544,281
572,9	535,395
573,4	533,167
573,8	535,538
574,3	525,995
574,7	518,481
575,2	507,967
575,6	503,738
576,1	507,652
576,5	505,938
576,9	494,481
577,4	489,652
577,8	486,938
578,3	486,795
578,7	480,91
579,2	478,538
579,6	470,595
580,1	463,138
580,5	462,681
581	466,852
581,4	461,967
581,9	455,881
582,3	447,081
582,7	449,51
583,2	456,795
583,6	457,252
584,1	453,824
584,5	453,967
585	456,195
585,4	447,195
585,9	440,367
586,3	441,252
586,8	433,481
587,2	421,11
587,6	417,852
588,1	416,395
588,5	415,767
589	416,195
589,4	408,081
589,9	407,567
590,3	405,738
590,8	403,11
591,2	397,224
591,7	397,538
592,1	396,538
592,5	396,967
593	392,167
593,4	390,91
593,9	385,452
594,3	383,51
594,8	382,052
595,2	377,224
595,7	375,224
596,1	374,395
596,6	376,738
597	376,624
597,4	378,738
597,9	372,367
598,3	371,652
598,8	365,224
599,2	366,624
599,7	362,167
600,1	361,567
600,6	358,052
601	360,481
601,4	358,167
601,9	359,795
602,3	352,795
602,8	349,138
603,2	344,252
603,7	338,395
604,1	334,91
604,6	331,967
605	325,31
605,4	331,424
605,9	329,91
606,3	324,081
606,8	323,652
607,2	317,11
607,7	311,652
608,1	309,424
608,6	305,138
609	307,195
609,4	313,652
609,9	308,224
610,3	312,481
610,8	313,052
611,2	311,881
611,7	308,338
612,1	303,938
612,6	298,31
613	298,681
613,4	292,624
613,9	291,138
614,3	287,31
614,8	288,938
615,2	284,595
615,7	286,395
616,1	286,681
616,6	285,881
617	281,71
617,4	284,024
617,9	280,881
618,3	286,795
618,8	284,795
619,2	282,11
619,7	285,795
620,1	287,138
620,5	287,824
621	286,567
621,4	281,938
621,9	276,538
622,3	276,51
622,8	271,567
623,2	269,052
623,6	265,71
624,1	265,481
624,5	262,367
625	263,624
625,4	263,195
625,9	266,024
626,3	264,624
626,8	259,567
627,2	255,995
627,6	249,024
628,1	244,967
628,5	242,281
629	237,595
629,4	237,624
629,9	238,052
630,3	230,824
630,7	232,538
631,2	232,652
631,6	230,395
632,1	229,452
632,5	226,395
633	225,367
633,4	227,767
633,8	228,881
634,3	227,424
634,7	225,852
635,2	224,452
635,6	223,481
636,1	224,081
636,5	219,338
636,9	216,681
637,4	216,51
637,8	215,452
638,3	208,738
638,7	204,738
639,2	200,224
639,6	203,681
640	205,338
640,5	205,995
640,9	206,767
641,4	210,367
641,8	214,167
642,2	213,938
642,7	215,795
643,1	215,052
643,6	210,51
644	206,138
644,5	205,367
644,9	202,881
645,3	202,281
645,8	195,967
646,2	193,11
646,7	192,052
647,1	189,024
647,6	188,281
648	188,281
648,4	188,281
648,9	189,938
649,3	184,738
649,8	181,138
650,2	181,767
650,6	183,395
651,1	178,795
651,5	180,624
652	180,395
652,4	181,281
652,9	184,852
653,3	185,967
653,7	178,91
654,2	179,51
654,6	177,424
655,1	178,138
655,5	182,31
655,9	178,024
656,4	176,167
656,8	177,338
657,3	178,338
657,7	176,167
658,2	171,367
658,6	164,138
659	165,624
659,5	162,967
659,9	161,11
660,4	157,795
660,8	152,167
661,2	151,767
661,7	154,624
662,1	151,338
662,6	150,052
663	151,538
663,4	150,852
663,9	153,024
664,3	150,395
664,8	144,052
665,2	141,167
665,6	143,595
666,1	141,052
666,5	141,11
667	140,367
667,4	139,624
667,9	144,367
668,3	146,024
668,7	144,452
669,2	146,767
669,6	146,738
670,1	145,738
670,5	142,595
670,9	139,824
671,4	138,881
671,8	135,938
672,3	135,338
672,7	131,652
673,1	127,395
673,6	128,452
674	127,081
674,5	124,824
674,9	122,081
675,3	115,338
675,8	117,51
676,2	119,767
676,7	117,11
677,1	119,252
677,5	117,967
678	122,424
678,4	125,91
678,9	124,11
679,3	122,767
679,7	122,224
680,2	119,252
680,6	119,195
681,1	119,995
681,5	119,938
681,9	121,767
682,4	123,595
682,8	123,881
683,3	127,167
683,7	129,51
684,1	124,852
684,6	120,224
685	117,852
685,5	118,252
685,9	110,795
686,3	103,652
686,8	103,281
687,2	105,11
687,7	103,595
688,1	99,11
688,5	94,995
689	99,281
689,4	98,624
689,9	93,31
690,3	90,795
690,7	92,052
691,2	93,595
691,6	95,538
692	99,881
692,5	101,481
692,9	106,024
693,4	102,367
693,8	103,738
694,2	103,452
694,7	101,281
695,1	94,938
695,6	95,738
696	95,967
696,4	98,224
696,9	91,652
697,3	90,052
697,8	89,881
698,2	90,081
698,6	88,538
699,1	85,138
699,5	83,938
699,9	86,081
700,4	80,938
700,8	81,424
701,3	80,881
701,7	75,538
702,1	77,681
702,6	78,081
703	80,624
703,5	84,51
703,9	84,195
704,3	82,795
704,8	85,538
705,2	79,652
705,6	80,081
706,1	77,424
706,5	74,652
707	73,195
707,4	78,767
707,8	74,51
708,3	77,338
708,7	74,452
709,2	73,081
709,6	75,367
710	78,367
710,5	71,567
710,9	76,767
711,3	76,11
711,8	77,595
712,2	79,51
712,7	79,767
713,1	74,824
713,5	77,738
714	78,595
714,4	73,824
714,8	74,481
715,3	74,081
715,7	74,11
716,2	72,138
716,6	75,024
717	69,852
717,5	71,567
717,9	72,481
718,3	73,281
718,8	70,481
719,2	72,567
719,7	68,252
720,1	70,852
720,5	74,31
721	68,681
721,4	65,852
721,8	72,567
722,3	69,395
722,7	74,11
723,2	71,938
723,6	63,138
724	63,11
724,5	60,681
724,9	54,71
725,3	57,11
725,8	52,824
726,2	51,881
726,7	56,938
727,1	56,995
727,5	58,424
728	54,167
728,4	55,938
728,8	52,767
729,3	49,624
729,7	46,252
730,1	49,881
730,6	54,052
731	56,738
731,5	53,767
731,9	51,967
732,3	54,767
732,8	55,338
733,2	52,252
733,6	48,967
734,1	46,538
734,5	44,424
734,9	45,681
735,4	45,681
735,8	42,795
736,3	45,91
736,7	43,624
737,1	46,338
737,6	44,252
738	47,538
738,4	44,938
738,9	48,11
739,3	44,31
739,7	45,91
740,2	40,795
740,6	50,081
741,1	51,738
741,5	54,995
741,9	54,224
742,4	55,538
742,8	56,967
743,2	58,11
743,7	48,138
744,1	44,367
744,5	39,224
745	39,681
745,4	36,795
745,8	32,338
746,3	34,681
746,7	34,71
747,2	33,995
747,6	39,852
748	42,881
748,5	46,167
748,9	45,938
749,3	47,167
749,8	50,51
750,2	50,595
750,6	45,11
751,1	47,395
751,5	44,252
751,9	46,367
752,4	47,91
752,8	49,767
753,3	47,338
753,7	54,738
754,1	47,395
754,6	43,681
755	42,481
755,4	41,91
755,9	38,11
756,3	38,595
756,7	33,452
757,2	38,824
757,6	41,281
758	43,881
758,5	39,624
758,9	43,595
759,3	46,967
759,8	46,424
760,2	43,881
760,6	44,881
761,1	38,595
761,5	39,395
761,9	37,624
762,4	32,138
762,8	30,624
763,3	27,424
763,7	29,681
764,1	36,138
764,6	37,595
765	37,567
765,4	38,767
765,9	43,795
766,3	45,452
766,7	40,138
767,2	35,024
767,6	36,538
768	34,024
768,5	35,281
768,9	31,738
769,3	30,91
769,8	31,595
770,2	33,081
770,6	30,024
771,1	32,081
771,5	33,452
771,9	37,481
772,4	36,481
772,8	34,938
773,2	35,767
773,7	35,395
774,1	33,967
774,5	27,252
775	22,424
775,4	22,624
775,8	21,538
776,3	22,224
776,7	19,424
777,1	17,481
777,6	18,91
778	23,824
778,4	21,967
778,9	28,738
779,3	27,252
779,7	26,967
780,2	24,624
780,6	29,652
781	21,738
781,5	21,71
781,9	17,167
782,3	15,31
782,8	19,881
783,2	22,852
783,6	20,824
784,1	25,338
784,5	22,738
784,9	21,652
785,4	23,11
785,8	20,795
786,2	22,481
786,7	22,967
787,1	20,738
787,5	26,538
788	30,681
788,4	30,538
788,8	30,195
789,3	28,081
789,7	32,681
790,1	32,995
790,6	32,71
791	27,224
791,4	26,881
791,9	24,452
792,3	22,338
792,7	18,995
793,2	17,738
793,6	17,852
794	23,024
794,5	19,024
794,9	24,11
795,3	24,281
795,8	25,795
796,2	30,824
796,6	29,195
797,1	28,052
797,5	31,795
797,9	24,424
798,4	24,824
798,8	25,595
799,2	17,91
799,7	18,224
800,1	13,938
800,5	11,452
801	19,852
801,4	16,767
801,8	13,281
802,2	14,567
802,7	13,595
803,1	13,767
803,5	15,31
804	11,824
804,4	17,738
804,8	17,31
805,3	22,51
805,7	25,081
806,1	24,024
806,6	25,624
807	23,624
807,4	18,11
807,9	14,795
808,3	12,31
808,7	9,252
809,2	12,11
809,6	10,938
810	10,995
810,4	11,081
810,9	13,938
811,3	14,738
811,7	14,367
812,2	20,338
812,6	18,138
813	23,252
813,5	26,938
813,9	27,338
814,3	25,938
814,8	27,252
815,2	17,052
815,6	16,338
816,1	14,452
816,5	12,881
816,9	12,452
817,3	11,995
817,8	17,567
818,2	23,195
818,6	24,51
819,1	22,024
819,5	20,595
819,9	20,138
820,4	18,624
820,8	12,938
821,2	6,967
821,7	9,224
822,1	15,224
822,5	23,767
822,9	22,738
823,4	26,11
823,8	30,967
824,2	37,338
824,7	31,624
825,1	20,967
825,5	12,452
826	10,081
826,4	7,938
826,8	1,881
827,3	1,824
827,7	4,052
828,1	6,652
828,5	9,738
829	9,567
829,4	9,081
829,8	7,167
830,3	7,281
830,7	4,71
831,1	8,424
831,6	7,338
832	9,024
832,4	4,681
832,8	7,31
833,3	5,71
833,7	6,995
834,1	4,024
834,6	2,938
835	6,624
835,4	12,595
835,8	9,881
836,3	10,138
836,7	14,31
837,1	15,195
837,6	19,024
838	12,995
838,4	15,91
838,9	17,024
839,3	14,167
839,7	13,795
840,1	10,995
840,6	7,681
841	6,995
841,4	5,081
841,9	7,681
842,3	6,91
842,7	4,681
843,1	7,252
843,6	10,852
844	16,052
844,4	18,852
844,9	20,681
845,3	22,081
845,7	22,567
846,2	20,367
846,6	13,738
847	14,967
847,4	12,852
847,9	10,652
848,3	12,881
848,7	12,995
849,2	14,91
849,6	12,367
850	12,967
850,4	11,395
850,9	11,195
851,3	10,138
851,7	12,595
852,2	12,795
852,6	21,224
853	18,51
853,4	13,767
853,9	10,738
854,3	11,538
854,7	12,481
855,2	10,652
855,6	7,395
856	7,824
856,4	6,424
856,9	6,252
857,3	8,881
857,7	6,367
858,2	13,395
858,6	13,71
859	12,081
859,4	15,024
859,9	13,71
860,3	11,995
860,7	14,938
861,1	12,567
861,6	10,91
862	10,338
862,4	12,481
862,9	14,652
863,3	12,71
863,7	5,91
864,1	3,024
864,6	3,595
865	4,51
865,4	4,138
865,9	8,595
866,3	7,967
866,7	10,652
867,1	8,31
867,6	6,452
868	3,824
868,4	0,367
868,8	-6,376
869,3	-8,062
869,7	-4,062
870,1	-6,119
870,6	-7,976
871	-73,348
871,4	-67,148
871,8	-64,976
872,3	-61,576
872,7	-62,519
873,1	-56,29
873,5	-52,119
874	15,252
874,4	14,824
874,8	14,367
875,3	12,795
875,7	8,252
876,1	8,224
876,5	8,31
877	5,395
877,4	-2,776
877,8	0,967
878,2	3,424
878,7	3,91
879,1	5,452
879,5	8,138
879,9	13,738
880,4	17,938
880,8	16,367
881,2	13,824
881,7	13,738
882,1	10,081
882,5	4,424
882,9	1,71
883,4	-0,576
883,8	1,31
884,2	-0,29
884,6	-0,633
885,1	-0,805
885,5	-2,948
885,9	-2,605
886,3	2,024
886,8	-0,262
887,2	-1,519
887,6	2,224
888	3,424
888,5	9,452
888,9	6,367
889,3	2,281
889,8	1,738
890,2	7,652
890,6	3,624
891	3,538
891,5	-1,576
891,9	1,567
892,3	4,224
892,7	4,424
893,2	0,11
893,6	4,167
894	3,91
894,4	6,138
894,9	5,338
895,3	8,824
895,7	12,481
896,1	11,795
896,6	9,367
897	10,395
897,4	16,224
897,8	18,567
898,3	17,338
898,7	9,824
899,1	9,452
899,5	10,11
900	2,481
900,4	-5,176
900,8	-7,119
901,2	-10,805
901,7	-9,948
902,1	-6,233
902,5	-7,233
902,9	-1,033
903,4	2,881
903,8	1,767
904,2	1,281
904,6	4,167
905,1	0,252
905,5	-0,633
905,9	3,11
906,3	4,252
906,8	10,31
907,2	12,767
907,6	12,081
908	16,595
908,5	16,938
908,9	11,395
909,3	8,881
909,7	1,195
910,2	-3,348
910,6	0,767
911	-2,948
911,4	-0,205
911,9	-3,119
912,3	-2,433
912,7	0,052
913,1	6,91
913,6	0,424
914	2,824
914,4	-0,805
914,8	2,31
915,3	-0,348
915,7	1,852
916,1	-2,519
916,5	2,452
916,9	3,281
917,4	3,395
917,8	6,338
918,2	3,995
918,6	-0,233
919,1	2,91
919,5	3,881
919,9	4,395
920,3	4,852
920,8	4,424
921,2	6,967
921,6	10,595
922	7,595
922,5	7,51
922,9	4,681
923,3	2,424
923,7	2,081
924,2	2,052
924,6	-0,033
925	6,052
925,4	2,567
925,8	5,881
926,3	9,71
926,7	5,367
927,1	8,252
927,5	12,167
928	3,224
928,4	-0,948
928,8	-2,576
929,2	-6,033
929,7	-2,519
930,1	-3,976
930,5	-6,433
930,9	-0,69
931,3	3,081
931,8	2,967
932,2	8,081
932,6	6,024
933	4,252
933,5	2,71
933,9	3,138
934,3	4,252
934,7	2,91
935,2	0,91
935,6	4,424
936	3,938
936,4	2,824
936,8	4,31
937,3	2,738
937,7	1,881
938,1	5,452
938,5	-0,833
939	1,995
939,4	4,281
939,8	-1,89
940,2	-0,433
940,6	1,081
941,1	-3,433
941,5	0,767
941,9	0,252
942,3	1,024
942,8	6,338
943,2	7,738
943,6	4,624
944	6,938
944,4	6,567
944,9	6,081
945,3	5,51
945,7	-2,719
946,1	-9,89
946,6	-8,29
947	-13,005
947,4	-14,948
947,8	-14,633
948,2	-18,205
948,7	-11,49
949,1	-5,062
949,5	-4,148
949,9	0,995
950,3	6,995
950,8	5,738
951,2	8,91
951,6	4,31
952	3,795
952,5	0,195
952,9	-2,719
953,3	-6,776
953,7	-5,748
954,1	-4,405
954,6	-0,748
955	-1,805
955,4	-0,605
955,8	2,481
956,2	0,367
956,7	2,51
957,1	2,91
957,5	2,367
957,9	4,024
958,3	5,367
958,8	4,567
959,2	7,738
959,6	11,224
960	10,624
960,5	16,167
960,9	18,31
961,3	16,795
961,7	14,081
962,1	14,995
962,6	11,367
963	11,138
963,4	4,281
963,8	-0,09
964,2	0,224
964,7	4,367
965,1	5,195
965,5	4,281
965,9	3,224
966,3	6,71
966,8	7,995
967,2	10,481
967,6	7,338
968	4,595
968,4	4,367
968,9	3,71
969,3	7,138
969,7	5,11
970,1	4,71
970,5	7,595
971	8,052
971,4	9,138
971,8	14,338
972,2	8,681
972,6	11,624
973,1	10,91
973,5	7,824
973,9	7,11
974,3	6,11
974,7	4,452
975,2	8,081
975,6	5,824
976	8,424
976,4	4,424
976,8	5,11
977,3	4,681
977,7	3,31
978,1	0,224
978,5	-0,805
978,9	-4,519
979,4	-5,833
979,8	-6,119
980,2	-7,119
980,6	-10,862
981	-9,719
981,5	-6,033
981,9	-6,519
982,3	1,795
982,7	1,795
983,1	0,995
983,6	1,738
984	2,138
984,4	1,138
984,8	2,052
985,2	-3,262
985,6	-9,033
986,1	-4,462
986,5	-2,605
986,9	-9,233
987,3	-7,719
987,7	-7,062
988,2	-4,919
988,6	3,195
989	1,167
989,4	-1,605
989,8	5,767
990,3	3,338
990,7	5,338
991,1	8,252
991,5	8,624
991,9	10,652
992,3	15,11
992,8	13,452
993,2	13,31
993,6	13,71
994	12,624
994,4	10,852
994,9	8,71
995,3	6,081
995,7	1,167
996,1	1,395
996,5	2,567
996,9	1,91
997,4	6,167
997,8	3,11
998,2	4,281
998,6	2,338
999	1,395
999,5	-0,433
999,9	-4,033
1000,3	-7,89
1000,7	-6,29
1001,1	-5,776
1001,5	0,881
1002	3,767
1002,4	3,767
1002,8	5,881
1003,2	5,224
1003,6	11,567
1004	14,652
1004,5	9,338
1004,9	10,881
1005,3	6,081
1005,7	8,395
1006,1	4,224
1006,6	-3,148
1007	-6,376
1007,4	-4,976
1007,8	-6,576
1008,2	-6,548
1008,6	-7,376
1009,1	-4,433
1009,5	0,252
1009,9	1,367
1010,3	6,795
1010,7	8,338
1011,1	10,481
1011,6	9,367
1012	9,595
1012,4	6,024
1012,8	2,595
1013,2	4,881
1013,6	0,538
1014,1	3,881
1014,5	1,452
1014,9	0,71
1015,3	-0,776
1015,7	2,624
1016,1	0,281
1016,6	1,424
1017	-1,119
1017,4	4,138
1017,8	3,31
1018,2	8,367
1018,6	2,167
1019,1	2,538
1019,5	2,367
1019,9	3,31
1020,3	0,938
1020,7	4,824
1021,1	3,852
1021,6	7,195
1022	7,11
1022,4	6,767
1022,8	6,795
1023,2	7,11
1023,6	6,367
1024,1	8,081
1024,5	8,538
1024,9	4,71
1025,3	7,167
1025,7	5,167
1026,1	7,252
1026,6	5,11
1027	0,195
1027,4	4,824
1027,8	7,767
1028,2	2,167
1028,6	9,595
1029	6,195
1029,5	14,481
1029,9	15,681
1030,3	7,938
1030,7	5,195
1031,1	8,967
1031,5	0,338
1032	0,652
1032,4	-4,862
1032,8	0,167
1033,2	3,824
1033,6	1,995
1034	1,052
1034,4	-1,462
1034,9	-0,09
1035,3	-7,576
1035,7	-9,69
1036,1	-13,233
1036,5	-10,833
1036,9	-7,662
1037,4	2,852
1037,8	-2,176
1038,2	7,652
1038,6	5,881
1039	7,91
1039,4	11,081
1039,8	6,881
1040,3	3,252
1040,7	7,338
1041,1	1,338
1041,5	-1,548
1041,9	-2,89
1042,3	-3,633
1042,7	0,052
1043,2	-5,176
1043,6	-10,833
1044	-7,09
1044,4	-3,29
1044,8	-0,719
1045,2	-3,776
1045,6	-3,119
1046,1	1,881
1046,5	4,852
1046,9	5,224
1047,3	0,624
1047,7	-1,69
1048,1	-1,262
1048,5	-5,719
1049	-5,148
1049,4	-1,548
1049,8	1,081
1050,2	6,167
1050,6	12,738
1051	17,31
1051,4	19,567
1051,9	15,852
1052,3	24,967
1052,7	20,767
1053,1	15,195
1053,5	12,538
1053,9	9,91
1054,3	9,595
1054,8	18,024
1055,2	10,395
1055,6	7,738
1056	14,224
1056,4	10,852
1056,8	8,424
1057,2	3,852
1057,6	-4,605
1058,1	-9,662
1058,5	-8,89
1058,9	-9,548
1059,3	-6,576
1059,7	-5,776
1060,1	0,51
1060,5	4,538
1061	3,195
1061,4	1,281
1061,8	0,71
1062,2	0,195
1062,6	1,024
1063	2,624
1063,4	0,995
1063,8	5,652
1064,3	6,538
1064,7	4,395
1065,1	0,367
1065,5	-1,233
1065,9	-3,862
1066,3	-7,119
1066,7	-9,805
1067,1	-12,005
1067,6	-7,062
1068	-7,09
1068,4	-5,005
1068,8	-4,148
1069,2	-1,948
1069,6	0,71
1070	10,167
1070,4	4,195
1070,9	4,424
1071,3	3,452
1071,7	1,252
1072,1	3,71
1072,5	2,138
1072,9	-4,033
1073,3	-0,948
1073,7	1,138
1074,2	3,195
1074,6	4,652
1075	0,91
1075,4	0,452
1075,8	4,395
1076,2	1,652
1076,6	2,881
1077	1,624
1077,5	4,852
1077,9	6,338
1078,3	6,995
1078,7	4,91
1079,1	8,167
1079,5	8,195
1079,9	6,538
1080,3	0,824
1080,7	0,681
1081,2	5,395
1081,6	5,195
1082	0,452
1082,4	3,452
1082,8	2,367
1083,2	7,052
1083,6	9,71
1084	3,281
1084,5	4,081
1084,9	4,71
1085,3	-3,548
1085,7	-2,376
1086,1	-5,033
1086,5	-4,89
1086,9	1,852
1087,3	0,281
1087,7	1,31
1088,2	6,367
1088,6	3,481
1089	6,51
1089,4	3,281
1089,8	-2,405
1090,2	-1,948
1090,6	-0,89
1091	1,795
1091,4	8,195
1091,9	6,424
1092,3	7,367
1092,7	8,624
1093,1	10,91
1093,5	10,624
1093,9	6,167
1094,3	9,11
1094,7	10,081
1095,1	11,367
1095,5	13,252
1096	6,852
1096,4	9,567
1096,8	10,481
1097,2	7,624
1097,6	8,31
1098	7,424
1098,4	10,195
1098,8	14,224
1099,2	15,824
1099,6	15,824
1100,1	13,91
1100,5	8,967
1100,9	8,252
1101,3	3,338
1101,7	2,852
1102,1	-0,633
1102,5	3,652
1102,9	3,195
1103,3	7,624
1103,7	10,052
1104,2	10,224
1104,6	9,452
1105	7,91
1105,4	4,224
1105,8	3,424
1106,2	0,738
1106,6	-1,662
1107	-1,605
1107,4	-0,733
1107,8	0,327
1108,3	-0,283
