Data from Subt2_006.txt Node
Date: Sat Aug 26 16:11:49 MSK 2023
User: vat
Spectrometer: MAYP114033
Trigger mode: 0
Integration Time (sec): 1,000000E0
Scans to average: 5
Electric dark correction enabled: true
Nonlinearity correction enabled: false
Boxcar width: 3
XAxis mode: Wavelengths
Number of Pixels in Spectrum: 2068
>>>>>Begin Spectral Data<<<<<
199,4	-0,05
199,9	0,64
200,4	1,6
200,8	0
201,3	0,457
201,8	3,143
202,2	0,6
202,7	2,629
203,2	2,943
203,6	4,914
204,1	6,657
204,6	7,2
205	4,371
205,5	9,2
206	5,8
206,4	1,829
206,9	1,171
207,4	1,171
207,8	0,8
208,3	-0,771
208,8	0,6
209,2	0,629
209,7	5,686
210,2	7,457
210,6	6
211,1	10,629
211,5	9,914
212	7,429
212,5	10,171
212,9	12,829
213,4	6,543
213,9	3,429
214,3	-0,429
214,8	5,429
215,3	7,829
215,7	11,714
216,2	6,829
216,7	9,371
217,1	10,6
217,6	6,286
218,1	0
218,5	-5,857
219	-14,429
219,5	-10,971
219,9	-11,571
220,4	-4,086
220,9	-4,514
221,3	1,343
221,8	2,886
222,3	8,6
222,7	5,229
223,2	9,143
223,6	9,857
224,1	14,457
224,6	8,229
225	12,2
225,5	11,314
226	11,886
226,4	6,143
226,9	3,086
227,4	4,6
227,8	10,143
228,3	5,4
228,8	5,771
229,2	5,114
229,7	7,629
230,2	5,743
230,6	3,057
231,1	7,943
231,5	14,257
232	9,829
232,5	8
232,9	4,914
233,4	3,743
233,9	1,286
234,3	-5,2
234,8	-10,943
235,3	-6,029
235,7	-6,714
236,2	-5,4
236,7	-2,4
237,1	-1,4
237,6	-1,543
238,1	-1,6
238,5	-2,057
239	4,629
239,4	8,029
239,9	3,971
240,4	3,229
240,8	3,286
241,3	7,457
241,8	7,229
242,2	1,829
242,7	5,571
243,2	8,371
243,6	10
244,1	7,114
244,6	4,314
245	1,429
245,5	5,2
245,9	2,229
246,4	5,429
246,9	7,657
247,3	11,486
247,8	9,429
248,3	7,829
248,7	7,257
249,2	7,886
249,7	5,229
250,1	3,057
250,6	1,714
251	-0,829
251,5	4,486
252	8,971
252,4	6,4
252,9	1,343
253,4	3,686
253,8	0,6
254,3	7,371
254,8	4,771
255,2	1,914
255,7	-2,857
256,1	2,886
256,6	-1,343
257,1	3,429
257,5	2,029
258	5
258,5	-1,543
258,9	3,2
259,4	0,629
259,9	2,371
260,3	0,229
260,8	0,371
261,2	-0,714
261,7	2,114
262,2	0,743
262,6	1,8
263,1	3,2
263,6	7,743
264	7,371
264,5	6,171
264,9	6,829
265,4	7,629
265,9	6,6
266,3	5,457
266,8	1,229
267,3	-4,429
267,7	-5,8
268,2	-3,629
268,7	-4,143
269,1	-4,6
269,6	-7,486
270	-7,629
270,5	-1,857
271	-0,629
271,4	-2,657
271,9	1,971
272,4	4,914
272,8	11,429
273,3	9,486
273,7	12,857
274,2	7,943
274,7	9,657
275,1	6,029
275,6	2,657
276,1	2,371
276,5	7,543
277	0,429
277,4	6,857
277,9	3,086
278,4	6,6
278,8	7,171
279,3	5,743
279,8	4,6
280,2	9,171
280,7	9,857
281,1	9,514
281,6	1,2
282,1	3,714
282,5	0,429
283	5,143
283,4	0,743
283,9	-4,543
284,4	-4,8
284,8	1,143
285,3	-3,2
285,8	0,714
286,2	-8,057
286,7	-4,486
287,1	0,486
287,6	1,886
288,1	0,857
288,5	6,229
289	0,629
289,5	6,6
289,9	2,914
290,4	0,343
290,8	4,771
291,3	6,829
291,8	7,743
292,2	11,914
292,7	7,086
293,1	10,029
293,6	12,657
294,1	10,2
294,5	5,371
295	3,086
295,5	1,343
295,9	0,943
296,4	-0,943
296,8	-0,6
297,3	-1
297,8	-3,029
298,2	-3,657
298,7	0,857
299,1	4,057
299,6	9,171
300,1	7,971
300,5	11,486
301	13,629
301,5	15,543
301,9	14,543
302,4	10,857
302,8	10,543
303,3	9,314
303,8	3,171
304,2	6,057
304,7	4,971
305,1	-1,114
305,6	3,143
306,1	1,057
306,5	-2,714
307	-4,8
307,4	-5,486
307,9	-5,057
308,4	-0,657
308,8	0,429
309,3	-0,029
309,8	4,057
310,2	8,029
310,7	9,629
311,1	9,229
311,6	9,743
312,1	8,286
312,5	8,543
313	7,8
313,4	10
313,9	6,371
314,4	7,857
314,8	12
315,3	11,314
315,7	11,971
316,2	15,171
316,7	9,286
317,1	13,8
317,6	13,486
318	9,229
318,5	6,571
319	5,829
319,4	1,2
319,9	1,029
320,3	2,171
320,8	1,743
321,3	-3,486
321,7	-1,486
322,2	-2,943
322,6	0,486
323,1	1,914
323,6	1,371
324	-0,371
324,5	8,8
324,9	8,657
325,4	14,114
325,9	11,143
326,3	15,6
326,8	11,714
327,2	11,286
327,7	3,171
328,2	2,6
328,6	-0,971
329,1	1,686
329,5	1,543
330	-0,429
330,5	0,629
330,9	2,514
331,4	3,114
331,8	5,714
332,3	3,571
332,8	3,029
333,2	1,486
333,7	2,771
334,1	3,8
334,6	7,657
335,1	3,457
335,5	6,257
336	4,943
336,4	12,657
336,9	9,029
337,4	11,6
337,8	8,343
338,3	6,143
338,7	2,486
339,2	0,8
339,7	-2,943
340,1	4,171
340,6	-2,629
341	-4,371
341,5	2,571
342	8,143
342,4	14,4
342,9	21,686
343,3	16,171
343,8	21,343
344,2	22,943
344,7	22,457
345,2	22,2
345,6	16,943
346,1	12,143
346,5	11,143
347	8,371
347,5	8,229
347,9	7,629
348,4	5,543
348,8	8,943
349,3	11,229
349,8	15,2
350,2	21,857
350,7	24,914
351,1	27,743
351,6	30,771
352	37,229
352,5	42,857
353	52,229
353,4	58,514
353,9	67,429
354,3	85,229
354,8	106,971
355,3	128,857
355,7	149,943
356,2	177,314
356,6	215,2
357,1	253,486
357,5	291,429
358	337,314
358,5	394,857
358,9	465,086
359,4	545,514
359,8	629,857
360,3	733,286
360,8	839,486
361,2	962,257
361,7	1099,429
362,1	1242,686
362,6	1397,457
363	1568,4
363,5	1744,143
364	1938,886
364,4	2128,657
364,9	2317,086
365,3	2520,686
365,8	2705,171
366,3	2872,4
366,7	3034,4
367,2	3171,886
367,6	3286,514
368,1	3373,2
368,5	3427,571
369	3454,886
369,5	3459,514
369,9	3432,4
370,4	3371,629
370,8	3294,486
371,3	3194,629
371,7	3070,829
372,2	2941,286
372,7	2799,086
373,1	2648,457
373,6	2502,714
374	2351,743
374,5	2199,171
374,9	2051,914
375,4	1910,686
375,9	1768,543
376,3	1632,886
376,8	1501,286
377,2	1372,171
377,7	1263,457
378,2	1158,086
378,6	1055,686
379,1	968,743
379,5	886,2
380	812,657
380,4	750,029
380,9	680,343
381,4	619,914
381,8	570,029
382,3	523,4
382,7	489,8
383,2	453,857
383,6	422,857
384,1	397,886
384,6	370,6
385	344,886
385,5	325,314
385,9	295,486
386,4	268,743
386,8	248,714
387,3	230,686
387,7	216,6
388,2	198,029
388,7	182,286
389,1	168,2
389,6	162,514
390	155,086
390,5	144,143
390,9	134,657
391,4	130,343
391,9	122,514
392,3	117,257
392,8	111,4
393,2	100,771
393,7	93,657
394,1	87,543
394,6	83,6
395,1	79,743
395,5	76,343
396	71
396,4	66,514
396,9	65,086
397,3	63,286
397,8	57,857
398,2	54,571
398,7	52,314
399,2	52,257
399,6	49,057
400,1	49,886
400,5	48,657
401	48,657
401,4	46,171
401,9	48,257
402,4	45,657
402,8	47,629
403,3	49,457
403,7	50,343
404,2	52,857
404,6	53,857
405,1	53,771
405,5	59,2
406	55,4
406,5	56,771
406,9	61,857
407,4	61,343
407,8	64,771
408,3	60,514
408,7	59,743
409,2	72,486
409,6	75,857
410,1	78,543
410,6	85,486
411	93,057
411,5	108,914
411,9	118,029
412,4	125,914
412,8	132,4
413,3	139,543
413,7	143,686
414,2	149,543
414,7	152,6
415,1	154,829
415,6	163,543
416	168,629
416,5	180,314
416,9	193,429
417,4	200,057
417,8	210,114
418,3	226,514
418,8	236,029
419,2	248,543
419,7	255,714
420,1	266,514
420,6	283,429
421	298,714
421,5	311,771
421,9	329,171
422,4	346,829
422,8	369,371
423,3	389,343
423,8	408,4
424,2	424,914
424,7	448,457
425,1	466,914
425,6	483,714
426	501,657
426,5	525,657
426,9	548,2
427,4	582,4
427,9	607,714
428,3	636,2
428,8	674,514
429,2	713,086
429,7	746,314
430,1	783,457
430,6	814,257
431	852,2
431,5	892,314
431,9	931,971
432,4	973,771
432,8	1018,229
433,3	1066,171
433,8	1115,486
434,2	1168,143
434,7	1222,743
435,1	1287,343
435,6	1343,657
436	1409,429
436,5	1476,857
436,9	1547,743
437,4	1617,171
437,8	1696,543
438,3	1770,229
438,8	1850,314
439,2	1933,771
439,7	2021,286
440,1	2111,943
440,6	2205,657
441	2297,4
441,5	2395,4
441,9	2503,086
442,4	2601,229
442,8	2705,257
443,3	2816,886
443,7	2933,457
444,2	3049,914
444,7	3173,171
445,1	3297,371
445,6	3432,114
446	3567,743
446,5	3700,914
446,9	3840,429
447,4	3987,657
447,8	4133,829
448,3	4280,886
448,7	4436,229
449,2	4601,057
449,6	4769,714
450,1	4939,486
450,6	5105,686
451	5273,6
451,5	5457,029
451,9	5647,114
452,4	5828,257
452,8	6017,486
453,3	6200,629
453,7	6398,886
454,2	6601,114
454,6	6798,486
455,1	6991,686
455,5	7189,171
456	7393,914
456,4	7604,571
456,9	7819,971
457,3	8035,4
457,8	8245,2
458,3	8474,714
458,7	8711,429
459,2	8935,829
459,6	9168,543
460,1	9391,343
460,5	9631,286
461	9874,8
461,4	10102,286
461,9	10334,714
462,3	10572,4
462,8	10812,857
463,2	11056,743
463,7	11291,257
464,1	11528,486
464,6	11769,171
465	12001,314
465,5	12242,714
466	12483,171
466,4	12712,6
466,9	12941,057
467,3	13189,514
467,8	13434,714
468,2	13679,714
468,7	13915,914
469,1	14152,714
469,6	14395,571
470	14639,943
470,5	14857,629
470,9	15077,914
471,4	15290,943
471,8	15511,4
472,3	15726,657
472,7	15933,257
473,2	16127,286
473,6	16334,743
474,1	16542,4
474,5	16749,6
475	16948,686
475,4	17148,629
475,9	17335,229
476,4	17534,114
476,8	17711,029
477,3	17873
477,7	18054,314
478,2	18213,4
478,6	18366,114
479,1	18534,657
479,5	18681,286
480	18821,371
480,4	18967,914
480,9	19083,2
481,3	19210,514
481,8	19319,257
482,2	19422,286
482,7	19516,143
483,1	19631,543
483,6	19709,114
484	19795,657
484,5	19876,971
484,9	19956,229
485,4	20026,914
485,8	20090,143
486,3	20137,914
486,7	20193,629
487,2	20239,457
487,6	20262,8
488,1	20302,2
488,5	20327,543
489	20344,143
489,4	20351,086
489,9	20357,971
490,4	20352,457
490,8	20352,286
491,3	20319,714
491,7	20288,343
492,2	20272,6
492,6	20240,457
493,1	20196,143
493,5	20144,629
494	20102,657
494,4	20061,257
494,9	20016,886
495,3	19946,4
495,8	19892,314
496,2	19838,314
496,7	19771,571
497,1	19703,743
497,6	19625,571
498	19544,686
498,5	19476,371
498,9	19376,286
499,4	19281,6
499,8	19200,857
500,3	19095,2
500,7	19002,6
501,2	18898,771
501,6	18783,514
502,1	18682,857
502,5	18577,857
503	18469,771
503,4	18364,057
503,9	18238,286
504,3	18122,543
504,8	17996,371
505,2	17870,229
505,7	17741,314
506,1	17603,829
506,6	17465,371
507	17327,343
507,5	17191,2
507,9	17057,914
508,4	16913,971
508,8	16777,6
509,3	16641,257
509,7	16496,314
510,2	16374,114
510,6	16224,314
511,1	16093,971
511,5	15953,543
512	15804,914
512,4	15655,371
512,9	15512,657
513,3	15357,314
513,8	15215,257
514,2	15059,657
514,7	14916,571
515,1	14776,829
515,6	14635,457
516	14483,171
516,5	14330,971
516,9	14186,286
517,4	14034,771
517,8	13883,086
518,3	13732,457
518,7	13583,114
519,2	13443,857
519,6	13299,143
520,1	13160,457
520,5	13024,6
521	12883,057
521,4	12742,829
521,9	12604,114
522,3	12462,686
522,8	12329,514
523,2	12186,771
523,7	12054,286
524,1	11928,743
524,6	11796,257
525	11666,486
525,5	11536,257
525,9	11408,514
526,4	11287,343
526,8	11162,2
527,3	11032,543
527,7	10909,343
528,2	10789,514
528,6	10677,371
529,1	10558,771
529,5	10440,086
530	10327,4
530,4	10217,429
530,9	10098,886
531,3	9980,4
531,8	9863,971
532,2	9752,114
532,6	9644,543
533,1	9532,943
533,5	9425,543
534	9329,314
534,4	9228,114
534,9	9129,457
535,3	9036,029
535,8	8935,543
536,2	8838,629
536,7	8746,171
537,1	8652,257
537,6	8560,8
538	8461,857
538,5	8363,543
538,9	8276,4
539,4	8185,714
539,8	8098,971
540,3	8007,686
540,7	7920,571
541,2	7845,2
541,6	7766,171
542,1	7682,371
542,5	7603,629
543	7527,486
543,4	7454,829
543,9	7383,771
544,3	7306,029
544,8	7229,4
545,2	7149,029
545,7	7080,086
546,1	7000,171
546,5	6920,371
547	6847,571
547,4	6783,457
547,9	6718,4
548,3	6655,771
548,8	6591,771
549,2	6533,8
549,7	6476,971
550,1	6423,229
550,6	6361,286
551	6300
551,5	6246,486
551,9	6188,4
552,4	6131,029
552,8	6082,571
553,3	6020,257
553,7	5959,171
554,2	5915,086
554,6	5858,857
555,1	5807,114
555,5	5756,657
555,9	5710,229
556,4	5661,657
556,8	5622,571
557,3	5572,829
557,7	5528,543
558,2	5483,686
558,6	5432,686
559,1	5375,4
559,5	5338,629
560	5294,314
560,4	5251,743
560,9	5213,257
561,3	5173,543
561,8	5139,629
562,2	5109,8
562,7	5063,8
563,1	5027,371
563,6	4990,914
564	4952,6
564,4	4911,057
564,9	4869,086
565,3	4826,857
565,8	4795,543
566,2	4755,086
566,7	4707,886
567,1	4671,371
567,6	4636,029
568	4605,171
568,5	4568,6
568,9	4531,714
569,4	4496,371
569,8	4465,429
570,3	4429,457
570,7	4392,057
571,1	4356,971
571,6	4329
572	4296,114
572,5	4269,657
572,9	4242,6
573,4	4212,857
573,8	4193,571
574,3	4171,486
574,7	4146,886
575,2	4116,371
575,6	4085,4
576,1	4060,943
576,5	4037,143
576,9	4008,371
577,4	3976,086
577,8	3942,429
578,3	3924,029
578,7	3895,143
579,2	3860,571
579,6	3832,457
580,1	3803,971
580,5	3782,943
581	3755,4
581,4	3726,657
581,9	3706,657
582,3	3688,543
582,7	3668,8
583,2	3645,686
583,6	3616,286
584,1	3596,257
584,5	3568,314
585	3543,543
585,4	3513,629
585,9	3482,057
586,3	3459,371
586,8	3436,029
587,2	3412,6
587,6	3391,6
588,1	3367,486
588,5	3344,657
589	3324,571
589,4	3297,714
589,9	3284,514
590,3	3262,514
590,8	3238,143
591,2	3221,914
591,7	3203,714
592,1	3190,257
592,5	3171,943
593	3143,371
593,4	3126,229
593,9	3116,057
594,3	3089,257
594,8	3071,057
595,2	3049,514
595,7	3038,514
596,1	3025,829
596,6	3008,057
597	2987,371
597,4	2977,4
597,9	2969,057
598,3	2955,571
598,8	2935,057
599,2	2917,4
599,7	2904,257
600,1	2885,886
600,6	2869,486
601	2848,6
601,4	2831,629
601,9	2818,314
602,3	2802,029
602,8	2783,143
603,2	2771,886
603,7	2756,2
604,1	2751,371
604,6	2739,771
605	2724,086
605,4	2708,2
605,9	2698,286
606,3	2685,657
606,8	2677,229
607,2	2658,514
607,7	2638,343
608,1	2622,6
608,6	2610,286
609	2589,457
609,4	2572,657
609,9	2553,571
610,3	2536,057
610,8	2526,314
611,2	2513,114
611,7	2491,743
612,1	2480,4
612,6	2466,486
613	2448,371
613,4	2432,743
613,9	2412,914
614,3	2399,314
614,8	2397,514
615,2	2382,8
615,7	2371,371
616,1	2367,457
616,6	2353,171
617	2336,543
617,4	2315,8
617,9	2297,114
618,3	2286,343
618,8	2272,343
619,2	2251,286
619,7	2240,2
620,1	2235,486
620,5	2223,286
621	2210,514
621,4	2196,829
621,9	2181,629
622,3	2165,943
622,8	2145,971
623,2	2126,257
623,6	2117
624,1	2103,514
624,5	2088,914
625	2076,657
625,4	2065,514
625,9	2053,971
626,3	2039,429
626,8	2022,8
627,2	2008,029
627,6	1994,6
628,1	1976,457
628,5	1965,486
629	1955,571
629,4	1945,371
629,9	1939,771
630,3	1925,686
630,7	1908,771
631,2	1892,114
631,6	1875,4
632,1	1862,229
632,5	1852,371
633	1834,857
633,4	1829,429
633,8	1821,743
634,3	1811,286
634,7	1798,029
635,2	1785,086
635,6	1775,971
636,1	1763,286
636,5	1748,143
636,9	1737,857
637,4	1728
637,8	1720,571
638,3	1708,8
638,7	1687,771
639,2	1681,286
639,6	1669,314
640	1660,029
640,5	1650,686
640,9	1639,886
641,4	1630,714
641,8	1626,771
642,2	1613,914
642,7	1608,314
643,1	1597,343
643,6	1593,743
644	1585,714
644,5	1578,629
644,9	1564,543
645,3	1554,371
645,8	1535,429
646,2	1524,029
646,7	1510,2
647,1	1502,314
647,6	1490,4
648	1481,571
648,4	1471,629
648,9	1471,914
649,3	1463,371
649,8	1455,229
650,2	1446,486
650,6	1440,457
651,1	1438,657
651,5	1428,657
652	1421
652,4	1410,629
652,9	1405,371
653,3	1392,571
653,7	1383,629
654,2	1370,714
654,6	1362,2
655,1	1345,457
655,5	1336,971
655,9	1326,4
656,4	1319,429
656,8	1309,886
657,3	1300,457
657,7	1293,543
658,2	1290,4
658,6	1282,971
659	1270,514
659,5	1257,429
659,9	1250,771
660,4	1245,257
660,8	1237,114
661,2	1226,314
661,7	1215,886
662,1	1215,143
662,6	1209,514
663	1197,343
663,4	1186,457
663,9	1180,371
664,3	1175,286
664,8	1170,857
665,2	1156,514
665,6	1148,4
666,1	1142
666,5	1134,086
667	1122,514
667,4	1110,971
667,9	1097,943
668,3	1088,657
668,7	1084,914
669,2	1073,343
669,6	1068,714
670,1	1062,629
670,5	1050,629
670,9	1045,657
671,4	1041,086
671,8	1029,257
672,3	1022,743
672,7	1011,8
673,1	1003,514
673,6	997,314
674	990,571
674,5	982,629
674,9	976,429
675,3	975,086
675,8	966,143
676,2	960,543
676,7	959,2
677,1	948,514
677,5	938,314
678	936,457
678,4	927,314
678,9	923,2
679,3	915,714
679,7	909,457
680,2	907,6
680,6	906,743
681,1	897,829
681,5	888,514
681,9	883,457
682,4	876,514
682,8	868,114
683,3	860,657
683,7	851,114
684,1	840,429
684,6	837,143
685	829,057
685,5	825,286
685,9	820,257
686,3	815,886
686,8	809
687,2	804,314
687,7	796,171
688,1	796,571
688,5	787,914
689	781,371
689,4	774,457
689,9	771,714
690,3	761,657
690,7	757,286
691,2	747,714
691,6	740,657
692	736,743
692,5	730,486
692,9	720,486
693,4	719,6
693,8	712,314
694,2	704,8
694,7	703,229
695,1	694,914
695,6	691,143
696	691,114
696,4	689,543
696,9	688,286
697,3	680,571
697,8	678,914
698,2	674,971
698,6	671
699,1	667,686
699,5	661,571
699,9	654,857
700,4	657,057
700,8	651,771
701,3	650,8
701,7	647,171
702,1	639,8
702,6	631,286
703	625,229
703,5	619,086
703,9	616,629
704,3	608,629
704,8	603,057
705,2	598,171
705,6	599,343
706,1	594,886
706,5	587
707	574,114
707,4	572,029
707,8	566,429
708,3	562,171
708,7	556,514
709,2	553,543
709,6	552,286
710	553,314
710,5	546,543
710,9	543,629
711,3	538,371
711,8	533,743
712,2	533,8
712,7	528,8
713,1	524,629
713,5	519,886
714	518,457
714,4	514,714
714,8	511,6
715,3	509,286
715,7	506,057
716,2	500,257
716,6	498,943
717	488,857
717,5	484,2
717,9	479,8
718,3	472,114
718,8	467,886
719,2	459,571
719,7	453,286
720,1	452,686
720,5	451,8
721	447,743
721,4	442,543
721,8	437,486
722,3	438,743
722,7	440,743
723,2	432,8
723,6	427,029
724	421,457
724,5	415,143
724,9	413,086
725,3	407,457
725,8	399,086
726,2	398,629
726,7	399,171
727,1	397,314
727,5	396,429
728	393,457
728,4	393,6
728,8	389,029
729,3	386,086
729,7	378,429
730,1	376,943
730,6	375,257
731	374,257
731,5	375,229
731,9	374,743
732,3	373,657
732,8	373,286
733,2	371,914
733,6	372,914
734,1	372,257
734,5	363,914
734,9	359,657
735,4	352,8
735,8	354,257
736,3	351,286
736,7	350,257
737,1	346,543
737,6	345,314
738	343,286
738,4	343,714
738,9	342,514
739,3	341,286
739,7	340,314
740,2	341,371
740,6	341,486
741,1	339,686
741,5	335,8
741,9	328,171
742,4	325,486
742,8	317,286
743,2	305,6
743,7	303,029
744,1	303,486
744,5	307,457
745	307,457
745,4	302
745,8	301,8
746,3	303,714
746,7	304,143
747,2	296,343
747,6	290,543
748	287,029
748,5	282,457
748,9	277,429
749,3	277,971
749,8	277,229
750,2	275,657
750,6	275,457
751,1	274,143
751,5	276,571
751,9	278,829
752,4	275,771
752,8	265
753,3	268,829
753,7	268,2
754,1	269,514
754,6	267,371
755	263,457
755,4	262,257
755,9	268,4
756,3	267
756,7	263,229
757,2	260,686
757,6	261,343
758	260,343
758,5	257,714
758,9	252,114
759,3	247,514
759,8	243,257
760,2	240,229
760,6	239,629
761,1	234,514
761,5	237,914
761,9	237,2
762,4	236,343
762,8	237,8
763,3	232,229
763,7	221,343
764,1	220,971
764,6	211,857
765	212,171
765,4	210,286
765,9	203,543
766,3	205,829
766,7	211,571
767,2	215,543
767,6	220,429
768	216,657
768,5	217,943
768,9	217,514
769,3	218,714
769,8	220,229
770,2	215,429
770,6	206,971
771,1	206,171
771,5	200,771
771,9	206,343
772,4	201,8
772,8	195,543
773,2	196,743
773,7	198,857
774,1	196,486
774,5	197,486
775	194,943
775,4	196,486
775,8	200,857
776,3	200,457
776,7	195,714
777,1	196,743
777,6	193,943
778	189,486
778,4	185,057
778,9	183,029
779,3	179,029
779,7	182,771
780,2	180,571
780,6	182,143
781	179,971
781,5	175,771
781,9	173,657
782,3	176,514
782,8	176,914
783,2	180,343
783,6	182,314
784,1	178,343
784,5	180,629
784,9	173,829
785,4	168,314
785,8	166,4
786,2	162,857
786,7	157,086
787,1	160,857
787,5	158,771
788	161,086
788,4	158,571
788,8	153,571
789,3	148,4
789,7	150,571
790,1	148,257
790,6	149,514
791	149,2
791,4	144,829
791,9	147,543
792,3	150,714
792,7	149,114
793,2	153,2
793,6	151,914
794	153,057
794,5	157,257
794,9	156,286
795,3	152,6
795,8	148,886
796,2	143,457
796,6	141,486
797,1	143,371
797,5	143,314
797,9	139
798,4	138,057
798,8	141,229
799,2	142,029
799,7	140,886
800,1	134,486
800,5	134,143
801	134,8
801,4	138,286
801,8	131,114
802,2	128,686
802,7	132,657
803,1	128,486
803,5	126,086
804	128,143
804,4	122,943
804,8	126,229
805,3	129,771
805,7	121,771
806,1	123,4
806,6	123,886
807	121,8
807,4	122
807,9	119,943
808,3	115,114
808,7	113,257
809,2	111,657
809,6	109,771
810	109,686
810,4	107,257
810,9	106,4
811,3	101,314
811,7	106,257
812,2	108,486
812,6	104,171
813	101,6
813,5	100,686
813,9	102,286
814,3	103,171
814,8	102,543
815,2	100,057
815,6	100,143
816,1	99,4
816,5	104,229
816,9	96,057
817,3	96,6
817,8	93,514
818,2	92,914
818,6	92,4
819,1	93,114
819,5	89,343
819,9	93,714
820,4	94,143
820,8	90,143
821,2	86,457
821,7	88,771
822,1	86
822,5	84,714
822,9	83,771
823,4	81,029
823,8	84,714
824,2	87,171
824,7	84,8
825,1	84,771
825,5	82,743
826	84,143
826,4	85,714
826,8	80,629
827,3	78,143
827,7	79,086
828,1	75,743
828,5	75,257
829	70,657
829,4	73,086
829,8	72,314
830,3	75,314
830,7	70,971
831,1	75,571
831,6	74,857
832	72,6
832,4	69,314
832,8	78,743
833,3	77,914
833,7	76,714
834,1	73,343
834,6	74,657
835	77,829
835,4	85,886
835,8	76,029
836,3	72,057
836,7	72,343
837,1	69,114
837,6	63,114
838	66,143
838,4	53,371
838,9	55,686
839,3	59,343
839,7	63,314
840,1	66,886
840,6	69,343
841	65,657
841,4	66,686
841,9	63,914
842,3	63,914
842,7	66,514
843,1	67,829
843,6	73,657
844	75,514
844,4	75,743
844,9	75,571
845,3	72,029
845,7	68,086
846,2	62,429
846,6	55,6
847	52,429
847,4	53,571
847,9	54,171
848,3	51,514
848,7	48,457
849,2	51,257
849,6	51,743
850	49,314
850,4	44,886
850,9	44,029
851,3	47,114
851,7	52,2
852,2	47,286
852,6	44,857
853	45,943
853,4	48,743
853,9	49,257
854,3	48,857
854,7	41,4
855,2	40,029
855,6	38,743
856	38,771
856,4	44,429
856,9	45,914
857,3	45,2
857,7	45,914
858,2	45,086
858,6	46,143
859	46,486
859,4	38,6
859,9	36,686
860,3	40,514
860,7	41,2
861,1	43,571
861,6	42,4
862	45,286
862,4	45,486
862,9	44,514
863,3	38,571
863,7	39,029
864,1	40,257
864,6	45,457
865	39,571
865,4	36,714
865,9	37,457
866,3	37,2
866,7	34,2
867,1	34,829
867,6	24,114
868	24,371
868,4	26,114
868,8	27,171
869,3	29,6
869,7	30,629
870,1	27,086
870,6	36,143
871	55,714
871,4	55,629
871,8	54,914
872,3	47,886
872,7	45,057
873,1	48,2
873,5	42,457
874	24,314
874,4	26,086
874,8	26,714
875,3	29,6
875,7	30,571
876,1	30,629
876,5	35,486
877	31,857
877,4	30,343
877,8	26,257
878,2	25,971
878,7	28,257
879,1	23,457
879,5	22,771
879,9	20,343
880,4	20,114
880,8	23,971
881,2	24,4
881,7	24,286
882,1	30,857
882,5	29,743
882,9	34,514
883,4	37,314
883,8	32,086
884,2	36,857
884,6	37,971
885,1	32,257
885,5	34,343
885,9	36,914
886,3	30
886,8	32,943
887,2	28,971
887,6	25,6
888	26,229
888,5	21,143
888,9	16,229
889,3	21,286
889,8	19,857
890,2	19,286
890,6	16,629
891	18,971
891,5	20,543
891,9	22,314
892,3	20,829
892,7	20,057
893,2	22,057
893,6	23,029
894	16,943
894,4	14,943
894,9	11,086
895,3	11,171
895,7	14,857
896,1	12,086
896,6	17,514
897	21,914
897,4	20,857
897,8	25,657
898,3	26,886
898,7	18,057
899,1	14,486
899,5	9,686
900	11,829
900,4	12,714
900,8	15,343
901,2	15,771
901,7	23,657
902,1	29,2
902,5	30,8
902,9	26,371
903,4	23,886
903,8	18,086
904,2	12,571
904,6	10,143
905,1	10,257
905,5	7,286
905,9	11,086
906,3	10,914
906,8	9,943
907,2	11,943
907,6	12,171
908	9,2
908,5	13,114
908,9	9,257
909,3	10,743
909,7	12,686
910,2	18,143
910,6	18,371
911	17,286
911,4	16,286
911,9	14,886
912,3	17,229
912,7	19,086
913,1	14,143
913,6	12
914	14,943
914,4	13,6
914,8	15,743
915,3	18,914
915,7	17,6
916,1	22,029
916,5	22,171
916,9	22,571
917,4	20
917,8	16,943
918,2	9,943
918,6	8,086
919,1	0,371
919,5	1,914
919,9	-1,314
920,3	-3,114
920,8	1
921,2	-1,086
921,6	3,057
922	9,429
922,5	10,314
922,9	11,229
923,3	17,714
923,7	15,314
924,2	22,314
924,6	16,029
925	15,886
925,4	12,914
925,8	9,857
926,3	9,2
926,7	15
927,1	10,743
927,5	15,286
928	16,4
928,4	20,543
928,8	18,429
929,2	20,286
929,7	16,057
930,1	18,114
930,5	18,457
930,9	17,771
931,3	13,114
931,8	16,143
932,2	16,314
932,6	15,114
933	15,343
933,5	12,2
933,9	7,829
934,3	8,543
934,7	5,629
935,2	0,971
935,6	1,4
936	3,971
936,4	4,514
936,8	3,4
937,3	5,343
937,7	6,8
938,1	7,857
938,5	6,714
939	5,429
939,4	8,886
939,8	12,8
940,2	12,086
940,6	15,314
941,1	13,029
941,5	18,257
941,9	18,486
942,3	18,086
942,8	14,457
943,2	14,971
943,6	16,086
944	14,571
944,4	7,371
944,9	4,971
945,3	-1,057
945,7	2
946,1	-2,914
946,6	-4,714
947	-2,914
947,4	-1,829
947,8	-2,543
948,2	1,057
948,7	2,8
949,1	3,714
949,5	3,457
949,9	3,543
950,3	6,257
950,8	4,686
951,2	6,429
951,6	3,057
952	8,343
952,5	10,514
952,9	11,114
953,3	6,657
953,7	8
954,1	7,114
954,6	7,457
955	6,743
955,4	6,571
955,8	7,086
956,2	9,6
956,7	14,629
957,1	9,314
957,5	6,257
957,9	1,743
958,3	-1,286
958,8	-2,857
959,2	-3,686
959,6	-6,143
960	1,914
960,5	5,029
960,9	9,571
961,3	11,886
961,7	10,057
962,1	9,2
962,6	10,314
963	10,114
963,4	12,114
963,8	11,257
964,2	9,314
964,7	8,943
965,1	9,771
965,5	5,114
965,9	-3,143
966,3	-8,543
966,8	-9,571
967,2	-10,229
967,6	-4,171
968	-4,371
968,4	-5,571
968,9	-4,171
969,3	1,829
969,7	4,029
970,1	4,771
970,5	4,943
971	1,057
971,4	1,971
971,8	4,371
972,2	-3,714
972,6	-8,514
973,1	-6,229
973,5	-7,629
973,9	-3,657
974,3	-0,6
974,7	-0,686
975,2	2,343
975,6	7
976	2,686
976,4	-0,257
976,8	4,143
977,3	3,943
977,7	4,2
978,1	5,286
978,5	1,629
978,9	-1
979,4	-2,314
979,8	-8,2
980,2	-7,771
980,6	-9,229
981	-9
981,5	-13,457
981,9	-6,057
982,3	-0,343
982,7	-1,057
983,1	1
983,6	-1,029
984	-5,343
984,4	4,171
984,8	3,943
985,2	2,229
985,6	1,857
986,1	-5,629
986,5	-1
986,9	1,857
987,3	0,143
987,7	-5,514
988,2	-7,943
988,6	-3
989	0,486
989,4	0,343
989,8	1
990,3	-1,257
990,7	5,143
991,1	5,971
991,5	8,743
991,9	8,971
992,3	9,514
992,8	9,629
993,2	9,257
993,6	4,343
994	9,6
994,4	8,971
994,9	13,829
995,3	17,943
995,7	19,771
996,1	18,029
996,5	19,743
996,9	16,829
997,4	15,943
997,8	12,6
998,2	6,343
998,6	3,314
999	4,171
999,5	3,886
999,9	1,686
1000,3	-1,514
1000,7	-0,457
1001,1	2,486
1001,5	0,886
1002	0,171
1002,4	0,686
1002,8	-3,571
1003,2	-6,2
1003,6	-7,086
1004	-6,943
1004,5	-1,371
1004,9	1,4
1005,3	0,857
1005,7	5,429
1006,1	7,143
1006,6	4,086
1007	0,857
1007,4	0,429
1007,8	0,914
1008,2	1,143
1008,6	0,371
1009,1	0,543
1009,5	5,257
1009,9	7,657
1010,3	-0,686
1010,7	0,657
1011,1	-1,943
1011,6	2,943
1012	7,257
1012,4	1,543
1012,8	-1,543
1013,2	3,686
1013,6	-0,2
1014,1	0,857
1014,5	-6,371
1014,9	-9,229
1015,3	-6,457
1015,7	-4,229
1016,1	-0,486
1016,6	2,114
1017	4,086
1017,4	7,686
1017,8	7
1018,2	7,457
1018,6	8,057
1019,1	3,257
1019,5	4,629
1019,9	4,943
1020,3	3,771
1020,7	-1,2
1021,1	-6,686
1021,6	-6,829
1022	-3,886
1022,4	-10,057
1022,8	-10,971
1023,2	-9,886
1023,6	-6,629
1024,1	-2,429
1024,5	-2,629
1024,9	-4,686
1025,3	-3,114
1025,7	-6,429
1026,1	-9,886
1026,6	-5,943
1027	-3,057
1027,4	-7,829
1027,8	-4,4
1028,2	-0,057
1028,6	1,457
1029	6,486
1029,5	0,8
1029,9	-2,971
1030,3	-1,143
1030,7	1,314
1031,1	-3,257
1031,5	-3,657
1032	-6,743
1032,4	-2,857
1032,8	-3,057
1033,2	-0,143
1033,6	-5,4
1034	-6,4
1034,4	-2,6
1034,9	0,571
1035,3	-1,429
1035,7	0,286
1036,1	1,686
1036,5	3,057
1036,9	7,914
1037,4	8,029
1037,8	6,657
1038,2	13,371
1038,6	12,829
1039	6,457
1039,4	7,257
1039,8	8,143
1040,3	8,857
1040,7	9,114
1041,1	2,229
1041,5	-1,029
1041,9	3,486
1042,3	3,086
1042,7	2,286
1043,2	2,457
1043,6	-0,457
1044	3,286
1044,4	10,686
1044,8	13,771
1045,2	11,457
1045,6	10,971
1046,1	10
1046,5	14,771
1046,9	13,657
1047,3	10,057
1047,7	12,286
1048,1	14,457
1048,5	11,743
1049	15,114
1049,4	14,057
1049,8	14,8
1050,2	12,943
1050,6	7,6
1051	8,171
1051,4	12,371
1051,9	2,657
1052,3	5,971
1052,7	3,286
1053,1	7,229
1053,5	3,286
1053,9	2,657
1054,3	1,514
1054,8	9,343
1055,2	4,229
1055,6	2,314
1056	0,143
1056,4	6,657
1056,8	8,6
1057,2	4,829
1057,6	-1,886
1058,1	0,971
1058,5	-0,086
1058,9	6,343
1059,3	6,571
1059,7	3
1060,1	7,743
1060,5	15,8
1061	13,743
1061,4	14,514
1061,8	10,343
1062,2	8,371
1062,6	2,829
1063	1,286
1063,4	0,629
1063,8	-1,686
1064,3	1
1064,7	1,629
1065,1	0,886
1065,5	4,943
1065,9	1,829
1066,3	2,057
1066,7	4,886
1067,1	8
1067,6	8,743
1068	7,686
1068,4	10,543
1068,8	10,714
1069,2	7,429
1069,6	6,829
1070	5,571
1070,4	1,886
1070,9	2,029
1071,3	1,8
1071,7	7,429
1072,1	5,314
1072,5	8,429
1072,9	10,086
1073,3	12,343
1073,7	14,2
1074,2	14,829
1074,6	10,086
1075	16,086
1075,4	14,714
1075,8	11,829
1076,2	10,029
1076,6	9,4
1077	9,857
1077,5	11,514
1077,9	6,857
1078,3	4,143
1078,7	6,257
1079,1	6,8
1079,5	6,943
1079,9	3,686
1080,3	2,743
1080,7	6,657
1081,2	6,543
1081,6	7,371
1082	3,629
1082,4	2,629
1082,8	5,257
1083,2	5,543
1083,6	1,857
1084	4,829
1084,5	-0,057
1084,9	2,886
1085,3	-0,886
1085,7	-2,629
1086,1	2,543
1086,5	-4
1086,9	-5,714
1087,3	-2,829
1087,7	-6,514
1088,2	-4,971
1088,6	-2,971
1089	-6,086
1089,4	-0,029
1089,8	-1,514
1090,2	-4,914
1090,6	0,343
1091	7,371
1091,4	4,743
1091,9	2,457
1092,3	3,686
1092,7	3,457
1093,1	10,229
1093,5	7,943
1093,9	3,257
1094,3	5,686
1094,7	8,2
1095,1	8,429
1095,5	8,829
1096	6,171
1096,4	8,371
1096,8	6,686
1097,2	8,171
1097,6	9,086
1098	11,286
1098,4	11,743
1098,8	11,371
1099,2	8,029
1099,6	9,829
1100,1	7,714
1100,5	3,2
1100,9	-2,029
1101,3	-4,429
1101,7	-5,971
1102,1	-0,771
1102,5	-1,457
1102,9	0,886
1103,3	-1,171
1103,7	3,886
1104,2	7,514
1104,6	6,886
1105	5,943
1105,4	5,714
1105,8	2,457
1106,2	6
1106,6	2,886
1107	1,514
1107,4	3
1107,8	-0,04
1108,3	-0,15
