Data from Subt2_317.txt Node
Date: Sat Aug 26 19:16:48 MSK 2023
User: vat
Spectrometer: MAYP114033
Trigger mode: 0
Integration Time (sec): 1,000000E0
Scans to average: 5
Electric dark correction enabled: true
Nonlinearity correction enabled: false
Boxcar width: 3
XAxis mode: Wavelengths
Number of Pixels in Spectrum: 2068
>>>>>Begin Spectral Data<<<<<
199,4	-0,767
199,9	4,073
200,4	3,4
200,8	5,662
201,3	5,433
201,8	7,919
202,2	7,033
202,7	10,719
203,2	7,805
203,6	6,69
204,1	5,69
204,6	8,348
205	9,033
205,5	11,548
206	9,205
206,4	8,519
206,9	11,233
207,4	12,519
207,8	10,09
208,3	6,605
208,8	7,548
209,2	9,348
209,7	11,576
210,2	10,833
210,6	10,748
211,1	11,69
211,5	11,776
212	10,462
212,5	8,319
212,9	3,919
213,4	3,376
213,9	0,405
214,3	4,948
214,8	5,89
215,3	6,09
215,7	10,29
216,2	18,405
216,7	20,176
217,1	19,919
217,6	21,519
218,1	24,348
218,5	20,033
219	14,49
219,5	13,09
219,9	8,262
220,4	19,233
220,9	10,805
221,3	9,233
221,8	14,376
222,3	17,262
222,7	15,605
223,2	18,633
223,6	6,948
224,1	8,09
224,6	10,348
225	7,176
225,5	2,833
226	3,005
226,4	2,662
226,9	6,148
227,4	8,462
227,8	3,348
228,3	3,176
228,8	8,233
229,2	11,748
229,7	11,576
230,2	9,576
230,6	13,776
231,1	20,062
231,5	22,29
232	21,376
232,5	19,176
232,9	21,919
233,4	26,062
233,9	23,348
234,3	21,405
234,8	21,49
235,3	19,862
235,7	18,576
236,2	18,862
236,7	12,862
237,1	13,548
237,6	7,405
238,1	6,805
238,5	7,119
239	9,033
239,4	12,948
239,9	11,062
240,4	7,49
240,8	17,662
241,3	16,405
241,8	16,862
242,2	13,405
242,7	4,062
243,2	9,348
243,6	10,976
244,1	7,948
244,6	10,233
245	11,919
245,5	13,005
245,9	15,519
246,4	15,319
246,9	17,348
247,3	15,205
247,8	18,033
248,3	18,176
248,7	19,548
249,2	21,09
249,7	19,719
250,1	18,862
250,6	16,09
251	15,005
251,5	13,662
252	14,119
252,4	16,633
252,9	14,576
253,4	8,376
253,8	10,29
254,3	7,662
254,8	9,948
255,2	3,09
255,7	-0,624
256,1	2,805
256,6	5,948
257,1	8,948
257,5	8,633
258	3,748
258,5	7,89
258,9	12,09
259,4	10,748
259,9	14,89
260,3	10,548
260,8	9,948
261,2	11,662
261,7	10,519
262,2	4,29
262,6	8,719
263,1	8,805
263,6	12,748
264	15,405
264,5	20,69
264,9	19,605
265,4	20,719
265,9	16,976
266,3	17,605
266,8	18,405
267,3	16,805
267,7	13,633
268,2	13,89
268,7	15,662
269,1	14,462
269,6	9,119
270	7,948
270,5	7,205
271	6,09
271,4	10,89
271,9	8,09
272,4	9,148
272,8	11,69
273,3	10,633
273,7	11,833
274,2	13,176
274,7	12,49
275,1	15,405
275,6	16,662
276,1	12,119
276,5	14,405
277	12,719
277,4	13,176
277,9	14,29
278,4	14,233
278,8	15,148
279,3	17,462
279,8	18,862
280,2	22,633
280,7	22,376
281,1	17,348
281,6	17,548
282,1	17,033
282,5	18,433
283	15,748
283,4	13,976
283,9	13,09
284,4	16,319
284,8	14,89
285,3	9,376
285,8	11,262
286,2	5,462
286,7	3,976
287,1	4,376
287,6	5,119
288,1	2,833
288,5	7,776
289	5,433
289,5	10,633
289,9	8,176
290,4	8,319
290,8	5,433
291,3	8,805
291,8	9,69
292,2	10,805
292,7	12,405
293,1	12,719
293,6	12,633
294,1	15,576
294,5	16,233
295	12,462
295,5	13,662
295,9	12,376
296,4	11,29
296,8	8,719
297,3	9,148
297,8	3,862
298,2	6,605
298,7	9,262
299,1	12,062
299,6	14,348
300,1	16,776
300,5	13,948
301	23,405
301,5	25,576
301,9	18,176
302,4	14,376
302,8	17,005
303,3	12,805
303,8	12,119
304,2	6,633
304,7	3,062
305,1	0,148
305,6	3,119
306,1	4,576
306,5	10,776
307	14,662
307,4	16,748
307,9	19,148
308,4	24,005
308,8	16,833
309,3	15,033
309,8	14,205
310,2	9,519
310,7	7,148
311,1	2,633
311,6	1,205
312,1	5,433
312,5	6,976
313	4,748
313,4	8,662
313,9	10,862
314,4	14,319
314,8	13,348
315,3	10,605
315,7	0,548
316,2	-1,767
316,7	-3,538
317,1	-2,138
317,6	-4,424
318	-1,652
318,5	-1,481
319	5,805
319,4	9,605
319,9	14,348
320,3	15,919
320,8	15,319
321,3	18,062
321,7	22,205
322,2	19,976
322,6	23,176
323,1	20,233
323,6	17,262
324	19,176
324,5	17,09
324,9	20,062
325,4	21,348
325,9	18,833
326,3	16,233
326,8	19,376
327,2	18,205
327,7	18,605
328,2	12,462
328,6	15,519
329,1	11,148
329,5	11,033
330	7,262
330,5	8,319
330,9	9,89
331,4	12,805
331,8	8,719
332,3	11,348
332,8	11,89
333,2	11,49
333,7	14,405
334,1	13,833
334,6	12,29
335,1	12,119
335,5	11,348
336	9,919
336,4	10,805
336,9	14,719
337,4	16,062
337,8	17,719
338,3	17,548
338,7	22,348
339,2	24,005
339,7	27,405
340,1	20,176
340,6	16,605
341	15,376
341,5	18,776
342	13,233
342,4	13,119
342,9	5,319
343,3	6,719
343,8	9,49
344,2	10,519
344,7	11,519
345,2	11,919
345,6	14,176
346,1	18,49
346,5	15,576
347	9,348
347,5	7,919
347,9	11,09
348,4	13,29
348,8	10,919
349,3	13,062
349,8	21,09
350,2	32,033
350,7	31,748
351,1	27,09
351,6	29,205
352	33,176
352,5	38,176
353	39,89
353,4	42,233
353,9	54,605
354,3	67,919
354,8	79,633
355,3	96,548
355,7	112,205
356,2	136,519
356,6	159,919
357,1	186,69
357,5	220,633
358	257,262
358,5	296,405
358,9	341,833
359,4	393,205
359,8	447,49
360,3	515,462
360,8	581,919
361,2	659,176
361,7	743,862
362,1	840,662
362,6	937,719
363	1052,09
363,5	1166,462
364	1297,919
364,4	1429,062
364,9	1559,148
365,3	1682,262
365,8	1803,862
366,3	1914,376
366,7	2015,262
367,2	2095,919
367,6	2166,005
368,1	2224,719
368,5	2267,833
369	2281,119
369,5	2286,69
369,9	2268,805
370,4	2231,69
370,8	2180,319
371,3	2114,205
371,7	2031,776
372,2	1948,719
372,7	1855,205
373,1	1760,776
373,6	1662,033
374	1561,176
374,5	1454,862
374,9	1357,519
375,4	1261,805
375,9	1169,748
376,3	1076,748
376,8	990,633
377,2	907,433
377,7	831,176
378,2	760,519
378,6	701,148
379,1	637,262
379,5	587,976
380	547,719
380,4	508,548
380,9	474,519
381,4	437,348
381,8	406,319
382,3	383,948
382,7	355,376
383,2	330,148
383,6	305,69
384,1	286,319
384,6	273,205
385	252,805
385,5	232,633
385,9	214,176
386,4	197,062
386,8	188,833
387,3	173,89
387,7	160,29
388,2	149,633
388,7	141,548
389,1	133,262
389,6	130,033
390	120,833
390,5	120,748
390,9	114,348
391,4	110,462
391,9	101,633
392,3	100,29
392,8	89,005
393,2	81,519
393,7	69,833
394,1	62,662
394,6	56,89
395,1	57,633
395,5	49,89
396	50,205
396,4	50,605
396,9	48,976
397,3	52,233
397,8	53,633
398,2	50,119
398,7	55,062
399,2	55,233
399,6	54,29
400,1	54,976
400,5	52,948
401	52,205
401,4	51,062
401,9	52,433
402,4	55,633
402,8	49,948
403,3	53,262
403,7	50,033
404,2	48,462
404,6	49,033
405,1	44,262
405,5	36,862
406	41,033
406,5	37,49
406,9	42,919
407,4	42,49
407,8	44,633
408,3	47,49
408,7	50,519
409,2	53,176
409,6	58,833
410,1	57,09
410,6	67,29
411	66,033
411,5	64,576
411,9	65,776
412,4	65,062
412,8	63,005
413,3	67,748
413,7	60,205
414,2	61,005
414,7	67,862
415,1	75,176
415,6	78,748
416	85,29
416,5	81,262
416,9	82,776
417,4	87,948
417,8	95,748
418,3	96,233
418,8	98,833
419,2	96,29
419,7	103,119
420,1	110,976
420,6	108,262
421	99,89
421,5	97,176
421,9	94,49
422,4	92,233
422,8	92,062
423,3	84,89
423,8	85,976
424,2	85,805
424,7	86,833
425,1	90,176
425,6	94,69
426	89,805
426,5	94,748
426,9	96,919
427,4	93,49
427,9	89,776
428,3	88,462
428,8	90,548
429,2	91,376
429,7	89,948
430,1	86,119
430,6	89,233
431	90,29
431,5	90,033
431,9	82,319
432,4	84,49
432,8	82,919
433,3	83,862
433,8	84,119
434,2	87,89
434,7	90,576
435,1	92,805
435,6	94,49
436	96,805
436,5	101,776
436,9	98,776
437,4	100,033
437,8	99,29
438,3	103,29
438,8	103,29
439,2	106,776
439,7	111,719
440,1	121,233
440,6	127,69
441	130,976
441,5	136,062
441,9	142,548
442,4	141,948
442,8	143,062
443,3	144,376
443,7	144,49
444,2	156,519
444,7	162,033
445,1	169,776
445,6	176,548
446	183,89
446,5	187,233
446,9	194,176
447,4	196,605
447,8	200,748
448,3	209,948
448,7	219,976
449,2	230,462
449,6	244,033
450,1	247,462
450,6	257,662
451	267,29
451,5	275,405
451,9	290,405
452,4	299,348
452,8	304,976
453,3	323,805
453,7	330,49
454,2	346,205
454,6	353,005
455,1	358,719
455,5	365,748
456	383,976
456,4	390,976
456,9	405,633
457,3	413,776
457,8	426,919
458,3	445,548
458,7	459,29
459,2	469,49
459,6	484,69
460,1	499,833
460,5	516,405
461	533,09
461,4	542,09
461,9	559,548
462,3	576,548
462,8	595,205
463,2	608,748
463,7	623,519
464,1	641,976
464,6	662,833
465	678,919
465,5	696,233
466	713,148
466,4	732,148
466,9	756,262
467,3	769,805
467,8	783,119
468,2	800,89
468,7	818,062
469,1	839,29
469,6	859,233
470	872,662
470,5	892,719
470,9	914,776
471,4	938,233
471,8	959,348
472,3	976,805
472,7	996,776
473,2	1015,205
473,6	1037,805
474,1	1060,233
474,5	1077,233
475	1099,948
475,4	1117,205
475,9	1134,748
476,4	1153,262
476,8	1173,69
477,3	1189,49
477,7	1210,805
478,2	1225,548
478,6	1241,29
479,1	1258,148
479,5	1274,976
480	1286,833
480,4	1307,348
480,9	1323,89
481,3	1335,919
481,8	1349,548
482,2	1361,805
482,7	1375,833
483,1	1386,976
483,6	1398,262
484	1409,205
484,5	1427,205
484,9	1441,119
485,4	1457,976
485,8	1475,176
486,3	1490,776
486,7	1504,605
487,2	1517,548
487,6	1527,862
488,1	1539,062
488,5	1541,376
489	1551,719
489,4	1565,462
489,9	1573,633
490,4	1577,89
490,8	1587,033
491,3	1601,376
491,7	1616,148
492,2	1623,605
492,6	1629,805
493,1	1630,519
493,5	1636,29
494	1636,205
494,4	1633,176
494,9	1631,233
495,3	1635,748
495,8	1638,862
496,2	1643,49
496,7	1644,69
497,1	1652,148
497,6	1662,719
498	1673,405
498,5	1673,748
498,9	1669,633
499,4	1673,719
499,8	1686,462
500,3	1694,005
500,7	1687,862
501,2	1691,776
501,6	1686,69
502,1	1692,319
502,5	1693,976
503	1689,233
503,4	1685,719
503,9	1690,09
504,3	1684,633
504,8	1692,176
505,2	1696,49
505,7	1693,09
506,1	1696,605
506,6	1691,633
507	1694,148
507,5	1698,319
507,9	1695,976
508,4	1697,148
508,8	1704,005
509,3	1698,776
509,7	1703,862
510,2	1705,119
510,6	1697,69
511,1	1697,148
511,5	1694,719
512	1689,719
512,4	1691,548
512,9	1684,29
513,3	1684,148
513,8	1687,405
514,2	1689,748
514,7	1687,662
515,1	1684,49
515,6	1681,233
516	1680,005
516,5	1677,348
516,9	1676,605
517,4	1676,262
517,8	1678,548
518,3	1681,548
518,7	1684,548
519,2	1683,433
519,6	1681,49
520,1	1678,833
520,5	1674,748
521	1667,319
521,4	1671,148
521,9	1669,548
522,3	1676,519
522,8	1677,805
523,2	1681,719
523,7	1683,833
524,1	1685,148
524,6	1681,919
525	1678,948
525,5	1675,605
525,9	1674,29
526,4	1672,233
526,8	1672,49
527,3	1676,348
527,7	1679,833
528,2	1685,548
528,6	1685,948
529,1	1690,09
529,5	1700,49
530	1700,176
530,4	1700,776
530,9	1704,262
531,3	1705,805
531,8	1711,919
532,2	1712,862
532,6	1706,49
533,1	1705,633
533,5	1708,319
534	1708,662
534,4	1707,948
534,9	1710,29
535,3	1711,862
535,8	1716,119
536,2	1723,89
536,7	1726,548
537,1	1728,605
537,6	1731,862
538	1736,033
538,5	1736,633
538,9	1735,548
539,4	1741,233
539,8	1744,919
540,3	1745,09
540,7	1749,519
541,2	1748,833
541,6	1750,576
542,1	1755,633
542,5	1756,662
543	1750,89
543,4	1750,862
543,9	1751,833
544,3	1757,748
544,8	1760,69
545,2	1765,49
545,7	1768,09
546,1	1777,09
546,5	1789,119
547	1791,605
547,4	1793,119
547,9	1799,433
548,3	1807,69
548,8	1810,49
549,2	1816,205
549,7	1815,633
550,1	1819,605
550,6	1818,833
551	1820,29
551,5	1820,033
551,9	1815,862
552,4	1819,948
552,8	1820,948
553,3	1822,719
553,7	1827,69
554,2	1832,462
554,6	1834,833
555,1	1845,29
555,5	1843,033
555,9	1843,433
556,4	1845,833
556,8	1845,719
557,3	1849,348
557,7	1847,033
558,2	1846,119
558,6	1850,176
559,1	1852,719
559,5	1858,433
560	1865,805
560,4	1864,833
560,9	1868,205
561,3	1868,805
561,8	1870,09
562,2	1877,176
562,7	1871,262
563,1	1869,805
563,6	1870,919
564	1876,719
564,4	1879,633
564,9	1881,948
565,3	1882,376
565,8	1887,662
566,2	1889,89
566,7	1892,776
567,1	1890,348
567,6	1888,919
568	1892,319
568,5	1889,119
568,9	1891,233
569,4	1891,548
569,8	1897,548
570,3	1895,719
570,7	1897,462
571,1	1897,148
571,6	1901,919
572	1901,748
572,5	1900,433
572,9	1898,033
573,4	1898,576
573,8	1902,205
574,3	1899,633
574,7	1896,09
575,2	1900,976
575,6	1903,976
576,1	1903,433
576,5	1905,948
576,9	1899,576
577,4	1900,576
577,8	1894,148
578,3	1888,033
578,7	1879,376
579,2	1878,233
579,6	1874,462
580,1	1878,09
580,5	1874,89
581	1880,862
581,4	1879,062
581,9	1880,262
582,3	1872,576
582,7	1872,205
583,2	1872,319
583,6	1870,776
584,1	1865,776
584,5	1865,233
585	1870,833
585,4	1866,69
585,9	1861,29
586,3	1855,805
586,8	1858,462
587,2	1854,005
587,6	1852,548
588,1	1848,805
588,5	1847,233
589	1847,462
589,4	1842,862
589,9	1835,862
590,3	1832,348
590,8	1823,833
591,2	1814,948
591,7	1818,005
592,1	1807,948
592,5	1809,29
593	1804,633
593,4	1806,062
593,9	1806,719
594,3	1803,605
594,8	1795,233
595,2	1800,176
595,7	1797,49
596,1	1795,633
596,6	1792,233
597	1789,405
597,4	1791,119
597,9	1789,405
598,3	1784,833
598,8	1779,176
599,2	1774,09
599,7	1772,662
600,1	1768,148
600,6	1759,862
601	1760,49
601,4	1763,29
601,9	1761,948
602,3	1757,548
602,8	1752,348
603,2	1745,89
603,7	1751,176
604,1	1744,748
604,6	1735,033
605	1730,348
605,4	1729,09
605,9	1720,576
606,3	1712,662
606,8	1697,49
607,2	1688,633
607,7	1680,948
608,1	1674,262
608,6	1666,548
609	1664,805
609,4	1667,548
609,9	1666,519
610,3	1667,919
610,8	1663,719
611,2	1659,776
611,7	1657,033
612,1	1650,69
612,6	1645,69
613	1640,833
613,4	1631,319
613,9	1624,89
614,3	1615,176
614,8	1613,262
615,2	1605,233
615,7	1602,576
616,1	1593,405
616,6	1587,576
617	1583,462
617,4	1586,605
617,9	1579,376
618,3	1575,005
618,8	1571,376
619,2	1569,89
619,7	1567,433
620,1	1558,833
620,5	1548,862
621	1541,09
621,4	1537,605
621,9	1524,605
622,3	1516,605
622,8	1507,119
623,2	1506,033
623,6	1501,805
624,1	1493,348
624,5	1487,69
625	1485,49
625,4	1481,49
625,9	1475,776
626,3	1467,433
626,8	1455,462
627,2	1452,062
627,6	1445,433
628,1	1430,662
628,5	1423,976
629	1415,348
629,4	1409,233
629,9	1402,776
630,3	1390,719
630,7	1377,719
631,2	1378,205
631,6	1370,776
632,1	1366,89
632,5	1360,519
633	1358,919
633,4	1357,176
633,8	1358,262
634,3	1347,433
634,7	1342,005
635,2	1332,919
635,6	1325,576
636,1	1318,919
636,5	1304,605
636,9	1292,948
637,4	1285,805
637,8	1270,148
638,3	1262,205
638,7	1253,976
639,2	1241,576
639,6	1240,09
640	1233,205
640,5	1229,205
640,9	1225,49
641,4	1223,233
641,8	1221,548
642,2	1216,805
642,7	1216,69
643,1	1214,348
643,6	1209,09
644	1211,205
644,5	1205,09
644,9	1196,919
645,3	1195,976
645,8	1181,319
646,2	1175,348
646,7	1168,233
647,1	1161,576
647,6	1158,89
648	1155,719
648,4	1143,862
648,9	1147,805
649,3	1143,862
649,8	1139,862
650,2	1136,633
650,6	1131,319
651,1	1119,948
651,5	1118,319
652	1107,519
652,4	1098,605
652,9	1096,89
653,3	1084,119
653,7	1074,948
654,2	1069,919
654,6	1063,262
655,1	1061,233
655,5	1062,119
655,9	1051,233
656,4	1051,662
656,8	1044,462
657,3	1043,89
657,7	1042,062
658,2	1031,633
658,6	1018,748
659	1010,233
659,5	998,033
659,9	994,576
660,4	988,89
660,8	975,805
661,2	965,348
661,7	966,148
662,1	961,719
662,6	956,148
663	949,862
663,4	942,948
663,9	941,062
664,3	943,062
664,8	931,948
665,2	929,89
665,6	924,633
666,1	918,576
666,5	911,862
667	907,062
667,4	899,348
667,9	895,605
668,3	894,119
668,7	889,062
669,2	883,805
669,6	876,948
670,1	873,462
670,5	870,148
670,9	862,748
671,4	850,576
671,8	847,576
672,3	842,69
672,7	842,69
673,1	830,462
673,6	821,205
674	819,633
674,5	816,376
674,9	808,519
675,3	806,176
675,8	800,919
676,2	799,49
676,7	794,805
677,1	786,833
677,5	780,576
678	778,69
678,4	776,576
678,9	770,176
679,3	764,833
679,7	764,433
680,2	757,519
680,6	753,005
681,1	742,662
681,5	736,89
681,9	734,948
682,4	730,405
682,8	725,576
683,3	728,433
683,7	725,833
684,1	727,805
684,6	719,919
685	709,348
685,5	709,233
685,9	700,519
686,3	685,776
686,8	683,29
687,2	677,433
687,7	674,519
688,1	667,433
688,5	662,462
689	662,862
689,4	662,176
689,9	658,433
690,3	652,719
690,7	647,119
691,2	648,348
691,6	641,405
692	638,719
692,5	637,69
692,9	634,919
693,4	629,605
693,8	626,805
694,2	621,09
694,7	618,348
695,1	611,862
695,6	606,148
696	598,348
696,4	598,09
696,9	590,405
697,3	586,29
697,8	583,033
698,2	575,433
698,6	575,49
699,1	571,948
699,5	569,148
699,9	568,09
700,4	562,919
700,8	558,233
701,3	558,205
701,7	551,633
702,1	549,176
702,6	546,062
703	546,833
703,5	543,119
703,9	541,748
704,3	538,576
704,8	536,49
705,2	531,376
705,6	525,462
706,1	517,09
706,5	515,233
707	511,376
707,4	509,69
707,8	501,576
708,3	502,69
708,7	501,833
709,2	498,462
709,6	497,376
710	497,719
710,5	489,576
710,9	491,405
711,3	485,176
711,8	480,805
712,2	477,833
712,7	471,119
713,1	467,119
713,5	470,005
714	470,148
714,4	466,062
714,8	466,433
715,3	463,719
715,7	462,576
716,2	454,29
716,6	451,29
717	443,462
717,5	439,948
717,9	437,919
718,3	436,348
718,8	433,348
719,2	429,176
719,7	423,205
720,1	423,09
720,5	425,319
721	420,033
721,4	417,605
721,8	420,49
722,3	417,69
722,7	417,548
723,2	409,348
723,6	396,862
724	392,69
724,5	390,262
724,9	387,376
725,3	388,09
725,8	385,805
726,2	383,433
726,7	385,033
727,1	382,976
727,5	380,033
728	373,576
728,4	368,233
728,8	364,662
729,3	365,605
729,7	363,09
730,1	361,405
730,6	359,976
731	356,205
731,5	356,776
731,9	353,49
732,3	352,405
732,8	351,519
733,2	351,005
733,6	348,348
734,1	348,833
734,5	344,233
734,9	344,862
735,4	343,948
735,8	339,262
736,3	337,519
736,7	329,633
737,1	328,348
737,6	331,348
738	329,862
738,4	324,205
738,9	326,205
739,3	319,519
739,7	324,69
740,2	317,948
740,6	318,49
741,1	316,776
741,5	313,405
741,9	310,49
742,4	312,49
742,8	309,862
743,2	314,319
743,7	304,69
744,1	293,805
744,5	296,776
745	293,548
745,4	290,548
745,8	289,605
746,3	287,29
746,7	286,833
747,2	291,662
747,6	290,262
748	292,119
748,5	294,29
748,9	287,633
749,3	283,605
749,8	284,748
750,2	283,948
750,6	280,748
751,1	280,319
751,5	274,205
751,9	276,633
752,4	275,233
752,8	270,233
753,3	265,948
753,7	263,805
754,1	254,805
754,6	252,319
755	248,119
755,4	243,29
755,9	241,233
756,3	240,262
756,7	242,633
757,2	248,49
757,6	246,262
758	246,462
758,5	249,719
758,9	252,433
759,3	254,233
759,8	246,548
760,2	243,176
760,6	242,09
761,1	239,119
761,5	232,748
761,9	225,776
762,4	221,548
762,8	222,376
763,3	217,233
763,7	217,49
764,1	218,462
764,6	222,748
765	227,29
765,4	228,348
765,9	226,462
766,3	228,176
766,7	223,776
767,2	221,262
767,6	217,919
768	213,976
768,5	212,119
768,9	214,033
769,3	209,919
769,8	209,69
770,2	209,462
770,6	204,919
771,1	208,833
771,5	204,433
771,9	200,176
772,4	201,119
772,8	199,119
773,2	199,919
773,7	200,805
774,1	197,405
774,5	193,062
775	193,062
775,4	192,662
775,8	194,376
776,3	192,605
776,7	194,405
777,1	190,948
777,6	194,062
778	197,033
778,4	195,262
778,9	194,376
779,3	188,976
779,7	186,233
780,2	191,462
780,6	192,976
781	185,405
781,5	182,462
781,9	180,205
782,3	179,29
782,8	178,29
783,2	171,376
783,6	171,519
784,1	174,862
784,5	173,662
784,9	171,662
785,4	177,119
785,8	175,29
786,2	174,605
786,7	174,805
787,1	168,49
787,5	168,376
788	169,748
788,4	164,233
788,8	162,462
789,3	160,605
789,7	158,233
790,1	160,862
790,6	163,205
791	158,776
791,4	156,605
791,9	156,119
792,3	152,062
792,7	147,89
793,2	142,062
793,6	137,548
794	139,519
794,5	136,176
794,9	137,29
795,3	141,576
795,8	140,033
796,2	143,319
796,6	144,862
797,1	141,29
797,5	141,319
797,9	138,576
798,4	132,205
798,8	130,833
799,2	128,719
799,7	129,29
800,1	127,633
800,5	126,348
801	130,29
801,4	128,033
801,8	125,348
802,2	122,062
802,7	117,348
803,1	118,919
803,5	120,976
804	112,948
804,4	116,776
804,8	120,576
805,3	122,919
805,7	123,033
806,1	121,233
806,6	121,776
807	122,319
807,4	119,376
807,9	112,576
808,3	115,319
808,7	116,233
809,2	122,233
809,6	125,262
810	126,005
810,4	127,462
810,9	131,433
811,3	126,519
811,7	122,605
812,2	122,033
812,6	115,89
813	116,548
813,5	117,748
813,9	115,948
814,3	115,319
814,8	115,519
815,2	107,319
815,6	107,719
816,1	109,576
816,5	109,976
816,9	108,719
817,3	105,633
817,8	111,89
818,2	113,976
818,6	107,29
819,1	102,233
819,5	97,576
819,9	96,262
820,4	101,262
820,8	95,376
821,2	90,262
821,7	96,033
822,1	96,976
822,5	99,09
822,9	101,462
823,4	98,119
823,8	96,205
824,2	98,719
824,7	93,833
825,1	90,633
825,5	83,462
826	73,405
826,4	70,548
826,8	74,176
827,3	75,633
827,7	74,49
828,1	75,919
828,5	81,148
829	84,005
829,4	88,548
829,8	80,29
830,3	75,462
830,7	74,233
831,1	73,748
831,6	74,062
832	76,719
832,4	72,719
832,8	77,605
833,3	79,376
833,7	80,233
834,1	78,833
834,6	72,69
835	73,69
835,4	75,376
835,8	67,348
836,3	64,919
836,7	65,576
837,1	62,833
837,6	68,462
838	65,719
838,4	63,033
838,9	69,176
839,3	69,776
839,7	71,376
840,1	70,005
840,6	63,776
841	64,833
841,4	65,005
841,9	63,805
842,3	61,233
842,7	55,548
843,1	57,833
843,6	61,148
844	61,233
844,4	62,605
844,9	61,405
845,3	62,233
845,7	67,233
846,2	65,376
846,6	66,176
847	65,405
847,4	65,29
847,9	65,862
848,3	67,805
848,7	64,89
849,2	64,833
849,6	57,719
850	59,376
850,4	60,462
850,9	59,205
851,3	61,119
851,7	61,548
852,2	58,662
852,6	65,233
853	63,548
853,4	60,233
853,9	59,633
854,3	58,262
854,7	58,462
855,2	59,776
855,6	60,69
856	61,605
856,4	56,433
856,9	51,119
857,3	49,376
857,7	53,919
858,2	57,519
858,6	51,348
859	46,805
859,4	50,433
859,9	55,005
860,3	52,09
860,7	46,976
861,1	46,776
861,6	49,976
862	53,576
862,4	53,576
862,9	52,748
863,3	52,662
863,7	52,89
864,1	52,119
864,6	49,748
865	49,205
865,4	48,005
865,9	49,862
866,3	46,348
866,7	43,148
867,1	40,348
867,6	38,148
868	32,29
868,4	29,319
868,8	30,205
869,3	30,776
869,7	37,69
870,1	36,605
870,6	35,976
871	42,062
871,4	51,319
871,8	46,919
872,3	52,033
872,7	50,005
873,1	48,176
873,5	50,919
874	49,662
874,4	42,462
874,8	41,205
875,3	41,633
875,7	36,776
876,1	40,119
876,5	43,205
877	37,748
877,4	36,948
877,8	40,976
878,2	48,005
878,7	50,09
879,1	49,319
879,5	50,462
879,9	56,605
880,4	57,062
880,8	55,233
881,2	45,748
881,7	41,433
882,1	40,205
882,5	34,176
882,9	31,233
883,4	30,662
883,8	32,805
884,2	31,805
884,6	33,49
885,1	36,776
885,5	37,576
885,9	38,233
886,3	40,033
886,8	37,148
887,2	37,748
887,6	35,576
888	34,948
888,5	33,148
888,9	31,576
889,3	28,862
889,8	29,805
890,2	28,262
890,6	24,805
891	24,776
891,5	24,148
891,9	23,919
892,3	24,49
892,7	22,548
893,2	22,376
893,6	26,719
894	27,005
894,4	26,748
894,9	26,462
895,3	28,948
895,7	29,09
896,1	32,348
896,6	34,576
897	34,376
897,4	40,862
897,8	43,662
898,3	44,376
898,7	42,919
899,1	45,605
899,5	42,348
900	36,09
900,4	30,633
900,8	27,348
901,2	21,405
901,7	21,148
902,1	17,148
902,5	21,833
902,9	25,233
903,4	28,862
903,8	30,49
904,2	31,633
904,6	33,748
905,1	33,262
905,5	31,976
905,9	30,919
906,3	30,29
906,8	32,062
907,2	33,548
907,6	34,69
908	38,119
908,5	36,662
908,9	34,633
909,3	31,09
909,7	28,662
910,2	28,462
910,6	33,09
911	27,833
911,4	26,119
911,9	24,348
912,3	24,033
912,7	27,719
913,1	30,205
913,6	21,29
914	21,919
914,4	19,833
914,8	25,405
915,3	23,833
915,7	21,576
916,1	20,405
916,5	22,576
916,9	23,405
917,4	23,976
917,8	24,319
918,2	25,719
918,6	20,348
919,1	18,805
919,5	21,662
919,9	18,633
920,3	24,033
920,8	22,662
921,2	20,948
921,6	25,376
922	22,262
922,5	18,633
922,9	22,576
923,3	18,662
923,7	19,833
924,2	19,776
924,6	19,805
925	22,748
925,4	17,948
925,8	11,348
926,3	11,433
926,7	8,262
927,1	12,405
927,5	12,69
928	9,519
928,4	10,89
928,8	14,548
929,2	12,576
929,7	15,89
930,1	9,376
930,5	5,119
930,9	10,633
931,3	14,776
931,8	16,29
932,2	19,09
932,6	16,262
933	14,948
933,5	17,69
933,9	16,662
934,3	17,433
934,7	13,576
935,2	10,976
935,6	12,462
936	18,719
936,4	18,919
936,8	16,519
937,3	14,805
937,7	22,09
938,1	23,405
938,5	18,49
939	18,805
939,4	16,833
939,8	17,033
940,2	15,548
940,6	11,862
941,1	10,805
941,5	18,719
941,9	15,29
942,3	16,348
942,8	19,462
943,2	19,548
943,6	17,348
944	20,29
944,4	17,348
944,9	15,805
945,3	16,605
945,7	11,405
946,1	11,29
946,6	11,005
947	7,033
947,4	7,862
947,8	11,233
948,2	7,605
948,7	11,319
949,1	12,862
949,5	17,205
949,9	18,576
950,3	16,319
950,8	14,662
951,2	18,233
951,6	14,262
952	17,09
952,5	10,776
952,9	13,605
953,3	11,633
953,7	11,948
954,1	14,148
954,6	15,29
955	17,462
955,4	17,748
955,8	20,29
956,2	22,29
956,7	23,662
957,1	22,519
957,5	24,062
957,9	23,29
958,3	23,862
958,8	20,405
959,2	25,833
959,6	29,405
960	25,948
960,5	30,462
960,9	26,205
961,3	25,462
961,7	22,033
962,1	17,862
962,6	14,176
963	15,29
963,4	7,576
963,8	6,29
964,2	8,976
964,7	14,348
965,1	14,262
965,5	11,176
965,9	13,119
966,3	17,49
966,8	20,89
967,2	20,348
967,6	15,605
968	12,148
968,4	18,176
968,9	18,976
969,3	22,233
969,7	17,119
970,1	16,662
970,5	17,519
971	23,262
971,4	22,605
971,8	21,119
972,2	15,576
972,6	18,319
973,1	19,062
973,5	19,89
973,9	18,005
974,3	13,748
974,7	13,862
975,2	15,69
975,6	13,062
976	17,119
976,4	13,033
976,8	10,176
977,3	9,719
977,7	8,49
978,1	9,776
978,5	6,833
978,9	2,519
979,4	4,033
979,8	5,519
980,2	6,919
980,6	4,948
981	5,748
981,5	11,462
981,9	11,433
982,3	14,576
982,7	15,69
983,1	13,805
983,6	15,805
984	13,433
984,4	12,548
984,8	10,376
985,2	12,433
985,6	6,005
986,1	8,919
986,5	9,919
986,9	5,176
987,3	10,29
987,7	13,49
988,2	11,462
988,6	17,605
989	15,29
989,4	11,948
989,8	14,919
990,3	9,262
990,7	6,833
991,1	6,033
991,5	6,49
991,9	9,748
992,3	14,29
992,8	18,519
993,2	17,148
993,6	20,776
994	23,09
994,4	22,748
994,9	21,948
995,3	18,005
995,7	11,89
996,1	16,176
996,5	15,49
996,9	12,062
997,4	11,976
997,8	9,033
998,2	9,233
998,6	8,262
999	4,776
999,5	2,29
999,9	1,519
1000,3	0,119
1000,7	3,948
1001,1	3,348
1001,5	11,176
1002	20,748
1002,4	22,633
1002,8	23,319
1003,2	26,462
1003,6	29,148
1004	32,89
1004,5	25,719
1004,9	23,662
1005,3	20,519
1005,7	20,748
1006,1	14,576
1006,6	8,748
1007	8,776
1007,4	9,89
1007,8	8,176
1008,2	9,176
1008,6	10,29
1009,1	14,119
1009,5	18,262
1009,9	18,948
1010,3	22,29
1010,7	19,405
1011,1	22,69
1011,6	20,633
1012	21,376
1012,4	16,262
1012,8	14,433
1013,2	14,319
1013,6	15,376
1014,1	11,69
1014,5	13,576
1014,9	11,262
1015,3	12,805
1015,7	14,405
1016,1	12,376
1016,6	11,319
1017	13,519
1017,4	14,033
1017,8	13,405
1018,2	17,433
1018,6	14,433
1019,1	12,576
1019,5	15,519
1019,9	12,919
1020,3	13,89
1020,7	17,119
1021,1	14,033
1021,6	14,633
1022	21,462
1022,4	19,519
1022,8	21,805
1023,2	18,548
1023,6	18,205
1024,1	22,205
1024,5	21,405
1024,9	14,119
1025,3	10,319
1025,7	6,49
1026,1	9,69
1026,6	9,119
1027	5,719
1027,4	9,69
1027,8	12,148
1028,2	13,29
1028,6	20,348
1029	18,233
1029,5	21,376
1029,9	20,205
1030,3	17,348
1030,7	17,148
1031,1	17,519
1031,5	11,49
1032	8,09
1032,4	5,919
1032,8	9,319
1033,2	8,576
1033,6	10,519
1034	11,748
1034,4	13,805
1034,9	19,49
1035,3	15,233
1035,7	12,319
1036,1	10,662
1036,5	7,89
1036,9	9,833
1037,4	14,776
1037,8	7,405
1038,2	12,662
1038,6	15,576
1039	18,919
1039,4	24,948
1039,8	24,205
1040,3	19,976
1040,7	22,719
1041,1	23,833
1041,5	22,548
1041,9	21,29
1042,3	20,062
1042,7	21,719
1043,2	18,833
1043,6	21,09
1044	13,805
1044,4	13,633
1044,8	17,062
1045,2	16,976
1045,6	18,062
1046,1	19,433
1046,5	20,376
1046,9	25,233
1047,3	25,405
1047,7	19,205
1048,1	15,776
1048,5	13,405
1049	15,548
1049,4	17,862
1049,8	16,319
1050,2	18,033
1050,6	25,633
1051	26,033
1051,4	24,519
1051,9	26,49
1052,3	31,205
1052,7	31,29
1053,1	27,605
1053,5	22,748
1053,9	22,633
1054,3	23,176
1054,8	24,548
1055,2	17,89
1055,6	19,948
1056	22,862
1056,4	24,176
1056,8	25,49
1057,2	25,033
1057,6	16,348
1058,1	14,548
1058,5	11,176
1058,9	10,348
1059,3	8,548
1059,7	9,833
1060,1	5,433
1060,5	10,748
1061	15,176
1061,4	15,833
1061,8	15,062
1062,2	18,376
1062,6	22,233
1063	28,548
1063,4	28,576
1063,8	23,633
1064,3	19,005
1064,7	20,862
1065,1	17,005
1065,5	9,519
1065,9	7,633
1066,3	6,119
1066,7	8,948
1067,1	12,576
1067,6	14,148
1068	11,948
1068,4	12,005
1068,8	10,69
1069,2	12,519
1069,6	10,348
1070	14,633
1070,4	9,633
1070,9	10,148
1071,3	12,633
1071,7	10,605
1072,1	9,776
1072,5	9,748
1072,9	6,776
1073,3	8,862
1073,7	13,148
1074,2	14,033
1074,6	17,776
1075	14,862
1075,4	13,719
1075,8	16,833
1076,2	15,49
1076,6	14,833
1077	11,462
1077,5	15,148
1077,9	17,005
1078,3	17,605
1078,7	15,348
1079,1	14,262
1079,5	14,148
1079,9	16,348
1080,3	14,348
1080,7	15,662
1081,2	22,062
1081,6	22,376
1082	24,29
1082,4	29,233
1082,8	28,948
1083,2	26,976
1083,6	27,805
1084	19,576
1084,5	21,548
1084,9	22,233
1085,3	11,462
1085,7	12,862
1086,1	12,776
1086,5	11,09
1086,9	19,405
1087,3	14,976
1087,7	9,462
1088,2	15,005
1088,6	14,376
1089	13,348
1089,4	14,89
1089,8	12,09
1090,2	13,29
1090,6	16,719
1091	14,548
1091,4	15,662
1091,9	15,662
1092,3	14,776
1092,7	11,148
1093,1	16,89
1093,5	17,519
1093,9	18,205
1094,3	19,205
1094,7	17,376
1095,1	19,09
1095,5	19,062
1096	9,005
1096,4	8,919
1096,8	10,433
1097,2	10,176
1097,6	16,862
1098	13,719
1098,4	17,805
1098,8	23,062
1099,2	25,548
1099,6	22,633
1100,1	15,89
1100,5	8,662
1100,9	11,005
1101,3	8,69
1101,7	6,833
1102,1	4,948
1102,5	8,062
1102,9	16,376
1103,3	20,148
1103,7	17,519
1104,2	14,462
1104,6	15,805
1105	14,005
1105,4	13,148
1105,8	5,548
1106,2	2,176
1106,6	2,119
1107	3,776
1107,4	2,267
1107,8	2,753
1108,3	-0,067
