Data from Subt2_061.txt Node
Date: Sat Aug 26 16:32:19 MSK 2023
User: vat
Spectrometer: MAYP114033
Trigger mode: 0
Integration Time (sec): 1,000000E0
Scans to average: 5
Electric dark correction enabled: true
Nonlinearity correction enabled: false
Boxcar width: 3
XAxis mode: Wavelengths
Number of Pixels in Spectrum: 2068
>>>>>Begin Spectral Data<<<<<
199,4	-0,167
199,9	3,533
200,4	0,767
200,8	1,562
201,3	0,476
201,8	2,59
202,2	1,99
202,7	2,533
203,2	1,048
203,6	1,505
204,1	-0,095
204,6	3,305
205	6,419
205,5	5,648
206	9,276
206,4	9,162
206,9	9,876
207,4	12,419
207,8	9,019
208,3	6,705
208,8	8,219
209,2	6,819
209,7	9,162
210,2	11,476
210,6	10,819
211,1	14,305
211,5	12,276
212	10,076
212,5	6,076
212,9	0,505
213,4	0,105
213,9	0,248
214,3	-2,267
214,8	1,219
215,3	2,505
215,7	3,933
216,2	8,276
216,7	5,705
217,1	4,248
217,6	6,248
218,1	1,705
218,5	4,705
219	11,048
219,5	11,848
219,9	13,933
220,4	13,19
220,9	14,79
221,3	14,705
221,8	7,476
222,3	4,162
222,7	3,933
223,2	2,133
223,6	5,419
224,1	5,362
224,6	4,162
225	11,219
225,5	14,162
226	11,676
226,4	14,333
226,9	10,619
227,4	9,648
227,8	16,162
228,3	15,79
228,8	10,048
229,2	13,59
229,7	11,533
230,2	16,619
230,6	15,962
231,1	14,219
231,5	14,048
232	22,59
232,5	18,79
232,9	18,133
233,4	17,019
233,9	15,648
234,3	12,59
234,8	14,819
235,3	8,448
235,7	12,105
236,2	11,448
236,7	8,648
237,1	8,476
237,6	6,533
238,1	2,333
238,5	-0,695
239	-4,152
239,4	-1,495
239,9	-2,038
240,4	-1,124
240,8	3,419
241,3	-1,581
241,8	0,448
242,2	0,333
242,7	4,876
243,2	6,59
243,6	8,448
244,1	3,99
244,6	5,419
245	6,019
245,5	6,562
245,9	1,619
246,4	-0,981
246,9	-0,81
247,3	-0,01
247,8	5,248
248,3	7,133
248,7	13,019
249,2	10,105
249,7	11,99
250,1	6,533
250,6	9,99
251	7,419
251,5	4,162
252	-0,352
252,4	5,705
252,9	9,419
253,4	16,133
253,8	14,59
254,3	14,59
254,8	13,39
255,2	12,819
255,7	15,533
256,1	12,248
256,6	9,362
257,1	8,933
257,5	12,019
258	14,048
258,5	15,219
258,9	10,79
259,4	11,962
259,9	14,333
260,3	12,99
260,8	13,705
261,2	17,962
261,7	17,448
262,2	13,39
262,6	13,019
263,1	10,048
263,6	15,39
264	10,99
264,5	7,705
264,9	6,476
265,4	7,39
265,9	11,162
266,3	12,733
266,8	7,133
267,3	9,448
267,7	7,933
268,2	6,133
268,7	9,848
269,1	3,733
269,6	6,305
270	9,419
270,5	10,505
271	12,19
271,4	12,19
271,9	12,705
272,4	14,448
272,8	13,362
273,3	9,848
273,7	4,676
274,2	2,076
274,7	5,105
275,1	-0,581
275,6	1,076
276,1	-0,095
276,5	2,848
277	5,819
277,4	7,99
277,9	4,533
278,4	9,533
278,8	12,762
279,3	9,076
279,8	13,105
280,2	11,562
280,7	11,162
281,1	17,19
281,6	15,476
282,1	11,762
282,5	16,905
283	12,819
283,4	14,933
283,9	12,705
284,4	8,562
284,8	8,533
285,3	4,762
285,8	-2,01
286,2	-6,267
286,7	-5,295
287,1	-6,495
287,6	-5,095
288,1	-3,152
288,5	1,933
289	7,733
289,5	11,419
289,9	9,276
290,4	12,276
290,8	14,676
291,3	13,362
291,8	10,048
292,2	9,962
292,7	9,248
293,1	11,133
293,6	12,305
294,1	8,619
294,5	10,019
295	10,962
295,5	10,162
295,9	13,905
296,4	12,762
296,8	7,19
297,3	6,876
297,8	4,676
298,2	3,333
298,7	-1,41
299,1	-4,895
299,6	-6,181
300,1	-4,524
300,5	-1,61
301	0,562
301,5	3,419
301,9	8,076
302,4	8,933
302,8	10,848
303,3	13,676
303,8	8,562
304,2	7,79
304,7	7,19
305,1	5,648
305,6	4,876
306,1	9,676
306,5	9,476
307	11,962
307,4	7,733
307,9	8,133
308,4	8,676
308,8	11,962
309,3	5,933
309,8	9,476
310,2	6,448
310,7	14,676
311,1	11,533
311,6	10,676
312,1	10,448
312,5	12,305
313	6,219
313,4	9,59
313,9	8,648
314,4	8,19
314,8	11,476
315,3	9,162
315,7	5,733
316,2	6,219
316,7	5,733
317,1	3,676
317,6	3,276
318	3,762
318,5	7,905
319	11,705
319,4	14,276
319,9	12,219
320,3	14,419
320,8	15,962
321,3	10,762
321,7	5,162
322,2	5,533
322,6	5,562
323,1	11,505
323,6	6,733
324	7,848
324,5	7,762
324,9	10,019
325,4	8,79
325,9	9,762
326,3	8,705
326,8	7,676
327,2	7,505
327,7	11,276
328,2	10,333
328,6	12,876
329,1	14,79
329,5	13,705
330	13,933
330,5	15,648
330,9	14,219
331,4	11,962
331,8	11,676
332,3	10,99
332,8	5,705
333,2	5,476
333,7	4,019
334,1	3,362
334,6	6,305
335,1	6,076
335,5	5,362
336	2,819
336,4	3,676
336,9	7,819
337,4	8,733
337,8	7,962
338,3	9,505
338,7	9,619
339,2	20,619
339,7	22,476
340,1	18,076
340,6	14,533
341	17,848
341,5	18,448
342	15,59
342,4	9,562
342,9	7,533
343,3	11,162
343,8	17,362
344,2	14,59
344,7	12,276
345,2	12,648
345,6	14,962
346,1	21,505
346,5	18,705
347	16,962
347,5	15,048
347,9	12,99
348,4	15,362
348,8	14,362
349,3	13,162
349,8	11,676
350,2	9,79
350,7	13,99
351,1	15,819
351,6	16,276
352	26,876
352,5	29,448
353	40,048
353,4	49,39
353,9	55,905
354,3	64,448
354,8	74,476
355,3	82,819
355,7	95,962
356,2	109,848
356,6	133,476
357,1	156,533
357,5	184,476
358	222,333
358,5	262,019
358,9	303,505
359,4	352,362
359,8	398,676
360,3	458,39
360,8	521,676
361,2	590,133
361,7	665,448
362,1	756,105
362,6	849,133
363	956,305
363,5	1068,59
364	1183,476
364,4	1298,248
364,9	1412,333
365,3	1524,276
365,8	1632,905
366,3	1733,048
366,7	1821,39
367,2	1904,505
367,6	1968,876
368,1	2023,362
368,5	2054,219
369	2070,19
369,5	2065,533
369,9	2050,819
370,4	2017,733
370,8	1974,848
371,3	1915,333
371,7	1850,362
372,2	1773,076
372,7	1686,562
373,1	1598,476
373,6	1504,762
374	1408,733
374,5	1312,962
374,9	1217,59
375,4	1132,819
375,9	1055,133
376,3	971,905
376,8	895,99
377,2	827,048
377,7	763,705
378,2	704,505
378,6	645,876
379,1	590,248
379,5	543,076
380	503,133
380,4	462,59
380,9	427,933
381,4	399,476
381,8	369,933
382,3	343,705
382,7	318,448
383,2	290,962
383,6	273,562
384,1	251,876
384,6	229,276
385	213,019
385,5	199,333
385,9	186,876
386,4	179,705
386,8	168,076
387,3	159,819
387,7	152,933
388,2	145,448
388,7	137,876
389,1	128,648
389,6	115,39
390	105,762
390,5	98,076
390,9	93,39
391,4	91,305
391,9	84,19
392,3	79,219
392,8	74,933
393,2	73,99
393,7	69,476
394,1	65,962
394,6	58,505
395,1	59,819
395,5	58,79
396	63,019
396,4	63,79
396,9	63,962
397,3	57,162
397,8	56,048
398,2	51,533
398,7	46,019
399,2	42,305
399,6	39,248
400,1	33,39
400,5	39,133
401	44,362
401,4	45,533
401,9	49,562
402,4	47,219
402,8	44,333
403,3	47,905
403,7	45,048
404,2	43,076
404,6	40,962
405,1	38,105
405,5	39,048
406	39,333
406,5	36,162
406,9	35,733
407,4	32,162
407,8	34,79
408,3	35,305
408,7	39,876
409,2	38,533
409,6	43,219
410,1	48,276
410,6	52,076
411	52,362
411,5	55,505
411,9	51,648
412,4	57,619
412,8	60,962
413,3	58,648
413,7	57,333
414,2	61,19
414,7	65,362
415,1	71,762
415,6	73,819
416	76,562
416,5	80,619
416,9	84,19
417,4	85,99
417,8	86,276
418,3	92,705
418,8	92,705
419,2	93,305
419,7	95,59
420,1	93,705
420,6	95,905
421	96,848
421,5	94,505
421,9	99,105
422,4	101,562
422,8	103,019
423,3	106,648
423,8	111,476
424,2	113,705
424,7	111,705
425,1	114,333
425,6	118,705
426	119,59
426,5	119,79
426,9	116,419
427,4	119,448
427,9	117,248
428,3	111,848
428,8	112,505
429,2	107,248
429,7	105,962
430,1	103,048
430,6	100,248
431	103,133
431,5	103,39
431,9	100,848
432,4	105,59
432,8	110,448
433,3	113,362
433,8	116,362
434,2	119,219
434,7	119,476
435,1	120,819
435,6	126,048
436	126,848
436,5	136,162
436,9	141,733
437,4	150,819
437,8	156,19
438,3	165,448
438,8	169,019
439,2	176,019
439,7	178,448
440,1	184,59
440,6	196,048
441	205,676
441,5	210,962
441,9	215,248
442,4	228,419
442,8	238,505
443,3	249,333
443,7	247,562
444,2	259,505
444,7	272,505
445,1	286,333
445,6	292,076
446	303,676
446,5	309,133
446,9	324,476
447,4	336,133
447,8	344,533
448,3	360,133
448,7	373,819
449,2	384,676
449,6	402,562
450,1	422,905
450,6	440,676
451	452,962
451,5	463,876
451,9	481,819
452,4	501,448
452,8	519,048
453,3	532,219
453,7	548,848
454,2	568,848
454,6	589,848
455,1	608,39
455,5	632,133
456	654,876
456,4	675,562
456,9	695,276
457,3	722,705
457,8	748,162
458,3	776,105
458,7	800,905
459,2	826,819
459,6	855,476
460,1	883,762
460,5	907,333
461	933,162
461,4	961,276
461,9	985,905
462,3	1015,19
462,8	1042,619
463,2	1072,676
463,7	1101,79
464,1	1138,19
464,6	1170,162
465	1204,99
465,5	1240,076
466	1271,99
466,4	1302,533
466,9	1339,333
467,3	1366,819
467,8	1402,248
468,2	1434,619
468,7	1468,305
469,1	1501,476
469,6	1542,705
470	1577,333
470,5	1618,905
470,9	1651,848
471,4	1687,133
471,8	1718,79
472,3	1753,305
472,7	1786,676
473,2	1814,59
473,6	1839,962
474,1	1868,99
474,5	1900,533
475	1937,819
475,4	1968,533
475,9	2003,876
476,4	2042,933
476,8	2075,133
477,3	2114,848
477,7	2152,105
478,2	2186,076
478,6	2223,19
479,1	2250,39
479,5	2285,648
480	2323,105
480,4	2348,076
480,9	2384,619
481,3	2405,733
481,8	2436,99
482,2	2465,048
482,7	2486,333
483,1	2518,619
483,6	2544,019
484	2556,676
484,5	2583,79
484,9	2612,19
485,4	2642,133
485,8	2664,99
486,3	2688,048
486,7	2714,733
487,2	2739,619
487,6	2763,733
488,1	2781,019
488,5	2798,648
489	2815,962
489,4	2830,076
489,9	2842,505
490,4	2858,676
490,8	2873,476
491,3	2886,362
491,7	2898,448
492,2	2920,59
492,6	2928,59
493,1	2945,333
493,5	2955,705
494	2963,162
494,4	2975,219
494,9	2987,962
495,3	2995,39
495,8	3009,048
496,2	3020,848
496,7	3029,905
497,1	3042,962
497,6	3049,648
498	3054,162
498,5	3066,533
498,9	3072,19
499,4	3078,019
499,8	3086,648
500,3	3093,648
500,7	3100,705
501,2	3105,162
501,6	3107,705
502,1	3114,019
502,5	3114,162
503	3124,39
503,4	3125,105
503,9	3132,505
504,3	3135,676
504,8	3135,505
505,2	3139,248
505,7	3144,848
506,1	3142,848
506,6	3138,019
507	3133,59
507,5	3133,219
507,9	3135,048
508,4	3135,705
508,8	3139,019
509,3	3134,933
509,7	3137,333
510,2	3133,276
510,6	3130,962
511,1	3129,933
511,5	3129,305
512	3126,048
512,4	3127,448
512,9	3129,648
513,3	3141,79
513,8	3140,819
514,2	3143,448
514,7	3145,448
515,1	3146,705
515,6	3141,733
516	3144,562
516,5	3134,99
516,9	3132,676
517,4	3127,219
517,8	3118,505
518,3	3108,79
518,7	3105,848
519,2	3100,676
519,6	3098,79
520,1	3105,79
520,5	3103,276
521	3101,962
521,4	3103,219
521,9	3114,248
522,3	3117,076
522,8	3123,39
523,2	3119,305
523,7	3119,019
524,1	3117,933
524,6	3113,533
525	3111,076
525,5	3105,362
525,9	3094,562
526,4	3094,333
526,8	3092,99
527,3	3096,962
527,7	3103,562
528,2	3096,533
528,6	3102,333
529,1	3105,019
529,5	3101,276
530	3101,876
530,4	3103,448
530,9	3101,305
531,3	3104,876
531,8	3102,59
532,2	3108,762
532,6	3112,476
533,1	3113,562
533,5	3111,905
534	3114,333
534,4	3115,933
534,9	3122,133
535,3	3125,019
535,8	3127,076
536,2	3130,876
536,7	3131,79
537,1	3133,876
537,6	3136,076
538	3134,876
538,5	3135,019
538,9	3140,39
539,4	3149,219
539,8	3157,39
540,3	3157,305
540,7	3156,248
541,2	3159,476
541,6	3162,562
542,1	3163,019
542,5	3163,505
543	3160,705
543,4	3174,476
543,9	3182,505
544,3	3179,905
544,8	3182,219
545,2	3185,333
545,7	3185,905
546,1	3194,933
546,5	3194,248
547	3201,076
547,4	3205,676
547,9	3206,79
548,3	3210,676
548,8	3212,819
549,2	3213,248
549,7	3215,448
550,1	3217,648
550,6	3223,076
551	3231,876
551,5	3236,905
551,9	3240,562
552,4	3247,305
552,8	3250,048
553,3	3254,705
553,7	3261,333
554,2	3257,39
554,6	3262,219
555,1	3270,019
555,5	3271,219
555,9	3279,019
556,4	3274,99
556,8	3271,476
557,3	3276,362
557,7	3279,39
558,2	3274,048
558,6	3280,362
559,1	3276,133
559,5	3276,59
560	3287,333
560,4	3291,19
560,9	3296,562
561,3	3304,133
561,8	3309,476
562,2	3312,362
562,7	3325,905
563,1	3327,133
563,6	3329,362
564	3326,019
564,4	3334,962
564,9	3329,876
565,3	3332,933
565,8	3322,133
566,2	3325,705
566,7	3329,876
567,1	3334,276
567,6	3329,105
568	3330,99
568,5	3331,248
568,9	3337,705
569,4	3338,59
569,8	3341,076
570,3	3339,048
570,7	3336,733
571,1	3333,848
571,6	3341,305
572	3344,933
572,5	3342,733
572,9	3347,562
573,4	3347,648
573,8	3347,676
574,3	3350,248
574,7	3342,133
575,2	3338,905
575,6	3337,19
576,1	3328,19
576,5	3325,076
576,9	3328,448
577,4	3324,619
577,8	3323,076
578,3	3315,476
578,7	3307,733
579,2	3303,676
579,6	3305,048
580,1	3295,79
580,5	3295,762
581	3295,019
581,4	3294,048
581,9	3295,876
582,3	3290,219
582,7	3289,19
583,2	3288,133
583,6	3278,562
584,1	3270,562
584,5	3268,362
585	3266,048
585,4	3261,533
585,9	3255,248
586,3	3249,19
586,8	3244,99
587,2	3237,962
587,6	3230,362
588,1	3226,019
588,5	3223,905
589	3212,933
589,4	3206,19
589,9	3207,276
590,3	3206,705
590,8	3204,819
591,2	3199,819
591,7	3193,762
592,1	3193,448
592,5	3191,362
593	3181,848
593,4	3176,676
593,9	3167,99
594,3	3154,933
594,8	3149,819
595,2	3145,79
595,7	3140,933
596,1	3137,219
596,6	3137,762
597	3137,076
597,4	3136,676
597,9	3128,876
598,3	3123,305
598,8	3115,533
599,2	3111,962
599,7	3099,59
600,1	3090,848
600,6	3090,076
601	3084,533
601,4	3078,819
601,9	3078,248
602,3	3072,562
602,8	3064,819
603,2	3061,79
603,7	3048,362
604,1	3046,562
604,6	3035,305
605	3023,133
605,4	3012,419
605,9	3007,648
606,3	2998,362
606,8	2992,562
607,2	2980,105
607,7	2976,476
608,1	2971,39
608,6	2965,562
609	2960,905
609,4	2956,105
609,9	2948,076
610,3	2939,962
610,8	2930,448
611,2	2919,59
611,7	2910,533
612,1	2894,333
612,6	2883,99
613	2876,39
613,4	2865,476
613,9	2850,733
614,3	2841,19
614,8	2831,162
615,2	2824,362
615,7	2821,933
616,1	2811,19
616,6	2802,362
617	2794,733
617,4	2785,562
617,9	2774,448
618,3	2766,39
618,8	2742,19
619,2	2731,79
619,7	2727,419
620,1	2713,019
620,5	2701,848
621	2691,39
621,4	2675,648
621,9	2670,733
622,3	2660,562
622,8	2644,248
623,2	2636,876
623,6	2628,39
624,1	2620,533
624,5	2616,562
625	2606,533
625,4	2593,476
625,9	2586,333
626,3	2572,819
626,8	2563,59
627,2	2553,648
627,6	2540,333
628,1	2530,705
628,5	2523,333
629	2508,933
629,4	2493,162
629,9	2483,276
630,3	2467,276
630,7	2457,962
631,2	2439,105
631,6	2427,819
632,1	2420,419
632,5	2414,333
633	2397,048
633,4	2388,676
633,8	2371,562
634,3	2361,99
634,7	2349,39
635,2	2334,562
635,6	2327,505
636,1	2317,648
636,5	2306,533
636,9	2297,276
637,4	2286,762
637,8	2271,848
638,3	2260,048
638,7	2249,79
639,2	2241,733
639,6	2228,305
640	2215,39
640,5	2205,133
640,9	2200,848
641,4	2190,733
641,8	2176,048
642,2	2164,19
642,7	2154,59
643,1	2152,79
643,6	2145,019
644	2133,162
644,5	2125,619
644,9	2116,105
645,3	2100,933
645,8	2093,848
646,2	2079,019
646,7	2064,276
647,1	2055,19
647,6	2041,99
648	2030,562
648,4	2022,305
648,9	2014,39
649,3	2005,076
649,8	2003,076
650,2	1987,333
650,6	1978,762
651,1	1974,962
651,5	1972,219
652	1959,448
652,4	1946,962
652,9	1939,79
653,3	1933,248
653,7	1925,819
654,2	1914,819
654,6	1903,676
655,1	1889,733
655,5	1882,99
655,9	1867,419
656,4	1856,819
656,8	1845,905
657,3	1831,419
657,7	1818,019
658,2	1814,333
658,6	1802,79
659	1791,619
659,5	1784,676
659,9	1773,733
660,4	1767,533
660,8	1760,762
661,2	1749,019
661,7	1738,876
662,1	1733,99
662,6	1718,505
663	1707,648
663,4	1700,133
663,9	1689,333
664,3	1677,59
664,8	1669,876
665,2	1656,019
665,6	1649,162
666,1	1642,648
666,5	1630,762
667	1614,305
667,4	1609,476
667,9	1598,362
668,3	1586,076
668,7	1578,39
669,2	1563,019
669,6	1554,248
670,1	1553,248
670,5	1539,59
670,9	1533,648
671,4	1522,848
671,8	1512,59
672,3	1506,59
672,7	1495,333
673,1	1480,076
673,6	1474,133
674	1461,362
674,5	1460,819
674,9	1452,676
675,3	1447,99
675,8	1443,219
676,2	1440,019
676,7	1429,648
677,1	1425,076
677,5	1417,562
678	1408,619
678,4	1397,99
678,9	1387,876
679,3	1377,162
679,7	1368,905
680,2	1363,105
680,6	1349,819
681,1	1338,648
681,5	1328,59
681,9	1319,076
682,4	1314,419
682,8	1301,533
683,3	1288,248
683,7	1280,676
684,1	1273,79
684,6	1268,39
685	1262,905
685,5	1250,962
685,9	1248,99
686,3	1244,333
686,8	1238,876
687,2	1235,705
687,7	1229,362
688,1	1226,19
688,5	1220,962
689	1214,133
689,4	1207,733
689,9	1199,59
690,3	1193,019
690,7	1184,79
691,2	1174,219
691,6	1170,762
692	1159,476
692,5	1151,19
692,9	1142,019
693,4	1128,133
693,8	1121,133
694,2	1107,676
694,7	1099,99
695,1	1093,533
695,6	1086,705
696	1080,762
696,4	1075,848
696,9	1067,99
697,3	1063,248
697,8	1048,962
698,2	1041,048
698,6	1031,248
699,1	1022,848
699,5	1020,276
699,9	1016,276
700,4	1014,59
700,8	1016,133
701,3	1012,505
701,7	1007,219
702,1	999,762
702,6	993,448
703	983,076
703,5	975,476
703,9	966,133
704,3	958,962
704,8	956,505
705,2	952,333
705,6	936,333
706,1	935,676
706,5	933,105
707	923,333
707,4	920,476
707,8	913,933
708,3	906,705
708,7	913,019
709,2	904,705
709,6	898,705
710	896,219
710,5	891,305
710,9	881,333
711,3	878,905
711,8	869,905
712,2	867,705
712,7	860,448
713,1	855,39
713,5	846,962
714	843,105
714,4	837,99
714,8	831,99
715,3	822,59
715,7	812,162
716,2	804,905
716,6	804,048
717	803,048
717,5	798,876
717,9	793,362
718,3	790,676
718,8	790,648
719,2	785,59
719,7	779,819
720,1	768,905
720,5	763,448
721	760,448
721,4	751,79
721,8	747,905
722,3	738,99
722,7	728,105
723,2	722,333
723,6	713,962
724	707,019
724,5	699,505
724,9	688,705
725,3	684,048
725,8	679,905
726,2	674,076
726,7	672,762
727,1	665,105
727,5	666,076
728	665,762
728,4	664,162
728,8	662,762
729,3	659,362
729,7	653,705
730,1	648,962
730,6	641,533
731	639,762
731,5	641,648
731,9	638,248
732,3	642,59
732,8	639,276
733,2	639,419
733,6	636,162
734,1	631,819
734,5	622,333
734,9	617,448
735,4	611,19
735,8	608,476
736,3	605,676
736,7	606,905
737,1	602,076
737,6	598,19
738	594,619
738,4	588,219
738,9	587,562
739,3	579,533
739,7	572,962
740,2	570,848
740,6	567,819
741,1	565,248
741,5	561,79
741,9	552,105
742,4	553,219
742,8	555,762
743,2	551,562
743,7	551,162
744,1	541,99
744,5	539,819
745	538,476
745,4	533,619
745,8	525,733
746,3	523,533
746,7	520,705
747,2	524,505
747,6	521,419
748	520,076
748,5	517,819
748,9	513,533
749,3	512,276
749,8	506,762
750,2	499,933
750,6	495,276
751,1	488,876
751,5	487,276
751,9	486,105
752,4	477,59
752,8	476,105
753,3	476,99
753,7	475,676
754,1	472,819
754,6	463,819
755	459,933
755,4	457,905
755,9	451,648
756,3	447,562
756,7	439,819
757,2	439,048
757,6	442,248
758	436,448
758,5	433,676
758,9	435,162
759,3	430,79
759,8	432,105
760,2	431,476
760,6	429,99
761,1	429,876
761,5	428,762
761,9	426,733
762,4	426,419
762,8	426,99
763,3	422,705
763,7	414,876
764,1	407,219
764,6	403,19
765	398,133
765,4	395,676
765,9	387,476
766,3	380,79
766,7	378,419
767,2	379,076
767,6	374,39
768	374,848
768,5	367,276
768,9	366,448
769,3	368,048
769,8	366,819
770,2	367,648
770,6	368,905
771,1	368,562
771,5	368,162
771,9	364,819
772,4	365,762
772,8	361,762
773,2	357,676
773,7	356,333
774,1	352,905
774,5	350,562
775	348,933
775,4	341,819
775,8	343,705
776,3	339,448
776,7	335,562
777,1	329,19
777,6	330,676
778	328,819
778,4	328,505
778,9	323,333
779,3	322,79
779,7	323,933
780,2	322,219
780,6	322,133
781	322,505
781,5	318,19
781,9	320,105
782,3	320,705
782,8	313,133
783,2	308,476
783,6	299,648
784,1	297,819
784,5	296,562
784,9	292,676
785,4	288,248
785,8	288,048
786,2	286,933
786,7	288,476
787,1	286,933
787,5	286,819
788	283,648
788,4	278,19
788,8	276,276
789,3	279,048
789,7	275,505
790,1	274,048
790,6	272,99
791	269,99
791,4	267,19
791,9	265,39
792,3	260,333
792,7	262,562
793,2	255,19
793,6	249,59
794	250,019
794,5	253,305
794,9	251,533
795,3	251,533
795,8	245,019
796,2	251,048
796,6	249,533
797,1	244,676
797,5	244,19
797,9	242,333
798,4	235,848
798,8	233,276
799,2	227,276
799,7	231,505
800,1	232,705
800,5	230,333
801	229,876
801,4	227,648
801,8	227,105
802,2	223,905
802,7	220,533
803,1	217,933
803,5	217,276
804	214,59
804,4	218,905
804,8	222,733
805,3	219,962
805,7	213,133
806,1	217,905
806,6	214,79
807	214,019
807,4	208,676
807,9	201,562
808,3	200,276
808,7	199,762
809,2	193,419
809,6	191,848
810	189,419
810,4	191,648
810,9	188,59
811,3	190,048
811,7	191,048
812,2	189,048
812,6	185,162
813	184,105
813,5	178,933
813,9	181,648
814,3	179,305
814,8	180,876
815,2	178,533
815,6	177,848
816,1	173,562
816,5	173,419
816,9	174,848
817,3	172,962
817,8	170,705
818,2	165,648
818,6	166,419
819,1	167,762
819,5	169,419
819,9	163,905
820,4	159,533
820,8	150,705
821,2	154,99
821,7	154,676
822,1	150,533
822,5	147,562
822,9	148,448
823,4	153,79
823,8	158,99
824,2	155,933
824,7	155,133
825,1	158,133
825,5	162,448
826	158,848
826,4	156,79
826,8	154,248
827,3	157,905
827,7	156,476
828,1	160,648
828,5	153,705
829	151,476
829,4	152,133
829,8	147,59
830,3	141,276
830,7	136,39
831,1	127,562
831,6	123,533
832	119,39
832,4	115,876
832,8	119,619
833,3	114,619
833,7	115,876
834,1	114,99
834,6	115,276
835	117,648
835,4	117,076
835,8	111,219
836,3	112,362
836,7	105,933
837,1	102,505
837,6	99,505
838	97,819
838,4	91,705
838,9	96,505
839,3	100,933
839,7	106,59
840,1	105,133
840,6	110,819
841	109,105
841,4	112,448
841,9	107,019
842,3	104,248
842,7	105,19
843,1	112,39
843,6	108,219
844	110,248
844,4	110,733
844,9	111,59
845,3	109,905
845,7	108,59
846,2	104,248
846,6	102,905
847	101,733
847,4	94,448
847,9	91,933
848,3	92,048
848,7	90,819
849,2	95,333
849,6	91,562
850	89,248
850,4	92,705
850,9	91,59
851,3	84,505
851,7	82,076
852,2	73,476
852,6	78,448
853	85,448
853,4	86,933
853,9	85,105
854,3	90,562
854,7	86,762
855,2	89,276
855,6	82,39
856	74,333
856,4	69,819
856,9	69,276
857,3	69,248
857,7	75,39
858,2	73,848
858,6	80,533
859	81,19
859,4	82,962
859,9	83,219
860,3	83,933
860,7	79,19
861,1	81,648
861,6	78,076
862	79,905
862,4	79,619
862,9	81,848
863,3	79,248
863,7	76,59
864,1	72,448
864,6	72,562
865	67,562
865,4	65,448
865,9	62,933
866,3	64,362
866,7	66,676
867,1	69,419
867,6	70,533
868	74,876
868,4	73,419
868,8	75,248
869,3	73,876
869,7	71,076
870,1	69,99
870,6	66,133
871	73,105
871,4	71,19
871,8	66,333
872,3	65,79
872,7	64,505
873,1	67,048
873,5	70,762
874	61,533
874,4	63,733
874,8	66,733
875,3	62,848
875,7	65,219
876,1	60,333
876,5	63,505
877	60,59
877,4	60,305
877,8	63,133
878,2	66,648
878,7	68,448
879,1	67,676
879,5	62,305
879,9	67,962
880,4	66,133
880,8	64,79
881,2	65,562
881,7	66,505
882,1	66,505
882,5	62,533
882,9	56,99
883,4	63,819
883,8	58,733
884,2	54,505
884,6	50,505
885,1	52,59
885,5	61,133
885,9	65,533
886,3	58,419
886,8	56,276
887,2	57,305
887,6	54,105
888	49,676
888,5	47,705
888,9	40,533
889,3	40,305
889,8	43,333
890,2	39,505
890,6	42,305
891	42,048
891,5	42,533
891,9	45,276
892,3	43,59
892,7	45,133
893,2	47,048
893,6	43,076
894	45,933
894,4	42,619
894,9	41,276
895,3	46,333
895,7	46,362
896,1	49,99
896,6	51,362
897	49,59
897,4	41,39
897,8	42,59
898,3	44,79
898,7	40,848
899,1	36,105
899,5	34,819
900	37,133
900,4	42,019
900,8	42,962
901,2	36,962
901,7	32,133
902,1	34,848
902,5	37,733
902,9	39,562
903,4	41,562
903,8	33,762
904,2	36,676
904,6	40,705
905,1	43,933
905,5	42,876
905,9	35,533
906,3	33,362
906,8	37,133
907,2	32,733
907,6	34,505
908	30,59
908,5	29,99
908,9	31,648
909,3	30,333
909,7	29,362
910,2	29,819
910,6	31,962
911	28,39
911,4	25,19
911,9	29,19
912,3	29,105
912,7	32,676
913,1	24,733
913,6	22,476
914	24,79
914,4	25,562
914,8	22,219
915,3	22,248
915,7	17,619
916,1	25,076
916,5	26,333
916,9	23,076
917,4	27,105
917,8	24,848
918,2	23,019
918,6	24,105
919,1	22,733
919,5	22,448
919,9	23,562
920,3	18,333
920,8	17,676
921,2	25,048
921,6	23,79
922	24,99
922,5	26,105
922,9	23,219
923,3	27,219
923,7	27,648
924,2	17,133
924,6	19,676
925	23,019
925,4	20,448
925,8	22,076
926,3	21,419
926,7	24,562
927,1	29,105
927,5	29,762
928	26,19
928,4	28,076
928,8	32,333
929,2	34,305
929,7	29,333
930,1	26,819
930,5	21,476
930,9	24,762
931,3	24,19
931,8	17,848
932,2	12,876
932,6	16,333
933	14,933
933,5	19,248
933,9	15,59
934,3	14,019
934,7	22,076
935,2	23,99
935,6	23,676
936	22,362
936,4	21,448
936,8	18,533
937,3	19,019
937,7	13,362
938,1	7,562
938,5	5,19
939	10,962
939,4	9,048
939,8	9,762
940,2	10,19
940,6	11,133
941,1	19,79
941,5	25,19
941,9	23,105
942,3	21,59
942,8	23,333
943,2	19,648
943,6	21,705
944	13,876
944,4	5,39
944,9	7,762
945,3	11,79
945,7	14,276
946,1	16,133
946,6	10,305
947	18,133
947,4	18,905
947,8	19,105
948,2	15,819
948,7	14,305
949,1	10,162
949,5	13,99
949,9	17,619
950,3	19,905
950,8	16,533
951,2	18,562
951,6	16,705
952	19,99
952,5	18,819
952,9	7,419
953,3	1,99
953,7	7,933
954,1	8,648
954,6	9,676
955	10,305
955,4	9,048
955,8	18,276
956,2	19,39
956,7	14,705
957,1	13,933
957,5	12,59
957,9	7,219
958,3	10,333
958,8	3,99
959,2	9,076
959,6	6,876
960	6,505
960,5	8,162
960,9	13,733
961,3	11,19
961,7	10,705
962,1	8,219
962,6	8,476
963	7,076
963,4	8,533
963,8	10,876
964,2	11,505
964,7	8,848
965,1	12,505
965,5	13,476
965,9	14,19
966,3	10,676
966,8	10,248
967,2	10,505
967,6	14,448
968	13,276
968,4	16,419
968,9	19,848
969,3	18,876
969,7	15,619
970,1	17,905
970,5	19,305
971	13,848
971,4	10,99
971,8	10,362
972,2	12,448
972,6	14,762
973,1	12,019
973,5	12,905
973,9	17,819
974,3	15,19
974,7	11,533
975,2	9,048
975,6	3,362
976	8,762
976,4	4,162
976,8	3,762
977,3	3,762
977,7	3,362
978,1	2,133
978,5	8,962
978,9	2,362
979,4	3,419
979,8	2,933
980,2	0,162
980,6	2,019
981	7,59
981,5	4,59
981,9	1,248
982,3	-3,067
982,7	-3,981
983,1	2,105
983,6	1,848
984	0,819
984,4	3,048
984,8	9,648
985,2	14,162
985,6	16,933
986,1	12,105
986,5	8,79
986,9	10,162
987,3	5,59
987,7	5,619
988,2	7,99
988,6	4,648
989	8,99
989,4	13,705
989,8	10,362
990,3	12,276
990,7	8,219
991,1	3,933
991,5	5,819
991,9	7,59
992,3	6,162
992,8	9,562
993,2	10,448
993,6	15,59
994	15,133
994,4	14,476
994,9	17,476
995,3	18,648
995,7	18,248
996,1	17,248
996,5	11,533
996,9	11,562
997,4	10,276
997,8	6,248
998,2	3,962
998,6	0,562
999	1,705
999,5	4,562
999,9	8,733
1000,3	16,676
1000,7	12,248
1001,1	11,933
1001,5	11,905
1002	10,219
1002,4	10,648
1002,8	11,162
1003,2	2,962
1003,6	8,419
1004	9,705
1004,5	9,79
1004,9	8,819
1005,3	4,705
1005,7	3,333
1006,1	-0,01
1006,6	-2,038
1007	-1,695
1007,4	-2,095
1007,8	-1,695
1008,2	-4,095
1008,6	-7,838
1009,1	-5,981
1009,5	-1,667
1009,9	2,162
1010,3	9,219
1010,7	12,562
1011,1	22,762
1011,6	26,448
1012	29,305
1012,4	24,619
1012,8	15,276
1013,2	10,505
1013,6	7,248
1014,1	0,476
1014,5	0,533
1014,9	4,962
1015,3	2,048
1015,7	1,962
1016,1	0,99
1016,6	6,19
1017	10,305
1017,4	9,648
1017,8	5,562
1018,2	4,305
1018,6	11,305
1019,1	7,905
1019,5	5,533
1019,9	6,362
1020,3	8,59
1020,7	8,048
1021,1	12,048
1021,6	9,362
1022	12,019
1022,4	14,848
1022,8	15,219
1023,2	13,848
1023,6	7,105
1024,1	10,619
1024,5	12,333
1024,9	16,333
1025,3	11,505
1025,7	11,819
1026,1	11,99
1026,6	22,219
1027	17,248
1027,4	16,333
1027,8	10,848
1028,2	14,99
1028,6	13,562
1029	9,562
1029,5	6,276
1029,9	5,819
1030,3	10,848
1030,7	10,562
1031,1	7,705
1031,5	3,79
1032	8,762
1032,4	6,19
1032,8	3,962
1033,2	-1,324
1033,6	2,076
1034	-1,21
1034,4	6,105
1034,9	-0,095
1035,3	6,248
1035,7	12,99
1036,1	15,019
1036,5	13,705
1036,9	13,333
1037,4	10,448
1037,8	14,562
1038,2	9,733
1038,6	6,248
1039	7,276
1039,4	5,59
1039,8	8,305
1040,3	5,648
1040,7	3,933
1041,1	5,99
1041,5	2,876
1041,9	-1,495
1042,3	1,819
1042,7	0,219
1043,2	3,305
1043,6	5,962
1044	4,39
1044,4	5,219
1044,8	7,133
1045,2	9,79
1045,6	11,762
1046,1	16,648
1046,5	19,99
1046,9	17,905
1047,3	18,248
1047,7	16,933
1048,1	9,39
1048,5	11,648
1049	4,133
1049,4	1,048
1049,8	4,533
1050,2	9,762
1050,6	11,619
1051	18,619
1051,4	14,248
1051,9	19,819
1052,3	14,505
1052,7	12,019
1053,1	10,019
1053,5	11,39
1053,9	7,248
1054,3	9,59
1054,8	8,676
1055,2	16,362
1055,6	18,733
1056	21,962
1056,4	19,705
1056,8	22,733
1057,2	26,705
1057,6	21,448
1058,1	18,248
1058,5	16,105
1058,9	15,505
1059,3	16,99
1059,7	11,562
1060,1	9,648
1060,5	6,219
1061	4,076
1061,4	11,048
1061,8	6,562
1062,2	6,733
1062,6	7,162
1063	5,019
1063,4	7,333
1063,8	8,905
1064,3	7,019
1064,7	8,076
1065,1	7,876
1065,5	13,99
1065,9	16,019
1066,3	14,619
1066,7	13,562
1067,1	10,819
1067,6	13,962
1068	10,648
1068,4	8,79
1068,8	5,733
1069,2	5,448
1069,6	9,848
1070	6,819
1070,4	2,676
1070,9	1,19
1071,3	1,39
1071,7	2,019
1072,1	11,105
1072,5	9,276
1072,9	14,248
1073,3	15,248
1073,7	18,076
1074,2	17,476
1074,6	15,19
1075	8,076
1075,4	9,962
1075,8	7,705
1076,2	4,962
1076,6	4,676
1077	1,419
1077,5	8,648
1077,9	11,448
1078,3	12,305
1078,7	13,648
1079,1	16,162
1079,5	13,876
1079,9	19,076
1080,3	16,448
1080,7	16,419
1081,2	14,162
1081,6	16,105
1082	14,762
1082,4	16,219
1082,8	12,076
1083,2	8,219
1083,6	6,19
1084	4,248
1084,5	-1,267
1084,9	-0,867
1085,3	0,762
1085,7	-4,781
1086,1	-5,41
1086,5	-1,981
1086,9	-1,067
1087,3	2,419
1087,7	9,333
1088,2	7,705
1088,6	13,19
1089	12,476
1089,4	12,076
1089,8	13,476
1090,2	12,076
1090,6	6,162
1091	9,476
1091,4	10,79
1091,9	15,333
1092,3	11,219
1092,7	10,505
1093,1	5,162
1093,5	3,648
1093,9	5,848
1094,3	8,79
1094,7	5,648
1095,1	3,705
1095,5	1,619
1096	5,048
1096,4	10,448
1096,8	3,648
1097,2	-0,895
1097,6	2,905
1098	9,105
1098,4	10,619
1098,8	12,305
1099,2	6,476
1099,6	10,276
1100,1	13,133
1100,5	12,019
1100,9	8,39
1101,3	5,933
1101,7	9,048
1102,1	12,248
1102,5	12,162
1102,9	10,133
1103,3	8,533
1103,7	8,362
1104,2	14,619
1104,6	13,276
1105	14,933
1105,4	13,048
1105,8	12,819
1106,2	12,705
1106,6	12,248
1107	6,333
1107,4	3,633
1107,8	-0,227
1108,3	0,033
