Data from Subt2_047.txt Node
Date: Sat Aug 26 16:26:39 MSK 2023
User: vat
Spectrometer: MAYP114033
Trigger mode: 0
Integration Time (sec): 1,000000E0
Scans to average: 5
Electric dark correction enabled: true
Nonlinearity correction enabled: false
Boxcar width: 3
XAxis mode: Wavelengths
Number of Pixels in Spectrum: 2068
>>>>>Begin Spectral Data<<<<<
199,4	-0,267
199,9	-1,107
200,4	-5,733
200,8	-5,067
201,3	-5,61
201,8	-4,895
202,2	-4,495
202,7	-4,21
203,2	-2,895
203,6	2,705
204,1	3,705
204,6	8,305
205	9,162
205,5	7,362
206	9,562
206,4	8,876
206,9	6,333
207,4	7,39
207,8	1,933
208,3	0,419
208,8	4,162
209,2	3,733
209,7	5,076
210,2	9,79
210,6	7,533
211,1	7,162
211,5	6,876
212	3,362
212,5	-0,61
212,9	-2,267
213,4	-5,181
213,9	-6,867
214,3	-5,81
214,8	-2,181
215,3	-2,067
215,7	-4,181
216,2	-2,867
216,7	-2,381
217,1	0,276
217,6	0,476
218,1	-2,324
218,5	-2,095
219	5,676
219,5	6,362
219,9	7,248
220,4	6,448
220,9	7,162
221,3	4,19
221,8	1,733
222,3	-0,81
222,7	-3,552
223,2	-5,124
223,6	-6,895
224,1	-6,952
224,6	-3,01
225	-1,267
225,5	1,676
226	0,362
226,4	3,59
226,9	6,133
227,4	5,848
227,8	7,676
228,3	8,705
228,8	2,848
229,2	7,762
229,7	1,019
230,2	2,819
230,6	0,448
231,1	-3,438
231,5	-3,01
232	4,076
232,5	3,933
232,9	6,533
233,4	6,819
233,9	10,162
234,3	10,276
234,8	10,105
235,3	4,59
235,7	2,848
236,2	2,248
236,7	-2,152
237,1	-3,324
237,6	-2,981
238,1	0,448
238,5	4,076
239	2,762
239,4	3,048
239,9	6,362
240,4	6,99
240,8	8,505
241,3	4,533
241,8	-2,524
242,2	-6,352
242,7	-7,724
243,2	-6,838
243,6	-4,01
244,1	-3,438
244,6	-2,41
245	-0,295
245,5	7,705
245,9	11,076
246,4	7,076
246,9	4,619
247,3	4,648
247,8	5,762
248,3	8,99
248,7	14,248
249,2	9,962
249,7	11,533
250,1	10,905
250,6	9,019
251	7,562
251,5	1,333
252	-7,524
252,4	-4,067
252,9	-5,21
253,4	-6,61
253,8	-8,295
254,3	-4,41
254,8	-0,238
255,2	-1,124
255,7	2,276
256,1	0,99
256,6	5,448
257,1	8,848
257,5	6,276
258	5,248
258,5	6,219
258,9	3,876
259,4	6,476
259,9	6,876
260,3	2,562
260,8	5,819
261,2	10,99
261,7	13,762
262,2	14,819
262,6	14,933
263,1	7,733
263,6	11,362
264	7,276
264,5	6,505
264,9	6,876
265,4	5,276
265,9	5,505
266,3	7,362
266,8	4,819
267,3	2,133
267,7	1,476
268,2	-1,038
268,7	-2,638
269,1	-6,41
269,6	-0,695
270	7,048
270,5	9,876
271	9,362
271,4	6,933
271,9	8,79
272,4	10,819
272,8	3,562
273,3	-5,01
273,7	-7,924
274,2	-9,838
274,7	-10,324
275,1	-9,581
275,6	-8,267
276,1	-2,838
276,5	2,99
277	5,676
277,4	5,876
277,9	8,305
278,4	8,533
278,8	12,39
279,3	8,505
279,8	7,133
280,2	5,019
280,7	4,676
281,1	9,133
281,6	8,705
282,1	5,59
282,5	10,248
283	7,305
283,4	8,476
283,9	6,819
284,4	2,19
284,8	1,819
285,3	0,476
285,8	-4,324
286,2	-8,467
286,7	-8,61
287,1	-6,41
287,6	-5,438
288,1	-8,01
288,5	-4,695
289	-2,867
289,5	1,419
289,9	1,933
290,4	4,533
290,8	9,362
291,3	9,419
291,8	3,419
292,2	8,105
292,7	8,276
293,1	9,476
293,6	10,533
294,1	3,019
294,5	10,219
295	14,505
295,5	12,705
295,9	14,133
296,4	13,476
296,8	7,59
297,3	11,619
297,8	8,448
298,2	6,876
298,7	1,59
299,1	3,876
299,6	2,305
300,1	6,276
300,5	8,619
301	5,819
301,5	8,676
301,9	9,19
302,4	6,733
302,8	8,505
303,3	8,933
303,8	3,105
304,2	4,505
304,7	2,99
305,1	3,99
305,6	2,305
306,1	1,276
306,5	0,876
307	-0,095
307,4	-3,838
307,9	-4,352
308,4	-2,495
308,8	2,305
309,3	-0,181
309,8	2,19
310,2	4,19
310,7	11,676
311,1	7,448
311,6	7,705
312,1	5,848
312,5	7,933
313	3,962
313,4	5,619
313,9	4,676
314,4	5,533
314,8	4,848
315,3	4,733
315,7	5,619
316,2	5,648
316,7	8,648
317,1	8,419
317,6	9,533
318	10,648
318,5	15,076
319	17,105
319,4	17,99
319,9	11,648
320,3	8,648
320,8	11,505
321,3	13,048
321,7	7,962
322,2	7,562
322,6	3,19
323,1	10,59
323,6	9,705
324	10,333
324,5	3,562
324,9	6,19
325,4	7,219
325,9	13,848
326,3	11,333
326,8	13,676
327,2	12,19
327,7	18,419
328,2	11,905
328,6	14,876
329,1	11,105
329,5	11,162
330	8,819
330,5	8,962
330,9	9,419
331,4	12,505
331,8	8,19
332,3	11,076
332,8	8,962
333,2	7,962
333,7	12,79
334,1	12,39
334,6	12,019
335,1	11,362
335,5	13,248
336	9,305
336,4	11,048
336,9	9,848
337,4	8,419
337,8	11,19
338,3	9,819
338,7	7,733
339,2	15,448
339,7	13,733
340,1	10,105
340,6	6,019
341	7,59
341,5	13,048
342	10,362
342,4	9,276
342,9	10,219
343,3	8,933
343,8	14,505
344,2	13,819
344,7	10,79
345,2	6,419
345,6	5,333
346,1	6,133
346,5	6,819
347	9,676
347,5	5,448
347,9	3,162
348,4	10,505
348,8	12,562
349,3	14,79
349,8	17,419
350,2	17,362
350,7	22,048
351,1	26,962
351,6	32,133
352	40,819
352,5	43,162
353	53,99
353,4	61,648
353,9	72,419
354,3	85,59
354,8	91,733
355,3	106,648
355,7	128,962
356,2	151,305
356,6	182,505
357,1	218,619
357,5	254,962
358	306,676
358,5	355,876
358,9	416,333
359,4	480,705
359,8	547,362
360,3	626,19
360,8	720,79
361,2	824,533
361,7	938,648
362,1	1071,305
362,6	1214,676
363	1369,19
363,5	1532,105
364	1700,905
364,4	1870,962
364,9	2044,276
365,3	2207,048
365,8	2365,876
366,3	2526,305
366,7	2671,048
367,2	2794,305
367,6	2895,962
368,1	2980,305
368,5	3038,762
369	3070,19
369,5	3074,019
369,9	3046,048
370,4	3003,476
370,8	2945,905
371,3	2855,105
371,7	2751,448
372,2	2639,162
372,7	2507,819
373,1	2382,648
373,6	2241,39
374	2095,619
374,5	1960,362
374,9	1824,39
375,4	1690,276
375,9	1563,448
376,3	1436,333
376,8	1325,39
377,2	1222,276
377,7	1118,505
378,2	1024,848
378,6	941,133
379,1	863,333
379,5	792,19
380	729,505
380,4	662,762
380,9	612,562
381,4	566,333
381,8	519,762
382,3	481,276
382,7	442,619
383,2	402,905
383,6	377,048
384,1	348,248
384,6	316,562
385	293,476
385,5	264,848
385,9	250,705
386,4	238,305
386,8	223,019
387,3	211,819
387,7	204,333
388,2	191,333
388,7	183,105
389,1	164,619
389,6	150,333
390	143,248
390,5	125,362
390,9	117,533
391,4	117,133
391,9	107,019
392,3	102,762
392,8	95,99
393,2	82,219
393,7	85,819
394,1	81,619
394,6	67,133
395,1	68,162
395,5	64,276
396	64,619
396,4	65,019
396,9	61,105
397,3	52,619
397,8	53,276
398,2	48,533
398,7	44,419
399,2	37,39
399,6	41,505
400,1	32,59
400,5	37,562
401	39,019
401,4	38,476
401,9	39,276
402,4	42,39
402,8	36,476
403,3	38,333
403,7	33,39
404,2	32,505
404,6	33,248
405,1	32,676
405,5	30,819
406	30,162
406,5	32,619
406,9	33,905
407,4	31,219
407,8	32,19
408,3	37,762
408,7	44,848
409,2	44,305
409,6	45,962
410,1	46,99
410,6	48,876
411	47,219
411,5	42,59
411,9	36,305
412,4	45,448
412,8	47,762
413,3	49,162
413,7	51,562
414,2	57,905
414,7	65,448
415,1	68,448
415,6	70,99
416	74,733
416,5	79,362
416,9	86,619
417,4	85,705
417,8	88,733
418,3	96,905
418,8	92,105
419,2	93,162
419,7	100,79
420,1	98,305
420,6	101,505
421	99,905
421,5	100,962
421,9	106,362
422,4	109,876
422,8	106,819
423,3	104,99
423,8	114,39
424,2	119,762
424,7	120,59
425,1	118,59
425,6	118,019
426	124,876
426,5	126,448
426,9	122,448
427,4	125,419
427,9	121,305
428,3	124,962
428,8	126,133
429,2	119,705
429,7	124,962
430,1	126,476
430,6	122,619
431	124,505
431,5	129,248
431,9	128,133
432,4	134,362
432,8	136,39
433,3	136,162
433,8	139,419
434,2	147,076
434,7	144,133
435,1	151,762
435,6	162,619
436	170,762
436,5	181,962
436,9	192,248
437,4	202,39
437,8	211,076
438,3	222,162
438,8	220,619
439,2	226,848
439,7	233,59
440,1	242,133
440,6	252,333
441	264,876
441,5	272,533
441,9	285,39
442,4	299,305
442,8	310,619
443,3	322,619
443,7	326,248
444,2	339,476
444,7	351,305
445,1	365,876
445,6	375,048
446	390,133
446,5	402,048
446,9	418,905
447,4	433,619
447,8	447,733
448,3	463,448
448,7	480,933
449,2	495,79
449,6	511,962
450,1	531,59
450,6	548,79
451	561,819
451,5	575,705
451,9	595,619
452,4	617,419
452,8	638,676
453,3	654,962
453,7	675,819
454,2	698,819
454,6	718,562
455,1	738,048
455,5	758,133
456	782,019
456,4	808,019
456,9	829,705
457,3	858,219
457,8	891,762
458,3	918,59
458,7	949,562
459,2	973,505
459,6	999,019
460,1	1028,59
460,5	1057,819
461	1076,819
461,4	1105,648
461,9	1126,076
462,3	1155,419
462,8	1186,619
463,2	1212,133
463,7	1233,819
464,1	1266,162
464,6	1293,848
465	1323,533
465,5	1352,962
466	1379,648
466,4	1409,962
466,9	1444,219
467,3	1470,962
467,8	1503,276
468,2	1532,819
468,7	1564,333
469,1	1589,676
469,6	1620,533
470	1646,59
470,5	1675,59
470,9	1702,733
471,4	1730,676
471,8	1756,448
472,3	1781,619
472,7	1806,933
473,2	1828,305
473,6	1851,133
474,1	1866,933
474,5	1885,533
475	1911,133
475,4	1938,848
475,9	1966,819
476,4	1992,819
476,8	2019,105
477,3	2045,19
477,7	2072,448
478,2	2089,648
478,6	2108,705
479,1	2121,19
479,5	2148,362
480	2168,905
480,4	2186,876
480,9	2207,105
481,3	2227,19
481,8	2243,762
482,2	2256,676
482,7	2263,705
483,1	2274,419
483,6	2285,39
484	2292,79
484,5	2302,448
484,9	2314,419
485,4	2326,048
485,8	2331,276
486,3	2341,362
486,7	2358,905
487,2	2368,248
487,6	2367,105
488,1	2370,048
488,5	2383,048
489	2389,276
489,4	2393,933
489,9	2390,905
490,4	2388,219
490,8	2389,848
491,3	2391,419
491,7	2379,562
492,2	2384,248
492,6	2372,676
493,1	2367,105
493,5	2360,933
494	2361,619
494,4	2360,505
494,9	2358,648
495,3	2350,79
495,8	2351,676
496,2	2342,99
496,7	2339,048
497,1	2334,276
497,6	2321,305
498	2312,905
498,5	2298,533
498,9	2286,79
499,4	2274,99
499,8	2265,248
500,3	2247,905
500,7	2236,99
501,2	2220,19
501,6	2213,076
502,1	2204,619
502,5	2189,962
503	2179,162
503,4	2167,79
503,9	2158,448
504,3	2149,162
504,8	2132,648
505,2	2109,59
505,7	2108,076
506,1	2093,419
506,6	2072,933
507	2054,162
507,5	2039,962
507,9	2022,848
508,4	2013,533
508,8	1988,448
509,3	1965,562
509,7	1945,848
510,2	1922,648
510,6	1899,105
511,1	1881,105
511,5	1859,876
512	1844,448
512,4	1826,362
512,9	1808,762
513,3	1802,276
513,8	1784,39
514,2	1771,533
514,7	1753,962
515,1	1733,705
515,6	1718,79
516	1702,476
516,5	1679,105
516,9	1661,59
517,4	1635,79
517,8	1616,619
518,3	1597,448
518,7	1575,962
519,2	1564,333
519,6	1541,876
520,1	1527,476
520,5	1510,848
521	1495,448
521,4	1478,048
521,9	1462,133
522,3	1438,362
522,8	1425,819
523,2	1405,305
523,7	1390,419
524,1	1372,133
524,6	1354,419
525	1340,962
525,5	1330,448
525,9	1308,562
526,4	1297,19
526,8	1275,048
527,3	1258,819
527,7	1245,676
528,2	1225,819
528,6	1208,362
529,1	1197,19
529,5	1181,476
530	1173,219
530,4	1156,076
530,9	1139,419
531,3	1128,133
531,8	1119,076
532,2	1105,362
532,6	1095,419
533,1	1081,305
533,5	1074,333
534	1066,962
534,4	1054,333
534,9	1039,219
535,3	1028,533
535,8	1009,676
536,2	998,419
536,7	982,848
537,1	965,533
537,6	958,048
538	947,819
538,5	932,705
538,9	927,562
539,4	918,019
539,8	908,848
540,3	896,648
540,7	883,019
541,2	870,619
541,6	865,219
542,1	850,219
542,5	835,59
543	826,333
543,4	821,905
543,9	811,648
544,3	805,59
544,8	796,333
545,2	786,59
545,7	784,819
546,1	777,219
546,5	770,19
547	760,933
547,4	747,905
547,9	739,762
548,3	735,648
548,8	723,962
549,2	715,276
549,7	708,848
550,1	703,076
550,6	696,448
551	691,876
551,5	680,99
551,9	676,848
552,4	674,162
552,8	662,448
553,3	658,133
553,7	653,79
554,2	644,448
554,6	637,39
555,1	631,762
555,5	622,99
555,9	621,676
556,4	614,048
556,8	608,362
557,3	600,676
557,7	597,533
558,2	587,533
558,6	582,676
559,1	570,676
559,5	562,99
560	559,448
560,4	555,39
560,9	552,076
561,3	551,648
561,8	549,933
562,2	546,105
562,7	544,99
563,1	536,105
563,6	528,448
564	527,59
564,4	525,905
564,9	514,962
565,3	514,333
565,8	508,905
566,2	500,933
566,7	497,505
567,1	492,79
567,6	486,876
568	486,733
568,5	486,562
568,9	482,076
569,4	484,248
569,8	479,876
570,3	475,162
570,7	468,419
571,1	465,248
571,6	459,476
572	458,333
572,5	454,419
572,9	458,733
573,4	455,448
573,8	453,79
574,3	446,733
574,7	442,648
575,2	441,39
575,6	437,876
576,1	429,562
576,5	423,79
576,9	424,648
577,4	427,333
577,8	424,362
578,3	414,533
578,7	411,219
579,2	415,505
579,6	417,076
580,1	410,59
580,5	404,448
581	401,048
581,4	406,019
581,9	407,105
582,3	397,362
582,7	397,219
583,2	394,133
583,6	391,676
584,1	388,876
584,5	385,162
585	382,648
585,4	380,762
585,9	379,162
586,3	377,562
586,8	371,133
587,2	369,276
587,6	363,848
588,1	364,79
588,5	363,419
589	357,276
589,4	352,419
589,9	354,076
590,3	356,533
590,8	354,819
591,2	349,676
591,7	345,905
592,1	341,876
592,5	340,848
593	337,219
593,4	332,619
593,9	326,905
594,3	320,476
594,8	318,705
595,2	316,362
595,7	315,133
596,1	315,219
596,6	313,705
597	319,248
597,4	317,362
597,9	315,448
598,3	314,39
598,8	308,933
599,2	308,79
599,7	305,019
600,1	300,448
600,6	304,162
601	303,505
601,4	304,362
601,9	304,79
602,3	301,79
602,8	295,619
603,2	295,505
603,7	291,648
604,1	291,733
604,6	283,648
605	283,105
605,4	280,533
605,9	280,333
606,3	276,705
606,8	277,305
607,2	274,933
607,7	276,276
608,1	277,419
608,6	276,905
609	279,819
609,4	281,619
609,9	277,162
610,3	275,19
610,8	278,876
611,2	274,505
611,7	270,848
612,1	267,99
612,6	265,476
613	266,59
613,4	263,733
613,9	258,905
614,3	257,333
614,8	253,105
615,2	252,876
615,7	250,848
616,1	248,762
616,6	250,819
617	249,648
617,4	249,876
617,9	254,076
618,3	253,362
618,8	253,648
619,2	248,305
619,7	245,819
620,1	238,676
620,5	237,419
621	235,048
621,4	232,59
621,9	226,562
622,3	228,219
622,8	220,448
623,2	222,905
623,6	216,133
624,1	217,876
624,5	217,933
625	216,562
625,4	216,276
625,9	221,99
626,3	218,019
626,8	223,533
627,2	216,762
627,6	212,162
628,1	212,79
628,5	206,105
629	208,305
629,4	209,59
629,9	208,933
630,3	211,105
630,7	211,933
631,2	207,619
631,6	212,733
632,1	205,648
632,5	206,733
633	197,419
633,4	193,848
633,8	190,076
634,3	186,933
634,7	180,876
635,2	180,876
635,6	176,79
636,1	184,219
636,5	184,905
636,9	188,076
637,4	192,876
637,8	192,59
638,3	189,705
638,7	188,905
639,2	184,819
639,6	181,905
640	178,562
640,5	178,933
640,9	181,59
641,4	178,59
641,8	177,248
642,2	176,905
642,7	178,848
643,1	181,39
643,6	177,333
644	177,133
644,5	181,933
644,9	184,162
645,3	185,648
645,8	183,705
646,2	182,219
646,7	179,448
647,1	177,133
647,6	171,762
648	168,705
648,4	165,448
648,9	165,648
649,3	161,848
649,8	163,676
650,2	163,933
650,6	165,162
651,1	168,762
651,5	171,562
652	168,562
652,4	163,533
652,9	163,733
653,3	158,99
653,7	156,733
654,2	152,562
654,6	147,333
655,1	144,448
655,5	144,733
655,9	141,648
656,4	141,162
656,8	144,248
657,3	142,19
657,7	138,99
658,2	139,962
658,6	141,419
659	139,962
659,5	142,333
659,9	137,562
660,4	135,876
660,8	139,533
661,2	139,933
661,7	138,819
662,1	138,39
662,6	136,019
663	139,105
663,4	138,59
663,9	134,505
664,3	131,848
664,8	135,076
665,2	133,362
665,6	130,105
666,1	128,276
666,5	129,333
667	124,562
667,4	126,448
667,9	121,876
668,3	121,533
668,7	120,333
669,2	119,076
669,6	115,133
670,1	120,333
670,5	116,39
670,9	118,848
671,4	120,105
671,8	121,733
672,3	118,562
672,7	120,762
673,1	120,162
673,6	121,105
674	119,019
674,5	120,59
674,9	114,676
675,3	114,419
675,8	112,848
676,2	112,219
676,7	108,019
677,1	108,105
677,5	104,276
678	111,99
678,4	115,105
678,9	114,419
679,3	111,762
679,7	118,248
680,2	117,133
680,6	113,99
681,1	107,905
681,5	105,219
681,9	103,276
682,4	103,362
682,8	95,705
683,3	88,619
683,7	90,705
684,1	93,448
684,6	95,305
685	93,99
685,5	93,905
685,9	97,619
686,3	105,876
686,8	107,733
687,2	106,305
687,7	104,676
688,1	107,733
688,5	104,219
689	104,762
689,4	103,105
689,9	100,162
690,3	102,133
690,7	96,362
691,2	93,162
691,6	94,648
692	88,876
692,5	85,133
692,9	80,133
693,4	77,962
693,8	80,59
694,2	77,019
694,7	80,248
695,1	79,448
695,6	79,162
696	82,048
696,4	79,705
696,9	82,19
697,3	87,219
697,8	80,276
698,2	81,476
698,6	85,076
699,1	83,562
699,5	86,39
699,9	81,048
700,4	76,333
700,8	79,105
701,3	77,962
701,7	71,448
702,1	74,79
702,6	72,419
703	74,676
703,5	80,39
703,9	81,219
704,3	86,59
704,8	91,876
705,2	89,019
705,6	82,219
706,1	85,076
706,5	81,476
707	78,79
707,4	73,962
707,8	73,19
708,3	68,819
708,7	78,162
709,2	74,762
709,6	75,79
710	79,162
710,5	80,79
710,9	74,79
711,3	78,933
711,8	75,19
712,2	72,705
712,7	69,076
713,1	64,219
713,5	60,905
714	64,505
714,4	64,848
714,8	62,448
715,3	63,648
715,7	61,105
716,2	60,248
716,6	64,59
717	63,219
717,5	62,333
717,9	62,562
718,3	58,676
718,8	63,076
719,2	65,476
719,7	68,048
720,1	63,876
720,5	67,705
721	66,905
721,4	73,305
721,8	76,276
722,3	72,048
722,7	62,79
723,2	67,476
723,6	59,048
724	56,876
724,5	48,705
724,9	39,105
725,3	40,819
725,8	41,79
726,2	38,762
726,7	42,905
727,1	45,048
727,5	50,905
728	55,562
728,4	54,99
728,8	55,619
729,3	54,876
729,7	53,819
730,1	51,533
730,6	49,333
731	51,648
731,5	54,133
731,9	57,59
732,3	59,79
732,8	57,705
733,2	58,505
733,6	57,448
734,1	54,048
734,5	48,676
734,9	44,562
735,4	42,505
735,8	45,419
736,3	48,59
736,7	46,076
737,1	44,876
737,6	46,79
738	49,362
738,4	52,019
738,9	53,39
739,3	47,105
739,7	49,305
740,2	49,39
740,6	49,105
741,1	45,962
741,5	45,448
741,9	37,505
742,4	41,533
742,8	42,848
743,2	47,019
743,7	46,133
744,1	47,562
744,5	45,79
745	47,276
745,4	47,362
745,8	47,19
746,3	45,019
746,7	46,962
747,2	49,619
747,6	49,762
748	48,676
748,5	45,59
748,9	44,076
749,3	42,048
749,8	37,59
750,2	32,505
750,6	31,048
751,1	35,19
751,5	33,219
751,9	35,162
752,4	33,59
752,8	33,105
753,3	31,962
753,7	34,362
754,1	28,59
754,6	29,848
755	27,105
755,4	31,133
755,9	33,819
756,3	34,276
756,7	30,562
757,2	35,676
757,6	38,533
758	36,333
758,5	34,362
758,9	34,39
759,3	35,248
759,8	37,133
760,2	36,648
760,6	35,962
761,1	35,362
761,5	38,762
761,9	37,79
762,4	40,79
762,8	41,619
763,3	39,076
763,7	34,476
764,1	33,562
764,6	29,905
765	31,19
765,4	29,933
765,9	21,276
766,3	21,333
766,7	24,876
767,2	28,133
767,6	27,19
768	26,476
768,5	22,419
768,9	26,362
769,3	27,562
769,8	28,162
770,2	32,248
770,6	32,39
771,1	35,533
771,5	37,79
771,9	38,162
772,4	42,619
772,8	43,933
773,2	40,476
773,7	39,59
774,1	41,333
774,5	43,219
775	38,733
775,4	36,733
775,8	34,762
776,3	33,733
776,7	34,048
777,1	28,362
777,6	24,962
778	29,105
778,4	24,505
778,9	25,276
779,3	27,019
779,7	27,19
780,2	26,448
780,6	28,448
781	29,648
781,5	29,162
781,9	29,162
782,3	24,219
782,8	22,733
783,2	24,276
783,6	20,619
784,1	25,476
784,5	24,276
784,9	22,876
785,4	23,562
785,8	16,962
786,2	14,162
786,7	15,676
787,1	11,105
787,5	11,876
788	8,076
788,4	7,99
788,8	14,362
789,3	18,39
789,7	17,933
790,1	17,819
790,6	19,219
791	22,876
791,4	25,076
791,9	24,19
792,3	21,733
792,7	28,219
793,2	23,448
793,6	25,448
794	25,276
794,5	25,076
794,9	27,933
795,3	29,476
795,8	20,133
796,2	23,362
796,6	19,933
797,1	17,076
797,5	16,99
797,9	13,419
798,4	12,305
798,8	12,076
799,2	12,762
799,7	18,619
800,1	21,276
800,5	20,505
801	21,905
801,4	20,219
801,8	21,962
802,2	21,905
802,7	18,448
803,1	15,676
803,5	18,99
804	16,676
804,4	13,533
804,8	16,99
805,3	15,648
805,7	13,39
806,1	16,848
806,6	15,305
807	17,905
807,4	17,476
807,9	18,933
808,3	17,79
808,7	18,705
809,2	15,562
809,6	14,505
810	10,876
810,4	17,133
810,9	9,962
811,3	14,99
811,7	10,076
812,2	12,59
812,6	11,105
813	13,333
813,5	10,362
813,9	13,248
814,3	8,333
814,8	16,619
815,2	12,476
815,6	7,248
816,1	9,848
816,5	10,019
816,9	12,448
817,3	11,705
817,8	13,848
818,2	12,676
818,6	17,505
819,1	15,79
819,5	13,79
819,9	12,448
820,4	15,848
820,8	8,048
821,2	15,848
821,7	15,819
822,1	15,99
822,5	18,79
822,9	21,305
823,4	18,876
823,8	19,762
824,2	17,105
824,7	24,248
825,1	24,533
825,5	25,648
826	24,505
826,4	28,362
826,8	29,048
827,3	26,133
827,7	20,933
828,1	22,619
828,5	20,905
829	19,362
829,4	20,533
829,8	21,419
830,3	22,076
830,7	20,133
831,1	17,819
831,6	15,533
832	9,99
832,4	5,133
832,8	6,876
833,3	3,448
833,7	2,305
834,1	2,476
834,6	1,476
835	6,276
835,4	9,133
835,8	4,59
836,3	6,533
836,7	2,705
837,1	0,105
837,6	0,99
838	-4,495
838,4	-10,438
838,9	-3,152
839,3	0,648
839,7	3,819
840,1	2,562
840,6	4,876
841	7,905
841,4	11,19
841,9	4,905
842,3	9,59
842,7	9,533
843,1	14,39
843,6	17,162
844	20,19
844,4	23,648
844,9	26,59
845,3	17,99
845,7	24,248
846,2	24,848
846,6	19,962
847	16,79
847,4	14,848
847,9	10,19
848,3	13,59
848,7	7,419
849,2	4,962
849,6	7,448
850	8,019
850,4	8,648
850,9	8,162
851,3	4,533
851,7	6,019
852,2	2,162
852,6	1,448
853	4,39
853,4	4,448
853,9	5,333
854,3	7,476
854,7	5,019
855,2	7,905
855,6	3,79
856	-4,752
856,4	-7,152
856,9	-6,952
857,3	-7,124
857,7	-1,552
858,2	-3,638
858,6	2,105
859	6,676
859,4	6,648
859,9	7,362
860,3	7,762
860,7	6,533
861,1	10,819
861,6	10,905
862	12,219
862,4	12,362
862,9	16,305
863,3	14,219
863,7	10,705
864,1	6,105
864,6	2,99
865	0,476
865,4	0,819
865,9	-4,981
866,3	-1,867
866,7	-0,495
867,1	6,133
867,6	3,105
868	5,819
868,4	3,876
868,8	8,19
869,3	6,362
869,7	4,99
870,1	2,99
870,6	4,19
871	49,562
871,4	47,762
871,8	48,19
872,3	50,19
872,7	48,648
873,1	46,648
873,5	52,648
874	6,448
874,4	7,476
874,8	2,962
875,3	0,533
875,7	2,562
876,1	0,819
876,5	-1,038
877	0,476
877,4	0,619
877,8	6,133
878,2	7,59
878,7	12,305
879,1	15,562
879,5	13,99
879,9	12,705
880,4	12,39
880,8	5,705
881,2	4,562
881,7	5,648
882,1	1,99
882,5	0,19
882,9	-1,124
883,4	-0,267
883,8	3,848
884,2	4,276
884,6	-2,495
885,1	2,762
885,5	10,305
885,9	17,362
886,3	19,219
886,8	16,733
887,2	18,276
887,6	19,39
888	18,619
888,5	15,676
888,9	13,133
889,3	7,676
889,8	11,048
890,2	6,79
890,6	9,048
891	7,533
891,5	5,048
891,9	4,162
892,3	8,59
892,7	7,99
893,2	11,79
893,6	6,876
894	8,248
894,4	11,419
894,9	11,019
895,3	12,105
895,7	9,276
896,1	9,133
896,6	13,248
897	11,59
897,4	5,276
897,8	6,562
898,3	9,905
898,7	12,362
899,1	12,076
899,5	7,99
900	6,248
900,4	8,933
900,8	10,59
901,2	5,248
901,7	5,533
902,1	9,105
902,5	11,505
902,9	16,562
903,4	17,905
903,8	10,905
904,2	14,533
904,6	11,333
905,1	8,305
905,5	3,619
905,9	2,133
906,3	0,562
906,8	0,276
907,2	-1,552
907,6	6,019
908	3,248
908,5	10,362
908,9	9,505
909,3	7,876
909,7	7,362
910,2	7,019
910,6	1,762
911	3,476
911,4	1,333
911,9	3,19
912,3	3,333
912,7	7,019
913,1	4,048
913,6	5,533
914	4,705
914,4	4,762
914,8	1,876
915,3	3,419
915,7	2,305
916,1	5,848
916,5	5,905
916,9	3,648
917,4	5,305
917,8	4,333
918,2	2,819
918,6	5,733
919,1	6,619
919,5	6,219
919,9	8,648
920,3	7,048
920,8	6,248
921,2	12,533
921,6	13,619
922	8,819
922,5	7,762
922,9	3,019
923,3	7,562
923,7	8,562
924,2	0,848
924,6	-1,838
925	1,905
925,4	4,048
925,8	6,333
926,3	5,733
926,7	8,133
927,1	15,162
927,5	15,876
928	14,048
928,4	10,648
928,8	16,79
929,2	14,505
929,7	7,076
930,1	0,105
930,5	-2,152
930,9	1,276
931,3	3,362
931,8	-4,295
932,2	-7,038
932,6	-1,752
933	-0,038
933,5	2,419
933,9	1,648
934,3	-1,895
934,7	5,705
935,2	8,219
935,6	11,19
936	8,305
936,4	7,476
936,8	5,333
937,3	5,505
937,7	3,99
938,1	0,848
938,5	-4,238
939	1,048
939,4	3,619
939,8	1,505
940,2	2,705
940,6	0,105
941,1	7,19
941,5	13,648
941,9	12,59
942,3	7,248
942,8	9,076
943,2	6,848
943,6	11,305
944	4,848
944,4	-3,552
944,9	-5,61
945,3	-2,295
945,7	1,076
946,1	3,276
946,6	-1,21
947	0,448
947,4	4,533
947,8	7,076
948,2	5,648
948,7	3,79
949,1	2,476
949,5	5,733
949,9	10,505
950,3	10,19
950,8	8,562
951,2	7,162
951,6	13,076
952	13,162
952,5	10,076
952,9	3,419
953,3	1,476
953,7	2,848
954,1	5,333
954,6	1,362
955	6,476
955,4	3,39
955,8	6,533
956,2	5,619
956,7	5,762
957,1	1,962
957,5	-3,61
957,9	-9,495
958,3	-3,381
958,8	-0,724
959,2	1,962
959,6	3,305
960	3,59
960,5	1,848
960,9	3,39
961,3	-0,895
961,7	-8,067
962,1	-7,438
962,6	-10,01
963	-8,038
963,4	-1,581
963,8	1,962
964,2	2,019
964,7	3,39
965,1	5,876
965,5	9,276
965,9	10,476
966,3	10,133
966,8	9,962
967,2	11,819
967,6	12,276
968	10,562
968,4	6,933
968,9	8,076
969,3	0,99
969,7	-2,181
970,1	-3,067
970,5	-0,895
971	-6,038
971,4	-0,667
971,8	1,819
972,2	10,476
972,6	10,733
973,1	11,905
973,5	11,476
973,9	15,076
974,3	7,59
974,7	1,848
975,2	1,076
975,6	-1,352
976	0,762
976,4	-1,924
976,8	-0,238
977,3	2,333
977,7	2,448
978,1	-1,467
978,5	1,762
978,9	1,419
979,4	-0,352
979,8	-6,01
980,2	-9,552
980,6	-9,238
981	-3,81
981,5	-4,552
981,9	-7,667
982,3	-8,267
982,7	-3,267
983,1	1,39
983,6	5,248
984	3,305
984,4	5,676
984,8	7,505
985,2	13,219
985,6	13,933
986,1	10,619
986,5	4,39
986,9	5,876
987,3	2,848
987,7	3,619
988,2	4,99
988,6	4,648
989	9,505
989,4	16,648
989,8	14,19
990,3	15,962
990,7	9,79
991,1	5,076
991,5	3,933
991,9	5,048
992,3	3,19
992,8	4,619
993,2	6,362
993,6	7,705
994	10,419
994,4	12,019
994,9	12,505
995,3	12,533
995,7	14,419
996,1	13,705
996,5	16,705
996,9	14,505
997,4	12,676
997,8	8,019
998,2	8,19
998,6	6,019
999	5,276
999,5	2,933
999,9	4,219
1000,3	7,105
1000,7	9,505
1001,1	7,305
1001,5	3,905
1002	-0,495
1002,4	3,048
1002,8	2,962
1003,2	-2,667
1003,6	-2,81
1004	-2,181
1004,5	-4,895
1004,9	-0,667
1005,3	-4,267
1005,7	-6,152
1006,1	-1,867
1006,6	-3,295
1007	-3,267
1007,4	0,476
1007,8	-4,038
1008,2	-4,495
1008,6	-3,781
1009,1	-7,924
1009,5	0,162
1009,9	1,962
1010,3	3,619
1010,7	7,305
1011,1	12,705
1011,6	12,419
1012	8,962
1012,4	3,99
1012,8	-1,924
1013,2	-1,324
1013,6	1,39
1014,1	1,676
1014,5	0,876
1014,9	8,762
1015,3	7,59
1015,7	9,733
1016,1	7,905
1016,6	9,59
1017	6,448
1017,4	6,276
1017,8	5,933
1018,2	3,19
1018,6	4,562
1019,1	0,819
1019,5	0,676
1019,9	4,419
1020,3	4,79
1020,7	4,905
1021,1	10,248
1021,6	7,733
1022	5,99
1022,4	8,162
1022,8	4,133
1023,2	7,59
1023,6	1,476
1024,1	1,276
1024,5	1,105
1024,9	8,819
1025,3	4,219
1025,7	6,448
1026,1	3,505
1026,6	9,448
1027	4,562
1027,4	6,705
1027,8	5,219
1028,2	9,19
1028,6	7,676
1029	10,362
1029,5	8,848
1029,9	12,962
1030,3	16,105
1030,7	15,048
1031,1	7,219
1031,5	1,733
1032	3,105
1032,4	2,733
1032,8	-1,152
1033,2	-4,381
1033,6	-2,01
1034	0,762
1034,4	7,762
1034,9	2,905
1035,3	3,476
1035,7	4,248
1036,1	3,505
1036,5	-2,01
1036,9	-0,524
1037,4	2,79
1037,8	4,105
1038,2	-1,524
1038,6	-4,638
1039	-1,895
1039,4	-0,467
1039,8	-9,267
1040,3	-12,067
1040,7	-15,724
1041,1	-8,952
1041,5	-8,381
1041,9	-12,438
1042,3	-8,438
1042,7	0,448
1043,2	-2,467
1043,6	6,448
1044	8,419
1044,4	5,676
1044,8	0,533
1045,2	-0,781
1045,6	1,933
1046,1	4,219
1046,5	-0,952
1046,9	-1,01
1047,3	1,99
1047,7	7,419
1048,1	8,619
1048,5	4,305
1049	6,648
1049,4	4,99
1049,8	4,962
1050,2	7,076
1050,6	11,276
1051	11,562
1051,4	11,105
1051,9	5,39
1052,3	7,848
1052,7	3,676
1053,1	4,048
1053,5	2,448
1053,9	4,905
1054,3	5,419
1054,8	11,533
1055,2	13,876
1055,6	15,476
1056	13,876
1056,4	14,248
1056,8	13,248
1057,2	17,048
1057,6	11,476
1058,1	12,019
1058,5	9,648
1058,9	12,733
1059,3	15,876
1059,7	11,305
1060,1	7,762
1060,5	9,105
1061	1,99
1061,4	12,133
1061,8	6,733
1062,2	4,876
1062,6	5,905
1063	5,362
1063,4	3,99
1063,8	10,133
1064,3	1,962
1064,7	5,419
1065,1	5,676
1065,5	6,933
1065,9	8,019
1066,3	6,39
1066,7	2,905
1067,1	0,676
1067,6	0,79
1068	-5,61
1068,4	-6,238
1068,8	-2,924
1069,2	-2,181
1069,6	-2,638
1070	0,076
1070,4	-1,524
1070,9	-0,152
1071,3	-0,41
1071,7	-3,495
1072,1	-1,81
1072,5	0,39
1072,9	2,362
1073,3	2,39
1073,7	6,505
1074,2	11,019
1074,6	10,876
1075	13,276
1075,4	14,705
1075,8	13,99
1076,2	14,762
1076,6	16,276
1077	10,048
1077,5	9,705
1077,9	11,705
1078,3	8,476
1078,7	7,076
1079,1	8,333
1079,5	5,362
1079,9	9,276
1080,3	5,962
1080,7	4,076
1081,2	8,476
1081,6	11,476
1082	11,419
1082,4	7,248
1082,8	4,105
1083,2	2,562
1083,6	3,476
1084	0,619
1084,5	-4,552
1084,9	-7,895
1085,3	-1,438
1085,7	-3,581
1086,1	-1,095
1086,5	-3,667
1086,9	-2,781
1087,3	0,762
1087,7	6,819
1088,2	4,162
1088,6	8,276
1089	5,048
1089,4	6,048
1089,8	7,448
1090,2	8,505
1090,6	4,705
1091	8,876
1091,4	8,705
1091,9	14,076
1092,3	9,505
1092,7	6,133
1093,1	2,905
1093,5	-1,781
1093,9	-1,695
1094,3	-0,667
1094,7	0,362
1095,1	2,362
1095,5	3,762
1096	-1,695
1096,4	4,476
1096,8	0,448
1097,2	-1,267
1097,6	-5,41
1098	-5,152
1098,4	-5,381
1098,8	0,219
1099,2	-1,838
1099,6	1,905
1100,1	2,305
1100,5	5,448
1100,9	6,562
1101,3	5,419
1101,7	9,276
1102,1	10,248
1102,5	8,105
1102,9	3,619
1103,3	2,362
1103,7	4,219
1104,2	4,905
1104,6	4,305
1105	4,619
1105,4	1,276
1105,8	4,733
1106,2	4,99
1106,6	1,762
1107	1,562
1107,4	-1,767
1107,8	-3,067
1108,3	-0,167
