Data from Subt2_132.txt Node
Date: Sat Aug 26 18:26:43 MSK 2023
User: vat
Spectrometer: MAYP114033
Trigger mode: 0
Integration Time (sec): 1,000000E0
Scans to average: 5
Electric dark correction enabled: true
Nonlinearity correction enabled: false
Boxcar width: 3
XAxis mode: Wavelengths
Number of Pixels in Spectrum: 2068
>>>>>Begin Spectral Data<<<<<
199,4	0,733
199,9	-1,327
200,4	-0,533
200,8	1,348
201,3	1,09
201,8	2,69
202,2	0,748
202,7	5,776
203,2	5,033
203,6	3,405
204,1	-1,71
204,6	-1,052
205	-2,338
205,5	0,376
206	-6,224
206,4	-4,881
206,9	-6,367
207,4	-5,31
207,8	-4,252
208,3	-4,081
208,8	-5,567
209,2	-0,51
209,7	1,948
210,2	6,405
210,6	8,005
211,1	9,376
211,5	6,719
212	8,548
212,5	1,148
212,9	-2,795
213,4	-4,367
213,9	-4,881
214,3	-7,824
214,8	-3,452
215,3	-7,424
215,7	-2,852
216,2	1,09
216,7	0,09
217,1	-0,11
217,6	2,462
218,1	-1,595
218,5	0,09
219	-5,224
219,5	-5,424
219,9	-11,081
220,4	-5,738
220,9	-9,852
221,3	-9,481
221,8	-9,195
222,3	-0,824
222,7	-0,51
223,2	4,348
223,6	0,805
224,1	0,89
224,6	2,833
225	2,29
225,5	-1,452
226	-0,91
226,4	-0,538
226,9	1,09
227,4	6,919
227,8	2,005
228,3	-1,452
228,8	-3,224
229,2	-1,767
229,7	-2,738
230,2	-3,51
230,6	-0,538
231,1	4,948
231,5	10,262
232	9,405
232,5	1,89
232,9	4,719
233,4	8,033
233,9	-1,024
234,3	-3,538
234,8	-7,11
235,3	-8,11
235,7	-3,281
236,2	-2,852
236,7	-8,024
237,1	-4,081
237,6	-4,481
238,1	-2,624
238,5	-2,51
239	0,976
239,4	3,348
239,9	3,29
240,4	2,519
240,8	6,205
241,3	4,748
241,8	6,405
242,2	0,119
242,7	-7,452
243,2	-5,595
243,6	-12,024
244,1	-12,395
244,6	-10,338
245	-9,31
245,5	-3,252
245,9	-0,224
246,4	-0,681
246,9	5,005
247,3	6,033
247,8	8,205
248,3	12,833
248,7	8,633
249,2	11,49
249,7	7,948
250,1	9,576
250,6	7,319
251	7,748
251,5	5,633
252	4,062
252,4	5,405
252,9	4,062
253,4	-1,081
253,8	-3,252
254,3	-2,738
254,8	-2,338
255,2	-2,367
255,7	-9,31
256,1	-3,195
256,6	-0,795
257,1	2,605
257,5	-0,738
258	-2,767
258,5	-2,795
258,9	0,205
259,4	-2,767
259,9	-1,11
260,3	-5,538
260,8	-8,852
261,2	-8,624
261,7	-5,252
262,2	-9,652
262,6	-9,024
263,1	-8,824
263,6	-2,881
264	5,519
264,5	9,262
264,9	6,862
265,4	12,69
265,9	11,233
266,3	12,576
266,8	9,233
267,3	5,605
267,7	2,805
268,2	1,09
268,7	2,89
269,1	5,29
269,6	4,062
270	7,548
270,5	5,262
271	2,605
271,4	5,805
271,9	1,433
272,4	3,319
272,8	0,976
273,3	-7,11
273,7	-3,081
274,2	-1,71
274,7	-2,938
275,1	2,405
275,6	-2,852
276,1	-2,138
276,5	5,376
277	2,376
277,4	3,433
277,9	7,433
278,4	0,833
278,8	7,433
279,3	6,919
279,8	2,49
280,2	5,176
280,7	4,119
281,1	-3,224
281,6	-1,167
282,1	-1,652
282,5	-0,938
283	2,433
283,4	2,348
283,9	4,348
284,4	12,605
284,8	14,319
285,3	8,033
285,8	10,49
286,2	7,833
286,7	2,69
287,1	-0,881
287,6	-5,567
288,1	-12,138
288,5	-7,452
289	-11,11
289,5	-8,195
289,9	-8,224
290,4	-4,795
290,8	-7,024
291,3	-1,395
291,8	0,033
292,2	1,69
292,7	3,748
293,1	3,862
293,6	3,719
294,1	4,148
294,5	3,69
295	6,405
295,5	4,776
295,9	3,09
296,4	1,776
296,8	-0,795
297,3	1,976
297,8	-1,938
298,2	-8,795
298,7	-6,195
299,1	-6,652
299,6	-5,024
300,1	-0,881
300,5	0,976
301	5,319
301,5	11,205
301,9	10,405
302,4	4,262
302,8	7,433
303,3	0,376
303,8	-3,71
304,2	-5,367
304,7	-10,967
305,1	-13,367
305,6	-9,052
306,1	-2,767
306,5	-2,595
307	-0,824
307,4	-0,081
307,9	2,433
308,4	0,776
308,8	-3,71
309,3	-10,052
309,8	-6,795
310,2	-4,624
310,7	-7,167
311,1	-11,138
311,6	-10,395
312,1	-3,795
312,5	0,119
313	-0,424
313,4	-3,652
313,9	1,776
314,4	5,862
314,8	6,89
315,3	5,348
315,7	-1,538
316,2	-1,767
316,7	-2,567
317,1	0,09
317,6	-3,167
318	2,09
318,5	1,033
319	7,09
319,4	9,09
319,9	13,49
320,3	14,633
320,8	13,319
321,3	11,662
321,7	13,862
322,2	8,805
322,6	11,319
323,1	8,348
323,6	2,205
324	2,205
324,5	-1,052
324,9	-1,91
325,4	-0,967
325,9	-0,881
326,3	2,919
326,8	1,09
327,2	0,376
327,7	2,233
328,2	3,662
328,6	7,09
329,1	0,862
329,5	-0,681
330	1,748
330,5	5,89
330,9	5,348
331,4	9,148
331,8	5,719
332,3	12,862
332,8	13,262
333,2	13,976
333,7	16,29
334,1	19,176
334,6	8,548
335,1	5,862
335,5	3,005
336	-0,367
336,4	1,09
336,9	5,148
337,4	5,662
337,8	7,862
338,3	7,09
338,7	8,69
339,2	6,09
339,7	6,176
340,1	-2,281
340,6	-4,995
341	-4,938
341,5	-2,138
342	-3,767
342,4	-1,71
342,9	-5,967
343,3	-4,195
343,8	-4,567
344,2	3,976
344,7	9,519
345,2	8,919
345,6	8,519
346,1	14,29
346,5	13,005
347	12,462
347,5	6,548
347,9	5,348
348,4	4,919
348,8	7,405
349,3	8,662
349,8	12,09
350,2	19,376
350,7	17,462
351,1	15,605
351,6	19,09
352	21,719
352,5	23,262
353	32,548
353,4	32,233
353,9	50,348
354,3	65,833
354,8	80,462
355,3	102,919
355,7	122,405
356,2	142,433
356,6	172,119
357,1	201,033
357,5	228,319
358	272,862
358,5	315,348
358,9	367,776
359,4	425,776
359,8	489,69
360,3	564,519
360,8	650,833
361,2	736,262
361,7	838,89
362,1	949,49
362,6	1073,176
363	1202,548
363,5	1333,319
364	1481,662
364,4	1626,548
364,9	1775,519
365,3	1925,748
365,8	2065,405
366,3	2203,605
366,7	2327,862
367,2	2430,748
367,6	2515,576
368,1	2584,548
368,5	2625,605
369	2647,919
369,5	2644,605
369,9	2623,233
370,4	2586,348
370,8	2535,548
371,3	2454,348
371,7	2362,719
372,2	2258,576
372,7	2152,119
373,1	2041,376
373,6	1918,09
374	1796,948
374,5	1676,462
374,9	1564,576
375,4	1454,833
375,9	1346,49
376,3	1239,09
376,8	1141,262
377,2	1050,405
377,7	965,062
378,2	884,262
378,6	811,005
379,1	739,119
379,5	678,119
380	623,576
380,4	570,805
380,9	526,719
381,4	484,862
381,8	445,69
382,3	418,69
382,7	386,119
383,2	360,719
383,6	331,69
384,1	307,405
384,6	288,233
385	266,205
385,5	243,205
385,9	224,833
386,4	206,29
386,8	197,433
387,3	183,633
387,7	164,548
388,2	155,662
388,7	145,433
389,1	136,948
389,6	127,062
390	116,519
390,5	113,148
390,9	110,148
391,4	105,919
391,9	97,662
392,3	94,29
392,8	85,319
393,2	78,805
393,7	68,862
394,1	64,033
394,6	61,348
395,1	59,462
395,5	55,805
396	56,519
396,4	55,462
396,9	51,605
397,3	52,69
397,8	48,49
398,2	47,548
398,7	45,005
399,2	45,919
399,6	46,862
400,1	48,29
400,5	41,605
401	39,662
401,4	34,033
401,9	34,005
402,4	35,662
402,8	33,519
403,3	37,69
403,7	38,519
404,2	41,948
404,6	50,519
405,1	52,262
405,5	48,548
406	48,405
406,5	44,605
406,9	48,376
407,4	46,605
407,8	47,576
408,3	48,576
408,7	51,919
409,2	58,89
409,6	66,548
410,1	73,062
410,6	80,976
411	84,005
411,5	91,405
411,9	99,519
412,4	102,148
412,8	106,49
413,3	110,976
413,7	114,519
414,2	120,49
414,7	127,49
415,1	137,319
415,6	149,748
416	158,633
416,5	166,119
416,9	175,176
417,4	187,605
417,8	202,948
418,3	212,433
418,8	225,148
419,2	236,633
419,7	250,748
420,1	267,29
420,6	278,719
421	287,605
421,5	301,519
421,9	315,319
422,4	335,348
422,8	353,233
423,3	364,49
423,8	380,548
424,2	396,633
424,7	417,89
425,1	439,205
425,6	463,748
426	484,862
426,5	513,49
426,9	540,405
427,4	568,148
427,9	588,49
428,3	620,176
428,8	641,348
429,2	671,462
429,7	698,633
430,1	733,062
430,6	769,176
431	809,233
431,5	847,805
431,9	891,005
432,4	938,662
432,8	992,433
433,3	1039,662
433,8	1090,976
434,2	1142,89
434,7	1197,576
435,1	1258,805
435,6	1319,633
436	1378,405
436,5	1453,148
436,9	1519,405
437,4	1595,862
437,8	1671,433
438,3	1748,805
438,8	1826,462
439,2	1915,805
439,7	2003,948
440,1	2100,233
440,6	2195,662
441	2287,89
441,5	2383,833
441,9	2491,576
442,4	2591,89
442,8	2698,005
443,3	2816,433
443,7	2935,976
444,2	3061,576
444,7	3186,805
445,1	3319,662
445,6	3455,69
446	3590,833
446,5	3720,119
446,9	3858,205
447,4	4005,233
447,8	4156,605
448,3	4303,948
448,7	4461,633
449,2	4623,062
449,6	4784,405
450,1	4951,776
450,6	5115,605
451	5282,919
451,5	5462,519
451,9	5644,548
452,4	5829,548
452,8	6025,29
453,3	6209,89
453,7	6407,548
454,2	6612,433
454,6	6810,862
455,1	7008,09
455,5	7202,576
456	7399,919
456,4	7607,176
456,9	7817,719
457,3	8025,062
457,8	8236,805
458,3	8457,776
458,7	8686,519
459,2	8917,548
459,6	9148,548
460,1	9368,005
460,5	9596,576
461	9824,462
461,4	10042,719
461,9	10267,005
462,3	10491,576
462,8	10714,833
463,2	10952,005
463,7	11188,233
464,1	11418,29
464,6	11654,319
465	11884,233
465,5	12115,49
466	12346,205
466,4	12567,176
466,9	12791,719
467,3	13018,262
467,8	13248,148
468,2	13481,805
468,7	13698,348
469,1	13926,662
469,6	14146,233
470	14360,119
470,5	14574,205
470,9	14776,662
471,4	14972,862
471,8	15178,776
472,3	15374,29
472,7	15573,49
473,2	15758,605
473,6	15935,348
474,1	16122,519
474,5	16306,919
475	16484,49
475,4	16659,919
475,9	16821,833
476,4	16996,462
476,8	17173,233
477,3	17331,09
477,7	17484,176
478,2	17626,89
478,6	17765,605
479,1	17902,205
479,5	18030,948
480	18150,805
480,4	18278,29
480,9	18385,176
481,3	18497,376
481,8	18608,062
482,2	18709,319
482,7	18813,262
483,1	18910,119
483,6	18990,433
484	19080,976
484,5	19161,09
484,9	19219,433
485,4	19287,976
485,8	19333,862
486,3	19376,919
486,7	19404,205
487,2	19432,719
487,6	19452,262
488,1	19468,633
488,5	19477,548
489	19490,376
489,4	19496,462
489,9	19518,462
490,4	19515,69
490,8	19514,69
491,3	19503,948
491,7	19496,49
492,2	19475,49
492,6	19452,005
493,1	19398,719
493,5	19344,176
494	19287,176
494,4	19246,376
494,9	19179,805
495,3	19120,005
495,8	19050,176
496,2	19002,519
496,7	18934,005
497,1	18882,062
497,6	18805,519
498	18735,976
498,5	18659,776
498,9	18574,919
499,4	18490,233
499,8	18416,519
500,3	18322,862
500,7	18227,776
501,2	18120,119
501,6	18020,89
502,1	17926,319
502,5	17813,862
503	17722,005
503,4	17618,433
503,9	17511,519
504,3	17421,776
504,8	17308,262
505,2	17189,462
505,7	17076,262
506,1	16955,69
506,6	16829,976
507	16705,262
507,5	16567,148
507,9	16439,119
508,4	16318,09
508,8	16191,348
509,3	16050,205
509,7	15910,405
510,2	15785,548
510,6	15649,462
511,1	15515,033
511,5	15376,833
512	15234,69
512,4	15103,805
512,9	14965,662
513,3	14827,09
513,8	14689,948
514,2	14548,576
514,7	14411,719
515,1	14273,205
515,6	14125,148
516	13997,805
516,5	13861,148
516,9	13715,976
517,4	13588,805
517,8	13442,148
518,3	13310,033
518,7	13170,462
519,2	13026,09
519,6	12881,719
520,1	12757,948
520,5	12614,29
521	12476,862
521,4	12334,376
521,9	12204,49
522,3	12067,576
522,8	11932,005
523,2	11802,576
523,7	11676,748
524,1	11554,605
524,6	11427,805
525	11298,119
525,5	11175,433
525,9	11060,776
526,4	10926,719
526,8	10795,662
527,3	10673,033
527,7	10549,89
528,2	10427,748
528,6	10305,176
529,1	10179,176
529,5	10067,919
530	9949,833
530,4	9836,662
530,9	9730,862
531,3	9628,776
531,8	9524,262
532,2	9423,233
532,6	9312,89
533,1	9214,805
533,5	9106,89
534	8997,233
534,4	8883,833
534,9	8780,633
535,3	8669,919
535,8	8575,405
536,2	8467,519
536,7	8374,376
537,1	8279,948
537,6	8191,976
538	8102,148
538,5	8014,633
538,9	7911,319
539,4	7833,29
539,8	7746,433
540,3	7664,262
540,7	7572,776
541,2	7484,148
541,6	7401,319
542,1	7332,348
542,5	7247,376
543	7163,119
543,4	7077,548
543,9	7001,633
544,3	6923,433
544,8	6840,319
545,2	6765,233
545,7	6693,462
546,1	6623,033
546,5	6554,348
547	6485,376
547,4	6413,233
547,9	6349,976
548,3	6274,719
548,8	6209,062
549,2	6132,176
549,7	6071,176
550,1	6009,719
550,6	5948,462
551	5886,376
551,5	5828,89
551,9	5758,405
552,4	5705,062
552,8	5638,405
553,3	5577,662
553,7	5520,205
554,2	5466,119
554,6	5411,519
555,1	5364,319
555,5	5312,005
555,9	5265,005
556,4	5213,49
556,8	5160,205
557,3	5110,89
557,7	5061,833
558,2	5011,433
558,6	4971,148
559,1	4920,862
559,5	4871,748
560	4830,69
560,4	4783,148
560,9	4738,119
561,3	4688,605
561,8	4640,662
562,2	4601,833
562,7	4559,833
563,1	4520,348
563,6	4474,69
564	4436,748
564,4	4399,233
564,9	4352,148
565,3	4311,69
565,8	4274,633
566,2	4232,776
566,7	4200,348
567,1	4165,29
567,6	4133,148
568	4098,376
568,5	4058,09
568,9	4022,376
569,4	3985,862
569,8	3948,462
570,3	3913,09
570,7	3866,605
571,1	3839,948
571,6	3810,948
572	3780,176
572,5	3751,376
572,9	3718,776
573,4	3684,205
573,8	3665,119
574,3	3628,748
574,7	3592,433
575,2	3559,205
575,6	3525,633
576,1	3498,062
576,5	3470,576
576,9	3438,948
577,4	3408,662
577,8	3382,49
578,3	3354,119
578,7	3324,833
579,2	3297,576
579,6	3266,033
580,1	3234,662
580,5	3215,576
581	3192,262
581,4	3165,919
581,9	3139,862
582,3	3111,262
582,7	3086,062
583,2	3060,948
583,6	3032,519
584,1	3009,576
584,5	2984,29
585	2964,862
585,4	2931,433
585,9	2903,719
586,3	2884,462
586,8	2861,633
587,2	2832,776
587,6	2815,519
588,1	2790,49
588,5	2778,119
589	2762,033
589,4	2736,633
589,9	2713,633
590,3	2690,348
590,8	2664,862
591,2	2650,148
591,7	2635,976
592,1	2617,005
592,5	2604,49
593	2586,176
593,4	2571,119
593,9	2553,976
594,3	2527,462
594,8	2502,605
595,2	2480,405
595,7	2460,805
596,1	2443,233
596,6	2430,49
597	2415,976
597,4	2406,319
597,9	2394,09
598,3	2383,862
598,8	2366,805
599,2	2354,176
599,7	2338,69
600,1	2317,176
600,6	2303,833
601	2288,719
601,4	2275,576
601,9	2260,005
602,3	2237,376
602,8	2219,862
603,2	2207,776
603,7	2192,405
604,1	2176,948
604,6	2157,805
605	2143,09
605,4	2128,405
605,9	2113,662
606,3	2096,805
606,8	2076,233
607,2	2056,719
607,7	2041,033
608,1	2026,519
608,6	2018,205
609	2005,605
609,4	1994,948
609,9	1984,548
610,3	1972,033
610,8	1962,548
611,2	1948,719
611,7	1934,776
612,1	1917,748
612,6	1904,062
613	1887,09
613,4	1876,633
613,9	1861,319
614,3	1844,862
614,8	1834,29
615,2	1818,062
615,7	1808,29
616,1	1802,062
616,6	1785,976
617	1774,176
617,4	1766,233
617,9	1756,805
618,3	1750,09
618,8	1741,862
619,2	1730,462
619,7	1723,605
620,1	1712,89
620,5	1704,719
621	1690,433
621,4	1678,49
621,9	1660,49
622,3	1642,433
622,8	1635,605
623,2	1624,862
623,6	1613,605
624,1	1603,233
624,5	1591,005
625	1584,719
625,4	1577,176
625,9	1560,719
626,3	1544,919
626,8	1527,719
627,2	1518,233
627,6	1509,49
628,1	1495,376
628,5	1487,09
629	1471,919
629,4	1466,348
629,9	1459,205
630,3	1439,919
630,7	1427,548
631,2	1420,262
631,6	1408,29
632,1	1403,033
632,5	1387,576
633	1378,062
633,4	1372,748
633,8	1365,69
634,3	1353,405
634,7	1337,748
635,2	1324,205
635,6	1318,662
636,1	1307,548
636,5	1297,262
636,9	1285,062
637,4	1274,719
637,8	1268,29
638,3	1263,148
638,7	1250,462
639,2	1239,833
639,6	1233,548
640	1225,462
640,5	1219,919
640,9	1214,319
641,4	1206,976
641,8	1204,405
642,2	1203,605
642,7	1202,033
643,1	1201,205
643,6	1189,862
644	1182,862
644,5	1176,462
644,9	1169,033
645,3	1159,633
645,8	1147,976
646,2	1137,176
646,7	1134,49
647,1	1123,519
647,6	1113,976
648	1106,805
648,4	1095,605
648,9	1089,748
649,3	1078,205
649,8	1066,862
650,2	1062,976
650,6	1056,89
651,1	1048,548
651,5	1043,49
652	1031,433
652,4	1027,548
652,9	1024,005
653,3	1014,605
653,7	1010,519
654,2	1006,005
654,6	999,462
655,1	992,633
655,5	989,69
655,9	981,662
656,4	974,148
656,8	964,176
657,3	958,119
657,7	953,719
658,2	951,205
658,6	937,976
659	938,348
659,5	929,976
659,9	923,662
660,4	914,976
660,8	904,805
661,2	891,576
661,7	884,262
662,1	873,29
662,6	872,948
663	868,176
663,4	860,633
663,9	852,805
664,3	850,862
664,8	848,69
665,2	838,262
665,6	828,548
666,1	820,948
666,5	814,633
667	810,833
667,4	801,948
667,9	795,262
668,3	787,976
668,7	785,748
669,2	783,976
669,6	777,862
670,1	775,033
670,5	770,148
670,9	764,033
671,4	759,805
671,8	748,833
672,3	743,633
672,7	742,319
673,1	734,262
673,6	731,919
674	729,233
674,5	724,548
674,9	719,49
675,3	710,49
675,8	704,776
676,2	700,405
676,7	693,119
677,1	682,176
677,5	679,662
678	675,319
678,4	673,633
678,9	667,433
679,3	662,576
679,7	657,319
680,2	651,433
680,6	645,576
681,1	643,805
681,5	637,005
681,9	631,548
682,4	626,062
682,8	620,576
683,3	624,462
683,7	621,348
684,1	618,805
684,6	609,976
685	608,233
685,5	599,462
685,9	593,748
686,3	585,49
686,8	581,148
687,2	573,748
687,7	570,948
688,1	562,405
688,5	562,748
689	561,319
689,4	558,29
689,9	549,576
690,3	541,376
690,7	541,719
691,2	537,176
691,6	533,433
692	530,405
692,5	527,776
692,9	526,605
693,4	524,148
693,8	517,462
694,2	512,548
694,7	507,433
695,1	504,205
695,6	497,976
696	501,119
696,4	500,462
696,9	496,862
697,3	495,09
697,8	494,519
698,2	487,919
698,6	487,262
699,1	479,062
699,5	479,29
699,9	474,405
700,4	467,319
700,8	462,348
701,3	461,833
701,7	453,89
702,1	449,748
702,6	441,605
703	440,262
703,5	442,862
703,9	438,376
704,3	433,148
704,8	431,148
705,2	426,376
705,6	426,605
706,1	420,948
706,5	416,205
707	414,148
707,4	414,89
707,8	411,462
708,3	408,719
708,7	404,033
709,2	402,405
709,6	398,662
710	401,405
710,5	390,205
710,9	388,748
711,3	386,948
711,8	384,748
712,2	382,719
712,7	379,176
713,1	376,119
713,5	382,319
714	381,719
714,4	375,49
714,8	374,976
715,3	371,148
715,7	367,262
716,2	358,29
716,6	351,462
717	346,719
717,5	344,319
717,9	343,776
718,3	341,605
718,8	341,548
719,2	339,348
719,7	335,233
720,1	334,719
720,5	335,49
721	326,005
721,4	323,176
721,8	326,233
722,3	322,805
722,7	325,176
723,2	317,376
723,6	312,062
724	310,49
724,5	307,262
724,9	297,09
725,3	298,462
725,8	294,976
726,2	295,176
726,7	292,862
727,1	292,49
727,5	290,776
728	293,033
728,4	291,462
728,8	285,833
729,3	282,519
729,7	280,49
730,1	277,919
730,6	281,09
731	273,462
731,5	267,29
731,9	266,062
732,3	263,662
732,8	269,033
733,2	267,976
733,6	259,49
734,1	261,405
734,5	263,233
734,9	261,862
735,4	267,376
735,8	256,89
736,3	257,062
736,7	257,205
737,1	255,148
737,6	250,176
738	252,348
738,4	245,433
738,9	250,69
739,3	247,69
739,7	250,519
740,2	247,719
740,6	250,662
741,1	247,376
741,5	245,376
741,9	240,576
742,4	238,176
742,8	235,605
743,2	237,433
743,7	229,719
744,1	228,69
744,5	226,662
745	219,862
745,4	216,319
745,8	213,462
746,3	207,548
746,7	210,462
747,2	209,49
747,6	212,233
748	220,119
748,5	223,833
748,9	216,005
749,3	219,462
749,8	218,233
750,2	216,633
750,6	212,748
751,1	209,919
751,5	206,662
751,9	211,605
752,4	207,462
752,8	205,519
753,3	199,89
753,7	200,833
754,1	195,776
754,6	192,605
755	189,005
755,4	186,576
755,9	187,748
756,3	190,605
756,7	187,033
757,2	185,205
757,6	185,29
758	183,633
758,5	185,605
758,9	181,462
759,3	180,376
759,8	176,176
760,2	176,976
760,6	174,719
761,1	173,919
761,5	172,805
761,9	168,833
762,4	165,948
762,8	168,69
763,3	168,376
763,7	168,033
764,1	168,633
764,6	170,176
765	171,062
765,4	172,09
765,9	168,662
766,3	170,262
766,7	168,433
767,2	164,69
767,6	163,205
768	162,948
768,5	162,119
768,9	162,662
769,3	156,976
769,8	152,348
770,2	157,319
770,6	152,29
771,1	153,748
771,5	154,576
771,9	155,176
772,4	157,633
772,8	158,833
773,2	152,519
773,7	153,862
774,1	151,833
774,5	145,29
775	144,033
775,4	140,89
775,8	140,033
776,3	141,29
776,7	137,148
777,1	138,548
777,6	140,462
778	141,89
778,4	139,605
778,9	141,005
779,3	139,776
779,7	140,89
780,2	135,519
780,6	135,948
781	129,633
781,5	131,662
781,9	127,805
782,3	125,748
782,8	123,69
783,2	124,319
783,6	125,919
784,1	128,519
784,5	124,748
784,9	124,605
785,4	128,376
785,8	130,605
786,2	129,262
786,7	125,576
787,1	122,548
787,5	124,033
788	124,319
788,4	119,462
788,8	115,519
789,3	113,548
789,7	113,748
790,1	113,776
790,6	115,433
791	111,49
791,4	114,719
791,9	109,919
792,3	105,176
792,7	103,319
793,2	99,433
793,6	95,462
794	98,319
794,5	91,833
794,9	97,919
795,3	102,719
795,8	102,148
796,2	105,29
796,6	107,776
797,1	109,205
797,5	107,319
797,9	105,176
798,4	103,662
798,8	103,605
799,2	101,262
799,7	98,376
800,1	92,89
800,5	96,348
801	97,348
801,4	95,49
801,8	90,119
802,2	88,633
802,7	85,176
803,1	86,348
803,5	85,976
804	80,519
804,4	83,69
804,8	86,633
805,3	88,09
805,7	88,405
806,1	88,748
806,6	90,548
807	90,719
807,4	88,005
807,9	82,433
808,3	81,205
808,7	79,433
809,2	78,862
809,6	76,633
810	80,319
810,4	81,862
810,9	86,205
811,3	86,49
811,7	87,576
812,2	90,719
812,6	90,433
813	94,976
813,5	93,233
813,9	89,948
814,3	87,833
814,8	84,805
815,2	82,233
815,6	80,319
816,1	71,605
816,5	69,062
816,9	73,433
817,3	74,005
817,8	82,862
818,2	78,033
818,6	72,719
819,1	73,233
819,5	72,205
819,9	66,919
820,4	66,433
820,8	59,376
821,2	63,29
821,7	71,69
822,1	73,005
822,5	77,576
822,9	76,29
823,4	74,519
823,8	78,176
824,2	79,433
824,7	75,462
825,1	69,89
825,5	64,176
826	59,776
826,4	62,462
826,8	56,148
827,3	56,976
827,7	52,89
828,1	55,148
828,5	55,119
829	55,348
829,4	52,89
829,8	47,776
830,3	41,862
830,7	42,662
831,1	40,719
831,6	40,119
832	43,405
832,4	41,49
832,8	47,062
833,3	47,09
833,7	44,862
834,1	44,033
834,6	44,433
835	42,662
835,4	45,862
835,8	42,919
836,3	43,633
836,7	42,605
837,1	43,89
837,6	44,576
838	46,033
838,4	41,576
838,9	42,176
839,3	41,748
839,7	43,862
840,1	40,233
840,6	40,033
841	41,348
841,4	45,205
841,9	47,776
842,3	46,662
842,7	45,662
843,1	47,319
843,6	46,919
844	50,919
844,4	52,548
844,9	52,005
845,3	50,462
845,7	52,005
846,2	50,919
846,6	48,462
847	43,376
847,4	43,405
847,9	43,319
848,3	44,319
848,7	44,319
849,2	43,919
849,6	40,348
850	44,805
850,4	38,462
850,9	41,319
851,3	40,919
851,7	38,976
852,2	39,519
852,6	45,576
853	46,09
853,4	45,69
853,9	40,49
854,3	39,719
854,7	39,662
855,2	36,776
855,6	35,405
856	27,748
856,4	26,633
856,9	25,433
857,3	26,89
857,7	28,29
858,2	33,719
858,6	28,576
859	32,548
859,4	34,148
859,9	32,748
860,3	29,233
860,7	28,576
861,1	28,033
861,6	28,148
862	27,033
862,4	27,033
862,9	30,49
863,3	29,662
863,7	25,833
864,1	26,376
864,6	27,348
865	23,605
865,4	24,776
865,9	23,919
866,3	26,09
866,7	25,776
867,1	19,462
867,6	20,719
868	22,919
868,4	18,633
868,8	17,976
869,3	15,662
869,7	23,719
870,1	23,633
870,6	23,433
871	-49,938
871,4	-43,081
871,8	-46,738
872,3	-42,138
872,7	-47,938
873,1	-44,567
873,5	-41,51
874	29,262
874,4	22,833
874,8	25,319
875,3	25,576
875,7	22,633
876,1	24,348
876,5	24,69
877	21,233
877,4	21,062
877,8	21,233
878,2	24,348
878,7	27,605
879,1	22,89
879,5	22,748
879,9	32,205
880,4	36,49
880,8	34,89
881,2	27,719
881,7	26,519
882,1	30,519
882,5	26,462
882,9	21,519
883,4	16,49
883,8	19,805
884,2	19,49
884,6	18,005
885,1	16,433
885,5	17,662
885,9	19,548
886,3	19,233
886,8	14,319
887,2	13,719
887,6	16,062
888	17,833
888,5	19,176
888,9	13,319
889,3	10,862
889,8	13,119
890,2	14,633
890,6	12,805
891	9,605
891,5	6,519
891,9	9,29
892,3	10,233
892,7	12,119
893,2	10,576
893,6	11,862
894	14,633
894,4	12,948
894,9	13,433
895,3	19,376
895,7	17,69
896,1	16,405
896,6	17,719
897	14,69
897,4	19,119
897,8	21,376
898,3	22,233
898,7	19,605
899,1	19,748
899,5	18,633
900	14,176
900,4	12,976
900,8	8,719
901,2	3,69
901,7	7,005
902,1	8,548
902,5	8,176
902,9	13,176
903,4	12,376
903,8	14,662
904,2	14,205
904,6	12,376
905,1	12,233
905,5	12,405
905,9	13,633
906,3	15,833
906,8	15,69
907,2	16,548
907,6	19,319
908	20,205
908,5	17,976
908,9	12,633
909,3	8,005
909,7	9,462
910,2	8,519
910,6	11,548
911	7,033
911,4	11,605
911,9	13,005
912,3	16,233
912,7	13,548
913,1	17,033
913,6	10,033
914	15,262
914,4	9,462
914,8	12,605
915,3	7,748
915,7	6,862
916,1	3,09
916,5	9,805
916,9	8,49
917,4	11,862
917,8	10,776
918,2	9,748
918,6	9,976
919,1	11,805
919,5	9,148
919,9	8,605
920,3	5,633
920,8	5,205
921,2	6,719
921,6	2,148
922	2,262
922,5	-4,795
922,9	-5,367
923,3	-3,824
923,7	-4,481
924,2	-3,624
924,6	0,633
925	2,462
925,4	4,462
925,8	4,662
926,3	3,433
926,7	2,976
927,1	2,805
927,5	4,605
928	-0,281
928,4	-1,995
928,8	-2,252
929,2	-2,51
929,7	-0,624
930,1	0,89
930,5	-0,052
930,9	3,148
931,3	9,862
931,8	7,919
932,2	7,376
932,6	5,69
933	3,205
933,5	1,605
933,9	1,433
934,3	-0,567
934,7	-1,138
935,2	2,233
935,6	1,205
936	2,748
936,4	5,205
936,8	5,89
937,3	7,09
937,7	11,49
938,1	12,89
938,5	9,119
939	11,49
939,4	11,833
939,8	7,376
940,2	5,319
940,6	2,062
941,1	-0,167
941,5	6,376
941,9	3,262
942,3	2,148
942,8	6,605
943,2	7,633
943,6	7,29
944	8,433
944,4	6,89
944,9	5,262
945,3	5,09
945,7	-1,452
946,1	-4,052
946,6	-2,938
947	-7,538
947,4	-3,052
947,8	-2,224
948,2	-2,852
948,7	0,805
949,1	0,176
949,5	3,633
949,9	6,005
950,3	2,433
950,8	3,29
951,2	0,748
951,6	-3,081
952	1,405
952,5	-5,624
952,9	-9,252
953,3	-8,624
953,7	-8,224
954,1	-1,424
954,6	3,976
955	3,376
955,4	6,919
955,8	9,833
956,2	12,719
956,7	14,233
957,1	10,633
957,5	12,519
957,9	9,719
958,3	6,548
958,8	12,376
959,2	12,29
959,6	16,348
960	10,662
960,5	13,233
960,9	18,576
961,3	17,662
961,7	10,948
962,1	3,462
962,6	-0,31
963	2,519
963,4	-2,338
963,8	-8,31
964,2	-1,681
964,7	-0,824
965,1	6,205
965,5	6,119
965,9	7,462
966,3	7,862
966,8	7,348
967,2	5,576
967,6	3,862
968	-0,852
968,4	-2,852
968,9	-2,967
969,3	-1,538
969,7	-1,938
970,1	-0,424
970,5	2,319
971	8,033
971,4	8,148
971,8	5,348
972,2	5,062
972,6	7,433
973,1	4,776
973,5	3,862
973,9	5,233
974,3	11,005
974,7	13,405
975,2	9,805
975,6	9,462
976	12,662
976,4	6,262
976,8	-0,938
977,3	-9,567
977,7	-10,167
978,1	-10,824
978,5	-11,681
978,9	-14,452
979,4	-8,852
979,8	-7,967
980,2	-5,595
980,6	-7,967
981	-4,567
981,5	-6,795
981,9	-6,281
982,3	-5,624
982,7	-4,567
983,1	-6,738
983,6	-4,795
984	-5,767
984,4	-3,31
984,8	-5,567
985,2	-4,452
985,6	-9,51
986,1	-5,224
986,5	-0,424
986,9	-3,595
987,3	-0,852
987,7	0,262
988,2	-3,452
988,6	0,005
989	-4,052
989,4	-6,567
989,8	-2,052
990,3	-5,31
990,7	-4,167
991,1	-1,881
991,5	-0,824
991,9	3,433
992,3	7,005
992,8	6,462
993,2	6,805
993,6	7,176
994	9,148
994,4	8,405
994,9	6,376
995,3	5,005
995,7	6,405
996,1	7,176
996,5	3,09
996,9	0,805
997,4	1,776
997,8	0,89
998,2	-2,167
998,6	-11,195
999	-9,767
999,5	-7,824
999,9	-5,252
1000,3	-6,024
1000,7	-5,71
1001,1	-5,595
1001,5	3,062
1002	4,662
1002,4	6,605
1002,8	4,748
1003,2	7,948
1003,6	8,948
1004	8,862
1004,5	7,148
1004,9	5,062
1005,3	0,89
1005,7	0,176
1006,1	-6,51
1006,6	-3,424
1007	-0,738
1007,4	-1,081
1007,8	-1,138
1008,2	-1,995
1008,6	3,662
1009,1	6,976
1009,5	5,948
1009,9	3,948
1010,3	2,176
1010,7	0,89
1011,1	3,748
1011,6	0,833
1012	6,862
1012,4	3,405
1012,8	-0,71
1013,2	3,09
1013,6	3,29
1014,1	4,862
1014,5	3,633
1014,9	-2,795
1015,3	-5,624
1015,7	-4,052
1016,1	-4,538
1016,6	-3,281
1017	-2,367
1017,4	-3,681
1017,8	-1,167
1018,2	7,719
1018,6	9,005
1019,1	6,89
1019,5	2,919
1019,9	-3,167
1020,3	-4,081
1020,7	-4,595
1021,1	-13,767
1021,6	-11,538
1022	-6,281
1022,4	-1,595
1022,8	3,205
1023,2	9,376
1023,6	5,719
1024,1	11,862
1024,5	10,748
1024,9	3,376
1025,3	2,748
1025,7	-1,767
1026,1	-4,881
1026,6	-4,367
1027	-5,452
1027,4	-1,481
1027,8	1,405
1028,2	-4,852
1028,6	1,576
1029	0,148
1029,5	5,205
1029,9	-1,052
1030,3	-10,024
1030,7	-7,995
1031,1	-1,767
1031,5	-6,538
1032	-6,681
1032,4	-8,252
1032,8	1,833
1033,2	4,919
1033,6	5,748
1034	6,576
1034,4	5,89
1034,9	7,233
1035,3	0,719
1035,7	-1,567
1036,1	-4,024
1036,5	-8,424
1036,9	-12,31
1037,4	-5,538
1037,8	-8,167
1038,2	-2,595
1038,6	-2,167
1039	7,033
1039,4	9,062
1039,8	7,519
1040,3	4,005
1040,7	2,576
1041,1	5,576
1041,5	1,976
1041,9	-5,138
1042,3	-4,567
1042,7	0,833
1043,2	-1,224
1043,6	-0,338
1044	-7,138
1044,4	-4,795
1044,8	-2,71
1045,2	-5,452
1045,6	-8,995
1046,1	-4,338
1046,5	-1,967
1046,9	-1,738
1047,3	-2,881
1047,7	-0,824
1048,1	0,662
1048,5	3,176
1049	1,976
1049,4	6,69
1049,8	9,548
1050,2	8,376
1050,6	8,433
1051	5,576
1051,4	6,005
1051,9	2,205
1052,3	3,119
1052,7	2,148
1053,1	2,462
1053,5	4,033
1053,9	4,49
1054,3	2,09
1054,8	8,519
1055,2	2,719
1055,6	5,376
1056	2,176
1056,4	-1,91
1056,8	2,033
1057,2	0,719
1057,6	-2,71
1058,1	-6,11
1058,5	-9,338
1058,9	-6,481
1059,3	-2,195
1059,7	-5,595
1060,1	-2,624
1060,5	-0,481
1061	4,205
1061,4	5,205
1061,8	7,405
1062,2	2,576
1062,6	2,833
1063	5,005
1063,4	1,176
1063,8	-2,681
1064,3	-5,338
1064,7	-3,795
1065,1	-3,367
1065,5	-3,481
1065,9	-12,024
1066,3	-13,738
1066,7	-15,281
1067,1	-11,624
1067,6	-15,91
1068	-20,252
1068,4	-17,852
1068,8	-11,395
1069,2	-9,652
1069,6	-7,424
1070	-6,11
1070,4	-6,881
1070,9	-2,852
1071,3	-5,91
1071,7	-7,681
1072,1	-6,624
1072,5	-9,452
1072,9	-11,995
1073,3	-10,51
1073,7	-8,481
1074,2	-4,624
1074,6	-3,281
1075	-3,395
1075,4	-4,824
1075,8	-1,567
1076,2	-3,081
1076,6	-4,367
1077	-5,367
1077,5	-0,081
1077,9	-1,767
1078,3	1,09
1078,7	-1,51
1079,1	-0,967
1079,5	-2,652
1079,9	-5,738
1080,3	-12,167
1080,7	-13,081
1081,2	-7,452
1081,6	-5,081
1082	-3,167
1082,4	3,576
1082,8	6,433
1083,2	5,776
1083,6	9,49
1084	5,605
1084,5	3,176
1084,9	0,49
1085,3	-7,195
1085,7	-5,995
1086,1	-5,338
1086,5	-6,338
1086,9	-4,138
1087,3	-3,424
1087,7	-0,338
1088,2	2,433
1088,6	0,605
1089	0,49
1089,4	-0,167
1089,8	1,948
1090,2	1,519
1090,6	0,948
1091	1,405
1091,4	2,348
1091,9	4,405
1092,3	5,576
1092,7	0,519
1093,1	2,205
1093,5	3,205
1093,9	2,062
1094,3	5,29
1094,7	3,205
1095,1	3,319
1095,5	5,519
1096	-1,738
1096,4	-2,367
1096,8	-3,881
1097,2	-6,681
1097,6	0,49
1098	-0,338
1098,4	4,033
1098,8	6,29
1099,2	13,776
1099,6	14,29
1100,1	12,948
1100,5	4,119
1100,9	4,062
1101,3	0,805
1101,7	4,833
1102,1	-0,452
1102,5	0,233
1102,9	-0,281
1103,3	6,005
1103,7	6,176
1104,2	5,948
1104,6	4,09
1105	-2,224
1105,4	0,233
1105,8	0,433
1106,2	-3,224
1106,6	-3,138
1107	-4,081
1107,4	-3,333
1107,8	1,833
1108,3	-0,667
