Data from Subt2_043.txt Node
Date: Sat Aug 26 16:25:19 MSK 2023
User: vat
Spectrometer: MAYP114033
Trigger mode: 0
Integration Time (sec): 1,000000E0
Scans to average: 5
Electric dark correction enabled: true
Nonlinearity correction enabled: false
Boxcar width: 3
XAxis mode: Wavelengths
Number of Pixels in Spectrum: 2068
>>>>>Begin Spectral Data<<<<<
199,4	-1
199,9	2,1
200,4	-0,9
200,8	-0,957
201,3	0,843
201,8	1,557
202,2	3,5
202,7	6,043
203,2	1,3
203,6	3,186
204,1	3,329
204,6	3,843
205	6,243
205,5	4,5
206	4,729
206,4	7,243
206,9	5,986
207,4	8,129
207,8	4,557
208,3	4,957
208,8	5,043
209,2	4,729
209,7	4,957
210,2	10,9
210,6	7,671
211,1	6,843
211,5	3,386
212	-2,186
212,5	-6,386
212,9	-5,443
213,4	-6,786
213,9	-5,9
214,3	-3,471
214,8	-1,3
215,3	4,586
215,7	6,071
216,2	5,7
216,7	2,071
217,1	1,757
217,6	1,929
218,1	3,614
218,5	4,071
219	15,414
219,5	14,729
219,9	17,986
220,4	17,671
220,9	14,557
221,3	10,614
221,8	9,957
222,3	1,843
222,7	1,586
223,2	0,614
223,6	0,843
224,1	1,643
224,6	2,786
225	-1,129
225,5	1,729
226	-0,643
226,4	-1,9
226,9	-0,414
227,4	7,529
227,8	9,7
228,3	18,214
228,8	11,671
229,2	14,414
229,7	13,5
230,2	10,557
230,6	3,757
231,1	2,871
231,5	3,071
232	9,671
232,5	9,5
232,9	12,129
233,4	18,3
233,9	18,5
234,3	18,414
234,8	12,5
235,3	8,586
235,7	12,786
236,2	10,1
236,7	4,443
237,1	5,329
237,6	2,643
238,1	6,843
238,5	5,471
239	3,871
239,4	6,5
239,9	6,986
240,4	9,614
240,8	10,729
241,3	5,071
241,8	5,071
242,2	0,871
242,7	0,071
243,2	1,186
243,6	-4,243
244,1	-4,243
244,6	-3,843
245	-5,814
245,5	-3,757
245,9	-4,7
246,4	-4,186
246,9	-2,5
247,3	-1,157
247,8	1,271
248,3	5,757
248,7	12,043
249,2	6,729
249,7	9,186
250,1	8,957
250,6	10,529
251	11,3
251,5	3,214
252	-5,471
252,4	2,814
252,9	-0,186
253,4	5,614
253,8	1,243
254,3	1,643
254,8	7,329
255,2	10,129
255,7	9,157
256,1	8,9
256,6	3,243
257,1	5,186
257,5	6,129
258	5,557
258,5	5,271
258,9	4,1
259,4	9,786
259,9	15,414
260,3	12,671
260,8	11,929
261,2	20,186
261,7	23,929
262,2	22,186
262,6	18,043
263,1	14,271
263,6	16,957
264	15,443
264,5	7,157
264,9	5,271
265,4	7,243
265,9	9,357
266,3	9,786
266,8	7,186
267,3	9,471
267,7	11,3
268,2	8,957
268,7	7,529
269,1	5,357
269,6	7,529
270	13,814
270,5	13,986
271	13,471
271,4	12,3
271,9	15,3
272,4	14,9
272,8	7,957
273,3	1,957
273,7	-2,329
274,2	-3,986
274,7	-3,5
275,1	-7,157
275,6	-6,186
276,1	-3,329
276,5	0,5
277	4,757
277,4	7,929
277,9	6,814
278,4	10,186
278,8	12,643
279,3	11,243
279,8	12,843
280,2	7,414
280,7	4,986
281,1	6,443
281,6	4,157
282,1	4,243
282,5	9,814
283	7,186
283,4	9,871
283,9	5,557
284,4	6,357
284,8	7,557
285,3	0,471
285,8	-4,043
286,2	-4,786
286,7	-4,443
287,1	-2,243
287,6	0,5
288,1	0,243
288,5	5,786
289	8,5
289,5	7,7
289,9	10,214
290,4	13,1
290,8	14,557
291,3	13,3
291,8	12,243
292,2	12,443
292,7	13,357
293,1	6,529
293,6	4,186
294,1	-0,814
294,5	1,643
295	2,614
295,5	5,157
295,9	5,929
296,4	12,414
296,8	14,414
297,3	19,1
297,8	17,814
298,2	12,957
298,7	8,986
299,1	10,014
299,6	9,814
300,1	7,214
300,5	7,157
301	8,243
301,5	9,3
301,9	6,9
302,4	3,814
302,8	0,957
303,3	4,129
303,8	-1,814
304,2	-3,471
304,7	-0,814
305,1	3,729
305,6	2,186
306,1	4,3
306,5	1,957
307	3,871
307,4	1,243
307,9	0,814
308,4	2,414
308,8	12,043
309,3	8,957
309,8	12,043
310,2	7,443
310,7	12,271
311,1	8,471
311,6	5,586
312,1	0,586
312,5	3,471
313	2,043
313,4	6,757
313,9	8,271
314,4	9,957
314,8	12,729
315,3	10,471
315,7	8,871
316,2	5,5
316,7	8,243
317,1	5,814
317,6	6,1
318	5,9
318,5	9,386
319	9,043
319,4	12,957
319,9	13,1
320,3	13,957
320,8	11,329
321,3	6,7
321,7	3,214
322,2	4,614
322,6	3,014
323,1	1,614
323,6	-0,671
324	4,071
324,5	4,271
324,9	8,3
325,4	7,7
325,9	15,414
326,3	12,643
326,8	14,1
327,2	13,129
327,7	11,129
328,2	9,329
328,6	12,014
329,1	7,386
329,5	11,671
330	12,1
330,5	12,586
330,9	14,871
331,4	9,986
331,8	8,843
332,3	7,786
332,8	3,043
333,2	3,5
333,7	7,1
334,1	11,1
334,6	13,386
335,1	10,7
335,5	10,471
336	8,271
336,4	5,271
336,9	5,957
337,4	6,471
337,8	8,529
338,3	11,986
338,7	12,557
339,2	17,729
339,7	21,643
340,1	14,3
340,6	8,214
341	9,214
341,5	7,529
342	6,014
342,4	4,243
342,9	-1,129
343,3	4,1
343,8	9,243
344,2	14,214
344,7	15,357
345,2	12,443
345,6	16,471
346,1	22,957
346,5	22,757
347	21,529
347,5	10,814
347,9	12,414
348,4	17,871
348,8	15,043
349,3	10,643
349,8	10,329
350,2	8,986
350,7	15,357
351,1	13,9
351,6	12,986
352	24,129
352,5	31,643
353	37,3
353,4	45,986
353,9	56,614
354,3	66,843
354,8	77,529
355,3	85,357
355,7	104,786
356,2	126,243
356,6	153,557
357,1	178,071
357,5	213,814
358	258,471
358,5	303,7
358,9	347,357
359,4	406,5
359,8	464,414
360,3	536,414
360,8	611,7
361,2	699,614
361,7	792,214
362,1	901,9
362,6	1011,929
363	1137,9
363,5	1270,129
364	1405,071
364,4	1542,7
364,9	1680,557
365,3	1812,471
365,8	1940,043
366,3	2059,014
366,7	2166,9
367,2	2262,443
367,6	2337,186
368,1	2399,586
368,5	2438,5
369	2459,7
369,5	2462,071
369,9	2445,843
370,4	2401,929
370,8	2345,814
371,3	2276,557
371,7	2197,7
372,2	2108,929
372,7	1997,071
373,1	1888,757
373,6	1779,671
374	1667,957
374,5	1551,214
374,9	1440,586
375,4	1332,871
375,9	1237,5
376,3	1134,871
376,8	1051,071
377,2	971,1
377,7	894,271
378,2	821,871
378,6	750,129
379,1	689,871
379,5	637,757
380	588,443
380,4	536,643
380,9	501,214
381,4	463,7
381,8	433,786
382,3	400,5
382,7	368,357
383,2	334,357
383,6	312,9
384,1	287,214
384,6	263,986
385	243,129
385,5	227,071
385,9	216,929
386,4	204,071
386,8	190,786
387,3	177,471
387,7	167,586
388,2	155,757
388,7	147,1
389,1	131,043
389,6	123,643
390	114,5
390,5	108,071
390,9	103,671
391,4	104,186
391,9	96,243
392,3	90,386
392,8	86,414
393,2	78,1
393,7	76,929
394,1	72,157
394,6	62,871
395,1	61,357
395,5	63,071
396	63,186
396,4	66,1
396,9	62,386
397,3	55,271
397,8	48,586
398,2	40,986
398,7	35,986
399,2	29,986
399,6	29,014
400,1	20,014
400,5	24,957
401	28,986
401,4	32,043
401,9	33,243
402,4	35,471
402,8	34,157
403,3	36,386
403,7	34,471
404,2	37,814
404,6	39,186
405,1	41,757
405,5	41,186
406	41,329
406,5	41,529
406,9	38,9
407,4	36,757
407,8	39,157
408,3	35,843
408,7	44,529
409,2	45,814
409,6	51,843
410,1	60,357
410,6	62,529
411	65,986
411,5	72,471
411,9	70,671
412,4	77,871
412,8	81,043
413,3	84,443
413,7	92,671
414,2	102,929
414,7	112,071
415,1	115,5
415,6	125,071
416	135,929
416,5	144,243
416,9	147,814
417,4	154,186
417,8	161,9
418,3	173,7
418,8	175,443
419,2	181,529
419,7	189,3
420,1	198,986
420,6	205,671
421	212,329
421,5	220,7
421,9	233,014
422,4	244,671
422,8	254,786
423,3	269,043
423,8	284,414
424,2	295,271
424,7	308,957
425,1	321,386
425,6	338,186
426	353,757
426,5	369,557
426,9	384,471
427,4	400,386
427,9	410,443
428,3	430,214
428,8	451,129
429,2	467,729
429,7	485,986
430,1	502,671
430,6	530,386
431	558,129
431,5	580,814
431,9	602,186
432,4	636,843
432,8	669,1
433,3	702,9
433,8	733,7
434,2	765,586
434,7	799,557
435,1	836,271
435,6	878,186
436	922,557
436,5	966,329
436,9	1014,586
437,4	1066,186
437,8	1113,214
438,3	1166,614
438,8	1212,529
439,2	1259,814
439,7	1318,386
440,1	1371,843
440,6	1435,814
441	1500,729
441,5	1562,757
441,9	1631,786
442,4	1707,186
442,8	1776,843
443,3	1852,157
443,7	1924,729
444,2	2006,9
444,7	2089,786
445,1	2176,729
445,6	2258,214
446	2347,271
446,5	2437,557
446,9	2533,157
447,4	2626,957
447,8	2722,843
448,3	2815,329
448,7	2917,9
449,2	3020,414
449,6	3118,986
450,1	3232,471
450,6	3343,186
451	3445,5
451,5	3562,671
451,9	3680,243
452,4	3800,957
452,8	3930,843
453,3	4044,271
453,7	4170,614
454,2	4305,871
454,6	4438,243
455,1	4562,214
455,5	4694,443
456	4831,186
456,4	4971,586
456,9	5108,243
457,3	5251,071
457,8	5391,529
458,3	5543,7
458,7	5692,386
459,2	5831,929
459,6	5983,243
460,1	6128,729
460,5	6274,814
461	6419,957
461,4	6568,729
461,9	6709,671
462,3	6862,186
462,8	7004,471
463,2	7162,471
463,7	7317,871
464,1	7469,957
464,6	7617,5
465	7777,329
465,5	7929,814
466	8082,9
466,4	8227,014
466,9	8376,043
467,3	8516,757
467,8	8665,1
468,2	8803,7
468,7	8952,443
469,1	9091,043
469,6	9236,157
470	9382,671
470,5	9532,614
470,9	9677,271
471,4	9823,986
471,8	9960,071
472,3	10097,871
472,7	10232,271
473,2	10358,214
473,6	10490,529
474,1	10605,043
474,5	10731,014
475	10848,071
475,4	10965,614
475,9	11083,5
476,4	11195,7
476,8	11305,443
477,3	11423,3
477,7	11522,614
478,2	11616,7
478,6	11717,443
479,1	11807,9
479,5	11896,929
480	11977,786
480,4	12052,986
480,9	12126,814
481,3	12207,814
481,8	12279,729
482,2	12340,643
482,7	12398,5
483,1	12468,157
483,6	12525,043
484	12564,957
484,5	12603,986
484,9	12646,071
485,4	12688,329
485,8	12721,757
486,3	12744,957
486,7	12771,529
487,2	12805,643
487,6	12830,014
488,1	12839,5
488,5	12854,043
489	12870,871
489,4	12868,986
489,9	12880,271
490,4	12872,729
490,8	12861,671
491,3	12857,5
491,7	12845,271
492,2	12823,271
492,6	12809,129
493,1	12769,586
493,5	12743,643
494	12728,3
494,4	12689,671
494,9	12646,786
495,3	12613,586
495,8	12575,871
496,2	12535,1
496,7	12488,557
497,1	12435,729
497,6	12390,1
498	12340,157
498,5	12285,586
498,9	12227,014
499,4	12182,386
499,8	12129,129
500,3	12063,757
500,7	12003,443
501,2	11947,443
501,6	11885,414
502,1	11819,357
502,5	11749,557
503	11692,643
503,4	11622,929
503,9	11554,5
504,3	11482,443
504,8	11409,271
505,2	11328,014
505,7	11250,986
506,1	11165,386
506,6	11081,586
507	10990,614
507,5	10901,129
507,9	10808,157
508,4	10729,386
508,8	10638,157
509,3	10543,7
509,7	10461,586
510,2	10380,471
510,6	10288,557
511,1	10212,014
511,5	10121,1
512	10029,586
512,4	9939,043
512,9	9842,1
513,3	9749,243
513,8	9662,5
514,2	9559,757
514,7	9464,7
515,1	9374,157
515,6	9282,986
516	9194,7
516,5	9099,529
516,9	8996,757
517,4	8901,386
517,8	8811,786
518,3	8714,757
518,7	8623,871
519,2	8534,929
519,6	8446,157
520,1	8362,386
520,5	8272,157
521	8170,186
521,4	8071,814
521,9	7986,786
522,3	7894,671
522,8	7805,414
523,2	7710,271
523,7	7621,814
524,1	7541,214
524,6	7461,357
525	7378,929
525,5	7303,414
525,9	7217,957
526,4	7139,386
526,8	7059,071
527,3	6982,929
527,7	6902,586
528,2	6813,843
528,6	6731,386
529,1	6654,386
529,5	6579,214
530	6504,843
530,4	6428,5
530,9	6350,529
531,3	6279,643
531,8	6209,586
532,2	6132,471
532,6	6069,271
533,1	5995,729
533,5	5924,186
534	5861,186
534,4	5793,843
534,9	5728,014
535,3	5670,7
535,8	5601,471
536,2	5537,329
536,7	5467,9
537,1	5406,129
537,6	5342,7
538	5275,614
538,5	5213,471
538,9	5151,243
539,4	5098,014
539,8	5041,357
540,3	4985,557
540,7	4922,643
541,2	4867,729
541,6	4810,214
542,1	4759,386
542,5	4704,9
543	4652,814
543,4	4607,386
543,9	4565,586
544,3	4514,929
544,8	4468,843
545,2	4418,329
545,7	4368,443
546,1	4334,871
546,5	4281,614
547	4232,643
547,4	4187,243
547,9	4141,5
548,3	4095,671
548,8	4057,1
549,2	4009,129
549,7	3969,929
550,1	3925,243
550,6	3881,014
551	3845,329
551,5	3806,786
551,9	3765,071
552,4	3723,729
552,8	3684,243
553,3	3656,214
553,7	3621,157
554,2	3583,957
554,6	3547,843
555,1	3515,043
555,5	3479,757
555,9	3445,1
556,4	3407,557
556,8	3374,671
557,3	3337,471
557,7	3304,929
558,2	3267,443
558,6	3235,5
559,1	3204,271
559,5	3167,843
560	3141,471
560,4	3118,9
560,9	3095,9
561,3	3068,586
561,8	3040,1
562,2	3007,843
562,7	2988,186
563,1	2956,729
563,6	2924,443
564	2893,843
564,4	2869,243
564,9	2843,929
565,3	2826,986
565,8	2799,957
566,2	2780,443
566,7	2749,9
567,1	2725,157
567,6	2701,443
568	2680,186
568,5	2653,843
568,9	2628,529
569,4	2603,671
569,8	2590,271
570,3	2569,814
570,7	2551,071
571,1	2526,214
571,6	2509,871
572	2489,9
572,5	2465,786
572,9	2444,7
573,4	2423,786
573,8	2397,7
574,3	2378,043
574,7	2355,871
575,2	2333,471
575,6	2316,757
576,1	2293,671
576,5	2274,1
576,9	2263,871
577,4	2246,471
577,8	2223,157
578,3	2200,757
578,7	2186,071
579,2	2172,843
579,6	2161,3
580,1	2142,7
580,5	2125,071
581	2109,557
581,4	2097,729
581,9	2079,214
582,3	2060,614
582,7	2040,957
583,2	2023,643
583,6	2007,414
584,1	1991,529
584,5	1977,929
585	1961,614
585,4	1942,443
585,9	1928,443
586,3	1911,329
586,8	1891,414
587,2	1877,357
587,6	1866,329
588,1	1851,529
588,5	1840,7
589	1822,3
589,4	1808,5
589,9	1802,643
590,3	1791,843
590,8	1774,357
591,2	1761,843
591,7	1744,643
592,1	1731,071
592,5	1718,443
593	1706,386
593,4	1689,157
593,9	1678,729
594,3	1657,729
594,8	1649,3
595,2	1646,1
595,7	1639,814
596,1	1629,129
596,6	1624,329
597	1617,729
597,4	1615,157
597,9	1605,929
598,3	1588,957
598,8	1574,386
599,2	1562,3
599,7	1548,1
600,1	1534,957
600,6	1528,329
601	1520,929
601,4	1509,929
601,9	1497,071
602,3	1487,986
602,8	1478,757
603,2	1472,271
603,7	1462,5
604,1	1449,786
604,6	1439,814
605	1430,786
605,4	1421,414
605,9	1412,471
606,3	1402,3
606,8	1392,529
607,2	1385,071
607,7	1380,529
608,1	1373,9
608,6	1366,5
609	1360,814
609,4	1348,757
609,9	1340,443
610,3	1331,357
610,8	1324,3
611,2	1316,843
611,7	1307,529
612,1	1297,043
612,6	1290,443
613	1284,529
613,4	1272,357
613,9	1262,814
614,3	1254,871
614,8	1241,643
615,2	1231,3
615,7	1226,357
616,1	1217,271
616,6	1211,386
617	1202,871
617,4	1192,014
617,9	1190,014
618,3	1185,3
618,8	1171,214
619,2	1160,786
619,7	1151,757
620,1	1140,786
620,5	1135,157
621	1126,529
621,4	1118,357
621,9	1114,043
622,3	1107,386
622,8	1097,243
623,2	1089,271
623,6	1075,9
624,1	1070,243
624,5	1068,814
625	1056,043
625,4	1048,443
625,9	1047,157
626,3	1043,1
626,8	1043,786
627,2	1036,271
627,6	1026,586
628,1	1021,957
628,5	1013,471
629	1010,3
629,4	998,214
629,9	990,471
630,3	984,5
630,7	977,186
631,2	970,214
631,6	966,1
632,1	954,843
632,5	958,014
633	947,529
633,4	938,443
633,8	924,729
634,3	920,357
634,7	914,1
635,2	906,643
635,6	894,529
636,1	897,129
636,5	890,243
636,9	892,386
637,4	885,129
637,8	874,471
638,3	870,557
638,7	865,843
639,2	852,986
639,6	846,643
640	835,443
640,5	830,5
640,9	830,529
641,4	824,243
641,8	815,729
642,2	815,414
642,7	812,214
643,1	809,243
643,6	802,071
644	794,729
644,5	792,957
644,9	789,186
645,3	779,729
645,8	777,786
646,2	771,3
646,7	765,814
647,1	763,243
647,6	754,414
648	748,529
648,4	740,9
648,9	736,243
649,3	733,957
649,8	731,129
650,2	724,586
650,6	722,357
651,1	724,586
651,5	727,757
652	720,1
652,4	712,843
652,9	707,5
653,3	699,471
653,7	694,529
654,2	688,843
654,6	677,357
655,1	671,386
655,5	668,414
655,9	668,271
656,4	667,9
656,8	661,671
657,3	651,271
657,7	646,443
658,2	645,157
658,6	637,929
659	627,243
659,5	617,014
659,9	611,986
660,4	609,414
660,8	610,1
661,2	603,529
661,7	603,1
662,1	603,671
662,6	600,471
663	597,643
663,4	592,443
663,9	585,986
664,3	581,471
664,8	579,186
665,2	573,129
665,6	571,843
666,1	568,271
666,5	564,443
667	556,671
667,4	555,243
667,9	544,557
668,3	544,186
668,7	544,1
669,2	538,986
669,6	537,529
670,1	538,386
670,5	530,443
670,9	530,214
671,4	522,557
671,8	514,557
672,3	514,329
672,7	509,014
673,1	503,214
673,6	500,757
674	496,871
674,5	493,529
674,9	492,557
675,3	486,386
675,8	483,957
676,2	486,814
676,7	482,643
677,1	485,357
677,5	484,871
678	480,157
678,4	474,586
678,9	469,557
679,3	461,329
679,7	460,929
680,2	454,443
680,6	447,129
681,1	442,414
681,5	442,157
681,9	437,529
682,4	434,214
682,8	426,357
683,3	418,329
683,7	415,586
684,1	412,471
684,6	412,814
685	416,357
685,5	416,843
685,9	417,957
686,3	417,557
686,8	415,443
687,2	415,357
687,7	410,157
688,1	404,329
688,5	396,671
689	392,957
689,4	394,014
689,9	395,386
690,3	398,214
690,7	393,586
691,2	389,786
691,6	391,386
692	388,929
692,5	378,871
692,9	372,929
693,4	366,786
693,8	365,7
694,2	360,557
694,7	358,3
695,1	354,643
695,6	355,529
696	353,643
696,4	346,014
696,9	340,871
697,3	340,1
697,8	333,529
698,2	330,643
698,6	328,957
699,1	320,157
699,5	322,386
699,9	321,329
700,4	319,986
700,8	321,071
701,3	318,386
701,7	314,043
702,1	318,814
702,6	310,843
703	303,814
703,5	301,929
703,9	298,357
704,3	299,071
704,8	303,929
705,2	301,157
705,6	298,157
706,1	309,557
706,5	307,786
707	306,386
707,4	304,014
707,8	297,329
708,3	292,043
708,7	299,529
709,2	288,529
709,6	285,671
710	282,443
710,5	278,786
710,9	278,7
711,3	277,357
711,8	271,386
712,2	271,3
712,7	271,414
713,1	269,043
713,5	266,329
714	263,9
714,4	260,871
714,8	260,329
715,3	260,443
715,7	254,1
716,2	251,843
716,6	254,7
717	249,471
717,5	252,471
717,9	250,3
718,3	247,129
718,8	249,643
719,2	247,043
719,7	246,271
720,1	239,929
720,5	239,671
721	236,214
721,4	237,986
721,8	236,129
722,3	230,986
722,7	221,871
723,2	227,1
723,6	222,329
724	221,014
724,5	208,986
724,9	207,3
725,3	208,843
725,8	209,9
726,2	205,129
726,7	200,214
727,1	197,3
727,5	199,329
728	199,729
728,4	195,871
728,8	196,757
729,3	193,471
729,7	193,7
730,1	192,586
730,6	192,3
731	191,471
731,5	194,3
731,9	196,043
732,3	202,643
732,8	199,414
733,2	197,357
733,6	196,7
734,1	189,586
734,5	184,443
734,9	177,5
735,4	174,843
735,8	180,643
736,3	181,386
736,7	181,357
737,1	185,186
737,6	183,214
738	185,586
738,4	182,671
738,9	181,986
739,3	177,814
739,7	179,243
740,2	176,643
740,6	180,443
741,1	178,071
741,5	178,729
741,9	171,843
742,4	171,157
742,8	169,043
743,2	167,5
743,7	168,443
744,1	161,557
744,5	160,043
745	159,871
745,4	160,443
745,8	158,614
746,3	160,014
746,7	155,043
747,2	162,157
747,6	159,786
748	160,043
748,5	157,9
748,9	151,957
749,3	152,357
749,8	148,786
750,2	145,1
750,6	144,014
751,1	146,9
751,5	142,586
751,9	145,414
752,4	140,157
752,8	143,957
753,3	142,786
753,7	143,414
754,1	140,1
754,6	141,3
755	141,786
755,4	146,414
755,9	141,929
756,3	138,786
756,7	135,957
757,2	134,786
757,6	135,729
758	131,386
758,5	126,357
758,9	126,814
759,3	128,071
759,8	132,329
760,2	131,3
760,6	132,7
761,1	133,671
761,5	134,071
761,9	136,443
762,4	137,157
762,8	136,586
763,3	134,757
763,7	131,529
764,1	127,786
764,6	123,7
765	121,129
765,4	119,386
765,9	109,586
766,3	107,357
766,7	110,043
767,2	113,014
767,6	110,757
768	111,157
768,5	107,129
768,9	107,814
769,3	109,414
769,8	106,014
770,2	106,386
770,6	104,7
771,1	104,471
771,5	107,786
771,9	106,471
772,4	109,557
772,8	105,043
773,2	101,529
773,7	103,357
774,1	101,957
774,5	103,757
775	104,1
775,4	102,243
775,8	106,757
776,3	104,329
776,7	107,9
777,1	108,129
777,6	107,414
778	107,043
778,4	103,986
778,9	102,643
779,3	105,7
779,7	101,271
780,2	96,729
780,6	93,643
781	91,786
781,5	87,386
781,9	83,786
782,3	80,614
782,8	79,414
783,2	84,3
783,6	81,7
784,1	85,5
784,5	85,271
784,9	87,557
785,4	90,7
785,8	88,043
786,2	85,186
786,7	82,357
787,1	76,871
787,5	77,614
788	74,557
788,4	70,014
788,8	70,929
789,3	70,614
789,7	69,643
790,1	72,3
790,6	75,7
791	77,614
791,4	75,757
791,9	78,557
792,3	79,071
792,7	83,757
793,2	81,386
793,6	81,7
794	78,643
794,5	80,443
794,9	82,614
795,3	79,7
795,8	76,3
796,2	79,614
796,6	71,129
797,1	70,386
797,5	70,443
797,9	65,814
798,4	61,414
798,8	59,443
799,2	56,443
799,7	65,014
800,1	62,129
800,5	61,157
801	60,329
801,4	60,671
801,8	62,071
802,2	63,786
802,7	59,843
803,1	64,043
803,5	65,9
804	65,443
804,4	66,557
804,8	69,929
805,3	65,729
805,7	64,929
806,1	65,329
806,6	66,557
807	65,443
807,4	64,757
807,9	61,7
808,3	62,957
808,7	66,014
809,2	62,9
809,6	60,357
810	62,986
810,4	66,643
810,9	63,329
811,3	62,7
811,7	58,643
812,2	65,814
812,6	63,9
813	63,129
813,5	63,529
813,9	65,557
814,3	65,557
814,8	68,7
815,2	59,871
815,6	57,5
816,1	57,014
816,5	53,814
816,9	54,729
817,3	53,957
817,8	53,586
818,2	50,157
818,6	52,414
819,1	49,871
819,5	48,843
819,9	45,7
820,4	49,5
820,8	41,243
821,2	48,157
821,7	51,071
822,1	51,757
822,5	51,786
822,9	55,586
823,4	53,014
823,8	58,014
824,2	57,757
824,7	53,643
825,1	50,586
825,5	51,814
826	49,986
826,4	48,614
826,8	45,3
827,3	42,071
827,7	45,643
828,1	50,214
828,5	47,529
829	44,9
829,4	51,186
829,8	50,614
830,3	51,414
830,7	46,386
831,1	43,757
831,6	44,214
832	42,043
832,4	37,329
832,8	39,9
833,3	36,9
833,7	41,129
834,1	39,214
834,6	35,557
835	42,671
835,4	42,929
835,8	40,5
836,3	43,329
836,7	33,271
837,1	34,414
837,6	35,214
838	26,986
838,4	20,5
838,9	25,071
839,3	27,014
839,7	35,1
840,1	32,814
840,6	34,586
841	35,014
841,4	38,5
841,9	34,7
842,3	35,3
842,7	34,643
843,1	38,9
843,6	40,929
844	45,529
844,4	46,471
844,9	47,471
845,3	41,986
845,7	44,157
846,2	42,557
846,6	37,414
847	34,471
847,4	32,786
847,9	33,843
848,3	36,271
848,7	32,871
849,2	32,529
849,6	35,586
850	34,357
850,4	36,214
850,9	34,071
851,3	29,786
851,7	26,043
852,2	23,471
852,6	25,957
853	29,843
853,4	33,986
853,9	31,3
854,3	32,186
854,7	30,386
855,2	29,357
855,6	22,357
856	16,5
856,4	9,957
856,9	11,243
857,3	8,157
857,7	15,757
858,2	14,529
858,6	18,386
859	19,357
859,4	22,986
859,9	23,071
860,3	28,414
860,7	26,986
861,1	30,671
861,6	28,757
862	31,157
862,4	27,157
862,9	27,471
863,3	28,129
863,7	22,786
864,1	22,957
864,6	24,386
865	23,529
865,4	22,929
865,9	19,5
866,3	16,671
866,7	22,357
867,1	24,186
867,6	22,757
868	25,071
868,4	22,471
868,8	24,043
869,3	26,786
869,7	22,871
870,1	22,1
870,6	21,643
871	5,529
871,4	9,614
871,8	7,814
872,3	6,271
872,7	4,5
873,1	10,786
873,5	12,614
874	27,5
874,4	25,243
874,8	24,5
875,3	22,471
875,7	21,729
876,1	11,986
876,5	15,957
877	16,671
877,4	18,3
877,8	24,9
878,2	25,157
878,7	33,014
879,1	37,957
879,5	33,214
879,9	33,414
880,4	30,7
880,8	27,529
881,2	29,071
881,7	25,957
882,1	22,214
882,5	17,9
882,9	14,357
883,4	17,3
883,8	16,186
884,2	15,329
884,6	15,729
885,1	17,1
885,5	25,414
885,9	29,643
886,3	30,071
886,8	27,157
887,2	26,214
887,6	23,329
888	18,929
888,5	16,043
888,9	12,786
889,3	1,843
889,8	1,1
890,2	-0,129
890,6	-1,043
891	4,3
891,5	2,586
891,9	5,129
892,3	13,843
892,7	19,5
893,2	21,5
893,6	21,414
894	19,671
894,4	19,814
894,9	14,7
895,3	14,129
895,7	11,271
896,1	10,443
896,6	8,643
897	6,529
897,4	4,157
897,8	2,871
898,3	7,186
898,7	7,071
899,1	5,9
899,5	8,071
900	7,557
900,4	7,071
900,8	11,843
901,2	8,614
901,7	8,357
902,1	11,129
902,5	11,529
902,9	14,9
903,4	20,3
903,8	14,014
904,2	14,329
904,6	14,129
905,1	13,957
905,5	12,7
905,9	10,7
906,3	6,614
906,8	10,871
907,2	9,214
907,6	17,357
908	15,729
908,5	17,643
908,9	15,157
909,3	12,329
909,7	11,329
910,2	12,414
910,6	5,7
911	8,3
911,4	4,129
911,9	10,557
912,3	13,729
912,7	13,071
913,1	8,643
913,6	11,586
914	11,529
914,4	11,043
914,8	6,843
915,3	8,186
915,7	5,443
916,1	4,614
916,5	2,586
916,9	-1,5
917,4	4,7
917,8	2,9
918,2	-2,586
918,6	2,014
919,1	6,243
919,5	5,786
919,9	7,3
920,3	1,871
920,8	4,757
921,2	10,614
921,6	10,357
922	6,186
922,5	6,071
922,9	3,757
923,3	9,5
923,7	3,443
924,2	-1,329
924,6	-3,129
925	0,414
925,4	0,357
925,8	-0,557
926,3	0,386
926,7	6,471
927,1	12,243
927,5	14,671
928	12,414
928,4	9,786
928,8	16,129
929,2	15,1
929,7	10,9
930,1	6,329
930,5	-0,671
930,9	6,014
931,3	8,614
931,8	5,757
932,2	-0,786
932,6	2,614
933	1,929
933,5	7,7
933,9	2,071
934,3	0,557
934,7	3,071
935,2	10,814
935,6	9,157
936	11,414
936,4	10,329
936,8	12,357
937,3	15,671
937,7	11,3
938,1	0,843
938,5	1,471
939	0,9
939,4	3,414
939,8	1,586
940,2	-3,586
940,6	-5,7
941,1	3,386
941,5	5,643
941,9	5,9
942,3	1,814
942,8	6,471
943,2	4,957
943,6	8,7
944	4,386
944,4	-1,929
944,9	0,443
945,3	6,643
945,7	1,986
946,1	6,871
946,6	5,729
947	6,414
947,4	6,929
947,8	8,3
948,2	1,557
948,7	4,129
949,1	0,986
949,5	4,529
949,9	9,271
950,3	13,014
950,8	7,414
951,2	11,071
951,6	9,214
952	7,986
952,5	2,014
952,9	-4,1
953,3	-7,043
953,7	-3,643
954,1	-2,929
954,6	-2,443
955	0,9
955,4	3,271
955,8	7,957
956,2	8,443
956,7	4,643
957,1	6,157
957,5	2,871
957,9	2,271
958,3	2,986
958,8	0,757
959,2	0,386
959,6	4,614
960	3,5
960,5	4,5
960,9	5,814
961,3	5,014
961,7	3,757
962,1	-0,043
962,6	-3,3
963	-8,7
963,4	-8,529
963,8	-11,614
964,2	-13,786
964,7	-15,014
965,1	-8,3
965,5	-6,814
965,9	-1,957
966,3	1,957
966,8	7,643
967,2	15,329
967,6	17,3
968	14,557
968,4	13,7
968,9	16,443
969,3	14,243
969,7	11,843
970,1	8,729
970,5	7,071
971	5,957
971,4	8,871
971,8	6,929
972,2	7,357
972,6	3,243
973,1	3,9
973,5	7,986
973,9	10,443
974,3	6,071
974,7	2,157
975,2	3,043
975,6	2,357
976	2,557
976,4	1,414
976,8	2,014
977,3	2,557
977,7	1,757
978,1	-3,071
978,5	-0,5
978,9	-2,757
979,4	-1,129
979,8	-0,329
980,2	-2,557
980,6	0,443
981	6,957
981,5	6,729
981,9	4,729
982,3	-1,414
982,7	-3,186
983,1	0,9
983,6	1,443
984	-1,1
984,4	3,443
984,8	5,843
985,2	9,814
985,6	13,929
986,1	9,843
986,5	4,929
986,9	6,986
987,3	2,757
987,7	2,214
988,2	1,7
988,6	-4,671
989	-1,014
989,4	2,957
989,8	-2,214
990,3	0,814
990,7	2,014
991,1	-0,186
991,5	6,386
991,9	13,271
992,3	9,957
992,8	16,529
993,2	15,1
993,6	14,357
994	14,329
994,4	12,214
994,9	8,414
995,3	12,329
995,7	7,671
996,1	4,3
996,5	2,243
996,9	3,357
997,4	-2,186
997,8	-5,814
998,2	-6,129
998,6	-4,786
999	-3,243
999,5	-2,643
999,9	-2,871
1000,3	3,386
1000,7	3,643
1001,1	-0,129
1001,5	-6,386
1002	-7,3
1002,4	-5,557
1002,8	-3,243
1003,2	-3,586
1003,6	-1,643
1004	2,871
1004,5	4,643
1004,9	5,757
1005,3	0,557
1005,7	-0,786
1006,1	-3,929
1006,6	-6,243
1007	-7,129
1007,4	-2,357
1007,8	-5,557
1008,2	-3,243
1008,6	-5,386
1009,1	-6,186
1009,5	2,214
1009,9	5,757
1010,3	4,957
1010,7	9,586
1011,1	12,357
1011,6	14,357
1012	12,643
1012,4	6,557
1012,8	-0,186
1013,2	1,443
1013,6	2,929
1014,1	5,871
1014,5	6,757
1014,9	10,729
1015,3	9,414
1015,7	11,729
1016,1	10,614
1016,6	9,386
1017	7,614
1017,4	3,814
1017,8	1,014
1018,2	1,243
1018,6	2,3
1019,1	-0,957
1019,5	0,7
1019,9	2,814
1020,3	3,957
1020,7	5,757
1021,1	10,471
1021,6	6,271
1022	8,071
1022,4	7,7
1022,8	0,729
1023,2	3,7
1023,6	2,929
1024,1	3,871
1024,5	8,043
1024,9	14,071
1025,3	16,986
1025,7	18,814
1026,1	18,5
1026,6	22,929
1027	15,529
1027,4	12,786
1027,8	3,814
1028,2	-1,986
1028,6	1,386
1029	-0,986
1029,5	-6,386
1029,9	-6,729
1030,3	3,471
1030,7	4,814
1031,1	0,529
1031,5	-3,443
1032	0,386
1032,4	0,071
1032,8	3,386
1033,2	-5,443
1033,6	-2,129
1034	-0,9
1034,4	2,443
1034,9	-3,129
1035,3	0,471
1035,7	1,014
1036,1	4,386
1036,5	4,7
1036,9	8,243
1037,4	3,957
1037,8	5,586
1038,2	0,7
1038,6	-2,843
1039	-7,843
1039,4	-9,243
1039,8	-9,1
1040,3	-3,929
1040,7	-5,157
1041,1	-1,271
1041,5	-2,9
1041,9	-0,929
1042,3	-2,443
1042,7	-2,7
1043,2	-4,214
1043,6	0,329
1044	-0,414
1044,4	0,614
1044,8	-3,471
1045,2	2,529
1045,6	7,843
1046,1	9,129
1046,5	9,471
1046,9	10,9
1047,3	10,614
1047,7	11,414
1048,1	5,129
1048,5	2,3
1049	2,129
1049,4	1,614
1049,8	0,129
1050,2	-0,014
1050,6	4,557
1051	8,271
1051,4	4,071
1051,9	9,957
1052,3	6,1
1052,7	8,271
1053,1	10,3
1053,5	9,129
1053,9	5,814
1054,3	6,843
1054,8	6,9
1055,2	7,329
1055,6	1,043
1056	0,329
1056,4	3,986
1056,8	4,214
1057,2	5,814
1057,6	-2,1
1058,1	0,5
1058,5	3,786
1058,9	5,129
1059,3	7,243
1059,7	2,614
1060,1	5,843
1060,5	4,843
1061	4,157
1061,4	8,243
1061,8	5,1
1062,2	-3,271
1062,6	1,814
1063	-2,214
1063,4	-0,614
1063,8	-5,529
1064,3	-9,929
1064,7	-9,843
1065,1	-5,1
1065,5	-4,014
1065,9	-4,214
1066,3	-5,671
1066,7	-2,3
1067,1	-1,243
1067,6	1,043
1068	-0,786
1068,4	1,643
1068,8	3,386
1069,2	3,614
1069,6	6,557
1070	6,871
1070,4	7,443
1070,9	6,671
1071,3	3,729
1071,7	5,929
1072,1	11,043
1072,5	9,414
1072,9	15,071
1073,3	15,329
1073,7	15,7
1074,2	17,729
1074,6	14,271
1075	9,9
1075,4	12,557
1075,8	10,729
1076,2	11,843
1076,6	11,929
1077	5,671
1077,5	5,243
1077,9	7,557
1078,3	4,529
1078,7	3,357
1079,1	0,471
1079,5	-0,5
1079,9	10,214
1080,3	13,129
1080,7	14,871
1081,2	15,386
1081,6	18,871
1082	17,614
1082,4	16,529
1082,8	10,271
1083,2	4,471
1083,6	1,929
1084	-2,5
1084,5	-8,014
1084,9	-8,9
1085,3	-6,729
1085,7	-9,529
1086,1	-10,871
1086,5	-7,7
1086,9	-1,929
1087,3	-2,1
1087,7	3,671
1088,2	2,9
1088,6	0,786
1089	1,843
1089,4	-1,529
1089,8	0,414
1090,2	2,614
1090,6	-0,357
1091	4,7
1091,4	10,129
1091,9	16,014
1092,3	13,443
1092,7	7,3
1093,1	4,3
1093,5	3,529
1093,9	0,929
1094,3	2,814
1094,7	-0,957
1095,1	-0,471
1095,5	2,129
1096	1,7
1096,4	3,214
1096,8	1,243
1097,2	0,357
1097,6	2,1
1098	6,214
1098,4	7,329
1098,8	7,957
1099,2	8,443
1099,6	9,729
1100,1	9,329
1100,5	7,214
1100,9	4,071
1101,3	4,643
1101,7	9,071
1102,1	8,414
1102,5	7,243
1102,9	5,614
1103,3	6,786
1103,7	7,843
1104,2	3,7
1104,6	0,871
1105	2,643
1105,4	3,614
1105,8	4,043
1106,2	3,871
1106,6	1,729
1107	3,843
1107,4	2,667
1107,8	0,66
1108,3	-0,2
