Data from Subt2_002.txt Node
Date: Sat Aug 26 16:10:14 MSK 2023
User: vat
Spectrometer: MAYP114033
Trigger mode: 0
Integration Time (sec): 1,000000E0
Scans to average: 5
Electric dark correction enabled: true
Nonlinearity correction enabled: false
Boxcar width: 3
XAxis mode: Wavelengths
Number of Pixels in Spectrum: 2068
>>>>>Begin Spectral Data<<<<<
199,4	-0,217
199,9	1,093
200,4	-1,133
200,8	-1,295
201,3	1,533
201,8	0,848
202,2	-0,124
202,7	2,105
203,2	-0,41
203,6	4,362
204,1	7,362
204,6	1,562
205	4,476
205,5	7,99
206	3,248
206,4	4,533
206,9	4,076
207,4	2,619
207,8	7,505
208,3	6,39
208,8	6,648
209,2	9,562
209,7	11,819
210,2	9,705
210,6	4,305
211,1	2,762
211,5	-0,952
212	-2,752
212,5	-1,552
212,9	-1,01
213,4	-3,381
213,9	0,448
214,3	-3,867
214,8	2,505
215,3	4,39
215,7	3,59
216,2	1,99
216,7	6,333
217,1	8,448
217,6	13,333
218,1	10,362
218,5	5,819
219	1,762
219,5	0,876
219,9	0,676
220,4	1,762
220,9	-0,924
221,3	-1,838
221,8	-0,21
222,3	2,276
222,7	2,162
223,2	2,448
223,6	5,905
224,1	6,762
224,6	5,133
225	7,905
225,5	11,333
226	10,448
226,4	11,505
226,9	6,79
227,4	10,048
227,8	13,333
228,3	9,505
228,8	6,219
229,2	5,848
229,7	0,162
230,2	2,39
230,6	1,848
231,1	0,505
231,5	6,105
232	9,419
232,5	8,79
232,9	7,762
233,4	4,362
233,9	0,19
234,3	-2,324
234,8	-6,781
235,3	-4,067
235,7	-2,638
236,2	-0,381
236,7	-2,638
237,1	1,448
237,6	2,762
238,1	3,076
238,5	1,305
239	3,619
239,4	5,819
239,9	5,705
240,4	6,819
240,8	10,79
241,3	10,248
241,8	7,562
242,2	8,133
242,7	13,476
243,2	16,848
243,6	19,39
244,1	16,476
244,6	15,705
245	11,305
245,5	13,105
245,9	7,819
246,4	7,848
246,9	4,533
247,3	4,448
247,8	4,819
248,3	4,305
248,7	2,933
249,2	3,905
249,7	5,362
250,1	7,076
250,6	6,762
251	7,019
251,5	14,105
252	14,219
252,4	15,619
252,9	9,848
253,4	5,905
253,8	4,333
254,3	8,419
254,8	6,048
255,2	2,848
255,7	-7,124
256,1	-1,41
256,6	-0,552
257,1	-0,038
257,5	-4,781
258	-3,267
258,5	-2,724
258,9	2,905
259,4	-2,838
259,9	-6,695
260,3	-8,667
260,8	-4,181
261,2	-4,981
261,7	-8,01
262,2	-8,152
262,6	-5,581
263,1	-1,124
263,6	3,762
264	-0,067
264,5	5,076
264,9	3,048
265,4	2,848
265,9	4,448
266,3	3,962
266,8	2,248
267,3	3,219
267,7	-0,381
268,2	5,962
268,7	10,105
269,1	11,162
269,6	8,19
270	6,819
270,5	7,79
271	6,362
271,4	4,219
271,9	0,076
272,4	-6,752
272,8	-0,781
273,3	1,248
273,7	1,276
274,2	-3,867
274,7	0,533
275,1	2,476
275,6	4,905
276,1	5,476
276,5	3,676
277	-0,495
277,4	3,362
277,9	-4,295
278,4	-0,181
278,8	3,905
279,3	0,562
279,8	3,276
280,2	9,962
280,7	11,819
281,1	17,819
281,6	8,248
282,1	7,905
282,5	5,133
283	5,362
283,4	1,419
283,9	-2,181
284,4	-3,381
284,8	0,305
285,3	-4,095
285,8	-2,295
286,2	-4,438
286,7	-6,21
287,1	-3,781
287,6	-3,724
288,1	-2,781
288,5	-0,924
289	-2,295
289,5	1,705
289,9	2,476
290,4	1,705
290,8	5,476
291,3	8,476
291,8	8,733
292,2	14,448
292,7	15,276
293,1	18,048
293,6	18,19
294,1	14,819
294,5	12,39
295	11,79
295,5	5,162
295,9	-0,667
296,4	-5,581
296,8	-1,467
297,3	1,105
297,8	1,705
298,2	4,333
298,7	7,676
299,1	11,19
299,6	15,048
300,1	14,619
300,5	13,848
301	14,133
301,5	15,19
301,9	15,048
302,4	11,505
302,8	9,048
303,3	5,819
303,8	2,305
304,2	1,39
304,7	-0,552
305,1	-5,438
305,6	-5,495
306,1	-7,638
306,5	-9,524
307	-10,524
307,4	-12,41
307,9	-11,467
308,4	-8,324
308,8	-0,295
309,3	3,733
309,8	6,305
310,2	8,962
310,7	7,676
311,1	6,305
311,6	10,876
312,1	7,333
312,5	7,39
313	7,248
313,4	5,19
313,9	5,048
314,4	6,648
314,8	5,79
315,3	2,133
315,7	4,79
316,2	7,019
316,7	4,019
317,1	6,962
317,6	6,933
318	4,562
318,5	7,048
319	6,133
319,4	-1,41
319,9	2,048
320,3	7,248
320,8	7,248
321,3	5,019
321,7	5,762
322,2	1,248
322,6	5,533
323,1	2,476
323,6	-1,01
324	0,248
324,5	3,39
324,9	-0,495
325,4	6,848
325,9	6,276
326,3	9,448
326,8	6,39
327,2	3,162
327,7	1,305
328,2	0,476
328,6	-2,01
329,1	-3,352
329,5	-4,81
330	-2,524
330,5	0,105
330,9	1,419
331,4	2,076
331,8	1,419
332,3	3,562
332,8	5,562
333,2	3,105
333,7	2,476
334,1	1,076
334,6	5,448
335,1	5,105
335,5	2,019
336	1,19
336,4	6,533
336,9	3,819
337,4	5,676
337,8	5,59
338,3	4,676
338,7	10,105
339,2	8,705
339,7	2,762
340,1	6,362
340,6	4,533
341	-0,81
341,5	-0,924
342	-0,495
342,4	4,99
342,9	12,819
343,3	7,905
343,8	9,048
344,2	12,39
344,7	15,133
345,2	15,333
345,6	15,733
346,1	9,248
346,5	11,848
347	12,248
347,5	13,562
347,9	15,533
348,4	11,505
348,8	11,162
349,3	14,59
349,8	14,533
350,2	19,648
350,7	22,705
351,1	20,105
351,6	27,248
352	28,076
352,5	32,705
353	42,505
353,4	46,876
353,9	54,133
354,3	70,962
354,8	86,19
355,3	103,905
355,7	121,705
356,2	148,848
356,6	177,448
357,1	211,362
357,5	248,933
358	290,705
358,5	342,39
358,9	402,076
359,4	465,19
359,8	534,162
360,3	617,99
360,8	710,048
361,2	808,162
361,7	920,076
362,1	1040,419
362,6	1168,848
363	1316,39
363,5	1463,39
364	1616,39
364,4	1780,533
364,9	1944,848
365,3	2107,99
365,8	2261,19
366,3	2402,362
366,7	2537,248
367,2	2646,819
367,6	2742,79
368,1	2808,59
368,5	2856,105
369	2884,59
369,5	2880,076
369,9	2849,162
370,4	2807,105
370,8	2736,99
371,3	2654,676
371,7	2551,819
372,2	2438,362
372,7	2327,019
373,1	2207,648
373,6	2077,248
374	1952,448
374,5	1822,048
374,9	1694,733
375,4	1572,305
375,9	1450,676
376,3	1334,305
376,8	1228,762
377,2	1121,962
377,7	1033,59
378,2	953,019
378,6	877,019
379,1	804,962
379,5	740,048
380	680,076
380,4	622,448
380,9	571,305
381,4	521,848
381,8	477,105
382,3	441,162
382,7	411,819
383,2	384,505
383,6	360,562
384,1	331,533
384,6	310,276
385	291,648
385,5	270,305
385,9	246,39
386,4	226,933
386,8	211,762
387,3	201,562
387,7	187,648
388,2	169,019
388,7	155,39
389,1	146,848
389,6	138,333
390	129,362
390,5	119,048
390,9	109,905
391,4	108,876
391,9	107,133
392,3	97,819
392,8	90,019
393,2	82,762
393,7	73,533
394,1	71,362
394,6	65,048
395,1	54,59
395,5	55,562
396	51,905
396,4	51,705
396,9	54,362
397,3	50,419
397,8	48,876
398,2	51,762
398,7	46,019
399,2	44,705
399,6	40,762
400,1	38,533
400,5	38,19
401	35,076
401,4	35,705
401,9	43,419
402,4	45,048
402,8	47,076
403,3	48,59
403,7	50,79
404,2	57,648
404,6	57,59
405,1	51,448
405,5	50,79
406	49,333
406,5	53,362
406,9	61,333
407,4	59,448
407,8	61,705
408,3	65,676
408,7	74,19
409,2	83,39
409,6	90,019
410,1	90,648
410,6	97,133
411	105,276
411,5	112,962
411,9	117,79
412,4	122,19
412,8	123,19
413,3	127,276
413,7	133,076
414,2	139,276
414,7	150,59
415,1	155,476
415,6	167,819
416	175,533
416,5	188,19
416,9	197,133
417,4	204,476
417,8	210,79
418,3	224,648
418,8	234,162
419,2	251,076
419,7	259,448
420,1	269,876
420,6	290,59
421	304,533
421,5	317,076
421,9	331,105
422,4	340,19
422,8	361,705
423,3	385,59
423,8	397,248
424,2	414,848
424,7	437,648
425,1	458,819
425,6	479,448
426	497,39
426,5	518,648
426,9	542,676
427,4	570,762
427,9	595,133
428,3	626,705
428,8	661,448
429,2	694,39
429,7	728,076
430,1	768,105
430,6	806,162
431	844,533
431,5	879,59
431,9	922,676
432,4	966,105
432,8	1008,619
433,3	1051,848
433,8	1104,419
434,2	1156,676
434,7	1212,762
435,1	1276,876
435,6	1334,933
436	1400,133
436,5	1470,876
436,9	1532,019
437,4	1604,076
437,8	1676,962
438,3	1751,305
438,8	1833,248
439,2	1915,133
439,7	1990,933
440,1	2078,876
440,6	2177,676
441	2272,762
441,5	2372,705
441,9	2471,733
442,4	2579,562
442,8	2694,448
443,3	2805,733
443,7	2910,19
444,2	3026,105
444,7	3143,019
445,1	3274,59
445,6	3404,333
446	3533,105
446,5	3670,419
446,9	3807,133
447,4	3950,448
447,8	4096,676
448,3	4237,219
448,7	4386,819
449,2	4550,705
449,6	4705,419
450,1	4869,162
450,6	5039,59
451	5204,79
451,5	5386,876
451,9	5571,533
452,4	5747,619
452,8	5941,848
453,3	6137,905
453,7	6327,333
454,2	6529,962
454,6	6728,276
455,1	6929,105
455,5	7135,59
456	7327,648
456,4	7530,79
456,9	7742,762
457,3	7959,362
457,8	8179,305
458,3	8391,848
458,7	8610,105
459,2	8847,305
459,6	9073,305
460,1	9308,076
460,5	9529,733
461	9757,048
461,4	9987,362
461,9	10228,133
462,3	10459,162
462,8	10694,619
463,2	10929,048
463,7	11172,105
464,1	11404,276
464,6	11645,133
465	11874,133
465,5	12110,933
466	12356,305
466,4	12582,419
466,9	12814,533
467,3	13060,648
467,8	13306,733
468,2	13542,448
468,7	13793,733
469,1	14014,79
469,6	14256,848
470	14485,476
470,5	14703,419
470,9	14918,448
471,4	15141,276
471,8	15345,19
472,3	15563,305
472,7	15766,476
473,2	15977,562
473,6	16176,848
474,1	16360,19
474,5	16555,79
475	16753,305
475,4	16946,733
475,9	17136,962
476,4	17319,648
476,8	17495,79
477,3	17678,905
477,7	17851,676
478,2	18002,59
478,6	18152,676
479,1	18306,819
479,5	18444,105
480	18580,648
480,4	18710,562
480,9	18835,362
481,3	18967,419
481,8	19088,419
482,2	19191,733
482,7	19301,476
483,1	19407,619
483,6	19500,59
484	19580,762
484,5	19658,333
484,9	19742,762
485,4	19814,219
485,8	19872,505
486,3	19932,848
486,7	19990,562
487,2	20034,59
487,6	20067,162
488,1	20088,848
488,5	20108,762
489	20123,905
489,4	20129,39
489,9	20125,962
490,4	20119,476
490,8	20104,79
491,3	20090,848
491,7	20061,448
492,2	20039,305
492,6	20003,933
493,1	19961,733
493,5	19916,819
494	19879,19
494,4	19825,962
494,9	19785,048
495,3	19716,762
495,8	19651,848
496,2	19596,962
496,7	19529,333
497,1	19463,905
497,6	19393,876
498	19306,362
498,5	19230,276
498,9	19145,19
499,4	19048,276
499,8	18972,419
500,3	18860,705
500,7	18753,219
501,2	18653,648
501,6	18550,733
502,1	18449,39
502,5	18352,848
503	18235,019
503,4	18136,533
503,9	18025,305
504,3	17921,133
504,8	17801,019
505,2	17678,705
505,7	17552,705
506,1	17417,305
506,6	17273,162
507	17143,99
507,5	17010,79
507,9	16880,733
508,4	16745,048
508,8	16603,19
509,3	16469,133
509,7	16339,019
510,2	16195,305
510,6	16048,848
511,1	15904,962
511,5	15759,19
512	15612,419
512,4	15465,048
512,9	15319,648
513,3	15185,762
513,8	15038,448
514,2	14890,219
514,7	14746,219
515,1	14605,019
515,6	14468,533
516	14323,648
516,5	14160,562
516,9	14014,762
517,4	13866,648
517,8	13724,99
518,3	13584,99
518,7	13446,162
519,2	13299,19
519,6	13155,248
520,1	13017,705
520,5	12882,562
521	12736,133
521,4	12588,048
521,9	12440,162
522,3	12306,648
522,8	12177,848
523,2	12038,562
523,7	11909,962
524,1	11779,276
524,6	11651,419
525	11522,505
525,5	11404,505
525,9	11277,59
526,4	11148,99
526,8	11017,048
527,3	10901,762
527,7	10779,219
528,2	10659,533
528,6	10527,276
529,1	10408,676
529,5	10294,99
530	10184,562
530,4	10067,305
530,9	9960,619
531,3	9849,848
531,8	9744,933
532,2	9642,19
532,6	9543,19
533,1	9428,962
533,5	9324,79
534	9218,99
534,4	9117,933
534,9	9017,105
535,3	8914,819
535,8	8808,305
536,2	8723,305
536,7	8630,248
537,1	8527,676
537,6	8435,533
538	8346,505
538,5	8264,905
538,9	8175,219
539,4	8079,905
539,8	7991,305
540,3	7914,962
540,7	7826,076
541,2	7740,448
541,6	7651,562
542,1	7573,562
542,5	7506,99
543	7434,59
543,4	7361,962
543,9	7288,848
544,3	7222,333
544,8	7150,905
545,2	7083,019
545,7	7005,39
546,1	6931,933
546,5	6860,162
547	6794,105
547,4	6721,533
547,9	6657,99
548,3	6585,39
548,8	6522,333
549,2	6463,019
549,7	6400,533
550,1	6343,248
550,6	6286,762
551	6217,79
551,5	6169,019
551,9	6104,276
552,4	6045,648
552,8	5994,162
553,3	5940,733
553,7	5885,99
554,2	5842,333
554,6	5792,99
555,1	5744,933
555,5	5696,048
555,9	5644,905
556,4	5591,619
556,8	5539,019
557,3	5491,533
557,7	5443,048
558,2	5402,962
558,6	5359,762
559,1	5315,762
559,5	5278,248
560	5234,019
560,4	5192,619
560,9	5153,762
561,3	5111,79
561,8	5071,59
562,2	5032,79
562,7	4993,362
563,1	4953,676
563,6	4919,248
564	4878,819
564,4	4847,305
564,9	4803,933
565,3	4772,619
565,8	4736,705
566,2	4703,933
566,7	4665,133
567,1	4627,105
567,6	4584,048
568	4558,048
568,5	4517,733
568,9	4480,505
569,4	4452,219
569,8	4424,048
570,3	4394,762
570,7	4368,362
571,1	4344,133
571,6	4315,476
572	4288,362
572,5	4257,419
572,9	4222,905
573,4	4186,362
573,8	4156,048
574,3	4111,733
574,7	4076,476
575,2	4048,762
575,6	4013,619
576,1	3985,705
576,5	3956,533
576,9	3918,59
577,4	3895,676
577,8	3878,276
578,3	3854,962
578,7	3832,39
579,2	3801,905
579,6	3783,79
580,1	3770,876
580,5	3746,933
581	3713,876
581,4	3685,162
581,9	3660,676
582,3	3638,105
582,7	3610,276
583,2	3575,476
583,6	3538,619
584,1	3520,476
584,5	3494,705
585	3472,048
585,4	3448,59
585,9	3424,533
586,3	3411,476
586,8	3397,305
587,2	3369,819
587,6	3340,676
588,1	3318,648
588,5	3297,848
589	3273,648
589,4	3242,076
589,9	3223,762
590,3	3205,819
590,8	3195,476
591,2	3183,019
591,7	3164,39
592,1	3155,648
592,5	3145,59
593	3120,819
593,4	3107,562
593,9	3086,505
594,3	3060,619
594,8	3038,448
595,2	3016,476
595,7	2999,505
596,1	2984,019
596,6	2963,533
597	2950,619
597,4	2933,876
597,9	2920,562
598,3	2903,962
598,8	2885,333
599,2	2878,362
599,7	2864,733
600,1	2840,819
600,6	2825,362
601	2818,305
601,4	2806,219
601,9	2793,676
602,3	2778,648
602,8	2761,819
603,2	2754,705
603,7	2742,362
604,1	2722,619
604,6	2710,133
605	2689,79
605,4	2672,19
605,9	2660,962
606,3	2648,848
606,8	2631,59
607,2	2619,076
607,7	2595,962
608,1	2583,19
608,6	2573,248
609	2551,333
609,4	2527,762
609,9	2518,476
610,3	2504,505
610,8	2495,533
611,2	2484,305
611,7	2459,133
612,1	2451,276
612,6	2440,619
613	2421,333
613,4	2402,619
613,9	2386,619
614,3	2371,19
614,8	2362,448
615,2	2347,733
615,7	2332,533
616,1	2323,705
616,6	2313,048
617	2300,219
617,4	2282,248
617,9	2274,476
618,3	2255,305
618,8	2242,533
619,2	2225,533
619,7	2207,99
620,1	2194,562
620,5	2184,933
621	2165,933
621,4	2155,219
621,9	2146,848
622,3	2136,733
622,8	2127,162
623,2	2111,99
623,6	2098,962
624,1	2084,276
624,5	2073,105
625	2061,162
625,4	2045,533
625,9	2032,505
626,3	2022,562
626,8	2010,848
627,2	2002,476
627,6	1991,39
628,1	1981,219
628,5	1964,219
629	1952,762
629,4	1940,848
629,9	1931,105
630,3	1914,276
630,7	1896,79
631,2	1872,133
631,6	1860,648
632,1	1847,076
632,5	1835,733
633	1824,733
633,4	1817,048
633,8	1803,533
634,3	1794,762
634,7	1786,219
635,2	1769,448
635,6	1755,048
636,1	1741,076
636,5	1724,876
636,9	1708,762
637,4	1696,876
637,8	1680,419
638,3	1671,048
638,7	1657,933
639,2	1641,276
639,6	1634,19
640	1633,076
640,5	1620,79
640,9	1618,133
641,4	1609,133
641,8	1597,59
642,2	1593,219
642,7	1585,39
643,1	1575,219
643,6	1569,419
644	1562,99
644,5	1553,076
644,9	1544,248
645,3	1533,962
645,8	1522,105
646,2	1510,99
646,7	1502,562
647,1	1490,162
647,6	1480,133
648	1469,619
648,4	1457,962
648,9	1451,362
649,3	1443,705
649,8	1435,933
650,2	1432,105
650,6	1423,762
651,1	1424,876
651,5	1415,162
652	1410,219
652,4	1396,505
652,9	1388,762
653,3	1374,248
653,7	1366,79
654,2	1355,762
654,6	1342,705
655,1	1325,362
655,5	1320,905
655,9	1306,819
656,4	1300,448
656,8	1294,019
657,3	1281,248
657,7	1282,019
658,2	1276,019
658,6	1271,076
659	1268,562
659,5	1256,076
659,9	1247,819
660,4	1241,133
660,8	1232,562
661,2	1223,248
661,7	1209,933
662,1	1200,848
662,6	1187,59
663	1176,305
663,4	1167,819
663,9	1158,219
664,3	1153,105
664,8	1147,819
665,2	1136,419
665,6	1134,505
666,1	1126,705
666,5	1119,933
667	1107,876
667,4	1095,333
667,9	1082,962
668,3	1080,505
668,7	1070,848
669,2	1061,819
669,6	1055,333
670,1	1048,362
670,5	1037,162
670,9	1030,762
671,4	1019,076
671,8	1013,79
672,3	1008,333
672,7	1000,105
673,1	993,419
673,6	992,19
674	981,333
674,5	970,133
674,9	968,762
675,3	960,848
675,8	951,419
676,2	948,019
676,7	939,933
677,1	938,819
677,5	938,476
678	923,362
678,4	919,076
678,9	912,876
679,3	903,705
679,7	897,848
680,2	895,676
680,6	886,333
681,1	882,248
681,5	873,79
681,9	866,79
682,4	859,705
682,8	854,362
683,3	846,505
683,7	839,133
684,1	830,733
684,6	821,59
685	810,276
685,5	806,648
685,9	800,476
686,3	793,476
686,8	787,562
687,2	784,533
687,7	782,362
688,1	783,448
688,5	777,476
689	770,476
689,4	760,676
689,9	756,562
690,3	750,448
690,7	743,79
691,2	736,933
691,6	731,333
692	726,933
692,5	723,876
692,9	716,048
693,4	707,133
693,8	699,762
694,2	697,048
694,7	691,848
695,1	686,533
695,6	681,476
696	678,105
696,4	678,99
696,9	679,276
697,3	668,276
697,8	665,533
698,2	656,733
698,6	653,305
699,1	654,305
699,5	646,933
699,9	641,848
700,4	640,105
700,8	638,448
701,3	641,676
701,7	631,962
702,1	623,676
702,6	619,133
703	613,848
703,5	606,876
703,9	596,219
704,3	589,048
704,8	586,933
705,2	585,019
705,6	579,705
706,1	572,333
706,5	575,533
707	572,19
707,4	567,19
707,8	568,362
708,3	560,705
708,7	558,762
709,2	557,848
709,6	548,676
710	549,019
710,5	545,276
710,9	539,562
711,3	536,39
711,8	529,048
712,2	525,076
712,7	520,419
713,1	512,419
713,5	508,962
714	508,562
714,4	508,562
714,8	508,076
715,3	505,162
715,7	501,933
716,2	498,248
716,6	498,19
717	483,133
717,5	470,848
717,9	469,705
718,3	464,962
718,8	461,562
719,2	452,219
719,7	443,448
720,1	446,019
720,5	446,99
721	441,448
721,4	435,819
721,8	434,705
722,3	434,79
722,7	429,733
723,2	424,619
723,6	415,848
724	411,562
724,5	406,705
724,9	400,162
725,3	399,476
725,8	399,276
726,2	396,248
726,7	401,419
727,1	398,248
727,5	396,276
728	393,79
728,4	392,333
728,8	385,705
729,3	387,79
729,7	379,562
730,1	378,619
730,6	376,105
731	371,79
731,5	368,276
731,9	367,048
732,3	360,276
732,8	357,533
733,2	351,219
733,6	351,276
734,1	351,933
734,5	347,133
734,9	348,876
735,4	343,79
735,8	345,448
736,3	343,333
736,7	343,533
737,1	344,19
737,6	341,505
738	336,962
738,4	337,99
738,9	340,333
739,3	338,333
739,7	342,219
740,2	340,333
740,6	341,819
741,1	339,019
741,5	337,648
741,9	326,219
742,4	326,305
742,8	314,876
743,2	307,19
743,7	304,305
744,1	303,476
744,5	301,79
745	304,59
745,4	302,876
745,8	304,39
746,3	301,876
746,7	297,705
747,2	295,362
747,6	296,133
748	290,333
748,5	287,448
748,9	282,505
749,3	286,019
749,8	284,39
750,2	279,648
750,6	278,505
751,1	277,933
751,5	275,333
751,9	278,505
752,4	271,248
752,8	264,99
753,3	270,505
753,7	266,276
754,1	266,219
754,6	262,419
755	258,076
755,4	254,733
755,9	261,733
756,3	258,648
756,7	258,019
757,2	252,505
757,6	254,905
758	249,448
758,5	251,876
758,9	243,962
759,3	237,962
759,8	234,362
760,2	233,076
760,6	228,419
761,1	225,705
761,5	227,59
761,9	228,105
762,4	227,648
762,8	223,39
763,3	222,648
763,7	218,305
764,1	219,305
764,6	210,476
765	215,076
765,4	213,076
765,9	211,933
766,3	212,676
766,7	216,333
767,2	215,705
767,6	224,162
768	217,076
768,5	217,048
768,9	213,076
769,3	213,533
769,8	217,419
770,2	211,648
770,6	205,305
771,1	201,733
771,5	199,933
771,9	204,733
772,4	202,705
772,8	194,848
773,2	195,933
773,7	196,933
774,1	197,276
774,5	196,048
775	191,59
775,4	191,819
775,8	194,39
776,3	197,105
776,7	191,019
777,1	191,076
777,6	189,048
778	190,79
778,4	185,19
778,9	183,419
779,3	178,105
779,7	181,648
780,2	179,362
780,6	177,505
781	172,59
781,5	174,933
781,9	171,133
782,3	172,333
782,8	171,99
783,2	174,162
783,6	176,105
784,1	174,19
784,5	169,248
784,9	166,619
785,4	164,19
785,8	163,819
786,2	161,619
786,7	159,419
787,1	157,362
787,5	158,962
788	162,876
788,4	160,048
788,8	154,505
789,3	150,733
789,7	156,019
790,1	158,905
790,6	155,819
791	152,133
791,4	148,819
791,9	146,848
792,3	148,819
792,7	140,19
793,2	140,648
793,6	142,733
794	137,762
794,5	142,762
794,9	142,333
795,3	138,362
795,8	138,962
796,2	137,505
796,6	133,59
797,1	141,79
797,5	139,533
797,9	138,562
798,4	138,362
798,8	137,248
799,2	140,048
799,7	137,962
800,1	131,276
800,5	129,133
801	127,933
801,4	127,248
801,8	124,848
802,2	121,333
802,7	124,276
803,1	122,848
803,5	120,276
804	124,219
804,4	120,105
804,8	120,648
805,3	120,276
805,7	118,305
806,1	117,562
806,6	119,533
807	114,476
807,4	121,219
807,9	122,333
808,3	119,505
808,7	117,79
809,2	116,105
809,6	116,59
810	121,533
810,4	114,99
810,9	111,619
811,3	106,505
811,7	105,305
812,2	106,305
812,6	99,619
813	86,133
813,5	87,333
813,9	89,648
814,3	91,162
814,8	94,848
815,2	94,305
815,6	95,305
816,1	100,676
816,5	102,705
816,9	94,133
817,3	94,076
817,8	89,333
818,2	84,733
818,6	87,59
819,1	90,676
819,5	88,648
819,9	94,39
820,4	93,562
820,8	93,99
821,2	94,905
821,7	94,133
822,1	93,048
822,5	92,705
822,9	91,076
823,4	88,762
823,8	87,505
824,2	88,276
824,7	83,648
825,1	82,333
825,5	83,648
826	80,248
826,4	82,248
826,8	76,105
827,3	73,476
827,7	74,076
828,1	74,505
828,5	67,362
829	67,99
829,4	64,905
829,8	69,619
830,3	68,505
830,7	68,248
831,1	66,39
831,6	67,162
832	64,276
832,4	64,619
832,8	66,333
833,3	69,019
833,7	69,162
834,1	67,333
834,6	67,133
835	69,448
835,4	76,533
835,8	75,533
836,3	73,362
836,7	72,619
837,1	71,105
837,6	69,562
838	69,219
838,4	58,533
838,9	53,362
839,3	54,99
839,7	54,505
840,1	56,362
840,6	56,19
841	51,533
841,4	54,59
841,9	54,39
842,3	56,476
842,7	59,819
843,1	57,048
843,6	62,619
844	65,79
844,4	61,562
844,9	62,933
845,3	57,648
845,7	58,019
846,2	58,133
846,6	54,476
847	55,362
847,4	56,79
847,9	58,648
848,3	58,362
848,7	55,648
849,2	56,533
849,6	55,533
850	51,933
850,4	53,133
850,9	54,019
851,3	53,848
851,7	51,162
852,2	50,962
852,6	48,019
853	48,648
853,4	46,762
853,9	45,562
854,3	48,705
854,7	42,362
855,2	42,105
855,6	41,019
856	39,019
856,4	41,648
856,9	37,933
857,3	36,19
857,7	40,476
858,2	34,848
858,6	34,305
859	36,39
859,4	35,305
859,9	37,076
860,3	34,619
860,7	35,219
861,1	38,076
861,6	36,905
862	37,562
862,4	38,533
862,9	35,99
863,3	37,933
863,7	38,79
864,1	39,276
864,6	44,962
865	47,533
865,4	44,562
865,9	48,676
866,3	49,276
866,7	45,562
867,1	44,59
867,6	39,876
868	33,562
868,4	33,676
868,8	34,676
869,3	34,305
869,7	40,019
870,1	38,962
870,6	41,562
871	25,762
871,4	25,39
871,8	19,276
872,3	15,019
872,7	7,676
873,1	8,219
873,5	6,162
874	23,905
874,4	25,248
874,8	21,962
875,3	23,162
875,7	27,276
876,1	24,705
876,5	23,933
877	26,39
877,4	27,448
877,8	29,59
878,2	27,533
878,7	30,19
879,1	33,076
879,5	34,19
879,9	28,162
880,4	26,362
880,8	27,676
881,2	27,619
881,7	24,219
882,1	28,048
882,5	25,933
882,9	26,733
883,4	23,333
883,8	17,876
884,2	22,305
884,6	23,99
885,1	15,219
885,5	19,019
885,9	24,276
886,3	23,905
886,8	26,505
887,2	24,076
887,6	17,448
888	23,905
888,5	20,705
888,9	17,048
889,3	22,648
889,8	25,276
890,2	24,019
890,6	25,305
891	25,762
891,5	22,705
891,9	19,733
892,3	13,933
892,7	11,733
893,2	17,162
893,6	16,39
894	11,019
894,4	13,562
894,9	13,59
895,3	14,933
895,7	18,933
896,1	12,476
896,6	17,619
897	19,648
897,4	18,962
897,8	26,333
898,3	27,019
898,7	20,048
899,1	17,819
899,5	13,219
900	16,876
900,4	16,333
900,8	16,248
901,2	17,276
901,7	22,162
902,1	31,076
902,5	34,476
902,9	29,762
903,4	29,562
903,8	23,533
904,2	17,019
904,6	17,39
905,1	12,076
905,5	11,133
905,9	18,876
906,3	18,562
906,8	17,19
907,2	20,333
907,6	16,905
908	13,419
908,5	17,562
908,9	9,762
909,3	11,019
909,7	12,333
910,2	14,705
910,6	18,19
911	20,676
911,4	12,133
911,9	13,248
912,3	15,248
912,7	17,505
913,1	18,048
913,6	15,848
914	15,905
914,4	22,419
914,8	17,533
915,3	17,19
915,7	16,248
916,1	17,533
916,5	17,19
916,9	18,562
917,4	14,019
917,8	14,619
918,2	16,305
918,6	17,162
919,1	17,19
919,5	18,076
919,9	18,476
920,3	20,705
920,8	25,648
921,2	19,848
921,6	16,905
922	16,276
922,5	17,619
922,9	20,79
923,3	20,39
923,7	20,076
924,2	22,648
924,6	23,019
925	19,676
925,4	15,39
925,8	9,105
926,3	5,962
926,7	5,248
927,1	4,248
927,5	8,933
928	11,705
928,4	12,762
928,8	13,39
929,2	16,333
929,7	18,076
930,1	17,305
930,5	12,905
930,9	11,419
931,3	14,762
931,8	14,076
932,2	12,59
932,6	9,505
933	8,448
933,5	6,59
933,9	7,562
934,3	5,133
934,7	3,305
935,2	0,333
935,6	-0,952
936	3,79
936,4	3,448
936,8	0,105
937,3	1,333
937,7	1,219
938,1	7,419
938,5	7,59
939	4,648
939,4	8,076
939,8	15,019
940,2	14,276
940,6	16,648
941,1	11,276
941,5	11,819
941,9	10,476
942,3	9,133
942,8	3,276
943,2	3,533
943,6	3,933
944	4,819
944,4	3,962
944,9	6,105
945,3	6,333
945,7	9,305
946,1	6,219
946,6	7,533
947	7,819
947,4	8,276
947,8	6,619
948,2	4,448
948,7	-0,324
949,1	0,59
949,5	0,505
949,9	3,076
950,3	1,505
950,8	-0,095
951,2	1,448
951,6	4,333
952	3,19
952,5	0,619
952,9	-2,924
953,3	-3,495
953,7	-2,695
954,1	-3,352
954,6	-5,181
955	-0,381
955,4	4,219
955,8	6,676
956,2	10,19
956,7	13,762
957,1	12,933
957,5	13,19
957,9	8,276
958,3	5,39
958,8	3,819
959,2	2,162
959,6	0,848
960	2,219
960,5	-2,438
960,9	1,933
961,3	3,562
961,7	0,762
962,1	-0,81
962,6	-3,724
963	-0,638
963,4	5,848
963,8	2,419
964,2	-3,267
964,7	-1,267
965,1	4,876
965,5	6,276
965,9	2,648
966,3	1,276
966,8	1,99
967,2	6,076
967,6	10,362
968	5,305
968,4	6,333
968,9	7,533
969,3	7,648
969,7	10,762
970,1	11,133
970,5	9,876
971	10,133
971,4	11,333
971,8	8,362
972,2	5,933
972,6	2,79
973,1	-1,21
973,5	-1,352
973,9	-0,21
974,3	-0,581
974,7	-0,81
975,2	2,648
975,6	4,79
976	4,39
976,4	2,305
976,8	3,705
977,3	4,59
977,7	3,276
978,1	-0,981
978,5	-4,01
978,9	-3,352
979,4	-4,924
979,8	-6,495
980,2	-8,838
980,6	-5,61
981	-2,21
981,5	-5,095
981,9	-4,924
982,3	-0,324
982,7	-1,981
983,1	-2,952
983,6	-1,867
984	-7,581
984,4	2,105
984,8	2,619
985,2	0,105
985,6	-0,667
986,1	-3,067
986,5	-3,238
986,9	-0,552
987,3	-3,667
987,7	-2,752
988,2	-5,524
988,6	-6,21
989	-2,724
989,4	-7,21
989,8	-5,095
990,3	-5,352
990,7	-2,638
991,1	-4,524
991,5	2,619
991,9	3,419
992,3	8,419
992,8	1,99
993,2	1,448
993,6	-2,981
994	2,648
994,4	0,19
994,9	-0,695
995,3	0,648
995,7	7,39
996,1	6,219
996,5	7,133
996,9	8,276
997,4	5,933
997,8	7,533
998,2	5,162
998,6	1,076
999	-0,381
999,5	-0,581
999,9	-1,267
1000,3	-4,781
1000,7	-5,981
1001,1	-6,067
1001,5	-7,924
1002	-9,467
1002,4	-9,524
1002,8	-11,438
1003,2	-11,438
1003,6	-11,495
1004	-13,324
1004,5	-8,324
1004,9	-4,067
1005,3	-3,381
1005,7	-1,181
1006,1	5,39
1006,6	2,848
1007	5,048
1007,4	9,076
1007,8	6,733
1008,2	10,476
1008,6	5,133
1009,1	2,476
1009,5	5,905
1009,9	7,333
1010,3	-0,038
1010,7	7,99
1011,1	2,476
1011,6	10,705
1012	11,248
1012,4	10,276
1012,8	7,79
1013,2	10,705
1013,6	1,962
1014,1	-0,61
1014,5	-6,01
1014,9	-6,095
1015,3	-8,438
1015,7	-11,752
1016,1	-9,81
1016,6	-4,638
1017	3,333
1017,4	4,419
1017,8	8,219
1018,2	6,333
1018,6	8,048
1019,1	7,505
1019,5	6,39
1019,9	2,876
1020,3	2,019
1020,7	-9,781
1021,1	-9,924
1021,6	-4,752
1022	-4,324
1022,4	-7,724
1022,8	-10,667
1023,2	-6,381
1023,6	-2,695
1024,1	4,619
1024,5	-4,095
1024,9	-3,324
1025,3	-2,181
1025,7	-0,267
1026,1	-0,352
1026,6	1,705
1027	-1,581
1027,4	0,762
1027,8	1,848
1028,2	-0,095
1028,6	1,133
1029	-4,038
1029,5	-3,181
1029,9	-11,667
1030,3	-8,495
1030,7	-15,152
1031,1	-13,581
1031,5	-13,895
1032	-11,295
1032,4	-9,495
1032,8	2,733
1033,2	2,562
1033,6	4,676
1034	5,962
1034,4	6,79
1034,9	6,133
1035,3	4,876
1035,7	0,019
1036,1	2,59
1036,5	6,048
1036,9	7,905
1037,4	8,848
1037,8	11,305
1038,2	15,39
1038,6	15,619
1039	12,448
1039,4	14,533
1039,8	11,59
1040,3	9,848
1040,7	5,562
1041,1	-0,124
1041,5	-1,667
1041,9	1,162
1042,3	-2,267
1042,7	-1,695
1043,2	1,533
1043,6	-0,067
1044	5,048
1044,4	13,933
1044,8	12,619
1045,2	8,819
1045,6	9,705
1046,1	6,333
1046,5	11,962
1046,9	9,505
1047,3	0,476
1047,7	5,076
1048,1	10,962
1048,5	6,248
1049	10,848
1049,4	7,676
1049,8	3,505
1050,2	5,933
1050,6	-0,01
1051	-1,981
1051,4	2,248
1051,9	-7,724
1052,3	-4,438
1052,7	1,419
1053,1	2,705
1053,5	1,476
1053,9	1,59
1054,3	2,219
1054,8	13,819
1055,2	11,733
1055,6	6,448
1056	5,705
1056,4	12,905
1056,8	13,99
1057,2	14,533
1057,6	2,362
1058,1	3,733
1058,5	5,476
1058,9	4,905
1059,3	1,048
1059,7	-1,61
1060,1	-0,895
1060,5	4,505
1061	3,876
1061,4	1,019
1061,8	2,105
1062,2	-1,524
1062,6	-5,295
1063	-10,638
1063,4	-10,952
1063,8	-12,181
1064,3	-6,438
1064,7	-7,552
1065,1	-5,838
1065,5	-1,067
1065,9	1,019
1066,3	5,133
1066,7	6,962
1067,1	6,133
1067,6	9,99
1068	11,39
1068,4	11,905
1068,8	9,333
1069,2	7,162
1069,6	5,876
1070	4,19
1070,4	0,048
1070,9	-5,61
1071,3	-4,238
1071,7	0,962
1072,1	-1,41
1072,5	-0,724
1072,9	2,448
1073,3	0,19
1073,7	4,733
1074,2	3,419
1074,6	0,448
1075	2,39
1075,4	3,476
1075,8	0,59
1076,2	4,419
1076,6	2,705
1077	3,876
1077,5	7,305
1077,9	4,648
1078,3	2,933
1078,7	3,019
1079,1	2,59
1079,5	5,819
1079,9	0,733
1080,3	-6,181
1080,7	-2,152
1081,2	-4,981
1081,6	-5,295
1082	-7,61
1082,4	-7,438
1082,8	-4,81
1083,2	2,962
1083,6	-0,724
1084	3,076
1084,5	4,648
1084,9	4,133
1085,3	-3,41
1085,7	-2,152
1086,1	-4,495
1086,5	-4,095
1086,9	-2,638
1087,3	0,19
1087,7	2,676
1088,2	10,676
1088,6	8,676
1089	6,048
1089,4	9,619
1089,8	3,733
1090,2	-2,295
1090,6	-0,324
1091	-1,81
1091,4	-0,467
1091,9	-0,067
1092,3	-2,581
1092,7	-1,638
1093,1	2,933
1093,5	3,162
1093,9	1,848
1094,3	2,476
1094,7	4,305
1095,1	8,448
1095,5	11,019
1096	11,733
1096,4	10,505
1096,8	12,305
1097,2	13,762
1097,6	14,762
1098	11,648
1098,4	9,99
1098,8	4,19
1099,2	0,99
1099,6	0,476
1100,1	-1,324
1100,5	-2,295
1100,9	-3,81
1101,3	-3,638
1101,7	-0,552
1102,1	1,876
1102,5	2,476
1102,9	7,19
1103,3	3,562
1103,7	4,362
1104,2	6,848
1104,6	4,79
1105	5,59
1105,4	3,048
1105,8	-1,952
1106,2	0,676
1106,6	0,733
1107	-0,638
1107,4	0,933
1107,8	-1,547
1108,3	0,233
