Data from Subt2_296.txt Node
Date: Sat Aug 26 19:11:58 MSK 2023
User: vat
Spectrometer: MAYP114033
Trigger mode: 0
Integration Time (sec): 1,000000E0
Scans to average: 5
Electric dark correction enabled: true
Nonlinearity correction enabled: false
Boxcar width: 3
XAxis mode: Wavelengths
Number of Pixels in Spectrum: 2068
>>>>>Begin Spectral Data<<<<<
199,4	-1,2
199,9	2,12
200,4	1,367
200,8	0,657
201,3	-0,543
201,8	2,857
202,2	1,029
202,7	5,514
203,2	5,743
203,6	5,514
204,1	3,429
204,6	5,714
205	6,486
205,5	8,743
206	5,114
206,4	4,343
206,9	4,571
207,4	9,486
207,8	7,257
208,3	4,286
208,8	3,6
209,2	4,914
209,7	6,371
210,2	8,029
210,6	6,829
211,1	9,8
211,5	6,943
212	7,886
212,5	6,286
212,9	1,857
213,4	2,714
213,9	0,2
214,3	-0,143
214,8	4,286
215,3	4,257
215,7	8,086
216,2	12,571
216,7	9,6
217,1	14,343
217,6	16,457
218,1	8,629
218,5	8,429
219	1,6
219,5	0,6
219,9	-0,257
220,4	0,257
220,9	-1,171
221,3	3,571
221,8	9,029
222,3	11,657
222,7	11,457
223,2	13,629
223,6	11,143
224,1	9,143
224,6	11,171
225	4,829
225,5	4,2
226	4,457
226,4	7,343
226,9	7,257
227,4	7,171
227,8	5,171
228,3	6,343
228,8	7,743
229,2	6,971
229,7	4,629
230,2	7,543
230,6	10,857
231,1	15,771
231,5	13,943
232	17,286
232,5	17,343
232,9	20
233,4	18,543
233,9	13,743
234,3	11,229
234,8	11,029
235,3	6,229
235,7	4,943
236,2	3,057
236,7	-0,8
237,1	2,543
237,6	0,171
238,1	2,057
238,5	1,629
239	3,143
239,4	3,257
239,9	7,114
240,4	6,714
240,8	11,171
241,3	11,829
241,8	12,257
242,2	13,8
242,7	12,714
243,2	15,486
243,6	14,2
244,1	15,714
244,6	16,4
245	17,343
245,5	15
245,9	11,629
246,4	5,4
246,9	10,886
247,3	5,657
247,8	6,486
248,3	7,543
248,7	7,771
249,2	13,914
249,7	16,829
250,1	14,286
250,6	15,114
251	15,886
251,5	13,771
252	15,686
252,4	16
252,9	13,886
253,4	7,829
253,8	8,2
254,3	7
254,8	6,6
255,2	3,829
255,7	1
256,1	2,486
256,6	6,143
257,1	8,629
257,5	2,029
258	2,114
258,5	1,657
258,9	2,829
259,4	-0,914
259,9	1,943
260,3	-7,286
260,8	-4,943
261,2	-2,371
261,7	1,171
262,2	-3,371
262,6	-2,114
263,1	1,171
263,6	11,857
264	17,914
264,5	18,514
264,9	15,943
265,4	21,6
265,9	24
266,3	24,8
266,8	22,057
267,3	16,429
267,7	13,143
268,2	14,714
268,7	15,886
269,1	12,8
269,6	9,571
270	12,514
270,5	14,429
271	13,971
271,4	12,514
271,9	7,686
272,4	14,457
272,8	17,543
273,3	14,429
273,7	16,171
274,2	19,486
274,7	23,829
275,1	27,571
275,6	25,143
276,1	19,314
276,5	22,229
277	22,657
277,4	20,743
277,9	17,6
278,4	17,457
278,8	19,257
279,3	20,486
279,8	16,829
280,2	15,086
280,7	20,229
281,1	16,943
281,6	12,229
282,1	9,086
282,5	11,086
283	10,686
283,4	9,086
283,9	4,629
284,4	9,4
284,8	11,857
285,3	10,743
285,8	8,114
286,2	10,6
286,7	10,171
287,1	11,057
287,6	7,571
288,1	9,286
288,5	11,571
289	8,829
289,5	4,914
289,9	5,114
290,4	6,314
290,8	8,114
291,3	5,943
291,8	6,4
292,2	4,543
292,7	10,057
293,1	10,886
293,6	10,771
294,1	14,029
294,5	12,8
295	13,629
295,5	15,343
295,9	12,971
296,4	16,486
296,8	19,171
297,3	16,086
297,8	13,714
298,2	5,543
298,7	8,371
299,1	6,029
299,6	3,2
300,1	0,657
300,5	1,171
301	8,486
301,5	18,743
301,9	18,343
302,4	19,6
302,8	19,571
303,3	17,2
303,8	13,514
304,2	9,886
304,7	6,657
305,1	-0,114
305,6	-0,314
306,1	3,514
306,5	6,714
307	11,914
307,4	14,514
307,9	15,486
308,4	23,343
308,8	20,143
309,3	17,314
309,8	15,657
310,2	13,286
310,7	7,257
311,1	3,686
311,6	3,771
312,1	7,343
312,5	7,343
313	6,4
313,4	6,743
313,9	9,057
314,4	7,771
314,8	5,886
315,3	3,686
315,7	-0,314
316,2	-1,743
316,7	-6,543
317,1	-1
317,6	3,314
318	4,143
318,5	9
319	11,486
319,4	14,171
319,9	22,886
320,3	21,029
320,8	19,257
321,3	20,857
321,7	17,114
322,2	15,543
322,6	17,657
323,1	13,943
323,6	13,286
324	11,571
324,5	7,771
324,9	8,343
325,4	10,886
325,9	11,371
326,3	13,886
326,8	9,886
327,2	9,457
327,7	9,914
328,2	9,229
328,6	9,6
329,1	4,257
329,5	1
330	5,743
330,5	9,143
330,9	10,514
331,4	10,771
331,8	9,571
332,3	14,629
332,8	16,4
333,2	16,943
333,7	17,314
334,1	18,914
334,6	17,057
335,1	14,057
335,5	11,771
336	9,6
336,4	10,057
336,9	13,857
337,4	14,371
337,8	16,257
338,3	18,514
338,7	19,8
339,2	19,829
339,7	21,543
340,1	16,143
340,6	13,486
341	9,371
341,5	9,714
342	7,886
342,4	7,229
342,9	0,257
343,3	1,657
343,8	0,943
344,2	4,971
344,7	9,486
345,2	8,657
345,6	11,143
346,1	15,657
346,5	10,943
347	11,343
347,5	13,943
347,9	14,714
348,4	16,457
348,8	16,229
349,3	13,2
349,8	16,571
350,2	21,629
350,7	18,543
351,1	18,714
351,6	24,4
352	27,943
352,5	33,914
353	48,257
353,4	52,543
353,9	64,2
354,3	71,771
354,8	77,171
355,3	93
355,7	109,143
356,2	118,857
356,6	141
357,1	164,2
357,5	191,057
358	225,543
358,5	258,171
358,9	298,886
359,4	344,171
359,8	390,457
360,3	447,371
360,8	506,857
361,2	574,257
361,7	646,543
362,1	734,571
362,6	829,943
363	928,343
363,5	1034,571
364	1152,343
364,4	1268,114
364,9	1384,714
365,3	1491,543
365,8	1593,457
366,3	1689,029
366,7	1772,314
367,2	1845,8
367,6	1906,057
368,1	1960,257
368,5	1993,857
369	2010,543
369,5	2020,657
369,9	2008,514
370,4	1979,771
370,8	1937,457
371,3	1873,886
371,7	1807,2
372,2	1725,886
372,7	1639,314
373,1	1553,2
373,6	1465,257
374	1375,743
374,5	1285,543
374,9	1198,257
375,4	1118,543
375,9	1038,686
376,3	957,714
376,8	879,286
377,2	808,429
377,7	741,143
378,2	677,343
378,6	620,743
379,1	569,171
379,5	527,829
380	487,971
380,4	446,571
380,9	412,429
381,4	377,971
381,8	353,8
382,3	329,343
382,7	303,257
383,2	281,029
383,6	264,771
384,1	248,857
384,6	238
385	217,686
385,5	199,714
385,9	185,286
386,4	167,114
386,8	158,657
387,3	151,657
387,7	144,886
388,2	139,257
388,7	132,914
389,1	123,4
389,6	121,2
390	111,657
390,5	103,6
390,9	95,314
391,4	88,143
391,9	82,543
392,3	82,943
392,8	78,343
393,2	71,457
393,7	69,2
394,1	63,771
394,6	62,286
395,1	60,171
395,5	55,543
396	55,486
396,4	56,543
396,9	52,257
397,3	57,086
397,8	56,314
398,2	56,371
398,7	55,286
399,2	56,2
399,6	56,771
400,1	59,371
400,5	50,229
401	49,029
401,4	44,057
401,9	47,486
402,4	45,057
402,8	39,571
403,3	39,029
403,7	36,943
404,2	41,714
404,6	46,229
405,1	40,8
405,5	37,229
406	40,571
406,5	37,343
406,9	44,286
407,4	39,8
407,8	39,114
408,3	46,429
408,7	50,2
409,2	53,686
409,6	58,514
410,1	58,143
410,6	59,171
411	61,057
411,5	56,829
411,9	59,629
412,4	61,829
412,8	61,571
413,3	62,6
413,7	66,4
414,2	68,314
414,7	72,971
415,1	76,714
415,6	78,314
416	81,057
416,5	80,914
416,9	79,457
417,4	81,943
417,8	92,771
418,3	96,086
418,8	101,457
419,2	100,257
419,7	102,4
420,1	107,086
420,6	107,657
421	97,171
421,5	99,971
421,9	96,229
422,4	99,457
422,8	101,029
423,3	97
423,8	98,057
424,2	95,629
424,7	90,914
425,1	90,571
425,6	90,714
426	91,886
426,5	96,629
426,9	98,086
427,4	98,486
427,9	96,743
428,3	94,714
428,8	97,457
429,2	98,114
429,7	96,114
430,1	92,4
430,6	95,543
431	97,086
431,5	101,4
431,9	96,257
432,4	99,543
432,8	106,771
433,3	110,286
433,8	110,657
434,2	111,371
434,7	112,029
435,1	116,543
435,6	117,086
436	116,286
436,5	119,714
436,9	122,8
437,4	126,029
437,8	133,629
438,3	138,857
438,8	143,086
439,2	145,171
439,7	153,543
440,1	161,029
440,6	172,371
441	172,771
441,5	181,314
441,9	187,029
442,4	191,229
442,8	196,886
443,3	206,914
443,7	211,857
444,2	224,457
444,7	235,486
445,1	246,771
445,6	259,2
446	266,771
446,5	272,771
446,9	281,8
447,4	291,829
447,8	301,886
448,3	307,686
448,7	320,657
449,2	330,829
449,6	345,8
450,1	354,743
450,6	364,457
451	374,571
451,5	392,4
451,9	410
452,4	433,457
452,8	448,029
453,3	471,4
453,7	490,914
454,2	511,029
454,6	526,571
455,1	540,057
455,5	546,714
456	567,171
456,4	578,714
456,9	595,657
457,3	607,886
457,8	626,8
458,3	650,857
458,7	673,2
459,2	691,943
459,6	716,714
460,1	735,286
460,5	758,486
461	785,629
461,4	799,743
461,9	821,943
462,3	845,943
462,8	868,286
463,2	889,943
463,7	916,486
464,1	943,114
464,6	972,943
465	1001,914
465,5	1028,743
466	1058,543
466,4	1089,343
466,9	1120,629
467,3	1141,886
467,8	1167,571
468,2	1194,086
468,7	1224,029
469,1	1251,771
469,6	1277,943
470	1305,314
470,5	1335,571
470,9	1365,486
471,4	1393,714
471,8	1412
472,3	1436,571
472,7	1467,686
473,2	1488,857
473,6	1514,086
474,1	1543,314
474,5	1570,257
475	1607,114
475,4	1639,943
475,9	1672,029
476,4	1698,543
476,8	1729,057
477,3	1752,343
477,7	1784,714
478,2	1806,971
478,6	1822,257
479,1	1840,229
479,5	1867,971
480	1895,486
480,4	1927,886
480,9	1948,486
481,3	1975,114
481,8	2004,371
482,2	2027,429
482,7	2050,686
483,1	2068,314
483,6	2087,8
484	2105,914
484,5	2123,886
484,9	2144,686
485,4	2169,714
485,8	2189,943
486,3	2212,429
486,7	2225,914
487,2	2243,514
487,6	2262,8
488,1	2274,229
488,5	2286,514
489	2300,343
489,4	2315,2
489,9	2327,657
490,4	2340,143
490,8	2351,314
491,3	2362,029
491,7	2371,286
492,2	2385,629
492,6	2392,8
493,1	2407,8
493,5	2409,457
494	2411,029
494,4	2427,6
494,9	2440,086
495,3	2449,771
495,8	2453,143
496,2	2457,629
496,7	2466,743
497,1	2483,143
497,6	2491,371
498	2497,971
498,5	2502,686
498,9	2506,486
499,4	2511,457
499,8	2525,6
500,3	2530,057
500,7	2527,771
501,2	2526,143
501,6	2523,686
502,1	2527,029
502,5	2529,857
503	2532,657
503,4	2528,029
503,9	2526,629
504,3	2530,6
504,8	2530,4
505,2	2535,857
505,7	2537,286
506,1	2534,8
506,6	2534,486
507	2535,571
507,5	2533,971
507,9	2530,886
508,4	2524,514
508,8	2521,971
509,3	2521,171
509,7	2521,629
510,2	2522,686
510,6	2517,6
511,1	2521,114
511,5	2527,429
512	2526
512,4	2527,571
512,9	2528,571
513,3	2528,514
513,8	2528,029
514,2	2530,486
514,7	2524,914
515,1	2525,2
515,6	2520,714
516	2518,057
516,5	2515,914
516,9	2515,457
517,4	2512,114
517,8	2510,6
518,3	2510,714
518,7	2505,743
519,2	2504,571
519,6	2504,4
520,1	2506,857
520,5	2499,457
521	2493,6
521,4	2487,429
521,9	2493,657
522,3	2490,686
522,8	2486,857
523,2	2483,057
523,7	2487,686
524,1	2492
524,6	2489,6
525	2485,257
525,5	2485,114
525,9	2489,457
526,4	2488,229
526,8	2485,114
527,3	2485,771
527,7	2493,486
528,2	2494,543
528,6	2493,514
529,1	2493,8
529,5	2501,686
530	2502,657
530,4	2500,971
530,9	2497,429
531,3	2499,543
531,8	2503,171
532,2	2500,229
532,6	2495,914
533,1	2499,171
533,5	2505,714
534	2511,286
534,4	2514,857
534,9	2515,114
535,3	2515,4
535,8	2517,371
536,2	2523,8
536,7	2524,571
537,1	2523,2
537,6	2517,8
538	2522,029
538,5	2528,571
538,9	2527,629
539,4	2524,286
539,8	2523,257
540,3	2527,543
540,7	2532,286
541,2	2528
541,6	2531,314
542,1	2539,343
542,5	2543,914
543	2547,486
543,4	2540,371
543,9	2545,286
544,3	2554,571
544,8	2556,4
545,2	2554,743
545,7	2555,4
546,1	2562,6
546,5	2570,229
547	2574,029
547,4	2581,371
547,9	2578,457
548,3	2588,371
548,8	2594,543
549,2	2585,057
549,7	2586,029
550,1	2589,429
550,6	2588,286
551	2593,229
551,5	2588,514
551,9	2589,171
552,4	2597,514
552,8	2604,314
553,3	2604,029
553,7	2602,114
554,2	2610,314
554,6	2616,286
555,1	2620,8
555,5	2621,8
555,9	2625,514
556,4	2625,029
556,8	2625,514
557,3	2626,229
557,7	2633,171
558,2	2631,4
558,6	2639,371
559,1	2636,4
559,5	2639,686
560	2650,886
560,4	2657,171
560,9	2656,229
561,3	2662,171
561,8	2661,743
562,2	2669,686
562,7	2675,543
563,1	2680,2
563,6	2675,857
564	2676,457
564,4	2673,971
564,9	2681,4
565,3	2676,771
565,8	2672,714
566,2	2669,257
566,7	2677,543
567,1	2680,257
567,6	2689,971
568	2686,114
568,5	2689,886
568,9	2694,029
569,4	2693,914
569,8	2690,171
570,3	2683,886
570,7	2678,943
571,1	2681,686
571,6	2687
572	2689,657
572,5	2692,543
572,9	2689,914
573,4	2692,171
573,8	2697,086
574,3	2692,429
574,7	2692,629
575,2	2687,4
575,6	2682,543
576,1	2681,743
576,5	2684,829
576,9	2673,629
577,4	2671,114
577,8	2664,457
578,3	2665,943
578,7	2657,857
579,2	2664
579,6	2655,429
580,1	2653,114
580,5	2651,629
581	2647,629
581,4	2644,286
581,9	2646,714
582,3	2634
582,7	2636,286
583,2	2633,314
583,6	2626,943
584,1	2627,943
584,5	2618,771
585	2614,171
585,4	2606,457
585,9	2603,171
586,3	2600,229
586,8	2602,486
587,2	2596,286
587,6	2603,543
588,1	2602,2
588,5	2603
589	2595,857
589,4	2592,343
589,9	2585,714
590,3	2578,171
590,8	2569,171
591,2	2560,829
591,7	2564
592,1	2564,029
592,5	2565,429
593	2558,143
593,4	2552,771
593,9	2548,143
594,3	2546,886
594,8	2539,514
595,2	2530,029
595,7	2521,714
596,1	2517,229
596,6	2516,743
597	2510,257
597,4	2508,2
597,9	2503,2
598,3	2504,257
598,8	2503,229
599,2	2499,886
599,7	2494,2
600,1	2487,343
600,6	2485,086
601	2476,171
601,4	2476,686
601,9	2472,171
602,3	2468,743
602,8	2462,971
603,2	2458,086
603,7	2445,371
604,1	2442,486
604,6	2432,6
605	2424,714
605,4	2423,514
605,9	2415,457
606,3	2410,029
606,8	2406,857
607,2	2396,457
607,7	2379,771
608,1	2373,371
608,6	2369,714
609	2370,029
609,4	2363,429
609,9	2352,886
610,3	2345,4
610,8	2344,514
611,2	2335,343
611,7	2322,857
612,1	2313,229
612,6	2309,057
613	2309,8
613,4	2305,343
613,9	2291,914
614,3	2278,229
614,8	2267,971
615,2	2255,143
615,7	2249,086
616,1	2238,171
616,6	2227,886
617	2224,771
617,4	2219,857
617,9	2216,857
618,3	2214,543
618,8	2205,171
619,2	2193,6
619,7	2187,914
620,1	2181,486
620,5	2180,143
621	2170,4
621,4	2157,8
621,9	2147,543
622,3	2140,343
622,8	2125,829
623,2	2116,6
623,6	2104,771
624,1	2094,971
624,5	2087,771
625	2081,114
625,4	2072,914
625,9	2068,2
626,3	2062,143
626,8	2055,086
627,2	2045,543
627,6	2031,629
628,1	2024,086
628,5	2016,057
629	2006,629
629,4	1997,229
629,9	1983,943
630,3	1968,486
630,7	1962,343
631,2	1955,886
631,6	1943,8
632,1	1937,714
632,5	1922,743
633	1917,086
633,4	1914,829
633,8	1905,857
634,3	1891,114
634,7	1889,229
635,2	1871,771
635,6	1863,286
636,1	1847,571
636,5	1831,829
636,9	1818,857
637,4	1810,114
637,8	1794,629
638,3	1788,8
638,7	1781,771
639,2	1775,371
639,6	1775,629
640	1772,371
640,5	1766,629
640,9	1759,629
641,4	1755,686
641,8	1746,543
642,2	1738,2
642,7	1730,914
643,1	1729,914
643,6	1715,171
644	1708,914
644,5	1702,371
644,9	1696,371
645,3	1693,914
645,8	1678,143
646,2	1664,229
646,7	1657,429
647,1	1648,486
647,6	1639,8
648	1635,2
648,4	1619,514
648,9	1616,914
649,3	1605,543
649,8	1601,829
650,2	1592,057
650,6	1584,514
651,1	1571,343
651,5	1568,4
652	1558,543
652,4	1553,743
652,9	1542,543
653,3	1533,257
653,7	1522,829
654,2	1514,886
654,6	1503,857
655,1	1498,257
655,5	1493,943
655,9	1486,943
656,4	1484,971
656,8	1476,314
657,3	1471,029
657,7	1469,914
658,2	1462,629
658,6	1447,743
659	1443,057
659,5	1426,629
659,9	1418,971
660,4	1416,029
660,8	1401,6
661,2	1390,029
661,7	1389,429
662,1	1379
662,6	1374,029
663	1362,629
663,4	1348,2
663,9	1344,343
664,3	1337,829
664,8	1325,257
665,2	1314,629
665,6	1303,314
666,1	1299,971
666,5	1290,171
667	1277,514
667,4	1268,343
667,9	1264,171
668,3	1255,057
668,7	1255,371
669,2	1249,286
669,6	1246,6
670,1	1245,086
670,5	1233,2
670,9	1224,171
671,4	1220,771
671,8	1208,057
672,3	1201,6
672,7	1193,429
673,1	1181,257
673,6	1177,829
674	1173,057
674,5	1159,886
674,9	1151,629
675,3	1136,257
675,8	1131,457
676,2	1124,914
676,7	1118
677,1	1111,343
677,5	1109,371
678	1106,143
678,4	1104,143
678,9	1091,514
679,3	1086,743
679,7	1078,457
680,2	1063,857
680,6	1048,971
681,1	1040,857
681,5	1039,943
681,9	1038,343
682,4	1029,657
682,8	1027,857
683,3	1029,771
683,7	1033,086
684,1	1029,029
684,6	1018,114
685	1012,514
685,5	1007,371
685,9	995,314
686,3	978,686
686,8	972,229
687,2	967,257
687,7	961,057
688,1	951,314
688,5	944,914
689	946,514
689,4	943,286
689,9	935,543
690,3	923,771
690,7	918,971
691,2	912,057
691,6	905,4
692	893,229
692,5	893,629
692,9	887,314
693,4	888,143
693,8	880,571
694,2	877,543
694,7	871,686
695,1	866,314
695,6	857,571
696	856,686
696,4	848,086
696,9	843,257
697,3	833,229
697,8	830,486
698,2	826
698,6	823,371
699,1	817,857
699,5	815,943
699,9	809,514
700,4	803,343
700,8	798,829
701,3	797,686
701,7	788,314
702,1	777,971
702,6	769
703	766,543
703,5	761,429
703,9	753,257
704,3	746,286
704,8	745,029
705,2	739,029
705,6	736,486
706,1	730,257
706,5	727,086
707	727,371
707,4	723,2
707,8	716,714
708,3	716,171
708,7	711,886
709,2	712,229
709,6	706,629
710	701,314
710,5	694,571
710,9	690,143
711,3	686,914
711,8	681,486
712,2	673,171
712,7	669,086
713,1	666,657
713,5	666,771
714	666,714
714,4	658,4
714,8	655,171
715,3	651,543
715,7	651,629
716,2	646
716,6	638,257
717	631,543
717,5	624,943
717,9	621,8
718,3	615,229
718,8	609,714
719,2	605,771
719,7	604,8
720,1	599,314
720,5	602,629
721	595,914
721,4	594,8
721,8	594,543
722,3	586,971
722,7	584,686
723,2	577,6
723,6	568,057
724	566,686
724,5	556,8
724,9	549,657
725,3	545,971
725,8	539,486
726,2	537,257
726,7	535,743
727,1	527,629
727,5	528,971
728	524,229
728,4	523,286
728,8	522,4
729,3	520,229
729,7	514,286
730,1	512,857
730,6	510,029
731	503,829
731,5	499
731,9	491,914
732,3	487,029
732,8	491,6
733,2	488,714
733,6	485,486
734,1	485,914
734,5	482,114
734,9	482
735,4	482
735,8	476,571
736,3	479,971
736,7	478,343
737,1	479,257
737,6	478,657
738	473,257
738,4	469,057
738,9	469,571
739,3	461,714
739,7	461,686
740,2	455,771
740,6	457,543
741,1	457,914
741,5	452,143
741,9	444,057
742,4	443,943
742,8	440,829
743,2	440,143
743,7	429,314
744,1	421,057
744,5	419,829
745	419,343
745,4	411,943
745,8	404,571
746,3	404,771
746,7	400,971
747,2	403,286
747,6	406,8
748	405,257
748,5	406,143
748,9	403,857
749,3	397,4
749,8	404,086
750,2	399,8
750,6	396,057
751,1	392,886
751,5	389,429
751,9	390,514
752,4	389,429
752,8	383,629
753,3	383,314
753,7	381,143
754,1	375,886
754,6	373,2
755	369
755,4	367,057
755,9	362,229
756,3	358
756,7	354,029
757,2	352,943
757,6	350,4
758	350,743
758,5	344,143
758,9	342,314
759,3	341,229
759,8	338,2
760,2	335,714
760,6	334,429
761,1	329,429
761,5	333,8
761,9	332,514
762,4	327,6
762,8	324,343
763,3	321,657
763,7	322,086
764,1	320,514
764,6	314,657
765	310,971
765,4	312,771
765,9	310
766,3	310,686
766,7	304,514
767,2	299,571
767,6	300,886
768	298,057
768,5	293,514
768,9	296,429
769,3	290,314
769,8	287,2
770,2	291,143
770,6	282,686
771,1	284,314
771,5	283,6
771,9	283,229
772,4	290,829
772,8	292,686
773,2	289,2
773,7	291,143
774,1	289,429
774,5	281,514
775	276,686
775,4	273,771
775,8	270,743
776,3	267,971
776,7	266,086
777,1	266,543
777,6	273,486
778	272,657
778,4	265,229
778,9	267,686
779,3	263,771
779,7	267,657
780,2	267,143
780,6	262,571
781	257,514
781,5	252,743
781,9	250,086
782,3	248,857
782,8	243,286
783,2	235,943
783,6	241,229
784,1	238,8
784,5	239,914
784,9	236,571
785,4	242,314
785,8	237,8
786,2	239,657
786,7	233,114
787,1	234,114
787,5	232,543
788	231,257
788,4	225,057
788,8	224,486
789,3	222,429
789,7	221,086
790,1	219,114
790,6	217,686
791	212,229
791,4	212,057
791,9	205,686
792,3	200,914
792,7	200,457
793,2	196,429
793,6	197,314
794	203
794,5	195,657
794,9	203,943
795,3	207,343
795,8	204,829
796,2	206,057
796,6	205,086
797,1	198,657
797,5	200,343
797,9	192,2
798,4	186,714
798,8	183,086
799,2	181,314
799,7	179,514
800,1	178,886
800,5	179,4
801	182,971
801,4	181,514
801,8	179,229
802,2	178,486
802,7	175,543
803,1	170,514
803,5	168,743
804	161,229
804,4	164,029
804,8	165,457
805,3	168,486
805,7	167,714
806,1	170,143
806,6	172,343
807	177,086
807,4	171,057
807,9	165,886
808,3	164,343
808,7	163,629
809,2	167,429
809,6	165,714
810	159,086
810,4	157,543
810,9	160,714
811,3	159,429
811,7	159,571
812,2	157,286
812,6	154,086
813	161,543
813,5	165,2
813,9	161,629
814,3	156,514
814,8	155,286
815,2	146,829
815,6	142,171
816,1	140
816,5	135,343
816,9	134,6
817,3	134,8
817,8	134,886
818,2	138,743
818,6	142
819,1	136,943
819,5	135,171
819,9	134,686
820,4	131,286
820,8	127,171
821,2	122,143
821,7	121,457
822,1	124,371
822,5	129,343
822,9	128,429
823,4	128,571
823,8	126,714
824,2	130,143
824,7	126,914
825,1	119,143
825,5	108,971
826	107,114
826,4	106,543
826,8	106,343
827,3	109,029
827,7	105,571
828,1	109,314
828,5	114,257
829	107,429
829,4	108,8
829,8	105,429
830,3	101,086
830,7	101,229
831,1	100,829
831,6	102,371
832	107,2
832,4	104,714
832,8	112,086
833,3	106,4
833,7	105,829
834,1	101,657
834,6	99,314
835	104,571
835,4	106,257
835,8	99,257
836,3	103,086
836,7	103,943
837,1	105,857
837,6	104,286
838	98
838,4	94,229
838,9	95,286
839,3	88,486
839,7	86,114
840,1	82,257
840,6	80
841	80,257
841,4	81,257
841,9	79,143
842,3	80,4
842,7	80,686
843,1	82,486
843,6	84,657
844	86,6
844,4	92,086
844,9	95,857
845,3	95,343
845,7	93,571
846,2	91,4
846,6	87,371
847	85,829
847,4	81,314
847,9	80,914
848,3	80,429
848,7	79,171
849,2	79,8
849,6	79,8
850	81,343
850,4	79,029
850,9	76,771
851,3	83
851,7	86,971
852,2	85,229
852,6	91,4
853	92,914
853,4	90,4
853,9	86,486
854,3	81,343
854,7	79,486
855,2	75,657
855,6	70,714
856	63,8
856,4	59,143
856,9	56,143
857,3	57,771
857,7	54,686
858,2	60,229
858,6	58
859	59,686
859,4	64,6
859,9	67,657
860,3	62,914
860,7	66,143
861,1	68,257
861,6	67,343
862	64,143
862,4	61,2
862,9	60,971
863,3	68,371
863,7	66,486
864,1	64,4
864,6	67,657
865	65,143
865,4	66,771
865,9	67,4
866,3	60,4
866,7	57,029
867,1	53,857
867,6	51,857
868	53,514
868,4	51,314
868,8	50,486
869,3	49,857
869,7	54,2
870,1	52,686
870,6	50,371
871	-23
871,4	-18,629
871,8	-20,171
872,3	-17,629
872,7	-22,229
873,1	-23,314
873,5	-22,971
874	50,429
874,4	47,886
874,8	46,743
875,3	47,057
875,7	44,829
876,1	44,457
876,5	45,257
877	43,543
877,4	36,571
877,8	40,886
878,2	42,8
878,7	45,543
879,1	46,571
879,5	50,514
879,9	55,943
880,4	62,4
880,8	59,371
881,2	53,657
881,7	50,657
882,1	54,057
882,5	45,343
882,9	40,371
883,4	38,943
883,8	36,829
884,2	41,571
884,6	42,286
885,1	40,171
885,5	42,971
885,9	44,486
886,3	46,229
886,8	46,714
887,2	42,857
887,6	44,571
888	43,029
888,5	44,086
888,9	41,8
889,3	36,429
889,8	35,171
890,2	33,8
890,6	29,6
891	31,8
891,5	29,571
891,9	29,971
892,3	33,686
892,7	37,371
893,2	39,857
893,6	43,943
894	40,914
894,4	41,143
894,9	41,029
895,3	41,2
895,7	43,571
896,1	38,829
896,6	40,686
897	43,229
897,4	48,743
897,8	48,4
898,3	49,771
898,7	42,743
899,1	44,686
899,5	42,886
900	34,429
900,4	29,714
900,8	28,6
901,2	23,686
901,7	24,829
902,1	26,086
902,5	28,543
902,9	34,286
903,4	33,543
903,8	35,629
904,2	35,314
904,6	35,514
905,1	36,943
905,5	35,457
905,9	40,371
906,3	43,943
906,8	44,2
907,2	46,8
907,6	47,343
908	44,971
908,5	42,714
908,9	33,771
909,3	27,714
909,7	27,057
910,2	23,029
910,6	25,343
911	24,429
911,4	25,2
911,9	27,171
912,3	28,486
912,7	30,8
913,1	36,457
913,6	30,457
914	30,086
914,4	26,571
914,8	29,2
915,3	28,029
915,7	23,429
916,1	21,914
916,5	28,114
916,9	31,2
917,4	34,771
917,8	33,571
918,2	31,429
918,6	30,943
919,1	30,8
919,5	28,029
919,9	23,886
920,3	22,029
920,8	20,714
921,2	21,829
921,6	21,914
922	22,314
922,5	19,457
922,9	20,629
923,3	17,629
923,7	20,914
924,2	20,171
924,6	23,343
925	20,4
925,4	23,743
925,8	28,286
926,3	28,371
926,7	25,343
927,1	29,343
927,5	26,486
928	25,8
928,4	24
928,8	21,886
929,2	23,4
929,7	22,4
930,1	23,2
930,5	21
930,9	24,971
931,3	26,2
931,8	23,2
932,2	22,057
932,6	22,229
933	15,114
933,5	17,6
933,9	17,543
934,3	18,343
934,7	14,086
935,2	17,943
935,6	18,457
936	17,829
936,4	20,229
936,8	17,886
937,3	13,314
937,7	17,771
938,1	16,886
938,5	11,029
939	16,114
939,4	13,229
939,8	15,057
940,2	16
940,6	19,857
941,1	21,086
941,5	28
941,9	25,314
942,3	24,029
942,8	20,914
943,2	23,343
943,6	16,029
944	14,686
944,4	15,543
944,9	15,6
945,3	16,371
945,7	13,629
946,1	12,886
946,6	12,543
947	11,971
947,4	17,857
947,8	20
948,2	17,514
948,7	22,086
949,1	23,229
949,5	29,543
949,9	28,457
950,3	19,486
950,8	20,543
951,2	19,629
951,6	13,743
952	13,743
952,5	9,971
952,9	8,771
953,3	10,371
953,7	7,543
954,1	14,971
954,6	19,429
955	18,914
955,4	17,086
955,8	24,6
956,2	23,743
956,7	27,257
957,1	24,943
957,5	25,686
957,9	22,514
958,3	20,029
958,8	15,743
959,2	16,971
959,6	15,8
960	12,143
960,5	15,686
960,9	18,857
961,3	18,029
961,7	15,657
962,1	15,343
962,6	16,143
963	17,886
963,4	12,171
963,8	11,914
964,2	16,429
964,7	15,057
965,1	15,514
965,5	14,829
965,9	14,286
966,3	16,686
966,8	12,971
967,2	11,314
967,6	11,543
968	9,571
968,4	8,257
968,9	6,686
969,3	11,771
969,7	11,6
970,1	15,057
970,5	15,514
971	18,171
971,4	17,743
971,8	22,143
972,2	18,114
972,6	21,4
973,1	17,943
973,5	17,829
973,9	20,8
974,3	19,257
974,7	22,343
975,2	23,286
975,6	19,429
976	22,429
976,4	17,686
976,8	13,343
977,3	17,714
977,7	8,886
978,1	9,971
978,5	8,8
978,9	4
979,4	9,029
979,8	8,486
980,2	5,6
980,6	4,771
981	2,543
981,5	6,171
981,9	9,514
982,3	8,514
982,7	10,543
983,1	8,771
983,6	13,629
984	14,257
984,4	14,971
984,8	16,771
985,2	16,857
985,6	10,714
986,1	11,314
986,5	7,657
986,9	-1,286
987,3	-2,229
987,7	-2,086
988,2	-0,971
988,6	5,657
989	6,943
989,4	13,086
989,8	17
990,3	15,914
990,7	12,4
991,1	14,143
991,5	13,886
991,9	14,971
992,3	13,914
992,8	19
993,2	19,114
993,6	24,057
994	23,743
994,4	17,8
994,9	14,914
995,3	13,029
995,7	9,886
996,1	12,086
996,5	6,886
996,9	4,886
997,4	7,543
997,8	5,657
998,2	0,286
998,6	-4,171
999	-8,343
999,5	-3,571
999,9	-3
1000,3	-5,8
1000,7	-1,4
1001,1	0,029
1001,5	7,686
1002	14,686
1002,4	12,657
1002,8	12,543
1003,2	18,857
1003,6	18,914
1004	26,914
1004,5	21
1004,9	19,514
1005,3	14,571
1005,7	18,114
1006,1	14,086
1006,6	11,971
1007	5,971
1007,4	6,971
1007,8	3,943
1008,2	6,714
1008,6	7,2
1009,1	6,543
1009,5	7,229
1009,9	11,257
1010,3	12,486
1010,7	14,343
1011,1	14,829
1011,6	14,8
1012	19,629
1012,4	21,4
1012,8	20,429
1013,2	21,914
1013,6	21,4
1014,1	25,143
1014,5	20,229
1014,9	18,914
1015,3	15,686
1015,7	16,057
1016,1	13,371
1016,6	17,257
1017	17,143
1017,4	18,486
1017,8	14,543
1018,2	18,6
1018,6	14,8
1019,1	11,8
1019,5	9
1019,9	0,371
1020,3	1,4
1020,7	5,429
1021,1	0,743
1021,6	0,943
1022	8,4
1022,4	5,886
1022,8	11,857
1023,2	8,571
1023,6	6,657
1024,1	12,943
1024,5	15,971
1024,9	9,371
1025,3	9,343
1025,7	8,2
1026,1	12,486
1026,6	12,571
1027	10,371
1027,4	12,657
1027,8	15,086
1028,2	16,114
1028,6	21,171
1029	18,029
1029,5	21,771
1029,9	18,657
1030,3	11,886
1030,7	12,543
1031,1	17,429
1031,5	14,886
1032	16,829
1032,4	14,314
1032,8	17,086
1033,2	21,114
1033,6	19,657
1034	13,114
1034,4	10,8
1034,9	13,743
1035,3	11,514
1035,7	12,114
1036,1	9,886
1036,5	12,286
1036,9	14,571
1037,4	14,886
1037,8	6,771
1038,2	7,143
1038,6	8,086
1039	11,371
1039,4	14,8
1039,8	8,4
1040,3	12,343
1040,7	18,114
1041,1	24,371
1041,5	21,171
1041,9	19
1042,3	14,686
1042,7	21,171
1043,2	19,6
1043,6	16,371
1044	9,829
1044,4	11,943
1044,8	14,029
1045,2	14,143
1045,6	12,4
1046,1	11,6
1046,5	10,914
1046,9	10,914
1047,3	9,771
1047,7	6,229
1048,1	2,457
1048,5	3,429
1049	7,886
1049,4	12,229
1049,8	15,371
1050,2	16,743
1050,6	21,2
1051	23,914
1051,4	25,143
1051,9	17,114
1052,3	24,857
1052,7	21,657
1053,1	21,314
1053,5	19,943
1053,9	21,8
1054,3	20,714
1054,8	27,886
1055,2	20,8
1055,6	22,229
1056	17,514
1056,4	18,943
1056,8	19,2
1057,2	15,629
1057,6	10,086
1058,1	8,229
1058,5	6,743
1058,9	10,314
1059,3	9,686
1059,7	11,229
1060,1	16,029
1060,5	17,971
1061	15,829
1061,4	15
1061,8	21,429
1062,2	20,571
1062,6	19,429
1063	20,029
1063,4	17,314
1063,8	17,743
1064,3	19,343
1064,7	14,886
1065,1	15,514
1065,5	12,086
1065,9	10,2
1066,3	12,771
1066,7	10,543
1067,1	11,486
1067,6	9,429
1068	2,943
1068,4	7
1068,8	7,543
1069,2	7,543
1069,6	9,457
1070	10,943
1070,4	6,914
1070,9	9,514
1071,3	7,343
1071,7	3,771
1072,1	3,571
1072,5	1,6
1072,9	-1,4
1073,3	6,371
1073,7	4,943
1074,2	2,571
1074,6	9,343
1075	8,457
1075,4	11,6
1075,8	14,657
1076,2	7,886
1076,6	11,543
1077	11,657
1077,5	8,771
1077,9	5,857
1078,3	3,4
1078,7	1,6
1079,1	9,4
1079,5	8,514
1079,9	14,4
1080,3	15,971
1080,7	19,229
1081,2	26,343
1081,6	27,8
1082	22
1082,4	25,4
1082,8	22
1083,2	19,629
1083,6	20,514
1084	13,657
1084,5	10,143
1084,9	10,6
1085,3	4,286
1085,7	5,971
1086,1	3,886
1086,5	5,629
1086,9	9,829
1087,3	9,486
1087,7	7,657
1088,2	11,514
1088,6	8,057
1089	11,171
1089,4	7,086
1089,8	5,029
1090,2	3,571
1090,6	8,229
1091	9,543
1091,4	14,686
1091,9	15
1092,3	16,714
1092,7	13,771
1093,1	13,914
1093,5	10,743
1093,9	7,943
1094,3	9,543
1094,7	4,143
1095,1	5,029
1095,5	9,6
1096	11,286
1096,4	12,829
1096,8	10,943
1097,2	5,086
1097,6	12,429
1098	13,6
1098,4	14,314
1098,8	14,686
1099,2	17
1099,6	17,343
1100,1	19,714
1100,5	16,629
1100,9	15,343
1101,3	14,257
1101,7	17
1102,1	13,714
1102,5	16,229
1102,9	15,714
1103,3	19,714
1103,7	18,886
1104,2	18,629
1104,6	13,457
1105	12,086
1105,4	12,257
1105,8	9,829
1106,2	4,229
1106,6	2,6
1107	0,314
1107,4	2,1
1107,8	2,92
1108,3	0,3
