Data from Subt2_058.txt Node
Date: Sat Aug 26 16:30:59 MSK 2023
User: vat
Spectrometer: MAYP114033
Trigger mode: 0
Integration Time (sec): 1,000000E0
Scans to average: 5
Electric dark correction enabled: true
Nonlinearity correction enabled: false
Boxcar width: 3
XAxis mode: Wavelengths
Number of Pixels in Spectrum: 2068
>>>>>Begin Spectral Data<<<<<
199,4	-0,283
199,9	-3,153
200,4	-1,033
200,8	-3,719
201,3	0,11
201,8	3,681
202,2	1,967
202,7	4,538
203,2	4,395
203,6	4,567
204,1	8,367
204,6	8,367
205	6,052
205,5	6,281
206	5,138
206,4	8,652
206,9	6,395
207,4	8,767
207,8	4,91
208,3	3,567
208,8	8,367
209,2	9,252
209,7	7,052
210,2	10,652
210,6	10,338
211,1	10,367
211,5	8,167
212	0,738
212,5	-4,805
212,9	-2,519
213,4	-5,662
213,9	-10,405
214,3	-6,548
214,8	-0,948
215,3	5,024
215,7	5,338
216,2	6,281
216,7	5,71
217,1	6,881
217,6	5,424
218,1	3,052
218,5	4,567
219	13,824
219,5	12,424
219,9	13,91
220,4	11,567
220,9	13,367
221,3	12,567
221,8	6,795
222,3	-0,262
222,7	-2,519
223,2	0,395
223,6	3,052
224,1	3,281
224,6	4,567
225	7,624
225,5	16,024
226	15,452
226,4	17,338
226,9	16,767
227,4	13,338
227,8	13,252
228,3	15,824
228,8	6,995
229,2	9,595
229,7	4,081
230,2	9,624
230,6	7,567
231,1	9,567
231,5	7,852
232	15,652
232,5	15,767
232,9	12,081
233,4	7,881
233,9	7,51
234,3	6,081
234,8	5,881
235,3	0,31
235,7	2,567
236,2	3,995
236,7	4,938
237,1	8,138
237,6	4,824
238,1	3,024
238,5	3,052
239	1,652
239,4	8,538
239,9	4,681
240,4	5,91
240,8	7,052
241,3	5,395
241,8	3,395
242,2	-4,748
242,7	-3,948
243,2	1,024
243,6	-0,748
244,1	-0,69
244,6	-1,662
245	0,081
245,5	4,767
245,9	1,852
246,4	-2,233
246,9	-2,062
247,3	0,824
247,8	4,51
248,3	5,338
248,7	12,081
249,2	6,824
249,7	10,995
250,1	10,795
250,6	5,938
251	6,567
251,5	3,224
252	0,338
252,4	2,71
252,9	2,052
253,4	0,367
253,8	2,567
254,3	3,652
254,8	6,081
255,2	6,252
255,7	7,567
256,1	7,024
256,6	10,167
257,1	12,91
257,5	13,852
258	13,824
258,5	10,967
258,9	12,938
259,4	13,767
259,9	14,452
260,3	6,71
260,8	3,795
261,2	8,224
261,7	11,738
262,2	9,767
262,6	10,11
263,1	7,51
263,6	18,71
264	19,938
264,5	20,424
264,9	19,538
265,4	20,452
265,9	20,795
266,3	21,595
266,8	12,595
267,3	16,51
267,7	9,138
268,2	8,824
268,7	7,452
269,1	4,31
269,6	7,167
270	12,51
270,5	11,024
271	14,824
271,4	10,281
271,9	12,052
272,4	12,824
272,8	4,71
273,3	3,424
273,7	-1,376
274,2	-3,633
274,7	0,567
275,1	-3,033
275,6	-0,805
276,1	5,881
276,5	5,252
277	7,481
277,4	10,167
277,9	9,538
278,4	15,195
278,8	17,338
279,3	15,138
279,8	20,224
280,2	17,138
280,7	14,567
281,1	15,91
281,6	12,595
282,1	8,138
282,5	13,367
283	6,224
283,4	4,91
283,9	2,738
284,4	5,424
284,8	8,824
285,3	6,738
285,8	-1,719
286,2	0,51
286,7	4,652
287,1	7,367
287,6	5,91
288,1	4,338
288,5	10,852
289	17,881
289,5	16,51
289,9	16,052
290,4	15,767
290,8	16,995
291,3	12,51
291,8	11,681
292,2	10,595
292,7	12,081
293,1	14,824
293,6	14,481
294,1	4,852
294,5	11,195
295	5,224
295,5	4,967
295,9	6,938
296,4	7,624
296,8	7,824
297,3	13,995
297,8	11,052
298,2	11,738
298,7	7,595
299,1	6,51
299,6	4,252
300,1	3,138
300,5	5,31
301	7,338
301,5	10,11
301,9	10,424
302,4	7,595
302,8	9,081
303,3	8,824
303,8	1,652
304,2	-2,748
304,7	-3,976
305,1	0,252
305,6	-0,033
306,1	-4,29
306,5	-0,776
307	3,081
307,4	5,51
307,9	5,595
308,4	5,795
308,8	14,138
309,3	14,767
309,8	15,538
310,2	15,91
310,7	18,624
311,1	13,71
311,6	10,624
312,1	6,738
312,5	6,138
313	3,995
313,4	4,624
313,9	4,767
314,4	5,881
314,8	8,824
315,3	6,052
315,7	8,967
316,2	11,51
316,7	12,767
317,1	9,567
317,6	10,51
318	11,224
318,5	16,31
319	16,852
319,4	13,395
319,9	10,452
320,3	9,881
320,8	13,31
321,3	10,11
321,7	6,138
322,2	7,252
322,6	5,167
323,1	7,767
323,6	6,224
324	5,938
324,5	4,51
324,9	5,538
325,4	2,51
325,9	11,652
326,3	11,31
326,8	12,167
327,2	10,452
327,7	15,11
328,2	11,252
328,6	12,11
329,1	6,795
329,5	10,367
330	11,138
330,5	10,31
330,9	6,138
331,4	2,452
331,8	3,624
332,3	6,081
332,8	2,995
333,2	1,367
333,7	5,395
334,1	10,738
334,6	17,595
335,1	14,852
335,5	10,738
336	6,624
336,4	6,595
336,9	7,71
337,4	4,824
337,8	6,281
338,3	9,91
338,7	9,938
339,2	16,852
339,7	18,71
340,1	15,338
340,6	14,567
341	15,31
341,5	14,024
342	12,767
342,4	6,195
342,9	2,281
343,3	3,91
343,8	7,024
344,2	7,11
344,7	5,024
345,2	3,395
345,6	7,995
346,1	13,738
346,5	13,224
347	13,395
347,5	7,795
347,9	11,31
348,4	17,024
348,8	17,338
349,3	17,081
349,8	20,281
350,2	16,252
350,7	21,681
351,1	19,595
351,6	19,738
352	22,024
352,5	24,51
353	27,395
353,4	35,538
353,9	44,452
354,3	59,395
354,8	68,938
355,3	82,224
355,7	97,51
356,2	116,224
356,6	138,595
357,1	157,51
357,5	177,138
358	211,538
358,5	249,195
358,9	290,195
359,4	332,224
359,8	374,224
360,3	431,11
360,8	492,824
361,2	563,567
361,7	636,195
362,1	719,738
362,6	815,252
363	917,31
363,5	1025,395
364	1135,881
364,4	1246,024
364,9	1354,767
365,3	1458,024
365,8	1558,481
366,3	1656,11
366,7	1742,881
367,2	1822,995
367,6	1878,767
368,1	1928,367
368,5	1961,795
369	1981,367
369,5	1983,538
369,9	1965,71
370,4	1932,424
370,8	1893,167
371,3	1837,31
371,7	1773,138
372,2	1700,452
372,7	1614,881
373,1	1530,052
373,6	1442,052
374	1350,824
374,5	1264,224
374,9	1179,195
375,4	1091,252
375,9	1018,195
376,3	939,995
376,8	869,31
377,2	805,852
377,7	738,938
378,2	681,852
378,6	627,367
379,1	573,567
379,5	529,11
380	490,081
380,4	450,71
380,9	419,424
381,4	384,367
381,8	357,081
382,3	331,624
382,7	304,567
383,2	275,195
383,6	254,195
384,1	235,624
384,6	217,51
385	201,11
385,5	185,338
385,9	176,481
386,4	168,595
386,8	160,995
387,3	147,738
387,7	144,652
388,2	136,624
388,7	128,738
389,1	119,51
389,6	113,881
390	103,138
390,5	96,91
390,9	93,681
391,4	87,824
391,9	83,595
392,3	75,995
392,8	72,338
393,2	68,338
393,7	70,967
394,1	68,538
394,6	65,252
395,1	66,624
395,5	69,195
396	63,967
396,4	66,252
396,9	65,167
397,3	55,281
397,8	54,367
398,2	49,881
398,7	43,567
399,2	44,31
399,6	45,624
400,1	36,91
400,5	37,91
401	42,367
401,4	41,652
401,9	46,338
402,4	46,281
402,8	40,567
403,3	44,51
403,7	44,395
404,2	36,795
404,6	36,567
405,1	29,767
405,5	25,624
406	24,367
406,5	24,538
406,9	23,795
407,4	26,224
407,8	26,624
408,3	34,338
408,7	42,367
409,2	49,252
409,6	48,338
410,1	54,481
410,6	59,395
411	60,195
411,5	57,881
411,9	54,11
412,4	52,938
412,8	56,881
413,3	56,681
413,7	55,881
414,2	59,652
414,7	71,681
415,1	76,081
415,6	81,967
416	87,11
416,5	89,052
416,9	93,767
417,4	97,995
417,8	93,167
418,3	96,367
418,8	93,281
419,2	96,538
419,7	102,024
420,1	97,51
420,6	98,081
421	100,481
421,5	100,538
421,9	104,452
422,4	102,367
422,8	100,538
423,3	103,452
423,8	105,91
424,2	106,624
424,7	107,138
425,1	104,224
425,6	104,51
426	108,452
426,5	109,71
426,9	109,024
427,4	107,595
427,9	108,738
428,3	110,738
428,8	114,91
429,2	110,51
429,7	107,195
430,1	104,252
430,6	102,252
431	98,995
431,5	100,567
431,9	97,252
432,4	102,024
432,8	108,052
433,3	111,967
433,8	117,367
434,2	122,595
434,7	122,138
435,1	129,081
435,6	132,195
436	135,767
436,5	142,338
436,9	147,538
437,4	153,452
437,8	160,224
438,3	163,338
438,8	166,281
439,2	170,938
439,7	170,452
440,1	178,338
440,6	185,452
441	194,395
441,5	201,71
441,9	209,395
442,4	222,852
442,8	235,367
443,3	243,51
443,7	245,795
444,2	254,452
444,7	263,681
445,1	275,51
445,6	282,824
446	292,967
446,5	301,967
446,9	321,338
447,4	334,795
447,8	347,31
448,3	363,567
448,7	377,11
449,2	388,367
449,6	404,138
450,1	420,395
450,6	438,424
451	452,481
451,5	464,51
451,9	483,424
452,4	505,881
452,8	527,195
453,3	539,595
453,7	554,91
454,2	574,367
454,6	599,11
455,1	615,767
455,5	637,481
456	659,252
456,4	685,195
456,9	706,31
457,3	739,081
457,8	760,052
458,3	787,967
458,7	814,052
459,2	834,824
459,6	862,138
460,1	891,11
460,5	915,31
461	940,795
461,4	970,138
461,9	994,31
462,3	1023,424
462,8	1054,31
463,2	1085,167
463,7	1111,567
464,1	1143,51
464,6	1169,995
465	1205,881
465,5	1244,71
466	1277,31
466,4	1310,024
466,9	1347,652
467,3	1378,024
467,8	1416,338
468,2	1447,138
468,7	1482,652
469,1	1513,624
469,6	1546,052
470	1578,652
470,5	1615,91
470,9	1653,824
471,4	1689,624
471,8	1717,852
472,3	1753,024
472,7	1786,795
473,2	1816,395
473,6	1851,367
474,1	1878,367
474,5	1907,71
475	1945,31
475,4	1974,624
475,9	2013,824
476,4	2048,281
476,8	2084,167
477,3	2123,081
477,7	2165,91
478,2	2198,31
478,6	2238,138
479,1	2265,481
479,5	2301,91
480	2334,081
480,4	2362,595
480,9	2390,795
481,3	2415,424
481,8	2444,224
482,2	2474,252
482,7	2499,51
483,1	2530,024
483,6	2553,938
484	2575,367
484,5	2607,367
484,9	2631,11
485,4	2651,452
485,8	2668,51
486,3	2686,995
486,7	2712,938
487,2	2734,881
487,6	2752,252
488,1	2771,081
488,5	2795,567
489	2814,738
489,4	2829,11
489,9	2843,738
490,4	2863,31
490,8	2883,252
491,3	2898,224
491,7	2911,252
492,2	2931,252
492,6	2948,652
493,1	2962,624
493,5	2968,71
494	2982,624
494,4	2992,052
494,9	3001,967
495,3	3017,767
495,8	3029,481
496,2	3041,31
496,7	3050,595
497,1	3057,767
497,6	3065,424
498	3075,224
498,5	3076,795
498,9	3079,624
499,4	3081,195
499,8	3089,052
500,3	3089,338
500,7	3095,881
501,2	3103,795
501,6	3108,567
502,1	3112,824
502,5	3115,367
503	3128,252
503,4	3129,738
503,9	3137,967
504,3	3136,881
504,8	3139,795
505,2	3140,938
505,7	3148,595
506,1	3145,167
506,6	3147,71
507	3143,652
507,5	3141,281
507,9	3146,338
508,4	3150,395
508,8	3141,395
509,3	3142,767
509,7	3139,681
510,2	3138,795
510,6	3142,224
511,1	3136,424
511,5	3134,081
512	3135,652
512,4	3132,395
512,9	3131,452
513,3	3137,167
513,8	3136,881
514,2	3138,71
514,7	3136,481
515,1	3138,024
515,6	3135,224
516	3137,538
516,5	3131,595
516,9	3123,624
517,4	3117,71
517,8	3113,481
518,3	3110,338
518,7	3108,281
519,2	3108,081
519,6	3108,195
520,1	3110,795
520,5	3111,852
521	3113,595
521,4	3110,51
521,9	3116,681
522,3	3114,995
522,8	3113,624
523,2	3114,338
523,7	3114,624
524,1	3111,252
524,6	3110,224
525	3104,224
525,5	3102,595
525,9	3102,281
526,4	3102,367
526,8	3099,852
527,3	3106,024
527,7	3116,11
528,2	3114,11
528,6	3122,824
529,1	3119,995
529,5	3121,11
530	3118,681
530,4	3114,852
530,9	3113,052
531,3	3113,138
531,8	3106,481
532,2	3108,995
532,6	3109,024
533,1	3110,567
533,5	3114,052
534	3112,881
534,4	3116,681
534,9	3122,738
535,3	3129,081
535,8	3130,31
536,2	3132,91
536,7	3132,481
537,1	3134,367
537,6	3138,481
538	3136,367
538,5	3131,91
538,9	3138,452
539,4	3143,024
539,8	3147,481
540,3	3148,138
540,7	3147,367
541,2	3147,652
541,6	3155,91
542,1	3154,767
542,5	3156,91
543	3155,195
543,4	3162,052
543,9	3163,795
544,3	3168,481
544,8	3170,567
545,2	3170,167
545,7	3171,91
546,1	3181,424
546,5	3183,367
547	3187,795
547,4	3189,71
547,9	3189,51
548,3	3196,881
548,8	3198,281
549,2	3202,852
549,7	3212,452
550,1	3219,024
550,6	3218,31
551	3226,995
551,5	3225,167
551,9	3236,138
552,4	3237,567
552,8	3240,595
553,3	3245,281
553,7	3253,824
554,2	3257,51
554,6	3260,195
555,1	3264,538
555,5	3270,052
555,9	3272,824
556,4	3273,081
556,8	3275,424
557,3	3275,51
557,7	3283,938
558,2	3285,481
558,6	3291,681
559,1	3285,252
559,5	3286,252
560	3288,51
560,4	3290,967
560,9	3294,224
561,3	3298,624
561,8	3297,11
562,2	3304,167
562,7	3311,681
563,1	3317,452
563,6	3322,424
564	3327,395
564,4	3328,167
564,9	3322,224
565,3	3326,31
565,8	3326,595
566,2	3328,11
566,7	3321,052
567,1	3317,081
567,6	3316,995
568	3323,024
568,5	3328,395
568,9	3325,31
569,4	3324,052
569,8	3325,281
570,3	3329,681
570,7	3322,881
571,1	3322,681
571,6	3315,31
572	3317,481
572,5	3324,338
572,9	3333,652
573,4	3332,395
573,8	3339,824
574,3	3343,681
574,7	3343,51
575,2	3345,824
575,6	3340,424
576,1	3335,795
576,5	3334,452
576,9	3335,338
577,4	3334,424
577,8	3333,767
578,3	3320,195
578,7	3316,71
579,2	3317,795
579,6	3318,852
580,1	3313,052
580,5	3304,995
581	3299,681
581,4	3308,624
581,9	3302,338
582,3	3292,538
582,7	3283,11
583,2	3276,595
583,6	3271,338
584,1	3266,024
584,5	3257,938
585	3257,938
585,4	3259,567
585,9	3261,395
586,3	3257,11
586,8	3247,824
587,2	3246,567
587,6	3245,424
588,1	3240,51
588,5	3232,652
589	3218,395
589,4	3215,652
589,9	3213,681
590,3	3205,624
590,8	3198,51
591,2	3189,995
591,7	3179,767
592,1	3182,195
592,5	3176,967
593	3171,738
593,4	3163,224
593,9	3153,11
594,3	3146,71
594,8	3147,367
595,2	3143,338
595,7	3141,224
596,1	3140,538
596,6	3144,881
597	3149,452
597,4	3143,51
597,9	3134,452
598,3	3124,195
598,8	3114,31
599,2	3109,967
599,7	3092,595
600,1	3081,081
600,6	3072,881
601	3067,71
601,4	3064,138
601,9	3057,395
602,3	3047,967
602,8	3049,995
603,2	3044,51
603,7	3046,224
604,1	3040,738
604,6	3030,795
605	3021,538
605,4	3018,795
605,9	3008,738
606,3	2999,452
606,8	2990,595
607,2	2982,167
607,7	2977,452
608,1	2971,938
608,6	2960,252
609	2951,852
609,4	2942,052
609,9	2931,281
610,3	2922,738
610,8	2915,252
611,2	2905,71
611,7	2892,224
612,1	2883,138
612,6	2871,395
613	2865,452
613,4	2856,367
613,9	2843,595
614,3	2837,195
614,8	2829,195
615,2	2820,852
615,7	2819,024
616,1	2807,481
616,6	2794,881
617	2786,738
617,4	2774,195
617,9	2765,881
618,3	2760,738
618,8	2748,995
619,2	2741,252
619,7	2736,195
620,1	2719,767
620,5	2708,767
621	2700,567
621,4	2687,767
621,9	2677,967
622,3	2661,081
622,8	2650,624
623,2	2639,71
623,6	2630,138
624,1	2617,71
624,5	2608,624
625	2590,024
625,4	2583,71
625,9	2568,652
626,3	2559,081
626,8	2546,824
627,2	2535,824
627,6	2524,024
628,1	2517,767
628,5	2503,31
629	2495,195
629,4	2481,595
629,9	2468,138
630,3	2457,452
630,7	2446,367
631,2	2431,252
631,6	2425,024
632,1	2412,395
632,5	2411,281
633	2400,767
633,4	2384,338
633,8	2370,595
634,3	2360,538
634,7	2348,881
635,2	2339,452
635,6	2325,024
636,1	2325,595
636,5	2317,195
636,9	2306,452
637,4	2294,91
637,8	2278,852
638,3	2265,567
638,7	2257,567
639,2	2236,481
639,6	2228,31
640	2213,395
640,5	2206,224
640,9	2195,481
641,4	2182,795
641,8	2166,424
642,2	2160,681
642,7	2145,138
643,1	2142,967
643,6	2136,081
644	2129,624
644,5	2124,538
644,9	2114,367
645,3	2097,852
645,8	2089,967
646,2	2076,681
646,7	2062,738
647,1	2056,338
647,6	2045,195
648	2035,767
648,4	2030,738
648,9	2018,31
649,3	2007,452
649,8	1996,767
650,2	1980,338
650,6	1967,538
651,1	1964,052
651,5	1956,795
652	1951,824
652,4	1941,567
652,9	1934,367
653,3	1931,024
653,7	1922,967
654,2	1911,138
654,6	1896,652
655,1	1884,31
655,5	1877,681
655,9	1861,11
656,4	1848,395
656,8	1838,538
657,3	1821,824
657,7	1808,624
658,2	1803,91
658,6	1790,138
659	1784,024
659,5	1775,767
659,9	1767,91
660,4	1762,167
660,8	1755,452
661,2	1745,538
661,7	1739,081
662,1	1730,11
662,6	1714,681
663	1705,252
663,4	1692,024
663,9	1680,052
664,3	1671,652
664,8	1659,71
665,2	1653,91
665,6	1645,71
666,1	1627,624
666,5	1620,424
667	1606,938
667,4	1595,195
667,9	1581,795
668,3	1569,995
668,7	1563,995
669,2	1559,367
669,6	1552,652
670,1	1546,767
670,5	1533,91
670,9	1528,281
671,4	1515,738
671,8	1507,652
672,3	1501,595
672,7	1488,395
673,1	1480,995
673,6	1475,852
674	1470,452
674,5	1465,11
674,9	1452,71
675,3	1443,281
675,8	1439,91
676,2	1435,167
676,7	1432,795
677,1	1424,967
677,5	1416,338
678	1410,995
678,4	1402,138
678,9	1392,395
679,3	1383,91
679,7	1370,881
680,2	1357,738
680,6	1347,852
681,1	1335,424
681,5	1326,481
681,9	1316,452
682,4	1314,681
682,8	1301,167
683,3	1292,024
683,7	1284,281
684,1	1279,395
684,6	1273,681
685	1263,31
685,5	1248,052
685,9	1241,652
686,3	1237,567
686,8	1232,338
687,2	1225,852
687,7	1215,824
688,1	1215,395
688,5	1208,938
689	1202,195
689,4	1197,795
689,9	1188,538
690,3	1182,367
690,7	1173,624
691,2	1165,424
691,6	1159,995
692	1151,195
692,5	1135,052
692,9	1128,481
693,4	1119,567
693,8	1116,71
694,2	1104,824
694,7	1096,767
695,1	1091,995
695,6	1091,424
696	1085,91
696,4	1077,795
696,9	1070,852
697,3	1068,652
697,8	1058,024
698,2	1051,424
698,6	1042,338
699,1	1032,767
699,5	1026,624
699,9	1019,424
700,4	1012,881
700,8	1011,767
701,3	1004,138
701,7	997,91
702,1	994,052
702,6	989,395
703	978,967
703,5	964,538
703,9	956,138
704,3	952,167
704,8	949,71
705,2	943,452
705,6	934,138
706,1	937,652
706,5	940,224
707	932,224
707,4	929,024
707,8	923,024
708,3	916,024
708,7	915,31
709,2	904,367
709,6	901,224
710	896,167
710,5	885,767
710,9	880,11
711,3	874,252
711,8	863,395
712,2	858,967
712,7	848,081
713,1	845,195
713,5	839,738
714	836,138
714,4	829,767
714,8	830,481
715,3	823,281
715,7	817,167
716,2	811,11
716,6	810,081
717	800,881
717,5	798,938
717,9	790,881
718,3	786,052
718,8	780,224
719,2	773,51
719,7	766,424
720,1	759,31
720,5	751,91
721	742,995
721,4	739,481
721,8	735,538
722,3	723,624
722,7	714,367
723,2	708,51
723,6	704,367
724	701,024
724,5	692,538
724,9	684,11
725,3	683,367
725,8	681,081
726,2	676,252
726,7	671,51
727,1	665,024
727,5	665,51
728	668,11
728,4	663,195
728,8	661,252
729,3	660,795
729,7	654,138
730,1	654,767
730,6	643,824
731	639,795
731,5	638,51
731,9	636,195
732,3	633,11
732,8	634,252
733,2	631,252
733,6	633,795
734,1	628,881
734,5	621,681
734,9	614,967
735,4	612,624
735,8	608,081
736,3	601,395
736,7	595,424
737,1	589,767
737,6	587,824
738	586,852
738,4	580,767
738,9	577,167
739,3	572,995
739,7	570,852
740,2	564,138
740,6	562,967
741,1	557,338
741,5	556,252
741,9	547,795
742,4	542,052
742,8	543,31
743,2	546,452
743,7	546,167
744,1	539,081
744,5	536,224
745	535,195
745,4	537,081
745,8	529,11
746,3	524,338
746,7	515,395
747,2	516,938
747,6	512,224
748	512,595
748,5	506,881
748,9	501,681
749,3	499,195
749,8	497,795
750,2	492,995
750,6	490,967
751,1	490,852
751,5	486,052
751,9	488,138
752,4	485,224
752,8	481,167
753,3	478,424
753,7	475,052
754,1	467,224
754,6	468,71
755	459,452
755,4	456,395
755,9	456,252
756,3	452,224
756,7	444,824
757,2	443,081
757,6	439,195
758	431,595
758,5	425,881
758,9	418,824
759,3	417,31
759,8	422,567
760,2	420,195
760,6	418,052
761,1	419,767
761,5	418,767
761,9	417,481
762,4	412,252
762,8	405,11
763,3	399,681
763,7	393,995
764,1	392,138
764,6	388,824
765	387,052
765,4	390,281
765,9	384,424
766,3	382,567
766,7	380,481
767,2	380,281
767,6	375,424
768	374,224
768,5	369,967
768,9	369,338
769,3	366,852
769,8	365,881
770,2	366,652
770,6	364,767
771,1	361,652
771,5	358,052
771,9	352,138
772,4	354,367
772,8	351,938
773,2	344,052
773,7	347,024
774,1	349,338
774,5	349,852
775	351,738
775,4	348,481
775,8	349,91
776,3	348,795
776,7	345,367
777,1	347,252
777,6	340,052
778	340,995
778,4	336,081
778,9	331,138
779,3	330,938
779,7	327,595
780,2	317,795
780,6	318,395
781	313,424
781,5	312,395
781,9	310,738
782,3	305,995
782,8	298,595
783,2	295,338
783,6	289,738
784,1	290,195
784,5	284,681
784,9	281,538
785,4	282,567
785,8	282,195
786,2	279,652
786,7	280,652
787,1	273,51
787,5	275,395
788	272,624
788,4	267,795
788,8	266,338
789,3	269,424
789,7	265,881
790,1	265,681
790,6	266,481
791	265,167
791,4	262,024
791,9	264,767
792,3	256,338
792,7	259,881
793,2	255,881
793,6	254,081
794	252,452
794,5	252,538
794,9	253,11
795,3	255,881
795,8	250,624
796,2	253,538
796,6	246,538
797,1	239,138
797,5	238,195
797,9	230,91
798,4	227,852
798,8	227,195
799,2	225,195
799,7	227,424
800,1	228,881
800,5	226,738
801	226,338
801,4	222,481
801,8	219,71
802,2	215,367
802,7	210,31
803,1	208,824
803,5	209,224
804	208,852
804,4	207,567
804,8	209,138
805,3	202,652
805,7	204,852
806,1	206,195
806,6	201,424
807	199,995
807,4	199,195
807,9	197,538
808,3	200,595
808,7	194,995
809,2	193,024
809,6	197,338
810	196,567
810,4	197,424
810,9	191,31
811,3	190,224
811,7	194,024
812,2	195,224
812,6	189,881
813	186,938
813,5	184,11
813,9	182,481
814,3	180,052
814,8	178,852
815,2	171,738
815,6	168,738
816,1	166,538
816,5	164,252
816,9	166,252
817,3	168,595
817,8	169,795
818,2	166,052
818,6	167,424
819,1	167,081
819,5	165,167
819,9	157,081
820,4	153,624
820,8	141,595
821,2	147,367
821,7	146,538
822,1	144,967
822,5	145,452
822,9	152,138
823,4	149,452
823,8	149,824
824,2	148,595
824,7	146,852
825,1	148,938
825,5	152,195
826	149,71
826,4	150,538
826,8	151,71
827,3	151,91
827,7	154,995
828,1	155,967
828,5	153,138
829	150,081
829,4	152,681
829,8	151,31
830,3	142,881
830,7	136,224
831,1	128,795
831,6	122,681
832	117,052
832,4	111,224
832,8	114,424
833,3	114,71
833,7	116,624
834,1	118,967
834,6	120,795
835	129,395
835,4	131,252
835,8	123,71
836,3	122,795
836,7	115,252
837,1	111,195
837,6	109,51
838	100,71
838,4	96,195
838,9	102,11
839,3	105,995
839,7	113,024
840,1	110,138
840,6	109,338
841	112,567
841,4	114,481
841,9	107,681
842,3	108,11
842,7	103,995
843,1	111,538
843,6	112,052
844	110,824
844,4	110,052
844,9	112,195
845,3	106,567
845,7	106,795
846,2	103,538
846,6	100,767
847	99,624
847,4	97,338
847,9	93,395
848,3	94,252
848,7	89,967
849,2	89,852
849,6	90,138
850	84,51
850,4	84,795
850,9	85,938
851,3	81,538
851,7	83,424
852,2	76,224
852,6	74,281
853	82,595
853,4	85,652
853,9	81,31
854,3	81,995
854,7	78,795
855,2	81,995
855,6	79,281
856	77,195
856,4	74,281
856,9	78,395
857,3	77,167
857,7	80,71
858,2	82,281
858,6	87,71
859	84,224
859,4	81,367
859,9	79,481
860,3	83,138
860,7	82,081
861,1	78,824
861,6	78,538
862	76,395
862,4	79,795
862,9	79,452
863,3	77,167
863,7	72,595
864,1	71,795
864,6	68,652
865	70,195
865,4	62,938
865,9	63,224
866,3	64,681
866,7	67,338
867,1	72,852
867,6	72,567
868	72,71
868,4	72,738
868,8	71,852
869,3	69,052
869,7	63,538
870,1	60,138
870,6	56,681
871	106,395
871,4	105,395
871,8	103,167
872,3	104,138
872,7	105,395
873,1	104,71
873,5	106,738
874	57,652
874,4	56,31
874,8	56,71
875,3	55,71
875,7	57,624
876,1	53,252
876,5	58,91
877	56,081
877,4	59,852
877,8	60,652
878,2	61,195
878,7	62,652
879,1	61,681
879,5	55,424
879,9	57,567
880,4	53,567
880,8	54,624
881,2	56,024
881,7	61,138
882,1	62,195
882,5	60,624
882,9	56,081
883,4	63,595
883,8	63,224
884,2	62,481
884,6	56,052
885,1	55,224
885,5	62,167
885,9	68,624
886,3	63,767
886,8	61,652
887,2	58,452
887,6	52,652
888	53,881
888,5	48,852
888,9	46,281
889,3	40,367
889,8	42,31
890,2	41,224
890,6	44,652
891	44,795
891,5	44,538
891,9	42,424
892,3	46,624
892,7	42,395
893,2	44,624
893,6	43,51
894	42,452
894,4	44,481
894,9	44,338
895,3	40,967
895,7	43,138
896,1	41,081
896,6	40,338
897	38,281
897,4	29,138
897,8	28,51
898,3	42,138
898,7	39,167
899,1	37,024
899,5	36,367
900	36,938
900,4	38,881
900,8	37,395
901,2	25,252
901,7	24,624
902,1	27,167
902,5	29,824
902,9	32,567
903,4	37,852
903,8	34,738
904,2	37,395
904,6	38,481
905,1	42,167
905,5	37,281
905,9	33,738
906,3	32,624
906,8	36,224
907,2	32,11
907,6	33,424
908	25,824
908,5	28,881
908,9	29,624
909,3	25,481
909,7	25,881
910,2	29,567
910,6	30,824
911	31,852
911,4	34,281
911,9	33,31
912,3	32,452
912,7	32,567
913,1	24,91
913,6	21,395
914	22,481
914,4	17,367
914,8	20,138
915,3	20,795
915,7	17,338
916,1	18,91
916,5	20,652
916,9	21,424
917,4	22,424
917,8	19,138
918,2	21,881
918,6	24,452
919,1	28,71
919,5	31,767
919,9	30,824
920,3	30,824
920,8	28,281
921,2	29,138
921,6	27,224
922	22,024
922,5	18,052
922,9	14,852
923,3	15,881
923,7	16,424
924,2	14,538
924,6	14,995
925	18,538
925,4	17,795
925,8	17,538
926,3	20,31
926,7	19,538
927,1	17,281
927,5	16,11
928	17,738
928,4	19,71
928,8	29,738
929,2	28,652
929,7	26,738
930,1	30,338
930,5	28,024
930,9	28,71
931,3	28,91
931,8	22,681
932,2	16,281
932,6	21,481
933	14,567
933,5	17,11
933,9	17,31
934,3	15,595
934,7	16,081
935,2	23,738
935,6	24,252
936	28,395
936,4	29,224
936,8	28,195
937,3	27,11
937,7	24,195
938,1	15,424
938,5	14,824
939	16,138
939,4	22,31
939,8	23,281
940,2	26,51
940,6	27,281
941,1	34,624
941,5	34,11
941,9	30,881
942,3	21,852
942,8	19,71
943,2	12,367
943,6	13,852
944	11,881
944,4	7,995
944,9	7,481
945,3	11,767
945,7	13,595
946,1	17,11
946,6	14,652
947	13,367
947,4	16,052
947,8	18,195
948,2	11,538
948,7	9,824
949,1	8,852
949,5	11,452
949,9	14,252
950,3	13,738
950,8	9,681
951,2	15,71
951,6	15,881
952	14,795
952,5	8,881
952,9	3,681
953,3	3,881
953,7	9,538
954,1	7,624
954,6	8,91
955	9,052
955,4	10,738
955,8	16,395
956,2	15,052
956,7	11,795
957,1	10,024
957,5	6,452
957,9	9,195
958,3	9,338
958,8	6,081
959,2	5,938
959,6	7,881
960	10,31
960,5	8,052
960,9	9,624
961,3	12,138
961,7	10,738
962,1	8,91
962,6	7,938
963	6,395
963,4	9,652
963,8	7,738
964,2	3,967
964,7	2,71
965,1	5,852
965,5	7,567
965,9	8,852
966,3	7,081
966,8	6,252
967,2	10,338
967,6	11,595
968	11,652
968,4	13,452
968,9	12,91
969,3	13,538
969,7	11,367
970,1	9,567
970,5	12,31
971	8,452
971,4	7,51
971,8	7,595
972,2	9,081
972,6	10,995
973,1	11,681
973,5	14,138
973,9	13,938
974,3	9,738
974,7	6,852
975,2	4,852
975,6	1,71
976	3,852
976,4	-1,69
976,8	-1,319
977,3	-1,29
977,7	-0,005
978,1	-1,262
978,5	4,51
978,9	1,281
979,4	2,224
979,8	7,767
980,2	4,51
980,6	4,11
981	8,824
981,5	5,967
981,9	3,624
982,3	-1,319
982,7	-1,862
983,1	5,567
983,6	2,452
984	1,052
984,4	0,395
984,8	3,167
985,2	8,567
985,6	9,052
986,1	6,852
986,5	9,395
986,9	9,052
987,3	6,795
987,7	8,081
988,2	12,452
988,6	9,738
989	10,595
989,4	16,338
989,8	13,281
990,3	15,452
990,7	14,424
991,1	6,081
991,5	5,51
991,9	7,71
992,3	1,938
992,8	7,91
993,2	5,995
993,6	5,481
994	8,51
994,4	9,852
994,9	10,452
995,3	11,167
995,7	5,624
996,1	6,738
996,5	5,995
996,9	6,424
997,4	4,681
997,8	-2,348
998,2	-0,233
998,6	4,367
999	6,395
999,5	8,595
999,9	9,024
1000,3	15,881
1000,7	19,452
1001,1	16,167
1001,5	11,338
1002	10,424
1002,4	11,424
1002,8	13,11
1003,2	8,024
1003,6	10,481
1004	11,652
1004,5	13,424
1004,9	12,795
1005,3	9,881
1005,7	8,852
1006,1	3,767
1006,6	2,224
1007	5,424
1007,4	3,91
1007,8	1,195
1008,2	0,138
1008,6	-1,948
1009,1	-1,862
1009,5	-1,805
1009,9	-3,748
1010,3	-0,633
1010,7	7,938
1011,1	13,081
1011,6	12,024
1012	12,624
1012,4	13,424
1012,8	11,938
1013,2	11,567
1013,6	6,995
1014,1	3,367
1014,5	5,395
1014,9	8,71
1015,3	6,167
1015,7	5,824
1016,1	8,938
1016,6	10,71
1017	13,652
1017,4	14,338
1017,8	10,967
1018,2	10,052
1018,6	10,852
1019,1	2,024
1019,5	-0,09
1019,9	-0,462
1020,3	-2,605
1020,7	-0,119
1021,1	3,452
1021,6	-0,262
1022	1,71
1022,4	4,167
1022,8	0,51
1023,2	3,567
1023,6	0,738
1024,1	-2,976
1024,5	-2,119
1024,9	4,51
1025,3	2,652
1025,7	6,795
1026,1	4,852
1026,6	9,481
1027	8,738
1027,4	17,395
1027,8	11,881
1028,2	11,91
1028,6	12,167
1029	10,652
1029,5	11,138
1029,9	9,967
1030,3	10,938
1030,7	13,424
1031,1	9,824
1031,5	3,138
1032	3,081
1032,4	-0,433
1032,8	0,852
1033,2	-3,376
1033,6	-4,462
1034	-1,919
1034,4	4,195
1034,9	1,51
1035,3	6,195
1035,7	7,281
1036,1	7,824
1036,5	1,31
1036,9	2,081
1037,4	1,91
1037,8	7,481
1038,2	-0,69
1038,6	-5,862
1039	-8,376
1039,4	0,338
1039,8	-2,09
1040,3	-1,176
1040,7	-5,976
1041,1	-0,49
1041,5	3,767
1041,9	0,338
1042,3	-2,29
1042,7	3,281
1043,2	-1,862
1043,6	7,452
1044	7,252
1044,4	6,795
1044,8	5,224
1045,2	6,567
1045,6	4,081
1046,1	9,224
1046,5	1,91
1046,9	4,224
1047,3	5,852
1047,7	5,967
1048,1	4,967
1048,5	3,995
1049	5,224
1049,4	8,452
1049,8	5,052
1050,2	5,138
1050,6	10,881
1051	16,995
1051,4	15,567
1051,9	14,424
1052,3	9,195
1052,7	12,224
1053,1	11,281
1053,5	12,938
1053,9	8,995
1054,3	8,081
1054,8	11,452
1055,2	19,481
1055,6	13,367
1056	14,481
1056,4	12,452
1056,8	14,481
1057,2	17,224
1057,6	8,51
1058,1	3,367
1058,5	6,395
1058,9	7,938
1059,3	10,224
1059,7	5,938
1060,1	7,081
1060,5	9,138
1061	7,395
1061,4	11,91
1061,8	6,91
1062,2	2,367
1062,6	2,995
1063	0,024
1063,4	-1,519
1063,8	0,881
1064,3	1,624
1064,7	-0,348
1065,1	2,395
1065,5	2,938
1065,9	4,481
1066,3	3,652
1066,7	4,367
1067,1	2,938
1067,6	9,795
1068	11,367
1068,4	12,481
1068,8	14,052
1069,2	13,967
1069,6	16,138
1070	14,538
1070,4	12,281
1070,9	8,338
1071,3	6,338
1071,7	4,71
1072,1	8,995
1072,5	9,71
1072,9	13,567
1073,3	18,767
1073,7	18,538
1074,2	22,338
1074,6	21,195
1075	18,538
1075,4	16,281
1075,8	16,652
1076,2	14,567
1076,6	12,967
1077	6,881
1077,5	9,938
1077,9	13,938
1078,3	9,852
1078,7	6,081
1079,1	4,795
1079,5	5,767
1079,9	12,71
1080,3	10,167
1080,7	8,481
1081,2	11,224
1081,6	12,424
1082	13,967
1082,4	16,481
1082,8	9,138
1083,2	7,795
1083,6	2,852
1084	-1,176
1084,5	-1,176
1084,9	-8,005
1085,3	-10,376
1085,7	-8,433
1086,1	-9,348
1086,5	0,995
1086,9	4,11
1087,3	6,081
1087,7	12,938
1088,2	14,224
1088,6	12,138
1089	13,195
1089,4	5,824
1089,8	7,281
1090,2	6,138
1090,6	0,424
1091	3,795
1091,4	7,081
1091,9	10,681
1092,3	11,052
1092,7	9,881
1093,1	1,567
1093,5	1,11
1093,9	2,452
1094,3	5,595
1094,7	2,938
1095,1	-1,148
1095,5	-2,09
1096	-0,69
1096,4	3,452
1096,8	-2,519
1097,2	-7,176
1097,6	-8,462
1098	-2,062
1098,4	3,224
1098,8	6,51
1099,2	4,652
1099,6	10,51
1100,1	12,224
1100,5	17,138
1100,9	16,481
1101,3	11,395
1101,7	13,71
1102,1	17,967
1102,5	14,71
1102,9	13,452
1103,3	7,281
1103,7	4,11
1104,2	10,024
1104,6	10,567
1105	6,224
1105,4	4,71
1105,8	4,738
1106,2	7,424
1106,6	8,024
1107	2,567
1107,4	-0,833
1107,8	-0,553
1108,3	-0,133
