Data from Subt2_140.txt Node
Date: Sat Aug 26 18:28:18 MSK 2023
User: vat
Spectrometer: MAYP114033
Trigger mode: 0
Integration Time (sec): 1,000000E0
Scans to average: 5
Electric dark correction enabled: true
Nonlinearity correction enabled: false
Boxcar width: 3
XAxis mode: Wavelengths
Number of Pixels in Spectrum: 2068
>>>>>Begin Spectral Data<<<<<
199,4	0,767
199,9	1,987
200,4	-0,067
200,8	3,267
201,3	2,095
201,8	2,61
202,2	0,438
202,7	5,381
203,2	3,924
203,6	5,095
204,1	-3,333
204,6	-1,876
205	-1,162
205,5	-2,59
206	-9,39
206,4	-9,533
206,9	-11,762
207,4	-4,733
207,8	-4,819
208,3	-8,419
208,8	-4,076
209,2	0,781
209,7	0,895
210,2	3,724
210,6	-0,619
211,1	-1,962
211,5	-1,19
212	-2,248
212,5	-4,648
212,9	-4,19
213,4	-1,562
213,9	-0,848
214,3	0,038
214,8	4,838
215,3	5,152
215,7	6,781
216,2	9,095
216,7	8,381
217,1	7,21
217,6	5,667
218,1	3,438
218,5	1,781
219	-4,248
219,5	-7,076
219,9	-12,59
220,4	-5,248
220,9	-6,905
221,3	-10,39
221,8	-6,619
222,3	-4,562
222,7	-0,019
223,2	2,581
223,6	-1,219
224,1	0,267
224,6	6,581
225	2,81
225,5	3,867
226	1,667
226,4	4,81
226,9	5,638
227,4	5,952
227,8	-3,648
228,3	-4,219
228,8	-1,905
229,2	-0,962
229,7	-1,705
230,2	-2,933
230,6	-1,133
231,1	8,667
231,5	11,295
232	11,981
232,5	10,695
232,9	10,095
233,4	13,238
233,9	9,695
234,3	4,01
234,8	2,067
235,3	-4,305
235,7	-4,505
236,2	-2,619
236,7	-7,248
237,1	-1,876
237,6	-4,248
238,1	-8,619
238,5	-7,048
239	-8,819
239,4	-9,419
239,9	-9,705
240,4	-11,619
240,8	-1,19
241,3	2,895
241,8	5,124
242,2	4,752
242,7	-0,39
243,2	3,781
243,6	-0,505
244,1	-6,562
244,6	-6,362
245	-7,733
245,5	-8,076
245,9	-6,819
246,4	-10,19
246,9	-6,476
247,3	-9,505
247,8	-2,962
248,3	-0,162
248,7	2,895
249,2	5,467
249,7	6,01
250,1	7,695
250,6	7,781
251	6,038
251,5	5,124
252	3,095
252,4	6,552
252,9	6,352
253,4	-1,848
253,8	-0,905
254,3	-4,848
254,8	-5,79
255,2	-9,876
255,7	-15,076
256,1	-9,733
256,6	-2,819
257,1	0,695
257,5	-0,59
258	-1,019
258,5	1,01
258,9	-1,419
259,4	-5,848
259,9	-6,133
260,3	-13,905
260,8	-13,133
261,2	-14,819
261,7	-10,848
262,2	-9,619
262,6	-12,219
263,1	-11,505
263,6	-4,962
264	-2,99
264,5	0,524
264,9	-1,533
265,4	0,067
265,9	3,41
266,3	4,295
266,8	6,695
267,3	3,495
267,7	1,181
268,2	0,41
268,7	2,552
269,1	0,467
269,6	-1,705
270	-1,533
270,5	-2,333
271	1,752
271,4	7,124
271,9	2,495
272,4	3,495
272,8	6,924
273,3	3,638
273,7	7,238
274,2	2,781
274,7	1,667
275,1	2,81
275,6	4,781
276,1	0,124
276,5	3,724
277	1,981
277,4	4,524
277,9	1,324
278,4	2,81
278,8	3,924
279,3	5,924
279,8	4,067
280,2	8,095
280,7	7,238
281,1	7,324
281,6	8,895
282,1	6,067
282,5	6,752
283	4,752
283,4	3,124
283,9	3,238
284,4	6,581
284,8	5,152
285,3	4,01
285,8	3,267
286,2	-0,79
286,7	-2,99
287,1	-5,076
287,6	-6,705
288,1	-9,448
288,5	-6,733
289	-6,819
289,5	-1,848
289,9	-5,362
290,4	-3,305
290,8	-6,562
291,3	-2,505
291,8	-2,905
292,2	-4,933
292,7	-3,048
293,1	2,095
293,6	3,324
294,1	1,581
294,5	1,267
295	-0,762
295,5	1,581
295,9	1,667
296,4	0,181
296,8	1,724
297,3	3,838
297,8	1,752
298,2	-1,048
298,7	0,067
299,1	-2,333
299,6	-2,362
300,1	-4,019
300,5	-0,333
301	4,924
301,5	7,638
301,9	6,581
302,4	3,352
302,8	2,352
303,3	-1,048
303,8	-8,19
304,2	-13,962
304,7	-11,162
305,1	-15,562
305,6	-12,305
306,1	-7,533
306,5	-5,562
307	4,41
307,4	10,924
307,9	5,695
308,4	6,152
308,8	3,267
309,3	1,352
309,8	3,752
310,2	-1,59
310,7	-12,876
311,1	-7,848
311,6	-0,562
312,1	4,495
312,5	4,638
313	6,21
313,4	7,752
313,9	12,867
314,4	8,067
314,8	1,952
315,3	1,81
315,7	-3,99
316,2	-9,162
316,7	-9,933
317,1	-7,533
317,6	-4,533
318	-0,448
318,5	-3,648
319	0,352
319,4	1,381
319,9	3,267
320,3	3,61
320,8	2,638
321,3	4,238
321,7	8,295
322,2	9,01
322,6	9,638
323,1	4,695
323,6	1,324
324	1,295
324,5	1,038
324,9	-1,133
325,4	-4,362
325,9	2,438
326,3	5,124
326,8	10,152
327,2	11,667
327,7	10,61
328,2	7,781
328,6	12,181
329,1	-0,39
329,5	-0,133
330	-5,362
330,5	-2,248
330,9	-1,162
331,4	0,838
331,8	-3,876
332,3	2,924
332,8	5,067
333,2	5,667
333,7	0,81
334,1	-3,848
334,6	-5,59
335,1	-6,99
335,5	-8,476
336	-11,362
336,4	-7,476
336,9	0,752
337,4	5,981
337,8	10,667
338,3	13,552
338,7	11,838
339,2	7,638
339,7	7,524
340,1	-1,733
340,6	-2,79
341	-5,905
341,5	-1,962
342	-3,819
342,4	-2,505
342,9	-5,39
343,3	-2,619
343,8	-5,848
344,2	-7,076
344,7	-7,933
345,2	0,467
345,6	5,552
346,1	5,752
346,5	2,867
347	1,638
347,5	2,438
347,9	8,124
348,4	3,752
348,8	2,238
349,3	4,495
349,8	10,41
350,2	17,581
350,7	18,381
351,1	11,152
351,6	15,61
352	17,981
352,5	21,752
353	23,124
353,4	24,61
353,9	33,095
354,3	46,181
354,8	55,067
355,3	74,867
355,7	91,924
356,2	109,21
356,6	131,952
357,1	160,01
357,5	188,952
358	223,667
358,5	254,81
358,9	292,838
359,4	340,41
359,8	390,81
360,3	448,867
360,8	506,21
361,2	573,724
361,7	645,152
362,1	734,552
362,6	827,724
363	925,81
363,5	1027,952
364	1148,895
364,4	1261,61
364,9	1383,41
365,3	1499,438
365,8	1608,324
366,3	1705,895
366,7	1798,381
367,2	1874,581
367,6	1940,667
368,1	1986,295
368,5	2015,181
369	2028,267
369,5	2032,238
369,9	2017,438
370,4	1982,267
370,8	1933,381
371,3	1878,067
371,7	1811,438
372,2	1737,381
372,7	1657,038
373,1	1564,581
373,6	1474,61
374	1387,952
374,5	1295,267
374,9	1199,01
375,4	1110,067
375,9	1025,381
376,3	946,981
376,8	870,095
377,2	801,41
377,7	738,695
378,2	678,438
378,6	619,467
379,1	565,238
379,5	521,667
380	482,181
380,4	438,838
380,9	401,638
381,4	366,952
381,8	342,781
382,3	317,552
382,7	292,895
383,2	268,581
383,6	249,267
384,1	233,438
384,6	225,067
385	209,21
385,5	197,667
385,9	178,552
386,4	167,638
386,8	157,352
387,3	144,095
387,7	129,067
388,2	122,467
388,7	112,067
389,1	110,352
389,6	103,067
390	97,724
390,5	92,695
390,9	90,781
391,4	82,438
391,9	75,667
392,3	69,467
392,8	61,095
393,2	53,124
393,7	48,295
394,1	40,867
394,6	40,295
395,1	41,438
395,5	35,21
396	40,467
396,4	42,867
396,9	42,124
397,3	44,838
397,8	47,21
398,2	44,067
398,7	48,124
399,2	45,524
399,6	44,924
400,1	44,81
400,5	40,41
401	35,524
401,4	33,324
401,9	35,324
402,4	31,495
402,8	31,095
403,3	34,781
403,7	36,267
404,2	38,981
404,6	43,638
405,1	38,295
405,5	40,295
406	39,838
406,5	37,724
406,9	37,981
407,4	36,924
407,8	40,01
408,3	49,495
408,7	52,438
409,2	57,267
409,6	62,038
410,1	70,095
410,6	78,467
411	78,838
411,5	77,467
411,9	83,438
412,4	90,038
412,8	93,381
413,3	98,495
413,7	103,524
414,2	108,038
414,7	119,181
415,1	130,095
415,6	138,952
416	150,467
416,5	158,095
416,9	162,924
417,4	177,867
417,8	193,095
418,3	201,524
418,8	211,524
419,2	220,467
419,7	228,524
420,1	241,238
420,6	249,238
421	253,181
421,5	267,21
421,9	281,638
422,4	295,924
422,8	311,952
423,3	327,124
423,8	342,695
424,2	357,352
424,7	372,324
425,1	382,952
425,6	398,067
426	413,21
426,5	433,324
426,9	458,581
427,4	481,038
427,9	497,01
428,3	523,924
428,8	550,467
429,2	575,81
429,7	602,838
430,1	625,61
430,6	655,952
431	688,295
431,5	725,524
431,9	756,695
432,4	799,038
432,8	838,467
433,3	881,095
433,8	925,181
434,2	975,724
434,7	1018,61
435,1	1069,467
435,6	1120,295
436	1172,981
436,5	1231,695
436,9	1286,41
437,4	1343,667
437,8	1406,524
438,3	1473,095
438,8	1537,838
439,2	1609,067
439,7	1682,067
440,1	1758,152
440,6	1841,724
441	1918,495
441,5	2003,152
441,9	2097,352
442,4	2181,467
442,8	2273,41
443,3	2372,124
443,7	2465,838
444,2	2573,295
444,7	2680,667
445,1	2786,267
445,6	2898,581
446	3009,695
446,5	3122,095
446,9	3238,924
447,4	3359,152
447,8	3488,095
448,3	3617,781
448,7	3749,524
449,2	3893,124
449,6	4037,01
450,1	4179,724
450,6	4331,895
451	4476,381
451,5	4623,038
451,9	4779,981
452,4	4927,952
452,8	5076,895
453,3	5239,581
453,7	5390,895
454,2	5553,181
454,6	5718,438
455,1	5884,495
455,5	6057,41
456	6227,038
456,4	6402,581
456,9	6586,124
457,3	6764,295
457,8	6937,524
458,3	7123,295
458,7	7302,61
459,2	7501,867
459,6	7683,038
460,1	7870,895
460,5	8048,781
461	8253,838
461,4	8437,495
461,9	8627,295
462,3	8815,724
462,8	9013,781
463,2	9208,981
463,7	9416,867
464,1	9601,438
464,6	9800,01
465	10002,895
465,5	10197,952
466	10396,895
466,4	10581,038
466,9	10782,01
467,3	10967,238
467,8	11161,752
468,2	11352,952
468,7	11542,495
469,1	11723,381
469,6	11906,838
470	12074,638
470,5	12258,924
470,9	12427,752
471,4	12588,238
471,8	12754,152
472,3	12924,438
472,7	13090,638
473,2	13249,838
473,6	13404,952
474,1	13567,067
474,5	13726,867
475	13882,181
475,4	14025,124
475,9	14182,867
476,4	14335,895
476,8	14477,752
477,3	14613,81
477,7	14748,381
478,2	14869,181
478,6	14991,781
479,1	15094,838
479,5	15200,152
480	15313,61
480,4	15417,438
480,9	15506,724
481,3	15595,095
481,8	15686,181
482,2	15757,667
482,7	15835,724
483,1	15904,295
483,6	15969,81
484	16040,467
484,5	16108,438
484,9	16156,067
485,4	16218,21
485,8	16272,21
486,3	16315,238
486,7	16353,095
487,2	16377,752
487,6	16404,352
488,1	16419,267
488,5	16433,638
489	16436,838
489,4	16437,352
489,9	16443,495
490,4	16434,524
490,8	16421,467
491,3	16413,324
491,7	16401,667
492,2	16384,267
492,6	16361,01
493,1	16312,724
493,5	16281,181
494	16240,495
494,4	16193,61
494,9	16142,781
495,3	16101,581
495,8	16053,41
496,2	16003,238
496,7	15946,181
497,1	15900,267
497,6	15852,781
498	15801,21
498,5	15721,324
498,9	15651,41
499,4	15586,552
499,8	15532,324
500,3	15446,41
500,7	15362,952
501,2	15271,21
501,6	15177,752
502,1	15098,21
502,5	15007,638
503	14905,895
503,4	14825,467
503,9	14731,41
504,3	14644,695
504,8	14566,695
505,2	14472,124
505,7	14374,438
506,1	14278,038
506,6	14161,981
507	14058,152
507,5	13956,638
507,9	13842,01
508,4	13728,667
508,8	13618,524
509,3	13509,552
509,7	13407,352
510,2	13290,238
510,6	13174,352
511,1	13058,724
511,5	12943,61
512	12828,752
512,4	12714,324
512,9	12591,752
513,3	12485,467
513,8	12361,552
514,2	12251,21
514,7	12136,638
515,1	12015,695
515,6	11890,724
516	11766,352
516,5	11639,095
516,9	11524,181
517,4	11399,352
517,8	11277,695
518,3	11167,01
518,7	11047,867
519,2	10933,724
519,6	10826,752
520,1	10704,981
520,5	10587,038
521	10466,61
521,4	10358,438
521,9	10252,524
522,3	10148,667
522,8	10034,867
523,2	9928,152
523,7	9825,695
524,1	9717,352
524,6	9598,381
525	9483,838
525,5	9379,552
525,9	9279,181
526,4	9165,781
526,8	9064,324
527,3	8968,352
527,7	8870,724
528,2	8771,181
528,6	8665,867
529,1	8567,01
529,5	8480,295
530	8378,952
530,4	8285,095
530,9	8187,21
531,3	8093,295
531,8	7998,324
532,2	7905,324
532,6	7804,581
533,1	7704,238
533,5	7612,667
534	7527,467
534,4	7440,895
534,9	7356,61
535,3	7272,095
535,8	7194,695
536,2	7122,41
536,7	7041,638
537,1	6958,581
537,6	6873,638
538	6797,41
538,5	6720,295
538,9	6644,895
539,4	6567,838
539,8	6493,581
540,3	6422,495
540,7	6358,895
541,2	6277,981
541,6	6200,61
542,1	6129,952
542,5	6064,21
543	5994,038
543,4	5924,952
543,9	5855,295
544,3	5804,038
544,8	5739,552
545,2	5676,867
545,7	5616,01
546,1	5557,524
546,5	5501,981
547	5444,81
547,4	5377,01
547,9	5318,181
548,3	5268,324
548,8	5211,524
549,2	5152,295
549,7	5096,981
550,1	5040,581
550,6	4992,352
551	4943,667
551,5	4885,724
551,9	4830,552
552,4	4781,095
552,8	4734,21
553,3	4688,724
553,7	4640,838
554,2	4593,838
554,6	4553,981
555,1	4517,21
555,5	4474,238
555,9	4431,724
556,4	4385,295
556,8	4338,638
557,3	4293,467
557,7	4248,724
558,2	4201,467
558,6	4162,124
559,1	4116,067
559,5	4077,467
560	4043,952
560,4	4009,781
560,9	3969,067
561,3	3931,867
561,8	3893,21
562,2	3856,095
562,7	3825,152
563,1	3787,752
563,6	3746,752
564	3712,724
564,4	3676,867
564,9	3645,695
565,3	3615,495
565,8	3579,095
566,2	3548,038
566,7	3523,524
567,1	3491,124
567,6	3463,752
568	3432,752
568,5	3399,81
568,9	3365,295
569,4	3331,867
569,8	3298,724
570,3	3269,067
570,7	3236,438
571,1	3208,467
571,6	3182,838
572	3163,924
572,5	3136,867
572,9	3104,695
573,4	3081,324
573,8	3056,41
574,3	3028,61
574,7	3003,752
575,2	2972,781
575,6	2949,838
576,1	2938,267
576,5	2914,81
576,9	2888,81
577,4	2865,524
577,8	2838,467
578,3	2815,41
578,7	2789,924
579,2	2759,152
579,6	2731,267
580,1	2711,81
580,5	2693,438
581	2675,724
581,4	2649,495
581,9	2627,695
582,3	2609,295
582,7	2588,838
583,2	2566,724
583,6	2539,438
584,1	2517,981
584,5	2502,724
585	2483,324
585,4	2457,781
585,9	2443,181
586,3	2428,638
586,8	2411,267
587,2	2390,095
587,6	2378,095
588,1	2366,552
588,5	2350,952
589	2329,524
589,4	2300,524
589,9	2287,924
590,3	2270,467
590,8	2250,438
591,2	2231,838
591,7	2218,181
592,1	2204,752
592,5	2197,01
593	2171,21
593,4	2155,81
593,9	2140,095
594,3	2122,267
594,8	2101,638
595,2	2086,752
595,7	2069,552
596,1	2060,41
596,6	2047,867
597	2035,438
597,4	2020,952
597,9	2014,695
598,3	2003,895
598,8	1993,152
599,2	1979,267
599,7	1966,381
600,1	1947,095
600,6	1936,495
601	1922,381
601,4	1914,695
601,9	1906,267
602,3	1891,638
602,8	1875,867
603,2	1868,067
603,7	1852,61
604,1	1842,581
604,6	1820,981
605	1802,01
605,4	1795,295
605,9	1780,895
606,3	1763,038
606,8	1750,838
607,2	1733,524
607,7	1722,638
608,1	1714,638
608,6	1699,838
609	1697,352
609,4	1688,295
609,9	1679,181
610,3	1672,21
610,8	1661,324
611,2	1653,124
611,7	1643,695
612,1	1630,067
612,6	1622,495
613	1611,638
613,4	1599,781
613,9	1586,952
614,3	1571,81
614,8	1562,267
615,2	1546,038
615,7	1532,581
616,1	1523,038
616,6	1509,21
617	1497,867
617,4	1486,838
617,9	1474,324
618,3	1474,867
618,8	1466,61
619,2	1454,267
619,7	1446,867
620,1	1440,981
620,5	1437,61
621	1424,295
621,4	1409,352
621,9	1395,867
622,3	1385,667
622,8	1377,638
623,2	1364,267
623,6	1350,238
624,1	1350,467
624,5	1340,724
625	1334,295
625,4	1326,581
625,9	1317,152
626,3	1310,638
626,8	1301,467
627,2	1287,495
627,6	1270,638
628,1	1262,438
628,5	1255,752
629	1244,295
629,4	1232,21
629,9	1224,867
630,3	1216,438
630,7	1211,752
631,2	1202,695
631,6	1194,038
632,1	1189,095
632,5	1184,01
633	1178,667
633,4	1168,838
633,8	1161,781
634,3	1152,067
634,7	1140,924
635,2	1128,438
635,6	1121,752
636,1	1110,61
636,5	1097,781
636,9	1090,124
637,4	1084,61
637,8	1073,01
638,3	1065,838
638,7	1052,838
639,2	1042,924
639,6	1040,324
640	1031,838
640,5	1024,924
640,9	1020,952
641,4	1013,01
641,8	1008,124
642,2	1004,438
642,7	1004,152
643,1	1002,295
643,6	992,524
644	987,838
644,5	983,895
644,9	982,467
645,3	974,095
645,8	960,781
646,2	952,924
646,7	949,467
647,1	939,038
647,6	935,752
648	930,381
648,4	922,01
648,9	915,952
649,3	907,038
649,8	901,981
650,2	902,438
650,6	895,781
651,1	884,21
651,5	885,438
652	882,152
652,4	874,267
652,9	867,01
653,3	854,552
653,7	847,067
654,2	843,638
654,6	831,295
655,1	827,838
655,5	831,924
655,9	826,895
656,4	822,81
656,8	817,867
657,3	811,752
657,7	811,552
658,2	803,095
658,6	792,552
659	785,067
659,5	783,524
659,9	776,41
660,4	777,124
660,8	767,095
661,2	766,238
661,7	759,981
662,1	757,895
662,6	749,41
663	745,638
663,4	736,495
663,9	730,01
664,3	723,067
664,8	716,124
665,2	706,867
665,6	704,267
666,1	699,295
666,5	696,152
667	693,152
667,4	687,724
667,9	685,21
668,3	679,038
668,7	670,581
669,2	666,067
669,6	656,467
670,1	652,124
670,5	640,381
670,9	631,752
671,4	634,81
671,8	634,352
672,3	633,895
672,7	634,867
673,1	633,352
673,6	631,324
674	634,295
674,5	626,095
674,9	617,924
675,3	608,438
675,8	603,352
676,2	599,21
676,7	594,181
677,1	588,067
677,5	584,381
678	585,924
678,4	583,81
678,9	573,981
679,3	566,095
679,7	564,438
680,2	553,238
680,6	548,095
681,1	538,952
681,5	535,067
681,9	536,752
682,4	536,152
682,8	532,467
683,3	534,238
683,7	531,981
684,1	529,952
684,6	527,667
685	517,895
685,5	507,067
685,9	501,295
686,3	494,61
686,8	491,467
687,2	489,095
687,7	480,124
688,1	472,181
688,5	470,152
689	469,838
689,4	468,638
689,9	458,467
690,3	451,438
690,7	453,781
691,2	460,038
691,6	459,295
692	456,981
692,5	453,667
692,9	456,01
693,4	450,867
693,8	442,067
694,2	437,695
694,7	433,781
695,1	429,124
695,6	428,552
696	427,181
696,4	426,895
696,9	421,038
697,3	414,21
697,8	415,152
698,2	411,924
698,6	407,124
699,1	399,21
699,5	400,438
699,9	402,895
700,4	401,638
700,8	396,524
701,3	395,124
701,7	387,752
702,1	389,095
702,6	383,524
703	382,724
703,5	379,638
703,9	373,724
704,3	371,124
704,8	374,581
705,2	370,01
705,6	368,467
706,1	365,638
706,5	359,467
707	360,038
707,4	356,467
707,8	350,295
708,3	348,238
708,7	345,181
709,2	341,381
709,6	340,952
710	343,181
710,5	335,381
710,9	334,181
711,3	330,981
711,8	331,581
712,2	331,067
712,7	326,895
713,1	321,581
713,5	324,695
714	324,667
714,4	322,495
714,8	318,21
715,3	310,495
715,7	310,267
716,2	305,095
716,6	300,124
717	292,381
717,5	288,724
717,9	289,81
718,3	286,61
718,8	284,352
719,2	284,324
719,7	281,381
720,1	282,152
720,5	285,01
721	276,41
721,4	276,638
721,8	281,21
722,3	278,295
722,7	280,867
723,2	276,667
723,6	268,781
724	264,695
724,5	262,581
724,9	254,981
725,3	248,895
725,8	245,752
726,2	246,038
726,7	246,01
727,1	247,81
727,5	249,667
728	243,724
728,4	242,038
728,8	237,267
729,3	233,352
729,7	227,781
730,1	227,038
730,6	222,924
731	223,238
731,5	226,067
731,9	223,124
732,3	226,324
732,8	232,267
733,2	230,695
733,6	229,124
734,1	229,495
734,5	225,467
734,9	229,552
735,4	223,41
735,8	215,467
736,3	216,981
736,7	214,381
737,1	215,952
737,6	214,324
738	211,124
738,4	212,095
738,9	213,952
739,3	206,324
739,7	208,352
740,2	204,324
740,6	208,324
741,1	209,438
741,5	203,81
741,9	203,524
742,4	208,867
742,8	205,695
743,2	204,724
743,7	196,752
744,1	190,238
744,5	189,438
745	184,124
745,4	174,581
745,8	174,981
746,3	173,438
746,7	170,495
747,2	170,552
747,6	176,867
748	181,181
748,5	187,352
748,9	182,552
749,3	177,324
749,8	180,638
750,2	181,095
750,6	174,581
751,1	174,324
751,5	173,21
751,9	173,438
752,4	180,467
752,8	180,838
753,3	175,981
753,7	178,267
754,1	173,695
754,6	165,581
755	162,181
755,4	157,41
755,9	155,581
756,3	156,495
756,7	153,867
757,2	155,21
757,6	158,895
758	158,067
758,5	157,095
758,9	159,981
759,3	164,467
759,8	161,267
760,2	157,724
760,6	155,038
761,1	156,438
761,5	154,695
761,9	145,41
762,4	138,238
762,8	136,924
763,3	134,152
763,7	136,124
764,1	135,581
764,6	137,924
765	141,581
765,4	142,495
765,9	143,581
766,3	146,61
766,7	145,552
767,2	141,21
767,6	142,295
768	138,552
768,5	136,867
768,9	136,838
769,3	135,038
769,8	132,41
770,2	133,552
770,6	130,695
771,1	130,61
771,5	131,21
771,9	129,067
772,4	130,067
772,8	131,238
773,2	134,552
773,7	134,581
774,1	137,124
774,5	131,952
775	132,267
775,4	131,667
775,8	124,838
776,3	122,667
776,7	116,152
777,1	111,667
777,6	117,038
778	120,895
778,4	117,438
778,9	121,467
779,3	116,724
779,7	118,41
780,2	122,01
780,6	117,924
781	110,895
781,5	103,695
781,9	101,381
782,3	100,867
782,8	99,895
783,2	97,667
783,6	101,124
784,1	101,61
784,5	103,01
784,9	99,638
785,4	103,524
785,8	104,124
786,2	103,467
786,7	99,21
787,1	95,324
787,5	99,067
788	100,724
788,4	94,21
788,8	90,781
789,3	88,524
789,7	92,552
790,1	97,838
790,6	97,438
791	92,095
791,4	96,838
791,9	96,352
792,3	93,295
792,7	91,495
793,2	85,581
793,6	84,152
794	89,495
794,5	82,838
794,9	86,867
795,3	90,352
795,8	85,752
796,2	90,352
796,6	92,81
797,1	93,695
797,5	98,21
797,9	92,324
798,4	89,667
798,8	89,552
799,2	87,295
799,7	88,438
800,1	84,438
800,5	78,324
801	83,495
801,4	79,981
801,8	80,181
802,2	80,867
802,7	71,81
803,1	73,067
803,5	80,038
804	74,467
804,4	78,552
804,8	77,81
805,3	77,867
805,7	80,41
806,1	79,152
806,6	78,438
807	74,895
807,4	73,552
807,9	71,352
808,3	67,781
808,7	68,752
809,2	71,381
809,6	68,81
810	72,381
810,4	74,352
810,9	76,21
811,3	78,867
811,7	77,724
812,2	82,352
812,6	80,752
813	84,81
813,5	85,81
813,9	87,124
814,3	83,381
814,8	83,095
815,2	72,752
815,6	73,838
816,1	68,952
816,5	64,667
816,9	64,238
817,3	65,267
817,8	70,61
818,2	71,724
818,6	64,867
819,1	65,81
819,5	60,295
819,9	59,495
820,4	55,552
820,8	49,095
821,2	46,038
821,7	52,238
822,1	50,952
822,5	62,552
822,9	60,495
823,4	64,01
823,8	66,381
824,2	69,381
824,7	63,295
825,1	59,324
825,5	47,495
826	44,038
826,4	46,152
826,8	39,524
827,3	41,867
827,7	44,41
828,1	49,467
828,5	53,181
829	51,581
829,4	48,01
829,8	48,095
830,3	47,438
830,7	51,438
831,1	51,352
831,6	49,667
832	52,295
832,4	49,295
832,8	53,352
833,3	51,038
833,7	40,467
834,1	36,152
834,6	36,21
835	38,21
835,4	39,552
835,8	32,752
836,3	29,724
836,7	34,038
837,1	36,324
837,6	39,381
838	35,238
838,4	36,895
838,9	41,467
839,3	41,867
839,7	41,552
840,1	36,924
840,6	33,752
841	33,952
841,4	34,238
841,9	35,895
842,3	38,152
842,7	35,781
843,1	37,81
843,6	38,038
844	40,41
844,4	42,724
844,9	42,695
845,3	39,638
845,7	43,295
846,2	42,152
846,6	37,981
847	37,295
847,4	31,667
847,9	32,838
848,3	33,381
848,7	32,238
849,2	30,524
849,6	32,01
850	34,552
850,4	37,095
850,9	32,524
851,3	33,324
851,7	32,752
852,2	31,41
852,6	34,495
853	33,81
853,4	30,095
853,9	30,438
854,3	30,238
854,7	34,752
855,2	36,41
855,6	35,81
856	29,524
856,4	25,295
856,9	23,324
857,3	24,581
857,7	21,895
858,2	23,438
858,6	21,81
859	23,81
859,4	30,695
859,9	29,924
860,3	25,152
860,7	26,095
861,1	27,124
861,6	24,867
862	25,01
862,4	20,895
862,9	21,752
863,3	23,981
863,7	22,524
864,1	24,438
864,6	23,238
865	22,981
865,4	23,238
865,9	28,781
866,3	26,067
866,7	24,124
867,1	17,467
867,6	25,295
868	21,438
868,4	20,61
868,8	15,41
869,3	19,524
869,7	25,124
870,1	25,295
870,6	20,667
871	31,381
871,4	36,552
871,8	35,924
872,3	38,438
872,7	36,038
873,1	38,152
873,5	37,124
874	34,467
874,4	33,067
874,8	31,438
875,3	26,581
875,7	21,781
876,1	25,552
876,5	25,21
877	16,21
877,4	9,01
877,8	12,667
878,2	19,267
878,7	20,61
879,1	14,381
879,5	20,038
879,9	25,81
880,4	29,781
880,8	29,467
881,2	18,438
881,7	18,952
882,1	23,152
882,5	16,295
882,9	12,924
883,4	12,124
883,8	12,124
884,2	17,01
884,6	12,381
885,1	11,495
885,5	13,381
885,9	15,524
886,3	18,01
886,8	13,21
887,2	11,924
887,6	15,552
888	16,124
888,5	12,124
888,9	11,124
889,3	4,724
889,8	4,552
890,2	6,152
890,6	3,952
891	-0,448
891,5	5,267
891,9	6,352
892,3	14,438
892,7	20,124
893,2	19,038
893,6	21,41
894	25,181
894,4	21,295
894,9	18,352
895,3	15,295
895,7	16,324
896,1	11,638
896,6	12,095
897	16,638
897,4	23,41
897,8	26,81
898,3	25,467
898,7	22,781
899,1	24,781
899,5	21,695
900	10,381
900,4	5,838
900,8	-0,305
901,2	-1,648
901,7	-3,59
902,1	-1,476
902,5	0,952
902,9	5,667
903,4	3,124
903,8	5,638
904,2	4,41
904,6	5,438
905,1	5,867
905,5	6,124
905,9	9,552
906,3	13,695
906,8	16,552
907,2	18,267
907,6	20,295
908	20,438
908,5	19,295
908,9	13,267
909,3	9,438
909,7	9,981
910,2	7,438
910,6	9,952
911	7,295
911,4	6,924
911,9	7,267
912,3	6,867
912,7	9,095
913,1	15,981
913,6	10,01
914	14,695
914,4	9,295
914,8	13,952
915,3	9,581
915,7	4,495
916,1	-0,333
916,5	1,752
916,9	-0,476
917,4	4,495
917,8	1,352
918,2	5,01
918,6	1,41
919,1	1,724
919,5	4,524
919,9	7,038
920,3	10,581
920,8	10,21
921,2	9,981
921,6	13,238
922	15,467
922,5	9,724
922,9	7,038
923,3	3,895
923,7	6,095
924,2	9,21
924,6	9,952
925	10,238
925,4	9,467
925,8	6,21
926,3	3,61
926,7	0,524
927,1	-0,505
927,5	-0,248
928	-3,848
928,4	-5,133
928,8	-0,19
929,2	0,724
929,7	6,01
930,1	6,01
930,5	5,467
930,9	8,552
931,3	10,867
931,8	7,781
932,2	8,781
932,6	3,124
933	-3,619
933,5	-2,59
933,9	-2,448
934,3	-1,59
934,7	-3,448
935,2	-0,476
935,6	2,067
936	7,952
936,4	7,867
936,8	7,295
937,3	4,467
937,7	9,781
938,1	7,295
938,5	4,152
939	2,181
939,4	-0,505
939,8	-5,39
940,2	-2,162
940,6	-7,39
941,1	-5,705
941,5	1,61
941,9	3,61
942,3	2,867
942,8	6,324
943,2	6,41
943,6	6,581
944	1,324
944,4	-0,476
944,9	-5,79
945,3	-2,79
945,7	-4,505
946,1	-10,39
946,6	-13,133
947	-11,705
947,4	-12,362
947,8	-5,133
948,2	-7,162
948,7	-1,819
949,1	-0,619
949,5	8,638
949,9	10,924
950,3	8,667
950,8	3,667
951,2	4,038
951,6	-2,505
952	1,724
952,5	-4,419
952,9	-4,962
953,3	-4,448
953,7	-2,362
954,1	-1,076
954,6	1,01
955	5,238
955,4	6,01
955,8	6,981
956,2	4,981
956,7	4,81
957,1	1,781
957,5	6,667
957,9	3,295
958,3	1,981
958,8	2,781
959,2	4,838
959,6	8,981
960	11,21
960,5	9,295
960,9	11,152
961,3	8,81
961,7	8,895
962,1	10,495
962,6	5,467
963	2,667
963,4	-1,219
963,8	-4,448
964,2	1,038
964,7	1,124
965,1	-1,59
965,5	-0,362
965,9	5,838
966,3	11,952
966,8	9,867
967,2	9,41
967,6	7,01
968	6,01
968,4	8,724
968,9	2,524
969,3	3,124
969,7	4,838
970,1	4,467
970,5	3,638
971	7,352
971,4	4,781
971,8	12,695
972,2	11,152
972,6	10,581
973,1	6,752
973,5	7,467
973,9	7,638
974,3	7,01
974,7	5,781
975,2	3,724
975,6	1,124
976	5,038
976,4	0,581
976,8	-1,362
977,3	1,667
977,7	-2,333
978,1	-4,076
978,5	-3,133
978,9	-3,419
979,4	0,324
979,8	-2,362
980,2	-7,99
980,6	-15,733
981	-11,305
981,5	-6,962
981,9	-7,705
982,3	-4,933
982,7	-0,905
983,1	0,21
983,6	6,752
984	6,695
984,4	2,067
984,8	1,21
985,2	-0,705
985,6	-6,19
986,1	-3,219
986,5	2,695
986,9	-4,79
987,3	1,552
987,7	1,781
988,2	-0,533
988,6	2,324
989	0,524
989,4	-4,705
989,8	-2,505
990,3	-6,59
990,7	-4,962
991,1	-2,933
991,5	-2,733
991,9	-2,162
992,3	-0,248
992,8	1,238
993,2	1,981
993,6	3,524
994	6,181
994,4	4,21
994,9	4,21
995,3	2,238
995,7	3,724
996,1	1,095
996,5	-5,419
996,9	-14,305
997,4	-8,048
997,8	-11,619
998,2	-13,019
998,6	-19,848
999	-16,905
999,5	-15,048
999,9	-9,448
1000,3	-14,39
1000,7	-12,133
1001,1	-9,99
1001,5	-4,819
1002	-2,19
1002,4	-0,905
1002,8	-4,19
1003,2	-0,79
1003,6	2,21
1004	3,41
1004,5	1,01
1004,9	2,352
1005,3	-3,933
1005,7	0,981
1006,1	-4,619
1006,6	-9,59
1007	-9,076
1007,4	-7,076
1007,8	-11,476
1008,2	-4,019
1008,6	-1,533
1009,1	2,724
1009,5	6,924
1009,9	6,438
1010,3	5,01
1010,7	9,61
1011,1	7,952
1011,6	4,581
1012	2,81
1012,4	-0,876
1012,8	-5,162
1013,2	-0,733
1013,6	-5,19
1014,1	-2,848
1014,5	-1,933
1014,9	0,381
1015,3	2,124
1015,7	5,552
1016,1	2,581
1016,6	2,695
1017	3,352
1017,4	1,324
1017,8	-1,962
1018,2	1,324
1018,6	0,638
1019,1	-2,076
1019,5	-2,362
1019,9	-6,333
1020,3	-4,819
1020,7	-2,019
1021,1	-5,505
1021,6	-2,876
1022	3,21
1022,4	5,095
1022,8	10,267
1023,2	9,152
1023,6	8,924
1024,1	16,552
1024,5	15,581
1024,9	11,495
1025,3	8,695
1025,7	3,638
1026,1	7,552
1026,6	9,41
1027	1,781
1027,4	4,01
1027,8	4,038
1028,2	4,667
1028,6	10,295
1029	7,381
1029,5	10,981
1029,9	9,867
1030,3	1,124
1030,7	1,41
1031,1	1,724
1031,5	-3,305
1032	-1,705
1032,4	-8,619
1032,8	-2,248
1033,2	4,352
1033,6	5,295
1034	2,524
1034,4	4,41
1034,9	7,181
1035,3	5,21
1035,7	4,724
1036,1	0,952
1036,5	-4,676
1036,9	-3,876
1037,4	-1,705
1037,8	-5,762
1038,2	-5,248
1038,6	-7,962
1039	-1,59
1039,4	7,038
1039,8	1,467
1040,3	0,867
1040,7	-3,105
1041,1	1,324
1041,5	0,924
1041,9	-3,705
1042,3	-8,248
1042,7	-0,619
1043,2	-2,105
1043,6	-1,733
1044	-4,333
1044,4	-6,362
1044,8	-4,562
1045,2	-4,762
1045,6	-8,219
1046,1	-12,79
1046,5	-10,733
1046,9	-12,876
1047,3	-13,848
1047,7	-13,848
1048,1	-12,362
1048,5	-8,133
1049	-0,59
1049,4	-0,219
1049,8	0,467
1050,2	1,924
1050,6	6,21
1051	2,21
1051,4	0,41
1051,9	-3,705
1052,3	4,81
1052,7	6,238
1053,1	3,524
1053,5	3,095
1053,9	3,267
1054,3	-0,59
1054,8	7,581
1055,2	3,01
1055,6	4,667
1056	11,067
1056,4	3,181
1056,8	7,467
1057,2	13,924
1057,6	4,524
1058,1	0,81
1058,5	-4,705
1058,9	-2,505
1059,3	4,295
1059,7	3,352
1060,1	4,152
1060,5	4,724
1061	6,267
1061,4	7,838
1061,8	7,152
1062,2	3,41
1062,6	5,695
1063	2,638
1063,4	4,095
1063,8	1,752
1064,3	-0,59
1064,7	-5,105
1065,1	-5,362
1065,5	-12,133
1065,9	-15,648
1066,3	-14,962
1066,7	-13,105
1067,1	-13,59
1067,6	-12,276
1068	-16,933
1068,4	-9,533
1068,8	-2,819
1069,2	-3,419
1069,6	-3,162
1070	5,21
1070,4	1,467
1070,9	2,838
1071,3	0,352
1071,7	-3,619
1072,1	-1,962
1072,5	-5,762
1072,9	-8,762
1073,3	-4,562
1073,7	-5,79
1074,2	-3,048
1074,6	0,61
1075	0,352
1075,4	4,724
1075,8	4,838
1076,2	5,952
1076,6	9,21
1077	3,867
1077,5	3,552
1077,9	-0,533
1078,3	-3,133
1078,7	-0,79
1079,1	-3,59
1079,5	-1,048
1079,9	-1,39
1080,3	-5,79
1080,7	-3,619
1081,2	2,152
1081,6	-1,562
1082	-3,019
1082,4	-2,39
1082,8	-2,505
1083,2	-1,533
1083,6	-2,648
1084	-8,59
1084,5	-4,876
1084,9	-3,419
1085,3	-7,648
1085,7	-2,419
1086,1	-0,19
1086,5	6,381
1086,9	12,667
1087,3	9,124
1087,7	8,867
1088,2	13,21
1088,6	9,095
1089	11,238
1089,4	4,638
1089,8	3,867
1090,2	3,924
1090,6	4,467
1091	6,238
1091,4	7,724
1091,9	5,61
1092,3	7,724
1092,7	1,267
1093,1	5,952
1093,5	7,781
1093,9	2,81
1094,3	7,067
1094,7	2,61
1095,1	3,638
1095,5	5,295
1096	-1,362
1096,4	-1,562
1096,8	-1,59
1097,2	-3,933
1097,6	5,352
1098	4,952
1098,4	10,324
1098,8	14,524
1099,2	17,867
1099,6	19,581
1100,1	16,324
1100,5	8,81
1100,9	7,381
1101,3	4,838
1101,7	3,438
1102,1	-3,019
1102,5	-1,562
1102,9	2,61
1103,3	5,981
1103,7	7,952
1104,2	4,81
1104,6	7,981
1105	9,81
1105,4	8,152
1105,8	5,495
1106,2	3,895
1106,6	1,781
1107	3,01
1107,4	-0,033
1107,8	0,027
1108,3	-0,633
