Data from Subt2_033.txt Node
Date: Sat Aug 26 16:22:14 MSK 2023
User: vat
Spectrometer: MAYP114033
Trigger mode: 0
Integration Time (sec): 1,000000E0
Scans to average: 5
Electric dark correction enabled: true
Nonlinearity correction enabled: false
Boxcar width: 3
XAxis mode: Wavelengths
Number of Pixels in Spectrum: 2068
>>>>>Begin Spectral Data<<<<<
199,4	0,383
199,9	1,253
200,4	-0,867
200,8	2,219
201,3	5,362
201,8	4,219
202,2	6,819
202,7	8,762
203,2	7,876
203,6	8,848
204,1	6,533
204,6	8,19
205	12,533
205,5	11,133
206	10,733
206,4	16,105
206,9	12,476
207,4	13,848
207,8	6,648
208,3	5,162
208,8	2,848
209,2	5,333
209,7	0,019
210,2	9,19
210,6	10,762
211,1	11,79
211,5	8,79
212	6,933
212,5	-1,41
212,9	-1,552
213,4	-3,552
213,9	-8,552
214,3	-2,81
214,8	-0,752
215,3	3,59
215,7	8,248
216,2	13,276
216,7	11,076
217,1	10,276
217,6	5,648
218,1	6,505
218,5	7,276
219	11,533
219,5	7,133
219,9	7,133
220,4	9,762
220,9	11,562
221,3	10,562
221,8	3,276
222,3	-1,638
222,7	-1,124
223,2	-0,981
223,6	-2,038
224,1	-3,095
224,6	-5,21
225	-0,952
225,5	6,305
226	6,105
226,4	9,219
226,9	7,79
227,4	8,505
227,8	11,248
228,3	15,076
228,8	9,619
229,2	7,39
229,7	1,933
230,2	9,448
230,6	5,933
231,1	5,905
231,5	5,79
232	11,476
232,5	12,905
232,9	16,362
233,4	12,162
233,9	15,133
234,3	18,219
234,8	17,305
235,3	15,162
235,7	19,133
236,2	17,705
236,7	18,219
237,1	19,819
237,6	16,219
238,1	14,448
238,5	13,162
239	7,419
239,4	8,876
239,9	5,59
240,4	4,705
240,8	7,219
241,3	5,619
241,8	2,99
242,2	4,39
242,7	6,762
243,2	7,448
243,6	6,248
244,1	4,133
244,6	-0,067
245	-1,467
245,5	-3,467
245,9	-4,981
246,4	-4,21
246,9	-5,095
247,3	-8,952
247,8	-3,667
248,3	-0,21
248,7	3,933
249,2	2,59
249,7	3,19
250,1	6,39
250,6	4,705
251	5,848
251,5	-0,21
252	-0,495
252,4	-3,038
252,9	-2,638
253,4	-3,181
253,8	-2,952
254,3	-3,838
254,8	0,248
255,2	-1,924
255,7	1,076
256,1	-1,552
256,6	-2,467
257,1	0,105
257,5	4,276
258	4,105
258,5	8,219
258,9	5,819
259,4	7,505
259,9	8,105
260,3	10,448
260,8	9,933
261,2	15,876
261,7	14,105
262,2	20,048
262,6	17,048
263,1	16,219
263,6	18,59
264	16,305
264,5	11,619
264,9	12,248
265,4	8,219
265,9	14,362
266,3	15,333
266,8	10,962
267,3	12,905
267,7	13,105
268,2	12,562
268,7	9,648
269,1	5,562
269,6	6,19
270	12,476
270,5	11,79
271	9,733
271,4	4,076
271,9	7,648
272,4	8,876
272,8	2,99
273,3	-2,781
273,7	-4,752
274,2	-4,41
274,7	-2,724
275,1	-5,838
275,6	-6,695
276,1	-2,352
276,5	-0,295
277	-1,667
277,4	-4,038
277,9	-0,752
278,4	4,133
278,8	8,505
279,3	6,962
279,8	10,619
280,2	10,276
280,7	10,762
281,1	11,876
281,6	7,505
282,1	6,905
282,5	8,819
283	2,533
283,4	4,133
283,9	4,619
284,4	1,076
284,8	5,99
285,3	2,762
285,8	-1,667
286,2	-3,181
286,7	-2,067
287,1	-1,924
287,6	3,533
288,1	1,876
288,5	4,362
289	11,99
289,5	15,162
289,9	13,676
290,4	13,248
290,8	16,076
291,3	11,39
291,8	7,962
292,2	6,733
292,7	8,276
293,1	8,962
293,6	10,219
294,1	3,019
294,5	8,19
295	11,048
295,5	9,162
295,9	7,619
296,4	6,648
296,8	5,362
297,3	8,248
297,8	4,933
298,2	3,505
298,7	1,59
299,1	1,962
299,6	6,248
300,1	9,79
300,5	12,019
301	14,076
301,5	17,848
301,9	19,39
302,4	19,362
302,8	15,619
303,3	15,248
303,8	8,562
304,2	4,905
304,7	3,019
305,1	5,705
305,6	4,448
306,1	6,076
306,5	5,676
307	6,505
307,4	6,219
307,9	6,705
308,4	2,048
308,8	9,648
309,3	6,219
309,8	5,99
310,2	6,276
310,7	11,39
311,1	8,905
311,6	15,019
312,1	12,333
312,5	14,076
313	14,219
313,4	18,19
313,9	18,019
314,4	18,676
314,8	15,076
315,3	9,419
315,7	10,133
316,2	7,076
316,7	3,848
317,1	4,505
317,6	0,99
318	-0,638
318,5	6,105
319	5,99
319,4	8,562
319,9	10,419
320,3	11,19
320,8	11,162
321,3	13,419
321,7	6,876
322,2	9,876
322,6	9,733
323,1	12,933
323,6	7,305
324	11,19
324,5	8,305
324,9	11,39
325,4	6,305
325,9	9,533
326,3	7,648
326,8	12,533
327,2	11,305
327,7	13,905
328,2	14,448
328,6	18,79
329,1	13,219
329,5	15,476
330	16,333
330,5	16,819
330,9	18,505
331,4	12,019
331,8	12,276
332,3	17,362
332,8	14,19
333,2	10,933
333,7	12,562
334,1	13,533
334,6	22,19
335,1	20,819
335,5	19,905
336	13,733
336,4	10,076
336,9	11,476
337,4	12,848
337,8	11,105
338,3	12,248
338,7	10,476
339,2	15,905
339,7	18,219
340,1	16,419
340,6	10,848
341	11,448
341,5	11,505
342	13,562
342,4	14,476
342,9	11,076
343,3	8,562
343,8	13,905
344,2	13,076
344,7	11,476
345,2	6,619
345,6	10,476
346,1	15,076
346,5	19,448
347	15,848
347,5	13,076
347,9	12,105
348,4	16,819
348,8	13,133
349,3	12,248
349,8	11,99
350,2	15,048
350,7	19,733
351,1	20,59
351,6	23,876
352	31,819
352,5	39,819
353	48,905
353,4	53,99
353,9	67,905
354,3	85,705
354,8	101,448
355,3	119,59
355,7	143,705
356,2	167,648
356,6	202,019
357,1	233,905
357,5	272,648
358	316,105
358,5	369,819
358,9	427,533
359,4	495,876
359,8	569,733
360,3	657,905
360,8	752,505
361,2	861,162
361,7	972,933
362,1	1103,505
362,6	1249,105
363	1402,705
363,5	1567,19
364	1738,762
364,4	1911,676
364,9	2087,448
365,3	2257,562
365,8	2415,133
366,3	2567,019
366,7	2700,933
367,2	2819,019
367,6	2919,162
368,1	2997,533
368,5	3045,648
369	3073,419
369,5	3076,619
369,9	3049,562
370,4	2998,676
370,8	2923,533
371,3	2835,762
371,7	2733,962
372,2	2615,819
372,7	2480,79
373,1	2347,733
373,6	2208,133
374	2072,448
374,5	1928,105
374,9	1787,648
375,4	1656,848
375,9	1533,133
376,3	1407,962
376,8	1300,19
377,2	1201,79
377,7	1107,419
378,2	1020,676
378,6	934,99
379,1	856,762
379,5	795,79
380	734,79
380,4	670,79
380,9	617,162
381,4	566,333
381,8	523,276
382,3	481,762
382,7	436,848
383,2	399,59
383,6	365,448
384,1	337,848
384,6	313,619
385	290,162
385,5	275,933
385,9	264,39
386,4	249,076
386,8	239,476
387,3	222,39
387,7	210,276
388,2	198,562
388,7	183,105
389,1	165,819
389,6	151,676
390	140,505
390,5	130,733
390,9	127,133
391,4	118,533
391,9	109,59
392,3	101,419
392,8	96,19
393,2	86,905
393,7	88,133
394,1	82,105
394,6	78,419
395,1	79,162
395,5	80,048
396	78,105
396,4	77,162
396,9	74,39
397,3	66,219
397,8	67,219
398,2	64,076
398,7	57,562
399,2	53,676
399,6	56,362
400,1	53,448
400,5	57,162
401	55,505
401,4	57,762
401,9	59,076
402,4	64,39
402,8	59,419
403,3	59,133
403,7	61,19
404,2	61,276
404,6	60,99
405,1	61,219
405,5	58,39
406	60,676
406,5	61,505
406,9	59,79
407,4	61,048
407,8	65,076
408,3	72,962
408,7	82,619
409,2	86,419
409,6	90,19
410,1	99,562
410,6	105,933
411	108,648
411,5	112,305
411,9	112,419
412,4	122,59
412,8	134,133
413,3	140,619
413,7	151,333
414,2	166,819
414,7	185,876
415,1	196,933
415,6	215,362
416	228,905
416,5	242,476
416,9	257,619
417,4	271,333
417,8	280,733
418,3	300,105
418,8	309,219
419,2	326,648
419,7	349,419
420,1	363,162
420,6	379,219
421	401,105
421,5	423,476
421,9	448,562
422,4	473,448
422,8	500,276
423,3	526,476
423,8	558,933
424,2	590,819
424,7	620,448
425,1	652,219
425,6	686,048
426	717,39
426,5	757,476
426,9	794,59
427,4	835,619
427,9	874,962
428,3	918,733
428,8	968,076
429,2	1013,476
429,7	1066,276
430,1	1118,362
430,6	1172,505
431	1230,333
431,5	1295,905
431,9	1354,19
432,4	1428,248
432,8	1505,819
433,3	1585,305
433,8	1672,19
434,2	1761,59
434,7	1847,362
435,1	1943,362
435,6	2042,162
436	2137,019
436,5	2242,99
436,9	2350,505
437,4	2468,962
437,8	2590,59
438,3	2714,676
438,8	2834,276
439,2	2965,733
439,7	3103,448
440,1	3241,448
440,6	3390,305
441	3535,048
441,5	3693,562
441,9	3861,39
442,4	4036,133
442,8	4210,419
443,3	4387,39
443,7	4563,162
444,2	4758,076
444,7	4954,419
445,1	5154,362
445,6	5350,962
446	5553,705
446,5	5776,019
446,9	6006,048
447,4	6231,276
447,8	6463,333
448,3	6696,533
448,7	6948,819
449,2	7204,533
449,6	7453,419
450,1	7705,962
450,6	7972,705
451	8225,962
451,5	8503,133
451,9	8778,533
452,4	9067,962
452,8	9362,505
453,3	9665,962
453,7	9961,048
454,2	10273,305
454,6	10580,648
455,1	10893,79
455,5	11195,819
456	11512,076
456,4	11817,305
456,9	12153,076
457,3	12490,39
457,8	12831,733
458,3	13167,533
458,7	13517,79
459,2	13867,076
459,6	14223,19
460,1	14556,762
460,5	14906,048
461	15251,762
461,4	15604,248
461,9	15950,99
462,3	16300,819
462,8	16660,876
463,2	17023,876
463,7	17379,933
464,1	17725,933
464,6	18071,962
465	18419,19
465,5	18752,305
466	19097,333
466,4	19429,619
466,9	19767,019
467,3	20117,533
467,8	20466,19
468,2	20813,99
468,7	21165,419
469,1	21497,848
469,6	21846,876
470	22169,99
470,5	22494,048
470,9	22806,276
471,4	23105,133
471,8	23407,333
472,3	23696,933
472,7	23989,133
473,2	24283,162
473,6	24563,648
474,1	24834,333
474,5	25115,333
475	25393,219
475,4	25650,762
475,9	25896,562
476,4	26142,59
476,8	26382,533
477,3	26628,133
477,7	26869,248
478,2	27069,076
478,6	27293,162
479,1	27506,876
479,5	27718,219
480	27907,19
480,4	28075,762
480,9	28225,819
481,3	28398,59
481,8	28563,476
482,2	28697,019
482,7	28827,876
483,1	28961,79
483,6	29094,333
484	29219,048
484,5	29329,448
484,9	29410,676
485,4	29498,248
485,8	29570,105
486,3	29626,762
486,7	29672,219
487,2	29715,105
487,6	29743,648
488,1	29783,076
488,5	29809,333
489	29823,39
489,4	29831,99
489,9	29826,562
490,4	29825,619
490,8	29797,933
491,3	29758,99
491,7	29715,705
492,2	29680,305
492,6	29629,819
493,1	29573,219
493,5	29487,476
494	29440,076
494,4	29350,505
494,9	29267,248
495,3	29163,59
495,8	29061,79
496,2	28972,276
496,7	28868,19
497,1	28739,705
497,6	28645,762
498	28542,733
498,5	28419,933
498,9	28300,019
499,4	28174,99
499,8	28057,305
500,3	27929,848
500,7	27790,705
501,2	27626,762
501,6	27483,39
502,1	27348,676
502,5	27197,076
503	27040,362
503,4	26879,905
503,9	26711,248
504,3	26552,505
504,8	26375,162
505,2	26180,19
505,7	25990,505
506,1	25793,105
506,6	25593,99
507	25404,248
507,5	25218,248
507,9	25024,99
508,4	24832,505
508,8	24624,305
509,3	24423,619
509,7	24222,333
510,2	24015,448
510,6	23800,733
511,1	23599,933
511,5	23383,619
512	23197,362
512,4	22991,248
512,9	22792,962
513,3	22591,733
513,8	22393,676
514,2	22181,19
514,7	21987,676
515,1	21767,762
515,6	21557,905
516	21338,533
516,5	21116,448
516,9	20902,676
517,4	20695,162
517,8	20477,933
518,3	20251,219
518,7	20042,162
519,2	19837,819
519,6	19620,79
520,1	19398,933
520,5	19183,276
521	18964,248
521,4	18777,533
521,9	18567,876
522,3	18354,705
522,8	18166,448
523,2	17978,533
523,7	17780,533
524,1	17584,476
524,6	17371,762
525	17187,562
525,5	17005,219
525,9	16801,562
526,4	16612,276
526,8	16413,876
527,3	16243,905
527,7	16070,076
528,2	15879,019
528,6	15692,705
529,1	15522,962
529,5	15339,362
530	15173,219
530,4	14999,905
530,9	14826,676
531,3	14657,762
531,8	14497,762
532,2	14329,019
532,6	14165,79
533,1	13996,219
533,5	13819,162
534	13661,59
534,4	13504,133
534,9	13343,619
535,3	13193,133
535,8	13041,876
536,2	12893,419
536,7	12742,133
537,1	12594,676
537,6	12453,905
538	12312,562
538,5	12166,59
538,9	12022,876
539,4	11889,362
539,8	11759,705
540,3	11625,962
540,7	11499,619
541,2	11361,733
541,6	11232,19
542,1	11101,876
542,5	10988,876
543	10875,476
543,4	10756,419
543,9	10635,448
544,3	10516,048
544,8	10398,705
545,2	10293,648
545,7	10177,248
546,1	10064,762
546,5	9953,019
547	9837,59
547,4	9730,648
547,9	9628,162
548,3	9528,333
548,8	9421,448
549,2	9308,048
549,7	9209,476
550,1	9112,162
550,6	9029,562
551	8934,962
551,5	8834,762
551,9	8744,019
552,4	8664,905
552,8	8576,933
553,3	8486,562
553,7	8391,19
554,2	8306,876
554,6	8216,705
555,1	8137,819
555,5	8056,419
555,9	7978,619
556,4	7906,619
556,8	7829,762
557,3	7750,048
557,7	7680,248
558,2	7597,505
558,6	7521,676
559,1	7444,248
559,5	7369,333
560	7304,076
560,4	7240,419
560,9	7166,448
561,3	7097,076
561,8	7028,276
562,2	6964,419
562,7	6900,162
563,1	6828,276
563,6	6758,562
564	6697,448
564,4	6641,562
564,9	6576,076
565,3	6516,019
565,8	6457,105
566,2	6393,876
566,7	6335,848
567,1	6282,476
567,6	6227,105
568	6176,333
568,5	6118,133
568,9	6060,419
569,4	6012,619
569,8	5955,905
570,3	5899,533
570,7	5840,533
571,1	5786,39
571,6	5737,248
572	5688,19
572,5	5631,219
572,9	5591,362
573,4	5541,448
573,8	5498,162
574,3	5447,048
574,7	5397,048
575,2	5341,133
575,6	5302,162
576,1	5251,619
576,5	5206,59
576,9	5153,905
577,4	5113,505
577,8	5067,333
578,3	5026,905
578,7	4978,505
579,2	4941,762
579,6	4903,476
580,1	4869,505
580,5	4821,79
581	4781,648
581,4	4749,39
581,9	4705,448
582,3	4658,162
582,7	4616,162
583,2	4571,305
583,6	4534,648
584,1	4492,933
584,5	4449,733
585	4416,648
585,4	4382,19
585,9	4350,762
586,3	4315,19
586,8	4275,905
587,2	4242,476
587,6	4206,933
588,1	4181,219
588,5	4145,476
589	4112,79
589,4	4080,905
589,9	4056,019
590,3	4021,562
590,8	3990,419
591,2	3954,848
591,7	3927,905
592,1	3889,476
592,5	3858,819
593	3824,733
593,4	3800,848
593,9	3769,219
594,3	3739,248
594,8	3712,333
595,2	3691,933
595,7	3667,905
596,1	3644,619
596,6	3620,162
597	3597,505
597,4	3570,876
597,9	3543,819
598,3	3520,39
598,8	3491,333
599,2	3465,59
599,7	3442,705
600,1	3419,476
600,6	3396,505
601	3371,476
601,4	3346,848
601,9	3328,362
602,3	3311,248
602,8	3287,39
603,2	3270,733
603,7	3254,333
604,1	3236,076
604,6	3208,448
605	3184,99
605,4	3158,505
605,9	3135,362
606,3	3108,648
606,8	3078,19
607,2	3048,876
607,7	3032,105
608,1	3009,505
608,6	2992,733
609	2970,419
609,4	2946,99
609,9	2929,219
610,3	2910,962
610,8	2891,905
611,2	2870,048
611,7	2847,162
612,1	2823,476
612,6	2806,533
613	2790,99
613,4	2772,819
613,9	2754,905
614,3	2740,562
614,8	2715,105
615,2	2699,105
615,7	2682,39
616,1	2660,333
616,6	2644,933
617	2623,848
617,4	2601,276
617,9	2586,362
618,3	2569,133
618,8	2547,39
619,2	2536,419
619,7	2518,79
620,1	2500,448
620,5	2485,133
621	2466,762
621,4	2447,819
621,9	2427,99
622,3	2403,219
622,8	2380,648
623,2	2364,333
623,6	2345,076
624,1	2329,705
624,5	2316,076
625	2296,419
625,4	2284,476
625,9	2272,419
626,3	2252,99
626,8	2237,59
627,2	2223,533
627,6	2204,905
628,1	2196,076
628,5	2175,219
629	2162,305
629,4	2140,105
629,9	2128,905
630,3	2112,79
630,7	2102,133
631,2	2082,933
631,6	2071,733
632,1	2047,848
632,5	2037,762
633	2016,133
633,4	1998,819
633,8	1979,648
634,3	1968,39
634,7	1949,076
635,2	1941,505
635,6	1927,99
636,1	1921,276
636,5	1908,762
636,9	1893,048
637,4	1874,248
637,8	1860,476
638,3	1843,448
638,7	1833,105
639,2	1815,39
639,6	1804,905
640	1791,733
640,5	1782,105
640,9	1770,733
641,4	1754,876
641,8	1741,419
642,2	1732,848
642,7	1718,248
643,1	1712,79
643,6	1700,705
644	1697,39
644,5	1690,848
644,9	1675,819
645,3	1664,79
645,8	1658,933
646,2	1644,848
646,7	1630,676
647,1	1615,276
647,6	1603,019
648	1594,362
648,4	1579,79
648,9	1565,848
649,3	1551,762
649,8	1542,448
650,2	1530,876
650,6	1516,276
651,1	1509,59
651,5	1500,876
652	1490,819
652,4	1477,819
652,9	1471,39
653,3	1464,648
653,7	1463,19
654,2	1456,276
654,6	1442,819
655,1	1431,162
655,5	1424,905
655,9	1411,733
656,4	1398,962
656,8	1383,79
657,3	1365,362
657,7	1357,219
658,2	1348,133
658,6	1335,905
659	1328,419
659,5	1318,762
659,9	1310,448
660,4	1303,99
660,8	1295,819
661,2	1281,505
661,7	1272,762
662,1	1266,705
662,6	1255,362
663	1247,105
663,4	1239,933
663,9	1229,79
664,3	1225,705
664,8	1222,933
665,2	1212,162
665,6	1205,448
666,1	1194,362
666,5	1181,99
667	1170,219
667,4	1165,219
667,9	1151,876
668,3	1143,533
668,7	1134,076
669,2	1123,476
669,6	1118,276
670,1	1118,733
670,5	1107,162
670,9	1105,105
671,4	1092,79
671,8	1084,79
672,3	1080,362
672,7	1072,562
673,1	1061,733
673,6	1052,962
674	1041,133
674,5	1042,076
674,9	1034,762
675,3	1027,133
675,8	1016,59
676,2	1007,733
676,7	1003,648
677,1	1000,562
677,5	988,305
678	984,619
678,4	982,362
678,9	977,648
679,3	967,19
679,7	959,105
680,2	949,533
680,6	939,333
681,1	925,705
681,5	916,848
681,9	906,333
682,4	906,39
682,8	894,19
683,3	890,705
683,7	887,762
684,1	885,448
684,6	881,876
685	874,533
685,5	862,333
685,9	858,705
686,3	848,676
686,8	840,305
687,2	832,419
687,7	825,99
688,1	826,333
688,5	821,676
689	817,876
689,4	813,305
689,9	809,648
690,3	806,79
690,7	796,305
691,2	791,105
691,6	784,819
692	775,076
692,5	766,476
692,9	759,39
693,4	751,762
693,8	749,333
694,2	736,79
694,7	734,476
695,1	732,219
695,6	724,962
696	717,533
696,4	710,39
696,9	701,333
697,3	699,248
697,8	691,905
698,2	687,933
698,6	691,105
699,1	684,562
699,5	681,962
699,9	679,819
700,4	676,505
700,8	675,019
701,3	668,276
701,7	656,99
702,1	657,362
702,6	653,048
703	641,848
703,5	638,133
703,9	629,162
704,3	627,39
704,8	626,59
705,2	621,848
705,6	614,362
706,1	621,048
706,5	618,476
707	614,99
707,4	607,333
707,8	601,505
708,3	596,99
708,7	595,419
709,2	584,762
709,6	582,533
710	576,733
710,5	577,105
710,9	572,733
711,3	567,39
711,8	559,362
712,2	557,105
712,7	547,819
713,1	542,848
713,5	532,99
714	530,333
714,4	528,505
714,8	527,419
715,3	524,448
715,7	515,105
716,2	516,133
716,6	516,133
717	510,333
717,5	508,105
717,9	504,533
718,3	497,362
718,8	497,79
719,2	491,276
719,7	486,905
720,1	475,962
720,5	472,476
721	464,733
721,4	463,533
721,8	462,733
722,3	456,99
722,7	449,048
723,2	453,562
723,6	445,59
724	444,562
724,5	436,848
724,9	429,19
725,3	427,276
725,8	423,505
726,2	418,076
726,7	415,448
727,1	409,248
727,5	408,419
728	407,848
728,4	403,333
728,8	405,676
729,3	401,676
729,7	398,048
730,1	397,933
730,6	395,076
731	395,39
731,5	398,733
731,9	398,333
732,3	401,219
732,8	399,448
733,2	398,848
733,6	394,705
734,1	387,819
734,5	377,619
734,9	372,79
735,4	366,048
735,8	364,39
736,3	360,733
736,7	359,076
737,1	356,876
737,6	359,162
738	356,676
738,4	357,562
738,9	360,105
739,3	356,705
739,7	355,019
740,2	353,648
740,6	349,676
741,1	346,305
741,5	344,048
741,9	333,276
742,4	331,476
742,8	327,762
743,2	328,248
743,7	327,79
744,1	325,276
744,5	320,876
745	320,705
745,4	316,39
745,8	316,648
746,3	316,619
746,7	311,362
747,2	311,362
747,6	305,676
748	302,962
748,5	304,448
748,9	301,19
749,3	297,133
749,8	294,962
750,2	287,848
750,6	289,133
751,1	293,448
751,5	287,419
751,9	286,333
752,4	281,733
752,8	282,505
753,3	282,876
753,7	284,905
754,1	274,133
754,6	276,19
755	270,105
755,4	268,962
755,9	265,676
756,3	260,619
756,7	253,476
757,2	259,676
757,6	259,133
758	258,733
758,5	254,505
758,9	255,99
759,3	255,533
759,8	257,105
760,2	256,419
760,6	256,39
761,1	259,305
761,5	264,733
761,9	262,19
762,4	262,362
762,8	262,39
763,3	256,762
763,7	249,076
764,1	247,133
764,6	241,448
765	235,962
765,4	235,505
765,9	227,162
766,3	226,933
766,7	226,676
767,2	225,533
767,6	221,733
768	224,105
768,5	219,276
768,9	219,962
769,3	219,733
769,8	221,819
770,2	223,133
770,6	222,79
771,1	223,419
771,5	221,933
771,9	221,733
772,4	221,333
772,8	217,248
773,2	211,19
773,7	212,505
774,1	208,476
774,5	213,305
775	208,79
775,4	205,19
775,8	204,59
776,3	202,39
776,7	203,819
777,1	206,333
777,6	199,819
778	201,419
778,4	199,648
778,9	197,419
779,3	196,848
779,7	191,105
780,2	187,876
780,6	190,19
781	189,533
781,5	187,448
781,9	185,419
782,3	185,219
782,8	186,676
783,2	179,19
783,6	174,419
784,1	178,562
784,5	173,705
784,9	175,019
785,4	172,505
785,8	166,848
786,2	168,99
786,7	169,048
787,1	159,248
787,5	164,333
788	159,505
788,4	159,648
788,8	159,562
789,3	158,076
789,7	156,362
790,1	158,562
790,6	157,819
791	159,419
791,4	157,162
791,9	156,676
792,3	154,79
792,7	160,19
793,2	156,99
793,6	153,105
794	152,933
794,5	153,933
794,9	154,476
795,3	154,533
795,8	148,99
796,2	150,962
796,6	149,762
797,1	143,533
797,5	140,733
797,9	138,819
798,4	138,248
798,8	134,448
799,2	133,048
799,7	137,105
800,1	140,048
800,5	139,59
801	137,305
801,4	133,048
801,8	136,562
802,2	138,533
802,7	135,019
803,1	133,705
803,5	132,419
804	131,648
804,4	130,219
804,8	128,762
805,3	120,533
805,7	117,019
806,1	118,79
806,6	120,762
807	121,476
807,4	120,648
807,9	119,448
808,3	123,619
808,7	125,105
809,2	121,876
809,6	120,219
810	118,305
810,4	121,39
810,9	116,276
811,3	116,448
811,7	114,533
812,2	116,848
812,6	113,619
813	113,448
813,5	113,248
813,9	116,248
814,3	111,276
814,8	110,39
815,2	103,048
815,6	99,105
816,1	97,305
816,5	95,648
816,9	96,076
817,3	97,562
817,8	97,648
818,2	100,733
818,6	105,276
819,1	103,876
819,5	103,162
819,9	96,79
820,4	93,562
820,8	88,162
821,2	88,133
821,7	84,819
822,1	82,248
822,5	85,219
822,9	92,676
823,4	93,648
823,8	95,705
824,2	91,99
824,7	95,162
825,1	97,99
825,5	95,619
826	95,39
826,4	95,048
826,8	97,105
827,3	100,505
827,7	98,648
828,1	102,39
828,5	101,505
829	90,876
829,4	94,819
829,8	88,419
830,3	91,133
830,7	86,562
831,1	78,219
831,6	76,162
832	78,876
832,4	74,562
832,8	80,705
833,3	72,99
833,7	77,733
834,1	79,248
834,6	77,962
835	81,419
835,4	82,333
835,8	77,39
836,3	76,99
836,7	69,933
837,1	68,162
837,6	65,819
838	62,676
838,4	60,505
838,9	65,105
839,3	67,848
839,7	70,162
840,1	70,619
840,6	71,39
841	72,505
841,4	67,962
841,9	60,39
842,3	61,362
842,7	59,819
843,1	60,848
843,6	66,933
844	65,99
844,4	69,876
844,9	72,133
845,3	62,705
845,7	64,962
846,2	64,19
846,6	57,705
847	54,419
847,4	53,533
847,9	55,105
848,3	63,533
848,7	62,419
849,2	64,59
849,6	63,076
850	61,562
850,4	62,133
850,9	58,448
851,3	53,248
851,7	53,533
852,2	45,648
852,6	49,762
853	53,505
853,4	55,533
853,9	54,905
854,3	55,79
854,7	50,99
855,2	52,619
855,6	47,848
856	44,419
856,4	41,219
856,9	40,648
857,3	37,505
857,7	45,705
858,2	46,79
858,6	54,733
859	53,79
859,4	51,105
859,9	56,905
860,3	60,59
860,7	56,705
861,1	56,505
861,6	50,419
862	52,762
862,4	57,876
862,9	53,676
863,3	50,705
863,7	46,562
864,1	44,905
864,6	45,162
865	44,619
865,4	39,705
865,9	38,248
866,3	40,533
866,7	40,219
867,1	46,333
867,6	44,076
868	43,533
868,4	42,648
868,8	42,19
869,3	42,419
869,7	42,076
870,1	37,39
870,6	35,848
871	81,905
871,4	81,19
871,8	81,219
872,3	81,476
872,7	80,219
873,1	79,619
873,5	82,048
874	34,019
874,4	35,533
874,8	35,476
875,3	33,505
875,7	33,933
876,1	33,305
876,5	33,162
877	32,019
877,4	29,076
877,8	33,59
878,2	33,648
878,7	38,676
879,1	37,39
879,5	37,362
879,9	37,905
880,4	40,076
880,8	33,476
881,2	35,676
881,7	37,019
882,1	38,276
882,5	33,39
882,9	35,505
883,4	37,562
883,8	37,448
884,2	32,79
884,6	28,562
885,1	27,99
885,5	32,105
885,9	35,076
886,3	31,448
886,8	28,39
887,2	29,533
887,6	26,448
888	22,505
888,5	27,362
888,9	25,848
889,3	18,619
889,8	24,362
890,2	22,733
890,6	21,419
891	23,019
891,5	20,105
891,9	16,762
892,3	24,476
892,7	25,876
893,2	26,362
893,6	26,533
894	27,962
894,4	25,048
894,9	26,619
895,3	26,962
895,7	24,276
896,1	26,533
896,6	26,448
897	20,676
897,4	17,848
897,8	15,59
898,3	18,19
898,7	17,819
899,1	12,79
899,5	13,505
900	19,305
900,4	17,362
900,8	18,705
901,2	12,99
901,7	10,79
902,1	16,333
902,5	18,762
902,9	22,448
903,4	25,362
903,8	22,219
904,2	25,733
904,6	23,676
905,1	24,533
905,5	21,876
905,9	18,848
906,3	20,676
906,8	22,876
907,2	19,362
907,6	21,733
908	18,819
908,5	18,962
908,9	16,248
909,3	13,819
909,7	12,448
910,2	11,99
910,6	15,076
911	15,219
911,4	13,648
911,9	12,905
912,3	14,533
912,7	15,39
913,1	10,19
913,6	9,876
914	9,448
914,4	9,705
914,8	15,619
915,3	10,705
915,7	11,19
916,1	17,39
916,5	16,133
916,9	15,333
917,4	18,219
917,8	11,705
918,2	14,619
918,6	10,505
919,1	14,505
919,5	14,905
919,9	16,048
920,3	16,79
920,8	21,448
921,2	26,248
921,6	29,933
922	21,962
922,5	19,19
922,9	17,733
923,3	16,076
923,7	10,848
924,2	4,305
924,6	3,362
925	6,076
925,4	9,562
925,8	9,733
926,3	9,276
926,7	15,676
927,1	17,648
927,5	15,305
928	17,333
928,4	13,305
928,8	15,99
929,2	18,048
929,7	13,019
930,1	11,848
930,5	9,219
930,9	7,648
931,3	9,133
931,8	5,848
932,2	3,99
932,6	5,848
933	2,105
933,5	5,333
933,9	5,133
934,3	1,933
934,7	7,762
935,2	10,562
935,6	8,59
936	10,676
936,4	11,905
936,8	13,962
937,3	14,933
937,7	8,705
938,1	2,105
938,5	3,333
939	6,533
939,4	10,162
939,8	10,048
940,2	10,362
940,6	8,962
941,1	17,562
941,5	17,362
941,9	17,648
942,3	12,105
942,8	10,505
943,2	9,476
943,6	12,448
944	4,133
944,4	0,419
944,9	0,448
945,3	6,219
945,7	7,648
946,1	12,505
946,6	11,305
947	15,648
947,4	18,819
947,8	18,962
948,2	14,248
948,7	13,648
949,1	11,39
949,5	11,648
949,9	10,848
950,3	13,619
950,8	11,448
951,2	11,705
951,6	11,848
952	9,133
952,5	7,79
952,9	5,333
953,3	1,105
953,7	3,79
954,1	2,476
954,6	3,848
955	8,99
955,4	7,762
955,8	12,705
956,2	11,619
956,7	10,019
957,1	10,448
957,5	8,448
957,9	5,133
958,3	8,276
958,8	7,762
959,2	12,19
959,6	13,419
960	12,848
960,5	9,162
960,9	9,105
961,3	7,99
961,7	-1,552
962,1	-7,524
962,6	-8,238
963	-9,467
963,4	-6,61
963,8	-4,61
964,2	-4,324
964,7	1,276
965,1	7,79
965,5	6,19
965,9	8,676
966,3	7,762
966,8	4,476
967,2	3,162
967,6	2,962
968	3,79
968,4	5,419
968,9	11,019
969,3	9,105
969,7	9,848
970,1	11,333
970,5	15,333
971	7,333
971,4	12,676
971,8	7,39
972,2	13,105
972,6	10,476
973,1	9,048
973,5	7,048
973,9	9,39
974,3	0,848
974,7	-2,924
975,2	-7,467
975,6	-10,038
976	-3,324
976,4	-4,524
976,8	-4,552
977,3	-3,781
977,7	-3,524
978,1	-1,667
978,5	4,419
978,9	-2,895
979,4	-4,552
979,8	-0,324
980,2	-3,095
980,6	3,333
981	3,876
981,5	3,819
981,9	4,162
982,3	4,133
982,7	1,533
983,1	5,562
983,6	2,19
984	3,019
984,4	3,962
984,8	3,419
985,2	7,076
985,6	8,505
986,1	4,905
986,5	1,733
986,9	3,048
987,3	0,733
987,7	4,648
988,2	7,476
988,6	3,133
989	6,819
989,4	14,105
989,8	7,676
990,3	7,105
990,7	3,79
991,1	-5,467
991,5	-5,381
991,9	-2,438
992,3	-4,495
992,8	1,59
993,2	7,276
993,6	7,79
994	10,39
994,4	10,79
994,9	7,219
995,3	5,133
995,7	0,19
996,1	-3,552
996,5	-4,495
996,9	-4,524
997,4	-2,21
997,8	-2,352
998,2	0,048
998,6	3,476
999	0,848
999,5	3,533
999,9	5,19
1000,3	8,448
1000,7	6,133
1001,1	4,676
1001,5	4,219
1002	2,819
1002,4	2,99
1002,8	5,99
1003,2	4,076
1003,6	11,676
1004	13,733
1004,5	13,905
1004,9	15,533
1005,3	10,276
1005,7	8,105
1006,1	6,105
1006,6	3,105
1007	0,048
1007,4	-0,21
1007,8	1,876
1008,2	0,99
1008,6	-2,667
1009,1	-4,867
1009,5	1,762
1009,9	6,705
1010,3	8,048
1010,7	9,39
1011,1	15,305
1011,6	18,19
1012	21,305
1012,4	18,048
1012,8	7,876
1013,2	6,676
1013,6	6,305
1014,1	6,019
1014,5	7,533
1014,9	6,419
1015,3	-0,838
1015,7	1,219
1016,1	0,048
1016,6	4,619
1017	3,333
1017,4	-0,552
1017,8	-2,695
1018,2	-2,638
1018,6	2,076
1019,1	3,905
1019,5	2,762
1019,9	7,105
1020,3	8,962
1020,7	12,562
1021,1	14,705
1021,6	9,933
1022	3,448
1022,4	2,448
1022,8	-3,067
1023,2	-2,752
1023,6	-4,867
1024,1	-4,924
1024,5	-0,438
1024,9	8,619
1025,3	5,333
1025,7	8,333
1026,1	8,419
1026,6	11,99
1027	10,219
1027,4	7,305
1027,8	4,076
1028,2	2,276
1028,6	1,476
1029	-2,495
1029,5	-3,038
1029,9	-2,01
1030,3	0,476
1030,7	-3,095
1031,1	-4,695
1031,5	-10,238
1032	-6,667
1032,4	-12,695
1032,8	-12,352
1033,2	-13,124
1033,6	-9,295
1034	-6,781
1034,4	-0,067
1034,9	-2,41
1035,3	8,905
1035,7	10,362
1036,1	12,619
1036,5	8,476
1036,9	9,448
1037,4	10,076
1037,8	11,99
1038,2	0,905
1038,6	-1,552
1039	-5,61
1039,4	-4,467
1039,8	-7,695
1040,3	-11,81
1040,7	-15,667
1041,1	-10,095
1041,5	-15,295
1041,9	-16,667
1042,3	-14,438
1042,7	-8,838
1043,2	-7,495
1043,6	1,39
1044	0,162
1044,4	2,619
1044,8	0,105
1045,2	-1,438
1045,6	-2,924
1046,1	-0,438
1046,5	-7,667
1046,9	-6,267
1047,3	-8,352
1047,7	-4,324
1048,1	-5,067
1048,5	-1,181
1049	0,105
1049,4	0,59
1049,8	-0,724
1050,2	7,59
1050,6	11,39
1051	13,419
1051,4	5,676
1051,9	7,076
1052,3	10,99
1052,7	8,476
1053,1	7,362
1053,5	7,933
1053,9	5,876
1054,3	6,59
1054,8	8,305
1055,2	9,448
1055,6	9,59
1056	7,362
1056,4	9,733
1056,8	14,39
1057,2	16,305
1057,6	6,276
1058,1	7,048
1058,5	7,276
1058,9	8,676
1059,3	7,276
1059,7	2,019
1060,1	1,905
1060,5	2,048
1061	0,79
1061,4	7,876
1061,8	5,79
1062,2	3,848
1062,6	6,79
1063	3,99
1063,4	8,276
1063,8	5,019
1064,3	1,362
1064,7	-0,724
1065,1	1,248
1065,5	2,362
1065,9	5,448
1066,3	-1,467
1066,7	-2,924
1067,1	-5,181
1067,6	-1,124
1068	-8,438
1068,4	-6,524
1068,8	-5,838
1069,2	-4,01
1069,6	3,105
1070	5,962
1070,4	6,848
1070,9	10,648
1071,3	6,962
1071,7	6,533
1072,1	10,905
1072,5	11,962
1072,9	11,819
1073,3	13,476
1073,7	11,905
1074,2	11,105
1074,6	7,733
1075	8,533
1075,4	4,648
1075,8	2,419
1076,2	-0,667
1076,6	1,705
1077	2,248
1077,5	7,048
1077,9	7,562
1078,3	6,333
1078,7	7,819
1079,1	9,133
1079,5	7,39
1079,9	13,362
1080,3	10,133
1080,7	10,905
1081,2	11,619
1081,6	13,19
1082	11,648
1082,4	13,79
1082,8	8,648
1083,2	9,619
1083,6	10,333
1084	7,962
1084,5	3,076
1084,9	3,333
1085,3	3,79
1085,7	-1,095
1086,1	-5,781
1086,5	-6,495
1086,9	-6,81
1087,3	-5,295
1087,7	-3,41
1088,2	-5,524
1088,6	-0,638
1089	0,448
1089,4	-1,41
1089,8	1,305
1090,2	2,733
1090,6	2,648
1091	4,905
1091,4	6,819
1091,9	11,133
1092,3	11,562
1092,7	8,448
1093,1	6,305
1093,5	2,648
1093,9	3,105
1094,3	1,59
1094,7	3,248
1095,1	1,705
1095,5	3,419
1096	1,105
1096,4	5,619
1096,8	1,933
1097,2	2,105
1097,6	-1,867
1098	-2,067
1098,4	-2,752
1098,8	-0,038
1099,2	0,476
1099,6	5,933
1100,1	3,133
1100,5	7,619
1100,9	5,848
1101,3	5,648
1101,7	9,162
1102,1	9,219
1102,5	6,105
1102,9	5,076
1103,3	1,705
1103,7	3,362
1104,2	6,619
1104,6	7,048
1105	4,99
1105,4	3,276
1105,8	6,162
1106,2	6,79
1106,6	6,362
1107	3,848
1107,4	0,5
1107,8	-1,147
1108,3	-0,067
