Data from Subt2_269.txt Node
Date: Sat Aug 26 19:03:23 MSK 2023
User: vat
Spectrometer: MAYP114033
Trigger mode: 0
Integration Time (sec): 1,000000E0
Scans to average: 5
Electric dark correction enabled: true
Nonlinearity correction enabled: false
Boxcar width: 3
XAxis mode: Wavelengths
Number of Pixels in Spectrum: 2068
>>>>>Begin Spectral Data<<<<<
199,4	-0,983
199,9	0,887
200,4	-0,633
200,8	0,538
201,3	-1,719
201,8	0,624
202,2	-0,205
202,7	5,252
203,2	5,71
203,6	9,91
204,1	6,652
204,6	10,052
205	9,824
205,5	11,195
206	5,481
206,4	6,11
206,9	-0,119
207,4	3,424
207,8	1,281
208,3	1,024
208,8	2,252
209,2	4,11
209,7	2,852
210,2	8,281
210,6	8,338
211,1	9,452
211,5	6,481
212	5,767
212,5	4,881
212,9	5,567
213,4	3,967
213,9	3,195
214,3	3,224
214,8	5,767
215,3	2,481
215,7	4,081
216,2	5,224
216,7	9,452
217,1	6,395
217,6	11,795
218,1	8,395
218,5	8,11
219	-1,233
219,5	1,424
219,9	-4,576
220,4	0,881
220,9	-3,062
221,3	1,995
221,8	7,024
222,3	15,538
222,7	16,11
223,2	18,538
223,6	14,681
224,1	9,738
224,6	9,481
225	5,395
225,5	5,652
226	1,367
226,4	3,024
226,9	2,024
227,4	5,31
227,8	-1,433
228,3	-1,776
228,8	-6,148
229,2	-6,833
229,7	-8,376
230,2	-6,433
230,6	-3,005
231,1	4,824
231,5	4,424
232	8,795
232,5	9,938
232,9	7,252
233,4	8,967
233,9	7,595
234,3	3,367
234,8	7,024
235,3	3,938
235,7	4,71
236,2	7,795
236,7	7,167
237,1	9,767
237,6	7,595
238,1	6,11
238,5	4,138
239	5,224
239,4	6,71
239,9	7,395
240,4	1,424
240,8	10,11
241,3	7,767
241,8	7,938
242,2	7,538
242,7	2,31
243,2	3,595
243,6	1,795
244,1	0,167
244,6	4,852
245	8,281
245,5	8,195
245,9	9,624
246,4	8,052
246,9	13,738
247,3	11,31
247,8	11,967
248,3	12,167
248,7	11,91
249,2	11,538
249,7	11,51
250,1	7,538
250,6	8,138
251	8,795
251,5	9,538
252	6,167
252,4	9,367
252,9	7,652
253,4	6,481
253,8	6,31
254,3	2,624
254,8	4,567
255,2	6,51
255,7	1,995
256,1	3,195
256,6	7,767
257,1	7,138
257,5	0,567
258	-3,548
258,5	-2,205
258,9	4,024
259,4	3,252
259,9	2,452
260,3	-4,405
260,8	0,167
261,2	0,138
261,7	0,852
262,2	-7,148
262,6	-9,662
263,1	-4,805
263,6	1,424
264	7,224
264,5	10,424
264,9	3,91
265,4	10,11
265,9	11,138
266,3	6,252
266,8	8,252
267,3	5,481
267,7	1,51
268,2	3,995
268,7	5,252
269,1	5,567
269,6	5,11
270	5,595
270,5	1,452
271	8,224
271,4	9,452
271,9	2,024
272,4	6,652
272,8	6,767
273,3	-2,433
273,7	0,795
274,2	-1,205
274,7	-0,49
275,1	2,452
275,6	2,624
276,1	4,71
276,5	14,681
277	14,852
277,4	12,51
277,9	13,481
278,4	14,881
278,8	14,852
279,3	12,995
279,8	12,052
280,2	15,852
280,7	19,595
281,1	16,224
281,6	17,91
282,1	15,424
282,5	15,795
283	13,195
283,4	7,938
283,9	5,967
284,4	10,224
284,8	5,338
285,3	0,252
285,8	2,652
286,2	2,31
286,7	1,595
287,1	0,91
287,6	-5,49
288,1	-6,005
288,5	1,852
289	-3,29
289,5	-2,176
289,9	-0,348
290,4	0,71
290,8	1,824
291,3	3,967
291,8	0,824
292,2	6,081
292,7	6,824
293,1	8,31
293,6	8,567
294,1	10,081
294,5	12,167
295	13,424
295,5	9,71
295,9	10,538
296,4	8,395
296,8	7,824
297,3	7,967
297,8	3,338
298,2	0,167
298,7	3,367
299,1	1,167
299,6	-0,748
300,1	-1,776
300,5	-2,262
301	3,624
301,5	8,538
301,9	5,967
302,4	5,91
302,8	3,652
303,3	4,91
303,8	3,795
304,2	1,795
304,7	-0,776
305,1	-5,319
305,6	-5,233
306,1	3,595
306,5	2,281
307	10,052
307,4	11,367
307,9	11,367
308,4	12,967
308,8	8,681
309,3	3,824
309,8	1,31
310,2	-2,462
310,7	-3,833
311,1	-1,633
311,6	1,652
312,1	7,138
312,5	9,967
313	14,367
313,4	15,967
313,9	14,595
314,4	11,767
314,8	8,938
315,3	8,281
315,7	6,51
316,2	4,624
316,7	0,71
317,1	6,081
317,6	3,852
318	6,281
318,5	3,195
319	0,595
319,4	-4,348
319,9	-2,348
320,3	-0,176
320,8	1,767
321,3	2,51
321,7	7,195
322,2	8,824
322,6	18,681
323,1	15,624
323,6	7,881
324	7,138
324,5	1,51
324,9	1,967
325,4	1,424
325,9	-2,919
326,3	-0,805
326,8	5,195
327,2	5,11
327,7	10,252
328,2	9,767
328,6	14,71
329,1	11,138
329,5	8,767
330	2,481
330,5	5,938
330,9	6,395
331,4	7,052
331,8	5,424
332,3	7,938
332,8	12,738
333,2	13,51
333,7	13,852
334,1	14,567
334,6	11,395
335,1	10,024
335,5	16,281
336	14,367
336,4	16,681
336,9	20,852
337,4	23,252
337,8	21,824
338,3	20,938
338,7	15,51
339,2	14,281
339,7	14,024
340,1	7,967
340,6	6,224
341	3,281
341,5	5,138
342	2,824
342,4	3,338
342,9	2,081
343,3	-0,49
343,8	-2,119
344,2	3,795
344,7	7,967
345,2	9,538
345,6	10,024
346,1	9,624
346,5	9,852
347	9,052
347,5	4,281
347,9	3,51
348,4	0,31
348,8	1,767
349,3	6,91
349,8	7,824
350,2	12,281
350,7	14,567
351,1	15,824
351,6	22,252
352	22,595
352,5	23,052
353	30,938
353,4	29,738
353,9	42,824
354,3	46,195
354,8	48,081
355,3	63,595
355,7	80,538
356,2	92,995
356,6	112,938
357,1	129,338
357,5	149,938
358	185,11
358,5	210,224
358,9	238,052
359,4	276,538
359,8	318,824
360,3	367,31
360,8	417,538
361,2	473,538
361,7	535,767
362,1	609,138
362,6	682,367
363	764,595
363,5	849,252
364	948,967
364,4	1037,424
364,9	1134,452
365,3	1227,51
365,8	1313,452
366,3	1391,824
366,7	1468,024
367,2	1523,367
367,6	1576,138
368,1	1616,424
368,5	1642,452
369	1664,395
369,5	1670,538
369,9	1656,738
370,4	1636,281
370,8	1602,481
371,3	1555,881
371,7	1500,224
372,2	1431,338
372,7	1361,91
373,1	1290,167
373,6	1215,281
374	1142,195
374,5	1063,395
374,9	989,31
375,4	919,481
375,9	848,595
376,3	783,567
376,8	721,052
377,2	662,052
377,7	606,281
378,2	553,452
378,6	503,567
379,1	461,024
379,5	421,338
380	391,395
380,4	361,31
380,9	332,31
381,4	305,51
381,8	285,595
382,3	267,138
382,7	247,938
383,2	228,938
383,6	212,967
384,1	201,252
384,6	191,024
385	176,052
385,5	163,024
385,9	152,681
386,4	141,824
386,8	133,51
387,3	121,91
387,7	111,195
388,2	110,881
388,7	102,081
389,1	93,795
389,6	86,71
390	78,91
390,5	79,567
390,9	78,824
391,4	71,167
391,9	69,338
392,3	70,252
392,8	63,595
393,2	56,71
393,7	53,081
394,1	44,224
394,6	39,681
395,1	37,881
395,5	32,824
396	36,738
396,4	36,795
396,9	33,51
397,3	38,31
397,8	41,595
398,2	40,767
398,7	40,052
399,2	37,967
399,6	39,795
400,1	37,91
400,5	34,424
401	30,338
401,4	27,795
401,9	29,081
402,4	29,452
402,8	25,367
403,3	32,11
403,7	32,595
404,2	35,452
404,6	39,224
405,1	33,71
405,5	29,852
406	29,31
406,5	20,767
406,9	21,652
407,4	21,681
407,8	17,538
408,3	23,395
408,7	24,595
409,2	31,252
409,6	39,567
410,1	42,195
410,6	48,338
411	53,91
411,5	54,652
411,9	55,538
412,4	54,881
412,8	55,567
413,3	55,738
413,7	48,71
414,2	49,281
414,7	54,024
415,1	62,567
415,6	70,71
416	70,967
416,5	73,138
416,9	79,852
417,4	78,367
417,8	82,595
418,3	83,795
418,8	79,738
419,2	83,252
419,7	87,738
420,1	89,567
420,6	100,281
421	97,252
421,5	93,367
421,9	93,567
422,4	93,538
422,8	89,424
423,3	84,224
423,8	75,452
424,2	73,31
424,7	73,081
425,1	74,71
425,6	75,767
426	74,624
426,5	79,424
426,9	84,081
427,4	83,452
427,9	83,71
428,3	86,31
428,8	82,881
429,2	83,852
429,7	82,195
430,1	80,938
430,6	79,167
431	80,452
431,5	78,281
431,9	76,052
432,4	80,824
432,8	81,538
433,3	82,138
433,8	83,281
434,2	85,224
434,7	87,081
435,1	90,795
435,6	89,367
436	92,195
436,5	95,338
436,9	97,967
437,4	97,738
437,8	99,938
438,3	99,452
438,8	101,138
439,2	102,967
439,7	105,967
440,1	110,367
440,6	115,252
441	112,338
441,5	122,195
441,9	129,567
442,4	128,538
442,8	133,424
443,3	142,538
443,7	146,91
444,2	157,595
444,7	159,11
445,1	166,738
445,6	180,052
446	183,795
446,5	181,71
446,9	183,795
447,4	185,824
447,8	196,11
448,3	199,967
448,7	205,252
449,2	215,795
449,6	231,452
450,1	241,767
450,6	258,081
451	267,138
451,5	273,938
451,9	286,995
452,4	297,138
452,8	298,824
453,3	316,252
453,7	323,081
454,2	331,424
454,6	343,51
455,1	348,795
455,5	357,852
456	375,424
456,4	380,11
456,9	394,281
457,3	407,738
457,8	414,652
458,3	431,281
458,7	442,595
459,2	457,024
459,6	470,852
460,1	488,624
460,5	501,967
461	523,11
461,4	535,91
461,9	550,224
462,3	562,795
462,8	582,995
463,2	591,167
463,7	604,652
464,1	619,624
464,6	640,767
465	664,138
465,5	680,567
466	697,024
466,4	716,738
466,9	738,881
467,3	754,452
467,8	768,367
468,2	779,195
468,7	801,967
469,1	821,395
469,6	839,367
470	854,167
470,5	875,881
470,9	890,852
471,4	905,395
471,8	914,624
472,3	935,024
472,7	955,338
473,2	974,938
473,6	988,395
474,1	1011,71
474,5	1036,138
475	1060,024
475,4	1075,738
475,9	1090,452
476,4	1107,252
476,8	1132,538
477,3	1146,567
477,7	1168,424
478,2	1186,338
478,6	1199,567
479,1	1214,024
479,5	1231,481
480	1245,338
480,4	1264,195
480,9	1274,767
481,3	1289,538
481,8	1308,167
482,2	1323,367
482,7	1335,167
483,1	1347,767
483,6	1360,91
484	1374,224
484,5	1388,738
484,9	1397,338
485,4	1418,624
485,8	1431,71
486,3	1446,881
486,7	1456,824
487,2	1468,881
487,6	1480,567
488,1	1492,31
488,5	1491,995
489	1510,11
489,4	1521,31
489,9	1532,395
490,4	1543,11
490,8	1551,281
491,3	1569,852
491,7	1587,452
492,2	1595,995
492,6	1605,252
493,1	1617,081
493,5	1623,567
494	1632,452
494,4	1638,681
494,9	1640,538
495,3	1650,31
495,8	1656,595
496,2	1662,567
496,7	1669,138
497,1	1679,995
497,6	1685,081
498	1698,138
498,5	1701,081
498,9	1707,424
499,4	1714,367
499,8	1730,11
500,3	1736,852
500,7	1739,51
501,2	1741,71
501,6	1744,967
502,1	1747,767
502,5	1754,824
503	1755,595
503,4	1755,652
503,9	1760,167
504,3	1766,481
504,8	1775,995
505,2	1784,252
505,7	1783,367
506,1	1789,881
506,6	1789,824
507	1794,967
507,5	1802,367
507,9	1804,452
508,4	1803,91
508,8	1815,967
509,3	1818,481
509,7	1833,024
510,2	1841,738
510,6	1840,538
511,1	1844,024
511,5	1853,51
512	1855,024
512,4	1859,367
512,9	1858,624
513,3	1860,452
513,8	1870,824
514,2	1875,567
514,7	1876,31
515,1	1877,852
515,6	1882,081
516	1885,138
516,5	1891,081
516,9	1895,967
517,4	1899,567
517,8	1911,795
518,3	1921,595
518,7	1926,652
519,2	1932,281
519,6	1931,967
520,1	1935,824
520,5	1945,824
521	1942,31
521,4	1946,052
521,9	1951,081
522,3	1958,452
522,8	1967,024
523,2	1967,51
523,7	1968,11
524,1	1976,938
524,6	1979,767
525	1984,624
525,5	1984,452
525,9	1990,481
526,4	2000,138
526,8	2004,595
527,3	2015,824
527,7	2026,452
528,2	2034,224
528,6	2045,91
529,1	2050,71
529,5	2060,652
530	2071,195
530,4	2066,424
530,9	2075,881
531,3	2081,681
531,8	2088,281
532,2	2098,624
532,6	2101,224
533,1	2106,938
533,5	2124,51
534	2121,538
534,4	2124,824
534,9	2135,995
535,3	2138,167
535,8	2143,995
536,2	2154,224
536,7	2161,138
537,1	2170,738
537,6	2180,338
538	2183,824
538,5	2196,681
538,9	2203,31
539,4	2207,795
539,8	2209,767
540,3	2217,567
540,7	2226,167
541,2	2228,395
541,6	2232,795
542,1	2242,967
542,5	2253,452
543	2258,738
543,4	2262,624
543,9	2268,681
544,3	2282,281
544,8	2289,024
545,2	2294,51
545,7	2303,138
546,1	2312,281
546,5	2325,052
547	2330,652
547,4	2332,652
547,9	2339,995
548,3	2352,71
548,8	2355,31
549,2	2358,081
549,7	2364,51
550,1	2377,995
550,6	2387,938
551	2395,167
551,5	2395,195
551,9	2395,881
552,4	2405,938
552,8	2408,538
553,3	2408,338
553,7	2407,624
554,2	2414,31
554,6	2424,424
555,1	2435,938
555,5	2439,795
555,9	2449,738
556,4	2457,995
556,8	2472,138
557,3	2475,91
557,7	2479,795
558,2	2485,31
558,6	2495,424
559,1	2493,367
559,5	2501,081
560	2504,338
560,4	2507,824
560,9	2508,967
561,3	2511,652
561,8	2513,138
562,2	2522,824
562,7	2520,481
563,1	2530,767
563,6	2535,652
564	2540,767
564,4	2543,395
564,9	2544,881
565,3	2544,995
565,8	2550,138
566,2	2548,167
566,7	2554,31
567,1	2558,281
567,6	2564,51
568	2570,195
568,5	2577,881
568,9	2579,995
569,4	2580,967
569,8	2584,795
570,3	2585,11
570,7	2577,967
571,1	2577,252
571,6	2575,681
572	2578,91
572,5	2575,424
572,9	2570,11
573,4	2573,424
573,8	2581,51
574,3	2583,967
574,7	2582,51
575,2	2582,224
575,6	2589,424
576,1	2591,024
576,5	2590,567
576,9	2584,652
577,4	2583,767
577,8	2580,138
578,3	2575,967
578,7	2570,224
579,2	2573,338
579,6	2572,881
580,1	2572,281
580,5	2567,681
581	2570,595
581,4	2568,281
581,9	2563,31
582,3	2556,167
582,7	2552,51
583,2	2552,252
583,6	2552,538
584,1	2551,024
584,5	2550,881
585	2554,367
585,4	2549,281
585,9	2541,91
586,3	2547,367
586,8	2543,967
587,2	2535,167
587,6	2534,052
588,1	2532,71
588,5	2527,138
589	2528,995
589,4	2516,652
589,9	2508,71
590,3	2506,481
590,8	2498,595
591,2	2494,852
591,7	2496,681
592,1	2489,938
592,5	2492,224
593	2490,081
593,4	2489,452
593,9	2484,995
594,3	2474,881
594,8	2468,824
595,2	2468,852
595,7	2461,367
596,1	2459,338
596,6	2459,652
597	2457,224
597,4	2457,852
597,9	2459,767
598,3	2453,252
598,8	2445,652
599,2	2442,538
599,7	2431,052
600,1	2424,138
600,6	2415,424
601	2409,281
601,4	2409,395
601,9	2405,224
602,3	2401,024
602,8	2395,767
603,2	2390,824
603,7	2380,852
604,1	2372,738
604,6	2362,91
605	2357,081
605,4	2348,767
605,9	2338,11
606,3	2326,967
606,8	2321,852
607,2	2309,081
607,7	2295,767
608,1	2286,424
608,6	2277,024
609	2280,338
609,4	2283,31
609,9	2282,081
610,3	2275,338
610,8	2272,652
611,2	2266,281
611,7	2262,452
612,1	2247,567
612,6	2240,367
613	2231,681
613,4	2227,652
613,9	2219,71
614,3	2213,595
614,8	2208,91
615,2	2199,652
615,7	2184,11
616,1	2176,395
616,6	2166,595
617	2156,881
617,4	2147,795
617,9	2140,71
618,3	2136,024
618,8	2134,767
619,2	2124,71
619,7	2123,252
620,1	2116,538
620,5	2113,281
621	2099,367
621,4	2093,795
621,9	2080,481
622,3	2074,995
622,8	2057,538
623,2	2044,71
623,6	2035,424
624,1	2030,281
624,5	2016,595
625	2014,881
625,4	2004,938
625,9	2000,881
626,3	1994,281
626,8	1983,31
627,2	1970,195
627,6	1959,11
628,1	1941,424
628,5	1933,538
629	1920,424
629,4	1907,567
629,9	1899,595
630,3	1886,71
630,7	1878,681
631,2	1871,424
631,6	1859,167
632,1	1849,31
632,5	1841,138
633	1828,024
633,4	1822,767
633,8	1815,71
634,3	1806,367
634,7	1794,338
635,2	1784,367
635,6	1779,681
636,1	1773,967
636,5	1760,881
636,9	1745,024
637,4	1737,881
637,8	1729,51
638,3	1719,081
638,7	1706,824
639,2	1691,595
639,6	1685,224
640	1678,195
640,5	1663,452
640,9	1657,052
641,4	1650,024
641,8	1643,595
642,2	1637,224
642,7	1631,795
643,1	1630,538
643,6	1625,424
644	1621,624
644,5	1618,681
644,9	1612,081
645,3	1603,481
645,8	1597,195
646,2	1592,024
646,7	1584,91
647,1	1569,081
647,6	1558,052
648	1550,652
648,4	1539,967
648,9	1528,052
649,3	1514,452
649,8	1507,681
650,2	1500,167
650,6	1494,338
651,1	1480,252
651,5	1476,281
652	1471,624
652,4	1459,538
652,9	1454,71
653,3	1448,024
653,7	1436,852
654,2	1430,052
654,6	1418,452
655,1	1411,395
655,5	1410,681
655,9	1400,452
656,4	1390,938
656,8	1379,938
657,3	1370,824
657,7	1371,052
658,2	1355,938
658,6	1341,91
659	1330,624
659,5	1321,795
659,9	1318,195
660,4	1309,795
660,8	1298,11
661,2	1293,024
661,7	1288,71
662,1	1283,024
662,6	1278,652
663	1268,138
663,4	1262,367
663,9	1253,824
664,3	1243,167
664,8	1231,452
665,2	1219,424
665,6	1209,452
666,1	1199,967
666,5	1190,367
667	1182,567
667,4	1176,452
667,9	1171,91
668,3	1164,967
668,7	1156,452
669,2	1159,31
669,6	1156,595
670,1	1147,51
670,5	1137,767
670,9	1128,138
671,4	1122,824
671,8	1118,824
672,3	1107,71
672,7	1100,938
673,1	1090,424
673,6	1088,795
674	1087,252
674,5	1078,138
674,9	1062,824
675,3	1049,881
675,8	1041,995
676,2	1038,967
676,7	1028,252
677,1	1022,367
677,5	1017,824
678	1020,395
678,4	1018,252
678,9	1010,967
679,3	1002,595
679,7	996,624
680,2	984,395
680,6	975,967
681,1	963,681
681,5	959,538
681,9	953,11
682,4	949,795
682,8	942,395
683,3	940,167
683,7	938,081
684,1	933,881
684,6	921,224
685	918,824
685,5	912,195
685,9	904,338
686,3	892,167
686,8	881,567
687,2	877,681
687,7	871,31
688,1	857,681
688,5	848,224
689	850,367
689,4	846,738
689,9	845,452
690,3	834,51
690,7	834,052
691,2	836,624
691,6	833,338
692	821,481
692,5	814,481
692,9	812,938
693,4	807,995
693,8	799,195
694,2	783,481
694,7	779,538
695,1	773,167
695,6	770,51
696	760,71
696,4	758,652
696,9	753,367
697,3	750,252
697,8	744,795
698,2	741,395
698,6	737,11
699,1	728,624
699,5	725,681
699,9	720,31
700,4	715,338
700,8	710,252
701,3	708,052
701,7	700,71
702,1	697,967
702,6	689,052
703	689,567
703,5	684,995
703,9	681,281
704,3	676,052
704,8	670,224
705,2	662,938
705,6	665,11
706,1	662,938
706,5	659,481
707	654,338
707,4	649,995
707,8	646,91
708,3	646,71
708,7	639,31
709,2	628,395
709,6	623,881
710	622,138
710,5	614,367
710,9	610,452
711,3	604,195
711,8	600,424
712,2	599,967
712,7	598,767
713,1	595,481
713,5	593,595
714	591,481
714,4	587,91
714,8	580,938
715,3	568,567
715,7	562,595
716,2	557,681
716,6	552,995
717	543,995
717,5	541,624
717,9	544,224
718,3	543,852
718,8	540,367
719,2	536,052
719,7	532,138
720,1	534,424
720,5	535,281
721	523,795
721,4	524,51
721,8	522,624
722,3	512,91
722,7	512,024
723,2	500,538
723,6	485,538
724	482,167
724,5	474,195
724,9	469,91
725,3	469,31
725,8	462,138
726,2	463,681
726,7	462,281
727,1	456,31
727,5	458,395
728	450,881
728,4	448,681
728,8	444,51
729,3	437,738
729,7	433,138
730,1	433,881
730,6	425,824
731	421,91
731,5	418,281
731,9	416,224
732,3	417,995
732,8	420,052
733,2	418,681
733,6	417,681
734,1	419,652
734,5	415,824
734,9	418,938
735,4	416,91
735,8	408,681
736,3	408,967
736,7	404,424
737,1	400,538
737,6	396,338
738	389,138
738,4	384,824
738,9	388,31
739,3	381,567
739,7	383,11
740,2	379,652
740,6	379,967
741,1	380,424
741,5	371,795
741,9	370,424
742,4	371,31
742,8	367,767
743,2	369,767
743,7	364,767
744,1	355,052
744,5	354,395
745	346,681
745,4	341,538
745,8	343,967
746,3	337,967
746,7	336,795
747,2	343,681
747,6	347,481
748	349,995
748,5	350,767
748,9	339,195
749,3	336,624
749,8	335,681
750,2	329,91
750,6	326,91
751,1	322,452
751,5	317,91
751,9	320,024
752,4	320,767
752,8	321,938
753,3	319,452
753,7	316,567
754,1	313,795
754,6	309,252
755	304,824
755,4	298,652
755,9	295,567
756,3	291,795
756,7	290,367
757,2	285,052
757,6	286,424
758	284,11
758,5	282,795
758,9	274,824
759,3	274,624
759,8	268,252
760,2	268,852
760,6	263,91
761,1	262,195
761,5	261,31
761,9	260,052
762,4	256,652
762,8	256,881
763,3	255,624
763,7	258,338
764,1	253,824
764,6	252,938
765	258,767
765,4	261,967
765,9	259,852
766,3	265,995
766,7	259,252
767,2	261,824
767,6	263,595
768	260,024
768,5	252,052
768,9	253,967
769,3	244,195
769,8	240,71
770,2	241,367
770,6	236,195
771,1	234,224
771,5	233,538
771,9	230,624
772,4	230,395
772,8	232,481
773,2	229,11
773,7	226,424
774,1	221,395
774,5	219,595
775	220,738
775,4	220,281
775,8	221,052
776,3	222,852
776,7	221,91
777,1	221,852
777,6	221,795
778	221,567
778,4	216,281
778,9	215,31
779,3	209,995
779,7	209,652
780,2	209,252
780,6	204,281
781	202,595
781,5	203,538
781,9	200,138
782,3	198,11
782,8	199,424
783,2	196,31
783,6	201,852
784,1	196,367
784,5	193,224
784,9	190,081
785,4	190,881
785,8	186,338
786,2	187,11
786,7	182,91
787,1	182,452
787,5	183,938
788	184,252
788,4	178,852
788,8	179,081
789,3	175,367
789,7	177,252
790,1	175,081
790,6	171,538
791	166,052
791,4	171,824
791,9	165,281
792,3	161,424
792,7	160,052
793,2	156,081
793,6	158,91
794	163,281
794,5	156,338
794,9	159,795
795,3	161,024
795,8	156,224
796,2	160,624
796,6	157,938
797,1	153,452
797,5	153,081
797,9	149,052
798,4	148,71
798,8	146,224
799,2	139,595
799,7	140,852
800,1	142,452
800,5	140,367
801	146,195
801,4	141,024
801,8	137,538
802,2	140,567
802,7	134,424
803,1	132,595
803,5	134,31
804	125,195
804,4	131,395
804,8	137,281
805,3	138,367
805,7	138,395
806,1	133,938
806,6	134,71
807	134,967
807,4	130,938
807,9	125,852
808,3	121,938
808,7	120,567
809,2	126,624
809,6	125,738
810	122,424
810,4	121,452
810,9	123,367
811,3	126,938
811,7	127,195
812,2	129,424
812,6	127,852
813	130,538
813,5	129,081
813,9	125,767
814,3	118,567
814,8	115,967
815,2	109,224
815,6	106,852
816,1	110,824
816,5	111,281
816,9	110,481
817,3	110,681
817,8	113,995
818,2	112,11
818,6	107,51
819,1	101,281
819,5	99,052
819,9	97,738
820,4	96,967
820,8	91,681
821,2	88,481
821,7	94,795
822,1	100,91
822,5	107,252
822,9	107,138
823,4	105,452
823,8	109,424
824,2	107,052
824,7	97,567
825,1	88,652
825,5	80,852
826	78,195
826,4	81,281
826,8	76,081
827,3	79,138
827,7	81,71
828,1	82,367
828,5	84,11
829	83,51
829,4	80,51
829,8	76,652
830,3	77,652
830,7	75,081
831,1	76,91
831,6	76,11
832	76,167
832,4	73,195
832,8	78,852
833,3	75,51
833,7	76,281
834,1	75,338
834,6	68,738
835	68,567
835,4	70,967
835,8	69,938
836,3	70,852
836,7	70,652
837,1	66,824
837,6	74,452
838	75,824
838,4	73,852
838,9	70,738
839,3	68,338
839,7	68,595
840,1	65,595
840,6	62,052
841	66,71
841,4	65,424
841,9	67,424
842,3	66,595
842,7	69,024
843,1	73,681
843,6	74,11
844	68,452
844,4	70,91
844,9	70,452
845,3	71,738
845,7	71,424
846,2	66,481
846,6	62,338
847	60,052
847,4	59,938
847,9	60,538
848,3	59,195
848,7	54,281
849,2	57,052
849,6	58,452
850	60,224
850,4	60,71
850,9	62,11
851,3	63,795
851,7	70,881
852,2	72,424
852,6	70,31
853	72,595
853,4	67,595
853,9	60,252
854,3	56,138
854,7	51,281
855,2	49,367
855,6	52,51
856	47,338
856,4	48,681
856,9	48,738
857,3	53,91
857,7	56,538
858,2	60,052
858,6	57,967
859	59,595
859,4	59,338
859,9	59,538
860,3	53,052
860,7	47,481
861,1	49,167
861,6	46,024
862	45,052
862,4	43,767
862,9	46,281
863,3	48,91
863,7	51,081
864,1	46,51
864,6	48,91
865	51,738
865,4	52,595
865,9	52,852
866,3	49,195
866,7	47,795
867,1	43,767
867,6	43,767
868	38,652
868,4	37,367
868,8	36,224
869,3	39,252
869,7	43,995
870,1	41,281
870,6	42,31
871	30,052
871,4	36,824
871,8	34,11
872,3	34,252
872,7	27,767
873,1	30,852
873,5	28,11
874	39,767
874,4	36,224
874,8	38,052
875,3	37,281
875,7	36,71
876,1	39,624
876,5	39,795
877	39,938
877,4	32,624
877,8	35,224
878,2	40,11
878,7	41,538
879,1	39,881
879,5	45,367
879,9	48,452
880,4	52,252
880,8	48,281
881,2	42,681
881,7	38,738
882,1	38,51
882,5	31,681
882,9	28,281
883,4	26,195
883,8	27,167
884,2	29,31
884,6	28,995
885,1	27,91
885,5	31,367
885,9	31,195
886,3	33,995
886,8	32,995
887,2	32,995
887,6	39,11
888	37,31
888,5	37,024
888,9	35,281
889,3	31,967
889,8	32,281
890,2	30,11
890,6	21,395
891	25,481
891,5	22,338
891,9	24,51
892,3	26,11
892,7	23,738
893,2	22,967
893,6	27,567
894	26,281
894,4	26,024
894,9	24,024
895,3	23,338
895,7	25,452
896,1	23,138
896,6	22,024
897	21,281
897,4	26,31
897,8	29,081
898,3	29,71
898,7	27,395
899,1	32,824
899,5	32,595
900	24,224
900,4	19,11
900,8	14,595
901,2	14,91
901,7	15,481
902,1	13,195
902,5	12,852
902,9	18,138
903,4	19,824
903,8	23,195
904,2	22,31
904,6	24,281
905,1	23,624
905,5	23,595
905,9	29,024
906,3	31,224
906,8	32,767
907,2	30,595
907,6	29,281
908	29,967
908,5	30,224
908,9	23,824
909,3	18,167
909,7	16,252
910,2	19,595
910,6	24,367
911	21,452
911,4	22,138
911,9	20,824
912,3	23,281
912,7	26,652
913,1	27,081
913,6	18,624
914	20,052
914,4	20,91
914,8	25,224
915,3	20,738
915,7	20,31
916,1	16,767
916,5	18,11
916,9	19,995
917,4	20,252
917,8	20,51
918,2	17,338
918,6	11,338
919,1	12,252
919,5	15,11
919,9	13,567
920,3	9,452
920,8	10,881
921,2	17,31
921,6	18,738
922	16,252
922,5	14,824
922,9	14,738
923,3	15,338
923,7	10,51
924,2	8,338
924,6	9,481
925	10,538
925,4	7,481
925,8	6,824
926,3	7,024
926,7	5,51
927,1	7,624
927,5	8,967
928	10,138
928,4	11,338
928,8	16,052
929,2	15,452
929,7	16,538
930,1	15,424
930,5	12,31
930,9	15,367
931,3	18,195
931,8	15,052
932,2	14,824
932,6	15,681
933	12,31
933,5	14,795
933,9	14,31
934,3	16,281
934,7	12,881
935,2	14,167
935,6	17,452
936	17,795
936,4	18,11
936,8	16,738
937,3	10,281
937,7	14,624
938,1	17,11
938,5	9,224
939	11,338
939,4	8,481
939,8	10,481
940,2	18,967
940,6	19,652
941,1	17,652
941,5	27,395
941,9	28,281
942,3	28,138
942,8	24,938
943,2	19,995
943,6	14,652
944	14,252
944,4	10,167
944,9	6,195
945,3	10,31
945,7	7,567
946,1	4,624
946,6	5,681
947	6,281
947,4	7,167
947,8	11,91
948,2	4,167
948,7	8,538
949,1	11,71
949,5	13,624
949,9	11,824
950,3	12,567
950,8	13,424
951,2	12,452
951,6	5,795
952	8,452
952,5	3,538
952,9	4,11
953,3	1,538
953,7	-2,833
954,1	5,738
954,6	9,681
955	7,91
955,4	8,081
955,8	12,252
956,2	10,224
956,7	15,824
957,1	7,395
957,5	12,195
957,9	10,71
958,3	9,395
958,8	9,852
959,2	13,767
959,6	10,51
960	14,995
960,5	9,71
960,9	10,281
961,3	14,081
961,7	8,852
962,1	7,881
962,6	6,138
963	5,081
963,4	4,167
963,8	0,367
964,2	-0,033
964,7	3,167
965,1	5,881
965,5	7,281
965,9	8,824
966,3	12,138
966,8	14,652
967,2	15,11
967,6	17,738
968	8,252
968,4	8,681
968,9	9,824
969,3	10,738
969,7	7,995
970,1	9,652
970,5	2,224
971	9,081
971,4	7,71
971,8	6,224
972,2	4,51
972,6	7,595
973,1	3,224
973,5	9,71
973,9	16,31
974,3	18,824
974,7	22,652
975,2	26,252
975,6	24,024
976	25,51
976,4	20,624
976,8	15,338
977,3	13,995
977,7	9,852
978,1	8,338
978,5	7,595
978,9	7,852
979,4	8,538
979,8	7,138
980,2	6,51
980,6	7,252
981	8,51
981,5	8,91
981,9	8,652
982,3	9,738
982,7	8,538
983,1	7,081
983,6	4,595
984	2,281
984,4	5,881
984,8	8,71
985,2	11,11
985,6	10,052
986,1	11,052
986,5	13,567
986,9	10,481
987,3	10,595
987,7	5,738
988,2	-1,205
988,6	-0,662
989	0,424
989,4	-1,319
989,8	-3,033
990,3	-4,233
990,7	-0,519
991,1	4,367
991,5	7,567
991,9	9,824
992,3	15,052
992,8	21,938
993,2	22,167
993,6	20,938
994	24,538
994,4	24,881
994,9	23,338
995,3	19,452
995,7	14,138
996,1	13,967
996,5	15,195
996,9	9,395
997,4	6,481
997,8	-0,29
998,2	-2,69
998,6	-7,89
999	-7,49
999,5	-8,09
999,9	-7,776
1000,3	-7,29
1000,7	-3,233
1001,1	-3,262
1001,5	3,681
1002	6,881
1002,4	5,795
1002,8	7,624
1003,2	7,538
1003,6	12,738
1004	18,281
1004,5	15,738
1004,9	14,967
1005,3	9,967
1005,7	8,395
1006,1	5,595
1006,6	3,395
1007	0,081
1007,4	0,995
1007,8	-0,119
1008,2	3,852
1008,6	5,938
1009,1	9,967
1009,5	9,252
1009,9	11,395
1010,3	10,052
1010,7	11,11
1011,1	11,738
1011,6	10,367
1012	13,738
1012,4	10,024
1012,8	8,424
1013,2	15,31
1013,6	10,852
1014,1	13,852
1014,5	11,481
1014,9	8,281
1015,3	10,824
1015,7	12,338
1016,1	5,738
1016,6	5,595
1017	3,338
1017,4	5,31
1017,8	6,652
1018,2	7,938
1018,6	1,71
1019,1	1,167
1019,5	2,91
1019,9	-0,262
1020,3	5,481
1020,7	3,052
1021,1	1,681
1021,6	7,195
1022	13,081
1022,4	10,71
1022,8	16,338
1023,2	9,11
1023,6	5,595
1024,1	10,138
1024,5	7,681
1024,9	4,281
1025,3	8,167
1025,7	4,681
1026,1	5,138
1026,6	9,052
1027	1,652
1027,4	5,452
1027,8	6,138
1028,2	-0,605
1028,6	0,767
1029	2,452
1029,5	4,824
1029,9	3,224
1030,3	4,967
1030,7	3,138
1031,1	10,595
1031,5	10,338
1032	12,481
1032,4	9,967
1032,8	18,624
1033,2	14,795
1033,6	15,252
1034	11,11
1034,4	7,595
1034,9	7,538
1035,3	6,252
1035,7	4,252
1036,1	3,967
1036,5	1,081
1036,9	4,481
1037,4	11,367
1037,8	5,31
1038,2	4,11
1038,6	2,824
1039	8,367
1039,4	16,367
1039,8	12,367
1040,3	7,481
1040,7	10,167
1041,1	10,595
1041,5	13,11
1041,9	6,167
1042,3	0,738
1042,7	3,652
1043,2	6,395
1043,6	3,595
1044	3,224
1044,4	1,167
1044,8	4,567
1045,2	7,852
1045,6	9,767
1046,1	9,452
1046,5	11,195
1046,9	11,938
1047,3	10,681
1047,7	6,338
1048,1	0,738
1048,5	0,652
1049	4,681
1049,4	10,71
1049,8	9,824
1050,2	12,824
1050,6	22,052
1051	27,481
1051,4	22,424
1051,9	16,681
1052,3	23,567
1052,7	25,624
1053,1	19,595
1053,5	18,138
1053,9	16,167
1054,3	15,11
1054,8	22,481
1055,2	15,367
1055,6	18,824
1056	21,967
1056,4	14,024
1056,8	14,281
1057,2	14,31
1057,6	8,338
1058,1	4,081
1058,5	-1,69
1058,9	2,91
1059,3	8,624
1059,7	8,424
1060,1	12,138
1060,5	14,938
1061	15,338
1061,4	16,767
1061,8	15,567
1062,2	8,167
1062,6	6,91
1063	7,567
1063,4	5,967
1063,8	6,338
1064,3	5,967
1064,7	5,738
1065,1	10,224
1065,5	12,11
1065,9	9,452
1066,3	7,395
1066,7	1,738
1067,1	-2,49
1067,6	-3,033
1068	-4,89
1068,4	-2,205
1068,8	1,281
1069,2	1,252
1069,6	4,481
1070	13,795
1070,4	12,252
1070,9	8,167
1071,3	2,538
1071,7	-0,919
1072,1	2,081
1072,5	-2,205
1072,9	-4,919
1073,3	-2,633
1073,7	0,91
1074,2	4,11
1074,6	5,281
1075	1,738
1075,4	9,052
1075,8	11,052
1076,2	9,595
1076,6	13,31
1077	11,995
1077,5	16,481
1077,9	14,91
1078,3	14,652
1078,7	11,595
1079,1	12,938
1079,5	9,567
1079,9	10,424
1080,3	5,967
1080,7	7,538
1081,2	8,91
1081,6	7,252
1082	0,995
1082,4	8,652
1082,8	7,795
1083,2	9,51
1083,6	9,567
1084	5,938
1084,5	9,138
1084,9	10,224
1085,3	-1,462
1085,7	-1,262
1086,1	-1,662
1086,5	1,052
1086,9	6,224
1087,3	6,424
1087,7	8,967
1088,2	14,167
1088,6	14,938
1089	11,195
1089,4	9,395
1089,8	5,11
1090,2	0,681
1090,6	0,795
1091	4,081
1091,4	4,538
1091,9	8,052
1092,3	9,081
1092,7	9,681
1093,1	13,824
1093,5	14,052
1093,9	11,624
1094,3	13,052
1094,7	12,795
1095,1	13,052
1095,5	15,938
1096	11,71
1096,4	11,852
1096,8	11,424
1097,2	7,481
1097,6	12,195
1098	9,624
1098,4	8,11
1098,8	12,71
1099,2	18,052
1099,6	15,338
1100,1	17,052
1100,5	10,052
1100,9	11,681
1101,3	12,452
1101,7	11,424
1102,1	5,224
1102,5	10,738
1102,9	12,138
1103,3	18,481
1103,7	18,938
1104,2	15,824
1104,6	13,624
1105	10,681
1105,4	7,481
1105,8	4,967
1106,2	-0,49
1106,6	-1,748
1107	-1,633
1107,4	-1,533
1107,8	1,367
1108,3	0,067
