Data from Subt2_149.txt Node
Date: Sat Aug 26 18:30:48 MSK 2023
User: vat
Spectrometer: MAYP114033
Trigger mode: 0
Integration Time (sec): 1,000000E0
Scans to average: 5
Electric dark correction enabled: true
Nonlinearity correction enabled: false
Boxcar width: 3
XAxis mode: Wavelengths
Number of Pixels in Spectrum: 2068
>>>>>Begin Spectral Data<<<<<
199,4	-0,417
199,9	0,633
200,4	-1,933
200,8	-0,138
201,3	-4,024
201,8	-1,652
202,2	-3,595
202,7	1,176
203,2	-0,652
203,6	-1,252
204,1	-4,281
204,6	-0,91
205	0,262
205,5	4,319
206	1,69
206,4	2,319
206,9	7,319
207,4	10,205
207,8	9,062
208,3	6,976
208,8	1,119
209,2	0,548
209,7	1,776
210,2	0,862
210,6	0,148
211,1	2,948
211,5	-0,938
212	1,49
212,5	-0,052
212,9	-0,681
213,4	-1,795
213,9	-4,024
214,3	-3,424
214,8	-0,938
215,3	-3,652
215,7	-2,052
216,2	-1,767
216,7	0,29
217,1	1,948
217,6	0,319
218,1	0,233
218,5	3,748
219	-2,224
219,5	1,176
219,9	-3,995
220,4	0,576
220,9	0,519
221,3	2,862
221,8	4,119
222,3	6,948
222,7	2,69
223,2	6,605
223,6	1,005
224,1	0,662
224,6	1,576
225	0,605
225,5	2,69
226	4,233
226,4	5,205
226,9	9,919
227,4	9,29
227,8	-0,681
228,3	-3,624
228,8	-3,481
229,2	-4,138
229,7	-5,31
230,2	-7,881
230,6	-2,367
231,1	5,148
231,5	11,262
232	9,776
232,5	10,548
232,9	12,405
233,4	11,89
233,9	8,033
234,3	7,976
234,8	3,519
235,3	3,062
235,7	1,119
236,2	1,119
236,7	2,062
237,1	4,633
237,6	3,719
238,1	2,919
238,5	-1,51
239	0,319
239,4	0,319
239,9	-2,738
240,4	-5,995
240,8	-3,395
241,3	-3,938
241,8	2,69
242,2	1,576
242,7	-1,195
243,2	0,805
243,6	-1,11
244,1	0,005
244,6	4,776
245	2,548
245,5	3,319
245,9	-0,195
246,4	1,148
246,9	1,719
247,3	1,376
247,8	1,605
248,3	4,69
248,7	4,748
249,2	8,776
249,7	8,033
250,1	9,29
250,6	5,948
251	5,005
251,5	4,919
252	2,919
252,4	7,576
252,9	1,605
253,4	-3,452
253,8	-5,995
254,3	-8,852
254,8	-7,967
255,2	-10,338
255,7	-17,167
256,1	-12,167
256,6	-4,71
257,1	2,062
257,5	0,148
258	-3,795
258,5	-0,538
258,9	-0,252
259,4	-3,081
259,9	-5,595
260,3	-11,481
260,8	-10,767
261,2	-10,481
261,7	-6,624
262,2	-10,31
262,6	-8,767
263,1	-7,652
263,6	-7,452
264	2,862
264,5	4,89
264,9	1,376
265,4	5,69
265,9	3,805
266,3	7,862
266,8	12,719
267,3	5,119
267,7	1,719
268,2	4,062
268,7	3,748
269,1	7,233
269,6	0,662
270	2,833
270,5	2,119
271	5,576
271,4	6,176
271,9	2,748
272,4	8,662
272,8	9,548
273,3	1,776
273,7	3,319
274,2	1,005
274,7	-2,481
275,1	2,176
275,6	-4,195
276,1	-2,767
276,5	0,919
277	-3,91
277,4	-0,91
277,9	0,548
278,4	1,405
278,8	5,919
279,3	3,833
279,8	4,09
280,2	12,09
280,7	10,348
281,1	6,548
281,6	1,976
282,1	-1,967
282,5	1,719
283	0,69
283,4	-3,595
283,9	-2,481
284,4	2,262
284,8	7,319
285,3	4,548
285,8	2,89
286,2	0,605
286,7	1,662
287,1	1,148
287,6	0,405
288,1	-4,881
288,5	0,519
289	2,29
289,5	6,548
289,9	3,833
290,4	5,605
290,8	6,719
291,3	12,862
291,8	12,919
292,2	9,462
292,7	11,348
293,1	13,033
293,6	13,176
294,1	12,062
294,5	8,805
295	7,519
295,5	7,062
295,9	4,833
296,4	1,576
296,8	-2,167
297,3	-3,824
297,8	-8,91
298,2	-15,395
298,7	-11,452
299,1	-13,91
299,6	-13,795
300,1	-6,31
300,5	-7,31
301	-1,51
301,5	10,633
301,9	8,719
302,4	9,805
302,8	12,176
303,3	4,948
303,8	3,49
304,2	1,89
304,7	-5,052
305,1	-7,938
305,6	-7,252
306,1	0,005
306,5	4,319
307	9,576
307,4	16,433
307,9	16,033
308,4	16,976
308,8	12,69
309,3	2,548
309,8	-3,681
310,2	-7,052
310,7	-15,795
311,1	-13,652
311,6	-14,71
312,1	-10,081
312,5	-4,881
313	-0,652
313,4	2,919
313,9	6,233
314,4	2,462
314,8	4,005
315,3	2,633
315,7	-1,452
316,2	-5,024
316,7	-6,71
317,1	-2,195
317,6	-0,11
318	5,433
318,5	1,348
319	5,89
319,4	12,462
319,9	16,948
320,3	15,348
320,8	12,233
321,3	7,805
321,7	15,519
322,2	12,519
322,6	11,09
323,1	4,948
323,6	1,49
324	1,148
324,5	-0,481
324,9	-3,652
325,4	-1,881
325,9	-1,224
326,3	2,919
326,8	5,233
327,2	4,462
327,7	5,062
328,2	-0,224
328,6	-1,452
329,1	-9,452
329,5	-14,281
330	-12,652
330,5	-4,881
330,9	-3,224
331,4	2,148
331,8	3,376
332,3	12,148
332,8	15,319
333,2	14,805
333,7	15,462
334,1	15,49
334,6	11,033
335,1	6,919
335,5	4,033
336	1,833
336,4	-0,652
336,9	0,119
337,4	-0,681
337,8	2,348
338,3	8,405
338,7	10,633
339,2	9,776
339,7	11,748
340,1	4,919
340,6	7,033
341	7,748
341,5	-2,367
342	-5,595
342,4	-8,852
342,9	-9,881
343,3	-7,052
343,8	-12,652
344,2	-8,852
344,7	1,49
345,2	-0,338
345,6	4,89
346,1	4,005
346,5	-0,367
347	1,69
347,5	-1,367
347,9	-0,91
348,4	-0,852
348,8	-1,681
349,3	0,176
349,8	5,376
350,2	11,69
350,7	7,319
351,1	5,205
351,6	12,633
352	17,862
352,5	19,719
353	25,576
353,4	25,319
353,9	35,919
354,3	41,49
354,8	42,433
355,3	50,805
355,7	61,69
356,2	71,548
356,6	87,49
357,1	105,29
357,5	127,662
358	157,976
358,5	183,919
358,9	217,119
359,4	253,433
359,8	290,119
360,3	335,633
360,8	383,433
361,2	435,805
361,7	493,148
362,1	562,833
362,6	633,405
363	712,69
363,5	792,376
364	887,605
364,4	977,548
364,9	1071,833
365,3	1159,805
365,8	1244,69
366,3	1319,576
366,7	1393,976
367,2	1448,69
367,6	1497,005
368,1	1541,262
368,5	1564,119
369	1573,033
369,5	1582,805
369,9	1572,119
370,4	1550,005
370,8	1517,69
371,3	1467,576
371,7	1412,433
372,2	1358,148
372,7	1293,033
373,1	1225,29
373,6	1151,805
374	1081,033
374,5	1004,948
374,9	940,548
375,4	874,033
375,9	807,262
376,3	740,148
376,8	682,433
377,2	629,233
377,7	577,233
378,2	521,976
378,6	473,348
379,1	432,005
379,5	400,262
380	368,948
380,4	332,862
380,9	308,605
381,4	284,319
381,8	267,205
382,3	248,49
382,7	227,405
383,2	213,062
383,6	202,576
384,1	189,233
384,6	179,176
385	162,833
385,5	148,862
385,9	135,862
386,4	121,405
386,8	112,033
387,3	103,776
387,7	98,576
388,2	94,376
388,7	88,09
389,1	87,033
389,6	79,205
390	74,919
390,5	75,976
390,9	70,405
391,4	65,033
391,9	63,776
392,3	59,49
392,8	56,89
393,2	49,719
393,7	44,233
394,1	39,49
394,6	37,205
395,1	36,548
395,5	34,719
396	36,919
396,4	34,89
396,9	32,605
397,3	34,919
397,8	36,519
398,2	35,09
398,7	31,748
399,2	29,205
399,6	33,976
400,1	32,605
400,5	27,348
401	26,576
401,4	21,033
401,9	20,748
402,4	23,605
402,8	20,119
403,3	28,205
403,7	29,748
404,2	32,09
404,6	36,862
405,1	38,948
405,5	36,376
406	37,376
406,5	29,89
406,9	32,519
407,4	33,319
407,8	38,09
408,3	41,319
408,7	40,719
409,2	47,09
409,6	52,605
410,1	55,605
410,6	56,176
411	57,09
411,5	60,405
411,9	66,548
412,4	70,119
412,8	76,833
413,3	87,205
413,7	91,462
414,2	92,433
414,7	101,919
415,1	114,262
415,6	120,005
416	122,748
416,5	123,833
416,9	133,69
417,4	147,29
417,8	157,862
418,3	164,748
418,8	174,405
419,2	183,633
419,7	190,862
420,1	196,319
420,6	205,29
421	204,633
421,5	215,348
421,9	224,062
422,4	237,462
422,8	251,748
423,3	262,919
423,8	272,919
424,2	287,033
424,7	298,262
425,1	308,205
425,6	318,262
426	329,776
426,5	347,948
426,9	364,976
427,4	377,49
427,9	390,833
428,3	413,062
428,8	435,833
429,2	457,348
429,7	475,148
430,1	492,119
430,6	519,89
431	540,433
431,5	564,662
431,9	581,69
432,4	608,49
432,8	641,748
433,3	674,233
433,8	702,433
434,2	740,69
434,7	776,233
435,1	818,919
435,6	857,062
436	895,348
436,5	937,576
436,9	980,319
437,4	1028,862
437,8	1073,862
438,3	1125,09
438,8	1180,633
439,2	1233,748
439,7	1295,205
440,1	1359,376
440,6	1420,976
441	1477,376
441,5	1537,49
441,9	1600,948
442,4	1661,262
442,8	1729,062
443,3	1797,89
443,7	1872,919
444,2	1956,119
444,7	2040,433
445,1	2123,29
445,6	2214,49
446	2297,576
446,5	2384,119
446,9	2465,062
447,4	2560,576
447,8	2654,033
448,3	2753,119
448,7	2856,29
449,2	2958,548
449,6	3067,119
450,1	3176,462
450,6	3281,69
451	3387,633
451,5	3496,119
451,9	3610,862
452,4	3732,862
452,8	3849,119
453,3	3971,433
453,7	4093,748
454,2	4223,805
454,6	4351,29
455,1	4467,576
455,5	4591,719
456	4732,376
456,4	4865,576
456,9	5003,033
457,3	5134,319
457,8	5269,262
458,3	5413,976
458,7	5553,948
459,2	5684,748
459,6	5821,89
460,1	5963,548
460,5	6105,976
461	6258,833
461,4	6401,519
461,9	6547,805
462,3	6704,462
462,8	6859,833
463,2	7007,433
463,7	7152,776
464,1	7303,748
464,6	7461,862
465	7608,319
465,5	7754,805
466	7898,69
466,4	8038,462
466,9	8189,919
467,3	8326,89
467,8	8468,49
468,2	8617,69
468,7	8759,405
469,1	8903,548
469,6	9044,09
470	9180,548
470,5	9318,405
470,9	9451,89
471,4	9581,062
471,8	9703,976
472,3	9840,519
472,7	9979,29
473,2	10105,233
473,6	10229,148
474,1	10349,919
474,5	10470,09
475	10586,176
475,4	10701,176
475,9	10815,205
476,4	10928,633
476,8	11028,29
477,3	11136,119
477,7	11240,948
478,2	11343,805
478,6	11419,548
479,1	11502,919
479,5	11581,462
480	11670,033
480,4	11752,833
480,9	11823,319
481,3	11887,405
481,8	11960,719
482,2	12023,405
482,7	12084,833
483,1	12149,119
483,6	12188,776
484	12233,319
484,5	12282,719
484,9	12331,319
485,4	12369,89
485,8	12412,176
486,3	12426,033
486,7	12453,605
487,2	12476,976
487,6	12504,119
488,1	12512,862
488,5	12522,519
489	12530,176
489,4	12546,633
489,9	12551,49
490,4	12559,49
490,8	12540,205
491,3	12532,548
491,7	12522,948
492,2	12503,062
492,6	12482,776
493,1	12458,405
493,5	12412,262
494	12382,519
494,4	12349,862
494,9	12313,948
495,3	12280,89
495,8	12251,005
496,2	12217,719
496,7	12178,748
497,1	12147,862
497,6	12103,662
498	12066,919
498,5	12027,662
498,9	11960,919
499,4	11899,319
499,8	11859,948
500,3	11803,062
500,7	11739,548
501,2	11666,548
501,6	11591,319
502,1	11525,862
502,5	11468,948
503	11399,348
503,4	11325,519
503,9	11261,348
504,3	11189,233
504,8	11111,376
505,2	11049,262
505,7	10973,262
506,1	10895,319
506,6	10802,062
507	10720,033
507,5	10646,148
507,9	10560,576
508,4	10464,519
508,8	10379,948
509,3	10285,005
509,7	10210,948
510,2	10121,748
510,6	10027,976
511,1	9948,576
511,5	9863,776
512	9772,148
512,4	9683,89
512,9	9601,033
513,3	9522,519
513,8	9426,49
514,2	9336,348
514,7	9246,633
515,1	9153,062
515,6	9065,405
516	8969,09
516,5	8869,662
516,9	8790,119
517,4	8699,976
517,8	8610,176
518,3	8519,662
518,7	8422,09
519,2	8326,519
519,6	8230,633
520,1	8137,519
520,5	8043,462
521	7948,776
521,4	7866,376
521,9	7785,176
522,3	7703,29
522,8	7622,662
523,2	7534,719
523,7	7454,69
524,1	7372,976
524,6	7282,69
525	7198,176
525,5	7114,89
525,9	7034,062
526,4	6946,405
526,8	6861,49
527,3	6785,862
527,7	6714,433
528,2	6642,662
528,6	6562,948
529,1	6489,948
529,5	6429,033
530	6365,433
530,4	6295,433
530,9	6215,662
531,3	6141,348
531,8	6075,176
532,2	6005,805
532,6	5926,805
533,1	5849,576
533,5	5780,062
534	5716,319
534,4	5658,405
534,9	5596,69
535,3	5524,862
535,8	5463,776
536,2	5406,148
536,7	5345,633
537,1	5281,548
537,6	5219,948
538	5159,405
538,5	5111,433
538,9	5047,262
539,4	4991,719
539,8	4932,176
540,3	4879,062
540,7	4822,29
541,2	4766,348
541,6	4707,976
542,1	4655,69
542,5	4603,633
543	4546,29
543,4	4498,576
543,9	4447,49
544,3	4395,09
544,8	4344,262
545,2	4302,605
545,7	4251,348
546,1	4211,719
546,5	4166,376
547	4125,49
547,4	4086,319
547,9	4044,376
548,3	4003,862
548,8	3965,976
549,2	3922,062
549,7	3881,205
550,1	3833,405
550,6	3790,405
551	3747,719
551,5	3705,405
551,9	3663,976
552,4	3624,805
552,8	3583,719
553,3	3547,948
553,7	3511,748
554,2	3482,376
554,6	3447,633
555,1	3412,148
555,5	3380,69
555,9	3354,862
556,4	3324,09
556,8	3296,805
557,3	3260,176
557,7	3233,89
558,2	3204,09
558,6	3180,548
559,1	3145,033
559,5	3117,719
560	3083,005
560,4	3058,376
560,9	3026,09
561,3	2996,148
561,8	2962,348
562,2	2930,605
562,7	2904,205
563,1	2882,348
563,6	2852,919
564	2825,062
564,4	2796,376
564,9	2766,776
565,3	2743,605
565,8	2714,205
566,2	2691,376
566,7	2671,548
567,1	2648,805
567,6	2632,433
568	2615,89
568,5	2594,405
568,9	2573,662
569,4	2544,662
569,8	2517,976
570,3	2496,805
570,7	2471,548
571,1	2448,319
571,6	2424,548
572	2404,119
572,5	2387,776
572,9	2365,062
573,4	2344,948
573,8	2322,862
574,3	2303,49
574,7	2285,49
575,2	2262,862
575,6	2239,948
576,1	2226,633
576,5	2207,376
576,9	2188,948
577,4	2168,433
577,8	2148,919
578,3	2130,405
578,7	2110,605
579,2	2091,605
579,6	2073,919
580,1	2058,605
580,5	2042,633
581	2029,09
581,4	2017,319
581,9	2002,176
582,3	1984,119
582,7	1969,29
583,2	1956,176
583,6	1942,09
584,1	1927,69
584,5	1907,948
585	1896,033
585,4	1874,548
585,9	1859,633
586,3	1847,09
586,8	1836,29
587,2	1813,919
587,6	1808,776
588,1	1791,776
588,5	1783,719
589	1772,005
589,4	1755,748
589,9	1735,776
590,3	1728,319
590,8	1708,348
591,2	1698,29
591,7	1688,433
592,1	1678,776
592,5	1666,605
593	1656,948
593,4	1644,748
593,9	1632,376
594,3	1618,262
594,8	1601,519
595,2	1585,833
595,7	1577,433
596,1	1564,062
596,6	1553,633
597	1539,89
597,4	1536,605
597,9	1533,033
598,3	1526,776
598,8	1512,89
599,2	1507,748
599,7	1499,433
600,1	1491,633
600,6	1478,433
601	1461,719
601,4	1458,748
601,9	1453,633
602,3	1439,662
602,8	1433,605
603,2	1421,69
603,7	1410,605
604,1	1405,719
604,6	1385,748
605	1365,633
605,4	1355,376
605,9	1337,405
606,3	1331,748
606,8	1325,748
607,2	1315,519
607,7	1308,548
608,1	1308,262
608,6	1306,948
609	1306,662
609,4	1304,233
609,9	1292,433
610,3	1284,748
610,8	1276,376
611,2	1263,348
611,7	1246,319
612,1	1233,89
612,6	1225,948
613	1221,348
613,4	1213,49
613,9	1202,919
614,3	1199,29
614,8	1198,662
615,2	1186,119
615,7	1174,519
616,1	1165,662
616,6	1154,348
617	1146,148
617,4	1135,662
617,9	1126,69
618,3	1128,719
618,8	1126,805
619,2	1115,433
619,7	1112,348
620,1	1105,062
620,5	1100,548
621	1088,548
621,4	1076,205
621,9	1059,662
622,3	1055,405
622,8	1044,69
623,2	1039,919
623,6	1032,548
624,1	1028,348
624,5	1021,062
625	1020,376
625,4	1015,69
625,9	1011,633
626,3	1002,176
626,8	993,005
627,2	991,49
627,6	981,576
628,1	972,148
628,5	967,348
629	957,233
629,4	950,948
629,9	944,205
630,3	929,69
630,7	923,062
631,2	914,719
631,6	905,119
632,1	900,776
632,5	898,948
633	893,719
633,4	887,719
633,8	884,976
634,3	876,776
634,7	869,605
635,2	857,176
635,6	851,776
636,1	845,205
636,5	839,862
636,9	830,69
637,4	827,005
637,8	815,919
638,3	816,005
638,7	805,148
639,2	797,519
639,6	793,69
640	786,062
640,5	780,862
640,9	779,033
641,4	775,862
641,8	774,233
642,2	772,405
642,7	771,49
643,1	776,233
643,6	773,833
644	771,605
644,5	768,576
644,9	762,662
645,3	765,776
645,8	753,748
646,2	749,633
646,7	744,205
647,1	733,233
647,6	725,49
648	722,005
648,4	706,576
648,9	707,662
649,3	699,519
649,8	694,033
650,2	692,605
650,6	689,348
651,1	682,69
651,5	686,433
652	676,462
652,4	670,976
652,9	667,205
653,3	662,233
653,7	658,262
654,2	651,462
654,6	639,748
655,1	642,633
655,5	644,748
655,9	637,005
656,4	635,833
656,8	629,348
657,3	631,633
657,7	630,805
658,2	624,262
658,6	613,033
659	611,205
659,5	605,148
659,9	599,433
660,4	595,748
660,8	588,89
661,2	582,062
661,7	580,29
662,1	577,176
662,6	573,176
663	571,405
663,4	565,062
663,9	562,376
664,3	560,576
664,8	553,49
665,2	545,976
665,6	542,69
666,1	541,119
666,5	534,948
667	531,69
667,4	524,262
667,9	523,576
668,3	519,576
668,7	513,005
669,2	510,548
669,6	510,119
670,1	505,033
670,5	501,605
670,9	494,89
671,4	495,319
671,8	498,29
672,3	499,919
672,7	495,548
673,1	492,519
673,6	487,319
674	488,948
674,5	483,719
674,9	473,148
675,3	462,148
675,8	459,805
676,2	455,776
676,7	452,805
677,1	448,119
677,5	445,89
678	447,09
678,4	445,033
678,9	441,862
679,3	440,519
679,7	439,805
680,2	428,405
680,6	423,233
681,1	419,176
681,5	416,89
681,9	414,119
682,4	410,09
682,8	409,976
683,3	416,405
683,7	417,119
684,1	414,005
684,6	407,976
685	403,89
685,5	402,805
685,9	392,09
686,3	385,09
686,8	379,719
687,2	380,605
687,7	380,233
688,1	374,462
688,5	372,205
689	379,548
689,4	377,005
689,9	372,433
690,3	365,776
690,7	362,033
691,2	362,776
691,6	362,49
692	358,805
692,5	357,119
692,9	358,29
693,4	356,233
693,8	354,548
694,2	348,948
694,7	340,776
695,1	332,833
695,6	332,748
696	329,862
696,4	327,176
696,9	323,633
697,3	319,776
697,8	317,862
698,2	315,719
698,6	312,862
699,1	309,719
699,5	310,176
699,9	307,633
700,4	307,262
700,8	308,69
701,3	307,519
701,7	303,205
702,1	300,176
702,6	296,205
703	296,262
703,5	295,005
703,9	287,319
704,3	290,862
704,8	288,462
705,2	288,919
705,6	285,062
706,1	278,548
706,5	278,919
707	280,148
707,4	276,833
707,8	273,233
708,3	269,576
708,7	269,576
709,2	267,919
709,6	264,805
710	262,062
710,5	254,148
710,9	253,605
711,3	252,919
711,8	252,148
712,2	254,005
712,7	245,148
713,1	247,976
713,5	249,262
714	250,205
714,4	247,348
714,8	247,205
715,3	244,29
715,7	248,176
716,2	241,719
716,6	241,49
717	234,719
717,5	228,89
717,9	226,605
718,3	225,319
718,8	224,633
719,2	221,748
719,7	215,805
720,1	217,976
720,5	220,433
721	216,662
721,4	214,319
721,8	213,176
722,3	210,033
722,7	214,605
723,2	206,805
723,6	201,462
724	199,776
724,5	197,405
724,9	195,062
725,3	195,976
725,8	190,433
726,2	192,576
726,7	194,148
727,1	192,29
727,5	189,662
728	187,376
728,4	188,605
728,8	187,433
729,3	185,719
729,7	183,462
730,1	183,09
730,6	183,662
731	182,805
731,5	179,005
731,9	176,576
732,3	179,605
732,8	181,033
733,2	181,176
733,6	182,49
734,1	182,49
734,5	180,633
734,9	182,433
735,4	179,462
735,8	173,348
736,3	174,319
736,7	168,805
737,1	168,519
737,6	169,033
738	166,719
738,4	162,348
738,9	168,462
739,3	163,348
739,7	165,176
740,2	161,69
740,6	163,233
741,1	165,662
741,5	161,862
741,9	159,862
742,4	164,89
742,8	161,319
743,2	161,033
743,7	155,09
744,1	148,89
744,5	150,405
745	148,948
745,4	139,233
745,8	139,862
746,3	139,719
746,7	137,662
747,2	141,262
747,6	146,09
748	145,805
748,5	151,433
748,9	149,662
749,3	147,862
749,8	151,69
750,2	146,205
750,6	138,576
751,1	139,233
751,5	134,862
751,9	132,633
752,4	132,69
752,8	133,319
753,3	135,005
753,7	141,405
754,1	135,605
754,6	137,148
755	134,548
755,4	131,49
755,9	128,633
756,3	126,748
756,7	124,233
757,2	122,805
757,6	119,919
758	121,662
758,5	121,062
758,9	120,376
759,3	122,033
759,8	119,176
760,2	119,319
760,6	118,09
761,1	116,633
761,5	116,976
761,9	113,805
762,4	107,033
762,8	105,948
763,3	106,062
763,7	107,062
764,1	111,433
764,6	109,519
765	111,833
765,4	115,319
765,9	115,062
766,3	110,148
766,7	105,262
767,2	103,662
767,6	104,462
768	104,748
768,5	103,69
768,9	105,348
769,3	108,69
769,8	107,69
770,2	106,49
770,6	104,005
771,1	104,233
771,5	106,805
771,9	105,405
772,4	104,862
772,8	104,519
773,2	103,005
773,7	102,462
774,1	98,005
774,5	91,89
775	91,09
775,4	93,948
775,8	96,662
776,3	94,548
776,7	94,262
777,1	93,605
777,6	96,748
778	96,09
778,4	94,262
778,9	95,09
779,3	91,405
779,7	93,776
780,2	94,89
780,6	91,862
781	89,262
781,5	82,233
781,9	80,719
782,3	80,605
782,8	79,633
783,2	78,519
783,6	82,262
784,1	79,205
784,5	78,062
784,9	75,233
785,4	79,148
785,8	82,919
786,2	85,062
786,7	82,976
787,1	84,005
787,5	88,405
788	88,519
788,4	85,919
788,8	80,376
789,3	73,462
789,7	74,376
790,1	74,119
790,6	76,776
791	73,205
791,4	79,09
791,9	72,633
792,3	72,148
792,7	75,748
793,2	79,376
793,6	75,776
794	77,376
794,5	67,719
794,9	76,433
795,3	78,919
795,8	67,976
796,2	67,462
796,6	65,376
797,1	63,433
797,5	64,319
797,9	58,09
798,4	53,519
798,8	57,319
799,2	53,205
799,7	57,433
800,1	57,576
800,5	61,405
801	65,319
801,4	64,376
801,8	63,548
802,2	64,719
802,7	61,89
803,1	63,948
803,5	62,205
804	58,519
804,4	59,948
804,8	57,348
805,3	56,348
805,7	54,062
806,1	52,233
806,6	52,005
807	53,033
807,4	54,033
807,9	52,576
808,3	54,719
808,7	56,605
809,2	59,719
809,6	62,662
810	62,805
810,4	61,605
810,9	66,348
811,3	64,89
811,7	64,805
812,2	67,462
812,6	62,776
813	65,176
813,5	68,605
813,9	64,519
814,3	64,719
814,8	60,405
815,2	53,748
815,6	54,948
816,1	56,833
816,5	56,633
816,9	61,776
817,3	58,376
817,8	61,348
818,2	63,09
818,6	59,948
819,1	51,576
819,5	47,548
819,9	48,405
820,4	46,976
820,8	46,405
821,2	41,205
821,7	45,662
822,1	49,205
822,5	56,719
822,9	49,319
823,4	50,776
823,8	53,062
824,2	59,233
824,7	53,348
825,1	46,633
825,5	38,49
826	36,09
826,4	33,262
826,8	30,348
827,3	30,062
827,7	28,233
828,1	30,348
828,5	31,976
829	31,805
829,4	30,662
829,8	25,148
830,3	25,205
830,7	26,776
831,1	28,69
831,6	27,605
832	30,176
832,4	33,205
832,8	38,233
833,3	35,005
833,7	33,662
834,1	32,919
834,6	34,376
835	36,405
835,4	36,519
835,8	33,919
836,3	31,119
836,7	32,205
837,1	31,005
837,6	30,833
838	27,919
838,4	32,776
838,9	33,148
839,3	32,548
839,7	33,548
840,1	30,205
840,6	29,062
841	29,005
841,4	24,89
841,9	29,005
842,3	33,062
842,7	32,89
843,1	35,29
843,6	35,662
844	37,319
844,4	37,862
844,9	37,005
845,3	34,233
845,7	33,462
846,2	28,49
846,6	21,433
847	21,348
847,4	21,005
847,9	16,176
848,3	16,49
848,7	15,548
849,2	20,776
849,6	19,69
850	22,462
850,4	21,433
850,9	23,176
851,3	25,09
851,7	26,49
852,2	26,29
852,6	36,148
853	32,948
853,4	34,348
853,9	31,205
854,3	32,776
854,7	33,233
855,2	33,89
855,6	30,405
856	26,233
856,4	18,29
856,9	18,148
857,3	12,519
857,7	14,948
858,2	21,548
858,6	20,233
859	25,376
859,4	30,748
859,9	33,005
860,3	32,433
860,7	28,433
861,1	21,462
861,6	21,919
862	21,948
862,4	20,176
862,9	21,119
863,3	21,548
863,7	21,29
864,1	22,005
864,6	18,976
865	17,519
865,4	19,205
865,9	21,633
866,3	18,119
866,7	17,69
867,1	14,548
867,6	16,29
868	11,462
868,4	7,69
868,8	4,948
869,3	5,89
869,7	8,748
870,1	7,348
870,6	4,433
871	11,005
871,4	17,862
871,8	15,976
872,3	20,29
872,7	17,633
873,1	22,548
873,5	24,833
874	20,719
874,4	16,833
874,8	15,119
875,3	13,348
875,7	12,49
876,1	9,29
876,5	7,548
877	8,49
877,4	7,376
877,8	7,776
878,2	10,662
878,7	14,405
879,1	14,062
879,5	17,519
879,9	17,776
880,4	17,176
880,8	17,662
881,2	15,605
881,7	9,719
882,1	8,919
882,5	7,205
882,9	8,233
883,4	7,319
883,8	11,376
884,2	11,576
884,6	14,062
885,1	17,462
885,5	16,033
885,9	14,805
886,3	16,948
886,8	12,29
887,2	8,862
887,6	5,462
888	4,433
888,5	5,605
888,9	2,148
889,3	-1,338
889,8	0,776
890,2	2,805
890,6	3,233
891	3,119
891,5	2,005
891,9	4,919
892,3	10,005
892,7	11,062
893,2	11,805
893,6	14,262
894	13,89
894,4	14,033
894,9	13,433
895,3	9,89
895,7	11,119
896,1	12,376
896,6	11,748
897	14,376
897,4	19,348
897,8	21,633
898,3	24,148
898,7	20,176
899,1	18,919
899,5	17,033
900	11,148
900,4	6,69
900,8	4,49
901,2	-2,281
901,7	-3,738
902,1	-3,224
902,5	5,09
902,9	5,033
903,4	6,176
903,8	5,119
904,2	9,205
904,6	11,748
905,1	11,29
905,5	4,748
905,9	6,862
906,3	9,776
906,8	12,29
907,2	13,948
907,6	13,662
908	12,49
908,5	10,576
908,9	6,948
909,3	0,576
909,7	-3,224
910,2	-3,652
910,6	-1,681
911	-3,91
911,4	-2,795
911,9	-2,538
912,3	-0,452
912,7	9,29
913,1	11,776
913,6	9,462
914	11,719
914,4	12,376
914,8	18,262
915,3	18,49
915,7	9,748
916,1	2,348
916,5	2,062
916,9	-0,31
917,4	-0,11
917,8	0,033
918,2	-6,224
918,6	-9,424
919,1	-5,452
919,5	-2,052
919,9	1,405
920,3	1,005
920,8	-2,167
921,2	3,748
921,6	10,09
922	11,062
922,5	10,519
922,9	11,119
923,3	11,433
923,7	9,033
924,2	6,29
924,6	4,833
925	5,262
925,4	2,29
925,8	-0,452
926,3	1,49
926,7	4,862
927,1	7,49
927,5	9,233
928	5,49
928,4	4,462
928,8	8,119
929,2	3,948
929,7	5,462
930,1	6,633
930,5	2,376
930,9	7,976
931,3	9,833
931,8	10,405
932,2	11,462
932,6	8,519
933	1,862
933,5	5,09
933,9	4,005
934,3	4,976
934,7	-1,824
935,2	-0,652
935,6	-2,967
936	3,176
936,4	4,376
936,8	1,633
937,3	-4,652
937,7	3,576
938,1	4,605
938,5	3,833
939	2,948
939,4	0,576
939,8	1,262
940,2	4,348
940,6	-1,51
941,1	-5,881
941,5	-2,767
941,9	-3,367
942,3	-6,052
942,8	-5,795
943,2	-3,681
943,6	-6,995
944	-2,852
944,4	-3,281
944,9	-4,624
945,3	-4,767
945,7	-6,71
946,1	-13,51
946,6	-10,367
947	-11,138
947,4	-8,081
947,8	-6,31
948,2	-4,452
948,7	-2,338
949,1	2,919
949,5	5,176
949,9	6,062
950,3	1,862
950,8	0,605
951,2	0,29
951,6	-0,652
952	3,948
952,5	0,005
952,9	0,605
953,3	1,176
953,7	2,605
954,1	5,862
954,6	6,605
955	3,633
955,4	4,805
955,8	7,376
956,2	7,205
956,7	4,948
957,1	-2,681
957,5	0,062
957,9	-1,424
958,3	-0,795
958,8	-2,652
959,2	1,09
959,6	5,89
960	8,976
960,5	11,576
960,9	14,519
961,3	11,776
961,7	10,89
962,1	8,605
962,6	7,862
963	6,719
963,4	-3,11
963,8	-3,938
964,2	-1,281
964,7	-1,138
965,1	0,176
965,5	-2,224
965,9	-1,824
966,3	3,948
966,8	0,262
967,2	1,976
967,6	0,519
968	-1,881
968,4	0,805
968,9	4,548
969,3	5,519
969,7	6,633
970,1	5,862
970,5	5,462
971	11,976
971,4	8,69
971,8	7,633
972,2	6,748
972,6	3,433
973,1	-0,11
973,5	-2,281
973,9	-6,167
974,3	-6,281
974,7	-2,452
975,2	-2,11
975,6	0,719
976	6,376
976,4	5,976
976,8	4,548
977,3	6,148
977,7	0,776
978,1	-3,395
978,5	-5,167
978,9	-11,395
979,4	-11,167
979,8	-11,11
980,2	-12,995
980,6	-15,652
981	-12,51
981,5	-7,767
981,9	-3,281
982,3	-0,681
982,7	0,576
983,1	-1,967
983,6	-0,081
984	1,862
984,4	1,548
984,8	0,748
985,2	0,548
985,6	-5,652
986,1	-4,567
986,5	-0,195
986,9	-6,881
987,3	-4,538
987,7	-3,681
988,2	-6,967
988,6	-1,052
989	1,005
989,4	-1,252
989,8	2,862
990,3	-4,052
990,7	-5,252
991,1	-2,395
991,5	-2,452
991,9	2,605
992,3	4,862
992,8	3,919
993,2	5,262
993,6	8,062
994	6,719
994,4	6,605
994,9	3,29
995,3	-1,481
995,7	-2,052
996,1	-0,567
996,5	-4,31
996,9	-6,367
997,4	-3,595
997,8	-8,567
998,2	-9,081
998,6	-11,71
999	-12,652
999,5	-12,538
999,9	-9,681
1000,3	-16,652
1000,7	-10,424
1001,1	-10,167
1001,5	-5,995
1002	1,233
1002,4	2,862
1002,8	3,49
1003,2	5,805
1003,6	7,719
1004	13,462
1004,5	11,033
1004,9	8,69
1005,3	3,776
1005,7	3,405
1006,1	2,29
1006,6	-1,224
1007	-4,424
1007,4	-2,881
1007,8	-7,167
1008,2	-6,252
1008,6	-4,081
1009,1	-0,824
1009,5	-3,452
1009,9	0,719
1010,3	1,148
1010,7	1,662
1011,1	5,719
1011,6	2,376
1012	5,119
1012,4	8,09
1012,8	2,633
1013,2	4,605
1013,6	5,576
1014,1	7,119
1014,5	10,29
1014,9	4,548
1015,3	0,176
1015,7	1,005
1016,1	-2,652
1016,6	-4,567
1017	-4,824
1017,4	-4,424
1017,8	0,205
1018,2	5,233
1018,6	4,576
1019,1	6,376
1019,5	9,69
1019,9	3,633
1020,3	2,89
1020,7	0,805
1021,1	-3,252
1021,6	-4,881
1022	-3,738
1022,4	-6,624
1022,8	-3,852
1023,2	-4,481
1023,6	-4,338
1024,1	1,49
1024,5	5,405
1024,9	0,948
1025,3	1,519
1025,7	0,433
1026,1	-0,081
1026,6	0,719
1027	-1,452
1027,4	2,348
1027,8	6,69
1028,2	3,948
1028,6	10,433
1029	8,433
1029,5	14,09
1029,9	14,405
1030,3	6,833
1030,7	7,29
1031,1	14,719
1031,5	8,862
1032	14,005
1032,4	6,319
1032,8	6,233
1033,2	7,605
1033,6	7,548
1034	1,633
1034,4	3,976
1034,9	1,633
1035,3	1,976
1035,7	-0,91
1036,1	-2,767
1036,5	-3,881
1036,9	-3,167
1037,4	0,976
1037,8	-2,081
1038,2	-2,31
1038,6	-0,567
1039	7,119
1039,4	8,776
1039,8	9,633
1040,3	5,576
1040,7	8,69
1041,1	8,919
1041,5	11,09
1041,9	4,862
1042,3	2,09
1042,7	2,29
1043,2	0,919
1043,6	-5,281
1044	-3,681
1044,4	-6,91
1044,8	-1,995
1045,2	-4,481
1045,6	-7,71
1046,1	-6,767
1046,5	-1,652
1046,9	-6,11
1047,3	-6,795
1047,7	-9,452
1048,1	-9,767
1048,5	-4,738
1049	-3,224
1049,4	1,148
1049,8	4,119
1050,2	7,462
1050,6	9,89
1051	10,348
1051,4	7,433
1051,9	4,862
1052,3	3,29
1052,7	2,005
1053,1	-3,024
1053,5	-4,91
1053,9	0,862
1054,3	-0,567
1054,8	4,119
1055,2	5,148
1055,6	8,576
1056	13,776
1056,4	12,376
1056,8	8,633
1057,2	11,376
1057,6	1,405
1058,1	-1,938
1058,5	-5,51
1058,9	-7,91
1059,3	-9,538
1059,7	-8,967
1060,1	-8,138
1060,5	-4,71
1061	-6,052
1061,4	-5,367
1061,8	0,348
1062,2	-0,338
1062,6	2,976
1063	3,462
1063,4	7,233
1063,8	7,119
1064,3	6,148
1064,7	3,005
1065,1	4,833
1065,5	0,919
1065,9	-2,081
1066,3	-1,995
1066,7	-5,995
1067,1	-7,481
1067,6	-7,738
1068	-14,967
1068,4	-14,91
1068,8	-12,71
1069,2	-15,195
1069,6	-12,31
1070	-9,567
1070,4	-13,338
1070,9	-8,11
1071,3	-4,51
1071,7	-7,224
1072,1	-6,224
1072,5	-6,024
1072,9	-7,995
1073,3	-0,767
1073,7	1,033
1074,2	-1,338
1074,6	-0,081
1075	-0,652
1075,4	-1,11
1075,8	10,49
1076,2	7,033
1076,6	8,776
1077	7,262
1077,5	10,29
1077,9	10,89
1078,3	15,062
1078,7	4,348
1079,1	3,49
1079,5	0,748
1079,9	5,519
1080,3	2,548
1080,7	3,119
1081,2	3,005
1081,6	4,062
1082	3,633
1082,4	10,376
1082,8	6,833
1083,2	8,205
1083,6	11,462
1084	7,548
1084,5	6,662
1084,9	1,976
1085,3	-7,738
1085,7	-7,138
1086,1	-8,938
1086,5	-11,052
1086,9	-4,452
1087,3	-2,71
1087,7	-0,281
1088,2	5,233
1088,6	2,29
1089	3,319
1089,4	0,662
1089,8	-6,91
1090,2	-10,424
1090,6	-12,567
1091	-10,852
1091,4	-5,824
1091,9	-4,481
1092,3	0,776
1092,7	2,576
1093,1	6,948
1093,5	10,862
1093,9	7,919
1094,3	5,148
1094,7	1,976
1095,1	-1,852
1095,5	2,605
1096	-0,567
1096,4	-1,138
1096,8	-4,652
1097,2	-3,795
1097,6	-0,51
1098	-1,367
1098,4	-2,51
1098,8	0,462
1099,2	6,805
1099,6	10,633
1100,1	8,233
1100,5	4,062
1100,9	5,09
1101,3	3,805
1101,7	3,033
1102,1	-3,252
1102,5	-3,624
1102,9	-0,024
1103,3	3,805
1103,7	3,605
1104,2	2,376
1104,6	3,376
1105	3,348
1105,4	3,605
1105,8	1,205
1106,2	-0,652
1106,6	-0,481
1107	0,576
1107,4	-1,033
1107,8	0,193
1108,3	-0,167
