Data from Subt2_244.txt Node
Date: Sat Aug 26 18:57:23 MSK 2023
User: vat
Spectrometer: MAYP114033
Trigger mode: 0
Integration Time (sec): 1,000000E0
Scans to average: 5
Electric dark correction enabled: true
Nonlinearity correction enabled: false
Boxcar width: 3
XAxis mode: Wavelengths
Number of Pixels in Spectrum: 2068
>>>>>Begin Spectral Data<<<<<
199,4	-0,533
199,9	0,067
200,4	0,133
200,8	0,61
201,3	0,667
201,8	3,867
202,2	2,467
202,7	5,467
203,2	5,638
203,6	3,181
204,1	0,952
204,6	-1,19
205	0,01
205,5	1,038
206	-0,762
206,4	0,124
206,9	3,067
207,4	7,067
207,8	7,81
208,3	3,267
208,8	4,067
209,2	8,067
209,7	8,324
210,2	10,467
210,6	9,924
211,1	14,124
211,5	12,01
212	12,01
212,5	6,952
212,9	3,867
213,4	5,01
213,9	5,381
214,3	5,124
214,8	8,752
215,3	8,267
215,7	14,838
216,2	18,095
216,7	13,981
217,1	11,781
217,6	11,152
218,1	9,895
218,5	11,838
219	-0,019
219,5	2,81
219,9	0,124
220,4	5,838
220,9	4,467
221,3	5,667
221,8	7,61
222,3	15,095
222,7	13,21
223,2	17,324
223,6	10,352
224,1	11,381
224,6	11,781
225	7,21
225,5	5,095
226	2,095
226,4	2,581
226,9	6,724
227,4	6,952
227,8	1,267
228,3	4,895
228,8	3,524
229,2	11,267
229,7	8,781
230,2	7,124
230,6	9,41
231,1	17,438
231,5	16,21
232	17,924
232,5	7,81
232,9	11,724
233,4	14,038
233,9	10,352
234,3	10,924
234,8	9,61
235,3	8,695
235,7	12,61
236,2	9,924
236,7	4,352
237,1	9,952
237,6	3,267
238,1	0,124
238,5	-2,105
239	-2,676
239,4	-2,248
239,9	0,467
240,4	-3,533
240,8	1,695
241,3	1,038
241,8	5,838
242,2	7,552
242,7	6,61
243,2	6,695
243,6	3,495
244,1	5,81
244,6	12,981
245	10,295
245,5	11,124
245,9	8,524
246,4	8,81
246,9	10,238
247,3	7,695
247,8	7,01
248,3	12,781
248,7	10,21
249,2	18,152
249,7	15,581
250,1	19,695
250,6	19,21
251	22,267
251,5	17,467
252	17,41
252,4	12,21
252,9	13,01
253,4	6,867
253,8	4,724
254,3	2,781
254,8	3,381
255,2	3,295
255,7	2,01
256,1	6,21
256,6	10,581
257,1	11,638
257,5	5,552
258	4,324
258,5	3,381
258,9	3,41
259,4	-2,048
259,9	-0,019
260,3	-0,419
260,8	0,438
261,2	0,238
261,7	6,467
262,2	5,952
262,6	4,724
263,1	8,667
263,6	8,295
264	10,781
264,5	15,181
264,9	6,01
265,4	8,324
265,9	9,724
266,3	3,552
266,8	3,41
267,3	0,467
267,7	-4,105
268,2	0,581
268,7	3,095
269,1	7,924
269,6	2,638
270	7,895
270,5	6,81
271	11,981
271,4	11,124
271,9	2,81
272,4	1,581
272,8	7,838
273,3	2,524
273,7	9,152
274,2	4,61
274,7	6,21
275,1	12,581
275,6	12,838
276,1	9,267
276,5	14,01
277	11,295
277,4	11,895
277,9	13,752
278,4	14,981
278,8	15,981
279,3	18,067
279,8	15,667
280,2	13,952
280,7	17,038
281,1	12,352
281,6	9,695
282,1	6,495
282,5	5,924
283	5,238
283,4	5,095
283,9	2,667
284,4	8,01
284,8	7,01
285,3	8,895
285,8	8,61
286,2	5,667
286,7	8,438
287,1	7,61
287,6	4,21
288,1	2,924
288,5	2,924
289	1,867
289,5	5,695
289,9	6,067
290,4	6,638
290,8	5,952
291,3	7,781
291,8	7,667
292,2	7,267
292,7	9,295
293,1	8,667
293,6	12,152
294,1	13,381
294,5	12,152
295	11,01
295,5	10,467
295,9	10,124
296,4	5,01
296,8	1,524
297,3	2,724
297,8	0,21
298,2	-0,476
298,7	1,838
299,1	-1,648
299,6	0,924
300,1	3,467
300,5	2,21
301	8,695
301,5	13,21
301,9	13,295
302,4	11,952
302,8	10,295
303,3	11,267
303,8	4,21
304,2	2,867
304,7	-2,305
305,1	-6,905
305,6	-7,133
306,1	-2,476
306,5	-3,219
307	7,352
307,4	9,381
307,9	10,781
308,4	13,238
308,8	11,695
309,3	10,552
309,8	5,295
310,2	0,667
310,7	-2,676
311,1	-1,362
311,6	0,324
312,1	4,295
312,5	5,781
313	12,01
313,4	9,724
313,9	9,495
314,4	5,095
314,8	2,438
315,3	-0,419
315,7	-6,79
316,2	-13,362
316,7	-9,933
317,1	-6,962
317,6	-2,933
318	1,438
318,5	3,981
319	6,752
319,4	14,981
319,9	22,41
320,3	19,752
320,8	16,61
321,3	18,752
321,7	19,781
322,2	18,181
322,6	11,838
323,1	3,724
323,6	3,838
324	2,324
324,5	-4,419
324,9	-5,533
325,4	-4,733
325,9	-0,076
326,3	3,524
326,8	6,381
327,2	8,095
327,7	11,695
328,2	10,438
328,6	17,21
329,1	11,867
329,5	9,295
330	6,295
330,5	11,524
330,9	13,638
331,4	13,324
331,8	6,038
332,3	12,81
332,8	15,752
333,2	16,981
333,7	17,238
334,1	17,552
334,6	15,41
335,1	16,238
335,5	10,981
336	7,552
336,4	9,324
336,9	10,952
337,4	10,81
337,8	13,695
338,3	14,067
338,7	13,552
339,2	8,467
339,7	13,324
340,1	8,381
340,6	6,01
341	4,781
341,5	4,724
342	3,381
342,4	9,067
342,9	1,067
343,3	0,124
343,8	1,352
344,2	5,552
344,7	10,267
345,2	11,895
345,6	8,924
346,1	11,438
346,5	13,21
347	9,295
347,5	7,724
347,9	10,552
348,4	11,838
348,8	13,352
349,3	16,267
349,8	19,01
350,2	28,095
350,7	27,61
351,1	22,21
351,6	26,124
352	31,267
352,5	33,61
353	43,867
353,4	44,781
353,9	53,352
354,3	66,181
354,8	71,781
355,3	88,095
355,7	104,981
356,2	118,781
356,6	142,638
357,1	170,381
357,5	198,152
358	237,21
358,5	269,495
358,9	312,381
359,4	360,238
359,8	416,61
360,3	479,295
360,8	547,21
361,2	618,638
361,7	701,752
362,1	795,381
362,6	894,552
363	999,01
363,5	1110,838
364	1234,238
364,4	1357,638
364,9	1489,21
365,3	1610,81
365,8	1721,867
366,3	1826,952
366,7	1921,41
367,2	2007,067
367,6	2074,838
368,1	2125,981
368,5	2158,238
369	2183,81
369,5	2190,552
369,9	2175,067
370,4	2140,752
370,8	2098,095
371,3	2033,495
371,7	1964,467
372,2	1880,895
372,7	1787,267
373,1	1694,267
373,6	1595,067
374	1493,867
374,5	1397,924
374,9	1302,124
375,4	1208,838
375,9	1121,552
376,3	1033,695
376,8	948,41
377,2	879,81
377,7	808,61
378,2	737,581
378,6	677,867
379,1	621,952
379,5	573,981
380	534,724
380,4	484,438
380,9	443,124
381,4	406,381
381,8	371,152
382,3	343,438
382,7	317,038
383,2	291,952
383,6	271,867
384,1	253,324
384,6	241,495
385	225,152
385,5	208,181
385,9	192,238
386,4	178,21
386,8	169,438
387,3	156,038
387,7	145,924
388,2	140,638
388,7	131,667
389,1	126,21
389,6	119,867
390	113,01
390,5	111,181
390,9	105,438
391,4	99,981
391,9	95,067
392,3	92,095
392,8	85,981
393,2	76,438
393,7	69,781
394,1	60,352
394,6	55,181
395,1	54,21
395,5	49,352
396	45,01
396,4	46,895
396,9	41,781
397,3	45,838
397,8	45,267
398,2	43,324
398,7	44,752
399,2	47,095
399,6	44,981
400,1	45,067
400,5	39,495
401	39,381
401,4	35,838
401,9	33,61
402,4	31,924
402,8	27,467
403,3	33,752
403,7	32,61
404,2	32,41
404,6	37,095
405,1	36,21
405,5	33,752
406	38,867
406,5	34,495
406,9	38,381
407,4	37,667
407,8	36,724
408,3	37,181
408,7	40,61
409,2	44,067
409,6	50,667
410,1	52,781
410,6	55,581
411	54,467
411,5	55,895
411,9	55,981
412,4	55,61
412,8	54,124
413,3	55,41
413,7	55,095
414,2	56,095
414,7	62,067
415,1	70,295
415,6	74,41
416	77,124
416,5	79,095
416,9	77,352
417,4	84,01
417,8	87,467
418,3	90,038
418,8	93,181
419,2	94,952
419,7	97,981
420,1	101,895
420,6	99,895
421	100,924
421,5	101,41
421,9	100,267
422,4	102,781
422,8	103,124
423,3	104,41
423,8	106,952
424,2	100,381
424,7	98,152
425,1	100,01
425,6	101,81
426	99,21
426,5	101,981
426,9	102,781
427,4	103,295
427,9	98,152
428,3	96,495
428,8	96,981
429,2	97,781
429,7	98,352
430,1	100,295
430,6	101,61
431	107,838
431,5	111,295
431,9	105,181
432,4	111,581
432,8	113,638
433,3	115,181
433,8	119,81
434,2	121,295
434,7	125,638
435,1	133,21
435,6	136,61
436	142,695
436,5	150,867
436,9	152,41
437,4	157,61
437,8	159,267
438,3	165,867
438,8	167,581
439,2	174,067
439,7	179,124
440,1	192,01
440,6	202,067
441	206,867
441,5	214,495
441,9	225,124
442,4	229,038
442,8	236,152
443,3	243,238
443,7	250,867
444,2	263,752
444,7	272,324
445,1	284,438
445,6	297,181
446	309,324
446,5	317,552
446,9	327,952
447,4	342,667
447,8	358,867
448,3	371,724
448,7	385,581
449,2	399,238
449,6	419,81
450,1	434,981
450,6	453,124
451	466,924
451,5	483,124
451,9	503,924
452,4	523,924
452,8	539,324
453,3	562,21
453,7	575,552
454,2	600,238
454,6	623,924
455,1	643,21
455,5	660,752
456	687,638
456,4	705,495
456,9	735,381
457,3	756,724
457,8	769,181
458,3	792,495
458,7	815,41
459,2	838,867
459,6	863,867
460,1	885,181
460,5	900,581
461	935,781
461,4	960,181
461,9	987,981
462,3	1012,638
462,8	1046,867
463,2	1072,667
463,7	1112,524
464,1	1142,324
464,6	1176,067
465	1209,838
465,5	1240,667
466	1269,61
466,4	1298,638
466,9	1328,81
467,3	1359,495
467,8	1389,61
468,2	1418,752
468,7	1452,41
469,1	1488,181
469,6	1526,81
470	1558,752
470,5	1595,81
470,9	1624,038
471,4	1659,81
471,8	1691,895
472,3	1721,267
472,7	1754,867
473,2	1788,695
473,6	1812,581
474,1	1853,524
474,5	1887,895
475	1923,067
475,4	1959,095
475,9	1994,152
476,4	2025,152
476,8	2066,867
477,3	2094,324
477,7	2124,41
478,2	2150,467
478,6	2175,41
479,1	2198,295
479,5	2226,352
480	2249,581
480,4	2284,095
480,9	2313,81
481,3	2338,81
481,8	2367,01
482,2	2393,781
482,7	2424,524
483,1	2455,552
483,6	2475,295
484	2499,895
484,5	2531,552
484,9	2555,981
485,4	2588,524
485,8	2607,295
486,3	2625,752
486,7	2655,21
487,2	2676,381
487,6	2699,124
488,1	2715,238
488,5	2728,238
489	2751,152
489,4	2774,438
489,9	2791,895
490,4	2812,41
490,8	2827,981
491,3	2852,981
491,7	2871,467
492,2	2890,752
492,6	2905,838
493,1	2916,924
493,5	2925,238
494	2936,695
494,4	2947,724
494,9	2964,667
495,3	2978,952
495,8	2986,695
496,2	3001,067
496,7	3012,895
497,1	3032,41
497,6	3043,352
498	3054,467
498,5	3060,438
498,9	3070,01
499,4	3083,21
499,8	3099,838
500,3	3109,952
500,7	3116,41
501,2	3119,067
501,6	3128,81
502,1	3137,552
502,5	3144,781
503	3148,067
503,4	3154,21
503,9	3162,867
504,3	3175,838
504,8	3188,124
505,2	3206,41
505,7	3205,981
506,1	3223,41
506,6	3220,981
507	3225,752
507,5	3231,495
507,9	3233,41
508,4	3231,61
508,8	3240,438
509,3	3238,352
509,7	3256,838
510,2	3271,01
510,6	3269,038
511,1	3272,524
511,5	3279,524
512	3281,724
512,4	3286,438
512,9	3280,695
513,3	3280,038
513,8	3295,295
514,2	3302,667
514,7	3305,524
515,1	3314,867
515,6	3320,981
516	3329,181
516,5	3335,781
516,9	3337,552
517,4	3339,838
517,8	3351,467
518,3	3356,581
518,7	3358,838
519,2	3365,21
519,6	3369,152
520,1	3374,667
520,5	3382,724
521	3384,41
521,4	3395,438
521,9	3400,01
522,3	3403,038
522,8	3412,152
523,2	3419,038
523,7	3421,667
524,1	3424,467
524,6	3425,124
525	3430,467
525,5	3434,41
525,9	3442,867
526,4	3441,181
526,8	3452,61
527,3	3463,124
527,7	3473,524
528,2	3488,41
528,6	3495,838
529,1	3498,41
529,5	3511,667
530	3515,495
530,4	3519,352
530,9	3524,267
531,3	3528,352
531,8	3539,752
532,2	3550,867
532,6	3558,381
533,1	3560,838
533,5	3572,267
534	3579,01
534,4	3587,095
534,9	3593,695
535,3	3596,21
535,8	3602,81
536,2	3617,467
536,7	3625,267
537,1	3633,095
537,6	3636,838
538	3648,752
538,5	3667,81
538,9	3671,895
539,4	3681,124
539,8	3687,724
540,3	3694,552
540,7	3703,81
541,2	3704,981
541,6	3697,838
542,1	3712,838
542,5	3713,324
543	3723,267
543,4	3730,01
543,9	3740,695
544,3	3752,152
544,8	3764,695
545,2	3774,067
545,7	3792,095
546,1	3798,952
546,5	3814,467
547	3820,524
547,4	3824,838
547,9	3833,467
548,3	3839,41
548,8	3845,21
549,2	3842,152
549,7	3850,438
550,1	3858,867
550,6	3866,867
551	3878,21
551,5	3882,981
551,9	3889,095
552,4	3906,838
552,8	3913,552
553,3	3920,667
553,7	3930,324
554,2	3933,552
554,6	3944,467
555,1	3951,181
555,5	3953,124
555,9	3954,01
556,4	3964,495
556,8	3968,895
557,3	3974,438
557,7	3974,752
558,2	3977,21
558,6	3988,924
559,1	3993,981
559,5	3995,038
560	4003,724
560,4	4015,152
560,9	4020,981
561,3	4030,352
561,8	4036,038
562,2	4044,352
562,7	4052,695
563,1	4061,781
563,6	4060,152
564	4070,467
564,4	4075,581
564,9	4078,152
565,3	4085,352
565,8	4088,552
566,2	4092,495
566,7	4095,724
567,1	4099,21
567,6	4104,495
568	4108,181
568,5	4106,838
568,9	4107,581
569,4	4104,581
569,8	4111,01
570,3	4107,467
570,7	4099,61
571,1	4101,181
571,6	4107,124
572	4111,095
572,5	4117,324
572,9	4112,838
573,4	4121,295
573,8	4135,352
574,3	4130,924
574,7	4126,638
575,2	4117,838
575,6	4110,838
576,1	4121,21
576,5	4115,952
576,9	4103,295
577,4	4099,152
577,8	4099,267
578,3	4102,952
578,7	4100,981
579,2	4094,581
579,6	4093,038
580,1	4089,981
580,5	4092,695
581	4090,981
581,4	4082,381
581,9	4079,981
582,3	4073,324
582,7	4065,752
583,2	4059,41
583,6	4061,324
584,1	4051,238
584,5	4051,781
585	4043,01
585,4	4032,038
585,9	4021,924
586,3	4023,981
586,8	4011,324
587,2	4011,638
587,6	4006,295
588,1	4004,952
588,5	3995,61
589	3991,81
589,4	3986,724
589,9	3978,695
590,3	3966,124
590,8	3957,438
591,2	3955,524
591,7	3962,181
592,1	3954,467
592,5	3945,638
593	3939,038
593,4	3931,524
593,9	3923,41
594,3	3913,638
594,8	3892,781
595,2	3886,181
595,7	3875,524
596,1	3864,924
596,6	3858,581
597	3856,838
597,4	3857,895
597,9	3857,752
598,3	3859,867
598,8	3856,667
599,2	3852,381
599,7	3846,638
600,1	3834,724
600,6	3814,724
601	3808,152
601,4	3799,81
601,9	3794,324
602,3	3781,41
602,8	3768,781
603,2	3761,267
603,7	3753,495
604,1	3743,152
604,6	3728,524
605	3711,352
605,4	3710,781
605,9	3704,867
606,3	3687,895
606,8	3675,21
607,2	3663,067
607,7	3646,781
608,1	3641,81
608,6	3626,41
609	3615,038
609,4	3607,152
609,9	3598,781
610,3	3592,381
610,8	3584,381
611,2	3568,867
611,7	3559,981
612,1	3542,152
612,6	3534,667
613	3521,41
613,4	3504,61
613,9	3491,267
614,3	3477,21
614,8	3462,895
615,2	3452,952
615,7	3441,467
616,1	3431,267
616,6	3412,01
617	3401,981
617,4	3392,124
617,9	3383,61
618,3	3373,838
618,8	3358,152
619,2	3346,324
619,7	3347,152
620,1	3333,924
620,5	3316,21
621	3296,467
621,4	3286,781
621,9	3272,638
622,3	3255,352
622,8	3233,638
623,2	3218,152
623,6	3211,895
624,1	3203,324
624,5	3191,41
625	3178,781
625,4	3167,295
625,9	3154,21
626,3	3139,924
626,8	3122,81
627,2	3104,981
627,6	3077,152
628,1	3057,552
628,5	3036,895
629	3017,295
629,4	3008,01
629,9	2992,724
630,3	2975,067
630,7	2961,695
631,2	2954,181
631,6	2941,724
632,1	2932,152
632,5	2908,381
633	2894,381
633,4	2881,067
633,8	2869,295
634,3	2847,267
634,7	2830,952
635,2	2812,695
635,6	2797,952
636,1	2782,324
636,5	2767,724
636,9	2749,238
637,4	2734,381
637,8	2723,752
638,3	2708,781
638,7	2695,638
639,2	2675,781
639,6	2660,667
640	2650,21
640,5	2639,381
640,9	2622,667
641,4	2612,581
641,8	2602,467
642,2	2592,81
642,7	2588,838
643,1	2580,438
643,6	2568,781
644	2555,952
644,5	2545,895
644,9	2532,895
645,3	2519,895
645,8	2501,067
646,2	2487,61
646,7	2473,952
647,1	2456,781
647,6	2445,495
648	2436,181
648,4	2424,21
648,9	2412,838
649,3	2391,895
649,8	2380,438
650,2	2374,181
650,6	2357,61
651,1	2341,152
651,5	2333,095
652	2314,895
652,4	2305,752
652,9	2294,352
653,3	2283,41
653,7	2270,781
654,2	2260,267
654,6	2241,038
655,1	2230,552
655,5	2227,867
655,9	2208,352
656,4	2195,381
656,8	2179,981
657,3	2165,381
657,7	2157,152
658,2	2143,381
658,6	2120,724
659	2111,067
659,5	2092,01
659,9	2083,924
660,4	2074,467
660,8	2056,952
661,2	2050,638
661,7	2041,581
662,1	2030,952
662,6	2020,981
663	2004,124
663,4	1990,524
663,9	1978,181
664,3	1960,867
664,8	1946,81
665,2	1933,81
665,6	1919,867
666,1	1907,01
666,5	1890,952
667	1881,21
667,4	1866,381
667,9	1853,438
668,3	1842,038
668,7	1829,981
669,2	1821,038
669,6	1810,752
670,1	1797,524
670,5	1789,838
670,9	1782,124
671,4	1769,581
671,8	1763,781
672,3	1758,295
672,7	1743,867
673,1	1729,41
673,6	1712,524
674	1695,038
674,5	1682,095
674,9	1661,152
675,3	1644,495
675,8	1637,924
676,2	1630,781
676,7	1620,695
677,1	1613,324
677,5	1606,324
678	1601,495
678,4	1595,724
678,9	1583,924
679,3	1568,324
679,7	1565,124
680,2	1553,581
680,6	1535,581
681,1	1525,752
681,5	1509,095
681,9	1498,467
682,4	1492,867
682,8	1480,238
683,3	1473,695
683,7	1468,952
684,1	1463,152
684,6	1452,838
685	1442,381
685,5	1431,924
685,9	1415,238
686,3	1400,838
686,8	1391,61
687,2	1380,352
687,7	1372,267
688,1	1362,181
688,5	1353,21
689	1350,952
689,4	1342,924
689,9	1331,695
690,3	1318,552
690,7	1313,124
691,2	1309,667
691,6	1305,552
692	1293,067
692,5	1287,238
692,9	1282,61
693,4	1277,352
693,8	1266,838
694,2	1253,21
694,7	1241,124
695,1	1235,381
695,6	1229,381
696	1221,352
696,4	1211,552
696,9	1199,495
697,3	1194,124
697,8	1188,295
698,2	1181,267
698,6	1167,067
699,1	1159,924
699,5	1155,895
699,9	1151,152
700,4	1139,295
700,8	1123,581
701,3	1112,781
701,7	1103,952
702,1	1093,181
702,6	1082,124
703	1077,181
703,5	1071,524
703,9	1068,581
704,3	1063,552
704,8	1057,038
705,2	1051,438
705,6	1043,667
706,1	1033,724
706,5	1025,438
707	1019,581
707,4	1016,067
707,8	1009,552
708,3	1003,667
708,7	999,21
709,2	993,21
709,6	987,267
710	986,495
710,5	972,752
710,9	965,695
711,3	957,067
711,8	950,095
712,2	944,181
712,7	941,667
713,1	932,381
713,5	927,895
714	926,324
714,4	919,41
714,8	914,752
715,3	906,01
715,7	897,238
716,2	885,724
716,6	885,638
717	874,21
717,5	866,21
717,9	860,667
718,3	852,324
718,8	846,638
719,2	842,524
719,7	834,152
720,1	832,895
720,5	833,324
721	820,952
721,4	817,924
721,8	814,695
722,3	804,952
722,7	797,895
723,2	787,381
723,6	772,124
724	765,695
724,5	760,524
724,9	752,21
725,3	752,095
725,8	746,552
726,2	740,895
726,7	739,038
727,1	734,781
727,5	729,952
728	721,752
728,4	714,781
728,8	709,61
729,3	704,867
729,7	699,524
730,1	698,952
730,6	692,81
731	687,352
731,5	683,638
731,9	678,41
732,3	674,838
732,8	670,838
733,2	666,81
733,6	661,895
734,1	659,752
734,5	654,01
734,9	650,524
735,4	647,81
735,8	639,324
736,3	635,924
736,7	627,752
737,1	625,152
737,6	619,467
738	614,552
738,4	609,352
738,9	610,438
739,3	605,552
739,7	605,381
740,2	600,838
740,6	599,981
741,1	597,867
741,5	586,41
741,9	584,638
742,4	584,181
742,8	584,781
743,2	577,095
743,7	567,01
744,1	557,81
744,5	559,781
745	553,467
745,4	544,467
745,8	537,781
746,3	534,752
746,7	534,838
747,2	532,152
747,6	536,752
748	537,152
748,5	534,324
748,9	527,81
749,3	524,667
749,8	520,752
750,2	519,21
750,6	506,152
751,1	498,552
751,5	496,667
751,9	498,667
752,4	494,01
752,8	493,181
753,3	487,552
753,7	488,924
754,1	487,21
754,6	476,467
755	470,267
755,4	469,41
755,9	466,552
756,3	466,752
756,7	463,667
757,2	460,067
757,6	466,238
758	462,21
758,5	461,324
758,9	456,667
759,3	453,41
759,8	449,41
760,2	446,952
760,6	440,524
761,1	433,781
761,5	429,724
761,9	428,295
762,4	421,81
762,8	415,924
763,3	412,324
763,7	411,724
764,1	412,352
764,6	408,295
765	405,238
765,4	405,724
765,9	404,495
766,3	404,124
766,7	395,638
767,2	395,552
767,6	396,524
768	393,638
768,5	386,895
768,9	387,495
769,3	380,267
769,8	376,981
770,2	376,724
770,6	370,267
771,1	370,324
771,5	373,381
771,9	373,295
772,4	376,781
772,8	374,467
773,2	367,181
773,7	366,895
774,1	362,181
774,5	355,467
775	348,724
775,4	344,238
775,8	344,01
776,3	346,181
776,7	341,01
777,1	338,781
777,6	338,381
778	335,638
778,4	333,267
778,9	336,81
779,3	332,838
779,7	333,524
780,2	331,981
780,6	330,067
781	329,038
781,5	322,524
781,9	319,01
782,3	315,01
782,8	314,267
783,2	307,61
783,6	306,981
784,1	302,781
784,5	299,81
784,9	289,867
785,4	290,838
785,8	290,352
786,2	292,781
786,7	289,781
787,1	286,781
787,5	289,01
788	292,61
788,4	290,238
788,8	283,638
789,3	277,467
789,7	279,324
790,1	278,067
790,6	276,524
791	270,552
791,4	268,381
791,9	264,781
792,3	264,095
792,7	260,41
793,2	258,352
793,6	254,295
794	258,181
794,5	252,467
794,9	255,667
795,3	257,21
795,8	254,638
796,2	257,952
796,6	257,724
797,1	251,267
797,5	249,438
797,9	244,01
798,4	240,981
798,8	234,952
799,2	224,381
799,7	222,352
800,1	222,838
800,5	221,038
801	224,781
801,4	219,41
801,8	220,667
802,2	222,638
802,7	218,267
803,1	214,838
803,5	216,267
804	208,952
804,4	209,61
804,8	205,61
805,3	208,667
805,7	208,038
806,1	208,267
806,6	205,267
807	203,238
807,4	199,552
807,9	194,695
808,3	191,952
808,7	190,752
809,2	187,01
809,6	189,067
810	187,267
810,4	187,781
810,9	192,238
811,3	191,01
811,7	187,952
812,2	193,095
812,6	189,467
813	193,524
813,5	193,61
813,9	187,867
814,3	183,752
814,8	181,667
815,2	175,267
815,6	169,981
816,1	168,152
816,5	164,638
816,9	168,952
817,3	168,952
817,8	173,124
818,2	170,924
818,6	169,295
819,1	165,01
819,5	165,238
819,9	162,581
820,4	162,838
820,8	159,067
821,2	159,895
821,7	162,267
822,1	164,695
822,5	170,952
822,9	166,61
823,4	161,838
823,8	163,61
824,2	162,124
824,7	157,895
825,1	149,095
825,5	138,01
826	134,924
826,4	133,838
826,8	129,895
827,3	128,038
827,7	128,667
828,1	130,495
828,5	129,838
829	133,524
829,4	136,152
829,8	129,495
830,3	126,181
830,7	120,981
831,1	120,581
831,6	122,981
832	120,238
832,4	114,552
832,8	119,695
833,3	121,752
833,7	119,724
834,1	120,495
834,6	116,21
835	115,581
835,4	117,295
835,8	114,381
836,3	114,01
836,7	117,981
837,1	119,781
837,6	124,952
838	123,695
838,4	121,095
838,9	119,581
839,3	114,181
839,7	116,067
840,1	107,552
840,6	102,952
841	102,61
841,4	105,981
841,9	108,21
842,3	109,181
842,7	104,124
843,1	103,067
843,6	104,524
844	103,524
844,4	99,124
844,9	98,352
845,3	97,181
845,7	95,924
846,2	95,267
846,6	87,21
847	88,638
847,4	88,61
847,9	87,181
848,3	88,181
848,7	89,181
849,2	90,752
849,6	91,381
850	90,61
850,4	86,924
850,9	84,924
851,3	84,838
851,7	86,924
852,2	84,381
852,6	87,495
853	86,267
853,4	86,552
853,9	85,067
854,3	86,495
854,7	81,924
855,2	82,438
855,6	82,581
856	77,952
856,4	73,895
856,9	72,238
857,3	67,41
857,7	68,467
858,2	75,467
858,6	72,552
859	76,067
859,4	80,724
859,9	80,952
860,3	79,238
860,7	79,552
861,1	73,724
861,6	74,295
862	74,724
862,4	71,695
862,9	68,324
863,3	68,952
863,7	65,41
864,1	67,438
864,6	68,524
865	65,724
865,4	66,695
865,9	69,21
866,3	61,924
866,7	62,095
867,1	56,495
867,6	53,552
868	48,295
868,4	46,41
868,8	47,124
869,3	54,124
869,7	59,895
870,1	57,152
870,6	54,552
871	43,724
871,4	48,41
871,8	44,21
872,3	45,467
872,7	40,781
873,1	44,495
873,5	48,467
874	64,381
874,4	64,21
874,8	68,324
875,3	68,038
875,7	66,095
876,1	67,01
876,5	63,524
877	60,524
877,4	54,152
877,8	55,552
878,2	55,638
878,7	61,61
879,1	60,352
879,5	61,981
879,9	61,067
880,4	62,867
880,8	58,895
881,2	57,581
881,7	49,695
882,1	46,495
882,5	43,124
882,9	43,724
883,4	40,952
883,8	46,495
884,2	43,181
884,6	44,095
885,1	47,095
885,5	47,752
885,9	49,952
886,3	53,61
886,8	46,724
887,2	46,381
887,6	46,552
888	45,581
888,5	45,267
888,9	42,838
889,3	35,867
889,8	37,295
890,2	36,01
890,6	34,781
891	32,952
891,5	31,61
891,9	30,21
892,3	35,81
892,7	33,581
893,2	35,438
893,6	37,724
894	39,067
894,4	41,467
894,9	44,095
895,3	43,61
895,7	48,41
896,1	47,552
896,6	44,838
897	46,124
897,4	45,381
897,8	46,752
898,3	42,838
898,7	36,21
899,1	36,438
899,5	35,724
900	26,61
900,4	27,638
900,8	18,81
901,2	21,952
901,7	21,067
902,1	21,981
902,5	25,381
902,9	31,124
903,4	27,981
903,8	30,152
904,2	30,21
904,6	36,667
905,1	33,495
905,5	32,524
905,9	37,152
906,3	39,352
906,8	43,381
907,2	45,238
907,6	45,324
908	45,552
908,5	40,61
908,9	32,524
909,3	30,038
909,7	27,467
910,2	26,41
910,6	26,352
911	25,981
911,4	29,352
911,9	32,41
912,3	31,067
912,7	36,181
913,1	39,924
913,6	34,895
914	35,867
914,4	32,495
914,8	35,238
915,3	33,41
915,7	30,267
916,1	21,438
916,5	23,695
916,9	22,981
917,4	23,924
917,8	19,781
918,2	23,495
918,6	19,781
919,1	22,981
919,5	20,581
919,9	22,638
920,3	23,438
920,8	24,952
921,2	22,41
921,6	23,838
922	21,095
922,5	23,295
922,9	25,924
923,3	24,552
923,7	21,267
924,2	20,752
924,6	22,61
925	27,324
925,4	24,838
925,8	21,581
926,3	19,981
926,7	19,752
927,1	23,124
927,5	22,038
928	17,924
928,4	15,467
928,8	14,095
929,2	15,924
929,7	16,038
930,1	13,695
930,5	11,695
930,9	11,581
931,3	13,61
931,8	13,495
932,2	13,181
932,6	14,267
933	12,295
933,5	11,867
933,9	13,781
934,3	13,41
934,7	13,181
935,2	14,324
935,6	16,952
936	17,895
936,4	21,181
936,8	21,181
937,3	20,952
937,7	20,581
938,1	22,724
938,5	17,267
939	14,724
939,4	14,61
939,8	14,41
940,2	12,124
940,6	11,981
941,1	7,21
941,5	11,724
941,9	12,495
942,3	9,552
942,8	8,495
943,2	11,952
943,6	10,21
944	12,152
944,4	11,067
944,9	13,524
945,3	13,524
945,7	11,067
946,1	10,381
946,6	10,01
947	9,752
947,4	12,01
947,8	12,695
948,2	9,467
948,7	14,095
949,1	12,695
949,5	18,924
949,9	16,181
950,3	14,524
950,8	17,038
951,2	20,095
951,6	19,381
952	23,552
952,5	16,581
952,9	21,838
953,3	19,267
953,7	15,524
954,1	17,581
954,6	18,552
955	19,752
955,4	19,352
955,8	21,638
956,2	23,895
956,7	28,495
957,1	24,438
957,5	23,981
957,9	23,095
958,3	24,867
958,8	20,381
959,2	22,467
959,6	22,438
960	21,667
960,5	21,667
960,9	21,724
961,3	17,238
961,7	17,095
962,1	11,667
962,6	9,095
963	13,095
963,4	5,095
963,8	2,438
964,2	7,752
964,7	6,552
965,1	9,895
965,5	5,867
965,9	5,295
966,3	13,438
966,8	16,352
967,2	17,267
967,6	17,352
968	14,781
968,4	16,067
968,9	16,495
969,3	19,552
969,7	14,067
970,1	14,752
970,5	14,038
971	16,152
971,4	15,781
971,8	15,524
972,2	11,21
972,6	13,781
973,1	11,924
973,5	15,81
973,9	17,067
974,3	17,667
974,7	19,524
975,2	19,124
975,6	17,181
976	19,752
976,4	14,238
976,8	12,924
977,3	11,895
977,7	8,61
978,1	7,952
978,5	4,181
978,9	-0,048
979,4	0,895
979,8	0,467
980,2	3,495
980,6	-0,305
981	3,467
981,5	5,952
981,9	4,381
982,3	7,695
982,7	9,352
983,1	4,981
983,6	8,124
984	5,295
984,4	9,667
984,8	13,238
985,2	11,467
985,6	8,152
986,1	13,552
986,5	14,067
986,9	8,352
987,3	10,41
987,7	8,067
988,2	6,067
988,6	10,124
989	7,267
989,4	8,667
989,8	13,981
990,3	8,952
990,7	8,81
991,1	12,524
991,5	13,095
991,9	14,638
992,3	13,01
992,8	12,781
993,2	10,381
993,6	14,381
994	14,667
994,4	13,181
994,9	12,41
995,3	12,552
995,7	9,924
996,1	12,695
996,5	12,352
996,9	8,552
997,4	7,124
997,8	1,781
998,2	-1,533
998,6	-5,648
999	-3,19
999,5	-4,705
999,9	-4,59
1000,3	-6,59
1000,7	-1,505
1001,1	3,467
1001,5	10,324
1002	12,295
1002,4	13,781
1002,8	16,752
1003,2	20,552
1003,6	23,638
1004	23,238
1004,5	16,638
1004,9	16,181
1005,3	14,752
1005,7	14,924
1006,1	13,124
1006,6	8,181
1007	6,952
1007,4	13,295
1007,8	10,61
1008,2	7,067
1008,6	7,581
1009,1	6,638
1009,5	8,781
1009,9	8,467
1010,3	9,81
1010,7	5,895
1011,1	8,067
1011,6	8,124
1012	12,638
1012,4	10,295
1012,8	9,438
1013,2	13,924
1013,6	18,695
1014,1	20,067
1014,5	18,324
1014,9	16,21
1015,3	16,752
1015,7	19,295
1016,1	10,238
1016,6	6,181
1017	5,61
1017,4	6,038
1017,8	2,238
1018,2	4,267
1018,6	1,981
1019,1	2,867
1019,5	6,467
1019,9	6,552
1020,3	7,724
1020,7	11,895
1021,1	8,724
1021,6	7,781
1022	10,552
1022,4	9,981
1022,8	12,438
1023,2	9,838
1023,6	8,638
1024,1	16,181
1024,5	19,695
1024,9	18,752
1025,3	18,324
1025,7	15,181
1026,1	20,81
1026,6	22,152
1027	18,381
1027,4	21,124
1027,8	23,581
1028,2	22,61
1028,6	26,124
1029	23,038
1029,5	26,752
1029,9	22,381
1030,3	13,01
1030,7	8,324
1031,1	10,438
1031,5	2,552
1032	-0,705
1032,4	-2,79
1032,8	2,181
1033,2	7,895
1033,6	7,581
1034	6,838
1034,4	11,638
1034,9	16,267
1035,3	9,295
1035,7	12,695
1036,1	11,724
1036,5	8,295
1036,9	5,238
1037,4	10,295
1037,8	5,41
1038,2	8,724
1038,6	3,124
1039	7,752
1039,4	20,752
1039,8	24,41
1040,3	20,038
1040,7	22,867
1041,1	25,838
1041,5	26,981
1041,9	19,238
1042,3	11,295
1042,7	9,352
1043,2	7,695
1043,6	6,352
1044	1,295
1044,4	-0,705
1044,8	4,038
1045,2	1,781
1045,6	6,181
1046,1	4,752
1046,5	0,524
1046,9	0,952
1047,3	0,095
1047,7	-2,476
1048,1	-2,276
1048,5	-3,505
1049	4,724
1049,4	13,981
1049,8	11,924
1050,2	12,438
1050,6	18,981
1051	19,324
1051,4	15,981
1051,9	10,781
1052,3	13,038
1052,7	19,181
1053,1	18,61
1053,5	18,61
1053,9	20,41
1054,3	22,295
1054,8	28,752
1055,2	24,638
1055,6	23,181
1056	25,724
1056,4	21,324
1056,8	23,61
1057,2	22,524
1057,6	17,295
1058,1	10,867
1058,5	7,152
1058,9	7,667
1059,3	8,01
1059,7	8,324
1060,1	8,01
1060,5	9,352
1061	13,638
1061,4	17,267
1061,8	16,381
1062,2	17,781
1062,6	19,61
1063	18,724
1063,4	15,067
1063,8	14,924
1064,3	9,552
1064,7	12,295
1065,1	7,495
1065,5	0,524
1065,9	5,267
1066,3	7,067
1066,7	4,924
1067,1	9,524
1067,6	11,81
1068	14,667
1068,4	16,067
1068,8	15,067
1069,2	14,324
1069,6	18,238
1070	20,067
1070,4	14,438
1070,9	9,724
1071,3	8,752
1071,7	5,695
1072,1	8,267
1072,5	1,952
1072,9	-1,648
1073,3	0,552
1073,7	1,552
1074,2	4,552
1074,6	7,581
1075	5,181
1075,4	11,552
1075,8	14,267
1076,2	14,152
1076,6	15,924
1077	17,352
1077,5	20,495
1077,9	20,695
1078,3	16,038
1078,7	13,352
1079,1	9,867
1079,5	9,781
1079,9	4,752
1080,3	2,495
1080,7	1,524
1081,2	7,267
1081,6	6,067
1082	6,381
1082,4	7,752
1082,8	12,438
1083,2	7,667
1083,6	8,21
1084	8,038
1084,5	14,81
1084,9	14,638
1085,3	10,295
1085,7	11,495
1086,1	14,524
1086,5	17,695
1086,9	17,838
1087,3	11,61
1087,7	13,267
1088,2	17,524
1088,6	13,324
1089	14,438
1089,4	14,695
1089,8	13,467
1090,2	16,21
1090,6	14,838
1091	16,495
1091,4	18,695
1091,9	13,867
1092,3	10,724
1092,7	5,781
1093,1	8,695
1093,5	12,438
1093,9	8,41
1094,3	12,752
1094,7	14,81
1095,1	17,81
1095,5	21,895
1096	17,752
1096,4	13,752
1096,8	17,867
1097,2	9,238
1097,6	11,838
1098	8,695
1098,4	8,781
1098,8	8,524
1099,2	14,267
1099,6	10,667
1100,1	13,752
1100,5	10,124
1100,9	10,352
1101,3	12,981
1101,7	11,752
1102,1	7,581
1102,5	8,467
1102,9	9,724
1103,3	16,238
1103,7	17,41
1104,2	11,581
1104,6	15,238
1105	12,067
1105,4	13,238
1105,8	10,695
1106,2	4,038
1106,6	1,238
1107	2,181
1107,4	-0,933
1107,8	1,827
1108,3	-0,233
