Data from Subt2_216.txt Node
Date: Sat Aug 26 18:49:18 MSK 2023
User: vat
Spectrometer: MAYP114033
Trigger mode: 0
Integration Time (sec): 1,000000E0
Scans to average: 5
Electric dark correction enabled: true
Nonlinearity correction enabled: false
Boxcar width: 3
XAxis mode: Wavelengths
Number of Pixels in Spectrum: 2068
>>>>>Begin Spectral Data<<<<<
199,4	-0,567
199,9	5,353
200,4	4,733
200,8	5,776
201,3	2,719
201,8	6,405
202,2	4,376
202,7	8,719
203,2	5,005
203,6	2,662
204,1	-2,11
204,6	0,948
205	-1,652
205,5	0,919
206	-2,881
206,4	-4,652
206,9	-4,052
207,4	-1,624
207,8	-1,824
208,3	-2,567
208,8	-4,481
209,2	-2,91
209,7	-1,624
210,2	0,148
210,6	1,605
211,1	7,662
211,5	4,633
212	6,605
212,5	6,462
212,9	5,776
213,4	6,805
213,9	4,719
214,3	1,548
214,8	5,862
215,3	2,119
215,7	4,633
216,2	6,005
216,7	5,176
217,1	9,119
217,6	6,948
218,1	4,69
218,5	5,919
219	-5,052
219,5	-3,824
219,9	-8,338
220,4	-4,967
220,9	-1,91
221,3	-3,252
221,8	0,376
222,3	9,776
222,7	10,119
223,2	14,233
223,6	9,605
224,1	5,662
224,6	8,09
225	5,119
225,5	1,205
226	1,633
226,4	3,262
226,9	1,948
227,4	1,576
227,8	-4,824
228,3	-3,138
228,8	0,433
229,2	-1,424
229,7	-3,852
230,2	-4,224
230,6	1,205
231,1	12,062
231,5	9,862
232	7,519
232,5	6,976
232,9	8,062
233,4	9,805
233,9	4,548
234,3	1,176
234,8	1,348
235,3	2,976
235,7	6,433
236,2	6,776
236,7	9,119
237,1	13,919
237,6	10,605
238,1	14,433
238,5	9,348
239	6,69
239,4	9,719
239,9	5,005
240,4	1,319
240,8	2,205
241,3	-1,71
241,8	3,919
242,2	6,09
242,7	1,205
243,2	2,833
243,6	1,319
244,1	8,919
244,6	7,976
245	4,89
245,5	3,319
245,9	3,405
246,4	4,805
246,9	5,862
247,3	0,033
247,8	5,205
248,3	10,062
248,7	10,376
249,2	13,462
249,7	12,605
250,1	14,262
250,6	15,833
251	16,376
251,5	11,09
252	10,862
252,4	9,576
252,9	5,919
253,4	1,633
253,8	-0,624
254,3	1,176
254,8	5,776
255,2	1,662
255,7	-2,367
256,1	-1,11
256,6	5,49
257,1	6,805
257,5	2,576
258	-2,452
258,5	1,948
258,9	7,09
259,4	7,148
259,9	7,348
260,3	5,062
260,8	3,462
261,2	4,348
261,7	2,262
262,2	0,548
262,6	1,633
263,1	1,005
263,6	2,319
264	4,119
264,5	13,119
264,9	10,833
265,4	13,919
265,9	15,119
266,3	16,49
266,8	16,919
267,3	15,948
267,7	7,862
268,2	14,148
268,7	9,948
269,1	8,148
269,6	3,719
270	5,605
270,5	5,176
271	6,005
271,4	1,148
271,9	-0,995
272,4	6,005
272,8	5,376
273,3	0,89
273,7	3,948
274,2	3,862
274,7	6,633
275,1	10,119
275,6	6,405
276,1	6,462
276,5	12,233
277	13,405
277,4	13,176
277,9	10,033
278,4	10,348
278,8	10,519
279,3	11,662
279,8	10,062
280,2	7,576
280,7	8,605
281,1	8,748
281,6	9,748
282,1	10,748
282,5	8,719
283	5,548
283,4	3,233
283,9	3,119
284,4	6,376
284,8	5,462
285,3	0,662
285,8	5,805
286,2	8,833
286,7	8,605
287,1	7,948
287,6	5,519
288,1	4,605
288,5	9,576
289	4,69
289,5	7,433
289,9	7,719
290,4	11,49
290,8	13,176
291,3	13,776
291,8	14,976
292,2	16,605
292,7	14,119
293,1	14,033
293,6	12,576
294,1	12,948
294,5	13,148
295	9,148
295,5	9,005
295,9	9,233
296,4	8,605
296,8	5,776
297,3	1,805
297,8	-1,824
298,2	-4,652
298,7	-1,881
299,1	-5,167
299,6	-6,824
300,1	-4,652
300,5	-0,567
301	6,462
301,5	10,833
301,9	8,576
302,4	9,119
302,8	14,376
303,3	13,576
303,8	7,776
304,2	4,262
304,7	-1,367
305,1	-9,367
305,6	-7,538
306,1	-2,452
306,5	-0,252
307	4,948
307,4	6,776
307,9	11,005
308,4	18,119
308,8	11,29
309,3	2,548
309,8	-3,11
310,2	-2,195
310,7	-4,652
311,1	-4,224
311,6	-1,71
312,1	5,548
312,5	10,633
313	11,319
313,4	8,49
313,9	8,319
314,4	8,69
314,8	2,776
315,3	0,319
315,7	-7,681
316,2	-6,452
316,7	-6,081
317,1	-0,167
317,6	-3,452
318	5,205
318,5	3,176
319	10,376
319,4	10,805
319,9	17,49
320,3	13,976
320,8	15,948
321,3	12,862
321,7	19,062
322,2	16,462
322,6	19,205
323,1	13,319
323,6	12,348
324	12,148
324,5	7,605
324,9	5,433
325,4	2,405
325,9	2,09
326,3	5,033
326,8	8,462
327,2	4,976
327,7	10,062
328,2	5,29
328,6	11,09
329,1	5,548
329,5	2,662
330	-4,767
330,5	-0,71
330,9	-2,081
331,4	5,148
331,8	2,376
332,3	9,062
332,8	12,062
333,2	13,262
333,7	14,348
334,1	15,576
334,6	12,719
335,1	8,519
335,5	6,205
336	2,576
336,4	4,633
336,9	8,205
337,4	10,176
337,8	8,376
338,3	11,719
338,7	11,005
339,2	10,148
339,7	12,862
340,1	11,176
340,6	6,462
341	5,062
341,5	7,776
342	8,262
342,4	10,376
342,9	6,405
343,3	4,548
343,8	4,805
344,2	6,176
344,7	9,89
345,2	6,233
345,6	8,89
346,1	10,405
346,5	8,576
347	7,719
347,5	7,29
347,9	6,976
348,4	9,462
348,8	7,805
349,3	12,233
349,8	16,205
350,2	27,805
350,7	28,462
351,1	26,89
351,6	33,348
352	37,805
352,5	41,119
353	47,548
353,4	45,319
353,9	60,119
354,3	74,148
354,8	83,69
355,3	105,576
355,7	125,433
356,2	148,462
356,6	176,348
357,1	206,348
357,5	242,862
358	287,462
358,5	330,262
358,9	381,89
359,4	441,119
359,8	504,69
360,3	580,833
360,8	655,89
361,2	746,576
361,7	850,633
362,1	969,176
362,6	1097,119
363	1235,748
363,5	1377,405
364	1535,119
364,4	1687,89
364,9	1841,976
365,3	1992,462
365,8	2133,205
366,3	2263,862
366,7	2387,233
367,2	2494,948
367,6	2584,262
368,1	2653,148
368,5	2699,519
369	2725,576
369,5	2735,576
369,9	2712,405
370,4	2667,49
370,8	2610,005
371,3	2529,776
371,7	2437,976
372,2	2330,233
372,7	2216,433
373,1	2100,205
373,6	1979,719
374	1859,776
374,5	1741,605
374,9	1620,148
375,4	1510,348
375,9	1397,29
376,3	1290,033
376,8	1188,033
377,2	1088,748
377,7	998,405
378,2	915,748
378,6	836,262
379,1	765,376
379,5	708,119
380	655,119
380,4	601,005
380,9	549,433
381,4	502,405
381,8	465,548
382,3	434,862
382,7	401,348
383,2	369,005
383,6	343,376
384,1	323,633
384,6	305,548
385	283,205
385,5	260,948
385,9	235,862
386,4	216,033
386,8	202,376
387,3	181,29
387,7	167,89
388,2	155,29
388,7	147,548
389,1	143,69
389,6	137,519
390	129,033
390,5	125,119
390,9	118,833
391,4	108,976
391,9	96,576
392,3	92,948
392,8	81,69
393,2	68,633
393,7	62,148
394,1	57,376
394,6	55,805
395,1	53,662
395,5	44,805
396	45,69
396,4	52,605
396,9	52,005
397,3	52,005
397,8	54,776
398,2	55,433
398,7	56,748
399,2	56,69
399,6	54,433
400,1	53,205
400,5	47,376
401	44,548
401,4	38,376
401,9	40,433
402,4	43,976
402,8	37,09
403,3	40,376
403,7	39,805
404,2	38,976
404,6	44,148
405,1	36,948
405,5	31,576
406	38,662
406,5	30,062
406,9	34,776
407,4	33,919
407,8	34,005
408,3	38,376
408,7	38,148
409,2	38,348
409,6	46,576
410,1	46,576
410,6	51,119
411	52,348
411,5	54,776
411,9	58,576
412,4	58,062
412,8	62,719
413,3	63,719
413,7	60,805
414,2	60,776
414,7	65,062
415,1	70,719
415,6	73,89
416	70,176
416,5	74,948
416,9	74,376
417,4	82,976
417,8	85,662
418,3	88,919
418,8	95,719
419,2	101,033
419,7	98,348
420,1	107,919
420,6	106,29
421	105,29
421,5	107,719
421,9	111,405
422,4	116,033
422,8	118,49
423,3	118,033
423,8	119,119
424,2	116,633
424,7	114,119
425,1	111,919
425,6	114,49
426	116,919
426,5	121,348
426,9	123,748
427,4	127,233
427,9	127,405
428,3	130,176
428,8	128,805
429,2	129,548
429,7	127,062
430,1	127,748
430,6	131,662
431	133,776
431,5	135,776
431,9	135,548
432,4	139,348
432,8	145,205
433,3	152,662
433,8	157,805
434,2	164,348
434,7	168,148
435,1	172,548
435,6	177,405
436	184,49
436,5	189,833
436,9	191,776
437,4	196,776
437,8	203,719
438,3	214,176
438,8	222,519
439,2	230,633
439,7	238,948
440,1	252,89
440,6	267,89
441	273,405
441,5	282,69
441,9	294,49
442,4	299,576
442,8	307,605
443,3	318,89
443,7	326,69
444,2	346,49
444,7	358,919
445,1	375,89
445,6	390,376
446	409,376
446,5	421,148
446,9	432,662
447,4	443,433
447,8	464,376
448,3	481,433
448,7	499,605
449,2	510,719
449,6	531,09
450,1	551,348
450,6	573,205
451	584,09
451,5	603,519
451,9	624,69
452,4	649,69
452,8	665,748
453,3	690,376
453,7	706,805
454,2	730,033
454,6	746,662
455,1	769,548
455,5	784,89
456	809,605
456,4	822,748
456,9	847,033
457,3	871,662
457,8	889,376
458,3	910,948
458,7	934,776
459,2	960,062
459,6	988,69
460,1	1013,233
460,5	1034,576
461	1067,319
461,4	1086,89
461,9	1114,833
462,3	1138,976
462,8	1168,605
463,2	1186,433
463,7	1215,919
464,1	1241,376
464,6	1277,405
465	1306,376
465,5	1328,948
466	1353,948
466,4	1385,919
466,9	1416,119
467,3	1440,176
467,8	1463,605
468,2	1488,862
468,7	1521,119
469,1	1552,176
469,6	1579,262
470	1607,233
470,5	1632,862
470,9	1659,062
471,4	1683,49
471,8	1708,033
472,3	1728,576
472,7	1757,29
473,2	1775,062
473,6	1800,833
474,1	1828,662
474,5	1852,919
475	1883,062
475,4	1903,433
475,9	1925,805
476,4	1950,548
476,8	1973,605
477,3	1989,005
477,7	2011,405
478,2	2026,176
478,6	2042,576
479,1	2061,519
479,5	2078,805
480	2091,748
480,4	2111,548
480,9	2127,805
481,3	2137,519
481,8	2158,119
482,2	2165,348
482,7	2177,662
483,1	2190,119
483,6	2200,576
484	2209,005
484,5	2219,605
484,9	2225,233
485,4	2239,862
485,8	2246,49
486,3	2256,576
486,7	2262,805
487,2	2266,319
487,6	2274,805
488,1	2277,262
488,5	2279,776
489	2281,005
489,4	2283,576
489,9	2283,719
490,4	2289,376
490,8	2287,862
491,3	2293,062
491,7	2291,976
492,2	2293,233
492,6	2292,576
493,1	2293,405
493,5	2280,319
494	2268,948
494,4	2263,405
494,9	2253,319
495,3	2244,919
495,8	2237,319
496,2	2227,376
496,7	2226,062
497,1	2225,576
497,6	2214,405
498	2206,09
498,5	2197,176
498,9	2178,919
499,4	2162,148
499,8	2154,89
500,3	2143,376
500,7	2127,919
501,2	2116,948
501,6	2102,09
502,1	2093,633
502,5	2084,433
503	2069,776
503,4	2051,033
503,9	2033,119
504,3	2016,519
504,8	2000,262
505,2	1983,976
505,7	1969,833
506,1	1950,348
506,6	1929,576
507	1918,348
507,5	1904,376
507,9	1886,433
508,4	1868,633
508,8	1845,919
509,3	1827,833
509,7	1817,09
510,2	1802,205
510,6	1777,176
511,1	1764,09
511,5	1748,262
512	1733,919
512,4	1717,233
512,9	1695,348
513,3	1675,176
513,8	1661,005
514,2	1641,576
514,7	1625,548
515,1	1607,348
515,6	1589,748
516	1574,89
516,5	1558,376
516,9	1542,033
517,4	1525,119
517,8	1511,605
518,3	1494,005
518,7	1474,148
519,2	1454,119
519,6	1437,548
520,1	1425,062
520,5	1408,633
521	1384,176
521,4	1365,605
521,9	1350,662
522,3	1340,576
522,8	1323,462
523,2	1305,519
523,7	1286,548
524,1	1269,576
524,6	1257,376
525	1238,176
525,5	1214,348
525,9	1198,948
526,4	1179,29
526,8	1162,633
527,3	1150,433
527,7	1138,033
528,2	1126,89
528,6	1117,69
529,1	1104,205
529,5	1096,062
530	1087,776
530,4	1077,976
530,9	1061,376
531,3	1049,433
531,8	1039,605
532,2	1028,862
532,6	1009,005
533,1	996,833
533,5	982,89
534	972,519
534,4	960,833
534,9	948,748
535,3	931,89
535,8	926,119
536,2	914,919
536,7	901,919
537,1	891,176
537,6	879,262
538	873,005
538,5	870,948
538,9	855,005
539,4	847,662
539,8	845,205
540,3	835,405
540,7	828,69
541,2	814,719
541,6	803,319
542,1	800,862
542,5	789,776
543	774,262
543,4	762,09
543,9	753,062
544,3	746,005
544,8	735,205
545,2	727,519
545,7	724,862
546,1	717,548
546,5	712,119
547	703,862
547,4	700,148
547,9	694,233
548,3	689,176
548,8	678,233
549,2	673,519
549,7	671,833
550,1	670,462
550,6	661,062
551	657,633
551,5	647,69
551,9	639,176
552,4	631,805
552,8	622,862
553,3	617,005
553,7	608,319
554,2	599,49
554,6	599,262
555,1	596,005
555,5	590,605
555,9	586,948
556,4	575,433
556,8	570,519
557,3	568,49
557,7	556,605
558,2	551,862
558,6	549,405
559,1	540,233
559,5	538,748
560	534,176
560,4	534,062
560,9	531,348
561,3	526,205
561,8	518,519
562,2	517,376
562,7	512,005
563,1	514,462
563,6	503,033
564	500,005
564,4	498,062
564,9	496,176
565,3	491,948
565,8	488,576
566,2	479,89
566,7	478,233
567,1	477,862
567,6	473,776
568	468,633
568,5	467,29
568,9	463,29
569,4	462,548
569,8	457,748
570,3	450,576
570,7	444,348
571,1	443,776
571,6	437,805
572	439,062
572,5	434,262
572,9	431,69
573,4	431,005
573,8	432,433
574,3	424,805
574,7	423,376
575,2	417,519
575,6	413,005
576,1	412,462
576,5	411,605
576,9	403,262
577,4	404,433
577,8	404,319
578,3	399,862
578,7	398,148
579,2	395,776
579,6	386,776
580,1	384,319
580,5	382,576
581	382,833
581,4	384,148
581,9	380,69
582,3	373,548
582,7	372,033
583,2	372,433
583,6	368,548
584,1	362,89
584,5	357,033
585	358,833
585,4	358,09
585,9	358,405
586,3	357,033
586,8	360,633
587,2	356,748
587,6	359,348
588,1	359,005
588,5	360,233
589	362,205
589,4	359,862
589,9	353,005
590,3	349,205
590,8	345,462
591,2	340,033
591,7	341,776
592,1	339,433
592,5	340,605
593	338,376
593,4	338,662
593,9	332,062
594,3	331,262
594,8	324,49
595,2	320,462
595,7	313,919
596,1	311,633
596,6	307,862
597	309,262
597,4	306,605
597,9	308,748
598,3	307,948
598,8	309,148
599,2	308,976
599,7	310,005
600,1	310,348
600,6	307,462
601	304,033
601,4	306,548
601,9	307,89
602,3	306,519
602,8	304,748
603,2	301,633
603,7	300,376
604,1	298,462
604,6	291,233
605	284,89
605,4	284,433
605,9	280,376
606,3	275,433
606,8	272,948
607,2	267,805
607,7	263,719
608,1	269,033
608,6	266,919
609	273,262
609,4	279,576
609,9	277,376
610,3	278,548
610,8	280,576
611,2	274,89
611,7	276,405
612,1	272,033
612,6	266,605
613	267,519
613,4	266,09
613,9	263,805
614,3	261,033
614,8	258,519
615,2	252,233
615,7	251,233
616,1	252,576
616,6	243,805
617	242,205
617,4	244,976
617,9	244,719
618,3	245,833
618,8	250,948
619,2	249,233
619,7	255,319
620,1	254,919
620,5	253,062
621	247,233
621,4	247,148
621,9	238,776
622,3	236,319
622,8	232,148
623,2	231,633
623,6	230,662
624,1	232,919
624,5	232,033
625	235,833
625,4	236,176
625,9	238,833
626,3	235,348
626,8	233,29
627,2	232,49
627,6	222,433
628,1	211,719
628,5	213,976
629	211,033
629,4	213,605
629,9	211,062
630,3	206,405
630,7	210,519
631,2	215,576
631,6	212,148
632,1	210,205
632,5	210,748
633	211,233
633,4	212,662
633,8	213,805
634,3	213,662
634,7	209,519
635,2	208,348
635,6	202,976
636,1	199,605
636,5	194,919
636,9	186,976
637,4	183,49
637,8	179,262
638,3	176,919
638,7	176,462
639,2	171,976
639,6	172,262
640	173,69
640,5	172,89
640,9	173,548
641,4	173,89
641,8	171,748
642,2	175,262
642,7	183,005
643,1	187,233
643,6	186,833
644	187,833
644,5	187,262
644,9	189,119
645,3	188,719
645,8	177,833
646,2	177,205
646,7	176,919
647,1	176,119
647,6	179,519
648	176,69
648,4	172,176
648,9	175,319
649,3	171,405
649,8	172,49
650,2	173,005
650,6	171,948
651,1	171,462
651,5	172,405
652	168,233
652,4	167,519
652,9	165,89
653,3	162,633
653,7	158,062
654,2	154,776
654,6	151,833
655,1	157,719
655,5	161,776
655,9	159,662
656,4	157,719
656,8	157,205
657,3	161,005
657,7	166,319
658,2	164,948
658,6	159,405
659	159,69
659,5	158,176
659,9	162,119
660,4	160,548
660,8	154,862
661,2	148,748
661,7	150,319
662,1	149,176
662,6	149,919
663	143,862
663,4	140,462
663,9	140,576
664,3	135,433
664,8	133,119
665,2	127,176
665,6	124,89
666,1	127,89
666,5	128,405
667	125,376
667,4	127,548
667,9	123,748
668,3	129,49
668,7	127,376
669,2	126,89
669,6	129,062
670,1	129,919
670,5	125,548
670,9	128,376
671,4	123,919
671,8	127,405
672,3	126,805
672,7	122,948
673,1	118,662
673,6	121,319
674	123,805
674,5	121,605
674,9	116,319
675,3	110,29
675,8	111,833
676,2	115,519
676,7	116,633
677,1	111,576
677,5	111,605
678	115,29
678,4	119,29
678,9	115,976
679,3	115,262
679,7	114,89
680,2	111,433
680,6	110,319
681,1	106,548
681,5	109,919
681,9	111,033
682,4	112,09
682,8	114,662
683,3	116,719
683,7	118,29
684,1	122,633
684,6	114,548
685	110,976
685,5	106,748
685,9	98,519
686,3	96,176
686,8	96,748
687,2	94,805
687,7	91,633
688,1	89,805
688,5	91,433
689	96,176
689,4	97,09
689,9	94,062
690,3	92,176
690,7	95,69
691,2	97,376
691,6	93,748
692	91,49
692,5	89,719
692,9	89,748
693,4	86,776
693,8	87,748
694,2	87,033
694,7	87,89
695,1	85,548
695,6	89,919
696	91,748
696,4	89,976
696,9	86,262
697,3	84,033
697,8	82,576
698,2	81,148
698,6	79,919
699,1	76,719
699,5	82,69
699,9	82,148
700,4	82,576
700,8	84,09
701,3	86,319
701,7	80,176
702,1	77,119
702,6	73,348
703	77,519
703,5	75,89
703,9	73,433
704,3	74,548
704,8	76,29
705,2	79,89
705,6	77,633
706,1	70,948
706,5	72,662
707	75,29
707,4	74,719
707,8	73,09
708,3	73,233
708,7	72,605
709,2	72,262
709,6	70,462
710	71,262
710,5	68,176
710,9	68,233
711,3	62,633
711,8	65,633
712,2	69,205
712,7	71,29
713,1	70,748
713,5	75,033
714	75,548
714,4	77,548
714,8	76,062
715,3	72,833
715,7	71,976
716,2	68,348
716,6	68,148
717	63,519
717,5	63,49
717,9	64,919
718,3	61,948
718,8	57,833
719,2	58,348
719,7	58,319
720,1	63,776
720,5	66,748
721	62,719
721,4	66,233
721,8	76,405
722,3	72,662
722,7	72,89
723,2	69,519
723,6	64,005
724	63,862
724,5	58,662
724,9	51,49
725,3	53,262
725,8	48,348
726,2	48,376
726,7	50,576
727,1	47,576
727,5	55,519
728	52,605
728,4	51,548
728,8	50,205
729,3	47,09
729,7	43,833
730,1	48,805
730,6	48,319
731	46,548
731,5	47,062
731,9	46,09
732,3	51,262
732,8	54,976
733,2	53,09
733,6	51,005
734,1	55,433
734,5	57,033
734,9	60,433
735,4	61,005
735,8	54,919
736,3	57,662
736,7	55,89
737,1	53,662
737,6	48,976
738	44,348
738,4	40,005
738,9	44,205
739,3	41,49
739,7	41,29
740,2	41,433
740,6	47,633
741,1	53,062
741,5	51,119
741,9	51,119
742,4	54,262
742,8	53,948
743,2	56,748
743,7	50,69
744,1	46,348
744,5	45,376
745	43,862
745,4	38,776
745,8	37,376
746,3	31,862
746,7	32,748
747,2	32,805
747,6	38,719
748	42,09
748,5	46,519
748,9	46,119
749,3	50,833
749,8	51,662
750,2	54,633
750,6	51,09
751,1	48,49
751,5	48,319
751,9	52,69
752,4	54,805
752,8	52,462
753,3	49,119
753,7	52,148
754,1	48,033
754,6	41,405
755	37,005
755,4	31,29
755,9	34,662
756,3	37,49
756,7	37,548
757,2	40,805
757,6	46,405
758	41,662
758,5	43,805
758,9	39,319
759,3	37,833
759,8	35,405
760,2	35,233
760,6	32,09
761,1	36,605
761,5	33,605
761,9	35,633
762,4	34,662
762,8	33,262
763,3	26,69
763,7	31,148
764,1	30,033
764,6	34,062
765	36,69
765,4	40,748
765,9	43,776
766,3	51,519
766,7	45,805
767,2	47,205
767,6	44,29
768	42,776
768,5	36,633
768,9	35,748
769,3	33,062
769,8	32,09
770,2	34,405
770,6	35,89
771,1	37,319
771,5	40,119
771,9	42,976
772,4	45,976
772,8	45,319
773,2	41,748
773,7	40,119
774,1	38,262
774,5	32,89
775	29,062
775,4	26,548
775,8	27,662
776,3	29,348
776,7	28,376
777,1	26,948
777,6	29,005
778	31,49
778,4	28,805
778,9	31,576
779,3	30,148
779,7	31,662
780,2	32,148
780,6	34,033
781	29,776
781,5	29,719
781,9	30,462
782,3	26,548
782,8	25,033
783,2	26,09
783,6	29,833
784,1	26,833
784,5	29,862
784,9	26,405
785,4	32,548
785,8	33,748
786,2	32,148
786,7	26,033
787,1	29,748
787,5	25,148
788	23,719
788,4	24,462
788,8	21,833
789,3	22,49
789,7	27,148
790,1	27,405
790,6	32,319
791	29,262
791,4	25,348
791,9	23,462
792,3	20,005
792,7	18,719
793,2	14,89
793,6	11,49
794	18,548
794,5	15,462
794,9	19,805
795,3	26,09
795,8	26,376
796,2	29,576
796,6	33,033
797,1	32,49
797,5	31,919
797,9	30,062
798,4	26,205
798,8	21,176
799,2	20,919
799,7	20,405
800,1	13,348
800,5	17,748
801	21,09
801,4	18,633
801,8	18,748
802,2	20,633
802,7	16,119
803,1	20,233
803,5	20,776
804	16,433
804,4	17,148
804,8	20,719
805,3	19,405
805,7	21,148
806,1	20,433
806,6	19,29
807	20,233
807,4	19,919
807,9	16,09
808,3	18,033
808,7	18,319
809,2	23,462
809,6	25,433
810	25,433
810,4	26,776
810,9	28,176
811,3	28,433
811,7	31,433
812,2	34,005
812,6	30,262
813	33,862
813,5	33,062
813,9	34,148
814,3	29,348
814,8	26,319
815,2	12,89
815,6	15,833
816,1	14,919
816,5	16,29
816,9	15,576
817,3	17,033
817,8	22,09
818,2	28,805
818,6	25,233
819,1	23,776
819,5	20,348
819,9	21,776
820,4	23,233
820,8	18,633
821,2	15,548
821,7	18,49
822,1	19,205
822,5	27,262
822,9	25,948
823,4	25,29
823,8	27,633
824,2	28,148
824,7	24,462
825,1	21,29
825,5	12,348
826	9,033
826,4	9,033
826,8	4,662
827,3	7,405
827,7	7,262
828,1	7,633
828,5	9,319
829	12,176
829,4	8,29
829,8	4,976
830,3	3,948
830,7	4,548
831,1	7,49
831,6	8,148
832	8,605
832,4	11,69
832,8	16,576
833,3	14,976
833,7	13,062
834,1	10,062
834,6	8,319
835	8,805
835,4	9,462
835,8	3,348
836,3	5,976
836,7	8,633
837,1	8,49
837,6	14,633
838	12,976
838,4	11,719
838,9	16,948
839,3	13,919
839,7	13,29
840,1	7,748
840,6	5,662
841	4,005
841,4	3,09
841,9	5,633
842,3	6,119
842,7	7,89
843,1	12,062
843,6	13,262
844	15,919
844,4	21,233
844,9	24,633
845,3	27,776
845,7	23,862
846,2	22,976
846,6	19,605
847	19,119
847,4	19,348
847,9	13,976
848,3	12,576
848,7	12,062
849,2	14,748
849,6	13,462
850	15,605
850,4	11,776
850,9	13,776
851,3	16,833
851,7	21,748
852,2	19,805
852,6	23,033
853	21,748
853,4	23,719
853,9	19,319
854,3	15,633
854,7	15,89
855,2	15,519
855,6	14,776
856	12,948
856,4	6,576
856,9	10,062
857,3	9,976
857,7	11,719
858,2	19,519
858,6	17,005
859	18,976
859,4	21,605
859,9	19,805
860,3	16,919
860,7	16,319
861,1	12,89
861,6	13,148
862	11,576
862,4	11,233
862,9	12,462
863,3	17,776
863,7	11,89
864,1	10,605
864,6	10,748
865	11,29
865,4	13,49
865,9	14,376
866,3	7,862
866,7	7,319
867,1	5,662
867,6	8,319
868	8,662
868,4	5,519
868,8	4,862
869,3	8,319
869,7	14,605
870,1	10,719
870,6	8,719
871	-64,624
871,4	-55,338
871,8	-57,91
872,3	-55,681
872,7	-53,881
873,1	-52,652
873,5	-50,767
874	22,005
874,4	16,69
874,8	19,176
875,3	17,919
875,7	15,433
876,1	20,976
876,5	18,062
877	19,119
877,4	14,29
877,8	12,605
878,2	12,062
878,7	11,948
879,1	8,148
879,5	10,29
879,9	8,662
880,4	6,948
880,8	7,462
881,2	6,548
881,7	3,148
882,1	6,633
882,5	4,462
882,9	2,662
883,4	4,862
883,8	9,29
884,2	9,919
884,6	8,262
885,1	8,148
885,5	10,148
885,9	13,519
886,3	16,776
886,8	13,09
887,2	11,89
887,6	15,976
888	9,862
888,5	11,976
888,9	7,976
889,3	4,319
889,8	7,005
890,2	7,49
890,6	3,776
891	6,976
891,5	1,548
891,9	4,548
892,3	9,748
892,7	4,719
893,2	4,548
893,6	6,262
894	5,69
894,4	4,948
894,9	5,405
895,3	2,462
895,7	3,405
896,1	2,548
896,6	5,005
897	9,005
897,4	17,833
897,8	16,976
898,3	19,576
898,7	16,433
899,1	17,033
899,5	15,348
900	10,862
900,4	4,148
900,8	-0,452
901,2	-4,967
901,7	-1,824
902,1	0,09
902,5	-0,338
902,9	-1,081
903,4	1,576
903,8	6,576
904,2	7,176
904,6	7,062
905,1	4,919
905,5	6,405
905,9	8,548
906,3	6,805
906,8	7,69
907,2	9,062
907,6	13,033
908	13,976
908,5	10,976
908,9	9,776
909,3	6,662
909,7	6,176
910,2	5,319
910,6	4,062
911	-0,224
911,4	3,719
911,9	3,033
912,3	5,919
912,7	6,719
913,1	8,776
913,6	8,29
914	10,776
914,4	7,176
914,8	7,976
915,3	4,748
915,7	3,748
916,1	4,69
916,5	5,462
916,9	6,633
917,4	9,433
917,8	11,433
918,2	12,09
918,6	7,033
919,1	6,748
919,5	8,119
919,9	10,919
920,3	2,119
920,8	0,49
921,2	-0,567
921,6	2,976
922	-1,024
922,5	-5,395
922,9	-4,852
923,3	-0,567
923,7	2,976
924,2	3,348
924,6	5,033
925	11,776
925,4	13,205
925,8	8,033
926,3	11,262
926,7	9,776
927,1	14,605
927,5	17,548
928	10,119
928,4	5,976
928,8	10,776
929,2	6,462
929,7	4,033
930,1	5,119
930,5	-2,167
930,9	5,605
931,3	10,576
931,8	10,948
932,2	14,062
932,6	12,748
933	2,09
933,5	3,348
933,9	0,719
934,3	1,948
934,7	-1,624
935,2	-0,624
935,6	-2,31
936	5,69
936,4	5,576
936,8	5,49
937,3	2,805
937,7	2,805
938,1	4,719
938,5	4,319
939	3,576
939,4	6,433
939,8	4,919
940,2	5,09
940,6	6,09
941,1	-1,024
941,5	5,033
941,9	1,433
942,3	-1,967
942,8	1,548
943,2	3,948
943,6	3,119
944	8,776
944,4	5,148
944,9	8,976
945,3	11,062
945,7	4,748
946,1	0,576
946,6	-2,11
947	-4,51
947,4	-0,481
947,8	-2,595
948,2	-5,71
948,7	-4,767
949,1	-6,424
949,5	-2,31
949,9	2,148
950,3	0,89
950,8	2,176
951,2	4,005
951,6	2,033
952	8,348
952,5	4,805
952,9	4,748
953,3	4,462
953,7	5,233
954,1	8,89
954,6	12,576
955	11,319
955,4	11,176
955,8	11,633
956,2	8,89
956,7	11,862
957,1	11,033
957,5	13,49
957,9	14,605
958,3	17,748
958,8	16,405
959,2	21,233
959,6	19,719
960	17,119
960,5	16,062
960,9	15,119
961,3	12,605
961,7	7,833
962,1	4,976
962,6	6,548
963	4,062
963,4	0,49
963,8	-0,367
964,2	3,462
964,7	6,233
965,1	6,69
965,5	6,405
965,9	10,319
966,3	11,09
966,8	10,119
967,2	8,605
967,6	9,148
968	6,633
968,4	5,719
968,9	6,519
969,3	10,89
969,7	8,519
970,1	10,719
970,5	9,033
971	14,176
971,4	12,776
971,8	10,776
972,2	8,633
972,6	9,69
973,1	7,805
973,5	10,29
973,9	10,119
974,3	10,176
974,7	14,062
975,2	12,805
975,6	11,605
976	11,89
976,4	7,405
976,8	3,89
977,3	2,09
977,7	-3,252
978,1	-1,595
978,5	-4,652
978,9	-7,51
979,4	-5,51
979,8	-6,824
980,2	-6,081
980,6	-7,538
981	-7,252
981,5	-5,081
981,9	-5,367
982,3	-5,767
982,7	-3,31
983,1	-2,938
983,6	-0,138
984	-1,881
984,4	-0,252
984,8	3,633
985,2	3,69
985,6	-0,167
986,1	1,576
986,5	5,519
986,9	-0,481
987,3	3,919
987,7	2,005
988,2	3,233
988,6	6,148
989	5,176
989,4	-0,767
989,8	4,262
990,3	1,605
990,7	2,062
991,1	7,319
991,5	9,748
991,9	9,662
992,3	14,376
992,8	15,205
993,2	15,433
993,6	14,49
994	10,662
994,4	8,348
994,9	6,49
995,3	3,119
995,7	0,005
996,1	-1,595
996,5	-1,481
996,9	-4,538
997,4	-1,081
997,8	-3,767
998,2	-2,138
998,6	-5,824
999	-5,624
999,5	-7,367
999,9	-5,138
1000,3	-10,738
1000,7	-4,024
1001,1	-3,281
1001,5	5,948
1002	7,833
1002,4	12,405
1002,8	13,233
1003,2	20,205
1003,6	20,09
1004	21,948
1004,5	15,776
1004,9	16,433
1005,3	9,519
1005,7	6,605
1006,1	1,148
1006,6	-5,081
1007	-5,881
1007,4	-5,024
1007,8	-3,852
1008,2	-1,052
1008,6	3,833
1009,1	3,376
1009,5	7,662
1009,9	7,348
1010,3	12,833
1010,7	11,89
1011,1	10,976
1011,6	8,176
1012	10,319
1012,4	9,719
1012,8	5,976
1013,2	4,776
1013,6	4,948
1014,1	8,919
1014,5	8,633
1014,9	7,605
1015,3	3,233
1015,7	7,49
1016,1	5,719
1016,6	5,205
1017	7,033
1017,4	9,805
1017,8	11,49
1018,2	18,719
1018,6	13,462
1019,1	9,89
1019,5	8,09
1019,9	3,948
1020,3	5,205
1020,7	6,29
1021,1	-0,31
1021,6	5,148
1022	9,29
1022,4	13,005
1022,8	14,548
1023,2	10,805
1023,6	11,119
1024,1	19,633
1024,5	21,633
1024,9	19,805
1025,3	12,976
1025,7	13,519
1026,1	13,948
1026,6	12,433
1027	6,376
1027,4	3,033
1027,8	4,605
1028,2	7,205
1028,6	11,062
1029	13,605
1029,5	15,262
1029,9	14,805
1030,3	15,976
1030,7	15,262
1031,1	16,976
1031,5	10,033
1032	4,833
1032,4	1,605
1032,8	6,49
1033,2	4,89
1033,6	3,89
1034	1,576
1034,4	3,605
1034,9	9,005
1035,3	8,89
1035,7	5,49
1036,1	0,348
1036,5	-1,938
1036,9	-0,567
1037,4	5,005
1037,8	-2,91
1038,2	-2,995
1038,6	-7,138
1039	0,89
1039,4	7,119
1039,8	1,262
1040,3	-6,338
1040,7	0,662
1041,1	2,148
1041,5	9,062
1041,9	6,062
1042,3	1,833
1042,7	10,319
1043,2	11,205
1043,6	8,519
1044	5,776
1044,4	4,748
1044,8	6,662
1045,2	9,348
1045,6	8,09
1046,1	9,89
1046,5	10,833
1046,9	13,233
1047,3	12,605
1047,7	9,233
1048,1	6,062
1048,5	5,09
1049	9,976
1049,4	10,862
1049,8	10,605
1050,2	11,29
1050,6	20,176
1051	21,033
1051,4	17,233
1051,9	11,805
1052,3	17,748
1052,7	19,548
1053,1	14,262
1053,5	11,548
1053,9	13,262
1054,3	15,376
1054,8	19,376
1055,2	15,805
1055,6	16,09
1056	20,69
1056,4	16,348
1056,8	16,548
1057,2	17,062
1057,6	12,519
1058,1	7,233
1058,5	3,233
1058,9	1,805
1059,3	5,062
1059,7	7,033
1060,1	9,205
1060,5	8,348
1061	11,633
1061,4	11,005
1061,8	16,433
1062,2	10,433
1062,6	8,29
1063	8,976
1063,4	9,233
1063,8	6,748
1064,3	5,776
1064,7	2,062
1065,1	2,176
1065,5	-1,338
1065,9	-3,681
1066,3	-5,11
1066,7	-8,424
1067,1	-7,681
1067,6	-5,967
1068	-5,881
1068,4	0,262
1068,8	2,719
1069,2	0,919
1069,6	6,862
1070	12,062
1070,4	9,576
1070,9	10,09
1071,3	4,348
1071,7	0,49
1072,1	0,233
1072,5	-2,852
1072,9	-8,938
1073,3	-4,767
1073,7	-6,424
1074,2	-3,652
1074,6	-1,91
1075	0,605
1075,4	0,633
1075,8	6,062
1076,2	-1,11
1076,6	2,748
1077	-2,138
1077,5	-0,71
1077,9	-0,995
1078,3	-1,224
1078,7	-4,681
1079,1	1,005
1079,5	-2,71
1079,9	2,29
1080,3	0,033
1080,7	1,662
1081,2	4,405
1081,6	2,519
1082	-2,738
1082,4	5,49
1082,8	2,119
1083,2	2,833
1083,6	4,062
1084	0,89
1084,5	5,662
1084,9	8,29
1085,3	-2,081
1085,7	2,176
1086,1	3,748
1086,5	7,405
1086,9	13,29
1087,3	11,119
1087,7	12,176
1088,2	18,719
1088,6	14,862
1089	13,776
1089,4	9,719
1089,8	7,319
1090,2	10,062
1090,6	5,89
1091	8,205
1091,4	13,919
1091,9	15,033
1092,3	18,662
1092,7	15,09
1093,1	14,376
1093,5	17,29
1093,9	12,748
1094,3	14,433
1094,7	9,776
1095,1	8,148
1095,5	11,205
1096	10,805
1096,4	12,976
1096,8	10,862
1097,2	6,262
1097,6	16,033
1098	13,462
1098,4	12,89
1098,8	12,919
1099,2	17,233
1099,6	17,29
1100,1	15,462
1100,5	8,833
1100,9	7,062
1101,3	5,805
1101,7	5,662
1102,1	-1,795
1102,5	2,005
1102,9	2,605
1103,3	4,862
1103,7	9,376
1104,2	8,205
1104,6	4,805
1105	6,348
1105,4	3,748
1105,8	3,89
1106,2	0,633
1106,6	-2,281
1107	-1,11
1107,4	0,267
1107,8	-1,087
1108,3	-0,017
