Data from Subt2_166.txt Node
Date: Sat Aug 26 18:35:23 MSK 2023
User: vat
Spectrometer: MAYP114033
Trigger mode: 0
Integration Time (sec): 1,000000E0
Scans to average: 5
Electric dark correction enabled: true
Nonlinearity correction enabled: false
Boxcar width: 3
XAxis mode: Wavelengths
Number of Pixels in Spectrum: 2068
>>>>>Begin Spectral Data<<<<<
199,4	-1,1
199,9	-0,24
200,4	-2,333
200,8	0,514
201,3	-0,457
201,8	0,229
202,2	-3,429
202,7	-1,886
203,2	-2,343
203,6	-2,771
204,1	-7,114
204,6	-5,8
205	-6,114
205,5	-2,543
206	-4,971
206,4	-4,629
206,9	-4,343
207,4	0,371
207,8	1
208,3	0,8
208,8	-0,171
209,2	2,629
209,7	2
210,2	4,286
210,6	-0,829
211,1	-1,743
211,5	-2,743
212	-6,2
212,5	-8,829
212,9	-8,2
213,4	-7,086
213,9	-9,143
214,3	-8,8
214,8	-6,486
215,3	-3,771
215,7	0,086
216,2	3,6
216,7	2,943
217,1	6,857
217,6	8,857
218,1	6
218,5	5,743
219	-0,371
219,5	-1,229
219,9	-2,057
220,4	3,886
220,9	1,371
221,3	5,6
221,8	5,771
222,3	9,6
222,7	6,914
223,2	6,686
223,6	-0,8
224,1	0,343
224,6	-1,857
225	-0,914
225,5	-1,6
226	-0,314
226,4	-0,286
226,9	3,629
227,4	3,914
227,8	-0,143
228,3	-0,257
228,8	0,429
229,2	0,086
229,7	-1
230,2	-3,857
230,6	-0,686
231,1	9,029
231,5	9,229
232	7,171
232,5	3,114
232,9	5,543
233,4	6,4
233,9	-3,114
234,3	-9,143
234,8	-9,629
235,3	-12,6
235,7	-8,714
236,2	-8,914
236,7	-7,714
237,1	-0,486
237,6	0,571
238,1	1,371
238,5	1,029
239	-0,171
239,4	3,171
239,9	1,543
240,4	-0,714
240,8	-1,143
241,3	-5,343
241,8	-2,257
242,2	-3,971
242,7	-11,857
243,2	-11,029
243,6	-14,4
244,1	-13,457
244,6	-7,371
245	-6,029
245,5	-2,343
245,9	-1,629
246,4	-3,343
246,9	1,886
247,3	-2,371
247,8	-4,629
248,3	0,714
248,7	1,114
249,2	5,286
249,7	6,2
250,1	8,714
250,6	11,171
251	12,371
251,5	9,657
252	5,886
252,4	5,257
252,9	1,314
253,4	-0,857
253,8	-2,657
254,3	-2,657
254,8	-2,457
255,2	-4,714
255,7	-2,971
256,1	3,486
256,6	1,514
257,1	2,314
257,5	-4,486
258	-7,6
258,5	-4,486
258,9	-10,057
259,4	-15,343
259,9	-12,257
260,3	-14,2
260,8	-12,257
261,2	-10,371
261,7	-8,171
262,2	-3,971
262,6	0,171
263,1	1,257
263,6	5,771
264	10,514
264,5	10,571
264,9	5,571
265,4	4,514
265,9	1,943
266,3	0,229
266,8	0,314
267,3	-1,829
267,7	-7,486
268,2	-0,743
268,7	-1,714
269,1	-4,971
269,6	-5,829
270	-5,8
270,5	-7,486
271	-2,457
271,4	-5,771
271,9	-9,629
272,4	-1,914
272,8	-6,2
273,3	-8,514
273,7	-3
274,2	-0,257
274,7	0,4
275,1	7,686
275,6	7,171
276,1	9,429
276,5	14,457
277	11,971
277,4	9,229
277,9	10,857
278,4	8,2
278,8	8,657
279,3	9,4
279,8	6,486
280,2	8,114
280,7	9,657
281,1	5,6
281,6	5,457
282,1	2,2
282,5	-0,543
283	0,057
283,4	-2,314
283,9	-1,914
284,4	0,943
284,8	4,086
285,3	5,857
285,8	5,914
286,2	0,771
286,7	0,886
287,1	-0,514
287,6	-7,971
288,1	-12,457
288,5	-14,771
289	-12,829
289,5	-7,771
289,9	-8,857
290,4	-7,486
290,8	-1,657
291,3	1,086
291,8	4,286
292,2	6,686
292,7	8,657
293,1	9
293,6	9,771
294,1	12,686
294,5	11,286
295	9,057
295,5	7,314
295,9	5,457
296,4	6,171
296,8	3,2
297,3	0,857
297,8	-0,8
298,2	-2,714
298,7	0,429
299,1	-0,086
299,6	-1,343
300,1	0,029
300,5	1
301	6,6
301,5	9,657
301,9	3,686
302,4	3,114
302,8	6,629
303,3	1,6
303,8	-3,943
304,2	-10,257
304,7	-10,629
305,1	-11,714
305,6	-10,057
306,1	-7,543
306,5	-2,657
307	4,4
307,4	9,143
307,9	8,086
308,4	10,343
308,8	3,371
309,3	-5,371
309,8	-8,514
310,2	-10,657
310,7	-14,229
311,1	-11,943
311,6	-7,314
312,1	-1,2
312,5	5,4
313	8,771
313,4	6,286
313,9	7,257
314,4	3,857
314,8	-3,629
315,3	-5,943
315,7	-11,343
316,2	-14,857
316,7	-15,686
317,1	-13,257
317,6	-12,971
318	-3,743
318,5	0,2
319	4,457
319,4	7,543
319,9	16,029
320,3	14,457
320,8	12,343
321,3	13,229
321,7	11,286
322,2	10,2
322,6	11,114
323,1	6,086
323,6	5,314
324	10,029
324,5	3,771
324,9	1,486
325,4	0,629
325,9	2,457
326,3	4,6
326,8	6,057
327,2	3,886
327,7	6,886
328,2	7,4
328,6	9,971
329,1	5,8
329,5	3,543
330	2,286
330,5	4,229
330,9	3,029
331,4	2,943
331,8	1,286
332,3	3,057
332,8	6,257
333,2	7,257
333,7	5,657
334,1	9,743
334,6	7,714
335,1	3,229
335,5	2,657
336	-2,771
336,4	-2,6
336,9	3,171
337,4	0,114
337,8	2,314
338,3	8,314
338,7	6,171
339,2	5,543
339,7	6,8
340,1	0,571
340,6	2,257
341	-1,286
341,5	-3,486
342	-2,943
342,4	-1,943
342,9	-4,657
343,3	-4,057
343,8	-8,914
344,2	-3,6
344,7	3,429
345,2	4,886
345,6	7,229
346,1	9,429
346,5	9
347	8,371
347,5	4,2
347,9	0,657
348,4	0,686
348,8	1,457
349,3	2,886
349,8	5,286
350,2	9,886
350,7	9,4
351,1	6,943
351,6	5,4
352	6,914
352,5	8,457
353	14,286
353,4	20,171
353,9	33,657
354,3	40,514
354,8	48,8
355,3	62,343
355,7	71,543
356,2	84,714
356,6	97,657
357,1	114,8
357,5	135,914
358	164,171
358,5	187,943
358,9	218,143
359,4	251,657
359,8	284,343
360,3	327,314
360,8	373,457
361,2	428,4
361,7	486,6
362,1	556,8
362,6	625,943
363	704,029
363,5	783,057
364	873,829
364,4	952,6
364,9	1037,6
365,3	1123,171
365,8	1201,029
366,3	1278,629
366,7	1348,486
367,2	1406,4
367,6	1458,771
368,1	1497,6
368,5	1522
369	1536,257
369,5	1540,429
369,9	1526,486
370,4	1499,686
370,8	1466,171
371,3	1423,657
371,7	1372,171
372,2	1314,543
372,7	1251,057
373,1	1184,971
373,6	1116,743
374	1052,229
374,5	983,029
374,9	911,114
375,4	848,229
375,9	786,257
376,3	724,857
376,8	668,4
377,2	613,2
377,7	563,057
378,2	518,771
378,6	475,343
379,1	434,2
379,5	401,486
380	371,143
380,4	335,943
380,9	308,257
381,4	277,6
381,8	255,257
382,3	237,457
382,7	217,029
383,2	201,371
383,6	188,457
384,1	173,886
384,6	165,914
385	155,286
385,5	140,657
385,9	129,171
386,4	119,943
386,8	114,8
387,3	105,6
387,7	97,914
388,2	91,486
388,7	87,514
389,1	82,457
389,6	75,057
390	65,971
390,5	66,486
390,9	65,371
391,4	58,571
391,9	52,829
392,3	52,686
392,8	43,943
393,2	38,686
393,7	36,429
394,1	32,171
394,6	33,086
395,1	32,6
395,5	29,343
396	32,8
396,4	36,229
396,9	30,971
397,3	32,543
397,8	32,286
398,2	30,857
398,7	32,829
399,2	32,971
399,6	33,971
400,1	31,6
400,5	26
401	19,971
401,4	16,629
401,9	16,486
402,4	19,143
402,8	14,143
403,3	19,886
403,7	18,8
404,2	20,457
404,6	23,771
405,1	20,229
405,5	13,143
406	16,314
406,5	9,2
406,9	16,514
407,4	17,486
407,8	17,4
408,3	23,914
408,7	27,4
409,2	28,771
409,6	37,171
410,1	36,8
410,6	43,571
411	44,571
411,5	42,857
411,9	45,171
412,4	45,914
412,8	46,286
413,3	48,8
413,7	48,4
414,2	52,886
414,7	57,743
415,1	64,343
415,6	68,4
416	70,457
416,5	72,057
416,9	73,371
417,4	75,143
417,8	82,114
418,3	84,686
418,8	88,514
419,2	94,514
419,7	99,486
420,1	102,057
420,6	104,257
421	97,8
421,5	100,314
421,9	99,229
422,4	98,257
422,8	101,571
423,3	104,143
423,8	105,657
424,2	104,514
424,7	103,314
425,1	107
425,6	111,8
426	107,857
426,5	111,743
426,9	117,914
427,4	122,171
427,9	122,029
428,3	126,371
428,8	125,486
429,2	127,4
429,7	127,571
430,1	126,629
430,6	131,057
431	135,429
431,5	139,857
431,9	141,286
432,4	149,257
432,8	156
433,3	162,6
433,8	169,371
434,2	178,057
434,7	186,486
435,1	194,229
435,6	197,714
436	202,6
436,5	212
436,9	219,229
437,4	223,4
437,8	228,914
438,3	237,829
438,8	250,829
439,2	264,029
439,7	272,286
440,1	286,2
440,6	303,886
441	314,371
441,5	329,371
441,9	338,2
442,4	346,229
442,8	360,086
443,3	371
443,7	385,6
444,2	402,657
444,7	417,543
445,1	435
445,6	453,629
446	471,343
446,5	487,086
446,9	502,629
447,4	517,429
447,8	538,657
448,3	559,343
448,7	583,686
449,2	606,057
449,6	631,171
450,1	652,571
450,6	676,571
451	698,457
451,5	727,8
451,9	750,457
452,4	774,914
452,8	798,6
453,3	831,8
453,7	856,429
454,2	885,971
454,6	908,457
455,1	931,971
455,5	959,2
456	991,829
456,4	1010,571
456,9	1045,086
457,3	1075,229
457,8	1098,886
458,3	1134,257
458,7	1163,514
459,2	1194,486
459,6	1226,029
460,1	1258,229
460,5	1285,2
461	1323,914
461,4	1351,457
461,9	1384,486
462,3	1415,314
462,8	1453,771
463,2	1481,6
463,7	1518,229
464,1	1555,629
464,6	1594,857
465	1632
465,5	1664,857
466	1699,714
466,4	1736,971
466,9	1776,686
467,3	1810,314
467,8	1847,343
468,2	1882,086
468,7	1918,771
469,1	1955,771
469,6	1987,4
470	2016,4
470,5	2047,371
470,9	2075,4
471,4	2104,314
471,8	2136,457
472,3	2166,371
472,7	2199,4
473,2	2221,714
473,6	2251,829
474,1	2283,886
474,5	2315,771
475	2350,2
475,4	2372,829
475,9	2401,914
476,4	2438,743
476,8	2468,314
477,3	2498,2
477,7	2521,8
478,2	2537,057
478,6	2562,6
479,1	2582,971
479,5	2603,857
480	2622,6
480,4	2638,886
480,9	2656,829
481,3	2678,714
481,8	2699,6
482,2	2716,743
482,7	2727,486
483,1	2743,629
483,6	2754,571
484	2769,829
484,5	2784,086
484,9	2796,829
485,4	2808,914
485,8	2822,8
486,3	2829,714
486,7	2842,629
487,2	2851,4
487,6	2858,429
488,1	2860,2
488,5	2863,8
489	2868,943
489,4	2877,971
489,9	2876
490,4	2878,086
490,8	2877,971
491,3	2883,486
491,7	2880,543
492,2	2881,543
492,6	2873,943
493,1	2867,657
493,5	2862,314
494	2852,229
494,4	2840,371
494,9	2838,143
495,3	2834,343
495,8	2823,371
496,2	2819,686
496,7	2803,057
497,1	2801,8
497,6	2793,857
498	2783,771
498,5	2766,286
498,9	2758,314
499,4	2739,943
499,8	2736,057
500,3	2719,6
500,7	2703,514
501,2	2680,943
501,6	2662,457
502,1	2646,229
502,5	2635,514
503	2613,771
503,4	2590,886
503,9	2572,971
504,3	2564,086
504,8	2544,886
505,2	2523,514
505,7	2505,371
506,1	2494,543
506,6	2476,829
507	2458
507,5	2434,514
507,9	2416,771
508,4	2398,114
508,8	2378,829
509,3	2353,4
509,7	2337,457
510,2	2317,886
510,6	2293
511,1	2274,514
511,5	2256,343
512	2231,743
512,4	2210,943
512,9	2183,686
513,3	2159,657
513,8	2139,4
514,2	2118,886
514,7	2096,114
515,1	2079,371
515,6	2057,314
516	2034,029
516,5	2014,829
516,9	1996,343
517,4	1976,486
517,8	1955,886
518,3	1931,829
518,7	1909,4
519,2	1890,343
519,6	1869,114
520,1	1848,829
520,5	1828,086
521	1801,343
521,4	1784,486
521,9	1766,143
522,3	1746,086
522,8	1724,286
523,2	1702,657
523,7	1681,629
524,1	1668,657
524,6	1646,371
525	1623,971
525,5	1606,429
525,9	1588,314
526,4	1566,829
526,8	1544,514
527,3	1520,086
527,7	1502,029
528,2	1491,029
528,6	1468,914
529,1	1453,543
529,5	1443,914
530	1429,2
530,4	1417,4
530,9	1400,371
531,3	1378,086
531,8	1366,057
532,2	1349,429
532,6	1330,4
533,1	1309,171
533,5	1293,943
534	1272,4
534,4	1253,971
534,9	1240,143
535,3	1227,314
535,8	1210
536,2	1201,429
536,7	1185,086
537,1	1178,4
537,6	1167,343
538	1155,971
538,5	1146,343
538,9	1131,429
539,4	1119,057
539,8	1108,657
540,3	1096,886
540,7	1085,714
541,2	1069,057
541,6	1051,771
542,1	1043,114
542,5	1031,514
543	1015,657
543,4	999,057
543,9	991,029
544,3	981,343
544,8	966,057
545,2	956,2
545,7	947,486
546,1	941,171
546,5	937,314
547	923,486
547,4	915,229
547,9	908,4
548,3	897,971
548,8	887,629
549,2	871,2
549,7	857,114
550,1	853,829
550,6	841,429
551	834,457
551,5	824,657
551,9	813
552,4	815,057
552,8	807,914
553,3	793,229
553,7	782,257
554,2	773,257
554,6	769,486
555,1	761,314
555,5	745,429
555,9	739,286
556,4	731,971
556,8	728,714
557,3	722,543
557,7	716
558,2	711,2
558,6	712,457
559,1	703,257
559,5	697,714
560	688,771
560,4	681,629
560,9	671,114
561,3	663,143
561,8	654,257
562,2	650,743
562,7	646,457
563,1	641,571
563,6	635,6
564	633,486
564,4	626,8
564,9	618,086
565,3	613,543
565,8	606,171
566,2	603,657
566,7	602,429
567,1	599,971
567,6	598,657
568	596,886
568,5	589,086
568,9	584,743
569,4	583,629
569,8	580,514
570,3	570,943
570,7	559,743
571,1	555,257
571,6	556,971
572	553,514
572,5	549,229
572,9	539,4
573,4	534,629
573,8	536,457
574,3	528,657
574,7	517,629
575,2	510,257
575,6	502,971
576,1	503,171
576,5	507,057
576,9	498,743
577,4	496,371
577,8	495,4
578,3	491,629
578,7	489,514
579,2	484,686
579,6	474,143
580,1	471,314
580,5	471,143
581	466,543
581,4	467,514
581,9	461,714
582,3	456,171
582,7	455,6
583,2	457,286
583,6	454,371
584,1	453,971
584,5	448,343
585	445,171
585,4	437,229
585,9	429,571
586,3	427,257
586,8	424,171
587,2	419,714
587,6	422,429
588,1	422,171
588,5	424,286
589	427,314
589,4	422,171
589,9	414,914
590,3	409,657
590,8	405,314
591,2	403,314
591,7	405
592,1	402,314
592,5	402,771
593	399,4
593,4	398,371
593,9	392,857
594,3	390,714
594,8	380,257
595,2	374,114
595,7	366,4
596,1	368,8
596,6	368,629
597	367,743
597,4	364,229
597,9	365,171
598,3	366,514
598,8	363,629
599,2	358,914
599,7	356,943
600,1	349,686
600,6	344,657
601	344,8
601,4	346,571
601,9	351,057
602,3	348,457
602,8	346,886
603,2	350,543
603,7	349,057
604,1	345,343
604,6	342,057
605	334,771
605,4	338,943
605,9	333,886
606,3	326,686
606,8	322,943
607,2	321,171
607,7	310,429
608,1	307,914
608,6	305,629
609	310,886
609,4	316,886
609,9	319,629
610,3	315,571
610,8	319,886
611,2	319,343
611,7	315
612,1	311
612,6	308,514
613	307,714
613,4	307,829
613,9	304,743
614,3	301,657
614,8	302,857
615,2	293,343
615,7	290,886
616,1	288,857
616,6	281,486
617	275,829
617,4	275,914
617,9	272,343
618,3	272,886
618,8	273,429
619,2	270,686
619,7	276,4
620,1	276,571
620,5	279,886
621	279,286
621,4	281,743
621,9	278,257
622,3	276,257
622,8	269,143
623,2	269,971
623,6	264,657
624,1	262,229
624,5	259,514
625	262,886
625,4	261,2
625,9	263,514
626,3	259,886
626,8	259,4
627,2	261,229
627,6	256,543
628,1	247,857
628,5	247,514
629	246,314
629,4	245,543
629,9	243,829
630,3	235,171
630,7	233,857
631,2	234,229
631,6	234,086
632,1	234,429
632,5	233,371
633	231,543
633,4	232,971
633,8	235,514
634,3	230,514
634,7	226,343
635,2	219,714
635,6	219,914
636,1	222,743
636,5	214,857
636,9	207,086
637,4	210,086
637,8	202,943
638,3	201,571
638,7	197,114
639,2	191,029
639,6	196,371
640	196,143
640,5	193,743
640,9	194,571
641,4	197,257
641,8	196,371
642,2	196
642,7	202,829
643,1	206,086
643,6	203,571
644	206,171
644,5	205,8
644,9	205,714
645,3	204,943
645,8	196,029
646,2	195,143
646,7	197,829
647,1	194,171
647,6	194,057
648	195,286
648,4	192,114
648,9	194,429
649,3	189,943
649,8	186,4
650,2	186,686
650,6	184,286
651,1	178,629
651,5	180,543
652	177
652,4	178,857
652,9	178,143
653,3	176,943
653,7	174,857
654,2	176,429
654,6	171,143
655,1	172,886
655,5	174,314
655,9	171,686
656,4	170,971
656,8	169,086
657,3	170,571
657,7	176,2
658,2	169,657
658,6	166,429
659	168,143
659,5	165,829
659,9	163,657
660,4	160,771
660,8	153,257
661,2	152,029
661,7	152,343
662,1	148,314
662,6	149,6
663	152,714
663,4	152,057
663,9	152,029
664,3	152,457
664,8	147,171
665,2	145,857
665,6	144,457
666,1	139,029
666,5	137,486
667	135,686
667,4	134,4
667,9	136,914
668,3	137,086
668,7	135,914
669,2	139,657
669,6	142,143
670,1	144,029
670,5	142,943
670,9	143,371
671,4	142,457
671,8	143,943
672,3	142,171
672,7	137,171
673,1	137,543
673,6	135,171
674	136,543
674,5	133,171
674,9	126,2
675,3	123,371
675,8	126,571
676,2	120,543
676,7	118,857
677,1	111,971
677,5	116,114
678	121,314
678,4	124,086
678,9	117,457
679,3	118,8
679,7	118,114
680,2	113,257
680,6	107,6
681,1	106,629
681,5	103,914
681,9	107,829
682,4	111,543
682,8	117,714
683,3	126,2
683,7	130,029
684,1	129,429
684,6	132,714
685	131,657
685,5	126,686
685,9	117,171
686,3	107,771
686,8	103,857
687,2	100,371
687,7	94,343
688,1	90,171
688,5	91,514
689	95,057
689,4	98,771
689,9	97,571
690,3	97,286
690,7	101,343
691,2	106,829
691,6	103,971
692	107,629
692,5	108,371
692,9	108,4
693,4	106,486
693,8	103,743
694,2	97,4
694,7	94,371
695,1	89,486
695,6	88,4
696	89,429
696,4	88,714
696,9	83,514
697,3	83,857
697,8	89,229
698,2	86,714
698,6	85,6
699,1	85,514
699,5	89,971
699,9	88,886
700,4	85,257
700,8	82,886
701,3	83,314
701,7	83,571
702,1	79,771
702,6	72,029
703	78,429
703,5	77,286
703,9	74,829
704,3	73,6
704,8	71,371
705,2	69,629
705,6	71,171
706,1	68,943
706,5	71,543
707	75,343
707,4	78,486
707,8	77,914
708,3	79
708,7	76,657
709,2	76,171
709,6	77,629
710	78,543
710,5	71,514
710,9	71,343
711,3	70,914
711,8	75,457
712,2	72,686
712,7	65,829
713,1	65,029
713,5	69,171
714	72,8
714,4	70,086
714,8	68,286
715,3	65
715,7	70,771
716,2	62,571
716,6	65,629
717	60,286
717,5	62,857
717,9	65,914
718,3	65,257
718,8	63,686
719,2	68,286
719,7	65,771
720,1	68,114
720,5	74,686
721	68,771
721,4	71,743
721,8	75,057
722,3	73,2
722,7	75,914
723,2	72,714
723,6	63,629
724	65,143
724,5	63,286
724,9	57,943
725,3	55,657
725,8	52,8
726,2	56,371
726,7	59,714
727,1	59,086
727,5	57,486
728	59,086
728,4	62,629
728,8	62,2
729,3	55,971
729,7	54,229
730,1	52,571
730,6	55,514
731	52,543
731,5	49,743
731,9	45,143
732,3	45,429
732,8	47,971
733,2	50,171
733,6	46,971
734,1	47,371
734,5	44,657
734,9	47,686
735,4	50,771
735,8	43,486
736,3	45,771
736,7	47,486
737,1	49,486
737,6	52,171
738	49,257
738,4	44,8
738,9	47,914
739,3	47,143
739,7	46,486
740,2	46,314
740,6	50,171
741,1	56,029
741,5	52,6
741,9	50,829
742,4	49,743
742,8	48,8
743,2	47,286
743,7	41,457
744,1	38,514
744,5	41,8
745	40,6
745,4	37
745,8	38,943
746,3	38,629
746,7	37,714
747,2	34,343
747,6	39,086
748	45,057
748,5	47,743
748,9	41,057
749,3	41,343
749,8	45,543
750,2	48,4
750,6	43,629
751,1	44
751,5	42,514
751,9	48,4
752,4	50,286
752,8	47,029
753,3	43,6
753,7	46,2
754,1	40,714
754,6	37,057
755	34,829
755,4	32,143
755,9	31,971
756,3	29,686
756,7	32,114
757,2	32,714
757,6	37,286
758	37,343
758,5	34,314
758,9	33,857
759,3	38,057
759,8	34,943
760,2	34,8
760,6	33,829
761,1	33,657
761,5	35,943
761,9	34,8
762,4	30,657
762,8	31,114
763,3	32,029
763,7	34,486
764,1	33,457
764,6	33,829
765	37,8
765,4	41,886
765,9	43,543
766,3	43,943
766,7	38,057
767,2	38,229
767,6	40,714
768	37,686
768,5	33,2
768,9	30,514
769,3	29,171
769,8	30,943
770,2	34,429
770,6	29,743
771,1	32,571
771,5	35,886
771,9	37,286
772,4	37,857
772,8	35,029
773,2	30,057
773,7	30,457
774,1	25,457
774,5	18,971
775	16,029
775,4	15,829
775,8	19,943
776,3	24,714
776,7	29,686
777,1	30,914
777,6	38,657
778	41,486
778,4	39,114
778,9	36,057
779,3	34,057
779,7	29,629
780,2	34,314
780,6	31,943
781	30,514
781,5	29,571
781,9	28,686
782,3	25,771
782,8	26,4
783,2	19,143
783,6	18,4
784,1	16,571
784,5	18,4
784,9	20,943
785,4	26,457
785,8	27,029
786,2	31,743
786,7	32,343
787,1	31,257
787,5	32,657
788	34,543
788,4	28,886
788,8	26,714
789,3	22,8
789,7	22,914
790,1	24,8
790,6	23,229
791	17,714
791,4	19,2
791,9	17,4
792,3	18,4
792,7	19,971
793,2	16,6
793,6	17,914
794	20,257
794,5	18,8
794,9	22,229
795,3	23,514
795,8	22,657
796,2	25,686
796,6	24,114
797,1	22,114
797,5	23,171
797,9	20,029
798,4	13,943
798,8	10,771
799,2	10,2
799,7	10,457
800,1	12,6
800,5	15,171
801	19,6
801,4	20,771
801,8	22,114
802,2	21,286
802,7	21,686
803,1	19,314
803,5	18,229
804	11,743
804,4	15,571
804,8	17,829
805,3	23
805,7	23,371
806,1	24,857
806,6	23,2
807	26,171
807,4	25,429
807,9	21,2
808,3	17,657
808,7	15,886
809,2	17,2
809,6	18,743
810	18,171
810,4	17,629
810,9	21,8
811,3	22,514
811,7	23,714
812,2	27,229
812,6	26,743
813	29,8
813,5	31,343
813,9	29,4
814,3	27,686
814,8	23,029
815,2	18,486
815,6	17,686
816,1	20,543
816,5	19,771
816,9	18,857
817,3	19,057
817,8	28,429
818,2	24,657
818,6	20,857
819,1	16,486
819,5	15,429
819,9	16,257
820,4	16,829
820,8	11,229
821,2	12,514
821,7	18,086
822,1	19,543
822,5	22,629
822,9	25
823,4	24,314
823,8	28,514
824,2	33,029
824,7	24,457
825,1	20,829
825,5	16,629
826	6,343
826,4	6,657
826,8	-0,486
827,3	-1,286
827,7	1,543
828,1	4,029
828,5	5,6
829	10,314
829,4	10,657
829,8	12,429
830,3	11,429
830,7	13,171
831,1	7,8
831,6	7,914
832	9,571
832,4	8,343
832,8	10,114
833,3	9,257
833,7	7,657
834,1	9,429
834,6	4,943
835	6,2
835,4	7,429
835,8	2,171
836,3	1,343
836,7	2,514
837,1	6,371
837,6	9,514
838	8,686
838,4	6,429
838,9	7,714
839,3	6,486
839,7	12,4
840,1	7,543
840,6	5,771
841	4,457
841,4	5,657
841,9	7,514
842,3	9,343
842,7	4,714
843,1	6,629
843,6	11,086
844	10,429
844,4	10,571
844,9	8,943
845,3	8,057
845,7	10,029
846,2	5,6
846,6	5,686
847	8,886
847,4	9,943
847,9	13,543
848,3	12,943
848,7	16,429
849,2	23,086
849,6	19,914
850	21,514
850,4	19,486
850,9	21,457
851,3	23,457
851,7	18,571
852,2	16,8
852,6	14,943
853	14,686
853,4	14,629
853,9	8,057
854,3	11,029
854,7	12,914
855,2	11,743
855,6	14,371
856	7,371
856,4	2,714
856,9	3,886
857,3	-0,886
857,7	0,029
858,2	3,8
858,6	3,371
859	8,229
859,4	13,143
859,9	13,686
860,3	11,2
860,7	8,857
861,1	6,686
861,6	5,086
862	2,829
862,4	0,686
862,9	-0,629
863,3	1,086
863,7	-1,657
864,1	0,4
864,6	1,543
865	4,743
865,4	8,857
865,9	17,257
866,3	16,114
866,7	15,8
867,1	10,629
867,6	11,943
868	7,314
868,4	5,143
868,8	0,486
869,3	-1,143
869,7	4,657
870,1	5,286
870,6	2,514
871	-39,829
871,4	-37,171
871,8	-39,971
872,3	-34,657
872,7	-36,743
873,1	-34,457
873,5	-29,943
874	13,171
874,4	9,029
874,8	7,229
875,3	11,314
875,7	6,571
876,1	6,086
876,5	5,457
877	5,857
877,4	4,114
877,8	10,086
878,2	5,6
878,7	11,657
879,1	11,686
879,5	11,4
879,9	16,6
880,4	17,2
880,8	9,629
881,2	9,686
881,7	5,429
882,1	10,657
882,5	9,314
882,9	4,8
883,4	6,4
883,8	14,914
884,2	12,429
884,6	11,914
885,1	7,086
885,5	7,4
885,9	7,714
886,3	9,943
886,8	2,543
887,2	4,029
887,6	4,371
888	3,2
888,5	3,2
888,9	1,857
889,3	-4,571
889,8	-3,571
890,2	-5,657
890,6	-6,943
891	-5,829
891,5	-7,743
891,9	-4,314
892,3	0,4
892,7	3,057
893,2	4,886
893,6	5,914
894	7,8
894,4	4,6
894,9	2,371
895,3	1,543
895,7	1,829
896,1	0,4
896,6	1,314
897	-1,343
897,4	6,857
897,8	10,743
898,3	14,314
898,7	11,429
899,1	13,057
899,5	11,229
900	9,371
900,4	7,514
900,8	3,229
901,2	-1,457
901,7	-2,829
902,1	-3,829
902,5	-1,229
902,9	-3,771
903,4	-6,086
903,8	-5,543
904,2	-4,029
904,6	-0,086
905,1	5,343
905,5	2,086
905,9	5,143
906,3	7,4
906,8	10,943
907,2	11,343
907,6	9,629
908	4,914
908,5	6,2
908,9	6,457
909,3	2,714
909,7	2,543
910,2	2,8
910,6	7,4
911	3,229
911,4	6,229
911,9	3,6
912,3	5,257
912,7	5,171
913,1	4,286
913,6	-1,943
914	2,486
914,4	0,629
914,8	5,886
915,3	6,714
915,7	2,8
916,1	2,029
916,5	5,543
916,9	7,657
917,4	6,743
917,8	4,086
918,2	0,6
918,6	-1,657
919,1	-0,543
919,5	-0,286
919,9	-4,486
920,3	-4,971
920,8	-5,257
921,2	-2,8
921,6	-0,6
922	1,143
922,5	-0,771
922,9	1,429
923,3	2,971
923,7	7,143
924,2	6,086
924,6	7,543
925	7,914
925,4	10,314
925,8	6,314
926,3	2,057
926,7	-5,171
927,1	-3,229
927,5	-3,286
928	-8
928,4	-10,743
928,8	-3,057
929,2	-2,371
929,7	0,257
930,1	-1,829
930,5	-2,086
930,9	4,514
931,3	5,343
931,8	1,457
932,2	5,857
932,6	8,371
933	5,943
933,5	4,114
933,9	3,086
934,3	3,4
934,7	2,8
935,2	3,686
935,6	1,314
936	7,171
936,4	7,857
936,8	5,057
937,3	4,971
937,7	7,229
938,1	4,943
938,5	2,514
939	-2,029
939,4	1,771
939,8	-0,943
940,2	-3,714
940,6	-4,6
941,1	-5,571
941,5	-1,171
941,9	-5,057
942,3	-9,257
942,8	-7,257
943,2	-2,143
943,6	-4,314
944	-1,486
944,4	-1,629
944,9	1,6
945,3	3,343
945,7	0,657
946,1	-1,657
946,6	-1,514
947	-2,629
947,4	-2,4
947,8	0,971
948,2	-3,429
948,7	-1,914
949,1	-2,686
949,5	4,543
949,9	5,714
950,3	4,914
950,8	5
951,2	6,057
951,6	5,143
952	7,857
952,5	-1,743
952,9	-2,514
953,3	-1,943
953,7	-5,857
954,1	-3,057
954,6	-0,343
955	-2,886
955,4	-3,714
955,8	-2,629
956,2	-3,057
956,7	-3,886
957,1	-7,086
957,5	-3,114
957,9	-5,171
958,3	-0,486
958,8	-0,886
959,2	-2,257
959,6	6,629
960	7,457
960,5	3,829
960,9	9,943
961,3	4,486
961,7	0,914
962,1	0,171
962,6	-4,229
963	-4,057
963,4	-7,829
963,8	-9,571
964,2	-3,686
964,7	-3,086
965,1	2,229
965,5	-0,086
965,9	2,029
966,3	8,286
966,8	6,543
967,2	2,714
967,6	4,686
968	-2,314
968,4	0,343
968,9	2,029
969,3	3,257
969,7	2,457
970,1	6,943
970,5	8,857
971	17,914
971,4	17,457
971,8	17,343
972,2	16,343
972,6	17,343
973,1	15,257
973,5	12,057
973,9	12,343
974,3	11,829
974,7	15,971
975,2	16,686
975,6	16,029
976	16,257
976,4	15,743
976,8	12,886
977,3	9,914
977,7	4,914
978,1	3,057
978,5	0,829
978,9	1,6
979,4	-0,629
979,8	-4,171
980,2	2,057
980,6	-0,743
981	1,543
981,5	3,2
981,9	2,429
982,3	5,343
982,7	5,029
983,1	-1,371
983,6	0,857
984	-0,029
984,4	-0,914
984,8	-1,457
985,2	-1,8
985,6	-1
986,1	2,829
986,5	5,229
986,9	0,429
987,3	4,943
987,7	6,314
988,2	5,371
988,6	8,114
989	10,429
989,4	7
989,8	8,686
990,3	3,714
990,7	4,571
991,1	5,4
991,5	3,543
991,9	-0,343
992,3	-0,229
992,8	0,2
993,2	-0,657
993,6	0,886
994	2,086
994,4	0,514
994,9	2,143
995,3	3,2
995,7	-0,771
996,1	-0,6
996,5	-7,086
996,9	-12,971
997,4	-13,829
997,8	-16,286
998,2	-20,771
998,6	-19,886
999	-18,057
999,5	-14,971
999,9	-12,143
1000,3	-12
1000,7	-9,2
1001,1	-6,4
1001,5	-4,571
1002	-1,429
1002,4	-2,086
1002,8	1,6
1003,2	5,714
1003,6	6,543
1004	10,057
1004,5	8,4
1004,9	8,257
1005,3	6,486
1005,7	9
1006,1	5,571
1006,6	1,057
1007	0,429
1007,4	-0,971
1007,8	-3,771
1008,2	-0,886
1008,6	-3,4
1009,1	-1,914
1009,5	1,943
1009,9	1,171
1010,3	1,457
1010,7	0,714
1011,1	-2,714
1011,6	-7,714
1012	-5,314
1012,4	-7,543
1012,8	-9,371
1013,2	-3,486
1013,6	0,057
1014,1	0,629
1014,5	4,457
1014,9	0,086
1015,3	-0,4
1015,7	1,343
1016,1	-1,857
1016,6	-2,686
1017	3,657
1017,4	4,029
1017,8	3,257
1018,2	5,914
1018,6	-0,4
1019,1	-0,943
1019,5	-3,6
1019,9	-9,771
1020,3	-7,8
1020,7	-4,086
1021,1	-4,657
1021,6	-1,514
1022	3,714
1022,4	6,8
1022,8	10,086
1023,2	8,257
1023,6	7,429
1024,1	13,2
1024,5	15,114
1024,9	10,057
1025,3	10,486
1025,7	4
1026,1	4,286
1026,6	7,743
1027	1,2
1027,4	6,286
1027,8	4,943
1028,2	0,429
1028,6	12,114
1029	9,629
1029,5	11,457
1029,9	10,8
1030,3	3,971
1030,7	8,829
1031,1	15,171
1031,5	6,114
1032	8,057
1032,4	3,457
1032,8	7,229
1033,2	12,2
1033,6	9,286
1034	6,4
1034,4	6,229
1034,9	8,2
1035,3	2,714
1035,7	-0,943
1036,1	-4,8
1036,5	-5,457
1036,9	-4,229
1037,4	0,229
1037,8	-5
1038,2	4,057
1038,6	2,914
1039	9,486
1039,4	16
1039,8	9,486
1040,3	7,314
1040,7	5,486
1041,1	2,4
1041,5	10,514
1041,9	0,8
1042,3	-3,457
1042,7	0
1043,2	0,857
1043,6	4,657
1044	2,314
1044,4	-2,857
1044,8	-1,371
1045,2	-3,571
1045,6	-6,457
1046,1	-8,6
1046,5	-7,629
1046,9	-11,371
1047,3	-14,971
1047,7	-14,714
1048,1	-18,571
1048,5	-16,229
1049	-9,371
1049,4	-4,143
1049,8	-4,029
1050,2	-1,657
1050,6	-1,429
1051	4,371
1051,4	6,686
1051,9	-1,886
1052,3	-3,029
1052,7	-1,314
1053,1	-4,657
1053,5	-1,486
1053,9	0,571
1054,3	0,4
1054,8	5,743
1055,2	4,057
1055,6	10,114
1056	11,971
1056,4	8,257
1056,8	5,229
1057,2	5,029
1057,6	-1,029
1058,1	-1,314
1058,5	-7,371
1058,9	-6,771
1059,3	-2,229
1059,7	-2,714
1060,1	-2,543
1060,5	4
1061	1,771
1061,4	2,657
1061,8	9,829
1062,2	7,086
1062,6	9,371
1063	10,543
1063,4	7,286
1063,8	5,743
1064,3	5,971
1064,7	0,657
1065,1	1,771
1065,5	-2,943
1065,9	-5,2
1066,3	-8,2
1066,7	-7,629
1067,1	-7,857
1067,6	-5,457
1068	-11,371
1068,4	-7,286
1068,8	-3,971
1069,2	1,286
1069,6	2,514
1070	6,114
1070,4	2,714
1070,9	3,629
1071,3	0,771
1071,7	-2,686
1072,1	-3,771
1072,5	-6,771
1072,9	-10,314
1073,3	-8,829
1073,7	-7,629
1074,2	-5,886
1074,6	-2,714
1075	-3,857
1075,4	0,429
1075,8	0,114
1076,2	0,514
1076,6	4,114
1077	1,629
1077,5	1,486
1077,9	3,714
1078,3	3,114
1078,7	4,2
1079,1	1,057
1079,5	-2,143
1079,9	2,4
1080,3	0,143
1080,7	-1,743
1081,2	-0,8
1081,6	-2,343
1082	-2,657
1082,4	2,086
1082,8	-1,057
1083,2	-0,2
1083,6	2,943
1084	0,286
1084,5	3,771
1084,9	2,771
1085,3	-4,657
1085,7	-2,886
1086,1	-5,486
1086,5	-6,886
1086,9	-4,686
1087,3	-5
1087,7	-2,971
1088,2	1,571
1088,6	0,4
1089	3,2
1089,4	2,543
1089,8	6,514
1090,2	7,571
1090,6	7,886
1091	9,114
1091,4	12,057
1091,9	10,486
1092,3	10,857
1092,7	6,286
1093,1	5,171
1093,5	7,029
1093,9	8,657
1094,3	8,657
1094,7	6,914
1095,1	9
1095,5	10,314
1096	5,943
1096,4	5,6
1096,8	2,686
1097,2	0,286
1097,6	8,057
1098	5,657
1098,4	8,343
1098,8	11,714
1099,2	16,686
1099,6	17,629
1100,1	16,314
1100,5	8,714
1100,9	7,029
1101,3	2,257
1101,7	1,057
1102,1	-5,286
1102,5	-3,314
1102,9	-0,486
1103,3	5,714
1103,7	7,257
1104,2	4,657
1104,6	5,743
1105	3,457
1105,4	2,429
1105,8	0,286
1106,2	-4,029
1106,6	-4,286
1107	-1,657
1107,4	-1,833
1107,8	1,36
1108,3	-0,2
