Data from Subt2_021.txt Node
Date: Sat Aug 26 16:16:59 MSK 2023
User: vat
Spectrometer: MAYP114033
Trigger mode: 0
Integration Time (sec): 1,000000E0
Scans to average: 5
Electric dark correction enabled: true
Nonlinearity correction enabled: false
Boxcar width: 3
XAxis mode: Wavelengths
Number of Pixels in Spectrum: 2068
>>>>>Begin Spectral Data<<<<<
199,4	-0,6
199,9	1,2
200,4	0,767
200,8	2,743
201,3	1,943
201,8	-2,486
202,2	0,086
202,7	1,2
203,2	0,143
203,6	2,857
204,1	3,029
204,6	3,771
205	8,486
205,5	6,686
206	6,714
206,4	4,514
206,9	4,657
207,4	2,086
207,8	5,629
208,3	3,971
208,8	5,229
209,2	5,286
209,7	8,286
210,2	5,686
210,6	6,4
211,1	5,657
211,5	3,8
212	2,286
212,5	0,314
212,9	1,314
213,4	1,457
213,9	-0,829
214,3	-5,943
214,8	-1,6
215,3	0,6
215,7	1,771
216,2	-0,857
216,7	-0,4
217,1	-1,114
217,6	0,686
218,1	0,057
218,5	-5,029
219	-5,457
219,5	-3,143
219,9	-6,343
220,4	-0,171
220,9	-2,029
221,3	-2,314
221,8	-0,457
222,3	-0,629
222,7	-0,571
223,2	2,029
223,6	0,943
224,1	3,429
224,6	1,057
225	8,257
225,5	9,171
226	8,114
226,4	8,914
226,9	11,657
227,4	15,6
227,8	18,857
228,3	13,771
228,8	16,857
229,2	21,543
229,7	18,343
230,2	16,143
230,6	12,057
231,1	16,457
231,5	17,829
232	12,114
232,5	8,229
232,9	10,657
233,4	9,143
233,9	8,943
234,3	1,657
234,8	-0,714
235,3	3,857
235,7	1,943
236,2	0,571
236,7	-2,943
237,1	-0,657
237,6	-0,771
238,1	-1,457
238,5	-3,543
239	1,2
239,4	5,714
239,9	3,257
240,4	4,657
240,8	9,286
241,3	9,743
241,8	11,314
242,2	8,886
242,7	9,171
243,2	10,829
243,6	9,914
244,1	5,571
244,6	5,143
245	-1,4
245,5	-3,743
245,9	-2,514
246,4	4,943
246,9	3,543
247,3	5,686
247,8	4,771
248,3	3,371
248,7	7,514
249,2	1,171
249,7	-2,343
250,1	-2,914
250,6	-6,057
251	-7,657
251,5	0,971
252	2,2
252,4	5,257
252,9	3,514
253,4	2,086
253,8	5,286
254,3	9,171
254,8	6,486
255,2	2,457
255,7	-1,143
256,1	-1,943
256,6	-5,343
257,1	-6,771
257,5	-9,829
258	-9,971
258,5	-12,171
258,9	-8,514
259,4	-9,286
259,9	-7,343
260,3	-6,257
260,8	-2,086
261,2	-1,514
261,7	-1,171
262,2	-0,057
262,6	0,486
263,1	1,743
263,6	3,971
264	0,971
264,5	2,971
264,9	6,286
265,4	3,8
265,9	4,286
266,3	4,029
266,8	0,886
267,3	2,686
267,7	-2,657
268,2	-3,143
268,7	-3,2
269,1	-4,8
269,6	-5,114
270	-3,857
270,5	-4,6
271	-2,114
271,4	-4,914
271,9	-3,971
272,4	-2,057
272,8	0,314
273,3	-0,543
273,7	3,343
274,2	-0,486
274,7	2,257
275,1	5,286
275,6	6,314
276,1	7,229
276,5	9,343
277	2,943
277,4	3,486
277,9	-0,686
278,4	1,514
278,8	-0,371
279,3	0,229
279,8	-2,229
280,2	-0,143
280,7	1,457
281,1	2,543
281,6	-6,114
282,1	-4,457
282,5	-8,429
283	-2,686
283,4	-9,686
283,9	-7,714
284,4	-7,743
284,8	-5,629
285,3	-6,371
285,8	-5,857
286,2	-11,143
286,7	-4,6
287,1	-3,286
287,6	-4,029
288,1	-3,886
288,5	-3
289	-1,714
289,5	0,543
289,9	0,6
290,4	-2,743
290,8	-0,314
291,3	3,943
291,8	1,886
292,2	3,429
292,7	1,371
293,1	2,829
293,6	8,857
294,1	8,743
294,5	5
295	8,829
295,5	7,343
295,9	8,914
296,4	6
296,8	4,086
297,3	2,8
297,8	0,057
298,2	-0,057
298,7	1,286
299,1	-2,257
299,6	2,829
300,1	4,343
300,5	8,543
301	15,8
301,5	11,514
301,9	11,286
302,4	9,171
302,8	9,543
303,3	4,8
303,8	-3,143
304,2	-7,8
304,7	-4,886
305,1	-8,486
305,6	-4,229
306,1	-7,857
306,5	-9,171
307	-1,086
307,4	0,571
307,9	3,229
308,4	5,971
308,8	6,829
309,3	5,971
309,8	10,857
310,2	6,8
310,7	2,971
311,1	0,2
311,6	4,8
312,1	4,6
312,5	6,343
313	5,629
313,4	8,6
313,9	6,829
314,4	9,4
314,8	7,571
315,3	6,971
315,7	9,686
316,2	10,4
316,7	6,714
317,1	12,771
317,6	11,029
318	6,314
318,5	9,029
319	5,143
319,4	-0,143
319,9	-0,6
320,3	-0,914
320,8	-3
321,3	-2,057
321,7	-3,743
322,2	-10,2
322,6	-6,686
323,1	-6,314
323,6	-7,8
324	-2,886
324,5	1,886
324,9	-2,686
325,4	5,886
325,9	4,257
326,3	4,257
326,8	3,143
327,2	0,8
327,7	-0,629
328,2	1,057
328,6	0,514
329,1	-2,257
329,5	1,543
330	-1,543
330,5	-0,657
330,9	-1,829
331,4	-2,971
331,8	-1,857
332,3	2,629
332,8	4,714
333,2	8,371
333,7	9,829
334,1	9,057
334,6	15,886
335,1	13
335,5	13,971
336	9,057
336,4	8,657
336,9	1,543
337,4	3,686
337,8	0,943
338,3	2,629
338,7	1
339,2	0,971
339,7	-2,486
340,1	2,629
340,6	-1,2
341	-1,657
341,5	-1
342	1,743
342,4	7,029
342,9	17,029
343,3	14,6
343,8	16,943
344,2	16,4
344,7	15,886
345,2	17,4
345,6	15,086
346,1	9,971
346,5	13,171
347	15,171
347,5	18,629
347,9	23,943
348,4	21,229
348,8	20,571
349,3	24,143
349,8	24,743
350,2	27,429
350,7	32,114
351,1	30,914
351,6	37,971
352	47,2
352,5	56,829
353	64,2
353,4	69,857
353,9	79,114
354,3	103
354,8	120,714
355,3	141
355,7	158,857
356,2	195,429
356,6	235,686
357,1	279,971
357,5	318,4
358	370,771
358,5	437,686
358,9	515,057
359,4	593,571
359,8	682,543
360,3	783,229
360,8	898,571
361,2	1026,429
361,7	1168,257
362,1	1326,571
362,6	1490,4
363	1680,486
363,5	1876,857
364	2080,057
364,4	2290,771
364,9	2496,314
365,3	2704,029
365,8	2911,886
366,3	3092,857
366,7	3260,971
367,2	3412,857
367,6	3538,029
368,1	3632,571
368,5	3697,171
369	3727,657
369,5	3727,857
369,9	3696,571
370,4	3636,771
370,8	3550,8
371,3	3443,714
371,7	3315,514
372,2	3174,6
372,7	3028,943
373,1	2872,457
373,6	2708,829
374	2544,771
374,5	2379,914
374,9	2213,743
375,4	2062,114
375,9	1908,029
376,3	1759,629
376,8	1623,257
377,2	1490,429
377,7	1370,543
378,2	1261,943
378,6	1150,114
379,1	1049,714
379,5	965,2
380	884,457
380,4	811,686
380,9	743,571
381,4	679,771
381,8	627,057
382,3	578,114
382,7	537,029
383,2	496,714
383,6	460,086
384,1	429,4
384,6	399,343
385	368,4
385,5	345,971
385,9	318,971
386,4	295,571
386,8	278,257
387,3	257,743
387,7	245,457
388,2	230,914
388,7	215,571
389,1	199,429
389,6	187,457
390	171,457
390,5	161,229
390,9	143,086
391,4	133,829
391,9	124,171
392,3	118,629
392,8	110,829
393,2	103,514
393,7	97,086
394,1	93
394,6	86,086
395,1	81,371
395,5	74,514
396	67,143
396,4	65,371
396,9	57,743
397,3	56,571
397,8	52,143
398,2	49,029
398,7	44,629
399,2	44,457
399,6	41,314
400,1	42,029
400,5	40,371
401	38,343
401,4	33
401,9	32,371
402,4	33,114
402,8	32,171
403,3	33,8
403,7	34
404,2	41,4
404,6	43,743
405,1	42,171
405,5	43,8
406	43,229
406,5	42,829
406,9	45,429
407,4	36,914
407,8	39,286
408,3	42,257
408,7	40,743
409,2	45,343
409,6	48,743
410,1	52,086
410,6	60,143
411	64,571
411,5	71,686
411,9	76,657
412,4	84,543
412,8	88,686
413,3	89
413,7	95,086
414,2	101,171
414,7	103,143
415,1	104,114
415,6	107,286
416	111,057
416,5	118,771
416,9	122,343
417,4	122,286
417,8	128,629
418,3	143,086
418,8	150,514
419,2	157,143
419,7	162,286
420,1	167,829
420,6	183,743
421	185,257
421,5	186,657
421,9	185,6
422,4	192,086
422,8	202,686
423,3	210,714
423,8	211,057
424,2	222,114
424,7	230,886
425,1	240,543
425,6	241,657
426	246,257
426,5	253,171
426,9	259,114
427,4	270,486
427,9	275,714
428,3	289,029
428,8	306,029
429,2	316,286
429,7	328,571
430,1	349,543
430,6	360,057
431	379,371
431,5	393,571
431,9	407,4
432,4	422,8
432,8	439,057
433,3	451,229
433,8	473,886
434,2	490,429
434,7	509,886
435,1	540,2
435,6	558,829
436	588,343
436,5	613,743
436,9	634,714
437,4	660,257
437,8	691,829
438,3	712,371
438,8	745,057
439,2	776,771
439,7	807,057
440,1	839,4
440,6	877,086
441	912,857
441,5	951,743
441,9	991,686
442,4	1024,771
442,8	1066,314
443,3	1107,686
443,7	1149,314
444,2	1184,4
444,7	1230,657
445,1	1279,2
445,6	1333,314
446	1379,029
446,5	1436,286
446,9	1487,771
447,4	1550,086
447,8	1604,343
448,3	1653,943
448,7	1702,171
449,2	1764,543
449,6	1815,514
450,1	1875,143
450,6	1934,057
451	1989,314
451,5	2062,657
451,9	2131,6
452,4	2190,171
452,8	2259,2
453,3	2328,714
453,7	2397,429
454,2	2477,371
454,6	2548,771
455,1	2614,514
455,5	2689,029
456	2759,714
456,4	2836,371
456,9	2914,943
457,3	2989,543
457,8	3067,314
458,3	3156,943
458,7	3247,914
459,2	3334,057
459,6	3407,914
460,1	3489,429
460,5	3572
461	3660,971
461,4	3737,6
461,9	3821,171
462,3	3909,371
462,8	4000,343
463,2	4083,429
463,7	4172,229
464,1	4247,771
464,6	4334,829
465	4411,457
465,5	4494,229
466	4582
466,4	4670,4
466,9	4749,771
467,3	4832,571
467,8	4916,714
468,2	5002,429
468,7	5083,514
469,1	5166,257
469,6	5244,029
470	5330,371
470,5	5414,914
470,9	5493,714
471,4	5571,714
471,8	5658
472,3	5725,029
472,7	5802
473,2	5873,4
473,6	5946,143
474,1	6014,714
474,5	6088,371
475	6158,914
475,4	6236,714
475,9	6305,114
476,4	6374,486
476,8	6428,2
477,3	6493,543
477,7	6553,571
478,2	6603,4
478,6	6659,114
479,1	6711,486
479,5	6762,143
480	6821
480,4	6870,171
480,9	6913,029
481,3	6948,943
481,8	6985,429
482,2	7021,114
482,7	7058,657
483,1	7087,886
483,6	7113,857
484	7147,571
484,5	7176,6
484,9	7201,8
485,4	7224,2
485,8	7229,286
486,3	7254,343
486,7	7278,886
487,2	7286,286
487,6	7301,971
488,1	7312,743
488,5	7330,629
489	7339,257
489,4	7342,8
489,9	7340,086
490,4	7343,314
490,8	7338,629
491,3	7334,714
491,7	7315,514
492,2	7314,914
492,6	7306,771
493,1	7287,629
493,5	7260,6
494	7240,229
494,4	7209,971
494,9	7189,2
495,3	7153,886
495,8	7108,457
496,2	7085,2
496,7	7053,971
497,1	7025,6
497,6	7000,114
498	6962,857
498,5	6936,629
498,9	6914,914
499,4	6885,771
499,8	6861,143
500,3	6820,457
500,7	6781,143
501,2	6745,143
501,6	6704,686
502,1	6655,2
502,5	6613,571
503	6575
503,4	6530,657
503,9	6483,286
504,3	6443,886
504,8	6395,371
505,2	6355,371
505,7	6301,171
506,1	6249,371
506,6	6206,143
507	6157,143
507,5	6099,771
507,9	6047,029
508,4	5987,829
508,8	5938,057
509,3	5875,943
509,7	5822,086
510,2	5768,829
510,6	5716,457
511,1	5665,429
511,5	5615,914
512	5554,8
512,4	5508,571
512,9	5454,743
513,3	5397,857
513,8	5339,771
514,2	5283,6
514,7	5230,371
515,1	5179,514
515,6	5123,086
516	5063,714
516,5	5009,886
516,9	4958,143
517,4	4902,257
517,8	4843,4
518,3	4786,229
518,7	4730,171
519,2	4681,914
519,6	4636,029
520,1	4578,057
520,5	4523,943
521	4471,429
521,4	4423,886
521,9	4381,229
522,3	4330,229
522,8	4276,457
523,2	4228,571
523,7	4181,029
524,1	4130,343
524,6	4085,2
525	4024,314
525,5	3972,914
525,9	3929,771
526,4	3880,686
526,8	3838,371
527,3	3796,543
527,7	3750,286
528,2	3712,914
528,6	3674,057
529,1	3620,371
529,5	3582,229
530	3540
530,4	3503,171
530,9	3450,114
531,3	3409,4
531,8	3362,343
532,2	3324,886
532,6	3288,8
533,1	3244,686
533,5	3203,229
534	3170,714
534,4	3131,914
534,9	3100,857
535,3	3070,229
535,8	3026,686
536,2	2995,257
536,7	2966,543
537,1	2936,914
537,6	2910,943
538	2875,943
538,5	2843,057
538,9	2819,457
539,4	2784,886
539,8	2749,286
540,3	2717,914
540,7	2679,029
541,2	2651,686
541,6	2622,171
542,1	2591,629
542,5	2570,114
543	2539,657
543,4	2510,286
543,9	2486,429
544,3	2461,743
544,8	2434,914
545,2	2412,829
545,7	2386,629
546,1	2363,686
546,5	2338,8
547	2314,171
547,4	2286,114
547,9	2260,629
548,3	2232,029
548,8	2204,229
549,2	2180,171
549,7	2161,457
550,1	2140,686
550,6	2123,686
551	2103,914
551,5	2083,486
551,9	2063,657
552,4	2043,743
552,8	2026,486
553,3	2006,514
553,7	1990,8
554,2	1974,657
554,6	1959,314
555,1	1941,514
555,5	1924,086
555,9	1907,029
556,4	1886,6
556,8	1862,457
557,3	1847,657
557,7	1832,257
558,2	1824,143
558,6	1814,686
559,1	1792,886
559,5	1786,514
560	1769,429
560,4	1752,257
560,9	1739,029
561,3	1721,343
561,8	1704,286
562,2	1695,571
562,7	1674,086
563,1	1664,857
563,6	1656,514
564	1642,514
564,4	1625,514
564,9	1610,829
565,3	1596,114
565,8	1593,8
566,2	1582,914
566,7	1564,486
567,1	1551,771
567,6	1540,229
568	1527,171
568,5	1515,143
568,9	1498,657
569,4	1486,257
569,8	1475,114
570,3	1462,714
570,7	1455,943
571,1	1448
571,6	1436,057
572	1421,629
572,5	1410,686
572,9	1397,686
573,4	1388,029
573,8	1380
574,3	1365,971
574,7	1358,114
575,2	1354,971
575,6	1345,4
576,1	1339,371
576,5	1330,657
576,9	1315,086
577,4	1311,629
577,8	1302,771
578,3	1291,943
578,7	1280,457
579,2	1271,057
579,6	1267,257
580,1	1256,743
580,5	1246,829
581	1241,543
581,4	1230,057
581,9	1219,257
582,3	1206,543
582,7	1190,629
583,2	1183,429
583,6	1174,857
584,1	1167,429
584,5	1158,6
585	1158,857
585,4	1154,457
585,9	1144,429
586,3	1145
586,8	1140,4
587,2	1128,143
587,6	1121,771
588,1	1112,857
588,5	1108,114
589	1102,686
589,4	1088,6
589,9	1078,571
590,3	1071,943
590,8	1060,829
591,2	1054,857
591,7	1047,714
592,1	1045,686
592,5	1038,829
593	1031,8
593,4	1028,6
593,9	1031,286
594,3	1020,571
594,8	1016,486
595,2	1012,8
595,7	1011,057
596,1	1007,543
596,6	998,714
597	988,029
597,4	986,857
597,9	983,657
598,3	972,457
598,8	970,2
599,2	964,514
599,7	962
600,1	951,629
600,6	943,486
601	934,486
601,4	934
601,9	922,943
602,3	914
602,8	910,914
603,2	916,886
603,7	911,171
604,1	910,571
604,6	903,086
605	898,857
605,4	893,343
605,9	888,2
606,3	882
606,8	879,457
607,2	868,857
607,7	863,971
608,1	859,571
608,6	860,886
609	856,514
609,4	847,286
609,9	847,857
610,3	844,343
610,8	838,171
611,2	835,857
611,7	826,6
612,1	822,143
612,6	820,171
613	807,686
613,4	800,686
613,9	795,429
614,3	790,171
614,8	788,486
615,2	784,229
615,7	776,4
616,1	771,943
616,6	769,057
617	766,514
617,4	757,629
617,9	751,629
618,3	741,343
618,8	740,314
619,2	736,371
619,7	734,829
620,1	734,8
620,5	733,743
621	726,829
621,4	722,457
621,9	717,229
622,3	713,571
622,8	711,8
623,2	702,143
623,6	704,143
624,1	699,943
624,5	696,514
625	692,143
625,4	688,714
625,9	677,714
626,3	675,143
626,8	665,029
627,2	666,2
627,6	662,029
628,1	657,914
628,5	657,914
629	658,629
629,4	657,771
629,9	654,171
630,3	645,371
630,7	641,486
631,2	630,086
631,6	617,686
632,1	611,914
632,5	603,971
633	596,657
633,4	598,114
633,8	594
634,3	592,857
634,7	598,686
635,2	597,629
635,6	598,743
636,1	601,057
636,5	593,543
636,9	587,743
637,4	586,171
637,8	574,429
638,3	566,943
638,7	558,171
639,2	553,086
639,6	553,343
640	554,343
640,5	555,457
640,9	556,943
641,4	552
641,8	547,314
642,2	541,029
642,7	534,029
643,1	529,2
643,6	523,171
644	518,829
644,5	518,886
644,9	518,829
645,3	518,886
645,8	516,171
646,2	513,914
646,7	507,971
647,1	504,2
647,6	500,257
648	492,2
648,4	488,771
648,9	488,686
649,3	483,143
649,8	482,086
650,2	479,857
650,6	478,514
651,1	483,886
651,5	476,229
652	468,971
652,4	468,229
652,9	466,571
653,3	463,457
653,7	457,286
654,2	448,886
654,6	447,571
655,1	445,6
655,5	445,829
655,9	439,457
656,4	439,171
656,8	442,086
657,3	442,029
657,7	439,686
658,2	441,2
658,6	441,257
659	443,343
659,5	434,743
659,9	432
660,4	427,886
660,8	431,2
661,2	425,457
661,7	418,4
662,1	415,857
662,6	415,886
663	406,914
663,4	406,543
663,9	401,4
664,3	403,686
664,8	401,8
665,2	396,314
665,6	396,371
666,1	397,743
666,5	391,943
667	389,686
667,4	380,657
667,9	373
668,3	372,943
668,7	369,457
669,2	367,857
669,6	368,714
670,1	363,571
670,5	361,171
670,9	360,486
671,4	356,343
671,8	354,257
672,3	353,171
672,7	351,686
673,1	352,886
673,6	351,257
674	348,343
674,5	346,457
674,9	342,343
675,3	336,943
675,8	332,914
676,2	327,714
676,7	325,771
677,1	325,6
677,5	320,343
678	315,743
678,4	317,743
678,9	315,143
679,3	311,171
679,7	308,114
680,2	307,514
680,6	306,8
681,1	306,029
681,5	298,143
681,9	298,171
682,4	293,886
682,8	297,629
683,3	290,543
683,7	292,8
684,1	289,314
684,6	284,914
685	280,029
685,5	283,143
685,9	276,2
686,3	280,114
686,8	273,457
687,2	276,457
687,7	279,086
688,1	280,2
688,5	274,4
689	272,171
689,4	267,686
689,9	271,457
690,3	266,371
690,7	261,457
691,2	256,229
691,6	255,714
692	256
692,5	255,457
692,9	249,343
693,4	250,2
693,8	247,6
694,2	245,743
694,7	244,8
695,1	239,657
695,6	236,943
696	235,8
696,4	231,6
696,9	236,543
697,3	229,914
697,8	230,171
698,2	230,286
698,6	232,2
699,1	234,971
699,5	233,343
699,9	227,886
700,4	234,086
700,8	231,743
701,3	233,143
701,7	228,371
702,1	219,486
702,6	217,571
703	213,743
703,5	210,743
703,9	209,571
704,3	204,914
704,8	200,229
705,2	204,429
705,6	206,343
706,1	205,6
706,5	203,486
707	198,657
707,4	198,6
707,8	199,8
708,3	195,914
708,7	194,343
709,2	191,686
709,6	193,086
710	197,114
710,5	195,543
710,9	195,6
711,3	194,914
711,8	194,314
712,2	196,629
712,7	193,657
713,1	192,114
713,5	185,857
714	185,057
714,4	181,029
714,8	175,314
715,3	176,8
715,7	172,486
716,2	170,8
716,6	175,686
717	169,257
717,5	168,457
717,9	169,457
718,3	164,029
718,8	161,971
719,2	156,886
719,7	154,457
720,1	155,886
720,5	153,029
721	148,971
721,4	147,857
721,8	151,629
722,3	152,943
722,7	153,171
723,2	152,171
723,6	154,143
724	154,657
724,5	153,2
724,9	145,286
725,3	139,571
725,8	138,2
726,2	132,8
726,7	132,943
727,1	134,171
727,5	130,429
728	134,943
728,4	138,343
728,8	133,829
729,3	139,686
729,7	136,086
730,1	133,257
730,6	135,114
731	132,171
731,5	133,6
731,9	132,629
732,3	125,857
732,8	127,914
733,2	129,8
733,6	131,971
734,1	133,714
734,5	127,257
734,9	128,8
735,4	124,743
735,8	123,371
736,3	118,514
736,7	118,143
737,1	117,314
737,6	119,629
738	122,8
738,4	128,6
738,9	132,743
739,3	133,314
739,7	131,686
740,2	131,829
740,6	128,714
741,1	126,171
741,5	122,257
741,9	115,371
742,4	114,171
742,8	113,686
743,2	110,886
743,7	114,829
744,1	113,657
744,5	116,486
745	116,657
745,4	112,714
745,8	111,629
746,3	111,6
746,7	109,514
747,2	101,771
747,6	103,029
748	102,771
748,5	106,229
748,9	108,314
749,3	108,743
749,8	111,171
750,2	109,943
750,6	114,971
751,1	113,6
751,5	114,114
751,9	112,743
752,4	110,2
752,8	102,257
753,3	107,229
753,7	99,971
754,1	96,743
754,6	93,029
755	91,029
755,4	88,143
755,9	94,4
756,3	95,886
756,7	93,114
757,2	91,629
757,6	92,2
758	88,743
758,5	93,286
758,9	88,429
759,3	87,657
759,8	85,714
760,2	88,486
760,6	87,571
761,1	86,4
761,5	84,686
761,9	83,686
762,4	80,257
762,8	84,571
763,3	86,943
763,7	79,486
764,1	80,343
764,6	75,486
765	75,714
765,4	76,057
765,9	71
766,3	69
766,7	78,114
767,2	83,771
767,6	89,2
768	88,829
768,5	88,029
768,9	88,4
769,3	88,371
769,8	88,029
770,2	79,114
770,6	70,943
771,1	67,343
771,5	64,714
771,9	68,086
772,4	65,971
772,8	62,771
773,2	64,086
773,7	70,057
774,1	70,286
774,5	72,657
775	70,086
775,4	73,914
775,8	76,686
776,3	79,257
776,7	74,429
777,1	77,829
777,6	74,571
778	72,514
778,4	66,914
778,9	66,914
779,3	64,343
779,7	67,657
780,2	66,057
780,6	69
781	68,886
781,5	70,857
781,9	68,314
782,3	68,6
782,8	68,771
783,2	71,057
783,6	72,171
784,1	69,829
784,5	67,257
784,9	63
785,4	59,114
785,8	61,029
786,2	59,171
786,7	53,914
787,1	55,314
787,5	55,514
788	59,057
788,4	59,143
788,8	55,114
789,3	52
789,7	57,086
790,1	59,371
790,6	59,886
791	57,286
791,4	54,486
791,9	53,886
792,3	54,829
792,7	56,714
793,2	55,714
793,6	59,343
794	60,457
794,5	66,771
794,9	66,4
795,3	64,971
795,8	61,057
796,2	61,086
796,6	57,343
797,1	60,686
797,5	60,114
797,9	56,143
798,4	56,8
798,8	55,571
799,2	57,257
799,7	55,371
800,1	52,914
800,5	50,371
801	53,8
801,4	53,143
801,8	54,171
802,2	51,171
802,7	53,343
803,1	54,514
803,5	56,143
804	59,229
804,4	63,486
804,8	60,371
805,3	63,514
805,7	58,486
806,1	55,114
806,6	53,571
807	50,286
807,4	45,629
807,9	45,514
808,3	38,2
808,7	39,829
809,2	40,514
809,6	41,686
810	44,6
810,4	45,371
810,9	44,029
811,3	44,2
811,7	45,029
812,2	47,2
812,6	42,543
813	35,029
813,5	32,8
813,9	35,914
814,3	39,914
814,8	40,457
815,2	37,286
815,6	38,543
816,1	43,229
816,5	48,2
816,9	42,886
817,3	42,143
817,8	40,743
818,2	39,629
818,6	39,086
819,1	36,257
819,5	33,029
819,9	37,943
820,4	39,486
820,8	40,657
821,2	36,114
821,7	36,171
822,1	36,686
822,5	37,057
822,9	33,771
823,4	29,2
823,8	29,629
824,2	33,971
824,7	34,6
825,1	36,457
825,5	35,286
826	36,943
826,4	39,4
826,8	35
827,3	36,057
827,7	35,886
828,1	37,257
828,5	33,143
829	29,4
829,4	31,143
829,8	36,686
830,3	31,8
830,7	29,657
831,1	28,743
831,6	33,143
832	35,971
832,4	31,2
832,8	30,771
833,3	34,114
833,7	34,571
834,1	29,657
834,6	25,371
835	22,543
835,4	31,314
835,8	26,943
836,3	26,257
836,7	30,6
837,1	29,457
837,6	29,571
838	30,057
838,4	18,8
838,9	17,657
839,3	17,229
839,7	15,086
840,1	18,171
840,6	22,4
841	21,829
841,4	26,486
841,9	29,429
842,3	33,371
842,7	37,829
843,1	37,257
843,6	37,2
844	37,486
844,4	32,971
844,9	31,171
845,3	28,171
845,7	25,886
846,2	23,629
846,6	19,114
847	21,657
847,4	22,571
847,9	20,457
848,3	17,629
848,7	14,6
849,2	18,886
849,6	19,571
850	17,943
850,4	17,686
850,9	22,057
851,3	23,171
851,7	24,543
852,2	22,371
852,6	25,714
853	20,971
853,4	22,057
853,9	22,257
854,3	25,371
854,7	22,971
855,2	20,4
855,6	16,4
856	24,114
856,4	26,057
856,9	23,143
857,3	18,886
857,7	18,143
858,2	18,8
858,6	18,114
859	16,714
859,4	13,314
859,9	12,571
860,3	18
860,7	18,257
861,1	20,229
861,6	26,429
862	25,743
862,4	27,086
862,9	24,829
863,3	21,6
863,7	24,229
864,1	22,371
864,6	21,314
865	19,514
865,4	19,057
865,9	23,429
866,3	21,371
866,7	19,057
867,1	16,371
867,6	9,829
868	6,657
868,4	6,8
868,8	5,657
869,3	9,514
869,7	6,657
870,1	12,314
870,6	15,629
871	14,514
871,4	19,4
871,8	20,429
872,3	15,8
872,7	14,2
873,1	11,286
873,5	7,686
874	17,286
874,4	13,743
874,8	11,857
875,3	15,686
875,7	16,714
876,1	19,543
876,5	24,486
877	18,886
877,4	14,171
877,8	13,771
878,2	8,429
878,7	13,371
879,1	9,4
879,5	9,943
879,9	3,629
880,4	8,714
880,8	7,343
881,2	10,829
881,7	8,457
882,1	11,714
882,5	7,914
882,9	15,8
883,4	16,086
883,8	11,771
884,2	12,543
884,6	12,771
885,1	9,114
885,5	12,571
885,9	13,514
886,3	6,029
886,8	8,486
887,2	5,743
887,6	1,029
888	1,914
888,5	2,086
888,9	-1,657
889,3	4,371
889,8	6,8
890,2	7,314
890,6	10
891	14,057
891,5	9,771
891,9	7,571
892,3	7,086
892,7	6,057
893,2	9,514
893,6	8,257
894	4,8
894,4	4,829
894,9	5,514
895,3	6,857
895,7	8,2
896,1	2,971
896,6	5,771
897	6,429
897,4	7,543
897,8	11,057
898,3	8,714
898,7	4,029
899,1	6,486
899,5	3,114
900	4,771
900,4	4,229
900,8	0,514
901,2	-3,4
901,7	-0,714
902,1	2,571
902,5	5,286
902,9	-0,314
903,4	-4,829
903,8	-2,829
904,2	0,257
904,6	3,714
905,1	2,8
905,5	0,857
905,9	6,429
906,3	10,143
906,8	10,429
907,2	13,971
907,6	12,4
908	9,886
908,5	14,829
908,9	12,743
909,3	11,771
909,7	10,257
910,2	6,343
910,6	6,257
911	5,686
911,4	1,686
911,9	1,914
912,3	6,486
912,7	8,543
913,1	10,829
913,6	13,229
914	12,914
914,4	12,229
914,8	11,371
915,3	10,371
915,7	9,343
916,1	10,543
916,5	5,8
916,9	9,371
917,4	7,914
917,8	5,629
918,2	0,371
918,6	2,943
919,1	-2,371
919,5	-1,429
919,9	-4,714
920,3	-1,486
920,8	2,543
921,2	3,371
921,6	2,029
922	8,4
922,5	9,743
922,9	10,086
923,3	10,486
923,7	5,857
924,2	8,029
924,6	6,429
925	3,171
925,4	3,2
925,8	-0,771
926,3	-1,486
926,7	4,143
927,1	7,343
927,5	9,829
928	11,457
928,4	12,2
928,8	16,4
929,2	17
929,7	17,6
930,1	14,2
930,5	14,886
930,9	17,343
931,3	17,057
931,8	15,771
932,2	15,371
932,6	14,143
933	15,771
933,5	10,657
933,9	4,514
934,3	3,2
934,7	-0,229
935,2	-1,686
935,6	-4,743
936	-2,914
936,4	-1,829
936,8	-1,029
937,3	0,543
937,7	2,029
938,1	1,629
938,5	-0,714
939	-4,943
939,4	-0,857
939,8	-0,514
940,2	-1,229
940,6	1,829
941,1	1,943
941,5	5,4
941,9	8,771
942,3	5,086
942,8	6,829
943,2	6,943
943,6	3,343
944	-0,171
944,4	-3,743
944,9	-6,457
945,3	-3,943
945,7	-3
946,1	-5,086
946,6	-0,429
947	2,286
947,4	7,657
947,8	5
948,2	3,514
948,7	3,029
949,1	5,143
949,5	4,457
949,9	4,171
950,3	3,171
950,8	3,171
951,2	3,057
951,6	5,571
952	2,571
952,5	4,086
952,9	4,486
953,3	0,657
953,7	4,543
954,1	5,857
954,6	-0,314
955	2,971
955,4	1,571
955,8	-1,514
956,2	0,771
956,7	0,371
957,1	0,571
957,5	-2,286
957,9	-2,571
958,3	-5,371
958,8	2,086
959,2	2,171
959,6	1,457
960	0,6
960,5	4,829
960,9	2,629
961,3	7,086
961,7	3,543
962,1	2,314
962,6	1,914
963	4,743
963,4	9,943
963,8	11,457
964,2	8,571
964,7	5,086
965,1	8,543
965,5	7,829
965,9	1,286
966,3	-0,229
966,8	-0,086
967,2	0,8
967,6	5,057
968	2,771
968,4	3,629
968,9	6,657
969,3	3,371
969,7	1
970,1	0,714
970,5	-0,4
971	-4,429
971,4	-4,143
971,8	-7,4
972,2	-8,257
972,6	-8,114
973,1	-7,943
973,5	-9,029
973,9	-5,143
974,3	-4,743
974,7	0,4
975,2	0,371
975,6	3,714
976	0,029
976,4	1,457
976,8	4,371
977,3	4,8
977,7	5,657
978,1	6,914
978,5	7,257
978,9	8,457
979,4	6,4
979,8	0,086
980,2	3,4
980,6	0,543
981	-0,257
981,5	-5,514
981,9	-1,971
982,3	2,543
982,7	4,657
983,1	0,971
983,6	-1,257
984	-5,229
984,4	4,171
984,8	4,371
985,2	3,057
985,6	3,4
986,1	1,657
986,5	4,914
986,9	4,657
987,3	1,229
987,7	0,314
988,2	-0,914
988,6	5,971
989	9,143
989,4	6,486
989,8	11,029
990,3	8,8
990,7	10,457
991,1	6,857
991,5	0,686
991,9	-3,686
992,3	-2,229
992,8	-6,8
993,2	-10,657
993,6	-15,143
994	-7,286
994,4	-5,771
994,9	-1,486
995,3	1,343
995,7	7,829
996,1	11,771
996,5	13,086
996,9	9,514
997,4	8,2
997,8	7,571
998,2	1,886
998,6	-3,657
999	-3,629
999,5	-3,314
999,9	-0,457
1000,3	-3,4
1000,7	-2,114
1001,1	1,657
1001,5	2,943
1002	-1,314
1002,4	-3,486
1002,8	-6,629
1003,2	-5,4
1003,6	-3,086
1004	-4,457
1004,5	-4,457
1004,9	-2,143
1005,3	-2,314
1005,7	-5,371
1006,1	-5,2
1006,6	-9,657
1007	-6,514
1007,4	-4,857
1007,8	-5,771
1008,2	-0,029
1008,6	0,8
1009,1	2,4
1009,5	4,4
1009,9	2,686
1010,3	-3,171
1010,7	-0,4
1011,1	-7,743
1011,6	-0,143
1012	-2,086
1012,4	-1,343
1012,8	-5,229
1013,2	-5,229
1013,6	-6,057
1014,1	-5,229
1014,5	-10,486
1014,9	-6,8
1015,3	-8,371
1015,7	-5,143
1016,1	2,857
1016,6	5,543
1017	9,743
1017,4	9,714
1017,8	4,486
1018,2	-0,486
1018,6	2
1019,1	1,657
1019,5	3,086
1019,9	-0,571
1020,3	-3,286
1020,7	-0,486
1021,1	0,629
1021,6	-2,343
1022	-3,6
1022,4	-8,343
1022,8	-10,143
1023,2	-3,2
1023,6	-3,829
1024,1	-0,714
1024,5	-0,143
1024,9	-0,2
1025,3	-2,086
1025,7	0
1026,1	-3,629
1026,6	-4,6
1027	-4,686
1027,4	-9,914
1027,8	-8,2
1028,2	-2,4
1028,6	-1,6
1029	-3,829
1029,5	-2,4
1029,9	-4,543
1030,3	-0,143
1030,7	0,743
1031,1	-1,743
1031,5	-0,086
1032	2,971
1032,4	3,286
1032,8	5,6
1033,2	10,4
1033,6	8,571
1034	6,257
1034,4	5,4
1034,9	2,486
1035,3	3,743
1035,7	1,857
1036,1	0,857
1036,5	0,543
1036,9	8,714
1037,4	11,4
1037,8	15,343
1038,2	17,229
1038,6	18,229
1039	12,057
1039,4	10,4
1039,8	7,429
1040,3	7,971
1040,7	7
1041,1	4,286
1041,5	5,914
1041,9	12,086
1042,3	14,857
1042,7	12,286
1043,2	16,6
1043,6	12,257
1044	10,857
1044,4	15,6
1044,8	15,829
1045,2	11,314
1045,6	12,086
1046,1	2,914
1046,5	7,2
1046,9	11,286
1047,3	1,714
1047,7	1,2
1048,1	0,771
1048,5	-1,371
1049	3,286
1049,4	2,314
1049,8	-2,143
1050,2	3,229
1050,6	-0,571
1051	5,657
1051,4	9,857
1051,9	3,429
1052,3	7,457
1052,7	10,286
1053,1	9,429
1053,5	9,771
1053,9	5,771
1054,3	5,086
1054,8	12,171
1055,2	8,8
1055,6	5,943
1056	3,143
1056,4	8
1056,8	9,429
1057,2	5,486
1057,6	-3,743
1058,1	-6,857
1058,5	-5,2
1058,9	0,771
1059,3	1,543
1059,7	5,343
1060,1	7,771
1060,5	17,771
1061	19,8
1061,4	16,343
1061,8	12,029
1062,2	6,971
1062,6	2,429
1063	3,057
1063,4	-1,086
1063,8	-0,314
1064,3	4,229
1064,7	5,686
1065,1	6,571
1065,5	4,057
1065,9	-1,714
1066,3	-1,286
1066,7	-2,657
1067,1	-4,086
1067,6	-1,343
1068	-0,743
1068,4	0,971
1068,8	4,257
1069,2	2
1069,6	1,6
1070	2
1070,4	1,343
1070,9	-2,114
1071,3	0
1071,7	1,114
1072,1	3,857
1072,5	5,286
1072,9	5,543
1073,3	2,457
1073,7	2,486
1074,2	1,343
1074,6	-6,171
1075	-6,114
1075,4	-1,8
1075,8	-2,714
1076,2	-1,4
1076,6	5,286
1077	3,143
1077,5	13,8
1077,9	14,571
1078,3	9,743
1078,7	10,171
1079,1	7,629
1079,5	4,429
1079,9	5,571
1080,3	-0,686
1080,7	-1,086
1081,2	-1,457
1081,6	-1,971
1082	-3,686
1082,4	-6,314
1082,8	-2,429
1083,2	0,629
1083,6	-3,857
1084	-5,2
1084,5	-5,029
1084,9	-5,343
1085,3	-4,771
1085,7	-9,657
1086,1	-9,771
1086,5	-11,686
1086,9	-7,543
1087,3	-5,257
1087,7	-5,829
1088,2	-4,4
1088,6	-3,2
1089	-0,743
1089,4	4,971
1089,8	3,571
1090,2	1,171
1090,6	5,2
1091	8,114
1091,4	10,314
1091,9	6,257
1092,3	7,514
1092,7	7,029
1093,1	8,8
1093,5	9,086
1093,9	6,514
1094,3	4,143
1094,7	5,629
1095,1	6,171
1095,5	10,114
1096	8,457
1096,4	8,143
1096,8	7,314
1097,2	10,629
1097,6	12,029
1098	11,171
1098,4	5,4
1098,8	1,829
1099,2	-1,686
1099,6	-0,886
1100,1	-0,257
1100,5	-2,943
1100,9	-8,286
1101,3	-8,314
1101,7	-4,229
1102,1	-0
1102,5	-1,886
1102,9	-1,971
1103,3	-3,886
1103,7	3,4
1104,2	5,314
1104,6	5,971
1105	7,857
1105,4	8,829
1105,8	5,829
1106,2	9,114
1106,6	5,571
1107	5,257
1107,4	4,9
1107,8	1,08
1108,3	0,25
