Data from Subt2_171.txt Node
Date: Sat Aug 26 18:37:53 MSK 2023
User: vat
Spectrometer: MAYP114033
Trigger mode: 0
Integration Time (sec): 1,000000E0
Scans to average: 5
Electric dark correction enabled: true
Nonlinearity correction enabled: false
Boxcar width: 3
XAxis mode: Wavelengths
Number of Pixels in Spectrum: 2068
>>>>>Begin Spectral Data<<<<<
199,4	-0,533
199,9	2,507
200,4	3,3
200,8	4,981
201,3	2,581
201,8	4,01
202,2	2,895
202,7	6,124
203,2	3,838
203,6	0,752
204,1	-2,876
204,6	-3,59
205	-3,076
205,5	-2,076
206	-3,419
206,4	-1,705
206,9	1,238
207,4	4,495
207,8	4,267
208,3	0,524
208,8	-0,962
209,2	0,41
209,7	0,01
210,2	1,867
210,6	-1,59
211,1	0,638
211,5	2,467
212	4,695
212,5	2,238
212,9	-2,162
213,4	-4,39
213,9	-6,105
214,3	-3,533
214,8	-0,305
215,3	-3,362
215,7	-1,676
216,2	5,152
216,7	6,867
217,1	5,924
217,6	7,295
218,1	1,952
218,5	4,21
219	-3,705
219,5	-5,962
219,9	-11,562
220,4	-2,705
220,9	-3,305
221,3	0,095
221,8	0,924
222,3	7,724
222,7	8,495
223,2	11,238
223,6	4,41
224,1	1,552
224,6	5,095
225	4,61
225,5	4,467
226	6,524
226,4	6,895
226,9	10,01
227,4	12,181
227,8	3,81
228,3	1,152
228,8	-0,105
229,2	-7,905
229,7	-6,333
230,2	-4,962
230,6	-0,905
231,1	7,867
231,5	11,495
232	12,581
232,5	15,067
232,9	16,295
233,4	13,695
233,9	8,038
234,3	4,924
234,8	2,581
235,3	-1,419
235,7	3,01
236,2	0,638
236,7	-1,79
237,1	-2,762
237,6	-5,19
238,1	-4,362
238,5	-5,79
239	-11,333
239,4	-8,019
239,9	-2,276
240,4	-3,162
240,8	-0,39
241,3	-4,476
241,8	-0,79
242,2	-0,276
242,7	-4,562
243,2	-3,676
243,6	-2,562
244,1	-5,733
244,6	1,781
245	1,295
245,5	2,01
245,9	-1,048
246,4	-3,562
246,9	-2,905
247,3	1,152
247,8	-0,819
248,3	0,038
248,7	3,295
249,2	7,267
249,7	3,81
250,1	7,438
250,6	3,695
251	4,952
251,5	8,867
252	5,867
252,4	7,324
252,9	5,952
253,4	2,581
253,8	3,124
254,3	1,667
254,8	-1,876
255,2	-2,419
255,7	-1,476
256,1	4,752
256,6	-0,362
257,1	-0,076
257,5	-4,048
258	-3,962
258,5	-1,99
258,9	-6,333
259,4	-10,248
259,9	-2,505
260,3	-7,162
260,8	-7,876
261,2	-6,79
261,7	-0,59
262,2	-0,733
262,6	-2,333
263,1	-5,448
263,6	0,352
264	6,152
264,5	8,667
264,9	2,924
265,4	3,438
265,9	5,467
266,3	6,695
266,8	8,867
267,3	7,238
267,7	3,181
268,2	2,581
268,7	4,724
269,1	2,238
269,6	-2,048
270	-1,705
270,5	-7,619
271	-2,99
271,4	-2,99
271,9	-7,39
272,4	-4,59
272,8	-2,362
273,3	-6,333
273,7	1,01
274,2	-3,39
274,7	-1,505
275,1	2,61
275,6	5,238
276,1	7,095
276,5	7,524
277	3,667
277,4	4,238
277,9	5,21
278,4	6,467
278,8	7,038
279,3	4,267
279,8	5,724
280,2	9,695
280,7	13,095
281,1	6,124
281,6	5,238
282,1	2,552
282,5	6,952
283	4,438
283,4	3,095
283,9	-1,305
284,4	4,21
284,8	9,581
285,3	11,21
285,8	10,752
286,2	14,21
286,7	9,895
287,1	10,524
287,6	7,352
288,1	-2,619
288,5	-4,219
289	-5,705
289,5	-6,79
289,9	-5,076
290,4	-4,648
290,8	-2,248
291,3	2,552
291,8	4,295
292,2	3,552
292,7	2,267
293,1	3,981
293,6	8,638
294,1	7,181
294,5	5,067
295	5,381
295,5	3,81
295,9	5,724
296,4	2,752
296,8	-3,076
297,3	0,638
297,8	-4,276
298,2	-7,733
298,7	-1,962
299,1	-2,362
299,6	-7,162
300,1	0,752
300,5	-2,333
301	4,752
301,5	8,867
301,9	8,295
302,4	6,895
302,8	12,581
303,3	7,61
303,8	2,667
304,2	1,781
304,7	-0,562
305,1	-7,048
305,6	-6,705
306,1	1,724
306,5	1,924
307	9,61
307,4	13,295
307,9	13,352
308,4	13,152
308,8	12,181
309,3	4,638
309,8	2,21
310,2	-0,019
310,7	-8,048
311,1	-8,019
311,6	-2,333
312,1	-2,619
312,5	2,695
313	5,495
313,4	5,781
313,9	11,067
314,4	9,952
314,8	1,667
315,3	2,324
315,7	-5,133
316,2	-9,276
316,7	-8,99
317,1	-5,99
317,6	-5,362
318	4,438
318,5	1,21
319	4,781
319,4	9,124
319,9	14,981
320,3	13,667
320,8	11,952
321,3	13,181
321,7	16,495
322,2	16,067
322,6	15,895
323,1	6,924
323,6	3,438
324	6,152
324,5	3,095
324,9	3,381
325,4	2,181
325,9	3,838
326,3	11,238
326,8	15,21
327,2	11,124
327,7	8,41
328,2	6,838
328,6	10,924
329,1	3,895
329,5	-2,248
330	-7,476
330,5	-4,505
330,9	-0,076
331,4	2,981
331,8	0,095
332,3	6,352
332,8	9,638
333,2	13,752
333,7	13,667
334,1	10,352
334,6	7,124
335,1	4,295
335,5	2,038
336	-0,19
336,4	1,181
336,9	10,352
337,4	13,467
337,8	15,81
338,3	21,124
338,7	24,724
339,2	22,067
339,7	20,695
340,1	13,01
340,6	11,324
341	10,21
341,5	11,295
342	5,867
342,4	7,381
342,9	5,438
343,3	5,667
343,8	5,352
344,2	8,095
344,7	11,067
345,2	12,352
345,6	11,238
346,1	13,581
346,5	9,952
347	8,095
347,5	6,41
347,9	3,895
348,4	3,467
348,8	10,267
349,3	7,952
349,8	13,238
350,2	18,924
350,7	17,552
351,1	16,438
351,6	19,895
352	21,181
352,5	28,181
353	30,895
353,4	37,781
353,9	50,524
354,3	61,038
354,8	74,438
355,3	94,752
355,7	111,21
356,2	135,181
356,6	158,524
357,1	189,352
357,5	223,067
358	263,924
358,5	304,01
358,9	353,467
359,4	408,952
359,8	470,324
360,3	539,867
360,8	620,038
361,2	708,981
361,7	804,295
362,1	915,581
362,6	1032,924
363	1155,181
363,5	1291,352
364	1436,524
364,4	1577,01
364,9	1722,724
365,3	1865,638
365,8	2000,638
366,3	2129,924
366,7	2241,667
367,2	2335,724
367,6	2415,61
368,1	2480,981
368,5	2523,181
369	2543,01
369,5	2548,61
369,9	2529,438
370,4	2487,467
370,8	2434,695
371,3	2358,124
371,7	2268,638
372,2	2175,895
372,7	2070,238
373,1	1960,352
373,6	1847,781
374	1729,752
374,5	1616,638
374,9	1512,924
375,4	1402,181
375,9	1293,981
376,3	1193,781
376,8	1101,095
377,2	1016,781
377,7	928,01
378,2	842,838
378,6	773,781
379,1	711,61
379,5	651,267
380	601,981
380,4	548,495
380,9	506,067
381,4	461,781
381,8	427,152
382,3	394,981
382,7	363,867
383,2	334,667
383,6	311,638
384,1	293,61
384,6	276,838
385	256,181
385,5	237,41
385,9	223,038
386,4	205,552
386,8	194,295
387,3	179,695
387,7	167,038
388,2	158,352
388,7	146,552
389,1	135,781
389,6	127,067
390	117,352
390,5	114,152
390,9	106,752
391,4	97,381
391,9	89,724
392,3	85,952
392,8	76,067
393,2	69,552
393,7	59,438
394,1	56,867
394,6	47,981
395,1	49,952
395,5	44,524
396	46,724
396,4	47,181
396,9	47,838
397,3	49,41
397,8	51,895
398,2	45,467
398,7	46,867
399,2	46,21
399,6	45,095
400,1	45,552
400,5	40,524
401	41,438
401,4	40,352
401,9	41,981
402,4	42,752
402,8	41,067
403,3	45,61
403,7	45,552
404,2	48,181
404,6	55,924
405,1	52,895
405,5	53,467
406	54,867
406,5	45,581
406,9	50,924
407,4	48,867
407,8	48,752
408,3	52,295
408,7	55,238
409,2	61,524
409,6	69,752
410,1	72,038
410,6	81,667
411	84,81
411,5	91,41
411,9	98,152
412,4	103,467
412,8	108,981
413,3	119,667
413,7	121,952
414,2	131,01
414,7	142,038
415,1	155,524
415,6	164,895
416	173,21
416,5	179,581
416,9	187,467
417,4	200,552
417,8	209,352
418,3	218,61
418,8	229,181
419,2	244,724
419,7	255,638
420,1	275,752
420,6	288,952
421	301,467
421,5	313,067
421,9	326,124
422,4	338,981
422,8	355,295
423,3	364,267
423,8	374,638
424,2	392,867
424,7	409,124
425,1	431,324
425,6	456,981
426	473,781
426,5	502,638
426,9	531,41
427,4	552,267
427,9	572,695
428,3	601,695
428,8	629,124
429,2	661,01
429,7	691,267
430,1	716,667
430,6	752,524
431	790,867
431,5	824,781
431,9	857,867
432,4	903,238
432,8	941,181
433,3	992,324
433,8	1033,181
434,2	1082,438
434,7	1138,067
435,1	1192,695
435,6	1248,838
436	1309,467
436,5	1370,267
436,9	1432,724
437,4	1499,124
437,8	1566,01
438,3	1634,581
438,8	1700,867
439,2	1778,21
439,7	1851,838
440,1	1937,81
440,6	2024,495
441	2105,495
441,5	2195,667
441,9	2296,152
442,4	2387,038
442,8	2489,81
443,3	2598,124
443,7	2707,095
444,2	2817,381
444,7	2936,81
445,1	3052,952
445,6	3180,524
446	3301,838
446,5	3419,61
446,9	3541,352
447,4	3673,781
447,8	3808,095
448,3	3949,152
448,7	4088,867
449,2	4235,438
449,6	4387,324
450,1	4543,952
450,6	4703,438
451	4856,381
451,5	5008,752
451,9	5170,981
452,4	5339,067
452,8	5502,581
453,3	5673,21
453,7	5841,638
454,2	6025,895
454,6	6210,152
455,1	6396,467
455,5	6580,295
456	6778,238
456,4	6958,495
456,9	7158,61
457,3	7349,295
457,8	7545,01
458,3	7740,924
458,7	7943,895
459,2	8144,381
459,6	8353,124
460,1	8558,981
460,5	8763,81
461	8979,867
461,4	9186,067
461,9	9399,41
462,3	9617,181
462,8	9838,152
463,2	10051,181
463,7	10275,752
464,1	10494,21
464,6	10722,181
465	10933,095
465,5	11149,495
466	11365,981
466,4	11582,895
466,9	11787,724
467,3	11998,581
467,8	12208,752
468,2	12422,867
468,7	12632,01
469,1	12841,181
469,6	13045,267
470	13259,238
470,5	13454,752
470,9	13640,01
471,4	13842,267
471,8	14032,124
472,3	14230,152
472,7	14428,952
473,2	14612,552
473,6	14795,695
474,1	14990,238
474,5	15167,695
475	15343,067
475,4	15511,038
475,9	15665,467
476,4	15828,181
476,8	15990,067
477,3	16132,267
477,7	16290,124
478,2	16436,21
478,6	16576,01
479,1	16712,01
479,5	16853,61
480	16979,067
480,4	17113,295
480,9	17223,581
481,3	17335,524
481,8	17445,924
482,2	17552,238
482,7	17646,067
483,1	17734,524
483,6	17816,638
484	17890,895
484,5	17963,067
484,9	18025,867
485,4	18082,61
485,8	18113,095
486,3	18156,981
486,7	18197,01
487,2	18228,352
487,6	18264,324
488,1	18284,381
488,5	18304,895
489	18346,438
489,4	18364,781
489,9	18371,61
490,4	18370,867
490,8	18358,81
491,3	18354,638
491,7	18336,038
492,2	18300,781
492,6	18279,81
493,1	18237,438
493,5	18195,724
494	18145,895
494,4	18092,81
494,9	18038,61
495,3	17981,267
495,8	17903,81
496,2	17847,695
496,7	17788,581
497,1	17733,267
497,6	17657,781
498	17591,81
498,5	17518,895
498,9	17446,352
499,4	17375,295
499,8	17295,067
500,3	17206,752
500,7	17119,495
501,2	17018,924
501,6	16914,752
502,1	16814,324
502,5	16710,61
503	16603,295
503,4	16497,038
503,9	16392,895
504,3	16285,095
504,8	16177,21
505,2	16081,981
505,7	15959,581
506,1	15854,638
506,6	15731,667
507	15611,295
507,5	15502,238
507,9	15385,724
508,4	15250,581
508,8	15134,524
509,3	14996,352
509,7	14877,467
510,2	14751,924
510,6	14616,581
511,1	14493,838
511,5	14362,01
512	14228,867
512,4	14104,41
512,9	13970,21
513,3	13840,352
513,8	13703,438
514,2	13562,667
514,7	13428,724
515,1	13290,952
515,6	13153,152
516	13010,895
516,5	12873,352
516,9	12740,81
517,4	12621,41
517,8	12499,295
518,3	12369,01
518,7	12242,152
519,2	12117,981
519,6	11985,552
520,1	11865,724
520,5	11725,21
521	11589,724
521,4	11461,667
521,9	11336,838
522,3	11212,981
522,8	11100,952
523,2	10976,381
523,7	10853,181
524,1	10737,952
524,6	10620,438
525	10500,695
525,5	10384,238
525,9	10266,381
526,4	10144,752
526,8	10037,352
527,3	9926,21
527,7	9823,581
528,2	9713,124
528,6	9606,21
529,1	9490,152
529,5	9394,181
530	9292,581
530,4	9188,724
530,9	9081,752
531,3	8986,981
531,8	8883,781
532,2	8785,038
532,6	8676,952
533,1	8573,01
533,5	8474,695
534	8379,638
534,4	8281,495
534,9	8195,552
535,3	8109,467
535,8	8023,581
536,2	7937,667
536,7	7855,981
537,1	7768,524
537,6	7688,067
538	7609,295
538,5	7526,267
538,9	7440,124
539,4	7359,724
539,8	7278,067
540,3	7209,61
540,7	7135,41
541,2	7050,895
541,6	6981,267
542,1	6916,524
542,5	6848,352
543	6782,81
543,4	6705,581
543,9	6635,952
544,3	6578,267
544,8	6508,581
545,2	6442,695
545,7	6375,61
546,1	6307,124
546,5	6250,181
547	6184,152
547,4	6118,438
547,9	6055,981
548,3	5998,524
548,8	5945,495
549,2	5888,181
549,7	5824,638
550,1	5774,295
550,6	5718,067
551	5667,267
551,5	5613,152
551,9	5562,352
552,4	5513,381
552,8	5467,61
553,3	5413,21
553,7	5367,295
554,2	5323,067
554,6	5277,981
555,1	5232,867
555,5	5182,924
555,9	5137,21
556,4	5095,467
556,8	5044,495
557,3	4996,238
557,7	4955,81
558,2	4910,124
558,6	4874,295
559,1	4834,524
559,5	4789,295
560	4755,581
560,4	4725,467
560,9	4683,352
561,3	4642,095
561,8	4606,524
562,2	4575,467
562,7	4539,438
563,1	4506,324
563,6	4458,61
564	4421,067
564,4	4390,295
564,9	4351,324
565,3	4307,781
565,8	4279,295
566,2	4248,181
566,7	4219,095
567,1	4193,952
567,6	4159,867
568	4128,895
568,5	4102,067
568,9	4068,01
569,4	4030,438
569,8	4003,01
570,3	3969,238
570,7	3935,838
571,1	3915,81
571,6	3884,495
572	3864,352
572,5	3837,038
572,9	3807,467
573,4	3782,667
573,8	3760,381
574,3	3726,838
574,7	3697,552
575,2	3662,781
575,6	3631,724
576,1	3611,067
576,5	3587,867
576,9	3564,21
577,4	3538,067
577,8	3510,752
578,3	3487,895
578,7	3469,724
579,2	3442,495
579,6	3407,81
580,1	3386,667
580,5	3363,581
581	3350,381
581,4	3322,61
581,9	3300,924
582,3	3279,667
582,7	3264,21
583,2	3235,324
583,6	3215,838
584,1	3191,638
584,5	3172,095
585	3152,467
585,4	3126,181
585,9	3108,152
586,3	3099,352
586,8	3077,638
587,2	3054,81
587,6	3042,924
588,1	3028,752
588,5	3010,524
589	2992,324
589,4	2959,524
589,9	2937,295
590,3	2923,267
590,8	2902,41
591,2	2877,438
591,7	2874,352
592,1	2853,81
592,5	2842,524
593	2825,124
593,4	2807,981
593,9	2788,352
594,3	2774,324
594,8	2743,867
595,2	2726,667
595,7	2706,81
596,1	2698,124
596,6	2680,324
597	2666,867
597,4	2651,838
597,9	2639,124
598,3	2628,895
598,8	2613,324
599,2	2589,267
599,7	2572,638
600,1	2559,895
600,6	2543,181
601	2528,724
601,4	2517,124
601,9	2509,152
602,3	2500,895
602,8	2488,41
603,2	2470,552
603,7	2455,552
604,1	2440,895
604,6	2427,638
605	2406,552
605,4	2396,067
605,9	2382,467
606,3	2365,752
606,8	2352,21
607,2	2337,895
607,7	2315,124
608,1	2308,61
608,6	2291,781
609	2285,752
609,4	2282,01
609,9	2266,981
610,3	2259,467
610,8	2252,152
611,2	2238,524
611,7	2224,752
612,1	2203,981
612,6	2187,324
613	2174,181
613,4	2159,181
613,9	2144,067
614,3	2130,467
614,8	2122,467
615,2	2114,667
615,7	2105,467
616,1	2095,01
616,6	2082,267
617	2068,895
617,4	2061,181
617,9	2043,381
618,3	2028,438
618,8	2015,495
619,2	2005,867
619,7	1993,924
620,1	1978,21
620,5	1965,581
621	1950,895
621,4	1940,295
621,9	1924,638
622,3	1910,695
622,8	1894,924
623,2	1886,352
623,6	1871,667
624,1	1864,324
624,5	1852,352
625	1850,838
625,4	1841,838
625,9	1835,981
626,3	1819,21
626,8	1804,267
627,2	1798,952
627,6	1782,695
628,1	1763,952
628,5	1751,867
629	1738,724
629,4	1735,038
629,9	1725,181
630,3	1707,352
630,7	1696,381
631,2	1686,552
631,6	1674,324
632,1	1662,952
632,5	1645,124
633	1632,352
633,4	1624,781
633,8	1614,067
634,3	1595,867
634,7	1584,267
635,2	1570,067
635,6	1570,895
636,1	1562,924
636,5	1547,552
636,9	1536,438
637,4	1529,924
637,8	1517,01
638,3	1508,124
638,7	1492,524
639,2	1483,21
639,6	1477,952
640	1470,952
640,5	1464,124
640,9	1456,324
641,4	1450,695
641,8	1440,638
642,2	1430,981
642,7	1421,41
643,1	1417,295
643,6	1412,524
644	1406,838
644,5	1401,867
644,9	1394,667
645,3	1387,895
645,8	1374,238
646,2	1359,238
646,7	1345,295
647,1	1337,095
647,6	1325,324
648	1317,524
648,4	1305,695
648,9	1304,81
649,3	1296,552
649,8	1291,952
650,2	1281,124
650,6	1275,667
651,1	1267,381
651,5	1266,181
652	1251,752
652,4	1246,867
652,9	1241,095
653,3	1236,752
653,7	1224,81
654,2	1215,152
654,6	1198,781
655,1	1200,752
655,5	1197,381
655,9	1182,124
656,4	1175,724
656,8	1170,552
657,3	1164,01
657,7	1159,238
658,2	1146,695
658,6	1135,467
659	1131,095
659,5	1119,695
659,9	1108,581
660,4	1101,952
660,8	1093,724
661,2	1085,638
661,7	1081,924
662,1	1073,61
662,6	1065,867
663	1060,752
663,4	1054,21
663,9	1048,152
664,3	1039,438
664,8	1029,324
665,2	1017,981
665,6	1011,41
666,1	1007,21
666,5	998,438
667	989,438
667,4	983,695
667,9	974,352
668,3	970,295
668,7	963,495
669,2	954,352
669,6	947,61
670,1	944,467
670,5	936,238
670,9	929,667
671,4	921,895
671,8	916,552
672,3	915,724
672,7	913,838
673,1	904,952
673,6	896,181
674	893,324
674,5	888,038
674,9	875,61
675,3	863,838
675,8	857,781
676,2	850,695
676,7	846,038
677,1	840,352
677,5	835,895
678	834,438
678,4	832,124
678,9	820,381
679,3	817,924
679,7	811,438
680,2	799,952
680,6	789,438
681,1	786,638
681,5	778,867
681,9	775,638
682,4	766,724
682,8	762,267
683,3	761,324
683,7	760,552
684,1	750,467
684,6	741,838
685	734,581
685,5	729,81
685,9	720,81
686,3	710,81
686,8	708,752
687,2	706,695
687,7	702,01
688,1	696,524
688,5	694,152
689	693,495
689,4	690,238
689,9	681,552
690,3	672,838
690,7	672,638
691,2	672,095
691,6	662,581
692	656,495
692,5	657,495
692,9	652,61
693,4	648,638
693,8	641,124
694,2	630,238
694,7	627,01
695,1	620,038
695,6	616,552
696	611,467
696,4	607,267
696,9	598,581
697,3	593,781
697,8	591,124
698,2	584,467
698,6	577,924
699,1	576,552
699,5	575,952
699,9	572,867
700,4	568,495
700,8	564,238
701,3	565,381
701,7	555,552
702,1	548,981
702,6	541,781
703	540,61
703,5	540,095
703,9	535,267
704,3	532,467
704,8	531,238
705,2	524,752
705,6	519,981
706,1	517,781
706,5	509,495
707	510,124
707,4	506,867
707,8	501,324
708,3	499,838
708,7	497,124
709,2	487,924
709,6	489,752
710	485,924
710,5	479,981
710,9	479,924
711,3	476,61
711,8	474,095
712,2	474,267
712,7	466,352
713,1	459,581
713,5	458,438
714	453,524
714,4	449,895
714,8	449,01
715,3	442,524
715,7	443,61
716,2	438,21
716,6	436,295
717	430,295
717,5	423,238
717,9	421,438
718,3	417,638
718,8	410,867
719,2	410,124
719,7	404,61
720,1	403,952
720,5	406,781
721	400,381
721,4	399,81
721,8	402,038
722,3	396,61
722,7	393,867
723,2	385,381
723,6	374,038
724	368,181
724,5	366,81
724,9	362,038
725,3	358,952
725,8	357,01
726,2	358,495
726,7	362,838
727,1	362,952
727,5	358,724
728	352,295
728,4	347,838
728,8	344,41
729,3	341,638
729,7	333,495
730,1	330,981
730,6	329,438
731	325,981
731,5	325,495
731,9	319,838
732,3	319,724
732,8	324,381
733,2	320,752
733,6	318,067
734,1	319,381
734,5	317,41
734,9	316,238
735,4	312,581
735,8	303,524
736,3	307,01
736,7	302,038
737,1	299,124
737,6	302,752
738	302,581
738,4	296,952
738,9	299,895
739,3	296,724
739,7	293,838
740,2	290,095
740,6	293,181
741,1	293,695
741,5	288,952
741,9	292,552
742,4	294,095
742,8	294,495
743,2	296,381
743,7	282,152
744,1	274,61
744,5	276,552
745	265,924
745,4	258,21
745,8	256,667
746,3	252,924
746,7	256,952
747,2	258,095
747,6	262,667
748	265,238
748,5	265,495
748,9	263,867
749,3	260,152
749,8	259,867
750,2	257,152
750,6	250,324
751,1	248,524
751,5	244,552
751,9	239,752
752,4	241,552
752,8	238,895
753,3	236,124
753,7	239,067
754,1	233,324
754,6	231,124
755	233,667
755,4	230,524
755,9	225,267
756,3	226,01
756,7	219,638
757,2	223,41
757,6	227,695
758	224,781
758,5	223,267
758,9	226,267
759,3	224,695
759,8	224,067
760,2	220,267
760,6	214,781
761,1	209,981
761,5	205,81
761,9	199,238
762,4	196,152
762,8	195,267
763,3	194,638
763,7	194,752
764,1	197,981
764,6	202,467
765	206,352
765,4	210,038
765,9	212,638
766,3	212,238
766,7	206,81
767,2	205,352
767,6	204,552
768	198,724
768,5	194,238
768,9	191,581
769,3	190,695
769,8	191,638
770,2	192,638
770,6	188,952
771,1	194,667
771,5	195,438
771,9	191,124
772,4	191,324
772,8	189,467
773,2	185,552
773,7	185,324
774,1	179,124
774,5	171,524
775	168,524
775,4	165,952
775,8	164,467
776,3	166,695
776,7	163,695
777,1	160,61
777,6	165,581
778	172,295
778,4	167,752
778,9	169,438
779,3	164,724
779,7	167,381
780,2	167,638
780,6	167,295
781	160,895
781,5	159,41
781,9	156,61
782,3	152,41
782,8	148,524
783,2	149,495
783,6	151,038
784,1	149,895
784,5	147,581
784,9	146,638
785,4	148,752
785,8	150,352
786,2	150,152
786,7	146,781
787,1	150,952
787,5	149,381
788	148,21
788,4	151,21
788,8	149,238
789,3	144,695
789,7	140,867
790,1	135,524
790,6	139,695
791	137,124
791,4	136,238
791,9	129,41
792,3	129,81
792,7	132,038
793,2	128,438
793,6	129,867
794	128,638
794,5	121,724
794,9	127,81
795,3	131,467
795,8	127,21
796,2	129,552
796,6	125,295
797,1	124,695
797,5	124,467
797,9	120,924
798,4	114,552
798,8	115,267
799,2	109,238
799,7	111,924
800,1	109,467
800,5	112,667
801	115,067
801,4	114,352
801,8	111,638
802,2	114,924
802,7	108,895
803,1	110,981
803,5	110,324
804	106,667
804,4	108,838
804,8	111,352
805,3	113,01
805,7	116,867
806,1	116,352
806,6	115,124
807	112,752
807,4	109,895
807,9	104,181
808,3	99,981
808,7	98,324
809,2	98,352
809,6	103,495
810	106,067
810,4	102,381
810,9	102,981
811,3	109,324
811,7	107,21
812,2	110,61
812,6	99,695
813	98,181
813,5	100,724
813,9	100,552
814,3	94,552
814,8	93,21
815,2	84,467
815,6	85,381
816,1	83,495
816,5	85,352
816,9	90,038
817,3	87,038
817,8	91,61
818,2	94,838
818,6	93,381
819,1	95,295
819,5	89,895
819,9	87,152
820,4	91,381
820,8	85,152
821,2	82,124
821,7	86,152
822,1	85,581
822,5	90,724
822,9	87,781
823,4	85,467
823,8	92,01
824,2	95,352
824,7	92,352
825,1	88,01
825,5	83,21
826	78,867
826,4	75,152
826,8	66,552
827,3	65,781
827,7	61,495
828,1	64,952
828,5	64,924
829	64,638
829,4	68,267
829,8	67,267
830,3	65,952
830,7	64,61
831,1	61,952
831,6	61,067
832	63,895
832,4	61,21
832,8	62,41
833,3	60,267
833,7	61,124
834,1	61,324
834,6	60,038
835	61,238
835,4	60,838
835,8	55,924
836,3	55,381
836,7	58,981
837,1	54,952
837,6	60,095
838	54,324
838,4	51,152
838,9	56,61
839,3	54,695
839,7	52,181
840,1	51,638
840,6	46,781
841	51,01
841,4	54,981
841,9	56,038
842,3	55,524
842,7	59,467
843,1	61,524
843,6	61,552
844	58,381
844,4	58,552
844,9	57,952
845,3	56,952
845,7	53,895
846,2	55,038
846,6	55,238
847	59,267
847,4	61,438
847,9	58,467
848,3	60,981
848,7	58,895
849,2	57,267
849,6	50,181
850	51,467
850,4	47,41
850,9	50,01
851,3	49,067
851,7	47,438
852,2	46,924
852,6	56,981
853	57,324
853,4	53,467
853,9	47,695
854,3	48,695
854,7	54,981
855,2	54,495
855,6	48,781
856	39,667
856,4	41,524
856,9	42,924
857,3	42,152
857,7	38,352
858,2	42,867
858,6	45,181
859	49,61
859,4	51,924
859,9	48,895
860,3	46,552
860,7	43,21
861,1	40,61
861,6	40,724
862	38,581
862,4	31,838
862,9	36,638
863,3	37,581
863,7	38,724
864,1	38,324
864,6	34,238
865	35,838
865,4	41,552
865,9	41,838
866,3	39,438
866,7	39,895
867,1	35,181
867,6	36,581
868	34,638
868,4	30,295
868,8	29,067
869,3	30,924
869,7	30,21
870,1	31,695
870,6	27,181
871	9,495
871,4	15,81
871,8	12,981
872,3	13,41
872,7	19,238
873,1	17,352
873,5	21,41
874	35,067
874,4	33,324
874,8	30,724
875,3	31,61
875,7	24,724
876,1	28,667
876,5	27,924
877	29,924
877,4	24,352
877,8	29,81
878,2	30,524
878,7	34,552
879,1	31,924
879,5	30,667
879,9	33,181
880,4	32,781
880,8	29,381
881,2	26,067
881,7	21,61
882,1	25,067
882,5	21,21
882,9	21,41
883,4	24,067
883,8	25,838
884,2	27,295
884,6	26,41
885,1	23,952
885,5	26,667
885,9	26,181
886,3	27,067
886,8	21,381
887,2	17,924
887,6	16,724
888	11,838
888,5	11,238
888,9	8,181
889,3	3,524
889,8	9,895
890,2	9,295
890,6	10,581
891	17,552
891,5	17,381
891,9	19,181
892,3	25,124
892,7	22,638
893,2	24,095
893,6	26,781
894	21,381
894,4	21,324
894,9	18,038
895,3	12,41
895,7	14,01
896,1	14,752
896,6	14,01
897	16,467
897,4	19,21
897,8	22,267
898,3	24,581
898,7	18,952
899,1	17,524
899,5	16,552
900	9,152
900,4	6,467
900,8	4,41
901,2	3,552
901,7	8,924
902,1	11,752
902,5	13,695
902,9	17,781
903,4	19,724
903,8	21,095
904,2	24,981
904,6	23,181
905,1	22,695
905,5	20,01
905,9	21,924
906,3	20,638
906,8	23,81
907,2	20,295
907,6	18,581
908	20,838
908,5	19,095
908,9	15,981
909,3	14,038
909,7	13,838
910,2	15,667
910,6	19,352
911	9,781
911,4	9,438
911,9	9,981
912,3	13,781
912,7	14,495
913,1	12,381
913,6	6,495
914	10,524
914,4	10,752
914,8	12,81
915,3	9,552
915,7	4,495
916,1	5,781
916,5	10,724
916,9	9,152
917,4	12,752
917,8	12,381
918,2	8,581
918,6	6,381
919,1	4,895
919,5	5,838
919,9	9,981
920,3	4,581
920,8	2,352
921,2	7,524
921,6	5,467
922	5,724
922,5	4,61
922,9	4,552
923,3	4,724
923,7	6,495
924,2	3,638
924,6	7,81
925	8,781
925,4	3,352
925,8	-0,619
926,3	0,295
926,7	-1,99
927,1	-2,676
927,5	-1,619
928	-5,419
928,4	-2,133
928,8	-0,733
929,2	0,124
929,7	4,352
930,1	8,095
930,5	7,01
930,9	11,295
931,3	14,124
931,8	17,038
932,2	18,152
932,6	16,81
933	10,838
933,5	11,467
933,9	9,781
934,3	7,267
934,7	2,895
935,2	3,61
935,6	0,038
936	4,438
936,4	4,238
936,8	8,495
937,3	9,152
937,7	13,324
938,1	15,752
938,5	14,352
939	16,695
939,4	17,895
939,8	14,21
940,2	13,524
940,6	12,267
941,1	7,981
941,5	12,81
941,9	5,867
942,3	2,324
942,8	1,895
943,2	0,952
943,6	-6,076
944	-5,133
944,4	-6,733
944,9	-5,962
945,3	-4,333
945,7	-8,048
946,1	-11,933
946,6	-9,133
947	-9,962
947,4	-4,248
947,8	-1,276
948,2	-2,476
948,7	0,124
949,1	3,41
949,5	8,038
949,9	9,01
950,3	5,181
950,8	7,495
951,2	6,095
951,6	-0,962
952	5,695
952,5	-0,505
952,9	1,01
953,3	0,638
953,7	-3,99
954,1	1,952
954,6	10,267
955	8,381
955,4	11,552
955,8	12,324
956,2	11,981
956,7	16,067
957,1	9,295
957,5	9,381
957,9	7,181
958,3	9,867
958,8	7,01
959,2	9,524
959,6	10,781
960	10,067
960,5	12,695
960,9	14,524
961,3	10,438
961,7	8,21
962,1	5,295
962,6	2,981
963	5,41
963,4	-0,933
963,8	-7,105
964,2	-6,79
964,7	-3,333
965,1	0,981
965,5	0,067
965,9	3,752
966,3	8,295
966,8	10,61
967,2	14,267
967,6	11,238
968	5,41
968,4	8,352
968,9	8,095
969,3	13,41
969,7	12,81
970,1	12,267
970,5	12,952
971	17,01
971,4	14,238
971,8	14,01
972,2	6,895
972,6	5,01
973,1	1,895
973,5	0,467
973,9	-1,476
974,3	0,124
974,7	-0,019
975,2	2,724
975,6	3,552
976	8,552
976,4	5,552
976,8	6,21
977,3	6,124
977,7	2,81
978,1	-1,59
978,5	-3,305
978,9	-7,476
979,4	-3,733
979,8	-2,39
980,2	-6,019
980,6	-6,476
981	-0,705
981,5	4,124
981,9	3,038
982,3	6,381
982,7	-0,648
983,1	-2,448
983,6	0,981
984	-3,533
984,4	-4,419
984,8	-3,162
985,2	-6,676
985,6	-4,133
986,1	3,181
986,5	4,267
986,9	7,952
987,3	10,095
987,7	11,867
988,2	12,181
988,6	13,152
989	7,638
989,4	8,067
989,8	1,438
990,3	-2,476
990,7	-3,619
991,1	-0,962
991,5	-0,105
991,9	7,267
992,3	3,01
992,8	3,238
993,2	6,152
993,6	8,952
994	8,581
994,4	8,124
994,9	1,181
995,3	1,495
995,7	0,324
996,1	0,238
996,5	-4,505
996,9	-8,19
997,4	-9,133
997,8	-11,162
998,2	-10,876
998,6	-12,105
999	-12,448
999,5	-10,448
999,9	-9,019
1000,3	-8,705
1000,7	-9,419
1001,1	-8,59
1001,5	-1,505
1002	2,81
1002,4	3,61
1002,8	2,667
1003,2	4,981
1003,6	9,324
1004	12,981
1004,5	8,267
1004,9	4,267
1005,3	0,724
1005,7	5,552
1006,1	4,295
1006,6	4,324
1007	2,438
1007,4	3,781
1007,8	5,352
1008,2	6,467
1008,6	6,752
1009,1	4,552
1009,5	3,181
1009,9	1,152
1010,3	2,381
1010,7	4,781
1011,1	4,095
1011,6	0,952
1012	2,724
1012,4	1,01
1012,8	2,267
1013,2	4,21
1013,6	-2,933
1014,1	-4,076
1014,5	-4,99
1014,9	-8,019
1015,3	-7,905
1015,7	-8,933
1016,1	-8,305
1016,6	-4,562
1017	3,81
1017,4	7,695
1017,8	13,381
1018,2	18,952
1018,6	16,495
1019,1	12,552
1019,5	9,952
1019,9	0,867
1020,3	-0,448
1020,7	-4,619
1021,1	-6,648
1021,6	-4,19
1022	-2,876
1022,4	-2,848
1022,8	3,295
1023,2	2,81
1023,6	1,981
1024,1	7,781
1024,5	7,467
1024,9	6,581
1025,3	7,152
1025,7	7,495
1026,1	9,895
1026,6	15,01
1027	10,038
1027,4	7,352
1027,8	6,981
1028,2	5,667
1028,6	6,495
1029	1,352
1029,5	2,524
1029,9	-1,448
1030,3	0,895
1030,7	1,695
1031,1	8,667
1031,5	0,638
1032	2,552
1032,4	1,524
1032,8	6,667
1033,2	10,867
1033,6	12,038
1034	10,095
1034,4	14,724
1034,9	15,524
1035,3	10,638
1035,7	10,581
1036,1	8,181
1036,5	7,952
1036,9	4,552
1037,4	5,924
1037,8	2,067
1038,2	4,924
1038,6	1,695
1039	5,81
1039,4	8,781
1039,8	3,21
1040,3	4,895
1040,7	6,152
1041,1	5,724
1041,5	8,81
1041,9	1,952
1042,3	-1,933
1042,7	3,152
1043,2	0,295
1043,6	-3,048
1044	-3,705
1044,4	-4,219
1044,8	-1,79
1045,2	-2,219
1045,6	-1,619
1046,1	-3,076
1046,5	3,067
1046,9	1,41
1047,3	-2,962
1047,7	-5,305
1048,1	-5,848
1048,5	-5,133
1049	0,295
1049,4	1,295
1049,8	6,61
1050,2	11,21
1050,6	14,61
1051	14,01
1051,4	14,695
1051,9	7,667
1052,3	12,01
1052,7	7,952
1053,1	2,038
1053,5	2,781
1053,9	7,41
1054,3	5,21
1054,8	11,81
1055,2	8,21
1055,6	10,752
1056	18,01
1056,4	15,81
1056,8	13,552
1057,2	12,324
1057,6	4,895
1058,1	0,067
1058,5	-1,962
1058,9	-4,933
1059,3	-2,619
1059,7	-4,619
1060,1	-5,876
1060,5	-0,676
1061	2,895
1061,4	1,324
1061,8	4,295
1062,2	0,295
1062,6	6,267
1063	9,552
1063,4	11,61
1063,8	10,495
1064,3	6,238
1064,7	4,124
1065,1	8,41
1065,5	0,924
1065,9	0,552
1066,3	-3,476
1066,7	-5,133
1067,1	-1,248
1067,6	2,324
1068	-2,819
1068,4	2,638
1068,8	7,267
1069,2	4,21
1069,6	3,095
1070	9,552
1070,4	5,21
1070,9	5,524
1071,3	2,667
1071,7	-2,99
1072,1	0,638
1072,5	0,324
1072,9	-5,79
1073,3	-3,533
1073,7	-1,762
1074,2	-2,333
1074,6	2,838
1075	1,124
1075,4	4,61
1075,8	11,324
1076,2	8,638
1076,6	9,095
1077	7,152
1077,5	4,41
1077,9	2,352
1078,3	0,095
1078,7	-7,19
1079,1	-5,333
1079,5	-5,276
1079,9	-2,705
1080,3	-3,448
1080,7	-0,105
1081,2	5,124
1081,6	6,295
1082	3,638
1082,4	7,924
1082,8	10,495
1083,2	10,867
1083,6	9,152
1084	6,667
1084,5	8,324
1084,9	6,895
1085,3	-0,676
1085,7	-4,476
1086,1	-3,905
1086,5	0,724
1086,9	1,552
1087,3	1,038
1087,7	4,352
1088,2	11,21
1088,6	12,038
1089	16,41
1089,4	13,61
1089,8	9,324
1090,2	11,552
1090,6	12,124
1091	13,124
1091,4	15,324
1091,9	10,381
1092,3	12,895
1092,7	14,095
1093,1	18,01
1093,5	17,524
1093,9	12,381
1094,3	13,267
1094,7	10,61
1095,1	9,438
1095,5	11,695
1096	3,581
1096,4	4,01
1096,8	5,238
1097,2	-1,105
1097,6	4,981
1098	1,381
1098,4	2,695
1098,8	6,152
1099,2	8,781
1099,6	7,981
1100,1	12,638
1100,5	7,552
1100,9	9,438
1101,3	6,067
1101,7	2,381
1102,1	0,895
1102,5	6,238
1102,9	6,324
1103,3	10,895
1103,7	10,352
1104,2	11,21
1104,6	11,752
1105	8,724
1105,4	3,952
1105,8	2,924
1106,2	-1,333
1106,6	-0,476
1107	-1,048
1107,4	0,1
1107,8	1,267
1108,3	-0,233
