Data from Subt2_005.txt Node
Date: Sat Aug 26 16:10:29 MSK 2023
User: vat
Spectrometer: MAYP114033
Trigger mode: 0
Integration Time (sec): 1,000000E0
Scans to average: 5
Electric dark correction enabled: true
Nonlinearity correction enabled: false
Boxcar width: 3
XAxis mode: Wavelengths
Number of Pixels in Spectrum: 2068
>>>>>Begin Spectral Data<<<<<
199,4	-0,883
199,9	-0,613
200,4	-1,8
200,8	-4,133
201,3	-2,59
201,8	-3,305
202,2	-3,419
202,7	-2,19
203,2	-4,933
203,6	1,095
204,1	5,924
204,6	6,067
205	10,152
205,5	10,781
206	11,724
206,4	12,295
206,9	10,152
207,4	6,352
207,8	8,61
208,3	5,267
208,8	5,01
209,2	2,067
209,7	5,067
210,2	3,467
210,6	6,381
211,1	5,438
211,5	6,724
212	9,324
212,5	12,952
212,9	17,152
213,4	15,181
213,9	15,667
214,3	10,41
214,8	13,181
215,3	11,495
215,7	13,638
216,2	10,01
216,7	11,581
217,1	9,324
217,6	10,952
218,1	8,838
218,5	6,61
219	-3,705
219,5	-1,162
219,9	-4,733
220,4	1,724
220,9	-1,533
221,3	-2,562
221,8	-6,79
222,3	-1,848
222,7	-8,505
223,2	-5,419
223,6	-8,733
224,1	-8,619
224,6	-12,848
225	-5,562
225,5	-2,562
226	-1,59
226,4	-2,305
226,9	-1,19
227,4	9,01
227,8	14,01
228,3	11,41
228,8	9,781
229,2	11,867
229,7	11,81
230,2	10,467
230,6	3,581
231,1	4,781
231,5	8,152
232	4,21
232,5	8,352
232,9	10,552
233,4	11,352
233,9	7,552
234,3	2,867
234,8	0,438
235,3	8,552
235,7	2,438
236,2	0,638
236,7	-0,248
237,1	4,352
237,6	5,267
238,1	6,724
238,5	2,152
239	7,952
239,4	12,838
239,9	11,038
240,4	9,01
240,8	9,067
241,3	6,981
241,8	9,61
242,2	5,181
242,7	3,667
243,2	2,981
243,6	9,638
244,1	10,838
244,6	6,067
245	2,924
245,5	3,61
245,9	4,952
246,4	5,952
246,9	0,781
247,3	0,152
247,8	5,952
248,3	1,124
248,7	2,581
249,2	-0,705
249,7	1,581
250,1	1,01
250,6	2,895
251	0,01
251,5	7,552
252	8,924
252,4	8,838
252,9	6,552
253,4	7,381
253,8	3,838
254,3	6,867
254,8	4,152
255,2	4,524
255,7	4,124
256,1	7,61
256,6	4,781
257,1	6,952
257,5	8,324
258	8,895
258,5	6,124
258,9	5,581
259,4	2,524
259,9	0,038
260,3	-0,448
260,8	-1,248
261,2	-1,419
261,7	-5,762
262,2	-4,762
262,6	-7,79
263,1	-4,19
263,6	-3,219
264	-6,419
264,5	-3,562
264,9	0,295
265,4	-4,99
265,9	-0,79
266,3	0,21
266,8	-2,819
267,3	-4,419
267,7	-5,905
268,2	-8,476
268,7	-4,448
269,1	-6,762
269,6	-9,733
270	-10,162
270,5	-10,59
271	-12,533
271,4	-14,048
271,9	-13,248
272,4	-12,819
272,8	-4,476
273,3	-1,248
273,7	5,467
274,2	2,352
274,7	7,495
275,1	10,352
275,6	8,495
276,1	7,781
276,5	6,61
277	-0,99
277,4	2,638
277,9	1,952
278,4	-0,419
278,8	3,067
279,3	-0,39
279,8	1,21
280,2	8,21
280,7	8,781
281,1	7,21
281,6	4,638
282,1	1,724
282,5	-0,562
283	3,467
283,4	-2,105
283,9	-2,533
284,4	-0,248
284,8	3,095
285,3	4,181
285,8	7,095
286,2	2,267
286,7	2,81
287,1	4,81
287,6	3,295
288,1	2,495
288,5	-1,105
289	-2,762
289,5	0,181
289,9	0,752
290,4	-4,505
290,8	0,381
291,3	0,067
291,8	3,41
292,2	9,952
292,7	8,41
293,1	14,21
293,6	17,467
294,1	16,181
294,5	16,381
295	15,952
295,5	12,495
295,9	10,238
296,4	3,438
296,8	4,467
297,3	4,038
297,8	-0,419
298,2	0,124
298,7	0,752
299,1	1,095
299,6	4,924
300,1	8,324
300,5	9,667
301	15,41
301,5	16,61
301,9	12,352
302,4	10,61
302,8	8,524
303,3	4,181
303,8	-1,133
304,2	-1,933
304,7	1,981
305,1	4,61
305,6	8,21
306,1	10,238
306,5	11,381
307	8,667
307,4	6,238
307,9	4,838
308,4	1,552
308,8	5,467
309,3	3,695
309,8	5,324
310,2	12,295
310,7	14,867
311,1	9,552
311,6	13,467
312,1	9,21
312,5	12,038
313	7,01
313,4	4,095
313,9	0,924
314,4	6,495
314,8	5,867
315,3	6,667
315,7	9,067
316,2	10,61
316,7	8,038
317,1	10,467
317,6	8,01
318	3,838
318,5	2,752
319	3,952
319,4	1,495
319,9	0,495
320,3	-0,219
320,8	-1,876
321,3	-1,562
321,7	-0,933
322,2	-8,276
322,6	-4,648
323,1	0,41
323,6	2,952
324	2,867
324,5	10,952
324,9	6,152
325,4	8,952
325,9	2,838
326,3	3,581
326,8	3,724
327,2	2,724
327,7	-1,048
328,2	-3,533
328,6	-4,276
329,1	0,781
329,5	-3,048
330	-8,676
330,5	-6,162
330,9	-5,762
331,4	-0,333
331,8	2,638
332,3	1,695
332,8	3,495
333,2	4,952
333,7	3,552
334,1	-1,762
334,6	-3,905
335,1	-4,905
335,5	-1,819
336	-4,619
336,4	-0,533
336,9	-2,619
337,4	1,838
337,8	6,61
338,3	6,495
338,7	6,352
339,2	8,524
339,7	4,438
340,1	8,81
340,6	3,524
341	0,752
341,5	-1,419
342	1,381
342,4	8,295
342,9	13,552
343,3	10,181
343,8	14,381
344,2	14,838
344,7	18,638
345,2	15,781
345,6	10,238
346,1	6,381
346,5	11,867
347	13,067
347,5	13,895
347,9	16,295
348,4	18,781
348,8	16,581
349,3	19,867
349,8	15,752
350,2	21,124
350,7	26,781
351,1	24,352
351,6	28,067
352	31,781
352,5	39,01
353	52,952
353,4	60,667
353,9	71,352
354,3	90,181
354,8	108,667
355,3	135,181
355,7	155,295
356,2	180,981
356,6	211,924
357,1	247,724
357,5	287,352
358	335,352
358,5	391,924
358,9	462,867
359,4	542,067
359,8	624,695
360,3	722,724
360,8	830,781
361,2	951,438
361,7	1086,324
362,1	1228,352
362,6	1381,695
363	1557,01
363,5	1735,952
364	1925,667
364,4	2118,838
364,9	2309,467
365,3	2500,924
365,8	2686,581
366,3	2856,381
366,7	3014,381
367,2	3149,21
367,6	3255,067
368,1	3341,181
368,5	3403,181
369	3430,952
369,5	3427,152
369,9	3394,21
370,4	3333,524
370,8	3256,981
371,3	3155,895
371,7	3029,038
372,2	2898,667
372,7	2762,381
373,1	2614,267
373,6	2464,124
374	2313,324
374,5	2159,638
374,9	2011,524
375,4	1863,81
375,9	1720,924
376,3	1586,952
376,8	1464,21
377,2	1345,238
377,7	1238,924
378,2	1140,152
378,6	1047,552
379,1	961,01
379,5	879,61
380	802,381
380,4	734,467
380,9	670,438
381,4	613,495
381,8	561,438
382,3	519,352
382,7	486,581
383,2	455,61
383,6	422,238
384,1	391,095
384,6	361,381
385	337,381
385,5	312,095
385,9	285,552
386,4	264,724
386,8	246,924
387,3	231,038
387,7	218,838
388,2	205,924
388,7	187,981
389,1	175,095
389,6	162,638
390	148,038
390,5	136,752
390,9	128,667
391,4	118,981
391,9	114,581
392,3	107,095
392,8	98,124
393,2	94,438
393,7	93,095
394,1	85,21
394,6	77,952
395,1	71,667
395,5	69,352
396	68,667
396,4	66,524
396,9	59,438
397,3	58,267
397,8	55,41
398,2	54,295
398,7	53,952
399,2	52,067
399,6	48,267
400,1	47,981
400,5	44,438
401	44,438
401,4	45,438
401,9	43,781
402,4	43,21
402,8	45,41
403,3	50,552
403,7	56,381
404,2	58,067
404,6	57,838
405,1	58,067
405,5	58,467
406	59,924
406,5	56,238
406,9	55,324
407,4	54,81
407,8	59,838
408,3	62,038
408,7	65,21
409,2	68,981
409,6	76,695
410,1	80,581
410,6	85,638
411	88,267
411,5	96,61
411,9	104,238
412,4	116,295
412,8	117,067
413,3	122,552
413,7	129,381
414,2	139,667
414,7	145,981
415,1	151,638
415,6	154,724
416	165,895
416,5	181,21
416,9	191,724
417,4	198,324
417,8	208,552
418,3	221,724
418,8	233,01
419,2	246,267
419,7	252,438
420,1	262,667
420,6	282,524
421	296,924
421,5	310,495
421,9	325,924
422,4	342,81
422,8	361,152
423,3	384,924
423,8	397,638
424,2	417,781
424,7	439,352
425,1	459,038
425,6	477,895
426	500,095
426,5	520,981
426,9	543,924
427,4	572,495
427,9	599,238
428,3	631,181
428,8	669,181
429,2	700,581
429,7	732,324
430,1	773,552
430,6	807,524
431	844,067
431,5	882,267
431,9	917,61
432,4	963,638
432,8	1013,638
433,3	1056,124
433,8	1101,352
434,2	1153,095
434,7	1204,638
435,1	1267,381
435,6	1319,752
436	1383,238
436,5	1449,181
436,9	1516,752
437,4	1585,752
437,8	1665,181
438,3	1738,124
438,8	1821,038
439,2	1899,781
439,7	1982,295
440,1	2072,124
440,6	2166,438
441	2258,381
441,5	2353,01
441,9	2458,667
442,4	2563,952
442,8	2678,495
443,3	2793,61
443,7	2903,438
444,2	3014,467
444,7	3137,838
445,1	3254,981
445,6	3385,124
446	3515,21
446,5	3647,924
446,9	3797,038
447,4	3947,638
447,8	4100,352
448,3	4258,038
448,7	4404,552
449,2	4565,295
449,6	4728,181
450,1	4882,381
450,6	5044,295
451	5207,838
451,5	5378,752
451,9	5559,352
452,4	5734,21
452,8	5925,038
453,3	6120,467
453,7	6321,295
454,2	6515,81
454,6	6718,638
455,1	6916,324
455,5	7104,81
456	7308,267
456,4	7513,781
456,9	7722,095
457,3	7945,21
457,8	8155,41
458,3	8377,152
458,7	8612,21
459,2	8829,352
459,6	9051,895
460,1	9282,838
460,5	9500,924
461	9730,267
461,4	9951,981
461,9	10188,524
462,3	10425,867
462,8	10659,581
463,2	10883,695
463,7	11120,724
464,1	11364,238
464,6	11622,124
465	11854,038
465,5	12088,295
466	12334,438
466,4	12578,838
466,9	12813,524
467,3	13049,895
467,8	13272,124
468,2	13506,381
468,7	13741,181
469,1	13971,467
469,6	14182,181
470	14405,495
470,5	14624,267
470,9	14845,667
471,4	15055,038
471,8	15268,61
472,3	15460,552
472,7	15688,724
473,2	15899,295
473,6	16101,724
474,1	16304,724
474,5	16511,781
475	16712,81
475,4	16922,667
475,9	17102,638
476,4	17280,524
476,8	17457,581
477,3	17634,152
477,7	17803,41
478,2	17952,895
478,6	18109,181
479,1	18265,381
479,5	18408,238
480	18545,552
480,4	18668,924
480,9	18791,124
481,3	18910,41
481,8	19021,81
482,2	19127,867
482,7	19238,981
483,1	19342,295
483,6	19431,21
484	19519,181
484,5	19604,638
484,9	19679,981
485,4	19734,952
485,8	19796,238
486,3	19855,267
486,7	19909,038
487,2	19951,238
487,6	19983,61
488,1	20021,295
488,5	20058,324
489	20074,21
489,4	20080,267
489,9	20082,581
490,4	20080,238
490,8	20075,695
491,3	20055,81
491,7	20035,352
492,2	20016,21
492,6	19995,495
493,1	19949,181
493,5	19895,21
494	19839,838
494,4	19780,152
494,9	19730,181
495,3	19670,21
495,8	19598,381
496,2	19548,295
496,7	19489,867
497,1	19417,381
497,6	19342,124
498	19254,352
498,5	19168,61
498,9	19072,952
499,4	18980,695
499,8	18890,667
500,3	18801,952
500,7	18724,267
501,2	18628,752
501,6	18514,81
502,1	18412,324
502,5	18310,01
503	18212,01
503,4	18100,638
503,9	17959,324
504,3	17840,038
504,8	17729,21
505,2	17619,781
505,7	17493,552
506,1	17356,867
506,6	17223,781
507	17099,667
507,5	16969,895
507,9	16841,295
508,4	16695,124
508,8	16552,895
509,3	16420,695
509,7	16280,152
510,2	16147,438
510,6	16009,524
511,1	15868,067
511,5	15723,695
512	15580,41
512,4	15424,838
512,9	15278,752
513,3	15128,152
513,8	14974,867
514,2	14824,81
514,7	14685,638
515,1	14543,267
515,6	14413,61
516	14279,295
516,5	14135,781
516,9	13990,295
517,4	13847,61
517,8	13699,695
518,3	13560,524
518,7	13411,238
519,2	13266,638
519,6	13119,324
520,1	12986,41
520,5	12841,21
521	12697,324
521,4	12547,124
521,9	12406,924
522,3	12279,067
522,8	12148,781
523,2	12007,038
523,7	11877,095
524,1	11747,438
524,6	11610,81
525	11478,381
525,5	11348,095
525,9	11219,552
526,4	11089,524
526,8	10964,524
527,3	10846,181
527,7	10750,724
528,2	10628,924
528,6	10504,552
529,1	10388,038
529,5	10281,524
530	10170,924
530,4	10059,495
530,9	9932,952
531,3	9822,01
531,8	9721,067
532,2	9616,295
532,6	9507,838
533,1	9407,324
533,5	9293,21
534	9196,524
534,4	9109,752
534,9	9006,124
535,3	8906,695
535,8	8808,124
536,2	8710,667
536,7	8627,21
537,1	8531,467
537,6	8438,467
538	8349,867
538,5	8262,952
538,9	8173,752
539,4	8078,181
539,8	7989,581
540,3	7902,124
540,7	7810,495
541,2	7722,81
541,6	7642,952
542,1	7566,724
542,5	7489,724
543	7418,638
543,4	7344,067
543,9	7271,524
544,3	7203,524
544,8	7122,695
545,2	7048,552
545,7	6980,01
546,1	6908,181
546,5	6842,524
547	6781,581
547,4	6708,752
547,9	6643,21
548,3	6581,924
548,8	6515,381
549,2	6455,01
549,7	6395,267
550,1	6328,981
550,6	6270,924
551	6216,895
551,5	6153,438
551,9	6092,495
552,4	6028,324
552,8	5974,581
553,3	5912,667
553,7	5863,61
554,2	5817,267
554,6	5771,581
555,1	5721,924
555,5	5678,095
555,9	5634,438
556,4	5597,724
556,8	5548,924
557,3	5496,21
557,7	5455,21
558,2	5418,124
558,6	5367,495
559,1	5308,952
559,5	5260,238
560	5212,352
560,4	5170,41
560,9	5122,324
561,3	5083,324
561,8	5044,724
562,2	5006,838
562,7	4966,867
563,1	4924,124
563,6	4892,924
564	4855,467
564,4	4812,324
564,9	4778,295
565,3	4742,667
565,8	4711,581
566,2	4680,124
566,7	4639,695
567,1	4598,381
567,6	4561,095
568	4524,267
568,5	4495,667
568,9	4456,524
569,4	4426,667
569,8	4393,038
570,3	4364,41
570,7	4338,267
571,1	4306,638
571,6	4272,667
572	4244,695
572,5	4213,181
572,9	4185,467
573,4	4150,181
573,8	4124,952
574,3	4092,952
574,7	4069,552
575,2	4042,295
575,6	4010,638
576,1	3976,724
576,5	3958,867
576,9	3923,924
577,4	3899,438
577,8	3866,438
578,3	3839,01
578,7	3810,61
579,2	3792,152
579,6	3760,524
580,1	3737,038
580,5	3720,267
581	3695,152
581,4	3665,981
581,9	3643,152
582,3	3618,295
582,7	3596,267
583,2	3567,181
583,6	3533,381
584,1	3512,381
584,5	3490,095
585	3465,81
585,4	3438,695
585,9	3415,81
586,3	3407,21
586,8	3383,895
587,2	3364,381
587,6	3339,238
588,1	3324,524
588,5	3300,638
589	3280,981
589,4	3253,581
589,9	3242,981
590,3	3224,01
590,8	3203,981
591,2	3187,21
591,7	3172,01
592,1	3155,867
592,5	3136,324
593	3109,981
593,4	3086,095
593,9	3072,267
594,3	3050,324
594,8	3030,01
595,2	3011,381
595,7	2994,581
596,1	2972,152
596,6	2954,838
597	2936,838
597,4	2920,152
597,9	2909,21
598,3	2885,667
598,8	2866,952
599,2	2864,467
599,7	2854,981
600,1	2839,41
600,6	2821,01
601	2803,638
601,4	2796,124
601,9	2779,267
602,3	2758,924
602,8	2736,924
603,2	2727,581
603,7	2714,924
604,1	2700,038
604,6	2689,324
605	2677,781
605,4	2657,61
605,9	2645,61
606,3	2629,61
606,8	2617,752
607,2	2598,981
607,7	2581,467
608,1	2569,095
608,6	2558,752
609	2544,381
609,4	2525,238
609,9	2509,152
610,3	2503,381
610,8	2488,61
611,2	2468,981
611,7	2455,552
612,1	2443,952
612,6	2437,752
613	2424,524
613,4	2405,095
613,9	2389,095
614,3	2379,01
614,8	2365,781
615,2	2349,781
615,7	2329,381
616,1	2315,895
616,6	2300,981
617	2286,01
617,4	2268,381
617,9	2253,495
618,3	2237,352
618,8	2228,61
619,2	2216,295
619,7	2203,667
620,1	2191,552
620,5	2181,552
621	2172,352
621,4	2162,067
621,9	2143,81
622,3	2129,124
622,8	2115,095
623,2	2100,724
623,6	2090,381
624,1	2070,924
624,5	2053,21
625	2040,952
625,4	2023,867
625,9	2007,781
626,3	1994,038
626,8	1979,467
627,2	1972,924
627,6	1959,667
628,1	1949,21
628,5	1942,352
629	1938,095
629,4	1933,152
629,9	1923,352
630,3	1903,352
630,7	1892,724
631,2	1875,81
631,6	1856,324
632,1	1840,152
632,5	1829,01
633	1811,867
633,4	1809,038
633,8	1800,124
634,3	1787,295
634,7	1779,21
635,2	1770,381
635,6	1754,152
636,1	1746,581
636,5	1730,667
636,9	1716,695
637,4	1708,981
637,8	1696,952
638,3	1681,467
638,7	1670,552
639,2	1654,038
639,6	1641,781
640	1632,552
640,5	1619,038
640,9	1610,752
641,4	1602,067
641,8	1591,667
642,2	1581,267
642,7	1573,81
643,1	1568,581
643,6	1561,981
644	1552,295
644,5	1546,81
644,9	1539,638
645,3	1536,095
645,8	1523,438
646,2	1510,238
646,7	1496,067
647,1	1487,21
647,6	1469,81
648	1457,781
648,4	1446,324
648,9	1438,724
649,3	1431,524
649,8	1429,467
650,2	1421,352
650,6	1417,124
651,1	1411,238
651,5	1400,667
652	1399,21
652,4	1386,238
652,9	1373,552
653,3	1363,81
653,7	1358,038
654,2	1348,581
654,6	1338,952
655,1	1320,41
655,5	1314,981
655,9	1308,181
656,4	1301,61
656,8	1292,152
657,3	1280,552
657,7	1277,981
658,2	1273,067
658,6	1264,438
659	1258,581
659,5	1242,238
659,9	1233,295
660,4	1226,124
660,8	1215,667
661,2	1208,038
661,7	1198,067
662,1	1190,067
662,6	1184,952
663	1173,21
663,4	1163,152
663,9	1154,838
664,3	1147,81
664,8	1141,581
665,2	1126,752
665,6	1126,038
666,1	1122,524
666,5	1115,295
667	1110,752
667,4	1099,552
667,9	1083,581
668,3	1081,895
668,7	1069,152
669,2	1060,067
669,6	1054,181
670,1	1040,781
670,5	1029,867
670,9	1027,867
671,4	1019,21
671,8	1006,61
672,3	1000,924
672,7	993,01
673,1	986,895
673,6	982,81
674	977,438
674,5	968,467
674,9	970,324
675,3	959,981
675,8	954,381
676,2	947,895
676,7	941,838
677,1	933,895
677,5	927,467
678	916,81
678,4	914,381
678,9	911,41
679,3	903,238
679,7	898,495
680,2	896,124
680,6	889,638
681,1	885,438
681,5	874,61
681,9	868,181
682,4	860,867
682,8	853,781
683,3	844,038
683,7	838,581
684,1	823,152
684,6	814,467
685	801,638
685,5	797,781
685,9	793,238
686,3	789,638
686,8	785,295
687,2	784,524
687,7	778,21
688,1	774,61
688,5	766,438
689	756,724
689,4	746,924
689,9	741,81
690,3	735,838
690,7	733,295
691,2	730,981
691,6	725,981
692	728,238
692,5	724,181
692,9	716,352
693,4	715,21
693,8	707,438
694,2	700,295
694,7	698,752
695,1	686,438
695,6	684,467
696	679,838
696,4	675,01
696,9	677,01
697,3	668,438
697,8	665,41
698,2	664,752
698,6	659,267
699,1	657,724
699,5	654,095
699,9	648,181
700,4	643,952
700,8	636,324
701,3	632,352
701,7	629,181
702,1	624,324
702,6	616,124
703	604,667
703,5	601,924
703,9	603,41
704,3	597,867
704,8	589,81
705,2	579,352
705,6	576,295
706,1	577,838
706,5	571,895
707	566,267
707,4	560,695
707,8	557,638
708,3	552,524
708,7	551,152
709,2	545,267
709,6	541,295
710	535,467
710,5	534,01
710,9	529,781
711,3	529,467
711,8	524,381
712,2	524,181
712,7	523,01
713,1	516,867
713,5	511,924
714	511,924
714,4	507,152
714,8	497,924
715,3	492,21
715,7	482,667
716,2	478,638
716,6	473,152
717	465,724
717,5	459,495
717,9	461,467
718,3	457,324
718,8	458,724
719,2	451,724
719,7	451,295
720,1	449,924
720,5	449,867
721	438,752
721,4	436,695
721,8	431,924
722,3	427,381
722,7	422,981
723,2	416,524
723,6	411,495
724	413,952
724,5	407,438
724,9	406,038
725,3	410,324
725,8	407,438
726,2	404,981
726,7	410,438
727,1	409,381
727,5	405,21
728	396,552
728,4	392,981
728,8	384,752
729,3	383,41
729,7	375,552
730,1	369,981
730,6	369,095
731	367,324
731,5	368,324
731,9	370,41
732,3	361,21
732,8	358,467
733,2	357,552
733,6	357,41
734,1	359,552
734,5	349,467
734,9	346,752
735,4	346,01
735,8	345,924
736,3	341,838
736,7	341,21
737,1	338,724
737,6	338,524
738	334,895
738,4	338,124
738,9	339,095
739,3	337,438
739,7	337,267
740,2	336,61
740,6	334,867
741,1	332,867
741,5	330,524
741,9	320,752
742,4	318,695
742,8	311,01
743,2	308,324
743,7	308,724
744,1	306,838
744,5	303,838
745	306,924
745,4	305,467
745,8	306,267
746,3	301,295
746,7	300,524
747,2	294,552
747,6	295,238
748	288,924
748,5	286,381
748,9	280,838
749,3	281,21
749,8	276,467
750,2	277,152
750,6	273,581
751,1	273,238
751,5	275,324
751,9	277,867
752,4	274,41
752,8	266,352
753,3	267,781
753,7	266,038
754,1	265,895
754,6	260,752
755	257,981
755,4	253,695
755,9	259,781
756,3	258,038
756,7	254,267
757,2	251,152
757,6	247,752
758	243,581
758,5	247,295
758,9	241,924
759,3	236,924
759,8	236,152
760,2	233,067
760,6	232,61
761,1	229,181
761,5	232,924
761,9	236,352
762,4	236,438
762,8	235,524
763,3	236,667
763,7	227,067
764,1	228,61
764,6	216,781
765	218,21
765,4	213,867
765,9	207,495
766,3	206,038
766,7	214,61
767,2	215,152
767,6	219,324
768	211,924
768,5	213,295
768,9	214,152
769,3	211,667
769,8	209,267
770,2	201,21
770,6	195,752
771,1	191,267
771,5	189,524
771,9	191,467
772,4	190,295
772,8	186,81
773,2	196,667
773,7	196,038
774,1	196,638
774,5	198,067
775	197,781
775,4	197,867
775,8	202,981
776,3	196,552
776,7	194,495
777,1	192,01
777,6	186,524
778	184,41
778,4	177,381
778,9	173,781
779,3	168,324
779,7	167,724
780,2	168,667
780,6	170,324
781	167,381
781,5	169,752
781,9	167,61
782,3	168,667
782,8	172,438
783,2	174,895
783,6	180,838
784,1	178,01
784,5	173,667
784,9	169,067
785,4	163,981
785,8	160,324
786,2	155,924
786,7	144,952
787,1	143,924
787,5	144,152
788	146,667
788,4	149,552
788,8	147,667
789,3	146,21
789,7	152,095
790,1	153,381
790,6	153,01
791	148,581
791,4	145,581
791,9	147,552
792,3	147,667
792,7	143,238
793,2	143,81
793,6	147,838
794	151,495
794,5	154,495
794,9	151,838
795,3	152,01
795,8	148,867
796,2	145,152
796,6	138,61
797,1	142,638
797,5	135,41
797,9	134,981
798,4	133,581
798,8	136,952
799,2	139,438
799,7	138,667
800,1	131,867
800,5	134,238
801	129,552
801,4	125,752
801,8	122,524
802,2	123,638
802,7	123,81
803,1	119,61
803,5	118,095
804	121,495
804,4	119,695
804,8	117,952
805,3	117,638
805,7	115,21
806,1	116,838
806,6	117,924
807	118,867
807,4	120,581
807,9	120,181
808,3	113,324
808,7	112,61
809,2	114,352
809,6	112,41
810	108,667
810,4	104,238
810,9	102,895
811,3	101,867
811,7	104,21
812,2	103,152
812,6	101,81
813	99,752
813,5	101,952
813,9	104,695
814,3	105,81
814,8	105,267
815,2	100,267
815,6	101,095
816,1	100,038
816,5	103,324
816,9	95,895
817,3	93,667
817,8	91,952
818,2	88,152
818,6	87,952
819,1	88,895
819,5	86,095
819,9	88,695
820,4	88,61
820,8	87,267
821,2	89,295
821,7	89,381
822,1	88,124
822,5	87,61
822,9	88,981
823,4	87,638
823,8	91,524
824,2	92,038
824,7	88,695
825,1	88,752
825,5	85,324
826	84,752
826,4	85,01
826,8	76,295
827,3	76,381
827,7	78,981
828,1	79,038
828,5	79,752
829	75,067
829,4	75,067
829,8	79,467
830,3	75,238
830,7	72,438
831,1	70,838
831,6	68,352
832	64,61
832,4	60,124
832,8	62,952
833,3	68,381
833,7	67,695
834,1	67,61
834,6	66,752
835	69,438
835,4	77,781
835,8	72,61
836,3	67,21
836,7	68,638
837,1	61,267
837,6	58,895
838	58,667
838,4	49,41
838,9	45,552
839,3	49,581
839,7	51,295
840,1	60,524
840,6	62,352
841	66,41
841,4	67,467
841,9	70,895
842,3	74,067
842,7	70,095
843,1	65,067
843,6	70,095
844	69,552
844,4	70,952
844,9	70,752
845,3	65,724
845,7	67,267
846,2	65,867
846,6	63,067
847	62,467
847,4	57,552
847,9	57,467
848,3	52,667
848,7	47,867
849,2	52,952
849,6	51,81
850	49,181
850,4	53,21
850,9	51,238
851,3	53,981
851,7	57,924
852,2	48,752
852,6	45,581
853	47,924
853,4	46,61
853,9	49,495
854,3	49,552
854,7	44,495
855,2	46,952
855,6	50,924
856	46,724
856,4	45,667
856,9	41,724
857,3	39,21
857,7	42,695
858,2	40,352
858,6	35,524
859	32,21
859,4	32,41
859,9	31,067
860,3	31,381
860,7	28,952
861,1	33,524
861,6	33,752
862	35,21
862,4	35,552
862,9	33,724
863,3	36,467
863,7	36,81
864,1	34,352
864,6	35,267
865	37,038
865,4	35,61
865,9	39,981
866,3	35,324
866,7	33,038
867,1	32,352
867,6	28,124
868	25,295
868,4	25,752
868,8	25,61
869,3	32,924
869,7	37,267
870,1	39,495
870,6	40,695
871	6,981
871,4	10,495
871,8	7,524
872,3	-0,076
872,7	-6,448
873,1	-10,79
873,5	-9,705
874	28,81
874,4	25,438
874,8	24,581
875,3	27,067
875,7	28,267
876,1	30,695
876,5	33,324
877	28,867
877,4	26,038
877,8	27,667
878,2	30,324
878,7	32,295
879,1	30,067
879,5	26,124
879,9	20,352
880,4	24,581
880,8	21,238
881,2	12,152
881,7	11,895
882,1	17,695
882,5	20,667
882,9	27,324
883,4	23,924
883,8	23,095
884,2	28,267
884,6	29,438
885,1	19,838
885,5	19,495
885,9	21,838
886,3	19,752
886,8	25,724
887,2	24,124
887,6	21,581
888	29,267
888,5	28,581
888,9	25,667
889,3	29,952
889,8	25,61
890,2	26,095
890,6	25,095
891	28,61
891,5	24,324
891,9	22,981
892,3	21,01
892,7	22,638
893,2	26,21
893,6	22,067
894	13,181
894,4	15,267
894,9	11,01
895,3	10,038
895,7	11,21
896,1	5,381
896,6	12,152
897	13,524
897,4	14,867
897,8	19,295
898,3	16,524
898,7	8,495
899,1	10,867
899,5	9,067
900	10,124
900,4	11,81
900,8	12,61
901,2	16,095
901,7	22,238
902,1	23,381
902,5	25,924
902,9	23,438
903,4	21,267
903,8	20,41
904,2	20,581
904,6	18,41
905,1	19,352
905,5	19,324
905,9	22,324
906,3	22,41
906,8	20,638
907,2	18,695
907,6	20,924
908	18,467
908,5	17,295
908,9	15,695
909,3	14,495
909,7	13,81
910,2	17,152
910,6	18,038
911	18,495
911,4	19,781
911,9	18,895
912,3	17,781
912,7	21,81
913,1	19,067
913,6	19,61
914	19,067
914,4	10,752
914,8	13,581
915,3	18,124
915,7	13,81
916,1	16,924
916,5	13,038
916,9	14,095
917,4	16,895
917,8	11,638
918,2	6,01
918,6	10,381
919,1	7,038
919,5	8,495
919,9	9,438
920,3	10,41
920,8	16,067
921,2	18,81
921,6	14,352
922	16,695
922,5	15,152
922,9	12,638
923,3	16,295
923,7	14,324
924,2	12,638
924,6	13,381
925	12,781
925,4	14,781
925,8	12,524
926,3	11,438
926,7	13,552
927,1	17,952
927,5	20,952
928	21,21
928,4	20,838
928,8	21,924
929,2	23,61
929,7	18,524
930,1	15,381
930,5	12,638
930,9	14,524
931,3	15,381
931,8	15,01
932,2	10,067
932,6	12,895
933	13,038
933,5	13,095
933,9	7,581
934,3	4,124
934,7	3,952
935,2	2,124
935,6	0,038
936	2,238
936,4	-1,019
936,8	1,667
937,3	2,924
937,7	3,495
938,1	6,895
938,5	4,038
939	1,21
939,4	6,924
939,8	4,867
940,2	6,21
940,6	9,724
941,1	8,124
941,5	11,067
941,9	11,752
942,3	7,552
942,8	5,381
943,2	6,324
943,6	4,067
944	0,21
944,4	-2,362
944,9	-6,019
945,3	-4,819
945,7	-1,819
946,1	-9,448
946,6	-12,39
947	-11,333
947,4	-6,933
947,8	-6,533
948,2	-5,848
948,7	-4,019
949,1	3,038
949,5	5,438
949,9	9,152
950,3	7,01
950,8	3,695
951,2	4,01
951,6	4,267
952	3,038
952,5	3,781
952,9	3,61
953,3	1,981
953,7	6,038
954,1	6,181
954,6	3,667
955	6,01
955,4	7,781
955,8	5,552
956,2	4,952
956,7	6,352
957,1	7,295
957,5	4,552
957,9	-0,962
958,3	-9,105
958,8	-9,219
959,2	-6,019
959,6	-2,905
960	0,21
960,5	4,352
960,9	8,695
961,3	12,552
961,7	14,667
962,1	10,895
962,6	7,181
963	4,667
963,4	5,41
963,8	6,095
964,2	4,724
964,7	2,21
965,1	7,381
965,5	3,467
965,9	-1,533
966,3	-3,648
966,8	-6,905
967,2	-4,762
967,6	-0,648
968	-2,619
968,4	2,381
968,9	5,352
969,3	7,981
969,7	12,21
970,1	11,952
970,5	10,067
971	11,524
971,4	11,838
971,8	11,667
972,2	9,867
972,6	4,952
973,1	3,581
973,5	1,238
973,9	-0,105
974,3	1,381
974,7	2,095
975,2	1,01
975,6	2,638
976	3,152
976,4	1,924
976,8	5,438
977,3	1,781
977,7	-1,59
978,1	-1,305
978,5	-2,133
978,9	-3,848
979,4	-1,39
979,8	-8,248
980,2	-5,076
980,6	-1,276
981	-1,505
981,5	-9,219
981,9	-4,848
982,3	-0,79
982,7	-1,648
983,1	-2,105
983,6	-2,048
984	-7,133
984,4	5,81
984,8	4,238
985,2	0,124
985,6	1,495
986,1	-0,905
986,5	-0,733
986,9	1,381
987,3	-1,048
987,7	1,038
988,2	-0,105
988,6	2,895
989	-3,19
989,4	-6,333
989,8	-6,019
990,3	-8,219
990,7	-8,019
991,1	-11,448
991,5	-11,276
991,9	-2,819
992,3	1,952
992,8	2,381
993,2	0,095
993,6	-3,305
994	4,895
994,4	5,895
994,9	1,867
995,3	5,352
995,7	7,924
996,1	7,295
996,5	6,295
996,9	3,267
997,4	0,695
997,8	4,152
998,2	-4,419
998,6	-9,162
999	-9,19
999,5	-7,333
999,9	-3,99
1000,3	-4,562
1000,7	-5,648
1001,1	-4,276
1001,5	-4,305
1002	-5,333
1002,4	-6,076
1002,8	-7,333
1003,2	-5,333
1003,6	-1,533
1004	1,695
1004,5	5,924
1004,9	10,295
1005,3	8,981
1005,7	5,638
1006,1	6,124
1006,6	0,038
1007	-1,048
1007,4	1,181
1007,8	0,352
1008,2	4,038
1008,6	9,495
1009,1	12,067
1009,5	16,352
1009,9	17,181
1010,3	10,781
1010,7	12,095
1011,1	5,752
1011,6	2,781
1012	1,181
1012,4	1,695
1012,8	-0,362
1013,2	1,21
1013,6	0,524
1014,1	2,895
1014,5	-0,533
1014,9	-0,133
1015,3	-0,876
1015,7	-1,276
1016,1	-0,476
1016,6	0,524
1017	3,667
1017,4	4,924
1017,8	1,81
1018,2	-1,648
1018,6	-1,076
1019,1	-1,505
1019,5	0,638
1019,9	-1,819
1020,3	-2,962
1020,7	-5,619
1021,1	-2,562
1021,6	-0,562
1022	5,495
1022,4	-5,276
1022,8	-5,648
1023,2	-3,276
1023,6	-0,933
1024,1	-2,962
1024,5	-6,676
1024,9	-8,276
1025,3	-1,705
1025,7	-1,333
1026,1	-2,333
1026,6	-3,019
1027	-3,79
1027,4	-7,048
1027,8	-6,819
1028,2	-3,248
1028,6	0,21
1029	0,152
1029,5	-1,133
1029,9	-7,133
1030,3	-2,048
1030,7	-3,39
1031,1	-5,648
1031,5	-9,305
1032	-7,79
1032,4	-3,876
1032,8	2,838
1033,2	1,867
1033,6	1,724
1034	-4,305
1034,4	-1,476
1034,9	0,21
1035,3	-1,362
1035,7	0,781
1036,1	4,267
1036,5	4,267
1036,9	12,724
1037,4	15,152
1037,8	12,267
1038,2	17,81
1038,6	15,495
1039	12,638
1039,4	14,924
1039,8	13,495
1040,3	9,581
1040,7	10,924
1041,1	6,695
1041,5	6,41
1041,9	9,038
1042,3	3,781
1042,7	-0,448
1043,2	5,752
1043,6	2,867
1044	0,095
1044,4	0,895
1044,8	-0,962
1045,2	-2,276
1045,6	-1,533
1046,1	-8,362
1046,5	-1,848
1046,9	4,752
1047,3	3,01
1047,7	2,552
1048,1	4,667
1048,5	8,324
1049	14,552
1049,4	11,667
1049,8	9,41
1050,2	9,895
1050,6	7,324
1051	12,295
1051,4	9,638
1051,9	6,324
1052,3	11,781
1052,7	11,752
1053,1	15,267
1053,5	15,924
1053,9	12,838
1054,3	16,324
1054,8	19,181
1055,2	15,552
1055,6	11,981
1056	8,01
1056,4	13,467
1056,8	12,438
1057,2	9,495
1057,6	1,581
1058,1	-1,819
1058,5	-1,219
1058,9	6,552
1059,3	4,524
1059,7	6,924
1060,1	11,067
1060,5	12,095
1061	14,152
1061,4	11,638
1061,8	4,495
1062,2	0,867
1062,6	-7,419
1063	-10,333
1063,4	-8,819
1063,8	-11,905
1064,3	-6,505
1064,7	-4,933
1065,1	-0,648
1065,5	6,752
1065,9	3,524
1066,3	5,295
1066,7	6,267
1067,1	6,695
1067,6	7,638
1068	6,667
1068,4	4,495
1068,8	5,81
1069,2	6,952
1069,6	7,524
1070	3,752
1070,4	3,924
1070,9	-0,733
1071,3	1,552
1071,7	5,267
1072,1	2,038
1072,5	0,752
1072,9	3,81
1073,3	-1,648
1073,7	0,667
1074,2	2,867
1074,6	-1,133
1075	2,038
1075,4	7,295
1075,8	5,638
1076,2	9,895
1076,6	13,095
1077	10,781
1077,5	14,324
1077,9	12,867
1078,3	9,095
1078,7	9,381
1079,1	7,867
1079,5	6,867
1079,9	3,352
1080,3	-1,676
1080,7	-0,676
1081,2	-1,705
1081,6	-1,562
1082	-2,362
1082,4	-5,048
1082,8	0,752
1083,2	-0,819
1083,6	-4,933
1084	-3,305
1084,5	-2,848
1084,9	-1,619
1085,3	-3,676
1085,7	-6,19
1086,1	1,524
1086,5	-1,333
1086,9	1,467
1087,3	-0,333
1087,7	-3,448
1088,2	0,438
1088,6	0,038
1089	-2,248
1089,4	3,267
1089,8	0,352
1090,2	0,124
1090,6	2,838
1091	5,867
1091,4	6,752
1091,9	6,495
1092,3	4,838
1092,7	-0,562
1093,1	3,41
1093,5	4,381
1093,9	3,867
1094,3	4,667
1094,7	7,752
1095,1	10,41
1095,5	16,81
1096	15,752
1096,4	16,724
1096,8	14,667
1097,2	14,238
1097,6	13,21
1098	13,381
1098,4	9,61
1098,8	6,924
1099,2	3,838
1099,6	3,152
1100,1	2,438
1100,5	-0,276
1100,9	-3,933
1101,3	-3,905
1101,7	-1,962
1102,1	2,724
1102,5	0,495
1102,9	0,352
1103,3	-5,733
1103,7	-2,733
1104,2	-0,048
1104,6	-1,219
1105	-0,419
1105,4	1,067
1105,8	-0,133
1106,2	6,067
1106,6	4,667
1107	4,095
1107,4	4,567
1107,8	0,307
1108,3	0,167
