Data from Subt2_233.txt Node
Date: Sat Aug 26 18:54:23 MSK 2023
User: vat
Spectrometer: MAYP114033
Trigger mode: 0
Integration Time (sec): 1,000000E0
Scans to average: 5
Electric dark correction enabled: true
Nonlinearity correction enabled: false
Boxcar width: 3
XAxis mode: Wavelengths
Number of Pixels in Spectrum: 2068
>>>>>Begin Spectral Data<<<<<
199,4	-0,1
199,9	0,42
200,4	-0,6
200,8	1,5
201,3	0,529
201,8	2,814
202,2	0,214
202,7	3,243
203,2	3,557
203,6	4,071
204,1	1,843
204,6	2,329
205	2,729
205,5	3,814
206	0,529
206,4	0,271
206,9	-1,843
207,4	3,443
207,8	4,214
208,3	2,1
208,8	4,643
209,2	8,071
209,7	7,271
210,2	13,129
210,6	12,814
211,1	14,986
211,5	9,071
212	10,1
212,5	8,3
212,9	7,357
213,4	6,586
213,9	-2,1
214,3	-1,643
214,8	7,557
215,3	2,329
215,7	3,814
216,2	7,786
216,7	8,386
217,1	8,386
217,6	9,1
218,1	2,014
218,5	2,614
219	-1,3
219,5	-2,614
219,9	-8,157
220,4	4,757
220,9	3,871
221,3	7,329
221,8	9,243
222,3	10,671
222,7	13,871
223,2	19,643
223,6	11,3
224,1	9,214
224,6	9,729
225	9,329
225,5	9,529
226	7,386
226,4	6,386
226,9	8,014
227,4	12,129
227,8	6,814
228,3	6,443
228,8	7,9
229,2	7,871
229,7	8,957
230,2	9,786
230,6	9,071
231,1	16,414
231,5	20,443
232	19,443
232,5	16,9
232,9	17,786
233,4	17,929
233,9	13,414
234,3	11,1
234,8	6,957
235,3	5,157
235,7	7,7
236,2	2,871
236,7	3,414
237,1	8,129
237,6	4,386
238,1	5,7
238,5	5,243
239	2,929
239,4	7,243
239,9	2,386
240,4	0,043
240,8	5,271
241,3	3,214
241,8	4,043
242,2	6,357
242,7	3,929
243,2	7,5
243,6	10,614
244,1	9,929
244,6	11,614
245	10,271
245,5	8,986
245,9	8,186
246,4	5,329
246,9	1,529
247,3	2,5
247,8	5,671
248,3	9,443
248,7	10,186
249,2	13,214
249,7	13,9
250,1	17,814
250,6	14,643
251	13,271
251,5	13,386
252	12,071
252,4	13,186
252,9	8,814
253,4	1,814
253,8	2,3
254,3	3,671
254,8	3,986
255,2	2,071
255,7	-5,414
256,1	1,157
256,6	2,071
257,1	7,443
257,5	1,643
258	-1,871
258,5	-0,786
258,9	1,843
259,4	-1,871
259,9	1,5
260,3	-6,671
260,8	-2,329
261,2	-3,786
261,7	-2,443
262,2	-3,843
262,6	-1,814
263,1	2,071
263,6	7,414
264	10,986
264,5	15,986
264,9	11,271
265,4	14,786
265,9	17,129
266,3	13,271
266,8	14,7
267,3	9,529
267,7	6,357
268,2	13,871
268,7	14,186
269,1	12,814
269,6	12,271
270	15,414
270,5	10,643
271	10,843
271,4	7,329
271,9	0,671
272,4	0,871
272,8	2,357
273,3	-3,243
273,7	5,129
274,2	7,529
274,7	7,1
275,1	10,614
275,6	7,7
276,1	5,443
276,5	7,243
277	5,471
277,4	3,614
277,9	6,614
278,4	8,443
278,8	11,157
279,3	14,357
279,8	14,3
280,2	16,843
280,7	18,871
281,1	16,957
281,6	16,357
282,1	17,1
282,5	14,157
283	11,357
283,4	10,329
283,9	11,3
284,4	15,614
284,8	15,929
285,3	15,214
285,8	16,1
286,2	15,014
286,7	15,071
287,1	10,443
287,6	6,357
288,1	4,329
288,5	7,871
289	6,3
289,5	9,671
289,9	7,071
290,4	9,414
290,8	9,929
291,3	10,929
291,8	8,186
292,2	8,471
292,7	12,157
293,1	10,9
293,6	12,614
294,1	14,471
294,5	13,386
295	13,443
295,5	13,186
295,9	8,557
296,4	8,557
296,8	6,243
297,3	1,871
297,8	0,157
298,2	-4,586
298,7	-2,271
299,1	0,414
299,6	1,014
300,1	3,757
300,5	11,243
301	18,5
301,5	22,271
301,9	18,986
302,4	15,843
302,8	12,443
303,3	10,043
303,8	1,757
304,2	-1,471
304,7	1,329
305,1	1,814
305,6	2,414
306,1	11,929
306,5	14,414
307	20,214
307,4	21,5
307,9	19,986
308,4	19,186
308,8	15,614
309,3	7,643
309,8	7,871
310,2	6,871
310,7	1,843
311,1	0,529
311,6	0,443
312,1	4,386
312,5	9,9
313	9,129
313,4	6,043
313,9	8,614
314,4	6,957
314,8	8,843
315,3	7,357
315,7	0,871
316,2	0,243
316,7	2,757
317,1	6,214
317,6	6,271
318	8,786
318,5	7,929
319	12,1
319,4	12,186
319,9	14,929
320,3	13,3
320,8	14,929
321,3	11,586
321,7	15,557
322,2	12,186
322,6	14,3
323,1	11,671
323,6	9,471
324	6,671
324,5	6,129
324,9	6,329
325,4	9,671
325,9	9,357
326,3	10,357
326,8	12,5
327,2	10,214
327,7	12,414
328,2	9,186
328,6	12,757
329,1	4,814
329,5	-0,043
330	-0,786
330,5	4,814
330,9	6,071
331,4	9,357
331,8	4,357
332,3	10,443
332,8	12,986
333,2	14,386
333,7	16,929
334,1	17,357
334,6	13,329
335,1	9,586
335,5	11,129
336	8,129
336,4	9,329
336,9	12,757
337,4	12,557
337,8	13,329
338,3	16,386
338,7	19,5
339,2	21,871
339,7	24,043
340,1	14,243
340,6	14,1
341	13,443
341,5	16,643
342	10,614
342,4	8,843
342,9	2,729
343,3	7,043
343,8	4,329
344,2	3,586
344,7	4,786
345,2	9,214
345,6	12,414
346,1	17,271
346,5	9,843
347	12,357
347,5	14,757
347,9	15,3
348,4	11,871
348,8	12,614
349,3	12,557
349,8	18,814
350,2	26,643
350,7	23,529
351,1	23,414
351,6	26,043
352	30,814
352,5	28,871
353	37,471
353,4	34,643
353,9	48,443
354,3	56,843
354,8	66,5
355,3	80,929
355,7	100,643
356,2	116,643
356,6	135,071
357,1	154,957
357,5	181,129
358	213,129
358,5	241,357
358,9	276,871
359,4	317,043
359,8	363,414
360,3	425,271
360,8	481,386
361,2	546,843
361,7	621,471
362,1	711,443
362,6	805,243
363	910,757
363,5	1008,329
364	1124,7
364,4	1236,214
364,9	1353,271
365,3	1456,014
365,8	1558,271
366,3	1646,186
366,7	1732,871
367,2	1806,3
367,6	1867,386
368,1	1916,614
368,5	1950,586
369	1963,386
369,5	1972,729
369,9	1954,129
370,4	1919,386
370,8	1875,043
371,3	1815,014
371,7	1747,3
372,2	1673,186
372,7	1588,957
373,1	1505,843
373,6	1418,186
374	1332,7
374,5	1244,586
374,9	1160,757
375,4	1078,529
375,9	998,614
376,3	922,014
376,8	851,443
377,2	780,757
377,7	715,757
378,2	651,186
378,6	596,957
379,1	542,986
379,5	502,557
380	462,529
380,4	427,9
380,9	391,5
381,4	364,329
381,8	337,386
382,3	315,671
382,7	288,786
383,2	269,529
383,6	246,757
384,1	232,329
384,6	215,357
385	200,243
385,5	184,7
385,9	167,986
386,4	151,386
386,8	142,929
387,3	131,157
387,7	125,871
388,2	117,729
388,7	109,157
389,1	107,929
389,6	106,243
390	100,1
390,5	96,014
390,9	87,786
391,4	80,957
391,9	78,329
392,3	74,014
392,8	68,643
393,2	61,043
393,7	58,529
394,1	55,1
394,6	53,386
395,1	53,271
395,5	48,557
396	44,614
396,4	47,471
396,9	44,1
397,3	45,786
397,8	49,9
398,2	45,586
398,7	45,157
399,2	46,443
399,6	45,643
400,1	43,614
400,5	36,186
401	31,9
401,4	28,671
401,9	32,586
402,4	33,529
402,8	28,871
403,3	34,814
403,7	34,957
404,2	36,5
404,6	40,671
405,1	40,243
405,5	35,3
406	37,471
406,5	29,871
406,9	33,5
407,4	30,843
407,8	29,986
408,3	26,557
408,7	28,043
409,2	33,243
409,6	37,071
410,1	37,614
410,6	41,186
411	46,671
411,5	49,986
411,9	54,557
412,4	52,271
412,8	59,243
413,3	61,214
413,7	61,471
414,2	58,9
414,7	62,5
415,1	65,443
415,6	71,386
416	66,5
416,5	69,871
416,9	70,157
417,4	75,186
417,8	79,471
418,3	82,871
418,8	88,586
419,2	93,986
419,7	93,1
420,1	102,043
420,6	103,186
421	99,557
421,5	97,414
421,9	95,529
422,4	95,071
422,8	102,557
423,3	101,3
423,8	98,3
424,2	98,414
424,7	103,214
425,1	103,186
425,6	108,3
426	102,814
426,5	104,386
426,9	110,7
427,4	108,9
427,9	101,5
428,3	103,957
428,8	102,557
429,2	105,871
429,7	103,214
430,1	101,414
430,6	109,5
431	114,386
431,5	114,186
431,9	113,129
432,4	114,043
432,8	119,214
433,3	122,414
433,8	121,129
434,2	127,643
434,7	127,386
435,1	132,386
435,6	137,586
436	137,7
436,5	146,5
436,9	150,3
437,4	152,643
437,8	164,357
438,3	171,214
438,8	176,014
439,2	183,129
439,7	187,957
440,1	200,471
440,6	212,414
441	214,9
441,5	226,7
441,9	238,5
442,4	243,329
442,8	252,5
443,3	258,986
443,7	265,214
444,2	278,1
444,7	286,043
445,1	295,671
445,6	310,614
446	319,243
446,5	330,557
446,9	343,357
447,4	354,014
447,8	366,329
448,3	383,443
448,7	405,786
449,2	422,814
449,6	441,986
450,1	458,1
450,6	481,757
451	499,271
451,5	517,357
451,9	534,243
452,4	560,471
452,8	576,9
453,3	599,014
453,7	615,3
454,2	640,386
454,6	660,329
455,1	677,157
455,5	691,957
456	719,757
456,4	739,271
456,9	765,843
457,3	788,071
457,8	811,1
458,3	840,186
458,7	864,843
459,2	890,043
459,6	919,986
460,1	947,014
460,5	972,357
461	1006,5
461,4	1030,157
461,9	1060,643
462,3	1088,643
462,8	1116,271
463,2	1142,643
463,7	1176,814
464,1	1204,929
464,6	1240,414
465	1275,243
465,5	1308,3
466	1345,443
466,4	1375,243
466,9	1411,386
467,3	1444,414
467,8	1483,3
468,2	1517,214
468,7	1547,5
469,1	1583,1
469,6	1623,957
470	1651,986
470,5	1683,643
470,9	1707,843
471,4	1743,557
471,8	1779,329
472,3	1814,586
472,7	1852,586
473,2	1886,671
473,6	1921,529
474,1	1963,7
474,5	1995,043
475	2037,957
475,4	2072,7
475,9	2105,786
476,4	2143,3
476,8	2185,357
477,3	2217,471
477,7	2257,643
478,2	2286,014
478,6	2317,814
479,1	2346,786
479,5	2379,843
480	2404,814
480,4	2442,671
480,9	2471,871
481,3	2507,014
481,8	2540,386
482,2	2567,243
482,7	2598,671
483,1	2627,871
483,6	2648,157
484	2668,443
484,5	2690,7
484,9	2716,414
485,4	2747,814
485,8	2770,643
486,3	2795,186
486,7	2816,7
487,2	2848,814
487,6	2871,043
488,1	2885,871
488,5	2901,414
489	2928,1
489,4	2953,214
489,9	2978,186
490,4	2997,614
490,8	3020,329
491,3	3041,929
491,7	3060,014
492,2	3078,071
492,6	3095,871
493,1	3116,929
493,5	3119,386
494	3130,386
494,4	3145,329
494,9	3160,329
495,3	3172,9
495,8	3188,414
496,2	3199,643
496,7	3223,071
497,1	3240,043
497,6	3251,586
498	3264,386
498,5	3277,757
498,9	3282,986
499,4	3295,414
499,8	3314,414
500,3	3322,186
500,7	3337,214
501,2	3348,014
501,6	3348,129
502,1	3356,3
502,5	3361,871
503	3364,7
503,4	3373,471
503,9	3377,5
504,3	3390,929
504,8	3397,386
505,2	3406,786
505,7	3410,014
506,1	3424,443
506,6	3429,843
507	3439,9
507,5	3444,043
507,9	3453,9
508,4	3460,471
508,8	3472,471
509,3	3469,986
509,7	3479,071
510,2	3485,271
510,6	3489,386
511,1	3502,614
511,5	3506,643
512	3507,814
512,4	3514,957
512,9	3520,471
513,3	3524,729
513,8	3529,757
514,2	3533,386
514,7	3537,929
515,1	3544,929
515,6	3547,786
516	3548,9
516,5	3556,614
516,9	3558,414
517,4	3564,986
517,8	3574,957
518,3	3579,7
518,7	3575,614
519,2	3587,871
519,6	3589,643
520,1	3600,671
520,5	3601,043
521	3598,843
521,4	3603,957
521,9	3616,814
522,3	3615,5
522,8	3622,9
523,2	3630,729
523,7	3636,7
524,1	3637,871
524,6	3643,1
525	3653,929
525,5	3658,386
525,9	3661,5
526,4	3661,729
526,8	3666,614
527,3	3682,614
527,7	3696,157
528,2	3702,643
528,6	3714,986
529,1	3724,729
529,5	3741,414
530	3749,1
530,4	3760,471
530,9	3760,586
531,3	3764,386
531,8	3769,929
532,2	3779,643
532,6	3778,043
533,1	3782,357
533,5	3785,786
534	3796,043
534,4	3804,643
534,9	3809,186
535,3	3809,529
535,8	3821,357
536,2	3837,957
536,7	3848,871
537,1	3854,929
537,6	3860,1
538	3868,643
538,5	3876,814
538,9	3880,214
539,4	3884,157
539,8	3891,414
540,3	3902,157
540,7	3910,671
541,2	3921,243
541,6	3933,386
542,1	3951,443
542,5	3959,557
543	3968,214
543,4	3974,243
543,9	3988,586
544,3	4001,071
544,8	4007,471
545,2	4012,929
545,7	4022,586
546,1	4028,986
546,5	4042,529
547	4042,643
547,4	4043,443
547,9	4048,7
548,3	4056,329
548,8	4070,243
549,2	4080,671
549,7	4088,243
550,1	4102,357
550,6	4113,614
551	4123,529
551,5	4124,643
551,9	4124,843
552,4	4132,443
552,8	4135,129
553,3	4133,557
553,7	4140,129
554,2	4153,043
554,6	4163,357
555,1	4170,757
555,5	4175,471
555,9	4183,1
556,4	4196,243
556,8	4206,7
557,3	4211,843
557,7	4218,186
558,2	4230,471
558,6	4249,243
559,1	4255,157
559,5	4260,071
560	4262,757
560,4	4270,757
560,9	4278,043
561,3	4278,957
561,8	4273,557
562,2	4280,929
562,7	4286,214
563,1	4290,643
563,6	4287,757
564	4295,471
564,4	4296,357
564,9	4301,986
565,3	4303,614
565,8	4309,843
566,2	4316,9
566,7	4325,643
567,1	4331,586
567,6	4337,757
568	4337,414
568,5	4344,643
568,9	4342,3
569,4	4343,214
569,8	4343,186
570,3	4340,529
570,7	4339,986
571,1	4341,729
571,6	4344,1
572	4352,157
572,5	4358,214
572,9	4357,014
573,4	4356,643
573,8	4360,271
574,3	4357,157
574,7	4353,186
575,2	4348,957
575,6	4340,643
576,1	4350,157
576,5	4348,014
576,9	4344,071
577,4	4343,186
577,8	4339,386
578,3	4341,243
578,7	4343,843
579,2	4332,014
579,6	4337,671
580,1	4331,271
580,5	4326,529
581	4320,243
581,4	4305,471
581,9	4293,529
582,3	4290,443
582,7	4276,586
583,2	4271,557
583,6	4270,843
584,1	4271,929
584,5	4269,1
585	4267,271
585,4	4253,614
585,9	4250,3
586,3	4240,786
586,8	4237,5
587,2	4223,214
587,6	4225,014
588,1	4223,814
588,5	4221,357
589	4209,386
589,4	4206,071
589,9	4193,529
590,3	4192,386
590,8	4174,7
591,2	4163,414
591,7	4156,729
592,1	4147,843
592,5	4144,7
593	4139,671
593,4	4128,614
593,9	4125,471
594,3	4116,614
594,8	4115,5
595,2	4113,386
595,7	4104,329
596,1	4092,357
596,6	4087,643
597	4083,5
597,4	4072,9
597,9	4058,357
598,3	4056,443
598,8	4050,786
599,2	4046,586
599,7	4043,3
600,1	4031,329
600,6	4025,814
601	4018,043
601,4	4011,414
601,9	4006,214
602,3	3992,814
602,8	3984,557
603,2	3978,129
603,7	3970,557
604,1	3964,1
604,6	3945,529
605	3928,271
605,4	3926,529
605,9	3909,3
606,3	3893,929
606,8	3873,557
607,2	3858,557
607,7	3845,014
608,1	3839,414
608,6	3822,129
609	3814,529
609,4	3815,586
609,9	3812,214
610,3	3803,843
610,8	3797,586
611,2	3784,557
611,7	3774,186
612,1	3761,157
612,6	3737,3
613	3723,643
613,4	3712,843
613,9	3695,414
614,3	3681,9
614,8	3670,586
615,2	3655,957
615,7	3649,043
616,1	3635,586
616,6	3619,3
617	3603,243
617,4	3584,329
617,9	3574,986
618,3	3561,586
618,8	3545,043
619,2	3534,157
619,7	3520,586
620,1	3510,129
620,5	3502,586
621	3486,186
621,4	3466,329
621,9	3454,643
622,3	3432,471
622,8	3416,186
623,2	3403,9
623,6	3382,129
624,1	3366,357
624,5	3355,643
625	3332,643
625,4	3321,1
625,9	3302,471
626,3	3282,443
626,8	3265,7
627,2	3245,7
627,6	3226,071
628,1	3206,329
628,5	3193,586
629	3180,1
629,4	3166,357
629,9	3154,557
630,3	3138,129
630,7	3121,814
631,2	3113,071
631,6	3095,443
632,1	3082,786
632,5	3066,786
633	3051,5
633,4	3037,243
633,8	3025,643
634,3	3012,957
634,7	3000,3
635,2	2981,471
635,6	2966,186
636,1	2954,129
636,5	2932,757
636,9	2913,329
637,4	2895,9
637,8	2882,1
638,3	2866,814
638,7	2852,671
639,2	2828,243
639,6	2818,586
640	2805,357
640,5	2794,243
640,9	2773,671
641,4	2764,043
641,8	2752,071
642,2	2744,671
642,7	2736,186
643,1	2728,986
643,6	2717,871
644	2706,071
644,5	2690,214
644,9	2676,986
645,3	2662,5
645,8	2640,7
646,2	2627,529
646,7	2611,157
647,1	2605,014
647,6	2592,043
648	2577,443
648,4	2564,929
648,9	2556,871
649,3	2539,014
649,8	2527,271
650,2	2509,157
650,6	2498,529
651,1	2488,643
651,5	2479,986
652	2466,529
652,4	2455,3
652,9	2445,957
653,3	2433,529
653,7	2420,9
654,2	2400,5
654,6	2377,786
655,1	2362,643
655,5	2355,986
655,9	2336,986
656,4	2320,871
656,8	2303,729
657,3	2289,5
657,7	2284,443
658,2	2272,443
658,6	2250,614
659	2230,957
659,5	2214,386
659,9	2198,729
660,4	2187,071
660,8	2165,3
661,2	2152,7
661,7	2145,157
662,1	2133,614
662,6	2126,557
663	2111,471
663,4	2102,071
663,9	2092,729
664,3	2079,157
664,8	2059,957
665,2	2049,129
665,6	2033,786
666,1	2026,1
666,5	2012,071
667	1998,643
667,4	1983,443
667,9	1969,214
668,3	1955,843
668,7	1938,357
669,2	1926,357
669,6	1915,3
670,1	1904,1
670,5	1890,586
670,9	1881,986
671,4	1865,757
671,8	1856,014
672,3	1844,157
672,7	1828,986
673,1	1807,557
673,6	1801,529
674	1790,643
674,5	1783,014
674,9	1769,414
675,3	1756,9
675,8	1746,271
676,2	1745,5
676,7	1729,214
677,1	1714,129
677,5	1700,386
678	1694,843
678,4	1688,329
678,9	1676,014
679,3	1662,214
679,7	1648,871
680,2	1636,957
680,6	1632,729
681,1	1622,129
681,5	1604,1
681,9	1592,557
682,4	1585,757
682,8	1579,586
683,3	1570,129
683,7	1556,129
684,1	1541,643
684,6	1533,3
685	1525,271
685,5	1507,614
685,9	1490,443
686,3	1476,014
686,8	1464,043
687,2	1453,957
687,7	1444,814
688,1	1428,614
688,5	1425,386
689	1421,9
689,4	1415,643
689,9	1408,043
690,3	1394,957
690,7	1383,243
691,2	1379,043
691,6	1369,643
692	1361,643
692,5	1353,243
692,9	1342,7
693,4	1337,157
693,8	1328,214
694,2	1317,786
694,7	1306,129
695,1	1292,129
695,6	1289,871
696	1283,614
696,4	1276,071
696,9	1266,014
697,3	1252,9
697,8	1244,386
698,2	1238,7
698,6	1229,557
699,1	1223,214
699,5	1220,786
699,9	1215,471
700,4	1211,957
700,8	1208,671
701,3	1200,014
701,7	1183,071
702,1	1172,1
702,6	1162,471
703	1152,757
703,5	1146,929
703,9	1136,3
704,3	1133,214
704,8	1131,729
705,2	1120,443
705,6	1108,529
706,1	1104,357
706,5	1095,186
707	1089,3
707,4	1080,071
707,8	1067,957
708,3	1064,357
708,7	1055,186
709,2	1047,471
709,6	1042,186
710	1035,043
710,5	1027,757
710,9	1022,729
711,3	1013,443
711,8	1011,786
712,2	1004,843
712,7	994,614
713,1	982,414
713,5	976,9
714	974,386
714,4	966,929
714,8	957,929
715,3	952,757
715,7	950,443
716,2	942,214
716,6	935,529
717	923,243
717,5	919,329
717,9	916,614
718,3	906,014
718,8	895,814
719,2	892,614
719,7	882,871
720,1	879,5
720,5	874,129
721	862,3
721,4	854,957
721,8	853,129
722,3	846,443
722,7	841,3
723,2	830,214
723,6	816,757
724	810,1
724,5	802,271
724,9	791,9
725,3	783,786
725,8	775,7
726,2	770,386
726,7	770,643
727,1	765,929
727,5	763,9
728	754,443
728,4	752,129
728,8	747,671
729,3	742,271
729,7	733,814
730,1	730,9
730,6	728,9
731	726,357
731,5	718,3
731,9	716,957
732,3	717,929
732,8	717,757
733,2	712,243
733,6	708,986
734,1	705,243
734,5	702,243
734,9	696,5
735,4	687,843
735,8	678,357
736,3	678,014
736,7	666,186
737,1	665,7
737,6	662,186
738	656,471
738,4	655,157
738,9	654,986
739,3	642,357
739,7	641,214
740,2	632,271
740,6	635,643
741,1	631,814
741,5	620,157
741,9	615,471
742,4	617,386
742,8	615,5
743,2	609,471
743,7	595,843
744,1	590,843
744,5	592,957
745	587,329
745,4	585,757
745,8	579,671
746,3	582,186
746,7	580,7
747,2	576,7
747,6	578,3
748	580,643
748,5	572,529
748,9	566,814
749,3	562,071
749,8	560,3
750,2	558,3
750,6	550,986
751,1	544,7
751,5	542,957
751,9	542,357
752,4	539,786
752,8	536,5
753,3	532,986
753,7	528,1
754,1	520,843
754,6	511,843
755	505,3
755,4	497,529
755,9	493,471
756,3	486,843
756,7	485,643
757,2	480,414
757,6	483,986
758	486,243
758,5	481,129
758,9	475,3
759,3	475,214
759,8	469,357
760,2	468,271
760,6	461,214
761,1	450,643
761,5	452,586
761,9	449,014
762,4	446,357
762,8	442,186
763,3	438,929
763,7	437,043
764,1	440,643
764,6	436,214
765	437,586
765,4	433,157
765,9	433,786
766,3	436,671
766,7	428,043
767,2	420,957
767,6	423,9
768	418,986
768,5	416,7
768,9	411,471
769,3	405,529
769,8	405,586
770,2	402,957
770,6	392,357
771,1	388,3
771,5	390,243
771,9	388,186
772,4	383,814
772,8	383,3
773,2	381,786
773,7	381,643
774,1	381,471
774,5	369,843
775	363,843
775,4	365,271
775,8	359,643
776,3	360,729
776,7	358,643
777,1	352,529
777,6	352,586
778	355,614
778,4	353,014
778,9	354,043
779,3	350,186
779,7	345,386
780,2	347,614
780,6	345,414
781	338,157
781,5	331,329
781,9	327,929
782,3	319,814
782,8	320,014
783,2	315,443
783,6	315,614
784,1	313,157
784,5	308,043
784,9	307,5
785,4	311,7
785,8	306,5
786,2	304,129
786,7	301,643
787,1	299,243
787,5	300,329
788	297,043
788,4	290,214
788,8	292,3
789,3	288,814
789,7	285,957
790,1	283,957
790,6	283,329
791	282,214
791,4	285,129
791,9	277,386
792,3	272,1
792,7	275,043
793,2	269,043
793,6	269,243
794	269,471
794,5	263,157
794,9	272,729
795,3	276,529
795,8	269,986
796,2	273,957
796,6	268,414
797,1	262,729
797,5	259,414
797,9	249,586
798,4	243,186
798,8	236,529
799,2	235,157
799,7	236,7
800,1	235,157
800,5	237,786
801	238,7
801,4	238,014
801,8	238,843
802,2	236,471
802,7	229,529
803,1	225,186
803,5	222,014
804	214,814
804,4	212,414
804,8	212,586
805,3	211,586
805,7	214,214
806,1	215,7
806,6	213,586
807	212,014
807,4	211,271
807,9	203,671
808,3	200,757
808,7	197,386
809,2	200,471
809,6	201,757
810	201,414
810,4	199,014
810,9	202,443
811,3	204,471
811,7	202,757
812,2	204,471
812,6	200,7
813	204,186
813,5	205,7
813,9	203,757
814,3	201,043
814,8	199,557
815,2	186,671
815,6	184,643
816,1	183,443
816,5	181,986
816,9	181,786
817,3	179,243
817,8	180,9
818,2	182,5
818,6	181,243
819,1	177,614
819,5	175,843
819,9	177,014
820,4	175,471
820,8	170,443
821,2	166,529
821,7	168,586
822,1	168,557
822,5	170,3
822,9	162,786
823,4	160,557
823,8	161,529
824,2	164,843
824,7	157,414
825,1	151,814
825,5	143,957
826	145,643
826,4	144,643
826,8	145,014
827,3	142,671
827,7	143,243
828,1	143,957
828,5	145,929
829	141,386
829,4	141,186
829,8	132,186
830,3	130,986
830,7	126,814
831,1	127,729
831,6	127,871
832	128,186
832,4	123,929
832,8	128,957
833,3	124,786
833,7	126,557
834,1	123,929
834,6	121,129
835	121,043
835,4	122,843
835,8	117,071
836,3	117,529
836,7	118,014
837,1	118,586
837,6	117,757
838	114,471
838,4	114,043
838,9	115,957
839,3	115,414
839,7	115,643
840,1	105,814
840,6	105,043
841	111,471
841,4	107,871
841,9	108,043
842,3	107,471
842,7	107,186
843,1	114,1
843,6	111,5
844	108,529
844,4	115,671
844,9	117,9
845,3	118,814
845,7	113,871
846,2	109,529
846,6	109,186
847	111,5
847,4	106,357
847,9	104,271
848,3	104,3
848,7	108,386
849,2	108,986
849,6	107,043
850	104,7
850,4	102,957
850,9	105,357
851,3	104,557
851,7	99,757
852,2	99,614
852,6	102,9
853	98,357
853,4	100,386
853,9	94,157
854,3	90,214
854,7	91,443
855,2	89,929
855,6	90,643
856	90,929
856,4	85,014
856,9	86,5
857,3	88,814
857,7	88,643
858,2	94,386
858,6	91,329
859	90,186
859,4	91,843
859,9	88,386
860,3	83,443
860,7	85,071
861,1	80,814
861,6	78,729
862	75,271
862,4	71,186
862,9	70,957
863,3	71,929
863,7	66,586
864,1	64,329
864,6	62,157
865	64,043
865,4	68,557
865,9	71,443
866,3	71,329
866,7	68,929
867,1	63,443
867,6	69,357
868	68,471
868,4	67,1
868,8	66,929
869,3	66,014
869,7	74,5
870,1	75,557
870,6	72,814
871	21,157
871,4	24,614
871,8	19,214
872,3	19,871
872,7	14,1
873,1	17,557
873,5	18,786
874	70,414
874,4	63,214
874,8	60,157
875,3	60,386
875,7	57,643
876,1	59,386
876,5	54,957
877	52,271
877,4	48,957
877,8	53,071
878,2	49,757
878,7	53,529
879,1	47,7
879,5	45,786
879,9	49,271
880,4	50,614
880,8	48,043
881,2	44,843
881,7	39,757
882,1	40,157
882,5	42,7
882,9	39,386
883,4	43,871
883,8	45,243
884,2	48,929
884,6	47,414
885,1	51,157
885,5	49,529
885,9	49,043
886,3	47,157
886,8	44,757
887,2	40,929
887,6	42,757
888	42,386
888,5	42,557
888,9	44,271
889,3	43,414
889,8	45,157
890,2	45,329
890,6	42,843
891	41,814
891,5	39,9
891,9	39,814
892,3	37,871
892,7	37,786
893,2	39,271
893,6	41,1
894	38,814
894,4	40,529
894,9	38,129
895,3	39,986
895,7	38,1
896,1	41,129
896,6	42,043
897	41,357
897,4	48,786
897,8	47,786
898,3	45,986
898,7	45,271
899,1	42,729
899,5	41,757
900	40,071
900,4	31,7
900,8	33,186
901,2	33,986
901,7	37,243
902,1	40,786
902,5	47,614
902,9	48,414
903,4	49,071
903,8	49,757
904,2	46,986
904,6	46,329
905,1	43,129
905,5	35,3
905,9	38,186
906,3	38,129
906,8	37,957
907,2	38,586
907,6	40,614
908	38,5
908,5	37,557
908,9	31,243
909,3	26,014
909,7	25,843
910,2	26,186
910,6	26,957
911	25,014
911,4	26,929
911,9	28,5
912,3	30,786
912,7	33,071
913,1	35,614
913,6	27,329
914	28,614
914,4	26,386
914,8	29,243
915,3	29,386
915,7	25,9
916,1	23,871
916,5	27,557
916,9	28,071
917,4	30,471
917,8	31,871
918,2	29,9
918,6	27,986
919,1	28,443
919,5	32,129
919,9	30,529
920,3	27,329
920,8	21,557
921,2	23,243
921,6	25,729
922	22,786
922,5	20,757
922,9	21,7
923,3	22,043
923,7	26,843
924,2	24,414
924,6	23,043
925	24,729
925,4	19,529
925,8	21,614
926,3	22,386
926,7	21,557
927,1	23,243
927,5	24,471
928	22,671
928,4	21,186
928,8	23,786
929,2	23,871
929,7	22,843
930,1	20,586
930,5	17,243
930,9	19,586
931,3	24,957
931,8	21,414
932,2	22,1
932,6	19,3
933	15,9
933,5	18,043
933,9	18,243
934,3	14,929
934,7	10,557
935,2	10,957
935,6	13,357
936	18,214
936,4	19,671
936,8	18,243
937,3	14,529
937,7	19,5
938,1	21,214
938,5	18,871
939	20,271
939,4	19,186
939,8	17,786
940,2	22,271
940,6	24,071
941,1	20,614
941,5	27,557
941,9	25,214
942,3	23,986
942,8	25,9
943,2	26,071
943,6	20,186
944	20,471
944,4	15,214
944,9	15,071
945,3	14,557
945,7	12,214
946,1	6,9
946,6	7,986
947	10,614
947,4	14,986
947,8	18,957
948,2	16,357
948,7	17,357
949,1	19,729
949,5	25,329
949,9	22,843
950,3	19,814
950,8	16,071
951,2	19,3
951,6	18,357
952	24,443
952,5	17,214
952,9	16,557
953,3	13,643
953,7	13,843
954,1	15,557
954,6	14,7
955	14,729
955,4	13,671
955,8	18,586
956,2	19,614
956,7	22,071
957,1	17,071
957,5	19,186
957,9	18,7
958,3	20,129
958,8	17,557
959,2	17,586
959,6	16,757
960	18,443
960,5	23,843
960,9	19,7
961,3	19,214
961,7	16,529
962,1	16,186
962,6	18,043
963	18,9
963,4	10,929
963,8	12,871
964,2	17,071
964,7	16,243
965,1	18,957
965,5	17,043
965,9	16,843
966,3	24,014
966,8	22,9
967,2	21,5
967,6	23,786
968	15,843
968,4	15,386
968,9	15,243
969,3	14,129
969,7	13,214
970,1	14,814
970,5	7,243
971	14,3
971,4	13,157
971,8	10,129
972,2	8,186
972,6	6,929
973,1	4,186
973,5	11,043
973,9	13,614
974,3	13,814
974,7	18,986
975,2	19,529
975,6	17,157
976	19,329
976,4	16,9
976,8	10,843
977,3	8,186
977,7	7,786
978,1	5,357
978,5	7,7
978,9	2,157
979,4	1,929
979,8	3,757
980,2	6,9
980,6	0,471
981	4,786
981,5	7,357
981,9	11,929
982,3	13,157
982,7	14,414
983,1	9,214
983,6	14,586
984	11,071
984,4	13,729
984,8	11,957
985,2	14,9
985,6	11,671
986,1	18,643
986,5	18,557
986,9	13,929
987,3	11,643
987,7	9,671
988,2	7,386
988,6	9,1
989	6,186
989,4	3,471
989,8	4,643
990,3	3,214
990,7	4,843
991,1	3,557
991,5	3,414
991,9	7,271
992,3	10,043
992,8	10,329
993,2	9,786
993,6	10,043
994	8,814
994,4	13,843
994,9	11,329
995,3	6,357
995,7	2,1
996,1	-0,843
996,5	-0,186
996,9	-1,3
997,4	-5,814
997,8	-8,1
998,2	-5,043
998,6	-1,1
999	2,5
999,5	4,357
999,9	7,529
1000,3	6,186
1000,7	4,843
1001,1	2,843
1001,5	7,729
1002	11,157
1002,4	9,9
1002,8	8,529
1003,2	15,1
1003,6	18,729
1004	25,729
1004,5	17,986
1004,9	14,357
1005,3	7,386
1005,7	9,757
1006,1	3,271
1006,6	0,071
1007	-2,871
1007,4	0,757
1007,8	0,357
1008,2	5,671
1008,6	7,243
1009,1	3,814
1009,5	6,071
1009,9	6,5
1010,3	12,471
1010,7	12,729
1011,1	10,671
1011,6	5,071
1012	10,929
1012,4	10,214
1012,8	7,043
1013,2	6,7
1013,6	9,129
1014,1	14,386
1014,5	18,671
1014,9	15,157
1015,3	15,3
1015,7	15,043
1016,1	8,157
1016,6	5,014
1017	4,471
1017,4	-0,786
1017,8	0,843
1018,2	2,729
1018,6	2,9
1019,1	8,9
1019,5	12,271
1019,9	5,3
1020,3	11,929
1020,7	13,214
1021,1	11,557
1021,6	12,7
1022	12,729
1022,4	13,386
1022,8	18,414
1023,2	18,1
1023,6	20,529
1024,1	24,757
1024,5	29,757
1024,9	22,5
1025,3	22,3
1025,7	22,643
1026,1	22,871
1026,6	18,443
1027	14,471
1027,4	15,043
1027,8	21,243
1028,2	18,357
1028,6	19,471
1029	17,071
1029,5	23,957
1029,9	23,9
1030,3	15,9
1030,7	13,7
1031,1	16,643
1031,5	11,871
1032	12,386
1032,4	7,871
1032,8	10,786
1033,2	15,443
1033,6	14,557
1034	14,7
1034,4	17,529
1034,9	18,929
1035,3	17,5
1035,7	19,357
1036,1	16,157
1036,5	15,471
1036,9	11,529
1037,4	17,129
1037,8	11,529
1038,2	11,557
1038,6	8,329
1039	12,386
1039,4	17,643
1039,8	14,243
1040,3	10,414
1040,7	15,157
1041,1	15,271
1041,5	13,614
1041,9	10,643
1042,3	8,071
1042,7	14,614
1043,2	13,129
1043,6	10,643
1044	7,529
1044,4	11,957
1044,8	10,843
1045,2	13,1
1045,6	13,529
1046,1	13,3
1046,5	13,986
1046,9	15,186
1047,3	9,043
1047,7	8,157
1048,1	3,214
1048,5	2,129
1049	4,129
1049,4	7,871
1049,8	11,9
1050,2	14,414
1050,6	20,614
1051	20,729
1051,4	21,043
1051,9	23,586
1052,3	25,129
1052,7	21,529
1053,1	16,1
1053,5	14,729
1053,9	14,529
1054,3	14,014
1054,8	15,214
1055,2	13,043
1055,6	17,5
1056	20,357
1056,4	19,357
1056,8	25,3
1057,2	21,357
1057,6	11,414
1058,1	6,071
1058,5	3,186
1058,9	6,871
1059,3	8,357
1059,7	5,7
1060,1	11,5
1060,5	17,243
1061	22,871
1061,4	22,957
1061,8	25,471
1062,2	19,729
1062,6	18,071
1063	16,386
1063,4	18,357
1063,8	13,9
1064,3	13,157
1064,7	6,729
1065,1	7,957
1065,5	7,043
1065,9	4,214
1066,3	-1,214
1066,7	-2,929
1067,1	-2,386
1067,6	5,614
1068	1,186
1068,4	4,414
1068,8	6,729
1069,2	10,729
1069,6	9,757
1070	12,786
1070,4	7,071
1070,9	12,043
1071,3	7,586
1071,7	5,157
1072,1	0,157
1072,5	3,814
1072,9	1,129
1073,3	6,529
1073,7	4,329
1074,2	5,643
1074,6	8,671
1075	5,986
1075,4	7,529
1075,8	9,986
1076,2	8,357
1076,6	10,071
1077	9,214
1077,5	11,529
1077,9	13,757
1078,3	11,157
1078,7	7,5
1079,1	5,557
1079,5	8,071
1079,9	9,9
1080,3	5,614
1080,7	9,471
1081,2	12,3
1081,6	12,129
1082	8,643
1082,4	14,357
1082,8	13,786
1083,2	13,7
1083,6	16,357
1084	13,614
1084,5	17,643
1084,9	19,3
1085,3	8,014
1085,7	6,443
1086,1	9,071
1086,5	5,186
1086,9	10,986
1087,3	7,7
1087,7	6,243
1088,2	11,357
1088,6	13,271
1089	12,671
1089,4	12,071
1089,8	11,5
1090,2	13,386
1090,6	12,871
1091	16,414
1091,4	19,186
1091,9	22,243
1092,3	25,1
1092,7	20,043
1093,1	20,1
1093,5	21,5
1093,9	14,3
1094,3	16,557
1094,7	10,471
1095,1	11,014
1095,5	12,271
1096	8,786
1096,4	7,9
1096,8	10,729
1097,2	8,1
1097,6	12,214
1098	10,643
1098,4	13,614
1098,8	16,243
1099,2	24,929
1099,6	24,329
1100,1	18,414
1100,5	14,843
1100,9	16,271
1101,3	13,929
1101,7	12,529
1102,1	7,729
1102,5	11,1
1102,9	16,414
1103,3	19,014
1103,7	18,557
1104,2	20,386
1104,6	20,643
1105	18,843
1105,4	16,186
1105,8	12,414
1106,2	9,243
1106,6	6,843
1107	3,614
1107,4	3,1
1107,8	1,58
1108,3	-0,65
