Data from Subt2_011.txt Node
Date: Sat Aug 26 16:13:29 MSK 2023
User: vat
Spectrometer: MAYP114033
Trigger mode: 0
Integration Time (sec): 1,000000E0
Scans to average: 5
Electric dark correction enabled: true
Nonlinearity correction enabled: false
Boxcar width: 3
XAxis mode: Wavelengths
Number of Pixels in Spectrum: 2068
>>>>>Begin Spectral Data<<<<<
199,4	-0,5
199,9	1,22
200,4	2,5
200,8	5,843
201,3	5,357
201,8	8,471
202,2	9,957
202,7	10,671
203,2	8,329
203,6	10,929
204,1	10,129
204,6	10,614
205	11,614
205,5	14,243
206	13,643
206,4	14,843
206,9	11,5
207,4	9,157
207,8	12,1
208,3	8,014
208,8	8,271
209,2	7,786
209,7	9,157
210,2	11,643
210,6	9,386
211,1	10,271
211,5	10,243
212	10,071
212,5	11,071
212,9	13,614
213,4	6,986
213,9	8,1
214,3	6,043
214,8	7,671
215,3	7,814
215,7	9,814
216,2	6,357
216,7	9,586
217,1	8,1
217,6	6,757
218,1	7,843
218,5	1,957
219	-0,557
219,5	0,9
219,9	0,786
220,4	10,3
220,9	7,7
221,3	8,243
221,8	5,729
222,3	5,471
222,7	1,671
223,2	4,186
223,6	0,357
224,1	3,1
224,6	-2,129
225	3,871
225,5	6,5
226	10,271
226,4	9,9
226,9	10,414
227,4	15,071
227,8	18,214
228,3	17,1
228,8	17,643
229,2	15,443
229,7	12,014
230,2	14,357
230,6	10,243
231,1	14,471
231,5	17,786
232	15,414
232,5	20,157
232,9	19,843
233,4	16,071
233,9	15,014
234,3	11,414
234,8	8,329
235,3	10,871
235,7	3,671
236,2	6,386
236,7	1,5
237,1	3,614
237,6	-0,157
238,1	5,243
238,5	3,643
239	10,3
239,4	14,986
239,9	14,357
240,4	13,614
240,8	16,843
241,3	12,614
241,8	13,586
242,2	9,757
242,7	9,814
243,2	11,1
243,6	12,871
244,1	9,757
244,6	7,5
245	6,071
245,5	9,671
245,9	7,5
246,4	15,186
246,9	17,471
247,3	22,671
247,8	23,214
248,3	19,043
248,7	16,9
249,2	15,071
249,7	10,243
250,1	9,157
250,6	4,414
251	4,757
251,5	10,671
252	15,043
252,4	17,329
252,9	13,414
253,4	10,729
253,8	12,014
254,3	13,786
254,8	13,643
255,2	7,614
255,7	1,243
256,1	0,071
256,6	-7,443
257,1	-7,014
257,5	-12,071
258	-10,586
258,5	-12,786
258,9	-8,557
259,4	-9,5
259,9	-8,9
260,3	-6,786
260,8	-4,7
261,2	-9,214
261,7	-7,986
262,2	-6,843
262,6	-4,071
263,1	4,557
263,6	3,157
264	5,357
264,5	8,3
264,9	8,557
265,4	4,929
265,9	5,9
266,3	4,043
266,8	0,729
267,3	-4,357
267,7	-7,3
268,2	-4,871
268,7	-3,014
269,1	-1,671
269,6	-4,614
270	1,386
270,5	8,043
271	9,729
271,4	10,929
271,9	13,443
272,4	16,214
272,8	24,871
273,3	21,214
273,7	20,786
274,2	20,529
274,7	19,3
275,1	15,471
275,6	14,786
276,1	8,614
276,5	10,871
277	4,014
277,4	1,271
277,9	-5,443
278,4	-2,586
278,8	-6,414
279,3	-4,557
279,8	-6,271
280,2	-0,386
280,7	3,671
281,1	6,3
281,6	1,071
282,1	2,271
282,5	-0,1
283	2,129
283,4	-2,414
283,9	-4,186
284,4	-5,043
284,8	1,014
285,3	-2,329
285,8	-3,271
286,2	-5,329
286,7	-3,843
287,1	-2,3
287,6	-0,9
288,1	-2,871
288,5	-2,157
289	-0,357
289,5	2,443
289,9	4,271
290,4	-1,5
290,8	1,586
291,3	6,414
291,8	7,043
292,2	8,529
292,7	5,471
293,1	6,643
293,6	12,471
294,1	12,471
294,5	7,071
295	7,986
295,5	4,357
295,9	4,786
296,4	-1,671
296,8	-2,929
297,3	-2,957
297,8	-7,071
298,2	-4,186
298,7	-2,614
299,1	-3,443
299,6	-0,1
300,1	2,7
300,5	3,957
301	5,071
301,5	6,5
301,9	9,843
302,4	9,614
302,8	12,871
303,3	8,557
303,8	6,386
304,2	10,243
304,7	8,7
305,1	4,586
305,6	3,557
306,1	-0,1
306,5	1,071
307	-1,329
307,4	-1,157
307,9	-2,3
308,4	-3,643
308,8	3,9
309,3	2,814
309,8	4,986
310,2	8,414
310,7	8,814
311,1	9,529
311,6	10,643
312,1	5,071
312,5	9,757
313	5,557
313,4	4,129
313,9	0,329
314,4	0,586
314,8	3,986
315,3	1,9
315,7	1,814
316,2	3,986
316,7	2,071
317,1	8,129
317,6	9,271
318	5,986
318,5	9,1
319	6,471
319,4	0,614
319,9	-0,329
320,3	-6,729
320,8	-8,957
321,3	-7,271
321,7	-6,243
322,2	-7,5
322,6	-1,757
323,1	1,557
323,6	4,443
324	5,329
324,5	5,3
324,9	4,129
325,4	8,671
325,9	3,357
326,3	4,929
326,8	3,986
327,2	6,014
327,7	4,871
328,2	4,957
328,6	3,129
329,1	6,214
329,5	2,871
330	0,214
330,5	-3,929
330,9	-4,443
331,4	-5,1
331,8	-5,9
332,3	0,471
332,8	2,357
333,2	5,014
333,7	6,243
334,1	6,929
334,6	8,3
335,1	8,557
335,5	5,186
336	4,729
336,4	6,786
336,9	5,186
337,4	7,357
337,8	6,157
338,3	8,586
338,7	8,157
339,2	6,7
339,7	4,357
340,1	7,7
340,6	3,043
341	4,414
341,5	8,014
342	9,986
342,4	18,3
342,9	25,357
343,3	21,671
343,8	27,843
344,2	27,814
344,7	23,757
345,2	27,957
345,6	22,3
346,1	15,186
346,5	17,414
347	12,5
347,5	12,671
347,9	16,157
348,4	9,443
348,8	11,786
349,3	16,129
349,8	20,414
350,2	23,586
350,7	30,1
351,1	29,529
351,6	34,957
352	36,443
352,5	42,9
353	49,129
353,4	53,843
353,9	57,386
354,3	69,214
354,8	80,529
355,3	99,471
355,7	111,186
356,2	129,014
356,6	154,843
357,1	180,957
357,5	206,986
358	241,214
358,5	281,671
358,9	332,814
359,4	388,471
359,8	447,7
360,3	517,529
360,8	596,9
361,2	683,871
361,7	777,614
362,1	878,3
362,6	984,357
363	1107,843
363,5	1236,9
364	1372,414
364,4	1512,3
364,9	1649,729
365,3	1789,529
365,8	1920,757
366,3	2042,186
366,7	2151,243
367,2	2240,557
367,6	2315,929
368,1	2371,3
368,5	2412,671
369	2432,3
369,5	2431,586
369,9	2411,929
370,4	2375,329
370,8	2320,414
371,3	2251,671
371,7	2163,271
372,2	2077,671
372,7	1977,929
373,1	1872,443
373,6	1767,557
374	1661,271
374,5	1555,643
374,9	1450,043
375,4	1346,929
375,9	1247,986
376,3	1153,214
376,8	1060,9
377,2	970,414
377,7	891,7
378,2	820,214
378,6	750,729
379,1	688,329
379,5	627,214
380	576,957
380,4	531,871
380,9	486,557
381,4	443,586
381,8	406,214
382,3	376,014
382,7	353,729
383,2	329,9
383,6	306,3
384,1	283,157
384,6	264,071
385	244,357
385,5	223,386
385,9	205,586
386,4	190,1
386,8	174,271
387,3	164,9
387,7	157,214
388,2	147,014
388,7	135,614
389,1	122,271
389,6	113,043
390	106,071
390,5	99,3
390,9	90,786
391,4	87,614
391,9	84,586
392,3	83,3
392,8	79,529
393,2	71,071
393,7	65,243
394,1	62,129
394,6	57,529
395,1	57,557
395,5	56,7
396	54,157
396,4	56,386
396,9	55,129
397,3	55,957
397,8	56,929
398,2	52,757
398,7	49,614
399,2	47,5
399,6	46,757
400,1	42,843
400,5	38,529
401	34,443
401,4	31,386
401,9	30,929
402,4	33,757
402,8	36,043
403,3	43,386
403,7	45,729
404,2	48,757
404,6	52,443
405,1	50,786
405,5	53,014
406	50,986
406,5	49,814
406,9	51,243
407,4	51,786
407,8	57,214
408,3	61,9
408,7	65,5
409,2	75,986
409,6	82,7
410,1	91,929
410,6	95,214
411	101,1
411,5	107,3
411,9	109,786
412,4	116,071
412,8	124,843
413,3	127,957
413,7	135,243
414,2	144,1
414,7	152,471
415,1	157,643
415,6	162,3
416	166,129
416,5	177,614
416,9	186,5
417,4	192,014
417,8	203,843
418,3	220,043
418,8	236,786
419,2	251,157
419,7	257,329
420,1	272,014
420,6	291,843
421	303,357
421,5	313,471
421,9	326,614
422,4	337,843
422,8	360,757
423,3	378,786
423,8	393,929
424,2	412,414
424,7	438,929
425,1	459,614
425,6	479,1
426	500,129
426,5	522,186
426,9	545,557
427,4	580,929
427,9	602,014
428,3	626,271
428,8	661,386
429,2	688,7
429,7	721,7
430,1	758,529
430,6	786,157
431	826,643
431,5	867,986
431,9	912,329
432,4	959,186
432,8	1003,414
433,3	1044,957
433,8	1093,843
434,2	1145,271
434,7	1201,471
435,1	1263,214
435,6	1320,357
436	1388,414
436,5	1458,271
436,9	1528,414
437,4	1595,671
437,8	1668,957
438,3	1736,357
438,8	1813,414
439,2	1891,986
439,7	1973,671
440,1	2055,043
440,6	2142,157
441	2235,386
441,5	2331,929
441,9	2431,929
442,4	2534,071
442,8	2641,329
443,3	2753,814
443,7	2871,871
444,2	2983,757
444,7	3102,957
445,1	3226,043
445,6	3356,243
446	3480,214
446,5	3618,986
446,9	3758,014
447,4	3899,014
447,8	4046,243
448,3	4194,843
448,7	4347,871
449,2	4511,729
449,6	4671,471
450,1	4832,929
450,6	5000,757
451	5160,757
451,5	5335,043
451,9	5506,614
452,4	5678,786
452,8	5860,843
453,3	6043,9
453,7	6237,986
454,2	6435,014
454,6	6630,929
455,1	6830,414
455,5	7028,529
456	7227,214
456,4	7434,814
456,9	7639,043
457,3	7857,529
457,8	8071,643
458,3	8286,557
458,7	8518,157
459,2	8736,9
459,6	8962,9
460,1	9186,671
460,5	9407,786
461	9633,414
461,4	9861,557
461,9	10085,357
462,3	10305,214
462,8	10532,271
463,2	10762,7
463,7	11000,043
464,1	11235,814
464,6	11468,757
465	11700,786
465,5	11941,729
466	12180,129
466,4	12410,271
466,9	12631,9
467,3	12857,471
467,8	13090,014
468,2	13314,414
468,7	13560,529
469,1	13788,557
469,6	14029,529
470	14273,986
470,5	14500,071
470,9	14715,271
471,4	14931,186
471,8	15139,214
472,3	15342,729
472,7	15546,7
473,2	15733,1
473,6	15938,214
474,1	16139,014
474,5	16342,557
475	16529,357
475,4	16730,157
475,9	16913,329
476,4	17103,729
476,8	17270,9
477,3	17443,043
477,7	17607,643
478,2	17752,1
478,6	17899,843
479,1	18044,3
479,5	18181,929
480	18315,957
480,4	18438,929
480,9	18565,586
481,3	18704,957
481,8	18823,529
482,2	18931,814
482,7	19028,329
483,1	19135,1
483,6	19239,929
484	19314,7
484,5	19391,357
484,9	19457,214
485,4	19522,871
485,8	19579,614
486,3	19639,557
486,7	19681,671
487,2	19735,9
487,6	19768,9
488,1	19806,357
488,5	19828,129
489	19850,614
489,4	19851,9
489,9	19868,814
490,4	19862,814
490,8	19847,986
491,3	19827,329
491,7	19800,957
492,2	19783,871
492,6	19763,357
493,1	19716,671
493,5	19671,357
494	19637,357
494,4	19585,557
494,9	19537,671
495,3	19459,357
495,8	19382,157
496,2	19310,1
496,7	19225,1
497,1	19145,871
497,6	19062,671
498	18989,9
498,5	18924,1
498,9	18849,814
499,4	18758,043
499,8	18688,757
500,3	18589,129
500,7	18501,357
501,2	18393,757
501,6	18296,757
502,1	18186,643
502,5	18095,1
503	17990,157
503,4	17887,1
503,9	17766,9
504,3	17667,786
504,8	17535,643
505,2	17422,3
505,7	17295,729
506,1	17163,043
506,6	17036,643
507	16909,043
507,5	16773,814
507,9	16653,729
508,4	16510,757
508,8	16379,757
509,3	16255,757
509,7	16124,671
510,2	16003,186
510,6	15862,557
511,1	15725,757
511,5	15587,929
512	15442,9
512,4	15293,814
512,9	15149,529
513,3	14996,814
513,8	14846,186
514,2	14694,871
514,7	14547,871
515,1	14399,7
515,6	14252,9
516	14102,557
516,5	13961,443
516,9	13827,443
517,4	13686,414
517,8	13549,329
518,3	13420,843
518,7	13273,871
519,2	13139,443
519,6	12993,614
520,1	12849,329
520,5	12705,586
521	12555,929
521,4	12407,329
521,9	12281,271
522,3	12138,071
522,8	12007,671
523,2	11877,9
523,7	11754,529
524,1	11629,1
524,6	11493,043
525	11364,271
525,5	11247,214
525,9	11118,329
526,4	10991,557
526,8	10871,586
527,3	10755,614
527,7	10645,957
528,2	10526,557
528,6	10410,614
529,1	10297,929
529,5	10181,786
530	10063,786
530,4	9962,186
530,9	9842,843
531,3	9738,786
531,8	9625,1
532,2	9515,471
532,6	9417,357
533,1	9323,929
533,5	9214,871
534	9125,243
534,4	9017,757
534,9	8923,1
535,3	8829,729
535,8	8722,271
536,2	8611,614
536,7	8513,443
537,1	8414,986
537,6	8333,729
538	8239,157
538,5	8148,957
538,9	8067,929
539,4	7982,3
539,8	7902,986
540,3	7824,871
540,7	7738,157
541,2	7657,443
541,6	7578,957
542,1	7504,214
542,5	7433,414
543	7356,786
543,4	7279,557
543,9	7197,243
544,3	7123,129
544,8	7047,957
545,2	6973,071
545,7	6905,5
546,1	6834,186
546,5	6767,557
547	6706,729
547,4	6638,386
547,9	6573,043
548,3	6505,9
548,8	6441,414
549,2	6386,9
549,7	6325,129
550,1	6268,757
550,6	6220,643
551	6160,843
551,5	6110,071
551,9	6051,786
552,4	5994,1
552,8	5943,243
553,3	5882,471
553,7	5831,7
554,2	5791,7
554,6	5739,529
555,1	5691,071
555,5	5646,243
555,9	5598,186
556,4	5553,243
556,8	5503,843
557,3	5454,529
557,7	5413,929
558,2	5372,3
558,6	5323,329
559,1	5276,957
559,5	5241,786
560	5190,043
560,4	5143,786
560,9	5098,357
561,3	5061,929
561,8	5019,814
562,2	4983,986
562,7	4941,329
563,1	4912,386
563,6	4882,529
564	4847,957
564,4	4802,129
564,9	4760,757
565,3	4719,871
565,8	4679,986
566,2	4640,729
566,7	4599,157
567,1	4558,3
567,6	4524,129
568	4498,871
568,5	4469,157
568,9	4440,986
569,4	4414,071
569,8	4384,529
570,3	4350,043
570,7	4321,471
571,1	4288,3
571,6	4251,414
572	4217,529
572,5	4180,671
572,9	4151,614
573,4	4125,414
573,8	4095,157
574,3	4060,071
574,7	4036,386
575,2	4012,557
575,6	3989,271
576,1	3959,157
576,5	3935,529
576,9	3909,329
577,4	3886,814
577,8	3857,614
578,3	3825,871
578,7	3789,729
579,2	3766,757
579,6	3738,557
580,1	3709,786
580,5	3685,471
581	3661,071
581,4	3637,414
581,9	3622,757
582,3	3590,843
582,7	3561,814
583,2	3536,043
583,6	3509,871
584,1	3484,586
584,5	3462,786
585	3434,186
585,4	3418,071
585,9	3390,986
586,3	3376,814
586,8	3360,214
587,2	3340,1
587,6	3314,957
588,1	3297,614
588,5	3268,129
589	3249,329
589,4	3221,243
589,9	3203,129
590,3	3187,386
590,8	3170,1
591,2	3150,329
591,7	3132,757
592,1	3118,414
592,5	3103,129
593	3077,814
593,4	3054,929
593,9	3041,643
594,3	3023,329
594,8	3009,071
595,2	2994,671
595,7	2979,471
596,1	2964,757
596,6	2947,271
597	2924,7
597,4	2907,357
597,9	2893,529
598,3	2875,5
598,8	2856,386
599,2	2843,386
599,7	2833,643
600,1	2818,7
600,6	2807,586
601	2791,214
601,4	2784,443
601,9	2773,014
602,3	2752,614
602,8	2727,871
603,2	2714,557
603,7	2696,129
604,1	2687,529
604,6	2665,557
605	2648,929
605,4	2637,443
605,9	2624,814
606,3	2616,243
606,8	2602,643
607,2	2585,357
607,7	2574,786
608,1	2561,757
608,6	2546,843
609	2538,471
609,4	2517,414
609,9	2504,757
610,3	2486,5
610,8	2469,814
611,2	2453,043
611,7	2432,643
612,1	2421,214
612,6	2406,471
613	2388,586
613,4	2378,214
613,9	2362,414
614,3	2348,557
614,8	2343,9
615,2	2326,814
615,7	2311,529
616,1	2300,929
616,6	2283,386
617	2269,071
617,4	2258,871
617,9	2239,1
618,3	2222,214
618,8	2214,614
619,2	2199,986
619,7	2186,7
620,1	2177,929
620,5	2159,643
621	2148,129
621,4	2140,929
621,9	2125,929
622,3	2110,471
622,8	2095,214
623,2	2076,843
623,6	2074,186
624,1	2060,129
624,5	2040,129
625	2028,671
625,4	2015,557
625,9	2002,757
626,3	1991,986
626,8	1975,071
627,2	1966,414
627,6	1957,843
628,1	1942,957
628,5	1932,557
629	1927,357
629,4	1916,357
629,9	1906,3
630,3	1886,271
630,7	1869,214
631,2	1855,7
631,6	1841,986
632,1	1825,729
632,5	1809,329
633	1789,271
633,4	1782,471
633,8	1772,471
634,3	1752,986
634,7	1744,157
635,2	1730,129
635,6	1725,129
636,1	1718,5
636,5	1708,043
636,9	1697,557
637,4	1692,529
637,8	1674,814
638,3	1663,643
638,7	1647,157
639,2	1636,129
639,6	1621,843
640	1614,671
640,5	1603,757
640,9	1594,414
641,4	1583,1
641,8	1571,471
642,2	1560,1
642,7	1556,843
643,1	1547,386
643,6	1535,443
644	1530,643
644,5	1527,5
644,9	1523,329
645,3	1514,986
645,8	1502,329
646,2	1485,157
646,7	1477,729
647,1	1473,557
647,6	1459,671
648	1448,071
648,4	1436,671
648,9	1431,129
649,3	1426,357
649,8	1423,386
650,2	1413,929
650,6	1409,3
651,1	1408,043
651,5	1400,214
652	1393,614
652,4	1382,5
652,9	1374,986
653,3	1362,843
653,7	1351,357
654,2	1336,071
654,6	1328,014
655,1	1310,757
655,5	1306,471
655,9	1294,529
656,4	1286,157
656,8	1281,271
657,3	1272,014
657,7	1262,729
658,2	1259,786
658,6	1251,9
659	1243,271
659,5	1234,071
659,9	1224,071
660,4	1217,1
660,8	1213,957
661,2	1200,529
661,7	1191,471
662,1	1182,586
662,6	1172,586
663	1159,814
663,4	1154,871
663,9	1143,643
664,3	1140,414
664,8	1132,557
665,2	1124,757
665,6	1120,443
666,1	1116,357
666,5	1105,214
667	1091,729
667,4	1084,614
667,9	1071,586
668,3	1065,986
668,7	1056,614
669,2	1050,414
669,6	1043,614
670,1	1038,043
670,5	1029,329
670,9	1023,271
671,4	1013,957
671,8	1006,871
672,3	997,671
672,7	992,786
673,1	987,643
673,6	978,871
674	974,871
674,5	970,7
674,9	964,929
675,3	956,443
675,8	946,071
676,2	941,043
676,7	936,271
677,1	926,729
677,5	914,643
678	907,5
678,4	907,586
678,9	904,386
679,3	895,643
679,7	886,614
680,2	884,443
680,6	879,843
681,1	879,329
681,5	866,529
681,9	857,614
682,4	849,671
682,8	845,757
683,3	840,814
683,7	835,243
684,1	819,729
684,6	819,186
685	812,757
685,5	809,586
685,9	800,729
686,3	790,529
686,8	783,929
687,2	779,7
687,7	769,643
688,1	769,1
688,5	762,529
689	758,757
689,4	750,729
689,9	749,3
690,3	738,157
690,7	737,014
691,2	728,871
691,6	723,843
692	717,643
692,5	718,557
692,9	709,186
693,4	709,014
693,8	699,529
694,2	693,386
694,7	689,471
695,1	686,557
695,6	682,643
696	678,757
696,4	672,414
696,9	671,843
697,3	658,671
697,8	653,786
698,2	642,929
698,6	637,529
699,1	636,957
699,5	637,357
699,9	633,729
700,4	636,557
700,8	629,643
701,3	632,9
701,7	626,414
702,1	620,814
702,6	616,243
703	605,271
703,5	599,671
703,9	600,157
704,3	591,529
704,8	584,814
705,2	577,5
705,6	571,043
706,1	569,357
706,5	565,443
707	556,9
707,4	552,1
707,8	551,586
708,3	548,043
708,7	547,729
709,2	542,843
709,6	537,614
710	533,557
710,5	531,3
710,9	525,843
711,3	522,186
711,8	515,671
712,2	513,414
712,7	512,214
713,1	508,043
713,5	501,671
714	499,5
714,4	493,757
714,8	487,814
715,3	484,614
715,7	480,214
716,2	474,871
716,6	476,386
717	469,071
717,5	467,671
717,9	467,329
718,3	460,757
718,8	457,329
719,2	449,986
719,7	446,529
720,1	441,386
720,5	437,5
721	431,443
721,4	428,071
721,8	425,871
722,3	428,3
722,7	425,443
723,2	424,586
723,6	419,243
724	413,186
724,5	411,329
724,9	402,443
725,3	402,929
725,8	397,471
726,2	389,986
726,7	391,471
727,1	390,329
727,5	386,243
728	387,071
728,4	376,729
728,8	372,157
729,3	375,814
729,7	367,386
730,1	365,186
730,6	366,014
731	362,9
731,5	368,071
731,9	364,043
732,3	360,843
732,8	360,643
733,2	360,014
733,6	359,957
734,1	360,043
734,5	356,214
734,9	358,614
735,4	351,871
735,8	350,671
736,3	349,071
736,7	344,414
737,1	341,957
737,6	341,014
738	337,5
738,4	341,186
738,9	343,043
739,3	337,986
739,7	336,814
740,2	338,243
740,6	334,529
741,1	336,271
741,5	331,9
741,9	322,557
742,4	322,157
742,8	320,071
743,2	311,671
743,7	304,5
744,1	296,443
744,5	293,986
745	297,671
745,4	293,557
745,8	289,7
746,3	289,757
746,7	292,643
747,2	290,214
747,6	286,986
748	280,014
748,5	278,043
748,9	271,957
749,3	270,471
749,8	268,1
750,2	264,557
750,6	267,671
751,1	267,5
751,5	266,814
751,9	268,986
752,4	266,243
752,8	258,671
753,3	260,671
753,7	257,471
754,1	256,186
754,6	254,643
755	253,529
755,4	250,643
755,9	255,243
756,3	252,414
756,7	250,529
757,2	250,186
757,6	251,186
758	248,9
758,5	248,557
758,9	247,329
759,3	247,757
759,8	245,243
760,2	241,814
760,6	238,214
761,1	232,7
761,5	231,929
761,9	228,529
762,4	226,9
762,8	230,814
763,3	233,529
763,7	226,157
764,1	228,671
764,6	223,871
765	224,929
765,4	221,414
765,9	211,7
766,3	208,843
766,7	215,386
767,2	214,843
767,6	219,586
768	217,786
768,5	218,671
768,9	214,529
769,3	211,529
769,8	209,986
770,2	203,843
770,6	195,814
771,1	192,071
771,5	189,357
771,9	195,157
772,4	191,614
772,8	187,9
773,2	191,9
773,7	194,071
774,1	193,443
774,5	194,757
775	195,529
775,4	198,043
775,8	198,014
776,3	198,671
776,7	195,557
777,1	195,757
777,6	190,786
778	187,3
778,4	180,843
778,9	178,614
779,3	174,614
779,7	176,786
780,2	176,7
780,6	183,443
781	178,5
781,5	178,443
781,9	181,386
782,3	179,814
782,8	180,271
783,2	174,357
783,6	171,357
784,1	170,271
784,5	171,071
784,9	164,071
785,4	161,929
785,8	160,414
786,2	162,357
786,7	155,843
787,1	155,986
787,5	155,529
788	159,071
788,4	158,7
788,8	155,643
789,3	151,014
789,7	152,729
790,1	151,214
790,6	147,9
791	142,929
791,4	139,214
791,9	140,3
792,3	144,214
792,7	140,271
793,2	139,014
793,6	143,814
794	146,186
794,5	147,9
794,9	144,671
795,3	143,929
795,8	145,386
796,2	148,329
796,6	140,157
797,1	142,186
797,5	137,957
797,9	138,243
798,4	133,043
798,8	134,329
799,2	132,357
799,7	135,729
800,1	132,871
800,5	132,5
801	128,814
801,4	129,386
801,8	124,329
802,2	124,9
802,7	127,043
803,1	126,643
803,5	127,214
804	129,214
804,4	127,043
804,8	125,1
805,3	119,671
805,7	114,3
806,1	110,814
806,6	110,1
807	107,414
807,4	113,443
807,9	113,757
808,3	112,614
808,7	110,7
809,2	112,786
809,6	110,929
810	111,586
810,4	107,071
810,9	108,471
811,3	107,186
811,7	108,586
812,2	108,643
812,6	106,271
813	102,7
813,5	99,557
813,9	103,529
814,3	105,243
814,8	103,529
815,2	96,529
815,6	98,7
816,1	95,357
816,5	97,843
816,9	87,214
817,3	83,5
817,8	83,7
818,2	86,843
818,6	86,043
819,1	90,957
819,5	88,643
819,9	95,471
820,4	98,871
820,8	99,271
821,2	96,786
821,7	96,329
822,1	95,586
822,5	94,9
822,9	90,786
823,4	87,186
823,8	87,214
824,2	85,471
824,7	81,243
825,1	79,157
825,5	76,671
826	76,071
826,4	79,843
826,8	70,129
827,3	70,3
827,7	73,929
828,1	72,3
828,5	71,529
829	69,471
829,4	65,986
829,8	73,3
830,3	71,986
830,7	67,986
831,1	70,586
831,6	71,3
832	71,7
832,4	70,557
832,8	70,957
833,3	74,929
833,7	77,329
834,1	75,671
834,6	74,243
835	75,643
835,4	84,043
835,8	79,386
836,3	74,014
836,7	70,186
837,1	65,586
837,6	64,7
838	62,786
838,4	50,1
838,9	51,614
839,3	55,129
839,7	59,929
840,1	62,843
840,6	62,386
841	61,329
841,4	66,386
841,9	66,529
842,3	62,243
842,7	62,7
843,1	59,9
843,6	64,614
844	66,214
844,4	63,043
844,9	63,586
845,3	61,557
845,7	63,271
846,2	65,243
846,6	62,157
847	57,814
847,4	56,129
847,9	51,814
848,3	54,814
848,7	46,7
849,2	45,186
849,6	44,471
850	46,414
850,4	48,243
850,9	50,386
851,3	46,243
851,7	51,671
852,2	50,7
852,6	47,671
853	45,557
853,4	42,729
853,9	44,157
854,3	47,586
854,7	39,7
855,2	41,757
855,6	42,386
856	45,357
856,4	51,671
856,9	49,729
857,3	48,7
857,7	51,329
858,2	47,7
858,6	45,071
859	44,586
859,4	39,843
859,9	37,871
860,3	41,986
860,7	41,329
861,1	42,986
861,6	44,3
862	41,357
862,4	41,214
862,9	41,071
863,3	34,414
863,7	36,443
864,1	34,3
864,6	38,7
865	42,671
865,4	44,786
865,9	47,729
866,3	47,186
866,7	48,557
867,1	47,5
867,6	41,614
868	32,329
868,4	27,414
868,8	24,671
869,3	29,129
869,7	29,814
870,1	32,129
870,6	32,157
871	-14,386
871,4	-9,043
871,8	-9,671
872,3	-16,014
872,7	-24,443
873,1	-25,7
873,5	-24,957
874	29,671
874,4	28,043
874,8	27,271
875,3	30,157
875,7	32,014
876,1	33,557
876,5	34,586
877	29,414
877,4	29,7
877,8	29,986
878,2	26,1
878,7	28,586
879,1	25,7
879,5	26,043
879,9	22,643
880,4	23,3
880,8	22,071
881,2	24,729
881,7	26,671
882,1	31,1
882,5	27,129
882,9	31,186
883,4	28,9
883,8	29,1
884,2	28,329
884,6	24,243
885,1	20,071
885,5	21,643
885,9	22,3
886,3	19,471
886,8	22,1
887,2	22,214
887,6	20,1
888	23,357
888,5	21,557
888,9	23,329
889,3	28,071
889,8	27,186
890,2	26,757
890,6	30,386
891	30,071
891,5	27,5
891,9	21,757
892,3	16,3
892,7	14,7
893,2	16,814
893,6	11,3
894	8,043
894,4	14,586
894,9	12,757
895,3	14,129
895,7	13,643
896,1	9,871
896,6	15,214
897	15,357
897,4	7,957
897,8	12,186
898,3	11,843
898,7	8,929
899,1	10,043
899,5	6,014
900	10,814
900,4	17,214
900,8	18,414
901,2	19,3
901,7	23,529
902,1	27,7
902,5	28,443
902,9	23,5
903,4	19,414
903,8	18,614
904,2	12,7
904,6	10,186
905,1	7,271
905,5	11,129
905,9	9,471
906,3	9,1
906,8	7,186
907,2	7,586
907,6	10,786
908	12,929
908,5	10,443
908,9	10,957
909,3	11,786
909,7	12,271
910,2	16,929
910,6	15,157
911	11,929
911,4	11,329
911,9	13,7
912,3	15,471
912,7	16,1
913,1	12,471
913,6	12,671
914	12,3
914,4	9,929
914,8	5,9
915,3	8,929
915,7	7,986
916,1	11,386
916,5	10,129
916,9	12,3
917,4	10,557
917,8	10,814
918,2	11,157
918,6	11,729
919,1	12,5
919,5	12,214
919,9	9,586
920,3	14,7
920,8	17,329
921,2	13,871
921,6	14,9
922	16,1
922,5	14,786
922,9	18,9
923,3	20,5
923,7	15,186
924,2	12,014
924,6	9,414
925	12,243
925,4	9,043
925,8	2,3
926,3	-0,786
926,7	5,9
927,1	11,729
927,5	16,557
928	16,214
928,4	21,586
928,8	26,329
929,2	29,643
929,7	25,586
930,1	21,1
930,5	19,471
930,9	16,757
931,3	15,386
931,8	9,729
932,2	7,586
932,6	11,7
933	12,643
933,5	8,9
933,9	6,014
934,3	6,529
934,7	7,243
935,2	1,929
935,6	-1,643
936	2,986
936,4	3,557
936,8	3,671
937,3	5,843
937,7	6,671
938,1	10,014
938,5	8,186
939	2,329
939,4	7,386
939,8	10,757
940,2	6,414
940,6	7,757
941,1	7,157
941,5	13,843
941,9	18,043
942,3	13,071
942,8	9,443
943,2	12,243
943,6	15,386
944	14,671
944,4	6,786
944,9	4,414
945,3	6,614
945,7	11,557
946,1	7,414
946,6	2,757
947	4,586
947,4	7,986
947,8	3,529
948,2	5,014
948,7	1,643
949,1	4,871
949,5	5,986
949,9	6,1
950,3	5,729
950,8	7,9
951,2	6,443
951,6	7,043
952	6,443
952,5	8,986
952,9	8,586
953,3	10,329
953,7	10,329
954,1	10,643
954,6	3,529
955	4,929
955,4	5,3
955,8	4,329
956,2	3,843
956,7	4,5
957,1	2,7
957,5	7,957
957,9	8,186
958,3	6,243
958,8	6,1
959,2	4,586
959,6	7,071
960	12,643
960,5	14,443
960,9	14,243
961,3	16,757
961,7	19,5
962,1	15,357
962,6	13,214
963	11,157
963,4	11,929
963,8	9,729
964,2	5,871
964,7	4,243
965,1	14,186
965,5	11,729
965,9	6,614
966,3	5,443
966,8	6,329
967,2	6,014
967,6	6,414
968	-1,729
968,4	2,129
968,9	1,3
969,3	-2,529
969,7	0,243
970,1	0,357
970,5	2,071
971	0,7
971,4	1,814
971,8	3,586
972,2	7,357
972,6	5,529
973,1	6,814
973,5	5,843
973,9	9,871
974,3	8,386
974,7	5,671
975,2	-0,357
975,6	-1,9
976	-1,757
976,4	-4,5
976,8	-1,843
977,3	-2,186
977,7	1,471
978,1	2,443
978,5	7,071
978,9	4,814
979,4	3,071
979,8	0,957
980,2	-0,043
980,6	-1,786
981	1,071
981,5	-8,186
981,9	-4,129
982,3	0,243
982,7	-3,357
983,1	1,271
983,6	4,729
984	0,871
984,4	9,157
984,8	9,357
985,2	8,671
985,6	7,957
986,1	2,043
986,5	2,129
986,9	3,386
987,3	2,929
987,7	-1,9
988,2	-4,329
988,6	-4,271
989	-3,357
989,4	-5,757
989,8	-1,443
990,3	-4,7
990,7	0,414
991,1	0,643
991,5	4,986
991,9	4,443
992,3	6,414
992,8	3,157
993,2	0,871
993,6	-4,157
994	0,986
994,4	-0,557
994,9	0,843
995,3	2,7
995,7	8,386
996,1	14,414
996,5	16,129
996,9	11,786
997,4	12,757
997,8	15,671
998,2	8,214
998,6	0,386
999	-3,786
999,5	-2,786
999,9	-0,357
1000,3	-6,014
1000,7	-9,443
1001,1	-5,614
1001,5	-5,3
1002	-6,643
1002,4	-7,557
1002,8	-8,129
1003,2	0,329
1003,6	3,9
1004	3,871
1004,5	5,814
1004,9	10,3
1005,3	7,014
1005,7	6,129
1006,1	2,5
1006,6	-3,014
1007	-4,957
1007,4	-3,586
1007,8	-8,671
1008,2	-1,557
1008,6	-3,671
1009,1	-4,786
1009,5	-1,957
1009,9	1,786
1010,3	-1,957
1010,7	-3,157
1011,1	-10,557
1011,6	-3,043
1012	2,3
1012,4	1,043
1012,8	-3,071
1013,2	1,043
1013,6	3,757
1014,1	6,271
1014,5	-2,357
1014,9	-7,386
1015,3	-9,329
1015,7	-7,129
1016,1	-5,986
1016,6	-6,243
1017	-2,729
1017,4	-1,5
1017,8	4,014
1018,2	2,586
1018,6	0,986
1019,1	0,443
1019,5	2,7
1019,9	-0,643
1020,3	0,586
1020,7	-8,414
1021,1	-4,929
1021,6	-0,329
1022	-1,614
1022,4	-5,271
1022,8	-5,9
1023,2	-3,586
1023,6	-1,643
1024,1	1,557
1024,5	-9,3
1024,9	-12,3
1025,3	-13,9
1025,7	-12,014
1026,1	-13,071
1026,6	-11,014
1027	-9,586
1027,4	-7,271
1027,8	1,214
1028,2	7,7
1028,6	8,5
1029	7,671
1029,5	2,471
1029,9	-6,3
1030,3	-0,386
1030,7	-4,386
1031,1	-4,7
1031,5	-7,071
1032	-7,414
1032,4	-1,3
1032,8	4,214
1033,2	3,871
1033,6	8,043
1034	5,129
1034,4	7,5
1034,9	10,757
1035,3	13,7
1035,7	14,3
1036,1	16,186
1036,5	9,529
1036,9	13,929
1037,4	14,7
1037,8	14,043
1038,2	13,243
1038,6	9,586
1039	3,071
1039,4	2,729
1039,8	2,271
1040,3	5,214
1040,7	3,586
1041,1	-3,157
1041,5	-1,5
1041,9	6,1
1042,3	5,357
1042,7	2,786
1043,2	-1,186
1043,6	-6,986
1044	1,043
1044,4	2,843
1044,8	-1,329
1045,2	1,9
1045,6	6,3
1046,1	4,129
1046,5	12,357
1046,9	11,471
1047,3	6,443
1047,7	12,986
1048,1	12,043
1048,5	7,786
1049	13,357
1049,4	11,557
1049,8	6,929
1050,2	9,243
1050,6	-1,3
1051	2,014
1051,4	-2,329
1051,9	-8,643
1052,3	-2,786
1052,7	-4,157
1053,1	-0,529
1053,5	2,814
1053,9	0,929
1054,3	7,5
1054,8	13,471
1055,2	8,957
1055,6	8,129
1056	4,929
1056,4	12,014
1056,8	14,243
1057,2	10,871
1057,6	1,243
1058,1	-1,043
1058,5	2,729
1058,9	8,3
1059,3	7,871
1059,7	6,7
1060,1	6,129
1060,5	17,729
1061	19,643
1061,4	17,529
1061,8	17,643
1062,2	10,243
1062,6	3,643
1063	2,614
1063,4	-3,357
1063,8	-5,129
1064,3	-0,357
1064,7	-4,5
1065,1	-1,529
1065,5	3,814
1065,9	5,871
1066,3	7,614
1066,7	5,1
1067,1	4,814
1067,6	5,071
1068	2,243
1068,4	1,786
1068,8	-1,271
1069,2	-2,3
1069,6	-2,7
1070	-6,7
1070,4	-6,386
1070,9	-6,014
1071,3	-5,9
1071,7	2,757
1072,1	3,871
1072,5	8,3
1072,9	13,214
1073,3	10,186
1073,7	10,929
1074,2	12,9
1074,6	3,5
1075	4,843
1075,4	7,157
1075,8	-0,071
1076,2	4,386
1076,6	6,414
1077	4,729
1077,5	12,414
1077,9	9,729
1078,3	5,529
1078,7	11,043
1079,1	8,329
1079,5	6,957
1079,9	2,443
1080,3	-3,757
1080,7	-3,271
1081,2	-7,614
1081,6	-7,1
1082	-10,271
1082,4	-12,271
1082,8	-7,129
1083,2	-6,986
1083,6	-9,071
1084	-3,3
1084,5	-5,043
1084,9	-2,014
1085,3	-2,471
1085,7	-5,671
1086,1	-1,986
1086,5	-3,157
1086,9	-0,614
1087,3	-0,729
1087,7	-2,157
1088,2	0,9
1088,6	1,414
1089	-0,214
1089,4	3,671
1089,8	-0,271
1090,2	-2,786
1090,6	0,357
1091	1,157
1091,4	-0,643
1091,9	0,414
1092,3	0,243
1092,7	-4,729
1093,1	0,7
1093,5	-0,386
1093,9	0,357
1094,3	5,014
1094,7	7,557
1095,1	7,043
1095,5	12,9
1096	13,557
1096,4	13,671
1096,8	14,814
1097,2	12,7
1097,6	10,214
1098	9,443
1098,4	9,357
1098,8	5,9
1099,2	2,186
1099,6	1,986
1100,1	4,1
1100,5	4,414
1100,9	2,129
1101,3	0,1
1101,7	0,871
1102,1	6,614
1102,5	5,9
1102,9	7,643
1103,3	6,443
1103,7	9,957
1104,2	12,557
1104,6	10,814
1105	9,186
1105,4	5,986
1105,8	1,729
1106,2	1,986
1106,6	0,843
1107	0,157
1107,4	0,767
1107,8	-1,38
1108,3	-0,1
