Data from Subt2_019.txt Node
Date: Sat Aug 26 16:15:44 MSK 2023
User: vat
Spectrometer: MAYP114033
Trigger mode: 0
Integration Time (sec): 1,000000E0
Scans to average: 5
Electric dark correction enabled: true
Nonlinearity correction enabled: false
Boxcar width: 3
XAxis mode: Wavelengths
Number of Pixels in Spectrum: 2068
>>>>>Begin Spectral Data<<<<<
199,4	-0,1
199,9	5,52
200,4	5,667
200,8	6,629
201,3	6,886
201,8	7,771
202,2	9,857
202,7	10,857
203,2	7,257
203,6	9,143
204,1	9,143
204,6	10,086
205	12,829
205,5	11,8
206	11,943
206,4	12,714
206,9	12,257
207,4	12,429
207,8	18,629
208,3	16,8
208,8	20,629
209,2	21,171
209,7	22,286
210,2	19,4
210,6	18,057
211,1	14,029
211,5	12,771
212	8,429
212,5	7,2
212,9	7,086
213,4	5,543
213,9	5,829
214,3	5,429
214,8	7,286
215,3	6,971
215,7	6,686
216,2	7,6
216,7	11,086
217,1	10,429
217,6	12,314
218,1	7,286
218,5	3,971
219	0,543
219,5	2,486
219,9	1,886
220,4	4,771
220,9	-6,686
221,3	1,457
221,8	3,971
222,3	10,286
222,7	4,457
223,2	4,486
223,6	3,943
224,1	11,171
224,6	3,2
225	5,6
225,5	5,914
226	8,486
226,4	11,171
226,9	13,086
227,4	17,629
227,8	22,914
228,3	23,286
228,8	20,286
229,2	19,886
229,7	17,543
230,2	13,429
230,6	8,229
231,1	9,543
231,5	7,857
232	9,171
232,5	8,714
232,9	5,771
233,4	5,457
233,9	4,486
234,3	0,429
234,8	1
235,3	3,229
235,7	-0,171
236,2	-0,829
236,7	0,857
237,1	0,229
237,6	-0,057
238,1	0,486
238,5	-4,829
239	0,771
239,4	4,486
239,9	-1,514
240,4	2,629
240,8	4,571
241,3	7,629
241,8	11,6
242,2	10,143
242,7	11,943
243,2	21,371
243,6	19,171
244,1	14,686
244,6	10,714
245	6,686
245,5	3,057
245,9	0,343
246,4	-3,171
246,9	0,6
247,3	4,543
247,8	2,343
248,3	3,686
248,7	7,686
249,2	12
249,7	11,286
250,1	7,429
250,6	3,629
251	3,2
251,5	6,429
252	6,714
252,4	5,229
252,9	0,829
253,4	3,057
253,8	6,829
254,3	10,771
254,8	8
255,2	2,8
255,7	-2,971
256,1	3,371
256,6	-2,629
257,1	-4,057
257,5	-8,143
258	-8,571
258,5	-5,771
258,9	-1,086
259,4	-8,371
259,9	-6,371
260,3	-3,457
260,8	0,114
261,2	0,657
261,7	-2
262,2	-0,829
262,6	1,343
263,1	2,229
263,6	0,257
264	-1,371
264,5	0,629
264,9	3,514
265,4	-0,343
265,9	4,4
266,3	6,571
266,8	5,114
267,3	3,086
267,7	2,314
268,2	3,371
268,7	5,657
269,1	3
269,6	-0,914
270	1,629
270,5	2,857
271	1,514
271,4	-0,4
271,9	-1,371
272,4	0,514
272,8	8,6
273,3	7,543
273,7	11,857
274,2	7,629
274,7	11,743
275,1	16,257
275,6	11,429
276,1	6,486
276,5	4,857
277	-2,429
277,4	2,371
277,9	-1,657
278,4	-6,114
278,8	-3,429
279,3	-2,657
279,8	-0,686
280,2	1
280,7	0,2
281,1	-0,514
281,6	-0,886
282,1	1,286
282,5	-1,943
283	2,857
283,4	2,2
283,9	1,486
284,4	4,057
284,8	4,886
285,3	3,514
285,8	5,086
286,2	-1,057
286,7	0,571
287,1	3,943
287,6	-1,971
288,1	-2,429
288,5	-5,486
289	-6,114
289,5	-4,314
289,9	-4,171
290,4	-8,057
290,8	-1,657
291,3	2,143
291,8	6,457
292,2	10,514
292,7	12,429
293,1	14,286
293,6	18,771
294,1	19,714
294,5	14,086
295	14,171
295,5	13,657
295,9	10
296,4	6,914
296,8	8,114
297,3	6,6
297,8	4,343
298,2	1,971
298,7	-0,143
299,1	-0,314
299,6	3,686
300,1	2,971
300,5	7,257
301	9,714
301,5	11,686
301,9	18,086
302,4	15,629
302,8	17,829
303,3	14,771
303,8	6,457
304,2	9,914
304,7	10,771
305,1	2,457
305,6	6,886
306,1	2,257
306,5	-0,257
307	-1,429
307,4	-7,943
307,9	-5,829
308,4	-6
308,8	-3,914
309,3	-2,171
309,8	0,057
310,2	3,886
310,7	10,486
311,1	4,743
311,6	13
312,1	11,229
312,5	9,429
313	13,829
313,4	16,514
313,9	11,886
314,4	18,171
314,8	12,229
315,3	7,257
315,7	7,6
316,2	3,771
316,7	-0,314
317,1	4,857
317,6	1,714
318	3,114
318,5	4,686
319	7,457
319,4	3,143
319,9	2,686
320,3	2,171
320,8	2,143
321,3	1,371
321,7	2,657
322,2	0,657
322,6	4,2
323,1	5,114
323,6	3,629
324	4,543
324,5	8,286
324,9	8,743
325,4	9,914
325,9	6,514
326,3	7,914
326,8	6,914
327,2	5,686
327,7	0,429
328,2	-2,143
328,6	-5,4
329,1	-2,686
329,5	-2,743
330	-4,257
330,5	-1,543
330,9	0,857
331,4	1,4
331,8	7,429
332,3	9,486
332,8	11,914
333,2	11,486
333,7	11,4
334,1	7,514
334,6	9,171
335,1	4,114
335,5	1,314
336	-2,286
336,4	2,257
336,9	-1,343
337,4	4,114
337,8	6,086
338,3	8,057
338,7	15,086
339,2	13,771
339,7	10,457
340,1	14,229
340,6	10,371
341	11,286
341,5	11,943
342	11,914
342,4	17,8
342,9	23,886
343,3	20,457
343,8	22,8
344,2	21,286
344,7	19,486
345,2	19,171
345,6	20,571
346,1	13,829
346,5	12,229
347	14,571
347,5	15,914
347,9	22,343
348,4	19,857
348,8	21,714
349,3	28,571
349,8	33,657
350,2	38
350,7	43,629
351,1	45,314
351,6	57,343
352	66,714
352,5	83,4
353	103,771
353,4	121,114
353,9	147,2
354,3	183,771
354,8	217,543
355,3	258,4
355,7	303,086
356,2	363,486
356,6	431,143
357,1	508,714
357,5	593,371
358	698,829
358,5	820,6
358,9	957,657
359,4	1107,2
359,8	1280,771
360,3	1478,8
360,8	1693,457
361,2	1932,714
361,7	2201,286
362,1	2490,457
362,6	2807,829
363	3148,429
363,5	3502,771
364	3877,371
364,4	4256,914
364,9	4640,343
365,3	5018,229
365,8	5383,657
366,3	5721,486
366,7	6027,686
367,2	6295,6
367,6	6508,029
368,1	6664,914
368,5	6780,914
369	6832,086
369,5	6831,714
369,9	6780,514
370,4	6675,057
370,8	6531,2
371,3	6342,229
371,7	6103,629
372,2	5837,343
372,7	5550,971
373,1	5246
373,6	4934,971
374	4627,286
374,5	4318,686
374,9	4028,057
375,4	3747,543
375,9	3474,857
376,3	3209,543
376,8	2958,143
377,2	2722,543
377,7	2507,686
378,2	2301,457
378,6	2113,486
379,1	1936,886
379,5	1779
380	1636,543
380,4	1504,486
380,9	1382,543
381,4	1268,971
381,8	1161,829
382,3	1075,229
382,7	996,314
383,2	927,943
383,6	859,686
384,1	800,4
384,6	743,6
385	694,571
385,5	646,114
385,9	602,143
386,4	555,629
386,8	513,2
387,3	471,543
387,7	441,971
388,2	411,914
388,7	379,629
389,1	349,457
389,6	327,829
390	307,257
390,5	285,857
390,9	264,714
391,4	245,714
391,9	234,171
392,3	220,771
392,8	206,171
393,2	190,029
393,7	176,8
394,1	167,029
394,6	159,429
395,1	145,514
395,5	142,914
396	129,543
396,4	125,486
396,9	121,571
397,3	114,371
397,8	108,057
398,2	105,4
398,7	96,457
399,2	100,914
399,6	99,314
400,1	97,171
400,5	95,229
401	89,429
401,4	87,229
401,9	87
402,4	85,629
402,8	86,857
403,3	88,086
403,7	88,686
404,2	92,743
404,6	89,657
405,1	87,771
405,5	84,286
406	78,914
406,5	78,8
406,9	77,086
407,4	74,486
407,8	83
408,3	86,029
408,7	87,286
409,2	98,429
409,6	104,371
410,1	110,743
410,6	120,2
411	122,857
411,5	129,6
411,9	137,457
412,4	140,114
412,8	145,457
413,3	153,743
413,7	159,686
414,2	166,857
414,7	172,114
415,1	179
415,6	188,171
416	194,829
416,5	202,714
416,9	208,657
417,4	217,029
417,8	223
418,3	235,257
418,8	240,971
419,2	253,2
419,7	262,457
420,1	271,314
420,6	284,8
421	299,771
421,5	307,257
421,9	318,829
422,4	332,4
422,8	348,171
423,3	367,4
423,8	379,057
424,2	399,771
424,7	424,543
425,1	445,657
425,6	456,257
426	475,4
426,5	499,086
426,9	521,486
427,4	547,314
427,9	569,457
428,3	595,714
428,8	636,171
429,2	666,943
429,7	696,343
430,1	734,943
430,6	762,657
431	796,8
431,5	834,114
431,9	868,686
432,4	905,171
432,8	944,2
433,3	977,629
433,8	1023,286
434,2	1069,486
434,7	1113,886
435,1	1169,829
435,6	1219,6
436	1279,2
436,5	1342,486
436,9	1397,943
437,4	1463,543
437,8	1534,971
438,3	1596,857
438,8	1670,629
439,2	1738,486
439,7	1812,657
440,1	1896,2
440,6	1981,114
441	2063,229
441,5	2149
441,9	2239,543
442,4	2332,257
442,8	2428,429
443,3	2528,657
443,7	2624,286
444,2	2723
444,7	2828,4
445,1	2937,543
445,6	3057,286
446	3175,2
446,5	3287,971
446,9	3411,771
447,4	3540,257
447,8	3668,686
448,3	3795,514
448,7	3919,943
449,2	4055,143
449,6	4205,714
450,1	4346,086
450,6	4496,743
451	4643,457
451,5	4809,6
451,9	4974,914
452,4	5133,543
452,8	5302
453,3	5469,257
453,7	5629,8
454,2	5807,257
454,6	5974,686
455,1	6147,371
455,5	6324,829
456	6486,686
456,4	6664,343
456,9	6854,029
457,3	7046,486
457,8	7235,8
458,3	7424,229
458,7	7617
459,2	7827,171
459,6	8019,343
460,1	8223,571
460,5	8419,771
461	8622,886
461,4	8827,657
461,9	9040,371
462,3	9236,429
462,8	9457,343
463,2	9659,143
463,7	9865,543
464,1	10070,886
464,6	10279,229
465	10478,543
465,5	10688,286
466	10884,171
466,4	11089,8
466,9	11290,971
467,3	11488,029
467,8	11692,114
468,2	11894,686
468,7	12093,114
469,1	12302,829
469,6	12503,171
470	12698,829
470,5	12899,6
470,9	13093,343
471,4	13276,943
471,8	13469,143
472,3	13643,571
472,7	13817,571
473,2	13991,171
473,6	14161,629
474,1	14333,943
474,5	14517,743
475	14684,114
475,4	14869,314
475,9	15043,857
476,4	15210,086
476,8	15359,743
477,3	15507,629
477,7	15654,771
478,2	15781,486
478,6	15900,943
479,1	16033,143
479,5	16154,4
480	16284,057
480,4	16391,343
480,9	16489,457
481,3	16602,343
481,8	16702,371
482,2	16770,486
482,7	16860,686
483,1	16949,943
483,6	17027,657
484	17101,571
484,5	17173,743
484,9	17237,629
485,4	17309,171
485,8	17352,829
486,3	17391
486,7	17430,514
487,2	17468,6
487,6	17496,086
488,1	17519,171
488,5	17532,114
489	17553,229
489,4	17561,029
489,9	17560,371
490,4	17557,343
490,8	17547,686
491,3	17527,971
491,7	17500,914
492,2	17478,371
492,6	17447,286
493,1	17422,171
493,5	17368,486
494	17324,914
494,4	17277,286
494,9	17239,457
495,3	17172,886
495,8	17113,571
496,2	17048,829
496,7	16992,4
497,1	16927
497,6	16860,771
498	16790,571
498,5	16718,543
498,9	16635,2
499,4	16561,6
499,8	16487,229
500,3	16389,8
500,7	16308,486
501,2	16219,543
501,6	16130,2
502,1	16045,714
502,5	15953,114
503	15851,571
503,4	15770,6
503,9	15664,714
504,3	15561,057
504,8	15458,057
505,2	15346,4
505,7	15235,057
506,1	15124,943
506,6	14998,229
507	14874,686
507,5	14749,143
507,9	14632,114
508,4	14514,743
508,8	14391,571
509,3	14265,314
509,7	14152,143
510,2	14030
510,6	13913,571
511,1	13780,829
511,5	13662,314
512	13534,6
512,4	13410,829
512,9	13271,343
513,3	13153,571
513,8	13022,743
514,2	12899,229
514,7	12762,429
515,1	12632,343
515,6	12495,686
516	12370,686
516,5	12227,714
516,9	12103,143
517,4	11978,229
517,8	11852,457
518,3	11727,629
518,7	11613,286
519,2	11492,486
519,6	11378,371
520,1	11259,629
520,5	11137,343
521	11020,257
521,4	10899,086
521,9	10768
522,3	10656,143
522,8	10534,371
523,2	10418,029
523,7	10306,657
524,1	10180,229
524,6	10062,229
525	9953,971
525,5	9842,143
525,9	9742,143
526,4	9622,629
526,8	9512,171
527,3	9410,429
527,7	9316,086
528,2	9217,314
528,6	9111,971
529,1	8997,543
529,5	8903,457
530	8805,429
530,4	8707,914
530,9	8601,171
531,3	8502,657
531,8	8402,486
532,2	8318,371
532,6	8224,486
533,1	8127,543
533,5	8040,343
534	7954,429
534,4	7874,543
534,9	7785,629
535,3	7695,771
535,8	7614,971
536,2	7529,543
536,7	7446,257
537,1	7358,429
537,6	7274,714
538	7203,171
538,5	7125,743
538,9	7040,943
539,4	6963,143
539,8	6889,143
540,3	6819,429
540,7	6743,857
541,2	6666,8
541,6	6597,057
542,1	6531,286
542,5	6469,629
543	6406,2
543,4	6347,514
543,9	6286,171
544,3	6226,4
544,8	6163,029
545,2	6092,743
545,7	6027,229
546,1	5965,371
546,5	5898,257
547	5831,971
547,4	5768,6
547,9	5712,171
548,3	5665,857
548,8	5618,229
549,2	5560,829
549,7	5511,086
550,1	5458,2
550,6	5411,143
551	5359,257
551,5	5307,286
551,9	5247,629
552,4	5200,314
552,8	5153,229
553,3	5113,514
553,7	5070,086
554,2	5028,257
554,6	4985,143
555,1	4944,829
555,5	4906,4
555,9	4861,029
556,4	4819,143
556,8	4772,114
557,3	4724,229
557,7	4687,171
558,2	4650,143
558,6	4603,886
559,1	4563,486
559,5	4527,429
560	4492,371
560,4	4456,057
560,9	4423,6
561,3	4386
561,8	4354,743
562,2	4325,629
562,7	4287
563,1	4249,286
563,6	4226,714
564	4186,914
564,4	4155,429
564,9	4119,371
565,3	4088,286
565,8	4060,257
566,2	4032,914
566,7	3995,543
567,1	3955,971
567,6	3924,371
568	3894,2
568,5	3859,343
568,9	3825,143
569,4	3792,686
569,8	3759,114
570,3	3735,257
570,7	3716,4
571,1	3691,486
571,6	3662,571
572	3635,543
572,5	3609,771
572,9	3585,114
573,4	3560,286
573,8	3533
574,3	3509,257
574,7	3485,657
575,2	3466,143
575,6	3442,971
576,1	3419,029
576,5	3397,029
576,9	3365,857
577,4	3345,4
577,8	3327,971
578,3	3304,371
578,7	3277,029
579,2	3255,171
579,6	3235,314
580,1	3220,057
580,5	3196,486
581	3173,143
581,4	3154,714
581,9	3136,514
582,3	3116,6
582,7	3089,343
583,2	3067,314
583,6	3040,543
584,1	3021,286
584,5	2994,114
585	2970,314
585,4	2946,857
585,9	2926,714
586,3	2907,829
586,8	2893,343
587,2	2876,286
587,6	2855,029
588,1	2846,143
588,5	2837,429
589	2815,171
589,4	2786,229
589,9	2773,257
590,3	2753,229
590,8	2733,971
591,2	2712,6
591,7	2687,314
592,1	2680,343
592,5	2672,943
593	2647,257
593,4	2631,371
593,9	2616,6
594,3	2603
594,8	2588,514
595,2	2573,829
595,7	2559,657
596,1	2548,486
596,6	2533
597	2523,971
597,4	2509,857
597,9	2497,743
598,3	2479,714
598,8	2463,2
599,2	2455,886
599,7	2447,914
600,1	2430,314
600,6	2416,143
601	2408,343
601,4	2399,857
601,9	2389,829
602,3	2368,971
602,8	2348,4
603,2	2339,343
603,7	2326,8
604,1	2308,457
604,6	2298,886
605	2282,229
605,4	2268,943
605,9	2257,2
606,3	2246,343
606,8	2233,057
607,2	2221,886
607,7	2202,686
608,1	2195,743
608,6	2188,4
609	2175,114
609,4	2156,457
609,9	2147,286
610,3	2133
610,8	2120
611,2	2106,629
611,7	2089,143
612,1	2079,829
612,6	2072,829
613	2055,371
613,4	2040,629
613,9	2033,629
614,3	2017,686
614,8	2009,943
615,2	1995
615,7	1981,629
616,1	1971,371
616,6	1966,514
617	1952,657
617,4	1943,686
617,9	1933,143
618,3	1922,257
618,8	1911,286
619,2	1896,743
619,7	1876,6
620,1	1869
620,5	1853,6
621	1839,257
621,4	1833,571
621,9	1825,714
622,3	1816,229
622,8	1810,771
623,2	1795,514
623,6	1788,343
624,1	1777,543
624,5	1760,457
625	1746,086
625,4	1736,029
625,9	1720,229
626,3	1713,286
626,8	1707,943
627,2	1700,6
627,6	1692,286
628,1	1678,771
628,5	1672,257
629	1668,571
629,4	1655,486
629,9	1640,829
630,3	1623,629
630,7	1606,171
631,2	1597,971
631,6	1584,457
632,1	1570,143
632,5	1552,971
633	1539,743
633,4	1533,286
633,8	1529,943
634,3	1516,114
634,7	1508,257
635,2	1496,486
635,6	1490,171
636,1	1481,943
636,5	1472,486
636,9	1459,029
637,4	1450,114
637,8	1436,6
638,3	1426,4
638,7	1416,029
639,2	1403,429
639,6	1394,457
640	1393,2
640,5	1386,6
640,9	1383,314
641,4	1376,057
641,8	1369,2
642,2	1358,2
642,7	1349,457
643,1	1340,771
643,6	1334,171
644	1322,657
644,5	1319,086
644,9	1311,8
645,3	1308,771
645,8	1301,629
646,2	1291,457
646,7	1283,171
647,1	1277,629
647,6	1263,914
648	1253,314
648,4	1245,4
648,9	1240,8
649,3	1231,114
649,8	1222,571
650,2	1211,171
650,6	1206,714
651,1	1201,2
651,5	1191,971
652	1185,571
652,4	1179,171
652,9	1171,457
653,3	1167,714
653,7	1158,343
654,2	1149,629
654,6	1142,029
655,1	1123,057
655,5	1111,571
655,9	1105,171
656,4	1092,714
656,8	1089,086
657,3	1082,343
657,7	1073,8
658,2	1076,514
658,6	1076,8
659	1069,943
659,5	1063,257
659,9	1060,486
660,4	1056,657
660,8	1056,857
661,2	1043,486
661,7	1028,286
662,1	1017,686
662,6	1011,229
663	999
663,4	991,4
663,9	981,2
664,3	976,371
664,8	976,914
665,2	970,114
665,6	967,429
666,1	963,086
666,5	953,886
667	946,914
667,4	936,2
667,9	923,486
668,3	914,229
668,7	904,571
669,2	894,629
669,6	889,286
670,1	882,657
670,5	877,429
670,9	871,457
671,4	871,029
671,8	864,171
672,3	856,486
672,7	849,771
673,1	841,429
673,6	840,114
674	830,429
674,5	823,571
674,9	816,514
675,3	809,6
675,8	800,629
676,2	796,457
676,7	793,314
677,1	789,543
677,5	781,829
678	780,886
678,4	779,286
678,9	780,914
679,3	777,029
679,7	766,771
680,2	765,057
680,6	758,543
681,1	749,371
681,5	744,171
681,9	736,171
682,4	727,057
682,8	721,057
683,3	716,371
683,7	714,229
684,1	703,4
684,6	697,029
685	689,914
685,5	686,486
685,9	681,8
686,3	677,8
686,8	670,657
687,2	671,714
687,7	665,6
688,1	662,714
688,5	654,971
689	651,2
689,4	641,771
689,9	642,2
690,3	638,4
690,7	638,029
691,2	632,857
691,6	631,543
692	629,229
692,5	627,657
692,9	617,314
693,4	613,6
693,8	603,514
694,2	599,829
694,7	594,714
695,1	584,143
695,6	581,029
696	576,143
696,4	567,143
696,9	566,543
697,3	558,343
697,8	557,343
698,2	557,171
698,6	554,4
699,1	555,886
699,5	555,514
699,9	551,143
700,4	550,257
700,8	545,343
701,3	544,314
701,7	540,257
702,1	535,629
702,6	530,771
703	522,943
703,5	519,657
703,9	516,829
704,3	512,771
704,8	505,914
705,2	501,2
705,6	497,314
706,1	497,971
706,5	492,057
707	489,543
707,4	482,943
707,8	478,943
708,3	474,771
708,7	473,057
709,2	466,657
709,6	462,914
710	460,571
710,5	459,771
710,9	460,286
711,3	456,171
711,8	454,143
712,2	453,914
712,7	449,029
713,1	439,2
713,5	433,2
714	426,2
714,4	423,686
714,8	419,371
715,3	415,886
715,7	411,171
716,2	410,914
716,6	414
717	411
717,5	406,143
717,9	406,257
718,3	404,686
718,8	409,743
719,2	401,657
719,7	390,943
720,1	388,543
720,5	383,771
721	375,171
721,4	370,629
721,8	362,629
722,3	362,857
722,7	360,486
723,2	353,629
723,6	353,629
724	351,457
724,5	345,314
724,9	345,971
725,3	347,229
725,8	341,029
726,2	340,086
726,7	339,486
727,1	337,971
727,5	335,8
728	328,886
728,4	323,743
728,8	324,829
729,3	327
729,7	321,971
730,1	321,143
730,6	318,029
731	319,4
731,5	321,286
731,9	321,371
732,3	316,657
732,8	315,4
733,2	312,686
733,6	315,829
734,1	311,486
734,5	302,171
734,9	298,971
735,4	293,371
735,8	290,114
736,3	288,6
736,7	288,686
737,1	290,2
737,6	295,457
738	293,457
738,4	295
738,9	298,314
739,3	298,6
739,7	298,4
740,2	293,743
740,6	288,686
741,1	287,286
741,5	287,629
741,9	279,8
742,4	272,229
742,8	261,629
743,2	258,143
743,7	256,829
744,1	259,371
744,5	252,6
745	257,714
745,4	258,743
745,8	261,514
746,3	259,971
746,7	260,886
747,2	250,629
747,6	254,229
748	244,743
748,5	242,571
748,9	239,257
749,3	242,543
749,8	238,886
750,2	236,086
750,6	231,914
751,1	232
751,5	231,571
751,9	232,029
752,4	228,143
752,8	222,829
753,3	224,857
753,7	224,114
754,1	223,514
754,6	220
755	216,457
755,4	210,257
755,9	212,514
756,3	211,743
756,7	208,714
757,2	209,4
757,6	211,029
758	208,257
758,5	215,029
758,9	212,657
759,3	212,229
759,8	213,343
760,2	209,343
760,6	206,743
761,1	207,343
761,5	203,2
761,9	198,914
762,4	197,143
762,8	196,086
763,3	199,371
763,7	192,829
764,1	189,571
764,6	185,514
765	190,371
765,4	189,686
765,9	188,686
766,3	187,314
766,7	192,486
767,2	196,114
767,6	197,571
768	194,171
768,5	190,486
768,9	182,771
769,3	182,171
769,8	182,914
770,2	176,229
770,6	171,686
771,1	168,371
771,5	169,371
771,9	174,429
772,4	169,486
772,8	164,343
773,2	163,629
773,7	166,114
774,1	163,914
774,5	162,543
775	159,6
775,4	156,057
775,8	157,057
776,3	163,314
776,7	158,314
777,1	157,371
777,6	158,171
778	161
778,4	161,914
778,9	158,943
779,3	148,2
779,7	150,114
780,2	150
780,6	149,429
781	146,4
781,5	145,171
781,9	142,429
782,3	149,4
782,8	151,2
783,2	150,457
783,6	149,829
784,1	148,086
784,5	146,514
784,9	145,457
785,4	139,657
785,8	138,8
786,2	139,543
786,7	137,543
787,1	136,086
787,5	138,543
788	141,143
788,4	144,057
788,8	142,429
789,3	137,629
789,7	137,029
790,1	134
790,6	130,971
791	127,743
791,4	121,914
791,9	119,571
792,3	121,6
792,7	121,457
793,2	125,057
793,6	126
794	130,514
794,5	132,6
794,9	135,057
795,3	133,771
795,8	132,914
796,2	133,686
796,6	132,771
797,1	132,429
797,5	130,971
797,9	127,429
798,4	127,486
798,8	124,457
799,2	123,171
799,7	121,8
800,1	119,657
800,5	117,857
801	114,857
801,4	112,429
801,8	113,229
802,2	111,571
802,7	110,314
803,1	107,8
803,5	106,343
804	108,714
804,4	109,971
804,8	107,457
805,3	108,943
805,7	106,886
806,1	108,143
806,6	111,143
807	107,771
807,4	108,914
807,9	106,171
808,3	98,886
808,7	98
809,2	93,429
809,6	87,657
810	90
810,4	84,257
810,9	87,829
811,3	86,8
811,7	89,057
812,2	91,086
812,6	89,8
813	87,743
813,5	88,257
813,9	86,171
814,3	88,314
814,8	87,257
815,2	82,971
815,6	87
816,1	84,571
816,5	87,743
816,9	83,257
817,3	82,829
817,8	82,257
818,2	82,286
818,6	80,343
819,1	80,429
819,5	76,829
819,9	81,743
820,4	82,114
820,8	82,286
821,2	81,257
821,7	78,429
822,1	80,6
822,5	81,514
822,9	79
823,4	77,057
823,8	78,571
824,2	77,629
824,7	80,343
825,1	79,514
825,5	77,486
826	77,486
826,4	76,886
826,8	69,771
827,3	70,857
827,7	66,971
828,1	63,886
828,5	64,314
829	58,743
829,4	57,257
829,8	56,829
830,3	59,2
830,7	63,629
831,1	66,914
831,6	64,657
832	65,857
832,4	64,743
832,8	67,429
833,3	65,771
833,7	61,229
834,1	57,286
834,6	59,457
835	62,429
835,4	71,571
835,8	69,286
836,3	64,314
836,7	65,257
837,1	64,571
837,6	60,229
838	56,4
838,4	44,657
838,9	44,286
839,3	49,914
839,7	51,743
840,1	49,771
840,6	52,971
841	55,771
841,4	58,8
841,9	60,314
842,3	59,943
842,7	59,457
843,1	60,543
843,6	66,429
844	67,714
844,4	67,914
844,9	66,829
845,3	60,486
845,7	58,743
846,2	56,657
846,6	49,171
847	41,029
847,4	37,371
847,9	36,829
848,3	40,486
848,7	37,257
849,2	41,971
849,6	41,171
850	49,943
850,4	56,514
850,9	54,429
851,3	53,6
851,7	57,686
852,2	51,829
852,6	52,886
853	47,543
853,4	39,314
853,9	43,257
854,3	44,114
854,7	40,486
855,2	42,971
855,6	42,171
856	43,171
856,4	48,2
856,9	45,543
857,3	42,057
857,7	42,029
858,2	38,371
858,6	35,114
859	37,257
859,4	33,657
859,9	33,029
860,3	33,114
860,7	35,943
861,1	35,743
861,6	37,4
862	36
862,4	37,886
862,9	37,857
863,3	38,257
863,7	36,514
864,1	39,114
864,6	37,943
865	39,629
865,4	35,457
865,9	38,886
866,3	40,286
866,7	41,4
867,1	37,771
867,6	34,657
868	28,886
868,4	31,971
868,8	30,057
869,3	29,571
869,7	28,629
870,1	30,571
870,6	34,4
871	49,886
871,4	51,429
871,8	53,171
872,3	45,943
872,7	41,229
873,1	39,629
873,5	36,114
874	24,771
874,4	27,171
874,8	20,943
875,3	24,543
875,7	27,429
876,1	24,514
876,5	30,4
877	26,629
877,4	22
877,8	22,086
878,2	23,486
878,7	21,943
879,1	25,571
879,5	21,714
879,9	18,829
880,4	17,714
880,8	21,743
881,2	20,343
881,7	21,429
882,1	21,2
882,5	22,629
882,9	25,857
883,4	25,943
883,8	19,371
884,2	22,514
884,6	22,771
885,1	19,314
885,5	17,8
885,9	17,714
886,3	10,086
886,8	14,057
887,2	12,286
887,6	7,686
888	11,029
888,5	10,771
888,9	8,686
889,3	20,571
889,8	17
890,2	16,486
890,6	19,571
891	21,257
891,5	16,343
891,9	14,6
892,3	11,057
892,7	15,486
893,2	16,829
893,6	13,343
894	12,457
894,4	14,571
894,9	17,229
895,3	14,429
895,7	10,514
896,1	6,371
896,6	9,829
897	10,629
897,4	8,8
897,8	11,229
898,3	10,914
898,7	7,286
899,1	7,257
899,5	5,714
900	6,2
900,4	9,086
900,8	9,086
901,2	12,686
901,7	19,6
902,1	25,314
902,5	29,571
902,9	25,457
903,4	21,914
903,8	22,2
904,2	13,714
904,6	13,286
905,1	11,629
905,5	11,114
905,9	15,571
906,3	21,857
906,8	17,4
907,2	25,057
907,6	23,171
908	20,486
908,5	19,829
908,9	17
909,3	13,771
909,7	15,2
910,2	13,457
910,6	16,771
911	19,286
911,4	15,4
911,9	13,714
912,3	16,029
912,7	17,057
913,1	14,8
913,6	14,286
914	11,829
914,4	14,486
914,8	15,4
915,3	16,629
915,7	12,8
916,1	14,8
916,5	8,543
916,9	12,543
917,4	11,229
917,8	12
918,2	10,086
918,6	12,343
919,1	10,514
919,5	12,286
919,9	7,971
920,3	5,571
920,8	6,943
921,2	6,486
921,6	7,057
922	10,029
922,5	11,543
922,9	10,971
923,3	16,171
923,7	13,229
924,2	10,4
924,6	9,029
925	10,2
925,4	9,343
925,8	6,829
926,3	4,229
926,7	9
927,1	12,229
927,5	16,171
928	15,429
928,4	18,343
928,8	21,171
929,2	22,857
929,7	20,857
930,1	19,4
930,5	20,971
930,9	24,257
931,3	21,486
931,8	20,229
932,2	19
932,6	16,171
933	16,343
933,5	11,6
933,9	5,343
934,3	5,714
934,7	5,886
935,2	3,657
935,6	6,257
936	6,657
936,4	6,886
936,8	8,857
937,3	7,743
937,7	7,057
938,1	8,086
938,5	3,4
939	5,143
939,4	9,886
939,8	10,543
940,2	10,657
940,6	13,2
941,1	12,629
941,5	18,829
941,9	14,029
942,3	11,543
942,8	8,971
943,2	7,143
943,6	5,6
944	5
944,4	-2,143
944,9	-0,429
945,3	-3
945,7	1,829
946,1	-1,514
946,6	-1,8
947	1,686
947,4	4,8
947,8	3
948,2	6,771
948,7	1,6
949,1	4,771
949,5	6,057
949,9	4,943
950,3	5,629
950,8	3,429
951,2	-0,343
951,6	1,457
952	7,029
952,5	4,914
952,9	3,286
953,3	2,286
953,7	6,714
954,1	8,029
954,6	6,171
955	4,686
955,4	6,2
955,8	5,829
956,2	5,171
956,7	4,971
957,1	4,743
957,5	6,457
957,9	6,857
958,3	6,457
958,8	6,714
959,2	9,286
959,6	11,514
960	15,029
960,5	14,971
960,9	17,771
961,3	17,629
961,7	15,229
962,1	12,743
962,6	8,943
963	3,429
963,4	5,286
963,8	4,857
964,2	5,257
964,7	6,629
965,1	6,971
965,5	9,886
965,9	8,829
966,3	6,8
966,8	1,4
967,2	-2,086
967,6	2,229
968	0,371
968,4	-1,8
968,9	0,371
969,3	0,429
969,7	4,486
970,1	6,229
970,5	5,514
971	2,857
971,4	3,886
971,8	0,343
972,2	-2,571
972,6	-6,971
973,1	-4,914
973,5	-7,543
973,9	-5,343
974,3	-7,743
974,7	-2,657
975,2	0,229
975,6	1
976	-5
976,4	-7,714
976,8	-3,171
977,3	-1,143
977,7	-4,4
978,1	-5,714
978,5	-5,286
978,9	-1,429
979,4	0,114
979,8	-5,6
980,2	-1,714
980,6	-0,686
981	1,543
981,5	-2,543
981,9	0,8
982,3	5,086
982,7	4,886
983,1	3,057
983,6	2,657
984	0,257
984,4	7,8
984,8	6,629
985,2	4,057
985,6	7,2
986,1	6,257
986,5	4,8
986,9	1,914
987,3	-0,543
987,7	-2,6
988,2	-2,857
988,6	-0,857
989	-2,171
989,4	1,343
989,8	5,4
990,3	6,857
990,7	8,714
991,1	7,486
991,5	14,286
991,9	14,429
992,3	14,543
992,8	9,8
993,2	6,571
993,6	5,371
994	7,429
994,4	-0,371
994,9	1,343
995,3	3,229
995,7	12,629
996,1	13,229
996,5	11,457
996,9	13,257
997,4	11,829
997,8	11,829
998,2	8,914
998,6	-0,886
999	0,257
999,5	-0,229
999,9	1,486
1000,3	-1,743
1000,7	-1,314
1001,1	0,457
1001,5	3,257
1002	2,257
1002,4	4,171
1002,8	-1,514
1003,2	3,714
1003,6	3,171
1004	1,343
1004,5	-0
1004,9	-2,086
1005,3	-4,743
1005,7	-1,2
1006,1	-2,657
1006,6	-5,143
1007	-3,886
1007,4	-1,514
1007,8	0,971
1008,2	10
1008,6	8,229
1009,1	11,486
1009,5	15,686
1009,9	16,543
1010,3	12,086
1010,7	16,514
1011,1	7,314
1011,6	10,571
1012	10,6
1012,4	6,857
1012,8	1,914
1013,2	3,057
1013,6	-2,2
1014,1	-1,514
1014,5	-7,629
1014,9	-5,486
1015,3	-8,686
1015,7	-7,143
1016,1	-2,829
1016,6	-4,514
1017	-2,086
1017,4	-2,314
1017,8	-3,229
1018,2	-2
1018,6	-2,743
1019,1	-3,943
1019,5	1,914
1019,9	1,629
1020,3	1,829
1020,7	-8,371
1021,1	-6,257
1021,6	-0,543
1022	1,514
1022,4	-4,657
1022,8	-7,629
1023,2	-3,429
1023,6	2,886
1024,1	5,543
1024,5	4
1024,9	0,486
1025,3	-2,057
1025,7	-0,714
1026,1	-1,086
1026,6	-4,057
1027	-2,771
1027,4	-10,171
1027,8	-6,457
1028,2	1,714
1028,6	0,571
1029	-3,457
1029,5	-4,543
1029,9	-13,143
1030,3	-9,714
1030,7	-9,371
1031,1	-12,714
1031,5	-9,943
1032	-9,086
1032,4	-6,571
1032,8	-2,371
1033,2	0,714
1033,6	-1,8
1034	-1
1034,4	-1,629
1034,9	1,771
1035,3	0,943
1035,7	6,514
1036,1	9,029
1036,5	8,543
1036,9	10,6
1037,4	13,771
1037,8	14,286
1038,2	19,371
1038,6	14,829
1039	6,029
1039,4	8,514
1039,8	8,486
1040,3	9,543
1040,7	9,6
1041,1	4,886
1041,5	0,257
1041,9	10,429
1042,3	11,457
1042,7	10,571
1043,2	8,029
1043,6	-1,314
1044	-0,371
1044,4	6,429
1044,8	1,286
1045,2	-4
1045,6	-7,543
1046,1	-8,857
1046,5	1,943
1046,9	2,2
1047,3	-2,914
1047,7	-5,429
1048,1	-2,371
1048,5	0,686
1049	6,343
1049,4	3,029
1049,8	2,086
1050,2	4,4
1050,6	5,8
1051	7,657
1051,4	5,914
1051,9	-1,257
1052,3	2,943
1052,7	7,4
1053,1	11,114
1053,5	7,2
1053,9	4,857
1054,3	4,086
1054,8	8,229
1055,2	3,857
1055,6	-0,943
1056	-2,057
1056,4	7,171
1056,8	10,571
1057,2	14,543
1057,6	7,486
1058,1	6,114
1058,5	9,743
1058,9	11,514
1059,3	10,771
1059,7	7,686
1060,1	7,714
1060,5	14,686
1061	16,714
1061,4	14,029
1061,8	11
1062,2	6,971
1062,6	4,486
1063	2,314
1063,4	2,286
1063,8	-3,657
1064,3	0,6
1064,7	-1,2
1065,1	1,829
1065,5	3,057
1065,9	-0,114
1066,3	1,086
1066,7	6,571
1067,1	2,514
1067,6	3,914
1068	1,514
1068,4	7,571
1068,8	9,314
1069,2	5,314
1069,6	3,829
1070	3,914
1070,4	1,086
1070,9	0,629
1071,3	-4,486
1071,7	3,029
1072,1	3,114
1072,5	3,886
1072,9	9,543
1073,3	11,829
1073,7	10,029
1074,2	10,686
1074,6	2,514
1075	9,943
1075,4	11,657
1075,8	4,943
1076,2	7,686
1076,6	11,143
1077	9,629
1077,5	11,514
1077,9	7,629
1078,3	3,543
1078,7	5,314
1079,1	2,829
1079,5	3,914
1079,9	4,486
1080,3	1,714
1080,7	-0,743
1081,2	1,457
1081,6	0,6
1082	-3
1082,4	-8,2
1082,8	-8,029
1083,2	-5,2
1083,6	-9,943
1084	-7,657
1084,5	-8,714
1084,9	-6,457
1085,3	-5,229
1085,7	-6,257
1086,1	-1,714
1086,5	2,857
1086,9	0,571
1087,3	5,657
1087,7	2,2
1088,2	2,914
1088,6	6,943
1089	3,857
1089,4	5
1089,8	6,657
1090,2	2,371
1090,6	10,314
1091	10,629
1091,4	6,286
1091,9	1,571
1092,3	0,457
1092,7	-6,486
1093,1	-0,171
1093,5	-3,171
1093,9	0,629
1094,3	2,171
1094,7	5,657
1095,1	8,857
1095,5	15,457
1096	14,429
1096,4	13,886
1096,8	13,371
1097,2	14,771
1097,6	15,457
1098	15
1098,4	14,229
1098,8	8,2
1099,2	7,257
1099,6	5
1100,1	2,571
1100,5	1,429
1100,9	-4,771
1101,3	-5,914
1101,7	-2,914
1102,1	0,114
1102,5	-0,886
1102,9	3
1103,3	1,343
1103,7	4,143
1104,2	6,657
1104,6	4,6
1105	4,229
1105,4	3,886
1105,8	0,829
1106,2	2,314
1106,6	2,457
1107	0,743
1107,4	1,6
1107,8	-0,52
1108,3	-0,35
