Data from Subt2_026.txt Node
Date: Sat Aug 26 16:20:19 MSK 2023
User: vat
Spectrometer: MAYP114033
Trigger mode: 0
Integration Time (sec): 1,000000E0
Scans to average: 5
Electric dark correction enabled: true
Nonlinearity correction enabled: false
Boxcar width: 3
XAxis mode: Wavelengths
Number of Pixels in Spectrum: 2068
>>>>>Begin Spectral Data<<<<<
199,4	-0,167
199,9	3,573
200,4	1,167
200,8	-0,038
201,3	0,933
201,8	2,705
202,2	3,076
202,7	2,933
203,2	1,619
203,6	2,305
204,1	1,762
204,6	3,819
205	4,019
205,5	2,162
206	5,133
206,4	6,076
206,9	4,162
207,4	11,219
207,8	7,59
208,3	6,619
208,8	7,648
209,2	4,676
209,7	4,076
210,2	11,39
210,6	5,533
211,1	4,933
211,5	1,476
212	-1,21
212,5	-4,324
212,9	-5,438
213,4	-6,752
213,9	-8,124
214,3	-9,295
214,8	-5,552
215,3	-5,552
215,7	-5,438
216,2	-5,152
216,7	-9,61
217,1	-8,067
217,6	-2,81
218,1	-2,524
218,5	3,505
219	15,105
219,5	17,019
219,9	17,733
220,4	17,219
220,9	15,362
221,3	14,876
221,8	10,333
222,3	-0,381
222,7	-6,552
223,2	-2,295
223,6	-1,667
224,1	-2,981
224,6	-2,238
225	-1,667
225,5	5,648
226	8,362
226,4	5,819
226,9	4,619
227,4	7,219
227,8	8,905
228,3	11,962
228,8	5,162
229,2	7,876
229,7	5,162
230,2	6,819
230,6	4,333
231,1	4,619
231,5	6,476
232	12,59
232,5	14,248
232,9	15,962
233,4	16,562
233,9	13,619
234,3	12,905
234,8	11,905
235,3	10,676
235,7	12,162
236,2	10,59
236,7	8,248
237,1	10,619
237,6	7,762
238,1	4,79
238,5	3,076
239	0,105
239,4	4,105
239,9	2,533
240,4	4,019
240,8	6,162
241,3	3,248
241,8	1,848
242,2	-1,552
242,7	-0,81
243,2	3,676
243,6	4,362
244,1	-0,895
244,6	-1,581
245	-4,21
245,5	-4,638
245,9	-5,81
246,4	-9,581
246,9	-10,41
247,3	-9,038
247,8	-9,124
248,3	-4,438
248,7	2,762
249,2	-0,181
249,7	7,219
250,1	7,79
250,6	10,019
251	15,876
251,5	10,533
252	6,99
252,4	9,076
252,9	3,39
253,4	5,933
253,8	7,248
254,3	4,79
254,8	8,848
255,2	7,076
255,7	6,619
256,1	7,848
256,6	5,362
257,1	7,133
257,5	8,876
258	10,876
258,5	12,933
258,9	13,162
259,4	15,448
259,9	18,962
260,3	12,19
260,8	12,076
261,2	11,79
261,7	9,39
262,2	8,219
262,6	3,848
263,1	-1,667
263,6	5,99
264	4,705
264,5	5,419
264,9	7,848
265,4	8,762
265,9	12,476
266,3	14,362
266,8	7,705
267,3	10,476
267,7	10,333
268,2	7,848
268,7	6,19
269,1	2,876
269,6	5,876
270	12,362
270,5	11,219
271	8,619
271,4	5,705
271,9	6,505
272,4	8,362
272,8	6,733
273,3	0,133
273,7	-2,495
274,2	-1,581
274,7	3,19
275,1	-0,552
275,6	0,248
276,1	-0,095
276,5	4,99
277	5,505
277,4	7,59
277,9	2,448
278,4	6,219
278,8	6,962
279,3	6,105
279,8	11,162
280,2	10,419
280,7	4,476
281,1	9,248
281,6	9,305
282,1	12,648
282,5	12,962
283	4,019
283,4	4,562
283,9	8,276
284,4	7,105
284,8	7,876
285,3	-0,495
285,8	-4,41
286,2	-4,152
286,7	-3,295
287,1	-5,524
287,6	-2,61
288,1	0,276
288,5	2,619
289	4,19
289,5	5,848
289,9	5,133
290,4	2,848
290,8	4,876
291,3	1,905
291,8	1,505
292,2	5,19
292,7	1,162
293,1	-3,01
293,6	3,99
294,1	-3,295
294,5	-1,038
295	-0,238
295,5	0,848
295,9	6,876
296,4	14,59
296,8	9,248
297,3	13,533
297,8	12,962
298,2	13,819
298,7	8,362
299,1	10,562
299,6	7,248
300,1	10,533
300,5	13,819
301	11,705
301,5	11,162
301,9	14,248
302,4	10,905
302,8	11,505
303,3	10,476
303,8	4,562
304,2	5,848
304,7	3,59
305,1	4,59
305,6	0,133
306,1	0,705
306,5	-0,067
307	-1,638
307,4	-5,867
307,9	-2,181
308,4	-3,61
308,8	6,276
309,3	6,99
309,8	11,705
310,2	13,619
310,7	18,533
311,1	13,79
311,6	16,962
312,1	13,676
312,5	12,276
313	5,876
313,4	7,705
313,9	10,076
314,4	12,248
314,8	11,505
315,3	9,248
315,7	7,362
316,2	7,276
316,7	6,276
317,1	1,19
317,6	2,562
318	0,705
318,5	2,59
319	4,276
319,4	6,819
319,9	5,562
320,3	8,076
320,8	6,79
321,3	5,105
321,7	1,79
322,2	1,705
322,6	-1,581
323,1	-0,41
323,6	-1,81
324	-4,181
324,5	-5,867
324,9	-8,21
325,4	-6,267
325,9	1,362
326,3	5,676
326,8	7,933
327,2	11,048
327,7	14,533
328,2	13,562
328,6	13,162
329,1	11,276
329,5	7,305
330	2,59
330,5	1,962
330,9	2,19
331,4	0,362
331,8	8,59
332,3	9,79
332,8	7,905
333,2	9,99
333,7	12,076
334,1	10,476
334,6	13,733
335,1	5,79
335,5	2,733
336	2,019
336,4	3,19
336,9	4,133
337,4	5,19
337,8	10,848
338,3	11,448
338,7	10,762
339,2	15,99
339,7	17,733
340,1	14,848
340,6	12,362
341	15,905
341,5	17,476
342	15,476
342,4	10,819
342,9	6,39
343,3	6,333
343,8	11,305
344,2	11,619
344,7	8,933
345,2	8,419
345,6	11,476
346,1	16,248
346,5	18,933
347	16,333
347,5	9,39
347,9	9,19
348,4	15,59
348,8	18,419
349,3	15,59
349,8	14,162
350,2	15,276
350,7	18,79
351,1	22,333
351,6	20,162
352	24,419
352,5	31,876
353	42,39
353,4	48,362
353,9	58,39
354,3	68,276
354,8	83,762
355,3	96,619
355,7	114,933
356,2	131,619
356,6	160,533
357,1	188,676
357,5	223,419
358	264,362
358,5	308,333
358,9	352,533
359,4	411,79
359,8	468,248
360,3	534,59
360,8	608,105
361,2	691,962
361,7	779,905
362,1	884,619
362,6	990,705
363	1110,676
363,5	1240,705
364	1376,362
364,4	1505,676
364,9	1644,419
365,3	1774,676
365,8	1903,876
366,3	2024,562
366,7	2130,419
367,2	2216,276
367,6	2291,562
368,1	2341,476
368,5	2377,619
369	2392,562
369,5	2386,105
369,9	2352,448
370,4	2306,848
370,8	2249,048
371,3	2180,476
371,7	2098,305
372,2	2007,333
372,7	1898,248
373,1	1798,219
373,6	1694,105
374	1582,448
374,5	1475,705
374,9	1366,505
375,4	1258,876
375,9	1165,619
376,3	1073,933
376,8	992,076
377,2	916,905
377,7	840,105
378,2	770,819
378,6	705,676
379,1	648,333
379,5	597,79
380	545,876
380,4	494,59
380,9	459,933
381,4	425,848
381,8	399,705
382,3	371,362
382,7	338,905
383,2	311,848
383,6	291,676
384,1	267,79
384,6	246,333
385	226,733
385,5	210,419
385,9	201,019
386,4	191,762
386,8	185,676
387,3	173,819
387,7	168,19
388,2	156,448
388,7	145,162
389,1	132,876
389,6	119,162
390	107,876
390,5	101,076
390,9	95,162
391,4	91,476
391,9	89,476
392,3	79,019
392,8	79,219
393,2	69,562
393,7	66,705
394,1	63,505
394,6	58,19
395,1	55,619
395,5	59,905
396	55,533
396,4	59,305
396,9	54,733
397,3	52,019
397,8	53,419
398,2	50,19
398,7	45,048
399,2	43,99
399,6	47,79
400,1	47,362
400,5	46,362
401	44,133
401,4	46,076
401,9	48,562
402,4	50,733
402,8	42,905
403,3	47,19
403,7	50,076
404,2	48,19
404,6	49,305
405,1	48,476
405,5	44,876
406	51,019
406,5	52,476
406,9	53,533
407,4	62,333
407,8	67,048
408,3	74,219
408,7	84,105
409,2	86,248
409,6	86,648
410,1	94,476
410,6	101,133
411	107,99
411,5	114,676
411,9	119,533
412,4	133,533
412,8	146,505
413,3	155,105
413,7	161,448
414,2	173,076
414,7	189,162
415,1	202,105
415,6	212,933
416	223,533
416,5	235,419
416,9	252,076
417,4	262,933
417,8	272,076
418,3	290,076
418,8	302,019
419,2	325,419
419,7	351,048
420,1	368,819
420,6	391,933
421	415,448
421,5	438,676
421,9	466,876
422,4	487,59
422,8	505,533
423,3	533,362
423,8	564,133
424,2	598,362
424,7	628,848
425,1	658,733
425,6	692,419
426	731,248
426,5	769,219
426,9	808,733
427,4	844,562
427,9	882,848
428,3	929,733
428,8	984,019
429,2	1030,562
429,7	1078,362
430,1	1136,019
430,6	1195,505
431	1261,59
431,5	1326,076
431,9	1391,333
432,4	1465,533
432,8	1545,476
433,3	1618,362
433,8	1701,619
434,2	1789,333
434,7	1876,762
435,1	1972,219
435,6	2069,79
436	2173,505
436,5	2284,019
436,9	2390,905
437,4	2510,305
437,8	2632,133
438,3	2758,076
438,8	2888,876
439,2	3021,39
439,7	3152,019
440,1	3300,448
440,6	3446,476
441	3603,419
441,5	3761,162
441,9	3926,648
442,4	4102,648
442,8	4289,248
443,3	4472,705
443,7	4649,762
444,2	4841,419
444,7	5040,876
445,1	5243,762
445,6	5450,448
446	5660,848
446,5	5883,962
446,9	6118,648
447,4	6349,99
447,8	6582,276
448,3	6823,505
448,7	7068,762
449,2	7315,962
449,6	7565,619
450,1	7832,648
450,6	8097,19
451	8368,162
451,5	8642,419
451,9	8925,79
452,4	9222,39
452,8	9518,39
453,3	9806,648
453,7	10114,705
454,2	10433,762
454,6	10756,962
455,1	11068,276
455,5	11392,99
456	11711,162
456,4	12043,476
456,9	12375,362
457,3	12708,133
457,8	13041,705
458,3	13385,419
458,7	13729,133
459,2	14083,362
459,6	14436,133
460,1	14790,905
460,5	15142,333
461	15505,648
461,4	15864,705
461,9	16214,648
462,3	16575,562
462,8	16936,048
463,2	17288,848
463,7	17648,248
464,1	17993,619
464,6	18349,533
465	18700,705
465,5	19055,848
466	19404,276
466,4	19754,562
466,9	20106,019
467,3	20453,476
467,8	20797,305
468,2	21144,133
468,7	21480,219
469,1	21822,848
469,6	22160,819
470	22490,39
470,5	22819,59
470,9	23142,733
471,4	23467,676
471,8	23773,133
472,3	24069,962
472,7	24368,819
473,2	24668,59
473,6	24961,676
474,1	25243,048
474,5	25508,19
475	25793,933
475,4	26058,876
475,9	26322,619
476,4	26566,648
476,8	26801,333
477,3	27046,19
477,7	27280,705
478,2	27497,79
478,6	27732,933
479,1	27942,076
479,5	28136,762
480	28323,333
480,4	28502,076
480,9	28678,305
481,3	28829,105
481,8	28980,105
482,2	29116,448
482,7	29255,876
483,1	29395,019
483,6	29517,905
484	29624,505
484,5	29735,619
484,9	29811,076
485,4	29897,819
485,8	29972,562
486,3	30043,076
486,7	30093,419
487,2	30150,648
487,6	30198,733
488,1	30236,676
488,5	30258,476
489	30267,733
489,4	30284,648
489,9	30276,362
490,4	30259,076
490,8	30223,076
491,3	30203,59
491,7	30175,305
492,2	30136,933
492,6	30061,448
493,1	30006,876
493,5	29949,648
494	29889,733
494,4	29809,933
494,9	29711,762
495,3	29611,848
495,8	29504,819
496,2	29407,505
496,7	29286,276
497,1	29178,819
497,6	29067,99
498	28959,733
498,5	28835,733
498,9	28717,076
499,4	28588,848
499,8	28461,162
500,3	28319,876
500,7	28172,733
501,2	28018,59
501,6	27878,219
502,1	27734,59
502,5	27568,105
503	27416,648
503,4	27254,248
503,9	27075,276
504,3	26902,676
504,8	26721,848
505,2	26541,733
505,7	26372,019
506,1	26172,876
506,6	25973,648
507	25785,619
507,5	25593,648
507,9	25408,819
508,4	25203,733
508,8	24991,219
509,3	24792,019
509,7	24584,733
510,2	24380,619
510,6	24173,905
511,1	23969,79
511,5	23770,419
512	23565,019
512,4	23354,505
512,9	23143,848
513,3	22926,705
513,8	22721,733
514,2	22485,819
514,7	22267,99
515,1	22044,305
515,6	21827,676
516	21619,962
516,5	21402,676
516,9	21171,848
517,4	20972,248
517,8	20757,076
518,3	20546,562
518,7	20327,676
519,2	20109,419
519,6	19890,076
520,1	19688,99
520,5	19487,476
521	19262,676
521,4	19055,19
521,9	18864,733
522,3	18651,448
522,8	18458,562
523,2	18253,99
523,7	18040,99
524,1	17849,533
524,6	17640,762
525	17429,819
525,5	17249,048
525,9	17056,59
526,4	16870,59
526,8	16678,876
527,3	16491,59
527,7	16314,848
528,2	16131,933
528,6	15947,676
529,1	15757,79
529,5	15568,676
530	15385,019
530,4	15210,019
530,9	15035,248
531,3	14867,076
531,8	14693,419
532,2	14530,476
532,6	14373,533
533,1	14201,79
533,5	14038,79
534	13881,333
534,4	13719,276
534,9	13571,133
535,3	13418,762
535,8	13254,905
536,2	13111,962
536,7	12965,362
537,1	12819,19
537,6	12676,162
538	12523,305
538,5	12385,99
538,9	12241,219
539,4	12112,048
539,8	11970,105
540,3	11829,476
540,7	11690,105
541,2	11555,876
541,6	11411,99
542,1	11286,762
542,5	11146,648
543	11030,876
543,4	10916,733
543,9	10788,476
544,3	10671,876
544,8	10557,933
545,2	10435,19
545,7	10326,133
546,1	10207,362
546,5	10082,219
547	9976,019
547,4	9863,076
547,9	9759,819
548,3	9661,876
548,8	9546,905
549,2	9441,248
549,7	9346,99
550,1	9247,648
550,6	9143,076
551	9043,562
551,5	8951,705
551,9	8864,619
552,4	8777,99
552,8	8691,248
553,3	8606,39
553,7	8531,79
554,2	8455,39
554,6	8362,39
555,1	8277,305
555,5	8186,276
555,9	8095,533
556,4	8012,076
556,8	7931,933
557,3	7844,076
557,7	7774,019
558,2	7704,79
558,6	7641,19
559,1	7568,99
559,5	7500,419
560	7419,276
560,4	7352,79
560,9	7277,333
561,3	7201,133
561,8	7130,648
562,2	7069,333
562,7	6998,648
563,1	6931,762
563,6	6860,562
564	6793,562
564,4	6736,962
564,9	6668,19
565,3	6597,59
565,8	6542,705
566,2	6482,048
566,7	6416,876
567,1	6361,133
567,6	6301,105
568	6245,59
568,5	6194,048
568,9	6129,076
569,4	6075,676
569,8	6024,962
570,3	5970,533
570,7	5906,905
571,1	5854,99
571,6	5802,476
572	5754,933
572,5	5701,619
572,9	5654,79
573,4	5602,819
573,8	5562,19
574,3	5509,59
574,7	5462,333
575,2	5407,39
575,6	5364,59
576,1	5313,562
576,5	5272,276
576,9	5230,79
577,4	5182,905
577,8	5136,105
578,3	5093,705
578,7	5055,019
579,2	5019,876
579,6	4981,162
580,1	4936,476
580,5	4900,99
581	4864,276
581,4	4825,019
581,9	4779,248
582,3	4723,562
582,7	4670,133
583,2	4627,248
583,6	4583,219
584,1	4537,333
584,5	4505,933
585	4471,105
585,4	4438,819
585,9	4408,962
586,3	4364,59
586,8	4328,962
587,2	4298,305
587,6	4255,19
588,1	4216,905
588,5	4185,505
589	4153,305
589,4	4125,705
589,9	4093,448
590,3	4057,133
590,8	4026,733
591,2	3994,162
591,7	3964,876
592,1	3931,19
592,5	3906,905
593	3872,248
593,4	3839,533
593,9	3806,448
594,3	3777,733
594,8	3748,876
595,2	3723,848
595,7	3694,419
596,1	3675,305
596,6	3662,162
597	3644,962
597,4	3624,562
597,9	3599,162
598,3	3575,848
598,8	3544,79
599,2	3515,905
599,7	3481,133
600,1	3446,933
600,6	3417,876
601	3396,476
601,4	3375,019
601,9	3346,219
602,3	3326,105
602,8	3304,162
603,2	3289,276
603,7	3268,276
604,1	3245,762
604,6	3217,39
605	3203,276
605,4	3179,505
605,9	3158,476
606,3	3132,876
606,8	3105,79
607,2	3080,476
607,7	3064,105
608,1	3045,876
608,6	3026,648
609	3006,476
609,4	2986,39
609,9	2976,819
610,3	2951,848
610,8	2930,333
611,2	2908,476
611,7	2889,048
612,1	2864,048
612,6	2849,305
613	2831,59
613,4	2817,162
613,9	2795,248
614,3	2776,762
614,8	2750,39
615,2	2737,648
615,7	2721,305
616,1	2689,762
616,6	2668,505
617	2649,105
617,4	2623,19
617,9	2608,248
618,3	2586,99
618,8	2565,619
619,2	2551,59
619,7	2532,619
620,1	2510,162
620,5	2499,533
621	2482,99
621,4	2465,705
621,9	2445,219
622,3	2430,533
622,8	2409,733
623,2	2399,648
623,6	2384,133
624,1	2372,99
624,5	2349,848
625	2331,448
625,4	2314,933
625,9	2299,848
626,3	2283,419
626,8	2263,19
627,2	2244,476
627,6	2229,248
628,1	2207,819
628,5	2187,162
629	2177,162
629,4	2155,19
629,9	2142,505
630,3	2123,762
630,7	2115,448
631,2	2105,248
631,6	2091,105
632,1	2071,99
632,5	2058,933
633	2039,333
633,4	2021,705
633,8	1999,105
634,3	1983,276
634,7	1968,876
635,2	1955,79
635,6	1944,733
636,1	1938,076
636,5	1927,19
636,9	1911,219
637,4	1897,848
637,8	1887,248
638,3	1875,533
638,7	1860,219
639,2	1838,39
639,6	1824,79
640	1818,962
640,5	1804,733
640,9	1788,39
641,4	1772,762
641,8	1756,762
642,2	1750,705
642,7	1744,39
643,1	1737,133
643,6	1726,305
644	1720,305
644,5	1710,648
644,9	1698,305
645,3	1683,419
645,8	1663,733
646,2	1647,876
646,7	1636,019
647,1	1621,419
647,6	1607,848
648	1600,248
648,4	1587,476
648,9	1580,133
649,3	1566,962
649,8	1559,419
650,2	1549,762
650,6	1540,333
651,1	1533,819
651,5	1530,362
652	1520,619
652,4	1506,19
652,9	1498,705
653,3	1488,676
653,7	1478,762
654,2	1468,448
654,6	1450,448
655,1	1438,448
655,5	1438,19
655,9	1427,648
656,4	1416,648
656,8	1406,076
657,3	1388,076
657,7	1383,048
658,2	1372,162
658,6	1356,733
659	1345,99
659,5	1334,59
659,9	1327,562
660,4	1326,219
660,8	1316,676
661,2	1310,105
661,7	1304,305
662,1	1292,819
662,6	1283,905
663	1272,79
663,4	1257,133
663,9	1243,705
664,3	1232,276
664,8	1224,705
665,2	1220,105
665,6	1212,648
666,1	1204,59
666,5	1197,019
667	1191,39
667,4	1186,533
667,9	1175,848
668,3	1162,648
668,7	1151,105
669,2	1140,962
669,6	1133,533
670,1	1123,39
670,5	1111,619
670,9	1106,648
671,4	1098,648
671,8	1092,819
672,3	1085,276
672,7	1076,219
673,1	1071,419
673,6	1062,39
674	1050,676
674,5	1044,619
674,9	1033,819
675,3	1029,648
675,8	1025,619
676,2	1018,362
676,7	1015,105
677,1	1009,19
677,5	999,248
678	999,219
678,4	989,705
678,9	983,59
679,3	970,648
679,7	959,933
680,2	953,962
680,6	941,79
681,1	927,476
681,5	919,505
681,9	909,762
682,4	909,79
682,8	903,276
683,3	892,676
683,7	889,019
684,1	886,905
684,6	881,676
685	876,248
685,5	867,476
685,9	859,733
686,3	859,876
686,8	855,619
687,2	847,762
687,7	842,162
688,1	836,048
688,5	827,048
689	825,448
689,4	815,762
689,9	815,533
690,3	815,333
690,7	809,276
691,2	803,819
691,6	802,648
692	793,419
692,5	787,676
692,9	777,133
693,4	767,876
693,8	762,019
694,2	751,79
694,7	744,59
695,1	741,305
695,6	732,019
696	724,819
696,4	716,19
696,9	712,819
697,3	709,562
697,8	701,362
698,2	694,848
698,6	694,905
699,1	688,733
699,5	688,162
699,9	682,076
700,4	675,99
700,8	676,048
701,3	670,105
701,7	659,648
702,1	656,419
702,6	648,305
703	642,562
703,5	640,448
703,9	633,733
704,3	631,876
704,8	632,79
705,2	628,076
705,6	622,019
706,1	618,419
706,5	611,933
707	604,076
707,4	603,762
707,8	599,533
708,3	595,533
708,7	597,79
709,2	588,562
709,6	588,619
710	585,79
710,5	579,39
710,9	574,562
711,3	568,105
711,8	559,476
712,2	560,762
712,7	556,162
713,1	551,676
713,5	544,562
714	540,848
714,4	538,162
714,8	536,162
715,3	532,248
715,7	522,533
716,2	517,362
716,6	518,705
717	513,048
717,5	512,962
717,9	504,533
718,3	498,819
718,8	500,562
719,2	498,276
719,7	494,305
720,1	489,933
720,5	484,619
721	482,219
721,4	482,448
721,8	479,819
722,3	476,648
722,7	463,39
723,2	461,305
723,6	456,162
724	451,619
724,5	442,962
724,9	436,59
725,3	430,219
725,8	431,676
726,2	425,133
726,7	419,533
727,1	416,133
727,5	413,99
728	410,076
728,4	408,276
728,8	403,705
729,3	399,905
729,7	400,819
730,1	396,876
730,6	395,19
731	397,019
731,5	396,933
731,9	401,505
732,3	402,59
732,8	401,505
733,2	404,562
733,6	401,933
734,1	395,933
734,5	388,962
734,9	382,59
735,4	383,419
735,8	378,105
736,3	375,419
736,7	372,876
737,1	372,933
737,6	374,733
738	371,162
738,4	364,762
738,9	366,219
739,3	359,076
739,7	353,105
740,2	349,819
740,6	347,448
741,1	346,505
741,5	346,819
741,9	338,619
742,4	339,076
742,8	340,333
743,2	337,333
743,7	337,162
744,1	330,562
744,5	327,076
745	325,448
745,4	324,305
745,8	321,99
746,3	324,59
746,7	319,305
747,2	321,448
747,6	320,619
748	320,562
748,5	316,705
748,9	314,505
749,3	313,876
749,8	311,933
750,2	309,819
750,6	304,19
751,1	303,705
751,5	300,105
751,9	295,248
752,4	285,105
752,8	282,819
753,3	280,248
753,7	281,533
754,1	278,39
754,6	276,162
755	278,362
755,4	281,762
755,9	284,39
756,3	281,676
756,7	277,19
757,2	277,362
757,6	277,505
758	273,59
758,5	262,848
758,9	256,276
759,3	252,133
759,8	254,105
760,2	256,133
760,6	256,79
761,1	252,533
761,5	255,962
761,9	258,79
762,4	259,79
762,8	257,305
763,3	247,248
763,7	244,248
764,1	242,79
764,6	242,276
765	238,333
765,4	236,39
765,9	231,019
766,3	231,876
766,7	228,562
767,2	231,619
767,6	228,019
768	226,419
768,5	226,219
768,9	226,133
769,3	226,59
769,8	227,762
770,2	228,705
770,6	229,276
771,1	228,333
771,5	223,448
771,9	220,505
772,4	222,419
772,8	217,448
773,2	215,248
773,7	213,362
774,1	212,505
774,5	216,276
775	210,59
775,4	203,59
775,8	204,733
776,3	200,905
776,7	203,105
777,1	202,533
777,6	196,819
778	202,619
778,4	202,048
778,9	197,476
779,3	196,076
779,7	193,019
780,2	190,076
780,6	189,905
781	187,019
781,5	185,848
781,9	186,848
782,3	185,476
782,8	179,99
783,2	175,59
783,6	172,305
784,1	173,933
784,5	171,105
784,9	169,076
785,4	169,848
785,8	170,048
786,2	170,305
786,7	169,933
787,1	167,105
787,5	165,448
788	163,419
788,4	160,99
788,8	160,248
789,3	163,362
789,7	163,333
790,1	159,733
790,6	161,276
791	161,59
791,4	157,562
791,9	156,419
792,3	154,876
792,7	155,133
793,2	152,19
793,6	153,733
794	157,362
794,5	158,105
794,9	160,676
795,3	159,705
795,8	161,619
796,2	164,819
796,6	158,39
797,1	151,819
797,5	148,762
797,9	143,905
798,4	139,019
798,8	131,219
799,2	131,79
799,7	136,533
800,1	136,076
800,5	140,79
801	140,162
801,4	139,733
801,8	144,419
802,2	141,448
802,7	137,162
803,1	133,79
803,5	129,362
804	130,905
804,4	132,133
804,8	130,39
805,3	124,79
805,7	125,048
806,1	131,162
806,6	132,762
807	132,533
807,4	127,248
807,9	125,505
808,3	127,933
808,7	126,19
809,2	122,648
809,6	121,733
810	113,99
810,4	117,819
810,9	114,533
811,3	113,819
811,7	113,962
812,2	117,476
812,6	113,048
813	117,133
813,5	116,048
813,9	118,933
814,3	118,362
814,8	117,933
815,2	111,476
815,6	112,533
816,1	111,562
816,5	108,933
816,9	106,962
817,3	103,79
817,8	104,448
818,2	100,276
818,6	101,448
819,1	101,99
819,5	101,648
819,9	97,505
820,4	101,362
820,8	96,648
821,2	100,762
821,7	99,79
822,1	98,876
822,5	98,876
822,9	104,876
823,4	101,219
823,8	101,305
824,2	101,162
824,7	100,076
825,1	98,562
825,5	97,648
826	94,933
826,4	97,79
826,8	98,505
827,3	97,39
827,7	95,848
828,1	95,276
828,5	92,762
829	86,19
829,4	84,105
829,8	78,848
830,3	78,705
830,7	73,762
831,1	72,19
831,6	72,876
832	71,848
832,4	72,19
832,8	74,019
833,3	68,276
833,7	74,505
834,1	69,648
834,6	66,762
835	74,19
835,4	74,962
835,8	72,562
836,3	78,505
836,7	74,419
837,1	79,762
837,6	80,448
838	75,619
838,4	71,19
838,9	78,419
839,3	75,905
839,7	75,133
840,1	70,476
840,6	72,476
841	74,819
841,4	71,562
841,9	64,562
842,3	64,79
842,7	63,79
843,1	69,219
843,6	70,619
844	66,705
844,4	66,876
844,9	68,619
845,3	66,99
845,7	65,848
846,2	60,533
846,6	54,533
847	55,019
847,4	53,476
847,9	52,562
848,3	52,019
848,7	54,248
849,2	59,905
849,6	63,162
850	62,105
850,4	65,848
850,9	65,219
851,3	62,219
851,7	58,219
852,2	49,019
852,6	47,876
853	51,219
853,4	51,419
853,9	48,876
854,3	49,019
854,7	47,333
855,2	48,79
855,6	45,905
856	37,276
856,4	36,533
856,9	33,819
857,3	34,848
857,7	40,19
858,2	41,019
858,6	45,419
859	47,505
859,4	46,79
859,9	51,79
860,3	54,105
860,7	52,19
861,1	56,248
861,6	53,819
862	56,305
862,4	57,019
862,9	56,048
863,3	52,762
863,7	49,19
864,1	46,676
864,6	42,676
865	38,99
865,4	37,248
865,9	35,619
866,3	38,162
866,7	41,105
867,1	40,648
867,6	40,248
868	43,733
868,4	44,676
868,8	47,448
869,3	43,733
869,7	41,733
870,1	41,362
870,6	41,39
871	49,848
871,4	44,362
871,8	41,248
872,3	44,276
872,7	43,419
873,1	42,248
873,5	44,676
874	37,819
874,4	38,619
874,8	38,333
875,3	33,648
875,7	35,59
876,1	34,905
876,5	38,019
877	35,99
877,4	37,533
877,8	39,162
878,2	40,648
878,7	42,476
879,1	42,819
879,5	40,876
879,9	40,019
880,4	39,019
880,8	38,019
881,2	38,048
881,7	38,962
882,1	39,448
882,5	35,076
882,9	32,705
883,4	35,333
883,8	35,705
884,2	33,619
884,6	30,133
885,1	29,39
885,5	32,076
885,9	35,39
886,3	34,305
886,8	29,533
887,2	29,762
887,6	28,648
888	25,076
888,5	24,933
888,9	24,133
889,3	18,505
889,8	17,219
890,2	16,619
890,6	15,419
891	17,505
891,5	19,105
891,9	17,105
892,3	20,333
892,7	25,819
893,2	27,333
893,6	25,19
894	24,419
894,4	23,819
894,9	23,448
895,3	25,419
895,7	23,333
896,1	22,962
896,6	24,933
897	25,79
897,4	20,39
897,8	20,276
898,3	23,819
898,7	24,476
899,1	24,819
899,5	23,59
900	22,105
900,4	24,105
900,8	26,19
901,2	21,876
901,7	20,219
902,1	22,076
902,5	22,533
902,9	23,476
903,4	23,076
903,8	16,076
904,2	15,105
904,6	12,905
905,1	13,419
905,5	11,99
905,9	11,59
906,3	13,333
906,8	21,248
907,2	20,105
907,6	21,333
908	17,362
908,5	19,905
908,9	20,305
909,3	16,59
909,7	15,248
910,2	18,59
910,6	17,276
911	22,019
911,4	19,905
911,9	18,905
912,3	18,533
912,7	15,248
913,1	6,99
913,6	11,819
914	6,39
914,4	5,19
914,8	6,105
915,3	8,59
915,7	5,962
916,1	10,448
916,5	8,362
916,9	8,362
917,4	10,819
917,8	10,819
918,2	10,019
918,6	12,105
919,1	10,276
919,5	13,962
919,9	12,105
920,3	10,876
920,8	12,562
921,2	14,276
921,6	15,305
922	15,648
922,5	11,333
922,9	13,076
923,3	18,105
923,7	10,905
924,2	5,533
924,6	1,762
925	3,048
925,4	2,133
925,8	0,619
926,3	-0,924
926,7	5,419
927,1	9,219
927,5	13,905
928	12,39
928,4	11,162
928,8	17,562
929,2	14,448
929,7	11,076
930,1	13,448
930,5	10,819
930,9	17,505
931,3	19,933
931,8	14,448
932,2	14,476
932,6	16,933
933	11,79
933,5	10,505
933,9	4,276
934,3	2,048
934,7	3,676
935,2	6,048
935,6	5,476
936	4,219
936,4	4,505
936,8	2,619
937,3	8,933
937,7	8,048
938,1	4,476
938,5	0,905
939	9,276
939,4	10,59
939,8	15,333
940,2	8,848
940,6	11,19
941,1	16,133
941,5	17,248
941,9	15,39
942,3	11,762
942,8	10,848
943,2	10,905
943,6	11,476
944	6,848
944,4	8,019
944,9	2,733
945,3	10,39
945,7	9,762
946,1	12,133
946,6	8,648
947	12,79
947,4	13,648
947,8	17,305
948,2	12,105
948,7	11,648
949,1	9,333
949,5	12,876
949,9	13,933
950,3	11,162
950,8	6,705
951,2	10,59
951,6	14,105
952	15,819
952,5	11,533
952,9	4,762
953,3	2,705
953,7	7,905
954,1	3,362
954,6	-2,181
955	-5,524
955,4	-5,61
955,8	-1,181
956,2	0,048
956,7	0,819
957,1	6,848
957,5	9,276
957,9	12,048
958,3	12,476
958,8	13,905
959,2	16,133
959,6	12,762
960	5,933
960,5	4,933
960,9	4,333
961,3	2,019
961,7	-2,838
962,1	-4,152
962,6	-3,895
963	-1,552
963,4	-2,924
963,8	0,905
964,2	1,276
964,7	3,019
965,1	7,676
965,5	7,705
965,9	8,59
966,3	12,676
966,8	4,99
967,2	7,505
967,6	7,248
968	4,362
968,4	8,819
968,9	10,39
969,3	9,819
969,7	13,19
970,1	13,733
970,5	14,448
971	11,048
971,4	9,476
971,8	10,648
972,2	6,933
972,6	8,562
973,1	8,133
973,5	8,276
973,9	12,905
974,3	7,419
974,7	6,248
975,2	7,762
975,6	2,362
976	3,448
976,4	3,19
976,8	-0,067
977,3	1,905
977,7	-4,781
978,1	-6,352
978,5	-3,038
978,9	-5,124
979,4	-6,324
979,8	-5,181
980,2	-8,724
980,6	-0,667
981	3,019
981,5	6,39
981,9	6,19
982,3	6,076
982,7	8,219
983,1	13,019
983,6	10,762
984	11,505
984,4	10,162
984,8	15,619
985,2	17,962
985,6	16,076
986,1	13,619
986,5	9,076
986,9	6,533
987,3	3,562
987,7	-3,952
988,2	-2,181
988,6	-4,81
989	-3,295
989,4	-0,095
989,8	-2,381
990,3	-0,467
990,7	1,819
991,1	-4,667
991,5	-3,41
991,9	-0,067
992,3	-1,41
992,8	2,419
993,2	5,219
993,6	4,305
994	8,505
994,4	12,362
994,9	10,905
995,3	10,79
995,7	11,019
996,1	7,305
996,5	5,848
996,9	2,076
997,4	-1,238
997,8	-1,838
998,2	2,676
998,6	6,105
999	6,019
999,5	8,962
999,9	13,819
1000,3	15,562
1000,7	11,276
1001,1	3,905
1001,5	-1,152
1002	-3,467
1002,4	-2,667
1002,8	-2,838
1003,2	-2,724
1003,6	2,219
1004	7,648
1004,5	5,676
1004,9	7,305
1005,3	1,762
1005,7	-1,581
1006,1	-6,01
1006,6	-8,638
1007	-9,038
1007,4	-8,467
1007,8	-9,838
1008,2	-4,067
1008,6	-4,267
1009,1	-5,324
1009,5	1,99
1009,9	4,59
1010,3	6,333
1010,7	11,533
1011,1	13,905
1011,6	15,333
1012	17,305
1012,4	13,562
1012,8	4,533
1013,2	5,19
1013,6	3,305
1014,1	1,79
1014,5	0,619
1014,9	3,276
1015,3	-2,038
1015,7	-0,952
1016,1	-2,581
1016,6	-2,581
1017	-4,095
1017,4	-4,752
1017,8	-10,695
1018,2	-9,81
1018,6	-2,581
1019,1	-5,181
1019,5	-6,124
1019,9	-3,724
1020,3	-0,095
1020,7	5,733
1021,1	9,648
1021,6	1,933
1022	-0,41
1022,4	2,305
1022,8	-2,867
1023,2	-6,095
1023,6	-7,524
1024,1	-10,638
1024,5	-8,381
1024,9	-0,438
1025,3	-2,695
1025,7	0,705
1026,1	1,333
1026,6	4,419
1027	1,533
1027,4	3,105
1027,8	-0,695
1028,2	3,448
1028,6	1,019
1029	-3,124
1029,5	-3,638
1029,9	1,533
1030,3	4,448
1030,7	5,219
1031,1	-1,895
1031,5	-5,181
1032	0,248
1032,4	-2,01
1032,8	-5,895
1033,2	-8,067
1033,6	-7,867
1034	-4,181
1034,4	4,133
1034,9	0,305
1035,3	7,019
1035,7	5,962
1036,1	6,562
1036,5	4,819
1036,9	0,79
1037,4	0,162
1037,8	4,105
1038,2	-4,838
1038,6	-1,695
1039	-2,867
1039,4	-2,095
1039,8	-1,181
1040,3	-2,695
1040,7	-7,295
1041,1	-4,352
1041,5	-6,124
1041,9	-6,152
1042,3	-7,01
1042,7	-3,381
1043,2	-2,438
1043,6	-0,41
1044	-2,41
1044,4	-3,324
1044,8	-6,781
1045,2	-0,924
1045,6	1,076
1046,1	1,705
1046,5	5,876
1046,9	8,448
1047,3	9,99
1047,7	13,99
1048,1	11,362
1048,5	11,99
1049	9,305
1049,4	8,762
1049,8	9,133
1050,2	9,362
1050,6	12,676
1051	10,105
1051,4	7,876
1051,9	9,99
1052,3	3,59
1052,7	2,676
1053,1	6,162
1053,5	4,333
1053,9	3,99
1054,3	-3,61
1054,8	-1,667
1055,2	2,39
1055,6	-2,152
1056	-5,981
1056,4	-4,552
1056,8	0,705
1057,2	10,848
1057,6	5,533
1058,1	8,505
1058,5	11,419
1058,9	14,076
1059,3	16,133
1059,7	9,505
1060,1	5,705
1060,5	-0,552
1061	-2,752
1061,4	0,59
1061,8	-3,581
1062,2	-4,924
1062,6	-4,295
1063	-5,295
1063,4	2,99
1063,8	0,59
1064,3	-3,295
1064,7	-1,838
1065,1	-4,295
1065,5	-0,438
1065,9	-2,21
1066,3	-6,61
1066,7	-7,838
1067,1	-9,181
1067,6	-6,638
1068	-7,867
1068,4	-7,124
1068,8	-6,21
1069,2	-0,838
1069,6	4,59
1070	7,419
1070,4	10,133
1070,9	6,162
1071,3	3,619
1071,7	5,019
1072,1	5,562
1072,5	4,533
1072,9	10,305
1073,3	5,533
1073,7	6,276
1074,2	7,819
1074,6	7,019
1075	3,848
1075,4	0,733
1075,8	-4,981
1076,2	-5,038
1076,6	-1,924
1077	-5,295
1077,5	-2,895
1077,9	-2,524
1078,3	1,762
1078,7	4,419
1079,1	7,876
1079,5	4,905
1079,9	9,448
1080,3	5,59
1080,7	7,705
1081,2	5,505
1081,6	5,962
1082	2,733
1082,4	0,476
1082,8	-4,752
1083,2	-1,952
1083,6	-2,638
1084	-5,895
1084,5	-9,038
1084,9	-9,895
1085,3	-4,467
1085,7	-2,124
1086,1	-2,952
1086,5	1,019
1086,9	5,476
1087,3	5,333
1087,7	10,705
1088,2	8,305
1088,6	5,219
1089	3,162
1089,4	-0,867
1089,8	-0,295
1090,2	2,19
1090,6	-4,667
1091	0,905
1091,4	7,676
1091,9	8,905
1092,3	7,762
1092,7	3,448
1093,1	-3,124
1093,5	-4,01
1093,9	-6,867
1094,3	-6,981
1094,7	-8,81
1095,1	-9,41
1095,5	-7,495
1096	-3,695
1096,4	1,962
1096,8	1,248
1097,2	-0,695
1097,6	3,105
1098	4,362
1098,4	5,048
1098,8	8,962
1099,2	5,533
1099,6	8,476
1100,1	8,476
1100,5	10,305
1100,9	11,048
1101,3	9,219
1101,7	7,448
1102,1	5,733
1102,5	2,305
1102,9	-2,067
1103,3	-6,41
1103,7	-7,438
1104,2	-4,524
1104,6	-2,067
1105	2,705
1105,4	3,762
1105,8	7,562
1106,2	9,048
1106,6	6,99
1107	4,962
1107,4	1,6
1107,8	-0,427
1108,3	-0,517
