Data from Subt2_065.txt Node
Date: Sat Aug 26 16:32:39 MSK 2023
User: vat
Spectrometer: MAYP114033
Trigger mode: 0
Integration Time (sec): 1,000000E0
Scans to average: 5
Electric dark correction enabled: true
Nonlinearity correction enabled: false
Boxcar width: 3
XAxis mode: Wavelengths
Number of Pixels in Spectrum: 2068
>>>>>Begin Spectral Data<<<<<
199,4	-0,5
199,9	-3,44
200,4	-5,167
200,8	-3,914
201,3	-2,629
201,8	-1,257
202,2	0,286
202,7	1,571
203,2	5,229
203,6	8,286
204,1	6,114
204,6	8,143
205	8,257
205,5	4,6
206	4,629
206,4	0,886
206,9	-2,314
207,4	2,086
207,8	-3,8
208,3	-5,229
208,8	-3,886
209,2	-2,229
209,7	-1,6
210,2	6,943
210,6	4,486
211,1	7,4
211,5	8,4
212	7,029
212,5	3,114
212,9	3,486
213,4	-2,971
213,9	-3,943
214,3	-6,171
214,8	-8,114
215,3	-9,257
215,7	-11,629
216,2	-6,629
216,7	-9,171
217,1	-7,6
217,6	-4,314
218,1	-2,743
218,5	5,914
219	16,571
219,5	14,943
219,9	21,429
220,4	17,771
220,9	16,943
221,3	17,629
221,8	12,8
222,3	4
222,7	1,857
223,2	-0,829
223,6	3,057
224,1	3,686
224,6	3,629
225	3,6
225,5	9,029
226	8,114
226,4	13,714
226,9	9,686
227,4	10,371
227,8	10,629
228,3	16,514
228,8	9,114
229,2	9,486
229,7	1,229
230,2	8,229
230,6	9,943
231,1	13,171
231,5	13,971
232	22,914
232,5	20,057
232,9	21,914
233,4	20,429
233,9	15,914
234,3	9,914
234,8	3,943
235,3	-0,514
235,7	6,714
236,2	8,086
236,7	7,286
237,1	4,4
237,6	8,571
238,1	7,657
238,5	9,2
239	4,486
239,4	6,6
239,9	6,657
240,4	10,086
240,8	9,714
241,3	6,886
241,8	5
242,2	4,2
242,7	4,829
243,2	-0,057
243,6	3,114
244,1	1,4
244,6	-0,229
245	1,829
245,5	4,114
245,9	0,543
246,4	1,857
246,9	-1,086
247,3	-1,429
247,8	2,743
248,3	4,514
248,7	8,857
249,2	7,6
249,7	9,857
250,1	8,571
250,6	9,143
251	5,743
251,5	-1,029
252	-2,714
252,4	1,743
252,9	-2,686
253,4	1,257
253,8	2,2
254,3	8,571
254,8	13,8
255,2	11,514
255,7	10,457
256,1	15,057
256,6	15,486
257,1	14,486
257,5	11,857
258	8,571
258,5	10,171
258,9	8,457
259,4	8,514
259,9	8,743
260,3	8,257
260,8	8,829
261,2	13,657
261,7	15,943
262,2	11,629
262,6	8,143
263,1	1,029
263,6	5,4
264	4,286
264,5	0,914
264,9	-3,029
265,4	2,314
265,9	8,2
266,3	14,4
266,8	9,629
267,3	9
267,7	6,4
268,2	3,171
268,7	-3,571
269,1	-5,457
269,6	-4,771
270	-2,457
270,5	0,457
271	5,086
271,4	2,771
271,9	4,857
272,4	5,571
272,8	1,229
273,3	-4,371
273,7	-8,286
274,2	-10,571
274,7	-4,571
275,1	-6,629
275,6	-4,429
276,1	0,314
276,5	10,714
277	11,829
277,4	11,486
277,9	10,086
278,4	14,429
278,8	12,314
279,3	9,6
279,8	7,2
280,2	5,343
280,7	5,029
281,1	8,543
281,6	10,829
282,1	6,857
282,5	9,257
283	5,857
283,4	7,829
283,9	6,114
284,4	5,943
284,8	5,486
285,3	4,686
285,8	0,486
286,2	-2,686
286,7	-5,6
287,1	-4,829
287,6	-4,571
288,1	-5,943
288,5	-0,486
289	3,486
289,5	4,971
289,9	7,629
290,4	10,257
290,8	12,086
291,3	10,6
291,8	7,857
292,2	6,914
292,7	11,457
293,1	13,4
293,6	10,229
294,1	3,514
294,5	7,8
295	9,114
295,5	9,457
295,9	12,057
296,4	15,829
296,8	16,657
297,3	21,229
297,8	22,543
298,2	18,2
298,7	15,086
299,1	9,857
299,6	6,314
300,1	9,143
300,5	8,543
301	4,114
301,5	9,286
301,9	9,686
302,4	8,714
302,8	6,229
303,3	6,514
303,8	0,571
304,2	-0,057
304,7	-1
305,1	1,229
305,6	-2,657
306,1	-2,2
306,5	-1,971
307	-1,886
307,4	-4,086
307,9	-6,229
308,4	-6,114
308,8	0,971
309,3	2,4
309,8	0,829
310,2	2,571
310,7	10,486
311,1	6,6
311,6	6,229
312,1	5,171
312,5	7,686
313	7,829
313,4	12,229
313,9	10,286
314,4	11,029
314,8	11,914
315,3	12,029
315,7	8,343
316,2	5,286
316,7	4,571
317,1	3,343
317,6	6,171
318	6,943
318,5	7,943
319	12,343
319,4	21,6
319,9	20,229
320,3	20,743
320,8	23,057
321,3	21,857
321,7	15,2
322,2	14
322,6	5,143
323,1	6,571
323,6	2,229
324	7,057
324,5	1,086
324,9	8,457
325,4	4,8
325,9	8,057
326,3	7
326,8	10,343
327,2	6,943
327,7	12,657
328,2	7,629
328,6	11,771
329,1	11,543
329,5	12,429
330	15,171
330,5	10,686
330,9	11,6
331,4	8,857
331,8	9,743
332,3	11,314
332,8	10,114
333,2	5,143
333,7	9,343
334,1	11,457
334,6	17,886
335,1	15,314
335,5	13,943
336	7,943
336,4	11,086
336,9	10,314
337,4	6,543
337,8	1,257
338,3	-0,229
338,7	-0,6
339,2	4,343
339,7	1,6
340,1	1,286
340,6	-0,171
341	7,457
341,5	8,029
342	7,486
342,4	8,429
342,9	7,771
343,3	9,543
343,8	8,571
344,2	6,429
344,7	10,171
345,2	8,743
345,6	9,971
346,1	13,143
346,5	13,886
347	17,486
347,5	15,371
347,9	14,343
348,4	17,4
348,8	15,829
349,3	17,086
349,8	15,2
350,2	17,2
350,7	21,314
351,1	21,629
351,6	26,086
352	37,743
352,5	37,657
353	48,286
353,4	52,571
353,9	59
354,3	68,6
354,8	74,143
355,3	83,086
355,7	102,143
356,2	115,971
356,6	141,314
357,1	164,657
357,5	189,143
358	223,543
358,5	257,743
358,9	298,086
359,4	346,2
359,8	397,143
360,3	458,171
360,8	529,543
361,2	606
361,7	689,343
362,1	787,2
362,6	890,029
363	996,343
363,5	1112,114
364	1228,714
364,4	1349,171
364,9	1470,2
365,3	1587,343
365,8	1698,914
366,3	1806,314
366,7	1901,686
367,2	1988,943
367,6	2052,971
368,1	2107,314
368,5	2146,114
369	2163,571
369,5	2162,486
369,9	2142,857
370,4	2104,857
370,8	2064,6
371,3	2008,314
371,7	1931,743
372,2	1856,743
372,7	1763,429
373,1	1675,114
373,6	1583,286
374	1480,771
374,5	1379,571
374,9	1280,114
375,4	1185,514
375,9	1106,857
376,3	1022,857
376,8	948,886
377,2	881,171
377,7	813,971
378,2	750,6
378,6	686,657
379,1	630,8
379,5	580,857
380	534,257
380,4	486,857
380,9	451,629
381,4	421,057
381,8	391,543
382,3	359,971
382,7	332,114
383,2	303,543
383,6	283,429
384,1	255,229
384,6	234,857
385	220,486
385,5	209,914
385,9	196
386,4	182,429
386,8	178,286
387,3	167,686
387,7	156,4
388,2	146,457
388,7	133,314
389,1	120,086
389,6	108,971
390	97,257
390,5	91,686
390,9	91,971
391,4	90,229
391,9	85,571
392,3	84,086
392,8	85,857
393,2	83,457
393,7	88,486
394,1	82,543
394,6	71,171
395,1	70,714
395,5	70,457
396	70,8
396,4	66,714
396,9	62,143
397,3	57,714
397,8	56,429
398,2	52,2
398,7	48,857
399,2	39,543
399,6	40,886
400,1	31,714
400,5	36,486
401	39,743
401,4	43,971
401,9	45
402,4	51,714
402,8	46,143
403,3	49,629
403,7	43,257
404,2	43,257
404,6	38,771
405,1	35,457
405,5	31,4
406	28,943
406,5	29,343
406,9	26,629
407,4	25,8
407,8	27,571
408,3	25,971
408,7	32,257
409,2	37,743
409,6	40,286
410,1	53,171
410,6	53,171
411	51,486
411,5	55,571
411,9	54,114
412,4	58,314
412,8	59,829
413,3	55,714
413,7	58,771
414,2	67,686
414,7	74,114
415,1	72,314
415,6	76,971
416	81,857
416,5	79,686
416,9	82,371
417,4	78,886
417,8	78,943
418,3	85,029
418,8	80,2
419,2	80,771
419,7	87,2
420,1	87,629
420,6	91,629
421	96,343
421,5	96,857
421,9	100,6
422,4	101,714
422,8	103,657
423,3	104,629
423,8	105,886
424,2	103,4
424,7	103,343
425,1	104,457
425,6	108,086
426	109,657
426,5	110,314
426,9	110
427,4	109,829
427,9	106,771
428,3	105,6
428,8	103,171
429,2	102,114
429,7	100,257
430,1	98,486
430,6	100,629
431	101,971
431,5	107,143
431,9	106,486
432,4	107,857
432,8	116,371
433,3	120,486
433,8	125,943
434,2	131,171
434,7	126,429
435,1	129,571
435,6	139,457
436	139,371
436,5	148,829
436,9	148,314
437,4	154,971
437,8	159,143
438,3	165,886
438,8	160,6
439,2	166,771
439,7	164,2
440,1	172,857
440,6	179,657
441	189,543
441,5	195,571
441,9	207,314
442,4	214,914
442,8	234,486
443,3	242,914
443,7	245,571
444,2	258,457
444,7	271,2
445,1	282,143
445,6	289,2
446	295,686
446,5	305,8
446,9	325,4
447,4	337,6
447,8	348,457
448,3	364,971
448,7	381,543
449,2	389,543
449,6	401,914
450,1	416,371
450,6	430,857
451	442,171
451,5	452,771
451,9	467,2
452,4	488,457
452,8	509,114
453,3	524,714
453,7	540,943
454,2	563,571
454,6	588,486
455,1	609,8
455,5	630,914
456	653,886
456,4	678,571
456,9	703,543
457,3	725,829
457,8	745,571
458,3	771,429
458,7	798,286
459,2	823,571
459,6	849,143
460,1	873,857
460,5	902,914
461	925,771
461,4	956,343
461,9	977,629
462,3	1003,429
462,8	1029,771
463,2	1056,057
463,7	1086,486
464,1	1121,286
464,6	1148,229
465	1180,314
465,5	1213,714
466	1245,971
466,4	1288,2
466,9	1318,743
467,3	1348,857
467,8	1386,486
468,2	1420,086
468,7	1455,771
469,1	1484,914
469,6	1513,343
470	1550,229
470,5	1589,457
470,9	1621,257
471,4	1657,886
471,8	1689,057
472,3	1723,029
472,7	1760,143
473,2	1787
473,6	1821,914
474,1	1849,971
474,5	1881,886
475	1922,143
475,4	1960
475,9	1991,771
476,4	2022,543
476,8	2046,143
477,3	2085,057
477,7	2120,686
478,2	2148,343
478,6	2180,714
479,1	2210,143
479,5	2251,943
480	2289,086
480,4	2316,314
480,9	2349,914
481,3	2376,114
481,8	2409,943
482,2	2435,743
482,7	2459,171
483,1	2486,857
483,6	2514,771
484	2532,857
484,5	2562
484,9	2584,857
485,4	2616,343
485,8	2641,2
486,3	2659,657
486,7	2687,029
487,2	2713,429
487,6	2729,971
488,1	2745,743
488,5	2759,857
489	2779,171
489,4	2796,286
489,9	2810,886
490,4	2828
490,8	2843,114
491,3	2863,429
491,7	2880,143
492,2	2901,457
492,6	2922,143
493,1	2928,257
493,5	2928,971
494	2944,057
494,4	2947,486
494,9	2957,543
495,3	2962,629
495,8	2973,857
496,2	2986,2
496,7	3002,743
497,1	3008,743
497,6	3019,2
498	3028,743
498,5	3030,571
498,9	3029,6
499,4	3037,857
499,8	3042,543
500,3	3050,057
500,7	3051,343
501,2	3050,8
501,6	3059,057
502,1	3066,2
502,5	3066,114
503	3075,429
503,4	3079,086
503,9	3090,343
504,3	3094,4
504,8	3096,857
505,2	3098,629
505,7	3102,829
506,1	3096,971
506,6	3096,4
507	3090,857
507,5	3089,286
507,9	3089,543
508,4	3091,714
508,8	3093,314
509,3	3100,314
509,7	3095,086
510,2	3096,686
510,6	3098,086
511,1	3099,686
511,5	3094
512	3095,6
512,4	3092,257
512,9	3093,657
513,3	3098,2
513,8	3101,8
514,2	3099,029
514,7	3102,086
515,1	3093,571
515,6	3088,429
516	3092,2
516,5	3085,943
516,9	3079,143
517,4	3070,886
517,8	3066,029
518,3	3068,171
518,7	3067,914
519,2	3056,543
519,6	3057,086
520,1	3056,343
520,5	3058,229
521	3057,057
521,4	3047,857
521,9	3047,143
522,3	3054,029
522,8	3056,743
523,2	3051,6
523,7	3055,2
524,1	3058,343
524,6	3060,057
525	3060,771
525,5	3062,171
525,9	3052,4
526,4	3053,114
526,8	3047,314
527,3	3046,829
527,7	3052,457
528,2	3050,571
528,6	3046,371
529,1	3051,771
529,5	3052,886
530	3055,486
530,4	3050,571
530,9	3050,229
531,3	3047,143
531,8	3054,114
532,2	3053,086
532,6	3056,029
533,1	3053,686
533,5	3058,229
534	3061,543
534,4	3065,829
534,9	3069,086
535,3	3073,914
535,8	3071,429
536,2	3073,457
536,7	3080,743
537,1	3086,2
537,6	3091,657
538	3088,629
538,5	3092,2
538,9	3100,543
539,4	3108,457
539,8	3103,543
540,3	3105,371
540,7	3108,143
541,2	3113,657
541,6	3119,143
542,1	3122,171
542,5	3118,686
543	3125,943
543,4	3125,571
543,9	3128,686
544,3	3124,657
544,8	3125,114
545,2	3125,2
545,7	3133,829
546,1	3137,714
546,5	3140,6
547	3145,629
547,4	3152,771
547,9	3154,229
548,3	3163,286
548,8	3163,743
549,2	3166,086
549,7	3173,857
550,1	3181,657
550,6	3188,943
551	3191,286
551,5	3189,629
551,9	3197,914
552,4	3204,343
552,8	3204,114
553,3	3201,971
553,7	3200,8
554,2	3208,429
554,6	3214,486
555,1	3221,371
555,5	3223,886
555,9	3223,429
556,4	3227,886
556,8	3230,257
557,3	3228,371
557,7	3228,657
558,2	3223,029
558,6	3225,257
559,1	3228,571
559,5	3230,743
560	3235,943
560,4	3239,657
560,9	3249,514
561,3	3260,829
561,8	3272,486
562,2	3275,743
562,7	3276,543
563,1	3280,657
563,6	3283,371
564	3283,6
564,4	3278
564,9	3268,571
565,3	3279,8
565,8	3285,486
566,2	3285,571
566,7	3283,057
567,1	3284,4
567,6	3287,057
568	3290,943
568,5	3285,857
568,9	3280,086
569,4	3280,686
569,8	3281,057
570,3	3280,543
570,7	3279,2
571,1	3282,657
571,6	3279,971
572	3288,857
572,5	3287,343
572,9	3293,314
573,4	3290,829
573,8	3294,657
574,3	3291,543
574,7	3290,571
575,2	3286,743
575,6	3289,029
576,1	3287,343
576,5	3281,943
576,9	3278,371
577,4	3277,686
577,8	3279,457
578,3	3269,029
578,7	3265,914
579,2	3263,086
579,6	3263,086
580,1	3262,4
580,5	3255,086
581	3252
581,4	3256,257
581,9	3251,457
582,3	3247,057
582,7	3250,771
583,2	3238,971
583,6	3235,286
584,1	3229,057
584,5	3225,743
585	3218
585,4	3214,943
585,9	3209,286
586,3	3209,343
586,8	3201,2
587,2	3193,914
587,6	3181,943
588,1	3182,429
588,5	3174,229
589	3160,629
589,4	3156,286
589,9	3158,914
590,3	3152,743
590,8	3155,771
591,2	3149,8
591,7	3144,171
592,1	3143,4
592,5	3136,743
593	3124,257
593,4	3121,657
593,9	3109,371
594,3	3094,057
594,8	3089,8
595,2	3089,171
595,7	3085,171
596,1	3080,143
596,6	3080,543
597	3077,343
597,4	3078,714
597,9	3071,6
598,3	3062,143
598,8	3055,629
599,2	3054,629
599,7	3047,857
600,1	3043,257
600,6	3039,543
601	3035,057
601,4	3030,886
601,9	3022,2
602,3	3015,057
602,8	3004,886
603,2	2997,971
603,7	2991,6
604,1	2983,971
604,6	2970,486
605	2968,971
605,4	2956,229
605,9	2947,143
606,3	2940,257
606,8	2931,029
607,2	2929,771
607,7	2932,629
608,1	2926,343
608,6	2924,6
609	2918,143
609,4	2913,314
609,9	2906,057
610,3	2894,057
610,8	2882
611,2	2867,114
611,7	2856,943
612,1	2852,143
612,6	2841,457
613	2833,4
613,4	2821,743
613,9	2809,771
614,3	2806,686
614,8	2802,143
615,2	2792,486
615,7	2782,743
616,1	2768,114
616,6	2762,143
617	2752,371
617,4	2738,229
617,9	2719,543
618,3	2711,143
618,8	2698,314
619,2	2693,229
619,7	2674,4
620,1	2663,143
620,5	2655,4
621	2646,771
621,4	2632,829
621,9	2625,486
622,3	2613,486
622,8	2607,886
623,2	2598,343
623,6	2582,114
624,1	2572
624,5	2561,8
625	2547,457
625,4	2537,114
625,9	2533,429
626,3	2524,6
626,8	2519,029
627,2	2507,6
627,6	2490,343
628,1	2480,6
628,5	2467,829
629	2452,486
629,4	2440,4
629,9	2429,486
630,3	2423,343
630,7	2419,543
631,2	2409,486
631,6	2399,514
632,1	2384,257
632,5	2375,971
633	2358,714
633,4	2345,8
633,8	2327,286
634,3	2311,486
634,7	2302,771
635,2	2295,743
635,6	2279,629
636,1	2274,171
636,5	2263,629
636,9	2257,4
637,4	2252,686
637,8	2236,514
638,3	2219,229
638,7	2215,857
639,2	2207,857
639,6	2197,314
640	2185,6
640,5	2175,714
640,9	2170,229
641,4	2161,886
641,8	2146,429
642,2	2133,286
642,7	2123,086
643,1	2120,743
643,6	2101,371
644	2093,229
644,5	2084,229
644,9	2071,429
645,3	2061,857
645,8	2053,2
646,2	2039,629
646,7	2033,057
647,1	2019,286
647,6	2007,143
648	1997,857
648,4	1987,686
648,9	1980,2
649,3	1966,971
649,8	1959,486
650,2	1950,771
650,6	1941,429
651,1	1937,657
651,5	1926,943
652	1915,343
652,4	1906,429
652,9	1903,229
653,3	1894,829
653,7	1892,429
654,2	1878,143
654,6	1864,429
655,1	1847,2
655,5	1838,2
655,9	1826,743
656,4	1817,343
656,8	1803
657,3	1790,943
657,7	1784,6
658,2	1782,6
658,6	1767,171
659	1750,2
659,5	1739,714
659,9	1730,886
660,4	1726,886
660,8	1722,029
661,2	1706,086
661,7	1699,771
662,1	1696
662,6	1685,229
663	1677,514
663,4	1666,743
663,9	1652,057
664,3	1645,914
664,8	1638,914
665,2	1631,943
665,6	1622,514
666,1	1608,143
666,5	1597,629
667	1590,6
667,4	1583,4
667,9	1572
668,3	1558,629
668,7	1554,029
669,2	1543,6
669,6	1534,229
670,1	1526,771
670,5	1513,486
670,9	1512,486
671,4	1503,514
671,8	1490,429
672,3	1488,486
672,7	1476,086
673,1	1464,743
673,6	1454,114
674	1438,657
674,5	1429,714
674,9	1418,629
675,3	1405,486
675,8	1403,886
676,2	1396,486
676,7	1389,943
677,1	1383,343
677,5	1375,914
678	1373,086
678,4	1366,657
678,9	1350,057
679,3	1340,086
679,7	1333,6
680,2	1328,8
680,6	1319,314
681,1	1304,714
681,5	1297,857
681,9	1292,2
682,4	1285,829
682,8	1275,971
683,3	1260,457
683,7	1247,114
684,1	1243,657
684,6	1235,371
685	1230,8
685,5	1222,371
685,9	1217,286
686,3	1214,914
686,8	1211,857
687,2	1204,714
687,7	1196
688,1	1191,286
688,5	1183,743
689	1177,771
689,4	1169,257
689,9	1162,686
690,3	1158,857
690,7	1153,257
691,2	1144,057
691,6	1136,229
692	1124,257
692,5	1115,143
692,9	1108,429
693,4	1096,171
693,8	1090,657
694,2	1081
694,7	1076,914
695,1	1073,571
695,6	1066,457
696	1059,657
696,4	1054,2
696,9	1046,743
697,3	1041,657
697,8	1033,943
698,2	1027,114
698,6	1023,543
699,1	1011,714
699,5	1004,457
699,9	993,514
700,4	985,143
700,8	977,343
701,3	969,429
701,7	961,257
702,1	960,314
702,6	957,429
703	954,029
703,5	950,086
703,9	944
704,3	942
704,8	940,343
705,2	936,171
705,6	928,029
706,1	927,743
706,5	925,714
707	918,514
707,4	912,229
707,8	907,743
708,3	899,686
708,7	897,2
709,2	889,2
709,6	880,286
710	874,114
710,5	863,343
710,9	853,429
711,3	848,2
711,8	841,6
712,2	834,057
712,7	828,657
713,1	823,314
713,5	821,029
714	816,2
714,4	811,371
714,8	807,057
715,3	802,2
715,7	791,914
716,2	784,429
716,6	780,629
717	773,114
717,5	768,829
717,9	759,029
718,3	756,343
718,8	756
719,2	756,686
719,7	753,8
720,1	750,229
720,5	747,314
721	744,029
721,4	735,086
721,8	730,2
722,3	721,286
722,7	710,8
723,2	706,114
723,6	695,886
724	693,286
724,5	685,829
724,9	675,943
725,3	669,886
725,8	667,571
726,2	660,629
726,7	658,314
727,1	648,743
727,5	650,343
728	647,429
728,4	645,4
728,8	642,943
729,3	639,771
729,7	636,857
730,1	635,714
730,6	628,657
731	631,314
731,5	627,371
731,9	625,286
732,3	624
732,8	619,771
733,2	616,486
733,6	614,057
734,1	608,343
734,5	604,571
734,9	595,857
735,4	597,4
735,8	595,257
736,3	591,629
736,7	589,457
737,1	586,971
737,6	588,914
738	592,943
738,4	584,286
738,9	580,171
739,3	578,629
739,7	572,457
740,2	568,857
740,6	563,171
741,1	556,914
741,5	552,771
741,9	544,771
742,4	542,4
742,8	543,743
743,2	539
743,7	536,229
744,1	528,771
744,5	528,343
745	526
745,4	521,629
745,8	514,314
746,3	511,8
746,7	508,771
747,2	509,514
747,6	503,543
748	503,314
748,5	495,657
748,9	491,971
749,3	488,886
749,8	481,2
750,2	475,429
750,6	475,743
751,1	476,029
751,5	474,457
751,9	476,343
752,4	475,657
752,8	473,429
753,3	467,857
753,7	462,686
754,1	459,229
754,6	455,371
755	445,429
755,4	440,714
755,9	439,857
756,3	437
756,7	433,4
757,2	429,457
757,6	429,057
758	425,457
758,5	418,886
758,9	414,2
759,3	413,114
759,8	412,457
760,2	408,914
760,6	407,657
761,1	410,971
761,5	410,686
761,9	411,371
762,4	408,829
762,8	406,743
763,3	400,771
763,7	398,057
764,1	390,457
764,6	388,114
765	384,571
765,4	384,943
765,9	378,343
766,3	373,457
766,7	369,629
767,2	370,743
767,6	366
768	364,486
768,5	357,171
768,9	353,143
769,3	353,714
769,8	353,229
770,2	351,743
770,6	351,543
771,1	348,686
771,5	350,857
771,9	346,429
772,4	348,229
772,8	344,486
773,2	342,286
773,7	340,857
774,1	341
774,5	339,114
775	336,314
775,4	333,371
775,8	333,229
776,3	327,343
776,7	327,2
777,1	325,971
777,6	322
778	326,971
778,4	323,286
778,9	315,829
779,3	318,286
779,7	315,914
780,2	309,829
780,6	310,029
781	302,286
781,5	300,143
781,9	302,657
782,3	301,029
782,8	295,2
783,2	292,543
783,6	283,314
784,1	288,543
784,5	284,914
784,9	278,457
785,4	276,371
785,8	275,086
786,2	276,829
786,7	281,314
787,1	275,457
787,5	274,4
788	276,571
788,4	270,829
788,8	265,771
789,3	264,743
789,7	264,086
790,1	264,571
790,6	262,771
791	254,771
791,4	252,543
791,9	255,114
792,3	247,971
792,7	245,257
793,2	240,143
793,6	240,8
794	240,714
794,5	242,857
794,9	240,629
795,3	241,771
795,8	241,914
796,2	242,6
796,6	236,543
797,1	236,657
797,5	232,514
797,9	231,029
798,4	228,8
798,8	226,686
799,2	222,114
799,7	226,829
800,1	224,429
800,5	226,571
801	223,486
801,4	218,6
801,8	214,886
802,2	215,229
802,7	210,829
803,1	211,571
803,5	209,114
804	208,771
804,4	206,743
804,8	203,171
805,3	201,886
805,7	198,143
806,1	201
806,6	199,8
807	198,457
807,4	200
807,9	201,143
808,3	198,171
808,7	199,029
809,2	189,457
809,6	187,029
810	188,429
810,4	187,057
810,9	183,6
811,3	183,686
811,7	179,229
812,2	183,257
812,6	179,857
813	179,829
813,5	178,829
813,9	178,629
814,3	178,086
814,8	182,6
815,2	177,743
815,6	175,743
816,1	170,4
816,5	168,543
816,9	167,371
817,3	162,029
817,8	161,143
818,2	160,286
818,6	159,6
819,1	159,171
819,5	161,229
819,9	154,886
820,4	159,457
820,8	154,886
821,2	158,8
821,7	157,971
822,1	154,257
822,5	152,457
822,9	159,486
823,4	155,629
823,8	155,514
824,2	148,057
824,7	148,171
825,1	149,914
825,5	151,971
826	149,657
826,4	151,829
826,8	151,486
827,3	153,771
827,7	151,857
828,1	149,314
828,5	141,286
829	134,857
829,4	135,029
829,8	127,571
830,3	125,543
830,7	124,686
831,1	121,971
831,6	126,143
832	123,057
832,4	117,486
832,8	122,343
833,3	115,971
833,7	116,029
834,1	114,571
834,6	108,457
835	115,686
835,4	118,543
835,8	111,886
836,3	113,971
836,7	107,6
837,1	107,657
837,6	106,257
838	101,886
838,4	95,943
838,9	104,857
839,3	107,343
839,7	109,4
840,1	106,743
840,6	108,257
841	107,286
841,4	110,4
841,9	105,4
842,3	104
842,7	100
843,1	103,571
843,6	103,029
844	102,8
844,4	97,343
844,9	95,2
845,3	94,743
845,7	101,114
846,2	99,371
846,6	97,886
847	94,8
847,4	97,886
847,9	101,4
848,3	103,514
848,7	104,086
849,2	104,714
849,6	103,943
850	105,429
850,4	105,229
850,9	100,571
851,3	96,257
851,7	89,543
852,2	83
852,6	85,171
853	85,629
853,4	88,029
853,9	85,971
854,3	82,914
854,7	83
855,2	86,829
855,6	78,486
856	73,057
856,4	67,143
856,9	68,171
857,3	66,971
857,7	70,143
858,2	69,429
858,6	78,457
859	78,971
859,4	78,371
859,9	77,2
860,3	80,914
860,7	80,4
861,1	81,686
861,6	76,914
862	79,829
862,4	80,686
862,9	81,343
863,3	76,571
863,7	73,943
864,1	70,714
864,6	69,743
865	64,8
865,4	62,457
865,9	58,457
866,3	64,6
866,7	63,457
867,1	68,686
867,6	66,971
868	66,343
868,4	64,086
868,8	67
869,3	60,486
869,7	55,371
870,1	52,171
870,6	52,2
871	115,457
871,4	115,857
871,8	115,086
872,3	117,086
872,7	122,371
873,1	121,029
873,5	121,743
874	62,457
874,4	61,771
874,8	59,657
875,3	58,371
875,7	54,2
876,1	53,371
876,5	55,029
877	52,2
877,4	49,171
877,8	52,943
878,2	49,971
878,7	55,571
879,1	54,457
879,5	51,057
879,9	50,857
880,4	52,257
880,8	50,143
881,2	55,429
881,7	53,914
882,1	54,429
882,5	53,143
882,9	48,514
883,4	52,343
883,8	49,171
884,2	46,257
884,6	42,314
885,1	41,886
885,5	47,314
885,9	55,429
886,3	51,029
886,8	47,2
887,2	46,114
887,6	44
888	41,457
888,5	37,429
888,9	32,257
889,3	29,629
889,8	34,371
890,2	32,543
890,6	30,629
891	30,143
891,5	28,857
891,9	33,971
892,3	35,971
892,7	37,514
893,2	36,686
893,6	40,743
894	39,8
894,4	38,829
894,9	35,914
895,3	36,971
895,7	33,914
896,1	34,086
896,6	33,629
897	36,629
897,4	33,571
897,8	30,429
898,3	36,657
898,7	35,886
899,1	37,6
899,5	34,971
900	31,314
900,4	36,714
900,8	36,971
901,2	32,286
901,7	32,057
902,1	33,914
902,5	34,457
902,9	41,229
903,4	41,6
903,8	41,543
904,2	41,4
904,6	39,057
905,1	38,486
905,5	38,829
905,9	34,829
906,3	34,371
906,8	33,629
907,2	29,286
907,6	38,886
908	36,4
908,5	37,429
908,9	37,914
909,3	35,343
909,7	36,086
910,2	34,914
910,6	30,914
911	29,829
911,4	27,057
911,9	26,257
912,3	25,057
912,7	25,857
913,1	22,429
913,6	21,086
914	21,714
914,4	21
914,8	18,971
915,3	20,171
915,7	15,686
916,1	20,714
916,5	18,229
916,9	17,743
917,4	19,857
917,8	17,543
918,2	14,714
918,6	16,6
919,1	18,457
919,5	17
919,9	18,086
920,3	16,914
920,8	18,771
921,2	24,914
921,6	23,114
922	18,771
922,5	22,629
922,9	20,086
923,3	22,657
923,7	22,429
924,2	17,6
924,6	19,686
925	22,486
925,4	20,914
925,8	19,886
926,3	18,114
926,7	19,514
927,1	24,943
927,5	25,171
928	22,314
928,4	20,571
928,8	27,943
929,2	28,229
929,7	22,543
930,1	16,371
930,5	14,457
930,9	23,143
931,3	23,514
931,8	17,457
932,2	16,057
932,6	22,943
933	19,457
933,5	20,171
933,9	13,143
934,3	13,514
934,7	19,571
935,2	22,086
935,6	21,086
936	20,886
936,4	21,486
936,8	20,714
937,3	23,914
937,7	19,571
938,1	13,657
938,5	12,657
939	15,229
939,4	14,8
939,8	16,114
940,2	9,114
940,6	4,714
941,1	14,971
941,5	16,486
941,9	17,057
942,3	14,886
942,8	16
943,2	14,8
943,6	19,771
944	9,457
944,4	2,829
944,9	3,4
945,3	6
945,7	3,686
946,1	8,086
946,6	6,314
947	11,629
947,4	12,886
947,8	12,371
948,2	12,429
948,7	16,2
949,1	15
949,5	15,286
949,9	16,829
950,3	20,314
950,8	19,057
951,2	17,743
951,6	15,743
952	12,943
952,5	10,829
952,9	4,886
953,3	0,171
953,7	3,657
954,1	8,257
954,6	9,029
955	12,457
955,4	11,886
955,8	19,2
956,2	22,686
956,7	22,229
957,1	19,286
957,5	15,543
957,9	12,971
958,3	14,771
958,8	9,771
959,2	10,229
959,6	10,2
960	9
960,5	8,143
960,9	11,886
961,3	10
961,7	8,086
962,1	5,029
962,6	1,657
963	0,8
963,4	5,829
963,8	2,543
964,2	4,429
964,7	4,257
965,1	9,057
965,5	11,343
965,9	9,714
966,3	5,6
966,8	7,657
967,2	9,543
967,6	11,114
968	8,343
968,4	11,229
968,9	17,886
969,3	16,629
969,7	15,971
970,1	15,543
970,5	17,657
971	15,057
971,4	13,886
971,8	10,686
972,2	15,143
972,6	13,4
973,1	10,886
973,5	11,343
973,9	14,314
974,3	8,971
974,7	5,971
975,2	1,571
975,6	-2,6
976	1,686
976,4	2
976,8	2,8
977,3	7,486
977,7	6,657
978,1	9,057
978,5	13,943
978,9	9,657
979,4	7
979,8	3,114
980,2	-4,171
980,6	-4,743
981	-5,829
981,5	-2,743
981,9	-0,343
982,3	-3,314
982,7	2,486
983,1	8,171
983,6	12,114
984	15,8
984,4	15,314
984,8	17,286
985,2	20,971
985,6	17,914
986,1	19,971
986,5	14,8
986,9	11,171
987,3	8,171
987,7	4,114
988,2	4,086
988,6	6,514
989	4,914
989,4	8,943
989,8	7,857
990,3	6,514
990,7	5,514
991,1	1,257
991,5	-3,857
991,9	-0,314
992,3	-0,429
992,8	3
993,2	8,914
993,6	7,8
994	9,914
994,4	12,086
994,9	11,771
995,3	12,971
995,7	13,343
996,1	8,857
996,5	10,171
996,9	9,314
997,4	8,371
997,8	5,543
998,2	6,371
998,6	7,514
999	10,514
999,5	16,629
999,9	21,571
1000,3	24,943
1000,7	22,686
1001,1	20,143
1001,5	16,743
1002	10,657
1002,4	6,029
1002,8	10,114
1003,2	9,6
1003,6	11,6
1004	9,514
1004,5	8,029
1004,9	13,286
1005,3	7,857
1005,7	1,029
1006,1	-0,943
1006,6	-1,4
1007	0,371
1007,4	3,029
1007,8	1,171
1008,2	5,2
1008,6	5,4
1009,1	1,857
1009,5	5,686
1009,9	12,686
1010,3	13,829
1010,7	15,857
1011,1	18,943
1011,6	18,914
1012	21,543
1012,4	20,457
1012,8	11,029
1013,2	10,8
1013,6	12,714
1014,1	9,343
1014,5	11,629
1014,9	12,629
1015,3	13,4
1015,7	18,657
1016,1	17,8
1016,6	16,257
1017	17,057
1017,4	14,457
1017,8	11,629
1018,2	6,571
1018,6	7,2
1019,1	6,943
1019,5	3,143
1019,9	7,171
1020,3	6,514
1020,7	8,371
1021,1	10,571
1021,6	4,429
1022	-1,571
1022,4	5
1022,8	-1,629
1023,2	-0,371
1023,6	0,2
1024,1	1,914
1024,5	5,686
1024,9	13,571
1025,3	11,257
1025,7	21,229
1026,1	23,571
1026,6	24,914
1027	20,171
1027,4	19,4
1027,8	17,886
1028,2	17,571
1028,6	14,086
1029	8,314
1029,5	9,257
1029,9	9,029
1030,3	13,257
1030,7	15,029
1031,1	8,8
1031,5	1,857
1032	9,2
1032,4	2,943
1032,8	4,314
1033,2	3,771
1033,6	0,657
1034	3,457
1034,4	12,114
1034,9	4,257
1035,3	11,086
1035,7	9,429
1036,1	5,257
1036,5	0,171
1036,9	4,571
1037,4	3,257
1037,8	8,857
1038,2	2,057
1038,6	1,114
1039	0,543
1039,4	2,943
1039,8	-3,057
1040,3	-6,4
1040,7	-12
1041,1	-7,486
1041,5	-7,514
1041,9	-6,886
1042,3	-3,571
1042,7	-0,4
1043,2	4,057
1043,6	8,8
1044	5,571
1044,4	6,457
1044,8	1,543
1045,2	4,543
1045,6	3,743
1046,1	2,314
1046,5	5,229
1046,9	6,686
1047,3	7,057
1047,7	10,971
1048,1	3,971
1048,5	5,714
1049	4,343
1049,4	-3,914
1049,8	-0,486
1050,2	0,714
1050,6	5,486
1051	13,143
1051,4	7,343
1051,9	6,971
1052,3	6,371
1052,7	4,571
1053,1	5,8
1053,5	2,229
1053,9	1
1054,3	4,686
1054,8	9,857
1055,2	12,771
1055,6	11
1056	13,257
1056,4	15,2
1056,8	15,914
1057,2	18,943
1057,6	12,029
1058,1	17,314
1058,5	13,057
1058,9	15,2
1059,3	13,486
1059,7	6,743
1060,1	2,571
1060,5	1,657
1061	-2,057
1061,4	9,829
1061,8	1,971
1062,2	2,029
1062,6	1,343
1063	0,629
1063,4	5,171
1063,8	3,8
1064,3	-0,714
1064,7	-1,314
1065,1	1,114
1065,5	8,171
1065,9	11,086
1066,3	2,943
1066,7	3,8
1067,1	-1
1067,6	2,743
1068	-2,429
1068,4	-4,971
1068,8	-5,714
1069,2	-3,029
1069,6	-0,486
1070	3,457
1070,4	2,943
1070,9	5,971
1071,3	6,114
1071,7	8,143
1072,1	17
1072,5	21,743
1072,9	20,314
1073,3	18,429
1073,7	15,143
1074,2	18,971
1074,6	17,457
1075	8,486
1075,4	1,943
1075,8	4,143
1076,2	6,086
1076,6	5,943
1077	0,486
1077,5	1,6
1077,9	4,829
1078,3	1,943
1078,7	-1,286
1079,1	1,514
1079,5	3,286
1079,9	7
1080,3	2,743
1080,7	4,286
1081,2	4,629
1081,6	8,429
1082	3,743
1082,4	4,2
1082,8	-5,657
1083,2	-2,343
1083,6	-6,6
1084	-7,743
1084,5	-7,829
1084,9	-7,6
1085,3	-5,971
1085,7	-2,857
1086,1	-5,886
1086,5	-3,086
1086,9	-1,057
1087,3	-1,457
1087,7	2,6
1088,2	1,229
1088,6	4,629
1089	5,229
1089,4	3,8
1089,8	9,2
1090,2	6,086
1090,6	3,429
1091	7,457
1091,4	8,771
1091,9	11,229
1092,3	11,029
1092,7	8,171
1093,1	7,314
1093,5	6,486
1093,9	3,629
1094,3	2,943
1094,7	1,4
1095,1	-1,343
1095,5	-2,114
1096	-5,2
1096,4	-0,229
1096,8	-1,257
1097,2	-0,886
1097,6	0,429
1098	4,886
1098,4	4,743
1098,8	7,914
1099,2	3,8
1099,6	7,257
1100,1	7,686
1100,5	12,686
1100,9	11,486
1101,3	13
1101,7	17,886
1102,1	19,6
1102,5	14,629
1102,9	9,914
1103,3	1,229
1103,7	1,571
1104,2	1,857
1104,6	-0,943
1105	1,629
1105,4	4,4
1105,8	7,686
1106,2	10,771
1106,6	8,657
1107	6,029
1107,4	6,233
1107,8	1
1108,3	-0,55
