Data from Subt2_106.txt Node
Date: Sat Aug 26 18:20:03 MSK 2023
User: vat
Spectrometer: MAYP114033
Trigger mode: 0
Integration Time (sec): 1,000000E0
Scans to average: 5
Electric dark correction enabled: true
Nonlinearity correction enabled: false
Boxcar width: 3
XAxis mode: Wavelengths
Number of Pixels in Spectrum: 2068
>>>>>Begin Spectral Data<<<<<
199,4	-2,133
199,9	-2,313
200,4	-1,9
200,8	0,91
201,3	-1,09
201,8	-0,462
202,2	-1,462
202,7	3,852
203,2	2,967
203,6	0,881
204,1	-1,862
204,6	-2,09
205	-0,776
205,5	-1,119
206	-4,548
206,4	-1,148
206,9	2,167
207,4	6,652
207,8	6,195
208,3	4,481
208,8	6,881
209,2	9,11
209,7	5,367
210,2	3,195
210,6	-2,862
211,1	3,881
211,5	0,338
212	1,338
212,5	-0,805
212,9	1,138
213,4	3,395
213,9	6,195
214,3	2,681
214,8	4,71
215,3	3,795
215,7	5,195
216,2	9,795
216,7	7,338
217,1	6,224
217,6	7,11
218,1	11,252
218,5	6,51
219	1,338
219,5	-0,09
219,9	-3,319
220,4	3,652
220,9	1,11
221,3	-0,119
221,8	4,91
222,3	9,338
222,7	5,795
223,2	13,795
223,6	6,852
224,1	6,71
224,6	7,795
225	3,595
225,5	1,538
226	-0,862
226,4	-2,49
226,9	-3,005
227,4	0,567
227,8	-7,776
228,3	-5,119
228,8	-2,976
229,2	0,538
229,7	-0,919
230,2	-0,776
230,6	3,91
231,1	15,852
231,5	18,481
232	17,51
232,5	15,91
232,9	18,195
233,4	20,71
233,9	17,024
234,3	7,881
234,8	5,652
235,3	5,195
235,7	8,538
236,2	7,481
236,7	2,681
237,1	3,281
237,6	2,338
238,1	3,195
238,5	-0,719
239	-2,29
239,4	-3,433
239,9	-3,948
240,4	-7,519
240,8	0,281
241,3	-3,776
241,8	-3,433
242,2	-5,605
242,7	-12,776
243,2	-11,062
243,6	-13,233
244,1	-14,548
244,6	-12,062
245	-10,49
245,5	-10,833
245,9	-4,119
246,4	-0,89
246,9	2,081
247,3	-0,49
247,8	1,71
248,3	5,967
248,7	11,395
249,2	10,252
249,7	8,738
250,1	9,824
250,6	9,167
251	7,281
251,5	4,624
252	-1,005
252,4	2,91
252,9	-1,119
253,4	-5,576
253,8	-4,919
254,3	-5,833
254,8	-5,233
255,2	-5,376
255,7	-9,348
256,1	-4,776
256,6	-3,576
257,1	-3,605
257,5	-7,176
258	-9,548
258,5	-7,948
258,9	-10,205
259,4	-13,033
259,9	-10,29
260,3	-14,062
260,8	-11,833
261,2	-10,748
261,7	-8,69
262,2	-7,89
262,6	-6,662
263,1	-4,633
263,6	-3,29
264	1,052
264,5	0,367
264,9	-1,605
265,4	0,252
265,9	0,252
266,3	-1,205
266,8	6,081
267,3	3,71
267,7	2,938
268,2	0,481
268,7	1,31
269,1	1,795
269,6	-1,062
270	-3,433
270,5	-7,433
271	-6,719
271,4	-3,976
271,9	-4,233
272,4	-0,119
272,8	1,681
273,3	-1,062
273,7	2,995
274,2	3,224
274,7	3,224
275,1	1,995
275,6	-0,376
276,1	-1,605
276,5	1,995
277	-0,09
277,4	2,252
277,9	1,567
278,4	1,881
278,8	3,252
279,3	7,052
279,8	3,424
280,2	7,51
280,7	7,681
281,1	6,767
281,6	7,452
282,1	4,338
282,5	-0,69
283	-0,89
283,4	-2,776
283,9	-3,005
284,4	0,995
284,8	-0,662
285,3	-4,548
285,8	1,652
286,2	0,852
286,7	-0,576
287,1	0,767
287,6	-2,376
288,1	-3,833
288,5	0,852
289	-4,062
289,5	-1,176
289,9	1,395
290,4	1,852
290,8	1,767
291,3	2,795
291,8	4,167
292,2	5,081
292,7	7,567
293,1	7,795
293,6	8,252
294,1	10,081
294,5	13,167
295	12,452
295,5	11,224
295,9	8,452
296,4	4,824
296,8	0,024
297,3	-0,176
297,8	-5,005
298,2	-6,805
298,7	-1,919
299,1	-2,262
299,6	-4,29
300,1	-1,262
300,5	0,395
301	6,51
301,5	13,052
301,9	7,395
302,4	7,081
302,8	13,024
303,3	10,224
303,8	4,624
304,2	-0,29
304,7	-3,033
305,1	-4,519
305,6	-5,748
306,1	-1,748
306,5	0,224
307	6,481
307,4	12,624
307,9	10,224
308,4	10,881
308,8	10,11
309,3	4,681
309,8	2,881
310,2	2,31
310,7	-1,948
311,1	-1,062
311,6	0,995
312,1	4,795
312,5	6,71
313	9,367
313,4	7,567
313,9	8,252
314,4	6,281
314,8	5,052
315,3	3,995
315,7	-1,89
316,2	-5,919
316,7	-9,805
317,1	-9,548
317,6	-8,919
318	-0,433
318,5	-4,433
319	-3,319
319,4	-1,176
319,9	7,567
320,3	11,881
320,8	13,024
321,3	10,71
321,7	16,595
322,2	19,138
322,6	21,452
323,1	17,967
323,6	10,138
324	8,652
324,5	3,881
324,9	1,31
325,4	-1,748
325,9	-0,919
326,3	-3,29
326,8	1,338
327,2	-2,633
327,7	-1,576
328,2	-0,805
328,6	5,395
329,1	-0,719
329,5	1,338
330	0,081
330,5	4,538
330,9	2,281
331,4	4,31
331,8	0,424
332,3	4,995
332,8	4,567
333,2	4,224
333,7	10,11
334,1	13,31
334,6	8,652
335,1	5,367
335,5	4,738
336	4,052
336,4	5,424
336,9	6,252
337,4	4,681
337,8	5,11
338,3	5,224
338,7	9,795
339,2	9,052
339,7	14,395
340,1	7,795
340,6	8,767
341	10,681
341,5	15,51
342	10,91
342,4	9,51
342,9	1,71
343,3	3,452
343,8	3,338
344,2	4,224
344,7	10,51
345,2	10,11
345,6	11,252
346,1	17,538
346,5	9,91
347	5,567
347,5	5,31
347,9	5,167
348,4	2,395
348,8	3,91
349,3	0,024
349,8	7,024
350,2	17,138
350,7	13,281
351,1	9,138
351,6	14,395
352	16,995
352,5	20,567
353	29,195
353,4	29,624
353,9	42,824
354,3	54,224
354,8	65,367
355,3	80,967
355,7	102,281
356,2	125,281
356,6	147,738
357,1	173,424
357,5	203,281
358	238,31
358,5	271,767
358,9	309,881
359,4	348,71
359,8	405,652
360,3	469,795
360,8	532,024
361,2	600,767
361,7	689,081
362,1	782,538
362,6	882,51
363	982,481
363,5	1090,938
364	1211,052
364,4	1336,938
364,9	1460,052
365,3	1577,795
365,8	1691,624
366,3	1801,31
366,7	1895,081
367,2	1981,367
367,6	2042,995
368,1	2093,11
368,5	2130,252
369	2153,252
369,5	2158,367
369,9	2143,967
370,4	2106,367
370,8	2064,595
371,3	2002,624
371,7	1929,195
372,2	1841,481
372,7	1749,995
373,1	1655,595
373,6	1562,081
374	1464,652
374,5	1368,367
374,9	1274,252
375,4	1185,624
375,9	1095,252
376,3	1009,795
376,8	927,195
377,2	853,51
377,7	777,824
378,2	707,767
378,6	647,481
379,1	592,624
379,5	544,967
380	501,824
380,4	462,138
380,9	427,824
381,4	393,538
381,8	362,767
382,3	340,195
382,7	312,052
383,2	291,452
383,6	270,395
384,1	249,252
384,6	237,195
385	217,567
385,5	199,11
385,9	187,852
386,4	171,081
386,8	162,052
387,3	151,852
387,7	140,138
388,2	132,338
388,7	120,795
389,1	114,338
389,6	108,167
390	96,024
390,5	93,481
390,9	87,71
391,4	82,052
391,9	77,652
392,3	73,31
392,8	68,31
393,2	61,652
393,7	53,395
394,1	49,967
394,6	50,995
395,1	51,881
395,5	46,567
396	46,052
396,4	48,338
396,9	47,081
397,3	50,452
397,8	48,795
398,2	46,967
398,7	50,11
399,2	52,138
399,6	55,081
400,1	56,281
400,5	49,71
401	45,624
401,4	42,967
401,9	46,567
402,4	43,567
402,8	38,081
403,3	42,424
403,7	45,052
404,2	49,681
404,6	53,367
405,1	48,881
405,5	49,852
406	51,624
406,5	51,767
406,9	56,738
407,4	58,167
407,8	61,11
408,3	65,11
408,7	68,024
409,2	78,595
409,6	83,938
410,1	87,738
410,6	97,452
411	102,91
411,5	106,481
411,9	117,538
412,4	124,595
412,8	136,424
413,3	143,024
413,7	147,052
414,2	156,767
414,7	172,395
415,1	189,767
415,6	200,452
416	210,167
416,5	224,681
416,9	240,367
417,4	255,452
417,8	274,538
418,3	286,224
418,8	304,51
419,2	319,738
419,7	333,51
420,1	351,91
420,6	369,195
421	378,624
421,5	397,51
421,9	412,738
422,4	435,367
422,8	461,624
423,3	485,71
423,8	512,11
424,2	538,452
424,7	564,967
425,1	597,31
425,6	629,652
426	661,967
426,5	698,538
426,9	734,938
427,4	776,138
427,9	809,11
428,3	853,595
428,8	895,452
429,2	942,795
429,7	990,052
430,1	1044,481
430,6	1098,995
431	1160,652
431,5	1218,31
431,9	1279,881
432,4	1344,281
432,8	1411,424
433,3	1480,452
433,8	1560,281
434,2	1642,795
434,7	1722,567
435,1	1812,138
435,6	1899,51
436	1993,824
436,5	2097,167
436,9	2192,224
437,4	2294,681
437,8	2409,281
438,3	2521,681
438,8	2639,024
439,2	2760,767
439,7	2881,738
440,1	3014,71
440,6	3159,281
441	3294,538
441,5	3441,138
441,9	3596,595
442,4	3743,995
442,8	3904,31
443,3	4070,081
443,7	4237,824
444,2	4419,995
444,7	4598,024
445,1	4792,081
445,6	4990,795
446	5189,795
446,5	5394,11
446,9	5597,567
447,4	5803,281
447,8	6025,51
448,3	6239,281
448,7	6472,052
449,2	6706,795
449,6	6944,967
450,1	7188,481
450,6	7446,052
451	7692,138
451,5	7951,481
451,9	8215,795
452,4	8490,624
452,8	8757,881
453,3	9028,738
453,7	9296,024
454,2	9585,424
454,6	9869,995
455,1	10157,767
455,5	10441,795
456	10749,567
456,4	11054,338
456,9	11374,91
457,3	11687,424
457,8	12000,452
458,3	12312,424
458,7	12628,452
459,2	12947,395
459,6	13272,367
460,1	13587,195
460,5	13909,595
461	14232,424
461,4	14557,481
461,9	14889,91
462,3	15217,081
462,8	15544,567
463,2	15870,824
463,7	16200,767
464,1	16534,167
464,6	16873,395
465	17198,138
465,5	17532,795
466	17871,052
466,4	18199,824
466,9	18527,624
467,3	18854,995
467,8	19168,881
468,2	19491,452
468,7	19804,567
469,1	20111,395
469,6	20421,452
470	20719,538
470,5	21015,881
470,9	21315,91
471,4	21597,938
471,8	21883,852
472,3	22169,538
472,7	22458,138
473,2	22734,024
473,6	23003,338
474,1	23260,795
474,5	23535,767
475	23793,881
475,4	24043,452
475,9	24274,481
476,4	24517,138
476,8	24765,11
477,3	25002,424
477,7	25219,024
478,2	25430,767
478,6	25628,767
479,1	25808,395
479,5	25990,424
480	26164,624
480,4	26328,481
480,9	26492,367
481,3	26633,367
481,8	26784,967
482,2	26926,652
482,7	27063,91
483,1	27181,31
483,6	27295,452
484	27391,11
484,5	27517,452
484,9	27590,738
485,4	27685,195
485,8	27742,767
486,3	27809,71
486,7	27864,281
487,2	27923,538
487,6	27945,052
488,1	27978,31
488,5	28004,538
489	28030,938
489,4	28039,595
489,9	28036,738
490,4	28023,567
490,8	28001,967
491,3	27985,91
491,7	27962,681
492,2	27923,738
492,6	27876,395
493,1	27824,881
493,5	27757,767
494	27699,424
494,4	27631,081
494,9	27545,481
495,3	27481,881
495,8	27384,652
496,2	27295,624
496,7	27198,681
497,1	27092,367
497,6	26983,395
498	26885,51
498,5	26756,91
498,9	26634,452
499,4	26513,681
499,8	26388,338
500,3	26262,367
500,7	26135,538
501,2	25994,281
501,6	25864,767
502,1	25730,31
502,5	25592,052
503	25459,31
503,4	25311,624
503,9	25136,681
504,3	24979,767
504,8	24803,395
505,2	24634,281
505,7	24461,995
506,1	24285,052
506,6	24091,538
507	23933,852
507,5	23752,967
507,9	23572,71
508,4	23399,795
508,8	23210,681
509,3	23028,481
509,7	22843,281
510,2	22652,367
510,6	22451,881
511,1	22268,767
511,5	22072,338
512	21883,538
512,4	21681,195
512,9	21488,538
513,3	21310,652
513,8	21127,71
514,2	20919,767
514,7	20717,767
515,1	20516,595
515,6	20316,281
516	20115,224
516,5	19893,081
516,9	19684,395
517,4	19500,652
517,8	19308,595
518,3	19115,938
518,7	18917,795
519,2	18738,624
519,6	18540,767
520,1	18336,281
520,5	18123,281
521	17921,224
521,4	17722,624
521,9	17534,138
522,3	17334,938
522,8	17143,024
523,2	16968,452
523,7	16785,51
524,1	16596,567
524,6	16407,738
525	16222,024
525,5	16040,11
525,9	15863,081
526,4	15666,824
526,8	15487,281
527,3	15316,424
527,7	15155,652
528,2	14985,452
528,6	14808,91
529,1	14638,881
529,5	14484,367
530	14315,567
530,4	14164,795
530,9	13986,881
531,3	13835,367
531,8	13681,281
532,2	13534,51
532,6	13386,881
533,1	13237,338
533,5	13074,624
534	12939,081
534,4	12789,31
534,9	12649,795
535,3	12494,281
535,8	12346,681
536,2	12218,71
536,7	12082,481
537,1	11933,024
537,6	11790,795
538	11649,91
538,5	11521,995
538,9	11384,795
539,4	11246,338
539,8	11115,91
540,3	11003,11
540,7	10882,681
541,2	10761,367
541,6	10647,452
542,1	10531,081
542,5	10421,567
543	10306,31
543,4	10185,852
543,9	10069,91
544,3	9964,881
544,8	9841,652
545,2	9732,281
545,7	9623,138
546,1	9523,081
546,5	9415,995
547	9313,652
547,4	9207,767
547,9	9117,738
548,3	9027,738
548,8	8928,195
549,2	8827,338
549,7	8742,395
550,1	8649,452
550,6	8557,767
551	8468,481
551,5	8375,71
551,9	8283,681
552,4	8204,11
552,8	8117,11
553,3	8039,338
553,7	7953,595
554,2	7876,795
554,6	7800,767
555,1	7732,767
555,5	7651,71
555,9	7580,967
556,4	7505,938
556,8	7436,281
557,3	7356,767
557,7	7281,452
558,2	7199,738
558,6	7132,624
559,1	7055,938
559,5	6982,967
560	6915,195
560,4	6851,081
560,9	6785,881
561,3	6728,652
561,8	6659,795
562,2	6600,11
562,7	6536,738
563,1	6474,71
563,6	6408,081
564	6349,538
564,4	6289,652
564,9	6238,538
565,3	6178,367
565,8	6120,71
566,2	6068,167
566,7	6019,081
567,1	5966,595
567,6	5916,081
568	5858,138
568,5	5804,652
568,9	5751,852
569,4	5697,281
569,8	5648,738
570,3	5599,795
570,7	5539,852
571,1	5491,767
571,6	5446,567
572	5403,367
572,5	5358,824
572,9	5308,624
573,4	5253,795
573,8	5215,995
574,3	5169,31
574,7	5126,367
575,2	5078,567
575,6	5028,995
576,1	4989,338
576,5	4951,452
576,9	4900,91
577,4	4855,424
577,8	4807,252
578,3	4760,681
578,7	4727,938
579,2	4684,71
579,6	4641,052
580,1	4604,71
580,5	4570,338
581	4532,995
581,4	4499,938
581,9	4449,824
582,3	4413,367
582,7	4381,195
583,2	4341,852
583,6	4307,367
584,1	4272,91
584,5	4229,281
585	4204,995
585,4	4166,681
585,9	4129,567
586,3	4098,167
586,8	4064,538
587,2	4024,824
587,6	4011,252
588,1	3979,024
588,5	3948,024
589	3917,081
589,4	3880,224
589,9	3848,624
590,3	3819,881
590,8	3783,052
591,2	3751,681
591,7	3723,91
592,1	3697,195
592,5	3678,338
593	3652,081
593,4	3628,11
593,9	3599,624
594,3	3571,452
594,8	3550,995
595,2	3519,195
595,7	3495,367
596,1	3467,395
596,6	3445,738
597	3426,052
597,4	3404,395
597,9	3376,567
598,3	3363,395
598,8	3338,424
599,2	3318,767
599,7	3293,024
600,1	3265,138
600,6	3237,367
601	3215,138
601,4	3195,71
601,9	3174,881
602,3	3151,138
602,8	3132,852
603,2	3109,167
603,7	3093,11
604,1	3072,481
604,6	3039,767
605	3013,452
605,4	2991,71
605,9	2963,71
606,3	2944,967
606,8	2923,395
607,2	2902,138
607,7	2880,652
608,1	2862,138
608,6	2846,167
609	2832,452
609,4	2817,481
609,9	2797,652
610,3	2777,224
610,8	2764,595
611,2	2747,481
611,7	2722,11
612,1	2700,967
612,6	2680,852
613	2662,881
613,4	2646,967
613,9	2628,081
614,3	2602,652
614,8	2584,824
615,2	2566,824
615,7	2547,338
616,1	2533,195
616,6	2515,138
617	2497,452
617,4	2484,738
617,9	2472,252
618,3	2456,881
618,8	2444,452
619,2	2420,71
619,7	2401,224
620,1	2382,367
620,5	2368,852
621	2347,167
621,4	2334,995
621,9	2310,967
622,3	2293,595
622,8	2278,538
623,2	2264,91
623,6	2248,567
624,1	2236,967
624,5	2214,91
625	2202,51
625,4	2189,824
625,9	2171,938
626,3	2152,081
626,8	2134,31
627,2	2120,081
627,6	2099,31
628,1	2078,452
628,5	2061,767
629	2050,195
629,4	2039,195
629,9	2025,967
630,3	2004,424
630,7	1987,252
631,2	1974,481
631,6	1960,338
632,1	1944,138
632,5	1929,367
633	1915,224
633,4	1898,51
633,8	1891,11
634,3	1880,252
634,7	1862,595
635,2	1846,91
635,6	1830,338
636,1	1815,738
636,5	1803,91
636,9	1791,452
637,4	1775,167
637,8	1756,452
638,3	1747,11
638,7	1735,024
639,2	1717,252
639,6	1712,31
640	1699,167
640,5	1686,71
640,9	1686,167
641,4	1671,567
641,8	1664,281
642,2	1655,567
642,7	1646,538
643,1	1640,195
643,6	1635,767
644	1618,767
644,5	1610,281
644,9	1598,91
645,3	1592,767
645,8	1576,138
646,2	1563,852
646,7	1548,624
647,1	1543,395
647,6	1533,195
648	1519,71
648,4	1504,881
648,9	1500,281
649,3	1487,11
649,8	1477,424
650,2	1470,167
650,6	1460,424
651,1	1449,767
651,5	1446,681
652	1434,795
652,4	1426,795
652,9	1421,081
653,3	1405,852
653,7	1391,252
654,2	1381,738
654,6	1367,824
655,1	1362,51
655,5	1352,967
655,9	1339,51
656,4	1333,424
656,8	1326,567
657,3	1322,595
657,7	1316,424
658,2	1301,167
658,6	1286,738
659	1279,91
659,5	1266,452
659,9	1257,11
660,4	1245,767
660,8	1231,967
661,2	1222,252
661,7	1216,195
662,1	1202,967
662,6	1192,167
663	1186,767
663,4	1179,31
663,9	1172,824
664,3	1161,281
664,8	1154,995
665,2	1147,167
665,6	1144,452
666,1	1134,91
666,5	1126,31
667	1122,395
667,4	1117,424
667,9	1107,824
668,3	1099,938
668,7	1091,452
669,2	1085,995
669,6	1074,538
670,1	1064,681
670,5	1057,281
670,9	1049,31
671,4	1046,938
671,8	1045,738
672,3	1037,824
672,7	1032,452
673,1	1018,395
673,6	1010,767
674	1009,167
674,5	1000,852
674,9	979,938
675,3	968,624
675,8	963,138
676,2	956,081
676,7	945,052
677,1	931,51
677,5	920,31
678	918,995
678,4	919,11
678,9	913,395
679,3	909,91
679,7	906,624
680,2	898,852
680,6	890,11
681,1	886,795
681,5	879,224
681,9	872,767
682,4	870,567
682,8	863,938
683,3	861,91
683,7	862,538
684,1	853,652
684,6	841,024
685	827,538
685,5	820,395
685,9	806,938
686,3	793,681
686,8	784,938
687,2	782,224
687,7	775,567
688,1	766,395
688,5	757,081
689	760,395
689,4	759,538
689,9	751,967
690,3	743,71
690,7	740,852
691,2	743,995
691,6	739,481
692	733,738
692,5	728,024
692,9	724,767
693,4	718,081
693,8	712,795
694,2	703,824
694,7	698,652
695,1	692,024
695,6	686,767
696	683,11
696,4	679,824
696,9	672,881
697,3	665,452
697,8	660,681
698,2	654,167
698,6	652,852
699,1	643,795
699,5	642,395
699,9	643,081
700,4	641,195
700,8	639,795
701,3	636,767
701,7	628,824
702,1	627,167
702,6	616,195
703	609,195
703,5	605,995
703,9	594,852
704,3	592,681
704,8	584,481
705,2	581,224
705,6	578,024
706,1	576,624
706,5	569,567
707	568,71
707,4	564,824
707,8	563,881
708,3	559,567
708,7	558,024
709,2	545,938
709,6	544,024
710	544,281
710,5	536,224
710,9	535,738
711,3	530,31
711,8	526,052
712,2	532,481
712,7	527,224
713,1	524,11
713,5	528,51
714	523,767
714,4	518,995
714,8	516,938
715,3	508,738
715,7	507,31
716,2	496,938
716,6	486,367
717	478,738
717,5	472,71
717,9	469,138
718,3	462,538
718,8	463,224
719,2	461,567
719,7	456,795
720,1	459,91
720,5	463,71
721	457,31
721,4	457,138
721,8	455,938
722,3	451,51
722,7	454,681
723,2	441,452
723,6	427,595
724	421,338
724,5	416,052
724,9	402,11
725,3	399,567
725,8	395,052
726,2	398,338
726,7	402,081
727,1	404,938
727,5	399,024
728	399,681
728,4	396,652
728,8	386,595
729,3	381,338
729,7	375,31
730,1	372,452
730,6	373,824
731	370,71
731,5	367,824
731,9	367,281
732,3	369,881
732,8	371,595
733,2	368,681
733,6	365,738
734,1	364,024
734,5	360,595
734,9	364,224
735,4	361,052
735,8	353,252
736,3	353,767
736,7	351,11
737,1	352,424
737,6	351,51
738	347,281
738,4	342,681
738,9	345,424
739,3	341,167
739,7	340,424
740,2	331,738
740,6	333,681
741,1	330,738
741,5	322,338
741,9	319,738
742,4	318,652
742,8	313,167
743,2	314,624
743,7	306,138
744,1	301,938
744,5	306,567
745	304,738
745,4	297,052
745,8	296,395
746,3	291,767
746,7	288,652
747,2	290,224
747,6	291,652
748	291,881
748,5	294,795
748,9	287,052
749,3	285,224
749,8	287,195
750,2	282,91
750,6	273,681
751,1	269,681
751,5	266,481
751,9	273,652
752,4	277,567
752,8	278,452
753,3	271,595
753,7	275,224
754,1	268,967
754,6	262,252
755	255,424
755,4	248,252
755,9	243,338
756,3	243,595
756,7	240,252
757,2	240,224
757,6	244,224
758	243,681
758,5	246,31
758,9	247,252
759,3	249,024
759,8	247,281
760,2	247,881
760,6	244,395
761,1	241,624
761,5	233,11
761,9	228,481
762,4	223,538
762,8	220,938
763,3	216,252
763,7	216,024
764,1	217,538
764,6	218,91
765	219,081
765,4	223,995
765,9	226,281
766,3	231,71
766,7	227,224
767,2	222,795
767,6	223,31
768	219,995
768,5	213,995
768,9	211,595
769,3	203,852
769,8	204,824
770,2	205,081
770,6	206,367
771,1	209,224
771,5	206,652
771,9	205,51
772,4	209,852
772,8	202,738
773,2	204,881
773,7	200,824
774,1	203,167
774,5	199,424
775	196,081
775,4	192,338
775,8	197,367
776,3	196,338
776,7	194,395
777,1	189,052
777,6	191,367
778	193,652
778,4	191,795
778,9	190,167
779,3	184,452
779,7	184,081
780,2	183,024
780,6	184,767
781	185,367
781,5	178,31
781,9	177,195
782,3	174,452
782,8	177,024
783,2	173,224
783,6	175,338
784,1	166,481
784,5	168,052
784,9	165,252
785,4	166,138
785,8	161,281
786,2	161,681
786,7	156,538
787,1	158,767
787,5	159,824
788	158,624
788,4	158,795
788,8	154,538
789,3	149,652
789,7	149,681
790,1	147,567
790,6	146,967
791	143,224
791,4	148,624
791,9	148,252
792,3	144,538
792,7	143,338
793,2	139,252
793,6	139,281
794	144,224
794,5	136,824
794,9	140,281
795,3	144,738
795,8	141,252
796,2	143,767
796,6	144,595
797,1	143,824
797,5	138,167
797,9	131,967
798,4	131,195
798,8	134,195
799,2	131,967
799,7	131,367
800,1	124,738
800,5	127,91
801	130,624
801,4	125,71
801,8	119,652
802,2	118,91
802,7	115,395
803,1	117,852
803,5	115,424
804	113,595
804,4	116,824
804,8	121,452
805,3	120,624
805,7	120,424
806,1	120,024
806,6	124,481
807	123,91
807,4	123,195
807,9	113,881
808,3	114,167
808,7	113,795
809,2	111,395
809,6	111,052
810	112,138
810,4	109,138
810,9	113,338
811,3	113,595
811,7	112,995
812,2	120,738
812,6	115,224
813	117,424
813,5	118,338
813,9	118,738
814,3	117,71
814,8	114,995
815,2	106,167
815,6	106,51
816,1	103,167
816,5	103,824
816,9	102,395
817,3	99,71
817,8	104,11
818,2	105,91
818,6	100,91
819,1	97,195
819,5	92,481
819,9	94,852
820,4	94,595
820,8	88,852
821,2	84,252
821,7	90,567
822,1	93,795
822,5	101,338
822,9	96,424
823,4	94,395
823,8	97,024
824,2	99,367
824,7	94,938
825,1	90,081
825,5	81,281
826	77,881
826,4	76,795
826,8	73,881
827,3	74,51
827,7	73,424
828,1	78,224
828,5	79,51
829	79,767
829,4	78,595
829,8	75,081
830,3	71,024
830,7	68,681
831,1	65,795
831,6	65,795
832	67,681
832,4	71,852
832,8	74,11
833,3	75,367
833,7	74,281
834,1	70,824
834,6	65,681
835	63,595
835,4	63,167
835,8	60,967
836,3	59,795
836,7	60,567
837,1	59,367
837,6	65,795
838	66,852
838,4	64,795
838,9	65,538
839,3	61,395
839,7	64,195
840,1	62,281
840,6	57,281
841	54,595
841,4	54,024
841,9	51,11
842,3	53,824
842,7	52,395
843,1	54,224
843,6	55,167
844	59,967
844,4	61,195
844,9	66,624
845,3	69,595
845,7	70,424
846,2	68,081
846,6	64,881
847	58,31
847,4	55,452
847,9	54,481
848,3	49,338
848,7	47,91
849,2	48,795
849,6	46,71
850	51,824
850,4	53,995
850,9	53,052
851,3	58,167
851,7	54,681
852,2	54,71
852,6	62,167
853	59,824
853,4	56,052
853,9	51,052
854,3	45,51
854,7	48,11
855,2	47,052
855,6	49,852
856	48,224
856,4	46,995
856,9	47,852
857,3	51,424
857,7	51,852
858,2	54,71
858,6	42,424
859	43,938
859,4	43,938
859,9	42,024
860,3	37,367
860,7	38,081
861,1	38,424
861,6	41,424
862	37,538
862,4	36,71
862,9	40,538
863,3	43,252
863,7	38,824
864,1	37,367
864,6	33,081
865	34,71
865,4	36,795
865,9	35,624
866,3	29,11
866,7	30,195
867,1	24,938
867,6	29,995
868	31,852
868,4	32,252
868,8	32,852
869,3	35,538
869,7	39,967
870,1	38,481
870,6	38,424
871	17,967
871,4	21,31
871,8	16,424
872,3	19,795
872,7	15,281
873,1	18,338
873,5	18,081
874	32,852
874,4	31,424
874,8	31,538
875,3	31,138
875,7	30,481
876,1	29,081
876,5	28,367
877	26,967
877,4	23,824
877,8	25,052
878,2	25,481
878,7	25,852
879,1	27,567
879,5	28,852
879,9	34,567
880,4	35,224
880,8	33,51
881,2	32,538
881,7	30,995
882,1	30,852
882,5	29,738
882,9	26,195
883,4	23,91
883,8	28,652
884,2	27,167
884,6	25,338
885,1	27,567
885,5	27,51
885,9	25,767
886,3	29,195
886,8	22,11
887,2	21,081
887,6	21,624
888	18,481
888,5	20,367
888,9	22,538
889,3	16,967
889,8	23,395
890,2	21,967
890,6	19,195
891	19,995
891,5	17,767
891,9	16,938
892,3	20,995
892,7	20,338
893,2	23,738
893,6	29,452
894	32,11
894,4	29,31
894,9	29,138
895,3	22,481
895,7	23,281
896,1	21,31
896,6	19,681
897	20,081
897,4	27,481
897,8	28,538
898,3	34,995
898,7	29,995
899,1	25,567
899,5	25,281
900	18,052
900,4	9,881
900,8	10,138
901,2	8,624
901,7	8,052
902,1	10,881
902,5	9,51
902,9	14,395
903,4	21,081
903,8	18,338
904,2	14,91
904,6	18,281
905,1	19,852
905,5	21,024
905,9	20,224
906,3	16,71
906,8	21,252
907,2	20,11
907,6	20,395
908	22,11
908,5	18,595
908,9	15,538
909,3	14,195
909,7	11,481
910,2	12,052
910,6	14,167
911	10,995
911,4	11,738
911,9	8,995
912,3	7,881
912,7	9,624
913,1	10,538
913,6	8,567
914	9,767
914,4	8,595
914,8	12,31
915,3	10,424
915,7	8,995
916,1	6,995
916,5	3,167
916,9	-0,833
917,4	1,624
917,8	5,567
918,2	4,91
918,6	2,052
919,1	6,452
919,5	11,824
919,9	14,31
920,3	11,595
920,8	8,081
921,2	11,281
921,6	11,881
922	15,967
922,5	11,624
922,9	11,995
923,3	9,167
923,7	10,51
924,2	9,595
924,6	9,595
925	3,424
925,4	2,481
925,8	3,681
926,3	10,424
926,7	5,281
927,1	4,224
927,5	8,71
928	8,595
928,4	6,824
928,8	7,938
929,2	3,852
929,7	7,424
930,1	10,881
930,5	4,824
930,9	7,938
931,3	10,51
931,8	8,195
932,2	12,167
932,6	10,31
933	2,51
933,5	8,595
933,9	5,167
934,3	5,681
934,7	3,081
935,2	1,052
935,6	4,052
936	10,767
936,4	8,31
936,8	13,51
937,3	9,224
937,7	14,224
938,1	16,338
938,5	11,681
939	10,767
939,4	10,224
939,8	4,081
940,2	12,795
940,6	11,681
941,1	10,652
941,5	18,395
941,9	13,881
942,3	13,481
942,8	17,652
943,2	14,195
943,6	11,738
944	10,767
944,4	5,824
944,9	5,31
945,3	7,652
945,7	2,624
946,1	-3,462
946,6	-2,176
947	-0,033
947,4	0,481
947,8	3,995
948,2	-1,919
948,7	0,11
949,1	1,395
949,5	2,567
949,9	2,71
950,3	0,395
950,8	1,338
951,2	0,51
951,6	-1,805
952	2,967
952,5	-3,719
952,9	-6,748
953,3	-2,633
953,7	-2,919
954,1	3,681
954,6	5,338
955	5,967
955,4	6,795
955,8	11,024
956,2	7,252
956,7	8,31
957,1	5,71
957,5	5,481
957,9	6,081
958,3	7,652
958,8	3,538
959,2	8,424
959,6	8,71
960	8,224
960,5	14,11
960,9	11,938
961,3	8,052
961,7	8,367
962,1	3,224
962,6	5,167
963	5,681
963,4	-4,148
963,8	-1,148
964,2	6,052
964,7	7,824
965,1	12,081
965,5	8,652
965,9	7,51
966,3	15,138
966,8	10,424
967,2	7,224
967,6	3,224
968	-6,005
968,4	-3,833
968,9	-1,919
969,3	1,567
969,7	-0,662
970,1	-0,462
970,5	0,338
971	9,424
971,4	5,052
971,8	5,452
972,2	-0,176
972,6	3,767
973,1	6,224
973,5	13,024
973,9	16,252
974,3	16,795
974,7	18,824
975,2	20,51
975,6	17,681
976	20,767
976,4	12,052
976,8	5,195
977,3	5,138
977,7	0,681
978,1	-1,319
978,5	-4,205
978,9	-10,605
979,4	-8,376
979,8	-12,148
980,2	-7,833
980,6	-10,662
981	-8,29
981,5	-2,405
981,9	2,652
982,3	1,995
982,7	8,31
983,1	1,881
983,6	6,281
984	4,938
984,4	3,881
984,8	-1,405
985,2	0,338
985,6	-1,976
986,1	2,624
986,5	3,538
986,9	-2,748
987,3	-2,662
987,7	-0,119
988,2	-2,548
988,6	-1,919
989	-1,433
989,4	-6,719
989,8	-1,833
990,3	-2,719
990,7	-1,833
991,1	-0,119
991,5	0,11
991,9	1,824
992,3	8,938
992,8	10,024
993,2	8,195
993,6	8,795
994	9,938
994,4	10,367
994,9	5,71
995,3	0,91
995,7	0,424
996,1	2,567
996,5	-0,605
996,9	-3,09
997,4	1,681
997,8	-0,205
998,2	-1,405
998,6	-6,433
999	-8,69
999,5	-8,576
999,9	-9,233
1000,3	-16,748
1000,7	-13,805
1001,1	-11,348
1001,5	-7,005
1002	-0,519
1002,4	0,081
1002,8	1,995
1003,2	5,71
1003,6	7,852
1004	8,738
1004,5	6,224
1004,9	3,995
1005,3	-0,176
1005,7	3,424
1006,1	0,367
1006,6	-3,233
1007	-0,919
1007,4	0,167
1007,8	-2,605
1008,2	-0,205
1008,6	2,338
1009,1	3,824
1009,5	7,31
1009,9	3,395
1010,3	5,967
1010,7	5,138
1011,1	5,738
1011,6	-0,662
1012	0,91
1012,4	-2,719
1012,8	-0,748
1013,2	1,767
1013,6	2,995
1014,1	4,481
1014,5	3,795
1014,9	4,852
1015,3	6,795
1015,7	5,824
1016,1	1,51
1016,6	5,167
1017	7,852
1017,4	8,624
1017,8	7,481
1018,2	10,024
1018,6	1,395
1019,1	-2,776
1019,5	-6,405
1019,9	-9,89
1020,3	-7,262
1020,7	-8,69
1021,1	-12,519
1021,6	-2,576
1022	6,538
1022,4	6,71
1022,8	5,367
1023,2	3,252
1023,6	3,967
1024,1	10,167
1024,5	9,51
1024,9	2,767
1025,3	1,767
1025,7	4,624
1026,1	7,138
1026,6	7,91
1027	5,224
1027,4	5,767
1027,8	6,452
1028,2	2,71
1028,6	6,51
1029	3,252
1029,5	6,91
1029,9	3,995
1030,3	-2,148
1030,7	-2,49
1031,1	4,31
1031,5	-1,548
1032	-0,433
1032,4	-4,919
1032,8	-1,062
1033,2	3,767
1033,6	3,538
1034	1,938
1034,4	0,367
1034,9	3,195
1035,3	1,024
1035,7	3,767
1036,1	-2,262
1036,5	-1,919
1036,9	-0,833
1037,4	3,11
1037,8	-5,09
1038,2	-1,09
1038,6	-4,348
1039	5,71
1039,4	15,795
1039,8	10,024
1040,3	6,852
1040,7	11,281
1041,1	12,338
1041,5	10,681
1041,9	4,738
1042,3	-6,29
1042,7	-2,376
1043,2	-2,176
1043,6	-4,119
1044	-7,748
1044,4	-9,976
1044,8	-7,919
1045,2	-5,576
1045,6	-4,49
1046,1	-1,262
1046,5	-2,29
1046,9	-1,576
1047,3	-1,262
1047,7	-2,919
1048,1	-2,205
1048,5	-0,462
1049	0,395
1049,4	4,995
1049,8	6,052
1050,2	9,995
1050,6	13,624
1051	13,538
1051,4	14,795
1051,9	11,567
1052,3	19,195
1052,7	15,967
1053,1	14,424
1053,5	17,852
1053,9	18,11
1054,3	14,481
1054,8	21,395
1055,2	14,31
1055,6	17,081
1056	15,738
1056,4	8,824
1056,8	9,167
1057,2	7,452
1057,6	-3,69
1058,1	-6,576
1058,5	-9,176
1058,9	-7,49
1059,3	-3,662
1059,7	-6,548
1060,1	-4,062
1060,5	1,281
1061	3,252
1061,4	8,881
1061,8	8,624
1062,2	6,224
1062,6	8,224
1063	7,51
1063,4	7,395
1063,8	6,51
1064,3	-2,29
1064,7	-3,805
1065,1	-4,033
1065,5	-5,262
1065,9	-5,405
1066,3	-7,262
1066,7	-8,862
1067,1	-6,062
1067,6	-0,833
1068	-2,29
1068,4	-1,176
1068,8	1,024
1069,2	3,91
1069,6	6,595
1070	9,338
1070,4	4,081
1070,9	4,167
1071,3	3,367
1071,7	-3,948
1072,1	-5,805
1072,5	-7,176
1072,9	-12,405
1073,3	-8,919
1073,7	-8,005
1074,2	-4,576
1074,6	3,881
1075	2,881
1075,4	1,71
1075,8	8,51
1076,2	3,31
1076,6	4,881
1077	-0,49
1077,5	-3,719
1077,9	-6,405
1078,3	-4,948
1078,7	-9,633
1079,1	-6,776
1079,5	-6,233
1079,9	-2,605
1080,3	-2,176
1080,7	2,167
1081,2	6,652
1081,6	7,452
1082	3,11
1082,4	3,138
1082,8	2,652
1083,2	4,967
1083,6	8,681
1084	4,11
1084,5	5,681
1084,9	2,367
1085,3	-2,319
1085,7	-0,319
1086,1	-3,176
1086,5	-4,833
1086,9	-2,748
1087,3	-2,062
1087,7	6,024
1088,2	9,652
1088,6	7,938
1089	7,567
1089,4	4,652
1089,8	6,681
1090,2	3,595
1090,6	1,995
1091	0,167
1091,4	2,91
1091,9	6,881
1092,3	8,595
1092,7	6,167
1093,1	8,31
1093,5	7,967
1093,9	11,567
1094,3	13,967
1094,7	9,681
1095,1	10,195
1095,5	8,624
1096	8,138
1096,4	10,852
1096,8	8,652
1097,2	5,052
1097,6	7,738
1098	9,338
1098,4	14,167
1098,8	14,31
1099,2	15,71
1099,6	13,395
1100,1	12,652
1100,5	7,995
1100,9	7,481
1101,3	2,967
1101,7	5,167
1102,1	2,71
1102,5	5,91
1102,9	5,481
1103,3	13,51
1103,7	11,624
1104,2	12,281
1104,6	8,91
1105	6,081
1105,4	5,281
1105,8	3,938
1106,2	-1,233
1106,6	-1,09
1107	-1,805
1107,4	-0,767
1107,8	1,567
1108,3	0,267
