Data from Subt2_119.txt Node
Date: Sat Aug 26 18:22:58 MSK 2023
User: vat
Spectrometer: MAYP114033
Trigger mode: 0
Integration Time (sec): 1,000000E0
Scans to average: 5
Electric dark correction enabled: true
Nonlinearity correction enabled: false
Boxcar width: 3
XAxis mode: Wavelengths
Number of Pixels in Spectrum: 2068
>>>>>Begin Spectral Data<<<<<
199,4	0,2
199,9	2,8
200,4	1,133
200,8	-1,114
201,3	-3,943
201,8	-2,657
202,2	-6,314
202,7	-2,886
203,2	-6,486
203,6	-5,057
204,1	-5,771
204,6	-3,6
205	-3,914
205,5	-0,514
206	-5,086
206,4	-3,6
206,9	-4,714
207,4	-1,143
207,8	0,371
208,3	-0,457
208,8	-3,457
209,2	0,971
209,7	3,057
210,2	4,4
210,6	1,829
211,1	5,6
211,5	1
212	2,171
212,5	-1,429
212,9	-2,143
213,4	-2,543
213,9	-1,171
214,3	-4,029
214,8	2,229
215,3	-0,2
215,7	4,229
216,2	8,086
216,7	10,2
217,1	8,857
217,6	12,4
218,1	10,057
218,5	11,486
219	0,371
219,5	-1,543
219,9	-6,943
220,4	-0,971
220,9	-8,371
221,3	-8,914
221,8	-6,829
222,3	1,6
222,7	-1,486
223,2	2,343
223,6	-1,543
224,1	-0,2
224,6	5,714
225	5,943
225,5	4,543
226	5,857
226,4	5,8
226,9	6
227,4	5,229
227,8	-4,657
228,3	-7,143
228,8	-11,514
229,2	-10,543
229,7	-12,257
230,2	-9,029
230,6	-4,4
231,1	2,8
231,5	6,086
232	13,2
232,5	6,743
232,9	12,371
233,4	9,429
233,9	4,771
234,3	3,057
234,8	2,114
235,3	-0,8
235,7	3,371
236,2	-1,371
236,7	-2,029
237,1	3,4
237,6	2,114
238,1	1
238,5	-2,914
239	-4
239,4	-3,429
239,9	-4,743
240,4	-8,171
240,8	-4,229
241,3	-4,286
241,8	-1,171
242,2	2,086
242,7	-0,8
243,2	-1,8
243,6	-3,371
244,1	-1,914
244,6	-1,457
245	-0,057
245,5	-0,171
245,9	-0,857
246,4	3
246,9	4,971
247,3	-1,514
247,8	2,657
248,3	6,6
248,7	5,457
249,2	9,657
249,7	9,029
250,1	9,057
250,6	9,771
251	9,257
251,5	1,886
252	0,943
252,4	0,629
252,9	-3,086
253,4	-8,857
253,8	-11,286
254,3	-12,343
254,8	-7,314
255,2	-10,714
255,7	-14,086
256,1	-11,514
256,6	-7,886
257,1	-5,057
257,5	-10
258	-12,371
258,5	-9,543
258,9	-9,286
259,4	-9,4
259,9	-8,6
260,3	-10,4
260,8	-10,8
261,2	-13,029
261,7	-10,914
262,2	-12,086
262,6	-12,943
263,1	-10,714
263,6	-6,514
264	0,029
264,5	7,571
264,9	6,057
265,4	8,457
265,9	2,686
266,3	2,629
266,8	2,886
267,3	0,2
267,7	-7,771
268,2	-8,257
268,7	-3,514
269,1	1,086
269,6	-1,8
270	-0,4
270,5	-3,229
271	3,171
271,4	2,514
271,9	-5,943
272,4	0,514
272,8	3,971
273,3	-3,4
273,7	0,286
274,2	-1,6
274,7	3,714
275,1	10,886
275,6	5,114
276,1	2,743
276,5	10,229
277	10,486
277,4	9,057
277,9	7,771
278,4	9,457
278,8	12,2
279,3	16,057
279,8	14,8
280,2	15,057
280,7	19,914
281,1	16,714
281,6	10,257
282,1	10,086
282,5	6,914
283	3,6
283,4	3,914
283,9	1,257
284,4	5,857
284,8	8,086
285,3	4,229
285,8	5,114
286,2	2,486
286,7	0,971
287,1	-5,171
287,6	-11,086
288,1	-15,429
288,5	-9,543
289	-12,571
289,5	-7,714
289,9	-9,971
290,4	-6,457
290,8	-0,514
291,3	1,371
291,8	0,314
292,2	3,286
292,7	7,857
293,1	8,457
293,6	12,829
294,1	8,571
294,5	9,686
295	10,086
295,5	5,886
295,9	3,286
296,4	2,514
296,8	-3,914
297,3	-1,571
297,8	-4,914
298,2	-7,257
298,7	-2,229
299,1	-2,343
299,6	-2,314
300,1	0,343
300,5	0,971
301	4,657
301,5	7,6
301,9	2,371
302,4	-0,629
302,8	2,571
303,3	2,2
303,8	-4,457
304,2	-2,286
304,7	-5,971
305,1	-10
305,6	-6,114
306,1	-2,6
306,5	-0,114
307	10,171
307,4	9,2
307,9	10,514
308,4	16,771
308,8	9,971
309,3	4,343
309,8	-0,343
310,2	-2,371
310,7	-2,857
311,1	-4,4
311,6	-1,886
312,1	4,314
312,5	9,057
313	13,314
313,4	6,4
313,9	9,571
314,4	11,171
314,8	6,086
315,3	3,571
315,7	-1,4
316,2	-3,571
316,7	-3,829
317,1	-2,229
317,6	-3,714
318	4
318,5	1,771
319	2,429
319,4	1,543
319,9	10,857
320,3	9,4
320,8	5,771
321,3	0,943
321,7	4,943
322,2	2,857
322,6	7,743
323,1	0
323,6	-4,171
324	-1,057
324,5	1,114
324,9	4,029
325,4	8,171
325,9	5,457
326,3	8,971
326,8	10,771
327,2	9,914
327,7	6,943
328,2	4,086
328,6	8,229
329,1	4,4
329,5	5,543
330	3,029
330,5	8,286
330,9	8,743
331,4	6,429
331,8	-0,229
332,3	8,314
332,8	10,571
333,2	15,114
333,7	13,2
334,1	16,686
334,6	14,514
335,1	10,314
335,5	4
336	-2,886
336,4	-2
336,9	1,257
337,4	2,057
337,8	4,914
338,3	12,371
338,7	15,371
339,2	15,029
339,7	12,429
340,1	8,543
340,6	4,8
341	1,743
341,5	-0,143
342	-2,629
342,4	-4,743
342,9	-3,371
343,3	-5,057
343,8	-4,486
344,2	-1,486
344,7	2,171
345,2	2,057
345,6	7,429
346,1	9,371
346,5	8,2
347	6,057
347,5	5,371
347,9	3,086
348,4	3,543
348,8	2,2
349,3	1,429
349,8	5,714
350,2	16,371
350,7	12,514
351,1	12,086
351,6	15,257
352	14,457
352,5	15,657
353	19,314
353,4	16,086
353,9	27,686
354,3	35,229
354,8	42,4
355,3	59,371
355,7	72,571
356,2	83,171
356,6	102,286
357,1	121,114
357,5	148,857
358	175,514
358,5	200,886
358,9	234,057
359,4	278,743
359,8	318,286
360,3	365,514
360,8	407,057
361,2	466,314
361,7	529,229
362,1	596,371
362,6	665,886
363	746,771
363,5	832,571
364	930,971
364,4	1017,343
364,9	1109,486
365,3	1202,286
365,8	1289,543
366,3	1367,143
366,7	1439,514
367,2	1504,229
367,6	1557,486
368,1	1601,486
368,5	1625,057
369	1640,657
369,5	1642,571
369,9	1633,429
370,4	1603,429
370,8	1569,4
371,3	1521,2
371,7	1469,686
372,2	1402,286
372,7	1340,114
373,1	1265,2
373,6	1191,657
374	1124,6
374,5	1049,657
374,9	978,2
375,4	912,257
375,9	842,886
376,3	781,257
376,8	720,686
377,2	658,743
377,7	603,714
378,2	549,686
378,6	503,171
379,1	461,229
379,5	420,371
380	387,543
380,4	350,343
380,9	322
381,4	292,657
381,8	272,114
382,3	252,486
382,7	234,943
383,2	215,543
383,6	201,343
384,1	188,886
384,6	183,457
385	168,857
385,5	157,571
385,9	148,029
386,4	137,629
386,8	130,943
387,3	121,171
387,7	114,057
388,2	105,429
388,7	97,829
389,1	94
389,6	89,686
390	84,571
390,5	82,457
390,9	77,257
391,4	78,429
391,9	74,057
392,3	70,257
392,8	67,314
393,2	59,743
393,7	56,371
394,1	49,314
394,6	42,257
395,1	40,429
395,5	32,657
396	34,657
396,4	37,057
396,9	37,057
397,3	42,429
397,8	47,486
398,2	46,8
398,7	50,886
399,2	47,4
399,6	46,343
400,1	44,6
400,5	39,257
401	36,057
401,4	32,429
401,9	29,314
402,4	29,514
402,8	27,286
403,3	32,4
403,7	33,686
404,2	39,286
404,6	47,829
405,1	51,829
405,5	52,057
406	55,114
406,5	50,629
406,9	55,429
407,4	53,457
407,8	54,486
408,3	56,857
408,7	59,171
409,2	65,971
409,6	75,257
410,1	78,857
410,6	86,914
411	93,771
411,5	102
411,9	112,4
412,4	122,114
412,8	130,571
413,3	139,086
413,7	147,114
414,2	153,629
414,7	167,086
415,1	181,829
415,6	193,429
416	203,429
416,5	214,543
416,9	224,029
417,4	237,114
417,8	251,8
418,3	266,2
418,8	278,343
419,2	291
419,7	310,171
420,1	326,543
420,6	346,714
421	358,8
421,5	378,686
421,9	398,086
422,4	422,429
422,8	440,886
423,3	462,886
423,8	480,829
424,2	502,914
424,7	524,886
425,1	554,771
425,6	582,571
426	613,743
426,5	649,6
426,9	686,629
427,4	722,686
427,9	754,914
428,3	796,771
428,8	835,2
429,2	881,571
429,7	921,971
430,1	971,114
430,6	1024,914
431	1076,314
431,5	1125,8
431,9	1174,8
432,4	1231,686
432,8	1303,829
433,3	1368,314
433,8	1430,829
434,2	1503,6
434,7	1583,771
435,1	1670,429
435,6	1755,371
436	1838,629
436,5	1925,286
436,9	2016,914
437,4	2116,571
437,8	2213,571
438,3	2322
438,8	2432,2
439,2	2539,6
439,7	2658,486
440,1	2784,743
440,6	2912,371
441	3040,514
441,5	3170,657
441,9	3308,714
442,4	3453,914
442,8	3600,2
443,3	3756,8
443,7	3915,8
444,2	4083,343
444,7	4252,143
445,1	4428,829
445,6	4602,943
446	4791,143
446,5	4971,8
446,9	5152,886
447,4	5346,6
447,8	5557,086
448,3	5759,971
448,7	5979,543
449,2	6192,486
449,6	6414,629
450,1	6645
450,6	6880,429
451	7101,143
451,5	7339,143
451,9	7576,629
452,4	7827,8
452,8	8075,343
453,3	8327,057
453,7	8577,143
454,2	8849,543
454,6	9112,057
455,1	9389,886
455,5	9654,4
456	9941,257
456,4	10221,2
456,9	10510,886
457,3	10794,829
457,8	11082,629
458,3	11367,8
458,7	11679,886
459,2	11971,514
459,6	12278,057
460,1	12575,086
460,5	12870,143
461	13182,571
461,4	13487,514
461,9	13773,029
462,3	14071,886
462,8	14376,771
463,2	14681,714
463,7	14991
464,1	15288,286
464,6	15597,6
465	15915,629
465,5	16226,886
466	16524,743
466,4	16822,2
466,9	17125,171
467,3	17422,657
467,8	17716,429
468,2	17998,771
468,7	18284,286
469,1	18577,543
469,6	18869,2
470	19156,743
470,5	19430,629
470,9	19697,743
471,4	19979,829
471,8	20252,514
472,3	20525,714
472,7	20789,629
473,2	21046,314
473,6	21304,486
474,1	21565,657
474,5	21804,8
475	22056,657
475,4	22286,714
475,9	22516,914
476,4	22723,486
476,8	22940,914
477,3	23143,429
477,7	23347,114
478,2	23525
478,6	23717,886
479,1	23884,6
479,5	24073,886
480	24235,514
480,4	24400,571
480,9	24546,886
481,3	24689,629
481,8	24817,629
482,2	24960,029
482,7	25084,971
483,1	25210,114
483,6	25320,771
484	25416,971
484,5	25510,286
484,9	25586,8
485,4	25667,543
485,8	25719,543
486,3	25778,514
486,7	25825,229
487,2	25874,514
487,6	25916,257
488,1	25946,343
488,5	25953,829
489	25974,029
489,4	25978,114
489,9	25971,286
490,4	25959,8
490,8	25946,743
491,3	25926,257
491,7	25895,457
492,2	25863,029
492,6	25826,4
493,1	25770,971
493,5	25720,257
494	25654,314
494,4	25591,829
494,9	25534,857
495,3	25468,686
495,8	25396,286
496,2	25318,086
496,7	25221,514
497,1	25139,429
497,6	25050,429
498	24952,429
498,5	24838,029
498,9	24714,771
499,4	24606,771
499,8	24501,086
500,3	24384,371
500,7	24252,8
501,2	24114,543
501,6	23977,829
502,1	23832,629
502,5	23708,514
503	23576,971
503,4	23441,086
503,9	23310,857
504,3	23176,457
504,8	23032,257
505,2	22901,286
505,7	22737,029
506,1	22585,6
506,6	22403,171
507	22228,143
507,5	22061,171
507,9	21886,514
508,4	21718,571
508,8	21549,229
509,3	21359,086
509,7	21181,286
510,2	21011,257
510,6	20837,543
511,1	20666,971
511,5	20476,8
512	20287
512,4	20115,886
512,9	19950,771
513,3	19772,343
513,8	19582,2
514,2	19401,657
514,7	19218,8
515,1	19038,343
515,6	18860,429
516	18674,371
516,5	18471,457
516,9	18287,886
517,4	18092,8
517,8	17907,543
518,3	17720,657
518,7	17521,029
519,2	17326,314
519,6	17151,971
520,1	16970,371
520,5	16786,943
521	16596,229
521,4	16416,543
521,9	16240,171
522,3	16074,371
522,8	15902,371
523,2	15727,514
523,7	15569,829
524,1	15413,686
524,6	15246,314
525	15079,057
525,5	14905,6
525,9	14737,086
526,4	14562,257
526,8	14387,971
527,3	14216,314
527,7	14057,171
528,2	13889,343
528,6	13733,114
529,1	13577,6
529,5	13424,4
530	13284,829
530,4	13139,029
530,9	12983,6
531,3	12847,543
531,8	12699,086
532,2	12556,457
532,6	12413,971
533,1	12263,343
533,5	12122,543
534	11991,2
534,4	11851,914
534,9	11727,943
535,3	11589,057
535,8	11456,543
536,2	11324,743
536,7	11201,657
537,1	11073,371
537,6	10945,886
538	10816,229
538,5	10699,771
538,9	10581,257
539,4	10460,343
539,8	10338,857
540,3	10221
540,7	10102,514
541,2	9980,029
541,6	9859,229
542,1	9753,457
542,5	9657,943
543	9549,657
543,4	9443,286
543,9	9349,914
544,3	9258,743
544,8	9170,143
545,2	9066,4
545,7	8964,914
546,1	8870,943
546,5	8777,057
547	8682,143
547,4	8580
547,9	8476,457
548,3	8389,743
548,8	8292,743
549,2	8203,886
549,7	8114,2
550,1	8024,429
550,6	7944,914
551	7868,314
551,5	7781,343
551,9	7701,314
552,4	7621,057
552,8	7547,914
553,3	7467,8
553,7	7391,743
554,2	7313,829
554,6	7242,514
555,1	7174,114
555,5	7103,857
555,9	7032,2
556,4	6962,314
556,8	6890,143
557,3	6825,857
557,7	6757,886
558,2	6690,943
558,6	6631,8
559,1	6561,029
559,5	6501,086
560	6442,171
560,4	6386,086
560,9	6331,829
561,3	6271,8
561,8	6208,829
562,2	6154,571
562,7	6095,886
563,1	6043,229
563,6	5976,286
564	5913,286
564,4	5856,514
564,9	5797,171
565,3	5752,857
565,8	5702,8
566,2	5648,743
566,7	5602,343
567,1	5554,257
567,6	5507,029
568	5458,971
568,5	5403,857
568,9	5348,086
569,4	5300,857
569,8	5254,829
570,3	5203,229
570,7	5147,8
571,1	5097,8
571,6	5059,457
572	5020,514
572,5	4970,8
572,9	4923,257
573,4	4884,229
573,8	4853,371
574,3	4816,486
574,7	4759,314
575,2	4718,686
575,6	4685,886
576,1	4649,229
576,5	4615,229
576,9	4569,886
577,4	4530,257
577,8	4495
578,3	4453,571
578,7	4412,914
579,2	4378,029
579,6	4329,571
580,1	4296,686
580,5	4265,429
581	4240,6
581,4	4207,371
581,9	4169,114
582,3	4126,371
582,7	4101,4
583,2	4061,971
583,6	4027,943
584,1	3985,114
584,5	3950,2
585	3921,771
585,4	3885
585,9	3846,943
586,3	3818,371
586,8	3782,143
587,2	3753,371
587,6	3730,914
588,1	3700,086
588,5	3678,771
589	3650,086
589,4	3618,743
589,9	3588,657
590,3	3559,571
590,8	3526,914
591,2	3502,257
591,7	3480,343
592,1	3458,371
592,5	3439,343
593	3416,171
593,4	3391,486
593,9	3366,714
594,3	3342,686
594,8	3315,571
595,2	3294,229
595,7	3269,714
596,1	3251,086
596,6	3233,829
597	3213,686
597,4	3192,657
597,9	3170,486
598,3	3147
598,8	3122,229
599,2	3099,971
599,7	3072,057
600,1	3040,886
600,6	3015,771
601	2995,4
601,4	2979,686
601,9	2964,286
602,3	2938,914
602,8	2923,457
603,2	2911,914
603,7	2890,514
604,1	2867,457
604,6	2836,971
605	2811,086
605,4	2795,257
605,9	2770,714
606,3	2743,829
606,8	2723,171
607,2	2706,257
607,7	2689,8
608,1	2676,829
608,6	2657,514
609	2651,429
609,4	2636,257
609,9	2624,029
610,3	2607,371
610,8	2588,714
611,2	2562,257
611,7	2545,6
612,1	2521,686
612,6	2509,229
613	2492,371
613,4	2471,257
613,9	2454,4
614,3	2442,457
614,8	2421,314
615,2	2398,943
615,7	2384
616,1	2368
616,6	2350,571
617	2335,314
617,4	2320,6
617,9	2310,029
618,3	2302,914
618,8	2286,057
619,2	2266,543
619,7	2255,943
620,1	2234,743
620,5	2224,886
621	2204,4
621,4	2184,457
621,9	2170,743
622,3	2157,714
622,8	2140,029
623,2	2128,229
623,6	2110,6
624,1	2100
624,5	2086,686
625	2069,343
625,4	2050,286
625,9	2035,686
626,3	2022,886
626,8	2003,543
627,2	1990,029
627,6	1967,257
628,1	1956,686
628,5	1951,457
629	1932,2
629,4	1918,457
629,9	1907,429
630,3	1885,257
630,7	1873,171
631,2	1855,486
631,6	1833,257
632,1	1824,486
632,5	1809,743
633	1794,029
633,4	1783,343
633,8	1774,771
634,3	1763,029
634,7	1750,943
635,2	1733,057
635,6	1719,314
636,1	1707,829
636,5	1697,543
636,9	1680,943
637,4	1662,143
637,8	1648,571
638,3	1639,4
638,7	1629,743
639,2	1616,686
639,6	1602,886
640	1596,143
640,5	1596,171
640,9	1591,286
641,4	1581,6
641,8	1574,229
642,2	1564,171
642,7	1557,171
643,1	1549,686
643,6	1532,143
644	1516,229
644,5	1504,714
644,9	1494,886
645,3	1485,829
645,8	1473,114
646,2	1459,914
646,7	1450,057
647,1	1439,343
647,6	1433,229
648	1423,6
648,4	1413,486
648,9	1409,114
649,3	1398,857
649,8	1389,486
650,2	1385,971
650,6	1373,2
651,1	1362,686
651,5	1357,2
652	1341,229
652,4	1332,857
652,9	1327,486
653,3	1312,486
653,7	1306,629
654,2	1299,771
654,6	1285,343
655,1	1283,457
655,5	1279,286
655,9	1269,429
656,4	1264,543
656,8	1255,714
657,3	1246,743
657,7	1242,286
658,2	1229,886
658,6	1216,857
659	1210
659,5	1195,714
659,9	1185,429
660,4	1177,886
660,8	1165,914
661,2	1157,743
661,7	1147,657
662,1	1136
662,6	1131,343
663	1127,429
663,4	1112,657
663,9	1104,971
664,3	1097,429
664,8	1087,543
665,2	1079,343
665,6	1071,857
666,1	1061,914
666,5	1057,086
667	1051,286
667,4	1044,286
667,9	1039,057
668,3	1028,971
668,7	1018,4
669,2	1013,257
669,6	1004,714
670,1	996,571
670,5	987,6
670,9	981,143
671,4	977,743
671,8	972,8
672,3	966
672,7	958,829
673,1	950,457
673,6	943,143
674	936,143
674,5	924,857
674,9	915,8
675,3	906,257
675,8	904,029
676,2	893,714
676,7	882,486
677,1	881,371
677,5	876,943
678	873,714
678,4	866,343
678,9	858,771
679,3	855,829
679,7	854,6
680,2	839,571
680,6	829,829
681,1	822,114
681,5	817,029
681,9	807,857
682,4	805,8
682,8	804,057
683,3	805,543
683,7	805,743
684,1	803,343
684,6	795,429
685	790,886
685,5	781,086
685,9	770,286
686,3	756,143
686,8	746,771
687,2	739,429
687,7	732,8
688,1	724,2
688,5	718,486
689	715,2
689,4	713,114
689,9	707,2
690,3	699,286
690,7	694,971
691,2	696,257
691,6	692,714
692	687,457
692,5	685,171
692,9	683,714
693,4	680,6
693,8	680,371
694,2	672,257
694,7	665,257
695,1	660,543
695,6	654,971
696	647,971
696,4	645,171
696,9	633,971
697,3	626,714
697,8	623,286
698,2	614,943
698,6	613,743
699,1	611,771
699,5	607,657
699,9	604,771
700,4	601,086
700,8	599,371
701,3	599,829
701,7	591,657
702,1	586,943
702,6	578,257
703	580,771
703,5	578,686
703,9	574,057
704,3	572,457
704,8	566
705,2	561,371
705,6	559,371
706,1	553,457
706,5	549,829
707	544,8
707,4	536,629
707,8	532,286
708,3	531,771
708,7	531,857
709,2	525,8
709,6	521,971
710	519,886
710,5	512,714
710,9	512,029
711,3	502,914
711,8	498,371
712,2	497,229
712,7	489,143
713,1	483,914
713,5	487,6
714	488,743
714,4	483,086
714,8	478
715,3	468,771
715,7	466,286
716,2	458,543
716,6	452,8
717	440,8
717,5	442,171
717,9	439,743
718,3	440,057
718,8	442,343
719,2	443,486
719,7	438,686
720,1	439,314
720,5	434,2
721	430,943
721,4	428,771
721,8	422,686
722,3	415,286
722,7	413,429
723,2	408,543
723,6	405,286
724	396,543
724,5	388,629
724,9	390,314
725,3	391,686
725,8	386,857
726,2	385,314
726,7	378,914
727,1	378,971
727,5	379,714
728	370,171
728,4	363,829
728,8	361,314
729,3	354,714
729,7	354,971
730,1	355,257
730,6	349
731	347,114
731,5	348,114
731,9	345,314
732,3	342,971
732,8	342,257
733,2	339,714
733,6	339,457
734,1	338,114
734,5	335,686
734,9	338,571
735,4	342,057
735,8	336,514
736,3	336,943
736,7	334,257
737,1	331,886
737,6	327,714
738	318,629
738,4	312,629
738,9	313,629
739,3	307,829
739,7	303,743
740,2	302,343
740,6	303,971
741,1	306,543
741,5	303,371
741,9	302,686
742,4	304,743
742,8	307,543
743,2	305,343
743,7	299,771
744,1	294,2
744,5	290,257
745	284,171
745,4	277,486
745,8	278,514
746,3	278,514
746,7	273
747,2	273,6
747,6	276,971
748	280,686
748,5	282,343
748,9	274,714
749,3	270,457
749,8	274,171
750,2	271,086
750,6	266,857
751,1	264,257
751,5	262,057
751,9	261,429
752,4	262,8
752,8	262,057
753,3	260,571
753,7	266,486
754,1	262,829
754,6	257,714
755	255,057
755,4	250,229
755,9	249,171
756,3	245,257
756,7	237,514
757,2	235,314
757,6	233,514
758	232,171
758,5	232,086
758,9	226,257
759,3	226,229
759,8	221,429
760,2	220,686
760,6	218,2
761,1	213,543
761,5	213,114
761,9	214,257
762,4	211,286
762,8	213,914
763,3	213,229
763,7	213,029
764,1	210,257
764,6	209,914
765	213,029
765,4	215,657
765,9	217,514
766,3	216,4
766,7	215,2
767,2	216,229
767,6	216,829
768	211,143
768,5	206,486
768,9	199,714
769,3	198,8
769,8	197
770,2	201,514
770,6	195,914
771,1	193,629
771,5	194,971
771,9	198,457
772,4	194,8
772,8	193,171
773,2	190,686
773,7	187,314
774,1	187,514
774,5	177,286
775	173,857
775,4	173,486
775,8	171,457
776,3	172,314
776,7	169,571
777,1	163,229
777,6	169,229
778	172,914
778,4	170,686
778,9	173,714
779,3	167,543
779,7	168,943
780,2	173,943
780,6	170,257
781	162,8
781,5	158,514
781,9	158,514
782,3	155,029
782,8	158
783,2	152,2
783,6	157,771
784,1	157,914
784,5	157,743
784,9	154,514
785,4	159,229
785,8	155,657
786,2	155,314
786,7	154,971
787,1	147,571
787,5	151,743
788	148,543
788,4	149,286
788,8	146,829
789,3	147,686
789,7	145,2
790,1	150,514
790,6	149,6
791	146,029
791,4	144,457
791,9	142,057
792,3	137,629
792,7	137,343
793,2	134,114
793,6	132,2
794	138,343
794,5	132,4
794,9	135,057
795,3	139,2
795,8	138,886
796,2	140,486
796,6	143,086
797,1	138,057
797,5	137,4
797,9	135,771
798,4	132
798,8	126,743
799,2	123,486
799,7	119,371
800,1	117,857
800,5	121
801	120,457
801,4	118,143
801,8	116,514
802,2	117,286
802,7	115,571
803,1	116,257
803,5	114,114
804	112,257
804,4	116,486
804,8	118,514
805,3	114,314
805,7	114,086
806,1	114,171
806,6	117,257
807	114,771
807,4	110,343
807,9	105,2
808,3	109,286
808,7	105,771
809,2	108,486
809,6	106
810	107,029
810,4	105,086
810,9	107,971
811,3	110,114
811,7	109,829
812,2	108,8
812,6	105,257
813	105
813,5	108,829
813,9	107,4
814,3	101,771
814,8	103,343
815,2	96,943
815,6	94,743
816,1	96,8
816,5	95,714
816,9	95,343
817,3	94,971
817,8	100,314
818,2	100,857
818,6	99,171
819,1	92,629
819,5	88,657
819,9	88,943
820,4	91,343
820,8	82,714
821,2	78,886
821,7	82,429
822,1	89,771
822,5	95,629
822,9	92,971
823,4	89,971
823,8	94,2
824,2	96,971
824,7	89,571
825,1	81,2
825,5	75,571
826	71,314
826,4	73
826,8	67,543
827,3	68,914
827,7	70,314
828,1	73,514
828,5	74,857
829	76,343
829,4	72,114
829,8	70,086
830,3	67,543
830,7	66,886
831,1	68,771
831,6	66,914
832	68,314
832,4	67,114
832,8	68,686
833,3	68,743
833,7	70,829
834,1	66,743
834,6	65,171
835	66,2
835,4	68,343
835,8	63,314
836,3	60,8
836,7	62,114
837,1	57,057
837,6	58,429
838	54,343
838,4	51,743
838,9	52,857
839,3	52,714
839,7	48,771
840,1	48,429
840,6	47,571
841	47,886
841,4	46,086
841,9	49,371
842,3	47,029
842,7	47,171
843,1	46,857
843,6	44,657
844	48,943
844,4	54,857
844,9	57,8
845,3	63,886
845,7	65,771
846,2	64,286
846,6	62,029
847	61,714
847,4	58,429
847,9	54,171
848,3	49,029
848,7	46
849,2	48,314
849,6	45,571
850	43,657
850,4	44,714
850,9	46,057
851,3	45,714
851,7	47,8
852,2	48
852,6	56,829
853	57,714
853,4	58,829
853,9	53,657
854,3	53,543
854,7	55,143
855,2	57,171
855,6	49,171
856	46,886
856,4	42,457
856,9	44,229
857,3	47,314
857,7	45,114
858,2	47,571
858,6	50,543
859	49,229
859,4	51,2
859,9	51,114
860,3	44,543
860,7	44,543
861,1	39,971
861,6	39,057
862	39,771
862,4	35,314
862,9	32,229
863,3	35,429
863,7	35,057
864,1	35,2
864,6	36,114
865	33,657
865,4	35,857
865,9	41,686
866,3	34,914
866,7	30,114
867,1	28,371
867,6	28,286
868	27,114
868,4	25,971
868,8	24,943
869,3	31,571
869,7	42,229
870,1	39,886
870,6	36,971
871	21,571
871,4	24,886
871,8	19,171
872,3	15,8
872,7	7,086
873,1	8,4
873,5	7,657
874	22,114
874,4	21,314
874,8	20,286
875,3	20,457
875,7	17,229
876,1	17,714
876,5	22,029
877	22,857
877,4	17,143
877,8	21,686
878,2	24,686
878,7	28,914
879,1	29,857
879,5	29,4
879,9	33,629
880,4	33,229
880,8	32,743
881,2	34,029
881,7	30,943
882,1	32,743
882,5	29,829
882,9	23,829
883,4	26,686
883,8	24,943
884,2	20,743
884,6	20,571
885,1	19,8
885,5	20,4
885,9	23,086
886,3	23,257
886,8	23,657
887,2	21,057
887,6	20,886
888	17,714
888,5	17,857
888,9	17,914
889,3	14,429
889,8	15,343
890,2	19,029
890,6	15,629
891	17,486
891,5	17,057
891,9	16,486
892,3	18,486
892,7	17,943
893,2	15,257
893,6	20,657
894	24,229
894,4	20,686
894,9	20,771
895,3	16,629
895,7	16,429
896,1	17,371
896,6	13,314
897	7,571
897,4	15,886
897,8	15,771
898,3	19,943
898,7	15,514
899,1	13,971
899,5	16,543
900	12,771
900,4	6,457
900,8	5,114
901,2	1,371
901,7	2,657
902,1	4,657
902,5	9,286
902,9	12,314
903,4	13,057
903,8	15,029
904,2	16,343
904,6	19,514
905,1	20,543
905,5	17,543
905,9	17,943
906,3	20,286
906,8	19,714
907,2	22,229
907,6	22,829
908	23,714
908,5	22,571
908,9	17,6
909,3	15,4
909,7	15,829
910,2	13,943
910,6	18,029
911	12,314
911,4	13,143
911,9	15,143
912,3	11,914
912,7	12,629
913,1	13,4
913,6	3,629
914	9,771
914,4	4,543
914,8	5,114
915,3	8,714
915,7	6,886
916,1	6,4
916,5	12,486
916,9	8,086
917,4	9,771
917,8	11,171
918,2	8,029
918,6	5,429
919,1	6,6
919,5	5,857
919,9	6,6
920,3	8,486
920,8	9,886
921,2	9,314
921,6	8,429
922	7,714
922,5	1,8
922,9	2,114
923,3	-1,657
923,7	-1,743
924,2	-0,514
924,6	0,257
925	1,029
925,4	6,086
925,8	8,114
926,3	8,971
926,7	6,629
927,1	5,286
927,5	7,629
928	2,6
928,4	0,743
928,8	-0,686
929,2	1,686
929,7	4,771
930,1	6,143
930,5	2,686
930,9	8,743
931,3	9,829
931,8	9,829
932,2	9,543
932,6	5,486
933	1,657
933,5	4,771
933,9	5,686
934,3	5,457
934,7	3,314
935,2	2,971
935,6	2,514
936	4,486
936,4	6
936,8	5,171
937,3	3,714
937,7	6,8
938,1	7,571
938,5	9,657
939	11,057
939,4	12,143
939,8	7,743
940,2	8,286
940,6	10,257
941,1	10,543
941,5	13,371
941,9	11,286
942,3	9,429
942,8	13,571
943,2	14,657
943,6	7,4
944	6,914
944,4	5
944,9	7,057
945,3	3,6
945,7	-2,543
946,1	-3,771
946,6	-1,457
947	-2,629
947,4	-3,343
947,8	-3,343
948,2	-6,057
948,7	-2,171
949,1	-2,486
949,5	0,457
949,9	0,486
950,3	2,686
950,8	-0,257
951,2	2,829
951,6	0,657
952	1,629
952,5	-1,314
952,9	-0,029
953,3	-1,829
953,7	-0,714
954,1	2,857
954,6	5,629
955	7,514
955,4	7,657
955,8	6,886
956,2	4,943
956,7	6,857
957,1	0,629
957,5	3,571
957,9	0,286
958,3	-0,686
958,8	0,171
959,2	2,257
959,6	3,429
960	5,714
960,5	1,886
960,9	6,571
961,3	4,686
961,7	0,771
962,1	0,314
962,6	0,4
963	1,143
963,4	0,829
963,8	-2,057
964,2	1
964,7	5,114
965,1	7,343
965,5	4,086
965,9	2,6
966,3	1,2
966,8	0,114
967,2	2,314
967,6	2,657
968	-3,971
968,4	-0,229
968,9	0,2
969,3	4,457
969,7	1,714
970,1	3,971
970,5	-1,371
971	6,457
971,4	1,771
971,8	3,571
972,2	3,686
972,6	2,343
973,1	-3,629
973,5	2,457
973,9	1,829
974,3	0,143
974,7	2,629
975,2	1,2
975,6	1,143
976	7,229
976,4	3,543
976,8	0,914
977,3	7,029
977,7	3,114
978,1	0,771
978,5	3,2
978,9	-4,114
979,4	-5,429
979,8	-9,971
980,2	-11,343
980,6	-12,4
981	-10,029
981,5	-8,114
981,9	-6,486
982,3	-5,629
982,7	0,343
983,1	-2,429
983,6	-0,457
984	-0,743
984,4	1,143
984,8	4,143
985,2	6,8
985,6	1,429
986,1	2,886
986,5	3,6
986,9	1,343
987,3	1,343
987,7	1,514
988,2	-1,886
988,6	4,714
989	2,114
989,4	1,657
989,8	3,4
990,3	0,371
990,7	-1,057
991,1	2,857
991,5	1,286
991,9	3,629
992,3	6,857
992,8	6,143
993,2	6,257
993,6	4,2
994	4,543
994,4	4,143
994,9	4,829
995,3	-2
995,7	-4,886
996,1	-2,486
996,5	-1,6
996,9	-8,057
997,4	-10,457
997,8	-13,371
998,2	-10,029
998,6	-12,143
999	-15,6
999,5	-12,286
999,9	-9,486
1000,3	-8,657
1000,7	-5,914
1001,1	-5,343
1001,5	-1,686
1002	5,429
1002,4	3,086
1002,8	2,6
1003,2	7,057
1003,6	10,171
1004	11,314
1004,5	9,2
1004,9	6,457
1005,3	4,457
1005,7	7,314
1006,1	0,971
1006,6	-0,229
1007	2,343
1007,4	2,514
1007,8	1,571
1008,2	1,314
1008,6	4,314
1009,1	8,514
1009,5	6,6
1009,9	5,2
1010,3	7,029
1010,7	5,114
1011,1	3,2
1011,6	-0,857
1012	1,114
1012,4	-1,143
1012,8	-3,229
1013,2	5,171
1013,6	9,114
1014,1	14,657
1014,5	17,343
1014,9	14,057
1015,3	16,143
1015,7	16,086
1016,1	6,914
1016,6	3,629
1017	3,029
1017,4	3,514
1017,8	5,114
1018,2	5,971
1018,6	1,314
1019,1	5,4
1019,5	3,629
1019,9	0,114
1020,3	0,743
1020,7	-0,229
1021,1	-2,4
1021,6	0,6
1022	-0,086
1022,4	2,4
1022,8	4,943
1023,2	1,629
1023,6	3,2
1024,1	13,371
1024,5	14,457
1024,9	10,114
1025,3	6
1025,7	3,943
1026,1	4,943
1026,6	4,343
1027	-7,229
1027,4	-4,143
1027,8	3,029
1028,2	7,4
1028,6	13,429
1029	13,114
1029,5	15,057
1029,9	16,8
1030,3	8,686
1030,7	3,4
1031,1	3,086
1031,5	-2,686
1032	-2,257
1032,4	-1,886
1032,8	-1,6
1033,2	2,943
1033,6	6,029
1034	4,4
1034,4	5,2
1034,9	6,486
1035,3	-0,543
1035,7	2,914
1036,1	0,657
1036,5	-2,829
1036,9	-3,343
1037,4	-1,2
1037,8	-8,143
1038,2	-1,943
1038,6	-2,2
1039	1,571
1039,4	5,743
1039,8	2,686
1040,3	5,714
1040,7	8,286
1041,1	4,171
1041,5	3,914
1041,9	1,914
1042,3	0,029
1042,7	8,143
1043,2	4,971
1043,6	2,714
1044	2,171
1044,4	-0,029
1044,8	5,543
1045,2	4,371
1045,6	-1,286
1046,1	-4,057
1046,5	-3,171
1046,9	-4,971
1047,3	-6,343
1047,7	-10,571
1048,1	-10,571
1048,5	-8,029
1049	-3,657
1049,4	2,057
1049,8	5,429
1050,2	7,143
1050,6	11,343
1051	11,8
1051,4	6,714
1051,9	4,914
1052,3	8,571
1052,7	9,829
1053,1	5,686
1053,5	2,543
1053,9	3,943
1054,3	7,4
1054,8	12,229
1055,2	9,686
1055,6	12,257
1056	18,771
1056,4	15,086
1056,8	9,143
1057,2	9,971
1057,6	3,114
1058,1	0,057
1058,5	-6,914
1058,9	-6,114
1059,3	-2,371
1059,7	1,371
1060,1	0,914
1060,5	2,229
1061	2,2
1061,4	2,314
1061,8	0,4
1062,2	0,514
1062,6	5,143
1063	8,971
1063,4	12,314
1063,8	11,971
1064,3	9,743
1064,7	9,086
1065,1	5,543
1065,5	-2,257
1065,9	-7,971
1066,3	-11,714
1066,7	-14,6
1067,1	-15,886
1067,6	-13,514
1068	-15,343
1068,4	-8,886
1068,8	0,514
1069,2	0,429
1069,6	4,4
1070	9,8
1070,4	7,114
1070,9	8,171
1071,3	1,429
1071,7	-9,171
1072,1	-9,857
1072,5	-13,114
1072,9	-11,229
1073,3	-8,343
1073,7	-5
1074,2	-3,257
1074,6	-0,4
1075	-1,8
1075,4	-1,029
1075,8	1,371
1076,2	2,143
1076,6	1,971
1077	5,371
1077,5	6,057
1077,9	6,6
1078,3	7,343
1078,7	5,2
1079,1	1,629
1079,5	-2,457
1079,9	-1,657
1080,3	-3,686
1080,7	-2,429
1081,2	1,029
1081,6	-2,086
1082	-1,314
1082,4	5,486
1082,8	5
1083,2	8,343
1083,6	9,314
1084	6,4
1084,5	9,686
1084,9	6,4
1085,3	0,171
1085,7	-1,8
1086,1	-2,943
1086,5	-5,143
1086,9	-2,086
1087,3	-2,6
1087,7	-2,857
1088,2	-2,714
1088,6	-1,457
1089	-4,971
1089,4	-3,857
1089,8	-6,8
1090,2	-13,6
1090,6	-11,686
1091	-6,286
1091,4	-3,914
1091,9	-0,486
1092,3	1,543
1092,7	1,2
1093,1	8,686
1093,5	9,514
1093,9	7,229
1094,3	8,343
1094,7	5,4
1095,1	9,029
1095,5	10
1096	5,771
1096,4	4,629
1096,8	4,914
1097,2	2,8
1097,6	11,543
1098	7,171
1098,4	8,143
1098,8	10,686
1099,2	16,971
1099,6	16,886
1100,1	11,114
1100,5	3,457
1100,9	2,8
1101,3	1,2
1101,7	1,971
1102,1	-5,057
1102,5	-3,886
1102,9	4,371
1103,3	5,629
1103,7	5,771
1104,2	4,629
1104,6	3,714
1105	2,429
1105,4	1,971
1105,8	-2,771
1106,2	-2,743
1106,6	-2,971
1107	-1,514
1107,4	-1,8
1107,8	2
1108,3	-0,65
