Data from Subt2_056.txt Node
Date: Sat Aug 26 16:30:49 MSK 2023
User: vat
Spectrometer: MAYP114033
Trigger mode: 0
Integration Time (sec): 1,000000E0
Scans to average: 5
Electric dark correction enabled: true
Nonlinearity correction enabled: false
Boxcar width: 3
XAxis mode: Wavelengths
Number of Pixels in Spectrum: 2068
>>>>>Begin Spectral Data<<<<<
199,4	-0,133
199,9	-0,913
200,4	-3,733
200,8	-0,948
201,3	-1,548
201,8	-2,748
202,2	-2,205
202,7	-2,319
203,2	-0,519
203,6	4,567
204,1	4,252
204,6	8,138
205	10,424
205,5	9,967
206	11,395
206,4	12,595
206,9	9,167
207,4	8,91
207,8	5,424
208,3	5,167
208,8	6,167
209,2	7,281
209,7	6,195
210,2	11,395
210,6	10,167
211,1	12,567
211,5	11,024
212	8,795
212,5	4,995
212,9	3,852
213,4	-0,605
213,9	-2,805
214,3	-0,148
214,8	3,595
215,3	7,795
215,7	8,195
216,2	11,652
216,7	12,452
217,1	14,052
217,6	9,995
218,1	6,824
218,5	5,767
219	15,11
219,5	13,281
219,9	12,824
220,4	11,624
220,9	13,881
221,3	12,424
221,8	5,624
222,3	-1,376
222,7	-3,09
223,2	1,024
223,6	2,938
224,1	0,938
224,6	4,795
225	6,738
225,5	9,138
226	6,795
226,4	5,252
226,9	1,024
227,4	0,91
227,8	1,51
228,3	6,852
228,8	1,624
229,2	6,652
229,7	3,824
230,2	11,367
230,6	9,024
231,1	7,452
231,5	6,681
232	15,338
232,5	11,167
232,9	11,738
233,4	9,138
233,9	9,967
234,3	10,567
234,8	8,795
235,3	4,195
235,7	10,052
236,2	7,481
236,7	6,71
237,1	6,595
237,6	6,995
238,1	6,852
238,5	6,338
239	-0,262
239,4	1,938
239,9	3,881
240,4	3,195
240,8	2,795
241,3	0,167
241,8	-0,719
242,2	-1,462
242,7	3,11
243,2	1,024
243,6	2,624
244,1	3,51
244,6	1,195
245	1,881
245,5	7,138
245,9	4,281
246,4	4,31
246,9	6,567
247,3	3,938
247,8	9,281
248,3	13,395
248,7	18,567
249,2	11,538
249,7	9,024
250,1	4,681
250,6	4,024
251	4,252
251,5	-1,433
252	-6,005
252,4	0,395
252,9	5,024
253,4	8,224
253,8	5,795
254,3	7,652
254,8	11,452
255,2	11,081
255,7	10,395
256,1	9,167
256,6	10,338
257,1	15,452
257,5	18,852
258	17,452
258,5	17,938
258,9	22,024
259,4	22,138
259,9	24,195
260,3	20,91
260,8	15,567
261,2	17,338
261,7	17,767
262,2	14,595
262,6	13,138
263,1	6,51
263,6	7,252
264	4,852
264,5	3,91
264,9	0,252
265,4	-0,09
265,9	-1,09
266,3	-0,29
266,8	0,738
267,3	5,681
267,7	6,31
268,2	5,652
268,7	5,224
269,1	4,395
269,6	8,681
270	9,881
270,5	9,252
271	6,824
271,4	2,567
271,9	4,71
272,4	10,167
272,8	5,252
273,3	7,481
273,7	5,138
274,2	5,452
274,7	9,881
275,1	4,995
275,6	5,052
276,1	9,252
276,5	7,538
277	9,281
277,4	9,281
277,9	12,91
278,4	16,652
278,8	17,138
279,3	13,052
279,8	15,338
280,2	13,281
280,7	10,252
281,1	10,738
281,6	11,71
282,1	10,538
282,5	17,281
283	12,395
283,4	11,767
283,9	10,452
284,4	7,91
284,8	4,195
285,3	0,795
285,8	-3,776
286,2	-2,49
286,7	-4,89
287,1	-2,319
287,6	-3,005
288,1	0,252
288,5	3,681
289	8,081
289,5	6,31
289,9	10,652
290,4	11,538
290,8	12,738
291,3	8,224
291,8	7,652
292,2	6,138
292,7	8,338
293,1	8,452
293,6	9,824
294,1	7,681
294,5	12,767
295	8,624
295,5	8,538
295,9	12,595
296,4	12,681
296,8	9,852
297,3	11,31
297,8	7,995
298,2	9,195
298,7	4,852
299,1	2,652
299,6	2,938
300,1	5,71
300,5	7,938
301	10,681
301,5	11,395
301,9	13,51
302,4	12,11
302,8	9,452
303,3	10,424
303,8	8,681
304,2	5,024
304,7	7,195
305,1	5,795
305,6	3,91
306,1	8,052
306,5	6,967
307	3,738
307,4	3,767
307,9	3,452
308,4	5,11
308,8	9,167
309,3	4,51
309,8	6,881
310,2	6,424
310,7	15,395
311,1	7,738
311,6	7,424
312,1	7,252
312,5	7,91
313	-0,433
313,4	3,824
313,9	1,281
314,4	5,31
314,8	9,024
315,3	5,767
315,7	2,91
316,2	5,367
316,7	4,938
317,1	-0,033
317,6	2,681
318	1,652
318,5	5,081
319	8,081
319,4	14,624
319,9	12,052
320,3	13,338
320,8	13,024
321,3	10,852
321,7	6,795
322,2	7,595
322,6	1,51
323,1	2,938
323,6	2,024
324	2,395
324,5	-3,176
324,9	2,052
325,4	6,395
325,9	10,538
326,3	12,824
326,8	15,31
327,2	14,938
327,7	17,281
328,2	14,081
328,6	12,481
329,1	9,738
329,5	9,338
330	6,481
330,5	5,024
330,9	2,481
331,4	-1,29
331,8	1,167
332,3	6,052
332,8	2,138
333,2	1,167
333,7	4,738
334,1	9,91
334,6	14,195
335,1	11,795
335,5	9,195
336	9,195
336,4	11,51
336,9	14,252
337,4	15,224
337,8	15,938
338,3	16,31
338,7	15,167
339,2	19,652
339,7	20,052
340,1	14,452
340,6	12,652
341	14,51
341,5	14,195
342	15,71
342,4	14,938
342,9	10,795
343,3	11,767
343,8	12,652
344,2	10,852
344,7	11,595
345,2	6,052
345,6	8,624
346,1	12,938
346,5	18,452
347	23,424
347,5	17,338
347,9	14,195
348,4	19,195
348,8	17,195
349,3	19,452
349,8	14,538
350,2	9,138
350,7	13,567
351,1	17,424
351,6	18,167
352	24,052
352,5	23,681
353	33,024
353,4	41,824
353,9	52,538
354,3	61,681
354,8	70,395
355,3	81,452
355,7	99,967
356,2	113,91
356,6	136,91
357,1	157,052
357,5	182,281
358	221,481
358,5	259,738
358,9	299,452
359,4	348,91
359,8	392,824
360,3	454,367
360,8	521,281
361,2	587,424
361,7	661,595
362,1	750,138
362,6	846,595
363	950,281
363,5	1059,681
364	1173,767
364,4	1290,081
364,9	1401,681
365,3	1513,795
365,8	1617,167
366,3	1721,71
366,7	1811,052
367,2	1893,252
367,6	1959,338
368,1	2016,081
368,5	2046,738
369	2062,795
369,5	2063,967
369,9	2047,881
370,4	2012,31
370,8	1969,367
371,3	1917,338
371,7	1849,567
372,2	1775,881
372,7	1685,595
373,1	1597,995
373,6	1507,367
374	1407,738
374,5	1309,995
374,9	1220,595
375,4	1133,11
375,9	1056,11
376,3	972,681
376,8	897,367
377,2	834,024
377,7	764,652
378,2	704,91
378,6	643,395
379,1	589,338
379,5	542,767
380	501,71
380,4	457,795
380,9	427,11
381,4	396,167
381,8	371,11
382,3	344,824
382,7	321,31
383,2	294,224
383,6	275,138
384,1	251,367
384,6	230,738
385	213,881
385,5	198,081
385,9	184,624
386,4	173,081
386,8	165,367
387,3	156,652
387,7	147,652
388,2	136,652
388,7	126,538
389,1	118,424
389,6	112,195
390	102,195
390,5	93,367
390,9	91,995
391,4	91,824
391,9	92,11
392,3	86,281
392,8	82,881
393,2	79,424
393,7	80,738
394,1	74,252
394,6	66,881
395,1	62,11
395,5	63,538
396	62,252
396,4	56,395
396,9	56,452
397,3	51,081
397,8	48,995
398,2	44,595
398,7	39,91
399,2	34,51
399,6	41,138
400,1	32,595
400,5	35,995
401	35,138
401,4	36,367
401,9	39,767
402,4	40,195
402,8	36,31
403,3	41,138
403,7	40,395
404,2	42,338
404,6	37,852
405,1	33,824
405,5	30,967
406	25,852
406,5	23,538
406,9	22,367
407,4	22,51
407,8	26,395
408,3	28,938
408,7	41,624
409,2	47,11
409,6	48,424
410,1	55,281
410,6	59,167
411	62,252
411,5	60,967
411,9	55,452
412,4	57,281
412,8	60,224
413,3	58,881
413,7	60,852
414,2	66,567
414,7	75,652
415,1	75,138
415,6	80,538
416	85,452
416,5	85,281
416,9	86,824
417,4	87,967
417,8	84,767
418,3	89,51
418,8	86,767
419,2	86,738
419,7	94,995
420,1	91,681
420,6	88,852
421	88,624
421,5	89,852
421,9	93,738
422,4	93,31
422,8	92,624
423,3	97,081
423,8	102,995
424,2	107,195
424,7	108,681
425,1	106,852
425,6	111,51
426	113,281
426,5	111,967
426,9	113,167
427,4	113,395
427,9	108,252
428,3	109,052
428,8	110,081
429,2	105,138
429,7	104,11
430,1	100,71
430,6	100,538
431	101,11
431,5	103,395
431,9	103,081
432,4	107,91
432,8	111,938
433,3	116,31
433,8	121,195
434,2	125,881
434,7	128,881
435,1	128,338
435,6	132,881
436	134,824
436,5	142,024
436,9	146,795
437,4	154,31
437,8	156,367
438,3	166,167
438,8	164,024
439,2	174,767
439,7	176,167
440,1	182,824
440,6	193,395
441	202,195
441,5	205,995
441,9	219,167
442,4	231,91
442,8	242,252
443,3	248,624
443,7	251,881
444,2	264,71
444,7	275,367
445,1	286,995
445,6	290,081
446	305,31
446,5	314,11
446,9	329,595
447,4	342,938
447,8	359,081
448,3	373,081
448,7	390,395
449,2	394,681
449,6	410,538
450,1	424,652
450,6	439,224
451	446,31
451,5	460,51
451,9	475,538
452,4	499,795
452,8	520,11
453,3	538,195
453,7	554,538
454,2	579,852
454,6	598,995
455,1	616,795
455,5	635,424
456	658,024
456,4	681,995
456,9	700,681
457,3	724,881
457,8	750,452
458,3	781,967
458,7	811,824
459,2	837,052
459,6	861,252
460,1	889,224
460,5	915,91
461	942,624
461,4	967,51
461,9	987,938
462,3	1017,167
462,8	1046,767
463,2	1080,938
463,7	1108,052
464,1	1142,71
464,6	1172,652
465	1210,51
465,5	1243,824
466	1278,824
466,4	1311,938
466,9	1351,081
467,3	1379,424
467,8	1418,252
468,2	1446,652
468,7	1479,595
469,1	1513,595
469,6	1548,081
470	1582,424
470,5	1621,738
470,9	1651,567
471,4	1689,995
471,8	1728,995
472,3	1758,452
472,7	1794,567
473,2	1825,395
473,6	1857,71
474,1	1893,424
474,5	1924,367
475	1950,167
475,4	1988,824
475,9	2030,367
476,4	2065,624
476,8	2097,681
477,3	2131,481
477,7	2171,538
478,2	2209,395
478,6	2243,11
479,1	2259,252
479,5	2296,338
480	2329,281
480,4	2357,31
480,9	2389,91
481,3	2417,281
481,8	2442,338
482,2	2476,567
482,7	2500,624
483,1	2529,91
483,6	2552,452
484	2567,167
484,5	2594,338
484,9	2621,795
485,4	2648,11
485,8	2670,281
486,3	2688,51
486,7	2717,138
487,2	2750,081
487,6	2771,538
488,1	2791,967
488,5	2810,11
489	2824,224
489,4	2847,367
489,9	2866,51
490,4	2878,167
490,8	2886,195
491,3	2901,595
491,7	2914,167
492,2	2938,795
492,6	2951,11
493,1	2957,795
493,5	2963,51
494	2985,995
494,4	2993,424
494,9	3005,252
495,3	3009,538
495,8	3013,967
496,2	3026,424
496,7	3041,081
497,1	3044,852
497,6	3051,681
498	3058,91
498,5	3065,824
498,9	3076,995
499,4	3083,91
499,8	3088,767
500,3	3093,424
500,7	3100,138
501,2	3104,195
501,6	3109,91
502,1	3113,51
502,5	3119,481
503	3123,967
503,4	3129,024
503,9	3134,852
504,3	3140,51
504,8	3146,338
505,2	3146,881
505,7	3150,367
506,1	3151,824
506,6	3150,452
507	3150,167
507,5	3154,052
507,9	3155,224
508,4	3158,167
508,8	3154,452
509,3	3156,852
509,7	3157,538
510,2	3159,624
510,6	3153,995
511,1	3150,138
511,5	3144,71
512	3147,195
512,4	3152,338
512,9	3153,395
513,3	3151,367
513,8	3149,538
514,2	3151,595
514,7	3156,252
515,1	3152,624
515,6	3141,367
516	3137,71
516,5	3137,195
516,9	3134,138
517,4	3131,281
517,8	3125,738
518,3	3116,795
518,7	3118,424
519,2	3115,424
519,6	3117,281
520,1	3119,481
520,5	3115,31
521	3117,91
521,4	3125,938
521,9	3126,71
522,3	3130,595
522,8	3129,995
523,2	3133,11
523,7	3128,51
524,1	3123,11
524,6	3122,081
525	3118,824
525,5	3117,795
525,9	3112,51
526,4	3109,738
526,8	3108,51
527,3	3111,624
527,7	3108,51
528,2	3109,71
528,6	3108,424
529,1	3110,081
529,5	3105,91
530	3111,252
530,4	3113,281
530,9	3118,224
531,3	3117,767
531,8	3124,681
532,2	3124,595
532,6	3131,395
533,1	3133,538
533,5	3133,995
534	3133,795
534,4	3135,424
534,9	3136,481
535,3	3142,395
535,8	3141,395
536,2	3146,852
536,7	3146,767
537,1	3145,195
537,6	3149,052
538	3148,91
538,5	3144,452
538,9	3144,852
539,4	3147,567
539,8	3145,452
540,3	3149,824
540,7	3151,052
541,2	3153,567
541,6	3160,252
542,1	3160,652
542,5	3163,138
543	3170,167
543,4	3172,138
543,9	3172,538
544,3	3172,995
544,8	3179,252
545,2	3185,224
545,7	3184,481
546,1	3190,51
546,5	3196,424
547	3200,11
547,4	3205,167
547,9	3204,767
548,3	3209,338
548,8	3212,71
549,2	3217,538
549,7	3223,881
550,1	3234,938
550,6	3234,938
551	3249,281
551,5	3254,938
551,9	3262,71
552,4	3267,024
552,8	3266,281
553,3	3268,052
553,7	3279,538
554,2	3269,967
554,6	3268,795
555,1	3270,738
555,5	3273,081
555,9	3278,281
556,4	3276,567
556,8	3273,852
557,3	3282,024
557,7	3287,538
558,2	3286,138
558,6	3289,995
559,1	3296,795
559,5	3302,052
560	3305,338
560,4	3305,795
560,9	3315,395
561,3	3324,481
561,8	3328,024
562,2	3319,452
562,7	3324,624
563,1	3325,91
563,6	3326,767
564	3326,91
564,4	3325,767
564,9	3325,367
565,3	3338,824
565,8	3339,595
566,2	3342,424
566,7	3346,11
567,1	3347,795
567,6	3348,11
568	3347,024
568,5	3341,052
568,9	3338,681
569,4	3338,538
569,8	3341,081
570,3	3339,424
570,7	3335,652
571,1	3336,624
571,6	3338,51
572	3340,881
572,5	3339,681
572,9	3341,938
573,4	3335,681
573,8	3347,795
574,3	3348,71
574,7	3347,367
575,2	3343,938
575,6	3346,938
576,1	3338,767
576,5	3344,052
576,9	3339,024
577,4	3337,281
577,8	3337,681
578,3	3335,481
578,7	3329,31
579,2	3332,11
579,6	3330,824
580,1	3325,281
580,5	3319,795
581	3312,167
581,4	3312,995
581,9	3309,452
582,3	3297,91
582,7	3286,024
583,2	3280,681
583,6	3274,195
584,1	3269,967
584,5	3260,967
585	3259,224
585,4	3253,452
585,9	3256,081
586,3	3248,938
586,8	3246,252
587,2	3241,995
587,6	3238,852
588,1	3232,024
588,5	3226,938
589	3220,281
589,4	3214,024
589,9	3210,31
590,3	3205,51
590,8	3197,338
591,2	3197,595
591,7	3196,595
592,1	3190,11
592,5	3191,824
593	3185,738
593,4	3178,881
593,9	3175,452
594,3	3159,767
594,8	3155,91
595,2	3152,681
595,7	3150,367
596,1	3144,652
596,6	3150,024
597	3146,31
597,4	3146,195
597,9	3141,367
598,3	3138,395
598,8	3127,081
599,2	3124,11
599,7	3118,51
600,1	3108,681
600,6	3106,595
601	3099,052
601,4	3092,081
601,9	3077,795
602,3	3078,452
602,8	3062,595
603,2	3066,967
603,7	3060,224
604,1	3062,338
604,6	3049,052
605	3045,881
605,4	3028,995
605,9	3025,281
606,3	3007,052
606,8	2993,367
607,2	2980,967
607,7	2977,767
608,1	2971,738
608,6	2968,252
609	2959,795
609,4	2956,51
609,9	2951,967
610,3	2938,652
610,8	2931,567
611,2	2919,51
611,7	2904,824
612,1	2888,738
612,6	2877,51
613	2873,224
613,4	2865,767
613,9	2853,138
614,3	2850,024
614,8	2837,881
615,2	2835,938
615,7	2829,367
616,1	2810,967
616,6	2796,767
617	2788,652
617,4	2773,252
617,9	2772,11
618,3	2758,338
618,8	2740,052
619,2	2739,224
619,7	2733,852
620,1	2718,995
620,5	2715,338
621	2697,024
621,4	2685,938
621,9	2681,738
622,3	2666,224
622,8	2649,081
623,2	2643,652
623,6	2627,052
624,1	2626,481
624,5	2623,252
625	2608,481
625,4	2598,824
625,9	2593,624
626,3	2578,452
626,8	2574,852
627,2	2561,71
627,6	2543,195
628,1	2534,481
628,5	2521,224
629	2510,938
629,4	2496,167
629,9	2478,995
630,3	2467,281
630,7	2459,281
631,2	2446,338
631,6	2433,424
632,1	2424,567
632,5	2415,881
633	2406,11
633,4	2389,167
633,8	2373,71
634,3	2358,681
634,7	2349,938
635,2	2331,281
635,6	2320,795
636,1	2311,224
636,5	2302,224
636,9	2295,938
637,4	2289,281
637,8	2276,195
638,3	2265,652
638,7	2256,938
639,2	2241,938
639,6	2227,624
640	2215,252
640,5	2202,052
640,9	2196,167
641,4	2184,881
641,8	2170,281
642,2	2162,71
642,7	2157,681
643,1	2148,481
643,6	2146,081
644	2134,71
644,5	2129,824
644,9	2123,081
645,3	2115,767
645,8	2105,024
646,2	2098,652
646,7	2081,824
647,1	2072,281
647,6	2057,081
648	2043,795
648,4	2030,224
648,9	2018,967
649,3	2002,167
649,8	1999,367
650,2	1985,595
650,6	1980,595
651,1	1977,224
651,5	1966,995
652	1957,967
652,4	1948,824
652,9	1933,624
653,3	1926,595
653,7	1916,681
654,2	1907,595
654,6	1902,138
655,1	1887,024
655,5	1879,195
655,9	1869,71
656,4	1858,024
656,8	1846,31
657,3	1832,481
657,7	1817,71
658,2	1816,138
658,6	1803,652
659	1791,824
659,5	1777,052
659,9	1770,11
660,4	1765,624
660,8	1761,852
661,2	1744,567
661,7	1734,167
662,1	1724,967
662,6	1719,281
663	1708,824
663,4	1694,31
663,9	1678,91
664,3	1675,595
664,8	1666,967
665,2	1656,91
665,6	1647,138
666,1	1634,281
666,5	1621,167
667	1612,281
667,4	1604,995
667,9	1591,452
668,3	1587,595
668,7	1577,481
669,2	1568,681
669,6	1557,11
670,1	1548,367
670,5	1532,624
670,9	1532,881
671,4	1517,738
671,8	1507,852
672,3	1502,71
672,7	1500,51
673,1	1486,767
673,6	1479,252
674	1465,052
674,5	1457,71
674,9	1452,052
675,3	1441,652
675,8	1434,652
676,2	1433,652
676,7	1423,938
677,1	1417,624
677,5	1414,424
678	1407,281
678,4	1400,51
678,9	1385,024
679,3	1371,281
679,7	1368,138
680,2	1364,138
680,6	1352,424
681,1	1342,481
681,5	1330,91
681,9	1324,567
682,4	1320,367
682,8	1306,938
683,3	1290,91
683,7	1282,51
684,1	1275,167
684,6	1268,767
685	1265,452
685,5	1256,91
685,9	1250,681
686,3	1247,024
686,8	1245,824
687,2	1239,738
687,7	1232,11
688,1	1226,881
688,5	1215,481
689	1212,367
689,4	1205,795
689,9	1189,195
690,3	1182,738
690,7	1174,852
691,2	1160,881
691,6	1155,624
692	1144,738
692,5	1134,681
692,9	1125,71
693,4	1116,938
693,8	1115,681
694,2	1109,424
694,7	1110,595
695,1	1106,195
695,6	1099,824
696	1095,652
696,4	1086,91
696,9	1075,681
697,3	1069,995
697,8	1052,024
698,2	1040,395
698,6	1034,767
699,1	1027,595
699,5	1022,852
699,9	1014,995
700,4	1008,167
700,8	1008,91
701,3	1000,024
701,7	994,424
702,1	989,738
702,6	986,338
703	978,11
703,5	975,624
703,9	967,11
704,3	969,138
704,8	965,481
705,2	959,71
705,6	944,167
706,1	945,281
706,5	939,081
707	936,195
707,4	931,395
707,8	922,11
708,3	915,081
708,7	918,652
709,2	906,11
709,6	898,652
710	890,252
710,5	882,995
710,9	876,91
711,3	871,424
711,8	865,081
712,2	861,738
712,7	857,224
713,1	851,452
713,5	843,224
714	839,481
714,4	835,995
714,8	829,91
715,3	828,195
715,7	818,081
716,2	807,281
716,6	805,681
717	799,938
717,5	795,567
717,9	784,738
718,3	775,738
718,8	773,624
719,2	768,91
719,7	767,881
720,1	758,338
720,5	754,824
721	749,252
721,4	747,338
721,8	748,024
722,3	743,395
722,7	728,281
723,2	724,024
723,6	713,881
724	713,595
724,5	704,395
724,9	690,881
725,3	689,795
725,8	684,424
726,2	680,995
726,7	678,11
727,1	670,281
727,5	666,881
728	667,481
728,4	662,11
728,8	659,652
729,3	656,024
729,7	653,995
730,1	648,681
730,6	647,71
731	644,595
731,5	641,481
731,9	644,91
732,3	641,595
732,8	638,881
733,2	637,252
733,6	632,452
734,1	627,51
734,5	618,738
734,9	612,967
735,4	612,424
735,8	605,852
736,3	602,11
736,7	599,767
737,1	597,081
737,6	593,938
738	588,681
738,4	583,195
738,9	582,11
739,3	575,595
739,7	571,681
740,2	563,881
740,6	565,424
741,1	558,395
741,5	557,252
741,9	553,938
742,4	556,967
742,8	552,795
743,2	551,567
743,7	548,195
744,1	546,738
744,5	541,252
745	534,481
745,4	528,767
745,8	522,824
746,3	520,395
746,7	518,452
747,2	518,938
747,6	517,395
748	514,11
748,5	511,452
748,9	508,338
749,3	507,338
749,8	499,967
750,2	492,11
750,6	487,195
751,1	486,824
751,5	486,91
751,9	485,195
752,4	479,767
752,8	476,338
753,3	472,452
753,7	470,024
754,1	467,281
754,6	460,424
755	458,452
755,4	455,967
755,9	452,424
756,3	449,252
756,7	446,567
757,2	445,481
757,6	444,024
758	437,31
758,5	432,881
758,9	431,967
759,3	429,481
759,8	431,224
760,2	428,595
760,6	424,31
761,1	422,338
761,5	420,024
761,9	417,252
762,4	419,395
762,8	412,452
763,3	407,31
763,7	404,681
764,1	403,452
764,6	401,824
765	401,367
765,4	396,852
765,9	390,652
766,3	387,338
766,7	386,367
767,2	389,081
767,6	381,91
768	382,281
768,5	378,824
768,9	374,71
769,3	373,081
769,8	372,052
770,2	367,538
770,6	368,452
771,1	365,081
771,5	364,338
771,9	363,281
772,4	364,367
772,8	358,167
773,2	353,338
773,7	353,367
774,1	352,824
774,5	350,51
775	350,452
775,4	346,167
775,8	347,024
776,3	340,795
776,7	339,824
777,1	334,852
777,6	328,967
778	327,538
778,4	326,31
778,9	321,852
779,3	326,167
779,7	318,995
780,2	316,652
780,6	319,452
781	317,852
781,5	315,538
781,9	313,081
782,3	305,881
782,8	308,024
783,2	304,338
783,6	295,595
784,1	293,795
784,5	288,567
784,9	292,395
785,4	289,538
785,8	283,881
786,2	279,995
786,7	278,481
787,1	276,881
787,5	277,167
788	275,452
788,4	273,481
788,8	272,681
789,3	272,338
789,7	271,71
790,1	269,995
790,6	266,652
791	258,624
791,4	262,11
791,9	261,51
792,3	258,595
792,7	260,138
793,2	254,338
793,6	254,167
794	251,824
794,5	249,024
794,9	248,51
795,3	248,681
795,8	244,881
796,2	243,938
796,6	238,738
797,1	232,938
797,5	232,052
797,9	229,624
798,4	227,995
798,8	227,652
799,2	228,481
799,7	233,567
800,1	235,852
800,5	234,767
801	234,938
801,4	229,938
801,8	228,052
802,2	226,424
802,7	221,538
803,1	220,567
803,5	214,595
804	212,252
804,4	212,195
804,8	209,052
805,3	204,71
805,7	200,452
806,1	205,567
806,6	206,995
807	205,538
807,4	201,767
807,9	201,738
808,3	200,824
808,7	201,538
809,2	194,51
809,6	192,738
810	185,795
810,4	189,938
810,9	184,624
811,3	182,167
811,7	178,024
812,2	179,31
812,6	176,252
813	179,91
813,5	178,795
813,9	178,738
814,3	178,595
814,8	179,824
815,2	173,91
815,6	171,024
816,1	172,138
816,5	164,624
816,9	166,995
817,3	165,824
817,8	169,31
818,2	166,652
818,6	167,881
819,1	161,795
819,5	161,71
819,9	154,738
820,4	153,567
820,8	144,624
821,2	148,795
821,7	149,195
822,1	148,224
822,5	151,538
822,9	158,395
823,4	160,795
823,8	165,567
824,2	163,967
824,7	164,052
825,1	162,224
825,5	161,738
826	155,281
826,4	149,595
826,8	144,224
827,3	141,652
827,7	141,052
828,1	140,995
828,5	140,795
829	141,252
829,4	144,167
829,8	138,967
830,3	140,338
830,7	134,195
831,1	133,967
831,6	129,824
832	124,481
832,4	120,938
832,8	125,967
833,3	119,195
833,7	122,452
834,1	121,652
834,6	117,567
835	122,052
835,4	120,71
835,8	116,852
836,3	116,91
836,7	111,338
837,1	109,595
837,6	110,938
838	108,224
838,4	107,281
838,9	110,881
839,3	115,938
839,7	116,424
840,1	115,395
840,6	117,395
841	115,852
841,4	115,252
841,9	109,995
842,3	109,367
842,7	109,767
843,1	109,738
843,6	108,024
844	104,652
844,4	105,395
844,9	104,424
845,3	98,652
845,7	101,481
846,2	99,195
846,6	96,481
847	98,11
847,4	97,652
847,9	95,995
848,3	100,51
848,7	100,452
849,2	100,481
849,6	97,824
850	97,481
850,4	95,738
850,9	97,795
851,3	87,224
851,7	82,024
852,2	77,71
852,6	79,938
853	84,138
853,4	85,995
853,9	82,481
854,3	86,995
854,7	84,824
855,2	85,281
855,6	81,538
856	73,852
856,4	73,738
856,9	73,595
857,3	74,052
857,7	76,91
858,2	75,567
858,6	80,881
859	82,024
859,4	76,824
859,9	79,167
860,3	76,681
860,7	75,824
861,1	77,881
861,6	75,395
862	75,11
862,4	74,824
862,9	74,338
863,3	74,452
863,7	70,081
864,1	70,281
864,6	69,252
865	68,881
865,4	66,11
865,9	60,195
866,3	64,11
866,7	65,71
867,1	67,052
867,6	65,995
868	65,652
868,4	70,052
868,8	72,995
869,3	71,481
869,7	68,824
870,1	68,595
870,6	66,738
871	113,91
871,4	111,595
871,8	110,281
872,3	108,024
872,7	108,852
873,1	106,738
873,5	112,395
874	67,167
874,4	60,71
874,8	60,395
875,3	59,252
875,7	58,452
876,1	54,31
876,5	53,795
877	52,224
877,4	60,052
877,8	62,11
878,2	60,024
878,7	64,424
879,1	66,424
879,5	62,31
879,9	58,738
880,4	55,481
880,8	55,681
881,2	58,681
881,7	56,452
882,1	57,138
882,5	50,481
882,9	50,652
883,4	54,938
883,8	50,081
884,2	47,595
884,6	44,795
885,1	46,881
885,5	53,224
885,9	57,538
886,3	53,052
886,8	51,338
887,2	51,681
887,6	49,195
888	46,595
888,5	48,167
888,9	42,081
889,3	38,452
889,8	42,938
890,2	38,995
890,6	43,452
891	42,452
891,5	42,595
891,9	47,938
892,3	51,024
892,7	52,11
893,2	54,652
893,6	52,452
894	49,795
894,4	47,11
894,9	42,738
895,3	39,995
895,7	36,995
896,1	37,424
896,6	36,51
897	40,052
897,4	36,224
897,8	40,167
898,3	49,624
898,7	47,538
899,1	44,567
899,5	41,652
900	40,538
900,4	41,395
900,8	39,281
901,2	33,138
901,7	33,481
902,1	34,824
902,5	38,652
902,9	39,538
903,4	39,51
903,8	33,624
904,2	32,938
904,6	36,338
905,1	39,795
905,5	34,624
905,9	31,767
906,3	28,795
906,8	32,652
907,2	32,681
907,6	34,052
908	25,767
908,5	30,252
908,9	29,652
909,3	32,881
909,7	29,195
910,2	28,91
910,6	26,224
911	31,824
911,4	31,852
911,9	33,595
912,3	30,11
912,7	31,367
913,1	23,395
913,6	22,71
914	21,967
914,4	18,881
914,8	20,824
915,3	23,824
915,7	21,967
916,1	23,024
916,5	21,081
916,9	14,652
917,4	15,91
917,8	10,224
918,2	6,967
918,6	6,852
919,1	12,338
919,5	17,881
919,9	24,91
920,3	24,452
920,8	31,767
921,2	38,024
921,6	38,538
922	34,338
922,5	32,11
922,9	26,824
923,3	28,738
923,7	21,395
924,2	12,252
924,6	15,652
925	20,138
925,4	18,51
925,8	20,481
926,3	22,681
926,7	25,195
927,1	27,767
927,5	27,995
928	23,995
928,4	21,567
928,8	26,538
929,2	21,424
929,7	16,824
930,1	19,967
930,5	18,11
930,9	21,681
931,3	30,167
931,8	22,852
932,2	22,338
932,6	26,91
933	24,424
933,5	24,995
933,9	25,71
934,3	16,767
934,7	23,51
935,2	25,167
935,6	24,11
936	19,281
936,4	18,995
936,8	15,167
937,3	18,081
937,7	13,595
938,1	9,824
938,5	5,31
939	14,081
939,4	13,424
939,8	16,052
940,2	14,71
940,6	15,395
941,1	20,31
941,5	23,91
941,9	18,367
942,3	18,738
942,8	19,167
943,2	16,338
943,6	16,995
944	11,367
944,4	9,11
944,9	8,624
945,3	9,31
945,7	7,795
946,1	8,252
946,6	6,652
947	14,71
947,4	16,395
947,8	21,824
948,2	20,71
948,7	20,995
949,1	17,824
949,5	17,567
949,9	15,024
950,3	14,452
950,8	10,652
951,2	14,281
951,6	15,252
952	19,767
952,5	20,424
952,9	16,91
953,3	17,738
953,7	19,795
954,1	18,481
954,6	17,452
955	16,595
955,4	17,195
955,8	19,652
956,2	19,224
956,7	19,167
957,1	11,481
957,5	10,31
957,9	9,024
958,3	9,395
958,8	10,681
959,2	9,852
959,6	11,224
960	14,452
960,5	10,995
960,9	9,852
961,3	6,71
961,7	-1,119
962,1	0,024
962,6	-2,576
963	0,452
963,4	4,538
963,8	9,995
964,2	11,167
964,7	13,538
965,1	15,938
965,5	17,881
965,9	16,995
966,3	14,281
966,8	10,738
967,2	12,738
967,6	11,795
968	8,281
968,4	7,138
968,9	9,624
969,3	10,252
969,7	8,824
970,1	7,481
970,5	13,71
971	10,338
971,4	11,852
971,8	13,795
972,2	16,024
972,6	18,767
973,1	19,881
973,5	21,738
973,9	23,738
974,3	13,595
974,7	10,31
975,2	6,71
975,6	-0,205
976	2,081
976,4	-0,033
976,8	-1,719
977,3	6,567
977,7	3,252
978,1	4,138
978,5	10,538
978,9	7,252
979,4	1,852
979,8	6,31
980,2	3,881
980,6	6,11
981	9,024
981,5	8,367
981,9	6,424
982,3	6,795
982,7	6,167
983,1	9,51
983,6	7,424
984	6,195
984,4	9,395
984,8	10,967
985,2	12,624
985,6	14,91
986,1	13,052
986,5	12,395
986,9	10,481
987,3	7,224
987,7	9,967
988,2	13,252
988,6	8,567
989	9,681
989,4	10,91
989,8	13,624
990,3	14,567
990,7	10,567
991,1	6,652
991,5	6,938
991,9	9,224
992,3	10,31
992,8	12,881
993,2	13,51
993,6	11,967
994	10,367
994,4	13,224
994,9	11,938
995,3	10,967
995,7	7,71
996,1	5,424
996,5	6,852
996,9	9,538
997,4	9,31
997,8	8,881
998,2	9,424
998,6	13,624
999	19,938
999,5	21,052
999,9	19,967
1000,3	25,824
1000,7	21,738
1001,1	19,31
1001,5	13,252
1002	2,881
1002,4	2,51
1002,8	8,224
1003,2	2,852
1003,6	8,795
1004	6,881
1004,5	6,567
1004,9	10,052
1005,3	6,452
1005,7	2,052
1006,1	-1,405
1006,6	-3,89
1007	-3,662
1007,4	-0,805
1007,8	-0,005
1008,2	0,824
1008,6	0,852
1009,1	0,11
1009,5	5,567
1009,9	14,024
1010,3	14,224
1010,7	15,567
1011,1	21,424
1011,6	22,824
1012	22,081
1012,4	20,224
1012,8	13,567
1013,2	13,167
1013,6	12,481
1014,1	9,31
1014,5	6,567
1014,9	9,452
1015,3	6,481
1015,7	4,424
1016,1	3,367
1016,6	5,567
1017	5,281
1017,4	-0,005
1017,8	-1,948
1018,2	-7,319
1018,6	-4,176
1019,1	-6,462
1019,5	-7,576
1019,9	-3,29
1020,3	0,824
1020,7	2,938
1021,1	10,167
1021,6	7,881
1022	8,567
1022,4	11,824
1022,8	9,595
1023,2	14,195
1023,6	8,824
1024,1	10,281
1024,5	11,167
1024,9	17,652
1025,3	15,224
1025,7	13,91
1026,1	14,138
1026,6	23,395
1027	17,195
1027,4	18,738
1027,8	14,195
1028,2	14,795
1028,6	15,195
1029	9,224
1029,5	6,424
1029,9	7,31
1030,3	8,967
1030,7	8,138
1031,1	1,51
1031,5	-3,748
1032	0,024
1032,4	-7,519
1032,8	-7,033
1033,2	-5,948
1033,6	-4,605
1034	-3,262
1034,4	4,481
1034,9	1,91
1035,3	10,595
1035,7	13,852
1036,1	10,91
1036,5	6,167
1036,9	7,91
1037,4	5,51
1037,8	7,481
1038,2	2,624
1038,6	1,767
1039	3,481
1039,4	8,252
1039,8	10,31
1040,3	11,424
1040,7	6,995
1041,1	10,338
1041,5	5,681
1041,9	3,195
1042,3	5,967
1042,7	6,424
1043,2	8,052
1043,6	14,538
1044	9,138
1044,4	10,824
1044,8	9,967
1045,2	9,395
1045,6	9,852
1046,1	10,481
1046,5	10,967
1046,9	15,567
1047,3	14,252
1047,7	14,767
1048,1	9,681
1048,5	9,195
1049	12,452
1049,4	5,824
1049,8	0,938
1050,2	4,51
1050,6	5,224
1051	12,738
1051,4	7,852
1051,9	3,51
1052,3	3,624
1052,7	8,452
1053,1	7,967
1053,5	11,995
1053,9	5,481
1054,3	2,338
1054,8	3,881
1055,2	7,967
1055,6	6,367
1056	7,367
1056,4	4,681
1056,8	8,024
1057,2	16,71
1057,6	11,138
1058,1	11,338
1058,5	12,281
1058,9	9,881
1059,3	13,71
1059,7	7,681
1060,1	3,881
1060,5	0,424
1061	-0,49
1061,4	1,081
1061,8	1,395
1062,2	-3,833
1062,6	-1,005
1063	0,167
1063,4	4,595
1063,8	6,681
1064,3	4,824
1064,7	5,51
1065,1	7,138
1065,5	11,024
1065,9	9,167
1066,3	7,424
1066,7	4,91
1067,1	5,31
1067,6	3,195
1068	0,595
1068,4	2,481
1068,8	5,081
1069,2	6,91
1069,6	6,167
1070	11,881
1070,4	13,824
1070,9	14,595
1071,3	8,138
1071,7	7,967
1072,1	10,852
1072,5	15,367
1072,9	13,138
1073,3	12,167
1073,7	15,995
1074,2	20,595
1074,6	17,538
1075	12,595
1075,4	10,91
1075,8	9,938
1076,2	9,938
1076,6	6,395
1077	-1,405
1077,5	4,081
1077,9	8,024
1078,3	5,11
1078,7	4,595
1079,1	10,195
1079,5	8,338
1079,9	15,967
1080,3	11,567
1080,7	14,452
1081,2	15,11
1081,6	16,824
1082	11,081
1082,4	8,195
1082,8	-0,09
1083,2	-3,148
1083,6	-4,348
1084	-4,976
1084,5	-6,119
1084,9	-9,033
1085,3	-5,405
1085,7	-3,948
1086,1	-3,576
1086,5	-1,062
1086,9	-2,319
1087,3	-0,662
1087,7	7,51
1088,2	8,31
1088,6	9,595
1089	14,052
1089,4	10,795
1089,8	13,881
1090,2	10,538
1090,6	4,081
1091	5,91
1091,4	8,395
1091,9	9,881
1092,3	5,567
1092,7	2,824
1093,1	1,367
1093,5	0,624
1093,9	0,538
1094,3	2,767
1094,7	3,024
1095,1	2,652
1095,5	6,367
1096	3,195
1096,4	8,51
1096,8	6,024
1097,2	3,624
1097,6	4,395
1098	8,338
1098,4	8,167
1098,8	14,081
1099,2	9,481
1099,6	16,624
1100,1	18,652
1100,5	18,795
1100,9	16,652
1101,3	15,595
1101,7	19,167
1102,1	21,738
1102,5	16,938
1102,9	14,967
1103,3	10,595
1103,7	10,138
1104,2	11,91
1104,6	9,995
1105	11,11
1105,4	10,481
1105,8	9,767
1106,2	10,51
1106,6	9,624
1107	6,767
1107,4	3,333
1107,8	0,287
1108,3	0,017
