Data from Subt2_018.txt Node
Date: Sat Aug 26 16:15:39 MSK 2023
User: vat
Spectrometer: MAYP114033
Trigger mode: 0
Integration Time (sec): 1,000000E0
Scans to average: 5
Electric dark correction enabled: true
Nonlinearity correction enabled: false
Boxcar width: 3
XAxis mode: Wavelengths
Number of Pixels in Spectrum: 2068
>>>>>Begin Spectral Data<<<<<
199,4	0,417
199,9	0,447
200,4	-1,933
200,8	-3,49
201,3	-2,033
201,8	-1,119
202,2	-0,833
202,7	1,367
203,2	1,138
203,6	5,567
204,1	9,995
204,6	6,138
205	6,252
205,5	7,281
206	3,481
206,4	3,881
206,9	2,167
207,4	0,995
207,8	7,338
208,3	6,195
208,8	6,995
209,2	11,395
209,7	10,538
210,2	12,938
210,6	10,652
211,1	12,595
211,5	12,338
212	13,824
212,5	13,652
212,9	17,681
213,4	11,338
213,9	10,938
214,3	2,424
214,8	7,852
215,3	5,138
215,7	4,681
216,2	3,31
216,7	9,424
217,1	11,195
217,6	14,024
218,1	10,51
218,5	10,881
219	4,91
219,5	4,138
219,9	0,052
220,4	5,167
220,9	2,138
221,3	2,567
221,8	-3,09
222,3	0,595
222,7	0,624
223,2	2,652
223,6	2,767
224,1	5,538
224,6	4,824
225	9,681
225,5	10,052
226	9,51
226,4	12,767
226,9	9,024
227,4	12,338
227,8	10,71
228,3	10,881
228,8	10,224
229,2	14,681
229,7	8,31
230,2	10,738
230,6	7,881
231,1	12,224
231,5	15,167
232	13,652
232,5	10,424
232,9	13,995
233,4	8,11
233,9	6,681
234,3	3,652
234,8	-0,119
235,3	5,91
235,7	0,624
236,2	-0,119
236,7	2,881
237,1	6,252
237,6	6,281
238,1	7,367
238,5	4,824
239	12,252
239,4	17,424
239,9	12,91
240,4	11,624
240,8	12,681
241,3	12,395
241,8	12,852
242,2	7,081
242,7	7,452
243,2	14,91
243,6	14,31
244,1	14,338
244,6	17,595
245	13,11
245,5	14,081
245,9	14,195
246,4	14,538
246,9	17,938
247,3	16,881
247,8	15,367
248,3	14,824
248,7	18,252
249,2	10,567
249,7	7,252
250,1	5,252
250,6	2,681
251	-0,862
251,5	5,424
252	7,367
252,4	10,31
252,9	5,081
253,4	4,967
253,8	9,31
254,3	13,824
254,8	11,938
255,2	10,281
255,7	6,595
256,1	13,367
256,6	9,395
257,1	10,567
257,5	9,024
258	12,11
258,5	8,995
258,9	9,938
259,4	6,852
259,9	5,824
260,3	2,252
260,8	1,767
261,2	-2,319
261,7	-7,662
262,2	-4,805
262,6	-4,69
263,1	-0,262
263,6	-0,205
264	1,824
264,5	5,367
264,9	12,51
265,4	12,91
265,9	14,567
266,3	13,538
266,8	14,852
267,3	10,652
267,7	7,138
268,2	5,538
268,7	4,195
269,1	4,424
269,6	0,652
270	0,395
270,5	3,738
271	0,738
271,4	1,252
271,9	2,995
272,4	3,738
272,8	8,967
273,3	7,795
273,7	9,024
274,2	9,767
274,7	10,167
275,1	10,881
275,6	8,195
276,1	7,224
276,5	7,31
277	1,252
277,4	1,281
277,9	-0,548
278,4	-0,148
278,8	2,252
279,3	2,395
279,8	2,424
280,2	8,795
280,7	10,795
281,1	11,624
281,6	7,652
282,1	7,481
282,5	5,195
283	8,052
283,4	-0,633
283,9	-0,605
284,4	3,395
284,8	7,424
285,3	6,767
285,8	9,224
286,2	4,938
286,7	6,395
287,1	6,338
287,6	1,338
288,1	-0,233
288,5	-1,462
289	-1,119
289,5	0,824
289,9	3,938
290,4	2,71
290,8	3,738
291,3	3,167
291,8	3,538
292,2	6,167
292,7	6,338
293,1	7,681
293,6	9,31
294,1	11,481
294,5	10,91
295	9,31
295,5	5,167
295,9	2,338
296,4	-0,462
296,8	2,081
297,3	5,567
297,8	3,967
298,2	6,138
298,7	7,367
299,1	10,31
299,6	9,395
300,1	10,681
300,5	9,538
301	7,252
301,5	6,224
301,9	5,738
302,4	1,71
302,8	5,481
303,3	5,195
303,8	-0,062
304,2	4,71
304,7	5,367
305,1	6,367
305,6	10,538
306,1	10,31
306,5	6,31
307	3,91
307,4	4,11
307,9	4,738
308,4	0,852
308,8	7,738
309,3	10,052
309,8	13,224
310,2	18,681
310,7	17,738
311,1	14,881
311,6	16,167
312,1	7,538
312,5	7,167
313	1,852
313,4	0,052
313,9	-3,89
314,4	1,91
314,8	9,624
315,3	7,31
315,7	6,795
316,2	9,567
316,7	8,281
317,1	14,91
317,6	11,081
318	4,395
318,5	6,424
319	6,624
319,4	2,51
319,9	4,252
320,3	2,395
320,8	3,31
321,3	2,31
321,7	1,567
322,2	-3,719
322,6	-1,49
323,1	-3,376
323,6	-1,062
324	-2,89
324,5	-0,005
324,9	1,538
325,4	7,11
325,9	8,767
326,3	8,881
326,8	4,367
327,2	5,195
327,7	5,224
328,2	4,567
328,6	3,281
329,1	1,995
329,5	0,567
330	-0,376
330,5	0,538
330,9	0,195
331,4	-0,176
331,8	1,595
332,3	2,338
332,8	4,424
333,2	5,995
333,7	8,767
334,1	7,567
334,6	10,51
335,1	8,652
335,5	12,11
336	15,024
336,4	15,538
336,9	13,167
337,4	14,167
337,8	14,367
338,3	14,595
338,7	14,024
339,2	8,252
339,7	7,395
340,1	7,795
340,6	4,71
341	2,138
341,5	4,595
342	4,367
342,4	14,281
342,9	20,138
343,3	21,138
343,8	24,252
344,2	27,424
344,7	28,224
345,2	28,795
345,6	20,738
346,1	13,138
346,5	14,938
347	17,195
347,5	17,481
347,9	20,224
348,4	19,91
348,8	28,081
349,3	37,652
349,8	40,11
350,2	44,824
350,7	54,795
351,1	59,881
351,6	72,681
352	84,338
352,5	102,795
353	120,31
353,4	142,681
353,9	164,738
354,3	200,824
354,8	241,481
355,3	286,795
355,7	335,824
356,2	402,881
356,6	474,538
357,1	564,652
357,5	659,281
358	772,652
358,5	907,052
358,9	1057,367
359,4	1223,595
359,8	1420,281
360,3	1637,595
360,8	1879,967
361,2	2147,052
361,7	2447,367
362,1	2776,081
362,6	3130,052
363	3508,995
363,5	3910,452
364	4334,11
364,4	4762,795
364,9	5192,51
365,3	5613,681
365,8	6023,081
366,3	6397,024
366,7	6734,881
367,2	7017,967
367,6	7256,51
368,1	7425,71
368,5	7526,538
369	7565,767
369,5	7549,824
369,9	7472,11
370,4	7343,452
370,8	7158,852
371,3	6933,395
371,7	6680,51
372,2	6389,567
372,7	6079,938
373,1	5749,767
373,6	5415,138
374	5078,052
374,5	4736,795
374,9	4406,31
375,4	4093,795
375,9	3786,995
376,3	3495,052
376,8	3216,795
377,2	2952,024
377,7	2717,281
378,2	2496,795
378,6	2291,738
379,1	2101,91
379,5	1928,138
380	1769,51
380,4	1626,624
380,9	1497,395
381,4	1372,081
381,8	1261,338
382,3	1161,995
382,7	1076,71
383,2	1001,995
383,6	932,195
384,1	866,252
384,6	806,452
385	748,538
385,5	701,31
385,9	648,31
386,4	601,195
386,8	561,652
387,3	519,967
387,7	490,51
388,2	456,538
388,7	418,195
389,1	388,881
389,6	358,824
390	331,452
390,5	310,252
390,9	285,338
391,4	267,624
391,9	253,824
392,3	243,595
392,8	228,767
393,2	213,71
393,7	196,967
394,1	184,395
394,6	171,452
395,1	157,881
395,5	146,681
396	137,852
396,4	129,652
396,9	122,652
397,3	117,024
397,8	112,852
398,2	112,452
398,7	104,338
399,2	102,31
399,6	96,31
400,1	91,91
400,5	89,881
401	84,767
401,4	75,71
401,9	75,424
402,4	69,795
402,8	72,052
403,3	73,452
403,7	73,881
404,2	80,052
404,6	81,595
405,1	80,852
405,5	83,167
406	81,081
406,5	84,195
406,9	79,595
407,4	73,31
407,8	78,71
408,3	78,738
408,7	81,452
409,2	87,367
409,6	93,652
410,1	104,052
410,6	114,738
411	119,624
411,5	132,252
411,9	140,852
412,4	149,738
412,8	151,824
413,3	156,224
413,7	161,424
414,2	169,51
414,7	174,995
415,1	173,91
415,6	180,167
416	185,624
416,5	194,595
416,9	199,51
417,4	203,281
417,8	209,71
418,3	227,424
418,8	237,367
419,2	250,995
419,7	260,281
420,1	271,624
420,6	294,481
421	308,424
421,5	317,767
421,9	330,881
422,4	342,11
422,8	355,71
423,3	370,995
423,8	380,624
424,2	398,138
424,7	420,881
425,1	439,167
425,6	453,881
426	473,567
426,5	501,481
426,9	521,224
427,4	547,11
427,9	566,967
428,3	592,567
428,8	628,424
429,2	658,367
429,7	684,824
430,1	715,681
430,6	744,881
431	780,138
431,5	814,595
431,9	849,624
432,4	890,91
432,8	928,395
433,3	971,31
433,8	1019,624
434,2	1070,167
434,7	1121,138
435,1	1170,138
435,6	1218,795
436	1280,881
436,5	1338,91
436,9	1396,224
437,4	1457,795
437,8	1519,652
438,3	1590,081
438,8	1665,938
439,2	1737,795
439,7	1817,224
440,1	1893,852
440,6	1978,138
441	2065,338
441,5	2153,824
441,9	2241,852
442,4	2328,481
442,8	2422,11
443,3	2524,51
443,7	2618,338
444,2	2721,681
444,7	2826,51
445,1	2934,338
445,6	3055,052
446	3171,052
446,5	3287,024
446,9	3408,767
447,4	3539,795
447,8	3669,424
448,3	3800,881
448,7	3930,652
449,2	4071,767
449,6	4214,824
450,1	4360,795
450,6	4504,881
451	4654,91
451,5	4818,767
451,9	4978,938
452,4	5134,31
452,8	5292,51
453,3	5463,71
453,7	5627,481
454,2	5800,338
454,6	5970,538
455,1	6150,624
455,5	6325,424
456	6511,852
456,4	6691,995
456,9	6885,281
457,3	7072,195
457,8	7268,31
458,3	7453,338
458,7	7657,481
459,2	7854,281
459,6	8049,51
460,1	8239,995
460,5	8436,967
461	8638,91
461,4	8844,995
461,9	9055,567
462,3	9257,452
462,8	9464,31
463,2	9673,881
463,7	9892,195
464,1	10088,452
464,6	10290,138
465	10486,167
465,5	10687,681
466	10892,795
466,4	11094,252
466,9	11289,91
467,3	11496,795
467,8	11711,452
468,2	11908,824
468,7	12120,081
469,1	12324,281
469,6	12532,567
470	12734,824
470,5	12930,995
470,9	13124,31
471,4	13314,338
471,8	13496,138
472,3	13684,052
472,7	13870,795
473,2	14046,538
473,6	14220,852
474,1	14387,195
474,5	14564,595
475	14746,452
475,4	14903,224
475,9	15054,938
476,4	15224,91
476,8	15372,567
477,3	15524,024
477,7	15665,938
478,2	15785,567
478,6	15915,767
479,1	16044,195
479,5	16155,567
480	16277,995
480,4	16390,424
480,9	16485,281
481,3	16585,567
481,8	16692,31
482,2	16792,738
482,7	16892,852
483,1	16986,967
483,6	17055,767
484	17138,738
484,5	17221,338
484,9	17279,081
485,4	17329,567
485,8	17352,138
486,3	17393,052
486,7	17436,824
487,2	17477,881
487,6	17504,738
488,1	17530,852
488,5	17548,51
489	17577,738
489,4	17579,51
489,9	17580,424
490,4	17573,738
490,8	17558,881
491,3	17543,538
491,7	17517,31
492,2	17501,567
492,6	17479,367
493,1	17446,852
493,5	17399,681
494	17373,367
494,4	17318,824
494,9	17267,281
495,3	17198,081
495,8	17130,31
496,2	17060,395
496,7	16998,081
497,1	16920,881
497,6	16857,424
498	16804,767
498,5	16734,567
498,9	16660,195
499,4	16589,138
499,8	16507,424
500,3	16402,967
500,7	16322,681
501,2	16216,852
501,6	16128,167
502,1	16033,195
502,5	15948,652
503	15856,652
503,4	15773,595
503,9	15662,195
504,3	15564,795
504,8	15466,795
505,2	15358,71
505,7	15238,481
506,1	15130,71
506,6	15019,767
507	14901,281
507,5	14789,852
507,9	14658,681
508,4	14535,481
508,8	14420,51
509,3	14301,31
509,7	14175,681
510,2	14061,567
510,6	13928,31
511,1	13794,681
511,5	13670,167
512	13535,167
512,4	13411,681
512,9	13285,224
513,3	13159,595
513,8	13043,652
514,2	12926,452
514,7	12794,567
515,1	12668,538
515,6	12535,652
516	12411,367
516,5	12272,052
516,9	12133,995
517,4	12006,367
517,8	11896,481
518,3	11775,081
518,7	11644,395
519,2	11517,995
519,6	11402,538
520,1	11273,767
520,5	11146,481
521	11005,824
521,4	10887,138
521,9	10764,167
522,3	10641,71
522,8	10521,91
523,2	10407,081
523,7	10304,252
524,1	10196,452
524,6	10083,338
525	9971,138
525,5	9858,395
525,9	9752,252
526,4	9643,167
526,8	9526,195
527,3	9422,195
527,7	9317,052
528,2	9215,71
528,6	9117,995
529,1	9017,224
529,5	8919,167
530	8821,91
530,4	8729,424
530,9	8629,252
531,3	8532,538
531,8	8433,081
532,2	8338,824
532,6	8246,367
533,1	8154,367
533,5	8062,11
534	7967,081
534,4	7882,91
534,9	7794,595
535,3	7703,967
535,8	7618,224
536,2	7536,567
536,7	7455,852
537,1	7379,452
537,6	7305,481
538	7229,11
538,5	7156,167
538,9	7079,967
539,4	6993,681
539,8	6912,338
540,3	6828,881
540,7	6737,367
541,2	6670,081
541,6	6592,052
542,1	6529,224
542,5	6473,795
543	6411,138
543,4	6359,595
543,9	6303,252
544,3	6234,281
544,8	6173,852
545,2	6103,367
545,7	6035,424
546,1	5971,967
546,5	5901,11
547	5848,024
547,4	5790,338
547,9	5731,395
548,3	5687,91
548,8	5635,138
549,2	5587,395
549,7	5540,824
550,1	5481,824
550,6	5434,138
551	5389,881
551,5	5331,024
551,9	5280,052
552,4	5224,738
552,8	5178,767
553,3	5129,224
553,7	5082,852
554,2	5038,767
554,6	4998,71
555,1	4959,024
555,5	4916,824
555,9	4876,51
556,4	4835,938
556,8	4793,652
557,3	4748,967
557,7	4706,995
558,2	4664,681
558,6	4619,852
559,1	4578,281
559,5	4548,081
560	4505,024
560,4	4467,595
560,9	4434,252
561,3	4403,481
561,8	4373,567
562,2	4338,738
562,7	4303,595
563,1	4272,281
563,6	4242,567
564	4207,538
564,4	4166,052
564,9	4131,567
565,3	4099,195
565,8	4068,367
566,2	4037,452
566,7	3994,938
567,1	3958,795
567,6	3929,852
568	3900,91
568,5	3872,424
568,9	3838,967
569,4	3811,024
569,8	3788,881
570,3	3763,452
570,7	3738,995
571,1	3711,51
571,6	3678,367
572	3648,481
572,5	3622,795
572,9	3597,824
573,4	3574,652
573,8	3544,824
574,3	3521,024
574,7	3502,795
575,2	3482,167
575,6	3458,595
576,1	3435,824
576,5	3409,995
576,9	3394,281
577,4	3370,167
577,8	3338,91
578,3	3317,71
578,7	3292,567
579,2	3268,452
579,6	3247,567
580,1	3224,252
580,5	3201,852
581	3187,281
581,4	3162,795
581,9	3143,567
582,3	3125,252
582,7	3097,452
583,2	3068,995
583,6	3046,167
584,1	3023,738
584,5	3002,681
585	2980,138
585,4	2958,995
585,9	2934,338
586,3	2916,738
586,8	2903,795
587,2	2882,51
587,6	2860,595
588,1	2841,71
588,5	2822,138
589	2807,595
589,4	2792,71
589,9	2775,938
590,3	2759,71
590,8	2736,852
591,2	2718,224
591,7	2699,852
592,1	2687,795
592,5	2669,795
593	2644,167
593,4	2624,767
593,9	2621,852
594,3	2610,452
594,8	2594,367
595,2	2580,452
595,7	2567,91
596,1	2554,395
596,6	2540,138
597	2521,881
597,4	2504,281
597,9	2493,11
598,3	2477,567
598,8	2457,71
599,2	2452,224
599,7	2445,224
600,1	2431,395
600,6	2418,767
601	2404,767
601,4	2393,167
601,9	2389,795
602,3	2368,881
602,8	2348,024
603,2	2336,595
603,7	2326,738
604,1	2315,938
604,6	2303,938
605	2290,138
605,4	2276,338
605,9	2269,795
606,3	2260,281
606,8	2245,967
607,2	2230,452
607,7	2213,024
608,1	2198,367
608,6	2191,681
609	2178,995
609,4	2160,881
609,9	2154,624
610,3	2147,567
610,8	2137,91
611,2	2122,91
611,7	2103,738
612,1	2088,367
612,6	2078,71
613	2057,767
613,4	2040,395
613,9	2024,51
614,3	2011,967
614,8	2006,081
615,2	1995,681
615,7	1980,852
616,1	1967,595
616,6	1957,11
617	1950,681
617,4	1936,995
617,9	1923,91
618,3	1909,424
618,8	1900,195
619,2	1895,967
619,7	1879,338
620,1	1870,852
620,5	1862,195
621	1848,11
621,4	1840,395
621,9	1829,681
622,3	1812,995
622,8	1805,31
623,2	1791,852
623,6	1785,252
624,1	1777,224
624,5	1770,795
625	1759,281
625,4	1747,567
625,9	1735,081
626,3	1719,51
626,8	1703,881
627,2	1696,024
627,6	1680,452
628,1	1669,567
628,5	1664,367
629	1658,71
629,4	1649,252
629,9	1639,567
630,3	1626,938
630,7	1613,167
631,2	1597,31
631,6	1582,11
632,1	1568,281
632,5	1558,31
633	1545,681
633,4	1538,624
633,8	1531,052
634,3	1523,138
634,7	1516,481
635,2	1504,11
635,6	1494,024
636,1	1486,424
636,5	1469,767
636,9	1457,91
637,4	1446,281
637,8	1434,281
638,3	1428,481
638,7	1419,195
639,2	1411,167
639,6	1405,652
640	1400,167
640,5	1397,281
640,9	1389,024
641,4	1376,967
641,8	1367,081
642,2	1357,795
642,7	1358,024
643,1	1349,938
643,6	1340,052
644	1334,567
644,5	1329,824
644,9	1325,31
645,3	1319,11
645,8	1302,881
646,2	1296,595
646,7	1289,395
647,1	1281,824
647,6	1268,652
648	1258,052
648,4	1243,138
648,9	1234,795
649,3	1225,881
649,8	1215,081
650,2	1206,31
650,6	1207,681
651,1	1207,395
651,5	1203,338
652	1202,281
652,4	1191,938
652,9	1190,51
653,3	1179,767
653,7	1167,681
654,2	1153,624
654,6	1148,281
655,1	1129,852
655,5	1125,395
655,9	1115,538
656,4	1113,224
656,8	1107,167
657,3	1099,967
657,7	1093,138
658,2	1088,967
658,6	1084,481
659	1072,91
659,5	1058,567
659,9	1052,881
660,4	1042,567
660,8	1035,938
661,2	1025,252
661,7	1009,824
662,1	1011,852
662,6	1007,024
663	997,367
663,4	994,995
663,9	988,481
664,3	988,795
664,8	984,681
665,2	974,424
665,6	971,91
666,1	966,824
666,5	958,852
667	950,652
667,4	941,481
667,9	932,081
668,3	928,71
668,7	915,824
669,2	908,167
669,6	904,11
670,1	895,91
670,5	889,452
670,9	886,424
671,4	880,652
671,8	877,452
672,3	871,567
672,7	864,452
673,1	862,138
673,6	854,71
674	848,31
674,5	836,824
674,9	833,852
675,3	825,738
675,8	819,195
676,2	813,652
676,7	809,567
677,1	802,167
677,5	795,424
678	785,738
678,4	786,167
678,9	782,738
679,3	773,11
679,7	768,795
680,2	767,567
680,6	763,881
681,1	763,367
681,5	754,424
681,9	750,138
682,4	743,91
682,8	736,567
683,3	731,052
683,7	726,938
684,1	717,167
684,6	708,624
685	702,795
685,5	698,138
685,9	693,595
686,3	688,224
686,8	679,567
687,2	675,424
687,7	674,824
688,1	667,681
688,5	665,795
689	661,71
689,4	654,51
689,9	654,881
690,3	646,481
690,7	637,024
691,2	630,652
691,6	619,481
692	616,595
692,5	613,795
692,9	601,167
693,4	601,481
693,8	596,795
694,2	591,595
694,7	594,71
695,1	587,338
695,6	582,024
696	582,71
696,4	576,91
696,9	577,938
697,3	571,51
697,8	568,938
698,2	564,281
698,6	564,138
699,1	562,624
699,5	557,224
699,9	555,538
700,4	554,424
700,8	550,452
701,3	547,51
701,7	539,052
702,1	529,71
702,6	528,995
703	517,338
703,5	514,795
703,9	507,31
704,3	502,395
704,8	498,595
705,2	499,595
705,6	492,367
706,1	492,452
706,5	486,595
707	484,367
707,4	484,11
707,8	483,31
708,3	476,995
708,7	474,767
709,2	468,481
709,6	469,052
710	463,852
710,5	459,195
710,9	457,481
711,3	454,824
711,8	455,881
712,2	456,424
712,7	451,852
713,1	448,767
713,5	439,338
714	432,652
714,4	429,595
714,8	426,052
715,3	421,852
715,7	415,967
716,2	411,252
716,6	414,367
717	407,824
717,5	399,452
717,9	393,624
718,3	390,481
718,8	391,195
719,2	384,31
719,7	384,881
720,1	385,51
720,5	388,681
721	386,31
721,4	383,452
721,8	377,481
722,3	376,452
722,7	371,452
723,2	367,538
723,6	361,995
724	357,967
724,5	352,481
724,9	349,852
725,3	350,11
725,8	344,024
726,2	339,338
726,7	341,452
727,1	338,081
727,5	333,595
728	332,338
728,4	330,652
728,8	328,824
729,3	331,681
729,7	321,367
730,1	318,081
730,6	321,224
731	318,71
731,5	317,281
731,9	314,138
732,3	305,71
732,8	311,11
733,2	316,281
733,6	315,081
734,1	313,681
734,5	305,71
734,9	304,595
735,4	300,51
735,8	294,824
736,3	289,224
736,7	283,481
737,1	284,624
737,6	290,624
738	291,452
738,4	294,081
738,9	298,252
739,3	296,281
739,7	299,167
740,2	291,595
740,6	284,824
741,1	281,31
741,5	275,681
741,9	267,024
742,4	264,624
742,8	259,824
743,2	256,652
743,7	255,938
744,1	254,567
744,5	257,767
745	259,567
745,4	257,167
745,8	257,852
746,3	256,452
746,7	260,71
747,2	254,767
747,6	256,395
748	249,595
748,5	245,338
748,9	241,995
749,3	246,31
749,8	244,624
750,2	241,595
750,6	239,938
751,1	242,195
751,5	242,71
751,9	242,738
752,4	234,881
752,8	225,11
753,3	225,881
753,7	221,652
754,1	217,395
754,6	215,167
755	212,224
755,4	213,967
755,9	217,71
756,3	220,252
756,7	216,052
757,2	215,767
757,6	217,11
758	215,167
758,5	215,024
758,9	210,681
759,3	207,167
759,8	203,024
760,2	201,938
760,6	199,024
761,1	195,681
761,5	197,738
761,9	193,338
762,4	192,081
762,8	196,51
763,3	194,338
763,7	188,338
764,1	186,31
764,6	178,652
765	184,138
765,4	180,31
765,9	177,567
766,3	175,481
766,7	179,11
767,2	182,224
767,6	187,538
768	186,167
768,5	189,995
768,9	185,681
769,3	191,195
769,8	189,338
770,2	183,681
770,6	175,595
771,1	171,567
771,5	166,595
771,9	171,681
772,4	165,681
772,8	161,852
773,2	166,367
773,7	167,281
774,1	165,938
774,5	169,024
775	166,195
775,4	169,681
775,8	172,995
776,3	172,31
776,7	167,767
777,1	162,652
777,6	159,167
778	157,052
778,4	149,852
778,9	149,624
779,3	147,452
779,7	149,824
780,2	151,224
780,6	151,538
781	151,338
781,5	152,052
781,9	147,938
782,3	147,11
782,8	149,052
783,2	155,567
783,6	160,224
784,1	158,624
784,5	160,738
784,9	158,652
785,4	153,767
785,8	155,51
786,2	151,824
786,7	143,652
787,1	143,71
787,5	142,11
788	146,938
788,4	144,31
788,8	140,852
789,3	139,681
789,7	141,967
790,1	137,624
790,6	136,395
791	133,938
791,4	131,795
791,9	131,824
792,3	130,224
792,7	129,138
793,2	129,11
793,6	126,452
794	122,338
794,5	129,167
794,9	124,824
795,3	122,167
795,8	119,367
796,2	117,024
796,6	114,138
797,1	119,11
797,5	118,395
797,9	116,481
798,4	117,881
798,8	120,71
799,2	121,538
799,7	125,195
800,1	122,11
800,5	117,738
801	115,652
801,4	112,224
801,8	111,424
802,2	115,452
802,7	116,31
803,1	115,024
803,5	114,224
804	117,252
804,4	114,51
804,8	108,281
805,3	107,138
805,7	100,252
806,1	98,652
806,6	97,31
807	96,31
807,4	97,995
807,9	100,51
808,3	99,252
808,7	99,452
809,2	102,138
809,6	100,938
810	102,767
810,4	101,938
810,9	100,452
811,3	97,852
811,7	100,252
812,2	97,938
812,6	96,795
813	94,31
813,5	92,081
813,9	91,281
814,3	90,852
814,8	87,195
815,2	84,852
815,6	84,652
816,1	83,167
816,5	84,852
816,9	80,652
817,3	81,424
817,8	80,938
818,2	81,138
818,6	82,395
819,1	83,652
819,5	82,424
819,9	87,081
820,4	85,167
820,8	88,795
821,2	86,852
821,7	86,395
822,1	83,51
822,5	86,052
822,9	84,167
823,4	82,224
823,8	77,995
824,2	77,71
824,7	76,452
825,1	77,395
825,5	71,681
826	72,252
826,4	73,881
826,8	66,51
827,3	66,595
827,7	71,424
828,1	70,995
828,5	72,081
829	67,338
829,4	65,881
829,8	73,91
830,3	70,338
830,7	64,252
831,1	65,652
831,6	62,024
832	58,652
832,4	55,081
832,8	54,367
833,3	55,624
833,7	54,281
834,1	50,31
834,6	52,567
835	57,91
835,4	64,881
835,8	62,281
836,3	60,938
836,7	59,824
837,1	54,652
837,6	53,367
838	55,395
838,4	47,481
838,9	49,224
839,3	50,138
839,7	51,081
840,1	58,681
840,6	60,138
841	56,967
841,4	58,11
841,9	55,481
842,3	53,681
842,7	55,395
843,1	51,252
843,6	53,91
844	53,652
844,4	55,567
844,9	57,024
845,3	59,938
845,7	61,481
846,2	59,967
846,6	55,11
847	51,881
847,4	50,167
847,9	50,11
848,3	48,51
848,7	44,567
849,2	44,51
849,6	45,167
850	44,481
850,4	45,167
850,9	42,367
851,3	39,652
851,7	41,081
852,2	41,195
852,6	38,881
853	40,938
853,4	37,938
853,9	44,995
854,3	50,224
854,7	49,681
855,2	46,624
855,6	50,624
856	46,824
856,4	49,91
856,9	46,71
857,3	40,71
857,7	38,995
858,2	40,252
858,6	39,595
859	41,881
859,4	40,31
859,9	39,595
860,3	43,195
860,7	44,138
861,1	45,224
861,6	41,252
862	42,967
862,4	42,452
862,9	36,395
863,3	37,938
863,7	36,738
864,1	39,195
864,6	43,71
865	43,281
865,4	42,967
865,9	48,624
866,3	45,51
866,7	45,281
867,1	41,452
867,6	32,195
868	25,738
868,4	24,224
868,8	21,71
869,3	22,081
869,7	22,081
870,1	22,652
870,6	32,71
871	-6,405
871,4	-1,833
871,8	1,195
872,3	-5,319
872,7	-7,462
873,1	-6,462
873,5	-13,719
874	30,424
874,4	27,595
874,8	22,652
875,3	28,967
875,7	25,052
876,1	20,738
876,5	24,681
877	19,595
877,4	18,081
877,8	16,681
878,2	11,967
878,7	16,395
879,1	17,967
879,5	18,681
879,9	16,595
880,4	16,795
880,8	19,538
881,2	22,738
881,7	22,624
882,1	27,595
882,5	26,938
882,9	32,538
883,4	29,967
883,8	27,424
884,2	27,195
884,6	25,138
885,1	18,538
885,5	20,11
885,9	16,252
886,3	15,367
886,8	16,881
887,2	17,024
887,6	16,452
888	21,338
888,5	16,052
888,9	16,395
889,3	22,567
889,8	20,738
890,2	17,281
890,6	16,652
891	14,452
891,5	11,595
891,9	12,052
892,3	6,081
892,7	5,367
893,2	7,481
893,6	7,052
894	5,024
894,4	6,252
894,9	3,738
895,3	3,681
895,7	8,167
896,1	6,31
896,6	9,795
897	8,452
897,4	9,995
897,8	15,252
898,3	14,881
898,7	5,738
899,1	3,681
899,5	4,31
900	9,681
900,4	11,738
900,8	14,252
901,2	20,824
901,7	30,024
902,1	34,738
902,5	34,11
902,9	30,824
903,4	28,252
903,8	21,281
904,2	14,138
904,6	10,081
905,1	8,738
905,5	8,224
905,9	8,652
906,3	9,91
906,8	10,51
907,2	11,195
907,6	12,51
908	11,281
908,5	12,51
908,9	13,967
909,3	12,195
909,7	14,824
910,2	18,681
910,6	21,567
911	21,481
911,4	21,167
911,9	17,338
912,3	18,367
912,7	17,31
913,1	14,338
913,6	10,138
914	10,824
914,4	7,281
914,8	8,024
915,3	13,452
915,7	17,081
916,1	20,481
916,5	20,538
916,9	23,281
917,4	22,252
917,8	22,31
918,2	16,71
918,6	14,795
919,1	10,395
919,5	13,31
919,9	11,824
920,3	18,367
920,8	17,424
921,2	16,995
921,6	17,481
922	17,824
922,5	14,624
922,9	16,024
923,3	12,395
923,7	9,31
924,2	11,167
924,6	9,967
925	15,995
925,4	15,652
925,8	10,995
926,3	13,852
926,7	22,452
927,1	25,424
927,5	26,367
928	24,652
928,4	26,71
928,8	27,195
929,2	27,252
929,7	22,652
930,1	16,795
930,5	18,11
930,9	15,967
931,3	16,424
931,8	14,652
932,2	12,338
932,6	16,567
933	16,252
933,5	12,167
933,9	8,624
934,3	2,224
934,7	4,224
935,2	-1,433
935,6	-6,005
936	0,024
936,4	1,824
936,8	5,395
937,3	11,995
937,7	12,595
938,1	16,967
938,5	16,395
939	12,71
939,4	16,967
939,8	17,624
940,2	14,395
940,6	11,481
941,1	10,424
941,5	12,281
941,9	11,081
942,3	3,738
942,8	-0,576
943,2	3,852
943,6	7,052
944	4,252
944,4	2,052
944,9	-1,033
945,3	-0,005
945,7	2,624
946,1	-7,776
946,6	-7,49
947	-2,633
947,4	-1,719
947,8	-2,233
948,2	0,167
948,7	-1,176
949,1	5,052
949,5	3,424
949,9	2,767
950,3	5,367
950,8	5,395
951,2	4,652
951,6	5,024
952	6,11
952,5	9,281
952,9	6,624
953,3	3,824
953,7	4,967
954,1	5,624
954,6	4,081
955	4,338
955,4	3,91
955,8	2,91
956,2	0,91
956,7	8,624
957,1	7,881
957,5	7,767
957,9	5,481
958,3	3,595
958,8	7,824
959,2	8,338
959,6	4,081
960	4,595
960,5	9,11
960,9	12,595
961,3	13,31
961,7	11,967
962,1	13,11
962,6	12,252
963	16,024
963,4	15,91
963,8	14,224
964,2	14,195
964,7	10,252
965,1	15,195
965,5	13,852
965,9	9,081
966,3	10,738
966,8	12,424
967,2	13,167
967,6	18,252
968	12,738
968,4	16,052
968,9	14,995
969,3	13,824
969,7	16,681
970,1	13,795
970,5	13,71
971	12,91
971,4	10,281
971,8	10,738
972,2	6,967
972,6	4,052
973,1	6,938
973,5	3,024
973,9	5,167
974,3	7,567
974,7	7,424
975,2	2,995
975,6	2,195
976	-4,319
976,4	-3,49
976,8	-1,005
977,3	-0,805
977,7	-0,29
978,1	0,31
978,5	-0,548
978,9	2,11
979,4	3,881
979,8	-1,376
980,2	-2,833
980,6	-4,776
981	-1,49
981,5	-6,833
981,9	-2,176
982,3	1,081
982,7	-0,405
983,1	-0,29
983,6	-1,033
984	-2,862
984,4	6,167
984,8	4,252
985,2	0,91
985,6	2,91
986,1	2,738
986,5	7,995
986,9	7,938
987,3	9,681
987,7	2,395
988,2	0,795
988,6	3,167
989	3,338
989,4	0,681
989,8	2,938
990,3	-3,776
990,7	5,424
991,1	3,995
991,5	7,424
991,9	6,881
992,3	8,252
992,8	5,881
993,2	5,252
993,6	-0,348
994	0,852
994,4	-0,548
994,9	1,452
995,3	6,167
995,7	14,91
996,1	16,538
996,5	17,167
996,9	15,395
997,4	9,538
997,8	8,852
998,2	2,11
998,6	-6,09
999	-7,976
999,5	-4,919
999,9	0,824
1000,3	2,424
1000,7	2,624
1001,1	4,195
1001,5	4,024
1002	3,224
1002,4	-0,833
1002,8	-1,976
1003,2	-5,319
1003,6	-3,29
1004	-1,176
1004,5	0,31
1004,9	2,995
1005,3	5,824
1005,7	5,281
1006,1	9,681
1006,6	5,167
1007	1,824
1007,4	5,481
1007,8	2,852
1008,2	6,481
1008,6	1,595
1009,1	0,938
1009,5	6,452
1009,9	9,881
1010,3	3,281
1010,7	4,624
1011,1	-0,005
1011,6	9,138
1012	9,481
1012,4	5,824
1012,8	2,738
1013,2	4,395
1013,6	7,052
1014,1	5,11
1014,5	0,281
1014,9	2,795
1015,3	4,624
1015,7	3,852
1016,1	8,052
1016,6	6,281
1017	10,081
1017,4	10,338
1017,8	9,91
1018,2	0,195
1018,6	-0,033
1019,1	-4,319
1019,5	-2,919
1019,9	-5,29
1020,3	-9,176
1020,7	-15,719
1021,1	-14,348
1021,6	-10,119
1022	-6,69
1022,4	-9,405
1022,8	-14,348
1023,2	-8,119
1023,6	-1,233
1024,1	1,11
1024,5	-3,862
1024,9	-6,576
1025,3	-6,233
1025,7	0,052
1026,1	-3,748
1026,6	-10,319
1027	-4,148
1027,4	-6,005
1027,8	-2,233
1028,2	1,224
1028,6	0,281
1029	0,51
1029,5	2,167
1029,9	-4,262
1030,3	-1,976
1030,7	0,51
1031,1	-0,862
1031,5	0,71
1032	-2,148
1032,4	7,71
1032,8	11,11
1033,2	12,424
1033,6	10,252
1034	8,138
1034,4	8,452
1034,9	12,824
1035,3	9,167
1035,7	8,224
1036,1	14,395
1036,5	10,052
1036,9	13,567
1037,4	15,024
1037,8	17,652
1038,2	17,738
1038,6	15,595
1039	7,624
1039,4	9,367
1039,8	11,252
1040,3	12,681
1040,7	10,795
1041,1	6,738
1041,5	9,024
1041,9	10,824
1042,3	11,538
1042,7	8,024
1043,2	8,367
1043,6	2,481
1044	3,538
1044,4	9,195
1044,8	10,052
1045,2	10,31
1045,6	10,881
1046,1	10,252
1046,5	14,052
1046,9	14,51
1047,3	4,71
1047,7	5,024
1048,1	3,795
1048,5	-2,319
1049	-5,262
1049,4	-3,69
1049,8	-7,233
1050,2	-1,89
1050,6	-6,662
1051	-1,833
1051,4	1,11
1051,9	-4,89
1052,3	-5,262
1052,7	1,767
1053,1	1,71
1053,5	2,167
1053,9	-1,833
1054,3	-1,462
1054,8	6,167
1055,2	7,167
1055,6	1,938
1056	2,081
1056,4	10,024
1056,8	12,624
1057,2	12,224
1057,6	4,738
1058,1	4,567
1058,5	-0,233
1058,9	2,081
1059,3	2,395
1059,7	2,738
1060,1	7,138
1060,5	17,167
1061	17,967
1061,4	23,681
1061,8	20,281
1062,2	17,738
1062,6	12,195
1063	8,367
1063,4	3,91
1063,8	1,252
1064,3	5,224
1064,7	6,367
1065,1	5,652
1065,5	7,567
1065,9	13,052
1066,3	15,452
1066,7	20,738
1067,1	20,71
1067,6	24,481
1068	27,081
1068,4	30,281
1068,8	26,481
1069,2	22,424
1069,6	18,538
1070	17,367
1070,4	14,481
1070,9	9,852
1071,3	9,71
1071,7	10,395
1072,1	11,852
1072,5	12,195
1072,9	13,767
1073,3	9,224
1073,7	7,91
1074,2	5,395
1074,6	3,224
1075	0,538
1075,4	2,11
1075,8	-1,005
1076,2	5,71
1076,6	7,71
1077	7,738
1077,5	11,452
1077,9	15,052
1078,3	8,624
1078,7	10,052
1079,1	5,567
1079,5	7,281
1079,9	6,452
1080,3	-1,205
1080,7	-0,805
1081,2	2,281
1081,6	2,31
1082	-0,405
1082,4	-3,605
1082,8	-0,433
1083,2	4,738
1083,6	0,824
1084	2,824
1084,5	0,224
1084,9	1,281
1085,3	-0,919
1085,7	-4,433
1086,1	-3,576
1086,5	-5,548
1086,9	-1,89
1087,3	0,395
1087,7	1,138
1088,2	3,024
1088,6	2,881
1089	3,595
1089,4	9,452
1089,8	2,681
1090,2	-2,833
1090,6	0,195
1091	4,624
1091,4	5,538
1091,9	5,452
1092,3	2,395
1092,7	-2,233
1093,1	3,852
1093,5	2,967
1093,9	1,452
1094,3	1,71
1094,7	3,624
1095,1	6,938
1095,5	14,481
1096	13,081
1096,4	13,367
1096,8	15,852
1097,2	16,081
1097,6	11,252
1098	10,138
1098,4	9,338
1098,8	4,681
1099,2	2,681
1099,6	-0,319
1100,1	0,824
1100,5	1,795
1100,9	-2,576
1101,3	-4,119
1101,7	2,51
1102,1	7,824
1102,5	7,852
1102,9	5,852
1103,3	0,395
1103,7	6,538
1104,2	8,367
1104,6	6,71
1105	2,852
1105,4	1,795
1105,8	1,224
1106,2	6,824
1106,6	4,138
1107	3,51
1107,4	1,833
1107,8	0,727
1108,3	-0,083
