Data from Subt2_254.txt Node
Date: Sat Aug 26 18:59:48 MSK 2023
User: vat
Spectrometer: MAYP114033
Trigger mode: 0
Integration Time (sec): 1,000000E0
Scans to average: 5
Electric dark correction enabled: true
Nonlinearity correction enabled: false
Boxcar width: 3
XAxis mode: Wavelengths
Number of Pixels in Spectrum: 2068
>>>>>Begin Spectral Data<<<<<
199,4	-0,617
199,9	2,353
200,4	0,933
200,8	2,433
201,3	2,433
201,8	3,462
202,2	-0,538
202,7	3,805
203,2	0,205
203,6	1,033
204,1	-0,281
204,6	0,948
205	4,176
205,5	9,662
206	6,776
206,4	8,662
206,9	8,233
207,4	10,176
207,8	8,49
208,3	6,662
208,8	6,233
209,2	7,433
209,7	6,49
210,2	7,776
210,6	8,69
211,1	12,433
211,5	8,233
212	7,033
212,5	3,89
212,9	4,462
213,4	6,519
213,9	2,519
214,3	0,776
214,8	2,433
215,3	2,69
215,7	7,033
216,2	9,976
216,7	9,262
217,1	10,033
217,6	9,976
218,1	11,948
218,5	12,062
219	2,633
219,5	2,776
219,9	1,29
220,4	6,548
220,9	4,148
221,3	0,09
221,8	1,29
222,3	7,119
222,7	8,69
223,2	7,348
223,6	3,976
224,1	6,433
224,6	12,919
225	9,776
225,5	10,519
226	7,576
226,4	8,662
226,9	6,948
227,4	8,319
227,8	1,919
228,3	1,033
228,8	1,405
229,2	2,462
229,7	1,319
230,2	4,462
230,6	3,948
231,1	14,119
231,5	18,033
232	17,262
232,5	15,405
232,9	16,719
233,4	14,69
233,9	11,519
234,3	6,633
234,8	6,976
235,3	6,433
235,7	6,89
236,2	8,519
236,7	6,776
237,1	10,948
237,6	4,548
238,1	5,805
238,5	4,319
239	4,29
239,4	5,405
239,9	4,29
240,4	4,005
240,8	9,376
241,3	1,948
241,8	1,548
242,2	-0,081
242,7	-3,452
243,2	-0,795
243,6	-7,795
244,1	-8,052
244,6	-2,624
245	-1,767
245,5	-0,71
245,9	-3,824
246,4	-7,024
246,9	-2,51
247,3	-4,852
247,8	-4,881
248,3	-1,767
248,7	0,233
249,2	5,348
249,7	10,948
250,1	11,548
250,6	13,948
251	14,233
251,5	13,776
252	9,719
252,4	11,09
252,9	5,976
253,4	3,405
253,8	1,633
254,3	5,319
254,8	8,033
255,2	6,233
255,7	2,948
256,1	6,033
256,6	8,033
257,1	11,948
257,5	4,89
258	-2,767
258,5	2,205
258,9	4,319
259,4	3,005
259,9	2,405
260,3	-1,224
260,8	0,519
261,2	3,548
261,7	4,062
262,2	1,49
262,6	1,462
263,1	6,548
263,6	6,576
264	9,348
264,5	14,09
264,9	9,148
265,4	12,89
265,9	10,09
266,3	7,462
266,8	8,719
267,3	6,776
267,7	3,176
268,2	8,89
268,7	4,633
269,1	10,805
269,6	7,948
270	9,69
270,5	7,462
271	9,005
271,4	4,119
271,9	4,548
272,4	3,605
272,8	3,633
273,3	-0,967
273,7	1,376
274,2	0,833
274,7	5,919
275,1	7,233
275,6	5,919
276,1	7,605
276,5	12,548
277	10,548
277,4	7,833
277,9	4,205
278,4	3,119
278,8	4,49
279,3	3,119
279,8	4,233
280,2	7,605
280,7	14,176
281,1	13,948
281,6	16,119
282,1	16,633
282,5	17,09
283	12,233
283,4	9,976
283,9	6,033
284,4	12,062
284,8	10,919
285,3	8,69
285,8	10,005
286,2	11,033
286,7	12,748
287,1	12,262
287,6	8,776
288,1	5,976
288,5	6,348
289	3,233
289,5	4,205
289,9	1,119
290,4	1,948
290,8	1,376
291,3	4,262
291,8	6,376
292,2	10,833
292,7	13,862
293,1	14,633
293,6	15,776
294,1	15,033
294,5	15,662
295	14,719
295,5	9,862
295,9	6,005
296,4	5,319
296,8	3,405
297,3	2,633
297,8	-0,31
298,2	-3,338
298,7	1,319
299,1	4,433
299,6	1,976
300,1	4,09
300,5	8,09
301	8,69
301,5	11,319
301,9	11,176
302,4	5,233
302,8	10,548
303,3	10,376
303,8	3,576
304,2	-0,395
304,7	-0,652
305,1	-7,367
305,6	-2,51
306,1	4,205
306,5	3,062
307	10,233
307,4	17,062
307,9	17,719
308,4	22,062
308,8	15,49
309,3	8,062
309,8	5,519
310,2	2,748
310,7	-2,395
311,1	-5,681
311,6	-6,481
312,1	-3,167
312,5	-0,51
313	2,376
313,4	-0,938
313,9	2,776
314,4	1,548
314,8	-1,252
315,3	-0,995
315,7	-7,11
316,2	-10,081
316,7	-10,624
317,1	-4,024
317,6	2,005
318	9,29
318,5	11,062
319	13,062
319,4	14,89
319,9	19,69
320,3	17,09
320,8	15,919
321,3	14,89
321,7	16,148
322,2	17,176
322,6	18,348
323,1	13,862
323,6	9,948
324	7,49
324,5	5,976
324,9	4,519
325,4	3,176
325,9	3,976
326,3	11,49
326,8	13,805
327,2	12,662
327,7	12,262
328,2	10,319
328,6	14,033
329,1	6,833
329,5	2,833
330	-0,71
330,5	1,433
330,9	1,119
331,4	3,919
331,8	-1,51
332,3	4,205
332,8	6,005
333,2	7,433
333,7	10,833
334,1	13,319
334,6	7,405
335,1	3,119
335,5	2,205
336	-4,11
336,4	-2,51
336,9	0,033
337,4	-0,138
337,8	4,405
338,3	14,862
338,7	17,005
339,2	14,662
339,7	14,433
340,1	6,205
340,6	4,348
341	3,319
341,5	0,49
342	-3,51
342,4	4,49
342,9	3,833
343,3	5,719
343,8	7,148
344,2	8,948
344,7	12,719
345,2	13,262
345,6	11,605
346,1	12,862
346,5	10,69
347	7,662
347,5	4,662
347,9	2,919
348,4	3,319
348,8	4,376
349,3	5,119
349,8	8,49
350,2	13,348
350,7	11,348
351,1	8,519
351,6	14,576
352	18,033
352,5	19,519
353	27,233
353,4	29,605
353,9	40,262
354,3	51,09
354,8	55,062
355,3	68,148
355,7	83,69
356,2	100,033
356,6	121,605
357,1	145,462
357,5	169,976
358	200,748
358,5	229,405
358,9	265,89
359,4	303,833
359,8	347,29
360,3	399,633
360,8	454,262
361,2	517,633
361,7	588,033
362,1	664,033
362,6	746,119
363	835,519
363,5	925,376
364	1030,805
364,4	1134,062
364,9	1236,605
365,3	1340,69
365,8	1436,548
366,3	1521,719
366,7	1606,005
367,2	1676,862
367,6	1730,062
368,1	1775,719
368,5	1800,29
369	1812,148
369,5	1816,433
369,9	1801,405
370,4	1771,919
370,8	1736,433
371,3	1682,948
371,7	1621,205
372,2	1552,919
372,7	1477,948
373,1	1400,862
373,6	1317,776
374	1237,348
374,5	1152,605
374,9	1075,948
375,4	999,833
375,9	923,805
376,3	848,405
376,8	779,033
377,2	711,433
377,7	653,405
378,2	591,233
378,6	541,348
379,1	492,862
379,5	454,69
380	420,033
380,4	383,576
380,9	352,262
381,4	324,948
381,8	301,233
382,3	287,205
382,7	265,633
383,2	243,776
383,6	232,548
384,1	219,462
384,6	207,948
385	192,576
385,5	175,462
385,9	162,462
386,4	153,462
386,8	141,005
387,3	130,919
387,7	125,119
388,2	119,576
388,7	111,805
389,1	106,548
389,6	101,862
390	95,576
390,5	89,519
390,9	85,776
391,4	78,519
391,9	75,262
392,3	71,805
392,8	63,633
393,2	59,148
393,7	58,09
394,1	49,519
394,6	46,033
395,1	46,462
395,5	40,548
396	42,148
396,4	41,405
396,9	37,805
397,3	45,69
397,8	49,89
398,2	46,833
398,7	48,005
399,2	44,805
399,6	42,748
400,1	40,405
400,5	29,748
401	24,348
401,4	17,176
401,9	21,205
402,4	22,49
402,8	19,633
403,3	25,805
403,7	24,348
404,2	25,548
404,6	30,862
405,1	26,348
405,5	24,49
406	29,119
406,5	27,576
406,9	34,548
407,4	34,119
407,8	33,433
408,3	39,119
408,7	40,805
409,2	40,005
409,6	42,176
410,1	42,805
410,6	48,433
411	51,405
411,5	47,148
411,9	51,405
412,4	56,233
412,8	56,262
413,3	58,462
413,7	55,119
414,2	57,148
414,7	61,433
415,1	66,948
415,6	70,462
416	71,833
416,5	71,519
416,9	76,69
417,4	81,348
417,8	87,062
418,3	85,119
418,8	87,69
419,2	91,662
419,7	96,748
420,1	99,69
420,6	98,348
421	92,319
421,5	94,805
421,9	94,033
422,4	93,605
422,8	94,633
423,3	91,29
423,8	92,719
424,2	94,719
424,7	91,348
425,1	91,262
425,6	90,833
426	87,776
426,5	90,662
426,9	92,719
427,4	94,548
427,9	92,805
428,3	96,862
428,8	95,376
429,2	93,376
429,7	91,49
430,1	89,605
430,6	89,69
431	93,376
431,5	92,948
431,9	91,548
432,4	93,69
432,8	99,148
433,3	100,405
433,8	102,233
434,2	104,376
434,7	107,176
435,1	112,233
435,6	115,433
436	115,976
436,5	121,348
436,9	121,805
437,4	121,69
437,8	119,376
438,3	122,776
438,8	128,29
439,2	132,633
439,7	136,748
440,1	147,233
440,6	160,119
441	164,576
441,5	173,919
441,9	185,662
442,4	195,062
442,8	202,576
443,3	209,69
443,7	214,376
444,2	229,519
444,7	237,89
445,1	240,976
445,6	247,69
446	258,919
446,5	265,405
446,9	270,862
447,4	276,862
447,8	290,405
448,3	304,576
448,7	315,49
449,2	328,69
449,6	342,805
450,1	360,119
450,6	373,748
451	384,005
451,5	394,433
451,9	415,005
452,4	429,005
452,8	443,319
453,3	462,319
453,7	477,119
454,2	495,69
454,6	516,062
455,1	527,69
455,5	541,148
456	562,49
456,4	576,205
456,9	599,348
457,3	616,776
457,8	628,719
458,3	651,433
458,7	670,148
459,2	691,633
459,6	710,662
460,1	731,29
460,5	748,976
461	778,205
461,4	794,319
461,9	817,148
462,3	835,062
462,8	858,748
463,2	878,948
463,7	903,29
464,1	927,662
464,6	958,49
465	986,233
465,5	1013,833
466	1043,262
466,4	1068,405
466,9	1099,433
467,3	1123,433
467,8	1149,519
468,2	1178,833
468,7	1205,719
469,1	1236,348
469,6	1267,519
470	1294,519
470,5	1323,176
470,9	1348,005
471,4	1370,233
471,8	1397,89
472,3	1422,033
472,7	1450,233
473,2	1473,119
473,6	1499,976
474,1	1530,262
474,5	1555,29
475	1581,205
475,4	1607,176
475,9	1638,233
476,4	1669,833
476,8	1699,519
477,3	1723,976
477,7	1753,033
478,2	1782,719
478,6	1805,548
479,1	1821,919
479,5	1844,748
480	1870,89
480,4	1893,948
480,9	1919,633
481,3	1937,433
481,8	1964,49
482,2	1985,662
482,7	2005,948
483,1	2022,805
483,6	2043,948
484	2068,89
484,5	2095,976
484,9	2112,49
485,4	2138,576
485,8	2161,919
486,3	2180,148
486,7	2200,519
487,2	2218,148
487,6	2233,548
488,1	2250,405
488,5	2264,348
489	2284,233
489,4	2299,433
489,9	2312,948
490,4	2324,233
490,8	2342,662
491,3	2366,233
491,7	2377,605
492,2	2391,348
492,6	2409,205
493,1	2420,89
493,5	2428,205
494	2430,605
494,4	2435,519
494,9	2449,833
495,3	2463,862
495,8	2474,662
496,2	2489,719
496,7	2500,776
497,1	2528,205
497,6	2542,89
498	2549,033
498,5	2555,09
498,9	2554,976
499,4	2560,09
499,8	2581,348
500,3	2579,833
500,7	2578,976
501,2	2588,89
501,6	2589,033
502,1	2604,805
502,5	2615,519
503	2618,262
503,4	2624,405
503,9	2636,005
504,3	2647,69
504,8	2658,348
505,2	2666,176
505,7	2666,262
506,1	2678,662
506,6	2678,548
507	2686,49
507,5	2689,576
507,9	2692,519
508,4	2698,119
508,8	2708,29
509,3	2704,605
509,7	2716,005
510,2	2722,09
510,6	2723,862
511,1	2727,576
511,5	2733,776
512	2735,833
512,4	2739,519
512,9	2740,462
513,3	2741,576
513,8	2743,262
514,2	2749,719
514,7	2748,462
515,1	2754,719
515,6	2754,69
516	2757,176
516,5	2761,49
516,9	2770,348
517,4	2780,805
517,8	2790,605
518,3	2800,49
518,7	2811,376
519,2	2814,376
519,6	2824,519
520,1	2827,89
520,5	2831,176
521	2831,576
521,4	2835,719
521,9	2838,576
522,3	2850,005
522,8	2851,576
523,2	2863,29
523,7	2866,062
524,1	2874,862
524,6	2878,833
525	2886,033
525,5	2892,576
525,9	2901,605
526,4	2905,576
526,8	2908,062
527,3	2912,462
527,7	2925,205
528,2	2926,833
528,6	2932,005
529,1	2935,748
529,5	2944,776
530	2958,69
530,4	2968,49
530,9	2969,519
531,3	2983,262
531,8	2990,262
532,2	2997,29
532,6	2999,719
533,1	3003,433
533,5	3010,205
534	3017,69
534,4	3026,29
534,9	3033,376
535,3	3037,89
535,8	3046,576
536,2	3061,633
536,7	3069,033
537,1	3076,89
537,6	3085,005
538	3096,09
538,5	3102,062
538,9	3106,376
539,4	3106,119
539,8	3115,262
540,3	3120,005
540,7	3122,49
541,2	3127,662
541,6	3144,09
542,1	3152,576
542,5	3164,748
543	3170,376
543,4	3177,976
543,9	3191,005
544,3	3199,176
544,8	3203,976
545,2	3212,033
545,7	3218,519
546,1	3230,719
546,5	3241,319
547	3253,776
547,4	3264,119
547,9	3268,662
548,3	3285,69
548,8	3293,376
549,2	3297,976
549,7	3310,605
550,1	3311,519
550,6	3317,033
551	3326,519
551,5	3324,805
551,9	3327,89
552,4	3332,833
552,8	3338,719
553,3	3340,062
553,7	3346,633
554,2	3361,062
554,6	3374,633
555,1	3388,062
555,5	3399,719
555,9	3405,633
556,4	3417,862
556,8	3425,433
557,3	3423,176
557,7	3426,176
558,2	3424,748
558,6	3428,233
559,1	3428,405
559,5	3434,29
560	3442,805
560,4	3453,89
560,9	3454,89
561,3	3463,776
561,8	3464,862
562,2	3474,662
562,7	3480,862
563,1	3488,29
563,6	3486,862
564	3496,119
564,4	3496,433
564,9	3506,805
565,3	3507,833
565,8	3509,719
566,2	3512,462
566,7	3518,462
567,1	3520,633
567,6	3524,519
568	3517,262
568,5	3520,462
568,9	3517,49
569,4	3515,89
569,8	3516,319
570,3	3515,69
570,7	3516,405
571,1	3524,805
571,6	3528,433
572	3534,89
572,5	3532,433
572,9	3531,205
573,4	3533,405
573,8	3541,605
574,3	3540,005
574,7	3536,262
575,2	3534,49
575,6	3534,748
576,1	3538,548
576,5	3545,09
576,9	3540,919
577,4	3539,49
577,8	3540,033
578,3	3538,462
578,7	3537,005
579,2	3536,205
579,6	3523,262
580,1	3515,176
580,5	3510,319
581	3508,462
581,4	3505,376
581,9	3499,548
582,3	3493,633
582,7	3496,176
583,2	3496,862
583,6	3494,005
584,1	3489,319
584,5	3485,548
585	3483,433
585,4	3472,49
585,9	3465,462
586,3	3461,005
586,8	3458,833
587,2	3449,062
587,6	3443,033
588,1	3438,719
588,5	3435,748
589	3432,205
589,4	3426,719
589,9	3416,89
590,3	3411,776
590,8	3407,462
591,2	3405,862
591,7	3400,548
592,1	3392,262
592,5	3388,233
593	3379,405
593,4	3373,948
593,9	3366,176
594,3	3357,033
594,8	3354,348
595,2	3350,376
595,7	3343,862
596,1	3346,033
596,6	3341,662
597	3339,805
597,4	3338,805
597,9	3332,262
598,3	3328,69
598,8	3318,805
599,2	3314,148
599,7	3307,919
600,1	3298,433
600,6	3290,69
601	3283,09
601,4	3283,148
601,9	3281,576
602,3	3268,548
602,8	3264,176
603,2	3257,062
603,7	3243,89
604,1	3240,862
604,6	3223,948
605	3211,233
605,4	3204,319
605,9	3187,89
606,3	3175,862
606,8	3163,776
607,2	3150,262
607,7	3140,09
608,1	3131,69
608,6	3123,005
609	3128,29
609,4	3122,519
609,9	3117,09
610,3	3105,605
610,8	3088,948
611,2	3081,462
611,7	3072,319
612,1	3052,262
612,6	3045,205
613	3036,29
613,4	3028,348
613,9	3020,548
614,3	3005,348
614,8	3002,748
615,2	2994,262
615,7	2981,005
616,1	2972,29
616,6	2955,833
617	2946,033
617,4	2936,233
617,9	2918,062
618,3	2906,576
618,8	2898,49
619,2	2886,405
619,7	2880,69
620,1	2867,919
620,5	2858,433
621	2847,719
621,4	2835,748
621,9	2824,148
622,3	2807,919
622,8	2800,576
623,2	2790,919
623,6	2779,176
624,1	2763,605
624,5	2747,605
625	2737,005
625,4	2729,519
625,9	2712,776
626,3	2696,948
626,8	2681,319
627,2	2668,833
627,6	2651,976
628,1	2633,833
628,5	2618,69
629	2601,405
629,4	2595,176
629,9	2581,433
630,3	2562,548
630,7	2554,976
631,2	2538,69
631,6	2523,29
632,1	2514,348
632,5	2495,69
633	2491,205
633,4	2485,005
633,8	2471,662
634,3	2462,233
634,7	2450,776
635,2	2431,89
635,6	2423,633
636,1	2403,919
636,5	2389,576
636,9	2377,433
637,4	2367,748
637,8	2352,148
638,3	2342,29
638,7	2324,262
639,2	2309,033
639,6	2295,748
640	2280,948
640,5	2263,005
640,9	2251,462
641,4	2243,376
641,8	2238,148
642,2	2228,919
642,7	2224,805
643,1	2217,005
643,6	2212,576
644	2201,862
644,5	2191,462
644,9	2180,176
645,3	2170,49
645,8	2153,09
646,2	2139,319
646,7	2119,976
647,1	2105,976
647,6	2097,633
648	2086,605
648,4	2073,719
648,9	2061,948
649,3	2052,348
649,8	2047,919
650,2	2040,976
650,6	2026,09
651,1	2014,176
651,5	2003,776
652	2000,09
652,4	1988,205
652,9	1976,033
653,3	1964,348
653,7	1950,719
654,2	1937,89
654,6	1926,833
655,1	1911,919
655,5	1907,719
655,9	1901,69
656,4	1892,062
656,8	1881,148
657,3	1871,119
657,7	1866,89
658,2	1850,49
658,6	1834,776
659	1817,805
659,5	1802,748
659,9	1793,748
660,4	1785,376
660,8	1767,519
661,2	1762,548
661,7	1752,376
662,1	1743,576
662,6	1733,033
663	1723,748
663,4	1711,376
663,9	1704,605
664,3	1692,09
664,8	1681,919
665,2	1668,662
665,6	1658,205
666,1	1649,605
666,5	1637,633
667	1624,948
667,4	1613,662
667,9	1600,633
668,3	1587,833
668,7	1578,49
669,2	1567,548
669,6	1560,519
670,1	1553,605
670,5	1541,633
670,9	1534,719
671,4	1527,09
671,8	1517,776
672,3	1508,748
672,7	1499,719
673,1	1485,605
673,6	1478,89
674	1471,776
674,5	1459,005
674,9	1449,748
675,3	1433,09
675,8	1424,319
676,2	1412,205
676,7	1401,319
677,1	1386,833
677,5	1376,805
678	1368,919
678,4	1368,662
678,9	1356,033
679,3	1349,662
679,7	1342,062
680,2	1330,29
680,6	1325,89
681,1	1319,976
681,5	1305,719
681,9	1300,062
682,4	1298,29
682,8	1290,748
683,3	1288,719
683,7	1281,319
684,1	1272,776
684,6	1265,462
685	1254,405
685,5	1237,948
685,9	1225,662
686,3	1214,719
686,8	1205,576
687,2	1196,005
687,7	1186,805
688,1	1179,433
688,5	1173,976
689	1172,205
689,4	1165,49
689,9	1156,576
690,3	1144,005
690,7	1139,862
691,2	1130,862
691,6	1123,062
692	1110,205
692,5	1103,776
692,9	1096,49
693,4	1092,776
693,8	1081,69
694,2	1071,233
694,7	1062,719
695,1	1055,719
695,6	1047,976
696	1039,976
696,4	1030,462
696,9	1022,376
697,3	1014,833
697,8	1009,205
698,2	1004,262
698,6	1000,062
699,1	993,09
699,5	991,176
699,9	981,548
700,4	972,948
700,8	965,948
701,3	957,805
701,7	945,005
702,1	937,805
702,6	928,062
703	929,862
703,5	928,033
703,9	922,29
704,3	915,805
704,8	909,805
705,2	906,833
705,6	904,176
706,1	896,005
706,5	888,49
707	886,09
707,4	883,519
707,8	877,148
708,3	872,919
708,7	863,862
709,2	856,548
709,6	851,005
710	845,548
710,5	834,805
710,9	831,233
711,3	820,605
711,8	814,405
712,2	806,29
712,7	800,462
713,1	794,662
713,5	791,662
714	789,49
714,4	784,233
714,8	781,176
715,3	774,49
715,7	772,405
716,2	761,119
716,6	756,976
717	744,062
717,5	740,319
717,9	735,89
718,3	732,948
718,8	725,976
719,2	719,176
719,7	710,719
720,1	711,662
720,5	709,662
721	703,348
721,4	697,548
721,8	695,462
722,3	692,005
722,7	693,005
723,2	682,719
723,6	669,89
724	661,262
724,5	655,605
724,9	648,605
725,3	641,033
725,8	631,405
726,2	629,748
726,7	626,348
727,1	625,09
727,5	621,148
728	613,69
728,4	610,376
728,8	605,919
729,3	597,462
729,7	596,433
730,1	592,633
730,6	591,605
731	586,376
731,5	585,062
731,9	581,576
732,3	581,833
732,8	576,69
733,2	573,119
733,6	566,319
734,1	569,348
734,5	564,976
734,9	562,09
735,4	558,776
735,8	550,776
736,3	547,748
736,7	545,776
737,1	540,119
737,6	538,205
738	533,89
738,4	532,405
738,9	532,176
739,3	525,348
739,7	520,176
740,2	513,776
740,6	514,033
741,1	515,262
741,5	506,376
741,9	504,405
742,4	507,29
742,8	509,548
743,2	506,776
743,7	494,976
744,1	490,976
744,5	488,262
745	484,805
745,4	474,605
745,8	468,09
746,3	468,49
746,7	468,605
747,2	461,376
747,6	462,548
748	463,348
748,5	463,662
748,9	456,605
749,3	453,119
749,8	453,605
750,2	452,176
750,6	446,976
751,1	447,405
751,5	444,405
751,9	448,49
752,4	449,69
752,8	443,462
753,3	440,576
753,7	435,748
754,1	424,348
754,6	418,805
755	411,233
755,4	400,862
755,9	399,433
756,3	395,748
756,7	394,433
757,2	391,405
757,6	389,89
758	389,09
758,5	388,148
758,9	382,805
759,3	380,319
759,8	379,548
760,2	379,805
760,6	377,033
761,1	374,233
761,5	369,262
761,9	363,176
762,4	360,062
762,8	354,148
763,3	350,633
763,7	348,805
764,1	347,833
764,6	350,29
765	359,548
765,4	355,976
765,9	352,662
766,3	351,405
766,7	346,005
767,2	342,348
767,6	338,69
768	328,776
768,5	324,919
768,9	327,262
769,3	325,148
769,8	324,233
770,2	322,49
770,6	317,119
771,1	319,519
771,5	323,719
771,9	320,69
772,4	317,976
772,8	314,748
773,2	310,862
773,7	309,462
774,1	300,862
774,5	289,405
775	289,005
775,4	288,49
775,8	288,548
776,3	288,433
776,7	283,033
777,1	280,69
777,6	287,062
778	283,862
778,4	279,576
778,9	279,69
779,3	275,833
779,7	278,576
780,2	281,433
780,6	276,09
781	268,833
781,5	263,919
781,9	261,205
782,3	256,748
782,8	254,833
783,2	250,719
783,6	255,862
784,1	258,319
784,5	259,633
784,9	256,833
785,4	258,662
785,8	257,49
786,2	257,833
786,7	252,49
787,1	249,862
787,5	248,548
788	245,519
788,4	242,433
788,8	242,319
789,3	237,462
789,7	235,233
790,1	235,405
790,6	235,348
791	231,748
791,4	234,605
791,9	228,348
792,3	225,776
792,7	224,833
793,2	219,033
793,6	217,005
794	220,348
794,5	212,49
794,9	213,405
795,3	214,519
795,8	210,348
796,2	212,176
796,6	211,376
797,1	208,462
797,5	207,348
797,9	202,148
798,4	198,976
798,8	196,548
799,2	192,662
799,7	190,576
800,1	186,919
800,5	187,29
801	189,69
801,4	187,89
801,8	188,748
802,2	187,376
802,7	184,548
803,1	187,348
803,5	184,976
804	180,662
804,4	183,662
804,8	183,148
805,3	185,033
805,7	184,69
806,1	176,262
806,6	178,29
807	178,062
807,4	171,405
807,9	164,405
808,3	160,405
808,7	156,29
809,2	162,376
809,6	162,29
810	162,405
810,4	164,062
810,9	164,89
811,3	165,119
811,7	165,262
812,2	167,548
812,6	163,433
813	162,805
813,5	162,976
813,9	162,176
814,3	160,719
814,8	162,948
815,2	153,005
815,6	149,576
816,1	148,376
816,5	146,49
816,9	146,89
817,3	146,719
817,8	150,205
818,2	153,348
818,6	152,605
819,1	152,433
819,5	148,862
819,9	150,548
820,4	148,376
820,8	140,09
821,2	137,348
821,7	139,176
822,1	134,89
822,5	140,976
822,9	139,433
823,4	139,462
823,8	140,633
824,2	139,405
824,7	131,29
825,1	126,633
825,5	117,69
826	112,062
826,4	110,862
826,8	105,09
827,3	106,89
827,7	108,662
828,1	115,976
828,5	115,948
829	109,89
829,4	106,605
829,8	101,89
830,3	97,148
830,7	98,833
831,1	95,148
831,6	96,462
832	101,376
832,4	101,319
832,8	110,09
833,3	107,348
833,7	105,776
834,1	103,662
834,6	101,062
835	102,119
835,4	105,033
835,8	98,69
836,3	100,405
836,7	101,89
837,1	100,433
837,6	101,176
838	99,433
838,4	95,719
838,9	95,919
839,3	92,576
839,7	93,119
840,1	86,348
840,6	85,548
841	86,233
841,4	89,319
841,9	88,919
842,3	89,89
842,7	87,633
843,1	91,548
843,6	92,862
844	85,919
844,4	85,405
844,9	88,405
845,3	88,119
845,7	84,833
846,2	83,119
846,6	79,233
847	83,719
847,4	82,976
847,9	75,576
848,3	75,776
848,7	75,719
849,2	75,376
849,6	70,576
850	71,719
850,4	70,719
850,9	77,29
851,3	76,233
851,7	77,233
852,2	77,233
852,6	86,033
853	85,033
853,4	80,033
853,9	73,576
854,3	73,948
854,7	73,033
855,2	70,89
855,6	64,89
856	60,462
856,4	58,348
856,9	55,633
857,3	54,376
857,7	56,29
858,2	64,405
858,6	66,119
859	66,719
859,4	67,719
859,9	71,348
860,3	69,405
860,7	67,29
861,1	63,405
861,6	62,776
862	66,005
862,4	68,205
862,9	69,976
863,3	70,176
863,7	67,805
864,1	67,433
864,6	64,376
865	60,976
865,4	57,519
865,9	57,805
866,3	52,976
866,7	53,948
867,1	48,862
867,6	50,633
868	48,319
868,4	46,548
868,8	45,633
869,3	51,09
869,7	55,148
870,1	55,89
870,6	52,976
871	2,319
871,4	9,805
871,8	4,976
872,3	4,605
872,7	-0,281
873,1	3,976
873,5	8,633
874	59,176
874,4	56,433
874,8	58,719
875,3	60,805
875,7	61,376
876,1	63,776
876,5	59,805
877	62,29
877,4	54,49
877,8	55,09
878,2	55,519
878,7	56,433
879,1	48,462
879,5	50,833
879,9	45,862
880,4	47,948
880,8	47,005
881,2	40,462
881,7	38,348
882,1	43,433
882,5	36,319
882,9	36,862
883,4	35,405
883,8	34,262
884,2	37,119
884,6	32,376
885,1	32,976
885,5	38,005
885,9	41,062
886,3	44,262
886,8	42,148
887,2	38,49
887,6	38,233
888	33,49
888,5	31,119
888,9	24,748
889,3	20,89
889,8	25,548
890,2	27,605
890,6	25,919
891	29,319
891,5	27,49
891,9	34,376
892,3	35,919
892,7	31,233
893,2	32,062
893,6	35,433
894	36,69
894,4	37,948
894,9	34,348
895,3	34,519
895,7	36,176
896,1	31,662
896,6	32,576
897	29,319
897,4	33,662
897,8	40,062
898,3	44,062
898,7	42,748
899,1	44,69
899,5	42,605
900	38,348
900,4	31,376
900,8	24,205
901,2	15,29
901,7	14,69
902,1	16,833
902,5	21,833
902,9	21,462
903,4	26,176
903,8	28,005
904,2	33,719
904,6	32,005
905,1	31,633
905,5	31,09
905,9	34,862
906,3	34,919
906,8	33,319
907,2	34,119
907,6	33,29
908	32,49
908,5	27,748
908,9	23,776
909,3	21,462
909,7	23,005
910,2	22,433
910,6	27,519
911	26,176
911,4	25,576
911,9	27,919
912,3	28,005
912,7	29,548
913,1	33,033
913,6	29,776
914	29,176
914,4	29,205
914,8	29,005
915,3	28,719
915,7	25,662
916,1	20,09
916,5	21,062
916,9	22,719
917,4	21,233
917,8	26,605
918,2	26,805
918,6	25,976
919,1	30,005
919,5	31,233
919,9	28,176
920,3	26,976
920,8	21,919
921,2	18,805
921,6	16,433
922	15,49
922,5	13,462
922,9	16,662
923,3	19,49
923,7	22,176
924,2	20,176
924,6	24,805
925	22,49
925,4	21,976
925,8	17,776
926,3	18,89
926,7	14,262
927,1	16,919
927,5	17,805
928	15,319
928,4	16,462
928,8	20,09
929,2	18,605
929,7	21,633
930,1	22,49
930,5	18,376
930,9	22,376
931,3	21,662
931,8	19,948
932,2	23,976
932,6	18,262
933	13,376
933,5	15,548
933,9	15,605
934,3	16,776
934,7	15,29
935,2	13,605
935,6	14,605
936	15,919
936,4	16,633
936,8	17,462
937,3	13,919
937,7	15,862
938,1	15,948
938,5	16,205
939	16,062
939,4	16,233
939,8	12,548
940,2	9,148
940,6	9,119
941,1	8,205
941,5	14,205
941,9	16,176
942,3	14,862
942,8	13,605
943,2	21,176
943,6	17,433
944	18,119
944,4	14,89
944,9	11,376
945,3	12,205
945,7	9,948
946,1	6,205
946,6	11,748
947	9,433
947,4	12,748
947,8	17,948
948,2	12,348
948,7	13,862
949,1	11,862
949,5	12,862
949,9	12,405
950,3	9,919
950,8	7,462
951,2	8,519
951,6	9,833
952	14,348
952,5	7,69
952,9	9,69
953,3	7,319
953,7	8,519
954,1	13,376
954,6	12,919
955	16,405
955,4	14,348
955,8	15,519
956,2	14,776
956,7	18,262
957,1	12,433
957,5	15,233
957,9	10,833
958,3	16,376
958,8	15,519
959,2	18,29
959,6	16,69
960	18,576
960,5	20,548
960,9	21,719
961,3	18,348
961,7	12,433
962,1	12,633
962,6	13,462
963	11,49
963,4	1,805
963,8	1,69
964,2	8,033
964,7	10,833
965,1	9,148
965,5	11,976
965,9	14,548
966,3	21,005
966,8	19,576
967,2	16,09
967,6	18,233
968	17,462
968,4	16,633
968,9	15,548
969,3	15,976
969,7	13,548
970,1	15,119
970,5	15,833
971	18,548
971,4	14,119
971,8	12,976
972,2	14,862
972,6	18,69
973,1	19,319
973,5	17,719
973,9	17,833
974,3	16,119
974,7	21,548
975,2	21,062
975,6	17,976
976	16,376
976,4	15,405
976,8	12,862
977,3	13,462
977,7	6,376
978,1	5,148
978,5	6,119
978,9	3,748
979,4	1,919
979,8	0,348
980,2	1,805
980,6	3,29
981	7,176
981,5	4,376
981,9	6,776
982,3	9,748
982,7	12,033
983,1	9,69
983,6	11,89
984	9,005
984,4	10,005
984,8	10,376
985,2	6,005
985,6	-0,024
986,1	2,062
986,5	4,348
986,9	-1,052
987,3	2,462
987,7	5,233
988,2	5,805
988,6	12,148
989	11,405
989,4	9,89
989,8	12,605
990,3	9,919
990,7	6,576
991,1	7,576
991,5	7,662
991,9	11,148
992,3	9,233
992,8	11,748
993,2	12,748
993,6	12,062
994	16,319
994,4	19,433
994,9	14,233
995,3	16,633
995,7	13,376
996,1	13,776
996,5	11,548
996,9	6,29
997,4	3,148
997,8	3,09
998,2	2,062
998,6	-2,195
999	-3,652
999,5	-0,738
999,9	-0,367
1000,3	-3,167
1000,7	-3,452
1001,1	-7,281
1001,5	-2,71
1002	5,862
1002,4	5,033
1002,8	7,005
1003,2	10,405
1003,6	16,062
1004	22,862
1004,5	19,148
1004,9	12,89
1005,3	12,09
1005,7	12,29
1006,1	10,89
1006,6	3,433
1007	5,862
1007,4	10,319
1007,8	5,69
1008,2	4,805
1008,6	6,776
1009,1	5,662
1009,5	10,348
1009,9	8,69
1010,3	9,748
1010,7	13,233
1011,1	14,148
1011,6	16,405
1012	19,348
1012,4	17,862
1012,8	13,49
1013,2	17,89
1013,6	19,833
1014,1	21,233
1014,5	17,405
1014,9	17,862
1015,3	17,405
1015,7	18,205
1016,1	11,176
1016,6	9,348
1017	9,033
1017,4	8,433
1017,8	6,433
1018,2	13,69
1018,6	11,176
1019,1	13,062
1019,5	11,862
1019,9	10,805
1020,3	12,119
1020,7	15,576
1021,1	5,776
1021,6	6,29
1022	8,662
1022,4	9,462
1022,8	10,49
1023,2	9,433
1023,6	6,919
1024,1	13,49
1024,5	17,833
1024,9	13,29
1025,3	12,948
1025,7	13,833
1026,1	15,005
1026,6	13,033
1027	6,89
1027,4	5,09
1027,8	3,033
1028,2	-1,281
1028,6	-1,624
1029	-3,481
1029,5	1,319
1029,9	6,376
1030,3	3,89
1030,7	6,605
1031,1	8,776
1031,5	3,633
1032	7,233
1032,4	2,033
1032,8	1,89
1033,2	3,748
1033,6	4,119
1034	4,948
1034,4	7,09
1034,9	6,062
1035,3	5,405
1035,7	6,005
1036,1	2,976
1036,5	3,719
1036,9	10,29
1037,4	14,633
1037,8	8,033
1038,2	4,176
1038,6	1,062
1039	9,005
1039,4	10,776
1039,8	2,833
1040,3	2,519
1040,7	8,319
1041,1	16,348
1041,5	18,033
1041,9	14,005
1042,3	13,376
1042,7	17,205
1043,2	15,376
1043,6	15,376
1044	14,805
1044,4	14,49
1044,8	16,976
1045,2	17,69
1045,6	15,976
1046,1	15,405
1046,5	14,09
1046,9	9,29
1047,3	10,148
1047,7	7,005
1048,1	1,319
1048,5	0,976
1049	2,548
1049,4	1,376
1049,8	2,633
1050,2	1,69
1050,6	3,605
1051	9,376
1051,4	10,69
1051,9	8,576
1052,3	15,29
1052,7	14,89
1053,1	10,69
1053,5	12,319
1053,9	7,69
1054,3	7,719
1054,8	11,519
1055,2	9,633
1055,6	17,633
1056	20,033
1056,4	16,233
1056,8	17,376
1057,2	13,633
1057,6	4,633
1058,1	1,29
1058,5	-8,71
1058,9	-4,11
1059,3	-5,795
1059,7	-3,624
1060,1	-0,767
1060,5	8,833
1061	8,662
1061,4	9,348
1061,8	8,348
1062,2	10,205
1062,6	14,29
1063	16,805
1063,4	16,462
1063,8	16,319
1064,3	18,89
1064,7	16,548
1065,1	15,405
1065,5	6,148
1065,9	4,833
1066,3	2,033
1066,7	1,148
1067,1	-1,452
1067,6	2,376
1068	-0,824
1068,4	3,29
1068,8	5,919
1069,2	2,976
1069,6	3,948
1070	7,805
1070,4	5,205
1070,9	6,89
1071,3	6,348
1071,7	0,233
1072,1	3,062
1072,5	-0,395
1072,9	-4,395
1073,3	-5,681
1073,7	-5,367
1074,2	-4,252
1074,6	-5,395
1075	-9,71
1075,4	-4,224
1075,8	0,919
1076,2	1,805
1076,6	7,519
1077	6,548
1077,5	14,976
1077,9	16,148
1078,3	13,576
1078,7	11,948
1079,1	8,376
1079,5	8,062
1079,9	7,662
1080,3	2,948
1080,7	6,976
1081,2	9,919
1081,6	7,89
1082	7,205
1082,4	7,805
1082,8	7,262
1083,2	7,748
1083,6	8,319
1084	2,29
1084,5	1,519
1084,9	2,29
1085,3	-3,51
1085,7	-2,91
1086,1	-4,11
1086,5	-5,538
1086,9	0,462
1087,3	1,948
1087,7	5,433
1088,2	8,033
1088,6	6,348
1089	10,662
1089,4	10,633
1089,8	7,662
1090,2	8,776
1090,6	10,319
1091	14,062
1091,4	16,862
1091,9	12,319
1092,3	14,148
1092,7	10,062
1093,1	10,405
1093,5	9,49
1093,9	5,205
1094,3	8,09
1094,7	8,49
1095,1	7,005
1095,5	13,005
1096	13,948
1096,4	13,062
1096,8	13,576
1097,2	8,805
1097,6	14,233
1098	13,09
1098,4	13,548
1098,8	11,262
1099,2	15,719
1099,6	14,09
1100,1	16,433
1100,5	10,633
1100,9	9,633
1101,3	9,519
1101,7	8,233
1102,1	3,662
1102,5	4,805
1102,9	8,662
1103,3	12,262
1103,7	13,49
1104,2	13,919
1104,6	16,49
1105	13,805
1105,4	14,233
1105,8	8,119
1106,2	4,919
1106,6	4,176
1107	1,29
1107,4	-0,467
1107,8	2,193
1108,3	-0,217
