Data from Subt2_208.txt Node
Date: Sat Aug 26 18:46:53 MSK 2023
User: vat
Spectrometer: MAYP114033
Trigger mode: 0
Integration Time (sec): 1,000000E0
Scans to average: 5
Electric dark correction enabled: true
Nonlinearity correction enabled: false
Boxcar width: 3
XAxis mode: Wavelengths
Number of Pixels in Spectrum: 2068
>>>>>Begin Spectral Data<<<<<
199,4	0,55
199,9	3,3
200,4	4,5
200,8	4,5
201,3	2,986
201,8	3,214
202,2	0,814
202,7	4,871
203,2	1,929
203,6	-1,614
204,1	-4,757
204,6	-4,214
205	-1,786
205,5	-1,071
206	-3,357
206,4	-2,414
206,9	2,871
207,4	5,7
207,8	9,214
208,3	8,271
208,8	9,557
209,2	10,214
209,7	11,157
210,2	8,186
210,6	10,529
211,1	8,129
211,5	3,614
212	6,471
212,5	4,071
212,9	0,3
213,4	4,186
213,9	0,7
214,3	3,386
214,8	9,471
215,3	3,986
215,7	7,329
216,2	13,071
216,7	11,9
217,1	10,3
217,6	10,843
218,1	8,243
218,5	7,729
219	1,157
219,5	1,786
219,9	-3,786
220,4	5,757
220,9	0,929
221,3	0,271
221,8	5,729
222,3	7,529
222,7	3,929
223,2	2,271
223,6	-4,529
224,1	-3,757
224,6	-1,3
225	-5,471
225,5	-3,529
226	-3,871
226,4	2,243
226,9	4,071
227,4	6,414
227,8	-0,043
228,3	-0,014
228,8	-1,957
229,2	-1,586
229,7	-4,9
230,2	-4,671
230,6	-3,814
231,1	8,471
231,5	10,7
232	13,7
232,5	11,614
232,9	15,9
233,4	13,871
233,9	10,271
234,3	1,729
234,8	2,871
235,3	0,9
235,7	5,1
236,2	4,3
236,7	3,843
237,1	9,357
237,6	5,814
238,1	7,757
238,5	5,386
239	6,043
239,4	8,214
239,9	6,871
240,4	2,557
240,8	10,1
241,3	5,757
241,8	7,929
242,2	6,757
242,7	-0,243
243,2	2,529
243,6	2,243
244,1	0,7
244,6	4,929
245	6,986
245,5	5,414
245,9	3,271
246,4	4,5
246,9	6,243
247,3	5,3
247,8	3,043
248,3	2,357
248,7	3,014
249,2	9,557
249,7	5,043
250,1	6,271
250,6	4,071
251	5,671
251,5	7,643
252	6,643
252,4	8,157
252,9	7,786
253,4	1,586
253,8	2,243
254,3	4,929
254,8	5,443
255,2	4,786
255,7	1,214
256,1	5,757
256,6	13,643
257,1	19,929
257,5	14,929
258	10,157
258,5	11,729
258,9	13,014
259,4	8,5
259,9	6,529
260,3	-3,129
260,8	-5,614
261,2	-4,157
261,7	0,7
262,2	-3,271
262,6	-3,871
263,1	0,043
263,6	2,843
264	6,529
264,5	10,614
264,9	3,1
265,4	7,957
265,9	11,757
266,3	8,557
266,8	11,243
267,3	12,214
267,7	6,871
268,2	8,729
268,7	9,529
269,1	12,3
269,6	9,5
270	12,586
270,5	9,186
271	12,071
271,4	11,843
271,9	4,5
272,4	5,243
272,8	3,786
273,3	-3,243
273,7	-2,357
274,2	-5,3
274,7	-5,643
275,1	-0,014
275,6	-3,043
276,1	-3,043
276,5	1,243
277	4,043
277,4	8,7
277,9	12,243
278,4	11,814
278,8	11,786
279,3	15,586
279,8	15,871
280,2	13,614
280,7	11,9
281,1	9,357
281,6	9,986
282,1	10,186
282,5	6,643
283	4,757
283,4	5,014
283,9	9,186
284,4	12,586
284,8	12,329
285,3	10,443
285,8	8,643
286,2	7,471
286,7	5,614
287,1	-1,214
287,6	-5,643
288,1	-8,329
288,5	-6,557
289	-2,843
289,5	0,243
289,9	-0,7
290,4	6,243
290,8	6,7
291,3	7,214
291,8	7,471
292,2	8,329
292,7	9,043
293,1	8,1
293,6	6,1
294,1	7,529
294,5	10,9
295	8,729
295,5	6,786
295,9	5,3
296,4	4,729
296,8	-0,243
297,3	-3,786
297,8	-7,814
298,2	-6,014
298,7	-3,757
299,1	-2,843
299,6	-2,814
300,1	0,757
300,5	6,786
301	12,5
301,5	14,5
301,9	10,814
302,4	7,157
302,8	11,586
303,3	6,129
303,8	-1,729
304,2	-5,5
304,7	-4,929
305,1	-6,757
305,6	-4,786
306,1	-1,643
306,5	2,643
307	9,414
307,4	12,871
307,9	12,557
308,4	13,014
308,8	11,986
309,3	6,643
309,8	6,729
310,2	6,671
310,7	2,3
311,1	1,071
311,6	4,5
312,1	7,157
312,5	9,129
313	6,386
313,4	5,986
313,9	7,1
314,4	6,986
314,8	4,186
315,3	2,614
315,7	0,843
316,2	0,414
316,7	-0,214
317,1	4,871
317,6	4,843
318	10,386
318,5	5,043
319	6,071
319,4	8,1
319,9	12,786
320,3	9,1
320,8	7,1
321,3	6,1
321,7	9,471
322,2	7,671
322,6	10,471
323,1	5,7
323,6	4,786
324	5,271
324,5	0,471
324,9	2,757
325,4	1,957
325,9	2,357
326,3	1,071
326,8	1,671
327,2	1,814
327,7	2,957
328,2	1,671
328,6	2,3
329,1	-4,243
329,5	0,014
330	-1,7
330,5	-1,957
330,9	3,1
331,4	4,329
331,8	4,214
332,3	12,643
332,8	14,671
333,2	16,043
333,7	20,3
334,1	20,643
334,6	19,957
335,1	17,043
335,5	13,5
336	7,757
336,4	8,357
336,9	9,529
337,4	6,243
337,8	6,1
338,3	10,3
338,7	11,157
339,2	9,471
339,7	8,3
340,1	0,871
340,6	2,5
341	0,871
341,5	-1,986
342	-4,9
342,4	-2,757
342,9	-1,957
343,3	-0,129
343,8	0,414
344,2	1,186
344,7	10,957
345,2	9,357
345,6	8,157
346,1	8,929
346,5	7,243
347	4,043
347,5	3,129
347,9	2,1
348,4	4,957
348,8	5,757
349,3	6,414
349,8	9,643
350,2	14,7
350,7	14,014
351,1	15,129
351,6	19,471
352	23,071
352,5	27,329
353	38,643
353,4	42,329
353,9	55,329
354,3	65,557
354,8	74,643
355,3	96,9
355,7	117,043
356,2	133,243
356,6	158,129
357,1	188,386
357,5	222,814
358	266,471
358,5	301,786
358,9	346,929
359,4	400,386
359,8	458,329
360,3	527,471
360,8	594,9
361,2	673,529
361,7	767,757
362,1	867,329
362,6	977,329
363	1097,043
363,5	1220,3
364	1354,014
364,4	1493,071
364,9	1630,329
365,3	1767,9
365,8	1894,186
366,3	2017,5
366,7	2122,014
367,2	2223,9
367,6	2298,814
368,1	2359,357
368,5	2399,786
369	2422,614
369,5	2426,871
369,9	2412,443
370,4	2372,671
370,8	2318,814
371,3	2249,729
371,7	2170,9
372,2	2079,014
372,7	1973,786
373,1	1873,557
373,6	1762,757
374	1653,357
374,5	1547,071
374,9	1438,357
375,4	1339,157
375,9	1247,243
376,3	1151,614
376,8	1061,129
377,2	980,243
377,7	896,586
378,2	820,357
378,6	750,786
379,1	684,014
379,5	628,9
380	580,929
380,4	532,5
380,9	485,671
381,4	443,214
381,8	409,9
382,3	379,557
382,7	348,129
383,2	322,329
383,6	295,271
384,1	279,1
384,6	267,1
385	243,643
385,5	228,614
385,9	211,757
386,4	195,929
386,8	189,214
387,3	178,671
387,7	167,986
388,2	161,329
388,7	150,3
389,1	141,329
389,6	130,957
390	120,7
390,5	113,186
390,9	106,129
391,4	101,3
391,9	91,9
392,3	87,814
392,8	83,929
393,2	79,1
393,7	72,186
394,1	65,014
394,6	56,586
395,1	55,014
395,5	50,757
396	47,786
396,4	46,786
396,9	45,043
397,3	48,614
397,8	53,3
398,2	53,957
398,7	53,786
399,2	54,043
399,6	53,586
400,1	52,843
400,5	41,643
401	39,214
401,4	35,529
401,9	35,786
402,4	38,329
402,8	30,814
403,3	33,871
403,7	39,814
404,2	41,3
404,6	44,586
405,1	41,214
405,5	38,1
406	45,757
406,5	43,814
406,9	47,071
407,4	44,614
407,8	43,957
408,3	47,014
408,7	45,814
409,2	49,957
409,6	54,243
410,1	55,643
410,6	61,557
411	64,757
411,5	71,586
411,9	83,957
412,4	84,414
412,8	88,471
413,3	92,814
413,7	97,814
414,2	98,929
414,7	102,814
415,1	107,757
415,6	115,871
416	123,271
416,5	129,071
416,9	129,386
417,4	141,443
417,8	152,1
418,3	160,986
418,8	166,043
419,2	170,157
419,7	177,3
420,1	193,529
420,6	198,929
421	202,871
421,5	206,843
421,9	215,043
422,4	227,043
422,8	238,586
423,3	240,529
423,8	249,243
424,2	253,786
424,7	264,586
425,1	276,214
425,6	284,014
426	288,586
426,5	304,414
426,9	321,014
427,4	336,357
427,9	344,814
428,3	356,357
428,8	370,843
429,2	387,1
429,7	399,757
430,1	409,729
430,6	428,3
431	442,157
431,5	460,157
431,9	474,586
432,4	497,7
432,8	522,7
433,3	548,071
433,8	569,529
434,2	596,843
434,7	622,871
435,1	649,614
435,6	674,357
436	699,3
436,5	732,843
436,9	763,757
437,4	797,214
437,8	833,414
438,3	876,443
438,8	911,957
439,2	952,929
439,7	992,5
440,1	1036,586
440,6	1079,1
441	1118,043
441,5	1158,757
441,9	1213,814
442,4	1253,3
442,8	1297,186
443,3	1348,357
443,7	1401,557
444,2	1461,957
444,7	1517,5
445,1	1569,814
445,6	1635,957
446	1699,643
446,5	1756,471
446,9	1812,671
447,4	1871,5
447,8	1939,186
448,3	2006,157
448,7	2069,214
449,2	2137,643
449,6	2214,814
450,1	2292,014
450,6	2371,786
451	2452,1
451,5	2536,414
451,9	2621,586
452,4	2708,271
452,8	2787,871
453,3	2879,471
453,7	2967,7
454,2	3051,014
454,6	3134,414
455,1	3224,871
455,5	3306,271
456	3396,586
456,4	3481,1
456,9	3562,271
457,3	3652,814
457,8	3737,986
458,3	3835,1
458,7	3938,214
459,2	4041,071
459,6	4140,5
460,1	4246,243
460,5	4341,1
461	4459,157
461,4	4549,014
461,9	4646,957
462,3	4741,329
462,8	4851,729
463,2	4955,9
463,7	5072,729
464,1	5171,386
464,6	5286,043
465	5394,414
465,5	5503,157
466	5601,5
466,4	5698,471
466,9	5794,329
467,3	5890,757
467,8	5989,7
468,2	6086,786
468,7	6184,786
469,1	6277,243
469,6	6376,443
470	6468,757
470,5	6554,814
470,9	6643,614
471,4	6731,9
471,8	6814,729
472,3	6905,186
472,7	6993,3
473,2	7080,414
473,6	7172,071
474,1	7263,5
474,5	7343,586
475	7434,443
475,4	7521,214
475,9	7606,271
476,4	7689,471
476,8	7772,443
477,3	7838,814
477,7	7916,1
478,2	7982,386
478,6	8048,186
479,1	8106,3
479,5	8157,3
480	8206,214
480,4	8269,757
480,9	8316,757
481,3	8356,043
481,8	8395,871
482,2	8425,414
482,7	8467,014
483,1	8506,043
483,6	8532,043
484	8565,9
484,5	8605,757
484,9	8639,957
485,4	8678,9
485,8	8706,1
486,3	8728,614
486,7	8747,643
487,2	8766,271
487,6	8779,614
488,1	8784,5
488,5	8782,9
489	8785,157
489,4	8785,586
489,9	8777,014
490,4	8778,043
490,8	8766,3
491,3	8754,7
491,7	8752,214
492,2	8746,357
492,6	8730,214
493,1	8715,557
493,5	8682,729
494	8662,043
494,4	8633,471
494,9	8601,7
495,3	8564,471
495,8	8525,786
496,2	8493,3
496,7	8456,471
497,1	8427,671
497,6	8397,471
498	8356,443
498,5	8325,243
498,9	8295,586
499,4	8251,843
499,8	8219,986
500,3	8177,043
500,7	8130,271
501,2	8082,014
501,6	8020,957
502,1	7975,129
502,5	7928,329
503	7869,529
503,4	7807,929
503,9	7748,386
504,3	7697,214
504,8	7646,557
505,2	7579,1
505,7	7518,186
506,1	7466,129
506,6	7401,443
507	7344,7
507,5	7283,186
507,9	7227,243
508,4	7168,529
508,8	7108,129
509,3	7039,129
509,7	6984,129
510,2	6919,957
510,6	6850,271
511,1	6775,871
511,5	6708,014
512	6645,814
512,4	6586,814
512,9	6517,929
513,3	6454,357
513,8	6396,843
514,2	6333,614
514,7	6270,729
515,1	6206,357
515,6	6134,643
516	6068,729
516,5	6001,243
516,9	5934,329
517,4	5874,1
517,8	5812,071
518,3	5744,786
518,7	5678,414
519,2	5616,586
519,6	5552,471
520,1	5492,986
520,5	5429,471
521	5362,043
521,4	5305,471
521,9	5250,471
522,3	5186,014
522,8	5126,757
523,2	5063,671
523,7	5005,614
524,1	4952,414
524,6	4890,1
525	4827,071
525,5	4772,871
525,9	4718,671
526,4	4666,957
526,8	4611,729
527,3	4556,871
527,7	4505,986
528,2	4460,414
528,6	4404,843
529,1	4355,129
529,5	4305,986
530	4255,071
530,4	4203,843
530,9	4153,643
531,3	4108,871
531,8	4066,671
532,2	4016,843
532,6	3968,071
533,1	3923,043
533,5	3877,671
534	3827,157
534,4	3774,414
534,9	3727,7
535,3	3692,271
535,8	3649,586
536,2	3609,471
536,7	3573,329
537,1	3537,414
537,6	3501,586
538	3466,929
538,5	3426,986
538,9	3384,614
539,4	3348,786
539,8	3309,671
540,3	3276,071
540,7	3236,614
541,2	3200,7
541,6	3162,414
542,1	3134,243
542,5	3091,129
543	3053,929
543,4	3016,529
543,9	2986,386
544,3	2957,014
544,8	2922,557
545,2	2893,614
545,7	2870,186
546,1	2844,186
546,5	2819,729
547	2791,557
547,4	2760,7
547,9	2729,043
548,3	2700,3
548,8	2672,986
549,2	2641,043
549,7	2617,014
550,1	2590,471
550,6	2562,757
551	2546,443
551,5	2519,986
551,9	2492,243
552,4	2471,329
552,8	2444,243
553,3	2419,814
553,7	2390,729
554,2	2365,414
554,6	2345,071
555,1	2326,871
555,5	2302,729
555,9	2277,214
556,4	2253,986
556,8	2239,786
557,3	2222,414
557,7	2197,986
558,2	2179,529
558,6	2163,529
559,1	2146,814
559,5	2136,586
560	2118,386
560,4	2101,471
560,9	2086,357
561,3	2063,329
561,8	2048,186
562,2	2037,329
562,7	2017,9
563,1	2008,414
563,6	1984,729
564	1969,129
564,4	1956,386
564,9	1936,843
565,3	1914,814
565,8	1895,5
566,2	1877,271
566,7	1867,757
567,1	1853,357
567,6	1836,3
568	1822,986
568,5	1810,071
568,9	1796,1
569,4	1779,157
569,8	1762,643
570,3	1746,357
570,7	1734,243
571,1	1725,014
571,6	1714,9
572	1707,471
572,5	1696,729
572,9	1681,014
573,4	1671,586
573,8	1662,671
574,3	1646,386
574,7	1632,329
575,2	1616,957
575,6	1603,643
576,1	1598,729
576,5	1586,957
576,9	1571,014
577,4	1556,386
577,8	1542,671
578,3	1531,243
578,7	1518,843
579,2	1506,814
579,6	1493,614
580,1	1481,643
580,5	1478,443
581	1472,386
581,4	1462,529
581,9	1449,9
582,3	1435,814
582,7	1429,471
583,2	1422,243
583,6	1411,157
584,1	1404,843
584,5	1392,5
585	1385,443
585,4	1373,557
585,9	1363,843
586,3	1356,129
586,8	1347,986
587,2	1331,214
587,6	1328,186
588,1	1326,243
588,5	1323,843
589	1319,214
589,4	1308,929
589,9	1296,7
590,3	1287,129
590,8	1276,5
591,2	1264,529
591,7	1259,529
592,1	1245,729
592,5	1239,5
593	1233,557
593,4	1229,614
593,9	1221,243
594,3	1213,271
594,8	1199,014
595,2	1192,3
595,7	1185,9
596,1	1178,357
596,6	1169,986
597	1161,957
597,4	1150,557
597,9	1148,129
598,3	1143,929
598,8	1132,871
599,2	1129,786
599,7	1126,329
600,1	1117,786
600,6	1111,443
601	1103,614
601,4	1103,5
601,9	1104,814
602,3	1097,443
602,8	1093,3
603,2	1088,5
603,7	1085,129
604,1	1078,814
604,6	1066,214
605	1052,186
605,4	1047,214
605,9	1037,157
606,3	1029,586
606,8	1022,957
607,2	1016,414
607,7	1008,814
608,1	1003,671
608,6	1000,3
609	999,414
609,4	997,129
609,9	993,529
610,3	993,214
610,8	987,7
611,2	983,557
611,7	972,986
612,1	964,557
612,6	961,3
613	957,786
613,4	948,014
613,9	944,1
614,3	942,414
614,8	938,643
615,2	930,271
615,7	926,329
616,1	918,329
616,6	912,814
617	904,871
617,4	900,414
617,9	899,671
618,3	897,9
618,8	892,014
619,2	886,043
619,7	883,3
620,1	880,757
620,5	876,129
621	863,643
621,4	859,157
621,9	854,043
622,3	847,386
622,8	839,557
623,2	830,814
623,6	820,957
624,1	821,357
624,5	812,843
625	810,271
625,4	807,843
625,9	805,929
626,3	804,957
626,8	801,471
627,2	799,443
627,6	789,671
628,1	779,529
628,5	780,643
629	773,043
629,4	765,757
629,9	764,271
630,3	751,214
630,7	752,243
631,2	745,557
631,6	734,929
632,1	733,557
632,5	726,014
633	719,1
633,4	715,9
633,8	712,186
634,3	705,5
634,7	704,557
635,2	692,214
635,6	694,786
636,1	689,557
636,5	681,614
636,9	672,586
637,4	670,929
637,8	657,414
638,3	656,129
638,7	648,1
639,2	640,786
639,6	640,871
640	637,357
640,5	635,271
640,9	637,014
641,4	634,529
641,8	634,643
642,2	637,786
642,7	637,957
643,1	639,129
643,6	637,129
644	634,471
644,5	630,643
644,9	622,3
645,3	613,214
645,8	599,414
646,2	595,671
646,7	587,643
647,1	581,786
647,6	581,786
648	579,814
648,4	572,3
648,9	576,7
649,3	571,614
649,8	571,357
650,2	572,843
650,6	566,186
651,1	562,814
651,5	565,814
652	559,5
652,4	553,014
652,9	549,929
653,3	540,757
653,7	538,329
654,2	534,014
654,6	527,129
655,1	526,243
655,5	531,729
655,9	526,9
656,4	529,529
656,8	524,1
657,3	520,757
657,7	520,9
658,2	515,471
658,6	504,3
659	498,386
659,5	487,929
659,9	488,729
660,4	487,729
660,8	480,386
661,2	477,243
661,7	479,214
662,1	481,414
662,6	478,329
663	473,071
663,4	466,3
663,9	466,3
664,3	459,357
664,8	452,757
665,2	443,043
665,6	442,929
666,1	439,043
666,5	437,786
667	436,1
667,4	436,014
667,9	433,957
668,3	434,757
668,7	430,3
669,2	430,843
669,6	426,386
670,1	421,5
670,5	416,957
670,9	412,957
671,4	408,386
671,8	410,1
672,3	409,071
672,7	410,557
673,1	404,129
673,6	402,557
674	401,471
674,5	398,414
674,9	389,186
675,3	379,243
675,8	372,786
676,2	370,957
676,7	367,329
677,1	366,986
677,5	365,757
678	363,643
678,4	364,7
678,9	364,643
679,3	363,9
679,7	362,7
680,2	353,871
680,6	350,386
681,1	351,157
681,5	351,7
681,9	351,271
682,4	350,043
682,8	350,386
683,3	353,957
683,7	355,9
684,1	351,9
684,6	346,157
685	341,043
685,5	339,1
685,9	331,243
686,3	322,529
686,8	319,243
687,2	317,386
687,7	312,957
688,1	304,357
688,5	304,671
689	308,243
689,4	305,843
689,9	300,871
690,3	298,557
690,7	299,9
691,2	305,671
691,6	301,529
692	297,671
692,5	298,043
692,9	297,3
693,4	293,871
693,8	292,814
694,2	289,071
694,7	285,214
695,1	279,786
695,6	282,814
696	284,471
696,4	284,786
696,9	279,043
697,3	273,671
697,8	275,386
698,2	273,757
698,6	271,529
699,1	267,757
699,5	268,071
699,9	265,586
700,4	265,957
700,8	265,329
701,3	269,329
701,7	261,329
702,1	258,671
702,6	251,871
703	253,471
703,5	252,814
703,9	249,871
704,3	244,9
704,8	246,071
705,2	245,329
705,6	244,957
706,1	243,957
706,5	240,7
707	236,5
707,4	233,529
707,8	231,643
708,3	230,729
708,7	228,986
709,2	225,757
709,6	223,386
710	225,129
710,5	226,1
710,9	224,414
711,3	222,1
711,8	221,1
712,2	220,586
712,7	221,357
713,1	218,814
713,5	219,3
714	219,9
714,4	217,443
714,8	217,529
715,3	212,871
715,7	209,386
716,2	203,986
716,6	203,186
717	197,929
717,5	192,557
717,9	193,871
718,3	190,986
718,8	189,9
719,2	189,643
719,7	184,929
720,1	187,557
720,5	194,129
721	188,043
721,4	192,414
721,8	193,443
722,3	193,986
722,7	197,271
723,2	192,357
723,6	181,214
724	179,5
724,5	173,957
724,9	169,329
725,3	166,843
725,8	159,957
726,2	160,5
726,7	161,5
727,1	160,271
727,5	157,386
728	160,871
728,4	159,357
728,8	154,814
729,3	152,043
729,7	149,357
730,1	148,9
730,6	151,843
731	145,957
731,5	147,243
731,9	147,929
732,3	148,814
732,8	153,014
733,2	153,729
733,6	150,386
734,1	153,786
734,5	151,957
734,9	152,7
735,4	153,757
735,8	150,3
736,3	152,957
736,7	150,1
737,1	147,786
737,6	144,929
738	141,614
738,4	139,729
738,9	142,243
739,3	137,1
739,7	136,9
740,2	132,843
740,6	140,443
741,1	145,614
741,5	139,214
741,9	138,757
742,4	143,529
742,8	146,186
743,2	150,729
743,7	138,9
744,1	134,043
744,5	133,7
745	127,471
745,4	121,214
745,8	120,443
746,3	118,871
746,7	121,271
747,2	120,386
747,6	126,471
748	133,614
748,5	134,529
748,9	132,757
749,3	133,386
749,8	138,614
750,2	141,043
750,6	134,929
751,1	132,786
751,5	132,443
751,9	134,5
752,4	131,129
752,8	123,986
753,3	120,3
753,7	124,957
754,1	118,3
754,6	114,271
755	111,843
755,4	109,443
755,9	107,614
756,3	106,557
756,7	104,186
757,2	109,243
757,6	111,814
758	107,986
758,5	108,957
758,9	106,871
759,3	109,243
759,8	108,471
760,2	107,157
760,6	103,5
761,1	107,557
761,5	107,043
761,9	111,5
762,4	108,843
762,8	106,014
763,3	102,271
763,7	102,214
764,1	99,843
764,6	97,386
765	97,843
765,4	98,957
765,9	100,043
766,3	101,071
766,7	101,757
767,2	99,986
767,6	105,243
768	101,929
768,5	99,986
768,9	97,757
769,3	93,671
769,8	91,386
770,2	90,957
770,6	84,214
771,1	85,357
771,5	85,871
771,9	85,614
772,4	88,243
772,8	90,214
773,2	92,329
773,7	94,129
774,1	92,643
774,5	86,957
775	89,729
775,4	88,671
775,8	83,557
776,3	83,643
776,7	82,071
777,1	79,643
777,6	82,586
778	83,757
778,4	83,643
778,9	89,843
779,3	85,929
779,7	88,329
780,2	90,757
780,6	92,871
781	84,557
781,5	82,957
781,9	78,729
782,3	79,071
782,8	76,157
783,2	73,043
783,6	72,214
784,1	77,243
784,5	73,7
784,9	74,243
785,4	74,757
785,8	73,586
786,2	76,271
786,7	75,157
787,1	69,7
787,5	73,586
788	72,786
788,4	72,186
788,8	71,043
789,3	68,443
789,7	66,243
790,1	69,071
790,6	68,329
791	64,9
791,4	67,186
791,9	64,414
792,3	58,529
792,7	65,729
793,2	59,157
793,6	58,243
794	61,643
794,5	54,7
794,9	58,643
795,3	63,271
795,8	58,814
796,2	65,443
796,6	66,386
797,1	61,5
797,5	62,5
797,9	60,043
798,4	57,443
798,8	55,186
799,2	51,671
799,7	51,729
800,1	51,329
800,5	49,843
801	52,329
801,4	52,729
801,8	51,214
802,2	50,243
802,7	46,471
803,1	52,529
803,5	54,986
804	50,9
804,4	52,643
804,8	50,957
805,3	52,957
805,7	57,643
806,1	53,871
806,6	55,729
807	59,957
807,4	57,471
807,9	55,471
808,3	58,071
808,7	52,757
809,2	55,329
809,6	57,957
810	57,214
810,4	58,614
810,9	62,214
811,3	64,071
811,7	65,643
812,2	70,7
812,6	62,443
813	63,157
813,5	66,471
813,9	67,471
814,3	61,043
814,8	59,729
815,2	48,186
815,6	48,357
816,1	46,757
816,5	42,357
816,9	37,957
817,3	40,529
817,8	45,986
818,2	50,357
818,6	51,014
819,1	48,614
819,5	46,986
819,9	52,3
820,4	49,186
820,8	39,957
821,2	37,586
821,7	39,271
822,1	42,471
822,5	49,214
822,9	45,243
823,4	43,214
823,8	51,071
824,2	50,5
824,7	45,3
825,1	42,557
825,5	33,271
826	26,843
826,4	28,671
826,8	22,843
827,3	27,271
827,7	29,043
828,1	25,9
828,5	28,3
829	29,529
829,4	31,1
829,8	29,814
830,3	26,843
830,7	26,9
831,1	30,643
831,6	30,643
832	32,9
832,4	28,014
832,8	34,043
833,3	33,3
833,7	32,443
834,1	30,071
834,6	28,7
835	34,414
835,4	38,929
835,8	30,5
836,3	29,414
836,7	27,843
837,1	29,271
837,6	33,386
838	26,7
838,4	25,271
838,9	33,3
839,3	33,614
839,7	34,871
840,1	32,871
840,6	29,3
841	33,186
841,4	35,471
841,9	30,5
842,3	30,043
842,7	32,043
843,1	32,614
843,6	36,786
844	37,129
844,4	36,071
844,9	35,386
845,3	33,214
845,7	32,243
846,2	27,043
846,6	24,586
847	22,443
847,4	22,071
847,9	21,071
848,3	21,357
848,7	19,871
849,2	26,357
849,6	24,957
850	29,757
850,4	28,357
850,9	33,243
851,3	37,1
851,7	41,071
852,2	34,757
852,6	36,386
853	32,3
853,4	26,9
853,9	23,329
854,3	20,329
854,7	17,243
855,2	21,757
855,6	19,357
856	20,814
856,4	21,5
856,9	22,186
857,3	23,5
857,7	23,3
858,2	27,671
858,6	27,014
859	27,157
859,4	32,843
859,9	28,243
860,3	24,529
860,7	24,214
861,1	21,643
861,6	20,786
862	19,1
862,4	16,243
862,9	20,471
863,3	23,557
863,7	28,843
864,1	27,357
864,6	27,214
865	25,443
865,4	25,1
865,9	27,014
866,3	21,357
866,7	14,557
867,1	12,329
867,6	16,071
868	18,671
868,4	18,586
868,8	17,843
869,3	21,043
869,7	26,986
870,1	22,757
870,6	21,014
871	-1,014
871,4	3,271
871,8	1,529
872,3	4,214
872,7	1,614
873,1	5,329
873,5	3,357
874	20,271
874,4	19,129
874,8	19,329
875,3	17,3
875,7	14,786
876,1	11,786
876,5	12,814
877	13,729
877,4	5,9
877,8	6,471
878,2	7,9
878,7	12,729
879,1	17,957
879,5	20,786
879,9	23,986
880,4	29,214
880,8	28,014
881,2	26,129
881,7	22,271
882,1	21,271
882,5	22,386
882,9	18,814
883,4	18,643
883,8	18,7
884,2	17,986
884,6	16,043
885,1	16,929
885,5	13,129
885,9	15,757
886,3	15,529
886,8	14,929
887,2	11,243
887,6	13,5
888	10,557
888,5	11,157
888,9	6,614
889,3	2,071
889,8	4,443
890,2	10,814
890,6	8,929
891	9,071
891,5	8,1
891,9	11,986
892,3	16,157
892,7	15,529
893,2	16,614
893,6	18,986
894	19,557
894,4	18,043
894,9	14,414
895,3	15,386
895,7	16,3
896,1	10,443
896,6	10,129
897	9,014
897,4	12,471
897,8	17,157
898,3	15,871
898,7	13,986
899,1	16,443
899,5	12,871
900	10,243
900,4	5,929
900,8	2,214
901,2	3,471
901,7	1,757
902,1	4,157
902,5	8,014
902,9	8,757
903,4	12,586
903,8	14,7
904,2	13,443
904,6	15,757
905,1	16,586
905,5	16,986
905,9	25,957
906,3	27,7
906,8	31,157
907,2	31,643
907,6	32,3
908	30,986
908,5	28,586
908,9	21,7
909,3	15,643
909,7	12,129
910,2	12,443
910,6	15,7
911	12,957
911,4	14,786
911,9	11,643
912,3	12,443
912,7	14,043
913,1	13,243
913,6	7,157
914	10,643
914,4	10,7
914,8	14,786
915,3	14,643
915,7	14,157
916,1	14,129
916,5	12,843
916,9	8,7
917,4	6,129
917,8	5,414
918,2	3,614
918,6	-0,729
919,1	1,157
919,5	6,671
919,9	7,9
920,3	6,214
920,8	5,1
921,2	9,443
921,6	10,471
922	9,271
922,5	6,471
922,9	8,071
923,3	6,814
923,7	10,786
924,2	6,814
924,6	9,214
925	10,9
925,4	5,157
925,8	5,643
926,3	9,1
926,7	3,786
927,1	8,214
927,5	8,471
928	4,157
928,4	5,614
928,8	2,5
929,2	-1,586
929,7	1,357
930,1	0,5
930,5	-0,5
930,9	1,329
931,3	6,814
931,8	6,014
932,2	8,9
932,6	5,986
933	-0,243
933,5	-3,729
933,9	-4,157
934,3	-4,1
934,7	-3,786
935,2	-2,243
935,6	0,786
936	4,443
936,4	8,3
936,8	10,871
937,3	6,386
937,7	12,014
938,1	15,786
938,5	12,414
939	10,043
939,4	10,214
939,8	6,871
940,2	7,3
940,6	8,386
941,1	4,157
941,5	7,729
941,9	5,329
942,3	6,643
942,8	10,357
943,2	13,243
943,6	7,871
944	9,043
944,4	7,271
944,9	12,043
945,3	7,957
945,7	2,186
946,1	1,1
946,6	-2,557
947	-6,1
947,4	-0,071
947,8	-0,186
948,2	-1,671
948,7	1,929
949,1	-1,329
949,5	6,5
949,9	8,814
950,3	5,786
950,8	4,386
951,2	7,9
951,6	5,071
952	10,243
952,5	5,614
952,9	4,729
953,3	1,271
953,7	2,7
954,1	5,871
954,6	9,5
955	9,329
955,4	9,414
955,8	14,614
956,2	19,414
956,7	22,529
957,1	16,9
957,5	17,357
957,9	18,443
958,3	19,529
958,8	14,129
959,2	12,3
959,6	10,871
960	12,3
960,5	10,929
960,9	6,729
961,3	3,586
961,7	4,529
962,1	-0,043
962,6	0,157
963	-1,671
963,4	-5,129
963,8	-4,243
964,2	-1,614
964,7	-0,329
965,1	5,814
965,5	5,443
965,9	6,9
966,3	9,843
966,8	8,9
967,2	7,786
967,6	5,614
968	1,414
968,4	2,443
968,9	2,1
969,3	4,729
969,7	3,3
970,1	6,386
970,5	3,414
971	8,071
971,4	9,557
971,8	11,043
972,2	13,129
972,6	14,014
973,1	10,471
973,5	14,386
973,9	8,671
974,3	7,1
974,7	11,843
975,2	10,871
975,6	9,871
976	11,471
976,4	7,5
976,8	9,814
977,3	7,386
977,7	-1,014
978,1	-4,586
978,5	-6,957
978,9	-9,986
979,4	-6,757
979,8	-5,643
980,2	-5,843
980,6	-6,271
981	-1,443
981,5	2,729
981,9	4,157
982,3	6,271
982,7	5,843
983,1	2,157
983,6	4,614
984	3,129
984,4	1,471
984,8	3,271
985,2	1,671
985,6	-2,986
986,1	1,157
986,5	2,243
986,9	-4,929
987,3	2,729
987,7	2,043
988,2	0,814
988,6	7,071
989	3,671
989,4	2,814
989,8	8,9
990,3	0,186
990,7	1,957
991,1	3,586
991,5	5,5
991,9	13,243
992,3	15,986
992,8	13,443
993,2	15,557
993,6	13,357
994	17,329
994,4	17,157
994,9	14,729
995,3	9,529
995,7	6,386
996,1	8,843
996,5	11,386
996,9	7,329
997,4	7,9
997,8	3,471
998,2	4,7
998,6	0,443
999	-1,129
999,5	-3,471
999,9	-5,214
1000,3	-13,529
1000,7	-8,214
1001,1	-8,643
1001,5	2,757
1002	5,814
1002,4	7,243
1002,8	8,186
1003,2	14,129
1003,6	15,071
1004	17,3
1004,5	13,386
1004,9	13,243
1005,3	8,814
1005,7	9,471
1006,1	8,443
1006,6	8,014
1007	10,3
1007,4	9,129
1007,8	6,586
1008,2	7,871
1008,6	9,443
1009,1	8,214
1009,5	5,3
1009,9	4,757
1010,3	3,957
1010,7	4,357
1011,1	5,357
1011,6	1,443
1012	2,214
1012,4	0,7
1012,8	-1,586
1013,2	3,9
1013,6	3,471
1014,1	2,7
1014,5	8,071
1014,9	6,614
1015,3	3,871
1015,7	4,557
1016,1	-1,443
1016,6	0,386
1017	2,1
1017,4	0,757
1017,8	0,786
1018,2	7,643
1018,6	5,014
1019,1	5,957
1019,5	6,757
1019,9	5,071
1020,3	1,443
1020,7	5,129
1021,1	2,9
1021,6	5,586
1022	9,329
1022,4	8,5
1022,8	11,043
1023,2	15,214
1023,6	12,671
1024,1	18,7
1024,5	17,957
1024,9	13,986
1025,3	13,271
1025,7	10,414
1026,1	10,3
1026,6	10,329
1027	3,414
1027,4	6,414
1027,8	5,586
1028,2	2,586
1028,6	4,5
1029	2,071
1029,5	4,243
1029,9	2,5
1030,3	1,671
1030,7	5,386
1031,1	9,186
1031,5	4,157
1032	2,957
1032,4	2,214
1032,8	4,814
1033,2	1,9
1033,6	-2,357
1034	-7,014
1034,4	-2,729
1034,9	-1,7
1035,3	-6,614
1035,7	-3,814
1036,1	-4,186
1036,5	-6,271
1036,9	-4,071
1037,4	-0,557
1037,8	-1,643
1038,2	0,129
1038,6	-1,871
1039	3,9
1039,4	10,071
1039,8	6,871
1040,3	8,357
1040,7	9,843
1041,1	13,7
1041,5	13,7
1041,9	7,271
1042,3	6,043
1042,7	10,957
1043,2	4,729
1043,6	1,214
1044	-1,957
1044,4	-4,386
1044,8	-5,671
1045,2	-7,271
1045,6	-6,157
1046,1	-4,986
1046,5	-1,214
1046,9	-2,529
1047,3	-2,186
1047,7	1,386
1048,1	3,3
1048,5	1,071
1049	5,986
1049,4	5,386
1049,8	7,071
1050,2	8,3
1050,6	10,1
1051	9,871
1051,4	13,614
1051,9	7,757
1052,3	15,614
1052,7	14,729
1053,1	14,843
1053,5	18,5
1053,9	17,757
1054,3	14,186
1054,8	21,329
1055,2	16,157
1055,6	22,529
1056	25,557
1056,4	17,729
1056,8	23,471
1057,2	25,329
1057,6	17,271
1058,1	13,3
1058,5	1,643
1058,9	0,871
1059,3	4,843
1059,7	0,814
1060,1	-3,414
1060,5	-4,671
1061	-2,871
1061,4	2,643
1061,8	-1,757
1062,2	-0,357
1062,6	-0,357
1063	3,243
1063,4	7,671
1063,8	9,386
1064,3	5,786
1064,7	8,843
1065,1	8,671
1065,5	5,529
1065,9	1,214
1066,3	0,071
1066,7	-2,529
1067,1	-0,586
1067,6	4,357
1068	-3,471
1068,4	-0,843
1068,8	1,929
1069,2	4,586
1069,6	4,043
1070	8,671
1070,4	2,214
1070,9	7,871
1071,3	8,186
1071,7	3,786
1072,1	0,271
1072,5	-0,671
1072,9	-3,157
1073,3	-3,557
1073,7	-10,1
1074,2	-7,843
1074,6	-0,671
1075	-0,843
1075,4	1,757
1075,8	6,243
1076,2	6,443
1076,6	10,471
1077	6,329
1077,5	4,871
1077,9	7,129
1078,3	4,414
1078,7	1,014
1079,1	1,043
1079,5	1,786
1079,9	6,386
1080,3	4,843
1080,7	5,729
1081,2	14,3
1081,6	9,643
1082	8,643
1082,4	11,1
1082,8	9,786
1083,2	9,929
1083,6	8,929
1084	0,986
1084,5	6,586
1084,9	5,7
1085,3	-1,386
1085,7	-1,671
1086,1	-2,471
1086,5	-1,9
1086,9	2,386
1087,3	1,3
1087,7	2,471
1088,2	8,929
1088,6	7,471
1089	7,043
1089,4	5,357
1089,8	4,414
1090,2	3,529
1090,6	6,443
1091	7,243
1091,4	7,129
1091,9	7,243
1092,3	8,843
1092,7	5,586
1093,1	4,3
1093,5	4,3
1093,9	5,529
1094,3	9,757
1094,7	7,271
1095,1	9,786
1095,5	15,1
1096	13,529
1096,4	13,757
1096,8	9,071
1097,2	2,929
1097,6	9,957
1098	4,3
1098,4	1,871
1098,8	5,129
1099,2	9,529
1099,6	13,157
1100,1	14,043
1100,5	10,671
1100,9	12,671
1101,3	11,414
1101,7	9,643
1102,1	4,186
1102,5	3,357
1102,9	6,757
1103,3	10,071
1103,7	11,843
1104,2	10,443
1104,6	12,786
1105	11,786
1105,4	13,414
1105,8	9,557
1106,2	6,157
1106,6	3,729
1107	4,329
1107,4	3,067
1107,8	3,54
1108,3	-0,75
