Data from Subt2_324.txt Node
Date: Sat Aug 26 19:18:13 MSK 2023
User: vat
Spectrometer: MAYP114033
Trigger mode: 0
Integration Time (sec): 1,000000E0
Scans to average: 5
Electric dark correction enabled: true
Nonlinearity correction enabled: false
Boxcar width: 3
XAxis mode: Wavelengths
Number of Pixels in Spectrum: 2068
>>>>>Begin Spectral Data<<<<<
199,4	0,567
199,9	0,527
200,4	0,433
200,8	3,395
201,3	4,681
201,8	8,138
202,2	7,11
202,7	10,995
203,2	9,424
203,6	9,538
204,1	5,91
204,6	6,167
205	6,367
205,5	6,395
206	1,767
206,4	3,081
206,9	1,395
207,4	4,252
207,8	2,567
208,3	0,652
208,8	1,967
209,2	8,024
209,7	10,967
210,2	14,138
210,6	12,224
211,1	13,824
211,5	11,595
212	11,795
212,5	7,481
212,9	2,624
213,4	-1,833
213,9	-2,576
214,3	0,681
214,8	4,281
215,3	4,167
215,7	3,567
216,2	8,767
216,7	16,538
217,1	13,681
217,6	13,395
218,1	9,624
218,5	7,824
219	3,281
219,5	2,338
219,9	-4,348
220,4	6,338
220,9	3,452
221,3	4,881
221,8	6,91
222,3	12,31
222,7	14,281
223,2	14,167
223,6	12,51
224,1	11,252
224,6	14,31
225	13,652
225,5	10,652
226	8,081
226,4	15,395
226,9	11,424
227,4	11,767
227,8	9,195
228,3	8,624
228,8	13,452
229,2	14,195
229,7	9,024
230,2	9,281
230,6	13,395
231,1	20,538
231,5	23,824
232	23,395
232,5	22,31
232,9	20,681
233,4	22,452
233,9	19,652
234,3	13,767
234,8	16,081
235,3	11,024
235,7	15,767
236,2	24,052
236,7	22,195
237,1	21,881
237,6	19,51
238,1	12,995
238,5	14,024
239	10,71
239,4	8,252
239,9	6,824
240,4	8,024
240,8	11,052
241,3	12,252
241,8	14,91
242,2	13,881
242,7	10,538
243,2	12,538
243,6	8,452
244,1	9,252
244,6	11,852
245	10,51
245,5	10,852
245,9	8,852
246,4	9,31
246,9	13,595
247,3	15,167
247,8	16,595
248,3	20,567
248,7	22,338
249,2	26,024
249,7	24,51
250,1	21,281
250,6	17,367
251	14,138
251,5	13,281
252	11,224
252,4	9,31
252,9	5,424
253,4	2,338
253,8	2,795
254,3	3,395
254,8	0,367
255,2	-0,205
255,7	1,424
256,1	8,967
256,6	13,481
257,1	13,51
257,5	9,995
258	10,567
258,5	11,538
258,9	10,081
259,4	5,281
259,9	5,167
260,3	3,91
260,8	5,967
261,2	5,567
261,7	3,567
262,2	5,767
262,6	3,424
263,1	9,624
263,6	11,852
264	13,481
264,5	20,624
264,9	20,767
265,4	17,881
265,9	19,252
266,3	15,052
266,8	18,824
267,3	20,624
267,7	13,824
268,2	12,91
268,7	16,824
269,1	17,452
269,6	14,081
270	11,767
270,5	2,024
271	5,252
271,4	9,195
271,9	4,138
272,4	9,224
272,8	10,31
273,3	5,71
273,7	14,167
274,2	14,138
274,7	11,338
275,1	12,567
275,6	8,081
276,1	9,081
276,5	13,652
277	11,967
277,4	8,967
277,9	11,481
278,4	15,424
278,8	18,452
279,3	18,624
279,8	16,881
280,2	21,11
280,7	23,767
281,1	19,852
281,6	17,795
282,1	13,738
282,5	10,195
283	9,024
283,4	6,452
283,9	5,395
284,4	8,481
284,8	6,51
285,3	9,138
285,8	13,11
286,2	12,624
286,7	13,51
287,1	9,452
287,6	9,51
288,1	6,367
288,5	9,31
289	7,824
289,5	10,71
289,9	7,51
290,4	9,081
290,8	7,624
291,3	12,081
291,8	12,052
292,2	11,024
292,7	12,367
293,1	16,281
293,6	18,938
294,1	17,852
294,5	16,452
295	15,538
295,5	16,424
295,9	15,652
296,4	11,738
296,8	9,852
297,3	9,138
297,8	8,624
298,2	3,167
298,7	8,338
299,1	3,681
299,6	4,052
300,1	4,852
300,5	10,567
301	14,767
301,5	20,852
301,9	14,11
302,4	16,052
302,8	14,338
303,3	18,681
303,8	9,738
304,2	7,224
304,7	3,195
305,1	1,51
305,6	0,281
306,1	10,338
306,5	7,938
307	14,424
307,4	21,052
307,9	23,052
308,4	24,967
308,8	24,681
309,3	19,567
309,8	16,452
310,2	18,052
310,7	9,367
311,1	7,852
311,6	10,538
312,1	13,938
312,5	14,738
313	18,452
313,4	16,795
313,9	19,71
314,4	20,452
314,8	17,652
315,3	15,681
315,7	8,224
316,2	4,767
316,7	2,138
317,1	4,624
317,6	2,881
318	8,252
318,5	8,91
319	10,167
319,4	13,624
319,9	23,081
320,3	22,824
320,8	25,11
321,3	25,081
321,7	26,452
322,2	25,824
322,6	22,738
323,1	12,652
323,6	7,167
324	4,167
324,5	-0,005
324,9	1,624
325,4	3,395
325,9	7,395
326,3	15,852
326,8	21,052
327,2	21,195
327,7	22,995
328,2	19,995
328,6	25,224
329,1	19,481
329,5	14,738
330	12,91
330,5	14,967
330,9	14,395
331,4	14,424
331,8	11,624
332,3	16,138
332,8	14,995
333,2	13,281
333,7	14,852
334,1	13,567
334,6	11,481
335,1	6,338
335,5	3,367
336	3,538
336,4	5,138
336,9	7,024
337,4	9,91
337,8	7,967
338,3	11,71
338,7	14,51
339,2	11,567
339,7	10,31
340,1	6,424
340,6	4,652
341	4,281
341,5	7,195
342	3,281
342,4	7,795
342,9	7,167
343,3	12,567
343,8	9,967
344,2	15,852
344,7	19,71
345,2	22,881
345,6	19,452
346,1	23,995
346,5	16,71
347	20,595
347,5	14,71
347,9	14,595
348,4	15,624
348,8	20,71
349,3	20,224
349,8	25,795
350,2	31,91
350,7	29,167
351,1	26,881
351,6	30,452
352	27,195
352,5	31,452
353	37,71
353,4	38,624
353,9	54,738
354,3	69,31
354,8	77,081
355,3	98,424
355,7	115,367
356,2	133,424
356,6	155,91
357,1	182,795
357,5	208,824
358	247,224
358,5	285,195
358,9	327,481
359,4	379,995
359,8	431,71
360,3	500,767
360,8	571,11
361,2	650,224
361,7	738,71
362,1	842,567
362,6	949,252
363	1070,738
363,5	1190,71
364	1320,167
364,4	1452,481
364,9	1586,681
365,3	1709,91
365,8	1823,367
366,3	1935,681
366,7	2032,252
367,2	2118,652
367,6	2185,567
368,1	2238,71
368,5	2272,281
369	2297,51
369,5	2300,881
369,9	2283,024
370,4	2250,081
370,8	2204,224
371,3	2137,938
371,7	2067,967
372,2	1980,995
372,7	1886,452
373,1	1789,424
373,6	1680,738
374	1575,281
374,5	1470,681
374,9	1364,967
375,4	1266,11
375,9	1173,367
376,3	1078,967
376,8	996,052
377,2	917,452
377,7	841,538
378,2	772,91
378,6	708,395
379,1	645,71
379,5	595,71
380	555,424
380,4	509,624
380,9	469,281
381,4	424,967
381,8	398,767
382,3	370,91
382,7	348,738
383,2	321,395
383,6	296,852
384,1	278,624
384,6	268,138
385	244,91
385,5	228,71
385,9	210,395
386,4	195,995
386,8	186,938
387,3	173,167
387,7	165,71
388,2	157,91
388,7	148,195
389,1	139,567
389,6	132,824
390	121,567
390,5	118,91
390,9	111,11
391,4	103,795
391,9	98,195
392,3	95,738
392,8	83,195
393,2	80,452
393,7	74,538
394,1	68,424
394,6	63,538
395,1	60,852
395,5	55,595
396	57,852
396,4	58,138
396,9	55,024
397,3	61,138
397,8	62,938
398,2	61,852
398,7	62,852
399,2	62,881
399,6	63,767
400,1	65,595
400,5	55,338
401	52,967
401,4	48,31
401,9	46,224
402,4	48,252
402,8	42,91
403,3	42,081
403,7	42,71
404,2	46,024
404,6	46,024
405,1	44,424
405,5	38,795
406	40,024
406,5	41,31
406,9	41,824
407,4	37,424
407,8	38,881
408,3	41,567
408,7	38,481
409,2	41,024
409,6	40,31
410,1	42,595
410,6	48,024
411	51,652
411,5	52,652
411,9	62,338
412,4	62,367
412,8	65,052
413,3	68,995
413,7	62,281
414,2	61,795
414,7	68,595
415,1	71,452
415,6	78,281
416	83,224
416,5	82,624
416,9	89,71
417,4	96,138
417,8	99,052
418,3	103,338
418,8	105,567
419,2	102,452
419,7	102,252
420,1	106,424
420,6	104,481
421	100,652
421,5	98,652
421,9	94,481
422,4	98,367
422,8	96,967
423,3	92,024
423,8	89,138
424,2	87,224
424,7	84,881
425,1	86,338
425,6	85,767
426	88,024
426,5	91,995
426,9	100,195
427,4	99,281
427,9	92,995
428,3	93,395
428,8	90,538
429,2	91,452
429,7	88,795
430,1	82,052
430,6	83,081
431	87,624
431,5	83,481
431,9	78,767
432,4	76,224
432,8	77,195
433,3	80,052
433,8	78,224
434,2	79,167
434,7	82,938
435,1	87,367
435,6	87,967
436	90,081
436,5	88,624
436,9	86,852
437,4	86,681
437,8	87,167
438,3	93,167
438,8	96,738
439,2	95,024
439,7	96,938
440,1	100,767
440,6	108,881
441	108,738
441,5	106,738
441,9	109,681
442,4	109,024
442,8	111,281
443,3	118,338
443,7	117,338
444,2	125,224
444,7	134,995
445,1	138,767
445,6	145,967
446	153,252
446,5	152,881
446,9	151,624
447,4	155,824
447,8	157,452
448,3	167,538
448,7	173,852
449,2	178,31
449,6	189,795
450,1	198,767
450,6	206,795
451	212,681
451,5	218,967
451,9	232,081
452,4	243,395
452,8	251,452
453,3	265,538
453,7	268,738
454,2	278,881
454,6	280,824
455,1	287,795
455,5	295,481
456	307,424
456,4	312,824
456,9	321,91
457,3	332,567
457,8	342,652
458,3	351,938
458,7	359,938
459,2	363,395
459,6	371,252
460,1	386,567
460,5	394,91
461	415,624
461,4	428,795
461,9	441,395
462,3	458,138
462,8	474,881
463,2	485,938
463,7	503,224
464,1	515,224
464,6	531,138
465	548,252
465,5	559,881
466	575,481
466,4	588,938
466,9	604,195
467,3	614,138
467,8	621,824
468,2	632,167
468,7	646,31
469,1	662,652
469,6	678,567
470	690,738
470,5	710,024
470,9	724,824
471,4	735,052
471,8	754,252
472,3	771,738
472,7	788,967
473,2	798,11
473,6	808,567
474,1	830,738
474,5	854,995
475	866,738
475,4	875,938
475,9	888,31
476,4	905,252
476,8	920,91
477,3	933,081
477,7	948,31
478,2	964,567
478,6	975,71
479,1	985,367
479,5	1002,938
480	1019,795
480,4	1032,281
480,9	1035,567
481,3	1046,224
481,8	1063,51
482,2	1075,795
482,7	1085,052
483,1	1091,31
483,6	1102,967
484	1113,681
484,5	1129,538
484,9	1137,224
485,4	1155,224
485,8	1166,195
486,3	1183,224
486,7	1190,367
487,2	1204,452
487,6	1209,738
488,1	1214,367
488,5	1210,795
489	1217,11
489,4	1218,452
489,9	1224,538
490,4	1230,824
490,8	1241,51
491,3	1253,938
491,7	1264,567
492,2	1268,51
492,6	1275,024
493,1	1287,538
493,5	1293,052
494	1285,652
494,4	1289,852
494,9	1296,995
495,3	1305,281
495,8	1307,881
496,2	1309,367
496,7	1309,452
497,1	1324,481
497,6	1329,11
498	1333,452
498,5	1332,595
498,9	1335,967
499,4	1334,881
499,8	1343,624
500,3	1343,681
500,7	1338,91
501,2	1333,281
501,6	1334,052
502,1	1337,881
502,5	1339,852
503	1338,052
503,4	1333,252
503,9	1337,281
504,3	1344,567
504,8	1345,681
505,2	1341,652
505,7	1342,852
506,1	1346,995
506,6	1344,967
507	1344,852
507,5	1346,795
507,9	1348,367
508,4	1347,995
508,8	1341,738
509,3	1336,824
509,7	1341,024
510,2	1346,081
510,6	1341,595
511,1	1339,424
511,5	1342,395
512	1345,338
512,4	1345,91
512,9	1347,195
513,3	1345,167
513,8	1347,91
514,2	1353,11
514,7	1349,795
515,1	1349,138
515,6	1346,195
516	1346,995
516,5	1345,224
516,9	1341,395
517,4	1340,024
517,8	1346,51
518,3	1347,995
518,7	1350,652
519,2	1350,595
519,6	1351,395
520,1	1355,481
520,5	1352,424
521	1345,138
521,4	1350,281
521,9	1353,195
522,3	1352,652
522,8	1349,195
523,2	1350,852
523,7	1352,652
524,1	1357,195
524,6	1353,852
525	1354,11
525,5	1354,795
525,9	1365,938
526,4	1362,195
526,8	1366,224
527,3	1367,081
527,7	1369,138
528,2	1369,424
528,6	1368,852
529,1	1370,595
529,5	1379,31
530	1378,652
530,4	1384,51
530,9	1386,481
531,3	1391,167
531,8	1397,167
532,2	1394,481
532,6	1388,51
533,1	1390,824
533,5	1389,881
534	1388,024
534,4	1384,424
534,9	1387,51
535,3	1385,767
535,8	1390,738
536,2	1395,71
536,7	1401,795
537,1	1408,824
537,6	1414,595
538	1418,195
538,5	1420,195
538,9	1421,367
539,4	1423,652
539,8	1423,852
540,3	1425,367
540,7	1430,91
541,2	1428,738
541,6	1434,995
542,1	1440,967
542,5	1445,595
543	1447,195
543,4	1442,31
543,9	1442,024
544,3	1448,938
544,8	1448,395
545,2	1453,167
545,7	1457,052
546,1	1461,281
546,5	1472,252
547	1475,081
547,4	1478,967
547,9	1483,367
548,3	1487,11
548,8	1488,024
549,2	1485,91
549,7	1486,967
550,1	1493,395
550,6	1494,795
551	1501,31
551,5	1501,081
551,9	1502,738
552,4	1507,967
552,8	1513,71
553,3	1512,395
553,7	1511,881
554,2	1510,11
554,6	1511,452
555,1	1512,424
555,5	1516,31
555,9	1519,081
556,4	1520,281
556,8	1518,681
557,3	1525,195
557,7	1530,224
558,2	1531,11
558,6	1535,424
559,1	1536,824
559,5	1537,452
560	1543,452
560,4	1545,138
560,9	1545,424
561,3	1546,995
561,8	1545,338
562,2	1549,824
562,7	1557,652
563,1	1563,938
563,6	1563,395
564	1565,338
564,4	1572,11
564,9	1579,424
565,3	1578,424
565,8	1578,824
566,2	1577,624
566,7	1584,881
567,1	1588,767
567,6	1584,081
568	1582,081
568,5	1583,738
568,9	1582,338
569,4	1584,252
569,8	1579,367
570,3	1580,738
570,7	1580,51
571,1	1580,538
571,6	1583,995
572	1587,91
572,5	1588,395
572,9	1592,195
573,4	1591,31
573,8	1599,31
574,3	1596,195
574,7	1591,652
575,2	1583,995
575,6	1578,881
576,1	1577,052
576,5	1576,824
576,9	1573,481
577,4	1573,995
577,8	1572,31
578,3	1577,824
578,7	1582,11
579,2	1581,052
579,6	1573,595
580,1	1567,51
580,5	1569,281
581	1572,252
581,4	1568,252
581,9	1562,51
582,3	1559,795
582,7	1562,652
583,2	1563,167
583,6	1559,367
584,1	1557,824
584,5	1559,824
585	1558,51
585,4	1555,567
585,9	1549,795
586,3	1553,052
586,8	1554,424
587,2	1545,995
587,6	1547,738
588,1	1548,995
588,5	1551,595
589	1555,938
589,4	1549,624
589,9	1542,738
590,3	1540,081
590,8	1529,881
591,2	1530,167
591,7	1528,51
592,1	1526,624
592,5	1526,138
593	1526,11
593,4	1528,967
593,9	1530,052
594,3	1525,738
594,8	1516,595
595,2	1515,024
595,7	1516,224
596,1	1510,795
596,6	1502,738
597	1499,71
597,4	1493,91
597,9	1493,738
598,3	1490,595
598,8	1481,938
599,2	1482,481
599,7	1484,138
600,1	1475,424
600,6	1476,052
601	1474,452
601,4	1476,024
601,9	1479,51
602,3	1472,024
602,8	1466,681
603,2	1468,195
603,7	1461,938
604,1	1461,567
604,6	1451,824
605	1441,995
605,4	1443,71
605,9	1435,652
606,3	1424,367
606,8	1422,252
607,2	1411,481
607,7	1406,995
608,1	1402,395
608,6	1396,681
609	1403,252
609,4	1411,595
609,9	1406,652
610,3	1410,967
610,8	1403,652
611,2	1400,852
611,7	1395,595
612,1	1387,338
612,6	1379,11
613	1379,195
613,4	1368,252
613,9	1364,338
614,3	1357,91
614,8	1354,852
615,2	1346,081
615,7	1338,052
616,1	1330,795
616,6	1322,31
617	1318,938
617,4	1314,967
617,9	1312,538
618,3	1317,024
618,8	1318,452
619,2	1312,081
619,7	1310,681
620,1	1303,652
620,5	1300,481
621	1290,652
621,4	1283,881
621,9	1275,967
622,3	1271,938
622,8	1268,538
623,2	1269,71
623,6	1265,91
624,1	1264,195
624,5	1253,081
625	1250,367
625,4	1243,938
625,9	1238,252
626,3	1229,852
626,8	1220,281
627,2	1217,167
627,6	1213,31
628,1	1202,452
628,5	1200,738
629	1194,167
629,4	1186,395
629,9	1180,881
630,3	1170,052
630,7	1167,281
631,2	1167,395
631,6	1158,51
632,1	1150,452
632,5	1146,224
633	1146,052
633,4	1144,167
633,8	1134,852
634,3	1128,281
634,7	1124,652
635,2	1119,195
635,6	1117,281
636,1	1111,738
636,5	1103,395
636,9	1096,71
637,4	1087,995
637,8	1078,481
638,3	1071,195
638,7	1062,281
639,2	1051,995
639,6	1045,567
640	1042,281
640,5	1038,51
640,9	1032,424
641,4	1032,71
641,8	1026,567
642,2	1020,767
642,7	1021,995
643,1	1018,31
643,6	1012,452
644	1013,338
644,5	1007,281
644,9	1005,052
645,3	1005,852
645,8	993,481
646,2	988,281
646,7	985,052
647,1	974,995
647,6	970,881
648	967,281
648,4	957,91
648,9	960,367
649,3	953,824
649,8	949,081
650,2	945,852
650,6	941,024
651,1	932,195
651,5	932,881
652	922,024
652,4	918,338
652,9	912,31
653,3	904,767
653,7	899,367
654,2	899,338
654,6	888,567
655,1	886,852
655,5	885,624
655,9	878,967
656,4	880,11
656,8	878,71
657,3	872,138
657,7	872,824
658,2	869,367
658,6	859,967
659	857,338
659,5	845,281
659,9	840,681
660,4	838,538
660,8	829,91
661,2	826,11
661,7	827,51
662,1	822,11
662,6	820,767
663	814,767
663,4	804,91
663,9	799,91
664,3	789,595
664,8	782,681
665,2	775,995
665,6	771,967
666,1	766,938
666,5	767,881
667	766,852
667,4	763,367
667,9	754,252
668,3	751,681
668,7	745,824
669,2	746,224
669,6	734,824
670,1	727,71
670,5	723,995
670,9	723,281
671,4	720,195
671,8	721,452
672,3	715,424
672,7	715,081
673,1	708,652
673,6	706,338
674	703,795
674,5	694,824
674,9	683,081
675,3	673,281
675,8	669,367
676,2	665,31
676,7	660,11
677,1	653,224
677,5	653,595
678	653,71
678,4	656,195
678,9	653,595
679,3	650,624
679,7	645,938
680,2	637,395
680,6	630,367
681,1	625,595
681,5	619,367
681,9	616,624
682,4	616,31
682,8	615,738
683,3	619,452
683,7	622,652
684,1	621,138
684,6	617,424
685	612,024
685,5	606,424
685,9	594,252
686,3	585,224
686,8	577,31
687,2	574,624
687,7	568,224
688,1	563,881
688,5	561,795
689	565,052
689,4	563,195
689,9	559,167
690,3	552,081
690,7	552,167
691,2	551,995
691,6	545,481
692	538,51
692,5	535,11
692,9	534,224
693,4	533,31
693,8	528,824
694,2	523,31
694,7	522,195
695,1	523,167
695,6	522,281
696	517,852
696,4	510,652
696,9	506,224
697,3	494,167
697,8	489,51
698,2	483,881
698,6	479,338
699,1	474,995
699,5	476,938
699,9	471,138
700,4	472,995
700,8	472,052
701,3	470,567
701,7	464,252
702,1	463,995
702,6	456,71
703	456,938
703,5	449,881
703,9	441,167
704,3	439,281
704,8	440,081
705,2	436,567
705,6	439,767
706,1	433,91
706,5	437,195
707	439,538
707,4	438,738
707,8	431,71
708,3	428,424
708,7	424,595
709,2	423,31
709,6	421,452
710	421,481
710,5	414,881
710,9	416,052
711,3	414,967
711,8	412,538
712,2	410,481
712,7	409,624
713,1	407,995
713,5	405,767
714	404,195
714,4	401,281
714,8	397,367
715,3	394,567
715,7	391,681
716,2	387,081
716,6	387,967
717	379,052
717,5	373,367
717,9	369,567
718,3	364,795
718,8	357,367
719,2	351,91
719,7	345,395
720,1	348,567
720,5	350,938
721	348,51
721,4	353,252
721,8	358,538
722,3	356,481
722,7	363,995
723,2	359,738
723,6	351,395
724	348,052
724,5	342,224
724,9	335,195
725,3	332,824
725,8	321,452
726,2	320,424
726,7	320,51
727,1	319,452
727,5	315,91
728	309,938
728,4	309,338
728,8	304,938
729,3	304,224
729,7	300,481
730,1	301,652
730,6	302,852
731	301,852
731,5	302,795
731,9	302,195
732,3	299,11
732,8	303,338
733,2	298,195
733,6	294,481
734,1	295,767
734,5	289,652
734,9	293,281
735,4	292,767
735,8	288,395
736,3	289,767
736,7	287,195
737,1	288,595
737,6	287,052
738	283,51
738,4	279,424
738,9	279,167
739,3	276,424
739,7	275,738
740,2	274,252
740,6	276,738
741,1	278,51
741,5	274,167
741,9	273,595
742,4	275,91
742,8	274,081
743,2	272,824
743,7	267,595
744,1	259,31
744,5	260,91
745	253,024
745,4	245,938
745,8	245,881
746,3	240,995
746,7	242,224
747,2	245,367
747,6	250,281
748	254,71
748,5	256,681
748,9	250,852
749,3	248,938
749,8	246,738
750,2	246,538
750,6	236,195
751,1	236,081
751,5	230,767
751,9	233,252
752,4	233,538
752,8	227,367
753,3	222,91
753,7	228,395
754,1	218,624
754,6	217,138
755	214,51
755,4	216,681
755,9	218,081
756,3	216,367
756,7	212,367
757,2	218,167
757,6	222,395
758	220,395
758,5	215,452
758,9	216,795
759,3	218,052
759,8	217,052
760,2	213,338
760,6	207,938
761,1	204,881
761,5	203,081
761,9	199,881
762,4	195,281
762,8	194,281
763,3	192,681
763,7	193,024
764,1	196,681
764,6	198,024
765	202,31
765,4	205,138
765,9	203,938
766,3	210,452
766,7	203,395
767,2	200,052
767,6	196,767
768	191,767
768,5	185,195
768,9	187,91
769,3	178,938
769,8	181,71
770,2	182,281
770,6	182,281
771,1	181,824
771,5	186,224
771,9	181,652
772,4	181,51
772,8	182,195
773,2	177,538
773,7	176,481
774,1	174,367
774,5	164,024
775	162,11
775,4	163,424
775,8	159,51
776,3	162,71
776,7	161,224
777,1	160,167
777,6	166,395
778	168,91
778,4	165,395
778,9	166,195
779,3	163,195
779,7	161,024
780,2	162,738
780,6	160,367
781	155,795
781,5	150,567
781,9	150,624
782,3	145,681
782,8	143,652
783,2	137,71
783,6	136,995
784,1	132,795
784,5	132,938
784,9	130,31
785,4	137,91
785,8	142,252
786,2	143,938
786,7	142,938
787,1	144,51
787,5	146,738
788	149,367
788,4	148,024
788,8	144,91
789,3	143,452
789,7	143,91
790,1	142,281
790,6	144,481
791	137,024
791,4	136,738
791,9	131,681
792,3	127,652
792,7	129,024
793,2	128,31
793,6	128,367
794	131,595
794,5	123,852
794,9	125,424
795,3	130,681
795,8	129,395
796,2	130,995
796,6	128,081
797,1	129,024
797,5	127,595
797,9	125,51
798,4	119,595
798,8	116,195
799,2	114,567
799,7	113,424
800,1	106,824
800,5	109,767
801	113,652
801,4	111,595
801,8	107,481
802,2	105,167
802,7	102,281
803,1	104,252
803,5	104,11
804	100,138
804,4	102,652
804,8	107,481
805,3	109,11
805,7	108,852
806,1	109,567
806,6	112,967
807	114,595
807,4	110,995
807,9	105,681
808,3	107,167
808,7	106,195
809,2	108,024
809,6	105,395
810	102,767
810,4	104,795
810,9	106,967
811,3	103,395
811,7	103,91
812,2	103,767
812,6	100,71
813	104,595
813,5	104,795
813,9	101,224
814,3	103,767
814,8	102,167
815,2	95,795
815,6	94,452
816,1	90,91
816,5	90,595
816,9	94,338
817,3	89,967
817,8	97,738
818,2	99,195
818,6	97,624
819,1	93,081
819,5	90,024
819,9	89,538
820,4	92,881
820,8	83,91
821,2	84,281
821,7	88,824
822,1	93,167
822,5	98,31
822,9	96,31
823,4	91,424
823,8	91,024
824,2	93,11
824,7	85,938
825,1	77,881
825,5	69,51
826	63,938
826,4	62,11
826,8	61,652
827,3	59,681
827,7	59,881
828,1	63,967
828,5	69,824
829	68,252
829,4	69,224
829,8	64,052
830,3	65,738
830,7	65,195
831,1	65,738
831,6	60,31
832	65,138
832,4	62,51
832,8	69,11
833,3	64,138
833,7	65,51
834,1	62,681
834,6	65,224
835	66,71
835,4	70,824
835,8	64,71
836,3	62,738
836,7	61,881
837,1	62,938
837,6	63,338
838	58,995
838,4	58,71
838,9	61,71
839,3	58,367
839,7	57,338
840,1	53,052
840,6	54,452
841	58,167
841,4	55,567
841,9	54,91
842,3	61,11
842,7	60,881
843,1	65,51
843,6	63,71
844	60,795
844,4	63,995
844,9	65,681
845,3	66,91
845,7	67,224
846,2	60,91
846,6	57,91
847	61,481
847,4	62,567
847,9	62,567
848,3	60,795
848,7	58,11
849,2	61,31
849,6	57,51
850	54,938
850,4	52,167
850,9	53,138
851,3	50,738
851,7	56,252
852,2	55,91
852,6	63,367
853	65,71
853,4	60,452
853,9	57,681
854,3	58,938
854,7	55,281
855,2	56,11
855,6	53,281
856	48,595
856,4	50,681
856,9	52,538
857,3	51,71
857,7	52,395
858,2	55,995
858,6	54,31
859	58,052
859,4	57,51
859,9	49,652
860,3	46,538
860,7	46,652
861,1	43,481
861,6	45,367
862	41,338
862,4	40,481
862,9	46,224
863,3	50,481
863,7	49,167
864,1	48,738
864,6	46,024
865	47,938
865,4	48,624
865,9	50,481
866,3	44,252
866,7	41,224
867,1	36,281
867,6	38,11
868	33,367
868,4	35,767
868,8	32,938
869,3	32,51
869,7	37,395
870,1	37,052
870,6	34,852
871	20,281
871,4	23,052
871,8	20,338
872,3	22,281
872,7	16,252
873,1	19,195
873,5	22,195
874	37,424
874,4	36,367
874,8	35,538
875,3	37,11
875,7	37,51
876,1	38,281
876,5	34,11
877	29,738
877,4	20,51
877,8	21,567
878,2	25,595
878,7	28,024
879,1	26,452
879,5	29,71
879,9	36,538
880,4	41,424
880,8	43,51
881,2	38,31
881,7	34,338
882,1	35,824
882,5	31,452
882,9	30,081
883,4	28,338
883,8	31,738
884,2	32,567
884,6	34,681
885,1	34,424
885,5	37,224
885,9	37,538
886,3	36,51
886,8	30,195
887,2	28,71
887,6	27,852
888	27,11
888,5	26,567
888,9	24,224
889,3	21,31
889,8	24,31
890,2	24,538
890,6	24,31
891	24,938
891,5	25,338
891,9	26,081
892,3	29,738
892,7	26,395
893,2	26,424
893,6	27,624
894	28,224
894,4	26,081
894,9	25,71
895,3	25,024
895,7	29,852
896,1	30,281
896,6	32,081
897	31,281
897,4	34,824
897,8	35,11
898,3	37,852
898,7	32,71
899,1	32,824
899,5	29,938
900	27,081
900,4	24,538
900,8	24,852
901,2	21,795
901,7	23,281
902,1	25,738
902,5	29,824
902,9	32,624
903,4	33,138
903,8	33,367
904,2	34,71
904,6	32,481
905,1	27,681
905,5	26,167
905,9	27,31
906,3	28,852
906,8	28,167
907,2	26,852
907,6	27,852
908	29,624
908,5	27,624
908,9	24,424
909,3	19,11
909,7	20,31
910,2	21,995
910,6	26,11
911	23,224
911,4	27,424
911,9	29,71
912,3	31,281
912,7	30,052
913,1	32,538
913,6	24,91
914	25,681
914,4	22,195
914,8	22,538
915,3	21,167
915,7	21,138
916,1	17,452
916,5	22,11
916,9	24,738
917,4	23,367
917,8	20,51
918,2	18,71
918,6	15,052
919,1	16,31
919,5	18,081
919,9	15,338
920,3	13,91
920,8	14,967
921,2	16,281
921,6	16,51
922	16,224
922,5	11,31
922,9	14,052
923,3	14,424
923,7	13,395
924,2	14,31
924,6	17,31
925	20,195
925,4	20,024
925,8	17,881
926,3	18,824
926,7	16,881
927,1	19,081
927,5	20,881
928	16,624
928,4	17,481
928,8	21,224
929,2	19,681
929,7	24,624
930,1	23,11
930,5	21,338
930,9	25,167
931,3	27,595
931,8	22,11
932,2	21,31
932,6	15,681
933	9,424
933,5	8,71
933,9	8,938
934,3	12,11
934,7	9,395
935,2	9,71
935,6	12,395
936	16,967
936,4	18,852
936,8	17,995
937,3	12,452
937,7	18,967
938,1	22,452
938,5	17,367
939	20,424
939,4	21,824
939,8	20,452
940,2	24,11
940,6	23,338
941,1	21,595
941,5	34,31
941,9	32,795
942,3	32,452
942,8	34,681
943,2	36,995
943,6	33,881
944	38,367
944,4	31,11
944,9	32,881
945,3	29,195
945,7	24,881
946,1	19,51
946,6	20,91
947	18,624
947,4	22,338
947,8	20,624
948,2	20,452
948,7	20,738
949,1	21,481
949,5	26,71
949,9	24,052
950,3	21,681
950,8	21,681
951,2	20,081
951,6	16,967
952	16,395
952,5	8,595
952,9	9,738
953,3	5,795
953,7	3,652
954,1	6,51
954,6	7,795
955	10,367
955,4	12,395
955,8	13,481
956,2	13,995
956,7	18,195
957,1	19,052
957,5	22,138
957,9	20,967
958,3	23,881
958,8	26,995
959,2	32,824
959,6	32,91
960	31,081
960,5	33,052
960,9	35,167
961,3	28,995
961,7	21,852
962,1	17,91
962,6	19,024
963	19,081
963,4	13,367
963,8	8,624
964,2	13,167
964,7	16,338
965,1	20,11
965,5	18,081
965,9	16,91
966,3	18,31
966,8	20,452
967,2	19,367
967,6	17,852
968	12,367
968,4	14,224
968,9	16,452
969,3	22,738
969,7	17,395
970,1	21,624
970,5	18,052
971	22,652
971,4	20,567
971,8	19,395
972,2	14,395
972,6	16,538
973,1	11,767
973,5	15,595
973,9	14,624
974,3	9,767
974,7	11,967
975,2	11,081
975,6	12,995
976	12,91
976,4	11,738
976,8	9,224
977,3	11,224
977,7	6,31
978,1	6,024
978,5	3,31
978,9	1,024
979,4	2,367
979,8	0,595
980,2	0,538
980,6	1,71
981	4,852
981,5	7,567
981,9	14,281
982,3	12,824
982,7	12,767
983,1	8,967
983,6	12,452
984	15,081
984,4	17,138
984,8	17,51
985,2	18,31
985,6	17,252
986,1	22,11
986,5	23,852
986,9	17,71
987,3	18,395
987,7	12,138
988,2	8,595
988,6	9,367
989	7,967
989,4	3,967
989,8	2,167
990,3	3,195
990,7	6,795
991,1	11,652
991,5	16,11
991,9	20,595
992,3	26,024
992,8	30,71
993,2	27,481
993,6	27,338
994	28,995
994,4	29,167
994,9	26,11
995,3	22,052
995,7	18,024
996,1	17,195
996,5	19,11
996,9	13,681
997,4	14,024
997,8	8,881
998,2	5,567
998,6	3,167
999	5,195
999,5	1,024
999,9	2,481
1000,3	-4,49
1000,7	-0,233
1001,1	1,081
1001,5	7,595
1002	9,567
1002,4	11,852
1002,8	7,767
1003,2	14,51
1003,6	17,452
1004	21,195
1004,5	17,367
1004,9	15,367
1005,3	10,281
1005,7	17,767
1006,1	14,252
1006,6	11,852
1007	8,624
1007,4	11,91
1007,8	8,538
1008,2	9,424
1008,6	11,538
1009,1	12,367
1009,5	11,367
1009,9	11,624
1010,3	10,252
1010,7	17,338
1011,1	18,452
1011,6	16,395
1012	18,91
1012,4	18,624
1012,8	15,824
1013,2	17,138
1013,6	13,738
1014,1	19,195
1014,5	17,481
1014,9	18,938
1015,3	22,081
1015,7	26,795
1016,1	24,31
1016,6	23,852
1017	21,138
1017,4	20,624
1017,8	17,052
1018,2	16,538
1018,6	11,224
1019,1	15,567
1019,5	14,024
1019,9	11,595
1020,3	14,738
1020,7	17,795
1021,1	18,367
1021,6	20,252
1022	19,224
1022,4	21,767
1022,8	24,338
1023,2	19,395
1023,6	15,71
1024,1	19,767
1024,5	20,738
1024,9	15,195
1025,3	12,538
1025,7	7,738
1026,1	11,595
1026,6	11,938
1027	8,424
1027,4	14,052
1027,8	17,995
1028,2	13,224
1028,6	20,881
1029	19,681
1029,5	20,938
1029,9	20,51
1030,3	7,395
1030,7	9,481
1031,1	13,995
1031,5	6,824
1032	5,738
1032,4	4,452
1032,8	6,281
1033,2	15,338
1033,6	14,938
1034	14,167
1034,4	17,252
1034,9	22,052
1035,3	20,024
1035,7	21,852
1036,1	15,967
1036,5	10,338
1036,9	9,338
1037,4	14,481
1037,8	8,252
1038,2	8,938
1038,6	1,595
1039	8,738
1039,4	15,195
1039,8	15,052
1040,3	13,138
1040,7	13,681
1041,1	18,938
1041,5	23,281
1041,9	18,938
1042,3	15,538
1042,7	13,767
1043,2	11,224
1043,6	5,424
1044	2,967
1044,4	0,91
1044,8	2,624
1045,2	1,681
1045,6	8,024
1046,1	3,91
1046,5	10,881
1046,9	8,767
1047,3	7,938
1047,7	7,195
1048,1	4,538
1048,5	3,91
1049	8,452
1049,4	9,338
1049,8	10,481
1050,2	12,538
1050,6	20,624
1051	26,481
1051,4	24,595
1051,9	23,31
1052,3	29,395
1052,7	27,938
1053,1	24,081
1053,5	22,338
1053,9	20,338
1054,3	21,052
1054,8	25,995
1055,2	23,281
1055,6	27,024
1056	28,224
1056,4	19,967
1056,8	19,452
1057,2	18,938
1057,6	10,567
1058,1	2,995
1058,5	-1,833
1058,9	3,595
1059,3	10,024
1059,7	10,967
1060,1	12,395
1060,5	18,795
1061	22,967
1061,4	26,424
1061,8	22,624
1062,2	23,424
1062,6	25,91
1063	26,31
1063,4	24,338
1063,8	24,824
1064,3	19,252
1064,7	18,11
1065,1	13,852
1065,5	7,138
1065,9	6,595
1066,3	4,795
1066,7	1,167
1067,1	4,367
1067,6	9,595
1068	5,538
1068,4	8,224
1068,8	7,995
1069,2	8,881
1069,6	11,852
1070	12,252
1070,4	9,338
1070,9	10,881
1071,3	13,281
1071,7	10,11
1072,1	11,052
1072,5	8,881
1072,9	9,624
1073,3	11,367
1073,7	12,595
1074,2	15,338
1074,6	17,91
1075	15,024
1075,4	18,538
1075,8	17,195
1076,2	17,338
1076,6	22,652
1077	19,31
1077,5	20,681
1077,9	21,481
1078,3	20,967
1078,7	20,795
1079,1	17,567
1079,5	10,595
1079,9	9,167
1080,3	9,338
1080,7	10,424
1081,2	11,11
1081,6	10,567
1082	8,138
1082,4	13,538
1082,8	15,91
1083,2	13,224
1083,6	13,938
1084	10,824
1084,5	15,11
1084,9	15,024
1085,3	11,024
1085,7	13,224
1086,1	18,452
1086,5	20,11
1086,9	22,195
1087,3	18,795
1087,7	20,167
1088,2	21,595
1088,6	18,51
1089	12,281
1089,4	9,967
1089,8	8,881
1090,2	11,252
1090,6	16,138
1091	20,224
1091,4	22,681
1091,9	22,338
1092,3	19,738
1092,7	21,281
1093,1	23,624
1093,5	21,424
1093,9	15,71
1094,3	15,71
1094,7	15,51
1095,1	20,052
1095,5	18,91
1096	8,195
1096,4	7,367
1096,8	7,252
1097,2	4,138
1097,6	7,31
1098	5,338
1098,4	7,224
1098,8	15,91
1099,2	18,795
1099,6	20,681
1100,1	18,681
1100,5	17,595
1100,9	19,538
1101,3	17,681
1101,7	17,452
1102,1	12,652
1102,5	14,91
1102,9	20,995
1103,3	23,31
1103,7	19,938
1104,2	19,595
1104,6	17,967
1105	18,024
1105,4	15,252
1105,8	9,081
1106,2	5,338
1106,6	5,052
1107	3,281
1107,4	1,633
1107,8	1,287
1108,3	-0,633
