Data from Subt2_012.txt Node
Date: Sat Aug 26 16:13:34 MSK 2023
User: vat
Spectrometer: MAYP114033
Trigger mode: 0
Integration Time (sec): 1,000000E0
Scans to average: 5
Electric dark correction enabled: true
Nonlinearity correction enabled: false
Boxcar width: 3
XAxis mode: Wavelengths
Number of Pixels in Spectrum: 2068
>>>>>Begin Spectral Data<<<<<
199,4	-1,35
199,9	-3,74
200,4	-2,933
200,8	-0,1
201,3	0,957
201,8	1,7
202,2	2,271
202,7	3,014
203,2	4,871
203,6	11,071
204,1	8,271
204,6	9,7
205	12,757
205,5	9,986
206	8,957
206,4	6,729
206,9	2,1
207,4	3,9
207,8	3,757
208,3	-0,3
208,8	3,586
209,2	1,957
209,7	5,157
210,2	4,871
210,6	-1,214
211,1	-0,443
211,5	-0,871
212	-1,443
212,5	1,1
212,9	5,843
213,4	4,843
213,9	6,986
214,3	5,271
214,8	9,243
215,3	11,1
215,7	14,129
216,2	9,243
216,7	11,786
217,1	11,986
217,6	10,157
218,1	6,986
218,5	1,329
219	-8,471
219,5	-2,071
219,9	-5,957
220,4	-1,814
220,9	-5,186
221,3	-5,557
221,8	-6,043
222,3	-0,071
222,7	-8,271
223,2	-6,529
223,6	0,214
224,1	3,443
224,6	2,271
225	6,729
225,5	8,729
226	10,043
226,4	12,757
226,9	4,9
227,4	10,557
227,8	12,043
228,3	10,643
228,8	11,3
229,2	9,471
229,7	5,957
230,2	5,871
230,6	0,843
231,1	6,243
231,5	10,129
232	10,471
232,5	12,243
232,9	7,814
233,4	8,5
233,9	7,414
234,3	0,614
234,8	-0,586
235,3	0,386
235,7	-1,557
236,2	0,843
236,7	-1,586
237,1	-0,471
237,6	2,186
238,1	-0,643
238,5	-5,986
239	1,014
239,4	2,957
239,9	2,9
240,4	1,186
240,8	0,671
241,3	2,014
241,8	5,1
242,2	0,157
242,7	4,5
243,2	4,329
243,6	11,386
244,1	10,929
244,6	8,957
245	5,271
245,5	4,643
245,9	4,443
246,4	10,071
246,9	7,7
247,3	7,414
247,8	9,7
248,3	10,329
248,7	13,929
249,2	11,443
249,7	7,586
250,1	5,414
250,6	8,243
251	3,443
251,5	8,386
252	8,843
252,4	11,3
252,9	9,729
253,4	9,271
253,8	5,214
254,3	7,357
254,8	6,729
255,2	4,9
255,7	-3,471
256,1	-3,986
256,6	-7,929
257,1	-2,814
257,5	-3,757
258	-6,471
258,5	-10,9
258,9	-3,329
259,4	-7,186
259,9	-6,3
260,3	-11,9
260,8	-5,7
261,2	-6,1
261,7	-2,329
262,2	-3,671
262,6	0,014
263,1	4,471
263,6	4,357
264	2,529
264,5	6,5
264,9	4,671
265,4	3,271
265,9	5,214
266,3	3,5
266,8	4,671
267,3	2,357
267,7	1,3
268,2	0,957
268,7	1,014
269,1	3,271
269,6	1,671
270	2,271
270,5	2,157
271	-4,3
271,4	-3,786
271,9	-0,957
272,4	-4,186
272,8	0,614
273,3	1,243
273,7	4,614
274,2	6,014
274,7	9,214
275,1	8,614
275,6	6,986
276,1	10,586
276,5	10,814
277	4,243
277,4	4,214
277,9	2,5
278,4	0,386
278,8	1,929
279,3	-4,186
279,8	-1,929
280,2	-1,1
280,7	5,557
281,1	3,529
281,6	1,5
282,1	3,671
282,5	0,5
283	-0,157
283,4	1,1
283,9	-4,357
284,4	-3,271
284,8	-0,243
285,3	-1,5
285,8	3,1
286,2	-2,043
286,7	-2,671
287,1	1,529
287,6	1,214
288,1	-1,043
288,5	-1,1
289	-1,357
289,5	0,929
289,9	2,529
290,4	-4,9
290,8	-4,271
291,3	-0,414
291,8	-1,214
292,2	-2,843
292,7	1,414
293,1	7,871
293,6	18,129
294,1	17,157
294,5	14,557
295	14,529
295,5	14,5
295,9	11,5
296,4	3,757
296,8	0,871
297,3	0,5
297,8	-5,529
298,2	-3,1
298,7	-0,586
299,1	1,386
299,6	2,814
300,1	9,443
300,5	16,9
301	20,586
301,5	21,014
301,9	21,586
302,4	12,786
302,8	13,157
303,3	3,7
303,8	-5,243
304,2	-1,729
304,7	-2,071
305,1	-5,5
305,6	1,271
306,1	1,671
306,5	0,071
307	-0,186
307,4	-1,614
307,9	-5,186
308,4	-7,586
308,8	-5,043
309,3	-6,643
309,8	-1,5
310,2	0,957
310,7	-0,643
311,1	2,129
311,6	4,443
312,1	2,071
312,5	4,357
313	0,871
313,4	0,786
313,9	1,7
314,4	3,529
314,8	4,786
315,3	0,671
315,7	1,614
316,2	2,357
316,7	-0,357
317,1	5,814
317,6	5,1
318	2,471
318,5	8,071
319	5,614
319,4	1,271
319,9	1,414
320,3	-3,643
320,8	-3,814
321,3	-1,929
321,7	-3,214
322,2	-2,614
322,6	1,986
323,1	3,871
323,6	6,129
324	7,5
324,5	10,957
324,9	8,1
325,4	8,671
325,9	5,557
326,3	8,214
326,8	6,357
327,2	7,5
327,7	5,071
328,2	6,786
328,6	3,414
329,1	4,471
329,5	1,643
330	2,157
330,5	-1,986
330,9	-3,386
331,4	-4,1
331,8	1,129
332,3	2,357
332,8	5,529
333,2	2,614
333,7	0,757
334,1	1,586
334,6	4,7
335,1	2,729
335,5	3,957
336	0,329
336,4	6,443
336,9	5,7
337,4	8,1
337,8	9,157
338,3	7,871
338,7	7,471
339,2	7,786
339,7	1,386
340,1	6,586
340,6	0,729
341	-1,471
341,5	1,043
342	1,586
342,4	6,9
342,9	13,357
343,3	12,814
343,8	17,3
344,2	14,671
344,7	17,329
345,2	18,386
345,6	13,071
346,1	6,329
346,5	8,586
347	5,071
347,5	8,014
347,9	6,9
348,4	2,643
348,8	4,243
349,3	7,871
349,8	8,357
350,2	17,357
350,7	22,986
351,1	22,9
351,6	30,1
352	37,014
352,5	42,643
353	44,957
353,4	46,071
353,9	48,014
354,3	60,043
354,8	71,986
355,3	85,129
355,7	98,071
356,2	119,186
356,6	144,071
357,1	174,757
357,5	200,386
358	231,786
358,5	274,3
358,9	325,329
359,4	376,786
359,8	433,3
360,3	500,729
360,8	580,329
361,2	667,443
361,7	757,814
362,1	851,271
362,6	965,157
363	1085,814
363,5	1212,186
364	1349,814
364,4	1483,986
364,9	1620,3
365,3	1763,986
365,8	1893,129
366,3	2014,386
366,7	2121,443
367,2	2207,3
367,6	2289,557
368,1	2353,614
368,5	2390,157
369	2405,671
369,5	2403,586
369,9	2388,643
370,4	2351,386
370,8	2290,557
371,3	2214,129
371,7	2136,386
372,2	2045,5
372,7	1952,843
373,1	1845,671
373,6	1745,843
374	1637,3
374,5	1532,329
374,9	1419,614
375,4	1323,471
375,9	1223,1
376,3	1125,786
376,8	1030,1
377,2	948,729
377,7	874,271
378,2	808,271
378,6	739,014
379,1	677,214
379,5	621,129
380	572,129
380,4	524,643
380,9	479,9
381,4	436,3
381,8	396,357
382,3	362,243
382,7	339,5
383,2	317,614
383,6	295,014
384,1	273,214
384,6	258,014
385	245,586
385,5	232,557
385,9	211,929
386,4	192,586
386,8	181,157
387,3	166,957
387,7	155,729
388,2	139,443
388,7	125,214
389,1	114,7
389,6	108,443
390	99,386
390,5	91,957
390,9	81,786
391,4	79,586
391,9	79,729
392,3	81,3
392,8	78,214
393,2	73,243
393,7	72,729
394,1	71,557
394,6	70,214
395,1	63,414
395,5	60,557
396	54,786
396,4	56,186
396,9	55,014
397,3	51,586
397,8	47,557
398,2	44,071
398,7	41,643
399,2	41,7
399,6	37,843
400,1	36,529
400,5	36,329
401	33,729
401,4	32,643
401,9	29,843
402,4	32,014
402,8	31,586
403,3	31,929
403,7	36,729
404,2	39,9
404,6	45,271
405,1	45,243
405,5	42,957
406	44,786
406,5	46,414
406,9	47,1
407,4	49,414
407,8	54,043
408,3	58,986
408,7	62,843
409,2	69,814
409,6	79,529
410,1	86,043
410,6	90,843
411	93,471
411,5	99,329
411,9	113,014
412,4	120,214
412,8	119,7
413,3	126,9
413,7	134,586
414,2	147,014
414,7	156,271
415,1	153,929
415,6	160,986
416	171,414
416,5	181,043
416,9	190,414
417,4	194,871
417,8	204,386
418,3	216,9
418,8	230,3
419,2	241,986
419,7	251,243
420,1	263,471
420,6	287,586
421	299,414
421,5	317,671
421,9	327,386
422,4	340,757
422,8	357,786
423,3	377,643
423,8	386,957
424,2	406,271
424,7	426,329
425,1	452,557
425,6	470,929
426	491,1
426,5	514,529
426,9	535,557
427,4	565,1
427,9	589,414
428,3	616,129
428,8	653,786
429,2	686,9
429,7	717,814
430,1	757,814
430,6	791,214
431	831,929
431,5	872,357
431,9	912,1
432,4	953,729
432,8	998,329
433,3	1040,529
433,8	1087,443
434,2	1140,1
434,7	1193,271
435,1	1250,271
435,6	1305,786
436	1374,157
436,5	1440,186
436,9	1509,043
437,4	1575,957
437,8	1647,814
438,3	1726,757
438,8	1809,1
439,2	1883,986
439,7	1970,1
440,1	2058,186
440,6	2148,471
441	2243,586
441,5	2336,071
441,9	2435,9
442,4	2541,786
442,8	2644,871
443,3	2756,814
443,7	2867,729
444,2	2976,586
444,7	3096,014
445,1	3215,9
445,6	3344,529
446	3470,043
446,5	3602,814
446,9	3745,129
447,4	3899,671
447,8	4045,329
448,3	4199,614
448,7	4341,7
449,2	4503,386
449,6	4656,586
450,1	4812,786
450,6	4968,386
451	5130,3
451,5	5305,386
451,9	5491,671
452,4	5667,329
452,8	5852,214
453,3	6045,3
453,7	6234,871
454,2	6437,1
454,6	6624,729
455,1	6816,471
455,5	7017,757
456	7216,614
456,4	7419,386
456,9	7633,471
457,3	7841,929
457,8	8059,214
458,3	8268,557
458,7	8493,557
459,2	8722,329
459,6	8931,471
460,1	9147,129
460,5	9367,3
461	9596,929
461,4	9842,129
461,9	10071,014
462,3	10297,586
462,8	10545,357
463,2	10775,814
463,7	11010,586
464,1	11235,814
464,6	11458,786
465	11681,157
465,5	11921,471
466	12154,471
466,4	12384,586
466,9	12607,386
467,3	12849,157
467,8	13089,986
468,2	13332,843
468,7	13565,929
469,1	13784,471
469,6	14021,329
470	14258,986
470,5	14472,586
470,9	14688,414
471,4	14896,957
471,8	15098,443
472,3	15313,671
472,7	15510,843
473,2	15712,729
473,6	15906,929
474,1	16090,043
474,5	16295,586
475	16498,557
475,4	16684,586
475,9	16886,243
476,4	17071,1
476,8	17248,586
477,3	17427,414
477,7	17579,929
478,2	17722,5
478,6	17888,3
479,1	18026,929
479,5	18156,643
480	18297,043
480,4	18436,3
480,9	18555,986
481,3	18685,071
481,8	18792,957
482,2	18899,443
482,7	19009,214
483,1	19107,871
483,6	19188,557
484	19290,9
484,5	19373,157
484,9	19438,929
485,4	19501,557
485,8	19560,329
486,3	19617,671
486,7	19671,329
487,2	19708,7
487,6	19739,271
488,1	19768,386
488,5	19801,586
489	19812,186
489,4	19821,586
489,9	19822,5
490,4	19820,671
490,8	19824,443
491,3	19803,271
491,7	19775,214
492,2	19761,814
492,6	19727,271
493,1	19692,843
493,5	19639,786
494	19583,7
494,4	19539,329
494,9	19492,271
495,3	19413,386
495,8	19350,871
496,2	19284,7
496,7	19214,929
497,1	19137,957
497,6	19066,671
498	18983,271
498,5	18921,671
498,9	18842,557
499,4	18753,9
499,8	18666,071
500,3	18574,529
500,7	18484,757
501,2	18389,843
501,6	18289,529
502,1	18186,214
502,5	18080,557
503	17980,557
503,4	17871,243
503,9	17742,986
504,3	17628,814
504,8	17512,357
505,2	17391,7
505,7	17278,671
506,1	17148,386
506,6	17016,614
507	16892,871
507,5	16760,871
507,9	16616,929
508,4	16485,843
508,8	16343,186
509,3	16212,071
509,7	16078,014
510,2	15942,614
510,6	15809,414
511,1	15675,157
511,5	15521,814
512	15370,757
512,4	15225,814
512,9	15083,1
513,3	14946,3
513,8	14802,871
514,2	14657,214
514,7	14526,471
515,1	14390,271
515,6	14250,929
516	14112,586
516,5	13966,9
516,9	13806,471
517,4	13669,957
517,8	13522,186
518,3	13382,814
518,7	13240,757
519,2	13093,157
519,6	12953,9
520,1	12830,443
520,5	12680,7
521	12539,586
521,4	12410,043
521,9	12265,071
522,3	12134,357
522,8	12003,157
523,2	11862,614
523,7	11737,271
524,1	11608,643
524,6	11469,986
525	11350,814
525,5	11225,729
525,9	11097,9
526,4	10982,5
526,8	10857,757
527,3	10737,9
527,7	10620,929
528,2	10502,129
528,6	10383,9
529,1	10271,129
529,5	10146,586
530	10042,386
530,4	9940,5
530,9	9823,243
531,3	9709,129
531,8	9601,643
532,2	9493,729
532,6	9400,5
533,1	9300,043
533,5	9192,871
534	9102,071
534,4	9009,414
534,9	8912,529
535,3	8810,557
535,8	8706,071
536,2	8601,214
536,7	8510,214
537,1	8406,529
537,6	8313,043
538	8223,414
538,5	8138,5
538,9	8050,129
539,4	7971,129
539,8	7879,7
540,3	7797,929
540,7	7716,271
541,2	7634,729
541,6	7553,7
542,1	7478,757
542,5	7396,729
543	7326,814
543,4	7250,643
543,9	7180,614
544,3	7108,3
544,8	7037,586
545,2	6969,214
545,7	6898,757
546,1	6825,471
546,5	6767,586
547	6697,557
547,4	6633,614
547,9	6567,957
548,3	6504,986
548,8	6442,3
549,2	6385,986
549,7	6325,329
550,1	6269,7
550,6	6216,9
551	6163,471
551,5	6102,529
551,9	6044,1
552,4	5985,3
552,8	5929,414
553,3	5877,757
553,7	5821,614
554,2	5767,071
554,6	5716,443
555,1	5666,1
555,5	5613,329
555,9	5569,614
556,4	5516,3
556,8	5463,529
557,3	5415,443
557,7	5366,129
558,2	5328,814
558,6	5292,014
559,1	5239,271
559,5	5196,443
560	5154,386
560,4	5112,7
560,9	5079,186
561,3	5039,443
561,8	5001,929
562,2	4969,957
562,7	4932,671
563,1	4896,071
563,6	4862,843
564	4827,957
564,4	4786,271
564,9	4737,443
565,3	4703,957
565,8	4673,557
566,2	4638,157
566,7	4597,9
567,1	4554,414
567,6	4519,843
568	4487,843
568,5	4450,071
568,9	4411,471
569,4	4374,243
569,8	4345,414
570,3	4320,9
570,7	4291,671
571,1	4266,071
571,6	4235,557
572	4204,729
572,5	4176,186
572,9	4148,214
573,4	4114,214
573,8	4083,5
574,3	4057,586
574,7	4031,957
575,2	4005,986
575,6	3982,243
576,1	3949,071
576,5	3925,729
576,9	3904,929
577,4	3873,157
577,8	3840,014
578,3	3813,757
578,7	3783,357
579,2	3757,043
579,6	3730,329
580,1	3700,843
580,5	3683,129
581	3659,414
581,4	3639,129
581,9	3615,414
582,3	3592,1
582,7	3571,786
583,2	3542,671
583,6	3509,043
584,1	3485,071
584,5	3455,414
585	3439,129
585,4	3416,557
585,9	3386,957
586,3	3371,9
586,8	3354,243
587,2	3333,643
587,6	3312,443
588,1	3291,014
588,5	3269,471
589	3242,414
589,4	3219,814
589,9	3200,357
590,3	3178,414
590,8	3153,729
591,2	3133,043
591,7	3112,243
592,1	3099,529
592,5	3076,071
593	3049,9
593,4	3032,871
593,9	3020,1
594,3	3001,129
594,8	2988,243
595,2	2972,786
595,7	2963,5
596,1	2952,7
596,6	2938,014
597	2921,871
597,4	2906,414
597,9	2886,157
598,3	2873,643
598,8	2855,557
599,2	2840,129
599,7	2828,671
600,1	2812,471
600,6	2794,214
601	2781,129
601,4	2763,557
601,9	2746,014
602,3	2735,329
602,8	2714,7
603,2	2704,329
603,7	2694,329
604,1	2680,586
604,6	2668,386
605	2655,814
605,4	2635,986
605,9	2625,129
606,3	2608,529
606,8	2587,671
607,2	2574,443
607,7	2550,757
608,1	2536,757
608,6	2521,529
609	2507,243
609,4	2487,129
609,9	2477,443
610,3	2465,671
610,8	2455,414
611,2	2437,9
611,7	2423,443
612,1	2409,1
612,6	2401,957
613	2391,986
613,4	2372,671
613,9	2359,986
614,3	2351,957
614,8	2344,729
615,2	2332,471
615,7	2314,414
616,1	2289,614
616,6	2278,271
617	2268,357
617,4	2251,814
617,9	2237,043
618,3	2219,729
618,8	2203,014
619,2	2198,329
619,7	2187,929
620,1	2172,529
620,5	2162,471
621	2143,557
621,4	2134,814
621,9	2124,671
622,3	2109,329
622,8	2091,043
623,2	2072,957
623,6	2059,414
624,1	2043,529
624,5	2025,329
625	2015,729
625,4	2003,414
625,9	1989,871
626,3	1981,614
626,8	1966,386
627,2	1961,586
627,6	1950,986
628,1	1935,757
628,5	1922,843
629	1917,957
629,4	1907,214
629,9	1897,786
630,3	1881,586
630,7	1864,271
631,2	1853,157
631,6	1838,243
632,1	1821,443
632,5	1808,186
633	1794,186
633,4	1781,586
633,8	1776,671
634,3	1765,214
634,7	1758,214
635,2	1743,157
635,6	1733,243
636,1	1723,529
636,5	1715,614
636,9	1699,1
637,4	1684,814
637,8	1670,071
638,3	1658,843
638,7	1647,557
639,2	1634,729
639,6	1622,3
640	1616,471
640,5	1607,3
640,9	1602,443
641,4	1596,157
641,8	1584,186
642,2	1573,614
642,7	1566,871
643,1	1557,957
643,6	1549,129
644	1534,186
644,5	1528,329
644,9	1521,814
645,3	1511,5
645,8	1499,357
646,2	1482,871
646,7	1473,414
647,1	1467,814
647,6	1452,357
648	1439,129
648,4	1432,929
648,9	1427,586
649,3	1423,929
649,8	1414,014
650,2	1409,386
650,6	1401,214
651,1	1392,814
651,5	1384,729
652	1377,329
652,4	1367,643
652,9	1365,929
653,3	1352,643
653,7	1349,643
654,2	1339,157
654,6	1328,757
655,1	1316,1
655,5	1304,329
655,9	1291,043
656,4	1280,357
656,8	1267,329
657,3	1264,529
657,7	1254,671
658,2	1250,614
658,6	1247,814
659	1238,157
659,5	1226,7
659,9	1218,671
660,4	1207,729
660,8	1200,443
661,2	1187,1
661,7	1175,386
662,1	1171,243
662,6	1163,614
663	1155,929
663,4	1146,9
663,9	1138,329
664,3	1127,757
664,8	1121,957
665,2	1109,5
665,6	1107,7
666,1	1103,5
666,5	1097,614
667	1088,757
667,4	1082,3
667,9	1071,7
668,3	1067,014
668,7	1058,214
669,2	1043,329
669,6	1037,957
670,1	1033,214
670,5	1023,471
670,9	1017,643
671,4	1012,557
671,8	1004,271
672,3	999,729
672,7	990,986
673,1	982,157
673,6	979,443
674	970,5
674,5	960,214
674,9	956,7
675,3	949,757
675,8	941,386
676,2	934,671
676,7	926,871
677,1	917,186
677,5	908,1
678	896,586
678,4	893,843
678,9	887,414
679,3	879,386
679,7	875,071
680,2	878,929
680,6	873,271
681,1	869,329
681,5	863,9
681,9	857,586
682,4	851,329
682,8	847,214
683,3	834,871
683,7	828,1
684,1	819,871
684,6	814,729
685	810,986
685,5	806,929
685,9	796,5
686,3	792,5
686,8	785,786
687,2	784,729
687,7	771,414
688,1	764,471
688,5	755,329
689	750,557
689,4	742,443
689,9	742,386
690,3	732,243
690,7	731,014
691,2	724,9
691,6	720,986
692	718,529
692,5	719,1
692,9	712,5
693,4	708,3
693,8	702,814
694,2	699,3
694,7	697,843
695,1	688,271
695,6	678,986
696	672,529
696,4	666,386
696,9	666,671
697,3	652,471
697,8	652,014
698,2	646,243
698,6	642,614
699,1	638,843
699,5	637,7
699,9	631,929
700,4	635,471
700,8	625,271
701,3	622,957
701,7	619,357
702,1	617,786
702,6	609,1
703	598,043
703,5	593,271
703,9	588,786
704,3	588,9
704,8	583,529
705,2	575,786
705,6	571,271
706,1	567,357
706,5	563,671
707	560,1
707,4	554,871
707,8	551,243
708,3	546,729
708,7	546,3
709,2	539,557
709,6	533,414
710	528,1
710,5	520,386
710,9	516,957
711,3	515,214
711,8	513,671
712,2	518,5
712,7	515,643
713,1	514,757
713,5	510,5
714	509,071
714,4	504,643
714,8	495,386
715,3	487,586
715,7	478,1
716,2	469,043
716,6	468,471
717	459,5
717,5	455,414
717,9	453,586
718,3	447,786
718,8	452,814
719,2	446,843
719,7	444,586
720,1	442,186
720,5	434,814
721	430,557
721,4	430,814
721,8	426,643
722,3	426,786
722,7	420,214
723,2	413,3
723,6	412,271
724	407,786
724,5	402,786
724,9	394,871
725,3	395,871
725,8	390,786
726,2	392,586
726,7	393,7
727,1	392,814
727,5	390,443
728	391,671
728,4	385,729
728,8	381,7
729,3	383,214
729,7	376,614
730,1	373,414
730,6	371,614
731	369,929
731,5	373,3
731,9	372,3
732,3	360,957
732,8	361,386
733,2	360,329
733,6	358,357
734,1	355,271
734,5	347,957
734,9	350,271
735,4	349,757
735,8	347,871
736,3	348,957
736,7	347,243
737,1	346,529
737,6	345,3
738	343,843
738,4	347,414
738,9	347,729
739,3	337,271
739,7	337,786
740,2	335,1
740,6	332,7
741,1	327,871
741,5	318,471
741,9	308,243
742,4	310,643
742,8	303,157
743,2	298,843
743,7	295,157
744,1	293,043
744,5	293,814
745	297,643
745,4	290,671
745,8	290,9
746,3	291,214
746,7	293,071
747,2	287,671
747,6	290,5
748	285,471
748,5	290,357
748,9	289,9
749,3	286,014
749,8	283,157
750,2	279,186
750,6	276,843
751,1	276,7
751,5	273,071
751,9	269,329
752,4	264,643
752,8	256,157
753,3	261,443
753,7	257,186
754,1	252,386
754,6	250,9
755	248,443
755,4	251,1
755,9	253,671
756,3	247,671
756,7	243,843
757,2	244,271
757,6	242,186
758	239,614
758,5	239,243
758,9	236,757
759,3	236,843
759,8	236,157
760,2	235,243
760,6	237,243
761,1	236,7
761,5	233,386
761,9	233,071
762,4	231,814
762,8	230,243
763,3	227,557
763,7	215,529
764,1	212,9
764,6	211,871
765	216,557
765,4	216,186
765,9	212,9
766,3	214,671
766,7	221,586
767,2	220,414
767,6	221,043
768	215,614
768,5	212,757
768,9	210,3
769,3	211,186
769,8	208,043
770,2	206,7
770,6	199,1
771,1	192,243
771,5	191,729
771,9	193,729
772,4	188,7
772,8	184,129
773,2	184,671
773,7	185,843
774,1	189,386
774,5	187,129
775	186,3
775,4	186,157
775,8	189,014
776,3	189,557
776,7	185,643
777,1	180,957
777,6	178,3
778	177,986
778,4	172,414
778,9	172,3
779,3	167,614
779,7	169,929
780,2	173,3
780,6	176,814
781	176,643
781,5	176,586
781,9	174,414
782,3	175,157
782,8	176,5
783,2	180,757
783,6	180,214
784,1	174,871
784,5	171,814
784,9	168,157
785,4	166,214
785,8	166,214
786,2	161,643
786,7	155,729
787,1	158,186
787,5	158,529
788	160,214
788,4	158,043
788,8	152,243
789,3	149,643
789,7	151,986
790,1	150,871
790,6	151,7
791	150,786
791,4	147,214
791,9	149,014
792,3	144,929
792,7	143,786
793,2	139,671
793,6	140,929
794	139,071
794,5	141,357
794,9	141,186
795,3	140,414
795,8	139,843
796,2	139,443
796,6	137,5
797,1	141,757
797,5	141,786
797,9	135,043
798,4	134,443
798,8	134,043
799,2	135,043
799,7	132,843
800,1	127,157
800,5	127,614
801	129,157
801,4	129,671
801,8	125,157
802,2	122,043
802,7	122,157
803,1	120,843
803,5	112,329
804	115,129
804,4	109,357
804,8	109,414
805,3	111,729
805,7	106,186
806,1	106,986
806,6	108,557
807	105,329
807,4	108,214
807,9	109,757
808,3	103,357
808,7	104,1
809,2	106,157
809,6	106,529
810	104,471
810,4	101,671
810,9	101,129
811,3	97,671
811,7	104,3
812,2	101,1
812,6	101,043
813	98,757
813,5	98,214
813,9	97,9
814,3	103,243
814,8	101,843
815,2	99,9
815,6	97,729
816,1	99,329
816,5	104,529
816,9	97,157
817,3	94,671
817,8	91,986
818,2	89,471
818,6	91,386
819,1	92,671
819,5	86,671
819,9	92,186
820,4	96,671
820,8	96,357
821,2	95,186
821,7	93,443
822,1	92,386
822,5	94,443
822,9	95,529
823,4	89,814
823,8	87,671
824,2	90,443
824,7	89,471
825,1	86,729
825,5	81,357
826	77,729
826,4	80,614
826,8	74,357
827,3	70,1
827,7	70,7
828,1	72,157
828,5	70,843
829	66,586
829,4	67,071
829,8	74,557
830,3	71,729
830,7	67,157
831,1	65,557
831,6	67,986
832	69,014
832,4	63,157
832,8	61,643
833,3	65,643
833,7	66,7
834,1	67,9
834,6	66,186
835	69,729
835,4	75,157
835,8	68,929
836,3	65,071
836,7	64,157
837,1	57,129
837,6	57,814
838	54,043
838,4	47,1
838,9	45,043
839,3	50,5
839,7	50,786
840,1	56,186
840,6	53,814
841	50,157
841,4	51,9
841,9	54,586
842,3	52,929
842,7	55,814
843,1	56,871
843,6	63,014
844	69,786
844,4	69,329
844,9	70,129
845,3	68,214
845,7	72,071
846,2	66,986
846,6	63,843
847	58,9
847,4	58,7
847,9	58,014
848,3	57,414
848,7	50,871
849,2	53,1
849,6	54,129
850	57,186
850,4	61,986
850,9	64,443
851,3	61,986
851,7	61,786
852,2	57,986
852,6	56,386
853	52,843
853,4	48,357
853,9	46,443
854,3	47,529
854,7	44,414
855,2	45,129
855,6	43,957
856	44,986
856,4	44,243
856,9	45,529
857,3	44,729
857,7	46,557
858,2	45,814
858,6	43,9
859	42,5
859,4	44,014
859,9	39,586
860,3	43,3
860,7	43,471
861,1	40,243
861,6	36,757
862	39,814
862,4	38,071
862,9	38,129
863,3	34,271
863,7	34,557
864,1	39,414
864,6	44,586
865	43,357
865,4	42,614
865,9	42,814
866,3	38,1
866,7	35,786
867,1	30,586
867,6	25,3
868	16,786
868,4	16,643
868,8	14,214
869,3	22,157
869,7	27,414
870,1	30,786
870,6	33,929
871	-14,357
871,4	-13,129
871,8	-10,957
872,3	-18,986
872,7	-26,871
873,1	-24,957
873,5	-25,957
874	28,7
874,4	26,671
874,8	24,043
875,3	26,986
875,7	27,5
876,1	25,386
876,5	25,729
877	27,3
877,4	28,9
877,8	28,757
878,2	27,471
878,7	28,757
879,1	31,7
879,5	31,729
879,9	24,186
880,4	22,929
880,8	23,014
881,2	24,214
881,7	24,5
882,1	25,557
882,5	24,614
882,9	33,643
883,4	31,871
883,8	30,729
884,2	31,729
884,6	31,386
885,1	25,1
885,5	25,471
885,9	24,071
886,3	19,929
886,8	23,557
887,2	22,7
887,6	22,014
888	26,9
888,5	28,1
888,9	22,671
889,3	28,243
889,8	30,557
890,2	29,043
890,6	28,786
891	30,157
891,5	26,271
891,9	26,671
892,3	25,014
892,7	20,586
893,2	21,929
893,6	20,357
894	14,014
894,4	20,271
894,9	17,557
895,3	15,643
895,7	17,729
896,1	21,671
896,6	25,643
897	24,557
897,4	20,814
897,8	24,386
898,3	23,1
898,7	17,614
899,1	12,357
899,5	9,957
900	12,729
900,4	9,586
900,8	13,414
901,2	14,329
901,7	18,871
902,1	21,414
902,5	23,271
902,9	22,214
903,4	22,443
903,8	15,986
904,2	16,729
904,6	19,814
905,1	18,3
905,5	16,357
905,9	18,129
906,3	15,1
906,8	15,529
907,2	12,614
907,6	2,557
908	5,671
908,5	6,614
908,9	4,957
909,3	10,643
909,7	13,986
910,2	19,357
910,6	26,386
911	23,643
911,4	21,5
911,9	20,643
912,3	24,5
912,7	24,157
913,1	23,271
913,6	24,614
914	23,157
914,4	25,071
914,8	26,157
915,3	24,386
915,7	23,814
916,1	25,414
916,5	20,471
916,9	24,7
917,4	24,671
917,8	25,386
918,2	21,814
918,6	20,529
919,1	18,071
919,5	16,471
919,9	11,757
920,3	11,986
920,8	13,729
921,2	14,557
921,6	15,7
922	14,814
922,5	19,071
922,9	21,729
923,3	20,671
923,7	16,7
924,2	17,214
924,6	15,271
925	19,3
925,4	16,557
925,8	7,386
926,3	5,443
926,7	9,071
927,1	7,7
927,5	8,871
928	9,671
928,4	13,414
928,8	17,614
929,2	20,9
929,7	17,7
930,1	13,186
930,5	16,186
930,9	13,186
931,3	11,843
931,8	12,186
932,2	7,843
932,6	9,3
933	12,3
933,5	6,986
933,9	4,871
934,3	1,986
934,7	5,443
935,2	7,357
935,6	4,929
936	9,5
936,4	5,786
936,8	6,643
937,3	7,043
937,7	-2,329
938,1	-2,271
938,5	-6,014
939	-6,9
939,4	0,386
939,8	-0,071
940,2	2,071
940,6	6,814
941,1	6,9
941,5	12,529
941,9	7,071
942,3	5,271
942,8	3,014
943,2	-1,014
943,6	-0,843
944	-4,671
944,4	-7,471
944,9	-2,386
945,3	-2,757
945,7	2,443
946,1	0,557
946,6	1,357
947	5,443
947,4	6,471
947,8	2,814
948,2	3,843
948,7	-1,129
949,1	4,443
949,5	5,814
949,9	7,786
950,3	7,986
950,8	5,329
951,2	2,014
951,6	3,014
952	1,586
952,5	4,614
952,9	3,071
953,3	1,471
953,7	2,329
954,1	8,929
954,6	7,9
955	10,357
955,4	8,386
955,8	6,586
956,2	6,929
956,7	10,214
957,1	3,557
957,5	2,586
957,9	-0,214
958,3	-4,357
958,8	-5,329
959,2	-7,243
959,6	-3,357
960	1,3
960,5	2,214
960,9	4,9
961,3	9,443
961,7	8,443
962,1	6,529
962,6	2,9
963	2,986
963,4	7,786
963,8	7,9
964,2	5,471
964,7	5,014
965,1	12,071
965,5	7,014
965,9	4,814
966,3	-0,729
966,8	-2,643
967,2	-1,5
967,6	0,929
968	-4,186
968,4	-2,929
968,9	-5,014
969,3	-2,414
969,7	-0,9
970,1	-2,529
970,5	-2,786
971	-3,443
971,4	0,471
971,8	3,557
972,2	3,871
972,6	1,929
973,1	1,843
973,5	2,243
973,9	7,643
974,3	4,786
974,7	2,7
975,2	-1,043
975,6	1,357
976	1,614
976,4	5,243
976,8	5,329
977,3	8,329
977,7	9,443
978,1	7,271
978,5	9,1
978,9	6,814
979,4	-0,929
979,8	-5,014
980,2	-3,214
980,6	-5,729
981	-0,757
981,5	-10,671
981,9	-5,586
982,3	2,814
982,7	2,043
983,1	-2,271
983,6	-1,7
984	-6,1
984,4	4,186
984,8	4,986
985,2	3,9
985,6	3,643
986,1	2,386
986,5	2,729
986,9	3,986
987,3	0,443
987,7	-1,1
988,2	-6,014
988,6	-0,986
989	1,729
989,4	2,557
989,8	4,557
990,3	2,557
990,7	2,986
991,1	2,614
991,5	3,3
991,9	3,329
992,3	4,671
992,8	1,729
993,2	0,986
993,6	-0,471
994	0,729
994,4	-1,1
994,9	-3,786
995,3	-1,157
995,7	5,129
996,1	7,557
996,5	3,7
996,9	2,414
997,4	2,757
997,8	8,214
998,2	5,814
998,6	-0,329
999	-2,386
999,5	-1,957
999,9	6,043
1000,3	0,7
1000,7	-1,614
1001,1	-1,214
1001,5	-1,929
1002	-6,471
1002,4	-3,214
1002,8	-12,671
1003,2	-10,243
1003,6	-12,043
1004	-11,3
1004,5	-8,957
1004,9	-3,243
1005,3	-1,557
1005,7	1,614
1006,1	2,586
1006,6	2,3
1007	-1,871
1007,4	-0,071
1007,8	-1,043
1008,2	-1,643
1008,6	-0,186
1009,1	0,071
1009,5	1,986
1009,9	4,986
1010,3	0,071
1010,7	5,014
1011,1	-1,586
1011,6	1,471
1012	3,3
1012,4	4,557
1012,8	5,129
1013,2	5,443
1013,6	-0,814
1014,1	3,814
1014,5	-0,014
1014,9	-2,414
1015,3	-2,671
1015,7	-2,843
1016,1	1,529
1016,6	6,871
1017	6,357
1017,4	5,471
1017,8	5,471
1018,2	1,9
1018,6	1,843
1019,1	1,871
1019,5	2,214
1019,9	4,414
1020,3	6,643
1020,7	0,871
1021,1	-0,071
1021,6	-4,1
1022	-2,214
1022,4	-4,157
1022,8	-8,843
1023,2	-9,557
1023,6	-3,071
1024,1	3,1
1024,5	4,671
1024,9	3,186
1025,3	0,329
1025,7	-2,1
1026,1	-0,729
1026,6	-0,843
1027	-1,157
1027,4	-3,471
1027,8	1,529
1028,2	2,386
1028,6	7,643
1029	7,786
1029,5	3,786
1029,9	-3,643
1030,3	-2,443
1030,7	-6,443
1031,1	-8,643
1031,5	-9,871
1032	-12,843
1032,4	-7,586
1032,8	-4,614
1033,2	-2,414
1033,6	-3,7
1034	-0,7
1034,4	0,157
1034,9	3,929
1035,3	2,757
1035,7	6,243
1036,1	10,157
1036,5	11,271
1036,9	10,9
1037,4	11,1
1037,8	7,3
1038,2	6,729
1038,6	3,243
1039	-4,529
1039,4	-6,414
1039,8	-5,243
1040,3	-2,929
1040,7	-3,586
1041,1	-4,414
1041,5	-1,414
1041,9	1,786
1042,3	3,729
1042,7	4,443
1043,2	6,157
1043,6	5,214
1044	4,414
1044,4	6,7
1044,8	9,986
1045,2	7,871
1045,6	6,957
1046,1	4,7
1046,5	10,786
1046,9	15,586
1047,3	11,1
1047,7	9,671
1048,1	10,529
1048,5	10,586
1049	13,929
1049,4	14,414
1049,8	11,1
1050,2	9,586
1050,6	6,043
1051	7,129
1051,4	6,043
1051,9	-0,757
1052,3	2,957
1052,7	3,243
1053,1	5,443
1053,5	5,471
1053,9	5,757
1054,3	4,814
1054,8	8,957
1055,2	2,043
1055,6	0,157
1056	2,357
1056,4	6,814
1056,8	1,757
1057,2	3,557
1057,6	-2,3
1058,1	-0,814
1058,5	-4,871
1058,9	-3,5
1059,3	-2,557
1059,7	2,671
1060,1	2,3
1060,5	8,157
1061	2,871
1061,4	9,071
1061,8	5,5
1062,2	4,757
1062,6	0,414
1063	-0,443
1063,4	0,043
1063,8	5,529
1064,3	5,757
1064,7	5,443
1065,1	4,329
1065,5	8,471
1065,9	8,443
1066,3	5,529
1066,7	5,157
1067,1	2,614
1067,6	3,386
1068	4,929
1068,4	4,271
1068,8	2,843
1069,2	1,986
1069,6	-0,3
1070	-2,1
1070,4	-0,214
1070,9	-1,757
1071,3	0,271
1071,7	4,329
1072,1	6,471
1072,5	8,214
1072,9	14,929
1073,3	9,586
1073,7	8,671
1074,2	5,7
1074,6	3,443
1075	6,1
1075,4	6,357
1075,8	6,643
1076,2	13,786
1076,6	14,814
1077	16,929
1077,5	19,557
1077,9	16,643
1078,3	13,757
1078,7	13,071
1079,1	9,186
1079,5	8,043
1079,9	1,586
1080,3	-2,557
1080,7	-5,414
1081,2	-5,729
1081,6	-6,3
1082	-7,186
1082,4	-10,043
1082,8	-4,9
1083,2	-3,271
1083,6	-3,414
1084	-3,043
1084,5	-7,357
1084,9	-10,3
1085,3	-9,1
1085,7	-9,586
1086,1	-6,271
1086,5	-9,186
1086,9	-6,471
1087,3	-3,814
1087,7	-2,757
1088,2	-3,129
1088,6	-1,986
1089	-4,129
1089,4	1,929
1089,8	0,9
1090,2	-2,529
1090,6	1,357
1091	3,386
1091,4	3,386
1091,9	4,471
1092,3	7,014
1092,7	3,557
1093,1	8,357
1093,5	8,329
1093,9	7,814
1094,3	7,014
1094,7	3,129
1095,1	-0,3
1095,5	5,214
1096	6,843
1096,4	4,957
1096,8	7,043
1097,2	9,157
1097,6	8,529
1098	10,129
1098,4	7,671
1098,8	3,329
1099,2	2,3
1099,6	-1,271
1100,1	-4,271
1100,5	-2,014
1100,9	-7,529
1101,3	-7,129
1101,7	-6,929
1102,1	-3,129
1102,5	-1,671
1102,9	0,214
1103,3	-3,386
1103,7	2,271
1104,2	2,7
1104,6	4,386
1105	4,043
1105,4	3,671
1105,8	2,071
1106,2	6,157
1106,6	4,5
1107	3,614
1107,4	3,1
1107,8	0,5
1108,3	0
