Data from Subt2_189.txt Node
Date: Sat Aug 26 18:41:48 MSK 2023
User: vat
Spectrometer: MAYP114033
Trigger mode: 0
Integration Time (sec): 1,000000E0
Scans to average: 5
Electric dark correction enabled: true
Nonlinearity correction enabled: false
Boxcar width: 3
XAxis mode: Wavelengths
Number of Pixels in Spectrum: 2068
>>>>>Begin Spectral Data<<<<<
199,4	-0,85
199,9	-1,02
200,4	-4,1
200,8	-4,043
201,3	-5,471
201,8	-4,014
202,2	-3,271
202,7	2,814
203,2	3,157
203,6	4,014
204,1	2,5
204,6	3,7
205	2,557
205,5	-1,414
206	-7,557
206,4	-8,157
206,9	-6,729
207,4	-3,386
207,8	-2,814
208,3	-2,586
208,8	1,786
209,2	5,357
209,7	5,186
210,2	5,329
210,6	4,957
211,1	6,071
211,5	3,3
212	6,043
212,5	4,129
212,9	4,614
213,4	6,1
213,9	2,986
214,3	3,757
214,8	6,986
215,3	1,471
215,7	6,814
216,2	7,014
216,7	6,7
217,1	5,7
217,6	7,7
218,1	4,357
218,5	1,014
219	-6,9
219,5	-5,671
219,9	-7,814
220,4	2,929
220,9	-2,443
221,3	3,471
221,8	7,843
222,3	13,043
222,7	13,614
223,2	11,9
223,6	3,157
224,1	8,386
224,6	6,329
225	3,7
225,5	-1,9
226	-3,329
226,4	2,271
226,9	5,814
227,4	5,214
227,8	-0,671
228,3	0,9
228,8	5,843
229,2	6,414
229,7	3,871
230,2	3,071
230,6	4,014
231,1	12,843
231,5	14,243
232	8,243
232,5	8,443
232,9	11,586
233,4	10,357
233,9	6,7
234,3	3,757
234,8	2,443
235,3	6,3
235,7	6,386
236,2	2,786
236,7	2,443
237,1	3,557
237,6	-0,814
238,1	-1,871
238,5	-6,329
239	-6,1
239,4	-4,843
239,9	-5,7
240,4	-5,043
240,8	2,586
241,3	4,586
241,8	9,1
242,2	4,7
242,7	-0,386
243,2	2,1
243,6	-2,843
244,1	-3,129
244,6	0,929
245	-0,214
245,5	3,729
245,9	6,786
246,4	7,1
246,9	12,414
247,3	9,214
247,8	8,386
248,3	12,529
248,7	11,757
249,2	16,843
249,7	14,586
250,1	14,7
250,6	11,5
251	11,071
251,5	7,814
252	4,871
252,4	1,957
252,9	-0,243
253,4	-5,014
253,8	-0,329
254,3	1,557
254,8	3,243
255,2	4,843
255,7	6,329
256,1	11,329
256,6	14,043
257,1	14,843
257,5	6,929
258	0,671
258,5	3,129
258,9	3,786
259,4	2,986
259,9	5,7
260,3	0,586
260,8	-0,129
261,2	2,586
261,7	1,729
262,2	-4,271
262,6	-4,843
263,1	-6,614
263,6	-1,957
264	1,443
264,5	7,129
264,9	7,7
265,4	10,586
265,9	9,786
266,3	12,957
266,8	14,957
267,3	15,129
267,7	12,329
268,2	11,814
268,7	12,214
269,1	11,443
269,6	4,471
270	3,729
270,5	4,043
271	5,071
271,4	2,443
271,9	-1,757
272,4	2,071
272,8	3,186
273,3	-4,471
273,7	-3,014
274,2	-3,871
274,7	-5,843
275,1	0,843
275,6	-1,443
276,1	-2,871
276,5	3,671
277	0,014
277,4	-0,414
277,9	6,729
278,4	7,3
278,8	4,643
279,3	6,357
279,8	3,786
280,2	8,329
280,7	10,7
281,1	3,586
281,6	1,786
282,1	6,9
282,5	8,929
283	5,586
283,4	4,557
283,9	2,929
284,4	11,357
284,8	9,386
285,3	4,671
285,8	1,871
286,2	2,357
286,7	1,871
287,1	-2,243
287,6	-9,071
288,1	-11,329
288,5	-8,871
289	-6,757
289,5	-3,1
289,9	-3,957
290,4	-0,186
290,8	4,357
291,3	7,414
291,8	6,471
292,2	5,329
292,7	6,871
293,1	1,986
293,6	3,214
294,1	3,729
294,5	3,814
295	3,614
295,5	3,071
295,9	1,729
296,4	7,986
296,8	5,557
297,3	1,871
297,8	-2,814
298,2	-5,414
298,7	-1,271
299,1	1,443
299,6	-2,357
300,1	1,014
300,5	3,643
301	6,871
301,5	12,5
301,9	7,729
302,4	3,786
302,8	7,5
303,3	3,557
303,8	-1,357
304,2	2,757
304,7	1,414
305,1	0,871
305,6	-0,243
306,1	2,929
306,5	4,957
307	12,329
307,4	10,471
307,9	10,1
308,4	9,871
308,8	10,186
309,3	4,386
309,8	3,414
310,2	2,643
310,7	-1,271
311,1	-1,157
311,6	2,329
312,1	5,814
312,5	12,357
313	12,357
313,4	8,471
313,9	11,271
314,4	10,557
314,8	8,814
315,3	5,129
315,7	-1,986
316,2	-5,7
316,7	-4,443
317,1	-1,729
317,6	-1,243
318	2,671
318,5	4,243
319	4,986
319,4	7,357
319,9	13,3
320,3	11,329
320,8	11,129
321,3	6,329
321,7	5,9
322,2	5,671
322,6	9,243
323,1	3,9
323,6	3,157
324	2,043
324,5	1,843
324,9	3,014
325,4	4,443
325,9	6,386
326,3	9,414
326,8	10,043
327,2	7,614
327,7	7,243
328,2	6,586
328,6	4,614
329,1	-2,357
329,5	-5,871
330	-7,1
330,5	-4,957
330,9	0,1
331,4	-1,414
331,8	-3,443
332,3	-0,043
332,8	1,271
333,2	1,643
333,7	2,557
334,1	2,786
334,6	3,871
335,1	5,586
335,5	3,929
336	0,043
336,4	3,357
336,9	7,786
337,4	6,386
337,8	6,957
338,3	8,129
338,7	13,5
339,2	17,214
339,7	19,843
340,1	14,557
340,6	14,814
341	13,3
341,5	13,957
342	9,043
342,4	8,386
342,9	0,643
343,3	1,157
343,8	2,243
344,2	1,386
344,7	6,7
345,2	5,271
345,6	5,986
346,1	12,014
346,5	10,843
347	4,786
347,5	4,786
347,9	2,186
348,4	4,614
348,8	3,671
349,3	2,071
349,8	6,071
350,2	17,329
350,7	16,443
351,1	19,271
351,6	23,5
352	29,386
352,5	34,443
353	42,557
353,4	44,271
353,9	58,386
354,3	68,757
354,8	79,329
355,3	98,557
355,7	119,3
356,2	139,643
356,6	161,929
357,1	189,1
357,5	220,814
358	259,7
358,5	294,5
358,9	335,729
359,4	388,157
359,8	448,529
360,3	522,757
360,8	593,929
361,2	671,557
361,7	767,843
362,1	875,271
362,6	984,329
363	1103,157
363,5	1222,5
364	1361,243
364,4	1504,586
364,9	1641,814
365,3	1779,3
365,8	1905,757
366,3	2026,957
366,7	2137,214
367,2	2238,557
367,6	2312,357
368,1	2373,957
368,5	2410,443
369	2435,129
369,5	2441,186
369,9	2418,7
370,4	2375,329
370,8	2324,557
371,3	2251,643
371,7	2172,786
372,2	2082,957
372,7	1984,957
373,1	1881,814
373,6	1772,129
374	1669,414
374,5	1564,957
374,9	1456,9
375,4	1349,271
375,9	1247,557
376,3	1154,243
376,8	1062,157
377,2	971,729
377,7	886,014
378,2	807,757
378,6	741,471
379,1	676,357
379,5	620,214
380	571,129
380,4	520,357
380,9	479,843
381,4	439,986
381,8	405,157
382,3	372,7
382,7	346,643
383,2	322,329
383,6	301,814
384,1	282,1
384,6	267,729
385	250,014
385,5	233,957
385,9	213,529
386,4	195,643
386,8	182,729
387,3	166,586
387,7	156,7
388,2	145,871
388,7	136,757
389,1	132,186
389,6	126,243
390	118,3
390,5	112,9
390,9	104,557
391,4	99,129
391,9	93,671
392,3	92,557
392,8	82,043
393,2	72,929
393,7	70,871
394,1	64,986
394,6	63,614
395,1	62,557
395,5	50,129
396	54,357
396,4	55,386
396,9	51,071
397,3	49,729
397,8	45,157
398,2	40,929
398,7	46,757
399,2	45,186
399,6	47,7
400,1	46,214
400,5	42,5
401	42,814
401,4	37,529
401,9	36,5
402,4	35,871
402,8	32,9
403,3	36,729
403,7	40,1
404,2	43,529
404,6	53,129
405,1	50,443
405,5	50,071
406	48,271
406,5	46,871
406,9	51,471
407,4	52,671
407,8	54,3
408,3	57,7
408,7	58,386
409,2	64,986
409,6	74,214
410,1	73,9
410,6	79,529
411	84,014
411,5	91,871
411,9	100,357
412,4	108,129
412,8	113,043
413,3	120,043
413,7	122,614
414,2	123,843
414,7	130,471
415,1	137,471
415,6	143,871
416	147,986
416,5	159,614
416,9	169,329
417,4	183,071
417,8	197,929
418,3	209,014
418,8	224,757
419,2	236,786
419,7	242,586
420,1	258,129
420,6	268,043
421	273,757
421,5	289,1
421,9	300,471
422,4	317,443
422,8	334,5
423,3	346,814
423,8	362,986
424,2	379,843
424,7	396,3
425,1	413,271
425,6	432,043
426	453,329
426,5	477,3
426,9	504,443
427,4	523,729
427,9	543,643
428,3	570,471
428,8	596,129
429,2	618,557
429,7	643,9
430,1	668,443
430,6	702,471
431	735,7
431,5	771,643
431,9	803,329
432,4	845,186
432,8	883,271
433,3	927,3
433,8	968,986
434,2	1014,529
434,7	1058,929
435,1	1111,014
435,6	1166,214
436	1219,786
436,5	1275,643
436,9	1333,5
437,4	1396,1
437,8	1455,814
438,3	1520,729
438,8	1586,443
439,2	1659,929
439,7	1734,586
440,1	1816,529
440,6	1901,186
441	1980,729
441,5	2067,414
441,9	2157,557
442,4	2245,871
442,8	2337,929
443,3	2427,729
443,7	2524,186
444,2	2629,586
444,7	2734,1
445,1	2836,929
445,6	2945,986
446	3060,786
446,5	3176,814
446,9	3291,957
447,4	3411,9
447,8	3531,043
448,3	3659,271
448,7	3785,614
449,2	3919,414
449,6	4060,357
450,1	4194,757
450,6	4342,871
451	4492,529
451,5	4642,329
451,9	4798,5
452,4	4948,186
452,8	5104,586
453,3	5268,529
453,7	5421,814
454,2	5590,586
454,6	5759,071
455,1	5930,957
455,5	6095,5
456	6273,1
456,4	6442,929
456,9	6628,671
457,3	6796,1
457,8	6972,414
458,3	7153,7
458,7	7341,271
459,2	7530,043
459,6	7721,043
460,1	7906,414
460,5	8103,786
461	8299,929
461,4	8487,986
461,9	8672,614
462,3	8865,014
462,8	9065,786
463,2	9255,386
463,7	9452,157
464,1	9650,1
464,6	9858,5
465	10067,443
465,5	10262,5
466	10464,5
466,4	10664,7
466,9	10863,729
467,3	11059,014
467,8	11246,757
468,2	11444,843
468,7	11640,357
469,1	11820,929
469,6	12021,871
470	12207,414
470,5	12379,414
470,9	12556,929
471,4	12740,043
471,8	12908,5
472,3	13086,329
472,7	13252,471
473,2	13416,3
473,6	13582,871
474,1	13761,271
474,5	13912,186
475	14071,357
475,4	14228,929
475,9	14379,357
476,4	14533,071
476,8	14696,9
477,3	14836,557
477,7	14987,043
478,2	15122,529
478,6	15245,871
479,1	15365,271
479,5	15479,414
480	15577,5
480,4	15691,643
480,9	15774,9
481,3	15866,586
481,8	15963,214
482,2	16041,1
482,7	16128,014
483,1	16213,871
483,6	16271,3
484	16356,071
484,5	16421,243
484,9	16475,586
485,4	16543,471
485,8	16589,9
486,3	16624,843
486,7	16663,5
487,2	16688,9
487,6	16720,014
488,1	16752,671
488,5	16766,1
489	16784,929
489,4	16803,5
489,9	16790,957
490,4	16780,786
490,8	16775,929
491,3	16756,757
491,7	16742,186
492,2	16706,586
492,6	16672,586
493,1	16650,1
493,5	16612,043
494	16567,671
494,4	16517,843
494,9	16463,414
495,3	16422,671
495,8	16365,157
496,2	16304,186
496,7	16240,5
497,1	16182,357
497,6	16123,929
498	16057,957
498,5	15979,043
498,9	15911,157
499,4	15842,3
499,8	15778,386
500,3	15696,671
500,7	15604,271
501,2	15508,986
501,6	15420,157
502,1	15324,471
502,5	15236,986
503	15145,186
503,4	15055,786
503,9	14960,3
504,3	14870,271
504,8	14773,3
505,2	14671,186
505,7	14561,071
506,1	14447,3
506,6	14327,7
507	14213,471
507,5	14109,443
507,9	13998,043
508,4	13885,929
508,8	13768,157
509,3	13656,157
509,7	13540,529
510,2	13432,529
510,6	13307,414
511,1	13193,471
511,5	13071,157
512	12952,357
512,4	12828,414
512,9	12712,471
513,3	12587,271
513,8	12464,957
514,2	12336,529
514,7	12210,786
515,1	12084,9
515,6	11963,557
516	11827,843
516,5	11706,271
516,9	11583,643
517,4	11462,671
517,8	11347,3
518,3	11234,843
518,7	11117,043
519,2	11002,557
519,6	10875,414
520,1	10757,7
520,5	10636,243
521	10511,614
521,4	10400,586
521,9	10286,871
522,3	10174,157
522,8	10069,814
523,2	9964,386
523,7	9860,157
524,1	9751,986
524,6	9628,729
525	9513,586
525,5	9399,557
525,9	9298,871
526,4	9179,929
526,8	9073,329
527,3	8980,443
527,7	8883,386
528,2	8789,729
528,6	8697,557
529,1	8596,757
529,5	8510,414
530	8411,671
530,4	8312,871
530,9	8217,929
531,3	8123,129
531,8	8031,214
532,2	7941,214
532,6	7846,186
533,1	7759,986
533,5	7673,071
534	7587,757
534,4	7505,3
534,9	7422,357
535,3	7332,443
535,8	7251,986
536,2	7175,014
536,7	7104,271
537,1	7028,014
537,6	6947,214
538	6879,957
538,5	6815,071
538,9	6739,043
539,4	6666,614
539,8	6586,071
540,3	6511,7
540,7	6443,386
541,2	6365,186
541,6	6300,014
542,1	6236,186
542,5	6163,643
543	6102,129
543,4	6041,757
543,9	5979,586
544,3	5922,414
544,8	5850,243
545,2	5788,329
545,7	5733,9
546,1	5684,614
546,5	5631,329
547	5574,986
547,4	5516,414
547,9	5463,043
548,3	5417,729
548,8	5366,614
549,2	5307,614
549,7	5264,386
550,1	5213,557
550,6	5166,957
551	5123,529
551,5	5071,929
551,9	5021,729
552,4	4972,243
552,8	4915,957
553,3	4871,557
553,7	4826,014
554,2	4782,014
554,6	4733,529
555,1	4695,957
555,5	4650,586
555,9	4615,843
556,4	4572,929
556,8	4531,214
557,3	4484,614
557,7	4454,386
558,2	4414,443
558,6	4389,243
559,1	4353,443
559,5	4323,5
560	4285,586
560,4	4253,757
560,9	4215,5
561,3	4182,471
561,8	4143,243
562,2	4105,814
562,7	4074,786
563,1	4048,5
563,6	4019,957
564	3991,757
564,4	3959,5
564,9	3927,414
565,3	3895,386
565,8	3857,986
566,2	3828,9
566,7	3797,557
567,1	3773,071
567,6	3742,586
568	3709,3
568,5	3683,186
568,9	3647,071
569,4	3615,186
569,8	3589,271
570,3	3554,557
570,7	3524,214
571,1	3507,386
571,6	3478,957
572	3473,786
572,5	3449,929
572,9	3427,7
573,4	3404,843
573,8	3389,243
574,3	3360,471
574,7	3339,414
575,2	3301,186
575,6	3276,729
576,1	3248,757
576,5	3227,414
576,9	3195,986
577,4	3176,129
577,8	3150,043
578,3	3129,957
578,7	3111,1
579,2	3091,957
579,6	3068,586
580,1	3049,786
580,5	3026,014
581	3009,129
581,4	2996,843
581,9	2966,014
582,3	2938,929
582,7	2921,071
583,2	2904,271
583,6	2881,043
584,1	2859,357
584,5	2832,614
585	2821,414
585,4	2803,557
585,9	2778,929
586,3	2758,271
586,8	2745,957
587,2	2723,357
587,6	2709,329
588,1	2692,929
588,5	2676,557
589	2665,729
589,4	2645,414
589,9	2626,014
590,3	2612,529
590,8	2594,014
591,2	2575,1
591,7	2568,014
592,1	2552,414
592,5	2539,929
593	2523,9
593,4	2503,7
593,9	2489,043
594,3	2472,957
594,8	2449,357
595,2	2431,1
595,7	2423,071
596,1	2407,329
596,6	2398,414
597	2384,157
597,4	2374,814
597,9	2367,443
598,3	2362,071
598,8	2343,357
599,2	2335,443
599,7	2326,414
600,1	2309,7
600,6	2295,471
601	2277,043
601,4	2261,329
601,9	2251,443
602,3	2235,3
602,8	2220,757
603,2	2215,3
603,7	2202,129
604,1	2192,529
604,6	2179,929
605	2163,3
605,4	2152,157
605,9	2141,9
606,3	2121,757
606,8	2107,329
607,2	2093,043
607,7	2072,871
608,1	2063,586
608,6	2053,843
609	2044,5
609,4	2037,929
609,9	2026,843
610,3	2015,529
610,8	2008,729
611,2	1995,243
611,7	1978,729
612,1	1963,186
612,6	1952,157
613	1943,471
613,4	1934,157
613,9	1926,9
614,3	1912,471
614,8	1905,043
615,2	1887,357
615,7	1875,957
616,1	1866,129
616,6	1850,214
617	1829,357
617,4	1825,071
617,9	1815,243
618,3	1810,9
618,8	1805,871
619,2	1789,529
619,7	1785,843
620,1	1778,814
620,5	1772,043
621	1754,157
621,4	1747,5
621,9	1728,586
622,3	1718,214
622,8	1700,443
623,2	1690,614
623,6	1676,014
624,1	1668,7
624,5	1650,014
625	1642,586
625,4	1635,157
625,9	1628,5
626,3	1618,386
626,8	1607,414
627,2	1598,3
627,6	1592,9
628,1	1582,1
628,5	1573,243
629	1562,671
629,4	1552,414
629,9	1541,614
630,3	1526,586
630,7	1510,443
631,2	1501,729
631,6	1492,9
632,1	1478,157
632,5	1466,3
633	1454,014
633,4	1446,071
633,8	1440,186
634,3	1427,414
634,7	1417,1
635,2	1414,071
635,6	1404,014
636,1	1397,129
636,5	1389,414
636,9	1377,1
637,4	1365,957
637,8	1349,871
638,3	1336,643
638,7	1329,9
639,2	1316,157
639,6	1308,3
640	1306,443
640,5	1299,986
640,9	1294,271
641,4	1288,443
641,8	1282,9
642,2	1279,614
642,7	1278,586
643,1	1272,7
643,6	1268,214
644	1263,814
644,5	1260,986
644,9	1252,814
645,3	1245,957
645,8	1230,1
646,2	1217,529
646,7	1210,414
647,1	1201,414
647,6	1190,614
648	1183,329
648,4	1171,7
648,9	1166,843
649,3	1158,357
649,8	1150,643
650,2	1147,671
650,6	1141,071
651,1	1131,814
651,5	1127,929
652	1118,386
652,4	1108,186
652,9	1102,5
653,3	1094,529
653,7	1084,1
654,2	1080,414
654,6	1070,586
655,1	1066,814
655,5	1071,214
655,9	1059,729
656,4	1053,986
656,8	1046,7
657,3	1039,957
657,7	1034,243
658,2	1023,986
658,6	1011,414
659	1008,157
659,5	994,786
659,9	992,014
660,4	983,529
660,8	977,071
661,2	970,729
661,7	968,071
662,1	958,957
662,6	959,071
663	949,7
663,4	942,786
663,9	937,186
664,3	936,357
664,8	923,529
665,2	916,271
665,6	900,9
666,1	896,929
666,5	889,729
667	886,014
667,4	870,814
667,9	862,3
668,3	859,757
668,7	856,1
669,2	850,1
669,6	846,5
670,1	836,814
670,5	833,643
670,9	830,5
671,4	822,986
671,8	817,271
672,3	814,329
672,7	806,386
673,1	800,643
673,6	794,671
674	792,157
674,5	784,386
674,9	774,557
675,3	761,871
675,8	755,5
676,2	752,586
676,7	746,614
677,1	741,443
677,5	737,471
678	741,214
678,4	741,986
678,9	737,329
679,3	733,9
679,7	732,471
680,2	719,7
680,6	711,414
681,1	707,643
681,5	702,5
681,9	701,386
682,4	695,586
682,8	691,1
683,3	691,014
683,7	687,214
684,1	682,357
684,6	675,157
685	664,9
685,5	658,071
685,9	646,329
686,3	637,386
686,8	635,243
687,2	628,471
687,7	623,186
688,1	619,071
688,5	612,186
689	615,614
689,4	615,471
689,9	607,471
690,3	592,414
690,7	588,214
691,2	589,5
691,6	584,443
692	578,529
692,5	572,7
692,9	573,957
693,4	578,1
693,8	575,157
694,2	569,329
694,7	566,271
695,1	560,271
695,6	561,529
696	554,643
696,4	549,386
696,9	542,386
697,3	532,586
697,8	530,243
698,2	523,986
698,6	516,671
699,1	514,214
699,5	517,186
699,9	512,9
700,4	509,471
700,8	504,043
701,3	507,986
701,7	503,386
702,1	497,929
702,6	490,214
703	494,843
703,5	493,186
703,9	489,929
704,3	484,186
704,8	479,071
705,2	479,357
705,6	476,243
706,1	468,443
706,5	463,357
707	462,929
707,4	461,214
707,8	459,157
708,3	457,014
708,7	455,157
709,2	449,214
709,6	444,186
710	445,043
710,5	435,529
710,9	435,186
711,3	424,386
711,8	418,643
712,2	417,871
712,7	416,929
713,1	409,443
713,5	410,929
714	407,529
714,4	406,3
714,8	408,671
715,3	405,157
715,7	406,786
716,2	403,186
716,6	401,3
717	391,1
717,5	388,814
717,9	381,757
718,3	374,757
718,8	366,986
719,2	362,5
719,7	356,643
720,1	360,786
720,5	360,9
721	355,557
721,4	358,129
721,8	357,529
722,3	352,586
722,7	354,586
723,2	346,786
723,6	337,443
724	336,271
724,5	328,271
724,9	324,986
725,3	322,7
725,8	314,986
726,2	315,9
726,7	316,386
727,1	315,414
727,5	319,271
728	316,9
728,4	315,729
728,8	316,014
729,3	311,786
729,7	308,329
730,1	307,214
730,6	304,929
731	303,729
731,5	299,729
731,9	293,157
732,3	290,1
732,8	291,843
733,2	287,5
733,6	282,214
734,1	280,129
734,5	279,871
734,9	282,043
735,4	285,1
735,8	277,729
736,3	280,3
736,7	277,929
737,1	279,814
737,6	280,329
738	279,757
738,4	274,043
738,9	275,643
739,3	270,614
739,7	269,5
740,2	262,014
740,6	262,014
741,1	261,071
741,5	258,643
741,9	258,929
742,4	262,043
742,8	258,329
743,2	261,271
743,7	254,014
744,1	247,386
744,5	245,586
745	241,957
745,4	233,129
745,8	234,529
746,3	234,014
746,7	233,471
747,2	230,3
747,6	232,929
748	232,757
748,5	239,786
748,9	238,643
749,3	234,643
749,8	237,643
750,2	239,5
750,6	238,014
751,1	240,243
751,5	232,3
751,9	230,9
752,4	230,986
752,8	227,529
753,3	227,186
753,7	228,957
754,1	222,586
754,6	217,757
755	213,586
755,4	206,1
755,9	205,871
756,3	201,986
756,7	194,614
757,2	195,071
757,6	195,1
758	193,843
758,5	198,329
758,9	194,5
759,3	196,443
759,8	193,786
760,2	194,9
760,6	192,643
761,1	190,671
761,5	188,957
761,9	185,557
762,4	182,9
762,8	184,957
763,3	177,186
763,7	178,814
764,1	181,614
764,6	178,929
765	181,1
765,4	182,014
765,9	181,329
766,3	185,214
766,7	183,071
767,2	177,643
767,6	180,471
768	180,557
768,5	174,3
768,9	176,414
769,3	172,243
769,8	170,414
770,2	176,7
770,6	172,757
771,1	176,729
771,5	180,1
771,9	181,1
772,4	188,1
772,8	186,871
773,2	183,5
773,7	178,129
774,1	172,157
774,5	163,586
775	155,014
775,4	151,271
775,8	147,786
776,3	147,186
776,7	149,129
777,1	144,671
777,6	149,186
778	153,871
778,4	147,843
778,9	151,5
779,3	143,443
779,7	144,7
780,2	149,243
780,6	148,671
781	144,614
781,5	145,214
781,9	142,614
782,3	144,214
782,8	141,671
783,2	137,843
783,6	142,386
784,1	139,329
784,5	134,871
784,9	132,214
785,4	135,529
785,8	134,1
786,2	133,386
786,7	127,357
787,1	125,271
787,5	126,729
788	126,986
788,4	127,957
788,8	127,814
789,3	125,1
789,7	125,871
790,1	129,1
790,6	131,014
791	127,786
791,4	125,871
791,9	125,586
792,3	124,957
792,7	125,7
793,2	121,671
793,6	119,7
794	127,157
794,5	121,986
794,9	121,614
795,3	123,214
795,8	116,9
796,2	117,214
796,6	118,7
797,1	112,929
797,5	110,329
797,9	106,643
798,4	102,786
798,8	104,614
799,2	104,671
799,7	104,043
800,1	105,414
800,5	107,186
801	108,186
801,4	104,557
801,8	101,986
802,2	101,186
802,7	98,129
803,1	97,929
803,5	96,786
804	94,557
804,4	98,671
804,8	99,186
805,3	101,957
805,7	104,1
806,1	97,643
806,6	97,5
807	98,214
807,4	98,729
807,9	94,357
808,3	86,729
808,7	86,5
809,2	93,5
809,6	93,357
810	89,557
810,4	85,557
810,9	89,014
811,3	94,357
811,7	88,271
812,2	89,5
812,6	87,043
813	92,786
813,5	97,929
813,9	95,5
814,3	92,129
814,8	94,871
815,2	87,471
815,6	89,9
816,1	87,871
816,5	84,814
816,9	86,329
817,3	83,414
817,8	85,1
818,2	86,786
818,6	82,843
819,1	78,129
819,5	73,529
819,9	74,414
820,4	76,1
820,8	71,843
821,2	65,786
821,7	69,1
822,1	74,786
822,5	85,329
822,9	84,7
823,4	83,014
823,8	83,871
824,2	90,586
824,7	86,3
825,1	80,243
825,5	70,214
826	66,443
826,4	65,471
826,8	63,414
827,3	62,957
827,7	63,043
828,1	62,843
828,5	61,443
829	58,586
829,4	57,9
829,8	54,5
830,3	55,3
830,7	52,643
831,1	53,1
831,6	53,186
832	57,3
832,4	56,271
832,8	60,929
833,3	58,071
833,7	59,157
834,1	58,729
834,6	58,729
835	60,071
835,4	64,9
835,8	62,586
836,3	56,386
836,7	58,643
837,1	57,014
837,6	62,329
838	57,814
838,4	54,586
838,9	53,957
839,3	55,014
839,7	55,214
840,1	51,3
840,6	47,586
841	51,643
841,4	52,414
841,9	53,271
842,3	51,729
842,7	51,729
843,1	54,557
843,6	55,186
844	47,814
844,4	48,643
844,9	49,557
845,3	52,243
845,7	52,071
846,2	48,529
846,6	44,586
847	46,443
847,4	45,271
847,9	45,471
848,3	44,986
848,7	42,357
849,2	46,7
849,6	43,443
850	47,814
850,4	43,757
850,9	43,757
851,3	44,1
851,7	40,814
852,2	42,271
852,6	49,929
853	47,671
853,4	48,043
853,9	43,1
854,3	45,671
854,7	52,243
855,2	48,671
855,6	44,643
856	39,529
856,4	37,9
856,9	39,9
857,3	40,186
857,7	36,443
858,2	38,757
858,6	37,614
859	40,671
859,4	44,386
859,9	41,043
860,3	35,157
860,7	33,986
861,1	33,271
861,6	31,071
862	31,471
862,4	30,557
862,9	33,643
863,3	36,271
863,7	35,214
864,1	35,329
864,6	35,929
865	36,643
865,4	33,957
865,9	36,5
866,3	27,814
866,7	27,814
867,1	23,214
867,6	25,957
868	27,814
868,4	28,5
868,8	26,5
869,3	33,586
869,7	36,986
870,1	39,157
870,6	36,214
871	-44,443
871,4	-35,7
871,8	-40,843
872,3	-37,5
872,7	-38,557
873,1	-41,043
873,5	-36,614
874	40,1
874,4	33,9
874,8	36,471
875,3	33,329
875,7	30,957
876,1	32,014
876,5	29,443
877	33,443
877,4	27,357
877,8	27,671
878,2	33,986
878,7	38,357
879,1	38,643
879,5	37,929
879,9	33,671
880,4	35,957
880,8	34,729
881,2	25,957
881,7	20,271
882,1	20,214
882,5	19,386
882,9	21,757
883,4	21,129
883,8	22,071
884,2	25,271
884,6	22,9
885,1	24,329
885,5	23,043
885,9	17,7
886,3	23,529
886,8	19,129
887,2	14,071
887,6	16,7
888	13,3
888,5	14,014
888,9	12,557
889,3	5,643
889,8	8,3
890,2	9,757
890,6	8,329
891	10,071
891,5	10,157
891,9	13,014
892,3	16,386
892,7	16,643
893,2	21,557
893,6	26,271
894	27,043
894,4	22,243
894,9	23,443
895,3	22,443
895,7	23,843
896,1	19,643
896,6	18,071
897	21,586
897,4	28,986
897,8	32,471
898,3	32,157
898,7	26,729
899,1	24,671
899,5	23,157
900	13,043
900,4	12,357
900,8	7,471
901,2	8,1
901,7	9,386
902,1	10,157
902,5	13,5
902,9	18,843
903,4	18,386
903,8	20,186
904,2	16,3
904,6	18,386
905,1	17,329
905,5	12,243
905,9	17,243
906,3	16,671
906,8	18,329
907,2	19,643
907,6	21,043
908	25,243
908,5	25,843
908,9	16,529
909,3	16,843
909,7	13,586
910,2	12,557
910,6	10,643
911	5,214
911,4	9,271
911,9	11,414
912,3	9,443
912,7	13,957
913,1	15,186
913,6	14,271
914	17,986
914,4	15,929
914,8	21,071
915,3	20,186
915,7	16,529
916,1	18,529
916,5	20,814
916,9	20,071
917,4	20,243
917,8	18,157
918,2	15,529
918,6	10,557
919,1	12,043
919,5	14,357
919,9	13,786
920,3	11,729
920,8	8,929
921,2	8,9
921,6	13,843
922	10,929
922,5	5,643
922,9	6,7
923,3	6,014
923,7	10,186
924,2	11,243
924,6	9,557
925	10,843
925,4	11,786
925,8	9,471
926,3	9,643
926,7	4,729
927,1	8,071
927,5	8,414
928	3,529
928,4	1,414
928,8	3,243
929,2	3,443
929,7	6,5
930,1	5,557
930,5	5,386
930,9	11,957
931,3	13,986
931,8	12,1
932,2	12,5
932,6	10,071
933	5,157
933,5	3,671
933,9	5,786
934,3	6,843
934,7	4,357
935,2	-0,129
935,6	3,557
936	7,386
936,4	8,3
936,8	4,014
937,3	-0,7
937,7	4,271
938,1	7,3
938,5	1,329
939	-0,957
939,4	-2,1
939,8	-1,014
940,2	0,7
940,6	-1,214
941,1	-2,243
941,5	6,157
941,9	8,7
942,3	11,871
942,8	12,014
943,2	17,214
943,6	16,843
944	21,614
944,4	17,871
944,9	15,271
945,3	12,471
945,7	5,214
946,1	-0,786
946,6	-2,671
947	-11,414
947,4	-10,814
947,8	-9,129
948,2	-9,729
948,7	-4,043
949,1	-2,071
949,5	4,986
949,9	9,529
950,3	10,071
950,8	7,443
951,2	5,871
951,6	5,329
952	6,843
952,5	-2,129
952,9	0,557
953,3	-2,214
953,7	0,386
954,1	4,271
954,6	7,186
955	7,3
955,4	10,7
955,8	10,9
956,2	9,043
956,7	11,071
957,1	8,5
957,5	3,157
957,9	2,9
958,3	4,586
958,8	4,471
959,2	9,071
959,6	10,957
960	6,357
960,5	10,014
960,9	7,643
961,3	3,957
961,7	4,729
962,1	6,1
962,6	4,386
963	9,814
963,4	4,729
963,8	10,129
964,2	13,243
964,7	10,557
965,1	9,614
965,5	6,786
965,9	8,671
966,3	15,1
966,8	12,729
967,2	9,786
967,6	10,186
968	6,386
968,4	5,986
968,9	6,557
969,3	3,443
969,7	1,386
970,1	5,614
970,5	3,557
971	7,7
971,4	10,986
971,8	11,271
972,2	12,729
972,6	11,757
973,1	9,929
973,5	11,471
973,9	11,957
974,3	12,986
974,7	14,129
975,2	13,614
975,6	13,729
976	13,186
976,4	9,186
976,8	4,1
977,3	0,071
977,7	-4,271
978,1	-5,7
978,5	-6,529
978,9	-6,157
979,4	-1,329
979,8	-2,443
980,2	-1,043
980,6	-3,214
981	-0,729
981,5	1,3
981,9	2,271
982,3	2,586
982,7	7,557
983,1	3,157
983,6	7,214
984	10,729
984,4	8,329
984,8	7,757
985,2	7,357
985,6	1,843
986,1	7,5
986,5	8,871
986,9	-0,643
987,3	4,471
987,7	6,243
988,2	2,786
988,6	7,729
989	5,329
989,4	4,1
989,8	7,014
990,3	2,729
990,7	-0,043
991,1	4,186
991,5	4,557
991,9	4,186
992,3	4,614
992,8	4,843
993,2	3,557
993,6	5,614
994	1,614
994,4	2,043
994,9	3,386
995,3	-2,671
995,7	-1,443
996,1	0,071
996,5	0,586
996,9	3,386
997,4	6,757
997,8	1,586
998,2	-0,357
998,6	-2,271
999	-2,471
999,5	-5,557
999,9	-7,157
1000,3	-11,329
1000,7	-8,586
1001,1	-2,5
1001,5	1,557
1002	5,243
1002,4	7,014
1002,8	7,214
1003,2	7,586
1003,6	10,671
1004	12,357
1004,5	6,614
1004,9	5,471
1005,3	-0,729
1005,7	2,357
1006,1	-1,186
1006,6	-2,1
1007	-3,214
1007,4	-4,271
1007,8	-4,671
1008,2	1,3
1008,6	2,271
1009,1	2,186
1009,5	-0,157
1009,9	0,471
1010,3	4,186
1010,7	3,757
1011,1	3,214
1011,6	1,014
1012	2,157
1012,4	5,471
1012,8	4,814
1013,2	9,729
1013,6	10,243
1014,1	11,671
1014,5	9,757
1014,9	9,014
1015,3	8,014
1015,7	4,671
1016,1	-2,071
1016,6	-1,814
1017	-2,557
1017,4	-0,5
1017,8	-0,557
1018,2	-2,186
1018,6	-3,3
1019,1	-4,471
1019,5	-3,1
1019,9	-5,214
1020,3	-4,957
1020,7	-2,586
1021,1	0,414
1021,6	0,614
1022	5,843
1022,4	0,986
1022,8	4,357
1023,2	1,929
1023,6	-0,243
1024,1	4,157
1024,5	11,243
1024,9	8,871
1025,3	14,129
1025,7	12,186
1026,1	16,157
1026,6	21,357
1027	15,129
1027,4	15,871
1027,8	15,957
1028,2	10,671
1028,6	15,014
1029	10,186
1029,5	8,071
1029,9	9,329
1030,3	-1,3
1030,7	-0,214
1031,1	3,214
1031,5	-4,243
1032	-0,729
1032,4	-0,414
1032,8	-1,929
1033,2	7,386
1033,6	1,929
1034	3,614
1034,4	5,729
1034,9	6,9
1035,3	-0,843
1035,7	-1,014
1036,1	-2,014
1036,5	1,357
1036,9	-0,529
1037,4	1,5
1037,8	-5,243
1038,2	-3,414
1038,6	-1,957
1039	0,671
1039,4	7,043
1039,8	4,957
1040,3	5,614
1040,7	11,186
1041,1	15,643
1041,5	16,271
1041,9	10,386
1042,3	5,586
1042,7	8,186
1043,2	6,7
1043,6	2,671
1044	4,729
1044,4	3,014
1044,8	4,357
1045,2	3,386
1045,6	2,129
1046,1	0,414
1046,5	1,3
1046,9	-2,843
1047,3	-2,414
1047,7	-1,929
1048,1	-5,557
1048,5	-5,614
1049	-1,729
1049,4	3,5
1049,8	6,157
1050,2	7,386
1050,6	7,614
1051	10,957
1051,4	8,386
1051,9	6,529
1052,3	7,586
1052,7	7,957
1053,1	3,443
1053,5	6,643
1053,9	6,186
1054,3	10,271
1054,8	18,014
1055,2	15,414
1055,6	14,871
1056	17,557
1056,4	13,243
1056,8	14,529
1057,2	12,729
1057,6	3,814
1058,1	-2,014
1058,5	-4,3
1058,9	-1,243
1059,3	3,386
1059,7	5,357
1060,1	8,271
1060,5	8,729
1061	14,643
1061,4	14,157
1061,8	11,671
1062,2	9,729
1062,6	10,843
1063	10,986
1063,4	9,843
1063,8	6,614
1064,3	6,157
1064,7	5,3
1065,1	3,329
1065,5	-2,014
1065,9	-8,157
1066,3	-10,414
1066,7	-10,7
1067,1	-11,3
1067,6	-9,071
1068	-12,757
1068,4	-10,557
1068,8	-4,471
1069,2	0,986
1069,6	3,929
1070	8,643
1070,4	9,786
1070,9	8,271
1071,3	6,843
1071,7	5,129
1072,1	6,1
1072,5	4,043
1072,9	1,157
1073,3	-0,586
1073,7	1,043
1074,2	7,843
1074,6	7,586
1075	2,243
1075,4	1,271
1075,8	2,329
1076,2	0,443
1076,6	2,186
1077	-2,271
1077,5	-3,729
1077,9	-3,243
1078,3	-3,157
1078,7	-2,671
1079,1	-1,843
1079,5	-0,529
1079,9	0,843
1080,3	3,643
1080,7	7,186
1081,2	10,9
1081,6	10,671
1082	10,014
1082,4	11,243
1082,8	9,757
1083,2	8,129
1083,6	9,757
1084	7,443
1084,5	6,643
1084,9	8,814
1085,3	7,271
1085,7	5,814
1086,1	6,386
1086,5	2,9
1086,9	5,443
1087,3	4,729
1087,7	2,871
1088,2	4,557
1088,6	3,043
1089	2,729
1089,4	2,786
1089,8	-1,557
1090,2	-1,014
1090,6	-2,1
1091	-0,786
1091,4	4,243
1091,9	4,586
1092,3	7,043
1092,7	9,9
1093,1	10,729
1093,5	10,157
1093,9	7,157
1094,3	7,871
1094,7	6,814
1095,1	5,157
1095,5	5,471
1096	4,843
1096,4	7,3
1096,8	6,443
1097,2	4,843
1097,6	6,957
1098	5,957
1098,4	4,386
1098,8	5,7
1099,2	6,843
1099,6	8,614
1100,1	6,329
1100,5	3,3
1100,9	3,529
1101,3	6,214
1101,7	3,929
1102,1	4,1
1102,5	5,443
1102,9	7,957
1103,3	9,529
1103,7	11,386
1104,2	6,557
1104,6	7,043
1105	6,014
1105,4	5,386
1105,8	3,014
1106,2	1,814
1106,6	0,243
1107	2,414
1107,4	2,767
1107,8	2,46
1108,3	0,45
