Data from Subt2_226.txt Node
Date: Sat Aug 26 18:51:38 MSK 2023
User: vat
Spectrometer: MAYP114033
Trigger mode: 0
Integration Time (sec): 1,000000E0
Scans to average: 5
Electric dark correction enabled: true
Nonlinearity correction enabled: false
Boxcar width: 3
XAxis mode: Wavelengths
Number of Pixels in Spectrum: 2068
>>>>>Begin Spectral Data<<<<<
199,4	-0,583
199,9	3,747
200,4	-0,667
200,8	-0,619
201,3	-1,448
201,8	1,895
202,2	-0,19
202,7	3,038
203,2	-1,705
203,6	2,295
204,1	-1,905
204,6	-1,705
205	-3,819
205,5	-1,648
206	-2,533
206,4	-1,933
206,9	-5,762
207,4	-1,219
207,8	0,695
208,3	0,895
208,8	3,038
209,2	2,267
209,7	3,581
210,2	8,467
210,6	6,895
211,1	6,752
211,5	3,838
212	0,695
212,5	4,724
212,9	2,21
213,4	0,352
213,9	1,638
214,3	3,381
214,8	8,781
215,3	7,067
215,7	5,838
216,2	10,01
216,7	13,952
217,1	10,781
217,6	12,924
218,1	6,581
218,5	4,324
219	-2,505
219,5	-2,276
219,9	-9,99
220,4	0,981
220,9	-2,79
221,3	-1,419
221,8	6,124
222,3	9,267
222,7	11,552
223,2	14,381
223,6	3,952
224,1	-1,733
224,6	3,581
225	-0,505
225,5	-2,048
226	-6,133
226,4	-8,133
226,9	-2,905
227,4	3,81
227,8	-2,048
228,3	-3,505
228,8	-3,448
229,2	-2,448
229,7	-0,648
230,2	-4,905
230,6	-4,076
231,1	2,438
231,5	5,295
232	7,752
232,5	6,21
232,9	9,838
233,4	16,038
233,9	14,838
234,3	11,981
234,8	14,552
235,3	13,181
235,7	14,838
236,2	12,695
236,7	8,467
237,1	9,552
237,6	6,324
238,1	3,21
238,5	-0,048
239	-1,905
239,4	0,124
239,9	0,21
240,4	-0,505
240,8	3,495
241,3	0,438
241,8	-0,362
242,2	2,467
242,7	1,067
243,2	-1,705
243,6	-3,076
244,1	-1,362
244,6	1,895
245	6,038
245,5	4,924
245,9	0,01
246,4	3,752
246,9	5,21
247,3	2,295
247,8	2,667
248,3	3,124
248,7	5,895
249,2	11,381
249,7	7,41
250,1	7,124
250,6	6,352
251	6,238
251,5	3,552
252	-0,333
252,4	-1,99
252,9	-3,705
253,4	-7,076
253,8	-8,59
254,3	-5,505
254,8	-0,562
255,2	-4,019
255,7	-0,648
256,1	1,695
256,6	2,467
257,1	5,152
257,5	0,695
258	-4,305
258,5	-2,419
258,9	-7,419
259,4	-8,59
259,9	-6,333
260,3	-10,048
260,8	-12,248
261,2	-11,676
261,7	-9,933
262,2	-9,762
262,6	-7,933
263,1	-8,162
263,6	-4,562
264	2,124
264,5	4,495
264,9	3,895
265,4	7,21
265,9	4,61
266,3	7,552
266,8	8,924
267,3	6,038
267,7	6,352
268,2	7,21
268,7	9,01
269,1	14,524
269,6	11,01
270	13,21
270,5	11,352
271	11,981
271,4	11,552
271,9	5,552
272,4	7,295
272,8	5,667
273,3	-0,705
273,7	5,067
274,2	4,867
274,7	8,838
275,1	10,781
275,6	7,124
276,1	3,438
276,5	7,781
277	4,867
277,4	3,81
277,9	4,295
278,4	6,981
278,8	9,095
279,3	17,581
279,8	18,267
280,2	19,238
280,7	22,21
281,1	15,038
281,6	11,467
282,1	12,295
282,5	11,667
283	8,124
283,4	4,324
283,9	6,352
284,4	12,781
284,8	12,895
285,3	10,381
285,8	8,038
286,2	5,667
286,7	8,295
287,1	0,867
287,6	-1,99
288,1	-4,533
288,5	-3,733
289	-4,99
289,5	-2,448
289,9	-3,933
290,4	-0,019
290,8	-0,562
291,3	4,581
291,8	5,267
292,2	5,152
292,7	7,667
293,1	4,495
293,6	1,067
294,1	0,181
294,5	-2,448
295	-3,019
295,5	-5,762
295,9	-7,533
296,4	-4,705
296,8	-4,705
297,3	-0,99
297,8	-2,533
298,2	-10,076
298,7	-6,305
299,1	-7,59
299,6	-8,305
300,1	-2,733
300,5	-2,162
301	1,81
301,5	11,352
301,9	12,267
302,4	9,724
302,8	10,524
303,3	5,552
303,8	-1,305
304,2	-3,39
304,7	-3,619
305,1	-9,562
305,6	-4,533
306,1	-1,19
306,5	0,61
307	8,838
307,4	9,981
307,9	7,81
308,4	9,267
308,8	1,552
309,3	-1,848
309,8	-2,019
310,2	-3,876
310,7	-6,105
311,1	-3,448
311,6	1,01
312,1	7,638
312,5	7,552
313	10,324
313,4	7,952
313,9	11,838
314,4	7,381
314,8	2,038
315,3	3,038
315,7	-0,162
316,2	-4,476
316,7	-4,876
317,1	-7,79
317,6	-6,99
318	-0,305
318,5	-2,962
319	1,067
319,4	4,01
319,9	7,61
320,3	12,381
320,8	12,524
321,3	14,81
321,7	12,324
322,2	12,238
322,6	11,867
323,1	7,295
323,6	3,695
324	1,81
324,5	-2,848
324,9	0,01
325,4	-1,076
325,9	1,895
326,3	4,01
326,8	5,524
327,2	3,324
327,7	4,724
328,2	8,295
328,6	10,238
329,1	1,981
329,5	3,238
330	4,124
330,5	9,095
330,9	8,752
331,4	4,638
331,8	4,952
332,3	10,781
332,8	11,438
333,2	10,41
333,7	11,41
334,1	13,038
334,6	12,324
335,1	6,752
335,5	5,952
336	0,581
336,4	2,238
336,9	6,581
337,4	6,667
337,8	9,41
338,3	12,667
338,7	14,581
339,2	17,267
339,7	18,21
340,1	14,552
340,6	13,724
341	12,752
341,5	12,695
342	4,838
342,4	2,381
342,9	-1,362
343,3	0,638
343,8	-0,476
344,2	1,581
344,7	5,41
345,2	10,667
345,6	12,752
346,1	16,838
346,5	9,181
347	6,981
347,5	5,867
347,9	7,095
348,4	9,581
348,8	10,41
349,3	10,295
349,8	17,352
350,2	25,81
350,7	23,01
351,1	22,152
351,6	25,21
352	29,467
352,5	33,981
353	44,095
353,4	49,467
353,9	64,61
354,3	79,01
354,8	90,295
355,3	115,524
355,7	138,324
356,2	160,267
356,6	188,038
357,1	223,667
357,5	261,267
358	310,724
358,5	356,01
358,9	412,381
359,4	478,724
359,8	547,638
360,3	634,095
360,8	724,181
361,2	825,61
361,7	935,895
362,1	1064,324
362,6	1199,095
363	1350,067
363,5	1502,924
364	1675,124
364,4	1844,495
364,9	2018,152
365,3	2185,01
365,8	2346,61
366,3	2498,238
366,7	2629,724
367,2	2746,638
367,6	2841,81
368,1	2924,181
368,5	2971,752
369	2997,638
369,5	3002,781
369,9	2982,781
370,4	2936,467
370,8	2872,495
371,3	2778,61
371,7	2680,752
372,2	2565,752
372,7	2440,152
373,1	2316,81
373,6	2181,61
374	2051,152
374,5	1921,495
374,9	1796,61
375,4	1673,695
375,9	1556,038
376,3	1436,21
376,8	1322,867
377,2	1214,981
377,7	1114,324
378,2	1014,581
378,6	929,267
379,1	844,21
379,5	777,01
380	713,524
380,4	652,981
380,9	599,21
381,4	550,638
381,8	507,867
382,3	472,867
382,7	435,41
383,2	408,067
383,6	378,467
384,1	355,61
384,6	334,124
385	309,381
385,5	285,181
385,9	260,638
386,4	240,21
386,8	225,238
387,3	206,81
387,7	190,924
388,2	177,438
388,7	166,924
389,1	157,067
389,6	146,781
390	135,667
390,5	127,267
390,9	118,381
391,4	110,695
391,9	99,838
392,3	93,438
392,8	82,581
393,2	73,581
393,7	65,152
394,1	59,038
394,6	54,438
395,1	54,124
395,5	49,41
396	51,81
396,4	51,867
396,9	48,467
397,3	50,152
397,8	49,467
398,2	46,095
398,7	46,152
399,2	46,524
399,6	47,238
400,1	48,581
400,5	43,895
401	42,152
401,4	36,781
401,9	35,324
402,4	30,095
402,8	26,581
403,3	29,238
403,7	25,467
404,2	26,267
404,6	34,81
405,1	31,295
405,5	25,61
406	28,838
406,5	22,152
406,9	25,381
407,4	21,581
407,8	16,695
408,3	20,981
408,7	27,524
409,2	31,267
409,6	37,438
410,1	39,638
410,6	46,324
411	48,41
411,5	47,038
411,9	49,381
412,4	47,238
412,8	51,124
413,3	49,295
413,7	47,952
414,2	48,438
414,7	53,752
415,1	61,067
415,6	60,524
416	62,181
416,5	64,924
416,9	68,981
417,4	74,41
417,8	78,924
418,3	76,467
418,8	81,952
419,2	82,095
419,7	86,752
420,1	87,581
420,6	87,81
421	80,667
421,5	79,038
421,9	76,552
422,4	76,752
422,8	79,638
423,3	75,638
423,8	72,81
424,2	74,067
424,7	74,01
425,1	74,61
425,6	74,324
426	69,038
426,5	73,438
426,9	75,695
427,4	77,238
427,9	72,438
428,3	73,152
428,8	70,867
429,2	67,467
429,7	61,181
430,1	55,952
430,6	53,838
431	55,352
431,5	53,238
431,9	50,352
432,4	55,924
432,8	56,067
433,3	58,724
433,8	58,638
434,2	60,124
434,7	64,238
435,1	65,381
435,6	64,781
436	66,21
436,5	68,238
436,9	68,724
437,4	67,838
437,8	66,981
438,3	71,324
438,8	69,867
439,2	72,152
439,7	72,352
440,1	74,381
440,6	78,267
441	74,981
441,5	77,895
441,9	83,295
442,4	86,581
442,8	88,524
443,3	93,895
443,7	96,552
444,2	99,552
444,7	98,952
445,1	100,01
445,6	99,667
446	101,352
446,5	98,867
446,9	98,638
447,4	102,895
447,8	109,838
448,3	114,867
448,7	123,724
449,2	132,152
449,6	142,324
450,1	144,324
450,6	152,638
451	152,067
451,5	155,667
451,9	161,095
452,4	167,152
452,8	166,667
453,3	180,781
453,7	179,867
454,2	187,067
454,6	194,267
455,1	195,552
455,5	196,638
456	207,952
456,4	206,667
456,9	216,152
457,3	223,238
457,8	219,581
458,3	226,752
458,7	233,095
459,2	239,438
459,6	248,581
460,1	253,524
460,5	251,581
461	265,952
461,4	270,21
461,9	279,152
462,3	282,581
462,8	287,467
463,2	292,352
463,7	307,181
464,1	317,667
464,6	327,81
465	334,467
465,5	344,095
466	353,067
466,4	364,581
466,9	375,21
467,3	376,667
467,8	388,067
468,2	394,124
468,7	398,41
469,1	410,381
469,6	416,524
470	420,238
470,5	428,695
470,9	430,952
471,4	436,981
471,8	442,695
472,3	447,181
472,7	455,467
473,2	456,295
473,6	460,01
474,1	466,467
474,5	474,867
475	485,438
475,4	493,238
475,9	504,152
476,4	514,924
476,8	524,552
477,3	535,01
477,7	543,095
478,2	549,667
478,6	553,895
479,1	553,867
479,5	559,495
480	567,295
480,4	574,667
480,9	580,381
481,3	585,724
481,8	589,61
482,2	592,067
482,7	599,895
483,1	602,238
483,6	598,238
484	599,667
484,5	605,352
484,9	607,724
485,4	615,667
485,8	619,038
486,3	620,552
486,7	624,81
487,2	628,752
487,6	623,552
488,1	621,267
488,5	615,267
489	615,038
489,4	617,695
489,9	616,552
490,4	615,095
490,8	616,752
491,3	624,667
491,7	627,238
492,2	627,467
492,6	628,695
493,1	626,952
493,5	621,81
494	614,381
494,4	610,867
494,9	606,495
495,3	605,61
495,8	598,267
496,2	601,838
496,7	596,495
497,1	602,981
497,6	601,124
498	601,552
498,5	599,295
498,9	594,638
499,4	587,295
499,8	595,124
500,3	587,41
500,7	578,924
501,2	573,895
501,6	563,324
502,1	564,781
502,5	563,152
503	555,438
503,4	553,952
503,9	553,41
504,3	553,238
504,8	555,324
505,2	551,152
505,7	542,695
506,1	544,267
506,6	537,01
507	529,238
507,5	525,152
507,9	517,181
508,4	509,781
508,8	505,324
509,3	493,152
509,7	491,867
510,2	489,438
510,6	479,838
511,1	474,924
511,5	471,752
512	465,781
512,4	462,267
512,9	453,695
513,3	449,01
513,8	441,752
514,2	440,267
514,7	432,895
515,1	431,181
515,6	423,695
516	416,324
516,5	413,81
516,9	411,41
517,4	403,467
517,8	405,152
518,3	399,952
518,7	397,124
519,2	400,095
519,6	388,467
520,1	385,038
520,5	377,867
521	365,324
521,4	362,724
521,9	357,952
522,3	347,095
522,8	343,295
523,2	341,667
523,7	340,095
524,1	338,752
524,6	331,352
525	324,038
525,5	320,038
525,9	319,552
526,4	308,238
526,8	300,524
527,3	294,724
527,7	291,152
528,2	292,61
528,6	289,324
529,1	286,181
529,5	286,124
530	284,067
530,4	281,638
530,9	280,352
531,3	274,838
531,8	272,124
532,2	268,067
532,6	265,267
533,1	262,01
533,5	262,21
534	256,181
534,4	249,124
534,9	248,552
535,3	241,295
535,8	236,838
536,2	238,495
536,7	232,21
537,1	230,667
537,6	228,667
538	223,181
538,5	227,267
538,9	225,124
539,4	218,552
539,8	216,295
540,3	212,752
540,7	211,581
541,2	205,352
541,6	198,724
542,1	197,524
542,5	193,21
543	189,381
543,4	188,61
543,9	187,981
544,3	192,381
544,8	190,638
545,2	185,867
545,7	186,438
546,1	187,038
546,5	189,552
547	187,495
547,4	186,038
547,9	186,838
548,3	191,638
548,8	190,638
549,2	184,552
549,7	178,01
550,1	176,924
550,6	174,152
551	168,41
551,5	158,467
551,9	154,81
552,4	156,181
552,8	153,81
553,3	151,181
553,7	146,21
554,2	147,124
554,6	149,21
555,1	148,467
555,5	145,895
555,9	148,467
556,4	147,467
556,8	148,61
557,3	146,124
557,7	146,552
558,2	145,838
558,6	144,724
559,1	139,267
559,5	138,524
560	139,295
560,4	138,81
560,9	134,295
561,3	133,438
561,8	130,21
562,2	129,61
562,7	125,438
563,1	129,352
563,6	126,667
564	125,61
564,4	125,41
564,9	127,381
565,3	127,667
565,8	130,152
566,2	122,438
566,7	121,067
567,1	125,581
567,6	121,581
568	118,581
568,5	118,895
568,9	112,952
569,4	110,695
569,8	114,067
570,3	108,324
570,7	106,41
571,1	107,752
571,6	107,41
572	111,495
572,5	111,895
572,9	106,667
573,4	107,552
573,8	109,838
574,3	105,467
574,7	102,838
575,2	97,752
575,6	94,61
576,1	99,638
576,5	100,638
576,9	97,295
577,4	98,324
577,8	97,695
578,3	97,781
578,7	97,638
579,2	99,21
579,6	91,038
580,1	88,267
580,5	93,067
581	94,781
581,4	95,952
581,9	93,695
582,3	85,038
582,7	94,752
583,2	99,095
583,6	95,81
584,1	95,124
584,5	98,438
585	102,524
585,4	100,61
585,9	96,352
586,3	97,81
586,8	100,895
587,2	98,667
587,6	103,095
588,1	107,667
588,5	111,267
589	112,524
589,4	109,295
589,9	105,838
590,3	101,952
590,8	96,352
591,2	93,295
591,7	96,695
592,1	95,381
592,5	96,181
593	91,781
593,4	91,295
593,9	84,552
594,3	81,638
594,8	75,238
595,2	74,095
595,7	75,324
596,1	79,667
596,6	80,61
597	86,638
597,4	89,552
597,9	91,695
598,3	93,867
598,8	93,552
599,2	88,667
599,7	89,495
600,1	86,752
600,6	79,952
601	83,181
601,4	87,924
601,9	85,724
602,3	89,038
602,8	90,181
603,2	89,095
603,7	91,381
604,1	87,838
604,6	79,552
605	74,981
605,4	72,381
605,9	68,41
606,3	64,867
606,8	66,181
607,2	61,324
607,7	59,41
608,1	61,924
608,6	68,124
609	73,695
609,4	81,524
609,9	75,352
610,3	79,01
610,8	80,838
611,2	84,41
611,7	80,381
612,1	77,924
612,6	73,924
613	77,524
613,4	77,695
613,9	79,324
614,3	74,324
614,8	74,352
615,2	69,238
615,7	70,581
616,1	71,695
616,6	68,638
617	65,352
617,4	67,667
617,9	67,952
618,3	75,638
618,8	75,724
619,2	74,038
619,7	78,81
620,1	78,095
620,5	81,638
621	81,438
621,4	78,21
621,9	75,667
622,3	74,81
622,8	69,095
623,2	70,095
623,6	64,981
624,1	65,124
624,5	65,067
625	70,124
625,4	75,495
625,9	79,752
626,3	80,095
626,8	79,267
627,2	80,81
627,6	72,724
628,1	66,552
628,5	65,324
629	64,21
629,4	60,638
629,9	63,524
630,3	56,267
630,7	61,324
631,2	65,438
631,6	61,981
632,1	61,41
632,5	67,467
633	65,467
633,4	68,667
633,8	67,267
634,3	65,467
634,7	64,295
635,2	59,781
635,6	59,267
636,1	63,724
636,5	60,381
636,9	63,41
637,4	59,924
637,8	58,295
638,3	62,324
638,7	63,238
639,2	60,21
639,6	61,695
640	60,267
640,5	59,781
640,9	60,667
641,4	59,495
641,8	59,21
642,2	59,21
642,7	63,752
643,1	67,895
643,6	68,438
644	68,067
644,5	69,924
644,9	66,038
645,3	65,095
645,8	58,581
646,2	59,238
646,7	58,21
647,1	58,295
647,6	59,038
648	60,695
648,4	58,324
648,9	60,067
649,3	50,667
649,8	53,495
650,2	54,638
650,6	50,324
651,1	48,895
651,5	52,038
652	52,238
652,4	52,81
652,9	53,41
653,3	52,295
653,7	54,867
654,2	56,067
654,6	49,952
655,1	49,552
655,5	54,038
655,9	50,181
656,4	50,981
656,8	47,238
657,3	48,467
657,7	54,724
658,2	51,895
658,6	49,895
659	52,381
659,5	52,781
659,9	53,667
660,4	52,438
660,8	44,152
661,2	44,867
661,7	44,581
662,1	44,667
662,6	43,667
663	44,238
663,4	38,41
663,9	44,238
664,3	47,924
664,8	43,867
665,2	42,638
665,6	37,81
666,1	34,752
666,5	38,724
667	31,238
667,4	28,524
667,9	32,695
668,3	27,095
668,7	29,181
669,2	36,21
669,6	36,181
670,1	43,352
670,5	41,952
670,9	40,324
671,4	39,781
671,8	41,981
672,3	41,381
672,7	38,61
673,1	32,581
673,6	32,295
674	37,838
674,5	42,695
674,9	38,724
675,3	31,181
675,8	31,638
676,2	33,41
676,7	32,295
677,1	29,952
677,5	28,238
678	32,352
678,4	36,352
678,9	37,438
679,3	39,524
679,7	41,495
680,2	38,038
680,6	40,752
681,1	40,895
681,5	42,238
681,9	47,095
682,4	46,81
682,8	45,867
683,3	49,952
683,7	48,752
684,1	47,781
684,6	44,61
685	39,152
685,5	41,438
685,9	39,038
686,3	34,981
686,8	34,895
687,2	35,124
687,7	32,781
688,1	31,667
688,5	29,181
689	32,295
689,4	30,838
689,9	27,21
690,3	25,21
690,7	30,838
691,2	35,324
691,6	35,952
692	35,81
692,5	37,352
692,9	39,81
693,4	45,267
693,8	43,638
694,2	39,695
694,7	34,495
695,1	33,867
695,6	36,924
696	34,352
696,4	27,267
696,9	25,181
697,3	23,41
697,8	26,038
698,2	24,724
698,6	24,095
699,1	24,838
699,5	29,181
699,9	27,752
700,4	27,867
700,8	29,952
701,3	28,981
701,7	24,238
702,1	22,095
702,6	20,324
703	25,238
703,5	23,267
703,9	18,552
704,3	18,924
704,8	19,438
705,2	21,724
705,6	21,524
706,1	19,981
706,5	20,152
707	26,438
707,4	28,867
707,8	30,324
708,3	32,381
708,7	33,381
709,2	31,095
709,6	32,324
710	31,581
710,5	29,238
710,9	28,581
711,3	27,124
711,8	25,695
712,2	28,067
712,7	26,352
713,1	25,895
713,5	26,295
714	25,124
714,4	25,867
714,8	25,524
715,3	23,724
715,7	26,667
716,2	22,895
716,6	26,838
717	23,981
717,5	21,638
717,9	23,838
718,3	21,867
718,8	24,495
719,2	27,581
719,7	23,152
720,1	29,181
720,5	35,01
721	29,638
721,4	31,638
721,8	29,552
722,3	26,381
722,7	30,724
723,2	24,324
723,6	12,867
724	13,352
724,5	10,524
724,9	6,724
725,3	7,867
725,8	5,781
726,2	8,295
726,7	12,467
727,1	13,924
727,5	14,124
728	15,981
728,4	16,781
728,8	17,695
729,3	19,095
729,7	19,61
730,1	18,895
730,6	21,752
731	20,467
731,5	20,381
731,9	16,752
732,3	17,61
732,8	18,695
733,2	21,21
733,6	19,61
734,1	20,552
734,5	22,467
734,9	25,038
735,4	26,781
735,8	22,524
736,3	27,438
736,7	25,295
737,1	26,81
737,6	24,867
738	23,01
738,4	16,638
738,9	18,467
739,3	12,467
739,7	17,067
740,2	13,267
740,6	16,438
741,1	16,181
741,5	13,581
741,9	17,41
742,4	20,124
742,8	16,724
743,2	21,81
743,7	16,21
744,1	12,781
744,5	17,181
745	17,495
745,4	14,495
745,8	17,124
746,3	13,524
746,7	14,924
747,2	21,638
747,6	28,124
748	29,581
748,5	34,41
748,9	29,01
749,3	26,724
749,8	26,867
750,2	25,352
750,6	18,867
751,1	16,81
751,5	12,295
751,9	18,038
752,4	22,667
752,8	23,61
753,3	22,61
753,7	25,981
754,1	23,181
754,6	18,238
755	13,438
755,4	11,552
755,9	10,667
756,3	6,867
756,7	4,952
757,2	4,838
757,6	8,952
758	9,524
758,5	10,238
758,9	9,124
759,3	15,495
759,8	17,638
760,2	19,352
760,6	19,981
761,1	22,324
761,5	21,324
761,9	22,381
762,4	16,381
762,8	12,324
763,3	13,495
763,7	14,981
764,1	14,381
764,6	14,152
765	15,381
765,4	19,124
765,9	21,21
766,3	25,381
766,7	20,552
767,2	20,724
767,6	24,295
768	21,781
768,5	18,352
768,9	17,895
769,3	12,667
769,8	13,952
770,2	14,638
770,6	11,952
771,1	17,895
771,5	20,495
771,9	23,01
772,4	25,467
772,8	29,238
773,2	29,524
773,7	28,581
774,1	26,61
774,5	24,295
775	18,581
775,4	16,41
775,8	14,781
776,3	15,324
776,7	12,01
777,1	6,41
777,6	10,238
778	14,41
778,4	15,295
778,9	17,038
779,3	16,01
779,7	19,524
780,2	25,495
780,6	22,81
781	20,01
781,5	15,238
781,9	12,752
782,3	9,552
782,8	8,295
783,2	5,01
783,6	8,181
784,1	12,552
784,5	14,124
784,9	13,981
785,4	18,895
785,8	22,181
786,2	19,695
786,7	18,095
787,1	13,524
787,5	14,838
788	15,952
788,4	10,381
788,8	7,724
789,3	8,238
789,7	9,895
790,1	9,981
790,6	13,61
791	7,01
791,4	12,267
791,9	11,352
792,3	10,552
792,7	13,61
793,2	11,581
793,6	10,352
794	17,724
794,5	13,81
794,9	19,152
795,3	20,467
795,8	14,981
796,2	19,21
796,6	16,752
797,1	13,552
797,5	12,838
797,9	6,01
798,4	8,21
798,8	8,724
799,2	3,067
799,7	5,581
800,1	7,267
800,5	7,752
801	11,724
801,4	9,01
801,8	9,924
802,2	15,324
802,7	11,867
803,1	8,952
803,5	12,867
804	11,21
804,4	15,124
804,8	15,124
805,3	17,01
805,7	18,638
806,1	22,067
806,6	21,438
807	25,095
807,4	22,21
807,9	17,324
808,3	13,438
808,7	13,267
809,2	13,695
809,6	13,695
810	9,067
810,4	8,438
810,9	10,038
811,3	14,21
811,7	15,381
812,2	21,038
812,6	20,724
813	29,667
813,5	27,924
813,9	28,438
814,3	23,438
814,8	21,038
815,2	11,381
815,6	13,781
816,1	8,152
816,5	11,61
816,9	15,267
817,3	17,124
817,8	26,638
818,2	28,61
818,6	21,695
819,1	21,981
819,5	17,124
819,9	17,867
820,4	18,238
820,8	8,552
821,2	2,838
821,7	9,295
822,1	10,381
822,5	21,467
822,9	17,638
823,4	16,838
823,8	24,838
824,2	31,781
824,7	25,41
825,1	19,438
825,5	10,552
826	6,61
826,4	5,095
826,8	-2,533
827,3	-3,505
827,7	-1,048
828,1	3,352
828,5	7,638
829	6,038
829,4	6,381
829,8	1,924
830,3	0,724
830,7	0,21
831,1	2,495
831,6	-0,076
832	7,295
832,4	7,81
832,8	14,981
833,3	16,267
833,7	16,01
834,1	12,667
834,6	13,581
835	14,695
835,4	17,038
835,8	11,267
836,3	12,124
836,7	13,181
837,1	12,238
837,6	12,695
838	8,352
838,4	6,467
838,9	10,267
839,3	6,667
839,7	6,924
840,1	5,152
840,6	3,21
841	4,581
841,4	7,267
841,9	3,61
842,3	1,867
842,7	3,695
843,1	7,181
843,6	9,152
844	9,81
844,4	8,695
844,9	14,638
845,3	17,781
845,7	12,552
846,2	8,924
846,6	4,381
847	5,41
847,4	6,752
847,9	5,352
848,3	7,181
848,7	10,381
849,2	10,41
849,6	7,724
850	12,095
850,4	9,81
850,9	12,124
851,3	11,552
851,7	11,981
852,2	14,638
852,6	22,352
853	15,381
853,4	16,21
853,9	10,838
854,3	10,924
854,7	9,724
855,2	5,552
855,6	2,438
856	3,438
856,4	-0,59
856,9	1,838
857,3	1,581
857,7	2,981
858,2	8,467
858,6	9,895
859	10,924
859,4	12,381
859,9	10,581
860,3	6,838
860,7	4,324
861,1	5,038
861,6	0,638
862	1,895
862,4	1,352
862,9	2,467
863,3	6,524
863,7	7,01
864,1	7,467
864,6	10,352
865	8,695
865,4	11,581
865,9	15,524
866,3	12,41
866,7	11,381
867,1	3,695
867,6	5,895
868	6,467
868,4	2,295
868,8	-2,876
869,3	-1,505
869,7	1,724
870,1	6,295
870,6	3,61
871	-53,733
871,4	-47,619
871,8	-48,105
872,3	-46,648
872,7	-47,905
873,1	-48,19
873,5	-44,819
874	9,095
874,4	8,581
874,8	10,752
875,3	12,438
875,7	9,61
876,1	9,295
876,5	6,838
877	8,067
877,4	3,352
877,8	4,21
878,2	4,267
878,7	9,81
879,1	9,838
879,5	11,352
879,9	12,21
880,4	16,295
880,8	14,067
881,2	10,038
881,7	6,752
882,1	9,895
882,5	4,067
882,9	6,095
883,4	4,41
883,8	11,038
884,2	9,838
884,6	10,181
885,1	7,81
885,5	14,524
885,9	14,181
886,3	17,524
886,8	12,181
887,2	14,238
887,6	11,695
888	13,895
888,5	10,238
888,9	8,295
889,3	-0,762
889,8	-3,848
890,2	-1,505
890,6	-1,905
891	-2,362
891,5	-2,362
891,9	-3,648
892,3	2,752
892,7	6,638
893,2	6,01
893,6	10,695
894	10,81
894,4	9,724
894,9	14,81
895,3	12,295
895,7	13,781
896,1	12,438
896,6	11,01
897	8,895
897,4	13,981
897,8	12,61
898,3	17,01
898,7	13,981
899,1	12,695
899,5	11,067
900	5,552
900,4	2,267
900,8	-5,19
901,2	-7,676
901,7	-9,133
902,1	-7,219
902,5	-4,19
902,9	-0,762
903,4	2,381
903,8	8,552
904,2	5,352
904,6	9,295
905,1	9,238
905,5	10,952
905,9	14,324
906,3	13,724
906,8	15,924
907,2	20,981
907,6	19,41
908	21,381
908,5	14,095
908,9	9,724
909,3	8,01
909,7	5,01
910,2	4,81
910,6	6,267
911	2,952
911,4	8,324
911,9	6,467
912,3	5,352
912,7	8,01
913,1	7,295
913,6	3,41
914	3,667
914,4	0,067
914,8	3,524
915,3	0,667
915,7	0,295
916,1	-0,533
916,5	0,41
916,9	-0,648
917,4	0,838
917,8	3,667
918,2	4,752
918,6	0,524
919,1	-1,705
919,5	3,41
919,9	6,095
920,3	6,41
920,8	5,067
921,2	7,095
921,6	8,552
922	9,838
922,5	7,124
922,9	7,295
923,3	7,952
923,7	9,781
924,2	8,267
924,6	7,095
925	9,924
925,4	5,01
925,8	4,81
926,3	4,667
926,7	0,124
927,1	1,952
927,5	4,752
928	-1,848
928,4	2,981
928,8	4,781
929,2	2,924
929,7	5,638
930,1	7,81
930,5	5,238
930,9	13,524
931,3	13,581
931,8	12,238
932,2	10,581
932,6	8,238
933	-0,39
933,5	2,924
933,9	-2,39
934,3	-3,505
934,7	-6,676
935,2	-4,533
935,6	-3,362
936	3,238
936,4	3,724
936,8	4,152
937,3	3,81
937,7	8,295
938,1	13,952
938,5	12,781
939	12,238
939,4	12,21
939,8	14,324
940,2	15,924
940,6	15,781
941,1	7,61
941,5	12,924
941,9	10,495
942,3	6,61
942,8	4,467
943,2	4,295
943,6	-0,448
944	4,581
944,4	2,924
944,9	2,724
945,3	5,21
945,7	0,552
946,1	-4,562
946,6	-6,476
947	-10,133
947,4	-6,59
947,8	-5,905
948,2	-8,819
948,7	-2,048
949,1	0,552
949,5	11,152
949,9	13,095
950,3	6,467
950,8	8,352
951,2	7,981
951,6	2,867
952	8,181
952,5	0,238
952,9	-1,048
953,3	1,01
953,7	0,352
954,1	7,895
954,6	12,438
955	11,238
955,4	10,095
955,8	14,438
956,2	11,867
956,7	13,01
957,1	6,438
957,5	8,438
957,9	5,152
958,3	9,381
958,8	10,238
959,2	15,381
959,6	18,21
960	14,867
960,5	13,124
960,9	16,552
961,3	12,952
961,7	8,467
962,1	5,067
962,6	2,895
963	9,895
963,4	6,552
963,8	3,952
964,2	6,095
964,7	8,067
965,1	10,21
965,5	12,181
965,9	9,695
966,3	13,124
966,8	9,295
967,2	10,152
967,6	8,638
968	5,838
968,4	5,181
968,9	7,552
969,3	7,981
969,7	10,924
970,1	10,295
970,5	9,638
971	12,181
971,4	11,124
971,8	7,381
972,2	7,381
972,6	6,638
973,1	7,067
973,5	11,467
973,9	10,524
974,3	9,638
974,7	14,238
975,2	14,781
975,6	12,067
976	12,238
976,4	7,21
976,8	9,295
977,3	6,981
977,7	2,781
978,1	0,01
978,5	1,381
978,9	0,038
979,4	-0,648
979,8	-5,962
980,2	-5,733
980,6	-7,133
981	-2,133
981,5	1,581
981,9	2,61
982,3	4,324
982,7	8,495
983,1	6,352
983,6	9,152
984	6,952
984,4	5,295
984,8	4,867
985,2	4,524
985,6	-0,133
986,1	4,695
986,5	5,267
986,9	-0,248
987,3	3,352
987,7	2,581
988,2	1,124
988,6	7,124
989	4,61
989,4	3,038
989,8	6,181
990,3	3,467
990,7	3,952
991,1	5,467
991,5	4,581
991,9	10,038
992,3	11,21
992,8	12,381
993,2	11,41
993,6	13,695
994	17,381
994,4	18,095
994,9	13,267
995,3	12,867
995,7	13,752
996,1	13,238
996,5	12,324
996,9	6,981
997,4	7,238
997,8	6,952
998,2	5,638
998,6	-1,162
999	-0,819
999,5	-3,305
999,9	-3,733
1000,3	-7,619
1000,7	-7,448
1001,1	-8,733
1001,5	-3,133
1002	1,41
1002,4	3,352
1002,8	5,724
1003,2	6,981
1003,6	8,067
1004	12,295
1004,5	9,381
1004,9	6,41
1005,3	-0,448
1005,7	-1,448
1006,1	-1,819
1006,6	-2,733
1007	-3,162
1007,4	-3,933
1007,8	-6,19
1008,2	-3,648
1008,6	1,581
1009,1	-1,248
1009,5	2,038
1009,9	3,124
1010,3	6,324
1010,7	5,952
1011,1	10,21
1011,6	5,695
1012	11,038
1012,4	7,152
1012,8	5,495
1013,2	8,724
1013,6	9,067
1014,1	6,21
1014,5	4,267
1014,9	0,781
1015,3	-0,562
1015,7	-1,248
1016,1	-3,419
1016,6	-7,19
1017	-6,676
1017,4	-1,048
1017,8	1,438
1018,2	6,81
1018,6	2,552
1019,1	1,21
1019,5	1,981
1019,9	1,21
1020,3	1,152
1020,7	2,495
1021,1	-1,476
1021,6	-0,162
1022	4,752
1022,4	7,981
1022,8	14,181
1023,2	9,295
1023,6	6,124
1024,1	9,981
1024,5	13,552
1024,9	7,21
1025,3	7,238
1025,7	5,352
1026,1	11,038
1026,6	15,981
1027	16,381
1027,4	16,238
1027,8	17,838
1028,2	19,752
1028,6	19,81
1029	16,695
1029,5	15,438
1029,9	11,695
1030,3	10,295
1030,7	14,01
1031,1	15,238
1031,5	14,724
1032	15,695
1032,4	12,352
1032,8	20,352
1033,2	21,352
1033,6	17,495
1034	14,067
1034,4	9,724
1034,9	9,295
1035,3	7,067
1035,7	2,438
1036,1	-0,562
1036,5	-2,019
1036,9	-0,219
1037,4	2,352
1037,8	-1,533
1038,2	-0,19
1038,6	-1,962
1039	2,41
1039,4	5,581
1039,8	-0,305
1040,3	-0,533
1040,7	4,381
1041,1	6,838
1041,5	9,724
1041,9	4,61
1042,3	1,981
1042,7	6,381
1043,2	9,924
1043,6	5,752
1044	3,895
1044,4	5,038
1044,8	8,895
1045,2	8,41
1045,6	12,552
1046,1	7,781
1046,5	9,038
1046,9	9,01
1047,3	5,952
1047,7	7,752
1048,1	7,924
1048,5	4,21
1049	7,667
1049,4	12,867
1049,8	11,838
1050,2	9,095
1050,6	12,524
1051	11,267
1051,4	11,61
1051,9	9,781
1052,3	14,695
1052,7	16,438
1053,1	18,41
1053,5	13,495
1053,9	16,724
1054,3	18,81
1054,8	22,867
1055,2	17,01
1055,6	21,181
1056	17,724
1056,4	16,924
1056,8	16,724
1057,2	12,581
1057,6	7,381
1058,1	1,095
1058,5	-6,19
1058,9	-1,648
1059,3	1,524
1059,7	0,01
1060,1	5,038
1060,5	1,895
1061	7,524
1061,4	12,438
1061,8	12,352
1062,2	10,267
1062,6	14,352
1063	14,695
1063,4	14,495
1063,8	11,352
1064,3	4,781
1064,7	1,667
1065,1	2,924
1065,5	-1,533
1065,9	-5,133
1066,3	-0,619
1066,7	-2,619
1067,1	0,467
1067,6	2,724
1068	-1,648
1068,4	-0,333
1068,8	1,238
1069,2	1,181
1069,6	3,838
1070	8,124
1070,4	8,524
1070,9	7,352
1071,3	9,181
1071,7	4,352
1072,1	6,324
1072,5	2,495
1072,9	1,067
1073,3	1,895
1073,7	3,41
1074,2	4,152
1074,6	7,438
1075	5,324
1075,4	6,438
1075,8	6,41
1076,2	3,124
1076,6	6,838
1077	4,438
1077,5	8,21
1077,9	5,181
1078,3	7,124
1078,7	8,724
1079,1	10,438
1079,5	10,638
1079,9	12,724
1080,3	12,095
1080,7	14,381
1081,2	18,667
1081,6	16,238
1082	15,952
1082,4	21,381
1082,8	18,724
1083,2	18,695
1083,6	19,324
1084	15,238
1084,5	15,095
1084,9	11,638
1085,3	2,867
1085,7	1,867
1086,1	1,324
1086,5	0,295
1086,9	3,267
1087,3	2,724
1087,7	6,581
1088,2	5,695
1088,6	6,838
1089	5,924
1089,4	6,352
1089,8	2,952
1090,2	0,695
1090,6	0,61
1091	2,467
1091,4	4,267
1091,9	4,781
1092,3	5,067
1092,7	2,524
1093,1	10,61
1093,5	8,895
1093,9	7,467
1094,3	8,552
1094,7	7,181
1095,1	8,038
1095,5	12,238
1096	4,752
1096,4	4,495
1096,8	7,181
1097,2	5,495
1097,6	7,867
1098	8,838
1098,4	10,495
1098,8	13,038
1099,2	19,21
1099,6	17,067
1100,1	13,438
1100,5	7,838
1100,9	6,352
1101,3	3,895
1101,7	1,752
1102,1	-4,19
1102,5	-1,819
1102,9	4,381
1103,3	9,381
1103,7	7,781
1104,2	6,981
1104,6	7,01
1105	7,124
1105,4	4,638
1105,8	0,21
1106,2	-2,962
1106,6	-2,019
1107	-1,99
1107,4	-1,633
1107,8	-1,053
1108,3	-0,533
