Data from Subt2_013.txt Node
Date: Sat Aug 26 16:13:39 MSK 2023
User: vat
Spectrometer: MAYP114033
Trigger mode: 0
Integration Time (sec): 1,000000E0
Scans to average: 5
Electric dark correction enabled: true
Nonlinearity correction enabled: false
Boxcar width: 3
XAxis mode: Wavelengths
Number of Pixels in Spectrum: 2068
>>>>>Begin Spectral Data<<<<<
199,4	-0,317
199,9	3,393
200,4	3,533
200,8	6,119
201,3	5,233
201,8	3,433
202,2	4,662
202,7	4,919
203,2	-0,538
203,6	1,005
204,1	-2,452
204,6	-0,024
205	2,319
205,5	5,176
206	2,69
206,4	2,262
206,9	1,319
207,4	2,119
207,8	4,433
208,3	3,062
208,8	2,433
209,2	4,433
209,7	7,862
210,2	7,29
210,6	5,005
211,1	3,433
211,5	3,205
212	1,548
212,5	1,29
212,9	4,062
213,4	4,376
213,9	5,119
214,3	4,49
214,8	6,576
215,3	6,262
215,7	5,462
216,2	3,519
216,7	4,319
217,1	4,633
217,6	0,348
218,1	2,519
218,5	-2,224
219	-2,51
219,5	-3,338
219,9	-2,31
220,4	6,09
220,9	5,748
221,3	6,033
221,8	6,605
222,3	10,919
222,7	11,119
223,2	13,005
223,6	8,862
224,1	12,433
224,6	7,576
225	13,805
225,5	12,833
226	14,176
226,4	10,776
226,9	9,348
227,4	10,862
227,8	14,262
228,3	13,805
228,8	10,29
229,2	10,205
229,7	7,319
230,2	8,662
230,6	5,033
231,1	11,69
231,5	14,862
232	14,576
232,5	13,519
232,9	14,69
233,4	13,519
233,9	14,09
234,3	3,148
234,8	-1,91
235,3	5,948
235,7	3,69
236,2	4,948
236,7	3,29
237,1	6,833
237,6	8,548
238,1	6,89
238,5	-0,767
239	3,833
239,4	3,548
239,9	-2,195
240,4	-4,595
240,8	-2,881
241,3	-1,11
241,8	3,29
242,2	1,776
242,7	5,148
243,2	15,233
243,6	15,119
244,1	13,519
244,6	9,376
245	9,319
245,5	9,462
245,9	9,033
246,4	8,205
246,9	9,519
247,3	11,833
247,8	15,405
248,3	11,719
248,7	15,119
249,2	12,976
249,7	10,976
250,1	12,776
250,6	14,09
251	10,633
251,5	13,719
252	13,519
252,4	14,605
252,9	10,005
253,4	7,748
253,8	4,862
254,3	11,433
254,8	12,29
255,2	6,033
255,7	3,976
256,1	10,662
256,6	7,233
257,1	10,405
257,5	6,176
258	5,148
258,5	4,719
258,9	5,605
259,4	-1,367
259,9	-1,51
260,3	-6,767
260,8	-4,252
261,2	-3,881
261,7	-4,395
262,2	-6,195
262,6	-3,138
263,1	-0,481
263,6	3,005
264	1,062
264,5	0,605
264,9	2,833
265,4	4,09
265,9	4,719
266,3	6,319
266,8	3,862
267,3	5,862
267,7	7,69
268,2	7,29
268,7	7,062
269,1	4,862
269,6	3,805
270	6,348
270,5	3,348
271	-5,281
271,4	-5,167
271,9	-2,91
272,4	1,919
272,8	4,233
273,3	3,376
273,7	10,148
274,2	12,49
274,7	15,719
275,1	12,748
275,6	6,348
276,1	4,548
276,5	4,262
277	-2,424
277,4	-0,852
277,9	-2,767
278,4	2,662
278,8	1,262
279,3	-0,738
279,8	2,748
280,2	6,633
280,7	7,976
281,1	9,176
281,6	0,719
282,1	5,662
282,5	2,976
283	0,633
283,4	-5,367
283,9	-7,424
284,4	-9,281
284,8	-6,652
285,3	-10,995
285,8	-8,167
286,2	-13,824
286,7	-9,138
287,1	-6,652
287,6	-6,11
288,1	-5,167
288,5	-2,395
289	1,462
289,5	8,262
289,9	4,29
290,4	2,633
290,8	5,462
291,3	6,033
291,8	6,062
292,2	7,776
292,7	6,29
293,1	9,719
293,6	14,805
294,1	13,433
294,5	12,976
295	14,462
295,5	8,433
295,9	7,29
296,4	4,605
296,8	2,148
297,3	1,948
297,8	-0,452
298,2	-0,481
298,7	4,205
299,1	3,748
299,6	7,09
300,1	11,205
300,5	10,262
301	11,433
301,5	10,033
301,9	13,49
302,4	12,748
302,8	13,319
303,3	4,348
303,8	1,09
304,2	3,09
304,7	6,433
305,1	-1,881
305,6	-0,652
306,1	0,176
306,5	3,376
307	1,719
307,4	-0,767
307,9	-0,252
308,4	2,805
308,8	6,605
309,3	3,205
309,8	4,433
310,2	9,49
310,7	12,49
311,1	8,69
311,6	6,148
312,1	4,005
312,5	4,919
313	4,376
313,4	3,976
313,9	2,49
314,4	4,633
314,8	8,719
315,3	7,576
315,7	8,148
316,2	6,805
316,7	6,176
317,1	6,805
317,6	7,805
318	4,805
318,5	4,233
319	6,862
319,4	4,062
319,9	3,233
320,3	5,405
320,8	3,633
321,3	3,919
321,7	4,805
322,2	-1,167
322,6	4,662
323,1	6,49
323,6	4,833
324	9,89
324,5	12,548
324,9	9,776
325,4	14,948
325,9	9,062
326,3	5,605
326,8	6,348
327,2	4,433
327,7	-2,824
328,2	-3,767
328,6	-4,31
329,1	-4,595
329,5	-4,938
330	-6,024
330,5	-8,881
330,9	-6,824
331,4	-0,91
331,8	-2,681
332,3	2,233
332,8	7,69
333,2	2,548
333,7	6,062
334,1	4,948
334,6	0,69
335,1	-1,824
335,5	-3,738
336	-3,71
336,4	1,376
336,9	-4,795
337,4	3,662
337,8	8,033
338,3	9,176
338,7	9,748
339,2	2,405
339,7	-3,11
340,1	2,462
340,6	-8,338
341	-12,995
341,5	-10,281
342	-4,624
342,4	5,233
342,9	15,433
343,3	12,948
343,8	19,319
344,2	23,348
344,7	21,262
345,2	19,462
345,6	12,348
346,1	6,005
346,5	5,948
347	7,176
347,5	7,062
347,9	13,262
348,4	9,69
348,8	12,519
349,3	18,148
349,8	20,49
350,2	22,919
350,7	25,233
351,1	20,348
351,6	24,433
352	27,805
352,5	29,433
353	33,233
353,4	39,005
353,9	48,805
354,3	65,433
354,8	82,319
355,3	101,348
355,7	121,205
356,2	143,748
356,6	169,29
357,1	197,148
357,5	226,462
358	263,033
358,5	306,719
358,9	359,176
359,4	420,205
359,8	489,719
360,3	565,033
360,8	649,605
361,2	743,405
361,7	850,148
362,1	966,062
362,6	1091,09
363	1225,033
363,5	1364,89
364	1514,205
364,4	1667,719
364,9	1817,233
365,3	1966,119
365,8	2115,433
366,3	2247,919
366,7	2374,976
367,2	2480,519
367,6	2570,69
368,1	2639,576
368,5	2685,205
369	2695,719
369,5	2696,005
369,9	2674,405
370,4	2633,205
370,8	2571,433
371,3	2495,862
371,7	2400,576
372,2	2306,776
372,7	2201,69
373,1	2088,148
373,6	1971,89
374	1849,776
374,5	1729,262
374,9	1615,605
375,4	1503,09
375,9	1391,519
376,3	1284,148
376,8	1182,862
377,2	1088,519
377,7	1001,205
378,2	919,89
378,6	844,605
379,1	774,919
379,5	708,69
380	648,833
380,4	597,976
380,9	548,69
381,4	504,433
381,8	456,805
382,3	417,433
382,7	391,862
383,2	365,462
383,6	340,348
384,1	315,776
384,6	292,748
385	276,719
385,5	263,548
385,9	235,548
386,4	220,376
386,8	202,348
387,3	189,719
387,7	178,548
388,2	164,776
388,7	151,49
389,1	143,948
389,6	133,548
390	123,348
390,5	112,69
390,9	104,233
391,4	99,605
391,9	90,719
392,3	89,233
392,8	84,148
393,2	76,462
393,7	76,633
394,1	72,519
394,6	67,376
395,1	64,833
395,5	62,748
396	55,005
396,4	54,919
396,9	51,662
397,3	50,719
397,8	51,862
398,2	52,033
398,7	45,662
399,2	50,605
399,6	50,062
400,1	50,09
400,5	50,49
401	46,062
401,4	44,405
401,9	46,462
402,4	45,148
402,8	47,719
403,3	51,319
403,7	57,348
404,2	66,519
404,6	67,49
405,1	69,09
405,5	73,176
406	75,433
406,5	73,805
406,9	73,405
407,4	72,605
407,8	82,262
408,3	89,548
408,7	92,29
409,2	102,919
409,6	112,605
410,1	120,633
410,6	124,062
411	127,348
411,5	134,262
411,9	149,519
412,4	154,633
412,8	158,29
413,3	164,805
413,7	176,576
414,2	189,976
414,7	197,148
415,1	195,262
415,6	205,348
416	213,976
416,5	223,919
416,9	235,49
417,4	237,376
417,8	246,89
418,3	266,033
418,8	281,976
419,2	297,919
419,7	310,548
420,1	321,262
420,6	343,09
421	357,719
421,5	369,605
421,9	377,176
422,4	391,29
422,8	408,433
423,3	425,405
423,8	440,576
424,2	459,519
424,7	480,348
425,1	500,805
425,6	516,69
426	534,805
426,5	561,033
426,9	583,605
427,4	611,976
427,9	639,49
428,3	669,576
428,8	710,748
429,2	744,805
429,7	779,862
430,1	814,262
430,6	844,862
431	881,433
431,5	925,519
431,9	962,976
432,4	1008,29
432,8	1050,548
433,3	1098,833
433,8	1151,605
434,2	1202,605
434,7	1251,348
435,1	1310,348
435,6	1364,719
436	1431,776
436,5	1498,033
436,9	1565,319
437,4	1634,319
437,8	1714,69
438,3	1789,49
438,8	1870,69
439,2	1949,319
439,7	2028,662
440,1	2118,633
440,6	2212,976
441	2301,519
441,5	2395,49
441,9	2499,433
442,4	2599,005
442,8	2705,862
443,3	2817,49
443,7	2927,376
444,2	3041,605
444,7	3158,319
445,1	3278,462
445,6	3404,29
446	3539,49
446,5	3672,29
446,9	3810,462
447,4	3952,205
447,8	4098,719
448,3	4236,919
448,7	4389,776
449,2	4545,605
449,6	4698,862
450,1	4860,176
450,6	5027,776
451	5191,262
451,5	5371,805
451,9	5546,89
452,4	5711,548
452,8	5892,662
453,3	6070,09
453,7	6255,062
454,2	6454,405
454,6	6650,262
455,1	6847,09
455,5	7053,319
456	7253,976
456,4	7461,29
456,9	7665,119
457,3	7876,433
457,8	8092,719
458,3	8302,376
458,7	8528,633
459,2	8750,462
459,6	8979,405
460,1	9207,89
460,5	9426,033
461	9649,262
461,4	9880,976
461,9	10108,948
462,3	10339,176
462,8	10566,462
463,2	10789,433
463,7	11020,976
464,1	11243,519
464,6	11476,948
465	11699,005
465,5	11934,376
466	12169,633
466,4	12403,462
466,9	12640,033
467,3	12881,576
467,8	13117,119
468,2	13352,519
468,7	13585,09
469,1	13808,919
469,6	14046,49
470	14261,119
470,5	14482,519
470,9	14700,062
471,4	14916,376
471,8	15123,433
472,3	15326,576
472,7	15529,833
473,2	15741,033
473,6	15943,033
474,1	16125,176
474,5	16324,176
475	16510,205
475,4	16711,919
475,9	16889,748
476,4	17065,205
476,8	17222,719
477,3	17407,69
477,7	17566,29
478,2	17728,348
478,6	17871,919
479,1	18023,548
479,5	18173,89
480	18318,148
480,4	18441,605
480,9	18569,89
481,3	18694,348
481,8	18815,605
482,2	18916,548
482,7	19014,519
483,1	19115,976
483,6	19205,376
484	19293,719
484,5	19362,719
484,9	19430,433
485,4	19504,548
485,8	19558,862
486,3	19616,719
486,7	19668,005
487,2	19697,148
487,6	19730,348
488,1	19755,662
488,5	19769,062
489	19783,319
489,4	19780,348
489,9	19786,119
490,4	19793,919
490,8	19793,89
491,3	19781,148
491,7	19762,433
492,2	19745,948
492,6	19722,605
493,1	19680,119
493,5	19622,576
494	19575,405
494,4	19526,262
494,9	19477,062
495,3	19420,548
495,8	19357,148
496,2	19289,119
496,7	19220,833
497,1	19158,662
497,6	19085,433
498	18999,662
498,5	18911,89
498,9	18819,633
499,4	18743,233
499,8	18659,033
500,3	18548,776
500,7	18448,633
501,2	18353,89
501,6	18249,976
502,1	18159,148
502,5	18054,005
503	17949,948
503,4	17849,462
503,9	17735,433
504,3	17625,605
504,8	17512,176
505,2	17387,519
505,7	17251,748
506,1	17124,49
506,6	16992,89
507	16863,205
507,5	16728,662
507,9	16602,49
508,4	16463,033
508,8	16342,548
509,3	16206,605
509,7	16070,89
510,2	15940,29
510,6	15810,89
511,1	15663,633
511,5	15527,948
512	15374,89
512,4	15239,433
512,9	15100,062
513,3	14949,862
513,8	14795,576
514,2	14659,433
514,7	14512,119
515,1	14376,862
515,6	14228,805
516	14078,69
516,5	13937,462
516,9	13802,49
517,4	13649,176
517,8	13508,005
518,3	13369,633
518,7	13226,319
519,2	13082,462
519,6	12943,148
520,1	12802,29
520,5	12670,49
521	12537,805
521,4	12390,033
521,9	12253,948
522,3	12122,69
522,8	11990,462
523,2	11852,862
523,7	11727,29
524,1	11594,548
524,6	11465,862
525	11338,976
525,5	11210,262
525,9	11088,862
526,4	10969,576
526,8	10844,319
527,3	10725,576
527,7	10607,862
528,2	10484,662
528,6	10373,633
529,1	10259,09
529,5	10145,176
530	10038,348
530,4	9930,776
530,9	9813,462
531,3	9714,405
531,8	9609,205
532,2	9498,233
532,6	9390,776
533,1	9272,548
533,5	9169,433
534	9077,833
534,4	8975,005
534,9	8877,319
535,3	8781,662
535,8	8684,605
536,2	8592,148
536,7	8493,376
537,1	8398,748
537,6	8309,805
538	8221,348
538,5	8133,233
538,9	8042,29
539,4	7959,69
539,8	7875,119
540,3	7794,348
540,7	7711,919
541,2	7636,462
541,6	7551,005
542,1	7475,29
542,5	7393,919
543	7325,976
543,4	7257,805
543,9	7183,405
544,3	7103,176
544,8	7036,319
545,2	6969,176
545,7	6903,805
546,1	6831,348
546,5	6756,748
547	6687,176
547,4	6624,405
547,9	6556,805
548,3	6493,976
548,8	6433,548
549,2	6376,433
549,7	6317,348
550,1	6263,09
550,6	6201,29
551	6139,433
551,5	6082,119
551,9	6023,605
552,4	5960,519
552,8	5909,548
553,3	5856,605
553,7	5805,033
554,2	5763,348
554,6	5710,833
555,1	5665,719
555,5	5619,233
555,9	5572,748
556,4	5527,405
556,8	5483,462
557,3	5433,29
557,7	5388,633
558,2	5340,776
558,6	5294,976
559,1	5250,148
559,5	5207,605
560	5157,29
560,4	5114,748
560,9	5074,319
561,3	5035,233
561,8	4996,062
562,2	4954,376
562,7	4910,805
563,1	4878,005
563,6	4848,462
564	4813,633
564,4	4770,605
564,9	4734,919
565,3	4698,89
565,8	4663,976
566,2	4631,233
566,7	4589,862
567,1	4555,605
567,6	4521,662
568	4484,805
568,5	4449,776
568,9	4418,662
569,4	4383,119
569,8	4352,69
570,3	4316,033
570,7	4287,748
571,1	4264,862
571,6	4235,348
572	4200,833
572,5	4170,862
572,9	4140,776
573,4	4109,69
573,8	4084,376
574,3	4045,405
574,7	4015,948
575,2	3994,633
575,6	3967,376
576,1	3939,548
576,5	3915,576
576,9	3885,119
577,4	3866,633
577,8	3839,69
578,3	3815,89
578,7	3786,662
579,2	3761,519
579,6	3737,405
580,1	3716,119
580,5	3688,748
581	3669,405
581,4	3637,548
581,9	3613,49
582,3	3587,033
582,7	3564,776
583,2	3531,233
583,6	3498,49
584,1	3470,719
584,5	3443,233
585	3423,233
585,4	3397,262
585,9	3365,833
586,3	3343,405
586,8	3327,862
587,2	3306,348
587,6	3285,548
588,1	3264,748
588,5	3247,605
589	3230,662
589,4	3209,262
589,9	3192,462
590,3	3173,319
590,8	3154,833
591,2	3140,633
591,7	3122,176
592,1	3105,519
592,5	3090,405
593	3068,09
593,4	3051,462
593,9	3037,062
594,3	3013,433
594,8	2990,862
595,2	2978,976
595,7	2964,662
596,1	2955,433
596,6	2936,376
597	2913,348
597,4	2896,233
597,9	2889,719
598,3	2865,519
598,8	2848,119
599,2	2831,376
599,7	2819,033
600,1	2806,09
600,6	2788,633
601	2773,833
601,4	2761,49
601,9	2747,976
602,3	2725,348
602,8	2707,862
603,2	2694,519
603,7	2684,09
604,1	2663,776
604,6	2646,89
605	2635,062
605,4	2621,576
605,9	2607,719
606,3	2594,405
606,8	2578,09
607,2	2569,776
607,7	2559,69
608,1	2542,005
608,6	2532,005
609	2514,376
609,4	2500,233
609,9	2485,776
610,3	2467,576
610,8	2450,69
611,2	2439,576
611,7	2420,605
612,1	2409,462
612,6	2394,805
613	2379,119
613,4	2361,29
613,9	2344,605
614,3	2331,462
614,8	2320,176
615,2	2306,576
615,7	2296,348
616,1	2284,319
616,6	2275,89
617	2263,605
617,4	2244,548
617,9	2228,976
618,3	2212,662
618,8	2198,262
619,2	2183,776
619,7	2164,119
620,1	2153,776
620,5	2142,576
621	2127,69
621,4	2117,433
621,9	2103,319
622,3	2086,919
622,8	2078,176
623,2	2062,376
623,6	2050,633
624,1	2039,89
624,5	2037,062
625	2024,233
625,4	2014,433
625,9	1996,233
626,3	1984,919
626,8	1973,148
627,2	1961,09
627,6	1940,605
628,1	1927,519
628,5	1924,519
629	1919,548
629,4	1907,605
629,9	1894,462
630,3	1884,319
630,7	1867,205
631,2	1845,376
631,6	1822,605
632,1	1807,405
632,5	1790,348
633	1779,376
633,4	1768,148
633,8	1761,119
634,3	1754,433
634,7	1745,062
635,2	1731,148
635,6	1725,09
636,1	1711,548
636,5	1700,348
636,9	1683,976
637,4	1677,005
637,8	1662,605
638,3	1655,405
638,7	1645,462
639,2	1636,319
639,6	1622,833
640	1617,262
640,5	1607,376
640,9	1602,748
641,4	1593,605
641,8	1583,776
642,2	1575,262
642,7	1571,748
643,1	1560,548
643,6	1551,805
644	1542,719
644,5	1531,862
644,9	1523,319
645,3	1511,805
645,8	1497,948
646,2	1490,89
646,7	1480,633
647,1	1472,376
647,6	1461,776
648	1447,49
648,4	1437,719
648,9	1434,233
649,3	1423,405
649,8	1415,033
650,2	1409,576
650,6	1403,033
651,1	1399,49
651,5	1392,919
652	1382,605
652,4	1375,148
652,9	1370,919
653,3	1359,176
653,7	1350,005
654,2	1342,49
654,6	1330,833
655,1	1316,433
655,5	1305,605
655,9	1292,576
656,4	1282,233
656,8	1275,919
657,3	1264,205
657,7	1254,348
658,2	1253,062
658,6	1248,49
659	1240,948
659,5	1232,148
659,9	1222,348
660,4	1219,89
660,8	1217,748
661,2	1205,148
661,7	1196,119
662,1	1188,976
662,6	1175,89
663	1163,89
663,4	1151,233
663,9	1141,948
664,3	1133,519
664,8	1122,548
665,2	1115,005
665,6	1114,176
666,1	1111,262
666,5	1102,376
667	1090,805
667,4	1081,89
667,9	1071,405
668,3	1061,919
668,7	1052,748
669,2	1041,948
669,6	1037,833
670,1	1033,49
670,5	1021,89
670,9	1016,633
671,4	1011,005
671,8	1001,176
672,3	994,09
672,7	983,719
673,1	974,205
673,6	973,719
674	969,576
674,5	959,233
674,9	951,119
675,3	946,062
675,8	940,376
676,2	936,719
676,7	928,033
677,1	917,405
677,5	910,462
678	907,062
678,4	901,605
678,9	896,09
679,3	886,919
679,7	881,776
680,2	876,748
680,6	870,633
681,1	864,433
681,5	856,062
681,9	850,262
682,4	844,033
682,8	838,862
683,3	832,119
683,7	828,548
684,1	817,176
684,6	809,976
685	799,633
685,5	792,262
685,9	781,376
686,3	776,805
686,8	768,89
687,2	767,119
687,7	762,033
688,1	761,033
688,5	755,433
689	753,976
689,4	750,033
689,9	747,205
690,3	739,376
690,7	734,776
691,2	723,548
691,6	719,062
692	715,348
692,5	705,69
692,9	695,405
693,4	691,919
693,8	682,29
694,2	683,119
694,7	678,29
695,1	670,49
695,6	672,576
696	672,176
696,4	667,976
696,9	671,719
697,3	661,148
697,8	663,205
698,2	660,176
698,6	656,062
699,1	653,662
699,5	652,805
699,9	646,148
700,4	642,748
700,8	630,033
701,3	627,176
701,7	618,205
702,1	609,319
702,6	600,148
703	593,09
703,5	591,69
703,9	590,862
704,3	587,462
704,8	583,262
705,2	581,548
705,6	576,576
706,1	573,033
706,5	563,662
707	556,405
707,4	551,176
707,8	545,69
708,3	541,833
708,7	540,348
709,2	534,605
709,6	534,49
710	531,405
710,5	524,205
710,9	521,976
711,3	517,005
711,8	513,719
712,2	515,862
712,7	514,948
713,1	510,462
713,5	505,862
714	501,919
714,4	496,948
714,8	492,176
715,3	485,062
715,7	473,948
716,2	474,548
716,6	471,576
717	466,719
717,5	462,633
717,9	460,833
718,3	459,462
718,8	463,49
719,2	453,176
719,7	453,033
720,1	447,405
720,5	445,148
721	439,662
721,4	434,519
721,8	428,776
722,3	429,119
722,7	423,976
723,2	423,033
723,6	420,205
724	417,405
724,5	411,948
724,9	406,262
725,3	402,176
725,8	398,233
726,2	391,976
726,7	388,862
727,1	388,005
727,5	385,319
728	383,519
728,4	384,376
728,8	378,148
729,3	383,262
729,7	377,719
730,1	372,69
730,6	369,348
731	368,262
731,5	367,919
731,9	367,919
732,3	361,633
732,8	362,776
733,2	361,062
733,6	360,662
734,1	357,376
734,5	348,119
734,9	347,805
735,4	344,29
735,8	338,69
736,3	337,033
736,7	336,89
737,1	336,148
737,6	335,948
738	333,29
738,4	334,862
738,9	340,576
739,3	334,633
739,7	332,29
740,2	332,69
740,6	332,862
741,1	331,462
741,5	323,748
741,9	313,833
742,4	312,748
742,8	311,405
743,2	300,548
743,7	297,576
744,1	300,262
744,5	298,776
745	301,576
745,4	298,89
745,8	297,605
746,3	297,548
746,7	294,719
747,2	281,462
747,6	280,148
748	273,148
748,5	270,919
748,9	265,548
749,3	268,319
749,8	265,833
750,2	264,776
750,6	267,776
751,1	267,376
751,5	269,348
751,9	269,233
752,4	265,462
752,8	260,376
753,3	264,319
753,7	261,176
754,1	260,405
754,6	255,205
755	251,433
755,4	247,262
755,9	251,976
756,3	249,605
756,7	247,605
757,2	245,319
757,6	248,633
758	245,776
758,5	246,319
758,9	238,433
759,3	236,09
759,8	231,976
760,2	229,033
760,6	227,09
761,1	225,262
761,5	229,062
761,9	231,062
762,4	228,748
762,8	227,89
763,3	227,119
763,7	215,262
764,1	214,376
764,6	206,205
765	209,605
765,4	205,89
765,9	202,262
766,3	198,662
766,7	206,805
767,2	208,119
767,6	212,205
768	206,919
768,5	209,148
768,9	203,548
769,3	207,833
769,8	205,176
770,2	202,176
770,6	194,89
771,1	192,633
771,5	189,205
771,9	197,49
772,4	195,948
772,8	189,005
773,2	187,405
773,7	189,319
774,1	185,462
774,5	186,205
775	183,062
775,4	182,09
775,8	187,805
776,3	188,919
776,7	186,89
777,1	187,976
777,6	184,805
778	185,062
778,4	179,633
778,9	178,776
779,3	175,976
779,7	174,433
780,2	171,633
780,6	172,005
781	167,433
781,5	169,176
781,9	163,376
782,3	164,633
782,8	167,205
783,2	171,633
783,6	171,176
784,1	167,748
784,5	166,176
784,9	166,376
785,4	164,376
785,8	164,519
786,2	161,205
786,7	159,89
787,1	163,005
787,5	161,462
788	163,376
788,4	159,348
788,8	155,062
789,3	154,262
789,7	156,605
790,1	155,033
790,6	150,976
791	145,462
791,4	145,519
791,9	145,519
792,3	142,09
792,7	140,29
793,2	139,433
793,6	142,119
794	144,09
794,5	145,633
794,9	144,719
795,3	144,462
795,8	140,005
796,2	139,89
796,6	134,548
797,1	135,176
797,5	129,09
797,9	126,005
798,4	128,633
798,8	130,09
799,2	127,376
799,7	130,033
800,1	129,033
800,5	132,176
801	129,148
801,4	122,376
801,8	121,662
802,2	120,919
802,7	121,833
803,1	118,405
803,5	115,576
804	118,233
804,4	117,49
804,8	116,405
805,3	119,548
805,7	119,205
806,1	120,576
806,6	122,519
807	119,49
807,4	121,29
807,9	123,548
808,3	116,548
808,7	113,69
809,2	115,633
809,6	113,776
810	116,005
810,4	116,576
810,9	112,005
811,3	110,519
811,7	109,005
812,2	108,176
812,6	104,633
813	100,862
813,5	97,405
813,9	100,633
814,3	102,119
814,8	102,776
815,2	97,976
815,6	99,719
816,1	97,49
816,5	100,862
816,9	91,833
817,3	90,605
817,8	87,862
818,2	86,49
818,6	82,005
819,1	89,148
819,5	86,919
819,9	90,176
820,4	90,69
820,8	90,748
821,2	93,09
821,7	94,033
822,1	86,719
822,5	82,462
822,9	81,633
823,4	77,548
823,8	79,633
824,2	78,633
824,7	83,719
825,1	86,805
825,5	88,176
826	85,49
826,4	88,833
826,8	80,119
827,3	79,176
827,7	76,062
828,1	75,205
828,5	71,976
829	69,062
829,4	68,462
829,8	76,69
830,3	74,976
830,7	69,805
831,1	71,948
831,6	73,89
832	71,376
832,4	69,233
832,8	66,148
833,3	64,376
833,7	67,119
834,1	65,462
834,6	66,919
835	70,433
835,4	74,376
835,8	71,548
836,3	69,005
836,7	69,776
837,1	63,148
837,6	61,69
838	62,033
838,4	57,348
838,9	56,319
839,3	62,348
839,7	59,833
840,1	65,405
840,6	64,319
841	63,633
841,4	63,633
841,9	61,348
842,3	58,776
842,7	59,833
843,1	59,319
843,6	60,69
844	61,776
844,4	62,205
844,9	65,433
845,3	63,119
845,7	61,262
846,2	53,119
846,6	50,148
847	50,09
847,4	44,205
847,9	42,405
848,3	42,233
848,7	40,862
849,2	50,119
849,6	48,376
850	47,176
850,4	52,748
850,9	50,262
851,3	47,262
851,7	51,89
852,2	42,748
852,6	43,719
853	41,348
853,4	38,319
853,9	47,919
854,3	49,433
854,7	41,49
855,2	41,519
855,6	38,919
856	42,69
856,4	47,29
856,9	42,433
857,3	43,805
857,7	43,919
858,2	44,605
858,6	44,348
859	42,205
859,4	37,062
859,9	35,833
860,3	36,89
860,7	42,662
861,1	44,89
861,6	43,89
862	46,148
862,4	47,633
862,9	44,319
863,3	42,348
863,7	39,233
864,1	41,29
864,6	49,976
865	47,719
865,4	47,148
865,9	49,69
866,3	47,49
866,7	51,062
867,1	46,176
867,6	40,148
868	37,205
868,4	36,862
868,8	37,805
869,3	40,09
869,7	36,433
870,1	35,548
870,6	34,519
871	-18,567
871,4	-15,681
871,8	-17,681
872,3	-22,538
872,7	-27,424
873,1	-24,395
873,5	-25,767
874	29,748
874,4	23,262
874,8	22,662
875,3	25,005
875,7	26,976
876,1	24,633
876,5	27,348
877	27,519
877,4	27,205
877,8	23,176
878,2	24,919
878,7	27,605
879,1	25,919
879,5	26,462
879,9	22,605
880,4	28,119
880,8	30,948
881,2	27,433
881,7	24,233
882,1	30,148
882,5	28,148
882,9	29,319
883,4	24,348
883,8	24,405
884,2	28,748
884,6	30,576
885,1	24,862
885,5	24,09
885,9	25,205
886,3	24,805
886,8	23,548
887,2	21,205
887,6	18,005
888	21,862
888,5	21,976
888,9	23,205
889,3	28,605
889,8	31,89
890,2	31,405
890,6	31,976
891	30,519
891,5	29,376
891,9	22,89
892,3	17,033
892,7	14,205
893,2	12,119
893,6	11,233
894	5,633
894,4	6,862
894,9	7,633
895,3	9,633
895,7	11,833
896,1	10,719
896,6	13,119
897	16,348
897,4	13,776
897,8	17,548
898,3	16,919
898,7	10,548
899,1	9,662
899,5	10,376
900	11,519
900,4	13,29
900,8	14,205
901,2	12,062
901,7	16,919
902,1	21,919
902,5	20,062
902,9	18,405
903,4	17,776
903,8	15,29
904,2	14,748
904,6	14,09
905,1	10,348
905,5	9,405
905,9	8,49
906,3	7,662
906,8	7,29
907,2	9,119
907,6	7,576
908	11,433
908,5	17,062
908,9	18,89
909,3	16,919
909,7	16,062
910,2	19,462
910,6	20,262
911	18,748
911,4	8,919
911,9	6,233
912,3	10,319
912,7	13,89
913,1	13,319
913,6	14,119
914	12,69
914,4	16,519
914,8	16,948
915,3	15,205
915,7	13,69
916,1	12,205
916,5	12,805
916,9	14,605
917,4	11,833
917,8	12,262
918,2	16,205
918,6	15,462
919,1	15,205
919,5	13,176
919,9	11,09
920,3	16,033
920,8	20,033
921,2	16,948
921,6	18,005
922	18,205
922,5	16,919
922,9	17,719
923,3	18,69
923,7	15,49
924,2	20,062
924,6	19,176
925	19,776
925,4	19,748
925,8	19,462
926,3	18,605
926,7	20,805
927,1	16,605
927,5	17,548
928	14,462
928,4	11,548
928,8	7,09
929,2	6,605
929,7	4,148
930,1	1,119
930,5	-0,652
930,9	4,148
931,3	10,49
931,8	14,005
932,2	15,862
932,6	15,576
933	17,548
933,5	15,662
933,9	10,262
934,3	7,719
934,7	5,405
935,2	2,233
935,6	0,605
936	2,719
936,4	3,462
936,8	4,005
937,3	11,348
937,7	14,576
938,1	17,262
938,5	18,205
939	17,205
939,4	17,919
939,8	18,233
940,2	9,233
940,6	7,205
941,1	6,262
941,5	7,605
941,9	4,633
942,3	4,148
942,8	3,033
943,2	6,119
943,6	8,948
944	3,205
944,4	0,719
944,9	3,033
945,3	2,89
945,7	9,69
946,1	3,605
946,6	2,09
947	7,776
947,4	9,519
947,8	7,033
948,2	8,976
948,7	3,205
949,1	7,49
949,5	8,576
949,9	7,29
950,3	7,062
950,8	4,433
951,2	6,405
951,6	7,49
952	7,519
952,5	3,605
952,9	4,462
953,3	0,605
953,7	2,205
954,1	-0,881
954,6	-3,081
955	-2,252
955,4	1,776
955,8	-0,138
956,2	2,719
956,7	7,89
957,1	7,433
957,5	7,348
957,9	4,69
958,3	0,576
958,8	-0,995
959,2	-1,538
959,6	-3,224
960	-0,51
960,5	1,376
960,9	2,09
961,3	5,833
961,7	2,633
962,1	-2,195
962,6	-5,452
963	-2,195
963,4	-1,224
963,8	1,69
964,2	-1,452
964,7	2,748
965,1	8,719
965,5	6,262
965,9	-0,138
966,3	-1,395
966,8	-0,281
967,2	2,119
967,6	4,633
968	5,033
968,4	8,319
968,9	6,576
969,3	5,633
969,7	9,605
970,1	8,548
970,5	6,633
971	5,319
971,4	5,348
971,8	9,69
972,2	9,976
972,6	0,176
973,1	2,319
973,5	4,033
973,9	4,89
974,3	5,833
974,7	2,29
975,2	1,69
975,6	5,633
976	1,805
976,4	-0,767
976,8	-0,195
977,3	1,433
977,7	-0,51
978,1	-1,424
978,5	-3,052
978,9	-5,367
979,4	-9,71
979,8	-12,395
980,2	-11,281
980,6	-12,71
981	-6,11
981,5	-8,938
981,9	-3,681
982,3	3,29
982,7	-0,595
983,1	-1,138
983,6	0,605
984	-7,081
984,4	-2,338
984,8	-1,31
985,2	-5,281
985,6	-0,595
986,1	-7,024
986,5	-2,681
986,9	-0,31
987,3	-0,567
987,7	-3,91
988,2	-2,395
988,6	1,376
989	3,433
989,4	1,805
989,8	2,033
990,3	-0,624
990,7	2,319
991,1	-1,624
991,5	-1,595
991,9	-3,824
992,3	0,319
992,8	-2,224
993,2	-1,367
993,6	-3,881
994	2,49
994,4	-3,052
994,9	0,433
995,3	-2,195
995,7	3,519
996,1	4,033
996,5	5,748
996,9	3,433
997,4	6,433
997,8	8,262
998,2	5,376
998,6	-2,567
999	-4,367
999,5	-4,624
999,9	-1,938
1000,3	-4,081
1000,7	-1,767
1001,1	1,233
1001,5	6,433
1002	6,862
1002,4	6,033
1002,8	1,405
1003,2	2,776
1003,6	-1,481
1004	-4,881
1004,5	-6,195
1004,9	-5,738
1005,3	-4,167
1005,7	0,405
1006,1	-0,138
1006,6	-0,824
1007	-2,052
1007,4	1,348
1007,8	0,062
1008,2	3,205
1008,6	0,005
1009,1	3,576
1009,5	11,148
1009,9	16,062
1010,3	13,748
1010,7	13,29
1011,1	5,89
1011,6	11,89
1012	8,748
1012,4	0,948
1012,8	-1,167
1013,2	-4,567
1013,6	-0,595
1014,1	0,862
1014,5	-6,481
1014,9	-8,195
1015,3	-4,024
1015,7	-4,367
1016,1	-4,281
1016,6	-5,995
1017	-4,481
1017,4	-0,652
1017,8	-0,681
1018,2	-8,51
1018,6	-8,452
1019,1	-10,624
1019,5	-9,538
1019,9	-11,252
1020,3	-15,51
1020,7	-19,538
1021,1	-17,31
1021,6	-19,481
1022	-9,024
1022,4	-10,081
1022,8	-12,224
1023,2	-4,538
1023,6	0,49
1024,1	6,262
1024,5	8,662
1024,9	3,576
1025,3	5,262
1025,7	9,69
1026,1	5,376
1026,6	2,662
1027	3,548
1027,4	0,919
1027,8	4,233
1028,2	6,348
1028,6	3,519
1029	1,348
1029,5	1,805
1029,9	-5,824
1030,3	-4,395
1030,7	-5,31
1031,1	-9,567
1031,5	-11,138
1032	-10,395
1032,4	-5,681
1032,8	-0,995
1033,2	-0,31
1033,6	-0,395
1034	-5,51
1034,4	-3,081
1034,9	-2,852
1035,3	-6,481
1035,7	-5,767
1036,1	-2,795
1036,5	-5,738
1036,9	3,233
1037,4	4,148
1037,8	6,376
1038,2	12,49
1038,6	9,262
1039	1,062
1039,4	7,519
1039,8	6,719
1040,3	9,119
1040,7	8,09
1041,1	3,633
1041,5	7,548
1041,9	11,462
1042,3	6,519
1042,7	2,976
1043,2	4,405
1043,6	1,69
1044	2,348
1044,4	5,09
1044,8	7,605
1045,2	6,376
1045,6	9,319
1046,1	6,29
1046,5	10,29
1046,9	13,176
1047,3	7,776
1047,7	7,148
1048,1	7,348
1048,5	6,176
1049	7,548
1049,4	4,89
1049,8	-0,452
1050,2	-1,681
1050,6	-0,481
1051	2,462
1051,4	2,119
1051,9	-6,081
1052,3	-4,11
1052,7	-1,024
1053,1	1,919
1053,5	-1,338
1053,9	-2,424
1054,3	-3,967
1054,8	5,348
1055,2	6,776
1055,6	4,919
1056	3,033
1056,4	9,919
1056,8	11,29
1057,2	11,29
1057,6	-1,081
1058,1	-1,595
1058,5	-1,167
1058,9	3,948
1059,3	-1,138
1059,7	-2,652
1060,1	-0,767
1060,5	10,862
1061	10,348
1061,4	7,919
1061,8	5,662
1062,2	8,405
1062,6	8,433
1063	7,433
1063,4	7,948
1063,8	4,033
1064,3	7,548
1064,7	7,576
1065,1	4,09
1065,5	4,119
1065,9	2,405
1066,3	1,519
1066,7	5,576
1067,1	7,405
1067,6	6,005
1068	7,29
1068,4	7,919
1068,8	10,119
1069,2	9,833
1069,6	11,462
1070	9,462
1070,4	9,833
1070,9	3,776
1071,3	0,69
1071,7	6,005
1072,1	5,062
1072,5	-1,367
1072,9	1,776
1073,3	2,005
1073,7	7,433
1074,2	9,719
1074,6	1,09
1075	-0,195
1075,4	8,89
1075,8	7,433
1076,2	9,976
1076,6	12,69
1077	12,005
1077,5	16,69
1077,9	16,719
1078,3	9,262
1078,7	7,576
1079,1	-0,167
1079,5	0,662
1079,9	0,148
1080,3	-2,395
1080,7	0,29
1081,2	-2,995
1081,6	-0,424
1082	2,205
1082,4	-2,224
1082,8	-0,938
1083,2	-0,91
1083,6	-4,681
1084	0,233
1084,5	-1,71
1084,9	-2,338
1085,3	-4,195
1085,7	-6,31
1086,1	0,748
1086,5	-2,052
1086,9	1,348
1087,3	5,062
1087,7	4,519
1088,2	5,833
1088,6	6,805
1089	2,69
1089,4	4,09
1089,8	-0,338
1090,2	-7,052
1090,6	-0,938
1091	4,719
1091,4	1,405
1091,9	0,862
1092,3	3,89
1092,7	0,462
1093,1	8,462
1093,5	4,119
1093,9	2,919
1094,3	7,833
1094,7	10,862
1095,1	14,376
1095,5	16,29
1096	12,833
1096,4	14,462
1096,8	10,233
1097,2	11,662
1097,6	7,605
1098	4,948
1098,4	3,262
1098,8	-0,252
1099,2	-1,424
1099,6	-1,024
1100,1	-5,938
1100,5	-5,51
1100,9	-6,852
1101,3	-5,224
1101,7	-3,052
1102,1	-0,481
1102,5	-0,824
1102,9	3,033
1103,3	-0,681
1103,7	2,776
1104,2	7,462
1104,6	8,805
1105	10,148
1105,4	12,405
1105,8	9,348
1106,2	12,605
1106,6	9,519
1107	7,462
1107,4	5,867
1107,8	1,593
1108,3	-0,167
