Data from Subt2_118.txt Node
Date: Sat Aug 26 18:22:53 MSK 2023
User: vat
Spectrometer: MAYP114033
Trigger mode: 0
Integration Time (sec): 1,000000E0
Scans to average: 5
Electric dark correction enabled: true
Nonlinearity correction enabled: false
Boxcar width: 3
XAxis mode: Wavelengths
Number of Pixels in Spectrum: 2068
>>>>>Begin Spectral Data<<<<<
199,4	-0,75
199,9	-0,8
200,4	-2,4
200,8	0,514
201,3	-1,486
201,8	-1,857
202,2	-4,543
202,7	-1,086
203,2	-0,743
203,6	1,229
204,1	-5,714
204,6	-5,714
205	-6,629
205,5	-4,771
206	-7,629
206,4	-9,571
206,9	-12,257
207,4	-6,4
207,8	-4
208,3	-5,286
208,8	-4,714
209,2	-3,029
209,7	0,886
210,2	5,286
210,6	1,743
211,1	3,486
211,5	6,571
212	5,6
212,5	4,686
212,9	-0,914
213,4	-4,914
213,9	-2,971
214,3	-2,686
214,8	-1,571
215,3	1,457
215,7	1,743
216,2	4,229
216,7	8,429
217,1	7,343
217,6	10,057
218,1	7,086
218,5	3
219	-2,457
219,5	0,8
219,9	-5,429
220,4	2,514
220,9	-2,543
221,3	-2,771
221,8	-1,4
222,3	6,8
222,7	4,8
223,2	4,743
223,6	-4,829
224,1	-6,514
224,6	-4,143
225	-5,343
225,5	-9,314
226	-9,571
226,4	-7,286
226,9	-4,286
227,4	-2,143
227,8	-7,514
228,3	-4,486
228,8	-4,429
229,2	-5,657
229,7	-3,343
230,2	-4,4
230,6	-3,6
231,1	6,743
231,5	8,171
232	6,686
232,5	9,257
232,9	11,771
233,4	15,114
233,9	10,743
234,3	7,143
234,8	3,971
235,3	3,457
235,7	5,371
236,2	2,886
236,7	3,229
237,1	7,457
237,6	3,943
238,1	6,6
238,5	1,743
239	-1,486
239,4	0,086
239,9	-0,743
240,4	-1,371
240,8	3,229
241,3	-0,371
241,8	4,571
242,2	5,371
242,7	-0,143
243,2	-7,686
243,6	-10,457
244,1	-12,257
244,6	-11,114
245	-9,771
245,5	-12,086
245,9	-10,343
246,4	-4,6
246,9	-1,686
247,3	-0,629
247,8	1,257
248,3	2,057
248,7	5,686
249,2	7,886
249,7	7,686
250,1	7,971
250,6	5,171
251	2,886
251,5	1,371
252	0,4
252,4	0,743
252,9	-1,429
253,4	-5,286
253,8	-5,914
254,3	-5,029
254,8	-1,143
255,2	-5,086
255,7	-7,171
256,1	-7,857
256,6	-5,743
257,1	-3,229
257,5	-3,314
258	-8,886
258,5	-6,143
258,9	-4,943
259,4	-6,371
259,9	-5,257
260,3	-11,229
260,8	-15,114
261,2	-12,257
261,7	-10,486
262,2	-14,914
262,6	-13,143
263,1	-9,314
263,6	-1,771
264	5,829
264,5	7,8
264,9	4,743
265,4	7,743
265,9	8,914
266,3	8,2
266,8	6,343
267,3	7,771
267,7	2,829
268,2	2,257
268,7	3,171
269,1	3,514
269,6	2,029
270	3
270,5	-5,229
271	-2,486
271,4	-1,029
271,9	-6,314
272,4	-6,629
272,8	-5,629
273,3	-10,371
273,7	-5,514
274,2	-3,771
274,7	-4,057
275,1	2,743
275,6	-0,171
276,1	-4,857
276,5	1,371
277	-2,4
277,4	-2,343
277,9	-0,829
278,4	0,4
278,8	7,086
279,3	11,286
279,8	7,114
280,2	10,6
280,7	10,114
281,1	6,457
281,6	5,029
282,1	5
282,5	4,171
283	4,343
283,4	3,914
283,9	4,686
284,4	10,314
284,8	10,714
285,3	9,171
285,8	10,829
286,2	10,657
286,7	11,086
287,1	9,086
287,6	12,629
288,1	10,6
288,5	12,6
289	6,429
289,5	5,857
289,9	5,257
290,4	7,714
290,8	1,171
291,3	0,343
291,8	-1,8
292,2	-2,143
292,7	-1,514
293,1	-3,857
293,6	-3
294,1	-3,114
294,5	2,143
295	0,486
295,5	1,943
295,9	5,314
296,4	6,457
296,8	3,2
297,3	4,629
297,8	-5,686
298,2	-6,914
298,7	-1,6
299,1	-1,543
299,6	-7,2
300,1	-4,257
300,5	-3,514
301	4,486
301,5	11,086
301,9	7,743
302,4	-0
302,8	3,657
303,3	0,429
303,8	-5,057
304,2	-5,629
304,7	-8,486
305,1	-11,657
305,6	-2,914
306,1	5,2
306,5	5,971
307	10,514
307,4	13,229
307,9	14,2
308,4	17,343
308,8	9,114
309,3	3,257
309,8	1,229
310,2	2,829
310,7	-0,886
311,1	-3,686
311,6	-3,6
312,1	-0,971
312,5	2,4
313	6,429
313,4	3,857
313,9	5,429
314,4	3,229
314,8	0,114
315,3	4,743
315,7	-1,686
316,2	-4,429
316,7	-4,229
317,1	-1,314
317,6	-0,286
318	8,171
318,5	2,057
319	5,629
319,4	4,629
319,9	10,114
320,3	5,086
320,8	7,514
321,3	7,571
321,7	11,829
322,2	8,114
322,6	10,257
323,1	4,429
323,6	6,286
324	4,429
324,5	-6,229
324,9	-3,371
325,4	-3,971
325,9	-0,429
326,3	2,657
326,8	3,886
327,2	5,486
327,7	10,543
328,2	9,657
328,6	13,886
329,1	6,743
329,5	4,771
330	0,029
330,5	1,029
330,9	2,171
331,4	1,457
331,8	-1,657
332,3	1,571
332,8	2,543
333,2	4,571
333,7	3,886
334,1	4,771
334,6	3,829
335,1	0,771
335,5	1,057
336	-1,829
336,4	3,571
336,9	8,543
337,4	8,2
337,8	6,857
338,3	10,257
338,7	10,543
339,2	11,829
339,7	10,914
340,1	4,943
340,6	4,714
341	3,914
341,5	6,143
342	6,286
342,4	5,371
342,9	1,229
343,3	2,257
343,8	3,057
344,2	6,629
344,7	11,371
345,2	11,886
345,6	14,057
346,1	11,457
346,5	10,114
347	4,857
347,5	3,829
347,9	1,371
348,4	-2,229
348,8	-1,714
349,3	6,143
349,8	6,6
350,2	10,971
350,7	7
351,1	4,486
351,6	11,229
352	18,543
352,5	16
353	24,914
353,4	28,543
353,9	35,743
354,3	48,086
354,8	51,6
355,3	58,429
355,7	72,257
356,2	86,171
356,6	104,886
357,1	128
357,5	151,457
358	180,943
358,5	206,743
358,9	243,086
359,4	279,143
359,8	320,971
360,3	369,257
360,8	413,371
361,2	474,457
361,7	543,114
362,1	616
362,6	692,857
363	776,914
363,5	863,2
364	966,486
364,4	1057
364,9	1151,771
365,3	1241,514
365,8	1328,229
366,3	1411,057
366,7	1484,886
367,2	1545,429
367,6	1599,2
368,1	1645,086
368,5	1673,743
369	1688,314
369,5	1690,771
369,9	1677,514
370,4	1651,571
370,8	1617,543
371,3	1564,457
371,7	1505,971
372,2	1445,257
372,7	1371,371
373,1	1302,229
373,6	1225,571
374	1151,086
374,5	1071,543
374,9	1000,629
375,4	928,971
375,9	862,743
376,3	792,143
376,8	730,286
377,2	671,686
377,7	617,829
378,2	561,743
378,6	513,086
379,1	467,829
379,5	429,914
380	398,514
380,4	360,457
380,9	335,457
381,4	307,514
381,8	285,257
382,3	266,514
382,7	245,571
383,2	226,057
383,6	212,771
384,1	195,514
384,6	182,314
385	169,857
385,5	156,343
385,9	148,114
386,4	135,914
386,8	128,543
387,3	120,4
387,7	113,629
388,2	103,143
388,7	98,8
389,1	91,657
389,6	89,2
390	79,743
390,5	77,543
390,9	76,286
391,4	74,457
391,9	68,029
392,3	66,371
392,8	59,914
393,2	55,457
393,7	50,857
394,1	46,457
394,6	41,971
395,1	41,543
395,5	37,771
396	38,286
396,4	41,257
396,9	38,8
397,3	40,229
397,8	39,257
398,2	39,771
398,7	44,371
399,2	44,6
399,6	45,229
400,1	43,914
400,5	41,514
401	40,343
401,4	33,829
401,9	34,686
402,4	37,257
402,8	32,029
403,3	40,914
403,7	38,943
404,2	47,171
404,6	55,314
405,1	53
405,5	51,314
406	56,771
406,5	50,286
406,9	56,771
407,4	54,743
407,8	55,714
408,3	61,029
408,7	60
409,2	65,657
409,6	73,571
410,1	78,629
410,6	91
411	97,686
411,5	102,057
411,9	114,4
412,4	119,686
412,8	128,286
413,3	137,514
413,7	139,714
414,2	147,229
414,7	161,514
415,1	173,486
415,6	185,4
416	194,343
416,5	205,114
416,9	215,486
417,4	232,229
417,8	249,943
418,3	259,971
418,8	275,657
419,2	293,057
419,7	311,114
420,1	331,486
420,6	347,514
421	359,943
421,5	383,686
421,9	404,143
422,4	425,857
422,8	445,257
423,3	464,343
423,8	484,886
424,2	506,8
424,7	528,229
425,1	557,2
425,6	585,257
426	614,771
426,5	650,714
426,9	687,114
427,4	722,514
427,9	755,343
428,3	788,029
428,8	828,229
429,2	872,343
429,7	912,057
430,1	956,543
430,6	1006,543
431	1065,914
431,5	1130,114
431,9	1183,571
432,4	1241,771
432,8	1307,714
433,3	1374,971
433,8	1441,857
434,2	1512,543
434,7	1577,857
435,1	1658,657
435,6	1743,543
436	1831,029
436,5	1919,171
436,9	2011,314
437,4	2104,829
437,8	2208,8
438,3	2317,057
438,8	2422,429
439,2	2534,686
439,7	2655,171
440,1	2779,029
440,6	2910
441	3040,914
441,5	3174,571
441,9	3314,686
442,4	3456,6
442,8	3604,743
443,3	3762,629
443,7	3923,743
444,2	4090,886
444,7	4259,571
445,1	4432,371
445,6	4611,029
446	4795,771
446,5	4979,2
446,9	5161,143
447,4	5359,029
447,8	5561,086
448,3	5771,371
448,7	5986,086
449,2	6201,029
449,6	6422,543
450,1	6648,4
450,6	6879,943
451	7102,2
451,5	7336,086
451,9	7577,914
452,4	7831,314
452,8	8077,4
453,3	8335,343
453,7	8585,8
454,2	8862,829
454,6	9130,657
455,1	9399,4
455,5	9657,229
456	9933,629
456,4	10209,029
456,9	10491,943
457,3	10777,6
457,8	11065,743
458,3	11357,029
458,7	11656,514
459,2	11955,629
459,6	12264,457
460,1	12562,571
460,5	12849,114
461	13152,571
461,4	13450,943
461,9	13750,971
462,3	14062,686
462,8	14362,029
463,2	14669,086
463,7	14985,857
464,1	15290,171
464,6	15605,371
465	15917,6
465,5	16213,629
466	16517,4
466,4	16823,857
466,9	17121,8
467,3	17429,6
467,8	17722,971
468,2	18019,343
468,7	18318,171
469,1	18609,829
469,6	18904,057
470	19184,029
470,5	19471,971
470,9	19740,029
471,4	20018,486
471,8	20280,429
472,3	20545,429
472,7	20796,314
473,2	21058,4
473,6	21286,914
474,1	21532,314
474,5	21775,629
475	22022,486
475,4	22262,371
475,9	22491,143
476,4	22711,771
476,8	22947,114
477,3	23167,029
477,7	23357,971
478,2	23535,114
478,6	23711,829
479,1	23894,771
479,5	24061,371
480	24214,343
480,4	24369,371
480,9	24525,371
481,3	24673,514
481,8	24814,714
482,2	24934,771
482,7	25064,743
483,1	25184,6
483,6	25298,343
484	25397,714
484,5	25494,229
484,9	25569,4
485,4	25653,457
485,8	25727,314
486,3	25784,543
486,7	25836,457
487,2	25880,2
487,6	25926,714
488,1	25970,057
488,5	25998,229
489	26000,114
489,4	26018,486
489,9	26029,257
490,4	26012,6
490,8	25991,143
491,3	25964,314
491,7	25916,829
492,2	25899,514
492,6	25845,057
493,1	25779,086
493,5	25729,829
494	25676,6
494,4	25605,857
494,9	25542,629
495,3	25458,114
495,8	25381,8
496,2	25294,543
496,7	25199,057
497,1	25095,171
497,6	25009,343
498	24911,914
498,5	24814,486
498,9	24697,429
499,4	24587,486
499,8	24475,429
500,3	24363,6
500,7	24229,343
501,2	24107,457
501,6	23967,743
502,1	23841,4
502,5	23713,971
503	23583,486
503,4	23444,543
503,9	23296,686
504,3	23146,457
504,8	23002,914
505,2	22848,714
505,7	22683
506,1	22526,629
506,6	22356,6
507	22209,171
507,5	22043,114
507,9	21880,057
508,4	21705,686
508,8	21548,086
509,3	21371,486
509,7	21206,343
510,2	21032,229
510,6	20844,543
511,1	20659,714
511,5	20485,257
512	20292,371
512,4	20121,457
512,9	19940,543
513,3	19757,486
513,8	19583,086
514,2	19401,314
514,7	19212,4
515,1	19024,229
515,6	18835,714
516	18639,371
516,5	18443,029
516,9	18263,743
517,4	18076,314
517,8	17906,286
518,3	17728,029
518,7	17544,514
519,2	17366,486
519,6	17179,914
520,1	16998,514
520,5	16814,086
521	16614
521,4	16435,6
521,9	16250,771
522,3	16079,314
522,8	15912,086
523,2	15728,743
523,7	15568,6
524,1	15402,514
524,6	15229,714
525	15061,171
525,5	14888,171
525,9	14722,4
526,4	14556,571
526,8	14381,143
527,3	14229,229
527,7	14077,771
528,2	13918,4
528,6	13761,143
529,1	13600,257
529,5	13448,143
530	13306,286
530,4	13154,571
530,9	13003,714
531,3	12863,457
531,8	12710,229
532,2	12567,314
532,6	12426,543
533,1	12284,4
533,5	12143,171
534	11997,686
534,4	11848,686
534,9	11716,2
535,3	11588,114
535,8	11458,657
536,2	11315,371
536,7	11186,943
537,1	11063,229
537,6	10943,229
538	10827,571
538,5	10700,829
538,9	10567,6
539,4	10447,286
539,8	10323,943
540,3	10206,4
540,7	10089,486
541,2	9972,743
541,6	9869,371
542,1	9775,286
542,5	9670,543
543	9567
543,4	9461,629
543,9	9352,714
544,3	9249,943
544,8	9135,229
545,2	9023,514
545,7	8928,657
546,1	8831,371
546,5	8737,857
547	8651,029
547,4	8560,371
547,9	8469,314
548,3	8383,286
548,8	8290,543
549,2	8194
549,7	8102,8
550,1	8018
550,6	7935,171
551	7860,257
551,5	7779,486
551,9	7693,286
552,4	7618,486
552,8	7541,971
553,3	7463,486
553,7	7381,829
554,2	7300,857
554,6	7233,514
555,1	7165,743
555,5	7097,343
555,9	7028,971
556,4	6958,743
556,8	6885,457
557,3	6821,914
557,7	6754,4
558,2	6686,571
558,6	6627,629
559,1	6566,286
559,5	6507,943
560	6451,343
560,4	6392
560,9	6330,343
561,3	6269,6
561,8	6206,371
562,2	6143,857
562,7	6081
563,1	6028,029
563,6	5967,4
564	5909,857
564,4	5858,886
564,9	5799,629
565,3	5744,314
565,8	5695,943
566,2	5642,171
566,7	5593,229
567,1	5537,971
567,6	5487,486
568	5442,657
568,5	5398,4
568,9	5337,486
569,4	5287,229
569,8	5238,057
570,3	5199,229
570,7	5147,971
571,1	5108,771
571,6	5064,257
572	5035,714
572,5	4994,829
572,9	4951,714
573,4	4899,429
573,8	4871,543
574,3	4818,371
574,7	4773,543
575,2	4730,114
575,6	4686,171
576,1	4648,714
576,5	4616,257
576,9	4563,771
577,4	4527,8
577,8	4485,371
578,3	4443,743
578,7	4406,2
579,2	4373,029
579,6	4338,286
580,1	4302,114
580,5	4268,857
581	4240,171
581,4	4198
581,9	4167,114
582,3	4121,229
582,7	4082,057
583,2	4051,029
583,6	4013,2
584,1	3979,029
584,5	3953,771
585	3918,971
585,4	3882,6
585,9	3850,2
586,3	3816,514
586,8	3793,629
587,2	3758,257
587,6	3732,686
588,1	3703,229
588,5	3680,314
589	3653,629
589,4	3619,257
589,9	3587,257
590,3	3563,371
590,8	3528,486
591,2	3502,743
591,7	3479,114
592,1	3454,657
592,5	3444,143
593	3419,086
593,4	3392,886
593,9	3367,314
594,3	3343,514
594,8	3315,371
595,2	3288,829
595,7	3257,8
596,1	3234,229
596,6	3215,857
597	3194,714
597,4	3172,457
597,9	3155,771
598,3	3134,686
598,8	3112,743
599,2	3091,971
599,7	3071,257
600,1	3050,971
600,6	3024,429
601	3001,257
601,4	2987,657
601,9	2975,257
602,3	2954,971
602,8	2931
603,2	2912,171
603,7	2893,771
604,1	2875,114
604,6	2850,629
605	2820,886
605,4	2802,4
605,9	2781,4
606,3	2753,143
606,8	2736,629
607,2	2717,4
607,7	2692,257
608,1	2678,171
608,6	2659,829
609	2650,114
609,4	2635,8
609,9	2616,229
610,3	2601,257
610,8	2583,143
611,2	2563
611,7	2541,857
612,1	2514,657
612,6	2505,629
613	2493,057
613,4	2466,314
613,9	2456,029
614,3	2439,029
614,8	2426
615,2	2412,057
615,7	2392,6
616,1	2371,171
616,6	2356,686
617	2331,971
617,4	2319,543
617,9	2304,686
618,3	2294,171
618,8	2276,571
619,2	2261,886
619,7	2255,857
620,1	2242,657
620,5	2226,943
621	2208,257
621,4	2189,657
621,9	2179,2
622,3	2162,971
622,8	2137,2
623,2	2121,057
623,6	2100,886
624,1	2084,886
624,5	2066,829
625	2055,971
625,4	2042,286
625,9	2037,286
626,3	2023,6
626,8	2009,543
627,2	1996,8
627,6	1979,229
628,1	1954,857
628,5	1947,4
629	1925,8
629,4	1914,457
629,9	1902,286
630,3	1882,971
630,7	1867,6
631,2	1852,914
631,6	1831,257
632,1	1818,829
632,5	1806,086
633	1792,6
633,4	1781,914
633,8	1777,657
634,3	1768,857
634,7	1756,029
635,2	1739,343
635,6	1726,286
636,1	1715,143
636,5	1702,371
636,9	1682,743
637,4	1664,143
637,8	1645,429
638,3	1633,286
638,7	1616,143
639,2	1600,971
639,6	1588,4
640	1579,886
640,5	1573,971
640,9	1574,629
641,4	1569,6
641,8	1563,257
642,2	1555,229
642,7	1556,371
643,1	1551,257
643,6	1542,429
644	1530,029
644,5	1529,286
644,9	1519,714
645,3	1510,4
645,8	1487
646,2	1473,143
646,7	1462,171
647,1	1449,914
647,6	1431,686
648	1426,057
648,4	1412,086
648,9	1407,029
649,3	1395,629
649,8	1391,171
650,2	1379,057
650,6	1371,743
651,1	1361,543
651,5	1360,029
652	1356,343
652,4	1349,143
652,9	1335,057
653,3	1327,914
653,7	1316,8
654,2	1308,8
654,6	1294,629
655,1	1282,2
655,5	1276,286
655,9	1264,943
656,4	1257,029
656,8	1248,143
657,3	1234,086
657,7	1231,457
658,2	1218,829
658,6	1204,943
659	1198,857
659,5	1189,657
659,9	1180,829
660,4	1178,057
660,8	1163,2
661,2	1155,943
661,7	1150,543
662,1	1142,343
662,6	1137,171
663	1128,486
663,4	1113,6
663,9	1108,114
664,3	1102,229
664,8	1091,086
665,2	1083,114
665,6	1069,286
666,1	1059,657
666,5	1055,286
667	1044,057
667,4	1032,629
667,9	1024,657
668,3	1016,143
668,7	1010,686
669,2	1009,286
669,6	1001,4
670,1	998,457
670,5	994,114
670,9	985,686
671,4	973,457
671,8	970,8
672,3	963,114
672,7	959,629
673,1	946,029
673,6	937,943
674	936,743
674,5	932,829
674,9	920,114
675,3	907,543
675,8	894,743
676,2	892,4
676,7	881,371
677,1	871,971
677,5	866,229
678	864,686
678,4	861,486
678,9	857,914
679,3	852,343
679,7	850,171
680,2	842,486
680,6	834,743
681,1	830,543
681,5	827,086
681,9	820,343
682,4	813,943
682,8	814,286
683,3	812,886
683,7	810,829
684,1	803,686
684,6	793,429
685	786,486
685,5	780,714
685,9	767,286
686,3	759,171
686,8	750,571
687,2	742,486
687,7	735,743
688,1	731,171
688,5	726,6
689	724,143
689,4	717,429
689,9	715,286
690,3	708,8
690,7	706,314
691,2	704,171
691,6	701,057
692	692,429
692,5	688,771
692,9	681,486
693,4	674,229
693,8	666,457
694,2	656,543
694,7	648,8
695,1	646,514
695,6	644,314
696	642,543
696,4	641,829
696,9	638,429
697,3	632,657
697,8	629,286
698,2	625,486
698,6	618,6
699,1	612,086
699,5	609,543
699,9	605,257
700,4	598,371
700,8	593,8
701,3	591,314
701,7	586,771
702,1	587,429
702,6	579,171
703	575,2
703,5	574,886
703,9	569,6
704,3	565,857
704,8	560,971
705,2	551,771
705,6	548,543
706,1	542,457
706,5	540,086
707	539,343
707,4	534,171
707,8	527,171
708,3	522,6
708,7	518,086
709,2	515,314
709,6	510,971
710	507,457
710,5	502
710,9	504,143
711,3	501,371
711,8	499,486
712,2	500,343
712,7	496,314
713,1	489,971
713,5	489,257
714	486,2
714,4	478,114
714,8	477,514
715,3	470,371
715,7	466,4
716,2	460,657
716,6	455,143
717	448,286
717,5	448,371
717,9	442,314
718,3	435,514
718,8	430,057
719,2	431,6
719,7	429,257
720,1	429
720,5	431,457
721	425,571
721,4	426,171
721,8	432,057
722,3	421,514
722,7	419,543
723,2	410,457
723,6	398,029
724	398,143
724,5	393,114
724,9	381,057
725,3	379,429
725,8	373,914
726,2	373,771
726,7	377
727,1	372,686
727,5	372,114
728	371,029
728,4	371
728,8	368,771
729,3	362,943
729,7	358,343
730,1	356,2
730,6	353
731	352,629
731,5	350,543
731,9	346,086
732,3	347,6
732,8	346,714
733,2	341,943
733,6	337,343
734,1	337,229
734,5	335,029
734,9	335,257
735,4	332,171
735,8	322,686
736,3	324,429
736,7	323,257
737,1	317,657
737,6	317,743
738	312,914
738,4	309,429
738,9	313,943
739,3	313,257
739,7	309,457
740,2	307
740,6	304,714
741,1	309,286
741,5	301,2
741,9	300,714
742,4	300,971
742,8	301,571
743,2	299
743,7	295,571
744,1	287,171
744,5	290,886
745	283,914
745,4	275,229
745,8	275,914
746,3	275,771
746,7	274,457
747,2	276,657
747,6	279,714
748	282,2
748,5	284,743
748,9	278,543
749,3	277,257
749,8	273,543
750,2	269,314
750,6	262,943
751,1	263,429
751,5	257,257
751,9	261,629
752,4	257,514
752,8	252,857
753,3	254,343
753,7	257,6
754,1	249,629
754,6	246
755	239,2
755,4	238,629
755,9	237,286
756,3	232,257
756,7	229,714
757,2	230,457
757,6	232
758	230,2
758,5	229,229
758,9	228,086
759,3	229,029
759,8	226,857
760,2	226,114
760,6	224,029
761,1	223,743
761,5	222,4
761,9	223,943
762,4	219,371
762,8	214,629
763,3	210,314
763,7	211,857
764,1	212,486
764,6	212,229
765	211,971
765,4	212,6
765,9	215,057
766,3	213,514
766,7	212,486
767,2	207,657
767,6	207,457
768	205,771
768,5	206,857
768,9	208,543
769,3	208,657
769,8	205,8
770,2	208,914
770,6	205,714
771,1	206,6
771,5	203,943
771,9	202,314
772,4	204,171
772,8	204,371
773,2	204,657
773,7	202,2
774,1	196,457
774,5	189,543
775	182,143
775,4	178,914
775,8	174,686
776,3	171,686
776,7	170,943
777,1	171,286
777,6	174,971
778	180,371
778,4	178,057
778,9	177,8
779,3	174,686
779,7	175,8
780,2	177,457
780,6	172,371
781	170,886
781,5	165,971
781,9	167,429
782,3	162,257
782,8	158,429
783,2	154,486
783,6	157,143
784,1	151,686
784,5	154,314
784,9	147,771
785,4	154,057
785,8	155,029
786,2	157,029
786,7	157,686
787,1	154,743
787,5	154,629
788	154,857
788,4	157
788,8	153,571
789,3	148,4
789,7	145,314
790,1	146,114
790,6	144,6
791	142,6
791,4	140,886
791,9	141,8
792,3	139,571
792,7	141,371
793,2	135,057
793,6	136,486
794	139,514
794,5	129,371
794,9	131,143
795,3	133,543
795,8	128,343
796,2	135,257
796,6	136,6
797,1	132,143
797,5	133,714
797,9	127,543
798,4	123,657
798,8	124,343
799,2	121,771
799,7	121,029
800,1	120,571
800,5	117,8
801	124,143
801,4	122,829
801,8	119,486
802,2	117
802,7	110,686
803,1	112,114
803,5	114,571
804	106,743
804,4	107,486
804,8	107,629
805,3	108,029
805,7	108,257
806,1	102,829
806,6	102,714
807	102,171
807,4	102,371
807,9	100,829
808,3	101,457
808,7	101,629
809,2	107,6
809,6	107,514
810	108,686
810,4	105,6
810,9	109,6
811,3	108,657
811,7	108,657
812,2	108,714
812,6	105,229
813	107,714
813,5	109,971
813,9	103,771
814,3	104,686
814,8	105,571
815,2	99,6
815,6	99,571
816,1	99,486
816,5	99,514
816,9	103,629
817,3	102,171
817,8	105,743
818,2	109,6
818,6	107,286
819,1	102,486
819,5	100,086
819,9	95,543
820,4	96,343
820,8	85,2
821,2	80,029
821,7	85,343
822,1	86,857
822,5	89,486
822,9	86,571
823,4	79,657
823,8	87,629
824,2	89,657
824,7	82
825,1	73,686
825,5	65,714
826	66
826,4	67,657
826,8	58,171
827,3	58,8
827,7	57,486
828,1	61,629
828,5	65,657
829	64,686
829,4	65,714
829,8	67,571
830,3	63,457
830,7	64,229
831,1	65,371
831,6	64,514
832	67,086
832,4	64,543
832,8	66,886
833,3	66,114
833,7	65,971
834,1	63
834,6	63,143
835	62,829
835,4	61,829
835,8	57,686
836,3	57,286
836,7	59,743
837,1	60,971
837,6	62,286
838	61,714
838,4	62,8
838,9	63,714
839,3	62,743
839,7	64,029
840,1	60,8
840,6	58,886
841	59,429
841,4	56,2
841,9	57,057
842,3	58,4
842,7	55,314
843,1	55,686
843,6	55,657
844	55,657
844,4	61,914
844,9	61,943
845,3	63,8
845,7	62,2
846,2	60,343
846,6	56,686
847	54,114
847,4	53,486
847,9	54,543
848,3	52,971
848,7	50,943
849,2	53,057
849,6	54,2
850	57,029
850,4	54,143
850,9	53,771
851,3	53,6
851,7	55,629
852,2	56,771
852,6	60,2
853	61
853,4	59,657
853,9	57,6
854,3	57,543
854,7	58,943
855,2	51,314
855,6	49,343
856	44,371
856,4	40,657
856,9	37,571
857,3	38,171
857,7	37,771
858,2	48,743
858,6	48,286
859	47,857
859,4	50,829
859,9	50,571
860,3	44,657
860,7	42,371
861,1	36,771
861,6	32,2
862	31,514
862,4	27,886
862,9	31,314
863,3	34,743
863,7	35,743
864,1	36,629
864,6	34,143
865	36,229
865,4	39,571
865,9	40,171
866,3	36,971
866,7	34,6
867,1	31,057
867,6	34,2
868	35,086
868,4	31,829
868,8	28,143
869,3	30,629
869,7	35,114
870,1	34,286
870,6	35,743
871	14,257
871,4	18,829
871,8	17,029
872,3	18,229
872,7	13,6
873,1	15,314
873,5	17,943
874	34,2
874,4	34,4
874,8	33,143
875,3	30,857
875,7	32,457
876,1	32,6
876,5	28,971
877	26,914
877,4	20,286
877,8	25,971
878,2	28,029
878,7	28,4
879,1	29,943
879,5	32,771
879,9	36,571
880,4	39,714
880,8	34,257
881,2	30,086
881,7	24,657
882,1	24,343
882,5	19,514
882,9	18,114
883,4	17,086
883,8	18,886
884,2	20,629
884,6	20,943
885,1	20,229
885,5	21,086
885,9	18,8
886,3	23,229
886,8	22
887,2	19,6
887,6	16,8
888	15,714
888,5	13,914
888,9	15,829
889,3	9,971
889,8	11,771
890,2	15,514
890,6	14,429
891	14,343
891,5	15,143
891,9	15,229
892,3	16
892,7	14,714
893,2	10,114
893,6	15,971
894	15,886
894,4	13,771
894,9	14,714
895,3	16,629
895,7	17,143
896,1	18,6
896,6	18,8
897	20,8
897,4	25,514
897,8	26,286
898,3	25,714
898,7	24,114
899,1	26,771
899,5	27,257
900	17,914
900,4	12,543
900,8	7,771
901,2	5,8
901,7	4,086
902,1	3,686
902,5	3,457
902,9	9,029
903,4	12,8
903,8	15,514
904,2	13,486
904,6	14,657
905,1	15,857
905,5	15,914
905,9	17,6
906,3	16,086
906,8	19,229
907,2	26,343
907,6	28,314
908	22,2
908,5	20,429
908,9	15,857
909,3	19,457
909,7	16,457
910,2	10,086
910,6	13,714
911	13,4
911,4	16,057
911,9	14,429
912,3	9,886
912,7	12,914
913,1	17,514
913,6	11,229
914	13,714
914,4	10,029
914,8	15,914
915,3	15,629
915,7	12,771
916,1	7,657
916,5	9,086
916,9	10,771
917,4	11,029
917,8	9,629
918,2	6,943
918,6	4,943
919,1	8,914
919,5	9,8
919,9	9,886
920,3	9,6
920,8	8,171
921,2	9,829
921,6	10,486
922	7,171
922,5	7,4
922,9	7,086
923,3	6,371
923,7	10,857
924,2	12,343
924,6	14,057
925	16,829
925,4	15,657
925,8	14,943
926,3	14
926,7	11,629
927,1	10
927,5	8,971
928	1,943
928,4	0,343
928,8	3,086
929,2	0,657
929,7	-2,943
930,1	-3,143
930,5	-5,8
930,9	1,114
931,3	1,314
931,8	-1,8
932,2	1,029
932,6	3,829
933	-0,714
933,5	0,914
933,9	-0,429
934,3	3,143
934,7	1,257
935,2	3,629
935,6	1
936	5,057
936,4	6,8
936,8	3,686
937,3	-0,143
937,7	4,686
938,1	5
938,5	3,771
939	4,829
939,4	7,457
939,8	9,486
940,2	8,229
940,6	7,543
941,1	5,114
941,5	10,6
941,9	10,171
942,3	5,171
942,8	5,657
943,2	7,143
943,6	1,743
944	0,543
944,4	-0,886
944,9	-7,029
945,3	-4,771
945,7	-9,029
946,1	-9
946,6	-6
947	-7,8
947,4	-4,6
947,8	2,971
948,2	1,371
948,7	5,029
949,1	4,771
949,5	6,343
949,9	8,029
950,3	3,543
950,8	0
951,2	-2,943
951,6	-0,457
952	0,743
952,5	-5,4
952,9	-7,714
953,3	-5,086
953,7	-3,514
954,1	3,743
954,6	0,971
955	-0,743
955,4	1,943
955,8	9,714
956,2	5,571
956,7	7,371
957,1	0,571
957,5	0,771
957,9	3,086
958,3	0,314
958,8	-0,829
959,2	3,829
959,6	4,371
960	7,343
960,5	10,886
960,9	10,257
961,3	10,286
961,7	6,686
962,1	3,257
962,6	4,171
963	3,943
963,4	-5,629
963,8	-6,343
964,2	-2,886
964,7	-1,657
965,1	1,514
965,5	-2,829
965,9	-3,629
966,3	6,114
966,8	5,229
967,2	5,486
967,6	6,8
968	0,914
968,4	3
968,9	1,257
969,3	-0,029
969,7	0,114
970,1	0,143
970,5	-4,771
971	1,2
971,4	-2,371
971,8	0,143
972,2	-0,2
972,6	-0,829
973,1	-2,429
973,5	1,086
973,9	-2,457
974,3	0,371
974,7	2,943
975,2	1,286
975,6	0,457
976	2,371
976,4	2,143
976,8	5,171
977,3	3,829
977,7	-1,6
978,1	-0,029
978,5	1
978,9	2,2
979,4	1,486
979,8	-3,486
980,2	-4,743
980,6	-5,143
981	-4,257
981,5	-2,657
981,9	-8,571
982,3	-8,686
982,7	-3,829
983,1	-3,571
983,6	2,057
984	0,886
984,4	0,286
984,8	4,2
985,2	7,943
985,6	3,514
986,1	6,086
986,5	6,686
986,9	2,657
987,3	2,571
987,7	0,886
988,2	-5,657
988,6	-1,914
989	-1,057
989,4	-2,886
989,8	-1,829
990,3	-4,429
990,7	-2,343
991,1	2,457
991,5	5,086
991,9	5,714
992,3	5,886
992,8	6,914
993,2	3,457
993,6	2,829
994	4,314
994,4	0,057
994,9	0,171
995,3	-4,771
995,7	-4,029
996,1	1,8
996,5	0,086
996,9	-4,857
997,4	-1,857
997,8	-5,714
998,2	-4,2
998,6	-10,8
999	-13,771
999,5	-15,371
999,9	-16,343
1000,3	-22,057
1000,7	-17,943
1001,1	-13,029
1001,5	-7,286
1002	-3,314
1002,4	-0,229
1002,8	1,6
1003,2	5,486
1003,6	5,429
1004	2,886
1004,5	-0,143
1004,9	-0,429
1005,3	-2,343
1005,7	-0,2
1006,1	-2,086
1006,6	-3,457
1007	-0,686
1007,4	1,571
1007,8	4,143
1008,2	2,629
1008,6	3,114
1009,1	4,686
1009,5	5,114
1009,9	4,286
1010,3	5,429
1010,7	5,314
1011,1	7,971
1011,6	7,057
1012	10,514
1012,4	10,114
1012,8	5,457
1013,2	10,457
1013,6	8,143
1014,1	10,286
1014,5	13,514
1014,9	10,143
1015,3	8,371
1015,7	13,143
1016,1	8,257
1016,6	8,229
1017	8,429
1017,4	6,514
1017,8	5,486
1018,2	6,143
1018,6	0,743
1019,1	0,686
1019,5	0,514
1019,9	-0,714
1020,3	2,314
1020,7	5,886
1021,1	3,914
1021,6	3,857
1022	7,257
1022,4	4,143
1022,8	4,514
1023,2	-0,629
1023,6	-1,086
1024,1	5,029
1024,5	7,086
1024,9	-4,057
1025,3	-3,029
1025,7	-2,6
1026,1	1,514
1026,6	0,629
1027	-2,4
1027,4	1,314
1027,8	10,857
1028,2	11,657
1028,6	12,029
1029	6,114
1029,5	8,857
1029,9	8,257
1030,3	2,743
1030,7	0,743
1031,1	1,914
1031,5	-3,086
1032	-1,829
1032,4	-6,457
1032,8	-3,571
1033,2	-0,943
1033,6	-4
1034	-1
1034,4	-1,943
1034,9	1,714
1035,3	-1,314
1035,7	-0,771
1036,1	-2,457
1036,5	-4,286
1036,9	-4,629
1037,4	8,057
1037,8	3,743
1038,2	7,686
1038,6	5,314
1039	14,371
1039,4	25,886
1039,8	15,514
1040,3	8,257
1040,7	5,943
1041,1	5,4
1041,5	2,543
1041,9	-5,257
1042,3	-11,514
1042,7	-1,886
1043,2	-5,686
1043,6	-3,2
1044	-3,771
1044,4	-2,686
1044,8	-2,171
1045,2	-5,629
1045,6	-8,8
1046,1	-5,229
1046,5	-4,543
1046,9	-4,943
1047,3	-3,886
1047,7	-5,343
1048,1	-2,914
1048,5	-1,057
1049	1,2
1049,4	3,657
1049,8	1,771
1050,2	1,829
1050,6	6,486
1051	5,457
1051,4	6,6
1051,9	2,686
1052,3	7,057
1052,7	9,943
1053,1	8,857
1053,5	7,2
1053,9	11,943
1054,3	10,486
1054,8	15,629
1055,2	12,6
1055,6	15,314
1056	19,857
1056,4	18,314
1056,8	16,457
1057,2	15
1057,6	7,686
1058,1	-0,429
1058,5	-4,943
1058,9	-6,114
1059,3	-5,914
1059,7	-4,371
1060,1	-3,314
1060,5	4,143
1061	11,486
1061,4	13,543
1061,8	13,629
1062,2	12,257
1062,6	15,886
1063	15,857
1063,4	14,086
1063,8	9,314
1064,3	5,343
1064,7	1,429
1065,1	2,571
1065,5	-8,514
1065,9	-7,343
1066,3	-10,4
1066,7	-10,486
1067,1	-13,686
1067,6	-9,286
1068	-13,229
1068,4	-7,829
1068,8	-8
1069,2	-9,571
1069,6	-8,4
1070	-2,971
1070,4	-8,343
1070,9	-9,486
1071,3	-9,943
1071,7	-12,914
1072,1	-8,114
1072,5	-8,943
1072,9	-9,286
1073,3	-4,686
1073,7	-0,714
1074,2	0,771
1074,6	2,857
1075	3,029
1075,4	3,743
1075,8	5,971
1076,2	2,629
1076,6	2,857
1077	0,114
1077,5	0,229
1077,9	-6,057
1078,3	-5,4
1078,7	-3,143
1079,1	-0,914
1079,5	-1,514
1079,9	-1,2
1080,3	-3,543
1080,7	0,486
1081,2	7,714
1081,6	2,514
1082	-0,686
1082,4	1,086
1082,8	3
1083,2	6,429
1083,6	3,371
1084	-4,6
1084,5	-1,829
1084,9	-1,143
1085,3	-7,257
1085,7	-4,714
1086,1	-4,4
1086,5	1,829
1086,9	7,8
1087,3	5,971
1087,7	4,971
1088,2	9,914
1088,6	4,371
1089	3,143
1089,4	-3,057
1089,8	-7,8
1090,2	-8,857
1090,6	-5,4
1091	-6,029
1091,4	-0,571
1091,9	-1,629
1092,3	1,4
1092,7	2,771
1093,1	4,314
1093,5	2,314
1093,9	3,343
1094,3	3,886
1094,7	3,743
1095,1	3,943
1095,5	5,4
1096	-1,257
1096,4	0,171
1096,8	0,229
1097,2	-4,514
1097,6	-1,343
1098	-1,257
1098,4	0,257
1098,8	8,829
1099,2	16,514
1099,6	14,257
1100,1	13,4
1100,5	8,314
1100,9	6,971
1101,3	4,314
1101,7	3,629
1102,1	-2,143
1102,5	2,886
1102,9	4,229
1103,3	10,4
1103,7	11,514
1104,2	8,657
1104,6	8,314
1105	5,171
1105,4	4,114
1105,8	3,886
1106,2	0,2
1106,6	-0,571
1107	1,429
1107,4	1,067
1107,8	2,76
1108,3	-0
