Data from Subt2_185.txt Node
Date: Sat Aug 26 18:40:43 MSK 2023
User: vat
Spectrometer: MAYP114033
Trigger mode: 0
Integration Time (sec): 1,000000E0
Scans to average: 5
Electric dark correction enabled: true
Nonlinearity correction enabled: false
Boxcar width: 3
XAxis mode: Wavelengths
Number of Pixels in Spectrum: 2068
>>>>>Begin Spectral Data<<<<<
199,4	0,217
199,9	1,247
200,4	1,4
200,8	3,195
201,3	2,51
201,8	5,052
202,2	3,281
202,7	7,652
203,2	3,281
203,6	2,881
204,1	-1,062
204,6	-0,033
205	-3,948
205,5	-3,805
206	-5,576
206,4	-2,948
206,9	-3,805
207,4	0,567
207,8	-2,69
208,3	1,338
208,8	1,767
209,2	-0,262
209,7	2,767
210,2	5,281
210,6	1,824
211,1	8,824
211,5	4,224
212	1,652
212,5	0,338
212,9	-3,29
213,4	-5,319
213,9	-5,09
214,3	-7,376
214,8	-4,776
215,3	-2,548
215,7	2,567
216,2	4,652
216,7	6,795
217,1	5,538
217,6	6,595
218,1	6,795
218,5	3,652
219	-3,519
219,5	-5,748
219,9	-8,376
220,4	-2,948
220,9	-2,948
221,3	-4,89
221,8	0,138
222,3	4,367
222,7	9,195
223,2	9,624
223,6	4,71
224,1	1,91
224,6	4,738
225	3,51
225,5	1,252
226	1,767
226,4	3,081
226,9	4,624
227,4	6,881
227,8	1,967
228,3	3,281
228,8	4,024
229,2	0,881
229,7	0,338
230,2	1,452
230,6	4,367
231,1	9,824
231,5	13,367
232	17,652
232,5	15,538
232,9	14,395
233,4	17,167
233,9	12,824
234,3	10,967
234,8	4,167
235,3	-0,205
235,7	4,11
236,2	6,367
236,7	-1,062
237,1	0,424
237,6	-2,119
238,1	-0,519
238,5	-1,49
239	-3,805
239,4	-0,662
239,9	0,281
240,4	-2,176
240,8	4,11
241,3	2,252
241,8	0,624
242,2	0,338
242,7	-9,576
243,2	-3,233
243,6	-6,548
244,1	-8,348
244,6	-4,462
245	0,567
245,5	1,481
245,9	5,738
246,4	3,395
246,9	5,11
247,3	1,995
247,8	3,224
248,3	4,767
248,7	3,681
249,2	5,567
249,7	9,024
250,1	14,195
250,6	12,338
251	9,652
251,5	7,338
252	8,681
252,4	8,538
252,9	2,195
253,4	-3,862
253,8	-1,405
254,3	0,995
254,8	-1,719
255,2	-3,948
255,7	-6,605
256,1	-3,719
256,6	0,51
257,1	2,224
257,5	-4,519
258	-4,748
258,5	-4,833
258,9	-0,005
259,4	-4,262
259,9	-5,462
260,3	-7,148
260,8	-6,033
261,2	-3,89
261,7	-2,005
262,2	-4,233
262,6	-2,605
263,1	1,367
263,6	3,51
264	6,452
264,5	9,31
264,9	7,767
265,4	8,481
265,9	9,538
266,3	11,167
266,8	12,795
267,3	12,424
267,7	10,995
268,2	15,024
268,7	13,652
269,1	14,167
269,6	11,281
270	11,167
270,5	8,367
271	8,624
271,4	9,424
271,9	7,738
272,4	11,91
272,8	9,681
273,3	5,31
273,7	11,452
274,2	9,538
274,7	6,652
275,1	9,452
275,6	2,652
276,1	0,452
276,5	8,51
277	7,195
277,4	7,424
277,9	6,938
278,4	7,195
278,8	11,224
279,3	16,452
279,8	12,71
280,2	12,91
280,7	18,481
281,1	14,338
281,6	12,995
282,1	11,767
282,5	6,338
283	1,995
283,4	-0,348
283,9	-6,548
284,4	3,738
284,8	6,11
285,3	5,195
285,8	12,538
286,2	14,338
286,7	15,824
287,1	17,224
287,6	13,024
288,1	9,31
288,5	13,681
289	8,91
289,5	10,91
289,9	11,738
290,4	9,91
290,8	9,281
291,3	12,938
291,8	10,367
292,2	10,681
292,7	13,881
293,1	15,567
293,6	16,452
294,1	15,51
294,5	15,995
295	17,795
295,5	14,938
295,9	9,138
296,4	5,852
296,8	2,881
297,3	1,71
297,8	-5,262
298,2	-11,519
298,7	-6,348
299,1	-4,548
299,6	-8,862
300,1	-0,862
300,5	0,252
301	6,252
301,5	10,91
301,9	10,31
302,4	7,481
302,8	11,538
303,3	7,224
303,8	2,281
304,2	1,767
304,7	-0,833
305,1	-8,833
305,6	-6,976
306,1	-1,405
306,5	1,624
307	12,795
307,4	15,938
307,9	16,91
308,4	17,938
308,8	16,167
309,3	11,11
309,8	4,51
310,2	1,852
310,7	-3,976
311,1	-5,09
311,6	-3,748
312,1	-2,205
312,5	1,938
313	4,338
313,4	0,738
313,9	0,481
314,4	1,738
314,8	1,767
315,3	3,195
315,7	-3,148
316,2	-3,405
316,7	-4,176
317,1	2,11
317,6	1,767
318	7,224
318,5	5,338
319	2,652
319,4	4,595
319,9	8,481
320,3	4,595
320,8	4,538
321,3	5,338
321,7	5,91
322,2	10,595
322,6	9,624
323,1	5,51
323,6	3,338
324	5,367
324,5	2,252
324,9	7,167
325,4	4,938
325,9	4,681
326,3	8,71
326,8	13,081
327,2	10,281
327,7	8,395
328,2	2,052
328,6	3,281
329,1	1,767
329,5	-3,205
330	-7,748
330,5	-2,633
330,9	2,995
331,4	6,395
331,8	5,595
332,3	11,224
332,8	12,395
333,2	13,881
333,7	13,824
334,1	11,367
334,6	8,595
335,1	4,252
335,5	3,252
336	0,595
336,4	3,224
336,9	3,738
337,4	4,538
337,8	7,852
338,3	15,452
338,7	13,624
339,2	15,367
339,7	17,024
340,1	9,224
340,6	6,052
341	1,824
341,5	0,052
342	-1,148
342,4	-1,005
342,9	-8,176
343,3	-3,405
343,8	-3,89
344,2	-0,262
344,7	3,624
345,2	2,252
345,6	3,595
346,1	9,11
346,5	2,967
347	5,538
347,5	3,795
347,9	6,995
348,4	8,681
348,8	9,31
349,3	8,738
349,8	15,138
350,2	21,652
350,7	19,452
351,1	14,681
351,6	23,11
352	31,024
352,5	35,31
353	44,081
353,4	45,481
353,9	61,51
354,3	74,252
354,8	83,567
355,3	97,595
355,7	117,824
356,2	136,824
356,6	160,71
357,1	181,91
357,5	216,938
358	254,338
358,5	289,567
358,9	334,967
359,4	385,195
359,8	442,338
360,3	513,995
360,8	580,167
361,2	662,681
361,7	755,967
362,1	856,795
362,6	969,081
363	1089,224
363,5	1208,71
364	1344,51
364,4	1478,081
364,9	1612,967
365,3	1747,224
365,8	1871,881
366,3	1985,31
366,7	2093,452
367,2	2189,395
367,6	2262,081
368,1	2325,995
368,5	2359,081
369	2380,538
369,5	2389,995
369,9	2373,967
370,4	2332,71
370,8	2281,052
371,3	2209,967
371,7	2135,224
372,2	2041,738
372,7	1940,567
373,1	1836,31
373,6	1734,195
374	1629,024
374,5	1520,452
374,9	1417,481
375,4	1323,224
375,9	1226,652
376,3	1134,138
376,8	1045,738
377,2	963,367
377,7	889,367
378,2	812,652
378,6	743,252
379,1	678,424
379,5	626,881
380	576,567
380,4	527,481
380,9	483,252
381,4	443,624
381,8	410,595
382,3	382,881
382,7	351,024
383,2	323,167
383,6	300,252
384,1	279,852
384,6	264,538
385	242,281
385,5	224,881
385,9	207,281
386,4	189,967
386,8	179,395
387,3	165,367
387,7	149,71
388,2	142,281
388,7	133,71
389,1	129,252
389,6	122,652
390	113,31
390,5	109,538
390,9	106,71
391,4	97,138
391,9	87,081
392,3	81,567
392,8	73,367
393,2	63,51
393,7	57,31
394,1	52,681
394,6	54,452
395,1	57,91
395,5	54,824
396	58,081
396,4	62,995
396,9	63,081
397,3	65,31
397,8	61,767
398,2	57,938
398,7	57,31
399,2	58,081
399,6	57,138
400,1	52,624
400,5	46,824
401	47,967
401,4	44,195
401,9	47,795
402,4	46,195
402,8	42,452
403,3	45,824
403,7	41,938
404,2	45,11
404,6	51,11
405,1	45,824
405,5	42,681
406	47,167
406,5	46,395
406,9	56,567
407,4	53,424
407,8	54,481
408,3	58,138
408,7	62,995
409,2	69,252
409,6	73,881
410,1	77,967
410,6	85,138
411	88,481
411,5	91,281
411,9	99,481
412,4	100,824
412,8	106,624
413,3	110,167
413,7	113,995
414,2	120,081
414,7	136,138
415,1	146,824
415,6	156,167
416	163,081
416,5	173,767
416,9	181,395
417,4	194,195
417,8	204,738
418,3	216,195
418,8	229,281
419,2	241,195
419,7	252,395
420,1	265,424
420,6	278,852
421	286,224
421,5	295,967
421,9	311,91
422,4	327,767
422,8	340,252
423,3	357,224
423,8	368,995
424,2	384,195
424,7	399,824
425,1	417,452
425,6	439,738
426	460,338
426,5	485,995
426,9	511,824
427,4	536,852
427,9	561,681
428,3	583,367
428,8	604,252
429,2	631,024
429,7	654,51
430,1	681,081
430,6	714,395
431	746,595
431,5	782,624
431,9	820,567
432,4	864,481
432,8	907,595
433,3	952,595
433,8	991,338
434,2	1036,138
434,7	1086,652
435,1	1138,281
435,6	1190,567
436	1248,767
436,5	1309,767
436,9	1370,424
437,4	1431,424
437,8	1497,452
438,3	1558,681
438,8	1626,995
439,2	1697,881
439,7	1772,595
440,1	1850,624
440,6	1940,452
441	2019,881
441,5	2113,595
441,9	2202,91
442,4	2291,795
442,8	2383,11
443,3	2484,195
443,7	2581,481
444,2	2691,367
444,7	2799,195
445,1	2905,995
445,6	3021,852
446	3144,224
446,5	3257,338
446,9	3373,91
447,4	3492,767
447,8	3618,681
448,3	3751,452
448,7	3876,052
449,2	4011,11
449,6	4158,252
450,1	4304,595
450,6	4457,252
451	4603,852
451,5	4757,567
451,9	4921,281
452,4	5079,481
452,8	5237,452
453,3	5402,538
453,7	5560,367
454,2	5732,252
454,6	5907,424
455,1	6080,852
455,5	6251,538
456	6432,681
456,4	6609,767
456,9	6797,224
457,3	6981,938
457,8	7161,595
458,3	7357,052
458,7	7548,224
459,2	7739,51
459,6	7933,31
460,1	8123,51
460,5	8313,881
461	8517,367
461,4	8708,995
461,9	8898,967
462,3	9101,652
462,8	9307,481
463,2	9507,71
463,7	9722,824
464,1	9929,052
464,6	10133,795
465	10341,367
465,5	10544,567
466	10750,652
466,4	10958,452
466,9	11159,595
467,3	11353,338
467,8	11553,224
468,2	11755,138
468,7	11943,31
469,1	12135,224
469,6	12339,281
470	12528,224
470,5	12723,167
470,9	12906,51
471,4	13089,367
471,8	13274,995
472,3	13456,767
472,7	13625,738
473,2	13798,767
473,6	13968,167
474,1	14128,767
474,5	14301,281
475	14467,624
475,4	14628,852
475,9	14796,567
476,4	14956,624
476,8	15105,767
477,3	15260,11
477,7	15409,71
478,2	15548,938
478,6	15676,995
479,1	15789,652
479,5	15904,224
480	16017,338
480,4	16132,595
480,9	16235,167
481,3	16330,652
481,8	16434,51
482,2	16530,595
482,7	16619,281
483,1	16695,852
483,6	16763,338
484	16822,31
484,5	16898,538
484,9	16943,31
485,4	16999,51
485,8	17033,995
486,3	17077,852
486,7	17131,824
487,2	17170,881
487,6	17188,881
488,1	17218,481
488,5	17235,31
489	17259,938
489,4	17277,51
489,9	17268,852
490,4	17265,081
490,8	17260,167
491,3	17238,538
491,7	17207,252
492,2	17174,852
492,6	17143,481
493,1	17108,852
493,5	17061,11
494	17015,824
494,4	16975,767
494,9	16927,795
495,3	16884,167
495,8	16823,795
496,2	16774,224
496,7	16713,395
497,1	16651,738
497,6	16589,424
498	16524,852
498,5	16449,852
498,9	16375,11
499,4	16291,081
499,8	16224,967
500,3	16143,424
500,7	16049,538
501,2	15959,481
501,6	15876,138
502,1	15778,738
502,5	15690,167
503	15598,51
503,4	15496,795
503,9	15407,338
504,3	15302,481
504,8	15179,767
505,2	15083,824
505,7	14970,024
506,1	14856,252
506,6	14737,281
507	14621,71
507,5	14520,452
507,9	14411,767
508,4	14293,138
508,8	14178,224
509,3	14064,024
509,7	13955,195
510,2	13829,138
510,6	13699,567
511,1	13586,624
511,5	13459,595
512	13329,824
512,4	13198,024
512,9	13080,567
513,3	12961,881
513,8	12843,938
514,2	12714,71
514,7	12589,138
515,1	12463,938
515,6	12339,424
516	12200,452
516,5	12075,967
516,9	11943,852
517,4	11819,738
517,8	11705,081
518,3	11593,452
518,7	11469,31
519,2	11356,338
519,6	11233,795
520,1	11117,567
520,5	10998,881
521	10874,11
521,4	10748,881
521,9	10623,852
522,3	10500,995
522,8	10378,624
523,2	10262,852
523,7	10145,624
524,1	10032,052
524,6	9914,595
525	9803,167
525,5	9687,738
525,9	9587,938
526,4	9472,338
526,8	9370,51
527,3	9272,395
527,7	9167,652
528,2	9068,71
528,6	8966,852
529,1	8866,538
529,5	8783,824
530	8683,138
530,4	8582,195
530,9	8489,452
531,3	8393,852
531,8	8312,595
532,2	8221,995
532,6	8114,767
533,1	8024,51
533,5	7932,995
534	7847,767
534,4	7768,652
534,9	7678,538
535,3	7585,252
535,8	7516,11
536,2	7433,767
536,7	7358,538
537,1	7277,452
537,6	7189,967
538	7109,338
538,5	7037,795
538,9	6948,024
539,4	6880,338
539,8	6802,71
540,3	6733,538
540,7	6662,31
541,2	6592,338
541,6	6519,31
542,1	6455,938
542,5	6384,024
543	6318,538
543,4	6244,252
543,9	6186,967
544,3	6130,452
544,8	6065,967
545,2	6003,795
545,7	5943,795
546,1	5881,395
546,5	5827,71
547	5764,224
547,4	5703,338
547,9	5654,395
548,3	5598,967
548,8	5545,167
549,2	5483,938
549,7	5436,252
550,1	5388,052
550,6	5332,881
551	5282,681
551,5	5237,281
551,9	5190,852
552,4	5153,11
552,8	5097,195
553,3	5044,252
553,7	4997,652
554,2	4947,881
554,6	4899,395
555,1	4851,11
555,5	4808,11
555,9	4771,51
556,4	4734,767
556,8	4691,567
557,3	4659,252
557,7	4619,652
558,2	4577,738
558,6	4539,567
559,1	4495,624
559,5	4459,51
560	4430,852
560,4	4386,824
560,9	4353,852
561,3	4322,938
561,8	4284,652
562,2	4259,652
562,7	4221,452
563,1	4185,938
563,6	4153,824
564	4116,395
564,4	4084,167
564,9	4055,938
565,3	4013,738
565,8	3988,795
566,2	3965,881
566,7	3932,967
567,1	3910,938
567,6	3874,567
568	3840,081
568,5	3817,852
568,9	3787,281
569,4	3751,538
569,8	3724,995
570,3	3691,024
570,7	3670,624
571,1	3642,881
571,6	3619,281
572	3593,224
572,5	3569,338
572,9	3546,11
573,4	3519,11
573,8	3492,738
574,3	3471,052
574,7	3440,795
575,2	3414,252
575,6	3385,338
576,1	3361,31
576,5	3341,681
576,9	3312,195
577,4	3287,252
577,8	3261,281
578,3	3241,138
578,7	3218,767
579,2	3196,881
579,6	3167,71
580,1	3142,652
580,5	3121,252
581	3099,367
581,4	3077,024
581,9	3053,11
582,3	3026,91
582,7	3010,31
583,2	2996,595
583,6	2976,51
584,1	2960,91
584,5	2936,681
585	2917,31
585,4	2892,91
585,9	2869,738
586,3	2855,081
586,8	2833,51
587,2	2817,367
587,6	2806,767
588,1	2797,538
588,5	2782,567
589	2773,195
589,4	2752,624
589,9	2737,367
590,3	2714,595
590,8	2689,624
591,2	2669,624
591,7	2659,938
592,1	2634,252
592,5	2617,367
593	2607,995
593,4	2594,252
593,9	2582,281
594,3	2563,024
594,8	2539,252
595,2	2528,967
595,7	2512,224
596,1	2491,024
596,6	2481,71
597	2467,967
597,4	2458,424
597,9	2451,224
598,3	2439,91
598,8	2429,995
599,2	2414,824
599,7	2394,881
600,1	2374,824
600,6	2358,567
601	2344,967
601,4	2338,395
601,9	2330,938
602,3	2320,852
602,8	2308,367
603,2	2302,91
603,7	2293,51
604,1	2278,138
604,6	2258,081
605	2240,081
605,4	2229,538
605,9	2213,91
606,3	2198,424
606,8	2183,11
607,2	2172,624
607,7	2157,852
608,1	2142,995
608,6	2133,252
609	2128,852
609,4	2122,052
609,9	2108,967
610,3	2095,538
610,8	2084,138
611,2	2078,281
611,7	2061,395
612,1	2046,395
612,6	2031,938
613	2023,51
613,4	2013,91
613,9	2005,395
614,3	1988,11
614,8	1977,595
615,2	1960,395
615,7	1950,967
616,1	1937,367
616,6	1920,395
617	1901,91
617,4	1888,91
617,9	1880,395
618,3	1876,338
618,8	1869,652
619,2	1854,338
619,7	1850,995
620,1	1842,224
620,5	1838,338
621	1818,624
621,4	1809,167
621,9	1786,71
622,3	1776,71
622,8	1767,767
623,2	1758,252
623,6	1739,11
624,1	1736,681
624,5	1726,824
625	1724,881
625,4	1721,71
625,9	1707,51
626,3	1693,452
626,8	1681,738
627,2	1674,281
627,6	1654,681
628,1	1636,852
628,5	1623,595
629	1605,31
629,4	1594,967
629,9	1592,281
630,3	1570,138
630,7	1559,024
631,2	1554,224
631,6	1546,081
632,1	1538,71
632,5	1531,11
633	1514,652
633,4	1511,367
633,8	1504,91
634,3	1487,452
634,7	1473,167
635,2	1464,224
635,6	1457,538
636,1	1451,367
636,5	1435,738
636,9	1423,738
637,4	1414,281
637,8	1401,71
638,3	1388,852
638,7	1376,195
639,2	1363,567
639,6	1357,138
640	1351,224
640,5	1348,138
640,9	1341,652
641,4	1339,681
641,8	1332,795
642,2	1328,31
642,7	1327,395
643,1	1321,967
643,6	1312,281
644	1305,881
644,5	1297,052
644,9	1287,595
645,3	1273,195
645,8	1257,51
646,2	1254,595
646,7	1246,367
647,1	1236,195
647,6	1226,51
648	1223,652
648,4	1220,338
648,9	1212,11
649,3	1196,481
649,8	1193,795
650,2	1188,624
650,6	1180,395
651,1	1170,767
651,5	1167,71
652	1166,367
652,4	1161,481
652,9	1152,11
653,3	1145,91
653,7	1139,481
654,2	1133,081
654,6	1119,91
655,1	1107,281
655,5	1103,71
655,9	1093,595
656,4	1084,938
656,8	1079,395
657,3	1072,081
657,7	1072,852
658,2	1066,51
658,6	1054,024
659	1047,624
659,5	1038,252
659,9	1027,995
660,4	1014,338
660,8	997,052
661,2	991,767
661,7	989,567
662,1	983,795
662,6	975,91
663	973,624
663,4	969,652
663,9	968,852
664,3	961,081
664,8	951,424
665,2	942,738
665,6	939,167
666,1	935,995
666,5	931,195
667	925,681
667,4	917,967
667,9	910,967
668,3	901,738
668,7	892,481
669,2	883,252
669,6	876,567
670,1	868,51
670,5	863,052
670,9	853,252
671,4	850,71
671,8	843,681
672,3	841,167
672,7	834,795
673,1	829,252
673,6	826,852
674	826,538
674,5	819,995
674,9	815,51
675,3	801,624
675,8	798,51
676,2	792,938
676,7	781,052
677,1	772,481
677,5	765,195
678	763,338
678,4	764,767
678,9	757,252
679,3	751,595
679,7	747,167
680,2	740,595
680,6	733,738
681,1	728,31
681,5	721,31
681,9	721,681
682,4	715,167
682,8	715,081
683,3	709,024
683,7	706,767
684,1	700,51
684,6	692,538
685	684,167
685,5	676,91
685,9	664,338
686,3	659,31
686,8	656,224
687,2	653,052
687,7	646,938
688,1	639,338
688,5	637,452
689	639,824
689,4	637,681
689,9	631,71
690,3	622,081
690,7	618,224
691,2	616,538
691,6	609,681
692	604,367
692,5	600,31
692,9	591,71
693,4	592,738
693,8	590,338
694,2	583,195
694,7	583,052
695,1	579,024
695,6	574,767
696	576,538
696,4	567,11
696,9	559,795
697,3	557,395
697,8	549,395
698,2	545,51
698,6	543,738
699,1	540,567
699,5	539,11
699,9	538,652
700,4	533,367
700,8	534,081
701,3	529,967
701,7	522,595
702,1	519,938
702,6	516,595
703	516,31
703,5	511,395
703,9	502,481
704,3	503,652
704,8	500,938
705,2	494,167
705,6	486,881
706,1	478,595
706,5	474,624
707	475,652
707,4	468,367
707,8	462,367
708,3	458,538
708,7	459,71
709,2	454,881
709,6	452,852
710	450,995
710,5	445,167
710,9	446,052
711,3	441,224
711,8	437,195
712,2	440,052
712,7	433,024
713,1	427,738
713,5	429,567
714	427,452
714,4	425,938
714,8	423,424
715,3	417,367
715,7	419,767
716,2	414,967
716,6	408,652
717	403,795
717,5	400,31
717,9	399,367
718,3	391,11
718,8	388,967
719,2	385,652
719,7	381,138
720,1	380,567
720,5	384,852
721	376,967
721,4	377,167
721,8	377,11
722,3	371,852
722,7	372,938
723,2	362,281
723,6	350,31
724	347,995
724,5	342,367
724,9	336,11
725,3	338,481
725,8	334,681
726,2	334,052
726,7	333,481
727,1	332,081
727,5	331,081
728	321,138
728,4	317,91
728,8	313,024
729,3	311,795
729,7	308,795
730,1	305,338
730,6	307,024
731	308,338
731,5	305,852
731,9	301,138
732,3	301,71
732,8	303,967
733,2	302,938
733,6	296,481
734,1	299,424
734,5	298,51
734,9	301,595
735,4	301,738
735,8	293,224
736,3	298,167
736,7	297,167
737,1	294,281
737,6	288,395
738	286,367
738,4	279,081
738,9	281,881
739,3	273,452
739,7	271,452
740,2	268,795
740,6	274,252
741,1	274,91
741,5	273,795
741,9	273,481
742,4	271,967
742,8	271,767
743,2	269,224
743,7	257,367
744,1	251,795
744,5	252,738
745	246,338
745,4	246,081
745,8	246,338
746,3	247,11
746,7	249,024
747,2	247,738
747,6	250,71
748	253,567
748,5	253,167
748,9	247,452
749,3	243,852
749,8	247,11
750,2	243,738
750,6	234,852
751,1	233,624
751,5	230,652
751,9	232,995
752,4	232,452
752,8	230,852
753,3	233,767
753,7	235,767
754,1	227,567
754,6	224,024
755	219,852
755,4	215,71
755,9	210,995
756,3	205,367
756,7	202,367
757,2	206,395
757,6	207,452
758	206,252
758,5	207,852
758,9	208,481
759,3	209,681
759,8	206,338
760,2	202,538
760,6	199,738
761,1	196,767
761,5	195,281
761,9	193,024
762,4	189,024
762,8	190,567
763,3	187,052
763,7	187,338
764,1	188,452
764,6	185,652
765	187,652
765,4	187,91
765,9	186,281
766,3	189,824
766,7	186,852
767,2	182,452
767,6	187,967
768	183,91
768,5	182,938
768,9	179,91
769,3	178,738
769,8	174,31
770,2	175,938
770,6	165,452
771,1	164,51
771,5	166,624
771,9	167,91
772,4	169,281
772,8	169,738
773,2	168,71
773,7	170,167
774,1	171,824
774,5	163,967
775	159,567
775,4	154,995
775,8	155,51
776,3	158,138
776,7	158,595
777,1	157,052
777,6	160,995
778	167,595
778,4	168,281
778,9	172,252
779,3	166,938
779,7	166,224
780,2	160,652
780,6	158,281
781	152,195
781,5	146,624
781,9	138,881
782,3	135,91
782,8	135,567
783,2	133,738
783,6	134,938
784,1	135,338
784,5	138,824
784,9	139,567
785,4	141,51
785,8	139,395
786,2	139,824
786,7	137,167
787,1	137,081
787,5	133,652
788	133,452
788,4	132,481
788,8	130,424
789,3	128,881
789,7	128,824
790,1	126,367
790,6	128,31
791	125,024
791,4	127,967
791,9	127,852
792,3	126,567
792,7	126,652
793,2	121,252
793,6	119,052
794	123,51
794,5	118,252
794,9	119,881
795,3	122,31
795,8	116,938
796,2	123,995
796,6	122,881
797,1	114,595
797,5	112,138
797,9	108,252
798,4	108,252
798,8	110,052
799,2	106,51
799,7	107,281
800,1	106,538
800,5	110,624
801	114,367
801,4	111,995
801,8	109,281
802,2	108,481
802,7	103,081
803,1	106,224
803,5	105,852
804	98,852
804,4	100,367
804,8	102,052
805,3	101,652
805,7	103,424
806,1	100,138
806,6	99,395
807	103,995
807,4	101,995
807,9	95,795
808,3	95,081
808,7	95,795
809,2	98,424
809,6	98,395
810	97,824
810,4	92,281
810,9	94,824
811,3	94,91
811,7	95,567
812,2	98,967
812,6	95,967
813	97,881
813,5	100,738
813,9	100,538
814,3	96,024
814,8	94,281
815,2	89,081
815,6	88,281
816,1	85,938
816,5	84,11
816,9	86,881
817,3	91,795
817,8	92,538
818,2	95,224
818,6	93,252
819,1	92,71
819,5	92,167
819,9	90,11
820,4	84,395
820,8	80,195
821,2	76,281
821,7	77,767
822,1	75,681
822,5	81,538
822,9	79,824
823,4	79,738
823,8	86,138
824,2	88,281
824,7	84,424
825,1	78,281
825,5	72,11
826	68,995
826,4	65,281
826,8	58,681
827,3	59,281
827,7	59,052
828,1	65,052
828,5	65,138
829	57,538
829,4	60,967
829,8	59,281
830,3	54,395
830,7	53,767
831,1	48,338
831,6	50,452
832	60,567
832,4	60,424
832,8	62,652
833,3	60,424
833,7	57,71
834,1	59,71
834,6	56,738
835	59,71
835,4	59,024
835,8	56,481
836,3	57,995
836,7	64,395
837,1	63,424
837,6	66,938
838	64,91
838,4	63,652
838,9	64,452
839,3	62,31
839,7	60,967
840,1	55,195
840,6	51,938
841	49,681
841,4	48,31
841,9	47,424
842,3	49,138
842,7	46,138
843,1	50,195
843,6	49,195
844	50,624
844,4	54,31
844,9	55,424
845,3	55,995
845,7	59,138
846,2	56,938
846,6	51,224
847	48,938
847,4	47,795
847,9	48,338
848,3	48,252
848,7	46,424
849,2	46,595
849,6	47,252
850	49,424
850,4	49,281
850,9	47,881
851,3	46,31
851,7	47,852
852,2	48,824
852,6	53,338
853	51,081
853,4	47,567
853,9	46,624
854,3	47,795
854,7	46,738
855,2	48,481
855,6	48,395
856	46,652
856,4	47,652
856,9	44,195
857,3	44,824
857,7	43,367
858,2	43,281
858,6	40,852
859	41,452
859,4	40,738
859,9	42,881
860,3	40,681
860,7	40,595
861,1	42,538
861,6	42,11
862	40,167
862,4	38,967
862,9	41,052
863,3	42,881
863,7	41,195
864,1	39,395
864,6	38,281
865	41,167
865,4	40,71
865,9	42,338
866,3	36,538
866,7	37,595
867,1	35,481
867,6	35,738
868	29,852
868,4	31,424
868,8	21,71
869,3	23,481
869,7	26,281
870,1	22,224
870,6	23,767
871	-42,919
871,4	-37,862
871,8	-31,205
872,3	-29,548
872,7	-35,319
873,1	-29,862
873,5	-30,348
874	34,71
874,4	28,195
874,8	22,195
875,3	23,967
875,7	26,852
876,1	22,452
876,5	20,852
877	23,081
877,4	20,31
877,8	23,024
878,2	21,395
878,7	23,024
879,1	25,51
879,5	26,31
879,9	28,767
880,4	32,167
880,8	34,167
881,2	31,51
881,7	31,452
882,1	30,881
882,5	30,167
882,9	27,938
883,4	28,595
883,8	28,852
884,2	30,338
884,6	26,595
885,1	29,224
885,5	29,91
885,9	29,595
886,3	28,91
886,8	26,052
887,2	24,824
887,6	20,91
888	15,967
888,5	13,595
888,9	13,138
889,3	10,31
889,8	11,195
890,2	12,567
890,6	13,91
891	15,11
891,5	19,024
891,9	19,11
892,3	23,252
892,7	23,51
893,2	23,852
893,6	24,738
894	27,052
894,4	22,51
894,9	24,824
895,3	21,424
895,7	21,367
896,1	20,995
896,6	23,024
897	21,652
897,4	26,995
897,8	27,481
898,3	28,338
898,7	24,967
899,1	23,738
899,5	21,881
900	13,738
900,4	9,967
900,8	5,424
901,2	3,595
901,7	5,538
902,1	6,852
902,5	8,224
902,9	13,91
903,4	14,881
903,8	15,138
904,2	12,51
904,6	13,624
905,1	10,71
905,5	10,052
905,9	10,652
906,3	15,424
906,8	18,795
907,2	21,51
907,6	21,938
908	23,452
908,5	22,11
908,9	19,481
909,3	11,881
909,7	10,595
910,2	16,91
910,6	18,51
911	15,452
911,4	17,652
911,9	17,824
912,3	19,938
912,7	23,281
913,1	16,452
913,6	11,91
914	13,481
914,4	9,252
914,8	12,195
915,3	11,167
915,7	5,51
916,1	6,795
916,5	7,938
916,9	7,281
917,4	9,71
917,8	10,595
918,2	7,624
918,6	9,224
919,1	12,138
919,5	14,281
919,9	16,052
920,3	12,081
920,8	10,395
921,2	11,31
921,6	13,195
922	9,738
922,5	7,51
922,9	6,71
923,3	8,052
923,7	9,652
924,2	8,51
924,6	8,91
925	8,91
925,4	9,538
925,8	9,795
926,3	9,338
926,7	4,281
927,1	7,367
927,5	6,138
928	6,367
928,4	5,195
928,8	6,91
929,2	7,11
929,7	10,31
930,1	10,567
930,5	7,31
930,9	10,424
931,3	9,281
931,8	10,424
932,2	10,652
932,6	11,938
933	2,91
933,5	7,51
933,9	5,51
934,3	7,224
934,7	2,424
935,2	3,624
935,6	2,824
936	5,367
936,4	2,91
936,8	-0,719
937,3	0,167
937,7	4,71
938,1	7,767
938,5	7,567
939	10,795
939,4	8,967
939,8	10,081
940,2	5,481
940,6	5,681
941,1	3,31
941,5	4,567
941,9	4,367
942,3	6,71
942,8	8,195
943,2	13,795
943,6	9,595
944	10,195
944,4	10,652
944,9	8,738
945,3	9,852
945,7	7,652
946,1	6,395
946,6	3,624
947	3,824
947,4	4,881
947,8	8,652
948,2	7,081
948,7	8,567
949,1	4,167
949,5	10,824
949,9	7,052
950,3	2,91
950,8	1,195
951,2	0,767
951,6	-1,576
952	3,481
952,5	-2,205
952,9	-0,662
953,3	-0,833
953,7	1,995
954,1	6,052
954,6	7,424
955	8,767
955,4	10,11
955,8	12,31
956,2	8,51
956,7	8,652
957,1	2,338
957,5	8,652
957,9	7,767
958,3	7,71
958,8	11,767
959,2	21,795
959,6	21,195
960	20,938
960,5	19,11
960,9	18,195
961,3	17,31
961,7	11,424
962,1	5,081
962,6	8,11
963	12,195
963,4	7,567
963,8	6,824
964,2	9,595
964,7	8,167
965,1	10,652
965,5	9,224
965,9	4,081
966,3	7,795
966,8	6,224
967,2	2,452
967,6	1,281
968	-0,49
968,4	-3,976
968,9	-0,376
969,3	0,824
969,7	-1,976
970,1	2,624
970,5	6,938
971	10,424
971,4	9,138
971,8	8,424
972,2	5,195
972,6	8,252
973,1	6,481
973,5	4,995
973,9	4,624
974,3	7,452
974,7	13,538
975,2	13,852
975,6	16,624
976	19,31
976,4	16,881
976,8	13,538
977,3	9,624
977,7	4,31
978,1	0,71
978,5	-4,862
978,9	-11,176
979,4	-11,433
979,8	-10,033
980,2	-5,633
980,6	-10,405
981	-5,205
981,5	-5,376
981,9	-2,29
982,3	-0,319
982,7	1,767
983,1	-3,833
983,6	2,91
984	1,195
984,4	4,31
984,8	5,681
985,2	5,11
985,6	-0,176
986,1	5,881
986,5	1,567
986,9	-1,348
987,3	3,995
987,7	4,795
988,2	4,652
988,6	7,967
989	10,881
989,4	9,681
989,8	8,71
990,3	2,738
990,7	1,138
991,1	2,681
991,5	1,967
991,9	0,538
992,3	4,71
992,8	12,91
993,2	11,338
993,6	10,595
994	14,738
994,4	15,852
994,9	15,024
995,3	14,824
995,7	10,424
996,1	10,252
996,5	10,424
996,9	0,624
997,4	2,795
997,8	-3,69
998,2	-3,576
998,6	-7,833
999	-6,748
999,5	-6,919
999,9	-4,005
1000,3	-9,576
1000,7	-4,233
1001,1	-5,576
1001,5	0,138
1002	7,11
1002,4	6,995
1002,8	10,424
1003,2	14,51
1003,6	13,795
1004	14,967
1004,5	9,624
1004,9	7,938
1005,3	3,11
1005,7	3,824
1006,1	0,538
1006,6	-1,576
1007	-1,462
1007,4	-2,576
1007,8	-5,833
1008,2	-2,662
1008,6	-1,49
1009,1	0,11
1009,5	1,11
1009,9	1,167
1010,3	5,967
1010,7	6,91
1011,1	7,767
1011,6	3,595
1012	2,624
1012,4	0,195
1012,8	-4,09
1013,2	1,138
1013,6	3,252
1014,1	6,91
1014,5	8,138
1014,9	9,367
1015,3	8,681
1015,7	16,91
1016,1	11,824
1016,6	10,138
1017	7,995
1017,4	9,424
1017,8	4,567
1018,2	11,652
1018,6	-0,348
1019,1	-2,833
1019,5	-2,319
1019,9	-3,805
1020,3	-4,262
1020,7	2,738
1021,1	-4,576
1021,6	5,91
1022	11,11
1022,4	5,652
1022,8	10,195
1023,2	10,138
1023,6	6,795
1024,1	17,252
1024,5	18,652
1024,9	9,995
1025,3	10,881
1025,7	4,481
1026,1	7,852
1026,6	8,595
1027	0,31
1027,4	-0,005
1027,8	5,538
1028,2	5,11
1028,6	8,681
1029	5,624
1029,5	8,71
1029,9	7,51
1030,3	4,024
1030,7	5,024
1031,1	5,51
1031,5	0,11
1032	-1,29
1032,4	-4,919
1032,8	-2,348
1033,2	0,252
1033,6	-2,776
1034	-1,833
1034,4	1,052
1034,9	0,452
1035,3	-3,862
1035,7	-3,948
1036,1	-9,176
1036,5	-10,176
1036,9	-7,833
1037,4	-0,062
1037,8	-2,548
1038,2	-1,062
1038,6	-1,176
1039	2,281
1039,4	10,367
1039,8	9,395
1040,3	9,652
1040,7	13,052
1041,1	18,252
1041,5	20,338
1041,9	15,024
1042,3	10,024
1042,7	11,424
1043,2	2,795
1043,6	0,681
1044	-1,005
1044,4	1,052
1044,8	4,824
1045,2	0,852
1045,6	0,195
1046,1	2,252
1046,5	6,252
1046,9	5,281
1047,3	2,195
1047,7	3,424
1048,1	3,31
1048,5	3,052
1049	3,538
1049,4	7,11
1049,8	9,51
1050,2	10,652
1050,6	11,738
1051	14,767
1051,4	12,081
1051,9	14,852
1052,3	15,881
1052,7	9,995
1053,1	5,567
1053,5	8,395
1053,9	8,224
1054,3	10,138
1054,8	12,71
1055,2	8,281
1055,6	15,824
1056	18,51
1056,4	10,224
1056,8	12,338
1057,2	14,338
1057,6	8,767
1058,1	3,395
1058,5	-4,29
1058,9	-2,433
1059,3	7,281
1059,7	6,91
1060,1	4,452
1060,5	6,681
1061	10,138
1061,4	9,938
1061,8	11,367
1062,2	5,71
1062,6	7,395
1063	11,024
1063,4	8,481
1063,8	11,624
1064,3	13,195
1064,7	8,224
1065,1	6,481
1065,5	-0,49
1065,9	-6,033
1066,3	-8,633
1066,7	-12,462
1067,1	-8,29
1067,6	-1,548
1068	-2,405
1068,4	0,681
1068,8	8,995
1069,2	8,967
1069,6	6,938
1070	7,938
1070,4	3,424
1070,9	-1,776
1071,3	-2,633
1071,7	-7,548
1072,1	-3,805
1072,5	-4,576
1072,9	-8,69
1073,3	-6,033
1073,7	-2,319
1074,2	0,795
1074,6	-0,376
1075	-2,348
1075,4	-0,005
1075,8	2,824
1076,2	1,91
1076,6	5,424
1077	3,767
1077,5	3,652
1077,9	1,681
1078,3	-1,233
1078,7	-1,89
1079,1	-3,148
1079,5	-4,719
1079,9	-0,719
1080,3	-0,49
1080,7	1,024
1081,2	9,167
1081,6	8,681
1082	4,652
1082,4	7,11
1082,8	2,767
1083,2	3,624
1083,6	7,195
1084	3,052
1084,5	7,138
1084,9	10,681
1085,3	5,967
1085,7	7,852
1086,1	4,91
1086,5	5,652
1086,9	8,11
1087,3	1,138
1087,7	3,052
1088,2	5,852
1088,6	4,824
1089	8,367
1089,4	6,51
1089,8	6,081
1090,2	9,052
1090,6	5,91
1091	7,881
1091,4	10,424
1091,9	11,738
1092,3	9,938
1092,7	9,795
1093,1	11,767
1093,5	14,681
1093,9	13,052
1094,3	16,195
1094,7	16,31
1095,1	17,367
1095,5	14,938
1096	10,224
1096,4	8,224
1096,8	5,71
1097,2	1,252
1097,6	4,51
1098	5,395
1098,4	6,824
1098,8	8,681
1099,2	12,195
1099,6	14,71
1100,1	15,367
1100,5	8,395
1100,9	7,824
1101,3	10,338
1101,7	10,567
1102,1	7,538
1102,5	9,938
1102,9	12,11
1103,3	12,424
1103,7	15,395
1104,2	13,081
1104,6	13,052
1105	13,624
1105,4	14,195
1105,8	9,367
1106,2	9,338
1106,6	5,995
1107	4,595
1107,4	5,2
1107,8	4,887
1108,3	-0,383
