Data from Subt2_115.txt Node
Date: Sat Aug 26 18:21:38 MSK 2023
User: vat
Spectrometer: MAYP114033
Trigger mode: 0
Integration Time (sec): 1,000000E0
Scans to average: 5
Electric dark correction enabled: true
Nonlinearity correction enabled: false
Boxcar width: 3
XAxis mode: Wavelengths
Number of Pixels in Spectrum: 2068
>>>>>Begin Spectral Data<<<<<
199,4	-0,033
199,9	1,487
200,4	-1,267
200,8	0,852
201,3	0,681
201,8	2,081
202,2	0,995
202,7	5,11
203,2	4,081
203,6	7,252
204,1	2,538
204,6	2,024
205	1,624
205,5	2,767
206	-0,833
206,4	0,51
206,9	-0,719
207,4	3,481
207,8	6,424
208,3	7,195
208,8	8,338
209,2	12,51
209,7	11,852
210,2	13,767
210,6	12,595
211,1	11,11
211,5	6,395
212	3,624
212,5	0,081
212,9	-0,033
213,4	0,452
213,9	-3,033
214,3	-3,748
214,8	1,138
215,3	1,281
215,7	5,51
216,2	7,395
216,7	4,652
217,1	4,424
217,6	6,795
218,1	4,195
218,5	3,452
219	-7,262
219,5	-7,89
219,9	-10,29
220,4	0,938
220,9	-1,005
221,3	0,424
221,8	5,11
222,3	13,652
222,7	13,881
223,2	15,824
223,6	8,824
224,1	6,252
224,6	7,652
225	2,31
225,5	-0,576
226	1,024
226,4	2,652
226,9	1,881
227,4	4,11
227,8	-1,205
228,3	1,738
228,8	0,481
229,2	-3,033
229,7	-6,262
230,2	-6,548
230,6	-1,69
231,1	7,11
231,5	5,852
232	9,481
232,5	9,595
232,9	14,767
233,4	15,824
233,9	9,138
234,3	4,367
234,8	5,795
235,3	1,51
235,7	4,052
236,2	-1,348
236,7	-2,033
237,1	1,852
237,6	-2,376
238,1	-6,662
238,5	-8,319
239	-10,376
239,4	-2,89
239,9	-2,919
240,4	-8,748
240,8	-2,205
241,3	-3,376
241,8	-1,148
242,2	0,452
242,7	-3,948
243,2	-3,405
243,6	0,938
244,1	1,652
244,6	8,71
245	6,51
245,5	3,938
245,9	0,538
246,4	3,567
246,9	2,395
247,3	-0,919
247,8	3,195
248,3	7,91
248,7	8,452
249,2	12,395
249,7	8,881
250,1	10,652
250,6	10,167
251	6,452
251,5	2,567
252	0,967
252,4	3,51
252,9	0,967
253,4	-2,29
253,8	-4,719
254,3	-4,319
254,8	-3,148
255,2	-3,805
255,7	-7,319
256,1	-2,319
256,6	3,881
257,1	5,481
257,5	-1,748
258	-0,433
258,5	-0,005
258,9	-0,433
259,4	-4,976
259,9	-11,433
260,3	-12,405
260,8	-10,376
261,2	-12,519
261,7	-10,005
262,2	-10,576
262,6	-10,462
263,1	-3,119
263,6	-2,69
264	-0,862
264,5	5,081
264,9	1,195
265,4	2,338
265,9	0,967
266,3	0,938
266,8	4,024
267,3	4,567
267,7	3,138
268,2	6,338
268,7	7,338
269,1	10,11
269,6	3,31
270	4,567
270,5	1,452
271	1,481
271,4	3,338
271,9	-2,776
272,4	0,052
272,8	2,024
273,3	-0,176
273,7	2,738
274,2	-1,805
274,7	-3,919
275,1	-0,919
275,6	-0,976
276,1	-3,833
276,5	-1,519
277	-1,719
277,4	2,31
277,9	9,024
278,4	12,567
278,8	12,081
279,3	14,967
279,8	13,595
280,2	15,767
280,7	11,767
281,1	5,595
281,6	2,081
282,1	4,138
282,5	4,852
283	5,91
283,4	3,967
283,9	7,481
284,4	9,71
284,8	13,881
285,3	10,681
285,8	12,624
286,2	7,91
286,7	6,938
287,1	4,967
287,6	1,281
288,1	-1,462
288,5	-1,519
289	-6,462
289,5	-7,49
289,9	-6,919
290,4	-5,033
290,8	-6,919
291,3	-8,262
291,8	-5,119
292,2	-5,776
292,7	-1,462
293,1	-0,662
293,6	4,195
294,1	9,481
294,5	9,481
295	4,681
295,5	6,452
295,9	8,51
296,4	5,138
296,8	-1,919
297,3	-3,833
297,8	-6,319
298,2	-5,862
298,7	-2,548
299,1	-3,033
299,6	-1,376
300,1	0,824
300,5	0,824
301	8,024
301,5	10,538
301,9	8,281
302,4	6,51
302,8	8,91
303,3	8,224
303,8	2,852
304,2	0,167
304,7	-2,319
305,1	-3,433
305,6	0,967
306,1	3,424
306,5	3,567
307	14,11
307,4	16,367
307,9	18,767
308,4	20,11
308,8	8,338
309,3	5,624
309,8	3,767
310,2	-2,948
310,7	-8,405
311,1	-10,776
311,6	-11,033
312,1	-2,462
312,5	-0,69
313	3,195
313,4	6,31
313,9	11,795
314,4	13,081
314,8	9,595
315,3	5,995
315,7	1,795
316,2	-1,605
316,7	-2,262
317,1	0,052
317,6	-1,233
318	5,652
318,5	6,881
319	8,424
319,4	12,652
319,9	15,338
320,3	13,595
320,8	14,31
321,3	12,338
321,7	13,852
322,2	13,167
322,6	10,424
323,1	4,281
323,6	0,11
324	-0,919
324,5	-2,033
324,9	-0,776
325,4	-1,205
325,9	-0,605
326,3	-0,89
326,8	1,795
327,2	0,738
327,7	0,681
328,2	-0,176
328,6	2,71
329,1	-1,49
329,5	4,795
330	2,338
330,5	7,367
330,9	8,852
331,4	8,452
331,8	5,424
332,3	12,595
332,8	9,681
333,2	9,224
333,7	8,167
334,1	7,767
334,6	2,224
335,1	-0,919
335,5	-3,605
336	-3,776
336,4	1,481
336,9	7,624
337,4	8,424
337,8	12,852
338,3	17,567
338,7	16,167
339,2	13,052
339,7	12,681
340,1	2,338
340,6	1,395
341	-1,833
341,5	-4,976
342	-6,805
342,4	-4,576
342,9	-8,605
343,3	-6,805
343,8	-7,862
344,2	-4,176
344,7	0,024
345,2	1,995
345,6	2,681
346,1	5,052
346,5	3,11
347	3,052
347,5	0,138
347,9	4,367
348,4	5,824
348,8	6,71
349,3	5,938
349,8	11,052
350,2	16,252
350,7	15,367
351,1	12,252
351,6	10,024
352	10,91
352,5	13,852
353	20,31
353,4	20,852
353,9	32,481
354,3	37,395
354,8	48,081
355,3	60,767
355,7	71,51
356,2	81,367
356,6	94,024
357,1	112,024
357,5	132,967
358	154,31
358,5	173,938
358,9	200,681
359,4	228,995
359,8	263,138
360,3	299,338
360,8	338,538
361,2	388,395
361,7	441,51
362,1	503,11
362,6	564,595
363	632,081
363,5	700,795
364	780,081
364,4	851,795
364,9	931,795
365,3	1005,767
365,8	1075,11
366,3	1138,995
366,7	1199,024
367,2	1250,367
367,6	1295,281
368,1	1329,738
368,5	1354,11
369	1372,538
369,5	1380,024
369,9	1371,395
370,4	1348,31
370,8	1322,452
371,3	1280,024
371,7	1231,795
372,2	1176,681
372,7	1119,138
373,1	1061,395
373,6	999,824
374	932,738
374,5	870,71
374,9	811,624
375,4	752,795
375,9	700,652
376,3	639,995
376,8	584,138
377,2	538,452
377,7	495,595
378,2	450,338
378,6	414,195
379,1	372,767
379,5	348,052
380	328,367
380,4	299,738
380,9	270,767
381,4	248,595
381,8	229,71
382,3	216,395
382,7	205,881
383,2	191,967
383,6	179,224
384,1	170,767
384,6	163,481
385	148,424
385,5	137,624
385,9	120,538
386,4	111,652
386,8	108,367
387,3	97,681
387,7	91,424
388,2	87,967
388,7	80,481
389,1	78,595
389,6	71,081
390	64,167
390,5	65,538
390,9	61,624
391,4	56,024
391,9	50,681
392,3	50,881
392,8	45,11
393,2	38,824
393,7	36,51
394,1	29,738
394,6	31,167
395,1	34,624
395,5	29,338
396	36,424
396,4	39,138
396,9	33,967
397,3	39,652
397,8	42,424
398,2	42,224
398,7	41,967
399,2	37,938
399,6	39,481
400,1	40,795
400,5	37,652
401	35,167
401,4	31,081
401,9	31,71
402,4	36,224
402,8	32,938
403,3	40,11
403,7	39,767
404,2	42,938
404,6	47,081
405,1	47,395
405,5	44,167
406	49,395
406,5	45,824
406,9	52,167
407,4	54,11
407,8	57,024
408,3	62,71
408,7	65,424
409,2	70,967
409,6	77,852
410,1	79,195
410,6	87,681
411	96,138
411,5	101,624
411,9	111,538
412,4	117,881
412,8	127,167
413,3	133,224
413,7	138,481
414,2	148,395
414,7	160,995
415,1	171,424
415,6	181,024
416	194,167
416,5	208,395
416,9	220,881
417,4	232,595
417,8	252,195
418,3	272,967
418,8	293,567
419,2	308,567
419,7	328,281
420,1	344,967
420,6	362,138
421	373,281
421,5	392,167
421,9	409,081
422,4	427,738
422,8	448,967
423,3	475,738
423,8	499,481
424,2	522,681
424,7	546,252
425,1	574,167
425,6	610,252
426	636,852
426,5	668,395
426,9	707,338
427,4	743,024
427,9	776,738
428,3	818,481
428,8	852,567
429,2	902,081
429,7	944,91
430,1	990,281
430,6	1047,738
431	1102,567
431,5	1157,224
431,9	1216,595
432,4	1277,881
432,8	1347,138
433,3	1414,395
433,8	1482,052
434,2	1564,652
434,7	1649,595
435,1	1732,567
435,6	1820,081
436	1911,11
436,5	2004,252
436,9	2101,052
437,4	2196,824
437,8	2302,71
438,3	2415,224
438,8	2527,538
439,2	2642,852
439,7	2766,252
440,1	2893,31
440,6	3029,738
441	3154,824
441,5	3293,995
441,9	3436,652
442,4	3575,024
442,8	3723,738
443,3	3883,795
443,7	4044,252
444,2	4212,224
444,7	4382,938
445,1	4563,395
445,6	4757,424
446	4950,938
446,5	5138,11
446,9	5327,71
447,4	5541,367
447,8	5747,224
448,3	5962,567
448,7	6175,652
449,2	6392,338
449,6	6622,967
450,1	6859,138
450,6	7099,195
451	7347,024
451,5	7590,51
451,9	7847,681
452,4	8114,595
452,8	8377,567
453,3	8637,967
453,7	8894,881
454,2	9167,252
454,6	9441,424
455,1	9716,681
455,5	9991,481
456	10268,71
456,4	10557,11
456,9	10855,938
457,3	11141,481
457,8	11432,567
458,3	11728,624
458,7	12030,024
459,2	12344,852
459,6	12649,681
460,1	12948,51
460,5	13252,31
461	13578,652
461,4	13894,995
461,9	14211,224
462,3	14531,367
462,8	14855,052
463,2	15178,167
463,7	15514,624
464,1	15832,91
464,6	16149,824
465	16464,224
465,5	16773,967
466	17097,367
466,4	17403,51
466,9	17708,452
467,3	18005,824
467,8	18315,624
468,2	18621,51
468,7	18907,681
469,1	19197,252
469,6	19495,881
470	19779,738
470,5	20067,11
470,9	20336,052
471,4	20600,367
471,8	20880,995
472,3	21155,252
472,7	21422,081
473,2	21684,738
473,6	21935,567
474,1	22199,681
474,5	22458,281
475	22709,224
475,4	22939,824
475,9	23161,081
476,4	23382,338
476,8	23616,738
477,3	23829,852
477,7	24048,738
478,2	24236,167
478,6	24427,224
479,1	24612,395
479,5	24789,595
480	24937,252
480,4	25103,452
480,9	25250,51
481,3	25399,938
481,8	25541,052
482,2	25664,967
482,7	25797,31
483,1	25924,138
483,6	26040,938
484	26132,567
484,5	26223,367
484,9	26300,395
485,4	26387,71
485,8	26443,71
486,3	26507,967
486,7	26542,681
487,2	26598,995
487,6	26639,738
488,1	26675,824
488,5	26693,31
489	26724,824
489,4	26743,881
489,9	26744,367
490,4	26734,595
490,8	26715,538
491,3	26682,081
491,7	26657,395
492,2	26624,167
492,6	26571,367
493,1	26518,052
493,5	26445,995
494	26376,024
494,4	26315,338
494,9	26231,538
495,3	26148,167
495,8	26062,967
496,2	25984,052
496,7	25880,138
497,1	25816,281
497,6	25707,995
498	25618,252
498,5	25499,538
498,9	25382,481
499,4	25263,138
499,8	25168,424
500,3	25019,767
500,7	24898,024
501,2	24766,052
501,6	24629,338
502,1	24491,367
502,5	24349,281
503	24204,452
503,4	24073,567
503,9	23925,567
504,3	23772,167
504,8	23619,624
505,2	23480,538
505,7	23324,481
506,1	23172,167
506,6	22997,852
507	22836,281
507,5	22653,024
507,9	22488,881
508,4	22305,052
508,8	22130,795
509,3	21944,167
509,7	21773,367
510,2	21594,31
510,6	21430,595
511,1	21252,052
511,5	21062,367
512	20888,938
512,4	20698,795
512,9	20498,281
513,3	20308,681
513,8	20117,538
514,2	19926,024
514,7	19734,595
515,1	19539,795
515,6	19350,424
516	19151,624
516,5	18957,881
516,9	18756,31
517,4	18562,31
517,8	18387,338
518,3	18184,881
518,7	18004,738
519,2	17820,538
519,6	17634,195
520,1	17450,195
520,5	17258,881
521	17053,738
521,4	16875,224
521,9	16690,595
522,3	16513,824
522,8	16339,795
523,2	16164,995
523,7	15992,538
524,1	15827,881
524,6	15644,852
525	15457,195
525,5	15278,681
525,9	15104,424
526,4	14936,652
526,8	14772,71
527,3	14594,51
527,7	14442,567
528,2	14282,424
528,6	14127,052
529,1	13966,224
529,5	13816,624
530	13644,31
530,4	13501,081
530,9	13345,224
531,3	13198,424
531,8	13056,881
532,2	12907,795
532,6	12750,681
533,1	12617,167
533,5	12464,652
534	12310,967
534,4	12168,71
534,9	12029,395
535,3	11876,138
535,8	11741,938
536,2	11606,795
536,7	11484,081
537,1	11357,195
537,6	11228,881
538	11097,024
538,5	10989,824
538,9	10867,224
539,4	10748,567
539,8	10621,167
540,3	10496,824
540,7	10379,967
541,2	10259,881
541,6	10141,852
542,1	10026,71
542,5	9922,424
543	9811,738
543,4	9710,052
543,9	9605,938
544,3	9504,681
544,8	9396,538
545,2	9286,738
545,7	9172,281
546,1	9065,71
546,5	8968,395
547	8861,995
547,4	8762,738
547,9	8664,938
548,3	8580,681
548,8	8497,51
549,2	8409,424
549,7	8315,395
550,1	8232,652
550,6	8149,052
551	8065,452
551,5	7978,081
551,9	7889,252
552,4	7814,367
552,8	7734,338
553,3	7650,71
553,7	7566,995
554,2	7498,967
554,6	7429,452
555,1	7359,31
555,5	7278,081
555,9	7210,91
556,4	7146,167
556,8	7070,252
557,3	6998,51
557,7	6925,424
558,2	6850,795
558,6	6796,852
559,1	6732,481
559,5	6664,595
560	6611,91
560,4	6547,338
560,9	6482,224
561,3	6423,252
561,8	6361,11
562,2	6298,51
562,7	6243,367
563,1	6181,567
563,6	6121,11
564	6064,224
564,4	6008,195
564,9	5943,31
565,3	5889,452
565,8	5827,567
566,2	5778,91
566,7	5732,167
567,1	5688,395
567,6	5637,338
568	5588,852
568,5	5537,195
568,9	5484,824
569,4	5432,824
569,8	5376,681
570,3	5327,367
570,7	5276,938
571,1	5231,538
571,6	5182,652
572	5141,31
572,5	5099,595
572,9	5059,395
573,4	5006,167
573,8	4969,081
574,3	4922,967
574,7	4877,138
575,2	4838,624
575,6	4790,081
576,1	4750,995
576,5	4712,281
576,9	4665,767
577,4	4621,367
577,8	4582,567
578,3	4540,824
578,7	4504,595
579,2	4466,71
579,6	4432,938
580,1	4387,681
580,5	4357,224
581	4321,681
581,4	4282,081
581,9	4251,595
582,3	4209,081
582,7	4169,452
583,2	4143,595
583,6	4107,681
584,1	4083,281
584,5	4052,338
585	4017,795
585,4	3983,024
585,9	3948,624
586,3	3915,624
586,8	3883,252
587,2	3843,824
587,6	3816,424
588,1	3787,567
588,5	3755,71
589	3730,31
589,4	3695,538
589,9	3672,738
590,3	3644,967
590,8	3613,624
591,2	3585,338
591,7	3562,852
592,1	3537,252
592,5	3516,538
593	3480,881
593,4	3451,995
593,9	3426,624
594,3	3395,967
594,8	3366,138
595,2	3338,11
595,7	3310,795
596,1	3291,824
596,6	3270,31
597	3246,052
597,4	3222,11
597,9	3202,824
598,3	3187,11
598,8	3168,652
599,2	3146,252
599,7	3124,11
600,1	3099,31
600,6	3075,852
601	3057,681
601,4	3038,138
601,9	3020,338
602,3	3002,338
602,8	2979,795
603,2	2965,11
603,7	2949,424
604,1	2923,767
604,6	2900,367
605	2871,595
605,4	2851,11
605,9	2830,567
606,3	2809,738
606,8	2785,91
607,2	2770,824
607,7	2741,395
608,1	2723,738
608,6	2700,31
609	2686,481
609,4	2668,538
609,9	2651,11
610,3	2631,195
610,8	2618,652
611,2	2605,138
611,7	2592,738
612,1	2573,424
612,6	2555,452
613	2542,938
613,4	2525,824
613,9	2508,481
614,3	2482,91
614,8	2461,024
615,2	2441,081
615,7	2424,967
616,1	2407,624
616,6	2387,167
617	2367,881
617,4	2352,767
617,9	2336,91
618,3	2324,824
618,8	2309,795
619,2	2287,395
619,7	2278,881
620,1	2262,224
620,5	2253,252
621	2237,738
621,4	2218,538
621,9	2195,338
622,3	2186,71
622,8	2160,452
623,2	2149,252
623,6	2130,281
624,1	2116,281
624,5	2102,367
625	2094,71
625,4	2071,938
625,9	2068,167
626,3	2053,252
626,8	2032,995
627,2	2019,967
627,6	2000,31
628,1	1980,852
628,5	1967,481
629	1943,995
629,4	1928,338
629,9	1920,624
630,3	1902,852
630,7	1884,452
631,2	1875,424
631,6	1860,71
632,1	1849,252
632,5	1833,31
633	1819,71
633,4	1805,367
633,8	1800,538
634,3	1786,367
634,7	1777,767
635,2	1761,738
635,6	1752,51
636,1	1742,167
636,5	1726,31
636,9	1711,767
637,4	1695,167
637,8	1679,538
638,3	1669,395
638,7	1652,91
639,2	1641,538
639,6	1634,024
640	1622,481
640,5	1611,767
640,9	1602,795
641,4	1593,138
641,8	1583,995
642,2	1573,71
642,7	1566,31
643,1	1561,967
643,6	1551,167
644	1539,71
644,5	1532,538
644,9	1527,624
645,3	1512,224
645,8	1498,71
646,2	1482,338
646,7	1475,91
647,1	1465,767
647,6	1451,252
648	1439,938
648,4	1429,138
648,9	1422,967
649,3	1416,795
649,8	1408,767
650,2	1406,738
650,6	1398,795
651,1	1386,424
651,5	1382,538
652	1369,338
652,4	1355,452
652,9	1345,281
653,3	1327,767
653,7	1317,11
654,2	1310,51
654,6	1300,052
655,1	1298,338
655,5	1292,881
655,9	1277,624
656,4	1271,424
656,8	1267,11
657,3	1259,595
657,7	1249,624
658,2	1237,11
658,6	1226,967
659	1222,338
659,5	1210,11
659,9	1199,252
660,4	1191,424
660,8	1178,51
661,2	1165,738
661,7	1158,138
662,1	1146,967
662,6	1142,71
663	1133,167
663,4	1118,481
663,9	1116,367
664,3	1106,538
664,8	1097,452
665,2	1090,252
665,6	1077,567
666,1	1072,881
666,5	1070,338
667	1059,938
667,4	1048,71
667,9	1040,624
668,3	1032,652
668,7	1025,538
669,2	1022,481
669,6	1013,567
670,1	1007,624
670,5	1007,624
670,9	1000,852
671,4	993,167
671,8	988,195
672,3	982,081
672,7	978,224
673,1	968,167
673,6	958,51
674	953,967
674,5	947,767
674,9	933,51
675,3	919,052
675,8	909,824
676,2	904,367
676,7	893,938
677,1	882,281
677,5	874,795
678	880,567
678,4	878,738
678,9	871,252
679,3	860,852
679,7	862,452
680,2	855,081
680,6	853,51
681,1	844,252
681,5	837,395
681,9	832,595
682,4	832,11
682,8	823,538
683,3	823,938
683,7	818,338
684,1	813,652
684,6	801,567
685	794,624
685,5	788,138
685,9	780,852
686,3	771,395
686,8	759,567
687,2	752,938
687,7	746,081
688,1	738,11
688,5	734,967
689	730,852
689,4	726,767
689,9	722,652
690,3	710,795
690,7	715,052
691,2	710,51
691,6	702,195
692	697,795
692,5	690,167
692,9	688,91
693,4	686,681
693,8	677,681
694,2	675,481
694,7	664,681
695,1	659,167
695,6	657,481
696	652,795
696,4	649,024
696,9	637,167
697,3	626,995
697,8	627,367
698,2	621,11
698,6	618,138
699,1	612,31
699,5	610,024
699,9	612,681
700,4	606,424
700,8	604,281
701,3	602,024
701,7	595,252
702,1	588,995
702,6	581,452
703	574,967
703,5	574,595
703,9	566,395
704,3	564,452
704,8	560,224
705,2	556,281
705,6	554,367
706,1	550,738
706,5	544,567
707	541,224
707,4	537,052
707,8	529,224
708,3	527,51
708,7	523,481
709,2	518,424
709,6	517,71
710	519,195
710,5	510,967
710,9	511,224
711,3	502,338
711,8	498,11
712,2	496,052
712,7	489,481
713,1	483,767
713,5	485,624
714	482,338
714,4	478,11
714,8	478,595
715,3	470,395
715,7	471,452
716,2	465,538
716,6	461,167
717	456,881
717,5	455,938
717,9	452,081
718,3	451,052
718,8	444,052
719,2	439,71
719,7	433,11
720,1	432,138
720,5	432,71
721	424,567
721,4	426,31
721,8	427,11
722,3	422,31
722,7	423,11
723,2	414,738
723,6	403,11
724	399,881
724,5	389,424
724,9	385,71
725,3	382,995
725,8	380,367
726,2	380,995
726,7	383,824
727,1	384,567
727,5	382,938
728	373,681
728,4	375,31
728,8	366,738
729,3	362,767
729,7	356,652
730,1	351,967
730,6	352,91
731	350,995
731,5	348,71
731,9	349,452
732,3	347,995
732,8	348,11
733,2	345,195
733,6	338,767
734,1	340,481
734,5	334,738
734,9	336,224
735,4	337,795
735,8	332,281
736,3	335,852
736,7	339,024
737,1	337,424
737,6	335,967
738	327,367
738,4	321,51
738,9	325,681
739,3	317,11
739,7	309,967
740,2	304,395
740,6	307,767
741,1	311,252
741,5	304,31
741,9	300,338
742,4	300,395
742,8	304,052
743,2	304,224
743,7	297,024
744,1	292,738
744,5	291,681
745	289,024
745,4	283,31
745,8	279,967
746,3	277,71
746,7	277,652
747,2	272,51
747,6	276,995
748	279,624
748,5	281,367
748,9	278,024
749,3	274,595
749,8	271,71
750,2	271,395
750,6	261,967
751,1	259,595
751,5	256,767
751,9	256,338
752,4	258,881
752,8	257,052
753,3	257,738
753,7	261,824
754,1	255,224
754,6	250,338
755	247,167
755,4	242,738
755,9	240,795
756,3	234,052
756,7	232,938
757,2	235,71
757,6	241,424
758	237,595
758,5	231,652
758,9	230,11
759,3	235,024
759,8	229,938
760,2	225,767
760,6	221,281
761,1	219,367
761,5	221,281
761,9	216,681
762,4	213,538
762,8	215,367
763,3	210,824
763,7	211,595
764,1	210,281
764,6	215,852
765	220,252
765,4	217,652
765,9	215,824
766,3	220,424
766,7	215,281
767,2	212,452
767,6	210,138
768	204,767
768,5	205,252
768,9	200,538
769,3	195,281
769,8	192,624
770,2	198,852
770,6	195,538
771,1	203,824
771,5	204,652
771,9	208,595
772,4	210,167
772,8	208,395
773,2	206,167
773,7	199,424
774,1	191,452
774,5	182,195
775	180,424
775,4	179,052
775,8	176,824
776,3	174,71
776,7	177,281
777,1	177,681
777,6	179,452
778	180,252
778,4	174,167
778,9	179,052
779,3	178,167
779,7	178,71
780,2	178,538
780,6	178,138
781	172,71
781,5	167,995
781,9	162,71
782,3	159,567
782,8	157,367
783,2	150,795
783,6	149,538
784,1	147,11
784,5	151,567
784,9	150,624
785,4	155,31
785,8	153,024
786,2	156,481
786,7	155,338
787,1	152,31
787,5	154,967
788	151,424
788,4	144,081
788,8	145,852
789,3	142,995
789,7	144,595
790,1	147,338
790,6	143,681
791	146,738
791,4	146,395
791,9	145,31
792,3	142,995
792,7	143,652
793,2	143,338
793,6	142,738
794	144,624
794,5	140,081
794,9	140,424
795,3	141,167
795,8	134,624
796,2	134,881
796,6	134,424
797,1	130,338
797,5	133,052
797,9	127,367
798,4	123,681
798,8	124,338
799,2	121,452
799,7	125,224
800,1	122,138
800,5	121,024
801	125,595
801,4	127,595
801,8	124,652
802,2	123,71
802,7	115,138
803,1	118,767
803,5	120,081
804	114,538
804,4	111,167
804,8	111,51
805,3	113,995
805,7	115,71
806,1	112,51
806,6	112,224
807	110,052
807,4	110,31
807,9	106,024
808,3	98,31
808,7	97,281
809,2	99,081
809,6	96,824
810	100,995
810,4	100,91
810,9	105,195
811,3	108,281
811,7	110,824
812,2	112,938
812,6	110,081
813	113,224
813,5	113,481
813,9	114,938
814,3	112,224
814,8	110,538
815,2	104,11
815,6	101,91
816,1	95,424
816,5	91,595
816,9	88,767
817,3	91,424
817,8	93,395
818,2	94,767
818,6	96,338
819,1	94,567
819,5	95,795
819,9	94,138
820,4	93,71
820,8	89,167
821,2	82,252
821,7	85,452
822,1	91,338
822,5	96,567
822,9	97,452
823,4	95,567
823,8	95,967
824,2	100,91
824,7	90,024
825,1	79,852
825,5	69,881
826	65,081
826,4	62,138
826,8	60,167
827,3	62,31
827,7	64,795
828,1	67,71
828,5	70,338
829	69,71
829,4	69,824
829,8	65,967
830,3	64,538
830,7	63,424
831,1	64,824
831,6	63,852
832	67,395
832,4	64,595
832,8	68,567
833,3	66,424
833,7	64,767
834,1	60,681
834,6	61,51
835	62,052
835,4	65,395
835,8	62,395
836,3	61,795
836,7	66,91
837,1	66,252
837,6	70,567
838	65,595
838,4	63,51
838,9	64,824
839,3	64,052
839,7	62,224
840,1	55,652
840,6	49,338
841	52,138
841,4	55,938
841,9	54,71
842,3	53,052
842,7	52,424
843,1	56,51
843,6	58,195
844	56,138
844,4	55,681
844,9	57,938
845,3	58,967
845,7	58,938
846,2	56,281
846,6	54,452
847	55,852
847,4	52,51
847,9	50,395
848,3	48,624
848,7	45,767
849,2	50,767
849,6	46,367
850	48,167
850,4	48,281
850,9	49,338
851,3	49,938
851,7	54,852
852,2	52,852
852,6	57,31
853	55,51
853,4	52,795
853,9	47,024
854,3	46,452
854,7	44,795
855,2	44,338
855,6	42,195
856	40,081
856,4	35,938
856,9	34,338
857,3	35,595
857,7	37,71
858,2	42,424
858,6	41,424
859	37,967
859,4	44,538
859,9	44,995
860,3	40,167
860,7	36,652
861,1	36,824
861,6	36,481
862	40,538
862,4	36,167
862,9	39,624
863,3	39,938
863,7	38,138
864,1	35,081
864,6	32,538
865	34,167
865,4	39,367
865,9	40,824
866,3	40,024
866,7	40,967
867,1	37,452
867,6	40,052
868	35,138
868,4	33,11
868,8	31,738
869,3	32,481
869,7	37,624
870,1	33,767
870,6	35,795
871	-1,119
871,4	1,052
871,8	-3,49
872,3	-3,205
872,7	-7,205
873,1	-4,433
873,5	-5,948
874	31,081
874,4	29,31
874,8	28,767
875,3	30,481
875,7	26,481
876,1	27,195
876,5	26,138
877	28,481
877,4	25,967
877,8	29,452
878,2	31,681
878,7	33,795
879,1	37,224
879,5	39,224
879,9	38,767
880,4	41,91
880,8	41,138
881,2	35,738
881,7	35,395
882,1	34,91
882,5	32,11
882,9	29,538
883,4	22,881
883,8	22,252
884,2	24,452
884,6	20,424
885,1	20,252
885,5	18,881
885,9	17,138
886,3	23,824
886,8	22,195
887,2	19,167
887,6	23,252
888	22,052
888,5	22,395
888,9	22,595
889,3	16,195
889,8	16,881
890,2	20,452
890,6	19,338
891	17,452
891,5	16,367
891,9	19,024
892,3	23,395
892,7	23,91
893,2	21,024
893,6	22,281
894	25,31
894,4	24,567
894,9	24,138
895,3	20,852
895,7	20,595
896,1	21,624
896,6	22,652
897	17,281
897,4	27,51
897,8	28,281
898,3	28,624
898,7	24,224
899,1	20,624
899,5	16,51
900	13,795
900,4	4,881
900,8	-2,776
901,2	-4,405
901,7	-0,862
902,1	3,31
902,5	7,652
902,9	9,995
903,4	11,852
903,8	16,938
904,2	15,824
904,6	15,938
905,1	15,51
905,5	12,338
905,9	14,338
906,3	12,91
906,8	13,538
907,2	18,538
907,6	19,71
908	19,51
908,5	15,652
908,9	14,91
909,3	15,138
909,7	15,252
910,2	9,138
910,6	10,481
911	5,052
911,4	10,738
911,9	8,481
912,3	9,767
912,7	12,852
913,1	17,995
913,6	15,795
914	19,767
914,4	14,252
914,8	16,452
915,3	15,938
915,7	10,51
916,1	9,081
916,5	8,51
916,9	13,595
917,4	17,852
917,8	17,024
918,2	10,395
918,6	6,538
919,1	8,052
919,5	9,11
919,9	3,224
920,3	-0,148
920,8	-0,976
921,2	3,195
921,6	9,595
922	5,538
922,5	5,881
922,9	11,367
923,3	11,595
923,7	14,967
924,2	17,167
924,6	16,281
925	18,024
925,4	16,481
925,8	11,881
926,3	14,852
926,7	9,71
927,1	7,995
927,5	8,281
928	8,31
928,4	8,452
928,8	11,395
929,2	11,852
929,7	12,367
930,1	10,081
930,5	7,167
930,9	8,31
931,3	8,538
931,8	4,51
932,2	2,11
932,6	2,081
933	-1,376
933,5	-1,119
933,9	-2,033
934,3	-0,833
934,7	-2,605
935,2	-4,262
935,6	-1,919
936	4,367
936,4	8,624
936,8	10,252
937,3	6,91
937,7	8,938
938,1	12,367
938,5	9,595
939	9,252
939,4	6,338
939,8	2,395
940,2	2,624
940,6	8,195
941,1	5,338
941,5	12,852
941,9	8,852
942,3	9,167
942,8	9,852
943,2	11,824
943,6	4,452
944	7,424
944,4	2,11
944,9	2,595
945,3	-0,348
945,7	-1,176
946,1	-7,005
946,6	-7,49
947	-9,348
947,4	-8,09
947,8	-5,29
948,2	-6,433
948,7	-4,376
949,1	-1,433
949,5	2,138
949,9	2,052
950,3	-1,233
950,8	-3,405
951,2	-2,176
951,6	-3,348
952	1,052
952,5	-2,262
952,9	-3,719
953,3	-3,29
953,7	-2,319
954,1	2,281
954,6	3,281
955	2,138
955,4	0,71
955,8	5,51
956,2	8,452
956,7	11,252
957,1	5,795
957,5	4,824
957,9	5,538
958,3	8,252
958,8	7,595
959,2	10,081
959,6	9,852
960	9,595
960,5	12,938
960,9	14,595
961,3	12,081
961,7	8,167
962,1	2,424
962,6	5,595
963	5,395
963,4	-1,833
963,8	-4,576
964,2	0,967
964,7	1,167
965,1	7,052
965,5	3,052
965,9	7,738
966,3	12,71
966,8	10,91
967,2	9,738
967,6	12,395
968	5,595
968,4	3,367
968,9	3,167
969,3	4,567
969,7	1,71
970,1	-0,519
970,5	-5,69
971	3,024
971,4	4,367
971,8	0,052
972,2	-2,862
972,6	0,995
973,1	3,795
973,5	8,167
973,9	5,338
974,3	5,11
974,7	8,51
975,2	14,024
975,6	11,452
976	13,052
976,4	10,138
976,8	8,967
977,3	8,281
977,7	5,195
978,1	-0,519
978,5	-2,005
978,9	-8,805
979,4	-12,348
979,8	-12,005
980,2	-12,633
980,6	-10,205
981	-5,262
981,5	-2,176
981,9	0,395
982,3	5,024
982,7	3,224
983,1	1,538
983,6	1,481
984	1,138
984,4	-0,319
984,8	3,252
985,2	2,824
985,6	1,138
986,1	7,052
986,5	7,11
986,9	-0,09
987,3	4,795
987,7	3,338
988,2	3,281
988,6	5,281
989	5,395
989,4	6,024
989,8	8,938
990,3	6,995
990,7	4,652
991,1	6,938
991,5	9,052
991,9	6,938
992,3	6,767
992,8	8,881
993,2	7,824
993,6	5,595
994	9,852
994,4	8,052
994,9	7,538
995,3	2,51
995,7	-2,005
996,1	-2,519
996,5	1,224
996,9	-9,405
997,4	-7,605
997,8	-12,948
998,2	-9,805
998,6	-14,89
999	-14,833
999,5	-16,548
999,9	-11,662
1000,3	-15,805
1000,7	-8,833
1001,1	-6,833
1001,5	0,967
1002	5,081
1002,4	7,252
1002,8	6,11
1003,2	8,281
1003,6	6,138
1004	8,224
1004,5	2,51
1004,9	0,481
1005,3	-6,062
1005,7	-7,09
1006,1	-10,062
1006,6	-10,69
1007	-10,833
1007,4	-7,376
1007,8	-11,633
1008,2	-7,576
1008,6	-0,205
1009,1	-0,148
1009,5	1,595
1009,9	2,338
1010,3	5,824
1010,7	8,024
1011,1	9,767
1011,6	2,167
1012	9,681
1012,4	5,624
1012,8	0,167
1013,2	2,91
1013,6	3,281
1014,1	3,681
1014,5	6,881
1014,9	1,624
1015,3	1,967
1015,7	5,024
1016,1	2,395
1016,6	5,338
1017	4,138
1017,4	4,767
1017,8	6,224
1018,2	10,338
1018,6	3,11
1019,1	2,481
1019,5	-1,176
1019,9	-4,862
1020,3	-5,29
1020,7	-3,976
1021,1	-5,69
1021,6	-0,233
1022	1,424
1022,4	4,281
1022,8	12,138
1023,2	9,967
1023,6	2,595
1024,1	5,395
1024,5	8,281
1024,9	0,138
1025,3	-4,033
1025,7	-8,262
1026,1	-4,233
1026,6	0,995
1027	-1,319
1027,4	1,252
1027,8	6,11
1028,2	7,652
1028,6	9,424
1029	6,652
1029,5	8,452
1029,9	8,081
1030,3	1,395
1030,7	1,224
1031,1	1,481
1031,5	-6,433
1032	-4,633
1032,4	-6,748
1032,8	-2,405
1033,2	1,71
1033,6	5,852
1034	4,567
1034,4	10,567
1034,9	9,795
1035,3	7,624
1035,7	5,767
1036,1	2,338
1036,5	0,652
1036,9	2,31
1037,4	10,195
1037,8	3,024
1038,2	3,424
1038,6	2,481
1039	7,11
1039,4	11,224
1039,8	7,595
1040,3	-0,462
1040,7	2,51
1041,1	5,538
1041,5	4,452
1041,9	2,138
1042,3	-1,862
1042,7	-0,433
1043,2	0,652
1043,6	0,995
1044	0,995
1044,4	-0,176
1044,8	-1,348
1045,2	0,024
1045,6	4,595
1046,1	0,395
1046,5	1,681
1046,9	-3,69
1047,3	-6,89
1047,7	-6,976
1048,1	-15,005
1048,5	-17,09
1049	-10,205
1049,4	-5,548
1049,8	0,481
1050,2	4,824
1050,6	8,881
1051	12,681
1051,4	8,71
1051,9	0,252
1052,3	4,367
1052,7	5,938
1053,1	0,167
1053,5	0,967
1053,9	1,281
1054,3	7,081
1054,8	19,167
1055,2	15,681
1055,6	14,367
1056	17,767
1056,4	12,195
1056,8	14,995
1057,2	12,224
1057,6	-1,033
1058,1	-4,69
1058,5	-9,205
1058,9	-6,09
1059,3	-4,976
1059,7	-8,262
1060,1	-4,919
1060,5	0,195
1061	0,51
1061,4	1,481
1061,8	4,138
1062,2	8,11
1062,6	10,11
1063	4,252
1063,4	4,481
1063,8	4,852
1064,3	3,31
1064,7	-2,976
1065,1	-5,319
1065,5	-10,119
1065,9	-7,376
1066,3	-8,205
1066,7	-11,605
1067,1	-9,29
1067,6	-1,319
1068	-6,833
1068,4	-3,062
1068,8	-3,033
1069,2	-1,633
1069,6	-1,176
1070	2,024
1070,4	-4,605
1070,9	-5,148
1071,3	-3,89
1071,7	-7,005
1072,1	-7,033
1072,5	-8,29
1072,9	-11,462
1073,3	-6,062
1073,7	-2,748
1074,2	-3,09
1074,6	2,881
1075	0,995
1075,4	3,452
1075,8	7,967
1076,2	2,595
1076,6	2,395
1077	2,795
1077,5	2,281
1077,9	2,881
1078,3	2,167
1078,7	-0,262
1079,1	2,624
1079,5	4,91
1079,9	6,11
1080,3	1,367
1080,7	5,252
1081,2	10,481
1081,6	7,11
1082	2,024
1082,4	3,224
1082,8	0,681
1083,2	2,938
1083,6	2,967
1084	-3,719
1084,5	-1,89
1084,9	-4,433
1085,3	-9,49
1085,7	-6,89
1086,1	-6,405
1086,5	-6,119
1086,9	-0,49
1087,3	2,624
1087,7	8,595
1088,2	10,424
1088,6	5,624
1089	4,71
1089,4	1,681
1089,8	0,081
1090,2	-1,605
1090,6	3,452
1091	4,538
1091,4	8,452
1091,9	10,681
1092,3	16,71
1092,7	14,138
1093,1	15,71
1093,5	8,995
1093,9	6,967
1094,3	10,338
1094,7	4,424
1095,1	0,138
1095,5	3,538
1096	-2,405
1096,4	-0,662
1096,8	0,595
1097,2	-1,662
1097,6	2,11
1098	0,967
1098,4	0,995
1098,8	3,795
1099,2	8,995
1099,6	10,852
1100,1	8,624
1100,5	6,281
1100,9	7,367
1101,3	8,51
1101,7	7,938
1102,1	2,881
1102,5	3,367
1102,9	5,024
1103,3	8,995
1103,7	8,595
1104,2	5,795
1104,6	6,195
1105	3,938
1105,4	2,71
1105,8	1,081
1106,2	-0,49
1106,6	-1,576
1107	-1,262
1107,4	-1,767
1107,8	0,807
1108,3	-0,283
