Data from Subt2_091.txt Node
Date: Sat Aug 26 16:43:04 MSK 2023
User: vat
Spectrometer: MAYP114033
Trigger mode: 0
Integration Time (sec): 1,000000E0
Scans to average: 5
Electric dark correction enabled: true
Nonlinearity correction enabled: false
Boxcar width: 3
XAxis mode: Wavelengths
Number of Pixels in Spectrum: 2068
>>>>>Begin Spectral Data<<<<<
199,4	-0,567
199,9	2,073
200,4	2,367
200,8	-0,281
201,3	0,748
201,8	2,719
202,2	5,833
202,7	7,976
203,2	6,576
203,6	8,148
204,1	10,405
204,6	12,062
205	12,605
205,5	5,748
206	6,176
206,4	8,548
206,9	4,948
207,4	8,176
207,8	5,033
208,3	2,148
208,8	8,062
209,2	11,719
209,7	12,862
210,2	18,405
210,6	13,29
211,1	14,69
211,5	14,376
212	9,633
212,5	-1,995
212,9	-3,024
213,4	-4,91
213,9	-2,138
214,3	-2,081
214,8	0,948
215,3	1,376
215,7	6,405
216,2	7,319
216,7	2,176
217,1	1,405
217,6	2,862
218,1	0,119
218,5	7,205
219	12,805
219,5	9,919
219,9	17,262
220,4	18,948
220,9	17,405
221,3	19,29
221,8	12,719
222,3	8,748
222,7	6,633
223,2	8,948
223,6	5,833
224,1	6,348
224,6	4,119
225	4,976
225,5	7,748
226	8,433
226,4	5,176
226,9	6,49
227,4	8,548
227,8	13,29
228,3	19,062
228,8	14,033
229,2	20,462
229,7	17,005
230,2	20,719
230,6	17,519
231,1	18,976
231,5	18,462
232	28,148
232,5	21,29
232,9	22,976
233,4	23,89
233,9	28,919
234,3	26,319
234,8	22,633
235,3	15,033
235,7	18,862
236,2	17,605
236,7	17,348
237,1	13,233
237,6	10,862
238,1	12,948
238,5	11,605
239	13,376
239,4	14,09
239,9	12,348
240,4	10,548
240,8	13,719
241,3	12,548
241,8	12,662
242,2	8,919
242,7	10,033
243,2	11,805
243,6	17,262
244,1	17,605
244,6	14,433
245	18,233
245,5	17,976
245,9	18,405
246,4	12,49
246,9	10,233
247,3	7,148
247,8	10,233
248,3	8,262
248,7	13,148
249,2	12,062
249,7	17,319
250,1	17,548
250,6	16,376
251	16,49
251,5	9,662
252	9,833
252,4	7,662
252,9	3,605
253,4	2,519
253,8	6,233
254,3	6,919
254,8	14,319
255,2	10,805
255,7	13,348
256,1	16,348
256,6	19,49
257,1	18,89
257,5	18,319
258	15,062
258,5	15,662
258,9	14,262
259,4	10,262
259,9	6,948
260,3	4,29
260,8	4,319
261,2	12,776
261,7	11,862
262,2	15,176
262,6	16,376
263,1	12,605
263,6	12,719
264	10,09
264,5	6,062
264,9	4,548
265,4	4,233
265,9	9,319
266,3	11,319
266,8	10,805
267,3	14,462
267,7	13,462
268,2	16,033
268,7	13,033
269,1	9,262
269,6	15,548
270	20,748
270,5	20,376
271	19,833
271,4	11,405
271,9	14,576
272,4	15,748
272,8	10,69
273,3	5,862
273,7	2,29
274,2	4,633
274,7	13,376
275,1	7,748
275,6	6,09
276,1	7,29
276,5	10,519
277	11,462
277,4	7,319
277,9	3,89
278,4	11,376
278,8	13,69
279,3	11,176
279,8	8,405
280,2	11,233
280,7	11,433
281,1	13,748
281,6	10,262
282,1	12,062
282,5	16,49
283	15,033
283,4	14,776
283,9	15,29
284,4	14,748
284,8	13,033
285,3	7,748
285,8	6,233
286,2	6,605
286,7	4,862
287,1	5,948
287,6	10,176
288,1	12,833
288,5	18,662
289	20,976
289,5	20,69
289,9	18,433
290,4	15,062
290,8	14,719
291,3	11,176
291,8	5,633
292,2	2,805
292,7	7,09
293,1	9,948
293,6	13,148
294,1	7,719
294,5	16,062
295	16,776
295,5	16,662
295,9	18,605
296,4	20,09
296,8	18,433
297,3	20,89
297,8	13,49
298,2	15,862
298,7	14,462
299,1	11,662
299,6	10,119
300,1	13,005
300,5	16,319
301	17,405
301,5	13,062
301,9	15,519
302,4	14,662
302,8	15,176
303,3	12,89
303,8	6,262
304,2	6,348
304,7	10,205
305,1	14,09
305,6	10,548
306,1	12,948
306,5	10,376
307	10,062
307,4	7,119
307,9	3,662
308,4	3,062
308,8	12,433
309,3	8,576
309,8	14,519
310,2	11,605
310,7	19,89
311,1	18,462
311,6	12,09
312,1	8,205
312,5	7,033
313	6,576
313,4	11,862
313,9	9,29
314,4	12,29
314,8	15,205
315,3	14,69
315,7	15,605
316,2	14,062
316,7	15,148
317,1	11,633
317,6	10,69
318	12,948
318,5	14,805
319	16,633
319,4	13,005
319,9	12,633
320,3	15,148
320,8	16,405
321,3	13,233
321,7	12,462
322,2	11,005
322,6	10,319
323,1	9,433
323,6	4,89
324	7,462
324,5	7,005
324,9	7,005
325,4	10,49
325,9	16,433
326,3	19,548
326,8	21,148
327,2	18,405
327,7	17,462
328,2	13,062
328,6	13,576
329,1	13,748
329,5	13,033
330	20,462
330,5	19,862
330,9	21,262
331,4	19,519
331,8	19,633
332,3	17,633
332,8	14,376
333,2	6,89
333,7	7,833
334,1	11,49
334,6	18,005
335,1	14,319
335,5	15,319
336	14,805
336,4	14,776
336,9	19,262
337,4	17,062
337,8	19,09
338,3	21,919
338,7	23,376
339,2	27,005
339,7	30,233
340,1	26,662
340,6	23,919
341	24,633
341,5	27,405
342	24,005
342,4	22,405
342,9	19,005
343,3	20,005
343,8	23,633
344,2	22,519
344,7	20,005
345,2	20,719
345,6	23,433
346,1	27,033
346,5	28,462
347	31,576
347,5	26,662
347,9	28,49
348,4	32,176
348,8	30,862
349,3	33,919
349,8	32,405
350,2	26,719
350,7	33,662
351,1	34,833
351,6	37,405
352	47,919
352,5	50,319
353	61,462
353,4	73,405
353,9	85,433
354,3	98,319
354,8	112,062
355,3	128,548
355,7	154,233
356,2	178,433
356,6	214,033
357,1	248,062
357,5	288,633
358	342,805
358,5	400,376
358,9	462,548
359,4	536,148
359,8	613,062
360,3	702,405
360,8	803,005
361,2	913,205
361,7	1028,833
362,1	1162,49
362,6	1312,833
363	1471,776
363,5	1647,062
364	1823,919
364,4	2004,119
364,9	2186,376
365,3	2371,148
365,8	2538,89
366,3	2700,576
366,7	2839,976
367,2	2971,233
367,6	3080,09
368,1	3165,69
368,5	3213,233
369	3245,405
369,5	3254,976
369,9	3230,833
370,4	3185,462
370,8	3111,89
371,3	3027,862
371,7	2925,119
372,2	2804,748
372,7	2665,748
373,1	2533,433
373,6	2389,176
374	2244,605
374,5	2094,89
374,9	1953,948
375,4	1815,205
375,9	1685,462
376,3	1552,719
376,8	1430,462
377,2	1320,89
377,7	1216,519
378,2	1119,233
378,6	1027,033
379,1	941,919
379,5	870,662
380	801,662
380,4	736,262
380,9	679,948
381,4	625,662
381,8	577,976
382,3	534,69
382,7	488,148
383,2	450,09
383,6	418,005
384,1	387,233
384,6	360,119
385	337,462
385,5	315,119
385,9	300,09
386,4	282,319
386,8	265,148
387,3	246,69
387,7	233,862
388,2	217,062
388,7	200,548
389,1	181,005
389,6	166,662
390	152,119
390,5	139,548
390,9	132,605
391,4	126,176
391,9	117,662
392,3	114,09
392,8	109,433
393,2	100,862
393,7	97,519
394,1	87,319
394,6	83,89
395,1	81,405
395,5	82,519
396	77,319
396,4	78,748
396,9	79,719
397,3	79,062
397,8	72,348
398,2	70,233
398,7	63,719
399,2	60,062
399,6	59,605
400,1	45,805
400,5	46,805
401	47,576
401,4	42,748
401,9	39,548
402,4	45,119
402,8	45,176
403,3	51,319
403,7	47,462
404,2	47,948
404,6	47,405
405,1	47,09
405,5	39,319
406	34,433
406,5	32,233
406,9	30,005
407,4	30,462
407,8	33,29
408,3	36,09
408,7	42,405
409,2	44,948
409,6	50,405
410,1	55,205
410,6	52,29
411	57,633
411,5	55,49
411,9	54,776
412,4	58,748
412,8	62,433
413,3	61,176
413,7	68,148
414,2	71,09
414,7	79,005
415,1	79,09
415,6	83,29
416	85,062
416,5	88,433
416,9	90,262
417,4	89,233
417,8	89,033
418,3	95,49
418,8	92,262
419,2	93,176
419,7	98,29
420,1	93,576
420,6	94,976
421	97,919
421,5	98,09
421,9	101,605
422,4	100,576
422,8	99,662
423,3	103,176
423,8	109,49
424,2	107,862
424,7	107,176
425,1	105,09
425,6	108,805
426	111,976
426,5	115,919
426,9	116,262
427,4	118,119
427,9	111,49
428,3	112,948
428,8	116,719
429,2	112,919
429,7	105,605
430,1	104,49
430,6	102,348
431	107,29
431,5	108,805
431,9	104,49
432,4	104,805
432,8	115,319
433,3	113,29
433,8	121,29
434,2	128,319
434,7	128,69
435,1	133,576
435,6	141,862
436	145,09
436,5	152,319
436,9	150,919
437,4	158,433
437,8	163,062
438,3	172,862
438,8	176,576
439,2	179,633
439,7	183,948
440,1	194,062
440,6	200,748
441	211,49
441,5	213,519
441,9	224,348
442,4	240,805
442,8	253,148
443,3	263,89
443,7	268,976
444,2	275,148
444,7	288,233
445,1	295,29
445,6	299,69
446	308,033
446,5	317,919
446,9	336,748
447,4	355,748
447,8	370,633
448,3	388,805
448,7	404,805
449,2	419,576
449,6	436,576
450,1	454,49
450,6	470,148
451	483,348
451,5	496,576
451,9	514,776
452,4	536,69
452,8	559,633
453,3	571,948
453,7	588,205
454,2	608,519
454,6	631,833
455,1	653,605
455,5	673,405
456	689,948
456,4	718,69
456,9	746,205
457,3	774,776
457,8	802,405
458,3	825,662
458,7	855,119
459,2	885,49
459,6	908,633
460,1	937,833
460,5	964,433
461	983,748
461,4	1016,433
461,9	1039,119
462,3	1073,462
462,8	1104,605
463,2	1136,605
463,7	1162,233
464,1	1204,49
464,6	1234,405
465	1273,005
465,5	1301,719
466	1329,833
466,4	1358,205
466,9	1397,433
467,3	1424,748
467,8	1463,176
468,2	1494,662
468,7	1524,548
469,1	1562,919
469,6	1597,862
470	1634,005
470,5	1675,605
470,9	1705,205
471,4	1740,976
471,8	1776,719
472,3	1808,633
472,7	1846,605
473,2	1873,662
473,6	1906,033
474,1	1939,033
474,5	1972,548
475	2009,176
475,4	2046,005
475,9	2085,49
476,4	2120,348
476,8	2149,833
477,3	2188,376
477,7	2225,89
478,2	2255,205
478,6	2283,405
479,1	2305,519
479,5	2346,662
480	2381,776
480,4	2410,005
480,9	2442,405
481,3	2474,09
481,8	2511,005
482,2	2544,176
482,7	2569,176
483,1	2596,89
483,6	2621,576
484	2640,976
484,5	2668,433
484,9	2696,748
485,4	2724,662
485,8	2749,262
486,3	2770,148
486,7	2803,005
487,2	2830,062
487,6	2856,748
488,1	2872,262
488,5	2893,09
489	2915,719
489,4	2938,348
489,9	2959,348
490,4	2983,262
490,8	3005,433
491,3	3027,462
491,7	3036,405
492,2	3056,005
492,6	3076,462
493,1	3082,09
493,5	3088,09
494	3094,576
494,4	3109,633
494,9	3131,862
495,3	3143,976
495,8	3158,862
496,2	3176,033
496,7	3195,119
497,1	3209,148
497,6	3216,29
498	3225,005
498,5	3235,348
498,9	3243,09
499,4	3252,49
499,8	3264,176
500,3	3280,376
500,7	3294,776
501,2	3312,633
501,6	3322,462
502,1	3326,148
502,5	3335,176
503	3344,576
503,4	3350,033
503,9	3359,119
504,3	3359,29
504,8	3365,633
505,2	3377,319
505,7	3385,09
506,1	3390,062
506,6	3401,062
507	3405,862
507,5	3411,348
507,9	3418,976
508,4	3428,748
508,8	3440,262
509,3	3445,433
509,7	3442,262
510,2	3448,776
510,6	3453,919
511,1	3457,005
511,5	3466,005
512	3467,233
512,4	3476,49
512,9	3485,376
513,3	3498,29
513,8	3503,633
514,2	3514,062
514,7	3513,919
515,1	3522,49
515,6	3516,748
516	3520,262
516,5	3522,176
516,9	3530,433
517,4	3531,348
517,8	3533,576
518,3	3533,633
518,7	3542,89
519,2	3550,376
519,6	3549,576
520,1	3553,833
520,5	3560,605
521	3565,348
521,4	3569,09
521,9	3579,948
522,3	3583,148
522,8	3593,805
523,2	3599,805
523,7	3601,605
524,1	3608,548
524,6	3615,805
525	3622,376
525,5	3634,262
525,9	3634,262
526,4	3640,319
526,8	3651,033
527,3	3660,748
527,7	3669,748
528,2	3673,033
528,6	3670,776
529,1	3678,376
529,5	3686,176
530	3688,662
530,4	3692,548
530,9	3697,405
531,3	3703,319
531,8	3719,548
532,2	3727,376
532,6	3733,919
533,1	3745,833
533,5	3752,948
534	3765,376
534,4	3775,176
534,9	3784,262
535,3	3794,176
535,8	3804,205
536,2	3804,376
536,7	3815,205
537,1	3818,69
537,6	3826,176
538	3829,69
538,5	3839,09
538,9	3849,576
539,4	3860,605
539,8	3868,376
540,3	3877,862
540,7	3885,519
541,2	3890,205
541,6	3896,519
542,1	3898,576
542,5	3907,348
543	3913,69
543,4	3924,748
543,9	3931,919
544,3	3940,605
544,8	3952,776
545,2	3961,976
545,7	3974,148
546,1	3983,662
546,5	3996,005
547	4007,662
547,4	4016,033
547,9	4023,633
548,3	4030,062
548,8	4036,69
549,2	4040,805
549,7	4045,462
550,1	4052,576
550,6	4061,548
551	4074,262
551,5	4081,148
551,9	4086,805
552,4	4092,548
552,8	4099,376
553,3	4104,09
553,7	4111,433
554,2	4116,033
554,6	4124,433
555,1	4135,005
555,5	4145,833
555,9	4153,376
556,4	4163,376
556,8	4168,576
557,3	4166,862
557,7	4177,748
558,2	4180,49
558,6	4192,29
559,1	4194,862
559,5	4202,976
560	4212,576
560,4	4222,062
560,9	4226,862
561,3	4238,119
561,8	4239,405
562,2	4248,233
562,7	4249,748
563,1	4254,605
563,6	4259,09
564	4262,662
564,4	4270,519
564,9	4275,176
565,3	4281,205
565,8	4286,176
566,2	4285,205
566,7	4284,319
567,1	4289,976
567,6	4296,69
568	4303,348
568,5	4299,462
568,9	4301,776
569,4	4308,119
569,8	4312,176
570,3	4312,548
570,7	4304,005
571,1	4302,119
571,6	4311,662
572	4317,69
572,5	4314,662
572,9	4326,062
573,4	4325,233
573,8	4323,662
574,3	4323,89
574,7	4318,662
575,2	4309,719
575,6	4304,519
576,1	4292,919
576,5	4296,148
576,9	4301,119
577,4	4300,976
577,8	4302,062
578,3	4303,233
578,7	4306,69
579,2	4313,462
579,6	4313,862
580,1	4308,09
580,5	4301,69
581	4295,49
581,4	4289,205
581,9	4288,862
582,3	4276,262
582,7	4267,348
583,2	4255,605
583,6	4250,948
584,1	4245,319
584,5	4242,376
585	4234,948
585,4	4227,319
585,9	4223,49
586,3	4220,09
586,8	4205,862
587,2	4191,519
587,6	4183,719
588,1	4181,348
588,5	4179,119
589	4169,948
589,4	4163,119
589,9	4160,833
590,3	4158,148
590,8	4148,719
591,2	4135,462
591,7	4126,805
592,1	4113,376
592,5	4113,433
593	4111,662
593,4	4107,89
593,9	4101,462
594,3	4092,576
594,8	4085,776
595,2	4086,433
595,7	4074,862
596,1	4065,119
596,6	4063,633
597	4055,348
597,4	4053,919
597,9	4047,262
598,3	4035,148
598,8	4022,919
599,2	4019,719
599,7	4003,833
600,1	3997,89
600,6	3989,89
601	3977,833
601,4	3971,748
601,9	3968,719
602,3	3955,462
602,8	3946,262
603,2	3938,576
603,7	3933,748
604,1	3932,49
604,6	3920,119
605	3905,519
605,4	3897,462
605,9	3884,748
606,3	3869,605
606,8	3851,462
607,2	3835,833
607,7	3825,49
608,1	3822,776
608,6	3810,948
609	3802,662
609,4	3793,748
609,9	3782,29
610,3	3769,176
610,8	3761,062
611,2	3737,405
611,7	3721,433
612,1	3704,262
612,6	3692,662
613	3685,033
613,4	3672,49
613,9	3658,119
614,3	3655,119
614,8	3638,405
615,2	3630,348
615,7	3616,748
616,1	3594,776
616,6	3572,376
617	3554,462
617,4	3536,948
617,9	3524,948
618,3	3508,633
618,8	3495,205
619,2	3483,605
619,7	3483,719
620,1	3469,119
620,5	3452,976
621	3439,69
621,4	3426,805
621,9	3415,776
622,3	3407,576
622,8	3381,519
623,2	3365,148
623,6	3349,605
624,1	3343,805
624,5	3326,119
625	3307,805
625,4	3283,662
625,9	3274,405
626,3	3261,233
626,8	3246,09
627,2	3224,319
627,6	3208,576
628,1	3190,119
628,5	3177,233
629	3165,919
629,4	3147,348
629,9	3132,433
630,3	3114,662
630,7	3106,005
631,2	3091,433
631,6	3076,29
632,1	3049,005
632,5	3037,262
633	3021,262
633,4	3004,805
633,8	2978,805
634,3	2964,49
634,7	2953,29
635,2	2941,919
635,6	2923,776
636,1	2914,119
636,5	2900,548
636,9	2890,776
637,4	2876,89
637,8	2859,548
638,3	2844,976
638,7	2833,033
639,2	2815,262
639,6	2804,576
640	2787,776
640,5	2774,205
640,9	2758,005
641,4	2744,319
641,8	2732,748
642,2	2716,89
642,7	2703,205
643,1	2697,49
643,6	2684,69
644	2673,576
644,5	2663,748
644,9	2648,862
645,3	2637,09
645,8	2620,09
646,2	2604,005
646,7	2585,176
647,1	2567,319
647,6	2548,033
648	2532,29
648,4	2517,348
648,9	2503,69
649,3	2485,49
649,8	2476,833
650,2	2467,062
650,6	2457,405
651,1	2448,776
651,5	2442,49
652	2428,376
652,4	2413,062
652,9	2400,576
653,3	2389,433
653,7	2376,89
654,2	2362,89
654,6	2346,605
655,1	2330,148
655,5	2320,462
655,9	2305,833
656,4	2289,662
656,8	2279,062
657,3	2259,805
657,7	2243,89
658,2	2234,062
658,6	2214,948
659	2196,205
659,5	2182,548
659,9	2164,405
660,4	2153,262
660,8	2141,119
661,2	2128,09
661,7	2122,976
662,1	2113,205
662,6	2101,233
663	2092,49
663,4	2081,748
663,9	2067,262
664,3	2054,433
664,8	2044,519
665,2	2033,748
665,6	2022,89
666,1	2008,262
666,5	1996,29
667	1980,405
667,4	1969,776
667,9	1954,919
668,3	1941,29
668,7	1925,462
669,2	1909,262
669,6	1894,205
670,1	1889,519
670,5	1875,29
670,9	1866,862
671,4	1858,919
671,8	1849,89
672,3	1845,262
672,7	1832,605
673,1	1815,119
673,6	1803,29
674	1786,519
674,5	1772,69
674,9	1756,862
675,3	1738,633
675,8	1728,405
676,2	1718,69
676,7	1707,548
677,1	1696,176
677,5	1680,033
678	1672,776
678,4	1664,205
678,9	1655,576
679,3	1641,805
679,7	1633,119
680,2	1623,862
680,6	1614,69
681,1	1601,033
681,5	1589,719
681,9	1578,09
682,4	1568,348
682,8	1554,433
683,3	1541,49
683,7	1532,348
684,1	1521,433
684,6	1514,376
685	1501,176
685,5	1493,919
685,9	1487,148
686,3	1480,89
686,8	1472,319
687,2	1462,862
687,7	1452,433
688,1	1445,148
688,5	1432,005
689	1425,462
689,4	1417,719
689,9	1408,605
690,3	1404,776
690,7	1393,662
691,2	1384,548
691,6	1379,005
692	1366,805
692,5	1354,29
692,9	1344,033
693,4	1332,062
693,8	1329,576
694,2	1315,89
694,7	1306,49
695,1	1294,633
695,6	1283,376
696	1274,119
696,4	1262,233
696,9	1243,776
697,3	1238,348
697,8	1227,433
698,2	1221,805
698,6	1213,919
699,1	1204,176
699,5	1195,776
699,9	1193,033
700,4	1185,433
700,8	1181,205
701,3	1170,405
701,7	1161,662
702,1	1152,862
702,6	1146,69
703	1132,633
703,5	1127,919
703,9	1118,176
704,3	1115,605
704,8	1113,405
705,2	1102,805
705,6	1092,033
706,1	1090,862
706,5	1081,719
707	1077,119
707,4	1068,062
707,8	1057,433
708,3	1055,662
708,7	1056,976
709,2	1050,548
709,6	1044,576
710	1033,005
710,5	1028,576
710,9	1021,29
711,3	1015,119
711,8	1003,576
712,2	994,205
712,7	988,233
713,1	985,319
713,5	974,205
714	967,005
714,4	957,776
714,8	953,433
715,3	950,348
715,7	940,348
716,2	928,376
716,6	924,548
717	917,376
717,5	914,433
717,9	902,862
718,3	895,005
718,8	891,576
719,2	885,062
719,7	875,89
720,1	869,805
720,5	863,433
721	857,748
721,4	850,662
721,8	840,548
722,3	833,148
722,7	824,519
723,2	819,976
723,6	810,462
724	808,519
724,5	801,033
724,9	793,862
725,3	787,233
725,8	784,662
726,2	777,348
726,7	770,976
727,1	759,176
727,5	756,319
728	750,09
728,4	750,319
728,8	746,319
729,3	743,319
729,7	740,405
730,1	734,005
730,6	723,89
731	724,09
731,5	712,69
731,9	708,176
732,3	705,805
732,8	700,919
733,2	699,433
733,6	696,376
734,1	689,776
734,5	687,576
734,9	679,976
735,4	671,205
735,8	669,976
736,3	667,405
736,7	665,748
737,1	664,348
737,6	664,033
738	660,233
738,4	659,89
738,9	656,119
739,3	653,233
739,7	646,719
740,2	641,89
740,6	637,69
741,1	634,262
741,5	628,976
741,9	620,09
742,4	615,262
742,8	614,576
743,2	610,89
743,7	606,719
744,1	599,919
744,5	593,976
745	590,005
745,4	584,205
745,8	578,89
746,3	575,29
746,7	571,748
747,2	570,948
747,6	565,89
748	563,005
748,5	562,548
748,9	556,49
749,3	553,976
749,8	546,005
750,2	541,662
750,6	539,348
751,1	537,49
751,5	534,348
751,9	533,262
752,4	527,062
752,8	523,433
753,3	519,89
753,7	516,976
754,1	514,033
754,6	504,805
755	499,49
755,4	494,776
755,9	493,748
756,3	487,262
756,7	478,662
757,2	474,948
757,6	473,662
758	468,005
758,5	466,033
758,9	464,862
759,3	463,005
759,8	468,576
760,2	465,148
760,6	465,376
761,1	463,748
761,5	464,005
761,9	457,262
762,4	455,29
762,8	449,205
763,3	442,69
763,7	436,09
764,1	430,862
764,6	424,033
765	422,405
765,4	421,319
765,9	413,319
766,3	409,776
766,7	406,062
767,2	408,29
767,6	403,319
768	404,433
768,5	397,805
768,9	394,69
769,3	392,719
769,8	393,176
770,2	391,976
770,6	389,776
771,1	388,348
771,5	387,29
771,9	388,433
772,4	392,748
772,8	389,776
773,2	384,919
773,7	387,148
774,1	384,376
774,5	387,348
775	382,948
775,4	377,776
775,8	373,005
776,3	368,748
776,7	365,005
777,1	362,405
777,6	353,005
778	351,062
778,4	346,948
778,9	343,948
779,3	341,005
779,7	337,233
780,2	329,29
780,6	333,376
781	336,033
781,5	335,462
781,9	337,148
782,3	338,033
782,8	332,29
783,2	330,005
783,6	321,833
784,1	318,005
784,5	313,948
784,9	308,633
785,4	309,319
785,8	306,976
786,2	306,633
786,7	303,519
787,1	301,376
787,5	300,719
788	299,176
788,4	290,748
788,8	288,233
789,3	286,919
789,7	289,348
790,1	289,262
790,6	290,376
791	289,405
791,4	288,662
791,9	291,719
792,3	286,29
792,7	288,205
793,2	281,519
793,6	276,948
794	270,433
794,5	270,005
794,9	266,719
795,3	269,49
795,8	259,29
796,2	257,148
796,6	250,29
797,1	250,548
797,5	247,548
797,9	242,576
798,4	238,605
798,8	238,09
799,2	242,633
799,7	245,548
800,1	244,148
800,5	242,776
801	242,605
801,4	236,119
801,8	236,348
802,2	229,662
802,7	221,948
803,1	219,662
803,5	218,948
804	218,576
804,4	219,833
804,8	217,69
805,3	212,776
805,7	215,605
806,1	217,862
806,6	215,719
807	213,433
807,4	211,776
807,9	213,948
808,3	213,548
808,7	209,148
809,2	202,805
809,6	203,062
810	200,319
810,4	198,376
810,9	188,919
811,3	189,405
811,7	190,805
812,2	196,748
812,6	193,719
813	195,862
813,5	197,033
813,9	199,119
814,3	195,348
814,8	195,433
815,2	184,005
815,6	176,805
816,1	173,948
816,5	170,119
816,9	173,89
817,3	172,748
817,8	177,662
818,2	177,805
818,6	184,319
819,1	183,719
819,5	180,548
819,9	173,262
820,4	170,29
820,8	157,49
821,2	162,519
821,7	159,605
822,1	159,719
822,5	160,09
822,9	166,862
823,4	165,833
823,8	170,148
824,2	166,348
824,7	164,948
825,1	161,319
825,5	166,548
826	159,405
826,4	163,205
826,8	161,776
827,3	160,919
827,7	157,776
828,1	159,548
828,5	152,262
829	150,633
829,4	150,69
829,8	146,948
830,3	145,233
830,7	140,176
831,1	140,548
831,6	139,548
832	136,148
832,4	133,548
832,8	133,062
833,3	132,205
833,7	139,776
834,1	130,919
834,6	128,748
835	131,49
835,4	133,319
835,8	127,776
836,3	124,862
836,7	118,605
837,1	120,862
837,6	123,748
838	118,605
838,4	111,205
838,9	115,519
839,3	119,348
839,7	116,862
840,1	112,719
840,6	112,805
841	114,89
841,4	112,49
841,9	109,233
842,3	108,805
842,7	113,062
843,1	117,319
843,6	115,462
844	118,376
844,4	122,148
844,9	124,233
845,3	117,29
845,7	116,862
846,2	117,176
846,6	114,09
847	108,119
847,4	107,405
847,9	103,633
848,3	106,29
848,7	103,005
849,2	100,548
849,6	102,262
850	99,89
850,4	100,433
850,9	97,462
851,3	95,548
851,7	95,519
852,2	88,605
852,6	86,49
853	92,09
853,4	95,148
853,9	95,776
854,3	94,548
854,7	88,776
855,2	93,148
855,6	88,49
856	81,633
856,4	78,462
856,9	79,376
857,3	78,662
857,7	83,519
858,2	82,062
858,6	88,319
859	86,748
859,4	82,862
859,9	81,005
860,3	79,976
860,7	80,89
861,1	82,919
861,6	81,748
862	85,69
862,4	84,89
862,9	84,662
863,3	82,948
863,7	79,462
864,1	76,805
864,6	71,805
865	70,319
865,4	66,548
865,9	64,919
866,3	70,862
866,7	70,719
867,1	73,29
867,6	74,09
868	72,262
868,4	70,033
868,8	71,719
869,3	66,69
869,7	63,462
870,1	61,29
870,6	59,433
871	106,348
871,4	108,233
871,8	104,548
872,3	105,833
872,7	107,519
873,1	107,405
873,5	108,805
874	63,833
874,4	62,519
874,8	64,833
875,3	61,176
875,7	57,862
876,1	56,233
876,5	61,09
877	58,548
877,4	58,833
877,8	61,89
878,2	66,805
878,7	70,833
879,1	72,833
879,5	70,376
879,9	67,748
880,4	67,09
880,8	64,176
881,2	64,348
881,7	66,662
882,1	65,405
882,5	57,862
882,9	58,29
883,4	59,405
883,8	60,862
884,2	58,976
884,6	55,948
885,1	53,376
885,5	62,948
885,9	69,148
886,3	73,576
886,8	68,748
887,2	63,262
887,6	57,89
888	58,233
888,5	53,319
888,9	48,748
889,3	38,719
889,8	41,376
890,2	39,433
890,6	41,662
891	36,119
891,5	38,09
891,9	40,376
892,3	40,948
892,7	41,948
893,2	45,119
893,6	44,519
894	49,948
894,4	45,805
894,9	38,09
895,3	41,919
895,7	39,119
896,1	40,405
896,6	39,776
897	39,062
897,4	35,919
897,8	40,833
898,3	46,319
898,7	43,748
899,1	41,433
899,5	42,205
900	37,405
900,4	43,062
900,8	41,148
901,2	33,719
901,7	34,776
902,1	35,09
902,5	35,776
902,9	39,805
903,4	37,348
903,8	34,176
904,2	38,062
904,6	35,348
905,1	39,862
905,5	40,262
905,9	39,376
906,3	36,319
906,8	41,09
907,2	35,233
907,6	35,176
908	29,69
908,5	28,148
908,9	22,29
909,3	20,948
909,7	19,519
910,2	22,833
910,6	27,29
911	29,29
911,4	25,833
911,9	32,633
912,3	37,548
912,7	37,976
913,1	33,062
913,6	30,319
914	28,148
914,4	28,748
914,8	27,462
915,3	21,805
915,7	18,69
916,1	21,605
916,5	20,033
916,9	21,09
917,4	20,662
917,8	18,662
918,2	21,548
918,6	25,176
919,1	26,348
919,5	32,376
919,9	31,005
920,3	35,548
920,8	40,405
921,2	41,405
921,6	40,29
922	35,662
922,5	33,119
922,9	28,262
923,3	26,69
923,7	22,548
924,2	19,005
924,6	17,09
925	19,462
925,4	18,148
925,8	20,148
926,3	22,005
926,7	25,176
927,1	26,862
927,5	26,976
928	25,919
928,4	23,862
928,8	31,548
929,2	29,176
929,7	23,233
930,1	25,348
930,5	23,719
930,9	28,976
931,3	31,69
931,8	26,662
932,2	24,462
932,6	27,948
933	19,948
933,5	19,862
933,9	16,005
934,3	12,576
934,7	13,662
935,2	18,462
935,6	18,119
936	18,633
936,4	21,205
936,8	19,29
937,3	23,148
937,7	21,005
938,1	13,119
938,5	9,462
939	14,805
939,4	15,548
939,8	15,69
940,2	10,748
940,6	11,319
941,1	21,748
941,5	26,633
941,9	29,376
942,3	25,29
942,8	26,605
943,2	29,262
943,6	29,976
944	26,148
944,4	19,89
944,9	15,576
945,3	19,433
945,7	20,376
946,1	18,376
946,6	16,633
947	17,376
947,4	20,262
947,8	20,348
948,2	17,29
948,7	17,862
949,1	17,976
949,5	21,033
949,9	19,033
950,3	19,662
950,8	19,605
951,2	22,119
951,6	22,576
952	20,09
952,5	18,605
952,9	14,29
953,3	10,348
953,7	11,148
954,1	11,205
954,6	9,719
955	12,805
955,4	8,119
955,8	13,662
956,2	16,576
956,7	17,833
957,1	15,89
957,5	17,633
957,9	17,462
958,3	22,748
958,8	22,205
959,2	19,605
959,6	21,605
960	20,805
960,5	19,519
960,9	23,976
961,3	24,062
961,7	18,033
962,1	20,176
962,6	17,89
963	16,405
963,4	15,805
963,8	13,205
964,2	10,09
964,7	11,262
965,1	13,576
965,5	11,262
965,9	17,176
966,3	16,919
966,8	16,719
967,2	19,69
967,6	19,376
968	16,919
968,4	19,176
968,9	18,033
969,3	20,09
969,7	15,062
970,1	11,376
970,5	15,776
971	8,205
971,4	8,805
971,8	7,262
972,2	5,376
972,6	8,976
973,1	11,776
973,5	10,119
973,9	17,09
974,3	16,262
974,7	13,033
975,2	12,862
975,6	8,205
976	10,062
976,4	12,405
976,8	13,805
977,3	11,548
977,7	10,976
978,1	6,576
978,5	13,662
978,9	12,348
979,4	8,976
979,8	9,576
980,2	8,005
980,6	9,862
981	17,89
981,5	14,319
981,9	11,005
982,3	8,205
982,7	9,433
983,1	14,576
983,6	15,605
984	12,519
984,4	15,633
984,8	17,119
985,2	17,49
985,6	18,205
986,1	13,348
986,5	13,033
986,9	12,033
987,3	10,09
987,7	13,462
988,2	17,833
988,6	13,89
989	17,548
989,4	19,262
989,8	19,376
990,3	19,376
990,7	18,433
991,1	14,319
991,5	16,719
991,9	17,89
992,3	15,29
992,8	21,69
993,2	23,319
993,6	22,09
994	24,319
994,4	22,948
994,9	20,805
995,3	19,862
995,7	12,776
996,1	11,148
996,5	8,833
996,9	9,262
997,4	8,319
997,8	7,319
998,2	11,833
998,6	13,433
999	15,176
999,5	16,062
999,9	16,376
1000,3	18,576
1000,7	18,605
1001,1	16,948
1001,5	14,433
1002	10,89
1002,4	10,805
1002,8	13,976
1003,2	13,662
1003,6	16,605
1004	13,605
1004,5	13,833
1004,9	16,005
1005,3	10,748
1005,7	8,862
1006,1	8,976
1006,6	3,776
1007	5,005
1007,4	6,976
1007,8	4,405
1008,2	9,433
1008,6	4,662
1009,1	5,462
1009,5	11,319
1009,9	17,605
1010,3	19,776
1010,7	22,662
1011,1	27,262
1011,6	29,633
1012	27,833
1012,4	27,948
1012,8	19,233
1013,2	23,405
1013,6	21,548
1014,1	18,776
1014,5	19,062
1014,9	19,748
1015,3	14,948
1015,7	16,148
1016,1	8,519
1016,6	13,605
1017	13,976
1017,4	8,005
1017,8	1,29
1018,2	1,776
1018,6	0,376
1019,1	1,548
1019,5	-0,138
1019,9	0,776
1020,3	5,462
1020,7	11,062
1021,1	15,462
1021,6	15,262
1022	14,148
1022,4	16,69
1022,8	17,205
1023,2	19,948
1023,6	18,462
1024,1	16,776
1024,5	20,862
1024,9	23,976
1025,3	20,976
1025,7	18,49
1026,1	19,919
1026,6	22,69
1027	19,262
1027,4	17,748
1027,8	13,49
1028,2	11,776
1028,6	11,519
1029	6,29
1029,5	5,462
1029,9	9,49
1030,3	11,662
1030,7	15,49
1031,1	12,119
1031,5	8,805
1032	11,462
1032,4	13,033
1032,8	9,405
1033,2	10,519
1033,6	10,176
1034	15,09
1034,4	25,548
1034,9	22,319
1035,3	23,833
1035,7	24,119
1036,1	23,319
1036,5	18,433
1036,9	20,576
1037,4	15,462
1037,8	23,833
1038,2	15,09
1038,6	14,376
1039	13,919
1039,4	18,29
1039,8	16,748
1040,3	13,205
1040,7	5,319
1041,1	11,605
1041,5	14,49
1041,9	17,69
1042,3	15,519
1042,7	13,433
1043,2	17,548
1043,6	22,548
1044	20,719
1044,4	18,548
1044,8	9,662
1045,2	15,976
1045,6	20,376
1046,1	20,319
1046,5	23,433
1046,9	26,805
1047,3	27,633
1047,7	29,69
1048,1	22,119
1048,5	16,233
1049	20,09
1049,4	15,576
1049,8	11,833
1050,2	12,405
1050,6	16,176
1051	23,662
1051,4	26,748
1051,9	24,319
1052,3	22,233
1052,7	23,805
1053,1	26,205
1053,5	20,833
1053,9	15,605
1054,3	10,262
1054,8	9,29
1055,2	11,09
1055,6	10,262
1056	5,69
1056,4	14,805
1056,8	18,376
1057,2	28,719
1057,6	24,976
1058,1	27,662
1058,5	27,719
1058,9	30,576
1059,3	30,319
1059,7	20,462
1060,1	10,805
1060,5	8,605
1061	3,119
1061,4	7,976
1061,8	5,205
1062,2	4,062
1062,6	6,29
1063	6,09
1063,4	10,89
1063,8	9,49
1064,3	3,919
1064,7	6,576
1065,1	3,576
1065,5	7,862
1065,9	7,29
1066,3	5,062
1066,7	5,519
1067,1	6,405
1067,6	8,605
1068	7,662
1068,4	10,29
1068,8	16,148
1069,2	16,233
1069,6	19,233
1070	20,262
1070,4	16,29
1070,9	17,662
1071,3	17,233
1071,7	17,376
1072,1	20,005
1072,5	23,49
1072,9	28,805
1073,3	30,405
1073,7	29,062
1074,2	30,605
1074,6	28,919
1075	28,348
1075,4	25,605
1075,8	23,833
1076,2	21,405
1076,6	22,862
1077	19,462
1077,5	19,433
1077,9	20,662
1078,3	15,862
1078,7	12,919
1079,1	16,262
1079,5	12,69
1079,9	17,119
1080,3	17,148
1080,7	18,376
1081,2	23,062
1081,6	21,833
1082	21,805
1082,4	21,29
1082,8	15,662
1083,2	10,948
1083,6	3,805
1084	0,776
1084,5	-2,967
1084,9	-1,824
1085,3	0,69
1085,7	-1,824
1086,1	-1,795
1086,5	5,948
1086,9	11,805
1087,3	15,976
1087,7	17,348
1088,2	15,576
1088,6	19,233
1089	22,49
1089,4	18,776
1089,8	19,89
1090,2	19,919
1090,6	10,205
1091	14,033
1091,4	15,548
1091,9	18,662
1092,3	14,89
1092,7	6,405
1093,1	2,319
1093,5	2,633
1093,9	3,805
1094,3	5,776
1094,7	3,776
1095,1	5,605
1095,5	11,233
1096	11,262
1096,4	16,319
1096,8	12,262
1097,2	8,176
1097,6	7,148
1098	9,719
1098,4	9,062
1098,8	12,719
1099,2	12,576
1099,6	12,862
1100,1	15,548
1100,5	15,662
1100,9	12,919
1101,3	11,233
1101,7	12,633
1102,1	14,919
1102,5	17,176
1102,9	11,462
1103,3	8,548
1103,7	10,605
1104,2	11,633
1104,6	10,119
1105	8,633
1105,4	5,976
1105,8	7,805
1106,2	9,548
1106,6	5,948
1107	3,69
1107,4	2,5
1107,8	0,233
1108,3	-0,417
