Data from Subt2_294.txt Node
Date: Sat Aug 26 19:10:58 MSK 2023
User: vat
Spectrometer: MAYP114033
Trigger mode: 0
Integration Time (sec): 1,000000E0
Scans to average: 5
Electric dark correction enabled: true
Nonlinearity correction enabled: false
Boxcar width: 3
XAxis mode: Wavelengths
Number of Pixels in Spectrum: 2068
>>>>>Begin Spectral Data<<<<<
199,4	0,433
199,9	4,253
200,4	4,3
200,8	5,476
201,3	4,076
201,8	3,076
202,2	2,276
202,7	6,019
203,2	1,933
203,6	0,905
204,1	-3,267
204,6	-1,952
205	1,476
205,5	2,39
206	-0,095
206,4	0,476
206,9	2,448
207,4	7,133
207,8	5,362
208,3	4,876
208,8	7,59
209,2	9,619
209,7	13,733
210,2	14,705
210,6	13,048
211,1	18,762
211,5	15,705
212	16,019
212,5	12,962
212,9	7,99
213,4	6,162
213,9	6,448
214,3	7,248
214,8	10,276
215,3	5,505
215,7	8,105
216,2	10,733
216,7	13,276
217,1	9,419
217,6	9,905
218,1	8,59
218,5	9,133
219	-0,838
219,5	2,276
219,9	-2,467
220,4	7,79
220,9	2,276
221,3	2,705
221,8	6,648
222,3	14,733
222,7	15,048
223,2	15,619
223,6	11,733
224,1	14,333
224,6	16,762
225	14,676
225,5	17,105
226	15,048
226,4	19,019
226,9	18,048
227,4	16,276
227,8	10,59
228,3	11,162
228,8	7,219
229,2	7,99
229,7	6,333
230,2	7,105
230,6	14,619
231,1	21,99
231,5	20,905
232	23,133
232,5	21,79
232,9	24,019
233,4	23,419
233,9	17,248
234,3	14,333
234,8	14,705
235,3	9,705
235,7	10,362
236,2	7,333
236,7	8,105
237,1	11,733
237,6	7,79
238,1	7,819
238,5	5,762
239	5,819
239,4	8,905
239,9	9,133
240,4	8,048
240,8	12,79
241,3	10,562
241,8	16,105
242,2	15,248
242,7	11,39
243,2	6,733
243,6	-1,21
244,1	0,533
244,6	2,133
245	3,076
245,5	4,276
245,9	2,762
246,4	3,276
246,9	10,99
247,3	8,676
247,8	9,99
248,3	15,276
248,7	15,133
249,2	17,933
249,7	19,19
250,1	18,248
250,6	15,99
251	18,276
251,5	15,762
252	14,019
252,4	15,419
252,9	16,076
253,4	11,933
253,8	13,705
254,3	12,419
254,8	11,305
255,2	9,362
255,7	6,133
256,1	2,876
256,6	4,105
257,1	5,962
257,5	2,99
258	-1,781
258,5	1,876
258,9	3,276
259,4	3,448
259,9	9,333
260,3	4,305
260,8	4,133
261,2	10,19
261,7	9,248
262,2	7,162
262,6	8,305
263,1	7,305
263,6	9,105
264	10,19
264,5	9,962
264,9	11,162
265,4	12,59
265,9	12,676
266,3	12,676
266,8	14,762
267,3	13,619
267,7	9,876
268,2	7,59
268,7	9,448
269,1	10,676
269,6	5,39
270	8,962
270,5	6,048
271	9,676
271,4	12,533
271,9	8,19
272,4	12,133
272,8	16,533
273,3	9,676
273,7	16,505
274,2	14,133
274,7	13,876
275,1	16,562
275,6	13,39
276,1	10,333
276,5	15,99
277	10,505
277,4	12,676
277,9	12,133
278,4	12,619
278,8	13,762
279,3	16,705
279,8	16,448
280,2	19,019
280,7	15,133
281,1	11,476
281,6	12,505
282,1	9,162
282,5	4,676
283	1,39
283,4	-1,124
283,9	0,962
284,4	6,248
284,8	6,162
285,3	7,448
285,8	13,19
286,2	13,533
286,7	18,076
287,1	17,619
287,6	16,39
288,1	12,705
288,5	17,733
289	14,533
289,5	16,619
289,9	11,39
290,4	14,248
290,8	13,276
291,3	17,619
291,8	13,448
292,2	9,533
292,7	13,133
293,1	15,133
293,6	16,59
294,1	18,59
294,5	19,648
295	20,99
295,5	22,476
295,9	19,648
296,4	18,248
296,8	12,419
297,3	10,219
297,8	0,162
298,2	-1,095
298,7	1,733
299,1	1,076
299,6	-0,21
300,1	3,705
300,5	4,219
301	15,562
301,5	17,505
301,9	16,79
302,4	11,705
302,8	14,219
303,3	8,733
303,8	4,905
304,2	-0,781
304,7	-4,524
305,1	-8,61
305,6	-3,324
306,1	7,162
306,5	13,419
307	20,705
307,4	23,733
307,9	24,933
308,4	27,533
308,8	20,905
309,3	11,962
309,8	8,419
310,2	4,333
310,7	-1,552
311,1	0,876
311,6	0,59
312,1	4,276
312,5	6,505
313	9,105
313,4	7,219
313,9	14,305
314,4	12,905
314,8	13,79
315,3	12,648
315,7	8,333
316,2	1,39
316,7	2,648
317,1	3,019
317,6	2,162
318	7,619
318,5	6,99
319	7,276
319,4	14,362
319,9	17,762
320,3	15,133
320,8	14,019
321,3	8,619
321,7	10,619
322,2	11,705
322,6	12,676
323,1	9,305
323,6	11,048
324	11,162
324,5	14,762
324,9	16,105
325,4	16,019
325,9	16,562
326,3	17,505
326,8	17,448
327,2	15,076
327,7	13,133
328,2	12,505
328,6	11,733
329,1	4,79
329,5	5,076
330	3,448
330,5	9,39
330,9	10,276
331,4	12,819
331,8	14,819
332,3	20,448
332,8	21,533
333,2	20,39
333,7	21,39
334,1	20,505
334,6	16,019
335,1	9,962
335,5	8,076
336	3,048
336,4	9,133
336,9	12,276
337,4	14,848
337,8	18,419
338,3	22,362
338,7	24,505
339,2	27,99
339,7	25,562
340,1	19,676
340,6	16,762
341	12,162
341,5	13,962
342	13,048
342,4	10,105
342,9	8,648
343,3	11,39
343,8	11,19
344,2	12,305
344,7	18,905
345,2	15,305
345,6	18,619
346,1	24,848
346,5	17,848
347	15,162
347,5	15,876
347,9	12,59
348,4	12,733
348,8	11,905
349,3	6,762
349,8	11,448
350,2	20,048
350,7	15,505
351,1	12,305
351,6	18,762
352	24,99
352,5	26,876
353	35,876
353,4	36,59
353,9	55,362
354,3	69,105
354,8	75,619
355,3	90,448
355,7	111,19
356,2	129,019
356,6	151,876
357,1	176,819
357,5	207,305
358	243,419
358,5	279,533
358,9	321,248
359,4	369,505
359,8	425,876
360,3	488,819
360,8	550,19
361,2	624,162
361,7	709,733
362,1	805,505
362,6	905,419
363	1008,99
363,5	1117,562
364	1243,876
364,4	1373,248
364,9	1497,79
365,3	1615,848
365,8	1733,933
366,3	1845,876
366,7	1945,59
367,2	2034,133
367,6	2100,362
368,1	2147,933
368,5	2181,019
369	2199,133
369,5	2205,933
369,9	2190,619
370,4	2156,133
370,8	2107,162
371,3	2048,819
371,7	1976,79
372,2	1891,705
372,7	1795,105
373,1	1697,676
373,6	1593,619
374	1499,448
374,5	1402,276
374,9	1306,248
375,4	1216,648
375,9	1129,962
376,3	1045,39
376,8	963,333
377,2	884,048
377,7	808,362
378,2	742,105
378,6	679,39
379,1	623,733
379,5	577,105
380	538,933
380,4	495,619
380,9	457,676
381,4	421,962
381,8	388,133
382,3	359,076
382,7	330,419
383,2	305,19
383,6	285,933
384,1	267,705
384,6	254,448
385	239,676
385,5	222,79
385,9	206,676
386,4	190,533
386,8	175,819
387,3	166,876
387,7	151,419
388,2	142,019
388,7	134,648
389,1	128,276
389,6	121,99
390	119,276
390,5	113,676
390,9	113,79
391,4	104,476
391,9	95,59
392,3	91,448
392,8	84,19
393,2	76,848
393,7	69,848
394,1	63,59
394,6	67,362
395,1	67,79
395,5	63,676
396	64,59
396,4	63,476
396,9	61,448
397,3	62,248
397,8	56,448
398,2	55,219
398,7	53,648
399,2	51,39
399,6	50,048
400,1	50,819
400,5	43,362
401	41,848
401,4	33,533
401,9	36,448
402,4	39,276
402,8	34,133
403,3	37,362
403,7	35,705
404,2	36,619
404,6	42,962
405,1	40,448
405,5	37,533
406	42,933
406,5	34,133
406,9	43,733
407,4	42,79
407,8	46,705
408,3	48,105
408,7	43,676
409,2	46,076
409,6	52,848
410,1	54,933
410,6	62,533
411	61,733
411,5	60,59
411,9	67,505
412,4	69,905
412,8	70,962
413,3	68,076
413,7	64,876
414,2	64,448
414,7	71,762
415,1	76,162
415,6	78,333
416	82,076
416,5	84,619
416,9	84,848
417,4	86,79
417,8	92,79
418,3	96,505
418,8	97,305
419,2	98,59
419,7	99,276
420,1	102,39
420,6	105,933
421	101,133
421,5	101,99
421,9	104,219
422,4	105,019
422,8	108,248
423,3	111,905
423,8	108,419
424,2	106,562
424,7	102,619
425,1	104,105
425,6	111,562
426	108,619
426,5	112,562
426,9	118,162
427,4	113,59
427,9	111,133
428,3	110,533
428,8	104,019
429,2	104,248
429,7	99,133
430,1	98,79
430,6	105,676
431	108,705
431,5	109,733
431,9	107,848
432,4	107,876
432,8	108,276
433,3	110,533
433,8	109,533
434,2	111,99
434,7	114,848
435,1	116,79
435,6	120,562
436	125,876
436,5	127,848
436,9	130,762
437,4	131,333
437,8	132,133
438,3	142,619
438,8	146,048
439,2	146,619
439,7	151,79
440,1	160,219
440,6	176,448
441	182,476
441,5	187,162
441,9	197,133
442,4	202,019
442,8	206,733
443,3	213,962
443,7	220,562
444,2	231,448
444,7	239,019
445,1	251,076
445,6	265,305
446	275,876
446,5	283,019
446,9	286,619
447,4	294,248
447,8	306,333
448,3	314,333
448,7	325,962
449,2	341,933
449,6	358,648
450,1	368,39
450,6	382,562
451	398,705
451,5	414,333
451,9	436,59
452,4	452,619
452,8	467,676
453,3	492,076
453,7	505,562
454,2	523,048
454,6	540,19
455,1	550,905
455,5	567,39
456	584,762
456,4	597,476
456,9	620,019
457,3	636,162
457,8	649,562
458,3	672,933
458,7	690,219
459,2	714,79
459,6	734,79
460,1	761,219
460,5	778,276
461	810,19
461,4	825,362
461,9	852,048
462,3	873,39
462,8	900,59
463,2	918,276
463,7	952,076
464,1	974,59
464,6	1005,105
465	1035,705
465,5	1061,419
466	1091,876
466,4	1122,933
466,9	1153,505
467,3	1181,762
467,8	1213,162
468,2	1239,133
468,7	1272,362
469,1	1303,762
469,6	1332,505
470	1360,019
470,5	1390,619
470,9	1416,533
471,4	1442,019
471,8	1468,219
472,3	1499,99
472,7	1535,962
473,2	1560,619
473,6	1591,733
474,1	1627,048
474,5	1660,276
475	1694,933
475,4	1718,419
475,9	1743,476
476,4	1776,962
476,8	1801,676
477,3	1824,648
477,7	1852,848
478,2	1874,505
478,6	1899,619
479,1	1923,448
479,5	1947,905
480	1971,333
480,4	2002,333
480,9	2024,333
481,3	2050,048
481,8	2079,733
482,2	2102,133
482,7	2121,733
483,1	2147,59
483,6	2165,562
484	2187,39
484,5	2220,048
484,9	2236,533
485,4	2257,19
485,8	2278,39
486,3	2297,705
486,7	2317,676
487,2	2341,362
487,6	2345,962
488,1	2367,533
488,5	2377,533
489	2396,219
489,4	2407,133
489,9	2412,048
490,4	2417,562
490,8	2435,076
491,3	2446,762
491,7	2460,533
492,2	2477,562
492,6	2494,276
493,1	2514,905
493,5	2527,162
494	2527,19
494,4	2535,733
494,9	2550,362
495,3	2555,533
495,8	2563,533
496,2	2567,219
496,7	2575,305
497,1	2591,476
497,6	2597,648
498	2606,19
498,5	2612,019
498,9	2614,019
499,4	2617,276
499,8	2625,819
500,3	2631,333
500,7	2631,819
501,2	2632,533
501,6	2627,705
502,1	2630,848
502,5	2638,933
503	2639,848
503,4	2638,419
503,9	2640,505
504,3	2643,962
504,8	2648,762
505,2	2650,105
505,7	2647,133
506,1	2650,162
506,6	2647,705
507	2648,419
507,5	2644,162
507,9	2638,19
508,4	2639,59
508,8	2638,962
509,3	2634,705
509,7	2641,105
510,2	2643,048
510,6	2640,733
511,1	2644,162
511,5	2643,533
512	2648,19
512,4	2648,248
512,9	2637,419
513,3	2636,476
513,8	2636,133
514,2	2634,448
514,7	2630,819
515,1	2626,59
515,6	2620,533
516	2621,19
516,5	2617,048
516,9	2617,733
517,4	2618,133
517,8	2618,99
518,3	2614,733
518,7	2609,019
519,2	2612,276
519,6	2612,905
520,1	2614,648
520,5	2610,505
521	2603,562
521,4	2604,333
521,9	2607,19
522,3	2603,562
522,8	2599,419
523,2	2597,962
523,7	2604,505
524,1	2606,162
524,6	2603,676
525	2605,019
525,5	2600,962
525,9	2602,019
526,4	2597,762
526,8	2590,762
527,3	2591,848
527,7	2596,505
528,2	2601,248
528,6	2602,276
529,1	2601,019
529,5	2607,448
530	2607,076
530,4	2607,762
530,9	2610,476
531,3	2608,333
531,8	2608,619
532,2	2612,99
532,6	2610,105
533,1	2607,733
533,5	2608,305
534	2602,276
534,4	2603,219
534,9	2608,305
535,3	2604,133
535,8	2601,819
536,2	2612,019
536,7	2620,19
537,1	2626,133
537,6	2624,362
538	2627,248
538,5	2638,79
538,9	2638,79
539,4	2643,819
539,8	2640,419
540,3	2643,848
540,7	2648,676
541,2	2647,39
541,6	2646,048
542,1	2656,448
542,5	2657,19
543	2659,819
543,4	2659,219
543,9	2668,219
544,3	2677,219
544,8	2676,733
545,2	2674,705
545,7	2669,819
546,1	2675,905
546,5	2679,676
547	2676,533
547,4	2677,505
547,9	2679,905
548,3	2686,448
548,8	2698,276
549,2	2701,105
549,7	2704,79
550,1	2711,219
550,6	2715,305
551	2718,333
551,5	2719,79
551,9	2717,562
552,4	2717,99
552,8	2719,619
553,3	2719,733
553,7	2715,819
554,2	2718,848
554,6	2721,476
555,1	2729,905
555,5	2736,59
555,9	2743,048
556,4	2743,419
556,8	2745,562
557,3	2748,019
557,7	2754,59
558,2	2748,162
558,6	2752,276
559,1	2746,648
559,5	2747,476
560	2759,419
560,4	2761,219
560,9	2761,876
561,3	2768,533
561,8	2763,133
562,2	2773,105
562,7	2777,762
563,1	2777,19
563,6	2778,162
564	2777,905
564,4	2774,676
564,9	2781,39
565,3	2782,448
565,8	2788,533
566,2	2794,162
566,7	2798,819
567,1	2798,533
567,6	2805,048
568	2803,99
568,5	2804,248
568,9	2802,59
569,4	2799,533
569,8	2797,333
570,3	2799,19
570,7	2795,733
571,1	2794,705
571,6	2794,505
572	2793,79
572,5	2794,99
572,9	2796,705
573,4	2800,39
573,8	2804,448
574,3	2804,562
574,7	2804,905
575,2	2801,019
575,6	2795,819
576,1	2798,105
576,5	2794,505
576,9	2789,676
577,4	2788,648
577,8	2780,248
578,3	2777,933
578,7	2774,048
579,2	2770,19
579,6	2770,905
580,1	2760,105
580,5	2756,533
581	2761,933
581,4	2763,733
581,9	2757,905
582,3	2757,619
582,7	2753,619
583,2	2757,162
583,6	2750,533
584,1	2740,648
584,5	2730,59
585	2730,562
585,4	2716,105
585,9	2702,79
586,3	2701,333
586,8	2699,448
587,2	2694,876
587,6	2697,133
588,1	2696,733
588,5	2696,533
589	2694,876
589,4	2690,39
589,9	2687,762
590,3	2685,533
590,8	2680,962
591,2	2679,248
591,7	2684,419
592,1	2690,39
592,5	2693,619
593	2684,562
593,4	2679,248
593,9	2670,876
594,3	2662,419
594,8	2648,276
595,2	2638,962
595,7	2626,076
596,1	2624,19
596,6	2619,219
597	2614,219
597,4	2613,762
597,9	2610,762
598,3	2604,676
598,8	2600,39
599,2	2601,105
599,7	2600,362
600,1	2599,676
600,6	2589,733
601	2586,505
601,4	2592,533
601,9	2586,762
602,3	2577,333
602,8	2568,562
603,2	2560,59
603,7	2552,79
604,1	2546,276
604,6	2530,705
605	2522,619
605,4	2520,962
605,9	2509,505
606,3	2500,733
606,8	2495,219
607,2	2487,476
607,7	2472,276
608,1	2466,733
608,6	2460,562
609	2463,219
609,4	2458,476
609,9	2451,476
610,3	2445,162
610,8	2446,248
611,2	2441,448
611,7	2424,305
612,1	2411,048
612,6	2405,133
613	2400,505
613,4	2389,448
613,9	2378,79
614,3	2364,476
614,8	2364,362
615,2	2356,105
615,7	2347,362
616,1	2338,962
616,6	2331,876
617	2323,362
617,4	2321,333
617,9	2313,733
618,3	2309,905
618,8	2306,448
619,2	2294,019
619,7	2291,962
620,1	2280,448
620,5	2275,733
621	2260,248
621,4	2250,219
621,9	2237,476
622,3	2227,59
622,8	2215,676
623,2	2210,819
623,6	2198,562
624,1	2192,819
624,5	2180,476
625	2173,019
625,4	2167,419
625,9	2156,933
626,3	2145,648
626,8	2133,048
627,2	2123,705
627,6	2108,962
628,1	2096,076
628,5	2089,905
629	2078,048
629,4	2068,19
629,9	2057,476
630,3	2042,848
630,7	2040,133
631,2	2036,905
631,6	2022,59
632,1	2014,79
632,5	2003,79
633	2001,276
633,4	1995,333
633,8	1985,019
634,3	1966,819
634,7	1959,962
635,2	1949,019
635,6	1944,99
636,1	1934,59
636,5	1922,905
636,9	1908,848
637,4	1901,048
637,8	1885,705
638,3	1872,533
638,7	1858,99
639,2	1847,562
639,6	1839,905
640	1832,448
640,5	1827,533
640,9	1818,362
641,4	1810,019
641,8	1804,048
642,2	1797,19
642,7	1797,048
643,1	1796,876
643,6	1787,19
644	1782,676
644,5	1777,562
644,9	1770,305
645,3	1757,105
645,8	1741,648
646,2	1732,848
646,7	1721,19
647,1	1711,419
647,6	1708,133
648	1697,048
648,4	1691,305
648,9	1685,39
649,3	1672,705
649,8	1666,59
650,2	1661,762
650,6	1652,333
651,1	1646,733
651,5	1639,905
652	1627,59
652,4	1615,99
652,9	1608,419
653,3	1595,79
653,7	1585,162
654,2	1579,99
654,6	1565,076
655,1	1562,819
655,5	1566,733
655,9	1560,333
656,4	1555,848
656,8	1551,248
657,3	1541,305
657,7	1540,276
658,2	1530,848
658,6	1511,248
659	1502,276
659,5	1492,362
659,9	1485,39
660,4	1477,476
660,8	1466,333
661,2	1454,448
661,7	1450,105
662,1	1440,905
662,6	1432,876
663	1423,105
663,4	1411,562
663,9	1408,133
664,3	1401,162
664,8	1387,705
665,2	1379,133
665,6	1367,819
666,1	1353,276
666,5	1347,676
667	1336,076
667,4	1326,762
667,9	1327,562
668,3	1316,505
668,7	1309,819
669,2	1308,476
669,6	1303,762
670,1	1299,162
670,5	1291,562
670,9	1282,133
671,4	1276,876
671,8	1271,848
672,3	1264,933
672,7	1255,676
673,1	1244,248
673,6	1232,362
674	1223,305
674,5	1217,933
674,9	1209,619
675,3	1199,762
675,8	1192,39
676,2	1183,99
676,7	1183,876
677,1	1176,762
677,5	1165,819
678	1165,276
678,4	1164,105
678,9	1150,533
679,3	1144,39
679,7	1134,133
680,2	1123,333
680,6	1115,219
681,1	1103,39
681,5	1092,79
681,9	1091,848
682,4	1087,733
682,8	1079,076
683,3	1073,819
683,7	1071,619
684,1	1061,562
684,6	1049,39
685	1038,105
685,5	1028,476
685,9	1020,19
686,3	1010,962
686,8	1003,476
687,2	997,019
687,7	993,762
688,1	985,819
688,5	981,162
689	980,99
689,4	979,676
689,9	972,99
690,3	969,076
690,7	961,39
691,2	962,19
691,6	953,476
692	947,848
692,5	945,105
692,9	939,933
693,4	935,048
693,8	931,59
694,2	921,705
694,7	917,19
695,1	905,962
695,6	895,419
696	891,962
696,4	887,248
696,9	881,676
697,3	877,562
697,8	875,333
698,2	872,505
698,6	871,448
699,1	864,533
699,5	861,048
699,9	853,533
700,4	847,305
700,8	841,248
701,3	836,648
701,7	830,219
702,1	822,362
702,6	812,39
703	811,019
703,5	807,533
703,9	801,19
704,3	797,19
704,8	790,133
705,2	783,076
705,6	779,076
706,1	772,762
706,5	763,476
707	760,562
707,4	758,933
707,8	751,248
708,3	753,305
708,7	749,448
709,2	743,933
709,6	741,476
710	743,39
710,5	733,59
710,9	729,19
711,3	719,562
711,8	716,305
712,2	711,048
712,7	707,133
713,1	697,99
713,5	697,076
714	696,248
714,4	692,876
714,8	689,105
715,3	680,276
715,7	676,648
716,2	665,505
716,6	662,276
717	654,905
717,5	651,648
717,9	646,619
718,3	644,105
718,8	636,048
719,2	634,533
719,7	626,705
720,1	625,648
720,5	624,848
721	617,219
721,4	615,219
721,8	618,59
722,3	611,905
722,7	610,476
723,2	601,333
723,6	588,533
724	583,619
724,5	581,162
724,9	572,39
725,3	573,105
725,8	570,133
726,2	567,619
726,7	568,59
727,1	568,048
727,5	562,048
728	555,505
728,4	553,362
728,8	544,476
729,3	540,676
729,7	536,676
730,1	531,648
730,6	532,733
731	529,648
731,5	519,419
731,9	511,79
732,3	509,505
732,8	509,562
733,2	508,048
733,6	499,933
734,1	501,333
734,5	496,933
734,9	503,162
735,4	505,276
735,8	497,79
736,3	494,733
736,7	490,476
737,1	485,819
737,6	487,019
738	482,305
738,4	475,533
738,9	476,248
739,3	477,619
739,7	477,39
740,2	474,333
740,6	475,79
741,1	472,79
741,5	466,476
741,9	462,59
742,4	459,876
742,8	459,533
743,2	457,819
743,7	448,905
744,1	443,419
744,5	441,848
745	436,305
745,4	430,448
745,8	426,876
746,3	427,105
746,7	426,105
747,2	426,162
747,6	430,705
748	434,048
748,5	434,99
748,9	428,79
749,3	423,448
749,8	426,505
750,2	426,848
750,6	422,876
751,1	419,162
751,5	410,505
751,9	412,648
752,4	411,505
752,8	405,848
753,3	399,39
753,7	396,676
754,1	385,362
754,6	383,162
755	378,362
755,4	371,476
755,9	366,59
756,3	362,476
756,7	358,448
757,2	366,048
757,6	366,162
758	362,705
758,5	365,019
758,9	364,505
759,3	367,19
759,8	363,648
760,2	359,562
760,6	353,019
761,1	354,362
761,5	348,305
761,9	345,79
762,4	341,848
762,8	337,933
763,3	330,648
763,7	334,248
764,1	328,533
764,6	332,648
765	332,819
765,4	331,762
765,9	330,705
766,3	335,219
766,7	327,448
767,2	325,819
767,6	321,905
768	316,876
768,5	312,648
768,9	313,533
769,3	308,562
769,8	310,39
770,2	308,39
770,6	307,619
771,1	309,162
771,5	307,733
771,9	306,276
772,4	303,162
772,8	301,762
773,2	302,476
773,7	295,133
774,1	290,819
774,5	282,105
775	277,419
775,4	282,276
775,8	280,848
776,3	277,162
776,7	276,105
777,1	272,562
777,6	278,562
778	282,905
778,4	275,99
778,9	275,19
779,3	274,248
779,7	275,19
780,2	274,562
780,6	273,762
781	265,133
781,5	259,933
781,9	257,848
782,3	250,905
782,8	250,448
783,2	246,99
783,6	244,248
784,1	244,019
784,5	246,905
784,9	242,19
785,4	249,933
785,8	248,962
786,2	251,79
786,7	248,59
787,1	248,105
787,5	246,219
788	242,79
788,4	240,276
788,8	234,162
789,3	227,648
789,7	228,905
790,1	227,705
790,6	229,219
791	227,79
791,4	224,276
791,9	221,505
792,3	217,619
792,7	216,19
793,2	208,59
793,6	203,048
794	204,533
794,5	203,162
794,9	205,733
795,3	210,076
795,8	205,048
796,2	209,248
796,6	207,933
797,1	205,133
797,5	197,076
797,9	192,905
798,4	188,362
798,8	190,676
799,2	190,219
799,7	189,79
800,1	189,448
800,5	194,819
801	198,105
801,4	194,876
801,8	190,933
802,2	188,848
802,7	186,676
803,1	188,59
803,5	185,876
804	180,133
804,4	179,305
804,8	181,219
805,3	178,219
805,7	175,905
806,1	167,333
806,6	166,476
807	165,019
807,4	166,105
807,9	159,219
808,3	160,562
808,7	161,79
809,2	164,848
809,6	165,562
810	166,105
810,4	166,048
810,9	168,648
811,3	166,076
811,7	163,933
812,2	168,19
812,6	165,733
813	167,19
813,5	165,619
813,9	164,59
814,3	160,162
814,8	158,105
815,2	149,676
815,6	148,476
816,1	148,19
816,5	147,219
816,9	146,248
817,3	148,019
817,8	152,79
818,2	154,219
818,6	149,133
819,1	145,79
819,5	142,105
819,9	143,933
820,4	143,248
820,8	133,819
821,2	130,762
821,7	134,59
822,1	136,533
822,5	143,448
822,9	139,848
823,4	138,533
823,8	145,133
824,2	147,219
824,7	139,448
825,1	131,876
825,5	123,219
826	116,39
826,4	115,533
826,8	107,819
827,3	104,476
827,7	108,305
828,1	110,533
828,5	113,762
829	112,79
829,4	111,819
829,8	110,105
830,3	111,19
830,7	107,876
831,1	103,533
831,6	101,19
832	107,019
832,4	102,019
832,8	104,876
833,3	105,305
833,7	104,819
834,1	104,933
834,6	106,105
835	103,048
835,4	107,648
835,8	102,476
836,3	97,333
836,7	96,276
837,1	100,476
837,6	98,39
838	96,248
838,4	93,962
838,9	96,476
839,3	98,448
839,7	100,39
840,1	89,79
840,6	90,276
841	91,533
841,4	90,533
841,9	90,962
842,3	85,562
842,7	84,276
843,1	88,819
843,6	87,162
844	88,133
844,4	90,59
844,9	91,219
845,3	96,562
845,7	96,762
846,2	96,419
846,6	95,59
847	92,819
847,4	87,333
847,9	87,99
848,3	85,19
848,7	84,276
849,2	83,076
849,6	76,19
850	78,448
850,4	81,333
850,9	81,448
851,3	80,676
851,7	80,876
852,2	78,705
852,6	86,819
853	87,59
853,4	86,048
853,9	79,19
854,3	78,876
854,7	76,705
855,2	80,248
855,6	76,848
856	74,962
856,4	74,762
856,9	73,99
857,3	73,105
857,7	74,133
858,2	76,476
858,6	73,762
859	69,848
859,4	70,276
859,9	70,905
860,3	69,962
860,7	68,562
861,1	65,476
861,6	66,819
862	66,39
862,4	59,676
862,9	63,562
863,3	64,505
863,7	63,476
864,1	62,533
864,6	61,162
865	62,076
865,4	67,248
865,9	64,162
866,3	60,105
866,7	58,733
867,1	54,762
867,6	55,162
868	50,676
868,4	44,762
868,8	47,962
869,3	49,476
869,7	54,39
870,1	53,876
870,6	52,248
871	3,59
871,4	8,705
871,8	0,876
872,3	2,648
872,7	-3,038
873,1	-2,352
873,5	-3,381
874	47,933
874,4	48,819
874,8	49,533
875,3	48,59
875,7	47,076
876,1	51,619
876,5	51,048
877	50,305
877,4	43,99
877,8	48,162
878,2	50,305
878,7	52,933
879,1	50,248
879,5	55,933
879,9	56,99
880,4	58,705
880,8	57,448
881,2	50,905
881,7	51,876
882,1	48,448
882,5	43,305
882,9	40,276
883,4	40,762
883,8	43,162
884,2	45,476
884,6	41,448
885,1	45,362
885,5	48,648
885,9	47,705
886,3	47,933
886,8	39,505
887,2	38,905
887,6	39,362
888	39,59
888,5	35,333
888,9	33,676
889,3	31,476
889,8	32,533
890,2	34,305
890,6	34,59
891	32,076
891,5	31,962
891,9	36,648
892,3	39,305
892,7	41,99
893,2	38,905
893,6	40,676
894	42,962
894,4	38,648
894,9	37,762
895,3	37,276
895,7	39,048
896,1	36,819
896,6	35,705
897	34,619
897,4	42,933
897,8	42,19
898,3	41,562
898,7	38,39
899,1	39,476
899,5	37,305
900	32,305
900,4	27,162
900,8	25,105
901,2	21,333
901,7	24,362
902,1	28,362
902,5	33,676
902,9	36,219
903,4	35,019
903,8	38,905
904,2	40,333
904,6	39,79
905,1	34,448
905,5	32,105
905,9	34,162
906,3	38,562
906,8	41,219
907,2	45,79
907,6	45,133
908	53,048
908,5	48,162
908,9	40,676
909,3	40,076
909,7	34,076
910,2	32,276
910,6	32,448
911	24,476
911,4	28,248
911,9	33,105
912,3	32,762
912,7	32,676
913,1	33,533
913,6	27,848
914	31,248
914,4	25,762
914,8	29,733
915,3	26,505
915,7	27,305
916,1	27,333
916,5	30,762
916,9	28,905
917,4	33,619
917,8	32,619
918,2	29,676
918,6	26,848
919,1	26,276
919,5	24,79
919,9	23,59
920,3	16,676
920,8	11,305
921,2	17,076
921,6	17,848
922	14,59
922,5	11,848
922,9	13,076
923,3	20,105
923,7	23,162
924,2	19,762
924,6	21,39
925	24,705
925,4	25,762
925,8	26,419
926,3	22,848
926,7	17,876
927,1	20,048
927,5	16,133
928	14,676
928,4	15,733
928,8	16,076
929,2	17,933
929,7	21,362
930,1	19,133
930,5	22,648
930,9	25,648
931,3	27,905
931,8	26,905
932,2	25,933
932,6	25,362
933	22,105
933,5	23,562
933,9	20,048
934,3	20,076
934,7	18,162
935,2	21,848
935,6	22,733
936	22,962
936,4	18,676
936,8	17,933
937,3	15,533
937,7	17,876
938,1	18,162
938,5	12,362
939	16,505
939,4	21,076
939,8	21,019
940,2	21,276
940,6	25,305
941,1	20,133
941,5	28,648
941,9	26,848
942,3	23,333
942,8	21,562
943,2	23,848
943,6	18,79
944	21,962
944,4	18,305
944,9	18,105
945,3	17,619
945,7	15,562
946,1	8,276
946,6	6,133
947	3,362
947,4	9,105
947,8	10,705
948,2	9,162
948,7	12,362
949,1	15,848
949,5	21,048
949,9	27,505
950,3	20,419
950,8	20,333
951,2	20,19
951,6	18,562
952	24,219
952,5	21,676
952,9	17,905
953,3	18,648
953,7	17,476
954,1	23,19
954,6	27,79
955	26,19
955,4	24,933
955,8	28,19
956,2	28,276
956,7	30,39
957,1	24,59
957,5	22,79
957,9	20,305
958,3	18,676
958,8	16,39
959,2	17,648
959,6	18,648
960	18,39
960,5	20,19
960,9	23,99
961,3	20,705
961,7	16,676
962,1	15,819
962,6	15,705
963	17,562
963,4	10,133
963,8	8,362
964,2	12,19
964,7	13,933
965,1	18,048
965,5	14,619
965,9	13,705
966,3	18,762
966,8	16,619
967,2	18,276
967,6	18,162
968	9,933
968,4	10,362
968,9	11,505
969,3	15,362
969,7	11,819
970,1	13,276
970,5	11,419
971	16,162
971,4	16,333
971,8	19,648
972,2	14,619
972,6	17,79
973,1	13,419
973,5	18,676
973,9	19,962
974,3	21,333
974,7	18,048
975,2	17,705
975,6	12,848
976	17,219
976,4	9,99
976,8	9,219
977,3	6,848
977,7	3,39
978,1	3,59
978,5	6,733
978,9	1,105
979,4	2,905
979,8	4,248
980,2	2,048
980,6	0,048
981	5,876
981,5	5,99
981,9	5,905
982,3	9,533
982,7	7,019
983,1	7,99
983,6	12,333
984	10,133
984,4	12,476
984,8	17,333
985,2	13,905
985,6	10,048
986,1	13,419
986,5	14,162
986,9	9,219
987,3	10,876
987,7	13,19
988,2	11,133
988,6	12,505
989	12,848
989,4	13,819
989,8	12,819
990,3	10,133
990,7	6,648
991,1	9,705
991,5	14,39
991,9	17,476
992,3	19,876
992,8	23,562
993,2	22,333
993,6	23,59
994	23,305
994,4	20,362
994,9	14,99
995,3	12,162
995,7	12,19
996,1	11,733
996,5	10,476
996,9	9,419
997,4	11,219
997,8	8,705
998,2	7,562
998,6	0,219
999	1,505
999,5	-0,781
999,9	-3,067
1000,3	-6,295
1000,7	-5,61
1001,1	-2,724
1001,5	3,648
1002	5,39
1002,4	8,333
1002,8	8,648
1003,2	13,362
1003,6	15,876
1004	12,705
1004,5	7,162
1004,9	8,962
1005,3	2,448
1005,7	6,419
1006,1	3,79
1006,6	2,648
1007	4,59
1007,4	6,276
1007,8	3,019
1008,2	8,905
1008,6	10,819
1009,1	10,619
1009,5	13,39
1009,9	16,333
1010,3	22,505
1010,7	25,19
1011,1	21,676
1011,6	20,762
1012	21,79
1012,4	18,362
1012,8	11,962
1013,2	11,905
1013,6	9,362
1014,1	12,419
1014,5	10,99
1014,9	7,676
1015,3	8,79
1015,7	11,705
1016,1	9,705
1016,6	10,933
1017	9,019
1017,4	8,505
1017,8	7,99
1018,2	8,676
1018,6	7,248
1019,1	6,333
1019,5	6,762
1019,9	6,019
1020,3	7,162
1020,7	10,905
1021,1	9,448
1021,6	10,362
1022	12,619
1022,4	12,19
1022,8	15,162
1023,2	12,019
1023,6	11,733
1024,1	17,448
1024,5	17,048
1024,9	14,333
1025,3	16,59
1025,7	17,39
1026,1	24,362
1026,6	27,505
1027	22,419
1027,4	31,019
1027,8	32,505
1028,2	29,676
1028,6	33,476
1029	29,248
1029,5	29,419
1029,9	29,59
1030,3	16,848
1030,7	15,962
1031,1	18,448
1031,5	10,876
1032	12,076
1032,4	9,876
1032,8	14,733
1033,2	23,219
1033,6	23,362
1034	20,962
1034,4	20,476
1034,9	20,133
1035,3	15,562
1035,7	14,676
1036,1	9,533
1036,5	6,705
1036,9	7,419
1037,4	12,762
1037,8	8,848
1038,2	10,162
1038,6	4,79
1039	12,133
1039,4	21,733
1039,8	16,876
1040,3	17,962
1040,7	14,648
1041,1	18,162
1041,5	24,762
1041,9	19,133
1042,3	12,39
1042,7	16,848
1043,2	15,362
1043,6	15,676
1044	10,79
1044,4	7,219
1044,8	5,448
1045,2	5,619
1045,6	7,876
1046,1	2,905
1046,5	5,819
1046,9	8,448
1047,3	7,019
1047,7	11,562
1048,1	7,819
1048,5	3,705
1049	8,248
1049,4	11,705
1049,8	11,476
1050,2	15,79
1050,6	18,333
1051	26,219
1051,4	27,305
1051,9	23,248
1052,3	30,276
1052,7	27,562
1053,1	20,076
1053,5	17,39
1053,9	14,99
1054,3	16,162
1054,8	28,362
1055,2	21,505
1055,6	25,419
1056	27,076
1056,4	26,533
1056,8	23,133
1057,2	21,162
1057,6	10,99
1058,1	7,933
1058,5	7,476
1058,9	11,248
1059,3	12,133
1059,7	14,819
1060,1	17,99
1060,5	21,933
1061	24,619
1061,4	24,562
1061,8	27,105
1062,2	24,905
1062,6	24,39
1063	23,048
1063,4	18,048
1063,8	14,619
1064,3	11,705
1064,7	8,048
1065,1	9,076
1065,5	5,048
1065,9	6,276
1066,3	9,733
1066,7	10,848
1067,1	10,962
1067,6	9,162
1068	6,476
1068,4	9,79
1068,8	11,105
1069,2	13,733
1069,6	16,933
1070	21,019
1070,4	19,305
1070,9	17,905
1071,3	17,648
1071,7	12,019
1072,1	8,562
1072,5	8,019
1072,9	4,848
1073,3	4,59
1073,7	5,905
1074,2	7,276
1074,6	10,333
1075	7,562
1075,4	6,419
1075,8	6,019
1076,2	10,505
1076,6	12,276
1077	11,076
1077,5	14,162
1077,9	15,19
1078,3	13,762
1078,7	16,333
1079,1	13,733
1079,5	14,305
1079,9	16,133
1080,3	9,476
1080,7	11,533
1081,2	19,276
1081,6	16,819
1082	15,419
1082,4	16,933
1082,8	12,533
1083,2	14,676
1083,6	14,705
1084	4,905
1084,5	6,848
1084,9	7,59
1085,3	-0,724
1085,7	3,676
1086,1	3,333
1086,5	2,933
1086,9	10,305
1087,3	10,79
1087,7	10,933
1088,2	17,819
1088,6	14,362
1089	16,59
1089,4	13,362
1089,8	9,933
1090,2	11,648
1090,6	13,019
1091	15,048
1091,4	18,19
1091,9	18,362
1092,3	22,19
1092,7	20,476
1093,1	21,476
1093,5	23,905
1093,9	20,476
1094,3	22,048
1094,7	20,133
1095,1	18,219
1095,5	21,448
1096	16,933
1096,4	14,905
1096,8	11,448
1097,2	8,648
1097,6	17,048
1098	16,905
1098,4	18,248
1098,8	20,962
1099,2	23,933
1099,6	25,762
1100,1	24,962
1100,5	14,505
1100,9	13,962
1101,3	13,076
1101,7	9,505
1102,1	7,019
1102,5	10,762
1102,9	9,19
1103,3	14,105
1103,7	16,362
1104,2	14,733
1104,6	17,419
1105	15,933
1105,4	16,162
1105,8	16,048
1106,2	11,648
1106,6	8,876
1107	6,762
1107,4	4,9
1107,8	5,173
1108,3	-0,967
