Data from Subt2_241.txt Node
Date: Sat Aug 26 18:57:08 MSK 2023
User: vat
Spectrometer: MAYP114033
Trigger mode: 0
Integration Time (sec): 1,000000E0
Scans to average: 5
Electric dark correction enabled: true
Nonlinearity correction enabled: false
Boxcar width: 3
XAxis mode: Wavelengths
Number of Pixels in Spectrum: 2068
>>>>>Begin Spectral Data<<<<<
199,4	-0,183
199,9	-0,153
200,4	2,3
200,8	4,024
201,3	2,795
201,8	2,481
202,2	0,51
202,7	5,167
203,2	5,852
203,6	3,852
204,1	-0,148
204,6	1,795
205	7,167
205,5	10,367
206	7,395
206,4	8,252
206,9	10,538
207,4	15,138
207,8	11,881
208,3	8,195
208,8	5,452
209,2	5,51
209,7	6,367
210,2	3,424
210,6	3,281
211,1	6,481
211,5	3,052
212	6,395
212,5	8,567
212,9	6,052
213,4	8,195
213,9	6,138
214,3	8,252
214,8	13,31
215,3	10,595
215,7	11,167
216,2	12,624
216,7	11,538
217,1	11,252
217,6	13,052
218,1	7,024
218,5	8,795
219	-0,005
219,5	3,51
219,9	2,51
220,4	10,395
220,9	6,567
221,3	6,71
221,8	6,852
222,3	12,71
222,7	10,338
223,2	11,824
223,6	3,367
224,1	1,31
224,6	7,424
225	1,395
225,5	2,595
226	3,767
226,4	3,738
226,9	3,795
227,4	8,624
227,8	1,081
228,3	4,138
228,8	2,424
229,2	2,681
229,7	2,338
230,2	3,938
230,6	3,452
231,1	10,224
231,5	9,452
232	9,51
232,5	4,824
232,9	5,967
233,4	10,852
233,9	8,91
234,3	7,224
234,8	10,681
235,3	10,167
235,7	14,767
236,2	12,824
236,7	6,31
237,1	5,967
237,6	4,11
238,1	1,795
238,5	-0,548
239	-1,205
239,4	1,081
239,9	2,51
240,4	2,395
240,8	5,395
241,3	4,481
241,8	5,052
242,2	0,538
242,7	-2,49
243,2	-2,69
243,6	-2,662
244,1	0,538
244,6	3,538
245	7,538
245,5	10,91
245,9	9,624
246,4	10,567
246,9	12,281
247,3	8,624
247,8	11,595
248,3	11,395
248,7	10,681
249,2	14,452
249,7	12,624
250,1	13,167
250,6	11,052
251	11,938
251,5	8,367
252	7,538
252,4	8,081
252,9	7,424
253,4	3,881
253,8	7,51
254,3	7,595
254,8	9,995
255,2	6,367
255,7	3,195
256,1	5,452
256,6	7,824
257,1	10,91
257,5	4,052
258	-0,119
258,5	3,71
258,9	6,224
259,4	2,252
259,9	3,71
260,3	-3,948
260,8	-1,548
261,2	1,567
261,7	0,995
262,2	-1,948
262,6	-0,919
263,1	2,052
263,6	4,852
264	9,681
264,5	16,795
264,9	18,71
265,4	20,967
265,9	22,452
266,3	17,881
266,8	18,338
267,3	9,995
267,7	6,338
268,2	6,967
268,7	6,11
269,1	8,481
269,6	6,938
270	8,767
270,5	12,595
271	14,195
271,4	13,938
271,9	12,795
272,4	17,567
272,8	19,452
273,3	17,395
273,7	18,252
274,2	14,11
274,7	13,91
275,1	14,567
275,6	7,852
276,1	10,052
276,5	12,567
277	8,195
277,4	11,195
277,9	7,71
278,4	10,681
278,8	13,738
279,3	11,624
279,8	10,767
280,2	16,595
280,7	16,538
281,1	17,052
281,6	15,452
282,1	13,138
282,5	12,624
283	10,967
283,4	10,167
283,9	8,195
284,4	13,367
284,8	13,967
285,3	14,424
285,8	14,424
286,2	14,738
286,7	15,395
287,1	13,967
287,6	9,338
288,1	8,71
288,5	9,338
289	8,081
289,5	6,424
289,9	3,51
290,4	4,052
290,8	4,595
291,3	4,738
291,8	5,481
292,2	5,024
292,7	5,452
293,1	4,167
293,6	8,167
294,1	9,767
294,5	8,167
295	10,338
295,5	9,024
295,9	9,224
296,4	9,338
296,8	3,652
297,3	-0,49
297,8	-3,605
298,2	-10,033
298,7	-6,805
299,1	-6,662
299,6	-5,776
300,1	-1,405
300,5	2,624
301	8,938
301,5	14,738
301,9	14,624
302,4	14,224
302,8	15,31
303,3	13,624
303,8	6,71
304,2	3,71
304,7	0,252
305,1	-2,719
305,6	-0,405
306,1	6,767
306,5	5,624
307	11,824
307,4	14,167
307,9	15,795
308,4	14,795
308,8	9,224
309,3	1,995
309,8	0,652
310,2	4,881
310,7	-2,319
311,1	-4,548
311,6	-1,605
312,1	6,967
312,5	6,138
313	8,052
313,4	8,452
313,9	16,338
314,4	16,738
314,8	15,967
315,3	10,567
315,7	9,795
316,2	9,938
316,7	4,281
317,1	4,767
317,6	5,824
318	10,052
318,5	8,824
319	11,424
319,4	13,567
319,9	18,481
320,3	16,424
320,8	15,167
321,3	13,852
321,7	13,452
322,2	12,052
322,6	12,795
323,1	10,224
323,6	8,338
324	9,081
324,5	8,767
324,9	12,967
325,4	12,338
325,9	11,195
326,3	9,081
326,8	11,538
327,2	11,138
327,7	10,795
328,2	8,31
328,6	12,138
329,1	5,738
329,5	6,167
330	5,195
330,5	8,852
330,9	9,738
331,4	10,567
331,8	5,795
332,3	10,595
332,8	10,11
333,2	9,967
333,7	9,224
334,1	7,624
334,6	6,738
335,1	4,624
335,5	6,767
336	2,738
336,4	6,424
336,9	8,11
337,4	7,967
337,8	7,195
338,3	12,452
338,7	9,11
339,2	9,881
339,7	9,052
340,1	0,881
340,6	1,11
341	-2,062
341,5	-3,433
342	-3,233
342,4	2,795
342,9	0,624
343,3	0,51
343,8	0,338
344,2	2,852
344,7	6,195
345,2	5,138
345,6	3,081
346,1	5,424
346,5	7,852
347	8,538
347,5	9,367
347,9	8,538
348,4	9,452
348,8	8,681
349,3	7,881
349,8	12,71
350,2	18,71
350,7	16,395
351,1	18,767
351,6	24,881
352	31,481
352,5	39,138
353	41,195
353,4	41,052
353,9	54,852
354,3	61,795
354,8	69,138
355,3	81,024
355,7	89,738
356,2	106,052
356,6	126,538
357,1	144,395
357,5	172,052
358	200,881
358,5	227,224
358,9	262,795
359,4	305,081
359,8	346,91
360,3	399,252
360,8	445,481
361,2	505,967
361,7	580,31
362,1	659,681
362,6	738,652
363	830,51
363,5	923,024
364	1028,681
364,4	1132,367
364,9	1236,224
365,3	1332,652
365,8	1432,538
366,3	1520,824
366,7	1606,224
367,2	1674,681
367,6	1728,31
368,1	1771,195
368,5	1802,424
369	1811,595
369,5	1817,538
369,9	1800,252
370,4	1776,195
370,8	1742,624
371,3	1689,995
371,7	1631,881
372,2	1567,538
372,7	1488,795
373,1	1412,024
373,6	1329,424
374	1247,538
374,5	1162,652
374,9	1080,252
375,4	1003,91
375,9	931,395
376,3	856,738
376,8	787,224
377,2	725,424
377,7	667,995
378,2	613,052
378,6	560,91
379,1	511,624
379,5	475,824
380	446,424
380,4	408,481
380,9	375,538
381,4	344,567
381,8	321,852
382,3	301,338
382,7	281,138
383,2	254,938
383,6	236,024
384,1	220,138
384,6	208,138
385	190,738
385,5	179,738
385,9	161,167
386,4	150,795
386,8	142,795
387,3	133,481
387,7	126,395
388,2	119,51
388,7	106,738
389,1	108,052
389,6	101,595
390	96,052
390,5	95,51
390,9	92,024
391,4	84,481
391,9	78,681
392,3	71,052
392,8	65,367
393,2	56,081
393,7	49,852
394,1	46,224
394,6	47,881
395,1	51,424
395,5	47,452
396	49,481
396,4	53,652
396,9	53,138
397,3	54,51
397,8	54,595
398,2	53,595
398,7	54,91
399,2	51,91
399,6	48,91
400,1	48,395
400,5	36,852
401	30,367
401,4	22,852
401,9	19,824
402,4	22,138
402,8	19,481
403,3	23,167
403,7	28,31
404,2	36,252
404,6	42,395
405,1	42,624
405,5	34,852
406	38,224
406,5	35,881
406,9	38,338
407,4	32,624
407,8	34,624
408,3	36,567
408,7	40,167
409,2	39,938
409,6	39,71
410,1	41,767
410,6	46,252
411	43,538
411,5	43,91
411,9	46,852
412,4	48,91
412,8	49,595
413,3	51,995
413,7	56,71
414,2	59,91
414,7	64,795
415,1	73,31
415,6	76,767
416	82,91
416,5	82,195
416,9	78,767
417,4	82,31
417,8	88,367
418,3	88,424
418,8	91,481
419,2	90,452
419,7	93,052
420,1	92,767
420,6	92,395
421	87,652
421,5	88,252
421,9	92,052
422,4	92,11
422,8	90,824
423,3	92,767
423,8	90,91
424,2	89,881
424,7	90,652
425,1	86,11
425,6	89,681
426	93,138
426,5	98,138
426,9	103,081
427,4	102,452
427,9	95,652
428,3	97,024
428,8	94,567
429,2	93,11
429,7	89,167
430,1	88,624
430,6	94,71
431	99,395
431,5	104,338
431,9	106,224
432,4	108,938
432,8	116,138
433,3	113,424
433,8	113,767
434,2	118,338
434,7	122,481
435,1	127,824
435,6	130,395
436	129,71
436,5	137,51
436,9	138,938
437,4	143,11
437,8	144,224
438,3	148,052
438,8	155,024
439,2	163,681
439,7	173,767
440,1	182,167
440,6	192,367
441	201,224
441,5	211,024
441,9	223,824
442,4	231,452
442,8	238,31
443,3	249,738
443,7	258,481
444,2	264,995
444,7	273,367
445,1	281,852
445,6	295,138
446	311,824
446,5	319,51
446,9	328,195
447,4	341,424
447,8	355,424
448,3	370,195
448,7	385,967
449,2	400,081
449,6	417,795
450,1	434,281
450,6	455,881
451	474,852
451,5	490,71
451,9	507,31
452,4	525,624
452,8	544,91
453,3	570,71
453,7	586,167
454,2	608,052
454,6	624,938
455,1	643,024
455,5	659,052
456	686,881
456,4	700,767
456,9	725,481
457,3	742,224
457,8	763,052
458,3	795,252
458,7	821,281
459,2	841,681
459,6	873,881
460,1	899,452
460,5	928,081
461	965,452
461,4	984,338
461,9	1010,567
462,3	1038,595
462,8	1062,138
463,2	1087,71
463,7	1120,081
464,1	1146,567
464,6	1177,852
465	1210,624
465,5	1242,938
466	1281,31
466,4	1312,738
466,9	1342,081
467,3	1372,538
467,8	1405,195
468,2	1436,91
468,7	1466,138
469,1	1495,081
469,6	1531,11
470	1562,738
470,5	1597,167
470,9	1631,11
471,4	1659,481
471,8	1694,024
472,3	1728,195
472,7	1758,195
473,2	1789,538
473,6	1818,681
474,1	1849,595
474,5	1885,167
475	1922,824
475,4	1953,852
475,9	1987,338
476,4	2021,367
476,8	2059,852
477,3	2097,024
477,7	2130,367
478,2	2159,881
478,6	2190,767
479,1	2224,11
479,5	2256,652
480	2283,024
480,4	2316,167
480,9	2349,567
481,3	2376,767
481,8	2403,424
482,2	2431,281
482,7	2457,481
483,1	2479,567
483,6	2504,881
484	2524,681
484,5	2554,852
484,9	2580,51
485,4	2607,424
485,8	2632,51
486,3	2656,652
486,7	2675,738
487,2	2698,081
487,6	2715,481
488,1	2735,395
488,5	2756,195
489	2775,967
489,4	2800,052
489,9	2817,281
490,4	2844,081
490,8	2863,595
491,3	2886,595
491,7	2896,567
492,2	2916,767
492,6	2937,395
493,1	2954,281
493,5	2961,767
494	2973,052
494,4	2988,052
494,9	3003,881
495,3	3015,624
495,8	3024,595
496,2	3038,681
496,7	3046,367
497,1	3067,395
497,6	3074,824
498	3081,395
498,5	3095,881
498,9	3103,395
499,4	3113,195
499,8	3132,595
500,3	3136,967
500,7	3144,881
501,2	3151,538
501,6	3156,91
502,1	3170,338
502,5	3177,252
503	3182,652
503,4	3189,024
503,9	3195,71
504,3	3209,767
504,8	3217,967
505,2	3221,51
505,7	3231,567
506,1	3250,795
506,6	3255,767
507	3265,024
507,5	3271,395
507,9	3277,052
508,4	3286,167
508,8	3291,995
509,3	3287,652
509,7	3301,452
510,2	3307,424
510,6	3308,595
511,1	3311,024
511,5	3314,338
512	3310,852
512,4	3315,424
512,9	3312,452
513,3	3316,738
513,8	3326,91
514,2	3331,595
514,7	3338,452
515,1	3353,652
515,6	3357,852
516	3364,481
516,5	3371,824
516,9	3372,71
517,4	3383,367
517,8	3386,938
518,3	3387,967
518,7	3394,11
519,2	3398,252
519,6	3402,081
520,1	3412,452
520,5	3410,224
521	3410,652
521,4	3415,395
521,9	3418,938
522,3	3421,824
522,8	3423,51
523,2	3426,795
523,7	3435,367
524,1	3445,452
524,6	3450,281
525	3458,538
525,5	3463,767
525,9	3475,31
526,4	3480,681
526,8	3487,938
527,3	3496,481
527,7	3504,824
528,2	3509,452
528,6	3523,452
529,1	3531,024
529,5	3544,281
530	3548,995
530,4	3554,738
530,9	3564,281
531,3	3573,681
531,8	3578,51
532,2	3588,91
532,6	3594,767
533,1	3604,967
533,5	3611,91
534	3616,767
534,4	3623,738
534,9	3630,195
535,3	3637,338
535,8	3644,595
536,2	3652,567
536,7	3663,938
537,1	3676,138
537,6	3687,395
538	3694,967
538,5	3704,91
538,9	3709,424
539,4	3714,652
539,8	3715,881
540,3	3721,338
540,7	3717,595
541,2	3721,71
541,6	3723,567
542,1	3736,138
542,5	3744,795
543	3753,71
543,4	3753,824
543,9	3772,881
544,3	3786,538
544,8	3791,795
545,2	3800,195
545,7	3817,367
546,1	3828,91
546,5	3844,71
547	3845,167
547,4	3851,881
547,9	3863,767
548,3	3870,967
548,8	3874,052
549,2	3885,452
549,7	3891,138
550,1	3901,167
550,6	3908,567
551	3917,738
551,5	3918,995
551,9	3923,281
552,4	3924,881
552,8	3938,31
553,3	3947,31
553,7	3955,595
554,2	3961,767
554,6	3977,338
555,1	3983,452
555,5	3988,452
555,9	3988,567
556,4	3996,681
556,8	4004,567
557,3	4007,652
557,7	4009,995
558,2	4020,281
558,6	4030,738
559,1	4037,024
559,5	4043,91
560	4044,424
560,4	4048,367
560,9	4056,224
561,3	4061,652
561,8	4066,967
562,2	4072,567
562,7	4076,624
563,1	4089,881
563,6	4090,167
564	4090,767
564,4	4097,338
564,9	4100,452
565,3	4109,681
565,8	4110,881
566,2	4112,681
566,7	4128,595
567,1	4137,31
567,6	4136,71
568	4137,338
568,5	4136,052
568,9	4137,052
569,4	4136,138
569,8	4134,91
570,3	4130,51
570,7	4128,081
571,1	4135,595
571,6	4135,995
572	4151,938
572,5	4158,624
572,9	4153,71
573,4	4155,681
573,8	4164,252
574,3	4162,167
574,7	4156,995
575,2	4146,424
575,6	4146,967
576,1	4147,024
576,5	4150,795
576,9	4144,395
577,4	4135,681
577,8	4135,395
578,3	4131,195
578,7	4121,31
579,2	4127,081
579,6	4118,795
580,1	4111,367
580,5	4113,11
581	4120,452
581,4	4116,081
581,9	4112,852
582,3	4104,567
582,7	4094,11
583,2	4091,195
583,6	4084,881
584,1	4073,738
584,5	4065,967
585	4062,681
585,4	4047,652
585,9	4044,91
586,3	4043,967
586,8	4037,51
587,2	4032,824
587,6	4030,052
588,1	4027,11
588,5	4028,681
589	4030,595
589,4	4016,738
589,9	4011,538
590,3	4000,424
590,8	3993,11
591,2	3984,767
591,7	3982,052
592,1	3973,652
592,5	3969,452
593	3966,281
593,4	3959,595
593,9	3954,538
594,3	3942,367
594,8	3928,852
595,2	3926,11
595,7	3919,938
596,1	3908,252
596,6	3903,681
597	3900,681
597,4	3896,138
597,9	3896,652
598,3	3888,767
598,8	3886,138
599,2	3878,995
599,7	3873,852
600,1	3854,681
600,6	3847,024
601	3832,195
601,4	3831,51
601,9	3825,681
602,3	3819,624
602,8	3809,138
603,2	3807,424
603,7	3799,995
604,1	3795,367
604,6	3773,081
605	3757,652
605,4	3748,995
605,9	3736,824
606,3	3721,081
606,8	3703,795
607,2	3690,852
607,7	3680,024
608,1	3673,367
608,6	3658,767
609	3656,652
609,4	3648,452
609,9	3640,252
610,3	3629,738
610,8	3619,824
611,2	3602,91
611,7	3593,167
612,1	3573,538
612,6	3563,252
613	3556,081
613,4	3544,424
613,9	3535,481
614,3	3523,367
614,8	3514,424
615,2	3501,31
615,7	3488,281
616,1	3479,167
616,6	3462,624
617	3439,71
617,4	3433,395
617,9	3420,595
618,3	3408,995
618,8	3399,881
619,2	3378,081
619,7	3366,338
620,1	3362,624
620,5	3341,71
621	3325,252
621,4	3314,938
621,9	3295,195
622,3	3282,138
622,8	3263,11
623,2	3245,138
623,6	3235,081
624,1	3219,31
624,5	3197,795
625	3188,224
625,4	3176,338
625,9	3166,624
626,3	3153,167
626,8	3138,938
627,2	3120,51
627,6	3095,51
628,1	3078,995
628,5	3066,338
629	3046,881
629,4	3026,995
629,9	3012,081
630,3	2995,51
630,7	2984,595
631,2	2972,71
631,6	2949,338
632,1	2937,052
632,5	2924,31
633	2909,824
633,4	2898,052
633,8	2892,395
634,3	2875,452
634,7	2863,338
635,2	2848,481
635,6	2833,224
636,1	2811,252
636,5	2795,738
636,9	2774,681
637,4	2755,91
637,8	2734,595
638,3	2716,852
638,7	2701,681
639,2	2684,138
639,6	2672,224
640	2661,224
640,5	2649,167
640,9	2640,167
641,4	2629,767
641,8	2622,91
642,2	2617,081
642,7	2606,11
643,1	2594,852
643,6	2578,538
644	2573,995
644,5	2564,91
644,9	2547,195
645,3	2536,652
645,8	2517,738
646,2	2505,31
646,7	2495,852
647,1	2476,024
647,6	2462,252
648	2453,138
648,4	2437,024
648,9	2431,338
649,3	2419,367
649,8	2405,624
650,2	2397,224
650,6	2390,767
651,1	2373,852
651,5	2363,195
652	2350,395
652,4	2333,995
652,9	2320,081
653,3	2303,167
653,7	2282,995
654,2	2271,195
654,6	2252,51
655,1	2241,881
655,5	2239,224
655,9	2226,795
656,4	2213,738
656,8	2202,424
657,3	2189,452
657,7	2185,938
658,2	2171,167
658,6	2149,31
659	2138,738
659,5	2124,338
659,9	2113,91
660,4	2100,938
660,8	2081,538
661,2	2065,081
661,7	2055,31
662,1	2042,052
662,6	2032,967
663	2014,71
663,4	2002,938
663,9	1993,767
664,3	1981,652
664,8	1966,367
665,2	1950,767
665,6	1935,281
666,1	1925,738
666,5	1909,624
667	1895,052
667,4	1881,224
667,9	1869,767
668,3	1856,995
668,7	1844,081
669,2	1832,995
669,6	1821,967
670,1	1811,681
670,5	1799,452
670,9	1786,252
671,4	1775,967
671,8	1770,538
672,3	1763,138
672,7	1754,395
673,1	1739,852
673,6	1732,852
674	1725,081
674,5	1714,795
674,9	1694,424
675,3	1674,51
675,8	1665,252
676,2	1652,681
676,7	1634,052
677,1	1625,795
677,5	1616,31
678	1613,081
678,4	1609,424
678,9	1596,452
679,3	1588,11
679,7	1582,595
680,2	1562,424
680,6	1552,652
681,1	1539,51
681,5	1531,595
681,9	1520,738
682,4	1515,395
682,8	1506,024
683,3	1506,967
683,7	1498,481
684,1	1489,538
684,6	1475,11
685	1467,138
685,5	1451,595
685,9	1435,71
686,3	1420,138
686,8	1406,795
687,2	1400,967
687,7	1391,081
688,1	1381,224
688,5	1373,938
689	1370,938
689,4	1363,395
689,9	1355,138
690,3	1342,567
690,7	1334,538
691,2	1324,71
691,6	1313,652
692	1305,595
692,5	1298,938
692,9	1293,967
693,4	1282,052
693,8	1270,11
694,2	1260,652
694,7	1252,995
695,1	1244,91
695,6	1237,624
696	1227,767
696,4	1222,452
696,9	1210,652
697,3	1199,71
697,8	1193,081
698,2	1181,652
698,6	1173,624
699,1	1163,824
699,5	1155,481
699,9	1150,281
700,4	1146,91
700,8	1138,595
701,3	1135,052
701,7	1119,595
702,1	1112,252
702,6	1105,71
703	1100,767
703,5	1091,024
703,9	1082,252
704,3	1074,91
704,8	1073,138
705,2	1062,538
705,6	1053,081
706,1	1043,052
706,5	1033,652
707	1030,31
707,4	1023,024
707,8	1009,652
708,3	1010,167
708,7	1004,11
709,2	1000,624
709,6	999,852
710	997,652
710,5	983,367
710,9	978,938
711,3	966,367
711,8	963,51
712,2	953,71
712,7	943,824
713,1	934,738
713,5	931,967
714	930,281
714,4	920,652
714,8	912,224
715,3	902,967
715,7	900,31
716,2	887,167
716,6	881,624
717	868,681
717,5	864,767
717,9	859,281
718,3	851,195
718,8	839,395
719,2	838,081
719,7	831,567
720,1	830,338
720,5	830,138
721	819,224
721,4	819,481
721,8	817,481
722,3	804,938
722,7	802,252
723,2	789,738
723,6	774,967
724	769,424
724,5	760,195
724,9	754,252
725,3	749,51
725,8	741,281
726,2	739,395
726,7	736,252
727,1	731,195
727,5	728,281
728	719,481
728,4	718,11
728,8	712,395
729,3	707,424
729,7	700,024
730,1	695,681
730,6	692,567
731	689,195
731,5	681,71
731,9	676,167
732,3	672,11
732,8	672,367
733,2	670,481
733,6	664,824
734,1	656,91
734,5	654,995
734,9	656,424
735,4	651,681
735,8	638,167
736,3	636,595
736,7	631,452
737,1	631,052
737,6	625,738
738	618,081
738,4	613,11
738,9	621,567
739,3	614,881
739,7	611,71
740,2	603,052
740,6	605,881
741,1	604,081
741,5	599,367
741,9	593,224
742,4	590,138
742,8	582,938
743,2	583,681
743,7	574,624
744,1	565,424
744,5	562,338
745	553,395
745,4	549,595
745,8	550,652
746,3	550,71
746,7	543,052
747,2	543,424
747,6	542,395
748	542,395
748,5	536,138
748,9	529,71
749,3	523,852
749,8	526,167
750,2	522,31
750,6	515,51
751,1	515,052
751,5	512,91
751,9	511,967
752,4	508,624
752,8	502,967
753,3	499,195
753,7	502,481
754,1	495,281
754,6	489,51
755	481,767
755,4	476,481
755,9	475,11
756,3	472,367
756,7	467,938
757,2	463,767
757,6	463,71
758	462,252
758,5	459,538
758,9	453,424
759,3	449,824
759,8	444,538
760,2	445,538
760,6	440,938
761,1	434,795
761,5	431,081
761,9	423,452
762,4	420,824
762,8	413,738
763,3	406,567
763,7	404,652
764,1	406,71
764,6	405,795
765	410,281
765,4	406,138
765,9	405,967
766,3	408,395
766,7	403,195
767,2	401,624
767,6	402,824
768	398,824
768,5	397,138
768,9	396,938
769,3	391,624
769,8	390,224
770,2	386,167
770,6	377,595
771,1	374,881
771,5	376,081
771,9	372,138
772,4	370,424
772,8	367,852
773,2	367,767
773,7	367,624
774,1	363,338
774,5	351,91
775	350,91
775,4	345,595
775,8	339,767
776,3	342,11
776,7	336,424
777,1	333,881
777,6	341,424
778	340,938
778,4	339,138
778,9	340,938
779,3	330,452
779,7	332,51
780,2	331,024
780,6	324,71
781	316,367
781,5	312,71
781,9	313,767
782,3	311,138
782,8	307,31
783,2	304,052
783,6	304,91
784,1	306,595
784,5	306,51
784,9	297,767
785,4	299,452
785,8	299,224
786,2	298,595
786,7	292,71
787,1	287,595
787,5	285,452
788	287,11
788,4	284,452
788,8	281,167
789,3	279,11
789,7	278,224
790,1	279,081
790,6	275,91
791	267,195
791,4	265,367
791,9	259,71
792,3	256,167
792,7	256,138
793,2	251,424
793,6	252,024
794	258,167
794,5	252,795
794,9	258,367
795,3	258,538
795,8	253,195
796,2	257,967
796,6	258,481
797,1	249,795
797,5	248,595
797,9	242,795
798,4	236,538
798,8	235,681
799,2	226,367
799,7	224,195
800,1	227,424
800,5	227,252
801	229,167
801,4	227,11
801,8	223,767
802,2	225,624
802,7	221,367
803,1	219,51
803,5	216,824
804	208,881
804,4	210,795
804,8	210,167
805,3	208,167
805,7	207,338
806,1	204,824
806,6	202,338
807	199,681
807,4	197,852
807,9	194,252
808,3	188,452
808,7	186,824
809,2	189,538
809,6	191,167
810	192,738
810,4	189,31
810,9	191,281
811,3	194,024
811,7	192,795
812,2	197,452
812,6	193,624
813	197,71
813,5	199,995
813,9	196,052
814,3	195,338
814,8	192,052
815,2	181,938
815,6	179,51
816,1	177,538
816,5	176,052
816,9	175,852
817,3	172,452
817,8	174,824
818,2	174,31
818,6	170,681
819,1	164,052
819,5	156,938
819,9	155,224
820,4	151,567
820,8	146,595
821,2	142,767
821,7	146,824
822,1	151,452
822,5	156,767
822,9	161,195
823,4	167,052
823,8	171,995
824,2	176,51
824,7	170,424
825,1	161,681
825,5	159,652
826	151,624
826,4	145,081
826,8	136,995
827,3	132,938
827,7	133,31
828,1	134,252
828,5	131,224
829	129,967
829,4	127,252
829,8	123,281
830,3	121,424
830,7	118,052
831,1	117,195
831,6	114,595
832	113,081
832,4	113,595
832,8	120,738
833,3	121,052
833,7	117,31
834,1	112,395
834,6	113,11
835	116,624
835,4	119,824
835,8	112,452
836,3	111,567
836,7	119,395
837,1	120,71
837,6	123,424
838	118,052
838,4	115,138
838,9	115,367
839,3	110,624
839,7	109,767
840,1	108,138
840,6	104,195
841	105,567
841,4	105,652
841,9	106,167
842,3	105,281
842,7	102,595
843,1	103,91
843,6	107,567
844	106,31
844,4	106,338
844,9	107,052
845,3	105,167
845,7	102,538
846,2	98,51
846,6	91,71
847	90,795
847,4	89,081
847,9	90,081
848,3	89,767
848,7	92,081
849,2	92,252
849,6	93,252
850	93,938
850,4	92,167
850,9	89,167
851,3	91,824
851,7	89,252
852,2	89,252
852,6	92,367
853	89,224
853,4	87,052
853,9	85,024
854,3	84,881
854,7	86,11
855,2	88,252
855,6	84,91
856	83,91
856,4	83,481
856,9	80,252
857,3	81,138
857,7	79,567
858,2	81,738
858,6	81,51
859	84,452
859,4	86,938
859,9	86,51
860,3	81,51
860,7	82,338
861,1	78,795
861,6	77,11
862	74,767
862,4	69,681
862,9	75,852
863,3	76,795
863,7	74,11
864,1	71,081
864,6	71,167
865	70,681
865,4	74,024
865,9	72,424
866,3	68,71
866,7	67,624
867,1	67,424
867,6	68,052
868	66,052
868,4	62,424
868,8	61,252
869,3	65,51
869,7	70,938
870,1	68,938
870,6	65,681
871	71,252
871,4	73,681
871,8	69,624
872,3	68,424
872,7	66,252
873,1	66,481
873,5	65,938
874	61,31
874,4	61,11
874,8	59,424
875,3	58,081
875,7	50,852
876,1	56,31
876,5	56,195
877	54,995
877,4	47,738
877,8	52,51
878,2	56,91
878,7	62,595
879,1	57,567
879,5	59,338
879,9	61,338
880,4	66,224
880,8	59,938
881,2	51,824
881,7	49,424
882,1	49,938
882,5	45,91
882,9	42,195
883,4	38,91
883,8	44,938
884,2	47,424
884,6	44,281
885,1	44,367
885,5	49,624
885,9	47,595
886,3	51,595
886,8	48,967
887,2	46,652
887,6	47,852
888	47,052
888,5	42,195
888,9	42,852
889,3	39,881
889,8	40,338
890,2	41,652
890,6	37,195
891	34,795
891,5	32,71
891,9	33,71
892,3	37,338
892,7	37,767
893,2	37,11
893,6	43,624
894	46,852
894,4	47,795
894,9	50,481
895,3	50,567
895,7	47,767
896,1	49,138
896,6	46,538
897	45,852
897,4	51,31
897,8	51,881
898,3	46,852
898,7	46,51
899,1	45,395
899,5	43,11
900	38,967
900,4	30,252
900,8	25,767
901,2	24,824
901,7	23,252
902,1	24,024
902,5	27,767
902,9	26,31
903,4	32,081
903,8	35,052
904,2	35,052
904,6	40,795
905,1	39,938
905,5	36,281
905,9	41,51
906,3	43,652
906,8	42,995
907,2	45,395
907,6	42,281
908	45,738
908,5	44,938
908,9	43,052
909,3	36,138
909,7	36,31
910,2	32,938
910,6	36,024
911	28,567
911,4	28,824
911,9	27,167
912,3	30,91
912,7	33,424
913,1	35,567
913,6	28,052
914	29,938
914,4	32,31
914,8	32,252
915,3	29,252
915,7	26,195
916,1	26,11
916,5	30,167
916,9	30,881
917,4	31,481
917,8	32,252
918,2	29,881
918,6	25,252
919,1	28,738
919,5	28,738
919,9	30,595
920,3	25,367
920,8	22,367
921,2	20,938
921,6	25,252
922	20,338
922,5	14,338
922,9	13,738
923,3	13,052
923,7	17,71
924,2	22,424
924,6	20,51
925	21,738
925,4	25,224
925,8	23,081
926,3	26,681
926,7	21,538
927,1	17,081
927,5	20,252
928	15,91
928,4	10,824
928,8	15,081
929,2	13,624
929,7	21,167
930,1	25,024
930,5	18,424
930,9	22,481
931,3	26,281
931,8	20,967
932,2	18,481
932,6	11,167
933	6,11
933,5	10,195
933,9	6,538
934,3	9,024
934,7	9,31
935,2	9,481
935,6	10,624
936	11,71
936,4	12,852
936,8	17,824
937,3	16,252
937,7	16,281
938,1	23,081
938,5	18,967
939	23,681
939,4	23,995
939,8	21,652
940,2	19,224
940,6	21,367
941,1	15,738
941,5	20,881
941,9	16,252
942,3	7,995
942,8	10,31
943,2	14,252
943,6	9,824
944	9,938
944,4	7,852
944,9	8,052
945,3	11,481
945,7	3,71
946,1	0,824
946,6	-0,605
947	-1,09
947,4	3,795
947,8	5,224
948,2	4,195
948,7	6,71
949,1	5,31
949,5	14,281
949,9	14,11
950,3	10,395
950,8	10,395
951,2	10,367
951,6	11,767
952	16,11
952,5	5,824
952,9	8,91
953,3	9,51
953,7	11,595
954,1	14,91
954,6	15,452
955	18,281
955,4	24,195
955,8	25,167
956,2	25,91
956,7	24,967
957,1	26,252
957,5	31,024
957,9	26,167
958,3	28,424
958,8	27,11
959,2	28,938
959,6	30,995
960	27,995
960,5	27,738
960,9	29,595
961,3	23,195
961,7	23,052
962,1	19,881
962,6	18,538
963	14,881
963,4	6,367
963,8	4,31
964,2	7,338
964,7	6,538
965,1	10,71
965,5	9,767
965,9	15,395
966,3	20,424
966,8	20,681
967,2	21,424
967,6	20,138
968	12,167
968,4	9,681
968,9	11,195
969,3	13,31
969,7	7,652
970,1	11,052
970,5	13,481
971	19,71
971,4	23,367
971,8	18,738
972,2	18,652
972,6	25,024
973,1	19,681
973,5	16,052
973,9	15,424
974,3	10,71
974,7	13,395
975,2	12,795
975,6	10,738
976	14,052
976,4	13,852
976,8	12,824
977,3	12,767
977,7	8,424
978,1	4,852
978,5	4,91
978,9	-1,09
979,4	-1,519
979,8	-5,805
980,2	-5,405
980,6	-4,69
981	0,081
981,5	-1,005
981,9	2,338
982,3	4,195
982,7	8,91
983,1	5,138
983,6	7,481
984	3,024
984,4	4,052
984,8	4,224
985,2	6,91
985,6	3,481
986,1	12,024
986,5	12,424
986,9	5,995
987,3	7,338
987,7	7,167
988,2	1,91
988,6	2,538
989	-0,633
989,4	-1,919
989,8	3,967
990,3	1,881
990,7	0,481
991,1	9,195
991,5	9,424
991,9	12,367
992,3	13,252
992,8	15,91
993,2	15,938
993,6	17,081
994	16,024
994,4	17,738
994,9	15,224
995,3	13,395
995,7	10,767
996,1	10,71
996,5	9,595
996,9	1,624
997,4	2,052
997,8	-0,633
998,2	-0,919
998,6	-8,062
999	-5,49
999,5	-8,233
999,9	-7,148
1000,3	-10,633
1000,7	-9,033
1001,1	-11,09
1001,5	0,624
1002	-0,948
1002,4	3,538
1002,8	4,081
1003,2	8,652
1003,6	12,395
1004	17,567
1004,5	12,824
1004,9	14,224
1005,3	11,338
1005,7	16,052
1006,1	11,967
1006,6	9,452
1007	7,995
1007,4	8,252
1007,8	7,824
1008,2	6,31
1008,6	8,195
1009,1	10,11
1009,5	9,51
1009,9	11,195
1010,3	11,167
1010,7	11,138
1011,1	13,024
1011,6	10,767
1012	13,281
1012,4	13,624
1012,8	10,51
1013,2	15,395
1013,6	15,367
1014,1	18,824
1014,5	15,938
1014,9	15,795
1015,3	13,11
1015,7	16,424
1016,1	10,624
1016,6	10,967
1017	8,967
1017,4	9,081
1017,8	5,338
1018,2	10,938
1018,6	7,567
1019,1	9,024
1019,5	7,452
1019,9	4,91
1020,3	6,852
1020,7	12,024
1021,1	6,938
1021,6	7,338
1022	10,31
1022,4	11,167
1022,8	15,11
1023,2	14,938
1023,6	13,652
1024,1	21,31
1024,5	24,738
1024,9	22,11
1025,3	20,281
1025,7	19,481
1026,1	18,024
1026,6	16,51
1027	12,767
1027,4	10,595
1027,8	9,338
1028,2	11,11
1028,6	12,852
1029	12,224
1029,5	15,11
1029,9	10,252
1030,3	7,967
1030,7	8,852
1031,1	11,51
1031,5	8,424
1032	7,681
1032,4	6,395
1032,8	8,767
1033,2	12,195
1033,6	13,767
1034	13,681
1034,4	13,624
1034,9	16,252
1035,3	11,967
1035,7	15,167
1036,1	11,995
1036,5	11,024
1036,9	11,338
1037,4	17,738
1037,8	12,538
1038,2	13,567
1038,6	10,91
1039	14,567
1039,4	18,052
1039,8	12,195
1040,3	9,767
1040,7	17,367
1041,1	18,795
1041,5	20,252
1041,9	18,424
1042,3	15,367
1042,7	22,11
1043,2	21,795
1043,6	14,167
1044	14,195
1044,4	15,881
1044,8	19,167
1045,2	17,452
1045,6	13,452
1046,1	7,395
1046,5	7,652
1046,9	4,167
1047,3	-0,348
1047,7	-1,833
1048,1	-3,433
1048,5	-1,89
1049	2,795
1049,4	8,281
1049,8	13,31
1050,2	16,51
1050,6	21,51
1051	27,567
1051,4	26,252
1051,9	24,252
1052,3	30,452
1052,7	28,938
1053,1	25,195
1053,5	18,938
1053,9	19,024
1054,3	17,767
1054,8	25,195
1055,2	15,938
1055,6	16,824
1056	18,967
1056,4	20,967
1056,8	17,795
1057,2	17,852
1057,6	12,538
1058,1	13,795
1058,5	10,595
1058,9	12,281
1059,3	11,395
1059,7	8,824
1060,1	13,167
1060,5	11,767
1061	14,024
1061,4	14,224
1061,8	15,11
1062,2	12,767
1062,6	17,767
1063	17,367
1063,4	18,624
1063,8	18,338
1064,3	17,738
1064,7	14,938
1065,1	14,338
1065,5	9,71
1065,9	5,71
1066,3	3,081
1066,7	-1,29
1067,1	-4,405
1067,6	0,852
1068	0,767
1068,4	4,538
1068,8	8,852
1069,2	12,224
1069,6	12,024
1070	19,052
1070,4	12,167
1070,9	13,338
1071,3	13,967
1071,7	9,395
1072,1	9,395
1072,5	9,11
1072,9	6,281
1073,3	8,281
1073,7	8,31
1074,2	6,081
1074,6	5,338
1075	2,795
1075,4	7,967
1075,8	7,995
1076,2	9,881
1076,6	10,224
1077	6,824
1077,5	11,995
1077,9	10,31
1078,3	8,795
1078,7	8,281
1079,1	7,252
1079,5	7,338
1079,9	9,652
1080,3	5,967
1080,7	7,824
1081,2	11,224
1081,6	12,11
1082	7,395
1082,4	11,538
1082,8	17,881
1083,2	16,652
1083,6	17,252
1084	13,367
1084,5	14,424
1084,9	13,567
1085,3	10,281
1085,7	3,11
1086,1	5,71
1086,5	6,938
1086,9	11,167
1087,3	7,767
1087,7	9,195
1088,2	4,91
1088,6	7,052
1089	6,995
1089,4	5,652
1089,8	0,767
1090,2	2,824
1090,6	4,681
1091	10,138
1091,4	8,424
1091,9	5,624
1092,3	4,91
1092,7	2,738
1093,1	6,795
1093,5	6,538
1093,9	2,91
1094,3	9,338
1094,7	8,481
1095,1	8,538
1095,5	8,652
1096	1,224
1096,4	5,167
1096,8	2,481
1097,2	-2,605
1097,6	6,167
1098	6,51
1098,4	7,967
1098,8	11,652
1099,2	13,852
1099,6	16,567
1100,1	16,795
1100,5	9,624
1100,9	10,938
1101,3	10,624
1101,7	10,51
1102,1	4,767
1102,5	8,338
1102,9	7,852
1103,3	12,138
1103,7	14,452
1104,2	15,767
1104,6	15,167
1105	13,938
1105,4	14,195
1105,8	12,595
1106,2	8,395
1106,6	3,71
1107	2,567
1107,4	2,7
1107,8	5,407
1108,3	-0,383
