Data from Subt2_212.txt Node
Date: Sat Aug 26 18:48:13 MSK 2023
User: vat
Spectrometer: MAYP114033
Trigger mode: 0
Integration Time (sec): 1,000000E0
Scans to average: 5
Electric dark correction enabled: true
Nonlinearity correction enabled: false
Boxcar width: 3
XAxis mode: Wavelengths
Number of Pixels in Spectrum: 2068
>>>>>Begin Spectral Data<<<<<
199,4	-0,567
199,9	2,993
200,4	3,1
200,8	6,348
201,3	4,89
201,8	7,69
202,2	4,662
202,7	9,89
203,2	7,262
203,6	5,633
204,1	-2,624
204,6	-2,767
205	-5,567
205,5	-2,91
206	-7,824
206,4	-9,652
206,9	-9,538
207,4	-2,795
207,8	-4,967
208,3	-4,31
208,8	-2,567
209,2	0,005
209,7	1,319
210,2	2,005
210,6	0,405
211,1	3,748
211,5	-0,424
212	-1,452
212,5	-3,338
212,9	-1,938
213,4	0,919
213,9	3,49
214,3	3,662
214,8	8,548
215,3	6,29
215,7	10,29
216,2	8,719
216,7	8,576
217,1	3,205
217,6	3,119
218,1	-0,252
218,5	0,262
219	-8,795
219,5	-8,881
219,9	-16,081
220,4	-5,595
220,9	-1,938
221,3	3,09
221,8	3,49
222,3	10,348
222,7	16,405
223,2	17,433
223,6	7,262
224,1	5,805
224,6	5,29
225	5,405
225,5	3,09
226	-0,11
226,4	6,862
226,9	9,948
227,4	6,69
227,8	1,262
228,3	-0,538
228,8	0,69
229,2	2,662
229,7	-0,767
230,2	-1,024
230,6	4,776
231,1	10,319
231,5	13,833
232	16,233
232,5	12,348
232,9	14,148
233,4	13,748
233,9	8,433
234,3	3,405
234,8	4,89
235,3	1,462
235,7	3,433
236,2	4,805
236,7	3,033
237,1	5,69
237,6	4,976
238,1	2,062
238,5	-2,967
239	-3,881
239,4	-4,424
239,9	-1,881
240,4	-2,31
240,8	5,119
241,3	2,462
241,8	9,433
242,2	8,605
242,7	3,805
243,2	5,376
243,6	2,433
244,1	0,89
244,6	2,662
245	1,833
245,5	3,662
245,9	1,433
246,4	-2,852
246,9	3,919
247,3	1,119
247,8	3,919
248,3	2,005
248,7	1,862
249,2	6,119
249,7	7,633
250,1	1,662
250,6	2,548
251	0,748
251,5	4,833
252	6,919
252,4	10,348
252,9	10,462
253,4	9,919
253,8	7,233
254,3	9,633
254,8	7,033
255,2	0,519
255,7	-2,824
256,1	-3,081
256,6	-1,738
257,1	3,548
257,5	-1,967
258	-4,424
258,5	0,09
258,9	2,69
259,4	3,405
259,9	3,433
260,3	-0,595
260,8	1,919
261,2	4,833
261,7	3,633
262,2	-0,71
262,6	-3,738
263,1	-0,081
263,6	4,233
264	8,948
264,5	7,462
264,9	6,519
265,4	10,262
265,9	11,005
266,3	10,433
266,8	8,919
267,3	1,719
267,7	0,376
268,2	3,89
268,7	4,862
269,1	6,29
269,6	2,576
270	4,662
270,5	6,062
271	9,348
271,4	3,29
271,9	-5,224
272,4	-0,338
272,8	2,09
273,3	-0,824
273,7	-0,738
274,2	-2,138
274,7	1,062
275,1	7,348
275,6	7,319
276,1	3,862
276,5	7,776
277	8,976
277,4	12,462
277,9	14,976
278,4	17,748
278,8	14,319
279,3	19,348
279,8	17,405
280,2	18,833
280,7	17,376
281,1	12,862
281,6	10,148
282,1	8,233
282,5	3,976
283	0,548
283,4	-1,995
283,9	-2,681
284,4	3,405
284,8	2,376
285,3	2,605
285,8	4,976
286,2	6,805
286,7	7,89
287,1	2,919
287,6	-1,767
288,1	-5,395
288,5	-3,052
289	-5,281
289,5	-2,967
289,9	-5,224
290,4	2,462
290,8	0,319
291,3	6,519
291,8	8,576
292,2	8,148
292,7	9,348
293,1	12,29
293,6	10,062
294,1	17,29
294,5	16,376
295	15,033
295,5	15,776
295,9	14,205
296,4	11,805
296,8	14,348
297,3	7,919
297,8	4,09
298,2	3,719
298,7	8,148
299,1	5,205
299,6	6,548
300,1	4,205
300,5	6,033
301	9,89
301,5	12,033
301,9	9,005
302,4	6,205
302,8	8,433
303,3	6,576
303,8	4,176
304,2	1,176
304,7	-1,824
305,1	-6,624
305,6	-2,938
306,1	0,262
306,5	2,205
307	7,062
307,4	13,319
307,9	13,119
308,4	14,319
308,8	9,376
309,3	3,662
309,8	-0,31
310,2	-0,795
310,7	-6,31
311,1	-5,024
311,6	-0,795
312,1	2,262
312,5	4,89
313	8,576
313,4	6,919
313,9	6,29
314,4	4,548
314,8	3,919
315,3	8,176
315,7	4,89
316,2	0,89
316,7	-0,281
317,1	5,919
317,6	4,948
318	6,948
318,5	0,69
319	-0,11
319,4	3,605
319,9	11,919
320,3	8,205
320,8	5,776
321,3	3,49
321,7	10,69
322,2	11,776
322,6	13,348
323,1	5,005
323,6	4,49
324	5,519
324,5	3,605
324,9	2,805
325,4	1,548
325,9	2,433
326,3	3,976
326,8	6,348
327,2	3,176
327,7	0,433
328,2	-2,824
328,6	3,748
329,1	-2,452
329,5	-4,252
330	-6,424
330,5	1,462
330,9	5,005
331,4	3,948
331,8	-0,081
332,3	5,462
332,8	9,005
333,2	8,176
333,7	8,148
334,1	11,919
334,6	12,433
335,1	6,976
335,5	4,148
336	-0,167
336,4	0,89
336,9	3,69
337,4	2,833
337,8	4,548
338,3	11,576
338,7	15,262
339,2	14,862
339,7	16,89
340,1	12,262
340,6	13,205
341	11,005
341,5	10,919
342	4,405
342,4	6,833
342,9	1,976
343,3	4,719
343,8	-0,024
344,2	2,033
344,7	8,319
345,2	8,433
345,6	12,233
346,1	18,69
346,5	15,033
347	15,662
347,5	13,033
347,9	11,348
348,4	14,433
348,8	11,862
349,3	13,976
349,8	17,719
350,2	25,805
350,7	26,205
351,1	22,29
351,6	27,948
352	37,319
352,5	37,205
353	41,633
353,4	45,919
353,9	60,148
354,3	74,519
354,8	88,776
355,3	107,833
355,7	129,89
356,2	155,29
356,6	187,233
357,1	222,948
357,5	263,205
358	305,233
358,5	346,433
358,9	400,205
359,4	463,319
359,8	530,748
360,3	609,376
360,8	695,776
361,2	794,919
361,7	908,405
362,1	1036,033
362,6	1169,719
363	1312,919
363,5	1458,862
364	1619,948
364,4	1780,062
364,9	1938,376
365,3	2092,348
365,8	2237,748
366,3	2375,119
366,7	2506,69
367,2	2616,233
367,6	2703,862
368,1	2778,233
368,5	2825,576
369	2849,49
369,5	2852,005
369,9	2829,862
370,4	2781,519
370,8	2722,062
371,3	2632,976
371,7	2542,062
372,2	2436,233
372,7	2315,348
373,1	2190,405
373,6	2061,89
374	1938,033
374,5	1815,89
374,9	1688,319
375,4	1571,033
375,9	1455,29
376,3	1340,776
376,8	1233,262
377,2	1129,033
377,7	1033,948
378,2	946,205
378,6	863,976
379,1	793,776
379,5	728,89
380	675,062
380,4	619,833
380,9	566,833
381,4	517,719
381,8	475,49
382,3	441,348
382,7	407,89
383,2	381,29
383,6	351,833
384,1	332,005
384,6	313,89
385	294,805
385,5	273,519
385,9	255,348
386,4	231,033
386,8	219,49
387,3	203,433
387,7	188,919
388,2	176,262
388,7	159,976
389,1	150,862
389,6	144,548
390	132,033
390,5	124,348
390,9	118,119
391,4	110,862
391,9	102,748
392,3	99,633
392,8	91,805
393,2	86,805
393,7	83,205
394,1	75,633
394,6	70,062
395,1	72,005
395,5	64,262
396	59,548
396,4	57,862
396,9	54,233
397,3	54,519
397,8	53,748
398,2	49,005
398,7	47,462
399,2	47,776
399,6	46,462
400,1	43,662
400,5	32,776
401	34,119
401,4	33,576
401,9	33,462
402,4	36,062
402,8	34,148
403,3	38,348
403,7	40,948
404,2	38,919
404,6	40,005
405,1	39,748
405,5	37,805
406	37,862
406,5	34,976
406,9	39,662
407,4	37,776
407,8	37,633
408,3	41,776
408,7	40,976
409,2	47,519
409,6	53,49
410,1	56,805
410,6	60,776
411	69,005
411,5	72,49
411,9	79,89
412,4	83,719
412,8	84,576
413,3	89,833
413,7	91,748
414,2	93,033
414,7	97,919
415,1	108,776
415,6	111,148
416	116,433
416,5	119,233
416,9	127,376
417,4	132,49
417,8	143,376
418,3	145,062
418,8	155,948
419,2	161,033
419,7	169,348
420,1	177,862
420,6	187,148
421	186,548
421,5	189,119
421,9	189,976
422,4	197,433
422,8	206,805
423,3	209,862
423,8	214,748
424,2	216,948
424,7	225,005
425,1	235,719
425,6	246,519
426	251,319
426,5	267,205
426,9	279,69
427,4	292,633
427,9	302,49
428,3	314,262
428,8	321,348
429,2	330,348
429,7	336,633
430,1	344,176
430,6	360,176
431	368,919
431,5	379,176
431,9	393,776
432,4	415,09
432,8	436,748
433,3	457,433
433,8	471,776
434,2	496,605
434,7	522,462
435,1	542,69
435,6	562,376
436	581,862
436,5	609,405
436,9	635,205
437,4	663,49
437,8	692,919
438,3	726,89
438,8	757,833
439,2	792,89
439,7	825,433
440,1	863,662
440,6	901,69
441	926,09
441,5	962,662
441,9	1004,405
442,4	1036,605
442,8	1071,862
443,3	1111,519
443,7	1151,805
444,2	1203,919
444,7	1254,748
445,1	1300,719
445,6	1354,69
446	1410,462
446,5	1459,833
446,9	1506,29
447,4	1553,176
447,8	1601,576
448,3	1655,976
448,7	1707,09
449,2	1761,748
449,6	1824,548
450,1	1884,462
450,6	1957,89
451	2021,176
451,5	2084,919
451,9	2157,462
452,4	2232,033
452,8	2296,89
453,3	2372,09
453,7	2434,776
454,2	2506,348
454,6	2575,748
455,1	2644,89
455,5	2703,262
456	2778,719
456,4	2844,262
456,9	2921,49
457,3	2992,29
457,8	3069,605
458,3	3147,919
458,7	3234,205
459,2	3317,776
459,6	3400,348
460,1	3482,605
460,5	3565,776
461	3648,576
461,4	3730,576
461,9	3813,576
462,3	3897,976
462,8	3981,748
463,2	4056,319
463,7	4141,662
464,1	4232,233
464,6	4323,348
465	4404,233
465,5	4484,49
466	4580,519
466,4	4667,633
466,9	4759,405
467,3	4836,433
467,8	4918,348
468,2	5006,033
468,7	5090,176
469,1	5169,976
469,6	5256,976
470	5333,005
470,5	5414,405
470,9	5486,662
471,4	5562,89
471,8	5633,919
472,3	5711,833
472,7	5784,862
473,2	5851,09
473,6	5924,319
474,1	5998,033
474,5	6065,748
475	6144,633
475,4	6206,033
475,9	6272,976
476,4	6347,005
476,8	6415,005
477,3	6480,176
477,7	6543,976
478,2	6590,176
478,6	6647,776
479,1	6696,69
479,5	6745,09
480	6786,748
480,4	6837,49
480,9	6878,605
481,3	6924,319
481,8	6964,348
482,2	6997,833
482,7	7035,462
483,1	7079,033
483,6	7104,833
484	7140,405
484,5	7169,548
484,9	7191,233
485,4	7220,205
485,8	7232,319
486,3	7239,976
486,7	7245,119
487,2	7251,49
487,6	7263,205
488,1	7265,748
488,5	7267,319
489	7275,205
489,4	7278,576
489,9	7278,862
490,4	7275,205
490,8	7262,519
491,3	7264,576
491,7	7260,69
492,2	7250,919
492,6	7231,062
493,1	7230,005
493,5	7208,376
494	7192,033
494,4	7164,805
494,9	7140,176
495,3	7124,205
495,8	7101,633
496,2	7069,519
496,7	7039,89
497,1	7014,69
497,6	6989,062
498	6961,576
498,5	6917,462
498,9	6881,233
499,4	6839,776
499,8	6815,919
500,3	6775,919
500,7	6735,89
501,2	6686,548
501,6	6647,348
502,1	6613,148
502,5	6575,062
503	6527,462
503,4	6483,805
503,9	6432,833
504,3	6395,005
504,8	6345,719
505,2	6295,29
505,7	6245,148
506,1	6200,005
506,6	6146,605
507	6100,148
507,5	6046,748
507,9	5992,69
508,4	5934,205
508,8	5884,605
509,3	5827,69
509,7	5782,005
510,2	5729,09
510,6	5674,205
511,1	5629,119
511,5	5583,176
512	5526,976
512,4	5467,319
512,9	5405,319
513,3	5352,462
513,8	5299,348
514,2	5237,462
514,7	5180,69
515,1	5123,748
515,6	5071,433
516	5016,033
516,5	4965,462
516,9	4911,148
517,4	4860,919
517,8	4808,119
518,3	4756,89
518,7	4702,605
519,2	4653,69
519,6	4598,69
520,1	4545,833
520,5	4496,405
521	4444,148
521,4	4394,119
521,9	4342,948
522,3	4288,319
522,8	4237,405
523,2	4191,576
523,7	4143,262
524,1	4095,005
524,6	4044,433
525	3997,748
525,5	3953,833
525,9	3903,919
526,4	3852,376
526,8	3809,405
527,3	3767,976
527,7	3726,805
528,2	3687,662
528,6	3643,462
529,1	3605,719
529,5	3565,376
530	3520,976
530,4	3478,29
530,9	3435,748
531,3	3395,948
531,8	3357,633
532,2	3316,433
532,6	3279,205
533,1	3240,119
533,5	3201,148
534	3161,319
534,4	3122,976
534,9	3086,605
535,3	3046,776
535,8	3014,262
536,2	2980,319
536,7	2944,948
537,1	2914,49
537,6	2879,89
538	2849,548
538,5	2823,748
538,9	2785,119
539,4	2753,119
539,8	2726,033
540,3	2699,176
540,7	2674,833
541,2	2644,805
541,6	2618,976
542,1	2596,662
542,5	2567,948
543	2534,805
543,4	2500,176
543,9	2470,376
544,3	2444,376
544,8	2407,89
545,2	2380,833
545,7	2359,89
546,1	2341,748
546,5	2323,833
547	2297,233
547,4	2274,405
547,9	2252,29
548,3	2232,062
548,8	2208,405
549,2	2180,348
549,7	2154,948
550,1	2140,262
550,6	2117,462
551	2102,433
551,5	2077,519
551,9	2052,89
552,4	2039,833
552,8	2026,976
553,3	1999,49
553,7	1978,89
554,2	1960,89
554,6	1943,919
555,1	1930,348
555,5	1909,748
555,9	1891,805
556,4	1875,89
556,8	1860,033
557,3	1842,233
557,7	1828,833
558,2	1813,062
558,6	1798,633
559,1	1777,748
559,5	1764,148
560	1749,033
560,4	1731,748
560,9	1714,519
561,3	1696,433
561,8	1677,033
562,2	1663,319
562,7	1649,862
563,1	1640,348
563,6	1626,176
564	1613,748
564,4	1601,005
564,9	1593,576
565,3	1585,376
565,8	1574,433
566,2	1561,433
566,7	1554,29
567,1	1544,348
567,6	1535,49
568	1520,262
568,5	1511,462
568,9	1497,805
569,4	1485,662
569,8	1478,605
570,3	1467,519
570,7	1450,49
571,1	1439,262
571,6	1424,605
572	1417,748
572,5	1407,176
572,9	1390,29
573,4	1377,976
573,8	1376,148
574,3	1367,262
574,7	1359,376
575,2	1347,176
575,6	1336,719
576,1	1330,719
576,5	1328,262
576,9	1313,005
577,4	1307,119
577,8	1292,376
578,3	1279,49
578,7	1268,062
579,2	1260,205
579,6	1245,176
580,1	1235,49
580,5	1221,976
581	1216,548
581,4	1209,376
581,9	1204,69
582,3	1194,348
582,7	1188,548
583,2	1180,033
583,6	1173,833
584,1	1165,662
584,5	1162,233
585	1156,148
585,4	1143,319
585,9	1134,433
586,3	1131,29
586,8	1121,605
587,2	1114,776
587,6	1109,633
588,1	1103,919
588,5	1096,405
589	1088,262
589,4	1078,948
589,9	1073,748
590,3	1062,662
590,8	1051,49
591,2	1042,662
591,7	1043,119
592,1	1038,262
592,5	1036,576
593	1029,548
593,4	1022,062
593,9	1015,262
594,3	1009,262
594,8	998,148
595,2	989,89
595,7	981,89
596,1	976,205
596,6	977,89
597	973,462
597,4	965,69
597,9	961,148
598,3	958,69
598,8	954,062
599,2	952,833
599,7	947,776
600,1	940,662
600,6	937,548
601	936,519
601,4	933,833
601,9	927,376
602,3	919,49
602,8	908,919
603,2	905,376
603,7	900,433
604,1	894,148
604,6	885,262
605	878,976
605,4	879,033
605,9	877,348
606,3	870,49
606,8	864,119
607,2	854,976
607,7	846,662
608,1	845,69
608,6	836,49
609	832,205
609,4	831,033
609,9	824,862
610,3	822,433
610,8	826,49
611,2	820,976
611,7	814,976
612,1	809,519
612,6	804,462
613	805,176
613,4	803,148
613,9	795,005
614,3	788,49
614,8	787,262
615,2	780,519
615,7	775,348
616,1	770,576
616,6	760,062
617	750,633
617,4	748,662
617,9	744,833
618,3	747,519
618,8	747,719
619,2	740,233
619,7	742,262
620,1	740,033
620,5	741,433
621	735,776
621,4	728,148
621,9	719,719
622,3	718,148
622,8	710,605
623,2	708,176
623,6	691,719
624,1	688,148
624,5	684,405
625	683,348
625,4	679,405
625,9	675,376
626,3	672,262
626,8	669,49
627,2	667,319
627,6	657,233
628,1	651,062
628,5	646,805
629	642,719
629,4	639,119
629,9	638,519
630,3	628,433
630,7	626,919
631,2	619,576
631,6	615,948
632,1	612,576
632,5	608,262
633	604,948
633,4	604,633
633,8	606,148
634,3	605,405
634,7	598,862
635,2	593,376
635,6	591,719
636,1	586,176
636,5	581,319
636,9	572,89
637,4	566,519
637,8	561,576
638,3	555,633
638,7	548,176
639,2	542,405
639,6	541,605
640	532,976
640,5	532,29
640,9	531,576
641,4	533,119
641,8	529,69
642,2	530,462
642,7	532,605
643,1	540,548
643,6	535,405
644	531,519
644,5	529,376
644,9	530,033
645,3	527,805
645,8	514,633
646,2	510,348
646,7	508,29
647,1	501,319
647,6	497,319
648	495,005
648,4	489,348
648,9	490,148
649,3	479,948
649,8	476,633
650,2	479,719
650,6	477,862
651,1	471,033
651,5	469,148
652	464,348
652,4	461,062
652,9	460,49
653,3	459,262
653,7	453,005
654,2	454,862
654,6	450,462
655,1	454,833
655,5	461,005
655,9	457,919
656,4	448,89
656,8	449,176
657,3	441,805
657,7	441,605
658,2	434,69
658,6	426,376
659	423,805
659,5	421,548
659,9	418,89
660,4	420,49
660,8	412,376
661,2	408,833
661,7	411,605
662,1	408,948
662,6	410,805
663	405,69
663,4	401,348
663,9	406,462
664,3	403,319
664,8	394,748
665,2	391,405
665,6	385,29
666,1	384,49
666,5	379,948
667	374,119
667,4	371,148
667,9	371,462
668,3	367,348
668,7	361,662
669,2	361,376
669,6	358,233
670,1	356,405
670,5	348,005
670,9	339,29
671,4	337,005
671,8	342,69
672,3	338,319
672,7	336,148
673,1	330,948
673,6	329,376
674	335,405
674,5	333,776
674,9	323,462
675,3	322,205
675,8	325,119
676,2	325,89
676,7	328,49
677,1	321,605
677,5	317,89
678	322,49
678,4	321,576
678,9	317,348
679,3	314,719
679,7	311,49
680,2	305,49
680,6	300,462
681,1	296,605
681,5	295,319
681,9	294,576
682,4	293,319
682,8	293,919
683,3	299,09
683,7	304,776
684,1	302,576
684,6	296,548
685	288,605
685,5	286,462
685,9	280,348
686,3	273,262
686,8	269,462
687,2	268,233
687,7	266,462
688,1	266,519
688,5	263,948
689	266,719
689,4	267,062
689,9	265,519
690,3	257,862
690,7	258,033
691,2	257,69
691,6	256,09
692	252,062
692,5	251,262
692,9	249,519
693,4	248,976
693,8	244,576
694,2	241,519
694,7	238,89
695,1	235,576
695,6	239,462
696	237,033
696,4	237,719
696,9	235,719
697,3	233,948
697,8	231,262
698,2	227,719
698,6	224,405
699,1	225,919
699,5	226,29
699,9	224,833
700,4	224,062
700,8	223,89
701,3	229,89
701,7	224,119
702,1	218,29
702,6	218,69
703	215,119
703,5	209,29
703,9	211,176
704,3	205,319
704,8	202,89
705,2	202,433
705,6	201,462
706,1	203,719
706,5	207,976
707	202,805
707,4	205,29
707,8	201,09
708,3	198,319
708,7	193,405
709,2	189,376
709,6	181,405
710	182,433
710,5	173,519
710,9	176,748
711,3	180,148
711,8	180,976
712,2	182,119
712,7	183,662
713,1	181,262
713,5	187,662
714	183,462
714,4	177,033
714,8	171,919
715,3	168,376
715,7	167,205
716,2	166,033
716,6	164,833
717	166,033
717,5	161,262
717,9	167,49
718,3	164,49
718,8	162,576
719,2	161,005
719,7	156,09
720,1	154,348
720,5	161,348
721	152,862
721,4	157,805
721,8	164,69
722,3	163,462
722,7	166,605
723,2	162,205
723,6	152,29
724	149,09
724,5	145,548
724,9	137,09
725,3	135,29
725,8	130,662
726,2	132,005
726,7	137,262
727,1	138,433
727,5	134,033
728	136,033
728,4	138,119
728,8	136,919
729,3	134,376
729,7	130,462
730,1	132,405
730,6	137,262
731	134,89
731,5	132,69
731,9	132,748
732,3	137,548
732,8	140,548
733,2	141,09
733,6	138,976
734,1	134,462
734,5	133,005
734,9	134,09
735,4	129,633
735,8	123,462
736,3	124,919
736,7	125,49
737,1	130,233
737,6	128,119
738	124,405
738,4	122,462
738,9	126,919
739,3	122,919
739,7	119,548
740,2	115,176
740,6	114,776
741,1	116,033
741,5	114,262
741,9	113,233
742,4	117,29
742,8	117,319
743,2	120,49
743,7	118,748
744,1	118,519
744,5	118,519
745	114,69
745,4	108,462
745,8	106,319
746,3	106,062
746,7	106,833
747,2	102,119
747,6	107,062
748	108,033
748,5	107,49
748,9	106,805
749,3	104,948
749,8	105,776
750,2	105,89
750,6	97,29
751,1	97,148
751,5	97,862
751,9	99,233
752,4	99,662
752,8	95,119
753,3	96,719
753,7	101,89
754,1	98,205
754,6	97,69
755	96,662
755,4	88,519
755,9	90,833
756,3	90,405
756,7	90,176
757,2	93,662
757,6	91,519
758	92,605
758,5	95,948
758,9	97,09
759,3	97,919
759,8	98,233
760,2	94,862
760,6	95,462
761,1	91,119
761,5	90,49
761,9	86,205
762,4	82,119
762,8	77,348
763,3	80,29
763,7	79,719
764,1	80,69
764,6	83,348
765	86,376
765,4	87,862
765,9	89,062
766,3	90,576
766,7	87,09
767,2	86,176
767,6	88,176
768	83,605
768,5	82,148
768,9	81,49
769,3	79,062
769,8	78,376
770,2	79,719
770,6	74,605
771,1	81,176
771,5	80,748
771,9	85,69
772,4	82,976
772,8	82,805
773,2	84,062
773,7	84,348
774,1	75,49
774,5	69,976
775	62,605
775,4	63,519
775,8	63,033
776,3	59,948
776,7	61,433
777,1	66,319
777,6	71,062
778	74,405
778,4	73,148
778,9	74,69
779,3	75,519
779,7	72,09
780,2	72,548
780,6	72,148
781	67,69
781,5	64,119
781,9	63,233
782,3	60,29
782,8	64,062
783,2	58,462
783,6	57,576
784,1	58,233
784,5	59,433
784,9	58,919
785,4	64,062
785,8	61,948
786,2	66,633
786,7	64,89
787,1	65,519
787,5	64,633
788	64,776
788,4	61,205
788,8	61,29
789,3	58,433
789,7	62,576
790,1	59,548
790,6	66,576
791	64,29
791,4	66,262
791,9	63,462
792,3	59,576
792,7	58,919
793,2	63,062
793,6	59,376
794	61,348
794,5	55,633
794,9	58,176
795,3	62,09
795,8	58,09
796,2	57,176
796,6	58,176
797,1	53,776
797,5	55,662
797,9	50,748
798,4	47,348
798,8	48,605
799,2	45,605
799,7	44,09
800,1	47,176
800,5	47,433
801	55,033
801,4	53,519
801,8	51,176
802,2	53,233
802,7	48,69
803,1	47,319
803,5	46,062
804	40,033
804,4	42,548
804,8	43,319
805,3	41,119
805,7	45,976
806,1	50,748
806,6	53,748
807	54,89
807,4	54,948
807,9	50,376
808,3	53,062
808,7	52,662
809,2	49,576
809,6	48,719
810	47,633
810,4	44,862
810,9	48,519
811,3	51,405
811,7	50,09
812,2	50,833
812,6	47,319
813	50,49
813,5	56,005
813,9	57,548
814,3	48,89
814,8	47,033
815,2	43,748
815,6	43,633
816,1	44,09
816,5	40,662
816,9	41,919
817,3	43,119
817,8	47,776
818,2	50,433
818,6	47,405
819,1	41,862
819,5	41,948
819,9	40,548
820,4	39,262
820,8	32,233
821,2	27,29
821,7	32,233
822,1	37,776
822,5	41,09
822,9	40,976
823,4	43,948
823,8	47,748
824,2	53,576
824,7	47,862
825,1	41,376
825,5	36,833
826	30,776
826,4	32,462
826,8	30,805
827,3	27,833
827,7	29,748
828,1	26,633
828,5	28,148
829	29,69
829,4	26,719
829,8	22,405
830,3	20,319
830,7	22,748
831,1	27,29
831,6	25,519
832	25,262
832,4	27,148
832,8	28,062
833,3	27,376
833,7	22,576
834,1	20,148
834,6	23,29
835	27,548
835,4	28,748
835,8	26,205
836,3	27,919
836,7	31,89
837,1	33,262
837,6	31,519
838	27,09
838,4	23,662
838,9	27,49
839,3	25,633
839,7	23,69
840,1	21,405
840,6	20,633
841	26,119
841,4	26,376
841,9	28,405
842,3	24,348
842,7	24,29
843,1	28,633
843,6	28,319
844	28,605
844,4	28,033
844,9	29,005
845,3	33,205
845,7	35,89
846,2	29,748
846,6	31,005
847	28,833
847,4	31,662
847,9	30,576
848,3	32,748
848,7	29,462
849,2	33,748
849,6	30,662
850	35,748
850,4	33,405
850,9	31,119
851,3	30,519
851,7	33,319
852,2	29,233
852,6	32,09
853	24,519
853,4	24,49
853,9	22,148
854,3	22,49
854,7	20,262
855,2	20,633
855,6	19,376
856	19,69
856,4	16,205
856,9	18,976
857,3	15,748
857,7	19,033
858,2	24,605
858,6	21,833
859	21,776
859,4	23,748
859,9	21,776
860,3	23,005
860,7	23,29
861,1	20,976
861,6	22,805
862	22,605
862,4	20,49
862,9	22,576
863,3	23,062
863,7	22,605
864,1	22,49
864,6	20,005
865	19,948
865,4	24,805
865,9	26,176
866,3	20,662
866,7	16,976
867,1	13,719
867,6	17,433
868	15,662
868,4	12,748
868,8	10,776
869,3	14,633
869,7	19,462
870,1	19,919
870,6	14,976
871	-37,138
871,4	-33,367
871,8	-35,795
872,3	-33,967
872,7	-39,11
873,1	-39,995
873,5	-34,91
874	18,919
874,4	16,062
874,8	19,262
875,3	18,433
875,7	18,348
876,1	20,69
876,5	18,69
877	14,976
877,4	13,205
877,8	12,69
878,2	18,462
878,7	23,29
879,1	23,69
879,5	22,605
879,9	28,033
880,4	29,233
880,8	32,233
881,2	27,262
881,7	20,919
882,1	22,719
882,5	22,119
882,9	19,576
883,4	16,919
883,8	12,719
884,2	11,89
884,6	14,69
885,1	12,633
885,5	17,519
885,9	18,976
886,3	20,205
886,8	16,548
887,2	15,833
887,6	10,119
888	8,748
888,5	8,662
888,9	6,662
889,3	1,748
889,8	5,319
890,2	4,09
890,6	3,776
891	5,662
891,5	-0,738
891,9	1,233
892,3	7,005
892,7	8,405
893,2	10,89
893,6	18,205
894	18,519
894,4	20,462
894,9	17,348
895,3	15,633
895,7	18,376
896,1	14,176
896,6	12,262
897	13,748
897,4	18,976
897,8	20,805
898,3	22,033
898,7	17,062
899,1	18,09
899,5	16,948
900	9,462
900,4	2,805
900,8	-1,224
901,2	-3,567
901,7	-5,081
902,1	-2,538
902,5	-0,767
902,9	-0,11
903,4	4,948
903,8	9,176
904,2	7,976
904,6	10,062
905,1	11,49
905,5	11,433
905,9	17,405
906,3	15,376
906,8	18,033
907,2	20,262
907,6	21,833
908	20,519
908,5	16,49
908,9	9,919
909,3	9,205
909,7	8,49
910,2	11,319
910,6	12,376
911	8,662
911,4	10,805
911,9	13,862
912,3	14,29
912,7	15,49
913,1	16,09
913,6	13,348
914	14,605
914,4	11,948
914,8	13,29
915,3	11,005
915,7	10,319
916,1	7,519
916,5	8,319
916,9	9,976
917,4	12,605
917,8	10,948
918,2	10,319
918,6	5,519
919,1	7,89
919,5	8,319
919,9	10,176
920,3	7,748
920,8	8,948
921,2	8,948
921,6	9,148
922	6,176
922,5	1,462
922,9	1,662
923,3	1,919
923,7	-0,395
924,2	-1,881
924,6	-1,338
925	-0,195
925,4	1,69
925,8	0,805
926,3	-2,652
926,7	-3,052
927,1	-0,481
927,5	0,148
928	0,319
928,4	1,262
928,8	-0,252
929,2	3,262
929,7	5,348
930,1	6,633
930,5	6,405
930,9	8,348
931,3	7,776
931,8	5,576
932,2	5,948
932,6	6,119
933	0,348
933,5	0,233
933,9	-0,081
934,3	0,205
934,7	2,833
935,2	5,49
935,6	5,033
936	8,49
936,4	10,576
936,8	10,176
937,3	5,976
937,7	3,062
938,1	2,805
938,5	2,348
939	2,976
939,4	-1,367
939,8	-2,452
940,2	0,176
940,6	1,433
941,1	1,405
941,5	2,605
941,9	4,262
942,3	3,748
942,8	7,719
943,2	6,948
943,6	6,262
944	4,548
944,4	7,348
944,9	3,719
945,3	6,862
945,7	-0,338
946,1	0,262
946,6	0,319
947	-0,31
947,4	-2,681
947,8	3,462
948,2	2,433
948,7	7,748
949,1	10,576
949,5	17,919
949,9	19,748
950,3	18,519
950,8	16,262
951,2	13,805
951,6	8,176
952	11,662
952,5	0,805
952,9	-0,081
953,3	1,605
953,7	-2,338
954,1	1,719
954,6	4,833
955	3,319
955,4	7,719
955,8	8,605
956,2	4,462
956,7	9,748
957,1	9,033
957,5	11,605
957,9	8,662
958,3	5,519
958,8	5,776
959,2	8,576
959,6	7,176
960	2,09
960,5	4,09
960,9	4,233
961,3	5,176
961,7	3,833
962,1	4,576
962,6	4,148
963	9,49
963,4	2,719
963,8	6,005
964,2	8,262
964,7	10,776
965,1	14,405
965,5	14,719
965,9	14,09
966,3	17,148
966,8	13,49
967,2	13,148
967,6	11,119
968	4,89
968,4	1,89
968,9	2,805
969,3	3,062
969,7	-1,31
970,1	1,148
970,5	0,433
971	5,69
971,4	5,033
971,8	2,005
972,2	2,405
972,6	4,919
973,1	1,148
973,5	4,262
973,9	3,09
974,3	4,319
974,7	6,69
975,2	6,462
975,6	6,405
976	12,005
976,4	4,605
976,8	3,119
977,3	3,69
977,7	2,319
978,1	2,29
978,5	-0,681
978,9	-8,224
979,4	-9,424
979,8	-8,424
980,2	-6,767
980,6	-8,481
981	-7,852
981,5	-3,195
981,9	-1,738
982,3	3,776
982,7	2,605
983,1	-0,595
983,6	3,433
984	3,319
984,4	3,176
984,8	6,376
985,2	5,062
985,6	5,09
986,1	7,919
986,5	10,719
986,9	5,148
987,3	6,748
987,7	5,748
988,2	2,719
988,6	2,69
989	-1,138
989,4	-5,91
989,8	-0,767
990,3	-3,11
990,7	-0,481
991,1	5,576
991,5	4,205
991,9	9,948
992,3	10,348
992,8	10,262
993,2	12,576
993,6	9,633
994	7,205
994,4	12,262
994,9	11,919
995,3	11,148
995,7	8,433
996,1	5,433
996,5	2,433
996,9	3,862
997,4	3,748
997,8	-0,995
998,2	-2,281
998,6	-9,595
999	-7,767
999,5	-5,367
999,9	-6,652
1000,3	-11,167
1000,7	-9,481
1001,1	-9,624
1001,5	-0,595
1002	3,548
1002,4	3,519
1002,8	3,49
1003,2	7,348
1003,6	10,033
1004	15,205
1004,5	13,262
1004,9	14,062
1005,3	13,548
1005,7	14,976
1006,1	9,49
1006,6	9,062
1007	4,319
1007,4	5,09
1007,8	2,062
1008,2	0,976
1008,6	4,89
1009,1	3,89
1009,5	1,062
1009,9	5,862
1010,3	5,405
1010,7	1,233
1011,1	0,976
1011,6	-0,681
1012	3,605
1012,4	1,376
1012,8	0,005
1013,2	4,719
1013,6	9,433
1014,1	11,862
1014,5	9,405
1014,9	10,976
1015,3	14,49
1015,7	14,862
1016,1	10,319
1016,6	9,405
1017	11,719
1017,4	11,662
1017,8	9,49
1018,2	12,233
1018,6	5,233
1019,1	4,776
1019,5	4,748
1019,9	2,805
1020,3	5,862
1020,7	7,233
1021,1	2,376
1021,6	7,09
1022	11,348
1022,4	10,919
1022,8	10,09
1023,2	7,49
1023,6	4,89
1024,1	7,148
1024,5	11,348
1024,9	6,119
1025,3	5,462
1025,7	8,262
1026,1	10,233
1026,6	8,919
1027	7,719
1027,4	8,833
1027,8	8,433
1028,2	4,09
1028,6	8,833
1029	5,948
1029,5	9,633
1029,9	8,262
1030,3	3,862
1030,7	7,29
1031,1	12,176
1031,5	3,862
1032	5,148
1032,4	6,319
1032,8	8,205
1033,2	8,89
1033,6	6,148
1034	2,948
1034,4	3,062
1034,9	3,748
1035,3	-2,395
1035,7	1,376
1036,1	-3,995
1036,5	-1,11
1036,9	2,005
1037,4	6,233
1037,8	-0,995
1038,2	0,376
1038,6	-1,71
1039	7,205
1039,4	13,062
1039,8	11,433
1040,3	11,519
1040,7	16,29
1041,1	21,49
1041,5	19,633
1041,9	10,719
1042,3	4,09
1042,7	5,748
1043,2	0,49
1043,6	-1,738
1044	-4,767
1044,4	-4,967
1044,8	0,976
1045,2	-0,967
1045,6	2,633
1046,1	5,605
1046,5	4,605
1046,9	0,69
1047,3	2,119
1047,7	-2,052
1048,1	-2,481
1048,5	-6,881
1049	-3,91
1049,4	2,605
1049,8	9,433
1050,2	10,148
1050,6	16,605
1051	21,262
1051,4	16,948
1051,9	11,776
1052,3	13,405
1052,7	15,776
1053,1	10,805
1053,5	8,233
1053,9	9,005
1054,3	11,148
1054,8	17,948
1055,2	14,633
1055,6	8,748
1056	9,748
1056,4	6,233
1056,8	3,376
1057,2	6,376
1057,6	-2,824
1058,1	-6,71
1058,5	-7,852
1058,9	-2,51
1059,3	0,605
1059,7	3,833
1060,1	5,348
1060,5	11,119
1061	15,062
1061,4	14,148
1061,8	13,376
1062,2	13,119
1062,6	11,262
1063	10,033
1063,4	5,69
1063,8	4,262
1064,3	3,09
1064,7	-2,938
1065,1	-2,481
1065,5	-7,452
1065,9	-12,195
1066,3	-11,281
1066,7	-13,224
1067,1	-13,395
1067,6	-8,91
1068	-15,224
1068,4	-13,795
1068,8	-9,452
1069,2	-5,767
1069,6	-3,452
1070	2,462
1070,4	2,405
1070,9	4,319
1071,3	6,376
1071,7	5,233
1072,1	3,805
1072,5	-1,595
1072,9	-4,624
1073,3	-4,51
1073,7	-2,71
1074,2	-2,252
1074,6	-2,795
1075	-9,452
1075,4	-3,738
1075,8	0,376
1076,2	-1,51
1076,6	0,405
1077	-3,424
1077,5	-0,595
1077,9	2,405
1078,3	0,633
1078,7	-4,367
1079,1	-0,967
1079,5	-3,052
1079,9	0,605
1080,3	-1,681
1080,7	4,29
1081,2	8,776
1081,6	10,49
1082	7,805
1082,4	14,09
1082,8	14,376
1083,2	14,919
1083,6	12,833
1084	12,519
1084,5	10,576
1084,9	10,662
1085,3	-0,224
1085,7	1,748
1086,1	2,89
1086,5	1,062
1086,9	1,319
1087,3	3,49
1087,7	3,948
1088,2	11,033
1088,6	6,833
1089	8,605
1089,4	7,119
1089,8	7,605
1090,2	4,119
1090,6	4,833
1091	4,976
1091,4	8,319
1091,9	4,862
1092,3	6,49
1092,7	2,233
1093,1	7,976
1093,5	8,49
1093,9	7,662
1094,3	11,462
1094,7	11,005
1095,1	10,833
1095,5	13,919
1096	8,033
1096,4	6,09
1096,8	6,005
1097,2	-1,652
1097,6	5,69
1098	6,662
1098,4	6,205
1098,8	11,262
1099,2	17,319
1099,6	18,205
1100,1	20,148
1100,5	11,319
1100,9	12,005
1101,3	13,148
1101,7	12,462
1102,1	9,29
1102,5	6,976
1102,9	9,348
1103,3	12,205
1103,7	11,833
1104,2	8,862
1104,6	7,348
1105	2,576
1105,4	3,548
1105,8	-0,024
1106,2	-1,281
1106,6	-2,024
1107	-2,167
1107,4	-2,667
1107,8	0,313
1108,3	-0,367
