Data from Subt2_136.txt Node
Date: Sat Aug 26 18:27:58 MSK 2023
User: vat
Spectrometer: MAYP114033
Trigger mode: 0
Integration Time (sec): 1,000000E0
Scans to average: 5
Electric dark correction enabled: true
Nonlinearity correction enabled: false
Boxcar width: 3
XAxis mode: Wavelengths
Number of Pixels in Spectrum: 2068
>>>>>Begin Spectral Data<<<<<
199,4	0,133
199,9	3,953
200,4	4,4
200,8	2,119
201,3	-1,595
201,8	0,49
202,2	-0,652
202,7	2,176
203,2	-2,738
203,6	-7,224
204,1	-7,824
204,6	-2,881
205	-6,681
205,5	-4,595
206	-7,481
206,4	-7,824
206,9	-5,081
207,4	1,833
207,8	1,348
208,3	2,033
208,8	1,433
209,2	4,69
209,7	8,49
210,2	10,005
210,6	4,833
211,1	2,976
211,5	1,176
212	-1,51
212,5	-5,052
212,9	-8,281
213,4	-7,024
213,9	-7,938
214,3	-5,338
214,8	-1,281
215,3	3,862
215,7	5,776
216,2	13,233
216,7	12,605
217,1	13,348
217,6	14,033
218,1	12,662
218,5	8,776
219	1,948
219,5	0,176
219,9	-3,567
220,4	4,948
220,9	2,662
221,3	4,519
221,8	7,976
222,3	11,462
222,7	7,462
223,2	9,49
223,6	-0,71
224,1	-2,367
224,6	-0,024
225	-4,081
225,5	-2,538
226	-2,738
226,4	-5,167
226,9	-4,224
227,4	-3,252
227,8	-10,681
228,3	-11,138
228,8	-13,567
229,2	-14,31
229,7	-11,767
230,2	-12,052
230,6	-7,71
231,1	1,119
231,5	1,376
232	6,119
232,5	6,062
232,9	4,833
233,4	8,776
233,9	6,662
234,3	-2,395
234,8	2,919
235,3	-0,567
235,7	0,805
236,2	5,605
236,7	3,49
237,1	2,319
237,6	1,319
238,1	-1,481
238,5	-6,395
239	-4,11
239,4	-1,967
239,9	-4,11
240,4	-3,738
240,8	0,176
241,3	-3,538
241,8	1,49
242,2	-3,51
242,7	-8,852
243,2	-8,052
243,6	-11,71
244,1	-9,395
244,6	-2,652
245	-0,881
245,5	-1,538
245,9	-3,31
246,4	-5,138
246,9	-1,652
247,3	-3,824
247,8	-5,452
248,3	-4,881
248,7	-0,91
249,2	6,033
249,7	7,462
250,1	7,976
250,6	8,719
251	10,605
251,5	7,862
252	7,205
252,4	5,748
252,9	4,833
253,4	1,948
253,8	1,89
254,3	-1,224
254,8	1,605
255,2	-2,967
255,7	-6,681
256,1	-3,995
256,6	-2,024
257,1	-0,024
257,5	-1,738
258	-5,367
258,5	0,29
258,9	-1,652
259,4	-0,652
259,9	-0,51
260,3	-7,767
260,8	-7,624
261,2	-3,281
261,7	-1,967
262,2	-3,795
262,6	-7,824
263,1	-4,681
263,6	0,69
264	3,319
264,5	1,033
264,9	-0,367
265,4	4,862
265,9	3,662
266,3	5,919
266,8	5,462
267,3	0,948
267,7	-3,195
268,2	-4,224
268,7	-1,795
269,1	2,833
269,6	-2,624
270	4,605
270,5	2,862
271	6,462
271,4	5,405
271,9	-5,024
272,4	0,519
272,8	-2,367
273,3	-9,824
273,7	-3,424
274,2	-5,281
274,7	-5,767
275,1	1,776
275,6	-4,338
276,1	-3,424
276,5	0,89
277	-2,595
277,4	-0,452
277,9	2,69
278,4	2,405
278,8	4,09
279,3	5,176
279,8	3,576
280,2	4,548
280,7	10,033
281,1	6,29
281,6	4,319
282,1	2,348
282,5	3,319
283	-0,167
283,4	1,948
283,9	-1,281
284,4	4,833
284,8	6,062
285,3	5,348
285,8	5,805
286,2	4,233
286,7	1,262
287,1	0,09
287,6	-5,452
288,1	-9,195
288,5	-5,881
289	-10,538
289,5	-9,938
289,9	-13,995
290,4	-16,081
290,8	-13,795
291,3	-11,452
291,8	-11,281
292,2	-7,395
292,7	-1,91
293,1	4,348
293,6	9,948
294,1	10,548
294,5	11,033
295	8,49
295,5	6,948
295,9	6,005
296,4	1,519
296,8	-4,138
297,3	-3,824
297,8	-9,938
298,2	-10,995
298,7	-9,624
299,1	-9,652
299,6	-8,224
300,1	-3,824
300,5	-5,995
301	3,69
301,5	7,09
301,9	4,319
302,4	0,29
302,8	1,29
303,3	0,748
303,8	-1,538
304,2	-2,824
304,7	-2,395
305,1	-3,767
305,6	-0,881
306,1	5,89
306,5	5,69
307	10,662
307,4	10,805
307,9	9,519
308,4	12,148
308,8	9,948
309,3	3,205
309,8	1,433
310,2	1,519
310,7	-2,395
311,1	-5,681
311,6	-2,738
312,1	0,433
312,5	5,348
313	6,519
313,4	6,805
313,9	7,49
314,4	10,748
314,8	7,005
315,3	5,433
315,7	1,09
316,2	-3,567
316,7	-7,081
317,1	-4,024
317,6	-6,824
318	-1,481
318,5	-0,252
319	2,348
319,4	5,805
319,9	13,033
320,3	15,376
320,8	19,262
321,3	18,833
321,7	20,062
322,2	18,69
322,6	19,262
323,1	11,833
323,6	8,548
324	3,433
324,5	-3,281
324,9	-3,424
325,4	-8,795
325,9	-7,052
326,3	1,205
326,8	5,605
327,2	3,462
327,7	10,805
328,2	7,09
328,6	11,148
329,1	5,662
329,5	-1,681
330	-7,138
330,5	0,176
330,9	-0,738
331,4	1,519
331,8	1,919
332,3	4,69
332,8	7,662
333,2	8,662
333,7	6,405
334,1	4,89
334,6	4,348
335,1	1,633
335,5	2,376
336	-1,795
336,4	-4,11
336,9	4,805
337,4	7,233
337,8	3,633
338,3	7,548
338,7	11,719
339,2	12,233
339,7	13,776
340,1	2,976
340,6	1,319
341	1,605
341,5	-0,967
342	-7,967
342,4	-9,11
342,9	-10,052
343,3	-5,967
343,8	-7,31
344,2	-5,71
344,7	-1,281
345,2	3,576
345,6	5,776
346,1	8,976
346,5	4,805
347	1,948
347,5	-0,595
347,9	-0,767
348,4	-0,91
348,8	2,519
349,3	1,776
349,8	4,69
350,2	13,976
350,7	12,176
351,1	12,519
351,6	15,633
352	14,519
352,5	19,262
353	26,176
353,4	24,69
353,9	42,033
354,3	46,805
354,8	50,805
355,3	66,748
355,7	79,805
356,2	92,062
356,6	108,719
357,1	124,548
357,5	150,976
358	183,919
358,5	208,405
358,9	239,662
359,4	278,29
359,8	319,319
360,3	364,09
360,8	407,519
361,2	458,976
361,7	523,062
362,1	594,548
362,6	670,833
363	755,462
363,5	842,548
364	944,69
364,4	1043,005
364,9	1139,148
365,3	1237,262
365,8	1324,633
366,3	1406,176
366,7	1484,176
367,2	1544,919
367,6	1597,262
368,1	1639,776
368,5	1663,148
369	1678,119
369,5	1685,919
369,9	1670,862
370,4	1647,29
370,8	1612,519
371,3	1560,262
371,7	1501,662
372,2	1436,976
372,7	1366,833
373,1	1297,719
373,6	1218,719
374	1142,09
374,5	1070,548
374,9	1000,405
375,4	930,005
375,9	858,405
376,3	790,49
376,8	729,262
377,2	670,405
377,7	616,862
378,2	563,862
378,6	517,005
379,1	472,462
379,5	435,633
380	406,862
380,4	371,748
380,9	338,348
381,4	305,862
381,8	282,148
382,3	263,89
382,7	243,805
383,2	225,29
383,6	208,49
384,1	195,319
384,6	191,29
385	175,519
385,5	162,119
385,9	150,376
386,4	136,205
386,8	129,519
387,3	117,005
387,7	102,805
388,2	98,976
388,7	91,462
389,1	83,69
389,6	78,519
390	73,033
390,5	76,69
390,9	74,948
391,4	68,433
391,9	62,89
392,3	65,29
392,8	56,262
393,2	52,29
393,7	45,033
394,1	41,09
394,6	39,062
395,1	41,462
395,5	33,405
396	43,176
396,4	40,548
396,9	37,348
397,3	40,376
397,8	42,348
398,2	38,233
398,7	40,462
399,2	32,89
399,6	33,633
400,1	33,29
400,5	25,519
401	24,348
401,4	22,033
401,9	23,576
402,4	26,205
402,8	24,005
403,3	30,433
403,7	29,69
404,2	35,319
404,6	39,862
405,1	35,605
405,5	34,376
406	36,148
406,5	32,033
406,9	37,662
407,4	33,319
407,8	32,919
408,3	38,862
408,7	39,576
409,2	48,519
409,6	55,405
410,1	66,119
410,6	73,576
411	79,119
411,5	82,719
411,9	92,805
412,4	92,119
412,8	97,805
413,3	94,719
413,7	95,89
414,2	101,29
414,7	112,005
415,1	120,119
415,6	134,805
416	139,205
416,5	151,748
416,9	162,833
417,4	172,319
417,8	182,29
418,3	193,862
418,8	197,776
419,2	209,69
419,7	217,09
420,1	228,776
420,6	243,833
421	251,805
421,5	260,348
421,9	275,262
422,4	289,833
422,8	305,176
423,3	320,376
423,8	332,205
424,2	343,49
424,7	361,89
425,1	378,948
425,6	400,633
426	419,09
426,5	439,519
426,9	465,633
427,4	488,605
427,9	504,348
428,3	530,29
428,8	551,49
429,2	573,833
429,7	599,405
430,1	622,662
430,6	652,719
431	690,548
431,5	720,09
431,9	749,605
432,4	790,262
432,8	827,69
433,3	869,948
433,8	911,319
434,2	955,09
434,7	1005,576
435,1	1057,976
435,6	1112,262
436	1168,119
436,5	1227,119
436,9	1286,776
437,4	1344,433
437,8	1403,519
438,3	1467,29
438,8	1528,176
439,2	1595,776
439,7	1667,519
440,1	1744,633
440,6	1827,662
441	1904,662
441,5	1991,233
441,9	2087,205
442,4	2170,833
442,8	2260,29
443,3	2358,376
443,7	2453,49
444,2	2557,176
444,7	2657,005
445,1	2758,519
445,6	2875,29
446	2992,319
446,5	3098,176
446,9	3209,662
447,4	3337,748
447,8	3467,862
448,3	3600,776
448,7	3731,062
449,2	3860,948
449,6	4011,033
450,1	4145,633
450,6	4281,862
451	4425,119
451,5	4562,89
451,9	4716,719
452,4	4872,262
452,8	5016,062
453,3	5184,548
453,7	5348,176
454,2	5507,49
454,6	5678,348
455,1	5840,89
455,5	6004,519
456	6180,176
456,4	6348,433
456,9	6522,176
457,3	6707,719
457,8	6882,49
458,3	7060,262
458,7	7244,119
459,2	7432,062
459,6	7622,462
460,1	7814,319
460,5	8000,633
461	8200,662
461,4	8395,176
461,9	8587,405
462,3	8776,062
462,8	8970,976
463,2	9150,548
463,7	9341,148
464,1	9529,662
464,6	9723,69
465	9919,976
465,5	10108,633
466	10296,005
466,4	10492,89
466,9	10678,833
467,3	10865,09
467,8	11047,49
468,2	11220,033
468,7	11410,376
469,1	11596,205
469,6	11780,376
470	11965,548
470,5	12139,976
470,9	12311,748
471,4	12500,205
471,8	12664,062
472,3	12826,576
472,7	12992,519
473,2	13149,319
473,6	13298,433
474,1	13464,605
474,5	13611,233
475	13767,005
475,4	13920,605
475,9	14059,948
476,4	14195,462
476,8	14340,633
477,3	14477,69
477,7	14617,49
478,2	14734,548
478,6	14858,719
479,1	14970,29
479,5	15089,69
480	15193,548
480,4	15286,348
480,9	15375,548
481,3	15476,948
481,8	15560,519
482,2	15650,176
482,7	15724,605
483,1	15797,833
483,6	15873,233
484	15931,233
484,5	15990,033
484,9	16038,119
485,4	16089,319
485,8	16133,262
486,3	16181,348
486,7	16205,976
487,2	16234,348
487,6	16258,948
488,1	16286,462
488,5	16300,748
489	16318,148
489,4	16327,09
489,9	16335,033
490,4	16330,776
490,8	16321,948
491,3	16314,376
491,7	16293,405
492,2	16272,862
492,6	16247,033
493,1	16209,233
493,5	16178,89
494	16138,948
494,4	16090,49
494,9	16051,319
495,3	15998,748
495,8	15947,205
496,2	15905,805
496,7	15844,748
497,1	15786,548
497,6	15727,519
498	15657,033
498,5	15591,376
498,9	15518,49
499,4	15445,205
499,8	15378,262
500,3	15310,462
500,7	15237,69
501,2	15160,576
501,6	15084,49
502,1	15002,948
502,5	14921,548
503	14833,805
503,4	14742,033
503,9	14646,833
504,3	14554,719
504,8	14455,405
505,2	14367,748
505,7	14255,148
506,1	14157,49
506,6	14041,662
507	13925,633
507,5	13819,69
507,9	13717,719
508,4	13609,748
508,8	13505,348
509,3	13404,119
509,7	13312,062
510,2	13206,548
510,6	13095,433
511,1	12980,062
511,5	12865,033
512	12750,748
512,4	12622,948
512,9	12500,805
513,3	12384,405
513,8	12266,633
514,2	12150,948
514,7	12025,69
515,1	11912,548
515,6	11792,062
516	11669,09
516,5	11552,205
516,9	11442,033
517,4	11328,262
517,8	11212,376
518,3	11093,033
518,7	10977,69
519,2	10859,519
519,6	10747,405
520,1	10632,805
520,5	10510,29
521	10396,662
521,4	10285,29
521,9	10173,548
522,3	10066,119
522,8	9946,09
523,2	9833,519
523,7	9717,919
524,1	9603,005
524,6	9496,005
525	9403,348
525,5	9295,29
525,9	9194,748
526,4	9084,976
526,8	8989,09
527,3	8894,348
527,7	8792,69
528,2	8690,062
528,6	8588,29
529,1	8492,148
529,5	8398,148
530	8300,033
530,4	8208,348
530,9	8116,69
531,3	8018,862
531,8	7933,576
532,2	7845,033
532,6	7747,433
533,1	7655,719
533,5	7568,662
534	7475,433
534,4	7389,205
534,9	7304,376
535,3	7221,319
535,8	7144,176
536,2	7065,376
536,7	6979,976
537,1	6909,09
537,6	6825,862
538	6743,776
538,5	6670,89
538,9	6587,69
539,4	6518,49
539,8	6442,576
540,3	6365,233
540,7	6297,605
541,2	6226,176
541,6	6152,662
542,1	6097,662
542,5	6023,862
543	5957,233
543,4	5888,09
543,9	5829,148
544,3	5769,033
544,8	5702,405
545,2	5628,433
545,7	5569,205
546,1	5509,833
546,5	5454,205
547	5385,29
547,4	5328,605
547,9	5268,119
548,3	5216,719
548,8	5166,233
549,2	5105,148
549,7	5050,89
550,1	5004,433
550,6	4950,948
551	4905,033
551,5	4861,176
551,9	4797,719
552,4	4751,005
552,8	4704,519
553,3	4644,719
553,7	4589,662
554,2	4543,319
554,6	4495,462
555,1	4463,862
555,5	4423,29
555,9	4382,89
556,4	4346,833
556,8	4310,005
557,3	4272,576
557,7	4227,033
558,2	4177,948
558,6	4142,005
559,1	4094,576
559,5	4055,976
560	4017,833
560,4	3980,89
560,9	3943,49
561,3	3909,005
561,8	3865,376
562,2	3834,519
562,7	3800,348
563,1	3765,262
563,6	3724,29
564	3692,205
564,4	3654,433
564,9	3622,548
565,3	3585,09
565,8	3551,633
566,2	3522,862
566,7	3493,119
567,1	3463,033
567,6	3439,176
568	3406,805
568,5	3375,89
568,9	3345,748
569,4	3314,005
569,8	3283,033
570,3	3248,862
570,7	3214,033
571,1	3189,433
571,6	3167,376
572	3142,005
572,5	3115,29
572,9	3091,89
573,4	3072,176
573,8	3056,062
574,3	3028,633
574,7	2996,662
575,2	2968,805
575,6	2943,69
576,1	2918,405
576,5	2893,576
576,9	2858,033
577,4	2835,976
577,8	2812,576
578,3	2789,005
578,7	2762,919
579,2	2741,69
579,6	2715,176
580,1	2695,148
580,5	2668,319
581	2648,548
581,4	2627,376
581,9	2607,262
582,3	2586,09
582,7	2570,548
583,2	2551,576
583,6	2530,49
584,1	2514,89
584,5	2496,69
585	2478,148
585,4	2446,976
585,9	2425,233
586,3	2406,719
586,8	2393,805
587,2	2363,176
587,6	2345,09
588,1	2332,376
588,5	2318,948
589	2301,319
589,4	2284,348
589,9	2262,976
590,3	2250,519
590,8	2231,233
591,2	2210,548
591,7	2199,862
592,1	2183,148
592,5	2172,89
593	2156,262
593,4	2144,205
593,9	2131,005
594,3	2110,49
594,8	2089,776
595,2	2073,833
595,7	2056,776
596,1	2045,319
596,6	2032,605
597	2017,576
597,4	2010,319
597,9	2002,662
598,3	1993,748
598,8	1980,748
599,2	1966,148
599,7	1951,205
600,1	1934,776
600,6	1919,833
601	1908,433
601,4	1893,976
601,9	1881,519
602,3	1869,033
602,8	1858,233
603,2	1850,976
603,7	1839,176
604,1	1821,805
604,6	1807,348
605	1793,062
605,4	1783,605
605,9	1768,519
606,3	1749,09
606,8	1738,633
607,2	1727,233
607,7	1712,919
608,1	1703,033
608,6	1693,033
609	1685,948
609,4	1680,833
609,9	1667,119
610,3	1659,262
610,8	1650,833
611,2	1638,319
611,7	1624,776
612,1	1614,605
612,6	1603,49
613	1595,176
613,4	1579,976
613,9	1570,462
614,3	1558,09
614,8	1549,119
615,2	1535,005
615,7	1527,576
616,1	1520,805
616,6	1512,29
617	1500,862
617,4	1492,776
617,9	1484,005
618,3	1477,833
618,8	1467,348
619,2	1456,033
619,7	1449,605
620,1	1437,262
620,5	1428,205
621	1418,119
621,4	1408,833
621,9	1394,405
622,3	1381,805
622,8	1368,233
623,2	1359,662
623,6	1344,319
624,1	1333,09
624,5	1317,633
625	1315,433
625,4	1306,633
625,9	1302,719
626,3	1294,462
626,8	1287,719
627,2	1278,633
627,6	1267,748
628,1	1256,548
628,5	1249,948
629	1235,119
629,4	1226,233
629,9	1221,662
630,3	1208,062
630,7	1201,433
631,2	1191,69
631,6	1184,49
632,1	1179,09
632,5	1169,69
633	1162,548
633,4	1161,49
633,8	1154,862
634,3	1145,948
634,7	1131,948
635,2	1121,548
635,6	1116,633
636,1	1105,176
636,5	1094,548
636,9	1082,233
637,4	1077,376
637,8	1068,49
638,3	1058,719
638,7	1048,69
639,2	1036,69
639,6	1032,69
640	1025,662
640,5	1015,548
640,9	1009,348
641,4	1005,633
641,8	1001,005
642,2	1000,09
642,7	997,119
643,1	1002,576
643,6	995,262
644	991,205
644,5	985,919
644,9	982,319
645,3	975,348
645,8	961,29
646,2	953,005
646,7	948,662
647,1	943,433
647,6	936,662
648	929,119
648,4	919,776
648,9	917,119
649,3	904,605
649,8	901,633
650,2	891,69
650,6	886,776
651,1	880,09
651,5	881,205
652	873,89
652,4	868,319
652,9	858,062
653,3	853,776
653,7	847,948
654,2	839,862
654,6	831,862
655,1	827,776
655,5	828,919
655,9	824,433
656,4	825,662
656,8	820,662
657,3	814,919
657,7	812,433
658,2	805,062
658,6	793,948
659	786,976
659,5	773,205
659,9	771,519
660,4	766,405
660,8	755,233
661,2	747,29
661,7	745,519
662,1	742,233
662,6	740,005
663	730,319
663,4	727,833
663,9	720,033
664,3	713,519
664,8	702,89
665,2	694,776
665,6	688,548
666,1	687,176
666,5	684,205
667	682,433
667,4	681,005
667,9	679,433
668,3	674,233
668,7	669,948
669,2	662,605
669,6	656,09
670,1	653,719
670,5	649,176
670,9	644,262
671,4	645,005
671,8	642,119
672,3	641,176
672,7	636,148
673,1	626,833
673,6	621,69
674	613,776
674,5	610,09
674,9	597,348
675,3	587,748
675,8	585,433
676,2	578,662
676,7	573,062
677,1	570,976
677,5	562,09
678	566,462
678,4	565,49
678,9	557,662
679,3	561,205
679,7	560,462
680,2	555,319
680,6	550,405
681,1	547,005
681,5	541,519
681,9	542,548
682,4	534,119
682,8	531,233
683,3	531,89
683,7	532,948
684,1	530,033
684,6	528,633
685	521,519
685,5	518,919
685,9	508,405
686,3	501,89
686,8	497,948
687,2	495,176
687,7	486,748
688,1	478,605
688,5	474,662
689	475,319
689,4	473,662
689,9	468,176
690,3	463,719
690,7	463,49
691,2	466,976
691,6	463,262
692	461,776
692,5	455,376
692,9	451,176
693,4	443,348
693,8	443,033
694,2	436,262
694,7	433,462
695,1	428,319
695,6	433,005
696	432,948
696,4	429,29
696,9	420,89
697,3	416,805
697,8	418,376
698,2	414,433
698,6	407,605
699,1	403,89
699,5	405,633
699,9	402,862
700,4	399,405
700,8	397,405
701,3	394,205
701,7	386,119
702,1	385,062
702,6	382,062
703	379,548
703,5	377,633
703,9	368,976
704,3	368,576
704,8	367,605
705,2	358,69
705,6	351,633
706,1	351,576
706,5	348,49
707	350,719
707,4	350,405
707,8	345,776
708,3	346,062
708,7	345,148
709,2	341,405
709,6	335,119
710	334,005
710,5	328,29
710,9	329,205
711,3	326,548
711,8	326,233
712,2	321,862
712,7	320,719
713,1	315,89
713,5	312,119
714	312,519
714,4	306,919
714,8	305,719
715,3	304,005
715,7	307,176
716,2	305,319
716,6	306,919
717	299,462
717,5	298,776
717,9	297,433
718,3	293,548
718,8	289,119
719,2	288,919
719,7	280,433
720,1	281,262
720,5	283,833
721	278,948
721,4	278,462
721,8	282,148
722,3	272,776
722,7	279,29
723,2	272,062
723,6	261,719
724	259,405
724,5	257,748
724,9	251,462
725,3	252,89
725,8	248,576
726,2	249,805
726,7	251,662
727,1	252,89
727,5	252,748
728	248,148
728,4	247,119
728,8	245,09
729,3	239,633
729,7	238,119
730,1	233,776
730,6	231,633
731	230,205
731,5	226,49
731,9	224,605
732,3	229,262
732,8	232,29
733,2	230,633
733,6	229,033
734,1	227,119
734,5	224,462
734,9	224,89
735,4	219,576
735,8	211,205
736,3	215,348
736,7	211,662
737,1	212,29
737,6	212,519
738	208,062
738,4	209,633
738,9	211,205
739,3	207,748
739,7	206,233
740,2	204,005
740,6	210,462
741,1	212,919
741,5	204,748
741,9	206,919
742,4	206,09
742,8	206,719
743,2	208,148
743,7	196,519
744,1	192,833
744,5	196,576
745	190,833
745,4	186,519
745,8	183,433
746,3	180,519
746,7	180,748
747,2	181,548
747,6	188,462
748	189,633
748,5	188,976
748,9	184,719
749,3	182,176
749,8	184,09
750,2	181,776
750,6	175,69
751,1	180,119
751,5	179,519
751,9	187,005
752,4	188,262
752,8	185,633
753,3	182,405
753,7	179,633
754,1	167,89
754,6	159,433
755	151,033
755,4	148,148
755,9	148,005
756,3	147,519
756,7	146,005
757,2	150,633
757,6	157,548
758	158,433
758,5	159,605
758,9	159,662
759,3	158,605
759,8	156,148
760,2	155,462
760,6	149,29
761,1	147,033
761,5	141,633
761,9	136,49
762,4	134,348
762,8	136,633
763,3	135,005
763,7	136,633
764,1	140,176
764,6	143,233
765	145,919
765,4	144,233
765,9	139,548
766,3	138,233
766,7	135,576
767,2	131,605
767,6	132,548
768	130,89
768,5	131,176
768,9	132,576
769,3	132,062
769,8	132,719
770,2	133,719
770,6	129,119
771,1	129,548
771,5	130,719
771,9	129,748
772,4	128,233
772,8	128,89
773,2	129,433
773,7	127,719
774,1	129,633
774,5	120,462
775	120,919
775,4	122,376
775,8	118,919
776,3	117,348
776,7	119,29
777,1	114,605
777,6	120,633
778	124,119
778,4	120,605
778,9	125,49
779,3	121,776
779,7	118,605
780,2	118,348
780,6	119,519
781	114,89
781,5	114,605
781,9	108,862
782,3	106,605
782,8	109,576
783,2	106,576
783,6	108,833
784,1	105,69
784,5	102,348
784,9	104,119
785,4	105,976
785,8	105,576
786,2	105,548
786,7	98,633
787,1	95,433
787,5	96,348
788	93,719
788,4	95,148
788,8	90,919
789,3	90,519
789,7	92,233
790,1	95,205
790,6	98,348
791	99,033
791,4	98,519
791,9	98,605
792,3	96,233
792,7	98,005
793,2	92,605
793,6	88,233
794	89,805
794,5	86,119
794,9	88,662
795,3	93,662
795,8	88,233
796,2	95,805
796,6	99,319
797,1	96,548
797,5	92,319
797,9	87,005
798,4	81,805
798,8	80,062
799,2	75,49
799,7	76,519
800,1	74,405
800,5	79,405
801	82,833
801,4	80,462
801,8	81,748
802,2	84,776
802,7	75,405
803,1	74,89
803,5	74,462
804	69,319
804,4	71,719
804,8	72,205
805,3	74,176
805,7	78,748
806,1	77,405
806,6	78,976
807	82,233
807,4	78,748
807,9	74,776
808,3	69,576
808,7	69,148
809,2	71,205
809,6	71,262
810	62,748
810,4	65,49
810,9	65,948
811,3	67,805
811,7	67,633
812,2	68,49
812,6	64,376
813	75,29
813,5	77,976
813,9	77,919
814,3	73,776
814,8	68,919
815,2	64,09
815,6	66,576
816,1	66,605
816,5	64,633
816,9	67,405
817,3	68,262
817,8	75,833
818,2	74,919
818,6	69,519
819,1	66,605
819,5	65,805
819,9	64,719
820,4	62,976
820,8	56,462
821,2	55,262
821,7	58,262
822,1	60,719
822,5	63,662
822,9	63,09
823,4	59,062
823,8	61,233
824,2	62,433
824,7	59,976
825,1	50,748
825,5	43,976
826	40,919
826,4	46,862
826,8	44,49
827,3	44,976
827,7	44,005
828,1	47,633
828,5	48,576
829	47,376
829,4	43,662
829,8	40,033
830,3	40,519
830,7	38,976
831,1	41,462
831,6	40,205
832	43,233
832,4	42,862
832,8	47,348
833,3	47,205
833,7	45,49
834,1	41,89
834,6	38,49
835	37,805
835,4	37,119
835,8	34,633
836,3	32,576
836,7	37,462
837,1	36,005
837,6	41,519
838	41,862
838,4	43,462
838,9	44,262
839,3	43,948
839,7	42,919
840,1	38,69
840,6	37,776
841	38,376
841,4	39,462
841,9	38,405
842,3	39,405
842,7	38,29
843,1	42,119
843,6	40,976
844	37,49
844,4	39,319
844,9	39,376
845,3	40,833
845,7	40,976
846,2	40,919
846,6	37,748
847	37,462
847,4	35,976
847,9	35,976
848,3	32,148
848,7	33,662
849,2	33,948
849,6	33,633
850	35,833
850,4	34,176
850,9	34,776
851,3	39,376
851,7	37,005
852,2	36,833
852,6	41,605
853	44,833
853,4	41,633
853,9	37,633
854,3	36,49
854,7	38,205
855,2	35,09
855,6	35,319
856	28,176
856,4	28,29
856,9	29,519
857,3	31,576
857,7	29,462
858,2	34,262
858,6	31,605
859	35,519
859,4	30,833
859,9	30,69
860,3	22,576
860,7	25,433
861,1	26,49
861,6	24,519
862	25,119
862,4	26,776
862,9	30,633
863,3	32,376
863,7	28,233
864,1	26,833
864,6	29,805
865	25,262
865,4	26,862
865,9	27,69
866,3	21,462
866,7	21,462
867,1	14,49
867,6	12,405
868	13,405
868,4	10,662
868,8	8,805
869,3	15,176
869,7	21,433
870,1	22,033
870,6	19,462
871	25,119
871,4	31,89
871,8	29,319
872,3	30,919
872,7	26,233
873,1	26,176
873,5	28,662
874	22,576
874,4	19,119
874,8	15,519
875,3	15,29
875,7	16,576
876,1	20,376
876,5	19,833
877	20,719
877,4	18,148
877,8	22,176
878,2	24,976
878,7	23,719
879,1	23,348
879,5	25,662
879,9	26,633
880,4	28,948
880,8	29,719
881,2	30,805
881,7	30,348
882,1	29,262
882,5	26,776
882,9	24,919
883,4	22,919
883,8	20,119
884,2	14,519
884,6	12,605
885,1	13,376
885,5	15,262
885,9	13,319
886,3	16,719
886,8	14,948
887,2	13,89
887,6	16,205
888	12,062
888,5	10,919
888,9	11,748
889,3	6,948
889,8	5,833
890,2	7,719
890,6	4,833
891	9,519
891,5	8,319
891,9	8,719
892,3	12,633
892,7	14,49
893,2	11,805
893,6	8,719
894	6,662
894,4	7,062
894,9	6,662
895,3	3,805
895,7	7,89
896,1	9,548
896,6	14,662
897	15,548
897,4	17,033
897,8	19,862
898,3	24,062
898,7	20,319
899,1	18,062
899,5	13,09
900	9,062
900,4	4,862
900,8	2,205
901,2	-0,91
901,7	0,062
902,1	3,748
902,5	8,976
902,9	10,776
903,4	16,233
903,8	16,262
904,2	13,576
904,6	10,69
905,1	12,49
905,5	12,919
905,9	15,633
906,3	14,433
906,8	15,89
907,2	18,833
907,6	20,519
908	18,433
908,5	15,29
908,9	11,919
909,3	7,376
909,7	9,119
910,2	10,862
910,6	15,405
911	13,205
911,4	12,319
911,9	10,29
912,3	10,519
912,7	10,662
913,1	10,462
913,6	3,833
914	4,119
914,4	2,948
914,8	4,719
915,3	6,405
915,7	2,548
916,1	-0,31
916,5	2,376
916,9	-0,252
917,4	4,062
917,8	4,948
918,2	1,233
918,6	2,319
919,1	2,262
919,5	5,605
919,9	8,405
920,3	2,376
920,8	-0,767
921,2	-2,367
921,6	-5,11
922	-3,538
922,5	-4,652
922,9	-3,624
923,3	-0,567
923,7	2,89
924,2	8,405
924,6	11,49
925	9,948
925,4	8,205
925,8	6,376
926,3	9,433
926,7	9,548
927,1	4,119
927,5	3,919
928	3,033
928,4	1,148
928,8	2,548
929,2	-2,852
929,7	-1,338
930,1	4,833
930,5	2,405
930,9	7,405
931,3	9,262
931,8	10,919
932,2	10,405
932,6	5,948
933	2,519
933,5	4,176
933,9	2,69
934,3	4,519
934,7	1,776
935,2	7,176
935,6	9,519
936	10,319
936,4	11,433
936,8	12,148
937,3	9,176
937,7	11,805
938,1	12,662
938,5	8,976
939	7,919
939,4	8,748
939,8	5,405
940,2	3,862
940,6	4,062
941,1	1,005
941,5	8,29
941,9	7,033
942,3	2,319
942,8	5,062
943,2	10,519
943,6	6,148
944	4,119
944,4	-0,281
944,9	1,205
945,3	3,319
945,7	-1,481
946,1	-5,167
946,6	-6,024
947	-5,538
947,4	-1,795
947,8	1,29
948,2	-0,51
948,7	2,919
949,1	0,033
949,5	7,033
949,9	7,69
950,3	6,033
950,8	2,662
951,2	3,662
951,6	0,233
952	5,005
952,5	-2,881
952,9	0,062
953,3	-3,452
953,7	-6,481
954,1	-4,11
954,6	0,919
955	1,348
955,4	4,605
955,8	3,976
956,2	3,548
956,7	8,576
957,1	3,69
957,5	3,262
957,9	3,005
958,3	4,148
958,8	4,862
959,2	10,233
959,6	9,919
960	12,462
960,5	10,976
960,9	9,176
961,3	4,576
961,7	1,148
962,1	-0,738
962,6	0,605
963	2,433
963,4	-1,052
963,8	-2,595
964,2	2,062
964,7	3,233
965,1	6,948
965,5	5,033
965,9	6,748
966,3	10,49
966,8	14,233
967,2	13,948
967,6	12,605
968	4,548
968,4	2,719
968,9	1,548
969,3	4,805
969,7	0,119
970,1	-3,138
970,5	-5,51
971	0,319
971,4	3,405
971,8	1,748
972,2	-0,195
972,6	0,948
973,1	1,433
973,5	7,69
973,9	8,205
974,3	2,948
974,7	6,919
975,2	6,033
975,6	7,319
976	12,805
976,4	10,49
976,8	7,919
977,3	11,89
977,7	7,633
978,1	3,805
978,5	-0,252
978,9	-7,967
979,4	-12,595
979,8	-8,195
980,2	-7,424
980,6	-10,424
981	-4,138
981,5	-3,595
981,9	-1,51
982,3	2,548
982,7	-2,052
983,1	-3,195
983,6	-0,51
984	-1,852
984,4	3,662
984,8	6,89
985,2	6,062
985,6	5,805
986,1	4,062
986,5	4,519
986,9	-1,395
987,3	-2,052
987,7	-4,395
988,2	-4,081
988,6	-2,767
989	-5,167
989,4	-3,452
989,8	0,805
990,3	0,948
990,7	1,605
991,1	1,319
991,5	2,176
991,9	7,662
992,3	7,262
992,8	7,119
993,2	4,405
993,6	3,319
994	3,976
994,4	2,919
994,9	1,919
995,3	-0,824
995,7	-0,91
996,1	-0,567
996,5	-0,624
996,9	-3,481
997,4	-2,652
997,8	-2,995
998,2	-4,167
998,6	-9,767
999	-9,795
999,5	-8,424
999,9	-6,995
1000,3	-12,91
1000,7	-12,338
1001,1	-12,567
1001,5	-5,281
1002	-1,624
1002,4	-2,938
1002,8	-1,795
1003,2	4,433
1003,6	7,033
1004	15,233
1004,5	9,119
1004,9	8,319
1005,3	4,576
1005,7	4,005
1006,1	0,462
1006,6	-2,252
1007	-4,224
1007,4	-0,31
1007,8	-2,452
1008,2	0,633
1008,6	3,176
1009,1	4,519
1009,5	2,662
1009,9	1,176
1010,3	1,233
1010,7	3,119
1011,1	1,348
1011,6	2,233
1012	4,89
1012,4	4,548
1012,8	1,805
1013,2	6,805
1013,6	1,919
1014,1	4,976
1014,5	6,69
1014,9	3,633
1015,3	4,833
1015,7	6,376
1016,1	1,576
1016,6	5,948
1017	9,548
1017,4	2,89
1017,8	4,69
1018,2	6,862
1018,6	2,205
1019,1	2,519
1019,5	-1,51
1019,9	-10,367
1020,3	-6,624
1020,7	-6,652
1021,1	-10,681
1021,6	-7,91
1022	-4,795
1022,4	-1,481
1022,8	5,69
1023,2	5,776
1023,6	7,148
1024,1	14,833
1024,5	15,548
1024,9	7,49
1025,3	5,433
1025,7	2,119
1026,1	1,605
1026,6	-0,767
1027	-4,824
1027,4	-2,852
1027,8	0,69
1028,2	3,948
1028,6	8,119
1029	7,233
1029,5	11,148
1029,9	9,062
1030,3	2,319
1030,7	4,205
1031,1	-1,538
1031,5	-9,052
1032	-11,338
1032,4	-15,024
1032,8	-9,281
1033,2	-3,91
1033,6	-6,767
1034	-5,567
1034,4	-1,367
1034,9	2,633
1035,3	0,348
1035,7	-2,395
1036,1	-6,881
1036,5	-8,052
1036,9	-7,538
1037,4	-3,91
1037,8	-8,767
1038,2	-7,395
1038,6	-8,652
1039	-1,252
1039,4	5,176
1039,8	3,033
1040,3	-1,424
1040,7	-1,595
1041,1	0,462
1041,5	1,176
1041,9	-3,881
1042,3	-5,71
1042,7	2,233
1043,2	1,719
1043,6	4,605
1044	2,49
1044,4	2,348
1044,8	6,433
1045,2	6,805
1045,6	3,262
1046,1	5,433
1046,5	2,49
1046,9	1,633
1047,3	-1,224
1047,7	-1,652
1048,1	-8,252
1048,5	-8,052
1049	-5,452
1049,4	0,433
1049,8	3,519
1050,2	7,719
1050,6	10,519
1051	15,376
1051,4	16,49
1051,9	11,662
1052,3	16,348
1052,7	16,719
1053,1	9,833
1053,5	5,748
1053,9	5,433
1054,3	1,862
1054,8	5,433
1055,2	0,605
1055,6	4,205
1056	9,233
1056,4	8,176
1056,8	12,89
1057,2	15,69
1057,6	9,748
1058,1	11,033
1058,5	3,49
1058,9	5,233
1059,3	3,805
1059,7	0,748
1060,1	1,576
1060,5	7,262
1061	6,405
1061,4	8,576
1061,8	8,033
1062,2	8,748
1062,6	6,948
1063	2,862
1063,4	4,805
1063,8	-0,395
1064,3	-3,967
1064,7	-6,967
1065,1	-2,567
1065,5	-8,738
1065,9	-7,824
1066,3	-14,481
1066,7	-15,624
1067,1	-17,538
1067,6	-13,767
1068	-21,567
1068,4	-17,11
1068,8	-16,024
1069,2	-12,31
1069,6	-10,395
1070	-3,424
1070,4	-6,652
1070,9	-2,481
1071,3	0,805
1071,7	-0,081
1072,1	1,376
1072,5	3,805
1072,9	2,719
1073,3	6,662
1073,7	3,519
1074,2	0,005
1074,6	-1,081
1075	-1,795
1075,4	-5,938
1075,8	-3,138
1076,2	-5,995
1076,6	0,433
1077	-1,452
1077,5	8,519
1077,9	5,29
1078,3	4,633
1078,7	1,69
1079,1	0,262
1079,5	-4,881
1079,9	0,919
1080,3	-8,624
1080,7	-7,738
1081,2	0,376
1081,6	0,69
1082	-2,681
1082,4	6,462
1082,8	6,519
1083,2	8,005
1083,6	10,148
1084	6,09
1084,5	8,89
1084,9	9,176
1085,3	-1,395
1085,7	-2,367
1086,1	-4,624
1086,5	-4,481
1086,9	-3,881
1087,3	-8,795
1087,7	-5,367
1088,2	-1,424
1088,6	-5,31
1089	-2,567
1089,4	-4,138
1089,8	-3,052
1090,2	-2,595
1090,6	-3,767
1091	-2,595
1091,4	3,805
1091,9	5,919
1092,3	9,033
1092,7	5,833
1093,1	7,49
1093,5	7,948
1093,9	2,09
1094,3	1,719
1094,7	-2,795
1095,1	-3,995
1095,5	-2,167
1096	-5,452
1096,4	-4,71
1096,8	0,605
1097,2	-2,31
1097,6	2,062
1098	3,862
1098,4	5,319
1098,8	9,348
1099,2	14,319
1099,6	13,948
1100,1	12,119
1100,5	7,062
1100,9	1,662
1101,3	1,748
1101,7	-0,738
1102,1	-3,567
1102,5	-0,824
1102,9	4,405
1103,3	9,319
1103,7	11,833
1104,2	8,548
1104,6	8,948
1105	6,948
1105,4	4,29
1105,8	0,119
1106,2	-1,567
1106,6	-1,824
1107	-0,367
1107,4	0,333
1107,8	1,393
1108,3	-0,317
