Data from Subt2_007.txt Node
Date: Sat Aug 26 16:11:54 MSK 2023
User: vat
Spectrometer: MAYP114033
Trigger mode: 0
Integration Time (sec): 1,000000E0
Scans to average: 5
Electric dark correction enabled: true
Nonlinearity correction enabled: false
Boxcar width: 3
XAxis mode: Wavelengths
Number of Pixels in Spectrum: 2068
>>>>>Begin Spectral Data<<<<<
199,4	-1,667
199,9	-0,047
200,4	-0,467
200,8	0,005
201,3	0,519
201,8	2,005
202,2	1,119
202,7	2,69
203,2	1,205
203,6	5,119
204,1	4,405
204,6	6,833
205	6,233
205,5	8,548
206	7,919
206,4	7,29
206,9	3,748
207,4	4,119
207,8	3,748
208,3	1,662
208,8	3,576
209,2	-0,424
209,7	1,433
210,2	3,29
210,6	3,948
211,1	3,662
211,5	6,519
212	5,89
212,5	10,748
212,9	15,148
213,4	12,176
213,9	12,633
214,3	8,976
214,8	10,548
215,3	12,976
215,7	13,062
216,2	10,405
216,7	12,833
217,1	13,005
217,6	14,062
218,1	9,719
218,5	4,89
219	0,69
219,5	-1,567
219,9	-3,252
220,4	-0,252
220,9	-2,195
221,3	1,662
221,8	1,29
222,3	8,605
222,7	6,205
223,2	10,633
223,6	9,49
224,1	12,862
224,6	8,09
225	11,776
225,5	4,548
226	7,519
226,4	5,09
226,9	5,976
227,4	9,176
227,8	10,748
228,3	7,576
228,8	10,519
229,2	11,633
229,7	11,919
230,2	8,69
230,6	7,005
231,1	12,262
231,5	17,805
232	16,062
232,5	15,576
232,9	14,662
233,4	14,033
233,9	7,548
234,3	0,805
234,8	-2,252
235,3	3,49
235,7	0,462
236,2	0,062
236,7	-1,567
237,1	0,005
237,6	0,462
238,1	-1,424
238,5	-6,881
239	-1,195
239,4	-0,852
239,9	-2,538
240,4	3,633
240,8	5,605
241,3	6,633
241,8	7,805
242,2	5,062
242,7	7,719
243,2	10,519
243,6	6,719
244,1	5,148
244,6	1,119
245	-1,424
245,5	-1,395
245,9	-3,224
246,4	1,433
246,9	4,519
247,3	4,948
247,8	8,148
248,3	6,176
248,7	9,833
249,2	8,633
249,7	4,233
250,1	2,005
250,6	5,433
251	4,89
251,5	10,69
252	8,462
252,4	10,062
252,9	10,148
253,4	11,919
253,8	9,805
254,3	12,519
254,8	11,176
255,2	9,319
255,7	7,148
256,1	7,919
256,6	3,833
257,1	3,776
257,5	0,176
258	-1,252
258,5	-2,595
258,9	-1,481
259,4	-8,138
259,9	-6,424
260,3	-4,11
260,8	-6,681
261,2	-5,252
261,7	-9,71
262,2	-8,367
262,6	-2,681
263,1	-2,338
263,6	-3,652
264	-0,281
264,5	2,433
264,9	10,576
265,4	7,605
265,9	8,662
266,3	8,033
266,8	7,69
267,3	6,119
267,7	0,976
268,2	-2,51
268,7	-0,824
269,1	-2,167
269,6	-6,71
270	-4,881
270,5	-3,224
271	-2,252
271,4	1,605
271,9	2,805
272,4	3,29
272,8	11,719
273,3	10,29
273,7	12,376
274,2	7,976
274,7	5,29
275,1	5,319
275,6	2,776
276,1	-0,452
276,5	-2,024
277	-6,738
277,4	-2,71
277,9	-2,738
278,4	-0,51
278,8	1,405
279,3	0,09
279,8	-0,052
280,2	7,519
280,7	9,833
281,1	10,548
281,6	4,662
282,1	6,833
282,5	4,519
283	10,49
283,4	2,548
283,9	-1,967
284,4	-3,681
284,8	-2,11
285,3	-4,424
285,8	1,119
286,2	-2,538
286,7	-5,624
287,1	-1,595
287,6	-2,995
288,1	-5,91
288,5	-7,452
289	-9,395
289,5	-10,052
289,9	-4,852
290,4	-5,31
290,8	-4,252
291,3	2,748
291,8	4,69
292,2	6,719
292,7	4,033
293,1	8,805
293,6	10,233
294,1	7,09
294,5	2,262
295	3,633
295,5	2,233
295,9	1,148
296,4	-4,71
296,8	-3,595
297,3	1,548
297,8	0,319
298,2	1,148
298,7	2,519
299,1	6,033
299,6	6,262
300,1	6,548
300,5	8,948
301	10,976
301,5	8,462
301,9	8,719
302,4	5,633
302,8	5,462
303,3	2,062
303,8	-3,938
304,2	-4,995
304,7	-3,195
305,1	-6,052
305,6	-2,338
306,1	-3,852
306,5	-4,567
307	-6,452
307,4	-5,424
307,9	-7,081
308,4	-8,51
308,8	-2,167
309,3	1,69
309,8	4,805
310,2	8,176
310,7	7,748
311,1	8,833
311,6	9,09
312,1	1,29
312,5	3,633
313	1,89
313,4	1,119
313,9	-1,167
314,4	-1,024
314,8	3,548
315,3	5,633
315,7	3,462
316,2	3,862
316,7	1,976
317,1	5,919
317,6	7,148
318	4,319
318,5	5,319
319	2,033
319,4	-1,681
319,9	0,262
320,3	-0,252
320,8	-0,052
321,3	-2,338
321,7	-5,852
322,2	-3,681
322,6	-0,881
323,1	-0,11
323,6	1,148
324	0,233
324,5	5,633
324,9	4,462
325,4	9,548
325,9	3,119
326,3	3,319
326,8	1,262
327,2	-0,338
327,7	-6,024
328,2	-4,595
328,6	-6,138
329,1	-1,881
329,5	-3,938
330	-5,91
330,5	-4,081
330,9	-2,481
331,4	-4,767
331,8	-5,481
332,3	-2,052
332,8	1,748
333,2	0,205
333,7	1,348
334,1	-0,081
334,6	2,89
335,1	0,49
335,5	1,662
336	-0,424
336,4	6,919
336,9	5,033
337,4	10,576
337,8	13,09
338,3	11,29
338,7	11,176
339,2	10,005
339,7	7,519
340,1	12,376
340,6	8,805
341	4,719
341,5	7,576
342	12,405
342,4	18,633
342,9	23,433
343,3	16,919
343,8	17,29
344,2	18,89
344,7	14,976
345,2	9,576
345,6	6,919
346,1	-0,195
346,5	1,748
347	0,262
347,5	0,89
347,9	9,833
348,4	7,976
348,8	11,433
349,3	15,948
349,8	19,919
350,2	27,005
350,7	33,633
351,1	34,69
351,6	46,948
352	54,948
352,5	67,805
353	77,005
353,4	86,833
353,9	98,062
354,3	126,462
354,8	146,148
355,3	170,805
355,7	197,49
356,2	235,748
356,6	282,776
357,1	336,119
357,5	384,49
358	453,348
358,5	535,89
358,9	630,833
359,4	731,919
359,8	846,348
360,3	978,462
360,8	1126,119
361,2	1285,776
361,7	1463,205
362,1	1652,662
362,6	1869,176
363	2101,805
363,5	2348,319
364	2597,262
364,4	2860,405
364,9	3120,005
365,3	3398,605
365,8	3658,548
366,3	3894,062
366,7	4108,033
367,2	4291,576
367,6	4446,948
368,1	4563,233
368,5	4627,833
369	4660,176
369,5	4656,805
369,9	4618,919
370,4	4552,548
370,8	4445,405
371,3	4308,205
371,7	4145,662
372,2	3963,862
372,7	3778,919
373,1	3571,176
373,6	3364,948
374	3155,005
374,5	2955,69
374,9	2753,662
375,4	2562,862
375,9	2363,89
376,3	2184,176
376,8	2011,462
377,2	1851,748
377,7	1694,719
378,2	1557,862
378,6	1421,748
379,1	1303,405
379,5	1193,09
380	1092,233
380,4	1001,605
380,9	920,033
381,4	844,176
381,8	774,748
382,3	715,033
382,7	661,148
383,2	611,376
383,6	564,776
384,1	527,062
384,6	489,49
385	455,405
385,5	427,605
385,9	394,833
386,4	370,29
386,8	346,148
387,3	320,319
387,7	299,776
388,2	277,948
388,7	254,433
389,1	237,805
389,6	218,948
390	201,976
390,5	191,005
390,9	175,376
391,4	165,89
391,9	156,805
392,3	146,49
392,8	143,148
393,2	134,49
393,7	122,262
394,1	114,519
394,6	109,462
395,1	99,919
395,5	98,262
396	85,405
396,4	83,776
396,9	78,69
397,3	74,719
397,8	73,519
398,2	70,919
398,7	63,862
399,2	63,205
399,6	56,919
400,1	57,89
400,5	57,005
401	48,89
401,4	48,833
401,9	49,719
402,4	50,119
402,8	52,633
403,3	56,833
403,7	59,548
404,2	64,148
404,6	61,89
405,1	61,662
405,5	63,662
406	61,062
406,5	60,976
406,9	62,948
407,4	64,09
407,8	71,29
408,3	73,89
408,7	73,89
409,2	80,919
409,6	85,976
410,1	94,633
410,6	99,748
411	106,405
411,5	115,662
411,9	127,805
412,4	133,948
412,8	137,348
413,3	140,29
413,7	147,49
414,2	152,919
414,7	159,862
415,1	158,862
415,6	165,776
416	174,119
416,5	184,348
416,9	197,49
417,4	204,033
417,8	212,719
418,3	227,148
418,8	242,776
419,2	255,976
419,7	266,405
420,1	274,433
420,6	294,205
421	307,005
421,5	325,519
421,9	339,548
422,4	356,262
422,8	375,89
423,3	397,576
423,8	416,29
424,2	434,348
424,7	450,576
425,1	466,462
425,6	481,176
426	497,09
426,5	520,29
426,9	538,262
427,4	568,833
427,9	599,005
428,3	630,033
428,8	664,748
429,2	702,09
429,7	731,919
430,1	773,662
430,6	807,148
431	844,948
431,5	886,776
431,9	935,976
432,4	977,005
432,8	1021,033
433,3	1063,919
433,8	1114,462
434,2	1166,548
434,7	1218,462
435,1	1276,576
435,6	1330,405
436	1398,89
436,5	1468,976
436,9	1539,005
437,4	1610,119
437,8	1690,262
438,3	1766,948
438,8	1852,462
439,2	1935,633
439,7	2019,576
440,1	2106,433
440,6	2200,433
441	2295,148
441,5	2392,548
441,9	2499,719
442,4	2603,233
442,8	2713,719
443,3	2830,605
443,7	2945,119
444,2	3058,69
444,7	3176,633
445,1	3298,662
445,6	3431,462
446	3557,433
446,5	3689,033
446,9	3829,719
447,4	3982,776
447,8	4133,748
448,3	4281,69
448,7	4428,605
449,2	4590,89
449,6	4761,262
450,1	4931,148
450,6	5098,433
451	5261,462
451,5	5442,519
451,9	5628,49
452,4	5820,119
452,8	6004,862
453,3	6191,748
453,7	6384,119
454,2	6589,348
454,6	6792,462
455,1	6991,119
455,5	7191,062
456	7404,633
456,4	7611,062
456,9	7828,69
457,3	8042,976
457,8	8258,605
458,3	8481,062
458,7	8711,376
459,2	8934,062
459,6	9163,09
460,1	9395,605
460,5	9628,005
461	9860,233
461,4	10105,976
461,9	10341,862
462,3	10572,09
462,8	10806,948
463,2	11032,348
463,7	11272,976
464,1	11511,948
464,6	11743,148
465	11974,462
465,5	12227,062
466	12475,862
466,4	12716,405
466,9	12948,862
467,3	13200,262
467,8	13446,49
468,2	13690,662
468,7	13915,148
469,1	14141,805
469,6	14382,205
470	14623,548
470,5	14844,89
470,9	15057,948
471,4	15274,662
471,8	15498,062
472,3	15721,319
472,7	15929,633
473,2	16136,833
473,6	16330,49
474,1	16533,233
474,5	16740,548
475	16940,89
475,4	17138,348
475,9	17321,948
476,4	17508,548
476,8	17692,719
477,3	17872,605
477,7	18045,119
478,2	18200,633
478,6	18354,005
479,1	18517,148
479,5	18665,405
480	18813,348
480,4	18951,119
480,9	19063,319
481,3	19195,662
481,8	19310,833
482,2	19409,176
482,7	19503,519
483,1	19613,376
483,6	19703,548
484	19789,49
484,5	19865,633
484,9	19937,69
485,4	20017,519
485,8	20079,262
486,3	20126,748
486,7	20179,576
487,2	20232,776
487,6	20258,776
488,1	20296,148
488,5	20329,062
489	20345,262
489,4	20351,462
489,9	20350,262
490,4	20343,062
490,8	20336,233
491,3	20313,062
491,7	20273,748
492,2	20256,462
492,6	20227,862
493,1	20191,49
493,5	20143,405
494	20097,49
494,4	20050,633
494,9	19997,633
495,3	19929,348
495,8	19871,662
496,2	19810,033
496,7	19743,062
497,1	19674,748
497,6	19597,262
498	19512,748
498,5	19428,833
498,9	19330,462
499,4	19232,519
499,8	19142,29
500,3	19032,29
500,7	18934,233
501,2	18833,805
501,6	18742,462
502,1	18629,776
502,5	18534,348
503	18425,748
503,4	18332,005
503,9	18218,148
504,3	18116,662
504,8	17994,005
505,2	17866,433
505,7	17729,262
506,1	17602,262
506,6	17463,833
507	17320,319
507,5	17166,319
507,9	17028,319
508,4	16901,662
508,8	16764,519
509,3	16621,433
509,7	16479,748
510,2	16352,776
510,6	16223,462
511,1	16078,862
511,5	15935,49
512	15788,119
512,4	15643,405
512,9	15500,033
513,3	15345,148
513,8	15202,433
514,2	15047,148
514,7	14892,862
515,1	14752,262
515,6	14608,776
516	14461,833
516,5	14317,433
516,9	14161,033
517,4	14027,433
517,8	13889,948
518,3	13742,548
518,7	13594,062
519,2	13446,719
519,6	13302,148
520,1	13163,948
520,5	13016,69
521	12870,919
521,4	12731,09
521,9	12597,462
522,3	12456,548
522,8	12324,09
523,2	12178,662
523,7	12049,176
524,1	11914,605
524,6	11782,433
525	11643,262
525,5	11513,805
525,9	11383,005
526,4	11263,748
526,8	11131,833
527,3	11008,49
527,7	10885,433
528,2	10767,319
528,6	10651,119
529,1	10532,376
529,5	10419,348
530	10307,976
530,4	10206,176
530,9	10094,633
531,3	9984,976
531,8	9882,433
532,2	9772,29
532,6	9653,49
533,1	9539,405
533,5	9432,09
534	9322,148
534,4	9212,833
534,9	9104,605
535,3	9007,319
535,8	8912,233
536,2	8817,119
536,7	8715,319
537,1	8623,89
537,6	8533,176
538	8443,09
538,5	8352,29
538,9	8258,633
539,4	8165,033
539,8	8077,633
540,3	7989,948
540,7	7910,233
541,2	7828,262
541,6	7746,119
542,1	7674,548
542,5	7601,119
543	7526,433
543,4	7458,519
543,9	7381,233
544,3	7304,976
544,8	7227,576
545,2	7153,29
545,7	7083,433
546,1	7010,519
546,5	6927,976
547	6858,462
547,4	6793,919
547,9	6725,319
548,3	6660,576
548,8	6592,176
549,2	6530,233
549,7	6478,49
550,1	6419,748
550,6	6354,548
551	6298,49
551,5	6234,262
551,9	6183,262
552,4	6120,576
552,8	6061,633
553,3	6001,462
553,7	5955,376
554,2	5907,29
554,6	5865,69
555,1	5814,662
555,5	5768,519
555,9	5720,89
556,4	5677,148
556,8	5625,662
557,3	5571,319
557,7	5524,233
558,2	5470,49
558,6	5424,233
559,1	5370,519
559,5	5329,719
560	5277,376
560,4	5237,148
560,9	5196,233
561,3	5160,976
561,8	5123,89
562,2	5089,462
562,7	5042,605
563,1	5014,548
563,6	4981,633
564	4945,633
564,4	4908,919
564,9	4871,033
565,3	4838,062
565,8	4806,49
566,2	4768,148
566,7	4725,005
567,1	4681,319
567,6	4642,89
568	4604,662
568,5	4564,548
568,9	4531,233
569,4	4499,976
569,8	4466,462
570,3	4437,462
570,7	4414,719
571,1	4382,148
571,6	4348,919
572	4313,576
572,5	4275,919
572,9	4245,719
573,4	4209,976
573,8	4175,205
574,3	4150,29
574,7	4126,976
575,2	4098,205
575,6	4074,776
576,1	4044,862
576,5	4020,805
576,9	3989,633
577,4	3962,09
577,8	3932,433
578,3	3908,662
578,7	3880,005
579,2	3854,976
579,6	3830,519
580,1	3805,348
580,5	3779,176
581	3751,262
581,4	3724,805
581,9	3691,005
582,3	3668,348
582,7	3638,633
583,2	3608,662
583,6	3580,205
584,1	3557,376
584,5	3529,119
585	3514,919
585,4	3492,405
585,9	3468,405
586,3	3457,462
586,8	3438,348
587,2	3417,462
587,6	3402,405
588,1	3373,519
588,5	3350,319
589	3323,576
589,4	3295,376
589,9	3277,062
590,3	3257,262
590,8	3230,776
591,2	3216,033
591,7	3197,005
592,1	3190,805
592,5	3173,319
593	3146,233
593,4	3122,805
593,9	3105,633
594,3	3089,719
594,8	3072,748
595,2	3057,862
595,7	3043,719
596,1	3028,548
596,6	3016,376
597	3001,548
597,4	2987,462
597,9	2972,376
598,3	2948,805
598,8	2927,748
599,2	2914,033
599,7	2903,862
600,1	2885,605
600,6	2862,976
601	2852,748
601,4	2840,119
601,9	2830,148
602,3	2819,49
602,8	2803,662
603,2	2790,748
603,7	2783,09
604,1	2757,605
604,6	2736,462
605	2715,262
605,4	2692,748
605,9	2679,805
606,3	2665,776
606,8	2647,49
607,2	2637,49
607,7	2624,805
608,1	2607,348
608,6	2597,348
609	2574,89
609,4	2560,862
609,9	2543,433
610,3	2528,433
610,8	2513,176
611,2	2502,69
611,7	2483,519
612,1	2471,605
612,6	2458,833
613	2449,09
613,4	2429,233
613,9	2412,69
614,3	2403,205
614,8	2394,348
615,2	2377,833
615,7	2360,633
616,1	2340,919
616,6	2330,605
617	2319,319
617,4	2298,062
617,9	2281,69
618,3	2265,719
618,8	2253,948
619,2	2240,976
619,7	2228,119
620,1	2216,405
620,5	2203,319
621	2183,319
621,4	2173,176
621,9	2164,519
622,3	2155,205
622,8	2138,376
623,2	2123,376
623,6	2114,976
624,1	2105,776
624,5	2095,176
625	2082,119
625,4	2066,719
625,9	2057,348
626,3	2043,719
626,8	2029,062
627,2	2020,776
627,6	2002,319
628,1	1985,662
628,5	1981,405
629	1970,719
629,4	1957,976
629,9	1946,948
630,3	1930,805
630,7	1916,89
631,2	1899,29
631,6	1877,033
632,1	1863,176
632,5	1851,262
633	1837,29
633,4	1830,719
633,8	1822,69
634,3	1805,776
634,7	1799,776
635,2	1787,833
635,6	1778,233
636,1	1767,376
636,5	1751,633
636,9	1737,49
637,4	1730,69
637,8	1716,348
638,3	1703,49
638,7	1694,548
639,2	1681,062
639,6	1673,319
640	1667,662
640,5	1661,062
640,9	1650,776
641,4	1640,519
641,8	1624,49
642,2	1613,748
642,7	1599,262
643,1	1587,948
643,6	1572,233
644	1562,376
644,5	1554,433
644,9	1552,062
645,3	1547,433
645,8	1536,519
646,2	1529,519
646,7	1526,348
647,1	1516,862
647,6	1506,262
648	1489,433
648,4	1480,205
648,9	1474,348
649,3	1461,148
649,8	1451,148
650,2	1447,29
650,6	1439,148
651,1	1435,833
651,5	1423,005
652	1412,833
652,4	1405,919
652,9	1396,805
653,3	1385,605
653,7	1378,49
654,2	1371,605
654,6	1363,776
655,1	1354,69
655,5	1343,09
655,9	1329,519
656,4	1319,005
656,8	1308,462
657,3	1294,662
657,7	1284,29
658,2	1276,748
658,6	1269,805
659	1266,576
659,5	1248,29
659,9	1242,862
660,4	1236,748
660,8	1230,519
661,2	1225,805
661,7	1216,119
662,1	1206,805
662,6	1203,519
663	1189,633
663,4	1182,519
663,9	1175,719
664,3	1164,662
664,8	1160,605
665,2	1152,09
665,6	1147,233
666,1	1142,376
666,5	1132,433
667	1124,919
667,4	1115,176
667,9	1103,205
668,3	1097,29
668,7	1086,576
669,2	1075,748
669,6	1068,148
670,1	1058,633
670,5	1052,833
670,9	1049,548
671,4	1042,376
671,8	1039,662
672,3	1034,49
672,7	1026,519
673,1	1016,548
673,6	1009,348
674	995,148
674,5	988,205
674,9	977,262
675,3	971,633
675,8	964,148
676,2	959,005
676,7	953,719
677,1	951,376
677,5	937,719
678	931,69
678,4	924,205
678,9	918,919
679,3	912,376
679,7	904,862
680,2	898,49
680,6	899,576
681,1	894,576
681,5	890,976
681,9	883,233
682,4	876,433
682,8	871,662
683,3	863,519
683,7	856,319
684,1	848,148
684,6	834,89
685	829,89
685,5	825,662
685,9	817,89
686,3	812,633
686,8	803,633
687,2	798,205
687,7	793,29
688,1	787,09
688,5	780,69
689	774,748
689,4	766,405
689,9	765,348
690,3	758,319
690,7	755,319
691,2	751,69
691,6	742,348
692	736,376
692,5	733,862
692,9	721,919
693,4	718,576
693,8	711,805
694,2	704,69
694,7	704,548
695,1	700,205
695,6	695,29
696	693,576
696,4	687,319
696,9	686,119
697,3	672,49
697,8	669,433
698,2	663,405
698,6	662,805
699,1	660,462
699,5	656,948
699,9	649,462
700,4	655,776
700,8	648,462
701,3	641,919
701,7	632,548
702,1	628,29
702,6	621,062
703	612,09
703,5	604,776
703,9	599,748
704,3	599,462
704,8	593,376
705,2	587,376
705,6	586,119
706,1	587,89
706,5	578,119
707	573,405
707,4	569,805
707,8	566,176
708,3	559,148
708,7	551,462
709,2	542,176
709,6	545,205
710	540,29
710,5	539,89
710,9	538,719
711,3	535,89
711,8	534,49
712,2	537,519
712,7	534,148
713,1	530,119
713,5	519,376
714	515,348
714,4	507,919
714,8	499,605
715,3	492,633
715,7	480,148
716,2	478,49
716,6	475,29
717	465,776
717,5	468,69
717,9	471,948
718,3	468,148
718,8	475,519
719,2	469,633
719,7	468,576
720,1	469,119
720,5	461,29
721	455,519
721,4	454,776
721,8	445,919
722,3	442,09
722,7	437,948
723,2	431,176
723,6	425,319
724	421,376
724,5	412,29
724,9	407,748
725,3	406,119
725,8	401,205
726,2	397,748
726,7	401,805
727,1	401,033
727,5	398,119
728	395,662
728,4	390,805
728,8	382,576
729,3	385,519
729,7	376,519
730,1	371,805
730,6	368,948
731	371,376
731,5	374,548
731,9	373,433
732,3	364,662
732,8	365,748
733,2	365,262
733,6	363,176
734,1	357,319
734,5	349,148
734,9	347,69
735,4	341,205
735,8	335,205
736,3	334,662
736,7	334,89
737,1	334,433
737,6	331,376
738	332,776
738,4	340,776
738,9	348,49
739,3	345,433
739,7	349,776
740,2	349,405
740,6	350,433
741,1	346,433
741,5	343,748
741,9	330,462
742,4	326,919
742,8	316,69
743,2	308,805
743,7	307,576
744,1	311,205
744,5	310,262
745	313,976
745,4	307,548
745,8	312,176
746,3	309,662
746,7	308,548
747,2	297,548
747,6	292,833
748	286,748
748,5	286,319
748,9	278,719
749,3	278,262
749,8	276,262
750,2	276,919
750,6	278,519
751,1	278,005
751,5	280,29
751,9	281,69
752,4	280,348
752,8	271,29
753,3	271,69
753,7	265,119
754,1	265,062
754,6	260,662
755	254,89
755,4	251,49
755,9	257,605
756,3	257,176
756,7	256,005
757,2	251,033
757,6	249,576
758	251,205
758,5	252,405
758,9	247,719
759,3	244,69
759,8	243,119
760,2	243,719
760,6	245,09
761,1	242,119
761,5	242,576
761,9	241,976
762,4	237,576
762,8	235,205
763,3	233,976
763,7	223,576
764,1	221,776
764,6	213,948
765	215,748
765,4	211,748
765,9	209,633
766,3	207,719
766,7	212,433
767,2	210,148
767,6	215,233
768	208,233
768,5	211,005
768,9	207,49
769,3	208,89
769,8	210,576
770,2	206,148
770,6	199,948
771,1	197,576
771,5	196,233
771,9	198,69
772,4	196,119
772,8	188,69
773,2	193,405
773,7	192,948
774,1	193,89
774,5	194,062
775	193,748
775,4	195,348
775,8	200,319
776,3	198,89
776,7	195,633
777,1	194,776
777,6	192,148
778	189,662
778,4	183,29
778,9	177,89
779,3	171,748
779,7	173,576
780,2	172,919
780,6	178,319
781	178,09
781,5	180,976
781,9	180,033
782,3	182,119
782,8	182,405
783,2	180,833
783,6	181,376
784,1	173,176
784,5	170,576
784,9	166,319
785,4	161,633
785,8	166,119
786,2	164,548
786,7	154,433
787,1	159,69
787,5	156,89
788	159,433
788,4	159,948
788,8	151,176
789,3	149,69
789,7	152,348
790,1	153,005
790,6	150,176
791	148,148
791,4	144,633
791,9	145,148
792,3	142,633
792,7	142,319
793,2	138,948
793,6	143,49
794	148,69
794,5	153,033
794,9	152,919
795,3	151,233
795,8	148,233
796,2	148,862
796,6	145,405
797,1	146,805
797,5	145,605
797,9	143,548
798,4	144,462
798,8	145,262
799,2	144,29
799,7	138,548
800,1	135,09
800,5	131,719
801	130,319
801,4	129,862
801,8	131,033
802,2	129,519
802,7	136,262
803,1	131,748
803,5	133,89
804	137,662
804,4	135,976
804,8	129,405
805,3	130,69
805,7	123,89
806,1	124,005
806,6	122,662
807	116,176
807,4	116,29
807,9	117,262
808,3	113,519
808,7	111,148
809,2	108,376
809,6	104,062
810	108,176
810,4	106,89
810,9	108,919
811,3	108,69
811,7	110,833
812,2	109,176
812,6	107,919
813	104,548
813,5	101,748
813,9	102,319
814,3	102,433
814,8	105,833
815,2	103,89
815,6	104,262
816,1	101,948
816,5	107,69
816,9	97,319
817,3	93,776
817,8	92,348
818,2	93,462
818,6	91,49
819,1	91,433
819,5	89,205
819,9	95,09
820,4	98,748
820,8	94,09
821,2	93,805
821,7	95,033
822,1	95,433
822,5	91,09
822,9	86,833
823,4	81,519
823,8	83,29
824,2	79,519
824,7	81,119
825,1	79,776
825,5	77,576
826	80,376
826,4	86,09
826,8	82,519
827,3	85,519
827,7	83,605
828,1	82,805
828,5	84,176
829	82,89
829,4	79,119
829,8	80,49
830,3	79,919
830,7	77,833
831,1	78,976
831,6	79,462
832	75,062
832,4	70,462
832,8	71,148
833,3	71,89
833,7	72,69
834,1	71,233
834,6	71,976
835	70,89
835,4	79,776
835,8	74,976
836,3	70,205
836,7	67,605
837,1	62,176
837,6	60,176
838	62,319
838,4	51,89
838,9	53,176
839,3	59,719
839,7	60,233
840,1	63,69
840,6	63,948
841	66,033
841,4	67,348
841,9	64,805
842,3	60,462
842,7	64,833
843,1	65,376
843,6	68,376
844	65,948
844,4	64,919
844,9	68,662
845,3	66,233
845,7	63,062
846,2	61,862
846,6	59,176
847	57,49
847,4	54,833
847,9	52,89
848,3	50,662
848,7	49,148
849,2	47,748
849,6	44,119
850	44,405
850,4	49,69
850,9	49,49
851,3	50,29
851,7	51,833
852,2	49,89
852,6	50,633
853	51,662
853,4	49,719
853,9	53,09
854,3	55,833
854,7	51,662
855,2	53,548
855,6	48,833
856	50,205
856,4	53,833
856,9	49,605
857,3	46,833
857,7	47,29
858,2	42,548
858,6	44,833
859	40,319
859,4	34,205
859,9	34,948
860,3	38,119
860,7	37,405
861,1	40,776
861,6	41,69
862	41,605
862,4	41,605
862,9	40,062
863,3	37,49
863,7	40,862
864,1	41,919
864,6	42,319
865	43,976
865,4	46,862
865,9	48,062
866,3	46,233
866,7	44,433
867,1	40,976
867,6	33,948
868	28,519
868,4	26,833
868,8	27,262
869,3	31,919
869,7	31,205
870,1	31,662
870,6	35,062
871	62,519
871,4	64,976
871,8	64,233
872,3	55,348
872,7	56,576
873,1	56,462
873,5	56,319
874	36,005
874,4	32,776
874,8	25,662
875,3	26,176
875,7	17,69
876,1	14,662
876,5	16,405
877	11,748
877,4	9,89
877,8	14,205
878,2	18,405
878,7	24,176
879,1	25,748
879,5	25,119
879,9	20,976
880,4	20,205
880,8	15,719
881,2	14,29
881,7	13,119
882,1	17,005
882,5	19,89
882,9	22,262
883,4	24,576
883,8	24,89
884,2	26,148
884,6	27,462
885,1	21,462
885,5	21,719
885,9	21,605
886,3	15,462
886,8	21,348
887,2	22,005
887,6	18,662
888	25,29
888,5	20,376
888,9	18,119
889,3	28,262
889,8	26,09
890,2	23,576
890,6	22,29
891	23,89
891,5	21,776
891,9	21,662
892,3	12,348
892,7	10,262
893,2	14,776
893,6	12,976
894	3,862
894,4	3,49
894,9	4,662
895,3	8,233
895,7	9,548
896,1	0,776
896,6	7,948
897	9,405
897,4	11,205
897,8	15,69
898,3	13,948
898,7	14,919
899,1	17,262
899,5	14,09
900	18,119
900,4	18,976
900,8	18,919
901,2	21,462
901,7	20,719
902,1	25,233
902,5	24,948
902,9	19,805
903,4	14,233
903,8	12,462
904,2	11,319
904,6	13,005
905,1	10,005
905,5	8,662
905,9	12,633
906,3	15,005
906,8	12,576
907,2	11,776
907,6	10,005
908	9,062
908,5	13,633
908,9	12,062
909,3	13,662
909,7	16,148
910,2	19,519
910,6	21,862
911	22,433
911,4	22,176
911,9	24,862
912,3	28,405
912,7	28,262
913,1	24,69
913,6	22,433
914	23,319
914,4	20,462
914,8	15,548
915,3	16,348
915,7	17,405
916,1	18,376
916,5	17,69
916,9	19,919
917,4	19,776
917,8	20,319
918,2	14,605
918,6	10,205
919,1	9,776
919,5	12,405
919,9	9,005
920,3	9,405
920,8	9,719
921,2	11,49
921,6	14,062
922	15,719
922,5	11,605
922,9	13,976
923,3	17,262
923,7	14,919
924,2	14,719
924,6	13,348
925	13,348
925,4	13,833
925,8	8,69
926,3	3,09
926,7	12,89
927,1	14,348
927,5	18,576
928	18,348
928,4	21,948
928,8	24,919
929,2	29,233
929,7	24,948
930,1	24,376
930,5	23,376
930,9	23,748
931,3	21,748
931,8	18,805
932,2	19,319
932,6	18,148
933	15,519
933,5	11,29
933,9	9,776
934,3	4,148
934,7	7,176
935,2	5,262
935,6	3,662
936	8,405
936,4	8,433
936,8	8,062
937,3	16,948
937,7	14,376
938,1	12,776
938,5	10,233
939	9,976
939,4	13,633
939,8	11,519
940,2	5,776
940,6	10,205
941,1	8,29
941,5	12,205
941,9	11,69
942,3	7,948
942,8	6,976
943,2	8,405
943,6	6,805
944	0,662
944,4	-2,795
944,9	-6,081
945,3	-6,91
945,7	-3,767
946,1	-11,138
946,6	-11,624
947	-5,967
947,4	-6,624
947,8	-7,424
948,2	-3,481
948,7	-6,71
949,1	1,862
949,5	0,662
949,9	7,262
950,3	9,919
950,8	11,976
951,2	10,805
951,6	16,805
952	14,89
952,5	15,319
952,9	10,348
953,3	7,919
953,7	5,948
954,1	5,062
954,6	-1,424
955	-3,51
955,4	0,233
955,8	-3,395
956,2	-1,881
956,7	1,89
957,1	-1,31
957,5	0,433
957,9	1,29
958,3	-2,052
958,8	2,69
959,2	3,719
959,6	-0,395
960	5,862
960,5	5,948
960,9	9,462
961,3	8,605
961,7	4,833
962,1	2,69
962,6	3,405
963	2,89
963,4	7,205
963,8	4,148
964,2	5,176
964,7	4,833
965,1	6,148
965,5	6,005
965,9	2,605
966,3	-1,567
966,8	-1,31
967,2	-2,881
967,6	3,433
968	2,662
968,4	3,205
968,9	4,148
969,3	4,719
969,7	5,976
970,1	5,49
970,5	1,862
971	-2,424
971,4	-0,11
971,8	-2,938
972,2	-4,195
972,6	-4,767
973,1	-1,995
973,5	0,033
973,9	3,376
974,3	-0,11
974,7	3,433
975,2	3,005
975,6	7,062
976	4,633
976,4	2,005
976,8	6,519
977,3	7,719
977,7	6,233
978,1	6,89
978,5	2,348
978,9	1,09
979,4	1,205
979,8	-4,424
980,2	-2,452
980,6	-3,195
981	-2,138
981,5	-6,424
981,9	-2,195
982,3	0,805
982,7	2,148
983,1	1,376
983,6	0,262
984	-3,967
984,4	-0,567
984,8	-1,538
985,2	-6,481
985,6	-6,338
986,1	-9,252
986,5	-6,224
986,9	-5,081
987,3	-3,252
987,7	-3,624
988,2	-2,224
988,6	3,462
989	5,405
989,4	5,176
989,8	9,719
990,3	8,376
990,7	7,633
991,1	5,262
991,5	3,833
991,9	3,405
992,3	6,576
992,8	0,776
993,2	-0,738
993,6	-3,71
994	3,148
994,4	0,519
994,9	3,919
995,3	2,833
995,7	10,176
996,1	10,233
996,5	11,605
996,9	8,29
997,4	6,09
997,8	6,89
998,2	2,148
998,6	-4,338
999	-5,252
999,5	-6,024
999,9	-3,252
1000,3	-7,681
1000,7	-8,167
1001,1	-9,452
1001,5	-8,995
1002	-9,595
1002,4	-5,51
1002,8	-12,281
1003,2	-7,338
1003,6	-11,338
1004	-5,852
1004,5	-2,081
1004,9	1,89
1005,3	-1,138
1005,7	1,862
1006,1	1,805
1006,6	1,205
1007	0,633
1007,4	-1,281
1007,8	0,776
1008,2	4,148
1008,6	6,319
1009,1	9,633
1009,5	11,09
1009,9	8,948
1010,3	6,148
1010,7	5,662
1011,1	6,262
1011,6	8,376
1012	8,062
1012,4	8,976
1012,8	9,348
1013,2	9,948
1013,6	9,519
1014,1	3,976
1014,5	-2,824
1014,9	-3,567
1015,3	-6,624
1015,7	-6,424
1016,1	-3,681
1016,6	-2,424
1017	-0,71
1017,4	3,033
1017,8	1,976
1018,2	3,433
1018,6	6,833
1019,1	7,633
1019,5	8,719
1019,9	7,205
1020,3	5,005
1020,7	0,548
1021,1	0,433
1021,6	0,719
1022	2,376
1022,4	-2,824
1022,8	-1,681
1023,2	4,062
1023,6	6,176
1024,1	7,662
1024,5	1,005
1024,9	-1,367
1025,3	-3,195
1025,7	-7,052
1026,1	-8,195
1026,6	-6,624
1027	-5,31
1027,4	-5,167
1027,8	-1,652
1028,2	5,919
1028,6	9,69
1029	6,205
1029,5	2,548
1029,9	-2,824
1030,3	-2,595
1030,7	-2,91
1031,1	-10,881
1031,5	-9,767
1032	-8,738
1032,4	-1,024
1032,8	1,748
1033,2	6,29
1033,6	6,148
1034	5,976
1034,4	3,548
1034,9	5,519
1035,3	6,319
1035,7	10,033
1036,1	10,405
1036,5	5,976
1036,9	13,319
1037,4	14,748
1037,8	12,805
1038,2	14,262
1038,6	10,233
1039	3,719
1039,4	7,662
1039,8	4,262
1040,3	10,062
1040,7	10,205
1041,1	2,919
1041,5	5,976
1041,9	13,548
1042,3	13,433
1042,7	10,433
1043,2	10,49
1043,6	10,69
1044	11,69
1044,4	13,233
1044,8	8,348
1045,2	6,89
1045,6	8,862
1046,1	5,576
1046,5	5,119
1046,9	6,748
1047,3	0,519
1047,7	6,033
1048,1	1,605
1048,5	0,776
1049	1,033
1049,4	-0,681
1049,8	-4,224
1050,2	-0,138
1050,6	-2,91
1051	6,09
1051,4	3,033
1051,9	0,005
1052,3	6,976
1052,7	8,29
1053,1	9,262
1053,5	7,348
1053,9	4,176
1054,3	9,09
1054,8	14,89
1055,2	12,233
1055,6	10,576
1056	8,376
1056,4	11,033
1056,8	8,719
1057,2	5,376
1057,6	0,062
1058,1	-0,11
1058,5	4,805
1058,9	7,462
1059,3	12,69
1059,7	16,805
1060,1	21,205
1060,5	21,605
1061	18,69
1061,4	12,862
1061,8	10,49
1062,2	4,119
1062,6	-2,881
1063	-3,538
1063,4	-2,31
1063,8	-3,367
1064,3	2,033
1064,7	3,805
1065,1	5,176
1065,5	9,09
1065,9	10,548
1066,3	8,29
1066,7	15,062
1067,1	14,462
1067,6	12,919
1068	9,119
1068,4	9,09
1068,8	5,119
1069,2	9,519
1069,6	4,776
1070	3,233
1070,4	3,348
1070,9	3,548
1071,3	6,148
1071,7	13,176
1072,1	7,833
1072,5	5,29
1072,9	6,919
1073,3	4,919
1073,7	6,776
1074,2	2,233
1074,6	-5,538
1075	-0,424
1075,4	6,719
1075,8	2,605
1076,2	3,462
1076,6	4,748
1077	3,548
1077,5	12,89
1077,9	10,062
1078,3	5,548
1078,7	5,148
1079,1	3,462
1079,5	3,405
1079,9	5,89
1080,3	-3,881
1080,7	-5,281
1081,2	-7,424
1081,6	-6,51
1082	-7,567
1082,4	-8,281
1082,8	-5,424
1083,2	-5,224
1083,6	-4,595
1084	-1,51
1084,5	0,062
1084,9	3,176
1085,3	0,233
1085,7	-1,367
1086,1	1,09
1086,5	-0,967
1086,9	-0,681
1087,3	3,262
1087,7	0,148
1088,2	1,833
1088,6	3,005
1089	6,462
1089,4	7,519
1089,8	6,148
1090,2	2,29
1090,6	7,319
1091	10,29
1091,4	6,005
1091,9	0,862
1092,3	3,233
1092,7	-0,252
1093,1	4,576
1093,5	0,719
1093,9	-0,51
1094,3	2,348
1094,7	7,576
1095,1	8,805
1095,5	14,09
1096	10,29
1096,4	12,262
1096,8	11,633
1097,2	14,69
1097,6	13,776
1098	11,49
1098,4	8,29
1098,8	6,405
1099,2	5,405
1099,6	5,89
1100,1	5,605
1100,5	4,633
1100,9	1,662
1101,3	0,319
1101,7	5,233
1102,1	7,205
1102,5	5,376
1102,9	2,148
1103,3	-0,481
1103,7	4,462
1104,2	8,776
1104,6	2,233
1105	2,29
1105,4	2,348
1105,8	0,89
1106,2	2,29
1106,6	0,748
1107	-0,967
1107,4	2,067
1107,8	0,353
1108,3	0,333
