Data from Subt2_122.txt Node
Date: Sat Aug 26 18:24:08 MSK 2023
User: vat
Spectrometer: MAYP114033
Trigger mode: 0
Integration Time (sec): 1,000000E0
Scans to average: 5
Electric dark correction enabled: true
Nonlinearity correction enabled: false
Boxcar width: 3
XAxis mode: Wavelengths
Number of Pixels in Spectrum: 2068
>>>>>Begin Spectral Data<<<<<
199,4	-0,817
199,9	-3,547
200,4	-3,567
200,8	-1,981
201,3	-4,61
201,8	-1,752
202,2	-4,495
202,7	-0,581
203,2	-2,295
203,6	-3,21
204,1	-8,152
204,6	-4,695
205	-5,752
205,5	-0,81
206	-4,124
206,4	-3,038
206,9	-2,781
207,4	1,79
207,8	1,048
208,3	-0,524
208,8	-4,81
209,2	-3,81
209,7	-3,124
210,2	-1,267
210,6	-2,267
211,1	-5,438
211,5	-5,495
212	-3,924
212,5	-6,581
212,9	-5,152
213,4	-6,01
213,9	-6,752
214,3	-4,067
214,8	-1,267
215,3	-3,152
215,7	1,476
216,2	3,133
216,7	2,505
217,1	3,619
217,6	6,019
218,1	0,19
218,5	1,648
219	-5,695
219,5	-4,552
219,9	-8,981
220,4	-2,581
220,9	-4,667
221,3	-0,352
221,8	0,19
222,3	4,733
222,7	3,248
223,2	8,876
223,6	-0,838
224,1	-1,724
224,6	-1,952
225	-1,667
225,5	-4,095
226	-5,781
226,4	-5,867
226,9	-0,867
227,4	0,076
227,8	-3,81
228,3	-8,467
228,8	-7,838
229,2	-8,867
229,7	-10,61
230,2	-13,638
230,6	-8,467
231,1	-3,61
231,5	2,676
232	6,733
232,5	5,076
232,9	7,19
233,4	10,476
233,9	5,076
234,3	3,505
234,8	0,333
235,3	-1,552
235,7	3,362
236,2	0,419
236,7	0,619
237,1	0,876
237,6	-0,695
238,1	-0,667
238,5	-5,095
239	-6,81
239,4	-4,295
239,9	-7,467
240,4	-6,095
240,8	-1,895
241,3	-0,724
241,8	1,905
242,2	-1,695
242,7	-1,524
243,2	3,705
243,6	0,876
244,1	0,648
244,6	1,248
245	0,848
245,5	7,105
245,9	3,333
246,4	2,333
246,9	5,59
247,3	5,133
247,8	7,162
248,3	8,105
248,7	4,533
249,2	7,79
249,7	5,333
250,1	9,076
250,6	4,962
251	2,59
251,5	5,819
252	6,705
252,4	4,19
252,9	-0,352
253,4	-9,952
253,8	-10,41
254,3	-7,41
254,8	-11,752
255,2	-17,981
255,7	-14,924
256,1	-7,638
256,6	-0,838
257,1	3,762
257,5	-2,124
258	0,219
258,5	3,448
258,9	0,648
259,4	-3,924
259,9	-4,581
260,3	-5,267
260,8	-5,038
261,2	-5,181
261,7	0,819
262,2	0,133
262,6	-2,495
263,1	-2,067
263,6	-1,724
264	2,19
264,5	3,819
264,9	-4,381
265,4	-0,181
265,9	-0,495
266,3	1,819
266,8	2,39
267,3	2,39
267,7	-1,067
268,2	2,933
268,7	2,476
269,1	7,962
269,6	2,905
270	3,905
270,5	2,419
271	3,362
271,4	0,705
271,9	-4,895
272,4	-1,524
272,8	-0,781
273,3	-9,21
273,7	-8,924
274,2	-7,41
274,7	-1,838
275,1	3,79
275,6	-2,867
276,1	-2,752
276,5	6,619
277	8,105
277,4	5,705
277,9	5,305
278,4	7,533
278,8	14,933
279,3	15,962
279,8	11,99
280,2	9,876
280,7	15,505
281,1	9,19
281,6	6,248
282,1	0,933
282,5	0,705
283	-1,724
283,4	-2,467
283,9	-6,295
284,4	1,962
284,8	2,705
285,3	0,276
285,8	-1,495
286,2	0,305
286,7	4,876
287,1	3,533
287,6	2,762
288,1	-0,552
288,5	5,019
289	5,819
289,5	6,476
289,9	2,59
290,4	5,048
290,8	5,276
291,3	9,076
291,8	8,705
292,2	8,076
292,7	9,419
293,1	9,248
293,6	10,133
294,1	10,362
294,5	7,048
295	4,905
295,5	4,476
295,9	6,19
296,4	6,39
296,8	3,305
297,3	3,248
297,8	0,533
298,2	-1,21
298,7	1,619
299,1	2,162
299,6	1,733
300,1	4,39
300,5	3,476
301	11,133
301,5	16,19
301,9	14,562
302,4	8,762
302,8	9,733
303,3	5,105
303,8	2,419
304,2	-1,152
304,7	-2,695
305,1	-4,781
305,6	-3,752
306,1	3,733
306,5	9,448
307	14,19
307,4	15,362
307,9	10,962
308,4	10,762
308,8	11,733
309,3	2,648
309,8	-1,124
310,2	0,362
310,7	-5,838
311,1	-3,61
311,6	-4,01
312,1	-4,01
312,5	0,276
313	1,076
313,4	-4,552
313,9	-1,667
314,4	-0,467
314,8	-2,724
315,3	-2,381
315,7	-10,038
316,2	-13,467
316,7	-11,81
317,1	-3,695
317,6	-5,095
318	2,533
318,5	-0,381
319	3,19
319,4	5,819
319,9	7,876
320,3	1,676
320,8	2,276
321,3	1,19
321,7	5,705
322,2	7,876
322,6	9,276
323,1	4,533
323,6	4,562
324	2,048
324,5	-0,438
324,9	-3,438
325,4	-5,867
325,9	-3,295
326,3	0,819
326,8	3,533
327,2	-1,581
327,7	-2,352
328,2	-3,81
328,6	-1,552
329,1	-7,238
329,5	-11,181
330	-13,695
330,5	-5,667
330,9	-2,324
331,4	1,533
331,8	-0,295
332,3	6,219
332,8	11,962
333,2	13,676
333,7	15,019
334,1	12,733
334,6	10,048
335,1	8,733
335,5	5,733
336	-0,181
336,4	-1,124
336,9	-0,181
337,4	4,105
337,8	3,219
338,3	5,676
338,7	4,105
339,2	6,133
339,7	8,99
340,1	7,219
340,6	1,162
341	0,362
341,5	-1,181
342	-4,01
342,4	-6,352
342,9	-10,752
343,3	-11,867
343,8	-9,267
344,2	-7,781
344,7	-2,067
345,2	0,219
345,6	3,533
346,1	6,533
346,5	5,305
347	5,105
347,5	6,905
347,9	7,476
348,4	5,619
348,8	7,048
349,3	11,648
349,8	13,933
350,2	19,619
350,7	18,933
351,1	10,933
351,6	13,676
352	14,905
352,5	10,819
353	18,248
353,4	20,733
353,9	31,048
354,3	45,619
354,8	51,533
355,3	62,505
355,7	75,562
356,2	85,505
356,6	99,133
357,1	112,305
357,5	129,276
358	157,762
358,5	175,79
358,9	201,076
359,4	228,562
359,8	257,848
360,3	300,819
360,8	339,619
361,2	389,162
361,7	443,619
362,1	506,505
362,6	570,905
363	643,79
363,5	717,048
364	802,619
364,4	880,019
364,9	965,048
365,3	1041,162
365,8	1114,305
366,3	1181,448
366,7	1243,333
367,2	1292,562
367,6	1333,305
368,1	1367,276
368,5	1385,248
369	1396,676
369,5	1403,419
369,9	1391,248
370,4	1372,048
370,8	1343,019
371,3	1303,905
371,7	1258,705
372,2	1204,59
372,7	1144,448
373,1	1080,162
373,6	1015,076
374	952,276
374,5	882,79
374,9	827,533
375,4	774,876
375,9	716,276
376,3	659,848
376,8	606,619
377,2	556,79
377,7	511,733
378,2	464,676
378,6	419,79
379,1	381,362
379,5	351,848
380	326,333
380,4	294,905
380,9	272,219
381,4	247,019
381,8	231,648
382,3	218,248
382,7	202,876
383,2	187,248
383,6	179,962
384,1	167,476
384,6	163,733
385	150,505
385,5	138,619
385,9	127,019
386,4	117,99
386,8	108,819
387,3	100,533
387,7	93,648
388,2	90,133
388,7	81,933
389,1	81,905
389,6	75,533
390	70,562
390,5	71,733
390,9	68,39
391,4	62,39
391,9	59,39
392,3	54,162
392,8	50,333
393,2	45,762
393,7	40,533
394,1	31,133
394,6	28,248
395,1	33,048
395,5	30,676
396	32,59
396,4	32,362
396,9	29,619
397,3	36,762
397,8	37,362
398,2	34,39
398,7	38,59
399,2	37,619
399,6	37,99
400,1	38,876
400,5	31,562
401	33,105
401,4	26,533
401,9	25,362
402,4	27,533
402,8	29,105
403,3	34,59
403,7	36,819
404,2	40,019
404,6	48,39
405,1	44,133
405,5	40,762
406	43,505
406,5	39,276
406,9	47,562
407,4	47,19
407,8	47,448
408,3	56,733
408,7	61,533
409,2	70,276
409,6	80,39
410,1	81,648
410,6	93,448
411	98,562
411,5	100,99
411,9	111,019
412,4	113,448
412,8	119,133
413,3	128,305
413,7	130,048
414,2	139,105
414,7	153,419
415,1	164,933
415,6	175,448
416	187,019
416,5	198,133
416,9	206,99
417,4	224,562
417,8	241,876
418,3	254,962
418,8	273,533
419,2	287,876
419,7	303,076
420,1	321,876
420,6	336,819
421	348,105
421,5	368,905
421,9	385,219
422,4	407,162
422,8	429,99
423,3	455,019
423,8	472,505
424,2	498,19
424,7	520,99
425,1	553,648
425,6	580,59
426	607,419
426,5	641,333
426,9	678,048
427,4	705,419
427,9	737,676
428,3	766,39
428,8	809,076
429,2	851,162
429,7	892,619
430,1	938,848
430,6	989,133
431	1038,905
431,5	1094,305
431,9	1140,476
432,4	1200,248
432,8	1261,19
433,3	1327,076
433,8	1394,876
434,2	1470,19
434,7	1543,333
435,1	1624,848
435,6	1700,876
436	1782,219
436,5	1867,19
436,9	1954,133
437,4	2042,162
437,8	2144,305
438,3	2243,133
438,8	2352,562
439,2	2466,39
439,7	2581,276
440,1	2701,962
440,6	2828,476
441	2941,219
441,5	3069,019
441,9	3204,79
442,4	3333,676
442,8	3478,219
443,3	3628,562
443,7	3778,648
444,2	3948,105
444,7	4120,59
445,1	4288,59
445,6	4465,162
446	4645,248
446,5	4826,819
446,9	5006,419
447,4	5190,333
447,8	5380,333
448,3	5579,79
448,7	5778,133
449,2	5976,648
449,6	6185,076
450,1	6404,448
450,6	6632,276
451	6850,762
451,5	7078,962
451,9	7319,733
452,4	7561,533
452,8	7801,362
453,3	8047,619
453,7	8287,762
454,2	8549,762
454,6	8804,476
455,1	9057,248
455,5	9315,505
456	9588,362
456,4	9857,476
456,9	10131,59
457,3	10400,648
457,8	10668,333
458,3	10949,076
458,7	11233,476
459,2	11516,19
459,6	11808,133
460,1	12104,076
460,5	12395,533
461	12702,648
461,4	13006,848
461,9	13301,505
462,3	13596,962
462,8	13893,962
463,2	14178,962
463,7	14473,39
464,1	14763,505
464,6	15058,333
465	15355,076
465,5	15646,048
466	15942,39
466,4	16234,076
466,9	16535,39
467,3	16819,276
467,8	17097,305
468,2	17374,133
468,7	17652,905
469,1	17934,705
469,6	18219,305
470	18490,562
470,5	18764,676
470,9	19035,648
471,4	19306,133
471,8	19566,648
472,3	19813,476
472,7	20067,048
473,2	20303,962
473,6	20546,848
474,1	20781,276
474,5	21019,505
475	21259,848
475,4	21490,362
475,9	21703,133
476,4	21917,219
476,8	22125,848
477,3	22330,305
477,7	22526,362
478,2	22698,133
478,6	22878,962
479,1	23057,19
479,5	23227,933
480	23384,99
480,4	23543,333
480,9	23684,19
481,3	23838,219
481,8	23958,962
482,2	24080,105
482,7	24191,648
483,1	24298,333
483,6	24394,133
484	24494,819
484,5	24583,619
484,9	24667,476
485,4	24742,39
485,8	24811,19
486,3	24869,19
486,7	24925,076
487,2	24966,219
487,6	24988,762
488,1	25028,419
488,5	25061,019
489	25071,419
489,4	25082,305
489,9	25074,162
490,4	25059,562
490,8	25059,648
491,3	25032,533
491,7	24990,419
492,2	24968,076
492,6	24925,048
493,1	24880,962
493,5	24827,19
494	24755,676
494,4	24698,848
494,9	24628,333
495,3	24549,905
495,8	24473,933
496,2	24400,648
496,7	24308,133
497,1	24229,848
497,6	24123,819
498	24035,933
498,5	23930,648
498,9	23823,019
499,4	23701,705
499,8	23600,048
500,3	23482,105
500,7	23379,048
501,2	23256,333
501,6	23141,533
502,1	23027,19
502,5	22918,419
503	22791,333
503,4	22665,505
503,9	22515,419
504,3	22369,019
504,8	22214,505
505,2	22071,048
505,7	21908,562
506,1	21760,705
506,6	21583,562
507	21427,048
507,5	21276,39
507,9	21122,362
508,4	20948,533
508,8	20782,562
509,3	20612,333
509,7	20464,276
510,2	20298,59
510,6	20130,962
511,1	19964,705
511,5	19787,848
512	19619,676
512,4	19444,39
512,9	19260,933
513,3	19087,448
513,8	18902,019
514,2	18721,476
514,7	18540,905
515,1	18353,105
515,6	18172,105
516	17985,59
516,5	17804,619
516,9	17623,905
517,4	17446,848
517,8	17282,419
518,3	17108,076
518,7	16926,419
519,2	16755,733
519,6	16568,762
520,1	16394,048
520,5	16213,933
521	16027,39
521,4	15854,848
521,9	15686,248
522,3	15514,848
522,8	15350,933
523,2	15183,105
523,7	15019,505
524,1	14861,733
524,6	14689,39
525	14519,733
525,5	14351,019
525,9	14189,648
526,4	14038,076
526,8	13872,848
527,3	13717,962
527,7	13578,133
528,2	13415,619
528,6	13267,19
529,1	13116,533
529,5	12963,505
530	12818,019
530,4	12667,39
530,9	12520,99
531,3	12399,876
531,8	12268,162
532,2	12133,676
532,6	11991,876
533,1	11856,019
533,5	11721,419
534	11575,333
534,4	11438,876
534,9	11301,848
535,3	11164,933
535,8	11037,648
536,2	10917,419
536,7	10791,333
537,1	10676,276
537,6	10547,933
538	10436,733
538,5	10327,219
538,9	10211,905
539,4	10095,905
539,8	9973,705
540,3	9861,362
540,7	9753,333
541,2	9632,305
541,6	9515,648
542,1	9402,705
542,5	9298,276
543	9208,562
543,4	9107,248
543,9	9004,619
544,3	8918,105
544,8	8830,476
545,2	8738,219
545,7	8644,276
546,1	8544,533
546,5	8450,59
547	8373,019
547,4	8276,39
547,9	8178,105
548,3	8096,39
548,8	8013,705
549,2	7932,848
549,7	7848,048
550,1	7761,79
550,6	7675,819
551	7601,048
551,5	7518,99
551,9	7436,076
552,4	7362,133
552,8	7288,533
553,3	7209,79
553,7	7132,448
554,2	7065,105
554,6	6995,019
555,1	6919,362
555,5	6843,19
555,9	6776,533
556,4	6704,248
556,8	6649,705
557,3	6578,39
557,7	6511,362
558,2	6451,076
558,6	6401,648
559,1	6338,333
559,5	6279,362
560	6215,533
560,4	6153,762
560,9	6090,562
561,3	6037,705
561,8	5977,762
562,2	5925,705
562,7	5873,962
563,1	5829,762
563,6	5769,99
564	5728,076
564,4	5672,933
564,9	5619,705
565,3	5563,705
565,8	5513,19
566,2	5452,248
566,7	5413,39
567,1	5363,562
567,6	5314,419
568	5256,019
568,5	5210,676
568,9	5161,39
569,4	5113,219
569,8	5064,819
570,3	5016,676
570,7	4971,79
571,1	4937,99
571,6	4895,619
572	4858,076
572,5	4813,99
572,9	4772,19
573,4	4731,476
573,8	4691,276
574,3	4649,962
574,7	4611,476
575,2	4567,505
575,6	4535,962
576,1	4502,533
576,5	4463,048
576,9	4416,705
577,4	4371,705
577,8	4330,219
578,3	4287,876
578,7	4245,905
579,2	4208,59
579,6	4173,105
580,1	4143,762
580,5	4117,905
581	4085,505
581,4	4058,99
581,9	4023,762
582,3	3985,133
582,7	3952,933
583,2	3918,162
583,6	3880,076
584,1	3843,305
584,5	3810,419
585	3781,648
585,4	3745,619
585,9	3707,219
586,3	3676,333
586,8	3649,19
587,2	3617,705
587,6	3591,362
588,1	3566,79
588,5	3543,79
589	3524,39
589,4	3498,933
589,9	3465,619
590,3	3440,219
590,8	3409,39
591,2	3384,933
591,7	3360,905
592,1	3331,733
592,5	3313,762
593	3286,905
593,4	3267,648
593,9	3243,476
594,3	3209,848
594,8	3188,019
595,2	3166,648
595,7	3140,19
596,1	3119,848
596,6	3094,962
597	3073,419
597,4	3056,933
597,9	3027,99
598,3	3004,019
598,8	2978,59
599,2	2965,19
599,7	2946,076
600,1	2924,99
600,6	2906,762
601	2896,962
601,4	2884,19
601,9	2868,305
602,3	2844,419
602,8	2826,305
603,2	2808,99
603,7	2789,819
604,1	2766,619
604,6	2747,019
605	2728,105
605,4	2710,762
605,9	2687,39
606,3	2664,733
606,8	2643,705
607,2	2625,305
607,7	2596,562
608,1	2579,19
608,6	2561,733
609	2548,276
609,4	2537,848
609,9	2520,59
610,3	2501,276
610,8	2482,848
611,2	2466,276
611,7	2451,705
612,1	2433,59
612,6	2413,276
613	2394,133
613,4	2377,619
613,9	2370,562
614,3	2351,505
614,8	2334,562
615,2	2319,419
615,7	2301,562
616,1	2285,362
616,6	2266,819
617	2245,476
617,4	2230,476
617,9	2214,762
618,3	2199,048
618,8	2186,59
619,2	2172,676
619,7	2169,705
620,1	2155,505
620,5	2144,076
621	2127,362
621,4	2113,819
621,9	2093,19
622,3	2081,019
622,8	2057,933
623,2	2042,333
623,6	2018,819
624,1	2008,276
624,5	1992,248
625	1988,248
625,4	1978,219
625,9	1971,105
626,3	1958,476
626,8	1948,762
627,2	1936,419
627,6	1917,305
628,1	1896,79
628,5	1880,99
629	1856,819
629,4	1845,476
629,9	1832,762
630,3	1812,19
630,7	1802,962
631,2	1793,762
631,6	1779,019
632,1	1771,619
632,5	1759,505
633	1750,019
633,4	1739,39
633,8	1727,562
634,3	1711,276
634,7	1695,562
635,2	1676,562
635,6	1663,619
636,1	1653,676
636,5	1641,248
636,9	1624,562
637,4	1610,562
637,8	1598,876
638,3	1589,819
638,7	1575,105
639,2	1557,562
639,6	1545,505
640	1538,39
640,5	1530,505
640,9	1522,819
641,4	1510,905
641,8	1504,048
642,2	1496,448
642,7	1491,076
643,1	1484,819
643,6	1474,933
644	1468,676
644,5	1465,333
644,9	1457,476
645,3	1443,133
645,8	1424,848
646,2	1414,133
646,7	1408,076
647,1	1392,19
647,6	1379,162
648	1367,962
648,4	1355,562
648,9	1355,076
649,3	1343,448
649,8	1333,562
650,2	1328,733
650,6	1319,562
651,1	1312,39
651,5	1312,905
652	1297,105
652,4	1287,305
652,9	1276,39
653,3	1262,676
653,7	1253,648
654,2	1241,676
654,6	1232,133
655,1	1224,933
655,5	1226,39
655,9	1219,676
656,4	1218,619
656,8	1209,905
657,3	1207,676
657,7	1200,848
658,2	1192,333
658,6	1176,59
659	1169,676
659,5	1154,276
659,9	1149,876
660,4	1140,619
660,8	1129,533
661,2	1120,533
661,7	1113,048
662,1	1097,962
662,6	1090,019
663	1079,305
663,4	1068,562
663,9	1057,048
664,3	1051,562
664,8	1042,362
665,2	1033,79
665,6	1023,733
666,1	1018,533
666,5	1013,505
667	1009,248
667,4	1001,99
667,9	997,99
668,3	997,105
668,7	990,99
669,2	982,648
669,6	977,905
670,1	966,248
670,5	959,305
670,9	947,019
671,4	937,505
671,8	935,39
672,3	934,448
672,7	926,476
673,1	920,448
673,6	907,962
674	905,619
674,5	899,105
674,9	886,99
675,3	873,162
675,8	864,419
676,2	859,733
676,7	859,19
677,1	849,933
677,5	844,762
678	843,933
678,4	839,476
678,9	833,39
679,3	828,505
679,7	821,533
680,2	812,276
680,6	804,105
681,1	796,59
681,5	795,305
681,9	789,219
682,4	786,248
682,8	784,676
683,3	786,333
683,7	787,305
684,1	780,505
684,6	773,162
685	766,019
685,5	757,048
685,9	745,248
686,3	732,99
686,8	722,219
687,2	719,705
687,7	708,105
688,1	699,048
688,5	693,676
689	690,99
689,4	690,933
689,9	683,648
690,3	675,59
690,7	676,39
691,2	676,019
691,6	672,79
692	668,562
692,5	661,819
692,9	658,105
693,4	651,905
693,8	644,876
694,2	636,848
694,7	635,276
695,1	629,505
695,6	627,276
696	629,19
696,4	626,133
696,9	620,933
697,3	613,848
697,8	605,448
698,2	602,19
698,6	597,848
699,1	588,962
699,5	590,276
699,9	586,848
700,4	584,905
700,8	579,362
701,3	576,162
701,7	568,562
702,1	564,819
702,6	554,59
703	553,133
703,5	550,048
703,9	544,733
704,3	542,419
704,8	540,762
705,2	534,848
705,6	532,076
706,1	528,305
706,5	522,505
707	522,99
707,4	521,39
707,8	514,476
708,3	514,333
708,7	513,248
709,2	506,39
709,6	502,39
710	501,533
710,5	491,305
710,9	493,019
711,3	481,933
711,8	478,39
712,2	476,276
712,7	475,848
713,1	468,076
713,5	469,333
714	465,619
714,4	464,562
714,8	459,248
715,3	454,39
715,7	449,533
716,2	444,333
716,6	435,39
717	428,39
717,5	425,133
717,9	424,362
718,3	418,762
718,8	417,676
719,2	415,876
719,7	416,59
720,1	417,962
720,5	422,162
721	412,848
721,4	414,762
721,8	414,876
722,3	411,705
722,7	406,505
723,2	397,762
723,6	385,733
724	384,819
724,5	375,676
724,9	366,733
725,3	363,019
725,8	360,305
726,2	357,476
726,7	356,905
727,1	354,162
727,5	355,162
728	352,505
728,4	349,762
728,8	345,533
729,3	343,79
729,7	339,848
730,1	341,533
730,6	338,848
731	337,362
731,5	337,533
731,9	335,905
732,3	334,362
732,8	336,676
733,2	331,648
733,6	327,162
734,1	325,876
734,5	321,39
734,9	321,133
735,4	316,448
735,8	307,905
736,3	311,505
736,7	307,448
737,1	301,248
737,6	296,876
738	291,59
738,4	289,248
738,9	295,476
739,3	286,619
739,7	285,962
740,2	286,79
740,6	293,19
741,1	295,79
741,5	297,105
741,9	291,248
742,4	293,533
742,8	294,248
743,2	295,076
743,7	283,562
744,1	277,219
744,5	273,19
745	271,79
745,4	267,505
745,8	266,676
746,3	261,305
746,7	261,676
747,2	261,648
747,6	267,676
748	267,819
748,5	268,848
748,9	263,019
749,3	262,705
749,8	266,048
750,2	262,676
750,6	257,505
751,1	256,162
751,5	252,305
751,9	254,505
752,4	251,676
752,8	247,505
753,3	247,219
753,7	245,848
754,1	241,59
754,6	234,39
755	230,505
755,4	233,619
755,9	230,133
756,3	226,676
756,7	222,933
757,2	223,076
757,6	227,648
758	228,819
758,5	222,59
758,9	223,019
759,3	225,305
759,8	224,59
760,2	221,448
760,6	216,99
761,1	210,305
761,5	209,648
761,9	208,162
762,4	207,048
762,8	201,476
763,3	198,59
763,7	202,733
764,1	205,305
764,6	206,019
765	205,676
765,4	203,819
765,9	209,19
766,3	210,705
766,7	206,448
767,2	206,533
767,6	207,619
768	201,99
768,5	199,305
768,9	195,305
769,3	195,362
769,8	192,876
770,2	194,248
770,6	190,562
771,1	195,905
771,5	197,848
771,9	198,705
772,4	194,962
772,8	195,505
773,2	192,59
773,7	188,619
774,1	182,848
774,5	177,448
775	175,39
775,4	176,333
775,8	169,019
776,3	168,276
776,7	167,19
777,1	168,076
777,6	168,676
778	169,133
778,4	166,848
778,9	170,962
779,3	166,505
779,7	168,162
780,2	167,305
780,6	168,619
781	162,305
781,5	158,333
781,9	157,276
782,3	151,448
782,8	152,59
783,2	148,819
783,6	146,105
784,1	146,276
784,5	147,305
784,9	142,676
785,4	150,505
785,8	152,219
786,2	154,876
786,7	151,705
787,1	150,905
787,5	147,99
788	150,476
788,4	146,362
788,8	139,219
789,3	135,676
789,7	141,819
790,1	140,933
790,6	144,848
791	141,19
791,4	144,305
791,9	143,476
792,3	139,305
792,7	136,362
793,2	132,448
793,6	129,248
794	130,905
794,5	122,533
794,9	126,305
795,3	127,733
795,8	123,305
796,2	124,819
796,6	125,933
797,1	126,105
797,5	124,505
797,9	117,848
798,4	114,39
798,8	113,305
799,2	110,905
799,7	111,248
800,1	106,276
800,5	108,048
801	110,733
801,4	110,648
801,8	110,505
802,2	112,19
802,7	105,648
803,1	107,533
803,5	111,133
804	105,648
804,4	109,419
804,8	104,876
805,3	107,105
805,7	110,733
806,1	110,362
806,6	109,733
807	111,562
807,4	107,99
807,9	110,79
808,3	104,19
808,7	102,705
809,2	104,562
809,6	105,276
810	105,419
810,4	108,99
810,9	108,048
811,3	109,905
811,7	110,905
812,2	114,248
812,6	109,133
813	107,876
813,5	106,476
813,9	105,419
814,3	102,962
814,8	99,162
815,2	88,019
815,6	86,19
816,1	86,562
816,5	85,248
816,9	86,733
817,3	88,162
817,8	89,248
818,2	90,162
818,6	87,705
819,1	85,39
819,5	82,562
819,9	81,248
820,4	80,248
820,8	76,476
821,2	76,419
821,7	77,819
822,1	79,105
822,5	83,99
822,9	79,105
823,4	75,762
823,8	76,248
824,2	78,59
824,7	76,705
825,1	68,848
825,5	58,476
826	59,448
826,4	63,19
826,8	60,248
827,3	59,962
827,7	57,962
828,1	63,333
828,5	68,762
829	63,962
829,4	62,705
829,8	59,505
830,3	56,648
830,7	59,248
831,1	61,59
831,6	56,219
832	59,79
832,4	56,962
832,8	61,762
833,3	60,705
833,7	57,162
834,1	53,876
834,6	55,705
835	56,933
835,4	62,933
835,8	58,533
836,3	60,19
836,7	64,19
837,1	63,99
837,6	71,39
838	73,705
838,4	68,676
838,9	72,476
839,3	68,876
839,7	67,448
840,1	62,705
840,6	52,876
841	49,133
841,4	48,419
841,9	50,705
842,3	53,448
842,7	51,505
843,1	54,819
843,6	57,676
844	58,933
844,4	61,305
844,9	59,39
845,3	59,248
845,7	58,448
846,2	54,419
846,6	52,419
847	49,048
847,4	49,762
847,9	46,505
848,3	45,819
848,7	47,362
849,2	52,019
849,6	50,048
850	58,048
850,4	55,562
850,9	55,448
851,3	51,962
851,7	56,876
852,2	53,933
852,6	61,048
853	54,733
853,4	48,276
853,9	48,219
854,3	53,562
854,7	49,905
855,2	50,819
855,6	47,648
856	44,333
856,4	46,562
856,9	41,276
857,3	36,819
857,7	37,419
858,2	38,962
858,6	39,676
859	43,333
859,4	45,619
859,9	49,562
860,3	46,648
860,7	40,419
861,1	40,676
861,6	34,59
862	34,019
862,4	30,219
862,9	28,819
863,3	32,133
863,7	33,133
864,1	33,562
864,6	37,076
865	34,648
865,4	36,562
865,9	41,305
866,3	37,248
866,7	38,819
867,1	31,733
867,6	29,019
868	29,848
868,4	27,19
868,8	25,162
869,3	26,133
869,7	31,248
870,1	29,962
870,6	30,905
871	-40,638
871,4	-35,324
871,8	-39,21
872,3	-34,495
872,7	-39,152
873,1	-33,752
873,5	-32,381
874	33,933
874,4	32,59
874,8	35,733
875,3	33,333
875,7	30,19
876,1	31,562
876,5	29,962
877	33,39
877,4	29,705
877,8	27,419
878,2	28,562
878,7	30,79
879,1	26,99
879,5	27,448
879,9	28,619
880,4	30,133
880,8	31,448
881,2	30,39
881,7	29,248
882,1	28,562
882,5	26,962
882,9	24,19
883,4	21,248
883,8	24,819
884,2	21,705
884,6	16,762
885,1	15,99
885,5	13,19
885,9	14,048
886,3	17,59
886,8	9,79
887,2	6,562
887,6	9,076
888	9,762
888,5	14,39
888,9	13,819
889,3	9,905
889,8	12,162
890,2	18,676
890,6	19,419
891	20,248
891,5	17,533
891,9	16,99
892,3	19,39
892,7	20,076
893,2	17,59
893,6	19,048
894	22,905
894,4	23,848
894,9	27,648
895,3	28,076
895,7	29,476
896,1	29,219
896,6	28,79
897	27,39
897,4	29,305
897,8	25,39
898,3	24,248
898,7	22,59
899,1	21,448
899,5	18,162
900	10,533
900,4	5,819
900,8	4,59
901,2	0,79
901,7	2,933
902,1	3,79
902,5	10,819
902,9	16,505
903,4	18,505
903,8	20,048
904,2	23,019
904,6	24,133
905,1	27,533
905,5	21,762
905,9	19,705
906,3	22,676
906,8	26,79
907,2	25,79
907,6	24,105
908	25,505
908,5	25,505
908,9	24,962
909,3	23,219
909,7	19,819
910,2	20,048
910,6	19,59
911	13,619
911,4	14,076
911,9	12,905
912,3	8,905
912,7	11,505
913,1	15,019
913,6	12,133
914	16,219
914,4	14,562
914,8	19,59
915,3	19,762
915,7	18,248
916,1	12,248
916,5	14,505
916,9	6,562
917,4	6,676
917,8	2,619
918,2	4,019
918,6	-0,81
919,1	3,333
919,5	2,762
919,9	8,076
920,3	8,705
920,8	8,79
921,2	6,448
921,6	9,562
922	10,762
922,5	9,705
922,9	9,276
923,3	7,933
923,7	7,848
924,2	9,333
924,6	6,933
925	5,019
925,4	0,933
925,8	0,105
926,3	1,476
926,7	-1,438
927,1	-3,924
927,5	-0,352
928	-1,724
928,4	2,99
928,8	5,648
929,2	6,79
929,7	10,019
930,1	9,419
930,5	4,905
930,9	10,133
931,3	10,79
931,8	7,048
932,2	5,448
932,6	4,276
933	4,648
933,5	6,905
933,9	4,333
934,3	4,219
934,7	1,819
935,2	2,648
935,6	3,048
936	4,79
936,4	5,419
936,8	7,476
937,3	6,019
937,7	12,59
938,1	12,362
938,5	8,819
939	7,362
939,4	5,448
939,8	2,448
940,2	5,39
940,6	5,505
941,1	5,362
941,5	12,905
941,9	11,962
942,3	13,219
942,8	13,733
943,2	12,476
943,6	6,933
944	7,333
944,4	3,362
944,9	3,933
945,3	5,848
945,7	1,248
946,1	-2,267
946,6	-3,41
947	-6,324
947,4	-2,495
947,8	-1,01
948,2	-3,952
948,7	-0,41
949,1	-3,01
949,5	3,19
949,9	3,99
950,3	-1,724
950,8	-2,552
951,2	-3,038
951,6	-5,324
952	2,419
952,5	-1,181
952,9	-0,095
953,3	3,048
953,7	2,133
954,1	7,476
954,6	9,876
955	7,448
955,4	3,762
955,8	5,562
956,2	2,419
956,7	6,505
957,1	4,019
957,5	7,905
957,9	3,562
958,3	8,448
958,8	9,105
959,2	10,848
959,6	12,733
960	8,133
960,5	8,248
960,9	11,39
961,3	5,676
961,7	3,876
962,1	6,39
962,6	6,476
963	8,076
963,4	2,933
963,8	3,076
964,2	8,276
964,7	9,105
965,1	6,105
965,5	1,648
965,9	3,933
966,3	5,19
966,8	6,562
967,2	5,933
967,6	5,39
968	4,105
968,4	5,476
968,9	3,848
969,3	6,505
969,7	3,362
970,1	7,019
970,5	6,248
971	8,933
971,4	6,19
971,8	4,619
972,2	3,19
972,6	5,362
973,1	1,19
973,5	2,905
973,9	1,076
974,3	3,19
974,7	10,248
975,2	8,762
975,6	4,505
976	8,362
976,4	0,676
976,8	1,648
977,3	-3,781
977,7	-9,238
978,1	-7,01
978,5	-4,752
978,9	-10,952
979,4	-6,324
979,8	-4,495
980,2	-0,667
980,6	-3,181
981	-2,381
981,5	1,39
981,9	4,676
982,3	6,819
982,7	5,99
983,1	4,048
983,6	6,19
984	3,219
984,4	-1,438
984,8	-3,981
985,2	-6,667
985,6	-9,495
986,1	-3,981
986,5	-3,81
986,9	-6,067
987,3	-2,01
987,7	2,305
988,2	3,39
988,6	5,162
989	3,648
989,4	5,133
989,8	5,276
990,3	3,619
990,7	-1,352
991,1	1,048
991,5	1,762
991,9	5,448
992,3	7,305
992,8	8,362
993,2	7,962
993,6	12,219
994	16,019
994,4	19,162
994,9	13,419
995,3	11,076
995,7	15,676
996,1	15,533
996,5	12,533
996,9	1,762
997,4	-1,81
997,8	-3,438
998,2	-5,781
998,6	-12,21
999	-11,981
999,5	-11,038
999,9	-6,495
1000,3	-7,495
1000,7	-4,238
1001,1	-3,524
1001,5	-1,724
1002	-1,41
1002,4	-1,067
1002,8	-4,01
1003,2	0,905
1003,6	2,248
1004	7,276
1004,5	5,762
1004,9	6,733
1005,3	3,79
1005,7	6,79
1006,1	-1,581
1006,6	-3,81
1007	-6,038
1007,4	-6,952
1007,8	-8,552
1008,2	-6,181
1008,6	-4,038
1009,1	0,619
1009,5	2,533
1009,9	3,105
1010,3	2,676
1010,7	5,562
1011,1	4,962
1011,6	4,19
1012	8,219
1012,4	3,619
1012,8	-1,695
1013,2	5,105
1013,6	-0,352
1014,1	-0,381
1014,5	-1,667
1014,9	-8,724
1015,3	-5,552
1015,7	-0,21
1016,1	-1,01
1016,6	1,819
1017	1,505
1017,4	3,276
1017,8	5,962
1018,2	9,048
1018,6	4,505
1019,1	-1,238
1019,5	-2,238
1019,9	-4,781
1020,3	-7,267
1020,7	-7,81
1021,1	-11,724
1021,6	-9,381
1022	-0,781
1022,4	-0,124
1022,8	0,333
1023,2	3,19
1023,6	4,876
1024,1	11,648
1024,5	14,819
1024,9	8,648
1025,3	11,105
1025,7	13,79
1026,1	14,248
1026,6	14,419
1027	9,933
1027,4	9,219
1027,8	8,848
1028,2	8,819
1028,6	10,876
1029	9,876
1029,5	11,905
1029,9	11,419
1030,3	6,705
1030,7	11,276
1031,1	10,59
1031,5	7,19
1032	4,162
1032,4	-0,41
1032,8	1,305
1033,2	2,019
1033,6	-0,581
1034	-1,752
1034,4	-1,581
1034,9	1,905
1035,3	-0,438
1035,7	-3,095
1036,1	-4,038
1036,5	-6,952
1036,9	-4,552
1037,4	-1,952
1037,8	-8,752
1038,2	-4,981
1038,6	-8,41
1039	-0,952
1039,4	2,533
1039,8	-5,01
1040,3	-4,61
1040,7	0,79
1041,1	3,019
1041,5	8,79
1041,9	2,219
1042,3	0,448
1042,7	7,219
1043,2	4,448
1043,6	-1,267
1044	-3,01
1044,4	-5,095
1044,8	-4,61
1045,2	-8,524
1045,6	-11,981
1046,1	-10,524
1046,5	-7,238
1046,9	-7,981
1047,3	-8,21
1047,7	-5,381
1048,1	-3,752
1048,5	1,219
1049	5,848
1049,4	10,99
1049,8	12,476
1050,2	13,505
1050,6	16,162
1051	17,133
1051,4	12,876
1051,9	9,619
1052,3	16,533
1052,7	12,79
1053,1	9,648
1053,5	6,533
1053,9	6,962
1054,3	6,933
1054,8	9,562
1055,2	2,905
1055,6	8,419
1056	6,133
1056,4	4,39
1056,8	6,933
1057,2	7,248
1057,6	3,476
1058,1	-3,467
1058,5	-10,695
1058,9	-5,238
1059,3	-3,667
1059,7	-5,095
1060,1	-4,01
1060,5	-2,524
1061	0,448
1061,4	3,162
1061,8	5,533
1062,2	5,133
1062,6	3,619
1063	6,248
1063,4	6,533
1063,8	6,362
1064,3	4,79
1064,7	4,19
1065,1	1,19
1065,5	-2,895
1065,9	-7,524
1066,3	-9,381
1066,7	-9,238
1067,1	-8,581
1067,6	-8,838
1068	-12,038
1068,4	-6,524
1068,8	-2,41
1069,2	-8,41
1069,6	-8,152
1070	-4,095
1070,4	-9,324
1070,9	-6,638
1071,3	-7,438
1071,7	-13,552
1072,1	-5,352
1072,5	-6,838
1072,9	-10,61
1073,3	-6,038
1073,7	-6,495
1074,2	-5,181
1074,6	-1,41
1075	-3,124
1075,4	0,305
1075,8	6,219
1076,2	3,619
1076,6	7,676
1077	5,562
1077,5	6,619
1077,9	8,276
1078,3	4,105
1078,7	-1,238
1079,1	-0,638
1079,5	0,162
1079,9	-0,21
1080,3	-2,124
1080,7	-3,324
1081,2	2,648
1081,6	0,648
1082	-3,924
1082,4	-0,21
1082,8	1,133
1083,2	2,105
1083,6	3,819
1084	-0,952
1084,5	0,333
1084,9	2,619
1085,3	-8,838
1085,7	-12,695
1086,1	-12,41
1086,5	-16,095
1086,9	-12,381
1087,3	-10,638
1087,7	-10,667
1088,2	-4,095
1088,6	-1,552
1089	-1,752
1089,4	-0,981
1089,8	-0,21
1090,2	-3,21
1090,6	-1,724
1091	0,076
1091,4	3,333
1091,9	3,219
1092,3	5,448
1092,7	3,39
1093,1	16,048
1093,5	16,276
1093,9	12,333
1094,3	13,933
1094,7	8,79
1095,1	6,933
1095,5	6,333
1096	-5,01
1096,4	-3,867
1096,8	-2,181
1097,2	-5,21
1097,6	4,248
1098	5,333
1098,4	6,305
1098,8	8,705
1099,2	14,733
1099,6	11,619
1100,1	11,105
1100,5	4,79
1100,9	2,819
1101,3	2,762
1101,7	3,562
1102,1	-2,181
1102,5	3,533
1102,9	5,562
1103,3	10,562
1103,7	11,19
1104,2	9,105
1104,6	7,419
1105	5,476
1105,4	3,533
1105,8	1,39
1106,2	-2,067
1106,6	-2,124
1107	-1,381
1107,4	-1,5
1107,8	0,973
1108,3	-0,317
