Data from Subt2_308.txt Node
Date: Sat Aug 26 19:14:33 MSK 2023
User: vat
Spectrometer: MAYP114033
Trigger mode: 0
Integration Time (sec): 1,000000E0
Scans to average: 5
Electric dark correction enabled: true
Nonlinearity correction enabled: false
Boxcar width: 3
XAxis mode: Wavelengths
Number of Pixels in Spectrum: 2068
>>>>>Begin Spectral Data<<<<<
199,4	0,15
199,9	2,94
200,4	4,133
200,8	4,786
201,3	4,129
201,8	4,071
202,2	2,5
202,7	7,814
203,2	6,529
203,6	3,871
204,1	0,643
204,6	1,129
205	3,929
205,5	4,757
206	2,986
206,4	2,329
206,9	4,529
207,4	8,871
207,8	8,243
208,3	4,271
208,8	4,471
209,2	2,471
209,7	2,557
210,2	-0,1
210,6	0,786
211,1	4,243
211,5	4,157
212	6,757
212,5	5,271
212,9	5,871
213,4	5,871
213,9	3,557
214,3	1,643
214,8	4,471
215,3	0,671
215,7	3,1
216,2	4,614
216,7	6,729
217,1	5,529
217,6	10,729
218,1	8,071
218,5	9,329
219	4,957
219,5	8,129
219,9	4,1
220,4	11,329
220,9	5,586
221,3	7,471
221,8	11,557
222,3	15,786
222,7	10,9
223,2	14,157
223,6	6,243
224,1	6,757
224,6	10,786
225	7,157
225,5	7,5
226	6,557
226,4	7,929
226,9	8,5
227,4	6,214
227,8	-0,757
228,3	-2,929
228,8	-5,643
229,2	-1,614
229,7	-0,186
230,2	3,986
230,6	11,529
231,1	17,014
231,5	19,786
232	21,357
232,5	19,643
232,9	20,871
233,4	21,957
233,9	16,986
234,3	13,843
234,8	14,671
235,3	11,986
235,7	11,929
236,2	9,071
236,7	7,7
237,1	11,271
237,6	9,814
238,1	7,186
238,5	7,357
239	9,271
239,4	14,243
239,9	12,3
240,4	11,271
240,8	17,529
241,3	15,757
241,8	15,729
242,2	12,871
242,7	7,1
243,2	6,986
243,6	4,614
244,1	4,5
244,6	10,329
245	9,014
245,5	11,014
245,9	10,643
246,4	14,614
246,9	14,643
247,3	11,786
247,8	11,214
248,3	18,157
248,7	18,329
249,2	19,3
249,7	13,443
250,1	14,986
250,6	12,643
251	15,214
251,5	14,871
252	11,271
252,4	10,929
252,9	8,814
253,4	4,557
253,8	7,843
254,3	6,471
254,8	5,5
255,2	6,843
255,7	9,071
256,1	14,757
256,6	21,043
257,1	23,129
257,5	12,271
258	13,7
258,5	17,071
258,9	15,643
259,4	12,643
259,9	8,986
260,3	0,186
260,8	6,557
261,2	2,329
261,7	2,414
262,2	-0,214
262,6	-0,243
263,1	3,614
263,6	8,586
264	10,957
264,5	15,671
264,9	10,3
265,4	14,729
265,9	14,186
266,3	11,871
266,8	14,614
267,3	13,243
267,7	9,7
268,2	12,957
268,7	9,214
269,1	12,271
269,6	7,357
270	10,014
270,5	10,957
271	9,157
271,4	8,329
271,9	7,071
272,4	10,271
272,8	14,3
273,3	7,671
273,7	3,386
274,2	4,7
274,7	3,1
275,1	4,5
275,6	-2,014
276,1	-4,1
276,5	-2,157
277	-0,671
277,4	-1,671
277,9	2,043
278,4	5,014
278,8	8,157
279,3	7,557
279,8	7,529
280,2	13,471
280,7	19,043
281,1	15,386
281,6	12,786
282,1	11,243
282,5	14,7
283	12,671
283,4	11,643
283,9	10,214
284,4	13,843
284,8	13,586
285,3	13,871
285,8	15,129
286,2	15,129
286,7	11,814
287,1	5,357
287,6	4,929
288,1	2,1
288,5	4,843
289	3,357
289,5	4,586
289,9	7,843
290,4	12,7
290,8	12,1
291,3	19,386
291,8	17,243
292,2	17,271
292,7	19,786
293,1	17,9
293,6	17,814
294,1	17,814
294,5	14,557
295	17,414
295,5	14,5
295,9	15,586
296,4	11,7
296,8	9,529
297,3	10,014
297,8	4,357
298,2	-4,7
298,7	1,129
299,1	-0,386
299,6	3,529
300,1	6,329
300,5	3,443
301	12,471
301,5	23,071
301,9	19,614
302,4	16,843
302,8	16,757
303,3	15,271
303,8	14,329
304,2	12,557
304,7	8,786
305,1	4,214
305,6	7,586
306,1	14,1
306,5	14,7
307	18,729
307,4	19,3
307,9	21,014
308,4	24,786
308,8	20,586
309,3	12,9
309,8	13,157
310,2	11,986
310,7	10,1
311,1	6,386
311,6	9,043
312,1	11,014
312,5	13,471
313	15,157
313,4	14,786
313,9	11,986
314,4	10,986
314,8	4,271
315,3	1,243
315,7	-3,3
316,2	-10,014
316,7	-11,129
317,1	-4,986
317,6	-2,871
318	5,957
318,5	8,071
319	9,071
319,4	12,614
319,9	19,786
320,3	18,786
320,8	18,386
321,3	18,729
321,7	20,814
322,2	23,414
322,6	23,814
323,1	15,214
323,6	10,414
324	8,357
324,5	3,1
324,9	4,071
325,4	1,129
325,9	1,1
326,3	3,643
326,8	8,129
327,2	8,243
327,7	7,7
328,2	4,471
328,6	8,757
329,1	4,614
329,5	5,929
330	3,7
330,5	5,414
330,9	7,471
331,4	11,043
331,8	8,671
332,3	15,243
332,8	17,043
333,2	18,014
333,7	21,643
334,1	23,386
334,6	20,614
335,1	16,386
335,5	14,214
336	11,014
336,4	12,186
336,9	12,214
337,4	10,929
337,8	7,357
338,3	9,957
338,7	10,929
339,2	9,929
339,7	8,3
340,1	4,671
340,6	4,9
341	4,757
341,5	5,5
342	1,157
342,4	5,1
342,9	3,386
343,3	3,443
343,8	-0,443
344,2	3,5
344,7	10,071
345,2	14,129
345,6	12,5
346,1	15,614
346,5	13,157
347	13,443
347,5	12,529
347,9	12,186
348,4	11,729
348,8	14,1
349,3	16,986
349,8	24,329
350,2	32,129
350,7	31,957
351,1	30,071
351,6	33,614
352	34,043
352,5	35,329
353	41,814
353,4	46,729
353,9	61,329
354,3	73,1
354,8	84,357
355,3	103,871
355,7	127,3
356,2	149,186
356,6	176,3
357,1	205,386
357,5	238,329
358	281,643
358,5	320,671
358,9	368,386
359,4	421,1
359,8	479,329
360,3	548,7
360,8	631,214
361,2	716,329
361,7	816,414
362,1	926,3
362,6	1041,9
363	1167,729
363,5	1299,271
364	1438,871
364,4	1578,1
364,9	1718,843
365,3	1857,843
365,8	1988,071
366,3	2112,186
366,7	2224,814
367,2	2321,671
367,6	2401,986
368,1	2464,329
368,5	2502,1
369	2530,671
369,5	2536,414
369,9	2517,614
370,4	2473,414
370,8	2417,414
371,3	2345,014
371,7	2262,671
372,2	2162,957
372,7	2051,014
373,1	1942,586
373,6	1832,414
374	1724,271
374,5	1610,643
374,9	1496,186
375,4	1391,586
375,9	1293,443
376,3	1190,843
376,8	1096,614
377,2	1008,5
377,7	926,157
378,2	848,1
378,6	775,986
379,1	709,329
379,5	655,729
380	607,129
380,4	553,7
380,9	508,529
381,4	468,814
381,8	438,014
382,3	412,786
382,7	384,757
383,2	353,757
383,6	333,586
384,1	318,729
384,6	304,443
385	281,557
385,5	259,414
385,9	239,043
386,4	222,814
386,8	209,043
387,3	189,071
387,7	175,043
388,2	161,243
388,7	148,729
389,1	140,614
389,6	135,786
390	128,471
390,5	124,157
390,9	120,186
391,4	113,1
391,9	107,414
392,3	104,329
392,8	94,014
393,2	86,243
393,7	82,7
394,1	71,3
394,6	69,329
395,1	70,1
395,5	63,129
396	64,7
396,4	63,157
396,9	58,443
397,3	64,786
397,8	66,214
398,2	64,271
398,7	61,871
399,2	61,1
399,6	57,043
400,1	55,586
400,5	46,957
401	44,1
401,4	37,014
401,9	40,271
402,4	40,043
402,8	40,5
403,3	47,3
403,7	48,586
404,2	47,9
404,6	52,129
405,1	48,1
405,5	45,671
406	46,786
406,5	38,186
406,9	38,786
407,4	39,729
407,8	40,529
408,3	44,557
408,7	41,871
409,2	44,814
409,6	48,9
410,1	50,3
410,6	52,443
411	51,443
411,5	51,871
411,9	59,5
412,4	60,157
412,8	63,757
413,3	64,443
413,7	60,671
414,2	60,186
414,7	62,986
415,1	65,471
415,6	68,671
416	69,129
416,5	73,929
416,9	75,014
417,4	79,986
417,8	88,414
418,3	92,814
418,8	97,386
419,2	99,986
419,7	98,843
420,1	106,186
420,6	111,786
421	106,129
421,5	105,729
421,9	102,329
422,4	103,186
422,8	102,471
423,3	103,157
423,8	97,643
424,2	94,357
424,7	94,271
425,1	97,357
425,6	96,586
426	100,014
426,5	101,786
426,9	107,643
427,4	107,671
427,9	100,643
428,3	99,586
428,8	98,443
429,2	94,9
429,7	89,557
430,1	84,929
430,6	90,814
431	93,529
431,5	93,157
431,9	90,814
432,4	92,7
432,8	97,357
433,3	101,957
433,8	101,443
434,2	105,814
434,7	105,957
435,1	110,329
435,6	115,243
436	117,957
436,5	121,814
436,9	123,671
437,4	124,243
437,8	129,329
438,3	133,729
438,8	132,729
439,2	135,3
439,7	138,557
440,1	144,671
440,6	153,471
441	153,014
441,5	158,7
441,9	168,243
442,4	172,443
442,8	176,5
443,3	185,729
443,7	193,129
444,2	205,329
444,7	213,3
445,1	221,414
445,6	229,843
446	238,243
446,5	237,186
446,9	235,586
447,4	241,757
447,8	251,043
448,3	262,929
448,7	272,271
449,2	286,214
449,6	303,186
450,1	314,529
450,6	333,757
451	346,586
451,5	358,643
451,9	375,9
452,4	387,786
452,8	399,871
453,3	422,3
453,7	426,329
454,2	442,186
454,6	453,471
455,1	464,529
455,5	477,671
456	499,814
456,4	510,014
456,9	529,614
457,3	545,986
457,8	557,957
458,3	580,7
458,7	598,357
459,2	610,614
459,6	630,3
460,1	651,357
460,5	664,614
461	692,386
461,4	708,186
461,9	726,7
462,3	749,3
462,8	774,414
463,2	791,271
463,7	820,386
464,1	843,614
464,6	870,357
465	900,329
465,5	922,786
466	948,329
466,4	974,071
466,9	999,157
467,3	1021,9
467,8	1042,871
468,2	1065,929
468,7	1088,471
469,1	1113,071
469,6	1141,243
470	1163,757
470,5	1189,357
470,9	1212,614
471,4	1237,014
471,8	1262,814
472,3	1289,3
472,7	1313,614
473,2	1338,586
473,6	1358,986
474,1	1389,357
474,5	1409,843
475	1440,643
475,4	1460,7
475,9	1484,9
476,4	1507,386
476,8	1536,529
477,3	1553,443
477,7	1581,014
478,2	1600,129
478,6	1615,214
479,1	1634,814
479,5	1655,871
480	1678,671
480,4	1704,671
480,9	1718,043
481,3	1735,043
481,8	1761,014
482,2	1780,071
482,7	1803,386
483,1	1820,243
483,6	1842,243
484	1867,043
484,5	1888,814
484,9	1909,043
485,4	1933,386
485,8	1946,7
486,3	1961,643
486,7	1971,9
487,2	1990,871
487,6	1998,357
488,1	2001,271
488,5	2009,071
489	2024,071
489,4	2038,757
489,9	2052,814
490,4	2064,957
490,8	2084,271
491,3	2105,329
491,7	2113,729
492,2	2126,071
492,6	2133,471
493,1	2141,186
493,5	2139,586
494	2144,243
494,4	2153,271
494,9	2161,357
495,3	2166,986
495,8	2174,214
496,2	2180,014
496,7	2186,329
497,1	2193,814
497,6	2194,157
498	2199,357
498,5	2205,643
498,9	2207,471
499,4	2208,014
499,8	2216,5
500,3	2221,9
500,7	2228,414
501,2	2228,986
501,6	2224,471
502,1	2224,757
502,5	2225,814
503	2223,929
503,4	2223,671
503,9	2217,757
504,3	2228,586
504,8	2235,729
505,2	2239,357
505,7	2239,043
506,1	2240,186
506,6	2233,757
507	2238,757
507,5	2233,986
507,9	2224,757
508,4	2222,7
508,8	2226,386
509,3	2223,043
509,7	2224,071
510,2	2223,071
510,6	2217,186
511,1	2217,671
511,5	2213,271
512	2210,957
512,4	2211,929
512,9	2215,386
513,3	2213,471
513,8	2212,186
514,2	2216,157
514,7	2215,557
515,1	2215,386
515,6	2211,586
516	2206,386
516,5	2205,329
516,9	2205,243
517,4	2199,814
517,8	2200,443
518,3	2197,9
518,7	2201,443
519,2	2199,357
519,6	2199,814
520,1	2202,614
520,5	2202,329
521	2199,386
521,4	2200,729
521,9	2201,214
522,3	2200,243
522,8	2195,129
523,2	2195,957
523,7	2195,729
524,1	2199,614
524,6	2199,586
525	2196,957
525,5	2197,157
525,9	2203,471
526,4	2190,986
526,8	2193,557
527,3	2191,5
527,7	2195,7
528,2	2194,329
528,6	2192,843
529,1	2192,214
529,5	2203,9
530	2201,243
530,4	2205,871
530,9	2200,129
531,3	2205,3
531,8	2209,3
532,2	2209,871
532,6	2205,929
533,1	2206,986
533,5	2206,529
534	2210,986
534,4	2213,986
534,9	2211,471
535,3	2219,243
535,8	2224,7
536,2	2229,014
536,7	2233,871
537,1	2234,329
537,6	2233,643
538	2242,5
538,5	2238,014
538,9	2232,5
539,4	2237,271
539,8	2237,157
540,3	2239,5
540,7	2244,5
541,2	2245,814
541,6	2251,386
542,1	2262,929
542,5	2266,071
543	2264,671
543,4	2267,3
543,9	2262,871
544,3	2268,957
544,8	2269,729
545,2	2271,786
545,7	2274,729
546,1	2280,186
546,5	2287,9
547	2294,757
547,4	2294,357
547,9	2292,386
548,3	2294,157
548,8	2290,414
549,2	2293,786
549,7	2298,243
550,1	2304,443
550,6	2305,7
551	2314,786
551,5	2316,871
551,9	2322,9
552,4	2324,929
552,8	2321,614
553,3	2314,843
553,7	2318,557
554,2	2320,9
554,6	2326,157
555,1	2338,671
555,5	2344,157
555,9	2350,471
556,4	2357,986
556,8	2359,671
557,3	2365,614
557,7	2367,129
558,2	2355,929
558,6	2360,529
559,1	2357,386
559,5	2359,129
560	2368,1
560,4	2361,157
560,9	2366,186
561,3	2369,414
561,8	2369,3
562,2	2374,214
562,7	2373,843
563,1	2376,014
563,6	2378,929
564	2375,786
564,4	2379,9
564,9	2382,471
565,3	2383,329
565,8	2391,157
566,2	2389,614
566,7	2396,214
567,1	2401,329
567,6	2404,986
568	2403,157
568,5	2403,957
568,9	2401,243
569,4	2398,786
569,8	2398,471
570,3	2394,614
570,7	2388,014
571,1	2389,529
571,6	2392,586
572	2393,186
572,5	2398,214
572,9	2398,043
573,4	2403,3
573,8	2410,614
574,3	2404,043
574,7	2398,329
575,2	2395,586
575,6	2389,443
576,1	2389,871
576,5	2384,5
576,9	2375,814
577,4	2377,729
577,8	2374,357
578,3	2375,986
578,7	2370,129
579,2	2368,529
579,6	2363,157
580,1	2360,957
580,5	2361,414
581	2365,129
581,4	2360,757
581,9	2359,986
582,3	2357,357
582,7	2356,9
583,2	2357,586
583,6	2353,329
584,1	2345,957
584,5	2342,757
585	2341,043
585,4	2330,9
585,9	2329,071
586,3	2326,043
586,8	2324,443
587,2	2323,1
587,6	2322,786
588,1	2320,871
588,5	2320,071
589	2317,414
589,4	2313,129
589,9	2306,243
590,3	2299,986
590,8	2295,329
591,2	2288,386
591,7	2287,871
592,1	2285,929
592,5	2286,071
593	2279,7
593,4	2278,386
593,9	2277,186
594,3	2273,529
594,8	2265,671
595,2	2263,186
595,7	2259,814
596,1	2261,843
596,6	2258,7
597	2249,271
597,4	2250,757
597,9	2257,157
598,3	2252,471
598,8	2245,271
599,2	2236,157
599,7	2230,7
600,1	2227,043
600,6	2222,243
601	2208,929
601,4	2202,529
601,9	2199,843
602,3	2194,986
602,8	2191,071
603,2	2185,129
603,7	2177,357
604,1	2178,1
604,6	2172,186
605	2165,357
605,4	2164,443
605,9	2156,843
606,3	2147,729
606,8	2144,814
607,2	2135,186
607,7	2125,157
608,1	2117,329
608,6	2116,643
609	2115,614
609,4	2112,557
609,9	2099,386
610,3	2092,3
610,8	2087,729
611,2	2083,214
611,7	2065,214
612,1	2058,443
612,6	2054,5
613	2054,3
613,4	2044,671
613,9	2042,214
614,3	2034,529
614,8	2033,214
615,2	2021,043
615,7	2014,471
616,1	2006,671
616,6	1998,671
617	1989,386
617,4	1984,643
617,9	1981,957
618,3	1977,271
618,8	1977,643
619,2	1968,929
619,7	1964,786
620,1	1957,129
620,5	1948,986
621	1936,643
621,4	1933,3
621,9	1917,614
622,3	1910,871
622,8	1902,1
623,2	1893,071
623,6	1884,014
624,1	1878,386
624,5	1865,957
625	1864,014
625,4	1855,529
625,9	1846,443
626,3	1839,643
626,8	1828,614
627,2	1820,471
627,6	1810,243
628,1	1792,757
628,5	1789,557
629	1781,586
629,4	1774,443
629,9	1767,814
630,3	1756,443
630,7	1748,671
631,2	1747,871
631,6	1735,386
632,1	1728,671
632,5	1722,986
633	1715,929
633,4	1706,471
633,8	1699,871
634,3	1688,043
634,7	1683,214
635,2	1672,729
635,6	1660,529
636,1	1654,386
636,5	1647,157
636,9	1639,929
637,4	1630,186
637,8	1613,329
638,3	1602,986
638,7	1595,757
639,2	1586,471
639,6	1583,214
640	1573,243
640,5	1565,214
640,9	1560,786
641,4	1558,243
641,8	1550,871
642,2	1543,129
642,7	1538,614
643,1	1538,186
643,6	1530,386
644	1524,443
644,5	1516,5
644,9	1510,5
645,3	1502,471
645,8	1488,471
646,2	1477,129
646,7	1467,814
647,1	1460,643
647,6	1457,9
648	1449,3
648,4	1441,386
648,9	1437,843
649,3	1424,3
649,8	1424,557
650,2	1416,557
650,6	1407,529
651,1	1398,757
651,5	1397,386
652	1387,386
652,4	1384,529
652,9	1378,7
653,3	1373,529
653,7	1361,843
654,2	1356,5
654,6	1342,443
655,1	1340,1
655,5	1336,843
655,9	1327,443
656,4	1320,557
656,8	1313,7
657,3	1307,986
657,7	1305,357
658,2	1291,557
658,6	1284,671
659	1276,957
659,5	1264,814
659,9	1262,671
660,4	1257,757
660,8	1248,414
661,2	1243,157
661,7	1238,671
662,1	1233,071
662,6	1224,9
663	1216,329
663,4	1205,814
663,9	1197,357
664,3	1188,814
664,8	1173,271
665,2	1164,843
665,6	1162,7
666,1	1156,157
666,5	1154,643
667	1153,843
667,4	1145,814
667,9	1137,386
668,3	1126,871
668,7	1119,043
669,2	1113,557
669,6	1101,5
670,1	1088,757
670,5	1087,443
670,9	1082,357
671,4	1079,3
671,8	1076,529
672,3	1070,414
672,7	1066,614
673,1	1056,7
673,6	1046,529
674	1046,471
674,5	1036,443
674,9	1020,186
675,3	1012,929
675,8	1006,671
676,2	1001,071
676,7	996,671
677,1	988,129
677,5	981,614
678	985,043
678,4	978,757
678,9	971,157
679,3	967,957
679,7	958,043
680,2	948,614
680,6	941,9
681,1	933,471
681,5	931,586
681,9	925,729
682,4	922,843
682,8	924,929
683,3	921,786
683,7	920,414
684,1	913,357
684,6	903,7
685	898,757
685,5	889,157
685,9	875,3
686,3	866,957
686,8	865,329
687,2	863,214
687,7	855,557
688,1	844,929
688,5	845,414
689	843,557
689,4	835,786
689,9	824,271
690,3	817,014
690,7	811,329
691,2	814,214
691,6	807,471
692	806,3
692,5	805,014
692,9	801,614
693,4	797,786
693,8	795,129
694,2	786,986
694,7	777,586
695,1	768,414
695,6	768,5
696	768,843
696,4	761,071
696,9	749,557
697,3	740,386
697,8	737,043
698,2	733,414
698,6	726,071
699,1	718,329
699,5	715,9
699,9	715,129
700,4	709,329
700,8	706,957
701,3	701,5
701,7	695,414
702,1	691,9
702,6	684,671
703	686,729
703,5	686,214
703,9	681,929
704,3	677,043
704,8	671,071
705,2	668,157
705,6	667,414
706,1	655,957
706,5	652,586
707	650,386
707,4	652,529
707,8	648,386
708,3	641,157
708,7	638,043
709,2	636,786
709,6	634,3
710	632,386
710,5	623,671
710,9	623,357
711,3	615,986
711,8	612,414
712,2	610,214
712,7	603,071
713,1	596,357
713,5	595,186
714	593,671
714,4	591,357
714,8	586,7
715,3	578,5
715,7	579,729
716,2	572,614
716,6	568,986
717	559,043
717,5	553,643
717,9	553,357
718,3	552,214
718,8	546,129
719,2	545,471
719,7	538,814
720,1	539,929
720,5	543,043
721	532,014
721,4	531,329
721,8	527,557
722,3	519,271
722,7	518,871
723,2	512,043
723,6	500,671
724	497,071
724,5	489,471
724,9	484,9
725,3	484,1
725,8	476,7
726,2	475,3
726,7	478,814
727,1	474,729
727,5	469,557
728	467,471
728,4	466,186
728,8	463,471
729,3	460,014
729,7	454,586
730,1	458,529
730,6	462,329
731	455,957
731,5	452,186
731,9	451,157
732,3	448,443
732,8	447,9
733,2	443,814
733,6	435,329
734,1	435,929
734,5	433,729
734,9	439,014
735,4	434,357
735,8	424,414
736,3	422,814
736,7	423,157
737,1	421,471
737,6	420,443
738	410,186
738,4	409,614
738,9	413,7
739,3	412,414
739,7	406,471
740,2	402,557
740,6	405,443
741,1	406,386
741,5	403,329
741,9	400,214
742,4	396,271
742,8	400,043
743,2	396,043
743,7	384,643
744,1	377,529
744,5	372,814
745	369,643
745,4	365,214
745,8	360,7
746,3	359,871
746,7	360,7
747,2	358,043
747,6	357,1
748	354,843
748,5	355,243
748,9	349,414
749,3	347,357
749,8	345,014
750,2	343,471
750,6	339,643
751,1	338,043
751,5	336,471
751,9	337,157
752,4	335,043
752,8	333,071
753,3	334,786
753,7	339,386
754,1	338,757
754,6	331,157
755	328,243
755,4	322,729
755,9	317,271
756,3	311,1
756,7	303,443
757,2	302,386
757,6	302,471
758	300,9
758,5	301,186
758,9	298,643
759,3	299,271
759,8	302,214
760,2	298,814
760,6	296,471
761,1	295,271
761,5	294,271
761,9	294,7
762,4	292,329
762,8	290,186
763,3	287,186
763,7	287,786
764,1	286,043
764,6	284,843
765	284,786
765,4	283,557
765,9	281,271
766,3	284,414
766,7	283,071
767,2	281,871
767,6	284,071
768	283,3
768,5	276,929
768,9	276,471
769,3	269,529
769,8	266,3
770,2	267,671
770,6	259,929
771,1	260,929
771,5	260,986
771,9	260,557
772,4	262,357
772,8	254,529
773,2	249,786
773,7	250,443
774,1	244,243
774,5	237,529
775	230,871
775,4	228,929
775,8	233,871
776,3	234,9
776,7	234,929
777,1	235,214
777,6	240,614
778	243,9
778,4	242,643
778,9	244,843
779,3	242,557
779,7	241,214
780,2	237,329
780,6	238,071
781	230,214
781,5	226,243
781,9	219,843
782,3	214,3
782,8	212,386
783,2	212,414
783,6	212,1
784,1	211,3
784,5	209,014
784,9	210,986
785,4	212,871
785,8	211,329
786,2	209,329
786,7	207,186
787,1	206,957
787,5	206,157
788	199,986
788,4	200,586
788,8	198,329
789,3	197,986
789,7	194,814
790,1	194,7
790,6	199,014
791	193,386
791,4	194,529
791,9	189,214
792,3	185,1
792,7	186,871
793,2	184,557
793,6	178,3
794	186,043
794,5	180,129
794,9	184,557
795,3	190,471
795,8	186,043
796,2	184,414
796,6	181,814
797,1	178,871
797,5	176,786
797,9	173,043
798,4	165,7
798,8	163,729
799,2	164,071
799,7	166,986
800,1	164,586
800,5	163,329
801	164,9
801,4	160,186
801,8	162,329
802,2	161,814
802,7	156,757
803,1	157,757
803,5	154,843
804	152,3
804,4	157,071
804,8	155,1
805,3	157,643
805,7	157,386
806,1	151,786
806,6	155,643
807	151,471
807,4	148,043
807,9	138,671
808,3	131,871
808,7	128,443
809,2	131,129
809,6	134,271
810	134,957
810,4	135,929
810,9	141,9
811,3	144,329
811,7	147,643
812,2	153,671
812,6	144,3
813	147,614
813,5	145,443
813,9	142,043
814,3	136,986
814,8	131,557
815,2	120,014
815,6	119,843
816,1	121,929
816,5	124,043
816,9	124,614
817,3	125,614
817,8	129,614
818,2	134,643
818,6	135,386
819,1	127,443
819,5	120,786
819,9	123,357
820,4	124,186
820,8	124,243
821,2	116,786
821,7	117,929
822,1	120,3
822,5	125,7
822,9	124,157
823,4	124,643
823,8	124,329
824,2	129,5
824,7	126,471
825,1	118,386
825,5	113,129
826	104,186
826,4	98,443
826,8	93,729
827,3	93,986
827,7	92,443
828,1	96,614
828,5	95,071
829	95,129
829,4	96,586
829,8	90,929
830,3	89,929
830,7	87,214
831,1	88,671
831,6	90,871
832	95,9
832,4	94,186
832,8	99,529
833,3	96,243
833,7	93,214
834,1	89,443
834,6	87,071
835	87,957
835,4	91,557
835,8	87,786
836,3	86,643
836,7	88,929
837,1	90,186
837,6	92,5
838	87,357
838,4	84,843
838,9	83,614
839,3	82,443
839,7	82,786
840,1	78,214
840,6	76,9
841	79,014
841,4	78,414
841,9	83,529
842,3	82,471
842,7	81,271
843,1	82,786
843,6	82,614
844	82,871
844,4	83,843
844,9	81,386
845,3	81,671
845,7	80,157
846,2	78,643
846,6	74,186
847	72,929
847,4	70,586
847,9	71,557
848,3	73,3
848,7	74,271
849,2	74,614
849,6	72,929
850	78,214
850,4	82,471
850,9	79,614
851,3	82,271
851,7	86,186
852,2	84,471
852,6	90,529
853	82,5
853,4	75,443
853,9	73,271
854,3	65,471
854,7	60,929
855,2	61,586
855,6	60,157
856	61,471
856,4	58,814
856,9	58,043
857,3	61,471
857,7	63,014
858,2	65,757
858,6	61,9
859	61,9
859,4	64,471
859,9	64,329
860,3	61,757
860,7	58,671
861,1	59,871
861,6	59,557
862	57,871
862,4	52,671
862,9	55,386
863,3	56,386
863,7	57,586
864,1	57,957
864,6	61,157
865	60,186
865,4	62,729
865,9	63,186
866,3	60,929
866,7	57,071
867,1	51,3
867,6	48,757
868	43,329
868,4	43,329
868,8	39,843
869,3	41,471
869,7	47,186
870,1	46,5
870,6	44,871
871	-2,614
871,4	5,814
871,8	4,586
872,3	7,871
872,7	5,5
873,1	6,271
873,5	3,3
874	55,3
874,4	50,129
874,8	49,043
875,3	45,014
875,7	42,586
876,1	42,814
876,5	48,157
877	45,414
877,4	43,186
877,8	45,757
878,2	45,414
878,7	46,757
879,1	48,071
879,5	47,157
879,9	50,843
880,4	49,529
880,8	47,786
881,2	46,157
881,7	42,3
882,1	42,329
882,5	37,786
882,9	38,5
883,4	37,986
883,8	40,443
884,2	41,129
884,6	40,557
885,1	35,3
885,5	41,071
885,9	36,414
886,3	39,071
886,8	33,271
887,2	31,843
887,6	34,929
888	36,386
888,5	34,643
888,9	33,557
889,3	29,414
889,8	29,1
890,2	28,243
890,6	23,129
891	23,643
891,5	20,014
891,9	25,071
892,3	29,557
892,7	31,7
893,2	35,443
893,6	40,443
894	41,957
894,4	40,1
894,9	37,071
895,3	32,414
895,7	36,186
896,1	34,414
896,6	32,214
897	32,157
897,4	40,643
897,8	43,329
898,3	46,7
898,7	41,786
899,1	39,929
899,5	38,814
900	32,5
900,4	27,271
900,8	20,414
901,2	15,643
901,7	13,529
902,1	16,386
902,5	19,157
902,9	19,186
903,4	19,814
903,8	21,986
904,2	22,529
904,6	27,214
905,1	25,357
905,5	20,957
905,9	24,3
906,3	25,986
906,8	34,157
907,2	33,757
907,6	35,014
908	35,386
908,5	36,3
908,9	32,3
909,3	30,071
909,7	25,3
910,2	28,614
910,6	30,014
911	29,1
911,4	32,614
911,9	34,157
912,3	34,443
912,7	36,214
913,1	33,929
913,6	28,529
914	28,329
914,4	27,9
914,8	29,186
915,3	25,757
915,7	23,014
916,1	19,329
916,5	19,443
916,9	18,614
917,4	16,614
917,8	20,071
918,2	16,414
918,6	14,043
919,1	16,471
919,5	21,014
919,9	20,5
920,3	21,814
920,8	17,757
921,2	20,529
921,6	18,014
922	18,786
922,5	15,529
922,9	16,214
923,3	12,729
923,7	14,7
924,2	16,329
924,6	17,929
925	19,7
925,4	17,843
925,8	17,157
926,3	18,7
926,7	17,586
927,1	19,471
927,5	21,443
928	17,843
928,4	17,129
928,8	18,843
929,2	15,7
929,7	18,157
930,1	17,5
930,5	16,786
930,9	18,357
931,3	19,871
931,8	20,014
932,2	21,443
932,6	17,271
933	11,5
933,5	11,443
933,9	13,957
934,3	12,271
934,7	8,129
935,2	13,386
935,6	16,329
936	23,1
936,4	24,386
936,8	27,129
937,3	29,557
937,7	31,786
938,1	29,443
938,5	25,786
939	24,957
939,4	23,3
939,8	19,671
940,2	17,129
940,6	20,329
941,1	20,357
941,5	24,043
941,9	21,443
942,3	22,386
942,8	22,214
943,2	21,129
943,6	17,329
944	18,9
944,4	18,957
944,9	16,043
945,3	13,329
945,7	8,443
946,1	5,129
946,6	4,814
947	-2,043
947,4	1,357
947,8	2,243
948,2	0,414
948,7	3,986
949,1	5,014
949,5	6,671
949,9	10,9
950,3	8,243
950,8	8,186
951,2	12,214
951,6	11,443
952	19,186
952,5	17,671
952,9	15,871
953,3	14,729
953,7	20,043
954,1	23,5
954,6	24,929
955	22,557
955,4	21,043
955,8	22,929
956,2	22,986
956,7	20,929
957,1	14,7
957,5	11,929
957,9	9,843
958,3	10,357
958,8	10,271
959,2	7,357
959,6	9,043
960	8,986
960,5	17,671
960,9	19,786
961,3	20,243
961,7	18,643
962,1	25,5
962,6	23,243
963	26,186
963,4	14,614
963,8	14,786
964,2	16,357
964,7	18,614
965,1	18,929
965,5	17,7
965,9	16,357
966,3	22,471
966,8	21,3
967,2	22,186
967,6	18,386
968	13,043
968,4	13,7
968,9	13,243
969,3	13,929
969,7	12,986
970,1	11,214
970,5	11,871
971	15,5
971,4	15,129
971,8	14,357
972,2	11,471
972,6	13,757
973,1	11,3
973,5	13,129
973,9	9,986
974,3	14,1
974,7	16,243
975,2	17,186
975,6	11,414
976	14,357
976,4	8,757
976,8	9,929
977,3	4,014
977,7	2,557
978,1	2,386
978,5	5,071
978,9	-1,814
979,4	3,786
979,8	0,529
980,2	2,9
980,6	1,757
981	7,414
981,5	7,586
981,9	15,214
982,3	15,157
982,7	14,843
983,1	12,929
983,6	14,5
984	11,557
984,4	16,614
984,8	17,814
985,2	16,871
985,6	16,757
986,1	19,9
986,5	21,586
986,9	14,329
987,3	11,786
987,7	11,357
988,2	10,757
988,6	13,186
989	15,043
989,4	11,871
989,8	17,786
990,3	19,786
990,7	19,614
991,1	20,186
991,5	18,986
991,9	17,243
992,3	22,1
992,8	22,014
993,2	15,3
993,6	12,271
994	12,1
994,4	15,643
994,9	12,386
995,3	9,9
995,7	7,871
996,1	9,214
996,5	10,929
996,9	9,329
997,4	7,957
997,8	4,3
998,2	2,529
998,6	-4,986
999	-3,557
999,5	-8,071
999,9	-4,243
1000,3	-6,271
1000,7	0,071
1001,1	2,271
1001,5	10,729
1002	16,329
1002,4	21,643
1002,8	18,957
1003,2	20,1
1003,6	20,414
1004	20,843
1004,5	19,5
1004,9	18,814
1005,3	13,957
1005,7	16,5
1006,1	12,214
1006,6	10,1
1007	8,271
1007,4	11,071
1007,8	8,443
1008,2	6,471
1008,6	6,014
1009,1	9,386
1009,5	9,9
1009,9	10,986
1010,3	8,214
1010,7	8,671
1011,1	10,614
1011,6	13,957
1012	16,357
1012,4	14,814
1012,8	11,586
1013,2	17,329
1013,6	15,386
1014,1	18,186
1014,5	14,386
1014,9	12,643
1015,3	12,814
1015,7	17,071
1016,1	12,614
1016,6	12,129
1017	14,1
1017,4	14,386
1017,8	12,014
1018,2	15,729
1018,6	9,586
1019,1	10,814
1019,5	10,986
1019,9	7,729
1020,3	6,843
1020,7	9,643
1021,1	5,529
1021,6	7,357
1022	6,471
1022,4	4,614
1022,8	8,357
1023,2	7,386
1023,6	4,557
1024,1	12,957
1024,5	14,271
1024,9	9,9
1025,3	12,014
1025,7	11,357
1026,1	16,871
1026,6	21,271
1027	16,557
1027,4	22,614
1027,8	25,814
1028,2	23,557
1028,6	27,9
1029	24,186
1029,5	26,7
1029,9	22,443
1030,3	15,929
1030,7	14,786
1031,1	20,043
1031,5	9,7
1032	9,614
1032,4	4,186
1032,8	7,671
1033,2	13,157
1033,6	12,986
1034	11,529
1034,4	11,214
1034,9	12,729
1035,3	10,071
1035,7	14,529
1036,1	8,1
1036,5	4,071
1036,9	2,671
1037,4	11,986
1037,8	8,386
1038,2	12,729
1038,6	8,414
1039	13,043
1039,4	23,729
1039,8	17,843
1040,3	14,614
1040,7	19,271
1041,1	21,557
1041,5	26,329
1041,9	23,043
1042,3	19,471
1042,7	27,786
1043,2	26,9
1043,6	20,014
1044	17,443
1044,4	8,671
1044,8	12,843
1045,2	12,871
1045,6	14,329
1046,1	14,643
1046,5	14,729
1046,9	12,157
1047,3	18,043
1047,7	15,871
1048,1	14,071
1048,5	9,214
1049	10,329
1049,4	15,329
1049,8	16,443
1050,2	13,586
1050,6	13,129
1051	14,729
1051,4	14,5
1051,9	11,386
1052,3	15,843
1052,7	15,129
1053,1	11,443
1053,5	14,786
1053,9	17,557
1054,3	17,986
1054,8	22,614
1055,2	16,1
1055,6	22,9
1056	30,329
1056,4	26,557
1056,8	22,643
1057,2	21,643
1057,6	17,671
1058,1	15,986
1058,5	9,786
1058,9	9,529
1059,3	10,386
1059,7	11,586
1060,1	13,471
1060,5	17,671
1061	21,214
1061,4	21,614
1061,8	21,157
1062,2	20,871
1062,6	17,986
1063	22,1
1063,4	18,243
1063,8	18,529
1064,3	19,043
1064,7	16,643
1065,1	15,443
1065,5	15,043
1065,9	11,214
1066,3	11,1
1066,7	6,643
1067,1	8,757
1067,6	10,157
1068	9,271
1068,4	10,157
1068,8	11,214
1069,2	13,843
1069,6	18,243
1070	19,157
1070,4	17,529
1070,9	16,129
1071,3	17,7
1071,7	15,414
1072,1	13,957
1072,5	9,929
1072,9	4,271
1073,3	7,5
1073,7	7,871
1074,2	8,214
1074,6	10,014
1075	8,871
1075,4	10,814
1075,8	13,729
1076,2	7,843
1076,6	11,414
1077	10,529
1077,5	12,1
1077,9	10,3
1078,3	11,986
1078,7	10,7
1079,1	13,386
1079,5	12,186
1079,9	14,271
1080,3	9,643
1080,7	13,386
1081,2	18,357
1081,6	21,214
1082	18,443
1082,4	25,3
1082,8	23,529
1083,2	23,843
1083,6	25,529
1084	19,1
1084,5	17,157
1084,9	14,986
1085,3	7,186
1085,7	8,071
1086,1	6,814
1086,5	3,414
1086,9	6,586
1087,3	7,386
1087,7	12,986
1088,2	14,929
1088,6	11,414
1089	15,043
1089,4	14,671
1089,8	15,443
1090,2	12,329
1090,6	11,329
1091	10,614
1091,4	14,1
1091,9	14,357
1092,3	14,443
1092,7	12,271
1093,1	15,729
1093,5	17,157
1093,9	16,071
1094,3	20,929
1094,7	18,786
1095,1	20,986
1095,5	20,986
1096	15,5
1096,4	13,643
1096,8	12,157
1097,2	4,1
1097,6	12,014
1098	9,043
1098,4	8,414
1098,8	12,129
1099,2	16,671
1099,6	16,786
1100,1	16,214
1100,5	6,614
1100,9	9,529
1101,3	11,671
1101,7	9,5
1102,1	4,557
1102,5	8,243
1102,9	11,414
1103,3	14,786
1103,7	13,671
1104,2	12,243
1104,6	12,529
1105	9,7
1105,4	6,814
1105,8	4,243
1106,2	1,986
1106,6	-0,186
1107	-2,957
1107,4	-3,033
1107,8	-0,22
1108,3	-0,4
