Data from Subt2_278.txt Node
Date: Sat Aug 26 19:05:58 MSK 2023
User: vat
Spectrometer: MAYP114033
Trigger mode: 0
Integration Time (sec): 1,000000E0
Scans to average: 5
Electric dark correction enabled: true
Nonlinearity correction enabled: false
Boxcar width: 3
XAxis mode: Wavelengths
Number of Pixels in Spectrum: 2068
>>>>>Begin Spectral Data<<<<<
199,4	-0,65
199,9	1,54
200,4	-0,067
200,8	1,871
201,3	-0,243
201,8	4,471
202,2	3,986
202,7	8,843
203,2	6,471
203,6	5,529
204,1	2,214
204,6	1,557
205	0,729
205,5	2,129
206	0,1
206,4	-0,414
206,9	2,414
207,4	6,1
207,8	9,586
208,3	4,529
208,8	5,986
209,2	4,986
209,7	9,843
210,2	10,014
210,6	10,3
211,1	13,043
211,5	10,414
212	9,129
212,5	7,586
212,9	3,243
213,4	1,557
213,9	0,043
214,3	-2,157
214,8	3,071
215,3	1,414
215,7	1,643
216,2	5,357
216,7	7,757
217,1	3,243
217,6	6,729
218,1	4,071
218,5	1,871
219	-2,814
219,5	-2,9
219,9	-5,329
220,4	7,329
220,9	2,957
221,3	6,471
221,8	10,757
222,3	15,271
222,7	14,757
223,2	14,7
223,6	6,414
224,1	6,671
224,6	9,5
225	4,871
225,5	6,014
226	4,9
226,4	8,9
226,9	5,757
227,4	10,014
227,8	0,729
228,3	1,129
228,8	-0,614
229,2	-1,386
229,7	-6,3
230,2	-3,9
230,6	-4,957
231,1	2,243
231,5	0,986
232	-2,957
232,5	-2,271
232,9	0,786
233,4	2,557
233,9	1,043
234,3	-0,671
234,8	2,586
235,3	7,1
235,7	9,271
236,2	7,9
236,7	5,843
237,1	7,414
237,6	6,014
238,1	6,357
238,5	0,386
239	-1,157
239,4	3,643
239,9	5,614
240,4	3,871
240,8	7,5
241,3	4,643
241,8	7,471
242,2	6,671
242,7	5,329
243,2	4,443
243,6	3,3
244,1	6,157
244,6	14,614
245	17,843
245,5	17,1
245,9	11,9
246,4	11,3
246,9	12,186
247,3	4,5
247,8	0,586
248,3	2,186
248,7	3,214
249,2	6,071
249,7	3,929
250,1	7,243
250,6	6,814
251	7,9
251,5	8,843
252	8,557
252,4	8,1
252,9	9,271
253,4	1,329
253,8	3,557
254,3	3,729
254,8	3,586
255,2	-0,129
255,7	0,786
256,1	-1,271
256,6	1,529
257,1	2,643
257,5	-2,214
258	-2,643
258,5	0,786
258,9	0,329
259,4	1,129
259,9	4,757
260,3	2,357
260,8	4,3
261,2	1,243
261,7	4,357
262,2	-0,7
262,6	-0,757
263,1	-0,3
263,6	-1,1
264	4,986
264,5	9,757
264,9	5,3
265,4	12,043
265,9	11,243
266,3	11,614
266,8	13,9
267,3	11,643
267,7	6,443
268,2	7,386
268,7	8,414
269,1	12,729
269,6	8,843
270	11,843
270,5	3,357
271	5,329
271,4	3,014
271,9	-4,9
272,4	-3,414
272,8	-2,186
273,3	-8,357
273,7	-0,3
274,2	1,071
274,7	6,614
275,1	9,9
275,6	8,9
276,1	6,3
276,5	12,071
277	9,443
277,4	7,557
277,9	4,157
278,4	8,986
278,8	9,357
279,3	11,614
279,8	12,729
280,2	13,129
280,7	16,814
281,1	15,586
281,6	13,471
282,1	13,871
282,5	13,7
283	11,614
283,4	9,357
283,9	7,643
284,4	13,814
284,8	12,757
285,3	9,843
285,8	6,443
286,2	2,557
286,7	5,414
287,1	3,5
287,6	-0,614
288,1	-3,071
288,5	2,7
289	8,9
289,5	11,586
289,9	9,357
290,4	10,843
290,8	11,871
291,3	12,157
291,8	8,843
292,2	4,214
292,7	9,671
293,1	9,5
293,6	9,5
294,1	9,786
294,5	13,757
295	11,814
295,5	9,957
295,9	6,129
296,4	7,386
296,8	4,5
297,3	3,529
297,8	-3,3
298,2	-5,471
298,7	-0,5
299,1	1,043
299,6	-0,614
300,1	6,271
300,5	5,529
301	12,671
301,5	18,3
301,9	15,786
302,4	11,243
302,8	10,957
303,3	7,529
303,8	5,043
304,2	3,3
304,7	2,786
305,1	-0,7
305,6	0,471
306,1	7,186
306,5	7,3
307	13,529
307,4	15,271
307,9	14,386
308,4	17,614
308,8	16,471
309,3	10,929
309,8	11,471
310,2	10,243
310,7	7,329
311,1	5,871
311,6	12,071
312,1	13,5
312,5	15,214
313	12,271
313,4	9,5
313,9	12,843
314,4	13,671
314,8	6,7
315,3	7,557
315,7	1,014
316,2	0,557
316,7	1,129
317,1	2,414
317,6	4,329
318	9,271
318,5	7,7
319	16,871
319,4	20,5
319,9	24,471
320,3	24,871
320,8	21,843
321,3	25,243
321,7	27,7
322,2	22,614
322,6	24,129
323,1	16,443
323,6	12,671
324	11,5
324,5	7,014
324,9	5,329
325,4	4,243
325,9	2,243
326,3	7,329
326,8	9,729
327,2	9,214
327,7	8,843
328,2	10,929
328,6	15,414
329,1	11,929
329,5	9,557
330	5,329
330,5	6,129
330,9	4,271
331,4	5,129
331,8	3,557
332,3	10,871
332,8	14,386
333,2	17,014
333,7	18,929
334,1	21,614
334,6	13,357
335,1	7,871
335,5	5,443
336	3,757
336,4	4,414
336,9	11,5
337,4	10,786
337,8	12,1
338,3	18,5
338,7	15,329
339,2	13,729
339,7	15,386
340,1	4,671
340,6	3,186
341	7,757
341,5	5,757
342	2,871
342,4	5,614
342,9	-0,814
343,3	1,014
343,8	0,7
344,2	-1,329
344,7	0,243
345,2	3,586
345,6	0,129
346,1	6,014
346,5	5,414
347	5,671
347,5	6,329
347,9	7,986
348,4	8,957
348,8	12,986
349,3	13,614
349,8	18,1
350,2	22,929
350,7	17,814
351,1	15,957
351,6	17,814
352	20,157
352,5	20,071
353	25,814
353,4	29,3
353,9	47,071
354,3	59,3
354,8	70,471
355,3	90,529
355,7	111,614
356,2	128,357
356,6	147,386
357,1	169,329
357,5	193,586
358	226,986
358,5	254,614
358,9	293,214
359,4	340,443
359,8	399,1
360,3	462,043
360,8	531,529
361,2	606,414
361,7	691,614
362,1	782,757
362,6	880,586
363	979,557
363,5	1086,157
364	1207,414
364,4	1322,586
364,9	1445,414
365,3	1563,186
365,8	1674,843
366,3	1781,014
366,7	1880,329
367,2	1959,471
367,6	2031,329
368,1	2081,7
368,5	2113,786
369	2132,243
369,5	2138,529
369,9	2122,1
370,4	2087,186
370,8	2040,586
371,3	1980,7
371,7	1910,986
372,2	1827,671
372,7	1739,071
373,1	1647,643
373,6	1552,814
374	1458,557
374,5	1364,243
374,9	1273,7
375,4	1186,471
375,9	1098,529
376,3	1011,786
376,8	935,186
377,2	860,5
377,7	787,757
378,2	721,386
378,6	657,329
379,1	601,929
379,5	553,957
380	514,214
380,4	470,186
380,9	432,043
381,4	398,443
381,8	375,271
382,3	352,729
382,7	325,957
383,2	301,014
383,6	280,043
384,1	264,529
384,6	249,757
385	231,014
385,5	211,729
385,9	195,671
386,4	179,186
386,8	168,557
387,3	153,071
387,7	139,671
388,2	130,129
388,7	118,071
389,1	112,7
389,6	107,357
390	101,271
390,5	98,9
390,9	95,271
391,4	93,671
391,9	87,5
392,3	84,586
392,8	76,014
393,2	67,043
393,7	61,157
394,1	56,271
394,6	47,386
395,1	50,786
395,5	46,757
396	49,386
396,4	51,957
396,9	48,129
397,3	49,129
397,8	51,271
398,2	47,414
398,7	49,071
399,2	44,986
399,6	43,7
400,1	44,843
400,5	38,157
401	36,757
401,4	32,729
401,9	32,186
402,4	35,757
402,8	32,786
403,3	35,7
403,7	37,757
404,2	39,9
404,6	45,557
405,1	42,871
405,5	36,9
406	38,929
406,5	35,471
406,9	40,7
407,4	36,386
407,8	34,557
408,3	37,329
408,7	40,843
409,2	45,9
409,6	48,557
410,1	49,329
410,6	59,214
411	59,557
411,5	62,557
411,9	66,7
412,4	66,786
412,8	71,929
413,3	70,814
413,7	67,814
414,2	70,357
414,7	73,9
415,1	78,157
415,6	83,814
416	82,643
416,5	83,357
416,9	82,786
417,4	88,5
417,8	93,214
418,3	96,957
418,8	98,414
419,2	103,757
419,7	107,386
420,1	110,5
420,6	108,471
421	102,843
421,5	100,014
421,9	95,614
422,4	94,671
422,8	92,043
423,3	92,043
423,8	91,014
424,2	93,557
424,7	90,5
425,1	91,471
425,6	89,586
426	88,214
426,5	88,186
426,9	92,7
427,4	86,786
427,9	80,5
428,3	76,614
428,8	71,414
429,2	71,071
429,7	69,157
430,1	61,929
430,6	63,271
431	70,443
431,5	75,157
431,9	71,957
432,4	71,186
432,8	72,014
433,3	73,957
433,8	74,129
434,2	70,271
434,7	69,757
435,1	77,129
435,6	81,414
436	81,871
436,5	83,871
436,9	80,957
437,4	83,929
437,8	80,986
438,3	80,357
438,8	79,357
439,2	77,414
439,7	78,443
440,1	82,757
440,6	83,186
441	81,157
441,5	88,471
441,9	88,843
442,4	88,1
442,8	89,157
443,3	93,414
443,7	97,929
444,2	106,329
444,7	103,557
445,1	107,186
445,6	111,157
446	115,3
446,5	111,129
446,9	107,929
447,4	106,986
447,8	106,929
448,3	110,9
448,7	117,157
449,2	116,929
449,6	129,214
450,1	133,043
450,6	138,986
451	144,986
451,5	149,643
451,9	154,643
452,4	163,557
452,8	161,7
453,3	169,586
453,7	173,871
454,2	179,3
454,6	179,757
455,1	184,1
455,5	185,186
456	199,186
456,4	202,243
456,9	209,443
457,3	213,614
457,8	216,729
458,3	221,786
458,7	227,157
459,2	225,214
459,6	228,7
460,1	233,586
460,5	240,3
461	254,329
461,4	259,357
461,9	267,7
462,3	274,957
462,8	287,071
463,2	294,671
463,7	303,414
464,1	314,643
464,6	325,786
465	336,471
465,5	349,986
466	357,986
466,4	368,414
466,9	379,5
467,3	381,414
467,8	391,443
468,2	397,671
468,7	400,843
469,1	412,986
469,6	421,614
470	428,814
470,5	441,271
470,9	447,471
471,4	456,986
471,8	469,729
472,3	480,471
472,7	487,071
473,2	493,786
473,6	502,9
474,1	516,071
474,5	530,357
475	539,386
475,4	544,7
475,9	555,557
476,4	571,271
476,8	579,329
477,3	585,357
477,7	593,929
478,2	602,1
478,6	610,414
479,1	618,129
479,5	623,329
480	632,157
480,4	641,386
480,9	647,586
481,3	655,014
481,8	662,214
482,2	665,9
482,7	671,614
483,1	680,1
483,6	687,471
484	694,214
484,5	704,243
484,9	713,186
485,4	728,9
485,8	736,214
486,3	740,557
486,7	752,614
487,2	757,871
487,6	761,929
488,1	763,3
488,5	758,843
489	770,557
489,4	780,157
489,9	777,157
490,4	783,1
490,8	789,9
491,3	804,414
491,7	813,757
492,2	814,586
492,6	820,9
493,1	827,7
493,5	830,671
494	830,243
494,4	834,643
494,9	843,843
495,3	850,671
495,8	850,071
496,2	856,586
496,7	853,557
497,1	865,271
497,6	864,986
498	865,986
498,5	868,471
498,9	873,9
499,4	880,329
499,8	896,157
500,3	902,786
500,7	905,214
501,2	907,186
501,6	905,757
502,1	907,757
502,5	910,843
503	913,014
503,4	905,929
503,9	908,329
504,3	916,529
504,8	924,557
505,2	926,243
505,7	924,814
506,1	930,671
506,6	937,186
507	943,329
507,5	946,357
507,9	945,929
508,4	950,071
508,8	952,957
509,3	949,043
509,7	955,9
510,2	957,471
510,6	953,1
511,1	955,871
511,5	964,186
512	966,986
512,4	972,957
512,9	974,243
513,3	978,729
513,8	985,386
514,2	995,529
514,7	994,757
515,1	996,414
515,6	994,671
516	992,043
516,5	991,9
516,9	996,814
517,4	994,614
517,8	999,1
518,3	1004,443
518,7	1013,614
519,2	1020,443
519,6	1026,157
520,1	1027,843
520,5	1028,414
521	1028,329
521,4	1032,3
521,9	1037,757
522,3	1044,386
522,8	1046,1
523,2	1047,871
523,7	1054,9
524,1	1065,414
524,6	1069,814
525	1072,071
525,5	1073,157
525,9	1082,843
526,4	1089,157
526,8	1095,3
527,3	1093,929
527,7	1100,214
528,2	1103,643
528,6	1103,786
529,1	1108,7
529,5	1117,357
530	1116,757
530,4	1122,329
530,9	1129,043
531,3	1134,071
531,8	1145,643
532,2	1147,786
532,6	1148,043
533,1	1158,786
533,5	1165,529
534	1165,186
534,4	1165,614
534,9	1170,643
535,3	1170,357
535,8	1176,271
536,2	1179,757
536,7	1187,586
537,1	1196,043
537,6	1201,329
538	1209,329
538,5	1220,471
538,9	1220,814
539,4	1230,1
539,8	1230,786
540,3	1232,1
540,7	1242,871
541,2	1239,643
541,6	1245,014
542,1	1255,557
542,5	1256,1
543	1259,786
543,4	1265,529
543,9	1275,9
544,3	1290,5
544,8	1294,443
545,2	1299,214
545,7	1301,671
546,1	1312,643
546,5	1319,643
547	1318,957
547,4	1317,557
547,9	1321,071
548,3	1327,471
548,8	1333,243
549,2	1329,757
549,7	1334,186
550,1	1338,271
550,6	1342,986
551	1350,243
551,5	1353,729
551,9	1358,071
552,4	1367,871
552,8	1369,957
553,3	1371,443
553,7	1372,843
554,2	1376,3
554,6	1380,986
555,1	1389,157
555,5	1387,357
555,9	1394,557
556,4	1399,071
556,8	1402,214
557,3	1404,386
557,7	1407,7
558,2	1411,386
558,6	1422,586
559,1	1422,557
559,5	1423,929
560	1430,586
560,4	1434,614
560,9	1434,929
561,3	1433,186
561,8	1435,529
562,2	1441,1
562,7	1443,414
563,1	1446,329
563,6	1447,443
564	1453,414
564,4	1454,729
564,9	1458,043
565,3	1459,843
565,8	1466,814
566,2	1471,643
566,7	1480,9
567,1	1487,271
567,6	1496,814
568	1492,614
568,5	1496,129
568,9	1494,386
569,4	1494,443
569,8	1490,557
570,3	1486,386
570,7	1482,814
571,1	1488,957
571,6	1493,671
572	1499,043
572,5	1496,386
572,9	1497,786
573,4	1500,471
573,8	1506,957
574,3	1506,014
574,7	1496,471
575,2	1492,243
575,6	1494,386
576,1	1492,614
576,5	1495,843
576,9	1491,357
577,4	1488,1
577,8	1492,471
578,3	1490,271
578,7	1488,729
579,2	1493,871
579,6	1488,329
580,1	1489,3
580,5	1491,671
581	1495,529
581,4	1499,243
581,9	1500,071
582,3	1494,843
582,7	1495,529
583,2	1493,3
583,6	1490,957
584,1	1489,557
584,5	1483,214
585	1483,614
585,4	1480,7
585,9	1479,443
586,3	1479,043
586,8	1478,243
587,2	1471,614
587,6	1477,529
588,1	1477,643
588,5	1473,843
589	1473,1
589,4	1467,071
589,9	1463,929
590,3	1462,9
590,8	1457,071
591,2	1455,786
591,7	1461,386
592,1	1455,586
592,5	1460,5
593	1459,871
593,4	1457,157
593,9	1456,5
594,3	1454,043
594,8	1446,043
595,2	1447,386
595,7	1440,186
596,1	1431,5
596,6	1428,557
597	1427,329
597,4	1421,186
597,9	1423,843
598,3	1426,671
598,8	1419,757
599,2	1423,986
599,7	1422,1
600,1	1416,157
600,6	1413,529
601	1409,986
601,4	1404,929
601,9	1413,814
602,3	1410,329
602,8	1406,214
603,2	1400,557
603,7	1397,5
604,1	1387,129
604,6	1380,3
605	1366,3
605,4	1365,414
605,9	1363,786
606,3	1359,329
606,8	1355,929
607,2	1352,214
607,7	1341,043
608,1	1344,443
608,6	1341,271
609	1339,071
609,4	1342,786
609,9	1335,357
610,3	1330,7
610,8	1335,357
611,2	1323,614
611,7	1316,443
612,1	1305,614
612,6	1298,214
613	1298,043
613,4	1300,186
613,9	1288,586
614,3	1289,471
614,8	1289,7
615,2	1285,3
615,7	1282,7
616,1	1278,729
616,6	1270,186
617	1265,986
617,4	1258,214
617,9	1250,757
618,3	1252,871
618,8	1249,7
619,2	1244,129
619,7	1245,243
620,1	1240,243
620,5	1237,786
621	1229,243
621,4	1222,243
621,9	1214,129
622,3	1208,443
622,8	1194,729
623,2	1193,329
623,6	1187,671
624,1	1181,129
624,5	1177,186
625	1172,443
625,4	1163,671
625,9	1163,386
626,3	1158,557
626,8	1151,014
627,2	1152,729
627,6	1135,529
628,1	1124,671
628,5	1124,843
629	1116,3
629,4	1107,957
629,9	1104,814
630,3	1088,786
630,7	1089,643
631,2	1088,071
631,6	1080,557
632,1	1079,129
632,5	1076,586
633	1072,529
633,4	1079,1
633,8	1075,3
634,3	1072,157
634,7	1067,929
635,2	1056,3
635,6	1047,871
636,1	1040,557
636,5	1026,7
636,9	1021,5
637,4	1013,5
637,8	1003,814
638,3	997,386
638,7	989,1
639,2	982,357
639,6	980,386
640	972,357
640,5	969,5
640,9	962,614
641,4	963,357
641,8	964,357
642,2	958,786
642,7	957,843
643,1	960,471
643,6	952,1
644	954,271
644,5	947,014
644,9	943,014
645,3	939,9
645,8	930,014
646,2	921,986
646,7	921,471
647,1	912,929
647,6	912,129
648	908,071
648,4	903,243
648,9	897,729
649,3	889,1
649,8	882,386
650,2	882,443
650,6	877,786
651,1	874,814
651,5	870,471
652	866,843
652,4	865,043
652,9	862,529
653,3	858,243
653,7	849,729
654,2	842,3
654,6	836,357
655,1	832,814
655,5	832,614
655,9	826,014
656,4	820,957
656,8	815,3
657,3	813,871
657,7	815,3
658,2	809,357
658,6	799,357
659	796,3
659,5	786,414
659,9	782,557
660,4	772,529
660,8	759,443
661,2	757,186
661,7	754,9
662,1	752,386
662,6	749,471
663	745,729
663,4	743,243
663,9	740,243
664,3	732,443
664,8	728,129
665,2	718,586
665,6	713,357
666,1	708,986
666,5	704,7
667	702,214
667,4	699,1
667,9	694,186
668,3	690,643
668,7	688,071
669,2	689,843
669,6	682,386
670,1	676,986
670,5	671,586
670,9	665,186
671,4	660,614
671,8	654,557
672,3	649,3
672,7	649,271
673,1	639,157
673,6	633,929
674	633,529
674,5	632,5
674,9	625,471
675,3	618,271
675,8	609,871
676,2	610,271
676,7	604,757
677,1	599,014
677,5	592,071
678	592,9
678,4	590,414
678,9	589,7
679,3	590,043
679,7	592,957
680,2	584,586
680,6	578,814
681,1	575,071
681,5	570,9
681,9	568,757
682,4	564,271
682,8	561,1
683,3	561,614
683,7	563,7
684,1	559,329
684,6	555,071
685	544,957
685,5	543,5
685,9	534,957
686,3	531,357
686,8	527,243
687,2	519,957
687,7	515,414
688,1	512,214
688,5	506,214
689	503,929
689,4	502,1
689,9	496,214
690,3	492,271
690,7	491,271
691,2	493,014
691,6	490,357
692	489,414
692,5	482,929
692,9	480,157
693,4	478,071
693,8	475,529
694,2	470,271
694,7	465,471
695,1	457,643
695,6	455,386
696	455,357
696,4	454,871
696,9	450,386
697,3	446,986
697,8	447,271
698,2	441,471
698,6	441,757
699,1	436,443
699,5	438,3
699,9	430,614
700,4	427,129
700,8	423,014
701,3	423,757
701,7	417,957
702,1	413,757
702,6	406,014
703	407,329
703,5	407,671
703,9	401,329
704,3	400,014
704,8	396,643
705,2	396,329
705,6	392,729
706,1	390,843
706,5	384,071
707	385,729
707,4	384,757
707,8	377,671
708,3	373,643
708,7	374,643
709,2	369,957
709,6	371,329
710	368,614
710,5	367,186
710,9	372,557
711,3	370,129
711,8	363,957
712,2	364,186
712,7	359,186
713,1	360,3
713,5	358,014
714	354,414
714,4	350,7
714,8	352,129
715,3	348,071
715,7	347,243
716,2	336,586
716,6	331,643
717	324,443
717,5	323,357
717,9	319,414
718,3	318,529
718,8	316,071
719,2	315,214
719,7	313,243
720,1	315,9
720,5	315,1
721	309,871
721,4	307,529
721,8	312,357
722,3	309,043
722,7	312,043
723,2	306,414
723,6	296,957
724	295,957
724,5	292,843
724,9	283,729
725,3	283,9
725,8	274,071
726,2	273,443
726,7	277,014
727,1	275,357
727,5	272,9
728	268,214
728,4	266,071
728,8	266,357
729,3	262,3
729,7	263,329
730,1	264,843
730,6	265,386
731	266,643
731,5	266,357
731,9	261,443
732,3	264,586
732,8	258,471
733,2	254,243
733,6	249,043
734,1	249,414
734,5	249,986
734,9	253,129
735,4	250,414
735,8	248,357
736,3	250,5
736,7	249,157
737,1	247,586
737,6	241,7
738	238,186
738,4	239,357
738,9	240,3
739,3	237,986
739,7	237,871
740,2	235,014
740,6	238,529
741,1	239,186
741,5	235,157
741,9	233,957
742,4	232,843
742,8	230,271
743,2	230,414
743,7	222,386
744,1	216,557
744,5	212,814
745	207,443
745,4	200,729
745,8	201,643
746,3	199,557
746,7	201,557
747,2	201,757
747,6	203,043
748	210,1
748,5	213,814
748,9	208,671
749,3	202,529
749,8	202,643
750,2	203,414
750,6	200,443
751,1	194,957
751,5	190,643
751,9	193,557
752,4	198,671
752,8	196,643
753,3	196,271
753,7	200,3
754,1	196,586
754,6	196,9
755	193,843
755,4	188,786
755,9	187,157
756,3	184,357
756,7	182,071
757,2	183,471
757,6	184,414
758	182,043
758,5	181,614
758,9	181,729
759,3	181,1
759,8	175,643
760,2	175,271
760,6	171,329
761,1	173,043
761,5	169,557
761,9	165,986
762,4	161,871
762,8	163,671
763,3	159,786
763,7	159,071
764,1	159,243
764,6	163,157
765	166,443
765,4	170,043
765,9	170,614
766,3	174,729
766,7	172,814
767,2	169,5
767,6	167,529
768	163,757
768,5	161,386
768,9	157,786
769,3	153,729
769,8	151,929
770,2	153,7
770,6	150,729
771,1	154,071
771,5	152,386
771,9	152,271
772,4	146,557
772,8	149,186
773,2	145,871
773,7	148,643
774,1	144,3
774,5	142,843
775	140,3
775,4	144,986
775,8	139,757
776,3	142,157
776,7	136,557
777,1	132,586
777,6	133,671
778	138,043
778,4	136,157
778,9	138,1
779,3	134,814
779,7	134,1
780,2	137,586
780,6	135,329
781	130,386
781,5	126,443
781,9	126,071
782,3	122,471
782,8	127,386
783,2	122,671
783,6	125,157
784,1	125,386
784,5	126,614
784,9	125,614
785,4	128,843
785,8	124,957
786,2	125,729
786,7	122,643
787,1	121,871
787,5	124,757
788	117,3
788,4	117,757
788,8	112,986
789,3	112,471
789,7	111,129
790,1	111,786
790,6	106,843
791	110,614
791,4	109,129
791,9	106,786
792,3	102,014
792,7	101,5
793,2	97,043
793,6	99,786
794	104,3
794,5	101,986
794,9	106,814
795,3	113,671
795,8	112,071
796,2	110,329
796,6	111,043
797,1	105,329
797,5	100,443
797,9	97,329
798,4	91,271
798,8	90,843
799,2	89,014
799,7	85,443
800,1	85,871
800,5	90,529
801	91,386
801,4	90,1
801,8	86,214
802,2	89,329
802,7	88,357
803,1	88,9
803,5	89,986
804	85,271
804,4	86,729
804,8	89,243
805,3	86,557
805,7	83,614
806,1	80,357
806,6	77,471
807	79,186
807,4	76,3
807,9	72,471
808,3	75,557
808,7	80,043
809,2	83,243
809,6	84,043
810	85,157
810,4	88,357
810,9	93,643
811,3	92,157
811,7	85,357
812,2	88,814
812,6	85,643
813	87,471
813,5	87,586
813,9	84,414
814,3	81,214
814,8	83,843
815,2	74,529
815,6	73,357
816,1	74,214
816,5	67,043
816,9	71,3
817,3	73,643
817,8	75,843
818,2	82,671
818,6	79,614
819,1	75,7
819,5	78,271
819,9	77,529
820,4	75,929
820,8	70,643
821,2	64,043
821,7	64,786
822,1	67,614
822,5	74,9
822,9	71,471
823,4	71,271
823,8	76,043
824,2	78,471
824,7	77,614
825,1	72,529
825,5	63,014
826	60,5
826,4	60,186
826,8	58,3
827,3	58,1
827,7	57,786
828,1	55,471
828,5	51,957
829	53,129
829,4	51,929
829,8	43,871
830,3	44,414
830,7	43,757
831,1	48,957
831,6	58,986
832	61,243
832,4	58,814
832,8	66,043
833,3	64,557
833,7	63,471
834,1	61,557
834,6	52,986
835	50,243
835,4	51,3
835,8	48,1
836,3	42,871
836,7	45,871
837,1	44,757
837,6	50,1
838	46,7
838,4	47,5
838,9	46,614
839,3	48,271
839,7	49,329
840,1	47,157
840,6	46,529
841	49,671
841,4	48,9
841,9	51,786
842,3	51,929
842,7	50,471
843,1	48,386
843,6	49,329
844	49,271
844,4	53,414
844,9	54,986
845,3	54,7
845,7	54,929
846,2	53,671
846,6	46,443
847	46,9
847,4	44,129
847,9	41,129
848,3	39,271
848,7	34,843
849,2	38,1
849,6	38,414
850	41,929
850,4	42,9
850,9	39,871
851,3	44,671
851,7	50,614
852,2	47,986
852,6	50,986
853	46,386
853,4	44,3
853,9	43,329
854,3	39,529
854,7	32,471
855,2	33,471
855,6	33,129
856	30,786
856,4	27,729
856,9	28,129
857,3	31,871
857,7	37,157
858,2	44,1
858,6	44,871
859	45,757
859,4	43,043
859,9	44,357
860,3	40,9
860,7	39,614
861,1	33,643
861,6	32,414
862	30,929
862,4	35,757
862,9	35,1
863,3	32,929
863,7	29,643
864,1	30,843
864,6	26,5
865	22,671
865,4	20,843
865,9	25,186
866,3	21,786
866,7	23,414
867,1	20,871
867,6	25,157
868	27,786
868,4	28,471
868,8	26,471
869,3	28,5
869,7	32,643
870,1	27,986
870,6	24,357
871	30,3
871,4	31,957
871,8	28,043
872,3	30,243
872,7	25,129
873,1	28,214
873,5	30,757
874	24,929
874,4	28,3
874,8	28,614
875,3	30,643
875,7	31,7
876,1	36,814
876,5	35,871
877	36,586
877,4	27,529
877,8	29,586
878,2	32,586
878,7	33,271
879,1	32,643
879,5	36,7
879,9	38,414
880,4	42,271
880,8	41,3
881,2	36,129
881,7	33,614
882,1	27,986
882,5	25,129
882,9	23,186
883,4	21,243
883,8	19,957
884,2	18,471
884,6	18,786
885,1	25,9
885,5	28,557
885,9	24,443
886,3	27,186
886,8	27,414
887,2	27,929
887,6	26,071
888	20,071
888,5	17,014
888,9	17,643
889,3	11,986
889,8	14,157
890,2	14,1
890,6	12,7
891	14,243
891,5	11,843
891,9	16,529
892,3	18,329
892,7	16,471
893,2	18,414
893,6	20,329
894	21,957
894,4	23,129
894,9	21,271
895,3	23,129
895,7	22,529
896,1	22,557
896,6	24,529
897	24,643
897,4	29,329
897,8	30,529
898,3	30,271
898,7	28,5
899,1	24,186
899,5	24,5
900	16,614
900,4	13,843
900,8	6,729
901,2	0,357
901,7	1,1
902,1	3,443
902,5	3,014
902,9	7,5
903,4	9,7
903,8	17,157
904,2	20,414
904,6	22,471
905,1	24,671
905,5	25,071
905,9	30,557
906,3	28,729
906,8	27,414
907,2	29,214
907,6	31,557
908	29,843
908,5	26,986
908,9	17,329
909,3	13,414
909,7	11,557
910,2	12,329
910,6	11,871
911	10,843
911,4	11,243
911,9	12,271
912,3	14,443
912,7	20,671
913,1	21,814
913,6	17,757
914	18,7
914,4	17,186
914,8	23,471
915,3	20,9
915,7	15,814
916,1	13,729
916,5	17,929
916,9	17,414
917,4	20,729
917,8	20,614
918,2	20,786
918,6	19,5
919,1	18,671
919,5	17,986
919,9	18,529
920,3	17,271
920,8	14,443
921,2	14,586
921,6	16,243
922	14,7
922,5	11,414
922,9	8,9
923,3	7,071
923,7	9,329
924,2	8,786
924,6	8,586
925	9,557
925,4	8,329
925,8	5,386
926,3	5,643
926,7	1,271
927,1	1,929
927,5	2,3
928	4,5
928,4	3,243
928,8	11,557
929,2	9,043
929,7	12,3
930,1	11,529
930,5	9,014
930,9	10,443
931,3	12,729
931,8	8,843
932,2	13,643
932,6	10,671
933	5,729
933,5	8,157
933,9	8,786
934,3	9,586
934,7	6,414
935,2	3,786
935,6	0,271
936	6,157
936,4	7,643
936,8	9,443
937,3	9,243
937,7	15,643
938,1	21,443
938,5	24,557
939	27,757
939,4	28,614
939,8	24,1
940,2	24,614
940,6	19,729
941,1	15,5
941,5	20,386
941,9	15,786
942,3	13,671
942,8	14,414
943,2	15,357
943,6	15,986
944	13,729
944,4	11,757
944,9	11,7
945,3	10,357
945,7	6,843
946,1	0,386
946,6	1,014
947	1,586
947,4	3,986
947,8	4,243
948,2	2,014
948,7	4,786
949,1	10,757
949,5	14,557
949,9	18,157
950,3	14,1
950,8	12,014
951,2	7,757
951,6	2,214
952	4,529
952,5	-0,557
952,9	-1,814
953,3	-1,014
953,7	2,929
954,1	8,043
954,6	10,814
955	8,529
955,4	6,414
955,8	12,586
956,2	11,3
956,7	11,643
957,1	9,729
957,5	15,986
957,9	16,986
958,3	19,814
958,8	14,3
959,2	17,014
959,6	17,329
960	19,729
960,5	18,357
960,9	18,414
961,3	16,243
961,7	12,443
962,1	11,671
962,6	10,9
963	6,557
963,4	1,557
963,8	4,671
964,2	5,157
964,7	5,671
965,1	8,214
965,5	8,157
965,9	16,3
966,3	20,814
966,8	15,729
967,2	15,786
967,6	19,357
968	12,1
968,4	12,186
968,9	7,3
969,3	10,214
969,7	8,729
970,1	13,1
970,5	7,329
971	13,214
971,4	13,071
971,8	15,729
972,2	12,843
972,6	13,014
973,1	9,529
973,5	16,814
973,9	14,1
974,3	13,929
974,7	15,729
975,2	18,357
975,6	14,929
976	16,643
976,4	10,929
976,8	14,5
977,3	10,557
977,7	6,471
978,1	-1,929
978,5	1,186
978,9	0,843
979,4	-1,671
979,8	-5,986
980,2	2,843
980,6	3,186
981	4,186
981,5	2,129
981,9	1,157
982,3	1,986
982,7	5,357
983,1	-0,214
983,6	1,357
984	5,329
984,4	7,186
984,8	5,643
985,2	9,157
985,6	5,1
986,1	4,986
986,5	4,243
986,9	-2,071
987,3	0,5
987,7	2,7
988,2	1,129
988,6	3,843
989	3,986
989,4	4,986
989,8	11,986
990,3	12,529
990,7	11,557
991,1	13,757
991,5	15,586
991,9	15,786
992,3	12,1
992,8	10,014
993,2	6,157
993,6	9,243
994	9,9
994,4	9,7
994,9	8,757
995,3	11,129
995,7	10,729
996,1	13,786
996,5	9,414
996,9	10,129
997,4	11,243
997,8	9,614
998,2	9,386
998,6	11,843
999	9,5
999,5	11,329
999,9	7,786
1000,3	3,329
1000,7	5,643
1001,1	6,386
1001,5	5,3
1002	10,843
1002,4	14,014
1002,8	14,671
1003,2	19,329
1003,6	22,329
1004	25,271
1004,5	23,729
1004,9	21,614
1005,3	15,186
1005,7	20,443
1006,1	13,843
1006,6	11,1
1007	9,129
1007,4	8,271
1007,8	8,814
1008,2	7,786
1008,6	4,157
1009,1	4,614
1009,5	6,014
1009,9	4,986
1010,3	8,1
1010,7	5,671
1011,1	5,871
1011,6	6,957
1012	11,471
1012,4	5,214
1012,8	6,014
1013,2	9,271
1013,6	11,043
1014,1	16,671
1014,5	13,557
1014,9	13,414
1015,3	17,271
1015,7	20,129
1016,1	17,443
1016,6	15,843
1017	16,671
1017,4	18,1
1017,8	16,243
1018,2	20,043
1018,6	14,357
1019,1	9,129
1019,5	5,9
1019,9	-0,729
1020,3	0,443
1020,7	0,357
1021,1	-7,414
1021,6	-7,9
1022	-3,671
1022,4	-0,7
1022,8	4,957
1023,2	3,157
1023,6	6,843
1024,1	14,957
1024,5	19,843
1024,9	17,529
1025,3	19,786
1025,7	20,929
1026,1	22,843
1026,6	22,3
1027	19,043
1027,4	18,471
1027,8	17,871
1028,2	16,5
1028,6	16,843
1029	15,443
1029,5	15,986
1029,9	14,986
1030,3	12,414
1030,7	15,871
1031,1	16,329
1031,5	12,043
1032	13,186
1032,4	5,957
1032,8	8,9
1033,2	12,043
1033,6	12,014
1034	12,3
1034,4	14,443
1034,9	15,014
1035,3	17,614
1035,7	18,9
1036,1	14,271
1036,5	5,386
1036,9	4,471
1037,4	6,186
1037,8	0,529
1038,2	2,843
1038,6	5,586
1039	12,671
1039,4	23,271
1039,8	18,843
1040,3	16,214
1040,7	20,729
1041,1	18,843
1041,5	14,614
1041,9	3,929
1042,3	0,414
1042,7	3,1
1043,2	0,786
1043,6	-0,1
1044	3,071
1044,4	-1,014
1044,8	6,5
1045,2	4,3
1045,6	7,157
1046,1	12,986
1046,5	13,243
1046,9	11,329
1047,3	12,214
1047,7	10,329
1048,1	10,1
1048,5	10,557
1049	8,529
1049,4	12,671
1049,8	8,5
1050,2	12,071
1050,6	14,586
1051	16,586
1051,4	13,157
1051,9	11,471
1052,3	11,1
1052,7	14,243
1053,1	10,5
1053,5	6,643
1053,9	10,414
1054,3	6,529
1054,8	12,014
1055,2	9,786
1055,6	10,7
1056	9,386
1056,4	13,814
1056,8	9,786
1057,2	14,529
1057,6	11,529
1058,1	8,043
1058,5	6,986
1058,9	13,186
1059,3	10,786
1059,7	12,9
1060,1	13,014
1060,5	12,929
1061	15,3
1061,4	16,871
1061,8	15,157
1062,2	10,871
1062,6	8,986
1063	11,357
1063,4	9,5
1063,8	7,757
1064,3	4,471
1064,7	4,386
1065,1	9,129
1065,5	8,129
1065,9	2,414
1066,3	2,357
1066,7	-0,043
1067,1	2,843
1067,6	7,157
1068	4,929
1068,4	5,529
1068,8	9,3
1069,2	11,643
1069,6	12,786
1070	16,729
1070,4	10,471
1070,9	8,157
1071,3	11,414
1071,7	10,586
1072,1	11,529
1072,5	12,014
1072,9	9,014
1073,3	13,414
1073,7	14,786
1074,2	13,7
1074,6	17,214
1075	11,414
1075,4	11,5
1075,8	12,471
1076,2	8,871
1076,6	10,814
1077	8,014
1077,5	11,014
1077,9	9,329
1078,3	10,843
1078,7	8,729
1079,1	7,386
1079,5	7,843
1079,9	8,871
1080,3	3,443
1080,7	7,814
1081,2	10,614
1081,6	9,386
1082	7,586
1082,4	7,5
1082,8	12,357
1083,2	13,443
1083,6	13,1
1084	7,214
1084,5	8,557
1084,9	9,214
1085,3	5,814
1085,7	2,814
1086,1	0,414
1086,5	5,9
1086,9	9,243
1087,3	7,129
1087,7	8,7
1088,2	10,729
1088,6	9,614
1089	12,357
1089,4	5,871
1089,8	5,957
1090,2	5,014
1090,6	5,329
1091	7,471
1091,4	11,129
1091,9	9,957
1092,3	10,5
1092,7	8,043
1093,1	11,557
1093,5	12,443
1093,9	12,186
1094,3	11,871
1094,7	10,557
1095,1	12,529
1095,5	15,014
1096	12,214
1096,4	11,929
1096,8	10,729
1097,2	6,586
1097,6	7,843
1098	6,214
1098,4	4,243
1098,8	5,814
1099,2	11,671
1099,6	11,414
1100,1	9,443
1100,5	6,1
1100,9	6,014
1101,3	8,729
1101,7	6,586
1102,1	0,814
1102,5	1,329
1102,9	4,186
1103,3	10,443
1103,7	11,329
1104,2	12,471
1104,6	12,5
1105	9,5
1105,4	8,3
1105,8	6,443
1106,2	1,614
1106,6	-0,386
1107	-2,929
1107,4	-2,233
1107,8	-0,06
1108,3	-0,25
