Data from Subt2_275.txt Node
Date: Sat Aug 26 19:04:43 MSK 2023
User: vat
Spectrometer: MAYP114033
Trigger mode: 0
Integration Time (sec): 1,000000E0
Scans to average: 5
Electric dark correction enabled: true
Nonlinearity correction enabled: false
Boxcar width: 3
XAxis mode: Wavelengths
Number of Pixels in Spectrum: 2068
>>>>>Begin Spectral Data<<<<<
199,4	-0,267
199,9	-0,587
200,4	0,333
200,8	2,705
201,3	2,79
201,8	6,59
202,2	5,676
202,7	10,019
203,2	9,19
203,6	8,105
204,1	3,076
204,6	1,448
205	1,105
205,5	0,39
206	-5,038
206,4	-1,924
206,9	-2,438
207,4	0,619
207,8	2,305
208,3	-2,095
208,8	0,676
209,2	4,248
209,7	0,705
210,2	4,39
210,6	4,933
211,1	7,362
211,5	7,676
212	8,076
212,5	5,305
212,9	3,762
213,4	2,99
213,9	0,39
214,3	-2,467
214,8	-0,752
215,3	-3,581
215,7	-1,21
216,2	6,705
216,7	6,19
217,1	3,876
217,6	5,933
218,1	4,848
218,5	4,276
219	-1,638
219,5	-2,695
219,9	-1,895
220,4	11,39
220,9	10,905
221,3	13,448
221,8	15,676
222,3	20,876
222,7	19,562
223,2	16,276
223,6	5,19
224,1	1,562
224,6	2,162
225	0,219
225,5	-3,895
226	-4,41
226,4	-2,895
226,9	-0,295
227,4	1,733
227,8	-6,524
228,3	-5,638
228,8	-1,352
229,2	4,19
229,7	4,933
230,2	5,79
230,6	10,476
231,1	20,076
231,5	22,19
232	21,19
232,5	15,99
232,9	17,248
233,4	18,333
233,9	17,162
234,3	10,533
234,8	5,819
235,3	5,676
235,7	9,962
236,2	6,076
236,7	4,562
237,1	3,076
237,6	6,733
238,1	7,848
238,5	5,019
239	3,276
239,4	7,676
239,9	1,933
240,4	-0,21
240,8	1,819
241,3	1,505
241,8	3,105
242,2	-0,781
242,7	-7,438
243,2	1,619
243,6	2,876
244,1	3,59
244,6	9,448
245	8,619
245,5	8,476
245,9	8,705
246,4	4,705
246,9	6,676
247,3	6,648
247,8	4,162
248,3	7,848
248,7	9,105
249,2	16,59
249,7	18,848
250,1	18,133
250,6	13,848
251	14,419
251,5	10,905
252	9,848
252,4	8,019
252,9	6,276
253,4	4,562
253,8	5,962
254,3	7,39
254,8	9,705
255,2	2,79
255,7	-1,495
256,1	-0,895
256,6	0,333
257,1	2,705
257,5	-2,467
258	-4,638
258,5	1,848
258,9	0,59
259,4	-2,524
259,9	-2,61
260,3	-9,581
260,8	-10,324
261,2	-8,381
261,7	-8,495
262,2	-6,01
262,6	-3,152
263,1	-1,095
263,6	6,162
264	11,705
264,5	18,79
264,9	18,848
265,4	21,448
265,9	19,448
266,3	20,448
266,8	21,019
267,3	17,79
267,7	12,048
268,2	10,362
268,7	10,619
269,1	11,99
269,6	7,848
270	11,705
270,5	7,562
271	6,819
271,4	8,533
271,9	4,305
272,4	7,476
272,8	6,79
273,3	-0,152
273,7	6,19
274,2	5,39
274,7	4,962
275,1	4,648
275,6	1,619
276,1	0,362
276,5	0,419
277	0,762
277,4	0,99
277,9	2,476
278,4	8,276
278,8	8,476
279,3	12,362
279,8	15,705
280,2	17,705
280,7	20,019
281,1	14,333
281,6	10,59
282,1	12,562
282,5	12,19
283	9,105
283,4	5,648
283,9	3,648
284,4	11,733
284,8	14,79
285,3	11,705
285,8	13,362
286,2	11,562
286,7	10,419
287,1	9,39
287,6	6,705
288,1	3,248
288,5	6,905
289	4,533
289,5	7,533
289,9	8,962
290,4	11,305
290,8	12,476
291,3	15,048
291,8	12,448
292,2	11,419
292,7	14,505
293,1	11,876
293,6	14,79
294,1	12,762
294,5	14,733
295	12,962
295,5	11,962
295,9	7,933
296,4	5,505
296,8	1,048
297,3	2,59
297,8	-4,124
298,2	-7,067
298,7	-4,352
299,1	-5,81
299,6	-3,61
300,1	-2,124
300,5	-2,124
301	0,362
301,5	9,79
301,9	8,39
302,4	6,59
302,8	8,276
303,3	7,362
303,8	2,79
304,2	2,819
304,7	-2,81
305,1	-9,124
305,6	-8,552
306,1	-3,238
306,5	-2,924
307	2,076
307,4	7,39
307,9	7,19
308,4	12,133
308,8	8,505
309,3	6,39
309,8	6,619
310,2	6,505
310,7	-1,352
311,1	-0,581
311,6	2,79
312,1	10,162
312,5	9,448
313	13,676
313,4	12,333
313,9	14,648
314,4	13,219
314,8	9,019
315,3	6,39
315,7	2,933
316,2	-2,038
316,7	-1,838
317,1	1,448
317,6	3,676
318	10,133
318,5	9,933
319	12,619
319,4	13,476
319,9	18,848
320,3	17,448
320,8	16,105
321,3	16,019
321,7	19,048
322,2	18,676
322,6	18,276
323,1	10,39
323,6	13,705
324	11,362
324,5	8,076
324,9	7,162
325,4	7,333
325,9	7,733
326,3	11,448
326,8	9,276
327,2	5,39
327,7	3,59
328,2	4,619
328,6	6,105
329,1	1,19
329,5	0,705
330	-1,867
330,5	6,79
330,9	8,219
331,4	6,533
331,8	5,762
332,3	11,448
332,8	14,762
333,2	12,933
333,7	11,848
334,1	15,848
334,6	18,305
335,1	14,676
335,5	13,648
336	8,219
336,4	8,99
336,9	13,676
337,4	13,419
337,8	9,39
338,3	9,79
338,7	10,19
339,2	8,99
339,7	14,619
340,1	9,562
340,6	5,248
341	5,105
341,5	8,448
342	7,905
342,4	13,219
342,9	6,962
343,3	4,733
343,8	2,705
344,2	2,448
344,7	3,648
345,2	-1,038
345,6	-3,552
346,1	0,905
346,5	1,419
347	0,162
347,5	-3,981
347,9	-2,095
348,4	2,562
348,8	3,59
349,3	2,448
349,8	6,419
350,2	12,19
350,7	15,333
351,1	11,733
351,6	14,933
352	15,848
352,5	17,848
353	25,162
353,4	31,362
353,9	43,619
354,3	53,476
354,8	59,133
355,3	75,276
355,7	87,39
356,2	95,333
356,6	106,162
357,1	121,933
357,5	142,876
358	171,305
358,5	192,419
358,9	221,619
359,4	260,562
359,8	299,905
360,3	345,076
360,8	386,133
361,2	437,105
361,7	495,876
362,1	567,762
362,6	634,448
363	710,648
363,5	787,248
364	882,933
364,4	969,59
364,9	1056,59
365,3	1139,733
365,8	1218,648
366,3	1299,305
366,7	1370,648
367,2	1431,333
367,6	1479,505
368,1	1524,533
368,5	1550,076
369	1569,676
369,5	1566,733
369,9	1562,619
370,4	1533,562
370,8	1502,619
371,3	1451,133
371,7	1396,419
372,2	1338,276
372,7	1277,99
373,1	1208,333
373,6	1137,819
374	1069,162
374,5	1004,676
374,9	941,219
375,4	872,305
375,9	808,762
376,3	742,79
376,8	687,419
377,2	632,39
377,7	578,305
378,2	527,448
378,6	489,105
379,1	444,419
379,5	406,219
380	374,79
380,4	341,305
380,9	310,848
381,4	286,162
381,8	259,505
382,3	247,333
382,7	235,19
383,2	218,962
383,6	206,133
384,1	199,076
384,6	187,533
385	171,848
385,5	153,133
385,9	137,333
386,4	125,476
386,8	117,476
387,3	104,933
387,7	99,019
388,2	96,476
388,7	94,162
389,1	93,276
389,6	88,676
390	82,362
390,5	83,248
390,9	80,99
391,4	78,048
391,9	74,933
392,3	69,905
392,8	64,848
393,2	55,505
393,7	45,876
394,1	40,762
394,6	37,362
395,1	38,133
395,5	35,933
396	36,39
396,4	40,762
396,9	41,905
397,3	42,276
397,8	42,933
398,2	39,819
398,7	42,248
399,2	39,819
399,6	40,619
400,1	39,933
400,5	32,248
401	34,39
401,4	31,219
401,9	32,505
402,4	37,476
402,8	34,933
403,3	36,133
403,7	42,705
404,2	39,248
404,6	41,819
405,1	37,419
405,5	30,39
406	30,533
406,5	27,933
406,9	25,79
407,4	22,876
407,8	23,19
408,3	21,99
408,7	26,076
409,2	30,448
409,6	34,705
410,1	35,362
410,6	38,448
411	42,448
411,5	44,619
411,9	45,762
412,4	43,876
412,8	47,162
413,3	49,676
413,7	48,19
414,2	44,105
414,7	50,562
415,1	56,39
415,6	59,19
416	58,962
416,5	63,219
416,9	64,933
417,4	68,076
417,8	76,105
418,3	74,476
418,8	79,59
419,2	80,876
419,7	79,076
420,1	83,79
420,6	85,962
421	78,248
421,5	79,676
421,9	81,676
422,4	83,448
422,8	82,333
423,3	81,505
423,8	80,19
424,2	74,305
424,7	74,99
425,1	72,448
425,6	67,905
426	69,248
426,5	71,562
426,9	74,762
427,4	75,676
427,9	66,733
428,3	66,819
428,8	69,705
429,2	68,248
429,7	68,705
430,1	65,048
430,6	65,819
431	68,962
431,5	67,162
431,9	62,705
432,4	61,619
432,8	57,333
433,3	54,762
433,8	53,505
434,2	55,705
434,7	56,59
435,1	63,19
435,6	66,933
436	69,705
436,5	73,076
436,9	69,419
437,4	68,619
437,8	70,733
438,3	67,562
438,8	68,305
439,2	70,533
439,7	74,419
440,1	82,705
440,6	92,648
441	88,248
441,5	90,162
441,9	90,133
442,4	87,162
442,8	88,076
443,3	91,705
443,7	91,476
444,2	101,276
444,7	105,133
445,1	109,99
445,6	115,99
446	122,59
446,5	122,133
446,9	119,79
447,4	119,219
447,8	128,19
448,3	132,99
448,7	134,99
449,2	141,648
449,6	152,99
450,1	157,505
450,6	170,933
451	173,39
451,5	177,79
451,9	191,848
452,4	198,019
452,8	200,419
453,3	210,762
453,7	210,076
454,2	221,133
454,6	235,105
455,1	239,933
455,5	238,276
456	246,705
456,4	253,819
456,9	263,076
457,3	267,162
457,8	265,39
458,3	277,19
458,7	287,448
459,2	292,905
459,6	299,676
460,1	307,505
460,5	314,676
461	333,133
461,4	334,848
461,9	343,019
462,3	354,733
462,8	362,905
463,2	371,305
463,7	380,848
464,1	389,762
464,6	405,905
465	424,276
465,5	438,905
466	456,248
466,4	468,276
466,9	485,962
467,3	495,848
467,8	507,733
468,2	517,248
468,7	528,048
469,1	541,476
469,6	557,305
470	566,019
470,5	575,819
470,9	586,133
471,4	594,562
471,8	603,648
472,3	611,419
472,7	621,505
473,2	632,419
473,6	644,705
474,1	657,105
474,5	673,705
475	690,562
475,4	705,619
475,9	717,933
476,4	729,048
476,8	746,248
477,3	756,133
477,7	768,333
478,2	781,219
478,6	789,448
479,1	803,99
479,5	818,476
480	824,476
480,4	837,333
480,9	844,133
481,3	856,162
481,8	868,819
482,2	872,962
482,7	883,505
483,1	899,133
483,6	906,276
484	915,762
484,5	921,248
484,9	930,362
485,4	944,848
485,8	952,562
486,3	958,362
486,7	966,79
487,2	980,076
487,6	984,562
488,1	989,448
488,5	993,419
489	1005,562
489,4	1015,99
489,9	1022,39
490,4	1027,99
490,8	1038,305
491,3	1051,59
491,7	1060,676
492,2	1067,39
492,6	1071,448
493,1	1085,476
493,5	1091,962
494	1098,448
494,4	1103,676
494,9	1107,276
495,3	1114,276
495,8	1116,19
496,2	1116,19
496,7	1119,733
497,1	1123,048
497,6	1129,362
498	1139,048
498,5	1144,362
498,9	1150,105
499,4	1156,562
499,8	1165,419
500,3	1177,733
500,7	1178,105
501,2	1178,19
501,6	1175,048
502,1	1181,562
502,5	1185,476
503	1188,133
503,4	1184,676
503,9	1187,676
504,3	1197,248
504,8	1201,962
505,2	1207,619
505,7	1212,705
506,1	1218,762
506,6	1222,162
507	1228,105
507,5	1228,762
507,9	1235,59
508,4	1238,105
508,8	1240,362
509,3	1239,419
509,7	1250,79
510,2	1250,562
510,6	1253,076
511,1	1252,076
511,5	1256,105
512	1258,59
512,4	1265,676
512,9	1261,048
513,3	1272,305
513,8	1271,305
514,2	1278,019
514,7	1283,333
515,1	1288,505
515,6	1289,305
516	1293,99
516,5	1294,648
516,9	1306,333
517,4	1313,048
517,8	1320,419
518,3	1326,133
518,7	1329,19
519,2	1336,448
519,6	1342,39
520,1	1349,333
520,5	1349,819
521	1342,219
521,4	1344,876
521,9	1349,648
522,3	1353,476
522,8	1355,762
523,2	1359,333
523,7	1364,705
524,1	1374,933
524,6	1373,962
525	1381,762
525,5	1383,962
525,9	1389,59
526,4	1387,705
526,8	1395,362
527,3	1401,305
527,7	1412,762
528,2	1416,305
528,6	1421,99
529,1	1430,905
529,5	1442,162
530	1447,59
530,4	1452,505
530,9	1459,876
531,3	1469,276
531,8	1478,848
532,2	1483,448
532,6	1485,619
533,1	1489,619
533,5	1498,219
534	1499,733
534,4	1502,276
534,9	1505,419
535,3	1508,019
535,8	1510,019
536,2	1517,105
536,7	1520,733
537,1	1527,219
537,6	1536,133
538	1543,448
538,5	1555,333
538,9	1561,99
539,4	1571,219
539,8	1575,848
540,3	1584,962
540,7	1589,133
541,2	1592,019
541,6	1599,476
542,1	1608,733
542,5	1610,962
543	1618,876
543,4	1622,99
543,9	1625,305
544,3	1633,733
544,8	1630,19
545,2	1637,676
545,7	1643,99
546,1	1653,99
546,5	1663,019
547	1670,019
547,4	1677,59
547,9	1685,619
548,3	1691,248
548,8	1697,362
549,2	1690,733
549,7	1690,819
550,1	1701,505
550,6	1707,848
551	1715,648
551,5	1720,99
551,9	1723,648
552,4	1735,019
552,8	1745,59
553,3	1744,105
553,7	1746,333
554,2	1751,79
554,6	1757,705
555,1	1768,562
555,5	1774,648
555,9	1772,362
556,4	1780,619
556,8	1779,076
557,3	1782,305
557,7	1780,905
558,2	1780,448
558,6	1787,162
559,1	1801,362
559,5	1804,59
560	1817,305
560,4	1822,39
560,9	1825,076
561,3	1828,99
561,8	1829,59
562,2	1825,162
562,7	1831,448
563,1	1835,133
563,6	1835,819
564	1841,39
564,4	1843,505
564,9	1850,076
565,3	1859,105
565,8	1860,705
566,2	1860,162
566,7	1864,476
567,1	1872,019
567,6	1876,99
568	1873,762
568,5	1871,476
568,9	1872,533
569,4	1875,962
569,8	1874,933
570,3	1879,248
570,7	1875,333
571,1	1879,419
571,6	1887,219
572	1886,619
572,5	1887,562
572,9	1888,562
573,4	1887,162
573,8	1896,59
574,3	1893,905
574,7	1883,59
575,2	1881,99
575,6	1884,59
576,1	1892,162
576,5	1892,448
576,9	1889,105
577,4	1891,962
577,8	1894,848
578,3	1894,99
578,7	1891,648
579,2	1889,276
579,6	1882,476
580,1	1877,848
580,5	1881,619
581	1880,676
581,4	1881,162
581,9	1882,419
582,3	1879,362
582,7	1883,39
583,2	1881,248
583,6	1878,105
584,1	1880,276
584,5	1879,248
585	1871,219
585,4	1861,076
585,9	1856,248
586,3	1860,305
586,8	1856,219
587,2	1848,762
587,6	1850,39
588,1	1857,448
588,5	1860,276
589	1857,362
589,4	1846,276
589,9	1841,133
590,3	1842,276
590,8	1839,133
591,2	1834,333
591,7	1831,962
592,1	1838,362
592,5	1843,933
593	1840,048
593,4	1834,99
593,9	1824,876
594,3	1818,248
594,8	1820,562
595,2	1807,448
595,7	1800,99
596,1	1796,733
596,6	1795,705
597	1797,648
597,4	1795,676
597,9	1786,876
598,3	1790,79
598,8	1789,39
599,2	1792,248
599,7	1790,562
600,1	1779,19
600,6	1771,448
601	1769,19
601,4	1767,276
601,9	1767,276
602,3	1759,79
602,8	1753,99
603,2	1753,448
603,7	1753,333
604,1	1752,076
604,6	1740,59
605	1729,276
605,4	1727,962
605,9	1724,905
606,3	1721,219
606,8	1710,905
607,2	1705,562
607,7	1695,533
608,1	1691,562
608,6	1688,133
609	1686,419
609,4	1684,019
609,9	1685,448
610,3	1678,933
610,8	1674,762
611,2	1670,676
611,7	1659,476
612,1	1647,362
612,6	1641,876
613	1634,848
613,4	1627,962
613,9	1627,276
614,3	1619,905
614,8	1619,705
615,2	1612,819
615,7	1606,905
616,1	1598,905
616,6	1593,219
617	1585,562
617,4	1581,59
617,9	1576,962
618,3	1574,476
618,8	1576,076
619,2	1570,99
619,7	1566,105
620,1	1558,848
620,5	1549,105
621	1539,676
621,4	1534,905
621,9	1523,076
622,3	1519,676
622,8	1510,762
623,2	1502,219
623,6	1496,676
624,1	1489,562
624,5	1477,99
625	1472,276
625,4	1464,848
625,9	1454,533
626,3	1452,533
626,8	1449,362
627,2	1443,962
627,6	1432,448
628,1	1420,048
628,5	1415,076
629	1411,676
629,4	1402,305
629,9	1391,876
630,3	1380,419
630,7	1378,562
631,2	1376,619
631,6	1371,848
632,1	1368,905
632,5	1365,476
633	1362,162
633,4	1356,648
633,8	1354,876
634,3	1347,076
634,7	1336,162
635,2	1322,105
635,6	1313,076
636,1	1300,076
636,5	1288,648
636,9	1271,048
637,4	1261,419
637,8	1250,448
638,3	1244,419
638,7	1235,476
639,2	1227,733
639,6	1229,048
640	1229,333
640,5	1222,648
640,9	1220,419
641,4	1216,962
641,8	1215,19
642,2	1211,19
642,7	1207,962
643,1	1206,562
643,6	1200,962
644	1191,705
644,5	1187,705
644,9	1180,162
645,3	1175,705
645,8	1161,19
646,2	1154,048
646,7	1147,762
647,1	1142,419
647,6	1137,848
648	1133,962
648,4	1123,533
648,9	1124,476
649,3	1116,248
649,8	1115,076
650,2	1111,39
650,6	1102,933
651,1	1096,19
651,5	1098,362
652	1091,619
652,4	1084,905
652,9	1079,505
653,3	1072,905
653,7	1067,59
654,2	1062,39
654,6	1050,162
655,1	1045,048
655,5	1044,819
655,9	1037,848
656,4	1036,305
656,8	1028,133
657,3	1020,362
657,7	1021,219
658,2	1011,133
658,6	1001,105
659	991,962
659,5	982,305
659,9	975,819
660,4	970,19
660,8	958,648
661,2	951,933
661,7	946,648
662,1	942,648
662,6	938,848
663	935,076
663,4	929,305
663,9	933,762
664,3	928,59
664,8	923,676
665,2	912,762
665,6	904,533
666,1	897,762
666,5	890,105
667	877,819
667,4	869,99
667,9	862,248
668,3	860,019
668,7	854,533
669,2	855,79
669,6	852,762
670,1	844,962
670,5	841,39
670,9	837,448
671,4	831,733
671,8	829,676
672,3	822,39
672,7	818,305
673,1	811,562
673,6	804,99
674	798,733
674,5	793,362
674,9	781,333
675,3	772,162
675,8	768,105
676,2	765,39
676,7	761,248
677,1	755,619
677,5	749,676
678	747,105
678,4	743,276
678,9	739,819
679,3	737,162
679,7	734,333
680,2	727,59
680,6	722,79
681,1	717,362
681,5	715,59
681,9	710,133
682,4	701,819
682,8	696,762
683,3	696,562
683,7	694,105
684,1	690,162
684,6	682,533
685	675,248
685,5	672,505
685,9	663,848
686,3	654,362
686,8	651,562
687,2	646,905
687,7	635,819
688,1	629,876
688,5	627,076
689	625,99
689,4	623,305
689,9	619,705
690,3	616,276
690,7	621,533
691,2	622,048
691,6	616,19
692	612,505
692,5	610,276
692,9	604,876
693,4	602,276
693,8	594,219
694,2	584,933
694,7	584,562
695,1	580,362
695,6	577,905
696	574,648
696,4	569,419
696,9	561,733
697,3	556,79
697,8	549,076
698,2	545,39
698,6	542,419
699,1	537,248
699,5	538,048
699,9	540,705
700,4	537,762
700,8	538,048
701,3	537,162
701,7	529,333
702,1	527,733
702,6	519,105
703	515,819
703,5	510,305
703,9	501,333
704,3	499,19
704,8	497,476
705,2	488,79
705,6	487,133
706,1	481,019
706,5	482,676
707	482,133
707,4	477,876
707,8	472,019
708,3	473,648
708,7	470,648
709,2	467,533
709,6	465,048
710	469,648
710,5	463,133
710,9	460,648
711,3	455,219
711,8	453,162
712,2	451,448
712,7	444,505
713,1	434,276
713,5	434,648
714	437,076
714,4	433,962
714,8	427,676
715,3	425,305
715,7	429,19
716,2	422,762
716,6	418,762
717	408,19
717,5	404,676
717,9	408,448
718,3	403,248
718,8	395,276
719,2	394,305
719,7	390,19
720,1	393,39
720,5	394,019
721	386,705
721,4	385,505
721,8	388,733
722,3	384,419
722,7	385,676
723,2	377,533
723,6	370,133
724	365,619
724,5	356,819
724,9	348,79
725,3	347,305
725,8	344,819
726,2	344,79
726,7	346,505
727,1	342,419
727,5	345,076
728	345,962
728,4	342,105
728,8	333,019
729,3	328,476
729,7	323,962
730,1	325,648
730,6	327,105
731	319,533
731,5	321,133
731,9	318,619
732,3	320,019
732,8	320,305
733,2	318,19
733,6	312,79
734,1	313,248
734,5	309,419
734,9	315,133
735,4	310,419
735,8	303,39
736,3	304,505
736,7	299,705
737,1	297,39
737,6	297,762
738	294,905
738,4	295,105
738,9	295,99
739,3	291,505
739,7	293,79
740,2	286,733
740,6	287,276
741,1	284,733
741,5	280,733
741,9	277,248
742,4	275,39
742,8	272,59
743,2	274,933
743,7	268,848
744,1	263,619
744,5	259,162
745	259,905
745,4	255,105
745,8	253,705
746,3	254,019
746,7	253,019
747,2	253,933
747,6	263,248
748	264,305
748,5	267,79
748,9	263,362
749,3	260,276
749,8	259,648
750,2	257,99
750,6	250,419
751,1	250,019
751,5	246,276
751,9	250,705
752,4	253,448
752,8	247,505
753,3	247,562
753,7	248,276
754,1	240,962
754,6	237,619
755	232,59
755,4	226,048
755,9	227,505
756,3	218,933
756,7	214,819
757,2	214,933
757,6	215,105
758	212,648
758,5	215,162
758,9	217,248
759,3	222,619
759,8	220,762
760,2	219,876
760,6	214,733
761,1	211,162
761,5	206,305
761,9	202,619
762,4	197,362
762,8	197,419
763,3	195,276
763,7	197,162
764,1	198,733
764,6	202,276
765	199,333
765,4	199,962
765,9	200,39
766,3	201,476
766,7	199,905
767,2	195,619
767,6	196,162
768	198,39
768,5	197,276
768,9	194,619
769,3	191,39
769,8	190,876
770,2	192,819
770,6	184,59
771,1	183,133
771,5	182,019
771,9	180,19
772,4	177,333
772,8	175,333
773,2	177,19
773,7	176,419
774,1	170,448
774,5	164,705
775	160,962
775,4	161,162
775,8	159,676
776,3	158,59
776,7	156,305
777,1	157,762
777,6	163,133
778	164,962
778,4	161,162
778,9	159,476
779,3	155,819
779,7	158,933
780,2	160,19
780,6	154,505
781	153,248
781,5	152,762
781,9	151,905
782,3	148,19
782,8	144,933
783,2	142,448
783,6	146,819
784,1	147,933
784,5	148,248
784,9	145,505
785,4	149,905
785,8	149,59
786,2	147,476
786,7	143,505
787,1	137,162
787,5	136,762
788	139,133
788,4	136,333
788,8	136,19
789,3	134,99
789,7	136,305
790,1	137,676
790,6	135,448
791	132,305
791,4	133,819
791,9	127,362
792,3	125,962
792,7	124,79
793,2	123,705
793,6	124,276
794	128,19
794,5	120,562
794,9	127,076
795,3	127,905
795,8	126,819
796,2	127,39
796,6	127,819
797,1	122,648
797,5	123,962
797,9	119,876
798,4	116,476
798,8	112,733
799,2	108,162
799,7	107,99
800,1	107,876
800,5	110,076
801	113,162
801,4	113,905
801,8	113,533
802,2	115,762
802,7	112,933
803,1	110,905
803,5	112,562
804	105,505
804,4	105,619
804,8	106,076
805,3	106,533
805,7	105,562
806,1	100,79
806,6	97,59
807	100,276
807,4	96,705
807,9	91,876
808,3	88,59
808,7	87,99
809,2	92,876
809,6	94,562
810	94,962
810,4	96,276
810,9	97,362
811,3	102,105
811,7	102,448
812,2	106,219
812,6	98,362
813	99,448
813,5	102,162
813,9	102,276
814,3	98,933
814,8	97,876
815,2	93,476
815,6	97,619
816,1	92,962
816,5	87,505
816,9	88,648
817,3	85,248
817,8	88,962
818,2	88,219
818,6	82,505
819,1	84,962
819,5	84,562
819,9	84,533
820,4	87,248
820,8	81,762
821,2	75,848
821,7	81,39
822,1	82,99
822,5	87,905
822,9	86,476
823,4	85,448
823,8	86,562
824,2	90,448
824,7	86,305
825,1	76,248
825,5	72,848
826	68,048
826,4	66,476
826,8	60,648
827,3	62,476
827,7	62,59
828,1	66,733
828,5	65,876
829	67,362
829,4	68,876
829,8	67,476
830,3	64,305
830,7	61,619
831,1	63,933
831,6	62,305
832	64,962
832,4	61,876
832,8	68,562
833,3	71,876
833,7	72,105
834,1	68,019
834,6	67,105
835	69,962
835,4	70,79
835,8	65,533
836,3	60,99
836,7	62,048
837,1	62,305
837,6	65,248
838	58,476
838,4	56,162
838,9	59,762
839,3	58,59
839,7	59,79
840,1	53,333
840,6	48,762
841	50,676
841,4	52,962
841,9	47,79
842,3	49,79
842,7	50,048
843,1	52,676
843,6	55,048
844	52,448
844,4	52,848
844,9	55,19
845,3	53,448
845,7	47,448
846,2	45,762
846,6	40,933
847	42,619
847,4	37,076
847,9	41,476
848,3	40,848
848,7	44,276
849,2	48,562
849,6	47,105
850	50,962
850,4	52,733
850,9	51,762
851,3	55,362
851,7	55,562
852,2	54,876
852,6	62,876
853	57,848
853,4	55,762
853,9	50,19
854,3	48,105
854,7	48,162
855,2	48,533
855,6	43,019
856	35,876
856,4	33,848
856,9	32,79
857,3	32,848
857,7	32,419
858,2	33,819
858,6	34,19
859	41,905
859,4	46,476
859,9	47,733
860,3	44,19
860,7	44,79
861,1	44,333
861,6	43,819
862	39,305
862,4	38,619
862,9	41,133
863,3	41,248
863,7	39,762
864,1	39,562
864,6	39,705
865	42,819
865,4	42,133
865,9	41,39
866,3	38,705
866,7	35,219
867,1	35,533
867,6	31,819
868	28,676
868,4	28,419
868,8	26,133
869,3	28,476
869,7	32,162
870,1	28,162
870,6	29,962
871	42,705
871,4	45,448
871,8	45,133
872,3	50,276
872,7	47,79
873,1	47,962
873,5	50,219
874	38,39
874,4	39,305
874,8	39,219
875,3	36,448
875,7	37,705
876,1	35,819
876,5	32,619
877	32,762
877,4	27,762
877,8	27,705
878,2	30,076
878,7	32,305
879,1	35,248
879,5	37,819
879,9	40,533
880,4	42,905
880,8	45,162
881,2	37,876
881,7	32,876
882,1	30,99
882,5	30,79
882,9	24,019
883,4	22,362
883,8	23,648
884,2	23,162
884,6	23,162
885,1	22,19
885,5	24,333
885,9	26,762
886,3	26,533
886,8	21,333
887,2	23,048
887,6	22,419
888	23,219
888,5	20,476
888,9	15,876
889,3	12,79
889,8	14,876
890,2	17,533
890,6	17,39
891	19,619
891,5	19,876
891,9	29,562
892,3	35,562
892,7	33,99
893,2	33,905
893,6	38,676
894	35,99
894,4	33,476
894,9	27,533
895,3	22,876
895,7	24,448
896,1	22,019
896,6	20,819
897	23,59
897,4	28,848
897,8	32,733
898,3	34,762
898,7	32,476
899,1	33,162
899,5	30,419
900	23,705
900,4	18,848
900,8	14,333
901,2	8,762
901,7	10,676
902,1	7,905
902,5	8,619
902,9	11,648
903,4	15,419
903,8	17,362
904,2	17,476
904,6	17,733
905,1	19,133
905,5	17,562
905,9	20,676
906,3	18,733
906,8	21,105
907,2	25,848
907,6	23,219
908	26,048
908,5	29,476
908,9	24,905
909,3	27,79
909,7	25,076
910,2	23,048
910,6	26,476
911	22,133
911,4	20,676
911,9	20,733
912,3	12,105
912,7	16,733
913,1	20,105
913,6	13,705
914	14,248
914,4	9,39
914,8	13,19
915,3	14,962
915,7	9,162
916,1	6,419
916,5	10,19
916,9	9,933
917,4	15,362
917,8	15,762
918,2	15,248
918,6	16,333
919,1	17,819
919,5	19,133
919,9	20,619
920,3	17,933
920,8	16,59
921,2	19,933
921,6	21,305
922	19,219
922,5	17,333
922,9	17,933
923,3	14,848
923,7	13,905
924,2	13,819
924,6	14,505
925	14,19
925,4	11,648
925,8	5,533
926,3	6,59
926,7	5,476
927,1	6,248
927,5	2,876
928	3,133
928,4	5,162
928,8	14,105
929,2	13,533
929,7	14,133
930,1	11,762
930,5	14,048
930,9	14,99
931,3	20,19
931,8	14,648
932,2	17,962
932,6	15,162
933	6,79
933,5	6,39
933,9	8,076
934,3	8,79
934,7	9,505
935,2	11,562
935,6	12,762
936	23,848
936,4	25,905
936,8	26,876
937,3	16,59
937,7	16,619
938,1	20,305
938,5	20,419
939	19,533
939,4	18,505
939,8	14,962
940,2	20,619
940,6	26,333
941,1	18,362
941,5	23,933
941,9	17,505
942,3	11,876
942,8	12,19
943,2	12,819
943,6	1,619
944	5,048
944,4	-0,01
944,9	0,876
945,3	4,933
945,7	-1,038
946,1	-4,324
946,6	0,248
947	0,076
947,4	6,419
947,8	7,762
948,2	4,619
948,7	12,733
949,1	13,676
949,5	18,362
949,9	18,333
950,3	15,705
950,8	14,876
951,2	17,562
951,6	11,219
952	14,476
952,5	10,419
952,9	9,419
953,3	6,219
953,7	9,048
954,1	9,533
954,6	13,905
955	13,333
955,4	12,076
955,8	14,476
956,2	19,362
956,7	20,362
957,1	19,762
957,5	21,362
957,9	20,905
958,3	23,533
958,8	23,19
959,2	21,39
959,6	20,59
960	18,048
960,5	18,39
960,9	17,505
961,3	12,019
961,7	8,79
962,1	3,705
962,6	5,105
963	10,39
963,4	4,448
963,8	2,533
964,2	7,619
964,7	7,819
965,1	8,676
965,5	9,39
965,9	7,876
966,3	11,905
966,8	13,79
967,2	15,162
967,6	11,79
968	10,962
968,4	6,733
968,9	8,333
969,3	12,848
969,7	8,219
970,1	4,419
970,5	7,39
971	12,933
971,4	15,648
971,8	12,162
972,2	9,019
972,6	14,505
973,1	17,219
973,5	19,562
973,9	16,562
974,3	14,448
974,7	18,448
975,2	15,076
975,6	12,533
976	10,333
976,4	3,819
976,8	2,59
977,3	3,819
977,7	0,19
978,1	2,248
978,5	-0,21
978,9	-0,981
979,4	4,39
979,8	2,733
980,2	5,333
980,6	2,419
981	5,419
981,5	9,876
981,9	12,448
982,3	11,248
982,7	16,676
983,1	11,048
983,6	14,276
984	9,219
984,4	8,933
984,8	10,762
985,2	10,648
985,6	8,762
986,1	10,619
986,5	9,733
986,9	6,848
987,3	9,705
987,7	10,019
988,2	9,333
988,6	8,533
989	9,733
989,4	8,962
989,8	12,476
990,3	7,762
990,7	4,59
991,1	5,019
991,5	7,419
991,9	7,933
992,3	10,448
992,8	13,076
993,2	10,048
993,6	9,905
994	12,333
994,4	12,105
994,9	12,762
995,3	8,59
995,7	5,362
996,1	10,848
996,5	13,905
996,9	11,076
997,4	12,562
997,8	9,19
998,2	10,676
998,6	4,962
999	1,162
999,5	-2,724
999,9	-1,181
1000,3	-4,667
1000,7	-3,552
1001,1	-4,381
1001,5	0,933
1002	3,076
1002,4	9,133
1002,8	4,19
1003,2	6,305
1003,6	4,819
1004	6,762
1004,5	7,219
1004,9	9,276
1005,3	1,79
1005,7	6,162
1006,1	2,648
1006,6	6,219
1007	5,876
1007,4	6,419
1007,8	5,248
1008,2	2,762
1008,6	3,99
1009,1	4,076
1009,5	2,476
1009,9	7,933
1010,3	9,705
1010,7	6,59
1011,1	9,419
1011,6	8,048
1012	10,905
1012,4	10,733
1012,8	4,676
1013,2	7,248
1013,6	10,219
1014,1	12,876
1014,5	14,933
1014,9	14,448
1015,3	12,39
1015,7	15,39
1016,1	10,476
1016,6	11,676
1017	13,133
1017,4	12,933
1017,8	9,105
1018,2	16,419
1018,6	10,362
1019,1	10,562
1019,5	6,219
1019,9	-0,724
1020,3	-0,924
1020,7	0,962
1021,1	-7,381
1021,6	-2,381
1022	2,562
1022,4	4,533
1022,8	12,933
1023,2	8,105
1023,6	8,476
1024,1	20,362
1024,5	21,733
1024,9	15,048
1025,3	11,705
1025,7	12,333
1026,1	17,219
1026,6	19,419
1027	11,305
1027,4	8,933
1027,8	6,762
1028,2	12,19
1028,6	12,305
1029	10,59
1029,5	10,848
1029,9	11,705
1030,3	13,505
1030,7	19,676
1031,1	18,905
1031,5	10,848
1032	11,676
1032,4	11,819
1032,8	11,476
1033,2	12,048
1033,6	7,819
1034	8,962
1034,4	15,476
1034,9	17,305
1035,3	14,362
1035,7	13,219
1036,1	5,248
1036,5	3,99
1036,9	2,333
1037,4	0,79
1037,8	-0,667
1038,2	-2,438
1038,6	0,476
1039	10,333
1039,4	17,59
1039,8	17,562
1040,3	18,333
1040,7	19,848
1041,1	24,933
1041,5	22,419
1041,9	13,876
1042,3	10,733
1042,7	11,133
1043,2	8,848
1043,6	4,162
1044	4,962
1044,4	6,248
1044,8	11,79
1045,2	10,99
1045,6	12,933
1046,1	9,276
1046,5	4,733
1046,9	0,99
1047,3	-1,21
1047,7	-1,695
1048,1	-1,01
1048,5	-4,895
1049	2,076
1049,4	12,59
1049,8	14,362
1050,2	14,162
1050,6	14,733
1051	15,076
1051,4	18,733
1051,9	18,59
1052,3	21,905
1052,7	22,733
1053,1	19,39
1053,5	19,648
1053,9	20,248
1054,3	15,819
1054,8	18,419
1055,2	13,362
1055,6	14,019
1056	19,705
1056,4	17,476
1056,8	16,933
1057,2	17,59
1057,6	10,19
1058,1	7,905
1058,5	2,762
1058,9	2,19
1059,3	2,219
1059,7	3,476
1060,1	6,819
1060,5	9,59
1061	12,876
1061,4	15,019
1061,8	15,419
1062,2	17,39
1062,6	16,676
1063	14,762
1063,4	14,276
1063,8	9,048
1064,3	4,905
1064,7	6,733
1065,1	4,59
1065,5	-1,524
1065,9	-5,295
1066,3	-8,295
1066,7	-5,01
1067,1	-6,924
1067,6	-5,01
1068	-7,438
1068,4	0,333
1068,8	5,505
1069,2	8,162
1069,6	10,962
1070	17,562
1070,4	14,848
1070,9	17,019
1071,3	14,076
1071,7	11,533
1072,1	11,79
1072,5	4,733
1072,9	4,39
1073,3	5,133
1073,7	6,505
1074,2	6,819
1074,6	10,305
1075	8,476
1075,4	9,676
1075,8	16,105
1076,2	13,219
1076,6	14,39
1077	12,876
1077,5	14,333
1077,9	14,133
1078,3	15,99
1078,7	9,476
1079,1	9,705
1079,5	11,248
1079,9	16,733
1080,3	13,533
1080,7	13,476
1081,2	14,505
1081,6	14,219
1082	13,705
1082,4	11,39
1082,8	7,876
1083,2	6,848
1083,6	12,962
1084	9,933
1084,5	8,648
1084,9	6,676
1085,3	2,648
1085,7	1,276
1086,1	-0,438
1086,5	-3,695
1086,9	1,562
1087,3	3,305
1087,7	6,019
1088,2	8,819
1088,6	9,705
1089	13,733
1089,4	14,048
1089,8	12,79
1090,2	10,562
1090,6	9,59
1091	11,762
1091,4	13,962
1091,9	10,762
1092,3	10,076
1092,7	6,219
1093,1	12,248
1093,5	13,562
1093,9	11,19
1094,3	11,476
1094,7	14,133
1095,1	15,448
1095,5	19,448
1096	15,019
1096,4	13,505
1096,8	12,59
1097,2	9,333
1097,6	10,762
1098	10,362
1098,4	7,505
1098,8	6,076
1099,2	12,219
1099,6	12,962
1100,1	10,305
1100,5	7,762
1100,9	5,819
1101,3	7,99
1101,7	9,219
1102,1	2,505
1102,5	5,819
1102,9	10,476
1103,3	12,705
1103,7	15,076
1104,2	14,019
1104,6	15,362
1105	16,79
1105,4	13,562
1105,8	11,133
1106,2	7,619
1106,6	4,819
1107	3,419
1107,4	1,367
1107,8	1,053
1108,3	-0,067
