Data from Subt2_252.txt Node
Date: Sat Aug 26 18:59:38 MSK 2023
User: vat
Spectrometer: MAYP114033
Trigger mode: 0
Integration Time (sec): 1,000000E0
Scans to average: 5
Electric dark correction enabled: true
Nonlinearity correction enabled: false
Boxcar width: 3
XAxis mode: Wavelengths
Number of Pixels in Spectrum: 2068
>>>>>Begin Spectral Data<<<<<
199,4	-0,133
199,9	1,547
200,4	-1,2
200,8	2,41
201,3	1,81
201,8	3,867
202,2	0,667
202,7	5,895
203,2	5,181
203,6	8,61
204,1	3,552
204,6	2,01
205	2,267
205,5	4,81
206	0,61
206,4	-2,248
206,9	-0,933
207,4	-1,362
207,8	0,724
208,3	-0,705
208,8	-2,162
209,2	1,181
209,7	6,267
210,2	4,095
210,6	7,238
211,1	6,81
211,5	3,41
212	5,924
212,5	-0,133
212,9	-5,419
213,4	-3,105
213,9	-3,448
214,3	0,038
214,8	6,038
215,3	6,81
215,7	10,21
216,2	14,067
216,7	15,438
217,1	15,495
217,6	15,038
218,1	12,981
218,5	10,81
219	5,981
219,5	8,095
219,9	2,381
220,4	6,752
220,9	3,981
221,3	0,41
221,8	2,067
222,3	5,552
222,7	6,067
223,2	6,552
223,6	0,981
224,1	-0,848
224,6	7,981
225	3,724
225,5	2,695
226	-0,648
226,4	3,21
226,9	7,095
227,4	13,01
227,8	3,552
228,3	7,667
228,8	9,181
229,2	12,924
229,7	9,067
230,2	3,038
230,6	0,495
231,1	5,324
231,5	4,867
232	7,181
232,5	1,924
232,9	2,124
233,4	10,067
233,9	8,124
234,3	5,867
234,8	8,381
235,3	5,695
235,7	8,638
236,2	12,267
236,7	5,381
237,1	6,267
237,6	5,838
238,1	1,324
238,5	-1,39
239	1,41
239,4	4,295
239,9	6,61
240,4	6,524
240,8	9,724
241,3	10,038
241,8	12,438
242,2	5,638
242,7	-0,505
243,2	2,124
243,6	-0,676
244,1	-2,105
244,6	-1,162
245	0,352
245,5	3,552
245,9	3,895
246,4	0,181
246,9	3,01
247,3	5,752
247,8	7,152
248,3	8,21
248,7	10,181
249,2	10,867
249,7	11,552
250,1	12,667
250,6	9,838
251	10,324
251,5	9,095
252	5,067
252,4	7,267
252,9	5,038
253,4	2,695
253,8	1,924
254,3	1,267
254,8	1,552
255,2	-0,59
255,7	-3,619
256,1	-0,962
256,6	2,467
257,1	4,752
257,5	1,21
258	-0,79
258,5	4,867
258,9	5,781
259,4	3,895
259,9	2,667
260,3	-0,79
260,8	-0,39
261,2	0,467
261,7	2,924
262,2	1,267
262,6	0,352
263,1	1,61
263,6	4,095
264	8,438
264,5	10,124
264,9	2,581
265,4	4,781
265,9	3,238
266,3	3,838
266,8	2,495
267,3	0,524
267,7	-4,819
268,2	-2,276
268,7	-1,333
269,1	2,067
269,6	-0,79
270	3,181
270,5	4,924
271	7,895
271,4	9,638
271,9	7,067
272,4	12,895
272,8	16,667
273,3	16,552
273,7	18,095
274,2	20,495
274,7	19,638
275,1	22,695
275,6	21,524
276,1	16,267
276,5	17,524
277	15,781
277,4	16,238
277,9	16,095
278,4	16,752
278,8	13,181
279,3	14,581
279,8	13,124
280,2	12,124
280,7	12,124
281,1	10,867
281,6	9,124
282,1	9,352
282,5	10,038
283	7,667
283,4	6,41
283,9	6,867
284,4	10,267
284,8	9,895
285,3	9,238
285,8	10,981
286,2	7,81
286,7	8,21
287,1	2,038
287,6	1,867
288,1	-0,019
288,5	1,667
289	0,924
289,5	4,61
289,9	2,267
290,4	6,724
290,8	4,381
291,3	5,695
291,8	6,781
292,2	5,21
292,7	6,438
293,1	5,438
293,6	9,295
294,1	11,867
294,5	13,238
295	11,267
295,5	12,324
295,9	9,724
296,4	13,895
296,8	6,61
297,3	6,095
297,8	4,095
298,2	2,524
298,7	2,438
299,1	1,952
299,6	-1,79
300,1	4,81
300,5	3,467
301	5,495
301,5	11,467
301,9	11,152
302,4	11,324
302,8	15,781
303,3	11,295
303,8	5,41
304,2	-0,448
304,7	-4,362
305,1	-7,733
305,6	-6,105
306,1	0,124
306,5	-0,19
307	9,981
307,4	15,552
307,9	14,181
308,4	18,324
308,8	15,067
309,3	7,067
309,8	8,667
310,2	8,067
310,7	6,295
311,1	8,552
311,6	6,238
312,1	13,41
312,5	15,924
313	19,467
313,4	16,324
313,9	18,095
314,4	15,41
314,8	14,295
315,3	10,295
315,7	5,667
316,2	0,981
316,7	-3,048
317,1	0,095
317,6	-2,276
318	2,295
318,5	1,324
319	2,867
319,4	5,295
319,9	12,552
320,3	10,667
320,8	13,495
321,3	12,752
321,7	12,381
322,2	13,752
322,6	12,295
323,1	6,752
323,6	1,552
324	0,21
324,5	-1,448
324,9	0,752
325,4	-1,905
325,9	-0,962
326,3	0,324
326,8	5,638
327,2	2,752
327,7	4,81
328,2	3,952
328,6	7,867
329,1	3,095
329,5	6,152
330	3,667
330,5	8,895
330,9	11,381
331,4	15,581
331,8	10,695
332,3	19,267
332,8	15,21
333,2	13,01
333,7	14,324
334,1	10,295
334,6	7,067
335,1	8,752
335,5	2,638
336	2,895
336,4	6,467
336,9	7,581
337,4	8,21
337,8	5,181
338,3	6,01
338,7	10,095
339,2	9,381
339,7	11,952
340,1	11,038
340,6	12,21
341	12,638
341,5	14,981
342	11,552
342,4	9,381
342,9	6,581
343,3	6,238
343,8	6,524
344,2	8,152
344,7	12,124
345,2	9,152
345,6	10,61
346,1	14,667
346,5	9,581
347	5,295
347,5	3,41
347,9	4,21
348,4	6,581
348,8	9,295
349,3	5,924
349,8	8,181
350,2	14,21
350,7	14,495
351,1	9,038
351,6	14,067
352	14,781
352,5	19,381
353	27,495
353,4	28,438
353,9	37,381
354,3	46,124
354,8	48,838
355,3	65,01
355,7	75,495
356,2	89,295
356,6	107,01
357,1	128,924
357,5	148,438
358	178,695
358,5	200,952
358,9	232,924
359,4	266,524
359,8	303,295
360,3	349,238
360,8	393,838
361,2	444,095
361,7	502,067
362,1	566,381
362,6	639,81
363	713,867
363,5	788,952
364	881,152
364,4	970,467
364,9	1063,895
365,3	1150,124
365,8	1227,124
366,3	1303,352
366,7	1375,038
367,2	1437,324
367,6	1482,781
368,1	1517,381
368,5	1543,238
369	1558,952
369,5	1561,781
369,9	1545,238
370,4	1515,038
370,8	1481,124
371,3	1435,867
371,7	1382,667
372,2	1323,124
372,7	1259,838
373,1	1192,038
373,6	1125,467
374	1056,61
374,5	988,724
374,9	919,095
375,4	853,438
375,9	788,781
376,3	729,267
376,8	668,181
377,2	617,895
377,7	564,81
378,2	518,695
378,6	472,752
379,1	430,952
379,5	396,324
380	369,01
380,4	337,267
380,9	307,381
381,4	279,295
381,8	257,752
382,3	245,981
382,7	227,01
383,2	209,81
383,6	194,21
384,1	188,181
384,6	178,124
385	164,21
385,5	151,152
385,9	141,752
386,4	128,238
386,8	122,352
387,3	109,152
387,7	106,495
388,2	103,61
388,7	93,438
389,1	86,21
389,6	84,952
390	79,867
390,5	80,41
390,9	73,41
391,4	67,895
391,9	68,067
392,3	66,352
392,8	57,695
393,2	49,381
393,7	45,038
394,1	40,238
394,6	39,152
395,1	34,867
395,5	33,867
396	35,895
396,4	37,295
396,9	33,695
397,3	38,61
397,8	40,152
398,2	38,067
398,7	35,495
399,2	39,267
399,6	39,238
400,1	40,095
400,5	34,438
401	31,524
401,4	29,867
401,9	31,181
402,4	30,638
402,8	24,095
403,3	25,952
403,7	22,724
404,2	23,524
404,6	25,352
405,1	24,552
405,5	18,581
406	22,924
406,5	17,067
406,9	20,524
407,4	20,752
407,8	20,81
408,3	21,438
408,7	25,095
409,2	30,552
409,6	35,752
410,1	38,867
410,6	43,552
411	44,267
411,5	47,781
411,9	48,124
412,4	48,095
412,8	51,981
413,3	54,038
413,7	53,01
414,2	57,467
414,7	62,895
415,1	71,295
415,6	72,81
416	74,781
416,5	74,352
416,9	77,581
417,4	79,21
417,8	81,21
418,3	81,667
418,8	86,752
419,2	87,952
419,7	89,552
420,1	85,895
420,6	88,352
421	80,41
421,5	81,438
421,9	84,067
422,4	85,067
422,8	87,552
423,3	91,61
423,8	89,638
424,2	91,667
424,7	88,295
425,1	84,152
425,6	85,667
426	86,581
426,5	88,638
426,9	94,838
427,4	95,01
427,9	92,781
428,3	92,21
428,8	89,895
429,2	88,152
429,7	85,467
430,1	82,01
430,6	80,238
431	79,781
431,5	80,01
431,9	77,838
432,4	82,21
432,8	87,924
433,3	90,667
433,8	97,01
434,2	104,667
434,7	108,981
435,1	113,667
435,6	116,238
436	117,267
436,5	120,21
436,9	120,781
437,4	123,924
437,8	128,181
438,3	134,81
438,8	137,181
439,2	142,238
439,7	149,038
440,1	155,352
440,6	164,924
441	165,81
441,5	169,981
441,9	178,238
442,4	179,781
442,8	187,838
443,3	200,952
443,7	206,152
444,2	223,067
444,7	232,41
445,1	240,181
445,6	254,667
446	262,038
446,5	267,21
446,9	270,895
447,4	275,038
447,8	287,352
448,3	299,752
448,7	310,667
449,2	322,41
449,6	337,952
450,1	353,41
450,6	376,124
451	388,61
451,5	404,667
451,9	422,152
452,4	436,124
452,8	449,095
453,3	468,438
453,7	479,095
454,2	496,81
454,6	512,238
455,1	526,581
455,5	546,067
456	565,81
456,4	577,981
456,9	599,981
457,3	619,238
457,8	632,124
458,3	654,724
458,7	673,867
459,2	692,752
459,6	715,124
460,1	735,352
460,5	753,724
461	782,895
461,4	800,752
461,9	820,667
462,3	848,552
462,8	875,324
463,2	894,238
463,7	923,152
464,1	948,095
464,6	976,667
465	1009,124
465,5	1029,524
466	1057,752
466,4	1086,638
466,9	1119,01
467,3	1142,495
467,8	1168,038
468,2	1191,352
468,7	1220,467
469,1	1246,695
469,6	1274,324
470	1295,467
470,5	1323,124
470,9	1350,467
471,4	1376,324
471,8	1404,067
472,3	1436,124
472,7	1462,695
473,2	1487,552
473,6	1514,067
474,1	1543,81
474,5	1572,838
475	1600,638
475,4	1622,981
475,9	1646,838
476,4	1672,01
476,8	1704,695
477,3	1729,438
477,7	1763,667
478,2	1790,267
478,6	1816,381
479,1	1844,181
479,5	1876,381
480	1899,438
480,4	1926,838
480,9	1941,581
481,3	1965,095
481,8	1990,552
482,2	2010,124
482,7	2028,952
483,1	2048,552
483,6	2067,095
484	2092,267
484,5	2118,21
484,9	2132,41
485,4	2157,924
485,8	2178,495
486,3	2200,895
486,7	2219,295
487,2	2239,01
487,6	2250,581
488,1	2275,095
488,5	2289,667
489	2305,038
489,4	2323,038
489,9	2334,467
490,4	2347,667
490,8	2366,181
491,3	2377,724
491,7	2393,81
492,2	2409,895
492,6	2418,724
493,1	2437,81
493,5	2443,581
494	2451,524
494,4	2462,952
494,9	2471,181
495,3	2480,838
495,8	2495,695
496,2	2510,41
496,7	2522,324
497,1	2533,524
497,6	2544,752
498	2557,324
498,5	2565,267
498,9	2567,61
499,4	2566,81
499,8	2585,295
500,3	2599,181
500,7	2602,867
501,2	2613,238
501,6	2615,781
502,1	2627,552
502,5	2642,352
503	2641,838
503,4	2639,438
503,9	2647,724
504,3	2648,638
504,8	2662,724
505,2	2671,638
505,7	2672,181
506,1	2680,524
506,6	2692,295
507	2700,81
507,5	2714,581
507,9	2718,067
508,4	2722,981
508,8	2732,238
509,3	2733,467
509,7	2737,238
510,2	2739,752
510,6	2740,352
511,1	2745,181
511,5	2749,438
512	2749,352
512,4	2755,581
512,9	2759,038
513,3	2766,438
513,8	2773,095
514,2	2780,352
514,7	2784,924
515,1	2793,781
515,6	2797,41
516	2798,952
516,5	2810,152
516,9	2812,381
517,4	2821,41
517,8	2827,467
518,3	2832,981
518,7	2841,438
519,2	2853,924
519,6	2849,552
520,1	2859,838
520,5	2859,01
521	2855,524
521,4	2860,295
521,9	2863,81
522,3	2865,01
522,8	2874,352
523,2	2877,381
523,7	2881,181
524,1	2891,61
524,6	2896,981
525	2904,952
525,5	2914,01
525,9	2922,038
526,4	2922,838
526,8	2928,981
527,3	2940,61
527,7	2948,095
528,2	2956,981
528,6	2956,067
529,1	2960,01
529,5	2968,467
530	2973,152
530,4	2973,295
530,9	2978,41
531,3	2986,295
531,8	3001,781
532,2	3012,295
532,6	3021,981
533,1	3031,152
533,5	3045,781
534	3052,867
534,4	3054,838
534,9	3063,41
535,3	3067,667
535,8	3076,01
536,2	3085,581
536,7	3089,038
537,1	3102,124
537,6	3111,352
538	3119,295
538,5	3126,81
538,9	3126,038
539,4	3136,181
539,8	3143,724
540,3	3148,438
540,7	3155,952
541,2	3160,895
541,6	3171,152
542,1	3183,981
542,5	3188,952
543	3197,81
543,4	3203,038
543,9	3213,552
544,3	3219,352
544,8	3224,667
545,2	3234,152
545,7	3247,01
546,1	3256,381
546,5	3273,095
547	3279,581
547,4	3285,752
547,9	3291,867
548,3	3303,067
548,8	3310,467
549,2	3311,724
549,7	3310,495
550,1	3314,81
550,6	3333,952
551	3341,067
551,5	3343,267
551,9	3346,41
552,4	3355,181
552,8	3368,352
553,3	3378,238
553,7	3373,01
554,2	3379,781
554,6	3388,581
555,1	3399,352
555,5	3406,724
555,9	3412,581
556,4	3416,495
556,8	3425,581
557,3	3432,438
557,7	3437,867
558,2	3445,752
558,6	3460,667
559,1	3462,152
559,5	3466,295
560	3472,61
560,4	3484,752
560,9	3489,41
561,3	3484,524
561,8	3479,295
562,2	3491,01
562,7	3499,695
563,1	3510,81
563,6	3511,01
564	3517,181
564,4	3525,981
564,9	3533,152
565,3	3539,81
565,8	3545,352
566,2	3547,01
566,7	3551,067
567,1	3556,981
567,6	3556,095
568	3553,81
568,5	3550,81
568,9	3550,324
569,4	3550,467
569,8	3552,352
570,3	3548,524
570,7	3548,238
571,1	3557,01
571,6	3553,324
572	3559,552
572,5	3560,952
572,9	3561,61
573,4	3561,781
573,8	3570,724
574,3	3568,867
574,7	3567,467
575,2	3562,867
575,6	3562,838
576,1	3563,752
576,5	3571,867
576,9	3568,295
577,4	3560,867
577,8	3558,467
578,3	3558,01
578,7	3549,524
579,2	3545,152
579,6	3531,267
580,1	3526,552
580,5	3529,038
581	3531,324
581,4	3526,01
581,9	3519,752
582,3	3515,638
582,7	3520,524
583,2	3515,181
583,6	3516,524
584,1	3516,467
584,5	3514,181
585	3513,867
585,4	3501,467
585,9	3494,552
586,3	3495,295
586,8	3485,895
587,2	3474,295
587,6	3471,352
588,1	3469,01
588,5	3466,781
589	3463,467
589,4	3455,581
589,9	3446,867
590,3	3441,352
590,8	3434,752
591,2	3428,438
591,7	3429,438
592,1	3419,124
592,5	3414,438
593	3409,238
593,4	3410,41
593,9	3400,81
594,3	3395,124
594,8	3385,552
595,2	3380,267
595,7	3375,581
596,1	3369,267
596,6	3354,724
597	3354,495
597,4	3348,667
597,9	3343,981
598,3	3339,667
598,8	3331,552
599,2	3331,324
599,7	3329,895
600,1	3317,81
600,6	3310,124
601	3302,695
601,4	3302,981
601,9	3298,895
602,3	3284,752
602,8	3279,438
603,2	3271,41
603,7	3266,81
604,1	3258,095
604,6	3242,181
605	3226,295
605,4	3216,352
605,9	3199,381
606,3	3191,41
606,8	3180,352
607,2	3169,667
607,7	3158,638
608,1	3150,924
608,6	3148,21
609	3143,781
609,4	3137,324
609,9	3122,552
610,3	3117,467
610,8	3106,838
611,2	3099,667
611,7	3089,724
612,1	3080,095
612,6	3069,581
613	3065,095
613,4	3051,095
613,9	3042,924
614,3	3030,352
614,8	3021,924
615,2	3006,724
615,7	2998,21
616,1	2983,724
616,6	2968,752
617	2953,238
617,4	2943,038
617,9	2929,695
618,3	2920,095
618,8	2911,438
619,2	2902,638
619,7	2899,467
620,1	2891,21
620,5	2885,838
621	2867,838
621,4	2861,238
621,9	2841,41
622,3	2826,352
622,8	2811,324
623,2	2803,467
623,6	2784,552
624,1	2777,067
624,5	2760,124
625	2757,152
625,4	2747,981
625,9	2736,924
626,3	2715,095
626,8	2703,667
627,2	2689,01
627,6	2671,495
628,1	2650,267
628,5	2640,752
629	2625,124
629,4	2617,381
629,9	2599,267
630,3	2583,895
630,7	2575,924
631,2	2563,581
631,6	2547,152
632,1	2533,381
632,5	2516,495
633	2502,581
633,4	2490,095
633,8	2470,267
634,3	2460,21
634,7	2439,495
635,2	2426,752
635,6	2419,181
636,1	2413,524
636,5	2400,41
636,9	2388,181
637,4	2371,724
637,8	2364,867
638,3	2347,238
638,7	2333,238
639,2	2317,524
639,6	2310,295
640	2305,152
640,5	2291,867
640,9	2281,695
641,4	2275,667
641,8	2266,981
642,2	2259,038
642,7	2248,867
643,1	2241,181
643,6	2228,752
644	2218,181
644,5	2206,038
644,9	2193,295
645,3	2175,752
645,8	2157,695
646,2	2145,238
646,7	2139,81
647,1	2125,752
647,6	2117,838
648	2108,895
648,4	2100,181
648,9	2092,695
649,3	2078,238
649,8	2065,124
650,2	2055,095
650,6	2045,667
651,1	2030,381
651,5	2025,724
652	2015,238
652,4	2002,952
652,9	1993,124
653,3	1987,438
653,7	1969,352
654,2	1957,552
654,6	1940,867
655,1	1928,067
655,5	1921,667
655,9	1910,124
656,4	1894,838
656,8	1888,924
657,3	1881,067
657,7	1875,381
658,2	1865,895
658,6	1851,01
659	1836,581
659,5	1823,352
659,9	1810,181
660,4	1801,124
660,8	1785,467
661,2	1774,124
661,7	1768,524
662,1	1760,781
662,6	1751,038
663	1741,352
663,4	1724,21
663,9	1712,381
664,3	1701,295
664,8	1682,638
665,2	1668,295
665,6	1657,752
666,1	1642,21
666,5	1635,01
667	1624,724
667,4	1613,924
667,9	1607,238
668,3	1598,838
668,7	1585,381
669,2	1578,352
669,6	1568,095
670,1	1558,895
670,5	1546,81
670,9	1536,781
671,4	1527,01
671,8	1522,924
672,3	1516,552
672,7	1507,495
673,1	1488,981
673,6	1477,781
674	1466,867
674,5	1459,981
674,9	1446,124
675,3	1433,41
675,8	1423,952
676,2	1423,981
676,7	1417,495
677,1	1407,695
677,5	1398,467
678	1391,981
678,4	1388,267
678,9	1376,81
679,3	1369,581
679,7	1362,352
680,2	1347,695
680,6	1336,838
681,1	1328,724
681,5	1315,41
681,9	1308,781
682,4	1299,867
682,8	1291,695
683,3	1290,352
683,7	1279,095
684,1	1264,324
684,6	1256,438
685	1246,581
685,5	1234,438
685,9	1218,981
686,3	1207,552
686,8	1204,524
687,2	1200,581
687,7	1188,61
688,1	1178,81
688,5	1175,667
689	1175,095
689,4	1173,695
689,9	1161,267
690,3	1152,838
690,7	1152,752
691,2	1148,21
691,6	1138,267
692	1124,295
692,5	1113,238
692,9	1109,324
693,4	1103,238
693,8	1091,095
694,2	1082,81
694,7	1074,324
695,1	1069,381
695,6	1063,581
696	1054,524
696,4	1046,295
696,9	1033,524
697,3	1029,41
697,8	1027,01
698,2	1021,352
698,6	1016,181
699,1	1004,352
699,5	1000,067
699,9	997,21
700,4	982,238
700,8	973,552
701,3	970,324
701,7	957,467
702,1	954,352
702,6	945,981
703	945,524
703,5	944,381
703,9	934,038
704,3	924,981
704,8	918,638
705,2	911,952
705,6	906,61
706,1	898,038
706,5	893,438
707	892,752
707,4	883,21
707,8	874,724
708,3	870,695
708,7	859,895
709,2	849,838
709,6	840,352
710	834,981
710,5	832,067
710,9	831,295
711,3	824,038
711,8	819,067
712,2	817,21
712,7	813,095
713,1	805,381
713,5	800,438
714	796,381
714,4	791,41
714,8	789,01
715,3	782,267
715,7	775,724
716,2	771,695
716,6	767,238
717	758,267
717,5	749,324
717,9	747,267
718,3	738,981
718,8	733,981
719,2	724,638
719,7	720,838
720,1	718,467
720,5	718,638
721	707,61
721,4	704,924
721,8	706,352
722,3	700,324
722,7	699,267
723,2	689,752
723,6	675,124
724	666,524
724,5	660,181
724,9	650,267
725,3	645,267
725,8	633,438
726,2	630,41
726,7	632,41
727,1	634,038
727,5	632,438
728	621,581
728,4	617,152
728,8	613,638
729,3	611,438
729,7	604,438
730,1	597,752
730,6	592,724
731	589,724
731,5	588,581
731,9	580,181
732,3	572,181
732,8	571,41
733,2	565,838
733,6	560,467
734,1	558,095
734,5	548,552
734,9	548,667
735,4	549,181
735,8	542,495
736,3	547,324
736,7	541,152
737,1	537,924
737,6	537,867
738	535,181
738,4	531,067
738,9	531,267
739,3	523,752
739,7	522,895
740,2	519,895
740,6	524,724
741,1	521,581
741,5	515,524
741,9	513,095
742,4	511,381
742,8	506,438
743,2	504,952
743,7	492,524
744,1	485,295
744,5	482,638
745	473,352
745,4	468,124
745,8	466,524
746,3	466,381
746,7	463,781
747,2	466,667
747,6	470,181
748	474,067
748,5	473,467
748,9	466,352
749,3	463,724
749,8	461,752
750,2	456,181
750,6	445,238
751,1	444,81
751,5	436,552
751,9	438,21
752,4	435,01
752,8	431,038
753,3	429,781
753,7	432,124
754,1	423,295
754,6	419,924
755	414,867
755,4	405,324
755,9	404,952
756,3	399,038
756,7	397,324
757,2	396,895
757,6	398,981
758	397,295
758,5	395,752
758,9	392,067
759,3	391,667
759,8	386,181
760,2	381,581
760,6	376,752
761,1	375,352
761,5	372,952
761,9	369,067
762,4	362,638
762,8	358,981
763,3	359,981
763,7	357,752
764,1	357,352
764,6	357,924
765	359,324
765,4	359,324
765,9	354,81
766,3	353,124
766,7	348,81
767,2	342,61
767,6	342,867
768	338,152
768,5	334,924
768,9	335,324
769,3	332,552
769,8	328,324
770,2	326,838
770,6	319,267
771,1	320,352
771,5	318,467
771,9	318,21
772,4	316,067
772,8	318,581
773,2	321,524
773,7	321,667
774,1	313,095
774,5	309,324
775	301,352
775,4	297,067
775,8	290,924
776,3	286,895
776,7	286,695
777,1	288,181
777,6	287,41
778	291,295
778,4	285,638
778,9	289,181
779,3	284,695
779,7	283,095
780,2	282,152
780,6	278,952
781	274,495
781,5	273,981
781,9	269,867
782,3	266,124
782,8	263,324
783,2	261,695
783,6	264,438
784,1	263,838
784,5	262,038
784,9	259,552
785,4	262,181
785,8	256,352
786,2	253,895
786,7	250,924
787,1	243,438
787,5	240,924
788	238,781
788,4	234,352
788,8	235,838
789,3	230,467
789,7	230,067
790,1	229,667
790,6	233,01
791	228,781
791,4	230,438
791,9	224,952
792,3	220,895
792,7	219,01
793,2	218,638
793,6	216,952
794	218,438
794,5	213,61
794,9	216,467
795,3	218,495
795,8	215,352
796,2	214,467
796,6	207,838
797,1	211,181
797,5	207,495
797,9	204,552
798,4	201,181
798,8	194,752
799,2	191,952
799,7	194,867
800,1	186,638
800,5	185,267
801	185,438
801,4	186,124
801,8	186,667
802,2	190,41
802,7	186,41
803,1	187,924
803,5	188,095
804	183,467
804,4	180,781
804,8	183,238
805,3	178,952
805,7	176,467
806,1	171,781
806,6	177,781
807	174,695
807,4	174,152
807,9	164,838
808,3	166,067
808,7	166,981
809,2	171,267
809,6	165,352
810	165,524
810,4	164,495
810,9	168,695
811,3	166,638
811,7	164,752
812,2	165,838
812,6	160,381
813	163,152
813,5	165,21
813,9	165,267
814,3	160,981
814,8	160,981
815,2	153,467
815,6	155,467
816,1	155,067
816,5	151,01
816,9	150,838
817,3	150,238
817,8	155,638
818,2	151,467
818,6	146,467
819,1	140,352
819,5	137,01
819,9	134,61
820,4	135,124
820,8	123,695
821,2	123,181
821,7	128,924
822,1	133,695
822,5	138,324
822,9	137,61
823,4	135,238
823,8	137,952
824,2	142,038
824,7	132,638
825,1	127,267
825,5	121,981
826	114,81
826,4	115,21
826,8	109,924
827,3	108,952
827,7	112,267
828,1	112,752
828,5	113,981
829	114,981
829,4	112,981
829,8	110,524
830,3	105,552
830,7	99,81
831,1	101,752
831,6	99,695
832	103,41
832,4	101,495
832,8	104,352
833,3	103,781
833,7	102,352
834,1	95,267
834,6	95,667
835	93,781
835,4	99,238
835,8	95,01
836,3	95,981
836,7	98,581
837,1	101,581
837,6	98,352
838	98,438
838,4	94,267
838,9	92,867
839,3	92,295
839,7	94,41
840,1	86,724
840,6	83,981
841	86,152
841,4	84,01
841,9	86,267
842,3	83,61
842,7	84,752
843,1	90,21
843,6	96,724
844	91,724
844,4	95,895
844,9	98,381
845,3	99,524
845,7	95,267
846,2	91,495
846,6	82,981
847	82,41
847,4	78,838
847,9	78,438
848,3	78,895
848,7	75,924
849,2	83,295
849,6	83,238
850	86,438
850,4	84,124
850,9	81,867
851,3	79,667
851,7	80,495
852,2	74,381
852,6	78,01
853	75,181
853,4	77,152
853,9	76,124
854,3	75,952
854,7	77,695
855,2	73,124
855,6	70,724
856	67,724
856,4	62,41
856,9	59,095
857,3	60,724
857,7	59,038
858,2	63,752
858,6	66,41
859	66,61
859,4	67,695
859,9	70,124
860,3	68,067
860,7	69,61
861,1	70,895
861,6	68,324
862	67,952
862,4	66,381
862,9	62,81
863,3	59,181
863,7	57,01
864,1	52,21
864,6	53,095
865	51,581
865,4	54,695
865,9	57,524
866,3	57,61
866,7	55,638
867,1	52,01
867,6	51,495
868	53,41
868,4	51,01
868,8	52,895
869,3	54,21
869,7	61,295
870,1	58,981
870,6	57,61
871	-16,476
871,4	-14,448
871,8	-19,362
872,3	-17,533
872,7	-24,19
873,1	-17,733
873,5	-18,733
874	49,952
874,4	46,952
874,8	49,667
875,3	46,667
875,7	44,438
876,1	46,638
876,5	47,295
877	51,324
877,4	49,838
877,8	49,124
878,2	50,867
878,7	56,81
879,1	52,495
879,5	54,324
879,9	54,781
880,4	55,581
880,8	56,038
881,2	51,867
881,7	45,61
882,1	46,324
882,5	40,095
882,9	38,61
883,4	36,352
883,8	35,495
884,2	38,038
884,6	38,724
885,1	40,667
885,5	41,238
885,9	39,61
886,3	41,21
886,8	38,095
887,2	33,267
887,6	34,267
888	28,895
888,5	32,781
888,9	33,152
889,3	34,267
889,8	37,552
890,2	40,867
890,6	36,924
891	41,21
891,5	36,952
891,9	39,495
892,3	41,981
892,7	42,352
893,2	44,438
893,6	46,81
894	44,667
894,4	46,038
894,9	41,524
895,3	39,067
895,7	37,838
896,1	35,495
896,6	38,152
897	41,752
897,4	42,467
897,8	45,838
898,3	50,295
898,7	47,41
899,1	46,667
899,5	41,695
900	33,295
900,4	36,524
900,8	33,067
901,2	22,81
901,7	22,867
902,1	28,524
902,5	32,695
902,9	36,01
903,4	34,438
903,8	36,124
904,2	38,324
904,6	38,952
905,1	34,352
905,5	33,667
905,9	37,895
906,3	35,495
906,8	36,467
907,2	36,924
907,6	38,781
908	36,867
908,5	34,324
908,9	27,124
909,3	29,724
909,7	27,638
910,2	28,238
910,6	31,895
911	29,581
911,4	29,352
911,9	29,81
912,3	28,01
912,7	30,124
913,1	29,181
913,6	21,638
914	24,81
914,4	22,295
914,8	24,21
915,3	19,61
915,7	16,581
916,1	17,41
916,5	19,21
916,9	18,524
917,4	21,352
917,8	24,381
918,2	22,81
918,6	20,467
919,1	19,61
919,5	21,524
919,9	24,467
920,3	26,095
920,8	24,381
921,2	27,495
921,6	30,324
922	29,067
922,5	25,81
922,9	21,638
923,3	20,01
923,7	18,724
924,2	16,695
924,6	16,781
925	16,781
925,4	18,667
925,8	21,295
926,3	24,638
926,7	24,467
927,1	27,095
927,5	29,867
928	31,924
928,4	28,095
928,8	29,41
929,2	23,838
929,7	22,124
930,1	23,295
930,5	17,895
930,9	19,552
931,3	23,952
931,8	19,267
932,2	19,238
932,6	19,638
933	10,867
933,5	15,238
933,9	13,552
934,3	13,895
934,7	14,924
935,2	18,324
935,6	19,81
936	27,324
936,4	24,067
936,8	23,038
937,3	18,981
937,7	19,552
938,1	19,895
938,5	15,124
939	15,467
939,4	17,438
939,8	15,095
940,2	14,495
940,6	17,038
941,1	15,238
941,5	23,41
941,9	19,124
942,3	18,21
942,8	22,124
943,2	23,981
943,6	15,952
944	19,152
944,4	14,838
944,9	12,495
945,3	11,41
945,7	6,124
946,1	5,324
946,6	6,924
947	4,695
947,4	6,21
947,8	11,81
948,2	8,41
948,7	11,952
949,1	13,981
949,5	21,552
949,9	17,667
950,3	13,867
950,8	12,895
951,2	12,981
951,6	8,352
952	8,638
952,5	1,01
952,9	6,238
953,3	6,781
953,7	7,467
954,1	13,781
954,6	19,981
955	17,61
955,4	20,41
955,8	20,924
956,2	25,01
956,7	27,21
957,1	24,295
957,5	25,381
957,9	27,724
958,3	26,152
958,8	24,952
959,2	27,181
959,6	22,952
960	20,695
960,5	20,267
960,9	20,524
961,3	17,952
961,7	13,867
962,1	10,895
962,6	12,61
963	14,01
963,4	8,095
963,8	7,524
964,2	10,067
964,7	15,352
965,1	17,781
965,5	17,381
965,9	15,152
966,3	21,695
966,8	19,838
967,2	22,724
967,6	18,067
968	7,381
968,4	2,81
968,9	8,724
969,3	8,838
969,7	6,124
970,1	6,61
970,5	8,495
971	14,038
971,4	15,924
971,8	15,095
972,2	11,524
972,6	13,752
973,1	9,838
973,5	8,41
973,9	12,238
974,3	13,381
974,7	17,295
975,2	21,924
975,6	22,352
976	25,638
976,4	25,41
976,8	19,638
977,3	21,067
977,7	11,152
978,1	6,295
978,5	1,581
978,9	-4,419
979,4	-6,762
979,8	-3,819
980,2	-4,162
980,6	-6,305
981	-2,476
981,5	2,01
981,9	3,41
982,3	7,667
982,7	7,038
983,1	6,638
983,6	12,638
984	12,267
984,4	13,952
984,8	13,81
985,2	10,638
985,6	6,495
986,1	7,067
986,5	6,895
986,9	-0,733
987,3	0,01
987,7	2,781
988,2	3,924
988,6	10,067
989	7,81
989,4	7,295
989,8	8,895
990,3	8,295
990,7	7,524
991,1	8,924
991,5	9,867
991,9	12,981
992,3	12,495
992,8	14,61
993,2	8,61
993,6	9,467
994	8,781
994,4	4,952
994,9	2,781
995,3	4,324
995,7	3,295
996,1	5,381
996,5	2,924
996,9	-1,219
997,4	1,638
997,8	-1,962
998,2	-4,59
998,6	-12,019
999	-9,733
999,5	-9,419
999,9	-6,533
1000,3	-8,562
1000,7	-5,076
1001,1	-4,105
1001,5	6,724
1002	5,781
1002,4	8,667
1002,8	9,21
1003,2	12,781
1003,6	16,352
1004	18,295
1004,5	16,21
1004,9	20,238
1005,3	16,438
1005,7	20,667
1006,1	16,038
1006,6	11,324
1007	12,324
1007,4	13,324
1007,8	9,495
1008,2	8,638
1008,6	6,181
1009,1	3,181
1009,5	7,867
1009,9	6,867
1010,3	5,895
1010,7	6,981
1011,1	10,724
1011,6	10,752
1012	14,638
1012,4	12,295
1012,8	9,067
1013,2	13,495
1013,6	11,867
1014,1	13,867
1014,5	14,038
1014,9	14,61
1015,3	11,952
1015,7	13,324
1016,1	6,952
1016,6	9,467
1017	5,638
1017,4	5,924
1017,8	4,438
1018,2	5,152
1018,6	5,867
1019,1	6,067
1019,5	5,01
1019,9	7,467
1020,3	5,838
1020,7	6,724
1021,1	7,524
1021,6	8,438
1022	11,638
1022,4	12,61
1022,8	13,467
1023,2	13,981
1023,6	15,524
1024,1	22,124
1024,5	26,067
1024,9	22,867
1025,3	17,067
1025,7	14,295
1026,1	16,981
1026,6	16,61
1027	8,695
1027,4	5,895
1027,8	11,667
1028,2	14,61
1028,6	18,467
1029	14,21
1029,5	16,695
1029,9	14,267
1030,3	12,438
1030,7	5,524
1031,1	12,181
1031,5	7,838
1032	8,667
1032,4	3,295
1032,8	7,981
1033,2	7,038
1033,6	7,124
1034	0,752
1034,4	4,238
1034,9	3,267
1035,3	3,924
1035,7	4,667
1036,1	4,752
1036,5	4,152
1036,9	6,324
1037,4	8,21
1037,8	5,752
1038,2	8,781
1038,6	7,638
1039	13,581
1039,4	24,352
1039,8	21,752
1040,3	16,695
1040,7	17,352
1041,1	21,381
1041,5	22,124
1041,9	11,695
1042,3	3,267
1042,7	6,838
1043,2	5,895
1043,6	5,695
1044	0,495
1044,4	0,295
1044,8	7,181
1045,2	9,467
1045,6	10,038
1046,1	10,981
1046,5	10,324
1046,9	10,352
1047,3	9,495
1047,7	2,324
1048,1	2,867
1048,5	-1,19
1049	5,067
1049,4	15,038
1049,8	13,324
1050,2	10,724
1050,6	17,438
1051	16,438
1051,4	18,524
1051,9	13,467
1052,3	13,81
1052,7	14,924
1053,1	10,695
1053,5	12,981
1053,9	14,381
1054,3	13,438
1054,8	19,124
1055,2	16,752
1055,6	19,267
1056	24,467
1056,4	20,867
1056,8	17,695
1057,2	18,295
1057,6	10,495
1058,1	4,638
1058,5	1,952
1058,9	7,181
1059,3	9,638
1059,7	16,495
1060,1	16,695
1060,5	17,181
1061	18,267
1061,4	15,467
1061,8	14,781
1062,2	16,01
1062,6	10,667
1063	12,781
1063,4	14,381
1063,8	11,238
1064,3	9,667
1064,7	9,152
1065,1	2,552
1065,5	-2,648
1065,9	-2,333
1066,3	-5,162
1066,7	-0,905
1067,1	-3,362
1067,6	-2,619
1068	-5,619
1068,4	1,667
1068,8	-0,276
1069,2	2,552
1069,6	-2,848
1070	7,152
1070,4	2,724
1070,9	5,752
1071,3	1,581
1071,7	0,181
1072,1	1,381
1072,5	5,924
1072,9	3,238
1073,3	7,467
1073,7	7,21
1074,2	5,61
1074,6	8,81
1075	5,952
1075,4	4,781
1075,8	4,238
1076,2	2,067
1076,6	5,41
1077	3,924
1077,5	1,181
1077,9	1,981
1078,3	3,295
1078,7	3,352
1079,1	2,124
1079,5	-1,448
1079,9	4,267
1080,3	4,895
1080,7	6,438
1081,2	9,752
1081,6	6,61
1082	9,295
1082,4	18,638
1082,8	16,467
1083,2	15,038
1083,6	13,724
1084	7,181
1084,5	10,21
1084,9	5,095
1085,3	-4,39
1085,7	-4,59
1086,1	-2,019
1086,5	2,01
1086,9	5,381
1087,3	8,095
1087,7	9,267
1088,2	11,952
1088,6	12,952
1089	15,952
1089,4	15,038
1089,8	18,467
1090,2	12,181
1090,6	12,867
1091	16,81
1091,4	19,01
1091,9	15,524
1092,3	16,181
1092,7	12,295
1093,1	14,495
1093,5	15,724
1093,9	12,495
1094,3	13,752
1094,7	11,352
1095,1	11,067
1095,5	10,81
1096	9,124
1096,4	8,352
1096,8	9,895
1097,2	5,952
1097,6	12,295
1098	11,295
1098,4	11,467
1098,8	17,152
1099,2	24,695
1099,6	22,01
1100,1	22,781
1100,5	13,381
1100,9	11,895
1101,3	13,981
1101,7	8,41
1102,1	2,838
1102,5	5,124
1102,9	3,352
1103,3	10,038
1103,7	9,867
1104,2	6,01
1104,6	9,81
1105	6,41
1105,4	7,067
1105,8	6,895
1106,2	3,352
1106,6	1,924
1107	2,981
1107,4	0,967
1107,8	3,667
1108,3	-0,583
