Data from Subt2_141.txt Node
Date: Sat Aug 26 18:29:13 MSK 2023
User: vat
Spectrometer: MAYP114033
Trigger mode: 0
Integration Time (sec): 1,000000E0
Scans to average: 5
Electric dark correction enabled: true
Nonlinearity correction enabled: false
Boxcar width: 3
XAxis mode: Wavelengths
Number of Pixels in Spectrum: 2068
>>>>>Begin Spectral Data<<<<<
199,4	0,55
199,9	2,2
200,4	-1,433
200,8	-3,971
201,3	-4,657
201,8	-1,657
202,2	-4,314
202,7	-2,114
203,2	-5,229
203,6	-1,829
204,1	-2,314
204,6	1,114
205	-1,714
205,5	0,371
206	-1,886
206,4	0,514
206,9	-1
207,4	2,629
207,8	-0,971
208,3	-1,429
208,8	0,314
209,2	2,829
209,7	4,257
210,2	5,343
210,6	6,743
211,1	7,171
211,5	6,771
212	7,6
212,5	4,086
212,9	3,029
213,4	3,171
213,9	1,714
214,3	1,4
214,8	2,886
215,3	-4,486
215,7	0,457
216,2	-0,829
216,7	1,486
217,1	0,257
217,6	4,057
218,1	0,143
218,5	4,571
219	-2,4
219,5	0,286
219,9	-4,514
220,4	4,371
220,9	2,771
221,3	6,571
221,8	6,914
222,3	8,343
222,7	11,743
223,2	13,857
223,6	6,971
224,1	3,714
224,6	3,743
225	-0,371
225,5	-0,486
226	-7,229
226,4	-4,114
226,9	-4,371
227,4	0
227,8	-2,743
228,3	-0,857
228,8	2,143
229,2	5,657
229,7	2,171
230,2	2,857
230,6	6,457
231,1	12,486
231,5	14,8
232	15,314
232,5	15,4
232,9	14,429
233,4	11,514
233,9	2,829
234,3	-0,6
234,8	3,743
235,3	0,171
235,7	2,314
236,2	5,6
236,7	6,486
237,1	9,714
237,6	6,6
238,1	-0,829
238,5	-4,114
239	-5,086
239,4	-5,4
239,9	-4,886
240,4	-4,771
240,8	3,971
241,3	6
241,8	7,2
242,2	6,171
242,7	3,229
243,2	0,857
243,6	-0,6
244,1	-4,257
244,6	-4,657
245	-3,543
245,5	-8,086
245,9	-9,057
246,4	-9,114
246,9	-5,8
247,3	-8,514
247,8	-3,457
248,3	0,229
248,7	5,343
249,2	5,8
249,7	7,6
250,1	5,029
250,6	2,886
251	1,6
251,5	0,857
252	0,543
252,4	3,343
252,9	3,229
253,4	1,171
253,8	2,6
254,3	4,086
254,8	2,971
255,2	-2,286
255,7	0,371
256,1	-0,029
256,6	4,971
257,1	8,343
257,5	6,857
258	6,143
258,5	6,943
258,9	2,657
259,4	5,543
259,9	7,371
260,3	2,714
260,8	-1,6
261,2	1,2
261,7	5,686
262,2	3,429
262,6	0,343
263,1	-1,114
263,6	0,371
264	2,371
264,5	4,4
264,9	0,714
265,4	5,314
265,9	1,829
266,3	0,857
266,8	3
267,3	2,857
267,7	-1,486
268,2	-1,714
268,7	-2,686
269,1	1,857
269,6	-1,829
270	-0,171
270,5	-5,029
271	-1,371
271,4	2,429
271,9	0,029
272,4	1,143
272,8	6,486
273,3	0,543
273,7	6,943
274,2	3,771
274,7	1,829
275,1	3,457
275,6	2,743
276,1	-0,143
276,5	5,029
277	4,114
277,4	4,971
277,9	4,371
278,4	6,371
278,8	7,6
279,3	8,514
279,8	9,143
280,2	8,429
280,7	8,143
281,1	3,971
281,6	2,114
282,1	0,286
282,5	-2,257
283	-6,857
283,4	-3,143
283,9	-4,029
284,4	3,486
284,8	1,971
285,3	2,171
285,8	3,857
286,2	7,114
286,7	1,257
287,1	4,2
287,6	-0,029
288,1	-2,4
288,5	1,571
289	-2,086
289,5	-2
289,9	-2,343
290,4	-2,371
290,8	-1,343
291,3	1
291,8	-2,371
292,2	-1,514
292,7	1,029
293,1	4,771
293,6	3,371
294,1	6,2
294,5	6,657
295	5,429
295,5	5,229
295,9	1,829
296,4	-1,571
296,8	-3,771
297,3	-7,429
297,8	-8,314
298,2	-8,314
298,7	-5,771
299,1	-5,771
299,6	-5,314
300,1	-2,8
300,5	-1,829
301	0,171
301,5	6,057
301,9	4,143
302,4	2,371
302,8	3,143
303,3	3,543
303,8	2,257
304,2	3,171
304,7	-1,114
305,1	-3
305,6	-3,229
306,1	0,543
306,5	1,4
307	9,086
307,4	10,8
307,9	8,8
308,4	12,086
308,8	11
309,3	6,714
309,8	4,6
310,2	0,343
310,7	-6,771
311,1	-4,543
311,6	-3,257
312,1	-2,057
312,5	2,257
313	7,314
313,4	0,657
313,9	4,8
314,4	3,4
314,8	0,2
315,3	2,086
315,7	-6,514
316,2	-9,886
316,7	-6,029
317,1	-8,343
317,6	-8,086
318	-3,286
318,5	-3,914
319	-0,571
319,4	-3,571
319,9	1,629
320,3	2,971
320,8	4,743
321,3	5,857
321,7	5,743
322,2	5,543
322,6	7,314
323,1	3,314
323,6	3,886
324	-0,429
324,5	-4,571
324,9	-3,771
325,4	-2,229
325,9	2,2
326,3	1,629
326,8	3,771
327,2	3,571
327,7	4,571
328,2	3,143
328,6	6,743
329,1	-1,057
329,5	-1,743
330	-3,971
330,5	0,571
330,9	2,143
331,4	2,086
331,8	-1,4
332,3	7,4
332,8	11,429
333,2	9,714
333,7	10,057
334,1	7,457
334,6	6,143
335,1	3,143
335,5	0,457
336	-4,343
336,4	0,6
336,9	2,971
337,4	5,743
337,8	7,514
338,3	14,114
338,7	13,629
339,2	10,486
339,7	10,714
340,1	5,914
340,6	1,857
341	-2
341,5	-4,657
342	-9,429
342,4	-7,343
342,9	-14,4
343,3	-11,229
343,8	-11,571
344,2	-10,171
344,7	-9,314
345,2	-8,143
345,6	-4,629
346,1	1,2
346,5	-6,371
347	-6,2
347,5	-3,257
347,9	0,2
348,4	0,971
348,8	-1,4
349,3	-1,771
349,8	4,914
350,2	9,771
350,7	9,143
351,1	5,171
351,6	10,429
352	14,657
352,5	18,114
353	24,8
353,4	29,743
353,9	40,571
354,3	45,314
354,8	50,771
355,3	63,943
355,7	80,886
356,2	93,886
356,6	111,429
357,1	131,086
357,5	158,829
358	186,6
358,5	214,029
358,9	239,914
359,4	269,6
359,8	303,686
360,3	348,971
360,8	397,914
361,2	449,343
361,7	505,543
362,1	581,771
362,6	660,629
363	743,086
363,5	823,943
364	920,143
364,4	1009,571
364,9	1102,343
365,3	1185,514
365,8	1264,257
366,3	1343,714
366,7	1417,686
367,2	1479,057
367,6	1532,971
368,1	1577,686
368,5	1606,6
369	1623,6
369,5	1625,4
369,9	1610,657
370,4	1580,029
370,8	1545
371,3	1494,286
371,7	1439,571
372,2	1377,714
372,7	1318,371
373,1	1250,686
373,6	1177,571
374	1106,571
374,5	1036,029
374,9	967,6
375,4	901,886
375,9	831,971
376,3	768
376,8	707,857
377,2	650,371
377,7	598,829
378,2	543,057
378,6	500,629
379,1	455,2
379,5	419,8
380	387,543
380,4	356,371
380,9	326,286
381,4	296,829
381,8	271,543
382,3	254,829
382,7	231,886
383,2	216,686
383,6	201,486
384,1	188,714
384,6	179,943
385	167,743
385,5	152,429
385,9	142,657
386,4	126,743
386,8	119,371
387,3	107,714
387,7	101,057
388,2	96,514
388,7	90,171
389,1	84,486
389,6	81,743
390	75,486
390,5	74,857
390,9	72,2
391,4	65,571
391,9	60,6
392,3	59,457
392,8	54,743
393,2	50,2
393,7	46,114
394,1	40,343
394,6	36,8
395,1	37,829
395,5	32,771
396	34,714
396,4	32,343
396,9	28,6
397,3	32,771
397,8	36,371
398,2	33,971
398,7	35,743
399,2	36,114
399,6	40,743
400,1	42,143
400,5	34,571
401	30,714
401,4	29,314
401,9	32,686
402,4	32,143
402,8	25,971
403,3	32,143
403,7	36
404,2	39,2
404,6	38,971
405,1	34,286
405,5	31,943
406	31,486
406,5	26,543
406,9	25,914
407,4	27,629
407,8	30,571
408,3	37,371
408,7	36,971
409,2	47,257
409,6	54,286
410,1	59,971
410,6	64,743
411	73,114
411,5	73,629
411,9	84,314
412,4	84,6
412,8	86,6
413,3	95,114
413,7	97,771
414,2	97,514
414,7	108,857
415,1	114,686
415,6	123,914
416	132,114
416,5	134,8
416,9	141,629
417,4	155,657
417,8	166,171
418,3	176,4
418,8	187,657
419,2	194,971
419,7	206,143
420,1	221,543
420,6	232,6
421	234
421,5	247,086
421,9	257,286
422,4	271,8
422,8	284,143
423,3	290,771
423,8	300,686
424,2	314,171
424,7	324,6
425,1	336,6
425,6	352,171
426	365,4
426,5	383,114
426,9	403,143
427,4	421,971
427,9	438,857
428,3	463
428,8	484,143
429,2	506,457
429,7	528,657
430,1	547,771
430,6	575,457
431	604,629
431,5	632,143
431,9	658,171
432,4	696,543
432,8	735,6
433,3	774,686
433,8	812,486
434,2	851,771
434,7	893,029
435,1	938,457
435,6	979,2
436	1025,543
436,5	1075,943
436,9	1123,743
437,4	1174,429
437,8	1227,514
438,3	1284,629
438,8	1339,514
439,2	1395,486
439,7	1457,343
440,1	1526,086
440,6	1596,629
441	1665,343
441,5	1738,657
441,9	1821,743
442,4	1895,486
442,8	1979,429
443,3	2062,886
443,7	2146,171
444,2	2237,714
444,7	2325,314
445,1	2415,857
445,6	2514,829
446	2616,257
446,5	2710
446,9	2807,914
447,4	2909,114
447,8	3018,2
448,3	3134,743
448,7	3252,029
449,2	3360,686
449,6	3484,286
450,1	3609,429
450,6	3737,171
451	3860,629
451,5	3985,286
451,9	4120,286
452,4	4254,314
452,8	4388,686
453,3	4529,943
453,7	4669,114
454,2	4819,914
454,6	4962,314
455,1	5105,6
455,5	5248,743
456	5404,829
456,4	5549,343
456,9	5710,771
457,3	5859,714
457,8	6013,714
458,3	6175,029
458,7	6338,943
459,2	6494,371
459,6	6663,2
460,1	6823,086
460,5	6988,571
461	7152,771
461,4	7316,343
461,9	7478,114
462,3	7652,486
462,8	7825,829
463,2	7995,571
463,7	8166,2
464,1	8344,343
464,6	8513,457
465	8685,629
465,5	8846,857
466	9010,971
466,4	9174,486
466,9	9349,286
467,3	9504,029
467,8	9663,486
468,2	9826,514
468,7	9992,629
469,1	10153,114
469,6	10305,257
470	10453,914
470,5	10619,086
470,9	10776,114
471,4	10919,714
471,8	11066,029
472,3	11210,886
472,7	11360,886
473,2	11500,8
473,6	11625,343
474,1	11758,229
474,5	11906,314
475	12033
475,4	12169,886
475,9	12300,571
476,4	12426,257
476,8	12554,371
477,3	12668,143
477,7	12782,4
478,2	12898,457
478,6	12993,314
479,1	13084,257
479,5	13187,943
480	13285,543
480,4	13389,486
480,9	13459,429
481,3	13544,143
481,8	13630,029
482,2	13709,2
482,7	13772,257
483,1	13833,343
483,6	13885,257
484	13947,229
484,5	13999,629
484,9	14038
485,4	14082,914
485,8	14114,171
486,3	14153,543
486,7	14192,286
487,2	14223,743
487,6	14236,029
488,1	14260,286
488,5	14271,971
489	14283,714
489,4	14286,714
489,9	14272,171
490,4	14267,486
490,8	14269,543
491,3	14257,886
491,7	14243,114
492,2	14231,543
492,6	14207,943
493,1	14178,943
493,5	14139,886
494	14106,2
494,4	14077,743
494,9	14032,771
495,3	13993,314
495,8	13946,571
496,2	13918,886
496,7	13867,857
497,1	13823,629
497,6	13760,971
498	13704,971
498,5	13649,971
498,9	13589,686
499,4	13516,229
499,8	13461,543
500,3	13388,2
500,7	13322,857
501,2	13248,029
501,6	13170
502,1	13100,829
502,5	13029,086
503	12955,6
503,4	12881,343
503,9	12794,543
504,3	12717,543
504,8	12637,029
505,2	12549
505,7	12470,486
506,1	12385,714
506,6	12278
507	12189,486
507,5	12107
507,9	12007,829
508,4	11913,971
508,8	11810,657
509,3	11710,714
509,7	11625,971
510,2	11531,914
510,6	11428,914
511,1	11331,971
511,5	11226,286
512	11134,457
512,4	11041,771
512,9	10934,4
513,3	10834,457
513,8	10735,771
514,2	10627,914
514,7	10533,114
515,1	10419,571
515,6	10300,829
516	10199,086
516,5	10095,257
516,9	9991,714
517,4	9898,143
517,8	9792,8
518,3	9690,686
518,7	9598,114
519,2	9501,971
519,6	9394,343
520,1	9290,914
520,5	9186,629
521	9080,086
521,4	8986,314
521,9	8888,229
522,3	8783,771
522,8	8691,029
523,2	8591,886
523,7	8496,114
524,1	8411,6
524,6	8312,714
525	8214,886
525,5	8128,286
525,9	8035,4
526,4	7941,8
526,8	7851,771
527,3	7763,829
527,7	7681,514
528,2	7594,514
528,6	7501,4
529,1	7411,857
529,5	7339,886
530	7257,743
530,4	7168,343
530,9	7079,4
531,3	6997,829
531,8	6921,714
532,2	6844,714
532,6	6758,857
533,1	6674,286
533,5	6599,429
534	6521,743
534,4	6447,486
534,9	6372,457
535,3	6294,6
535,8	6216,514
536,2	6146,029
536,7	6078,257
537,1	6007,371
537,6	5937,971
538	5872,343
538,5	5805,457
538,9	5736,486
539,4	5682,6
539,8	5611,543
540,3	5551,771
540,7	5487,4
541,2	5418,229
541,6	5361,8
542,1	5312,886
542,5	5241,286
543	5187,829
543,4	5125,286
543,9	5070,857
544,3	5020,886
544,8	4960,029
545,2	4903,429
545,7	4852,371
546,1	4803,229
546,5	4748,857
547	4701,171
547,4	4653,371
547,9	4608,971
548,3	4562,314
548,8	4516,8
549,2	4458,229
549,7	4422,171
550,1	4374,857
550,6	4324,857
551	4278,343
551,5	4231,8
551,9	4184,629
552,4	4142,886
552,8	4097,514
553,3	4053,943
553,7	4015,857
554,2	3981,257
554,6	3938,914
555,1	3900,229
555,5	3869,143
555,9	3827,314
556,4	3787,2
556,8	3747,829
557,3	3704,171
557,7	3670,686
558,2	3640,2
558,6	3604,457
559,1	3569,943
559,5	3542,114
560	3507,286
560,4	3478,114
560,9	3435,143
561,3	3399,914
561,8	3364,257
562,2	3337,257
562,7	3297,086
563,1	3273,371
563,6	3233,171
564	3211,514
564,4	3176,857
564,9	3150,657
565,3	3121,943
565,8	3098,6
566,2	3064,571
566,7	3056,143
567,1	3029,971
567,6	3011,514
568	2980,514
568,5	2952,086
568,9	2927,771
569,4	2901,714
569,8	2866,914
570,3	2839,629
570,7	2805,657
571,1	2785,543
571,6	2762,857
572	2735,571
572,5	2713,629
572,9	2689,914
573,4	2666,257
573,8	2653,857
574,3	2635,686
574,7	2607,914
575,2	2586,114
575,6	2563,2
576,1	2544,657
576,5	2529,486
576,9	2503,057
577,4	2473,971
577,8	2457,857
578,3	2438,286
578,7	2419,257
579,2	2401,514
579,6	2379,171
580,1	2353,8
580,5	2340,257
581	2320,971
581,4	2300,714
581,9	2279,314
582,3	2255,686
582,7	2236,6
583,2	2222,229
583,6	2201,429
584,1	2186,343
584,5	2164,029
585	2147
585,4	2123,114
585,9	2107,829
586,3	2090,143
586,8	2077,314
587,2	2058,714
587,6	2054,2
588,1	2040,8
588,5	2029,8
589	2014,914
589,4	2001,429
589,9	1984,4
590,3	1967,886
590,8	1952,8
591,2	1942,429
591,7	1931,543
592,1	1912,743
592,5	1905,286
593	1887,029
593,4	1879,514
593,9	1861,229
594,3	1842,086
594,8	1828,457
595,2	1816,114
595,7	1797,571
596,1	1790,971
596,6	1772,686
597	1760,829
597,4	1753,114
597,9	1738,343
598,3	1734,629
598,8	1721,514
599,2	1708,314
599,7	1699,829
600,1	1687,629
600,6	1674,457
601	1667,857
601,4	1662,086
601,9	1654,686
602,3	1642,314
602,8	1631,629
603,2	1618,086
603,7	1608,257
604,1	1597,257
604,6	1573,029
605	1556,229
605,4	1549,229
605,9	1539,2
606,3	1528,943
606,8	1516
607,2	1505,143
607,7	1495,086
608,1	1492,914
608,6	1482,429
609	1474,371
609,4	1472,657
609,9	1463,886
610,3	1454,429
610,8	1443,686
611,2	1434,171
611,7	1424,229
612,1	1410,886
612,6	1398,514
613	1391,429
613,4	1379,2
613,9	1373,457
614,3	1357,657
614,8	1352,771
615,2	1341,743
615,7	1333,943
616,1	1321,971
616,6	1312,229
617	1298,571
617,4	1295,057
617,9	1282,2
618,3	1278,229
618,8	1270,514
619,2	1261,314
619,7	1257,943
620,1	1252,314
620,5	1246,371
621	1237,657
621,4	1230,2
621,9	1217
622,3	1209,514
622,8	1199,286
623,2	1194
623,6	1180,029
624,1	1175,514
624,5	1166,857
625	1163,429
625,4	1153,371
625,9	1145,286
626,3	1136,829
626,8	1130,629
627,2	1120,6
627,6	1106,743
628,1	1093,114
628,5	1091,457
629	1083,286
629,4	1074,086
629,9	1063,314
630,3	1050,486
630,7	1047,029
631,2	1043,743
631,6	1034,029
632,1	1027,657
632,5	1022,457
633	1020,514
633,4	1017,543
633,8	1009,6
634,3	1001,886
634,7	996,257
635,2	984,6
635,6	978,629
636,1	968,629
636,5	960,857
636,9	953,943
637,4	945,971
637,8	933,571
638,3	924,657
638,7	914,314
639,2	906,743
639,6	904,543
640	893,314
640,5	889,657
640,9	886,371
641,4	887,171
641,8	885,314
642,2	885,086
642,7	880,371
643,1	884,657
643,6	875,914
644	870,743
644,5	863,8
644,9	858,686
645,3	847,457
645,8	835,086
646,2	827,657
646,7	823,943
647,1	821,886
647,6	818,714
648	813,686
648,4	810,657
648,9	809
649,3	797,514
649,8	794,8
650,2	788
650,6	782,314
651,1	772,8
651,5	770,229
652	762,257
652,4	758,286
652,9	750,829
653,3	742,171
653,7	733,4
654,2	733,286
654,6	722,686
655,1	724,314
655,5	722,4
655,9	718,229
656,4	717,286
656,8	711,057
657,3	705,943
657,7	710,571
658,2	701,029
658,6	697,714
659	689,114
659,5	681,771
659,9	677,657
660,4	670,514
660,8	657,229
661,2	651,429
661,7	644,171
662,1	642,114
662,6	636,457
663	636,429
663,4	633,086
663,9	632,571
664,3	630
664,8	623,114
665,2	618,171
665,6	617,086
666,1	611,371
666,5	608,057
667	601,457
667,4	596,057
667,9	593,857
668,3	591
668,7	581,857
669,2	580,114
669,6	573,4
670,1	568,571
670,5	562,657
670,9	561,429
671,4	557,857
671,8	559,371
672,3	561,571
672,7	559,571
673,1	552,629
673,6	549,686
674	546,057
674,5	539,543
674,9	525,029
675,3	510,8
675,8	506,6
676,2	503,086
676,7	497,486
677,1	489,914
677,5	485,743
678	493,971
678,4	496,257
678,9	490,914
679,3	490,629
679,7	488,971
680,2	483,8
680,6	479,886
681,1	474,286
681,5	473,571
681,9	475,143
682,4	474,457
682,8	473,543
683,3	477,514
683,7	480,029
684,1	473,829
684,6	462,171
685	454,229
685,5	451,771
685,9	442,514
686,3	433,314
686,8	428,514
687,2	426,514
687,7	425,743
688,1	422,029
688,5	417,229
689	421,886
689,4	419,371
689,9	412,286
690,3	408,229
690,7	407,714
691,2	409,429
691,6	408,914
692	403,229
692,5	404,714
692,9	406,771
693,4	400,943
693,8	394,286
694,2	388,086
694,7	382,457
695,1	377,514
695,6	373,714
696	371,629
696,4	373,429
696,9	370,6
697,3	364,229
697,8	362,2
698,2	360,029
698,6	357
699,1	350,914
699,5	351,457
699,9	349,4
700,4	345,943
700,8	344,143
701,3	342,2
701,7	334,829
702,1	334,714
702,6	329,057
703	325,543
703,5	325,114
703,9	322,057
704,3	322,343
704,8	321,257
705,2	317,229
705,6	314,914
706,1	313,914
706,5	312,6
707	310,029
707,4	308,886
707,8	306,057
708,3	302,114
708,7	299,514
709,2	296,914
709,6	295,629
710	295,8
710,5	288,829
710,9	290,6
711,3	287,629
711,8	287,371
712,2	286,543
712,7	280,857
713,1	277,629
713,5	277,686
714	277,886
714,4	279,029
714,8	277,686
715,3	274,543
715,7	276,714
716,2	273,857
716,6	273,286
717	268,2
717,5	265,971
717,9	265,486
718,3	262
718,8	259,057
719,2	257
719,7	256,4
720,1	253,771
720,5	256,314
721	252,8
721,4	251,971
721,8	254,314
722,3	248,314
722,7	246,771
723,2	243,543
723,6	231,514
724	229,343
724,5	225,057
724,9	220,343
725,3	218,571
725,8	215,914
726,2	213,743
726,7	214,8
727,1	212,171
727,5	215,314
728	211,829
728,4	212,914
728,8	207,029
729,3	204,714
729,7	204,686
730,1	201,2
730,6	202,457
731	200,629
731,5	200,8
731,9	198,257
732,3	201,029
732,8	201,571
733,2	197,657
733,6	189,771
734,1	189
734,5	183,543
734,9	186
735,4	184,743
735,8	182,857
736,3	185,857
736,7	185,314
737,1	186,771
737,6	187,657
738	185,371
738,4	184,829
738,9	185,143
739,3	180,686
739,7	181,171
740,2	179,029
740,6	182,057
741,1	183,486
741,5	179,486
741,9	178,086
742,4	182,514
742,8	183,571
743,2	182,8
743,7	179,429
744,1	174,229
744,5	173,886
745	169,571
745,4	163,743
745,8	164,371
746,3	162,914
746,7	160,6
747,2	162,171
747,6	165,2
748	169,114
748,5	174,114
748,9	167,371
749,3	166,2
749,8	165,371
750,2	166,486
750,6	158,971
751,1	153,571
751,5	150,914
751,9	151,857
752,4	149,886
752,8	150,629
753,3	147,943
753,7	152,771
754,1	151,057
754,6	147,371
755	143,543
755,4	141,371
755,9	143,886
756,3	142,543
756,7	139,171
757,2	139,943
757,6	140,943
758	143,6
758,5	144,229
758,9	140,714
759,3	139,114
759,8	137,657
760,2	137,229
760,6	133,343
761,1	128,029
761,5	126,429
761,9	120,8
762,4	120,771
762,8	118,886
763,3	116,829
763,7	120,057
764,1	121,171
764,6	119,143
765	125,143
765,4	123,486
765,9	123,371
766,3	124,857
766,7	123,229
767,2	121,486
767,6	124,6
768	119,2
768,5	117,086
768,9	114,314
769,3	112,743
769,8	110,657
770,2	113,486
770,6	110,2
771,1	113,286
771,5	116,429
771,9	121,857
772,4	125,229
772,8	127,6
773,2	129,114
773,7	130,486
774,1	125,886
774,5	117,571
775	113,2
775,4	108,486
775,8	102,6
776,3	99,914
776,7	95,629
777,1	94,914
777,6	100,714
778	101,629
778,4	98,943
778,9	101,029
779,3	99,571
779,7	102,229
780,2	104,857
780,6	106,371
781	103,714
781,5	97,629
781,9	97,4
782,3	96,6
782,8	96,343
783,2	91,486
783,6	89,886
784,1	90,143
784,5	94,943
784,9	95,971
785,4	97,429
785,8	99,886
786,2	102,6
786,7	100,943
787,1	101,2
787,5	99,829
788	93,914
788,4	92,314
788,8	86,657
789,3	78,171
789,7	76,257
790,1	77,457
790,6	81,829
791	84,771
791,4	86,971
791,9	85,457
792,3	90,343
792,7	92,771
793,2	87,886
793,6	85,771
794	85,486
794,5	80,514
794,9	83,6
795,3	86,771
795,8	83,829
796,2	81,629
796,6	82,429
797,1	81,371
797,5	78,743
797,9	74,457
798,4	67,943
798,8	66,086
799,2	67,486
799,7	65,714
800,1	63,857
800,5	65,629
801	68,6
801,4	69,857
801,8	69,143
802,2	69,114
802,7	65,657
803,1	66,257
803,5	67,086
804	62,086
804,4	63,286
804,8	64,571
805,3	68,086
805,7	66,114
806,1	66,629
806,6	67,486
807	70,2
807,4	66,143
807,9	60,086
808,3	54,4
808,7	59,457
809,2	62,886
809,6	62,771
810	59,314
810,4	61,743
810,9	67,257
811,3	69,914
811,7	66,686
812,2	64,114
812,6	64,257
813	68,371
813,5	70,343
813,9	64,914
814,3	60,8
814,8	60,743
815,2	56,714
815,6	54,971
816,1	57,714
816,5	55
816,9	60,229
817,3	62,314
817,8	65,571
818,2	68,029
818,6	62,257
819,1	56,857
819,5	55,257
819,9	53
820,4	51,343
820,8	48,886
821,2	43,4
821,7	46,486
822,1	50,686
822,5	57,686
822,9	57,543
823,4	56,743
823,8	56,829
824,2	60,171
824,7	55,314
825,1	45,143
825,5	36,457
826	30,086
826,4	30,514
826,8	27,571
827,3	33,8
827,7	36,171
828,1	38,171
828,5	44,857
829	47,486
829,4	46,771
829,8	43,286
830,3	35,229
830,7	37,829
831,1	45,171
831,6	39,029
832	44,029
832,4	42,543
832,8	48,686
833,3	48,943
833,7	45,286
834,1	38,914
834,6	35,8
835	31,943
835,4	33,343
835,8	29,257
836,3	29,714
836,7	31,086
837,1	28,057
837,6	34,886
838	34
838,4	34,429
838,9	34,971
839,3	32,4
839,7	33,429
840,1	29,143
840,6	25,571
841	27,743
841,4	27,457
841,9	27,857
842,3	29,257
842,7	27,886
843,1	35,343
843,6	36,829
844	34,314
844,4	38,629
844,9	40,4
845,3	38,286
845,7	41,571
846,2	38,229
846,6	34,686
847	34,771
847,4	30,486
847,9	26,714
848,3	24,657
848,7	19,086
849,2	21,714
849,6	18,8
850	24,971
850,4	25,314
850,9	27,571
851,3	30,229
851,7	34,057
852,2	31,914
852,6	41,629
853	35,171
853,4	30,143
853,9	26,857
854,3	27,914
854,7	27,286
855,2	29,2
855,6	23,343
856	22,229
856,4	21,486
856,9	21
857,3	20,114
857,7	20,571
858,2	22,829
858,6	24,171
859	24,486
859,4	27,829
859,9	26,229
860,3	22,229
860,7	21,4
861,1	15,629
861,6	12,771
862	15,2
862,4	11,971
862,9	13,543
863,3	18,829
863,7	20,486
864,1	23,171
864,6	20,914
865	20,143
865,4	25,229
865,9	28,914
866,3	23,171
866,7	20,943
867,1	15,4
867,6	18,629
868	18,229
868,4	15,4
868,8	12,943
869,3	15,429
869,7	18,943
870,1	22,143
870,6	20,343
871	-59,229
871,4	-52,314
871,8	-54,457
872,3	-51,743
872,7	-58,543
873,1	-56,229
873,5	-56,2
874	19,143
874,4	16,629
874,8	15,971
875,3	15,286
875,7	18,457
876,1	16,314
876,5	16,371
877	15,943
877,4	10,543
877,8	16,4
878,2	17,457
878,7	17,029
879,1	18,6
879,5	19,771
879,9	25
880,4	24,457
880,8	24,914
881,2	24,057
881,7	20,657
882,1	18,771
882,5	18,6
882,9	14,571
883,4	15,286
883,8	11,2
884,2	6
884,6	6,914
885,1	6,771
885,5	8,029
885,9	11,943
886,3	10,971
886,8	9,343
887,2	10,286
887,6	14,057
888	13,2
888,5	10,314
888,9	5,657
889,3	4,514
889,8	1,086
890,2	2,057
890,6	-3,971
891	-1,514
891,5	-1,086
891,9	0,2
892,3	4,714
892,7	11,371
893,2	12,857
893,6	19,314
894	21,714
894,4	19,629
894,9	20,486
895,3	20
895,7	19,029
896,1	15,086
896,6	9,4
897	5,429
897,4	15,629
897,8	17,029
898,3	17,114
898,7	15,171
899,1	18,2
899,5	20,686
900	18,229
900,4	10,343
900,8	5,829
901,2	0,686
901,7	1,914
902,1	1,657
902,5	0,029
902,9	2,657
903,4	2,971
903,8	4,171
904,2	4,457
904,6	4,886
905,1	7,4
905,5	6,743
905,9	10,114
906,3	12,286
906,8	15,714
907,2	21,229
907,6	18,457
908	16,943
908,5	16,829
908,9	10,543
909,3	6,686
909,7	4,229
910,2	1,486
910,6	5,029
911	1,143
911,4	5,286
911,9	6,171
912,3	8,171
912,7	14,6
913,1	16,857
913,6	14,2
914	20,314
914,4	16,514
914,8	18,686
915,3	17,657
915,7	12,771
916,1	8,629
916,5	10,429
916,9	3,943
917,4	6,229
917,8	5,286
918,2	-0,2
918,6	-1,743
919,1	1,057
919,5	2,2
919,9	3,771
920,3	-3,2
920,8	2,914
921,2	5,286
921,6	3,457
922	4,257
922,5	0,114
922,9	4,943
923,3	6
923,7	-0,314
924,2	0
924,6	3
925	0,914
925,4	-2,171
925,8	-2,514
926,3	2,514
926,7	-1
927,1	1
927,5	0,971
928	-2,457
928,4	-0,029
928,8	0
929,2	-6,314
929,7	-0,371
930,1	1,6
930,5	-0,086
930,9	6,029
931,3	7,743
931,8	3,571
932,2	9,086
932,6	4,743
933	-1,114
933,5	0,657
933,9	-0,886
934,3	-2,714
934,7	-4,743
935,2	-9,6
935,6	-7,571
936	-0,857
936,4	-1,629
936,8	-0,857
937,3	-3,229
937,7	-0,429
938,1	6,2
938,5	3,943
939	1,6
939,4	0,857
939,8	-2,343
940,2	3,886
940,6	8,486
941,1	8,257
941,5	15,971
941,9	12,4
942,3	12,143
942,8	12,257
943,2	11,057
943,6	2,6
944	-0,229
944,4	-9,086
944,9	-9,457
945,3	-9,229
945,7	-8,229
946,1	-13,429
946,6	-10,8
947	-8,8
947,4	-0,6
947,8	1,257
948,2	1,029
948,7	0,543
949,1	3,429
949,5	9,914
949,9	8,857
950,3	5,914
950,8	5,743
951,2	7,029
951,6	7,057
952	10,343
952,5	2,971
952,9	0,457
953,3	-3,457
953,7	-4,086
954,1	-4,086
954,6	-1,314
955	-1,4
955,4	-0,171
955,8	5,514
956,2	10,143
956,7	15,029
957,1	14,2
957,5	13,743
957,9	12,2
958,3	11,371
958,8	7,629
959,2	6,971
959,6	3,829
960	-0,114
960,5	0,543
960,9	4,686
961,3	3,514
961,7	3,543
962,1	1,257
962,6	0,686
963	2,571
963,4	-4,486
963,8	-9,143
964,2	-2,857
964,7	-4,857
965,1	-1,429
965,5	-0,829
965,9	1,314
966,3	4,914
966,8	5,743
967,2	1,743
967,6	6,629
968	1,486
968,4	2,457
968,9	3
969,3	6,914
969,7	1,229
970,1	0,8
970,5	-1,6
971	5,686
971,4	7,143
971,8	7,029
972,2	4,571
972,6	10,6
973,1	12,514
973,5	12,686
973,9	9,8
974,3	5,2
974,7	3,371
975,2	2,971
975,6	-0,486
976	-0,829
976,4	-4,257
976,8	-7,657
977,3	-9,029
977,7	-7,971
978,1	-8,457
978,5	-9,657
978,9	-11,171
979,4	-12,371
979,8	-12,457
980,2	-8,829
980,6	-11,971
981	-12,629
981,5	-10,6
981,9	-12
982,3	-12,114
982,7	-7,714
983,1	-11,2
983,6	-12,657
984	-9,943
984,4	-11,314
984,8	-9,857
985,2	-4,2
985,6	-9,4
986,1	-4,714
986,5	2,257
986,9	-5,057
987,3	0,686
987,7	1,2
988,2	1,114
988,6	1,829
989	1,2
989,4	-1,029
989,8	1,314
990,3	0,971
990,7	-0,314
991,1	-1,457
991,5	0,914
991,9	-0,4
992,3	-2,143
992,8	0,343
993,2	-4,029
993,6	-3,543
994	0,914
994,4	0,286
994,9	2,8
995,3	2,371
995,7	2,057
996,1	5,743
996,5	6,886
996,9	1,343
997,4	4,657
997,8	-0,714
998,2	0,629
998,6	-4,714
999	-8,943
999,5	-12,657
999,9	-14,257
1000,3	-17,257
1000,7	-11,029
1001,1	-13,657
1001,5	-3,571
1002	3,029
1002,4	6,2
1002,8	6,657
1003,2	7,629
1003,6	7,257
1004	12,914
1004,5	7,743
1004,9	3,4
1005,3	-1,771
1005,7	1,286
1006,1	-1,771
1006,6	-5,571
1007	-8,486
1007,4	-9,057
1007,8	-10
1008,2	-9,257
1008,6	-13,057
1009,1	-11,657
1009,5	-4,2
1009,9	-1,486
1010,3	-2,714
1010,7	-2,943
1011,1	-1,514
1011,6	4,029
1012	8,286
1012,4	-1,829
1012,8	-6,8
1013,2	-0,4
1013,6	-1,371
1014,1	1,771
1014,5	-1,257
1014,9	-1,629
1015,3	2,2
1015,7	4,6
1016,1	3,486
1016,6	6,514
1017	4,571
1017,4	7,486
1017,8	2,429
1018,2	2,629
1018,6	0,543
1019,1	-3,457
1019,5	-6,343
1019,9	-2,571
1020,3	-5,171
1020,7	-1,057
1021,1	-3,057
1021,6	-0,857
1022	4,114
1022,4	6,971
1022,8	6,086
1023,2	5,914
1023,6	6,571
1024,1	12,229
1024,5	11,571
1024,9	3,943
1025,3	5,057
1025,7	2,629
1026,1	5,4
1026,6	3
1027	-2,029
1027,4	0,971
1027,8	7,2
1028,2	4,914
1028,6	10,086
1029	7,143
1029,5	8,143
1029,9	7,143
1030,3	-0,686
1030,7	-2,143
1031,1	2
1031,5	-3,114
1032	-2,743
1032,4	-4
1032,8	-0,8
1033,2	5,086
1033,6	5,143
1034	1,771
1034,4	-0,771
1034,9	-0,657
1035,3	-2,943
1035,7	0,486
1036,1	-2,6
1036,5	-3,971
1036,9	-5,371
1037,4	0,086
1037,8	-5,029
1038,2	-1,657
1038,6	-6,171
1039	0,114
1039,4	5,229
1039,8	4,343
1040,3	6
1040,7	9,971
1041,1	7,829
1041,5	5,343
1041,9	-1,629
1042,3	-3,2
1042,7	-2,371
1043,2	-5,629
1043,6	-7,4
1044	-6,714
1044,4	-5,029
1044,8	-1,771
1045,2	-3,257
1045,6	0,429
1046,1	1,914
1046,5	3,486
1046,9	2,714
1047,3	2,714
1047,7	1,057
1048,1	-3,943
1048,5	-4,629
1049	-3,686
1049,4	1,229
1049,8	1,629
1050,2	6,486
1050,6	12,114
1051	17,886
1051,4	16,229
1051,9	13,343
1052,3	15,857
1052,7	18,629
1053,1	13,886
1053,5	11,229
1053,9	8,971
1054,3	5,114
1054,8	9,029
1055,2	4,257
1055,6	4,657
1056	5,2
1056,4	2,829
1056,8	7,543
1057,2	11,971
1057,6	5,629
1058,1	5,286
1058,5	0,8
1058,9	5,257
1059,3	5,829
1059,7	3,514
1060,1	5,343
1060,5	6,857
1061	9,743
1061,4	11,086
1061,8	8,8
1062,2	7,657
1062,6	8,486
1063	8,8
1063,4	10,486
1063,8	5,914
1064,3	1,143
1064,7	-0,829
1065,1	0,8
1065,5	-7,257
1065,9	-13,543
1066,3	-15,514
1066,7	-15,629
1067,1	-14,114
1067,6	-10,4
1068	-12,086
1068,4	-5,4
1068,8	-1,257
1069,2	2,029
1069,6	1,4
1070	8,229
1070,4	5,229
1070,9	4,6
1071,3	1,771
1071,7	-2,486
1072,1	-2,943
1072,5	-3,371
1072,9	-6,114
1073,3	-5,314
1073,7	-0,057
1074,2	2,457
1074,6	7,971
1075	5,6
1075,4	7,171
1075,8	3,543
1076,2	4,629
1076,6	2,543
1077	1,571
1077,5	6,543
1077,9	6,771
1078,3	4,543
1078,7	8,2
1079,1	3,657
1079,5	4,743
1079,9	2,629
1080,3	-3,343
1080,7	0,714
1081,2	7,086
1081,6	7,114
1082	7,543
1082,4	10,657
1082,8	11,343
1083,2	13,314
1083,6	8,771
1084	4,943
1084,5	6,914
1084,9	5,714
1085,3	-1,943
1085,7	0,943
1086,1	-2,686
1086,5	-1,457
1086,9	1,086
1087,3	0,971
1087,7	4,343
1088,2	4,6
1088,6	-0,771
1089	-0,114
1089,4	-1,657
1089,8	-2,371
1090,2	-6,457
1090,6	-9,114
1091	-3,086
1091,4	-0,143
1091,9	0,886
1092,3	0,086
1092,7	-6,4
1093,1	0,457
1093,5	2,714
1093,9	-3,286
1094,3	4,2
1094,7	0,571
1095,1	4,086
1095,5	7,486
1096	-1,114
1096,4	-0,571
1096,8	1,743
1097,2	-6,229
1097,6	0,114
1098	-0,286
1098,4	3,886
1098,8	9,343
1099,2	12,629
1099,6	10,971
1100,1	8,4
1100,5	0,2
1100,9	-1,429
1101,3	-3,514
1101,7	-4,2
1102,1	-6,143
1102,5	0,314
1102,9	5,257
1103,3	13,857
1103,7	16,829
1104,2	17,114
1104,6	16,457
1105	11,2
1105,4	5,314
1105,8	3,943
1106,2	-0,714
1106,6	-3,029
1107	-4,2
1107,4	-6,1
1107,8	-2,2
1108,3	-0,9
