Data from Subt2_024.txt Node
Date: Sat Aug 26 16:17:14 MSK 2023
User: vat
Spectrometer: MAYP114033
Trigger mode: 0
Integration Time (sec): 1,000000E0
Scans to average: 5
Electric dark correction enabled: true
Nonlinearity correction enabled: false
Boxcar width: 3
XAxis mode: Wavelengths
Number of Pixels in Spectrum: 2068
>>>>>Begin Spectral Data<<<<<
199,4	-1,567
199,9	3,213
200,4	-0,367
200,8	0,676
201,3	4,59
201,8	4,076
202,2	2,819
202,7	6,019
203,2	0,962
203,6	6,219
204,1	7,162
204,6	3,79
205	4,019
205,5	5,705
206	3,648
206,4	6,619
206,9	2,476
207,4	1,19
207,8	0,505
208,3	0,562
208,8	2,648
209,2	4,048
209,7	2,448
210,2	5,305
210,6	0,933
211,1	2,133
211,5	2,276
212	-0,667
212,5	-1,152
212,9	1,333
213,4	-0,324
213,9	0,99
214,3	-3,01
214,8	-0,181
215,3	1,219
215,7	0,676
216,2	0,562
216,7	-0,21
217,1	0,076
217,6	5,819
218,1	1,533
218,5	-2,81
219	-8,067
219,5	-7,952
219,9	-7,267
220,4	-3,124
220,9	-7,238
221,3	-4,981
221,8	-2,21
222,3	0,962
222,7	0,305
223,2	1,79
223,6	2,305
224,1	4,933
224,6	0,933
225	2,99
225,5	4,39
226	6,762
226,4	10,505
226,9	13,219
227,4	12,962
227,8	19,19
228,3	18,076
228,8	18,876
229,2	12,933
229,7	7,476
230,2	3,362
230,6	1,276
231,1	2,905
231,5	3,476
232	2,905
232,5	9,076
232,9	12,648
233,4	12,876
233,9	16,733
234,3	11,133
234,8	11,048
235,3	12,733
235,7	8,133
236,2	2,105
236,7	-1,552
237,1	-7,324
237,6	-7,067
238,1	-3,695
238,5	-5,952
239	-2,667
239,4	4,076
239,9	2,99
240,4	5,162
240,8	6,333
241,3	7,39
241,8	8,705
242,2	6,962
242,7	6,99
243,2	10,362
243,6	14,019
244,1	11,733
244,6	6,248
245	3,248
245,5	-0,238
245,9	-2,524
246,4	-3,21
246,9	-3,295
247,3	-0,467
247,8	-1,038
248,3	-3,752
248,7	2,048
249,2	-0,267
249,7	0,962
250,1	0,276
250,6	1,362
251	1,048
251,5	11,876
252	13,19
252,4	17,848
252,9	14,905
253,4	16,619
253,8	15,619
254,3	18,676
254,8	11,962
255,2	7,19
255,7	3,105
256,1	5,648
256,6	0,362
257,1	3,276
257,5	-2,438
258	-3,381
258,5	-2,838
258,9	-1,638
259,4	-3,21
259,9	-4,295
260,3	-9,467
260,8	-5,038
261,2	-5,381
261,7	-9,438
262,2	-7,61
262,6	-5,295
263,1	0,276
263,6	2,762
264	3,162
264,5	6,762
264,9	12,019
265,4	8,819
265,9	7,248
266,3	4,99
266,8	6,733
267,3	4,848
267,7	4,819
268,2	5,733
268,7	6,648
269,1	7,676
269,6	4,533
270	2,705
270,5	6,905
271	5,362
271,4	3,105
271,9	7,048
272,4	5,848
272,8	12,505
273,3	9,99
273,7	9,848
274,2	6,448
274,7	7,248
275,1	2,848
275,6	3,19
276,1	3,533
276,5	4,076
277	0,705
277,4	2,362
277,9	-1,067
278,4	2,019
278,8	2,533
279,3	0,419
279,8	4,476
280,2	4,333
280,7	3,648
281,1	5,476
281,6	2,305
282,1	4,705
282,5	-3,095
283	-4,524
283,4	-5,095
283,9	-3,781
284,4	-3,01
284,8	-2,038
285,3	-5,924
285,8	-0,781
286,2	-3,381
286,7	-5,438
287,1	-3,581
287,6	-1,124
288,1	-1,81
288,5	1,162
289	3,076
289,5	5,933
289,9	2,019
290,4	-0,181
290,8	-2,152
291,3	2,048
291,8	3,876
292,2	5,248
292,7	5,819
293,1	16,048
293,6	19,476
294,1	20,019
294,5	13,133
295	11,133
295,5	9,219
295,9	6,59
296,4	2,419
296,8	1,076
297,3	1,076
297,8	2,305
298,2	1,105
298,7	4,59
299,1	5,848
299,6	6,105
300,1	6,819
300,5	8,076
301	10,333
301,5	12,419
301,9	9,333
302,4	7,533
302,8	12,362
303,3	10,705
303,8	8,648
304,2	12,248
304,7	10,562
305,1	6,362
305,6	7,305
306,1	2,562
306,5	1,505
307	-3,695
307,4	-9,724
307,9	-8,21
308,4	-7,552
308,8	-4,21
309,3	-4,124
309,8	-1,21
310,2	4,705
310,7	4,762
311,1	4,019
311,6	7,876
312,1	7,705
312,5	7,505
313	3,162
313,4	4,819
313,9	3,848
314,4	3,962
314,8	5,99
315,3	-0,152
315,7	0,648
316,2	1,562
316,7	-5,267
317,1	-2,838
317,6	-4,667
318	-8,638
318,5	-5,467
319	-5,495
319,4	-3,124
319,9	1,905
320,3	6,133
320,8	9,048
321,3	8,133
321,7	7,762
322,2	6,419
322,6	3,676
323,1	3,362
323,6	0,219
324	0,276
324,5	3,448
324,9	-1,61
325,4	-1,067
325,9	-1,61
326,3	-0,095
326,8	-2,438
327,2	-6,581
327,7	-7,895
328,2	-4,01
328,6	-3,067
329,1	-7,038
329,5	-10,124
330	-11,038
330,5	-8,81
330,9	-9,381
331,4	-10,21
331,8	-11,581
332,3	-4,038
332,8	0,133
333,2	2,819
333,7	5,648
334,1	3,848
334,6	9,648
335,1	7,505
335,5	7,248
336	2,79
336,4	2,219
336,9	0,562
337,4	5,676
337,8	2,362
338,3	4,933
338,7	4,905
339,2	6,076
339,7	3,905
340,1	6,533
340,6	1,99
341	1,762
341,5	6,533
342	12,019
342,4	17,59
342,9	22,733
343,3	19,933
343,8	21,248
344,2	19,59
344,7	18,248
345,2	15,705
345,6	11,562
346,1	10,819
346,5	10,848
347	11,505
347,5	13,248
347,9	16,362
348,4	10,162
348,8	9,733
349,3	11,848
349,8	13,162
350,2	16,733
350,7	23,819
351,1	24,762
351,6	34,448
352	43,276
352,5	53,419
353	66,076
353,4	76,105
353,9	86,505
354,3	107,648
354,8	128,276
355,3	153,419
355,7	182,305
356,2	218,705
356,6	262,876
357,1	312,79
357,5	362,962
358	430,248
358,5	506,362
358,9	595,076
359,4	685,876
359,8	793,333
360,3	915,59
360,8	1054,933
361,2	1207,533
361,7	1376,076
362,1	1555,562
362,6	1763,048
363	1982,819
363,5	2209,476
364	2455,819
364,4	2705,476
364,9	2959,362
365,3	3211,59
365,8	3451,933
366,3	3667,19
366,7	3873,79
367,2	4043,962
367,6	4184,562
368,1	4291,362
368,5	4364,99
369	4401,105
369,5	4406,219
369,9	4374,848
370,4	4303,59
370,8	4208,562
371,3	4081,476
371,7	3934,962
372,2	3766,99
372,7	3595,619
373,1	3403,79
373,6	3212,99
374	3017,305
374,5	2824,19
374,9	2625,362
375,4	2441,762
375,9	2255,305
376,3	2080,705
376,8	1918,362
377,2	1761,848
377,7	1618,619
378,2	1484,419
378,6	1353,048
379,1	1238,648
379,5	1135,362
380	1037,476
380,4	951,59
380,9	872,676
381,4	801,19
381,8	736,733
382,3	682,333
382,7	636,648
383,2	595,076
383,6	549,248
384,1	506,648
384,6	474,505
385	444,162
385,5	412,105
385,9	378,933
386,4	347,848
386,8	324,676
387,3	300,39
387,7	279,505
388,2	258,533
388,7	236,733
389,1	222,676
389,6	205,59
390	191,733
390,5	184,305
390,9	164,848
391,4	153,933
391,9	146,162
392,3	132,476
392,8	126,505
393,2	115,79
393,7	105,19
394,1	104,219
394,6	99,876
395,1	92,333
395,5	90,676
396	83,105
396,4	79,848
396,9	74,99
397,3	69,39
397,8	62,705
398,2	62,905
398,7	54,533
399,2	53,59
399,6	54,105
400,1	50,019
400,5	43,648
401	41,448
401,4	32,705
401,9	34,276
402,4	31,105
402,8	27,876
403,3	30,419
403,7	38,248
404,2	44,048
404,6	51,105
405,1	47,076
405,5	49,476
406	46,733
406,5	47,705
406,9	46,762
407,4	45,59
407,8	46,505
408,3	49,533
408,7	50,676
409,2	57,819
409,6	63,505
410,1	67,533
410,6	68,648
411	73,419
411,5	82,048
411,9	88,533
412,4	93,162
412,8	92,762
413,3	94,19
413,7	95,648
414,2	98,819
414,7	99,705
415,1	98,533
415,6	98,076
416	100,676
416,5	108,962
416,9	118,562
417,4	114,219
417,8	117,962
418,3	126,562
418,8	139,762
419,2	149,362
419,7	152,476
420,1	154,59
420,6	169,219
421	174,562
421,5	183,305
421,9	183,39
422,4	187,762
422,8	195,305
423,3	207,19
423,8	214,019
424,2	226,305
424,7	234,39
425,1	240,905
425,6	246,019
426	251,219
426,5	259,362
426,9	265,79
427,4	272,448
427,9	280,562
428,3	298,248
428,8	311,59
429,2	322,762
429,7	329,99
430,1	346,733
430,6	363,448
431	378,248
431,5	388,962
431,9	410,19
432,4	429,448
432,8	451,248
433,3	466,505
433,8	479,705
434,2	498,076
434,7	515,305
435,1	537,476
435,6	558,019
436	577,076
436,5	604,933
436,9	631,076
437,4	657,39
437,8	689,419
438,3	713,762
438,8	744,819
439,2	783,99
439,7	812,362
440,1	843,619
440,6	879,076
441	913,962
441,5	948,59
441,9	990,305
442,4	1027,276
442,8	1067,705
443,3	1116,333
443,7	1159,248
444,2	1196,562
444,7	1240,362
445,1	1288,133
445,6	1336,162
446	1384,248
446,5	1428,505
446,9	1475,59
447,4	1536,39
447,8	1594,076
448,3	1641,762
448,7	1690,933
449,2	1747,019
449,6	1808,762
450,1	1870,076
450,6	1927,819
451	1982,705
451,5	2048,219
451,9	2118,248
452,4	2187,933
452,8	2256,705
453,3	2326,476
453,7	2396,19
454,2	2476,476
454,6	2549,39
455,1	2621,819
455,5	2691,505
456	2763,448
456,4	2841,676
456,9	2920,048
457,3	2998,39
457,8	3081,819
458,3	3159,962
458,7	3250,59
459,2	3334,076
459,6	3411,676
460,1	3490,133
460,5	3569,333
461	3650,819
461,4	3734,276
461,9	3813,59
462,3	3894,562
462,8	3975,59
463,2	4059,933
463,7	4152,619
464,1	4235,99
464,6	4316,876
465	4393,905
465,5	4482,705
466	4576,648
466,4	4664,248
466,9	4739,648
467,3	4827,39
467,8	4916,676
468,2	5003,505
468,7	5092,19
469,1	5171,105
469,6	5248,676
470	5332,105
470,5	5405,676
470,9	5490,59
471,4	5581,505
471,8	5651,505
472,3	5726,333
472,7	5807,248
473,2	5877,419
473,6	5953,533
474,1	6020,533
474,5	6085,876
475	6162,848
475,4	6231,962
475,9	6301,333
476,4	6371,048
476,8	6427,733
477,3	6490,048
477,7	6549,19
478,2	6595,076
478,6	6646,019
479,1	6697,162
479,5	6748,333
480	6802,219
480,4	6845,505
480,9	6879,876
481,3	6929,676
481,8	6972,39
482,2	7002,99
482,7	7032,705
483,1	7069,619
483,6	7098,476
484	7134,19
484,5	7160,305
484,9	7190,562
485,4	7222,133
485,8	7241,79
486,3	7258,448
486,7	7280,848
487,2	7293,533
487,6	7295,39
488,1	7299,162
488,5	7306,448
489	7317,933
489,4	7312,162
489,9	7308,162
490,4	7303,676
490,8	7302,99
491,3	7298,733
491,7	7286,333
492,2	7286,705
492,6	7288,705
493,1	7266,448
493,5	7249,476
494	7232,448
494,4	7205,162
494,9	7181,733
495,3	7140,79
495,8	7104,019
496,2	7077,876
496,7	7041,99
497,1	7015,905
497,6	6985,333
498	6945,99
498,5	6911,533
498,9	6873,79
499,4	6848,219
499,8	6819,962
500,3	6773,819
500,7	6740,305
501,2	6709,219
501,6	6669,133
502,1	6627,819
502,5	6581,733
503	6543,562
503,4	6507,133
503,9	6466,39
504,3	6415,99
504,8	6371,305
505,2	6330,162
505,7	6287,505
506,1	6231,19
506,6	6182,876
507	6121,848
507,5	6073,048
507,9	6021,076
508,4	5966,39
508,8	5904,076
509,3	5847,59
509,7	5793,876
510,2	5747,762
510,6	5695,905
511,1	5639,648
511,5	5584,905
512	5533,962
512,4	5484,505
512,9	5426,276
513,3	5372,705
513,8	5315,162
514,2	5259,733
514,7	5204,79
515,1	5155,819
515,6	5098,648
516	5036,505
516,5	4977,876
516,9	4915,705
517,4	4862,076
517,8	4804,276
518,3	4741,362
518,7	4688,99
519,2	4652,048
519,6	4603,848
520,1	4562,248
520,5	4510,962
521	4457,019
521,4	4408,705
521,9	4354,819
522,3	4298,105
522,8	4242,705
523,2	4193,848
523,7	4148,762
524,1	4104,333
524,6	4054,59
525	4009,648
525,5	3958,819
525,9	3913,448
526,4	3859,819
526,8	3810,648
527,3	3767,362
527,7	3731,276
528,2	3685,562
528,6	3638,276
529,1	3597,619
529,5	3561,505
530	3525,562
530,4	3487,133
530,9	3436,105
531,3	3399,962
531,8	3368,305
532,2	3329,219
532,6	3288,305
533,1	3246,79
533,5	3205,248
534	3173,019
534,4	3139,533
534,9	3100,476
535,3	3060,562
535,8	3029,848
536,2	2997,79
536,7	2967,476
537,1	2928,333
537,6	2894,99
538	2859,619
538,5	2832,019
538,9	2794,905
539,4	2754,848
539,8	2722,133
540,3	2698,362
540,7	2669,562
541,2	2646,848
541,6	2616,276
542,1	2592,705
542,5	2572,933
543	2543,333
543,4	2509,333
543,9	2474,933
544,3	2444,248
544,8	2417,705
545,2	2389,333
545,7	2359,476
546,1	2334,505
546,5	2316,333
547	2296,505
547,4	2270,533
547,9	2246,362
548,3	2224,962
548,8	2201,248
549,2	2178,733
549,7	2155,933
550,1	2132,648
550,6	2109,19
551	2091,562
551,5	2071,819
551,9	2057,219
552,4	2038,076
552,8	2021,248
553,3	1995,733
553,7	1983,79
554,2	1967,905
554,6	1943,79
555,1	1920,733
555,5	1904,733
555,9	1886,59
556,4	1874,133
556,8	1853,562
557,3	1833,333
557,7	1821,819
558,2	1805,562
558,6	1787,133
559,1	1768,39
559,5	1757,562
560	1743,648
560,4	1726,848
560,9	1713,276
561,3	1703,819
561,8	1693,476
562,2	1677,733
562,7	1665,562
563,1	1651,533
563,6	1644,933
564	1632,819
564,4	1616,505
564,9	1600,648
565,3	1594,648
565,8	1579,819
566,2	1570,305
566,7	1548,79
567,1	1535,762
567,6	1525,819
568	1517,533
568,5	1504,733
568,9	1494,819
569,4	1483,962
569,8	1478,648
570,3	1466,505
570,7	1458,648
571,1	1451,105
571,6	1437,305
572	1420,762
572,5	1410,019
572,9	1396,905
573,4	1383,105
573,8	1375,848
574,3	1360,248
574,7	1352,076
575,2	1350,162
575,6	1338,333
576,1	1329,59
576,5	1322,276
576,9	1308,19
577,4	1299,933
577,8	1294,705
578,3	1282,762
578,7	1270,333
579,2	1260,648
579,6	1256,019
580,1	1245,79
580,5	1243,019
581	1230,648
581,4	1223,962
581,9	1215,19
582,3	1207,562
582,7	1196,59
583,2	1190,476
583,6	1173,733
584,1	1167,705
584,5	1157,219
585	1156,762
585,4	1146,219
585,9	1133,79
586,3	1127,076
586,8	1125,362
587,2	1116,448
587,6	1107,333
588,1	1099,762
588,5	1096,19
589	1093,162
589,4	1085,305
589,9	1077,105
590,3	1072,048
590,8	1066,248
591,2	1059,419
591,7	1052,848
592,1	1051,219
592,5	1043,162
593	1033,505
593,4	1025,533
593,9	1024,448
594,3	1015,276
594,8	1005,819
595,2	999,476
595,7	999,133
596,1	993,733
596,6	985,133
597	971,619
597,4	967,762
597,9	967,419
598,3	958,248
598,8	951,248
599,2	953,019
599,7	953,276
600,1	948,733
600,6	943,305
601	936,962
601,4	932,876
601,9	927,105
602,3	915,448
602,8	908,562
603,2	906,762
603,7	898,819
604,1	895,533
604,6	887,733
605	881,79
605,4	876,762
605,9	875,619
606,3	875,305
606,8	871,762
607,2	865,39
607,7	862,133
608,1	858,676
608,6	862,505
609	852,819
609,4	843,962
609,9	844,99
610,3	842,733
610,8	841,419
611,2	836,19
611,7	821,59
612,1	819,419
612,6	813,79
613	802,533
613,4	794,333
613,9	789,476
614,3	781,562
614,8	784,962
615,2	779,105
615,7	773,648
616,1	769,476
616,6	764,962
617	756,848
617,4	753,733
617,9	743,962
618,3	737,933
618,8	734,305
619,2	734,162
619,7	730,819
620,1	729,133
620,5	726,648
621	722,448
621,4	718,048
621,9	717,19
622,3	710,99
622,8	707,39
623,2	700,619
623,6	694,962
624,1	686,305
624,5	684,533
625	680,362
625,4	676,848
625,9	669,819
626,3	669,305
626,8	669,419
627,2	670,676
627,6	662,19
628,1	656,133
628,5	651,333
629	653,162
629,4	649,105
629,9	642,162
630,3	636,562
630,7	630,876
631,2	625,99
631,6	623,962
632,1	617,448
632,5	611,676
633	604,905
633,4	606,648
633,8	605,019
634,3	597,105
634,7	596,705
635,2	588,962
635,6	588,419
636,1	587,933
636,5	579,476
636,9	574,248
637,4	574,019
637,8	563,333
638,3	561,905
638,7	551,419
639,2	545,848
639,6	547,105
640	548,39
640,5	545,99
640,9	542,819
641,4	536,648
641,8	536,648
642,2	532,105
642,7	532,019
643,1	525,648
643,6	524,19
644	523,419
644,5	523,876
644,9	523,219
645,3	522,79
645,8	509,448
646,2	507,648
646,7	500,248
647,1	499,162
647,6	494,848
648	487,819
648,4	484,305
648,9	486,619
649,3	482,619
649,8	481,076
650,2	478,39
650,6	473,876
651,1	477,848
651,5	472,248
652	471,048
652,4	468,276
652,9	469,105
653,3	463,019
653,7	461,962
654,2	450,733
654,6	447,419
655,1	441,676
655,5	441,076
655,9	436,248
656,4	433,762
656,8	433,476
657,3	432,448
657,7	428,076
658,2	427,019
658,6	429,048
659	430,362
659,5	428,048
659,9	429,448
660,4	427,648
660,8	432,219
661,2	425,019
661,7	417,99
662,1	414,105
662,6	410,99
663	401,619
663,4	400,962
663,9	396,762
664,3	401,533
664,8	403,276
665,2	398,019
665,6	397,133
666,1	396,076
666,5	389,962
667	387,076
667,4	381,219
667,9	371,905
668,3	370,619
668,7	363,905
669,2	361,105
669,6	362,876
670,1	358,362
670,5	352,162
670,9	350,905
671,4	346,133
671,8	345,962
672,3	340,19
672,7	335,39
673,1	331,962
673,6	330,648
674	327,133
674,5	323,848
674,9	320,019
675,3	319,876
675,8	320,419
676,2	322,762
676,7	323,39
677,1	320,19
677,5	317,276
678	321,562
678,4	321,533
678,9	315,505
679,3	312,619
679,7	309,133
680,2	313,419
680,6	314,105
681,1	307,676
681,5	303,562
681,9	303,733
682,4	297,505
682,8	297,162
683,3	292,219
683,7	289,39
684,1	285,219
684,6	282,076
685	275,99
685,5	277,705
685,9	270,419
686,3	270,733
686,8	270,39
687,2	270,79
687,7	271,962
688,1	274,419
688,5	267,276
689	268,533
689,4	264,048
689,9	261,362
690,3	257,448
690,7	254,676
691,2	253,705
691,6	255,162
692	256,79
692,5	252,133
692,9	250,533
693,4	249,619
693,8	243,019
694,2	243,562
694,7	243,648
695,1	235,19
695,6	237,59
696	235,848
696,4	235,819
696,9	240,762
697,3	235,848
697,8	237,133
698,2	237,39
698,6	239,79
699,1	237,19
699,5	235,048
699,9	232,105
700,4	227,562
700,8	224,419
701,3	226,99
701,7	223,133
702,1	222,476
702,6	223,019
703	219,59
703,5	221,876
703,9	216,076
704,3	214,59
704,8	209,876
705,2	207,448
705,6	202,162
706,1	200,848
706,5	198,076
707	198,419
707,4	195,19
707,8	192,476
708,3	192,79
708,7	191,276
709,2	188,476
709,6	185,962
710	187,99
710,5	182,448
710,9	181,648
711,3	178,905
711,8	180,448
712,2	187,105
712,7	188,305
713,1	185,219
713,5	188,105
714	191,676
714,4	191,562
714,8	184,876
715,3	183,333
715,7	177,705
716,2	176,19
716,6	174,533
717	168,019
717,5	162,848
717,9	168,562
718,3	162,048
718,8	165,962
719,2	159,648
719,7	161,105
720,1	159,648
720,5	163,248
721	159,562
721,4	158,876
721,8	154,933
722,3	156,962
722,7	154,733
723,2	151,39
723,6	143,39
724	141,019
724,5	138,219
724,9	137,562
725,3	136,733
725,8	132,133
726,2	132,076
726,7	139,962
727,1	139,533
727,5	138,562
728	137,448
728,4	136,048
728,8	134,619
729,3	137,19
729,7	130,733
730,1	133,848
730,6	133,876
731	136,39
731,5	136,876
731,9	138,105
732,3	134,419
732,8	134,476
733,2	133,848
733,6	134,162
734,1	131,333
734,5	129,248
734,9	127,333
735,4	126,448
735,8	124,99
736,3	122,79
736,7	124,905
737,1	125,419
737,6	122,562
738	123,19
738,4	125,105
738,9	129,419
739,3	126,162
739,7	126,676
740,2	125,848
740,6	129,105
741,1	124,076
741,5	122,533
741,9	113,476
742,4	112,019
742,8	110,19
743,2	106,648
743,7	107,762
744,1	111,99
744,5	111,162
745	117,276
745,4	118,333
745,8	115,133
746,3	113,905
746,7	111,219
747,2	106,048
747,6	108,019
748	107,419
748,5	103,19
748,9	102,933
749,3	106,762
749,8	109,105
750,2	110,79
750,6	110,333
751,1	106,59
751,5	109,819
751,9	111,39
752,4	107,619
752,8	98,79
753,3	97,362
753,7	96,219
754,1	99,733
754,6	97,39
755	94,305
755,4	89,105
755,9	96,39
756,3	96,219
756,7	92,476
757,2	89,162
757,6	91,019
758	92,59
758,5	99,733
758,9	95,133
759,3	96,933
759,8	95,648
760,2	95,248
760,6	94,019
761,1	89,505
761,5	89,219
761,9	88,848
762,4	86,276
762,8	91,619
763,3	93,333
763,7	86,219
764,1	85,762
764,6	83,276
765	87,276
765,4	85,133
765,9	80,048
766,3	77,933
766,7	82,448
767,2	84,048
767,6	83,762
768	80,59
768,5	81,562
768,9	78,419
769,3	79,99
769,8	78,79
770,2	75,105
770,6	68,333
771,1	63,305
771,5	60,448
771,9	62,248
772,4	57,248
772,8	57,762
773,2	60,876
773,7	63,133
774,1	65,305
774,5	68,133
775	68,105
775,4	69,419
775,8	72,876
776,3	77,533
776,7	75,448
777,1	74,476
777,6	74,705
778	76,162
778,4	73,476
778,9	66,933
779,3	59,99
779,7	61,419
780,2	61,619
780,6	60,905
781	60,362
781,5	65,448
781,9	69,533
782,3	67,505
782,8	69,39
783,2	73,019
783,6	75,962
784,1	72,248
784,5	66,562
784,9	61,933
785,4	62,733
785,8	64,905
786,2	62,962
786,7	60,819
787,1	66,39
787,5	67,133
788	69,676
788,4	73,933
788,8	73,648
789,3	71,933
789,7	74,133
790,1	66,305
790,6	69,905
791	69,819
791,4	62,99
791,9	60,762
792,3	60,476
792,7	58,19
793,2	61,933
793,6	61,705
794	61,105
794,5	65,162
794,9	63,219
795,3	63,362
795,8	63,105
796,2	60,305
796,6	55,79
797,1	61,39
797,5	56,276
797,9	53,019
798,4	49,476
798,8	47,505
799,2	49,048
799,7	49,419
800,1	45,048
800,5	46,733
801	49,705
801,4	53,448
801,8	55,619
802,2	58,705
802,7	59,819
803,1	60,648
803,5	62,19
804	62,219
804,4	59,248
804,8	59,19
805,3	58,533
805,7	56,676
806,1	51,276
806,6	50,048
807	51,19
807,4	51,333
807,9	50,105
808,3	45,619
808,7	41,305
809,2	44,248
809,6	43,59
810	45,248
810,4	41,933
810,9	39,533
811,3	40,333
811,7	45,162
812,2	47,533
812,6	48,733
813	44,819
813,5	49,133
813,9	48,505
814,3	50,762
814,8	53,819
815,2	48,448
815,6	49,905
816,1	48,305
816,5	48,39
816,9	44,99
817,3	40,133
817,8	38,59
818,2	38,648
818,6	36,419
819,1	39,819
819,5	40,305
819,9	43,133
820,4	47,59
820,8	47,533
821,2	44,619
821,7	41,705
822,1	38,933
822,5	36,105
822,9	38,79
823,4	32,876
823,8	29,59
824,2	30,019
824,7	32,619
825,1	33,876
825,5	32,419
826	32,333
826,4	41,333
826,8	36,448
827,3	40,019
827,7	38,705
828,1	37,962
828,5	38,876
829	34,705
829,4	27,99
829,8	30,848
830,3	31,076
830,7	28,133
831,1	29,419
831,6	28,419
832	24,276
832,4	21,448
832,8	24,476
833,3	22,59
833,7	27,762
834,1	28,533
834,6	29,19
835	32,19
835,4	41,848
835,8	40,105
836,3	40,448
836,7	39,133
837,1	35,076
837,6	31,876
838	35,019
838,4	24,933
838,9	23,133
839,3	22,848
839,7	23,39
840,1	28,733
840,6	32,876
841	28,219
841,4	28,876
841,9	28,933
842,3	32,162
842,7	30,162
843,1	24,676
843,6	23,562
844	30,105
844,4	31,305
844,9	30,39
845,3	25,448
845,7	28,19
846,2	28,99
846,6	24,848
847	22,533
847,4	21,248
847,9	22,276
848,3	26,962
848,7	24,162
849,2	28,219
849,6	29,533
850	25,076
850,4	26,876
850,9	29,276
851,3	24,305
851,7	25,705
852,2	15,676
852,6	13,933
853	15,876
853,4	14,619
853,9	15,19
854,3	16,19
854,7	7,276
855,2	12,105
855,6	15,419
856	18,19
856,4	20,019
856,9	17,676
857,3	17,533
857,7	21,39
858,2	16,076
858,6	12,933
859	7,762
859,4	8,733
859,9	6,305
860,3	4,162
860,7	9,933
861,1	10,248
861,6	12,133
862	16,79
862,4	16,848
862,9	16,219
863,3	19,905
863,7	17,248
864,1	19,905
864,6	24,876
865	22,733
865,4	19,876
865,9	24,333
866,3	24,448
866,7	19,819
867,1	18,448
867,6	11,619
868	10,676
868,4	6,562
868,8	5,819
869,3	5,533
869,7	8,105
870,1	11,79
870,6	10,19
871	-46,61
871,4	-40,41
871,8	-40,124
872,3	-43,667
872,7	-46,038
873,1	-47,81
873,5	-44,038
874	15,305
874,4	14,79
874,8	12,362
875,3	16,076
875,7	18,133
876,1	19,333
876,5	20,619
877	16,476
877,4	14,99
877,8	13,248
878,2	9,076
878,7	11,419
879,1	9,305
879,5	11,505
879,9	8,733
880,4	9,648
880,8	11,276
881,2	10,105
881,7	11,362
882,1	16,019
882,5	9,905
882,9	14,162
883,4	11,105
883,8	8,562
884,2	16,362
884,6	11,562
885,1	3,048
885,5	6,933
885,9	4,562
886,3	3,648
886,8	6,533
887,2	-0,41
887,6	-1,524
888	8,219
888,5	7,962
888,9	7,676
889,3	13,876
889,8	13,19
890,2	12,99
890,6	13,562
891	11,305
891,5	6,819
891,9	7,562
892,3	4,619
892,7	6,219
893,2	8,905
893,6	6,533
894	0,533
894,4	1,962
894,9	-1,381
895,3	-2,724
895,7	-3,81
896,1	-9,067
896,6	-4,752
897	-1,61
897,4	-3,752
897,8	1,39
898,3	-0,61
898,7	-1,981
899,1	-0,038
899,5	0,333
900	3,648
900,4	7,648
900,8	7,705
901,2	6,533
901,7	10,733
902,1	15,705
902,5	15,105
902,9	9,79
903,4	8,705
903,8	11,362
904,2	10,905
904,6	7,105
905,1	7,305
905,5	6,99
905,9	9,019
906,3	7,419
906,8	-1,095
907,2	2,476
907,6	1,619
908	-2,267
908,5	1,305
908,9	-2,01
909,3	-0,324
909,7	4,333
910,2	6,362
910,6	6,162
911	7,676
911,4	7,962
911,9	8,676
912,3	11,762
912,7	13,333
913,1	10,762
913,6	13,276
914	12,819
914,4	9,105
914,8	11,562
915,3	13,305
915,7	12,705
916,1	16,533
916,5	13,962
916,9	16,619
917,4	12,419
917,8	12,162
918,2	9,648
918,6	10,848
919,1	8,333
919,5	7,676
919,9	3,933
920,3	7,39
920,8	7,076
921,2	5,248
921,6	3,79
922	3,905
922,5	7,162
922,9	8,076
923,3	10,733
923,7	8,733
924,2	8,819
924,6	8,39
925	9,99
925,4	8,933
925,8	3,619
926,3	0,99
926,7	9,476
927,1	13,076
927,5	10,705
928	7,276
928,4	6,733
928,8	10,19
929,2	14,105
929,7	6,619
930,1	-0,895
930,5	0,562
930,9	5,333
931,3	8,133
931,8	7,962
932,2	2,848
932,6	8,419
933	14,219
933,5	13,048
933,9	7,705
934,3	1,39
934,7	2,733
935,2	3,705
935,6	-1,41
936	-0,267
936,4	-1,295
936,8	-0,438
937,3	4,505
937,7	-0,238
938,1	-1,924
938,5	-1,752
939	-5,838
939,4	-1,324
939,8	2,419
940,2	2,333
940,6	7,133
941,1	7,276
941,5	6,99
941,9	5,162
942,3	4,505
942,8	-2,352
943,2	-4,324
943,6	-1,267
944	-1,667
944,4	-5,41
944,9	-2,724
945,3	-1,61
945,7	4,505
946,1	3,076
946,6	-1,438
947	0,905
947,4	7,962
947,8	6,333
948,2	6,905
948,7	4,019
949,1	5,476
949,5	6,19
949,9	6,419
950,3	3,133
950,8	5,333
951,2	5,59
951,6	7,105
952	9,076
952,5	10,762
952,9	9,333
953,3	8,848
953,7	9,419
954,1	10,362
954,6	7,79
955	9,219
955,4	7,219
955,8	8,162
956,2	11,419
956,7	13,848
957,1	12,419
957,5	14,962
957,9	11,333
958,3	11,105
958,8	10,133
959,2	5,505
959,6	0,962
960	1,762
960,5	0,305
960,9	3,648
961,3	5,933
961,7	7,533
962,1	4,876
962,6	2,648
963	3,305
963,4	5,048
963,8	2,619
964,2	-0,01
964,7	-0,981
965,1	3,648
965,5	2,705
965,9	-0,267
966,3	-0,638
966,8	0,962
967,2	-0,152
967,6	0,733
968	2,019
968,4	6,733
968,9	6,133
969,3	4,619
969,7	5,705
970,1	11,076
970,5	11,105
971	6,676
971,4	5,39
971,8	2,762
972,2	1,962
972,6	1,419
973,1	0,505
973,5	0,448
973,9	1,362
974,3	4,848
974,7	8,219
975,2	5,819
975,6	5,219
976	1,419
976,4	-2,295
976,8	0,848
977,3	-1,952
977,7	-5,581
978,1	-4,81
978,5	-8,038
978,9	-8,381
979,4	-4,552
979,8	-6,638
980,2	-2,667
980,6	-2,267
981	3,248
981,5	0,933
981,9	3,705
982,3	4,448
982,7	4,933
983,1	1,733
983,6	6,733
984	-0,038
984,4	6,076
984,8	7,99
985,2	8,276
985,6	6,248
986,1	4,648
986,5	2,848
986,9	6,162
987,3	3,362
987,7	-0,81
988,2	-7,495
988,6	-2,867
989	-2,238
989,4	-5,695
989,8	-4,952
990,3	-4,324
990,7	-0,095
991,1	1,533
991,5	5,876
991,9	4,133
992,3	9,99
992,8	3,933
993,2	4,019
993,6	1,733
994	5,905
994,4	0,133
994,9	1,705
995,3	2,219
995,7	11,562
996,1	9,819
996,5	10,705
996,9	11,562
997,4	9,733
997,8	8,362
998,2	3,648
998,6	-1,752
999	-3,324
999,5	-6,695
999,9	-4,867
1000,3	-8,124
1000,7	-5,295
1001,1	-4,781
1001,5	-4,581
1002	-4,495
1002,4	-3,495
1002,8	-7,867
1003,2	-6,181
1003,6	-5,867
1004	-7,752
1004,5	-4,924
1004,9	0,076
1005,3	-0,895
1005,7	-0,952
1006,1	2,276
1006,6	-2,038
1007	3,333
1007,4	4,648
1007,8	2,562
1008,2	6,962
1008,6	7,162
1009,1	8,162
1009,5	9,133
1009,9	8,276
1010,3	2,305
1010,7	5,076
1011,1	-0,467
1011,6	2,762
1012	2,076
1012,4	2,705
1012,8	1,59
1013,2	3,019
1013,6	2,305
1014,1	3,419
1014,5	-2,152
1014,9	-0,724
1015,3	2,59
1015,7	-1,467
1016,1	1,448
1016,6	2,19
1017	6,133
1017,4	5,448
1017,8	5,019
1018,2	2,162
1018,6	8,39
1019,1	10,876
1019,5	9,533
1019,9	6,533
1020,3	7,505
1020,7	-0,038
1021,1	-3,181
1021,6	-3,581
1022	-3,867
1022,4	-11,267
1022,8	-13,352
1023,2	-8,895
1023,6	-0,638
1024,1	3,962
1024,5	-2,781
1024,9	-6,381
1025,3	-1,324
1025,7	1,248
1026,1	1,076
1026,6	-1,581
1027	-4,267
1027,4	-2,638
1027,8	1,533
1028,2	5,333
1028,6	5,819
1029	4,733
1029,5	3,019
1029,9	1,648
1030,3	3,076
1030,7	1,733
1031,1	0,333
1031,5	1,79
1032	0,448
1032,4	6,19
1032,8	7,933
1033,2	10,505
1033,6	9,962
1034	7,276
1034,4	2,133
1034,9	5,019
1035,3	2,162
1035,7	5,362
1036,1	6,076
1036,5	3,562
1036,9	3,505
1037,4	6,562
1037,8	6,248
1038,2	7,562
1038,6	5,705
1039	2,876
1039,4	4,79
1039,8	6,876
1040,3	8,076
1040,7	7,19
1041,1	7,048
1041,5	7,39
1041,9	10,59
1042,3	10,076
1042,7	8,876
1043,2	10,276
1043,6	7,362
1044	4,619
1044,4	8,248
1044,8	5,219
1045,2	4,533
1045,6	3,162
1046,1	-2,552
1046,5	2,448
1046,9	7,733
1047,3	5,248
1047,7	8,905
1048,1	7,648
1048,5	10,648
1049	18,905
1049,4	20,076
1049,8	13,705
1050,2	10,362
1050,6	5,933
1051	11,305
1051,4	14,562
1051,9	7,448
1052,3	7,448
1052,7	8,448
1053,1	11,076
1053,5	9,676
1053,9	8,448
1054,3	4,619
1054,8	8,762
1055,2	7,076
1055,6	8,362
1056	7,19
1056,4	11,105
1056,8	8,019
1057,2	8,333
1057,6	1,019
1058,1	0,39
1058,5	-2,552
1058,9	1,19
1059,3	3,105
1059,7	3,99
1060,1	7,362
1060,5	16,219
1061	15,19
1061,4	15,619
1061,8	12,505
1062,2	7,933
1062,6	-0,267
1063	-3,695
1063,4	-4,467
1063,8	-2,038
1064,3	-1,038
1064,7	3,276
1065,1	6,276
1065,5	11,248
1065,9	8,79
1066,3	8,533
1066,7	4,59
1067,1	9,162
1067,6	7,419
1068	7,705
1068,4	9,905
1068,8	10,933
1069,2	9,676
1069,6	8,133
1070	3,476
1070,4	1,848
1070,9	-6,752
1071,3	-7,152
1071,7	-4,238
1072,1	-3,152
1072,5	-0,038
1072,9	5,19
1073,3	1,533
1073,7	4,619
1074,2	3,676
1074,6	-0,524
1075	-1,038
1075,4	-0,552
1075,8	-3,152
1076,2	0,905
1076,6	3,248
1077	0,705
1077,5	5,133
1077,9	3,648
1078,3	3,19
1078,7	-2,124
1079,1	-3,952
1079,5	0,048
1079,9	2,733
1080,3	-4,01
1080,7	-4,924
1081,2	-9,41
1081,6	-5,752
1082	-7,267
1082,4	-10,895
1082,8	-12,21
1083,2	-7,724
1083,6	-7,924
1084	-3,81
1084,5	-4,524
1084,9	-5,381
1085,3	-10,124
1085,7	-8,695
1086,1	-7,981
1086,5	-12,495
1086,9	-12,467
1087,3	-9,781
1087,7	-9,495
1088,2	-5,981
1088,6	-4,781
1089	-5,552
1089,4	-0,695
1089,8	-1,295
1090,2	-7,495
1090,6	-4,467
1091	-2,21
1091,4	-5,524
1091,9	-6,038
1092,3	0,905
1092,7	0,362
1093,1	12,39
1093,5	12,219
1093,9	14,105
1094,3	16,79
1094,7	20,733
1095,1	15,905
1095,5	18,162
1096	11,819
1096,4	13,733
1096,8	10,848
1097,2	13,79
1097,6	9,448
1098	7,505
1098,4	4,59
1098,8	2,19
1099,2	-3,181
1099,6	-2,181
1100,1	0,505
1100,5	-0,895
1100,9	-2,81
1101,3	-3,324
1101,7	-1,21
1102,1	1,876
1102,5	-0,952
1102,9	-2,238
1103,3	-4,067
1103,7	-0,324
1104,2	1,762
1104,6	0,019
1105	2,19
1105,4	5,248
1105,8	1,162
1106,2	5,248
1106,6	3,79
1107	3,848
1107,4	4,933
1107,8	2,173
1108,3	0,683
