Data from Subt2_172.txt Node
Date: Sat Aug 26 18:37:58 MSK 2023
User: vat
Spectrometer: MAYP114033
Trigger mode: 0
Integration Time (sec): 1,000000E0
Scans to average: 5
Electric dark correction enabled: true
Nonlinearity correction enabled: false
Boxcar width: 3
XAxis mode: Wavelengths
Number of Pixels in Spectrum: 2068
>>>>>Begin Spectral Data<<<<<
199,4	-0,783
199,9	-0,213
200,4	-0,9
200,8	-1,19
201,3	-2,333
201,8	-0,79
202,2	-0,162
202,7	3,667
203,2	0,324
203,6	-1,933
204,1	-1,848
204,6	-1,733
205	-1,448
205,5	-0,362
206	-1,562
206,4	1,238
206,9	4,038
207,4	6,752
207,8	6,81
208,3	5,752
208,8	4,752
209,2	4,381
209,7	6,638
210,2	8,524
210,6	11,124
211,1	13,381
211,5	13,124
212	16,21
212,5	16,267
212,9	10,267
213,4	8,238
213,9	-0,133
214,3	-0,162
214,8	3,867
215,3	-0,705
215,7	-2,905
216,2	2,352
216,7	4,981
217,1	8,552
217,6	10,467
218,1	5,267
218,5	4,838
219	2,41
219,5	2,381
219,9	-2,105
220,4	2,295
220,9	-0,676
221,3	-0,448
221,8	5,524
222,3	7,41
222,7	7,895
223,2	10,924
223,6	6,724
224,1	5,752
224,6	7,81
225	0,295
225,5	1,381
226	2,381
226,4	1,552
226,9	0,524
227,4	3,867
227,8	-4,562
228,3	-3,105
228,8	-2,79
229,2	-3,019
229,7	-1,076
230,2	2,552
230,6	2,838
231,1	14,238
231,5	14,838
232	18,638
232,5	16,181
232,9	15,895
233,4	15,867
233,9	9,238
234,3	4,924
234,8	6,724
235,3	-2,048
235,7	-1,276
236,2	-0,676
236,7	-3,419
237,1	1,01
237,6	-0,79
238,1	-5,19
238,5	-3,99
239	-3,448
239,4	-2,733
239,9	-3,419
240,4	-2,705
240,8	1,524
241,3	3,181
241,8	4,21
242,2	4,324
242,7	0,924
243,2	4,381
243,6	0,724
244,1	0,838
244,6	3,152
245	2,638
245,5	3,638
245,9	0,01
246,4	-3,105
246,9	0,61
247,3	-3,076
247,8	-1,362
248,3	3,495
248,7	0,924
249,2	3,01
249,7	3,495
250,1	3,495
250,6	4,61
251	-0,248
251,5	-3,619
252	-4,133
252,4	0,638
252,9	-2,848
253,4	-5,419
253,8	-6,048
254,3	0,067
254,8	2,095
255,2	-1,762
255,7	-8,905
256,1	-4,276
256,6	-4,905
257,1	-4,99
257,5	-10,819
258	-9,076
258,5	-1,533
258,9	0,181
259,4	-2,733
259,9	0,038
260,3	-1,048
260,8	0,495
261,2	-5,39
261,7	-7,933
262,2	-11,676
262,6	-11,133
263,1	-6,819
263,6	-7,362
264	-4,105
264,5	1,067
264,9	1,352
265,4	9,667
265,9	8,124
266,3	6,724
266,8	10,81
267,3	8,267
267,7	6,495
268,2	4,981
268,7	1,695
269,1	1,752
269,6	-3,39
270	-4,305
270,5	-5,362
271	-6,39
271,4	-4,305
271,9	-3,79
272,4	1,724
272,8	4,781
273,3	-0,505
273,7	0,21
274,2	-1,733
274,7	-3,048
275,1	-0,762
275,6	-3,39
276,1	-8,533
276,5	0,267
277	-0,505
277,4	1,181
277,9	4,667
278,4	4,095
278,8	7,238
279,3	12,981
279,8	9,095
280,2	12,495
280,7	13,21
281,1	10,467
281,6	11,295
282,1	9,324
282,5	6,095
283	6,61
283,4	4,295
283,9	3,152
284,4	7,838
284,8	5,895
285,3	4,724
285,8	7,524
286,2	6,324
286,7	8,867
287,1	9,61
287,6	5,467
288,1	5,895
288,5	9,924
289	7,381
289,5	8,238
289,9	5,467
290,4	5,81
290,8	4,524
291,3	4,81
291,8	5,181
292,2	7,124
292,7	10,152
293,1	8,867
293,6	11,981
294,1	10,581
294,5	8,495
295	6,495
295,5	4,067
295,9	3,638
296,4	-0,219
296,8	-3,048
297,3	-2,305
297,8	-6,562
298,2	-10,59
298,7	-5,276
299,1	-6,819
299,6	-2,848
300,1	-1,19
300,5	1,438
301	9,895
301,5	15,524
301,9	11,867
302,4	7,752
302,8	7,238
303,3	9,038
303,8	4,124
304,2	-1,505
304,7	-6,79
305,1	-12,076
305,6	-7,962
306,1	-0,276
306,5	-4,762
307	0,095
307,4	2,981
307,9	3,752
308,4	7,295
308,8	3,381
309,3	-2,105
309,8	-1,705
310,2	-5,562
310,7	-8,59
311,1	-7,59
311,6	-3,676
312,1	-1,219
312,5	-3,333
313	-0,733
313,4	-0,705
313,9	0,638
314,4	-0,733
314,8	-7,705
315,3	-7,619
315,7	-12,19
316,2	-14,648
316,7	-12,19
317,1	-5,133
317,6	-5,048
318	2,61
318,5	-1,648
319	6,552
319,4	9,038
319,9	13,981
320,3	11,495
320,8	9,838
321,3	8,324
321,7	15,667
322,2	13,638
322,6	10,638
323,1	6,695
323,6	5,152
324	5,467
324,5	5,438
324,9	2,21
325,4	0,981
325,9	4,667
326,3	3,61
326,8	4,495
327,2	0,867
327,7	1,267
328,2	4,324
328,6	9,952
329,1	3,981
329,5	4,01
330	1,495
330,5	8,638
330,9	8,895
331,4	8,095
331,8	2,867
332,3	7,61
332,8	10,124
333,2	10,21
333,7	9,267
334,1	9,038
334,6	6,838
335,1	5,638
335,5	5,352
336	-0,133
336,4	3,124
336,9	6,295
337,4	4,524
337,8	4,067
338,3	4,067
338,7	1,495
339,2	0,867
339,7	1,21
340,1	-4,876
340,6	-4,648
341	-5,133
341,5	-4,505
342	-0,648
342,4	1,981
342,9	-0,533
343,3	3,295
343,8	2,181
344,2	2,724
344,7	8,124
345,2	4,124
345,6	3,238
346,1	6,095
346,5	-0,59
347	-4,133
347,5	-1,305
347,9	-1,933
348,4	0,41
348,8	2,81
349,3	3,81
349,8	9,41
350,2	19,81
350,7	16,667
351,1	16,095
351,6	20,038
352	23,895
352,5	27,352
353	36,095
353,4	40,524
353,9	52,152
354,3	59,981
354,8	76,238
355,3	95,752
355,7	112,981
356,2	135,895
356,6	165,267
357,1	199,324
357,5	238,067
358	274,181
358,5	313,838
358,9	359,495
359,4	409,124
359,8	463,895
360,3	537,01
360,8	610,752
361,2	695,667
361,7	795,924
362,1	908,924
362,6	1029,295
363	1156,295
363,5	1277,952
364	1423,152
364,4	1568,61
364,9	1712,838
365,3	1853,324
365,8	1985,667
366,3	2109,038
366,7	2225,438
367,2	2323,81
367,6	2401,752
368,1	2464,667
368,5	2503,41
369	2527,438
369,5	2535,667
369,9	2511,352
370,4	2470,61
370,8	2417,438
371,3	2342,695
371,7	2259,21
372,2	2161,695
372,7	2057,352
373,1	1954,152
373,6	1843,352
374	1727,067
374,5	1611,267
374,9	1501,61
375,4	1396,781
375,9	1292,352
376,3	1191,41
376,8	1092,581
377,2	1006,124
377,7	925,181
378,2	849,267
378,6	773,752
379,1	704,781
379,5	649,352
380	600,552
380,4	550,81
380,9	503,61
381,4	455,724
381,8	422,81
382,3	396,038
382,7	365,438
383,2	337,552
383,6	315,067
384,1	297,724
384,6	282,981
385	261,01
385,5	239,181
385,9	218,038
386,4	202,152
386,8	187,924
387,3	172,352
387,7	160,467
388,2	151,352
388,7	142,381
389,1	133,038
389,6	126,781
390	118,324
390,5	111,181
390,9	104,781
391,4	99,952
391,9	91,352
392,3	91,238
392,8	81,152
393,2	72,095
393,7	68,067
394,1	62,467
394,6	58,038
395,1	60,238
395,5	54,467
396	56,895
396,4	58,638
396,9	54,324
397,3	57,781
397,8	61,238
398,2	57,267
398,7	54,981
399,2	54,61
399,6	57,352
400,1	59,524
400,5	51,752
401	46,61
401,4	40,81
401,9	46,467
402,4	42,581
402,8	35,124
403,3	37,895
403,7	37,552
404,2	41,21
404,6	45,295
405,1	43,124
405,5	43,152
406	48,267
406,5	46,124
406,9	52,01
407,4	49,924
407,8	52,924
408,3	58,352
408,7	63,781
409,2	70,61
409,6	79,324
410,1	82,21
410,6	92,324
411	96,924
411,5	99,495
411,9	104,238
412,4	106,467
412,8	107,752
413,3	113,21
413,7	115,838
414,2	121,895
414,7	133,467
415,1	146,067
415,6	159,095
416	173,067
416,5	183,067
416,9	194,01
417,4	208,038
417,8	221,324
418,3	231,695
418,8	243,467
419,2	252,067
419,7	266,581
420,1	276,552
420,6	289,895
421	297,781
421,5	310,667
421,9	321,638
422,4	335,81
422,8	348,467
423,3	365,067
423,8	377,01
424,2	393,924
424,7	410,21
425,1	428,581
425,6	450,124
426	470,752
426,5	496,41
426,9	526,81
427,4	552,267
427,9	573,581
428,3	599,752
428,8	626,067
429,2	656,467
429,7	679,981
430,1	702,61
430,6	735,61
431	773,524
431,5	813,267
431,9	848,067
432,4	888,238
432,8	938,924
433,3	989,467
433,8	1031,81
434,2	1080,124
434,7	1135,638
435,1	1190,41
435,6	1249,495
436	1304,752
436,5	1366,467
436,9	1428,667
437,4	1498,124
437,8	1561,124
438,3	1633,867
438,8	1703,41
439,2	1777,838
439,7	1854,581
440,1	1937,152
440,6	2021,81
441	2105,095
441,5	2201,324
441,9	2299,752
442,4	2395,324
442,8	2495,552
443,3	2602,21
443,7	2707,038
444,2	2816,152
444,7	2921,895
445,1	3036,667
445,6	3156,838
446	3279,238
446,5	3401,752
446,9	3527,295
447,4	3661,695
447,8	3797,238
448,3	3939,952
448,7	4079,695
449,2	4229,238
449,6	4375,695
450,1	4523,81
450,6	4682,952
451	4838,81
451,5	4990,981
451,9	5158,181
452,4	5332,895
452,8	5507,552
453,3	5683,61
453,7	5854,581
454,2	6033,038
454,6	6211,667
455,1	6389,981
455,5	6555,61
456	6745,124
456,4	6931,838
456,9	7121,695
457,3	7319,695
457,8	7515,895
458,3	7723,695
458,7	7939,752
459,2	8144,981
459,6	8351,867
460,1	8561,581
460,5	8765,524
461	8972,838
461,4	9187,124
461,9	9391,124
462,3	9602,267
462,8	9813,124
463,2	10022,695
463,7	10248,895
464,1	10471,867
464,6	10677,781
465	10896,21
465,5	11117,181
466	11350,181
466,4	11570,267
466,9	11782,667
467,3	11998,067
467,8	12212,01
468,2	12420,124
468,7	12616,467
469,1	12817,581
469,6	13031,952
470	13229,895
470,5	13428,638
470,9	13625,981
471,4	13815,352
471,8	14017,752
472,3	14213,381
472,7	14394,752
473,2	14589,238
473,6	14771,038
474,1	14953,124
474,5	15143,067
475	15319,495
475,4	15479,238
475,9	15648,695
476,4	15805,41
476,8	15966,752
477,3	16125,667
477,7	16278,152
478,2	16426,752
478,6	16568,752
479,1	16706,552
479,5	16840,467
480	16960,324
480,4	17085,238
480,9	17195,181
481,3	17298,152
481,8	17406,695
482,2	17495,924
482,7	17587,295
483,1	17679,324
483,6	17759,781
484	17833,41
484,5	17909,752
484,9	17973,524
485,4	18036,038
485,8	18099,095
486,3	18154,895
486,7	18200,381
487,2	18239,552
487,6	18270,752
488,1	18291,01
488,5	18308,238
489	18317,895
489,4	18326,724
489,9	18317,781
490,4	18312,438
490,8	18300,381
491,3	18303,267
491,7	18286,267
492,2	18256,21
492,6	18220,867
493,1	18184,552
493,5	18144,895
494	18095,61
494,4	18029,924
494,9	17980,895
495,3	17927,695
495,8	17874,181
496,2	17826,867
496,7	17755,781
497,1	17701,238
497,6	17642,238
498	17576,21
498,5	17496,752
498,9	17416,924
499,4	17326,724
499,8	17255,01
500,3	17164,695
500,7	17068,81
501,2	16970,81
501,6	16875,152
502,1	16781,61
502,5	16684,638
503	16584,21
503,4	16482,124
503,9	16374,467
504,3	16267,352
504,8	16163,41
505,2	16048,238
505,7	15938,295
506,1	15830,981
506,6	15711,181
507	15596,324
507,5	15477,61
507,9	15349,152
508,4	15230,952
508,8	15114,81
509,3	14983,267
509,7	14856,81
510,2	14734,552
510,6	14604,352
511,1	14480,124
511,5	14343,21
512	14204,61
512,4	14070,952
512,9	13930,981
513,3	13799,752
513,8	13666,752
514,2	13539,895
514,7	13413,352
515,1	13272,495
515,6	13135,952
516	13008,038
516,5	12870,181
516,9	12738,067
517,4	12599,181
517,8	12466,581
518,3	12339,952
518,7	12209,638
519,2	12083,552
519,6	11963,924
520,1	11836,895
520,5	11711,238
521	11567,895
521,4	11448,467
521,9	11330,724
522,3	11202,438
522,8	11073,981
523,2	10950,381
523,7	10827,924
524,1	10724,867
524,6	10593,781
525	10471,21
525,5	10354,781
525,9	10235,981
526,4	10116,838
526,8	10004,095
527,3	9885,352
527,7	9783,581
528,2	9674,61
528,6	9566,638
529,1	9459,095
529,5	9359,267
530	9253,838
530,4	9153,21
530,9	9048,438
531,3	8951,381
531,8	8859,267
532,2	8764,181
532,6	8658,781
533,1	8558,01
533,5	8455,41
534	8366,495
534,4	8263,867
534,9	8173,552
535,3	8078,352
535,8	7995,952
536,2	7911,981
536,7	7837,524
537,1	7747,495
537,6	7669,267
538	7577,638
538,5	7504,781
538,9	7418,552
539,4	7338,667
539,8	7258,438
540,3	7188,352
540,7	7112,41
541,2	7039,41
541,6	6960,21
542,1	6897,467
542,5	6828,124
543	6759,952
543,4	6686,838
543,9	6615,924
544,3	6550,467
544,8	6489,152
545,2	6423,867
545,7	6362,781
546,1	6294,41
546,5	6224,781
547	6170,838
547,4	6106,638
547,9	6035,067
548,3	5972,181
548,8	5913,552
549,2	5856,152
549,7	5805,924
550,1	5752,524
550,6	5700,038
551	5656,095
551,5	5601,295
551,9	5544,095
552,4	5494,552
552,8	5449,21
553,3	5392,352
553,7	5346,724
554,2	5293,81
554,6	5247,552
555,1	5206,067
555,5	5159,81
555,9	5110,467
556,4	5069,952
556,8	5023,495
557,3	4980,81
557,7	4943,21
558,2	4901,21
558,6	4862,038
559,1	4818,21
559,5	4773,867
560	4732,352
560,4	4696,781
560,9	4654,752
561,3	4612,781
561,8	4569,81
562,2	4535,752
562,7	4498,752
563,1	4466,895
563,6	4423,21
564	4385,495
564,4	4354,724
564,9	4329,724
565,3	4294,695
565,8	4267,724
566,2	4236,924
566,7	4213,867
567,1	4191,324
567,6	4153,695
568	4116,238
568,5	4089,838
568,9	4058,952
569,4	4027,267
569,8	3998,581
570,3	3965,724
570,7	3941,524
571,1	3916,781
571,6	3885,152
572	3855,495
572,5	3825,067
572,9	3795,352
573,4	3762,667
573,8	3740,01
574,3	3712,324
574,7	3680,752
575,2	3650,267
575,6	3623,352
576,1	3595,724
576,5	3578,095
576,9	3550,752
577,4	3527,667
577,8	3508,838
578,3	3488,238
578,7	3464,952
579,2	3446,581
579,6	3416,81
580,1	3388,695
580,5	3371,01
581	3348,781
581,4	3326,438
581,9	3300,438
582,3	3276,295
582,7	3254,21
583,2	3236,667
583,6	3202,01
584,1	3181,924
584,5	3158,524
585	3144,295
585,4	3119,124
585,9	3101,924
586,3	3081,752
586,8	3067,667
587,2	3045,324
587,6	3029,152
588,1	3010,752
588,5	2991,924
589	2976,152
589,4	2952,552
589,9	2928,038
590,3	2906,267
590,8	2885,895
591,2	2867,638
591,7	2853,267
592,1	2835,467
592,5	2826,667
593	2810,724
593,4	2798,61
593,9	2782,752
594,3	2761,981
594,8	2743,352
595,2	2725,695
595,7	2705,838
596,1	2695,238
596,6	2681,781
597	2665,267
597,4	2652,867
597,9	2644,01
598,3	2632,095
598,8	2616,895
599,2	2600,095
599,7	2583,81
600,1	2569,867
600,6	2556,21
601	2538,238
601,4	2531,352
601,9	2521,124
602,3	2511,01
602,8	2494,695
603,2	2481,21
603,7	2467,381
604,1	2452,724
604,6	2431,01
605	2412,467
605,4	2398,21
605,9	2385,152
606,3	2365,295
606,8	2351,467
607,2	2331,61
607,7	2315,838
608,1	2306,581
608,6	2292,152
609	2283,724
609,4	2274,724
609,9	2262,467
610,3	2252,21
610,8	2236,81
611,2	2221,81
611,7	2208,21
612,1	2192,667
612,6	2186,552
613	2178,981
613,4	2167,952
613,9	2159,41
614,3	2147,924
614,8	2138,895
615,2	2126,381
615,7	2111,324
616,1	2095,124
616,6	2085,295
617	2072,295
617,4	2060,524
617,9	2048,952
618,3	2041,01
618,8	2032,21
619,2	2019,895
619,7	2008,381
620,1	1995,61
620,5	1988,895
621	1972,581
621,4	1954,952
621,9	1941,581
622,3	1931,095
622,8	1914,724
623,2	1902,038
623,6	1886,695
624,1	1877,667
624,5	1866,324
625	1855,781
625,4	1845,124
625,9	1836,495
626,3	1824,952
626,8	1813,781
627,2	1801,552
627,6	1786,524
628,1	1766,924
628,5	1757,295
629	1743,381
629,4	1733,124
629,9	1721,381
630,3	1702,581
630,7	1691,838
631,2	1685,01
631,6	1670,895
632,1	1662,152
632,5	1655,295
633	1644,61
633,4	1640,181
633,8	1631,152
634,3	1619,724
634,7	1609,781
635,2	1598,61
635,6	1583,124
636,1	1571,838
636,5	1558,638
636,9	1546,638
637,4	1538,038
637,8	1521,667
638,3	1508,981
638,7	1499,438
639,2	1482,867
639,6	1479,495
640	1469,181
640,5	1456,295
640,9	1451,41
641,4	1447,381
641,8	1437,01
642,2	1435,667
642,7	1428,381
643,1	1421,181
643,6	1416,095
644	1404,952
644,5	1392,81
644,9	1385,01
645,3	1375,838
645,8	1356,21
646,2	1349,781
646,7	1341,781
647,1	1328,038
647,6	1325,01
648	1320,381
648,4	1304,581
648,9	1301,895
649,3	1290,524
649,8	1282,695
650,2	1279,552
650,6	1268,438
651,1	1253,781
651,5	1255,781
652	1246,781
652,4	1240,01
652,9	1229,267
653,3	1219,238
653,7	1208,152
654,2	1205,724
654,6	1195,067
655,1	1189,124
655,5	1187,752
655,9	1180,41
656,4	1179,295
656,8	1177,467
657,3	1166,724
657,7	1157,352
658,2	1149,01
658,6	1136,81
659	1131,381
659,5	1117,867
659,9	1103,124
660,4	1097,381
660,8	1087,352
661,2	1080,181
661,7	1070,381
662,1	1061,581
662,6	1053,124
663	1048,552
663,4	1041,781
663,9	1040,152
664,3	1032,124
664,8	1025,552
665,2	1016,095
665,6	1014,124
666,1	1011,752
666,5	1002,81
667	995,01
667,4	989,781
667,9	981,21
668,3	972,01
668,7	960,781
669,2	951,381
669,6	947,095
670,1	940,581
670,5	931,524
670,9	928,238
671,4	926,895
671,8	925,638
672,3	919,324
672,7	913,324
673,1	903,752
673,6	898,61
674	892,467
674,5	884,238
674,9	869,867
675,3	856,724
675,8	850,552
676,2	844,01
676,7	835,552
677,1	827,895
677,5	821,152
678	822,552
678,4	823,438
678,9	814,495
679,3	808,552
679,7	804,381
680,2	796,667
680,6	790,381
681,1	782,495
681,5	777,152
681,9	775,324
682,4	768,724
682,8	765,952
683,3	763,981
683,7	757,81
684,1	753,752
684,6	748,067
685	739,01
685,5	733,295
685,9	721,352
686,3	713,21
686,8	707,781
687,2	703,467
687,7	695,667
688,1	686,924
688,5	688,895
689	688,952
689,4	685,61
689,9	680,038
690,3	667,838
690,7	665,21
691,2	665,981
691,6	659,495
692	654,381
692,5	647,667
692,9	645,61
693,4	647,181
693,8	642,81
694,2	635,152
694,7	625,267
695,1	620,038
695,6	621,124
696	620,381
696,4	615,038
696,9	607,867
697,3	602,838
697,8	599,438
698,2	593,552
698,6	586,124
699,1	580,324
699,5	578,752
699,9	573,924
700,4	565,638
700,8	565,038
701,3	566,867
701,7	556,381
702,1	551,752
702,6	546,495
703	546,667
703,5	548,095
703,9	539,352
704,3	534,552
704,8	537,124
705,2	531,895
705,6	524,038
706,1	519,495
706,5	513,524
707	515,467
707,4	509,924
707,8	499,895
708,3	496,838
708,7	496,781
709,2	490,781
709,6	489,381
710	489,067
710,5	479,495
710,9	483,924
711,3	476,295
711,8	468,61
712,2	466,067
712,7	461,781
713,1	455,952
713,5	459,81
714	456,895
714,4	455,581
714,8	455,724
715,3	450,61
715,7	450,61
716,2	441,467
716,6	434,152
717	427,552
717,5	420,838
717,9	419,238
718,3	418,924
718,8	413,838
719,2	410,238
719,7	407,381
720,1	407,867
720,5	414,01
721	404,438
721,4	400,952
721,8	399,667
722,3	398,581
722,7	399,095
723,2	388,095
723,6	376,924
724	375,867
724,5	373,21
724,9	368,495
725,3	366,41
725,8	357,638
726,2	361,324
726,7	361,952
727,1	359,752
727,5	356,295
728	354,924
728,4	355,81
728,8	352,067
729,3	344,952
729,7	339,867
730,1	339,181
730,6	335,267
731	329,495
731,5	322,152
731,9	324,467
732,3	324,61
732,8	326,895
733,2	321,038
733,6	320,381
734,1	318,667
734,5	320,41
734,9	318,438
735,4	318,295
735,8	309,752
736,3	312,038
736,7	311,867
737,1	312,781
737,6	306,981
738	306,667
738,4	303,724
738,9	305,81
739,3	301,81
739,7	294,752
740,2	288,867
740,6	293,381
741,1	293,61
741,5	288,295
741,9	289,152
742,4	292,295
742,8	295,01
743,2	296,038
743,7	285,952
744,1	277,181
744,5	274,667
745	270,838
745,4	266,61
745,8	264,152
746,3	263,152
746,7	264,067
747,2	267,438
747,6	272,924
748	272,695
748,5	271,41
748,9	264,41
749,3	264,467
749,8	267,981
750,2	264,21
750,6	254,981
751,1	253,867
751,5	249,067
751,9	256,752
752,4	255,495
752,8	248,295
753,3	244,724
753,7	247,352
754,1	241,838
754,6	242,638
755	232,438
755,4	231,295
755,9	229,81
756,3	228,61
756,7	227,238
757,2	226,095
757,6	224,324
758	225,781
758,5	221,21
758,9	223,352
759,3	224,21
759,8	219,352
760,2	220,41
760,6	216,495
761,1	214,895
761,5	208,038
761,9	202,181
762,4	198,724
762,8	197,781
763,3	194,695
763,7	196,667
764,1	194,61
764,6	199,438
765	197,981
765,4	199,61
765,9	202,095
766,3	202,752
766,7	195,41
767,2	193,067
767,6	191,724
768	190,695
768,5	184,724
768,9	182,952
769,3	181,695
769,8	185,752
770,2	189,752
770,6	185,467
771,1	191,952
771,5	195,581
771,9	192,952
772,4	194,381
772,8	191,81
773,2	189,61
773,7	189,152
774,1	180,524
774,5	174,095
775	173,067
775,4	168,581
775,8	165,81
776,3	168,295
776,7	167,352
777,1	167,667
777,6	170,952
778	171,838
778,4	169,61
778,9	171,238
779,3	163,267
779,7	165,238
780,2	165,067
780,6	161,495
781	160,752
781,5	156,638
781,9	152,495
782,3	151,352
782,8	149,952
783,2	145,352
783,6	148,924
784,1	143,038
784,5	144,552
784,9	143,238
785,4	146,01
785,8	145,152
786,2	146,438
786,7	144,467
787,1	144,724
787,5	145,352
788	144,381
788,4	143,038
788,8	142,81
789,3	140,552
789,7	140,867
790,1	141,438
790,6	142,752
791	143,752
791,4	145,752
791,9	137,752
792,3	133,781
792,7	134,495
793,2	130,438
793,6	127,981
794	127,638
794,5	120,124
794,9	127,21
795,3	132,038
795,8	125,838
796,2	131,181
796,6	129,524
797,1	130,952
797,5	131,581
797,9	128,724
798,4	125,124
798,8	125,495
799,2	119,181
799,7	121,467
800,1	113,238
800,5	114,924
801	115,495
801,4	114,01
801,8	113,095
802,2	110,752
802,7	103,438
803,1	105,924
803,5	104,552
804	100,552
804,4	99,895
804,8	100,638
805,3	107,152
805,7	111,324
806,1	108,438
806,6	108,952
807	106,867
807,4	105,895
807,9	100,41
808,3	96,095
808,7	94,638
809,2	101,895
809,6	101,295
810	101,181
810,4	101,952
810,9	104,324
811,3	105,324
811,7	103,838
812,2	101,695
812,6	98,752
813	97,724
813,5	100,667
813,9	101,981
814,3	101,038
814,8	99,552
815,2	93,495
815,6	92,438
816,1	98,495
816,5	94,695
816,9	92,467
817,3	91,838
817,8	95,124
818,2	97,781
818,6	94,41
819,1	89,467
819,5	86,581
819,9	84,552
820,4	84,752
820,8	81,81
821,2	78,467
821,7	82,695
822,1	81,638
822,5	91,724
822,9	91,095
823,4	88,61
823,8	89,067
824,2	89,581
824,7	83,981
825,1	85,038
825,5	75,238
826	73,724
826,4	69,467
826,8	64,724
827,3	69,352
827,7	67,467
828,1	64,124
828,5	66,381
829	61,552
829,4	62,324
829,8	61,838
830,3	57,581
830,7	60,924
831,1	63,41
831,6	60,981
832	63,352
832,4	62,838
832,8	65,295
833,3	64,781
833,7	62,581
834,1	56,867
834,6	55,438
835	56,21
835,4	59,381
835,8	53,038
836,3	51,752
836,7	52,981
837,1	51,467
837,6	52,552
838	53,324
838,4	55,81
838,9	60,238
839,3	58,667
839,7	61,152
840,1	60,638
840,6	59,752
841	60,067
841,4	54,495
841,9	54,238
842,3	57,381
842,7	54,467
843,1	57,038
843,6	58,324
844	53,638
844,4	55,324
844,9	58,295
845,3	54,267
845,7	55,038
846,2	52,867
846,6	50,41
847	54,695
847,4	56,067
847,9	53,295
848,3	50,838
848,7	51,438
849,2	51,867
849,6	48,552
850	49,724
850,4	45,267
850,9	43,895
851,3	48,095
851,7	46,524
852,2	45,695
852,6	51,81
853	50,495
853,4	51,581
853,9	48,495
854,3	47,895
854,7	50,524
855,2	51,038
855,6	48,352
856	44,981
856,4	40,838
856,9	40,581
857,3	39,552
857,7	38,952
858,2	46,524
858,6	43,638
859	46,752
859,4	50,838
859,9	50,695
860,3	46,581
860,7	45,638
861,1	39,181
861,6	39,724
862	41,838
862,4	38,667
862,9	37,867
863,3	42,524
863,7	36,724
864,1	37,552
864,6	30,981
865	25,324
865,4	29,181
865,9	34,781
866,3	30,41
866,7	32,295
867,1	25,895
867,6	33,81
868	34,581
868,4	30,724
868,8	27,81
869,3	29,695
869,7	34,895
870,1	39,295
870,6	35,038
871	14,495
871,4	21,381
871,8	18,124
872,3	21,638
872,7	15,295
873,1	14,038
873,5	16,295
874	36,352
874,4	32,495
874,8	32,581
875,3	31,01
875,7	31,267
876,1	32,838
876,5	31,038
877	30,267
877,4	23,038
877,8	24,552
878,2	25,924
878,7	28,238
879,1	27,695
879,5	32,352
879,9	33,095
880,4	37,695
880,8	36,895
881,2	32,438
881,7	28,21
882,1	27,524
882,5	21,01
882,9	18,552
883,4	19,667
883,8	25,752
884,2	22,467
884,6	22,524
885,1	22,581
885,5	26,267
885,9	26,695
886,3	27,495
886,8	18,81
887,2	17,438
887,6	19,924
888	19,324
888,5	17,61
888,9	17,01
889,3	10,867
889,8	11,095
890,2	13,924
890,6	10,867
891	10,295
891,5	11,667
891,9	12,381
892,3	15,152
892,7	18,295
893,2	22,781
893,6	22,752
894	20,867
894,4	19,952
894,9	20,838
895,3	21,695
895,7	21,124
896,1	19,752
896,6	20,581
897	22,81
897,4	24,61
897,8	24,838
898,3	18,038
898,7	16,124
899,1	15,752
899,5	14,61
900	10,181
900,4	9,181
900,8	3,467
901,2	11,352
901,7	13,581
902,1	13,838
902,5	18,067
902,9	24,267
903,4	21,952
903,8	26,695
904,2	23,238
904,6	24,81
905,1	27,467
905,5	25,667
905,9	25,152
906,3	28,81
906,8	31,267
907,2	34,267
907,6	29,067
908	27,695
908,5	23,381
908,9	16,61
909,3	12,295
909,7	8,867
910,2	9,352
910,6	14,124
911	7,638
911,4	14,152
911,9	19,81
912,3	20,61
912,7	25,552
913,1	25,752
913,6	21,438
914	25,324
914,4	22,781
914,8	25,638
915,3	20,524
915,7	15,695
916,1	10,41
916,5	12,181
916,9	10,381
917,4	6,752
917,8	3,038
918,2	2,124
918,6	-0,619
919,1	1,324
919,5	0,867
919,9	3,181
920,3	0,324
920,8	0,695
921,2	5,41
921,6	8,638
922	9,267
922,5	8,381
922,9	7,752
923,3	7,41
923,7	1,124
924,2	-1,276
924,6	-2,362
925	-2,419
925,4	-1,962
925,8	-4,39
926,3	0,952
926,7	3,067
927,1	5,924
927,5	10,181
928	5,41
928,4	7,41
928,8	8,324
929,2	6,667
929,7	9,124
930,1	8,41
930,5	2,867
930,9	10,638
931,3	9,038
931,8	10,21
932,2	11,438
932,6	9,867
933	7,867
933,5	7,695
933,9	6,81
934,3	6,781
934,7	3,867
935,2	1,781
935,6	3,124
936	7,067
936,4	6,838
936,8	7,067
937,3	3,895
937,7	7,581
938,1	11,181
938,5	7,095
939	4,552
939,4	5,41
939,8	4,695
940,2	7,581
940,6	7,038
941,1	4,438
941,5	11,495
941,9	8,667
942,3	11,095
942,8	7,952
943,2	10,81
943,6	5,152
944	12,124
944,4	10,695
944,9	9,695
945,3	7,352
945,7	4,638
946,1	-3,019
946,6	-0,019
947	-9,019
947,4	-7,99
947,8	-2,79
948,2	-4,876
948,7	-0,133
949,1	3,895
949,5	8,381
949,9	11,724
950,3	9,038
950,8	9,038
951,2	7,01
951,6	4,695
952	5,438
952,5	-2,105
952,9	-0,905
953,3	-0,648
953,7	-1,705
954,1	3,41
954,6	3,667
955	5,724
955,4	10,124
955,8	11,038
956,2	9,324
956,7	10,895
957,1	5,81
957,5	9,924
957,9	7,01
958,3	4,381
958,8	2,124
959,2	5,324
959,6	7,381
960	9,524
960,5	5,667
960,9	10,095
961,3	12,267
961,7	11,438
962,1	9,067
962,6	6,838
963	7,724
963,4	4,467
963,8	1,81
964,2	0,61
964,7	2,695
965,1	3,41
965,5	-2,276
965,9	-4,248
966,3	0,981
966,8	-0,105
967,2	1,667
967,6	-1,276
968	-1,619
968,4	2,495
968,9	6,581
969,3	10,124
969,7	8,21
970,1	7,867
970,5	6,638
971	6,638
971,4	6,867
971,8	6,124
972,2	0,038
972,6	2,324
973,1	1,267
973,5	5,552
973,9	9,124
974,3	6,41
974,7	12,095
975,2	14,581
975,6	14,467
976	16,81
976,4	11,838
976,8	10,752
977,3	11,752
977,7	0,867
978,1	2,524
978,5	0,752
978,9	-2,676
979,4	-4,676
979,8	-7,219
980,2	-7,962
980,6	-6,676
981	-7,705
981,5	-5,219
981,9	-3,476
982,3	-0,476
982,7	0,095
983,1	0,21
983,6	1,495
984	-1,79
984,4	0,038
984,8	0,41
985,2	4,695
985,6	3,638
986,1	3,21
986,5	6,524
986,9	5,752
987,3	3,667
987,7	2,21
988,2	-4,105
988,6	-5,533
989	-4,79
989,4	-6,648
989,8	-6,133
990,3	-8,962
990,7	-4,99
991,1	-0,076
991,5	3,324
991,9	8,895
992,3	12,324
992,8	8,381
993,2	11,924
993,6	11,895
994	14,124
994,4	14,095
994,9	10,867
995,3	6,524
995,7	9,124
996,1	5,067
996,5	1,981
996,9	-7,733
997,4	-5,019
997,8	-9,533
998,2	-6,905
998,6	-12,676
999	-13,19
999,5	-16,048
999,9	-9,476
1000,3	-16,076
1000,7	-13,105
1001,1	-13,533
1001,5	-2,876
1002	1,838
1002,4	2,895
1002,8	1,095
1003,2	4,21
1003,6	5,581
1004	6,752
1004,5	0,61
1004,9	-1,876
1005,3	-4,59
1005,7	-3,505
1006,1	-4,562
1006,6	-5,705
1007	-6,019
1007,4	-3,019
1007,8	-1,419
1008,2	-1,133
1008,6	1,41
1009,1	2,667
1009,5	4,21
1009,9	6,981
1010,3	8,81
1010,7	7,324
1011,1	11,038
1011,6	9,381
1012	10,238
1012,4	9,867
1012,8	5,781
1013,2	9,381
1013,6	8,381
1014,1	10,438
1014,5	9,21
1014,9	6,695
1015,3	5,467
1015,7	6,638
1016,1	3,01
1016,6	5,867
1017	5,238
1017,4	4,981
1017,8	4,952
1018,2	6,724
1018,6	-0,448
1019,1	-3,619
1019,5	-7,019
1019,9	-13,362
1020,3	-13,448
1020,7	-10,619
1021,1	-11,562
1021,6	-8,79
1022	-5,99
1022,4	-2,248
1022,8	1,952
1023,2	2,781
1023,6	3,524
1024,1	6,41
1024,5	8,924
1024,9	3,238
1025,3	0,895
1025,7	4,724
1026,1	5,667
1026,6	2,724
1027	0,724
1027,4	2,152
1027,8	2,867
1028,2	-1,105
1028,6	-1,219
1029	-1,562
1029,5	1,867
1029,9	-1,476
1030,3	-4,076
1030,7	-3,362
1031,1	-1,933
1031,5	-7,419
1032	-9,59
1032,4	-10,305
1032,8	-7,248
1033,2	-1,533
1033,6	-1,448
1034	3,581
1034,4	6,695
1034,9	10,21
1035,3	3,838
1035,7	5,181
1036,1	-0,076
1036,5	-0,905
1036,9	-2,048
1037,4	1,038
1037,8	-4,105
1038,2	1,41
1038,6	-3,076
1039	1,581
1039,4	5,952
1039,8	4,238
1040,3	5,781
1040,7	5,095
1041,1	4,381
1041,5	8,267
1041,9	4,752
1042,3	2,724
1042,7	3,752
1043,2	-3,505
1043,6	-0,362
1044	-3,076
1044,4	-1,962
1044,8	-0,905
1045,2	0,067
1045,6	-1,019
1046,1	2,038
1046,5	4,552
1046,9	3,867
1047,3	-0,333
1047,7	-2,133
1048,1	-2,876
1048,5	-2,648
1049	-1,733
1049,4	-0,39
1049,8	3,152
1050,2	5,61
1050,6	13,067
1051	13,41
1051,4	10,667
1051,9	7,752
1052,3	12,467
1052,7	11,381
1053,1	8,981
1053,5	1,01
1053,9	1,295
1054,3	0,838
1054,8	7,295
1055,2	3,01
1055,6	3,895
1056	5,81
1056,4	4,381
1056,8	4,324
1057,2	5,952
1057,6	1,324
1058,1	-4,819
1058,5	-6,448
1058,9	-5,133
1059,3	-0,076
1059,7	2,581
1060,1	5,438
1060,5	5,667
1061	11,152
1061,4	10,01
1061,8	13,352
1062,2	11,152
1062,6	10,41
1063	8,952
1063,4	6,352
1063,8	-2,962
1064,3	0,181
1064,7	-2,419
1065,1	-2,933
1065,5	-7,362
1065,9	-6,419
1066,3	-6,219
1066,7	-1,019
1067,1	-2,105
1067,6	-2,962
1068	-7,39
1068,4	-1,619
1068,8	-0,476
1069,2	4,81
1069,6	6,01
1070	13,295
1070,4	8,667
1070,9	15,038
1071,3	11,467
1071,7	8,752
1072,1	8,752
1072,5	5,238
1072,9	-3,276
1073,3	0,552
1073,7	-5,048
1074,2	-1,476
1074,6	0,352
1075	-4,99
1075,4	-3,419
1075,8	-0,79
1076,2	-4,133
1076,6	-0,676
1077	-4,876
1077,5	-3,305
1077,9	-2,362
1078,3	-0,505
1078,7	-3,019
1079,1	0,095
1079,5	1,181
1079,9	5,581
1080,3	1,324
1080,7	1,667
1081,2	3,495
1081,6	4,067
1082	1,067
1082,4	1,238
1082,8	-2,248
1083,2	0,581
1083,6	5,124
1084	3,838
1084,5	4,438
1084,9	4,552
1085,3	1,495
1085,7	2,895
1086,1	2,667
1086,5	-2,019
1086,9	-1,248
1087,3	-0,79
1087,7	-0,933
1088,2	3,352
1088,6	3,038
1089	3,067
1089,4	3,695
1089,8	0,752
1090,2	-0,362
1090,6	2,41
1091	0,895
1091,4	4,152
1091,9	3,752
1092,3	3,752
1092,7	4,324
1093,1	7,381
1093,5	4,952
1093,9	6,352
1094,3	10,038
1094,7	6,181
1095,1	10,324
1095,5	12,267
1096	7,095
1096,4	8,152
1096,8	4,724
1097,2	-3,39
1097,6	4,438
1098	-2,79
1098,4	0,581
1098,8	5,667
1099,2	9,381
1099,6	10,867
1100,1	11,324
1100,5	6,667
1100,9	6,495
1101,3	5,438
1101,7	2,124
1102,1	-0,333
1102,5	2,124
1102,9	3,095
1103,3	5,152
1103,7	10,21
1104,2	7,352
1104,6	9,295
1105	8,438
1105,4	6,352
1105,8	5,038
1106,2	2,838
1106,6	0,867
1107	0,838
1107,4	-0,533
1107,8	0,587
1108,3	-0,383
