Data from Subt2_240.txt Node
Date: Sat Aug 26 18:55:43 MSK 2023
User: vat
Spectrometer: MAYP114033
Trigger mode: 0
Integration Time (sec): 1,000000E0
Scans to average: 5
Electric dark correction enabled: true
Nonlinearity correction enabled: false
Boxcar width: 3
XAxis mode: Wavelengths
Number of Pixels in Spectrum: 2068
>>>>>Begin Spectral Data<<<<<
199,4	0,467
199,9	1,487
200,4	2,533
200,8	4,738
201,3	4,195
201,8	6,367
202,2	5,338
202,7	11,281
203,2	13,252
203,6	14,281
204,1	11,252
204,6	10,31
205	9,452
205,5	13,224
206	5,195
206,4	3,995
206,9	1,538
207,4	7,367
207,8	10,424
208,3	8,624
208,8	6,652
209,2	11,824
209,7	9,281
210,2	10,395
210,6	5,595
211,1	5,767
211,5	4,167
212	3,31
212,5	1,938
212,9	1,767
213,4	3,795
213,9	3,538
214,3	2,424
214,8	3,681
215,3	3,424
215,7	5,624
216,2	9,824
216,7	8,91
217,1	7,652
217,6	10,71
218,1	9,938
218,5	6,338
219	-2,462
219,5	-1,948
219,9	-4,09
220,4	3,738
220,9	-0,89
221,3	1,967
221,8	7,024
222,3	15,881
222,7	12,338
223,2	13,595
223,6	5,824
224,1	7,224
224,6	9,738
225	6,738
225,5	2,938
226	4,767
226,4	5,281
226,9	13,995
227,4	13,567
227,8	6,71
228,3	5,91
228,8	6,481
229,2	5,338
229,7	7,738
230,2	-0,69
230,6	2,195
231,1	11,995
231,5	16,395
232	12,852
232,5	15,052
232,9	13,11
233,4	14,024
233,9	15,281
234,3	11,481
234,8	10,424
235,3	14,652
235,7	14,767
236,2	14,11
236,7	16,367
237,1	13,538
237,6	8,71
238,1	8,11
238,5	8,881
239	8,767
239,4	15,738
239,9	12,252
240,4	13,71
240,8	20,481
241,3	19,881
241,8	21,224
242,2	18,024
242,7	5,881
243,2	8,852
243,6	3,795
244,1	5,681
244,6	4,967
245	-0,148
245,5	-1,148
245,9	3,024
246,4	4,31
246,9	8,167
247,3	4,081
247,8	8,595
248,3	10,224
248,7	16,138
249,2	19,938
249,7	17,567
250,1	19,195
250,6	15,338
251	16,252
251,5	21,567
252	20,995
252,4	19,395
252,9	20,052
253,4	15,481
253,8	14,995
254,3	10,081
254,8	7,052
255,2	1,31
255,7	-3,348
256,1	-6,348
256,6	-3,633
257,1	-0,148
257,5	-0,548
258	-0,376
258,5	1,452
258,9	3,795
259,4	7,595
259,9	11,252
260,3	7,681
260,8	7,367
261,2	1,938
261,7	5,195
262,2	3,652
262,6	2,652
263,1	2,252
263,6	5,652
264	10,852
264,5	19,538
264,9	15,567
265,4	18,424
265,9	16,281
266,3	15,852
266,8	16,195
267,3	11,938
267,7	8,538
268,2	9,795
268,7	9,452
269,1	10,91
269,6	8,595
270	11,138
270,5	10,71
271	9,195
271,4	11,224
271,9	7,31
272,4	12,224
272,8	10,767
273,3	5,081
273,7	9,195
274,2	6,024
274,7	5,51
275,1	10,224
275,6	5,767
276,1	5,167
276,5	11,024
277	7,281
277,4	11,252
277,9	13,024
278,4	11,481
278,8	12,538
279,3	12,538
279,8	7,652
280,2	10,481
280,7	13,881
281,1	8,738
281,6	10,052
282,1	9,452
282,5	11,824
283	11,424
283,4	11,024
283,9	7,367
284,4	12,652
284,8	11,452
285,3	9,652
285,8	6,938
286,2	3,567
286,7	0,824
287,1	-0,376
287,6	-4,862
288,1	-5,462
288,5	-1,205
289	1,31
289,5	8,395
289,9	8,824
290,4	11,567
290,8	14,51
291,3	13,852
291,8	10,052
292,2	7,424
292,7	8,281
293,1	10,51
293,6	11,138
294,1	10,824
294,5	10,252
295	12,738
295,5	14,824
295,9	15,424
296,4	12,652
296,8	8,395
297,3	8,452
297,8	5,195
298,2	3,681
298,7	5,138
299,1	2,652
299,6	4,138
300,1	9,424
300,5	9,024
301	13,567
301,5	17,395
301,9	15,252
302,4	11,195
302,8	9,681
303,3	5,681
303,8	0,852
304,2	-0,148
304,7	-4,262
305,1	-6,148
305,6	-3,748
306,1	0,538
306,5	2,767
307	10,567
307,4	13,652
307,9	12,538
308,4	12,995
308,8	7,481
309,3	6,567
309,8	5,51
310,2	4,024
310,7	0,31
311,1	0,195
311,6	0,595
312,1	5,967
312,5	5,852
313	7,167
313,4	4,395
313,9	6,995
314,4	7,281
314,8	4,167
315,3	5,51
315,7	-0,348
316,2	-5,062
316,7	-6,348
317,1	-3,719
317,6	-1,776
318	5,052
318,5	3,91
319	5,624
319,4	10,938
319,9	21,738
320,3	20,938
320,8	16,395
321,3	18,424
321,7	17,824
322,2	18,681
322,6	16,938
323,1	7,738
323,6	6,138
324	8,738
324,5	7,252
324,9	10,938
325,4	13,824
325,9	15,31
326,3	16,967
326,8	20,452
327,2	20,167
327,7	15,738
328,2	16,052
328,6	18,138
329,1	12,967
329,5	13,824
330	10,71
330,5	14,91
330,9	20,795
331,4	18,767
331,8	14,71
332,3	21,738
332,8	23,995
333,2	22,338
333,7	21,195
334,1	17,881
334,6	15,281
335,1	11,195
335,5	7,795
336	4,081
336,4	6,395
336,9	10,567
337,4	8,138
337,8	8,652
338,3	10,738
338,7	11,652
339,2	6,424
339,7	6,395
340,1	3,91
340,6	6,624
341	5,938
341,5	10,081
342	7,11
342,4	9,367
342,9	9,195
343,3	6,567
343,8	6,595
344,2	13,138
344,7	14,052
345,2	15,51
345,6	21,652
346,1	23,795
346,5	21,481
347	17,624
347,5	10,652
347,9	10,595
348,4	13,852
348,8	10,138
349,3	8,338
349,8	8,052
350,2	16,224
350,7	16,852
351,1	15,138
351,6	15,538
352	20,824
352,5	25,881
353	38,167
353,4	37,967
353,9	48,938
354,3	61,138
354,8	70,338
355,3	87,281
355,7	102,052
356,2	115,995
356,6	138,281
357,1	165,624
357,5	192,395
358	229,31
358,5	259,595
358,9	297,795
359,4	346,138
359,8	401,281
360,3	459,195
360,8	521,995
361,2	589,481
361,7	668,338
362,1	761,938
362,6	851,481
363	950,51
363,5	1057,024
364	1173,738
364,4	1292,024
364,9	1409,281
365,3	1523,424
365,8	1637,024
366,3	1740,31
366,7	1832,395
367,2	1921,024
367,6	1989,71
368,1	2042,538
368,5	2079,195
369	2101,052
369,5	2102,31
369,9	2090,395
370,4	2050,024
370,8	2003,167
371,3	1949,538
371,7	1874,224
372,2	1793,252
372,7	1709,538
373,1	1616,652
373,6	1527,024
374	1432,367
374,5	1338,452
374,9	1251,195
375,4	1161,395
375,9	1074,652
376,3	989,395
376,8	906,452
377,2	833,624
377,7	762,367
378,2	694,51
378,6	637,51
379,1	581,395
379,5	536,881
380	498,538
380,4	456,852
380,9	417,052
381,4	378,595
381,8	347,11
382,3	325,71
382,7	301,138
383,2	277,11
383,6	260,11
384,1	245,767
384,6	238,31
385	222,195
385,5	203,167
385,9	188,938
386,4	174,51
386,8	164,995
387,3	150,395
387,7	140,195
388,2	134,11
388,7	129,367
389,1	123,367
389,6	120,452
390	108,852
390,5	107,51
390,9	102,995
391,4	96,424
391,9	90,424
392,3	82,595
392,8	74,024
393,2	68,738
393,7	62,938
394,1	56,767
394,6	51,795
395,1	49,91
395,5	50,595
396	52,052
396,4	51,852
396,9	45,452
397,3	44,995
397,8	51,11
398,2	49,51
398,7	49,281
399,2	45,31
399,6	47,252
400,1	47,852
400,5	39,595
401	36,31
401,4	29,452
401,9	31,767
402,4	29,338
402,8	24,395
403,3	30,538
403,7	34,881
404,2	31,795
404,6	38,538
405,1	35,824
405,5	36,767
406	37,081
406,5	33,424
406,9	37,452
407,4	35,024
407,8	34,71
408,3	36,338
408,7	36,538
409,2	42,51
409,6	46,481
410,1	46,852
410,6	55,367
411	58,281
411,5	58,938
411,9	60,195
412,4	57,767
412,8	59,167
413,3	62,91
413,7	59,395
414,2	59,367
414,7	60,995
415,1	69,281
415,6	72,424
416	76,452
416,5	74,595
416,9	73,11
417,4	76,852
417,8	83,31
418,3	87,338
418,8	91,024
419,2	90,567
419,7	93,852
420,1	101,938
420,6	104,081
421	98,795
421,5	98,624
421,9	99,624
422,4	100,71
422,8	99,624
423,3	94,938
423,8	92,967
424,2	93,138
424,7	90,395
425,1	93,11
425,6	94,138
426	95,824
426,5	102,338
426,9	105,767
427,4	105,195
427,9	99,795
428,3	101,738
428,8	100,567
429,2	98,538
429,7	95,138
430,1	91,967
430,6	95,738
431	100,852
431,5	101,252
431,9	99,624
432,4	103,31
432,8	106,967
433,3	115,567
433,8	118,281
434,2	119,595
434,7	120,738
435,1	126,624
435,6	134,595
436	139,367
436,5	141,852
436,9	144,138
437,4	152,881
437,8	158,624
438,3	164,681
438,8	166,252
439,2	173,51
439,7	178,824
440,1	189,11
440,6	198,567
441	203,138
441,5	212,281
441,9	223,681
442,4	226,652
442,8	232,367
443,3	243,852
443,7	255,338
444,2	270,024
444,7	279,424
445,1	288,767
445,6	302,881
446	319,367
446,5	325,31
446,9	326,938
447,4	335,367
447,8	353,567
448,3	370,795
448,7	385,138
449,2	401,195
449,6	424,11
450,1	446,395
450,6	469,424
451	482,167
451,5	495,938
451,9	519,967
452,4	537,91
452,8	551,538
453,3	573,852
453,7	589,11
454,2	608,138
454,6	632,795
455,1	650,91
455,5	667,967
456	695,452
456,4	710,938
456,9	734,767
457,3	761,052
457,8	777,338
458,3	803,252
458,7	830,052
459,2	848,681
459,6	875,167
460,1	903,252
460,5	926,824
461	961,281
461,4	982,11
461,9	1007,852
462,3	1038,11
462,8	1069,367
463,2	1094,824
463,7	1125,224
464,1	1153,395
464,6	1191,852
465	1225,852
465,5	1256,881
466	1287,195
466,4	1316,138
466,9	1347,967
467,3	1375,538
467,8	1405,795
468,2	1439,31
468,7	1470,081
469,1	1508,052
469,6	1545,738
470	1581,138
470,5	1615,71
470,9	1644,195
471,4	1674,31
471,8	1711,281
472,3	1744,052
472,7	1776,024
473,2	1804,51
473,6	1839,167
474,1	1874,624
474,5	1906,052
475	1935,824
475,4	1967,338
475,9	1998,452
476,4	2032,967
476,8	2070,367
477,3	2103,052
477,7	2142,738
478,2	2176,967
478,6	2208,052
479,1	2240,538
479,5	2268,881
480	2295,424
480,4	2334,11
480,9	2356,395
481,3	2380,71
481,8	2409,452
482,2	2432,995
482,7	2464,567
483,1	2491,538
483,6	2505,481
484	2532,252
484,5	2564,024
484,9	2587,167
485,4	2622,967
485,8	2645,595
486,3	2671,795
486,7	2701,338
487,2	2722,824
487,6	2745,738
488,1	2770,11
488,5	2781,738
489	2802,338
489,4	2821,967
489,9	2835,624
490,4	2857,481
490,8	2876,595
491,3	2895,595
491,7	2911,31
492,2	2929,595
492,6	2939,91
493,1	2955,681
493,5	2965,195
494	2971,938
494,4	2985,024
494,9	2998,424
495,3	3016,681
495,8	3033,367
496,2	3051,938
496,7	3063,995
497,1	3081,338
497,6	3093,424
498	3109,024
498,5	3116,167
498,9	3123,767
499,4	3133,395
499,8	3150,938
500,3	3160,91
500,7	3167,967
501,2	3170,91
501,6	3173,481
502,1	3186,624
502,5	3196,252
503	3204,338
503,4	3206,424
503,9	3205,91
504,3	3217,452
504,8	3228,681
505,2	3234,538
505,7	3238,167
506,1	3243,652
506,6	3253,052
507	3267,767
507,5	3280,224
507,9	3280,881
508,4	3286,31
508,8	3295,338
509,3	3297,424
509,7	3307,052
510,2	3313,338
510,6	3310,052
511,1	3322,481
511,5	3329,195
512	3331,195
512,4	3340,652
512,9	3341,881
513,3	3344,71
513,8	3353,452
514,2	3355,224
514,7	3354,452
515,1	3363,738
515,6	3366,852
516	3364,624
516,5	3375,824
516,9	3381,681
517,4	3394,624
517,8	3408,824
518,3	3416,052
518,7	3426,595
519,2	3437,052
519,6	3439,252
520,1	3445,852
520,5	3449,938
521	3446,138
521,4	3444,91
521,9	3446,224
522,3	3457,024
522,8	3459,91
523,2	3462,424
523,7	3463,595
524,1	3474,824
524,6	3477,852
525	3477,567
525,5	3480,624
525,9	3491,081
526,4	3497,767
526,8	3511,11
527,3	3515,51
527,7	3524,167
528,2	3540,224
528,6	3549,281
529,1	3553,995
529,5	3562,938
530	3561,595
530,4	3573,595
530,9	3581,824
531,3	3587,681
531,8	3595,024
532,2	3603,224
532,6	3606,71
533,1	3613,481
533,5	3615,081
534	3622,71
534,4	3629,681
534,9	3637,881
535,3	3644,31
535,8	3655,224
536,2	3666,538
536,7	3680,167
537,1	3692,624
537,6	3699,195
538	3707,367
538,5	3710,224
538,9	3713,995
539,4	3722,395
539,8	3728,481
540,3	3735,395
540,7	3742,595
541,2	3745,281
541,6	3753,024
542,1	3770,71
542,5	3776,652
543	3784,252
543,4	3784,91
543,9	3796,481
544,3	3812,138
544,8	3826,881
545,2	3832,481
545,7	3846,452
546,1	3854,481
546,5	3867,967
547	3875,795
547,4	3878,167
547,9	3881,967
548,3	3886,224
548,8	3892,281
549,2	3898,252
549,7	3911,767
550,1	3922,881
550,6	3929,71
551	3944,367
551,5	3955,281
551,9	3956,481
552,4	3963,71
552,8	3965,738
553,3	3967,767
553,7	3977,624
554,2	3983,595
554,6	3990,795
555,1	4004,11
555,5	4011,767
555,9	4023,138
556,4	4033,71
556,8	4038,224
557,3	4045,252
557,7	4054,71
558,2	4062,795
558,6	4075,481
559,1	4074,624
559,5	4080,31
560	4090,167
560,4	4101,224
560,9	4106,767
561,3	4108,195
561,8	4111,052
562,2	4117,51
562,7	4120,91
563,1	4128,652
563,6	4128,481
564	4135,338
564,4	4141,995
564,9	4144,367
565,3	4150,852
565,8	4157,852
566,2	4160,995
566,7	4167,167
567,1	4168,995
567,6	4169,938
568	4174,252
568,5	4173,567
568,9	4174,224
569,4	4173,795
569,8	4175,624
570,3	4175,481
570,7	4179,481
571,1	4182,224
571,6	4190,138
572	4196,138
572,5	4202,195
572,9	4200,652
573,4	4199,938
573,8	4195,852
574,3	4193,081
574,7	4186,367
575,2	4177,11
575,6	4168,738
576,1	4162,11
576,5	4164,367
576,9	4156,167
577,4	4157,71
577,8	4153,167
578,3	4157,481
578,7	4156,31
579,2	4161,11
579,6	4146,738
580,1	4150,595
580,5	4145,995
581	4152,252
581,4	4139,567
581,9	4134,081
582,3	4123,967
582,7	4128,224
583,2	4123,595
583,6	4114,224
584,1	4104,395
584,5	4101,395
585	4098,024
585,4	4090,395
585,9	4076,452
586,3	4068,167
586,8	4063,767
587,2	4056,338
587,6	4055,567
588,1	4053,167
588,5	4052,338
589	4050,538
589,4	4045,652
589,9	4034,281
590,3	4024,967
590,8	4015,395
591,2	4009,824
591,7	4001,31
592,1	3995,281
592,5	3995,138
593	3994,595
593,4	3983,481
593,9	3976,167
594,3	3967,052
594,8	3956,795
595,2	3949,624
595,7	3937,11
596,1	3921,938
596,6	3922,995
597	3913,938
597,4	3906,624
597,9	3902,31
598,3	3901,767
598,8	3894,881
599,2	3893,938
599,7	3884,51
600,1	3879,938
600,6	3870,967
601	3864,567
601,4	3858,167
601,9	3855,252
602,3	3845,338
602,8	3837,367
603,2	3824,624
603,7	3813,11
604,1	3805,052
604,6	3787,538
605	3773,881
605,4	3767,167
605,9	3760,481
606,3	3747,995
606,8	3736,995
607,2	3724,624
607,7	3713,995
608,1	3702,51
608,6	3692,91
609	3682,538
609,4	3678,567
609,9	3663,624
610,3	3655,11
610,8	3647,481
611,2	3635,167
611,7	3619,11
612,1	3601,967
612,6	3586,824
613	3580,567
613,4	3565,224
613,9	3546,824
614,3	3531,452
614,8	3523,481
615,2	3506,224
615,7	3496,195
616,1	3480,624
616,6	3465,51
617	3459,138
617,4	3450,195
617,9	3435,624
618,3	3427,681
618,8	3415,11
619,2	3400,167
619,7	3390,11
620,1	3366,967
620,5	3356,395
621	3343,995
621,4	3329,538
621,9	3305,91
622,3	3296,481
622,8	3278,567
623,2	3265,938
623,6	3245,481
624,1	3231,567
624,5	3221,795
625	3219,024
625,4	3201,51
625,9	3187,595
626,3	3179,31
626,8	3170,452
627,2	3152,424
627,6	3126,11
628,1	3101,852
628,5	3091,795
629	3077,681
629,4	3059,51
629,9	3042,31
630,3	3021,681
630,7	3005,91
631,2	2997,024
631,6	2976,652
632,1	2960,481
632,5	2948,024
633	2926,31
633,4	2912,91
633,8	2903,081
634,3	2880,11
634,7	2866,281
635,2	2850,995
635,6	2840,71
636,1	2831,11
636,5	2818,595
636,9	2800,767
637,4	2786,681
637,8	2767,967
638,3	2756,138
638,7	2732,967
639,2	2717,224
639,6	2708,681
640	2697,024
640,5	2684,167
640,9	2669,595
641,4	2649,481
641,8	2636,91
642,2	2622,652
642,7	2610,395
643,1	2603,281
643,6	2590,824
644	2584,51
644,5	2578,11
644,9	2566,195
645,3	2561,395
645,8	2537,424
646,2	2521,824
646,7	2509,138
647,1	2493,081
647,6	2477,738
648	2468,395
648,4	2446,71
648,9	2439,167
649,3	2425,481
649,8	2418,967
650,2	2405,052
650,6	2398,195
651,1	2380,195
651,5	2377,081
652	2364,881
652,4	2353,024
652,9	2336,081
653,3	2330,795
653,7	2313,252
654,2	2300,881
654,6	2281,824
655,1	2269,224
655,5	2259,224
655,9	2242,91
656,4	2222,681
656,8	2208,938
657,3	2199,538
657,7	2186,624
658,2	2175,195
658,6	2157,681
659	2149,31
659,5	2135,138
659,9	2125,538
660,4	2111,881
660,8	2097,452
661,2	2083,795
661,7	2070,938
662,1	2055,452
662,6	2050,11
663	2032,11
663,4	2014,567
663,9	2006,567
664,3	1994,51
664,8	1978,738
665,2	1972,081
665,6	1955,881
666,1	1942,11
666,5	1933,081
667	1913,167
667,4	1892,281
667,9	1884,938
668,3	1867,595
668,7	1846,767
669,2	1842,681
669,6	1832,338
670,1	1827,338
670,5	1818,11
670,9	1804,567
671,4	1795,081
671,8	1790,795
672,3	1776,881
672,7	1761,852
673,1	1748,281
673,6	1740,11
674	1731,167
674,5	1715,852
674,9	1702,138
675,3	1689,51
675,8	1677,967
676,2	1664,538
676,7	1654,395
677,1	1647,252
677,5	1639,195
678	1632,567
678,4	1624,167
678,9	1617,681
679,3	1608,767
679,7	1598,195
680,2	1580,795
680,6	1566,91
681,1	1556,138
681,5	1548,595
681,9	1534,595
682,4	1528,595
682,8	1521,624
683,3	1514,995
683,7	1511,138
684,1	1501,567
684,6	1487,452
685	1479,195
685,5	1462,538
685,9	1446,452
686,3	1436,681
686,8	1425,424
687,2	1414,252
687,7	1402,538
688,1	1387,595
688,5	1380,052
689	1372,224
689,4	1357,51
689,9	1347,567
690,3	1337,252
690,7	1327,081
691,2	1323,738
691,6	1316,767
692	1311,195
692,5	1307,481
692,9	1298,795
693,4	1294,738
693,8	1286,767
694,2	1275,681
694,7	1264,538
695,1	1248,367
695,6	1239,767
696	1229,824
696,4	1216,138
696,9	1203,967
697,3	1193,624
697,8	1183,538
698,2	1180,024
698,6	1174,567
699,1	1168,11
699,5	1167,367
699,9	1162,881
700,4	1156,681
700,8	1149,452
701,3	1143,652
701,7	1134,224
702,1	1125,51
702,6	1115,024
703	1110,538
703,5	1106,281
703,9	1100,024
704,3	1093,795
704,8	1085,252
705,2	1078,11
705,6	1070,367
706,1	1059,338
706,5	1052,481
707	1042,767
707,4	1035,795
707,8	1027,138
708,3	1022,081
708,7	1014,11
709,2	1007,195
709,6	999,452
710	998,938
710,5	988,195
710,9	978,652
711,3	969,852
711,8	964,681
712,2	961,167
712,7	952,795
713,1	946,024
713,5	943,395
714	940,538
714,4	935,481
714,8	929,11
715,3	923,281
715,7	918,338
716,2	906,681
716,6	900,652
717	891,081
717,5	879,852
717,9	876,71
718,3	864,595
718,8	855,995
719,2	853,938
719,7	844,11
720,1	844,852
720,5	844,281
721	833,967
721,4	830,081
721,8	829,967
722,3	817,995
722,7	813,167
723,2	795,595
723,6	781,91
724	772,338
724,5	759,967
724,9	750,624
725,3	745,252
725,8	738,195
726,2	735,052
726,7	733,91
727,1	730,252
727,5	732,167
728	724,995
728,4	724,081
728,8	719,338
729,3	717,938
729,7	711,452
730,1	705,938
730,6	700,167
731	694,452
731,5	689,538
731,9	681,224
732,3	679,767
732,8	677,195
733,2	676,567
733,6	674,195
734,1	669,11
734,5	658,967
734,9	659,11
735,4	650,652
735,8	642,224
736,3	637,281
736,7	626,795
737,1	628,252
737,6	630,31
738	624,338
738,4	623,224
738,9	622,967
739,3	615,795
739,7	612,852
740,2	604,367
740,6	603,081
741,1	603,567
741,5	593,881
741,9	591,081
742,4	598,081
742,8	596,224
743,2	596,852
743,7	588,31
744,1	579,738
744,5	577,538
745	573,224
745,4	558,567
745,8	558,052
746,3	550,967
746,7	547,081
747,2	543,595
747,6	546,624
748	544,195
748,5	544,11
748,9	540,195
749,3	537,481
749,8	537,11
750,2	535,224
750,6	526,824
751,1	521,71
751,5	515,795
751,9	513,738
752,4	512,567
752,8	508,367
753,3	504,881
753,7	505,567
754,1	500,538
754,6	496,938
755	490,452
755,4	482,395
755,9	481,367
756,3	475,824
756,7	469,481
757,2	469,567
757,6	467,081
758	462,538
758,5	459,424
758,9	446,681
759,3	447,538
759,8	446,395
760,2	441,281
760,6	435,91
761,1	431,424
761,5	430,71
761,9	430,481
762,4	423,338
762,8	419,538
763,3	417,338
763,7	419,481
764,1	416,967
764,6	413,281
765	415,595
765,4	415,11
765,9	415,252
766,3	414,71
766,7	408,938
767,2	405,852
767,6	404,395
768	402,767
768,5	400,11
768,9	394,367
769,3	389,395
769,8	385,795
770,2	388,281
770,6	383,224
771,1	380,338
771,5	379,481
771,9	376,967
772,4	371,767
772,8	371,252
773,2	368,138
773,7	367,31
774,1	362,71
774,5	352,995
775	346,452
775,4	349,824
775,8	345,824
776,3	343,052
776,7	341,652
777,1	342,681
777,6	346,167
778	350,338
778,4	347,167
778,9	344,595
779,3	342,624
779,7	339,367
780,2	335,852
780,6	331,91
781	327,938
781,5	317,395
781,9	311,51
782,3	307,024
782,8	304,195
783,2	299,938
783,6	302,738
784,1	296,138
784,5	297,652
784,9	299,51
785,4	301,138
785,8	302,395
786,2	297,967
786,7	292,795
787,1	293,852
787,5	293,224
788	289,824
788,4	285,795
788,8	281,138
789,3	279,567
789,7	279,71
790,1	274,91
790,6	279,338
791	278,167
791,4	277,338
791,9	271,795
792,3	269,51
792,7	265,538
793,2	264,624
793,6	256,767
794	256,567
794,5	250,452
794,9	250,767
795,3	250,51
795,8	250,138
796,2	253,052
796,6	255,395
797,1	250,967
797,5	249,281
797,9	249,081
798,4	246,052
798,8	243,91
799,2	238,91
799,7	234,967
800,1	233,652
800,5	232,31
801	229,995
801,4	223,195
801,8	219,395
802,2	216,281
802,7	213,71
803,1	215,11
803,5	214,195
804	210,852
804,4	218,081
804,8	214,424
805,3	214,224
805,7	210,624
806,1	201,795
806,6	203,995
807	205,367
807,4	199,138
807,9	198,738
808,3	199,167
808,7	199,338
809,2	205,51
809,6	204,052
810	200,767
810,4	200,367
810,9	195,995
811,3	196,652
811,7	196,595
812,2	197,052
812,6	191,567
813	192,538
813,5	195,224
813,9	199,138
814,3	194,052
814,8	187,595
815,2	180,138
815,6	178,967
816,1	178,567
816,5	173,881
816,9	171,481
817,3	169,195
817,8	177,452
818,2	177,424
818,6	175,452
819,1	171,252
819,5	165,795
819,9	163,652
820,4	163,081
820,8	154,51
821,2	148,624
821,7	150,395
822,1	149,567
822,5	156,652
822,9	156,681
823,4	153,852
823,8	154,51
824,2	158,567
824,7	155,395
825,1	148,852
825,5	141,91
826	134,452
826,4	133,881
826,8	128,652
827,3	126,424
827,7	122,281
828,1	128,081
828,5	127,395
829	127,195
829,4	125,567
829,8	124,395
830,3	124,595
830,7	126,51
831,1	126,167
831,6	125,052
832	126,395
832,4	123,652
832,8	124,224
833,3	124,024
833,7	118,71
834,1	113,538
834,6	114,452
835	115,195
835,4	113,738
835,8	113,71
836,3	115,11
836,7	117,652
837,1	118,567
837,6	118,452
838	119,51
838,4	123,195
838,9	122,91
839,3	116,31
839,7	116,795
840,1	111,767
840,6	110,081
841	109,024
841,4	105,51
841,9	108,31
842,3	108,852
842,7	109,938
843,1	113,31
843,6	111,567
844	108,624
844,4	116,424
844,9	113,31
845,3	114,738
845,7	112,91
846,2	106,967
846,6	106,31
847	107,681
847,4	100,967
847,9	103,081
848,3	98,538
848,7	97,481
849,2	101,852
849,6	97,252
850	95,967
850,4	93,938
850,9	89,167
851,3	92,167
851,7	90,624
852,2	85,938
852,6	90,31
853	88,395
853,4	90,281
853,9	87,481
854,3	86,024
854,7	89,195
855,2	94,138
855,6	93,081
856	91,195
856,4	86,852
856,9	88,424
857,3	90,281
857,7	86,881
858,2	84,938
858,6	81,738
859	80,995
859,4	84,51
859,9	82,91
860,3	77,367
860,7	76,938
861,1	75,91
861,6	77,395
862	78,795
862,4	72,938
862,9	73,367
863,3	74,967
863,7	72,424
864,1	71,824
864,6	65,595
865	66,91
865,4	72,367
865,9	74,452
866,3	70,767
866,7	69,624
867,1	67,452
867,6	70,624
868	65,595
868,4	58,195
868,8	57,681
869,3	60,795
869,7	66,138
870,1	64,31
870,6	62,538
871	69,224
871,4	77,31
871,8	71,824
872,3	71,595
872,7	68,367
873,1	71,452
873,5	74,252
874	65,852
874,4	59,795
874,8	56,281
875,3	59,652
875,7	55,11
876,1	52,395
876,5	48,881
877	49,395
877,4	47,567
877,8	55,738
878,2	56,538
878,7	60,767
879,1	60,795
879,5	64,795
879,9	66,338
880,4	68,738
880,8	66,11
881,2	61,424
881,7	61,91
882,1	63,138
882,5	61,595
882,9	61,767
883,4	60,51
883,8	60,51
884,2	61,138
884,6	56,167
885,1	53,624
885,5	53,167
885,9	53,652
886,3	54,967
886,8	50,51
887,2	49,481
887,6	49,452
888	52,738
888,5	51,595
888,9	47,567
889,3	45,252
889,8	44,938
890,2	43,91
890,6	40,51
891	40,995
891,5	41,595
891,9	43,51
892,3	46,052
892,7	47,938
893,2	45,967
893,6	51,681
894	52,224
894,4	47,11
894,9	48,367
895,3	45,252
895,7	44,681
896,1	43,167
896,6	40,595
897	37,11
897,4	45,081
897,8	41,452
898,3	44,11
898,7	42,138
899,1	41,795
899,5	41,338
900	33,538
900,4	28,31
900,8	28,195
901,2	24,081
901,7	25,024
902,1	29,138
902,5	30,595
902,9	32,595
903,4	36,624
903,8	38,995
904,2	39,395
904,6	40,938
905,1	36,052
905,5	34,881
905,9	42,138
906,3	40,91
906,8	40,824
907,2	39,252
907,6	38,281
908	42,024
908,5	39,967
908,9	33,281
909,3	33,91
909,7	32,738
910,2	36,567
910,6	37,795
911	35,367
911,4	38,195
911,9	38,024
912,3	34,11
912,7	35,995
913,1	35,538
913,6	34,567
914	34,424
914,4	29,452
914,8	33,71
915,3	33,224
915,7	30,738
916,1	25,567
916,5	28,167
916,9	24,11
917,4	25,11
917,8	26,995
918,2	24,281
918,6	21,624
919,1	28,367
919,5	29,595
919,9	33,195
920,3	34,881
920,8	30,452
921,2	33,11
921,6	35,652
922	30,452
922,5	23,938
922,9	22,938
923,3	20,395
923,7	21,91
924,2	23,31
924,6	20,624
925	23,052
925,4	20,967
925,8	21,824
926,3	21,195
926,7	20,281
927,1	15,167
927,5	17,31
928	13,481
928,4	16,567
928,8	17,252
929,2	18,795
929,7	20,595
930,1	24,281
930,5	25,567
930,9	28,795
931,3	32,424
931,8	30,938
932,2	33,824
932,6	32,481
933	24,195
933,5	23,395
933,9	26,31
934,3	25,481
934,7	23,138
935,2	19,824
935,6	19,738
936	26,538
936,4	25,767
936,8	20,595
937,3	17,081
937,7	22,252
938,1	24,31
938,5	18,11
939	20,824
939,4	24,024
939,8	24,738
940,2	23,395
940,6	23,624
941,1	22,395
941,5	30,224
941,9	23,224
942,3	19,938
942,8	20,452
943,2	24,338
943,6	21,367
944	23,281
944,4	21,71
944,9	19,91
945,3	18,738
945,7	16,167
946,1	10,224
946,6	8,652
947	8,11
947,4	11,738
947,8	20,338
948,2	16,652
948,7	15,338
949,1	16,167
949,5	18,995
949,9	16,195
950,3	10,538
950,8	9,052
951,2	14,024
951,6	13,338
952	19,024
952,5	13,595
952,9	16,824
953,3	17,452
953,7	12,395
954,1	17,252
954,6	22,852
955	21,538
955,4	24,224
955,8	25,138
956,2	28,367
956,7	35,51
957,1	30,138
957,5	29,852
957,9	28,481
958,3	27,652
958,8	28,138
959,2	30,024
959,6	29,91
960	30,11
960,5	30,967
960,9	31,624
961,3	30,624
961,7	22,481
962,1	15,595
962,6	16,252
963	16,224
963,4	11,481
963,8	8,395
964,2	9,138
964,7	14,71
965,1	16,138
965,5	17,167
965,9	12,795
966,3	15,224
966,8	16,395
967,2	16,338
967,6	18,652
968	13,11
968,4	10,252
968,9	13,852
969,3	15,91
969,7	12,71
970,1	16,138
970,5	11,795
971	19,252
971,4	16,967
971,8	19,224
972,2	14,167
972,6	20,967
973,1	15,967
973,5	16,538
973,9	14,452
974,3	10,795
974,7	12,195
975,2	15,338
975,6	9,681
976	12,71
976,4	8,681
976,8	9,31
977,3	12,995
977,7	9,995
978,1	7,967
978,5	7,424
978,9	4,995
979,4	7,538
979,8	7,652
980,2	6,624
980,6	3,967
981	4,081
981,5	7,652
981,9	7,538
982,3	10,424
982,7	11,71
983,1	8,767
983,6	10,681
984	12,31
984,4	14,338
984,8	19,11
985,2	18,395
985,6	15,91
986,1	20,195
986,5	20,11
986,9	17,767
987,3	14,081
987,7	13,481
988,2	10,281
988,6	12,31
989	11,424
989,4	11,338
989,8	10,567
990,3	12,224
990,7	9,024
991,1	10,595
991,5	11,452
991,9	10,338
992,3	12,938
992,8	16,967
993,2	13,624
993,6	13,252
994	17,081
994,4	14,624
994,9	15,652
995,3	11,338
995,7	6,51
996,1	7,967
996,5	13,31
996,9	7,452
997,4	7,481
997,8	2,195
998,2	3,167
998,6	2,767
999	1,995
999,5	0,167
999,9	1,081
1000,3	-3,49
1000,7	-0,662
1001,1	-1,976
1001,5	3,624
1002	9,881
1002,4	7,081
1002,8	6,567
1003,2	7,338
1003,6	10,881
1004	15,681
1004,5	9,652
1004,9	5,338
1005,3	3,024
1005,7	5,195
1006,1	6,852
1006,6	4,424
1007	1,824
1007,4	3,681
1007,8	2,595
1008,2	4,824
1008,6	6,938
1009,1	6,367
1009,5	8,538
1009,9	8,367
1010,3	10,081
1010,7	14,167
1011,1	10,252
1011,6	12,51
1012	16,938
1012,4	16,338
1012,8	19,481
1013,2	22,567
1013,6	20,567
1014,1	23,652
1014,5	19,767
1014,9	19,738
1015,3	15,538
1015,7	13,681
1016,1	8,652
1016,6	7,367
1017	10,681
1017,4	8,938
1017,8	9,538
1018,2	11,795
1018,6	8,738
1019,1	9,881
1019,5	11,795
1019,9	9,881
1020,3	14,024
1020,7	13,281
1021,1	13,395
1021,6	16,052
1022	21,71
1022,4	22,338
1022,8	22,081
1023,2	22,31
1023,6	22,31
1024,1	27,852
1024,5	31,395
1024,9	22,138
1025,3	21,138
1025,7	21,281
1026,1	21,452
1026,6	19,538
1027	12,595
1027,4	9,024
1027,8	10,995
1028,2	8,338
1028,6	13,367
1029	11,195
1029,5	16,481
1029,9	18,51
1030,3	16,738
1030,7	16,795
1031,1	18,395
1031,5	10,31
1032	8,167
1032,4	4,881
1032,8	7,852
1033,2	7,281
1033,6	6,995
1034	5,824
1034,4	6,138
1034,9	8,995
1035,3	5,795
1035,7	8,852
1036,1	7,538
1036,5	6,681
1036,9	9,452
1037,4	16,281
1037,8	11,024
1038,2	13,881
1038,6	8,852
1039	16,652
1039,4	25,081
1039,8	18,71
1040,3	15,367
1040,7	17,91
1041,1	19,024
1041,5	18,738
1041,9	12,081
1042,3	12,538
1042,7	19,31
1043,2	16,71
1043,6	14,938
1044	10,538
1044,4	13,795
1044,8	14,624
1045,2	8,138
1045,6	8,481
1046,1	11,11
1046,5	10,195
1046,9	10,481
1047,3	7,538
1047,7	6,852
1048,1	5,195
1048,5	4,481
1049	6,795
1049,4	14,367
1049,8	16,767
1050,2	16,567
1050,6	21,567
1051	23,767
1051,4	23,052
1051,9	17,31
1052,3	21,538
1052,7	17,91
1053,1	17,367
1053,5	15,024
1053,9	14,51
1054,3	13,967
1054,8	20,852
1055,2	14,567
1055,6	22,624
1056	21,795
1056,4	22,681
1056,8	23,51
1057,2	19,195
1057,6	11,481
1058,1	8,281
1058,5	0,538
1058,9	4,367
1059,3	5,367
1059,7	5,11
1060,1	8,167
1060,5	11,567
1061	15,881
1061,4	19,624
1061,8	20,567
1062,2	13,824
1062,6	16,938
1063	20,51
1063,4	20,738
1063,8	19,024
1064,3	15,395
1064,7	11,167
1065,1	13,881
1065,5	8,081
1065,9	1,995
1066,3	0,652
1066,7	-1,919
1067,1	-2,405
1067,6	-0,748
1068	-2,919
1068,4	2,138
1068,8	8,195
1069,2	10,31
1069,6	11,138
1070	13,624
1070,4	14,481
1070,9	13,052
1071,3	12,481
1071,7	6,338
1072,1	8,452
1072,5	8,081
1072,9	9,452
1073,3	11,167
1073,7	14,052
1074,2	12,767
1074,6	17,224
1075	12,11
1075,4	14,024
1075,8	10,338
1076,2	7,195
1076,6	8,195
1077	7,624
1077,5	8,51
1077,9	11,91
1078,3	12,081
1078,7	15,567
1079,1	12,367
1079,5	12,995
1079,9	15,281
1080,3	12,11
1080,7	11,395
1081,2	16,224
1081,6	15,224
1082	19,538
1082,4	23,367
1082,8	24,681
1083,2	24,738
1083,6	25,71
1084	20,367
1084,5	20,424
1084,9	18,281
1085,3	9,71
1085,7	8,51
1086,1	6,738
1086,5	7,281
1086,9	12,024
1087,3	10,138
1087,7	12,281
1088,2	18,024
1088,6	16,395
1089	19,624
1089,4	18,51
1089,8	14,052
1090,2	15,824
1090,6	13,738
1091	16,395
1091,4	15,538
1091,9	12,995
1092,3	12,824
1092,7	11,852
1093,1	14,395
1093,5	16,367
1093,9	11,738
1094,3	15,51
1094,7	18,51
1095,1	20,538
1095,5	22,424
1096	18,31
1096,4	19,281
1096,8	16,281
1097,2	13,595
1097,6	15,995
1098	12,938
1098,4	15,081
1098,8	14,795
1099,2	18,852
1099,6	21,538
1100,1	21,081
1100,5	15,938
1100,9	14,338
1101,3	11,252
1101,7	11,738
1102,1	6,138
1102,5	9,281
1102,9	10,738
1103,3	14,338
1103,7	19,538
1104,2	18,11
1104,6	18,767
1105	16,738
1105,4	15,367
1105,8	12,052
1106,2	8,424
1106,6	3,595
1107	2,995
1107,4	2,6
1107,8	3,447
1108,3	-0,433
