Data from Subt2_190.txt Node
Date: Sat Aug 26 18:41:53 MSK 2023
User: vat
Spectrometer: MAYP114033
Trigger mode: 0
Integration Time (sec): 1,000000E0
Scans to average: 5
Electric dark correction enabled: true
Nonlinearity correction enabled: false
Boxcar width: 3
XAxis mode: Wavelengths
Number of Pixels in Spectrum: 2068
>>>>>Begin Spectral Data<<<<<
199,4	-0,083
199,9	-1,253
200,4	-1,733
200,8	-0,848
201,3	-2,276
201,8	-2,333
202,2	-1,762
202,7	2,81
203,2	2,81
203,6	3,381
204,1	0,01
204,6	-0,362
205	2,981
205,5	1,524
206	-2,819
206,4	-1,533
206,9	-4,59
207,4	0,438
207,8	1,781
208,3	-2,248
208,8	0,838
209,2	2,524
209,7	2,581
210,2	8,667
210,6	8,238
211,1	9,124
211,5	4,01
212	0,81
212,5	-0,19
212,9	-2,019
213,4	-4,648
213,9	-10,248
214,3	-10,876
214,8	-0,905
215,3	-0,733
215,7	2,667
216,2	3,981
216,7	6,438
217,1	9,438
217,6	11,781
218,1	8,095
218,5	9,781
219	3,495
219,5	6,781
219,9	2,152
220,4	10,61
220,9	6,867
221,3	8,124
221,8	10,21
222,3	13,324
222,7	14,238
223,2	17,667
223,6	6,638
224,1	9,724
224,6	8,667
225	5,752
225,5	4,152
226	-1,476
226,4	0,495
226,9	3,581
227,4	2,181
227,8	-0,705
228,3	-2,705
228,8	-2,476
229,2	-1,133
229,7	-5,276
230,2	-6,619
230,6	-0,448
231,1	8,981
231,5	10,952
232	9,01
232,5	8,438
232,9	11,924
233,4	15,21
233,9	9,21
234,3	3,067
234,8	4,01
235,3	6,41
235,7	12,467
236,2	5,695
236,7	6,695
237,1	9,067
237,6	6,695
238,1	6,352
238,5	2,867
239	0,524
239,4	6,01
239,9	1,981
240,4	0,381
240,8	5,352
241,3	-0,905
241,8	0,467
242,2	-3,876
242,7	-6,562
243,2	-0,733
243,6	-1,362
244,1	-3,333
244,6	-1,362
245	-1,133
245,5	-0,162
245,9	-3,076
246,4	-8,476
246,9	-7,39
247,3	-10,762
247,8	-7,876
248,3	-3,59
248,7	1,152
249,2	4,781
249,7	4,324
250,1	3,352
250,6	9,238
251	9,695
251,5	11,152
252	5,181
252,4	10,21
252,9	9,124
253,4	4,81
253,8	1,695
254,3	4,638
254,8	2,838
255,2	5,467
255,7	-2,79
256,1	0,952
256,6	4,495
257,1	4,552
257,5	2,667
258	-1,99
258,5	-2,248
258,9	-0,162
259,4	-0,762
259,9	3,41
260,3	-0,819
260,8	-6,876
261,2	-2,59
261,7	-1,19
262,2	-1,79
262,6	-1,533
263,1	-2,219
263,6	2,095
264	9,695
264,5	9,467
264,9	6,695
265,4	7,21
265,9	4,61
266,3	5,924
266,8	7,724
267,3	5,324
267,7	4,838
268,2	6,867
268,7	9,152
269,1	12,667
269,6	11,41
270	13,667
270,5	11,638
271	12,467
271,4	9,752
271,9	6,895
272,4	7,952
272,8	3,21
273,3	-2,619
273,7	2,752
274,2	1,524
274,7	1,61
275,1	6,667
275,6	5,724
276,1	5,41
276,5	8,61
277	5,495
277,4	7,124
277,9	8,295
278,4	5,695
278,8	4,152
279,3	6,524
279,8	8,381
280,2	10,324
280,7	8,838
281,1	7,752
281,6	8,524
282,1	8,352
282,5	8,524
283	3,295
283,4	-1,848
283,9	0,095
284,4	5,41
284,8	5,752
285,3	5,21
285,8	3,552
286,2	7,781
286,7	13,01
287,1	9,324
287,6	8,752
288,1	3,838
288,5	6,067
289	5,41
289,5	4,295
289,9	-2,819
290,4	1,152
290,8	-2,962
291,3	2,124
291,8	5,152
292,2	5,552
292,7	7,152
293,1	12,238
293,6	12,267
294,1	14,581
294,5	12,467
295	8,924
295,5	9,752
295,9	10,467
296,4	8,095
296,8	2,752
297,3	-0,219
297,8	-4,876
298,2	-8,105
298,7	-5,305
299,1	-10,819
299,6	-10,276
300,1	-4,476
300,5	-3,648
301	4,695
301,5	11,924
301,9	10,667
302,4	9,41
302,8	9,638
303,3	6,01
303,8	3,324
304,2	-0,876
304,7	-7,333
305,1	-14,105
305,6	-13,79
306,1	-7,733
306,5	-6,848
307	-2,019
307,4	3,324
307,9	2,524
308,4	4,152
308,8	1,438
309,3	-2,248
309,8	-4,848
310,2	-3,048
310,7	-14,448
311,1	-13,876
311,6	-9,305
312,1	-3,305
312,5	-1,733
313	3,324
313,4	1,01
313,9	11,838
314,4	14,895
314,8	12,981
315,3	13,524
315,7	8,152
316,2	3,781
316,7	2,324
317,1	2,867
317,6	0,352
318	4,952
318,5	4,267
319	6,524
319,4	11,152
319,9	15,095
320,3	11,381
320,8	9,752
321,3	10,181
321,7	9,695
322,2	9,352
322,6	7,495
323,1	2,61
323,6	1,981
324	3,724
324,5	-2,476
324,9	-0,448
325,4	1,41
325,9	3,124
326,3	4,438
326,8	5,41
327,2	3,781
327,7	5,181
328,2	2,61
328,6	4,495
329,1	-1,448
329,5	-0,562
330	-5,105
330,5	0,095
330,9	3,352
331,4	8,01
331,8	5,581
332,3	11,724
332,8	14,581
333,2	17,038
333,7	15,752
334,1	16,438
334,6	10,781
335,1	4,381
335,5	3,467
336	0,124
336,4	4,952
336,9	9,552
337,4	11,695
337,8	14,867
338,3	18,267
338,7	17,61
339,2	16,152
339,7	18,867
340,1	10,01
340,6	4,21
341	0,81
341,5	2,41
342	-0,248
342,4	-1,59
342,9	-8,99
343,3	-4,219
343,8	-4,962
344,2	-0,962
344,7	3,352
345,2	6,067
345,6	10,667
346,1	15,295
346,5	12,838
347	13,381
347,5	8,924
347,9	8,267
348,4	8,352
348,8	6,524
349,3	7,01
349,8	9,667
350,2	15,295
350,7	16,267
351,1	16,724
351,6	19,181
352	25,038
352,5	26,895
353	33,61
353,4	37,781
353,9	50,324
354,3	62,581
354,8	75,752
355,3	94,838
355,7	115,752
356,2	139,438
356,6	166,01
357,1	194,924
357,5	225,952
358	261,981
358,5	299,467
358,9	346,267
359,4	398,752
359,8	459,438
360,3	530,067
360,8	602,524
361,2	689,81
361,7	782,41
362,1	889,01
362,6	1005,352
363	1123,067
363,5	1249,352
364	1392,981
364,4	1528,981
364,9	1671,981
365,3	1809,124
365,8	1933,352
366,3	2057,981
366,7	2168,095
367,2	2258,924
367,6	2341,781
368,1	2405,152
368,5	2444,181
369	2469,267
369,5	2473,381
369,9	2454,524
370,4	2417,924
370,8	2360,181
371,3	2286,152
371,7	2204,295
372,2	2109,524
372,7	2006,381
373,1	1900,352
373,6	1796,152
374	1684,695
374,5	1576,952
374,9	1468,581
375,4	1368,267
375,9	1270,067
376,3	1171,467
376,8	1072,895
377,2	994,381
377,7	908,524
378,2	833,295
378,6	760,895
379,1	694,81
379,5	641,038
380	593,352
380,4	537,924
380,9	496,552
381,4	453,152
381,8	415,667
382,3	385,667
382,7	355,124
383,2	328,667
383,6	309,61
384,1	288,838
384,6	271,095
385	254,352
385,5	234,895
385,9	216,495
386,4	202,41
386,8	189,124
387,3	174,495
387,7	161,838
388,2	150,781
388,7	139,781
389,1	134,381
389,6	122,324
390	111,952
390,5	110,038
390,9	104,781
391,4	93,638
391,9	88,952
392,3	80,81
392,8	74,752
393,2	65,41
393,7	58,667
394,1	52,467
394,6	52,095
395,1	53,152
395,5	51,124
396	50,924
396,4	52,524
396,9	51,667
397,3	55,61
397,8	59,038
398,2	53,124
398,7	53,038
399,2	52,152
399,6	53,895
400,1	49,81
400,5	41,638
401	36,381
401,4	34,752
401,9	34,724
402,4	35,467
402,8	32,752
403,3	39,552
403,7	41,381
404,2	45,438
404,6	50,381
405,1	49,01
405,5	45,895
406	48,152
406,5	44,61
406,9	47,61
407,4	45,695
407,8	47,038
408,3	52,324
408,7	56,381
409,2	61,181
409,6	68,667
410,1	75,352
410,6	84,152
411	95,981
411,5	101,981
411,9	110,124
412,4	115,895
412,8	118,295
413,3	123,81
413,7	126,581
414,2	127,41
414,7	135,038
415,1	146,838
415,6	152,581
416	161,81
416,5	171,781
416,9	180,324
417,4	188,152
417,8	203,038
418,3	211,381
418,8	222,552
419,2	232,124
419,7	242,21
420,1	252,838
420,6	266,495
421	274,952
421,5	287,724
421,9	305,438
422,4	323,895
422,8	335,838
423,3	354,124
423,8	369,61
424,2	381,638
424,7	392,667
425,1	404,952
425,6	419,81
426	438,952
426,5	461,924
426,9	484,638
427,4	506,324
427,9	531,981
428,3	562,267
428,8	587,952
429,2	618,381
429,7	643,981
430,1	669,495
430,6	706,067
431	738,752
431,5	773,381
431,9	809,838
432,4	848,152
432,8	890,067
433,3	936,581
433,8	979,01
434,2	1027,295
434,7	1073,581
435,1	1124,181
435,6	1174,895
436	1226,095
436,5	1282,352
436,9	1335,867
437,4	1396,495
437,8	1459,81
438,3	1524,867
438,8	1593,038
439,2	1662,524
439,7	1735,038
440,1	1814,838
440,6	1895,438
441	1973,238
441,5	2057,324
441,9	2148,238
442,4	2240,124
442,8	2330,81
443,3	2432,524
443,7	2530,152
444,2	2635,21
444,7	2740,124
445,1	2844,724
445,6	2955,867
446	3071,895
446,5	3180,352
446,9	3293,21
447,4	3412,067
447,8	3537,438
448,3	3665,324
448,7	3787,867
449,2	3920,61
449,6	4060,21
450,1	4196,81
450,6	4337,381
451	4482,81
451,5	4634,81
451,9	4791,581
452,4	4947,867
452,8	5102,952
453,3	5269,21
453,7	5432,867
454,2	5603,038
454,6	5762,01
455,1	5931,01
455,5	6094,667
456	6270,067
456,4	6448,124
456,9	6625,152
457,3	6802,724
457,8	6990,724
458,3	7176,324
458,7	7367,352
459,2	7550,495
459,6	7736,238
460,1	7931,924
460,5	8115,724
461	8308,21
461,4	8501,038
461,9	8689,61
462,3	8883,267
462,8	9074,895
463,2	9273,61
463,7	9472,724
464,1	9667,352
464,6	9870,895
465	10062,581
465,5	10270,01
466	10477,324
466,4	10658,695
466,9	10861,524
467,3	11057,352
467,8	11243,324
468,2	11451,581
468,7	11635,895
469,1	11821,752
469,6	12018,638
470	12203,124
470,5	12380,495
470,9	12560,21
471,4	12731,667
471,8	12907,267
472,3	13082,467
472,7	13247,667
473,2	13419,181
473,6	13576,095
474,1	13748,381
474,5	13911,524
475	14082,152
475,4	14245,01
475,9	14404,781
476,4	14541,067
476,8	14705,61
477,3	14848,695
477,7	14995,038
478,2	15118,324
478,6	15238,124
479,1	15355,21
479,5	15475,238
480	15584,21
480,4	15687,724
480,9	15775,924
481,3	15875,41
481,8	15963,638
482,2	16053,952
482,7	16138,381
483,1	16227,524
483,6	16294,867
484	16372,581
484,5	16432,752
484,9	16488,752
485,4	16537,01
485,8	16581,124
486,3	16611,781
486,7	16654,81
487,2	16684,381
487,6	16701,41
488,1	16728,61
488,5	16752,695
489	16773,067
489,4	16782,638
489,9	16766,41
490,4	16758,981
490,8	16761,21
491,3	16750,667
491,7	16726,952
492,2	16705,238
492,6	16665,124
493,1	16650,095
493,5	16601,238
494	16547,01
494,4	16484,181
494,9	16434,181
495,3	16373,01
495,8	16325,952
496,2	16263,895
496,7	16212,267
497,1	16159,467
497,6	16108,581
498	16041,581
498,5	15978,124
498,9	15894,352
499,4	15819,267
499,8	15743,438
500,3	15658,524
500,7	15569,495
501,2	15481,895
501,6	15386,124
502,1	15310,152
502,5	15230,352
503	15133,667
503,4	15038,124
503,9	14946,067
504,3	14852,724
504,8	14752,438
505,2	14641,638
505,7	14524,581
506,1	14424,952
506,6	14315,352
507	14206,638
507,5	14095,267
507,9	13990,81
508,4	13883,495
508,8	13771,41
509,3	13647,895
509,7	13534,667
510,2	13418,724
510,6	13297,21
511,1	13169,152
511,5	13042,267
512	12915,295
512,4	12794,295
512,9	12676,238
513,3	12549,952
513,8	12424,524
514,2	12306,238
514,7	12194,895
515,1	12079,581
515,6	11958,581
516	11832,981
516,5	11714,095
516,9	11599,895
517,4	11476,838
517,8	11349,467
518,3	11223,667
518,7	11102,495
519,2	10989,924
519,6	10873,295
520,1	10757,238
520,5	10636,81
521	10518,724
521,4	10409,752
521,9	10292,867
522,3	10169,495
522,8	10060,867
523,2	9940,524
523,7	9836,295
524,1	9730,295
524,6	9615,724
525	9508,895
525,5	9407,781
525,9	9293,038
526,4	9192,638
526,8	9080,467
527,3	8975,695
527,7	8877,152
528,2	8779,667
528,6	8682,095
529,1	8586,581
529,5	8495,724
530	8405,438
530,4	8315,352
530,9	8222,895
531,3	8137,095
531,8	8040,552
532,2	7953,181
532,6	7855,981
533,1	7761,324
533,5	7670,581
534	7586,524
534,4	7502,01
534,9	7417,638
535,3	7332,81
535,8	7251,724
536,2	7183,952
536,7	7102,61
537,1	7022,61
537,6	6943,038
538	6878,295
538,5	6810,038
538,9	6731,752
539,4	6662,181
539,8	6592,724
540,3	6528,924
540,7	6456,124
541,2	6383,238
541,6	6303,124
542,1	6239,495
542,5	6171,124
543	6108,21
543,4	6033,638
543,9	5978,638
544,3	5921,152
544,8	5866,352
545,2	5810,467
545,7	5747,238
546,1	5693,324
546,5	5643,61
547	5586,095
547,4	5523,695
547,9	5463,01
548,3	5405,124
548,8	5363,21
549,2	5305,667
549,7	5254,124
550,1	5203,324
550,6	5158,495
551	5114,41
551,5	5077,581
551,9	5016,61
552,4	4970,381
552,8	4924,181
553,3	4876,581
553,7	4824,524
554,2	4782,524
554,6	4738,41
555,1	4703,981
555,5	4668,352
555,9	4629,41
556,4	4585,067
556,8	4548,981
557,3	4512,352
557,7	4467,038
558,2	4430,238
558,6	4387,724
559,1	4345,781
559,5	4313,524
560	4280,438
560,4	4240,381
560,9	4210,352
561,3	4169,952
561,8	4136,267
562,2	4106,724
562,7	4070,152
563,1	4037,695
563,6	4006,724
564	3976,752
564,4	3944,981
564,9	3918,781
565,3	3891,152
565,8	3856,238
566,2	3824,467
566,7	3791,838
567,1	3759,324
567,6	3733,752
568	3701,238
568,5	3667,21
568,9	3650,352
569,4	3625,01
569,8	3599,467
570,3	3570,952
570,7	3538,781
571,1	3515,724
571,6	3489,21
572	3466,695
572,5	3439,467
572,9	3413,152
573,4	3391,124
573,8	3370,781
574,3	3345,495
574,7	3315,981
575,2	3283,524
575,6	3258,952
576,1	3243,752
576,5	3224,181
576,9	3197,01
577,4	3170,524
577,8	3153,01
578,3	3135,952
578,7	3117,324
579,2	3097,752
579,6	3069,638
580,1	3046,867
580,5	3028,495
581	3007,638
581,4	2983,152
581,9	2952,552
582,3	2922,467
582,7	2909,267
583,2	2898,01
583,6	2876,038
584,1	2861,267
584,5	2842,752
585	2829,067
585,4	2806,61
585,9	2778,838
586,3	2754,781
586,8	2733,124
587,2	2710,095
587,6	2695,981
588,1	2684,81
588,5	2671,495
589	2658,324
589,4	2642,267
589,9	2628,61
590,3	2611,581
590,8	2589,438
591,2	2571,61
591,7	2561,21
592,1	2548,181
592,5	2537,095
593	2522,438
593,4	2510,495
593,9	2494,095
594,3	2477,41
594,8	2460,924
595,2	2441,838
595,7	2423,21
596,1	2406,038
596,6	2391,152
597	2384,781
597,4	2373,724
597,9	2357,181
598,3	2351,895
598,8	2337,752
599,2	2326,924
599,7	2313,81
600,1	2295,038
600,6	2279,724
601	2266,552
601,4	2251,724
601,9	2249,295
602,3	2234,895
602,8	2221,81
603,2	2211,21
603,7	2198,495
604,1	2183,524
604,6	2168,61
605	2150,352
605,4	2141,038
605,9	2127,21
606,3	2110,924
606,8	2094,41
607,2	2087,467
607,7	2068,895
608,1	2055,152
608,6	2042,638
609	2039,124
609,4	2035,952
609,9	2027,752
610,3	2013,495
610,8	2007,924
611,2	1996,838
611,7	1984,381
612,1	1966,838
612,6	1951,067
613	1941,952
613,4	1934,61
613,9	1923,952
614,3	1913,41
614,8	1909,438
615,2	1897,724
615,7	1893,438
616,1	1882,695
616,6	1867,638
617	1856,324
617,4	1843,895
617,9	1829,267
618,3	1819,495
618,8	1804,781
619,2	1788,867
619,7	1780,81
620,1	1769,067
620,5	1758,152
621	1746,838
621,4	1734,352
621,9	1722,124
622,3	1717,61
622,8	1705,838
623,2	1690,267
623,6	1678,152
624,1	1668,638
624,5	1658,667
625	1650,838
625,4	1638,41
625,9	1627,752
626,3	1626,295
626,8	1622,61
627,2	1611,867
627,6	1599,152
628,1	1584,467
628,5	1575,352
629	1560,41
629,4	1544,181
629,9	1531,81
630,3	1520,581
630,7	1511,867
631,2	1505,724
631,6	1496,067
632,1	1489,381
632,5	1483,638
633	1474,495
633,4	1466,467
633,8	1459,01
634,3	1444,152
634,7	1432,324
635,2	1416,638
635,6	1403,81
636,1	1390,495
636,5	1379,695
636,9	1364,752
637,4	1357,695
637,8	1344,095
638,3	1338,01
638,7	1329,838
639,2	1323,238
639,6	1312,352
640	1303,467
640,5	1292,781
640,9	1284,238
641,4	1278,41
641,8	1271,924
642,2	1260,152
642,7	1256,838
643,1	1255,381
643,6	1250,152
644	1246,495
644,5	1240,981
644,9	1230,41
645,3	1226,41
645,8	1213,381
646,2	1207,867
646,7	1200,524
647,1	1191,238
647,6	1185,352
648	1181,981
648,4	1171,552
648,9	1165,61
649,3	1153,152
649,8	1146,81
650,2	1139,467
650,6	1136,41
651,1	1128,61
651,5	1124,895
652	1119,267
652,4	1111,467
652,9	1105,724
653,3	1099,952
653,7	1087,324
654,2	1077,21
654,6	1069,352
655,1	1065,41
655,5	1063,524
655,9	1054,21
656,4	1045,867
656,8	1039,667
657,3	1034,295
657,7	1031,152
658,2	1015,524
658,6	1004,838
659	999,181
659,5	995,667
659,9	990,667
660,4	987,352
660,8	971,095
661,2	968,238
661,7	964,695
662,1	962,152
662,6	954,181
663	946,695
663,4	936,638
663,9	933,581
664,3	930,438
664,8	917,981
665,2	907,152
665,6	898,238
666,1	889,067
666,5	887,238
667	880,695
667,4	873,81
667,9	874,924
668,3	868,238
668,7	862,438
669,2	861,01
669,6	849,638
670,1	848,41
670,5	842,667
670,9	830,095
671,4	822,952
671,8	818,552
672,3	812,838
672,7	810,295
673,1	799,124
673,6	789,324
674	788,638
674,5	781,895
674,9	776,724
675,3	767,438
675,8	761,152
676,2	759,038
676,7	754,267
677,1	746,152
677,5	741,952
678	734,152
678,4	730,152
678,9	726,781
679,3	721,581
679,7	716,895
680,2	711,467
680,6	706,867
681,1	707,038
681,5	708,381
681,9	700,895
682,4	695,381
682,8	692,21
683,3	692,667
683,7	691,067
684,1	683,838
684,6	672,552
685	665,895
685,5	664,038
685,9	653,724
686,3	641,438
686,8	637,867
687,2	634,495
687,7	627,324
688,1	620,21
688,5	614,638
689	615,238
689,4	612,038
689,9	606,267
690,3	597,124
690,7	596,238
691,2	599,581
691,6	594,924
692	591,095
692,5	591,752
692,9	585,981
693,4	583,41
693,8	579,438
694,2	570,838
694,7	559,924
695,1	553,495
695,6	546,267
696	544,638
696,4	542,524
696,9	531,667
697,3	528,21
697,8	527,638
698,2	526,352
698,6	526,952
699,1	519,038
699,5	519,352
699,9	519,21
700,4	512,924
700,8	513,924
701,3	510,038
701,7	505,524
702,1	503,81
702,6	496,924
703	497,724
703,5	498,524
703,9	489,981
704,3	490,495
704,8	484,895
705,2	480,152
705,6	477,867
706,1	473,238
706,5	471,81
707	469,61
707,4	464,21
707,8	459,438
708,3	459,495
708,7	455,61
709,2	447,61
709,6	440,581
710	443,695
710,5	432,81
710,9	432,81
711,3	427,352
711,8	427,181
712,2	431,038
712,7	426,381
713,1	418,267
713,5	422,81
714	418,324
714,4	413,867
714,8	406,495
715,3	401,067
715,7	398,21
716,2	395,21
716,6	389,81
717	385,067
717,5	385,038
717,9	387,038
718,3	380,181
718,8	378,324
719,2	377,981
719,7	374,324
720,1	374,238
720,5	373,981
721	364,81
721,4	366,952
721,8	368,352
722,3	358,924
722,7	357,924
723,2	350,867
723,6	340,467
724	337,924
724,5	329,495
724,9	322,467
725,3	324,267
725,8	323,752
726,2	320,924
726,7	320,838
727,1	321,352
727,5	325,095
728	322,467
728,4	317,895
728,8	313,41
729,3	314,752
729,7	311,667
730,1	308,581
730,6	305,81
731	302,095
731,5	299,638
731,9	291,524
732,3	290,61
732,8	292,524
733,2	286,524
733,6	284,21
734,1	284,381
734,5	284,81
734,9	290,581
735,4	289,01
735,8	282,067
736,3	285,267
736,7	280,152
737,1	278,81
737,6	277,124
738	273,838
738,4	270,467
738,9	271,924
739,3	272,952
739,7	273,667
740,2	270,295
740,6	272,067
741,1	272,038
741,5	266,124
741,9	262,01
742,4	261,552
742,8	260,581
743,2	261,61
743,7	254,495
744,1	251,552
744,5	253,267
745	251,124
745,4	245,181
745,8	241,981
746,3	238,381
746,7	236,467
747,2	230,81
747,6	235,238
748	240,81
748,5	240,724
748,9	239,267
749,3	236,895
749,8	238,981
750,2	236,067
750,6	224,952
751,1	222,524
751,5	217,61
751,9	216,752
752,4	217,01
752,8	212,21
753,3	217,781
753,7	224,838
754,1	217,781
754,6	215,495
755	212,295
755,4	208,152
755,9	206,352
756,3	202,667
756,7	200,638
757,2	198,752
757,6	199,267
758	198,467
758,5	197,524
758,9	199,638
759,3	198,838
759,8	192,524
760,2	194,924
760,6	193,267
761,1	190,238
761,5	190,924
761,9	187,781
762,4	184,638
762,8	181,581
763,3	178,867
763,7	179,324
764,1	179,952
764,6	177,267
765	178,01
765,4	179,181
765,9	181,038
766,3	181,867
766,7	178,038
767,2	172,867
767,6	175,21
768	171,295
768,5	167,495
768,9	163,124
769,3	160,552
769,8	156,01
770,2	160,41
770,6	154,667
771,1	157,781
771,5	157,61
771,9	160,324
772,4	161,581
772,8	165,81
773,2	166,752
773,7	168,438
774,1	169,267
774,5	166,152
775	163,638
775,4	163,467
775,8	161,352
776,3	160,267
776,7	158,695
777,1	154,124
777,6	157,552
778	165,21
778,4	158,467
778,9	158,124
779,3	152,752
779,7	152,152
780,2	153,152
780,6	150,638
781	138,952
781,5	137,895
781,9	137,667
782,3	134,981
782,8	134,924
783,2	130,952
783,6	131,495
784,1	132,981
784,5	132,781
784,9	130,095
785,4	134,838
785,8	132,981
786,2	131,352
786,7	128,581
787,1	124,667
787,5	126,01
788	126,152
788,4	122,467
788,8	121,981
789,3	121,667
789,7	125,381
790,1	127,838
790,6	129,695
791	126,467
791,4	125,181
791,9	123,124
792,3	119,867
792,7	120,695
793,2	118,067
793,6	118,41
794	122,21
794,5	119,495
794,9	118,21
795,3	123,524
795,8	117,924
796,2	120,381
796,6	113,41
797,1	112,924
797,5	110,095
797,9	110,924
798,4	105,895
798,8	104,867
799,2	102,038
799,7	105,695
800,1	100,952
800,5	103,981
801	104,267
801,4	103,638
801,8	100,724
802,2	101,467
802,7	96,438
803,1	96,838
803,5	99,41
804	96,21
804,4	98,495
804,8	99,61
805,3	101,038
805,7	104,467
806,1	103,752
806,6	104,181
807	106,01
807,4	102,381
807,9	99,124
808,3	95,01
808,7	93,552
809,2	94,781
809,6	94,152
810	91,124
810,4	95,981
810,9	97,324
811,3	98,895
811,7	97,067
812,2	102,438
812,6	99,381
813	102,867
813,5	99,552
813,9	100,181
814,3	97,867
814,8	97,238
815,2	90,124
815,6	87,838
816,1	88,038
816,5	85,952
816,9	84,61
817,3	84,438
817,8	88,895
818,2	89,152
818,6	89,152
819,1	82,924
819,5	79,781
819,9	81,695
820,4	79,21
820,8	73,667
821,2	71,667
821,7	71,381
822,1	75,238
822,5	80,695
822,9	80,924
823,4	82,295
823,8	85,238
824,2	87,495
824,7	85,552
825,1	81,152
825,5	74,952
826	67,467
826,4	70,295
826,8	69,295
827,3	68,781
827,7	66,238
828,1	67,581
828,5	68,095
829	67,924
829,4	63,21
829,8	57,467
830,3	54,438
830,7	54,238
831,1	55,695
831,6	56,781
832	57,695
832,4	57,295
832,8	59,667
833,3	56,524
833,7	56,524
834,1	54,781
834,6	53,438
835	55,21
835,4	55,01
835,8	51,181
836,3	46,61
836,7	45,667
837,1	45,638
837,6	48,267
838	46,981
838,4	46,667
838,9	48,781
839,3	54,067
839,7	60,267
840,1	53,924
840,6	50,095
841	53,895
841,4	53,552
841,9	56,324
842,3	58,438
842,7	52,41
843,1	55,61
843,6	55,067
844	51,695
844,4	56,581
844,9	56,867
845,3	55,524
845,7	55,867
846,2	54,238
846,6	51,81
847	49,667
847,4	47,067
847,9	43,667
848,3	37,781
848,7	43,067
849,2	44,61
849,6	45,41
850	49,952
850,4	48,924
850,9	50,524
851,3	52,695
851,7	49,667
852,2	47,095
852,6	50,838
853	47,181
853,4	43,41
853,9	35,695
854,3	38,667
854,7	40,581
855,2	41,581
855,6	39,581
856	38,381
856,4	36,267
856,9	38,981
857,3	39,01
857,7	36,324
858,2	40,924
858,6	39,495
859	41,41
859,4	44,381
859,9	44,524
860,3	40,438
860,7	41,924
861,1	41,895
861,6	40,038
862	41,981
862,4	40,667
862,9	41,352
863,3	40,81
863,7	37,667
864,1	35,324
864,6	36,552
865	34,695
865,4	36,181
865,9	40,181
866,3	39,467
866,7	37,724
867,1	36,581
867,6	35,667
868	34,324
868,4	33,581
868,8	30,124
869,3	31,638
869,7	37,41
870,1	34,267
870,6	32,352
871	-46,133
871,4	-42,562
871,8	-44,705
872,3	-40,333
872,7	-40,876
873,1	-40,819
873,5	-38,019
874	37,724
874,4	37,152
874,8	36,524
875,3	34,152
875,7	26,438
876,1	27,152
876,5	26,752
877	29,438
877,4	22,295
877,8	24,667
878,2	24,61
878,7	28,152
879,1	28,524
879,5	31,067
879,9	30,667
880,4	33,21
880,8	30,61
881,2	27,981
881,7	28,124
882,1	29,524
882,5	23,295
882,9	21,324
883,4	22,952
883,8	27,324
884,2	26,124
884,6	22,038
885,1	18,952
885,5	21,41
885,9	19,352
886,3	19,038
886,8	13,752
887,2	12,81
887,6	15,324
888	13,667
888,5	14,752
888,9	15,552
889,3	10,238
889,8	11,038
890,2	15,467
890,6	13,181
891	15,981
891,5	12,81
891,9	14,295
892,3	17,638
892,7	17,295
893,2	14,752
893,6	17,21
894	19,038
894,4	18,267
894,9	17,552
895,3	20,152
895,7	24,838
896,1	25,467
896,6	25,295
897	21,952
897,4	29,895
897,8	29,724
898,3	27,81
898,7	21,952
899,1	21,038
899,5	19,324
900	16,638
900,4	10,324
900,8	10,238
901,2	7,124
901,7	7,81
902,1	11,895
902,5	14,724
902,9	15,238
903,4	17,438
903,8	18,381
904,2	18,324
904,6	21,495
905,1	19,21
905,5	20,152
905,9	21,667
906,3	22,095
906,8	24,981
907,2	27,181
907,6	27,61
908	29,467
908,5	24,467
908,9	24,038
909,3	20,981
909,7	17,724
910,2	19,324
910,6	17,124
911	9,752
911,4	15,038
911,9	14,924
912,3	15,324
912,7	16,124
913,1	16,638
913,6	15,21
914	21,952
914,4	14,467
914,8	17,781
915,3	15,61
915,7	16,238
916,1	12,867
916,5	15,438
916,9	10,324
917,4	12,895
917,8	12,752
918,2	15,067
918,6	9,067
919,1	11,01
919,5	11,895
919,9	14,038
920,3	14,41
920,8	13,038
921,2	13,038
921,6	15,324
922	14,61
922,5	11,752
922,9	14,61
923,3	13,438
923,7	12,981
924,2	12,267
924,6	12,781
925	14,438
925,4	12,067
925,8	8,638
926,3	11,095
926,7	12,152
927,1	11,581
927,5	13,181
928	8,61
928,4	7,952
928,8	8,581
929,2	5,867
929,7	6,238
930,1	6,438
930,5	2,267
930,9	4,552
931,3	10,552
931,8	9,095
932,2	7,838
932,6	4,581
933	-0,248
933,5	1,695
933,9	1,41
934,3	-2,562
934,7	-5,762
935,2	-5,105
935,6	-0,219
936	3,667
936,4	7,238
936,8	9,667
937,3	10,238
937,7	15,867
938,1	21,152
938,5	11,895
939	12,638
939,4	9,41
939,8	4,667
940,2	2,352
940,6	1,124
941,1	-2,79
941,5	6,667
941,9	0,724
942,3	2,095
942,8	4,524
943,2	7,41
943,6	7,295
944	8,438
944,4	5,124
944,9	9,581
945,3	8,467
945,7	6,238
946,1	-1,162
946,6	-3,419
947	-2,362
947,4	-1,162
947,8	1,267
948,2	0,238
948,7	6,267
949,1	12,324
949,5	16,581
949,9	17,467
950,3	16,524
950,8	17,667
951,2	18,21
951,6	10,952
952	13,352
952,5	7,067
952,9	3,21
953,3	2,552
953,7	-5,105
954,1	-3,562
954,6	-0,076
955	-0,219
955,4	1,81
955,8	6,152
956,2	7,467
956,7	14,524
957,1	7,724
957,5	7,781
957,9	5,838
958,3	3,952
958,8	3,067
959,2	3,752
959,6	2,067
960	7,124
960,5	10,152
960,9	11,381
961,3	12,352
961,7	11,467
962,1	5,952
962,6	6,524
963	5,124
963,4	-2,248
963,8	-2,333
964,2	1,581
964,7	2,324
965,1	5,41
965,5	4,61
965,9	6,61
966,3	12,81
966,8	9,81
967,2	8,238
967,6	7,01
968	3,581
968,4	6,01
968,9	5,924
969,3	5,581
969,7	4,152
970,1	6,238
970,5	5,095
971	12,467
971,4	12,952
971,8	11,124
972,2	12,552
972,6	14,724
973,1	8,838
973,5	8,638
973,9	8,267
974,3	6,41
974,7	10,038
975,2	7,667
975,6	8,124
976	14,467
976,4	11,524
976,8	5,41
977,3	4,267
977,7	1,438
978,1	1,667
978,5	1,324
978,9	-5,676
979,4	-3,133
979,8	-0,076
980,2	0,61
980,6	-3,59
981	-1,419
981,5	-5,105
981,9	-2,048
982,3	0,61
982,7	2,41
983,1	-1,819
983,6	1,41
984	-1,562
984,4	4,238
984,8	4,295
985,2	1,124
985,6	-3,59
986,1	4,524
986,5	7,61
986,9	3,552
987,3	2,752
987,7	4,238
988,2	1,81
988,6	6,924
989	4,381
989,4	1,381
989,8	1,924
990,3	-0,619
990,7	-1,305
991,1	3,867
991,5	2,81
991,9	-1,819
992,3	1,381
992,8	4,495
993,2	6,01
993,6	5,524
994	6,752
994,4	8,152
994,9	8,981
995,3	8,867
995,7	9,095
996,1	6,924
996,5	7,267
996,9	-0,276
997,4	-1,133
997,8	-4,362
998,2	-10,133
998,6	-15,933
999	-14,476
999,5	-15,448
999,9	-11,048
1000,3	-12,105
1000,7	-7,305
1001,1	-0,105
1001,5	4,21
1002	11,267
1002,4	14,01
1002,8	11,81
1003,2	12,038
1003,6	12,324
1004	8,724
1004,5	8,01
1004,9	4,781
1005,3	-0,362
1005,7	1,895
1006,1	2,038
1006,6	2,41
1007	3,495
1007,4	4,01
1007,8	1,495
1008,2	2,01
1008,6	6,495
1009,1	4,924
1009,5	5,095
1009,9	6,324
1010,3	9,381
1010,7	10,01
1011,1	16,038
1011,6	11,81
1012	11,552
1012,4	9,438
1012,8	3,267
1013,2	5,724
1013,6	7,21
1014,1	5,638
1014,5	5,181
1014,9	9,438
1015,3	10,152
1015,7	13,952
1016,1	8,638
1016,6	5,952
1017	5,295
1017,4	6,552
1017,8	0,752
1018,2	3,21
1018,6	-4,733
1019,1	-3,648
1019,5	-1,59
1019,9	-2,362
1020,3	-2,505
1020,7	1,952
1021,1	1,067
1021,6	10,695
1022	12,238
1022,4	11,81
1022,8	13,067
1023,2	12,352
1023,6	13,81
1024,1	17,61
1024,5	16,924
1024,9	12,895
1025,3	13,181
1025,7	8,952
1026,1	13,181
1026,6	11,895
1027	6,381
1027,4	7,41
1027,8	5,667
1028,2	4,524
1028,6	11,438
1029	7,695
1029,5	9,381
1029,9	7,867
1030,3	2,781
1030,7	5,41
1031,1	5,552
1031,5	-0,619
1032	-3,59
1032,4	-8,076
1032,8	-2,476
1033,2	1,238
1033,6	0,952
1034	0,381
1034,4	4,01
1034,9	8,752
1035,3	4,381
1035,7	1,152
1036,1	-2,648
1036,5	-3,448
1036,9	-1,448
1037,4	1,61
1037,8	-4,419
1038,2	-0,876
1038,6	-1,733
1039	7,524
1039,4	15,981
1039,8	11,038
1040,3	6,695
1040,7	10,238
1041,1	15,181
1041,5	17,952
1041,9	11,295
1042,3	6,238
1042,7	11,838
1043,2	12,695
1043,6	11,695
1044	7,581
1044,4	8,124
1044,8	8,895
1045,2	7,981
1045,6	7,495
1046,1	10,095
1046,5	11,867
1046,9	8,867
1047,3	10,552
1047,7	7,867
1048,1	3,41
1048,5	1,181
1049	-1,19
1049,4	1,81
1049,8	3,495
1050,2	3,41
1050,6	7,895
1051	11,524
1051,4	8,952
1051,9	4,838
1052,3	3,524
1052,7	6,238
1053,1	2,038
1053,5	-0,762
1053,9	-0,333
1054,3	0,638
1054,8	7,438
1055,2	9,781
1055,6	12,81
1056	10,752
1056,4	8,495
1056,8	9,524
1057,2	12,352
1057,6	2,352
1058,1	-0,676
1058,5	-5,276
1058,9	-2,733
1059,3	-0,305
1059,7	0,81
1060,1	-1,648
1060,5	3,267
1061	3,038
1061,4	0,524
1061,8	1,724
1062,2	-0,733
1062,6	1,524
1063	1,581
1063,4	0,838
1063,8	-1,962
1064,3	2,524
1064,7	2,152
1065,1	6,61
1065,5	-2,362
1065,9	-3,448
1066,3	-3,619
1066,7	-8,476
1067,1	-14,676
1067,6	-14,419
1068	-16,819
1068,4	-12,762
1068,8	-5,99
1069,2	1,181
1069,6	7,295
1070	14,895
1070,4	14,324
1070,9	11,324
1071,3	10,095
1071,7	5,267
1072,1	-0,79
1072,5	-2,848
1072,9	-9,362
1073,3	-8,248
1073,7	-6,362
1074,2	-2,133
1074,6	0,924
1075	0,152
1075,4	3,838
1075,8	10,324
1076,2	8,81
1076,6	9,581
1077	7,324
1077,5	4,01
1077,9	4,295
1078,3	0,752
1078,7	1,01
1079,1	-1,762
1079,5	0,924
1079,9	2,352
1080,3	4,181
1080,7	3,352
1081,2	11,895
1081,6	5,552
1082	6,981
1082,4	8,724
1082,8	8,01
1083,2	8,352
1083,6	10,438
1084	2,381
1084,5	5,352
1084,9	3,581
1085,3	-3,248
1085,7	-3,676
1086,1	-4,305
1086,5	-7,305
1086,9	-4,362
1087,3	0,124
1087,7	0,724
1088,2	3,924
1088,6	-0,448
1089	-0,505
1089,4	2,124
1089,8	1,352
1090,2	-3,505
1090,6	0,724
1091	0,81
1091,4	8,467
1091,9	7,267
1092,3	8,181
1092,7	7,295
1093,1	9,438
1093,5	8,124
1093,9	7,867
1094,3	8,21
1094,7	10,067
1095,1	10,695
1095,5	12,752
1096	7,924
1096,4	4,867
1096,8	5,724
1097,2	3,895
1097,6	4,181
1098	3,781
1098,4	5,695
1098,8	8,124
1099,2	15,895
1099,6	15,781
1100,1	12,467
1100,5	11,524
1100,9	11,152
1101,3	9,01
1101,7	10,01
1102,1	9,152
1102,5	10,467
1102,9	13,438
1103,3	15,552
1103,7	15,924
1104,2	15,267
1104,6	14,352
1105	10,038
1105,4	10,981
1105,8	8,352
1106,2	4,695
1106,6	4,067
1107	2,952
1107,4	3,667
1107,8	3,907
1108,3	-0,083
