Data from Subt2_210.txt Node
Date: Sat Aug 26 18:47:03 MSK 2023
User: vat
Spectrometer: MAYP114033
Trigger mode: 0
Integration Time (sec): 1,000000E0
Scans to average: 5
Electric dark correction enabled: true
Nonlinearity correction enabled: false
Boxcar width: 3
XAxis mode: Wavelengths
Number of Pixels in Spectrum: 2068
>>>>>Begin Spectral Data<<<<<
199,4	-0,283
199,9	1,307
200,4	1,567
200,8	1,381
201,3	-0,048
201,8	0,838
202,2	-1,79
202,7	2,524
203,2	-0,305
203,6	-1,848
204,1	-3,362
204,6	-2,448
205	-3,59
205,5	0,238
206	-1,048
206,4	0,41
206,9	3,124
207,4	6,124
207,8	6,638
208,3	7,581
208,8	7,724
209,2	8,095
209,7	10,467
210,2	10,238
210,6	8,095
211,1	10,552
211,5	8,267
212	6,01
212,5	4,095
212,9	1,181
213,4	0,01
213,9	1,752
214,3	-0,333
214,8	1,581
215,3	1,124
215,7	3,238
216,2	7,038
216,7	6,124
217,1	3,495
217,6	5,238
218,1	2,295
218,5	0,952
219	-5,048
219,5	-5,505
219,9	-6,333
220,4	0,238
220,9	-0,562
221,3	4,638
221,8	7,095
222,3	9,61
222,7	6,238
223,2	5,952
223,6	1,352
224,1	-1,048
224,6	0,324
225	-1,048
225,5	-0,905
226	2,21
226,4	4,981
226,9	6,524
227,4	6,41
227,8	-0,076
228,3	2,781
228,8	1,524
229,2	1,81
229,7	0,095
230,2	-1,048
230,6	5,238
231,1	13,581
231,5	14,724
232	18,695
232,5	16,124
232,9	18,438
233,4	22,038
233,9	19,552
234,3	15,61
234,8	13,41
235,3	9,01
235,7	10,181
236,2	10,781
236,7	6,552
237,1	7,495
237,6	3,267
238,1	2,381
238,5	0,895
239	1,21
239,4	-0,248
239,9	-0,448
240,4	-3,333
240,8	5,467
241,3	4,781
241,8	7,552
242,2	6,838
242,7	6,467
243,2	7,524
243,6	4,581
244,1	0,552
244,6	2,552
245	3,238
245,5	3,981
245,9	0,781
246,4	1,952
246,9	7,238
247,3	9,61
247,8	11,924
248,3	15,638
248,7	16,524
249,2	20,552
249,7	18,781
250,1	16,095
250,6	13,781
251	11,267
251,5	6,467
252	3,295
252,4	5,438
252,9	0,067
253,4	1,267
253,8	-3,105
254,3	-1,219
254,8	-0,448
255,2	0,781
255,7	-0,876
256,1	6,495
256,6	7,61
257,1	12,01
257,5	8,952
258	9,752
258,5	8,381
258,9	7,638
259,4	5,067
259,9	3,524
260,3	-0,876
260,8	-1,39
261,2	-1,219
261,7	0,095
262,2	-2,362
262,6	-4,076
263,1	-1,133
263,6	2,295
264	8,695
264,5	13,552
264,9	8,781
265,4	13,724
265,9	11,295
266,3	8,495
266,8	11,838
267,3	9,21
267,7	3,152
268,2	8,867
268,7	8,267
269,1	10,952
269,6	9,724
270	7,381
270,5	4,181
271	3,838
271,4	1,295
271,9	-3,019
272,4	3,324
272,8	2,524
273,3	1,638
273,7	5,352
274,2	8,752
274,7	13,181
275,1	16,952
275,6	15,21
276,1	18,352
276,5	20,324
277	13,638
277,4	11,267
277,9	9,095
278,4	7,752
278,8	7,038
279,3	4,524
279,8	1,295
280,2	7,41
280,7	8,038
281,1	5,124
281,6	6,581
282,1	5,895
282,5	5,667
283	5,724
283,4	4,181
283,9	6,438
284,4	14,638
284,8	14,552
285,3	11,467
285,8	12,067
286,2	10,067
286,7	5,695
287,1	-1,305
287,6	-6,505
288,1	-8,79
288,5	-4,933
289	-8,105
289,5	-4,305
289,9	-3,248
290,4	3,01
290,8	2,324
291,3	1,724
291,8	2,038
292,2	3,924
292,7	5,781
293,1	6,981
293,6	11,124
294,1	12,067
294,5	10,924
295	7,352
295,5	10,095
295,9	10,524
296,4	9,752
296,8	4,267
297,3	6,038
297,8	5,924
298,2	5,038
298,7	3,638
299,1	2,895
299,6	1,952
300,1	3,581
300,5	4,21
301	9,01
301,5	14,838
301,9	15,495
302,4	11,352
302,8	14,438
303,3	10,552
303,8	2,952
304,2	0,495
304,7	-4,419
305,1	-7,19
305,6	-4,933
306,1	-0,39
306,5	5,038
307	15,067
307,4	15,238
307,9	15,724
308,4	18,438
308,8	16,295
309,3	14,81
309,8	12,181
310,2	10,038
310,7	5,752
311,1	6,152
311,6	6,695
312,1	6,267
312,5	4,352
313	4,867
313,4	1,724
313,9	6,438
314,4	7,238
314,8	2,21
315,3	1,895
315,7	0,638
316,2	-0,19
316,7	-2,219
317,1	1,238
317,6	1,838
318	8,524
318,5	6,067
319	2,01
319,4	0,724
319,9	7,038
320,3	4,295
320,8	2,581
321,3	4,067
321,7	12,438
322,2	17,924
322,6	19,41
323,1	15,495
323,6	13,724
324	13,895
324,5	7,924
324,9	4,21
325,4	1,152
325,9	3,438
326,3	3,667
326,8	5,581
327,2	6,01
327,7	5,952
328,2	6,324
328,6	9,695
329,1	2,895
329,5	-0,362
330	-3,105
330,5	-1,219
330,9	2,695
331,4	1,81
331,8	0,01
332,3	5,495
332,8	9,21
333,2	10,467
333,7	11,152
334,1	11,41
334,6	8,667
335,1	2,752
335,5	3,124
336	3,667
336,4	5,952
336,9	9,352
337,4	10,438
337,8	13,981
338,3	20,552
338,7	18,352
339,2	16,867
339,7	13,438
340,1	6,181
340,6	2,524
341	-1,419
341,5	-0,962
342	-3,505
342,4	-6,905
342,9	-6,933
343,3	-4,705
343,8	-5,962
344,2	-5,505
344,7	-6,333
345,2	-6,219
345,6	-2,733
346,1	-3,448
346,5	-5,076
347	-3,762
347,5	1,781
347,9	5,752
348,4	9,467
348,8	7,981
349,3	10,752
349,8	14,067
350,2	20,467
350,7	16,352
351,1	16,438
351,6	17,238
352	24,495
352,5	32,438
353	39,01
353,4	40,667
353,9	54,552
354,3	63,267
354,8	77,067
355,3	91,438
355,7	110,038
356,2	130,867
356,6	159,695
357,1	185,752
357,5	219,667
358	259,495
358,5	298,152
358,9	343,095
359,4	391,238
359,8	445,867
360,3	513,495
360,8	583,867
361,2	664,152
361,7	759,724
362,1	862,267
362,6	979,01
363	1097,524
363,5	1222,952
364	1361,952
364,4	1497,838
364,9	1633,695
365,3	1762,781
365,8	1884,295
366,3	2004,952
366,7	2112,495
367,2	2203,095
367,6	2275,695
368,1	2336,21
368,5	2380,495
369	2401,467
369,5	2405,524
369,9	2387,41
370,4	2351,324
370,8	2301,638
371,3	2229,038
371,7	2149,41
372,2	2060,81
372,7	1965,61
373,1	1864,124
373,6	1756,467
374	1649,524
374,5	1543,324
374,9	1436,467
375,4	1334,952
375,9	1228,324
376,3	1129,467
376,8	1036,552
377,2	956,667
377,7	880,295
378,2	805,124
378,6	738,038
379,1	680,438
379,5	628,352
380	581,867
380,4	533,324
380,9	490,695
381,4	448,352
381,8	412,41
382,3	386,638
382,7	360,981
383,2	336,552
383,6	310,81
384,1	289,867
384,6	277,381
385	261,724
385,5	242,638
385,9	221,81
386,4	202,81
386,8	188,21
387,3	171,61
387,7	156,181
388,2	142,41
388,7	130,095
389,1	123,381
389,6	118,81
390	113,495
390,5	111,152
390,9	105,467
391,4	101,467
391,9	95,867
392,3	89,152
392,8	76,21
393,2	64,324
393,7	56,124
394,1	52,21
394,6	50,524
395,1	47,752
395,5	44,638
396	50,638
396,4	55,61
396,9	54,552
397,3	56,01
397,8	50,124
398,2	45,838
398,7	47,152
399,2	41,638
399,6	40,581
400,1	37,552
400,5	33,438
401	35,667
401,4	34,295
401,9	34,124
402,4	36,152
402,8	31,124
403,3	36,01
403,7	32,352
404,2	36,038
404,6	37,038
405,1	35,581
405,5	33,181
406	36,438
406,5	36,152
406,9	42,124
407,4	39,01
407,8	43,581
408,3	49,152
408,7	50,324
409,2	57,01
409,6	61,095
410,1	65,01
410,6	71,61
411	72,552
411,5	72,952
411,9	81,867
412,4	86,152
412,8	89,638
413,3	95,324
413,7	96,438
414,2	101,352
414,7	109,524
415,1	117,095
415,6	120,324
416	127,038
416,5	133,781
416,9	139,381
417,4	145,41
417,8	155,581
418,3	164,095
418,8	173,838
419,2	177,238
419,7	182,438
420,1	191,21
420,6	198,581
421	198,838
421,5	201,21
421,9	208,495
422,4	221,667
422,8	231,695
423,3	237,038
423,8	243,695
424,2	248,981
424,7	259,952
425,1	269,638
425,6	279,952
426	286,324
426,5	300,61
426,9	316,124
427,4	331,438
427,9	339,981
428,3	353,495
428,8	364,238
429,2	378,638
429,7	394,638
430,1	407,467
430,6	427,095
431	447,067
431,5	463,124
431,9	479,724
432,4	501,61
432,8	525,124
433,3	551,181
433,8	572,495
434,2	596,752
434,7	622,81
435,1	651,438
435,6	680,467
436	706,81
436,5	738,267
436,9	768,352
437,4	801,667
437,8	833,981
438,3	871,724
438,8	905,181
439,2	943,61
439,7	982,21
440,1	1024,495
440,6	1073,152
441	1115,21
441,5	1163,724
441,9	1210,781
442,4	1255,181
442,8	1303,867
443,3	1359,724
443,7	1405,952
444,2	1465,667
444,7	1515,01
445,1	1578,638
445,6	1643,152
446	1705,81
446,5	1760,467
446,9	1818,067
447,4	1880,295
447,8	1948,552
448,3	2012,124
448,7	2076,581
449,2	2144,324
449,6	2217,124
450,1	2293,495
450,6	2373,524
451	2451,067
451,5	2531,295
451,9	2615,267
452,4	2702,352
452,8	2783,524
453,3	2874,867
453,7	2956,838
454,2	3046,124
454,6	3136,895
455,1	3224,924
455,5	3305,695
456	3399,695
456,4	3481,295
456,9	3569,981
457,3	3664,21
457,8	3750,638
458,3	3849,152
458,7	3945,867
459,2	4039,781
459,6	4140,152
460,1	4243,924
460,5	4334,524
461	4431,781
461,4	4525,867
461,9	4629,467
462,3	4736,667
462,8	4843,01
463,2	4940,495
463,7	5045,724
464,1	5159,467
464,6	5267,867
465	5371,438
465,5	5470,667
466	5567,524
466,4	5671,467
466,9	5772,41
467,3	5868,81
467,8	5962,438
468,2	6060,41
468,7	6161,324
469,1	6272,524
469,6	6374,01
470	6469,838
470,5	6565,41
470,9	6665,095
471,4	6757,838
471,8	6849,01
472,3	6929,867
472,7	7015,41
473,2	7101,924
473,6	7186,181
474,1	7268,724
474,5	7349,267
475	7434,152
475,4	7516,495
475,9	7596,667
476,4	7682,21
476,8	7761,895
477,3	7833,381
477,7	7912,124
478,2	7979,295
478,6	8038,895
479,1	8094,352
479,5	8151,41
480	8204,524
480,4	8267,81
480,9	8317,095
481,3	8363,867
481,8	8415,524
482,2	8457,124
482,7	8492,552
483,1	8529,581
483,6	8562,438
484	8591,867
484,5	8624,61
484,9	8649,01
485,4	8678,695
485,8	8695,524
486,3	8714,181
486,7	8725,438
487,2	8742,581
487,6	8747,095
488,1	8762,495
488,5	8769,381
489	8783,81
489,4	8789,667
489,9	8791,067
490,4	8785,552
490,8	8784,352
491,3	8775,267
491,7	8760,867
492,2	8740,638
492,6	8717,952
493,1	8693,695
493,5	8668,61
494	8641,495
494,4	8611,467
494,9	8582,438
495,3	8558,695
495,8	8539,61
496,2	8504,467
496,7	8465,895
497,1	8436,752
497,6	8401,581
498	8369,667
498,5	8326,638
498,9	8273,324
499,4	8238,352
499,8	8208,095
500,3	8161,238
500,7	8108,552
501,2	8060,267
501,6	8014,952
502,1	7965,067
502,5	7911,781
503	7847,524
503,4	7790,724
503,9	7733,838
504,3	7676,867
504,8	7618,467
505,2	7563,267
505,7	7502,324
506,1	7450,352
506,6	7386,124
507	7332,181
507,5	7280,638
507,9	7216,667
508,4	7152,952
508,8	7094,695
509,3	7033,01
509,7	6977,781
510,2	6912,067
510,6	6838,495
511,1	6774,438
511,5	6706,924
512	6639,038
512,4	6577,181
512,9	6515,352
513,3	6450,724
513,8	6380,724
514,2	6315,352
514,7	6249,495
515,1	6185,124
515,6	6114,781
516	6046,152
516,5	5986,895
516,9	5929,295
517,4	5871,438
517,8	5821,781
518,3	5751,095
518,7	5684,324
519,2	5621,238
519,6	5558,267
520,1	5493,667
520,5	5427,324
521	5355,952
521,4	5303,524
521,9	5244,438
522,3	5176,667
522,8	5110,924
523,2	5047,581
523,7	4988,981
524,1	4932,038
524,6	4869,495
525	4812,181
525,5	4760,524
525,9	4711,095
526,4	4657,41
526,8	4598,095
527,3	4540,981
527,7	4497,21
528,2	4447,095
528,6	4395,438
529,1	4340,295
529,5	4291,038
530	4242,067
530,4	4194,581
530,9	4139,352
531,3	4090,181
531,8	4036,495
532,2	3990,038
532,6	3941,495
533,1	3894,01
533,5	3849,467
534	3806,924
534,4	3761,724
534,9	3724,581
535,3	3682,324
535,8	3644,238
536,2	3610,867
536,7	3569,581
537,1	3522,552
537,6	3483,095
538	3441,752
538,5	3404,781
538,9	3359,124
539,4	3323,524
539,8	3288,524
540,3	3256,552
540,7	3220,524
541,2	3184,01
541,6	3146,838
542,1	3119,895
542,5	3078,724
543	3044,867
543,4	3016,781
543,9	2989,295
544,3	2968,01
544,8	2934,981
545,2	2903,467
545,7	2882,724
546,1	2851,638
546,5	2818,781
547	2788,838
547,4	2751,981
547,9	2719,381
548,3	2690,124
548,8	2658,667
549,2	2631,038
549,7	2602,667
550,1	2579,895
550,6	2559,324
551	2545,724
551,5	2524,295
551,9	2494,038
552,4	2474,781
552,8	2455,01
553,3	2427,924
553,7	2399,695
554,2	2371,924
554,6	2348,924
555,1	2332,867
555,5	2310,467
555,9	2288,81
556,4	2265,095
556,8	2241,724
557,3	2220,952
557,7	2201,124
558,2	2179,352
558,6	2161,438
559,1	2136,781
559,5	2119,438
560	2102,524
560,4	2083,867
560,9	2063,152
561,3	2044,752
561,8	2022,752
562,2	2013,267
562,7	1996,238
563,1	1984,295
563,6	1967,095
564	1958,524
564,4	1941,495
564,9	1925,01
565,3	1904,524
565,8	1890,124
566,2	1874,524
566,7	1862,124
567,1	1847,152
567,6	1833,038
568	1820,124
568,5	1811,181
568,9	1795,095
569,4	1782,038
569,8	1771,21
570,3	1751,124
570,7	1736,41
571,1	1724,267
571,6	1706,581
572	1700,295
572,5	1684,61
572,9	1666,238
573,4	1654,724
573,8	1646,067
574,3	1636,21
574,7	1620,867
575,2	1605,467
575,6	1594,781
576,1	1588,21
576,5	1582,581
576,9	1568,552
577,4	1555,467
577,8	1544,781
578,3	1536,495
578,7	1526,381
579,2	1518,41
579,6	1496,695
580,1	1487,038
580,5	1478,552
581	1470,181
581,4	1453,267
581,9	1439,067
582,3	1420,981
582,7	1421,838
583,2	1411,924
583,6	1400,181
584,1	1394,352
584,5	1388,438
585	1385,667
585,4	1375,781
585,9	1360,695
586,3	1354,267
586,8	1348,495
587,2	1335,867
587,6	1332,095
588,1	1323,495
588,5	1317,095
589	1312,067
589,4	1298,467
589,9	1286,438
590,3	1278,495
590,8	1265,695
591,2	1255,924
591,7	1252,352
592,1	1246,667
592,5	1244,724
593	1238,838
593,4	1233,181
593,9	1225,267
594,3	1217,581
594,8	1207,581
595,2	1193,095
595,7	1185,152
596,1	1174,781
596,6	1168,467
597	1162,467
597,4	1158,695
597,9	1150,638
598,3	1151,667
598,8	1142,867
599,2	1138,952
599,7	1132,238
600,1	1120,238
600,6	1110,752
601	1104,095
601,4	1101,81
601,9	1101,524
602,3	1095,724
602,8	1088,152
603,2	1084,295
603,7	1075,152
604,1	1072,495
604,6	1062,61
605	1049,895
605,4	1048,581
605,9	1043,838
606,3	1035,867
606,8	1031,724
607,2	1022,038
607,7	1009,067
608,1	1003,924
608,6	994,038
609	990,438
609,4	992,124
609,9	981,781
610,3	979,752
610,8	976,324
611,2	970,124
611,7	963,095
612,1	955,924
612,6	947,467
613	950,952
613,4	944,924
613,9	941,61
614,3	937,038
614,8	933,952
615,2	927,152
615,7	924,181
616,1	914,867
616,6	902,324
617	898,295
617,4	894,324
617,9	887,981
618,3	882,981
618,8	880,352
619,2	873,038
619,7	874,01
620,1	866,438
620,5	861,61
621	854,181
621,4	851,467
621,9	843,381
622,3	843,095
622,8	833,667
623,2	829,667
623,6	825,467
624,1	820,81
624,5	814,638
625	813,267
625,4	809,695
625,9	808,952
626,3	802,038
626,8	791,981
627,2	791,838
627,6	780,752
628,1	767,152
628,5	762,181
629	752,095
629,4	749,152
629,9	749,152
630,3	739,61
630,7	736,438
631,2	734,267
631,6	729,895
632,1	729,324
632,5	721,21
633	717,095
633,4	713,838
633,8	710,352
634,3	702,41
634,7	693,295
635,2	687,724
635,6	688,381
636,1	680,61
636,5	671,981
636,9	663,495
637,4	664,01
637,8	660,324
638,3	653,038
638,7	643,895
639,2	638,581
639,6	638,495
640	636,981
640,5	634,41
640,9	632,924
641,4	631,695
641,8	631,838
642,2	630,724
642,7	632,095
643,1	633,667
643,6	627,152
644	622,324
644,5	620,81
644,9	616,181
645,3	612,352
645,8	602,495
646,2	603,01
646,7	600,752
647,1	594,295
647,6	594,781
648	592,552
648,4	586,867
648,9	586,152
649,3	577,295
649,8	572,152
650,2	569,21
650,6	561,295
651,1	554,438
651,5	556,895
652	550,324
652,4	546,181
652,9	545,238
653,3	542,838
653,7	541,267
654,2	540,295
654,6	532,638
655,1	534,667
655,5	538,181
655,9	529,838
656,4	529,095
656,8	526,552
657,3	524,81
657,7	523,181
658,2	514,581
658,6	507,895
659	510,038
659,5	503,324
659,9	497,838
660,4	496,438
660,8	487,781
661,2	482,324
661,7	478,552
662,1	474,838
662,6	472,867
663	470,295
663,4	461,095
663,9	466,381
664,3	461,352
664,8	455,581
665,2	447,124
665,6	441,21
666,1	438,21
666,5	442,352
667	434,752
667,4	433,238
667,9	428,095
668,3	427,095
668,7	426,01
669,2	426,467
669,6	417,581
670,1	415,924
670,5	411,381
670,9	407,552
671,4	407,838
671,8	409,038
672,3	405,324
672,7	405,524
673,1	399,295
673,6	398,895
674	399,781
674,5	394,524
674,9	380,781
675,3	373,552
675,8	366,81
676,2	365,381
676,7	364,295
677,1	359,581
677,5	356,01
678	361,581
678,4	363,038
678,9	365,124
679,3	365,438
679,7	367,295
680,2	361,352
680,6	358,752
681,1	354,267
681,5	354,295
681,9	351,324
682,4	350,895
682,8	347,181
683,3	352,21
683,7	355,924
684,1	354,324
684,6	345,095
685	339,924
685,5	334,124
685,9	327,638
686,3	320,952
686,8	314,752
687,2	310,81
687,7	307,552
688,1	306,324
688,5	305,21
689	306,01
689,4	304,038
689,9	300,124
690,3	297,495
690,7	300,781
691,2	296,238
691,6	290,952
692	287,638
692,5	286,981
692,9	285,181
693,4	281,352
693,8	276,752
694,2	276,61
694,7	276,524
695,1	272,152
695,6	274,352
696	275,695
696,4	278,524
696,9	274,41
697,3	269,41
697,8	268,524
698,2	268,638
698,6	266,695
699,1	261,495
699,5	262,095
699,9	260,981
700,4	260,781
700,8	258,695
701,3	259,238
701,7	253,838
702,1	252,267
702,6	246,638
703	248,181
703,5	245,181
703,9	244,952
704,3	242,21
704,8	237,438
705,2	234,867
705,6	233,552
706,1	232,01
706,5	231,01
707	228,467
707,4	229,181
707,8	230,267
708,3	235,895
708,7	234,838
709,2	233,781
709,6	235,181
710	233,324
710,5	225,095
710,9	222,867
711,3	212,952
711,8	212,752
712,2	209,438
712,7	205,895
713,1	205,324
713,5	211,41
714	212,267
714,4	213,295
714,8	210,81
715,3	206,21
715,7	204,41
716,2	203,01
716,6	201,438
717	193,038
717,5	194,895
717,9	193,695
718,3	194,21
718,8	192,924
719,2	193,552
719,7	187,638
720,1	194,695
720,5	196,181
721	191,581
721,4	191,924
721,8	196,295
722,3	190,81
722,7	192,981
723,2	186,267
723,6	174,724
724	174,667
724,5	171,381
724,9	166,61
725,3	167,695
725,8	164,695
726,2	165,267
726,7	166,295
727,1	165,181
727,5	163,781
728	158,895
728,4	156,095
728,8	152,867
729,3	150,838
729,7	150,41
730,1	153,038
730,6	154,124
731	155,581
731,5	152,438
731,9	150,21
732,3	151,667
732,8	154,095
733,2	152,724
733,6	150,867
734,1	148,667
734,5	148,724
734,9	147,781
735,4	148,124
735,8	142,61
736,3	145,181
736,7	143,01
737,1	141,724
737,6	145,324
738	148,21
738,4	145,438
738,9	148,524
739,3	144,524
739,7	143,638
740,2	145,781
740,6	147,81
741,1	151,324
741,5	144,867
741,9	142,924
742,4	145,324
742,8	145,752
743,2	147,867
743,7	138,152
744,1	132,752
744,5	138,667
745	135,067
745,4	127,781
745,8	128,01
746,3	121,524
746,7	120,81
747,2	117,724
747,6	119,01
748	121,41
748,5	125,552
748,9	122,438
749,3	121,124
749,8	126,295
750,2	126,124
750,6	120,552
751,1	119,952
751,5	116,352
751,9	116,867
752,4	118,41
752,8	114,467
753,3	112,524
753,7	114,724
754,1	113,952
754,6	109,352
755	105,552
755,4	104,867
755,9	102,895
756,3	104,81
756,7	102,152
757,2	101,667
757,6	105,752
758	108,667
758,5	107,381
758,9	108,038
759,3	108,724
759,8	108,838
760,2	109,438
760,6	106,581
761,1	105,267
761,5	103,867
761,9	99,952
762,4	97,41
762,8	95,01
763,3	93,21
763,7	97,667
764,1	99,095
764,6	101,295
765	104,381
765,4	103,21
765,9	107,181
766,3	109,695
766,7	104,295
767,2	100,324
767,6	103,381
768	102,724
768,5	101,895
768,9	98,41
769,3	95,01
769,8	93,41
770,2	96,61
770,6	87,838
771,1	90,495
771,5	91,438
771,9	92,067
772,4	90,438
772,8	89,838
773,2	89,495
773,7	90,838
774,1	88,695
774,5	81,695
775	79,867
775,4	81,324
775,8	78,924
776,3	78,21
776,7	78,81
777,1	78,438
777,6	84,495
778	88,552
778,4	85,981
778,9	93,038
779,3	90,867
779,7	91,667
780,2	89,095
780,6	84,467
781	80,01
781,5	75,952
781,9	72,752
782,3	69,352
782,8	68,952
783,2	67,181
783,6	72,638
784,1	70,724
784,5	76,781
784,9	72,867
785,4	78,01
785,8	79,81
786,2	82,41
786,7	77,181
787,1	75,467
787,5	73,41
788	73,495
788,4	75,238
788,8	72,324
789,3	73,667
789,7	78,981
790,1	78,467
790,6	78,867
791	72,295
791,4	69,724
791,9	68,838
792,3	59,724
792,7	59,038
793,2	60,867
793,6	54,61
794	64,438
794,5	59,438
794,9	60,295
795,3	64,895
795,8	62,295
796,2	65,81
796,6	69,41
797,1	63,21
797,5	61,01
797,9	55,324
798,4	51,267
798,8	49,695
799,2	44,467
799,7	44,01
800,1	45,267
800,5	48,838
801	56,038
801,4	54,01
801,8	56,638
802,2	56,838
802,7	56,124
803,1	57,724
803,5	60,038
804	54,924
804,4	58,41
804,8	57,895
805,3	58,552
805,7	59,495
806,1	55,038
806,6	50,952
807	52,067
807,4	50,124
807,9	43,41
808,3	43,752
808,7	43,667
809,2	49,924
809,6	51,695
810	47,381
810,4	51,667
810,9	60,238
811,3	61,752
811,7	60,695
812,2	64,067
812,6	59,21
813	62,667
813,5	61,467
813,9	56,181
814,3	55,267
814,8	55,867
815,2	47,524
815,6	48,667
816,1	52,552
816,5	51,095
816,9	52,981
817,3	49,495
817,8	52,81
818,2	52,667
818,6	54,067
819,1	50,295
819,5	49,352
819,9	48,752
820,4	52,724
820,8	44,924
821,2	45,01
821,7	44,981
822,1	47,667
822,5	55,438
822,9	54,352
823,4	51,724
823,8	56,152
824,2	57,981
824,7	53,438
825,1	48,238
825,5	39,124
826	33,695
826,4	34,067
826,8	34,21
827,3	35,924
827,7	37,981
828,1	42,61
828,5	42,21
829	40,438
829,4	37,895
829,8	32,724
830,3	31,095
830,7	31,724
831,1	30,01
831,6	32,438
832	38,181
832,4	33,552
832,8	37,095
833,3	33,495
833,7	31,267
834,1	25,752
834,6	24,552
835	26,124
835,4	32,981
835,8	29,724
836,3	30,638
836,7	33,381
837,1	37,495
837,6	40,838
838	36,981
838,4	33,467
838,9	30,352
839,3	28,067
839,7	32,438
840,1	25,952
840,6	22,467
841	22,095
841,4	23,61
841,9	30,41
842,3	31,867
842,7	29,724
843,1	29,895
843,6	32,067
844	33,781
844,4	36,61
844,9	38,067
845,3	41,01
845,7	35,581
846,2	35,295
846,6	33,638
847	36,781
847,4	36,781
847,9	34,61
848,3	32,752
848,7	36,381
849,2	40,667
849,6	35,038
850	36,495
850,4	32,095
850,9	31,095
851,3	29,495
851,7	32,124
852,2	28,895
852,6	33,981
853	30,352
853,4	30,752
853,9	26,667
854,3	28,895
854,7	23,467
855,2	23,61
855,6	24,295
856	20,781
856,4	17,81
856,9	17,724
857,3	19,895
857,7	24,438
858,2	29,81
858,6	27,695
859	29,152
859,4	28,61
859,9	29,895
860,3	23,924
860,7	20,638
861,1	20,581
861,6	19,724
862	20,895
862,4	23,381
862,9	24,61
863,3	24,781
863,7	23,467
864,1	23,667
864,6	24,238
865	24,181
865,4	27,124
865,9	28,61
866,3	26,667
866,7	25,895
867,1	19,581
867,6	18,552
868	17,552
868,4	17,524
868,8	15,952
869,3	20,867
869,7	26,581
870,1	23,61
870,6	21,895
871	2,01
871,4	3,21
871,8	1,838
872,3	0,438
872,7	-2,79
873,1	1,81
873,5	4,01
874	23,41
874,4	20,267
874,8	17,124
875,3	15,952
875,7	14,238
876,1	17,552
876,5	18,638
877	15,581
877,4	13,467
877,8	16,81
878,2	23,638
878,7	24,152
879,1	22,152
879,5	21,152
879,9	27,981
880,4	26,067
880,8	25,638
881,2	18,438
881,7	16,381
882,1	16,581
882,5	15,895
882,9	10,781
883,4	11,638
883,8	12,667
884,2	13,381
884,6	14,895
885,1	15,238
885,5	18,21
885,9	20,41
886,3	24,638
886,8	22,838
887,2	18,01
887,6	17,552
888	12,238
888,5	11,552
888,9	8,467
889,3	2,752
889,8	2,581
890,2	4,067
890,6	2,552
891	9,581
891,5	4,067
891,9	8,524
892,3	13,41
892,7	14,581
893,2	15,838
893,6	19,152
894	18,152
894,4	19,41
894,9	15,238
895,3	11,781
895,7	13,295
896,1	14,238
896,6	15,095
897	15,467
897,4	24,067
897,8	27,238
898,3	27,838
898,7	28,067
899,1	26,552
899,5	22,724
900	15,181
900,4	10,324
900,8	8,095
901,2	11,41
901,7	8,438
902,1	12,61
902,5	19,61
902,9	21,924
903,4	21,81
903,8	22,381
904,2	20,952
904,6	22,638
905,1	19,838
905,5	15,467
905,9	18,381
906,3	19,495
906,8	19,21
907,2	20,238
907,6	20,01
908	24,381
908,5	21,21
908,9	17,038
909,3	13,867
909,7	13,124
910,2	10,667
910,6	13,267
911	8,581
911,4	11,067
911,9	12,867
912,3	12,61
912,7	13,495
913,1	17,181
913,6	11,495
914	12,952
914,4	7,41
914,8	8,895
915,3	9,21
915,7	8,667
916,1	7,438
916,5	12,467
916,9	15,152
917,4	19,581
917,8	17,952
918,2	15,41
918,6	11,724
919,1	13,581
919,5	14,438
919,9	9,21
920,3	8,095
920,8	11,638
921,2	12,924
921,6	12,152
922	11,181
922,5	8,41
922,9	11,238
923,3	6,638
923,7	4,61
924,2	4,695
924,6	8,438
925	7,267
925,4	5,41
925,8	3,038
926,3	7,61
926,7	2,867
927,1	3,552
927,5	7,552
928	6,038
928,4	7,724
928,8	11,21
929,2	10,81
929,7	15,638
930,1	15,81
930,5	7,181
930,9	11,038
931,3	10,295
931,8	8,438
932,2	9,21
932,6	9,352
933	6,667
933,5	14,81
933,9	13,524
934,3	13,952
934,7	10,981
935,2	10,181
935,6	11,038
936	15,124
936,4	13,181
936,8	10,924
937,3	10,152
937,7	13,21
938,1	15,552
938,5	11,067
939	12,324
939,4	10,067
939,8	9,81
940,2	8,467
940,6	8,981
941,1	8,21
941,5	10,495
941,9	2,61
942,3	3,295
942,8	4,581
943,2	4,124
943,6	2,752
944	0,924
944,4	3,752
944,9	6,724
945,3	8,924
945,7	2,495
946,1	1,21
946,6	-2,933
947	-2,876
947,4	-2,733
947,8	-2,19
948,2	-5,505
948,7	-1,276
949,1	-1,076
949,5	6,267
949,9	7,924
950,3	6,238
950,8	3,638
951,2	5,781
951,6	1,581
952	5,552
952,5	-2,305
952,9	-0,819
953,3	-0,276
953,7	1,781
954,1	-0,99
954,6	2,667
955	2,324
955,4	3,267
955,8	4,838
956,2	4,352
956,7	5,895
957,1	1,295
957,5	6,295
957,9	6,352
958,3	10,638
958,8	7,01
959,2	6,181
959,6	8,752
960	16,181
960,5	14,724
960,9	16,352
961,3	13,724
961,7	13,152
962,1	16,724
962,6	14,61
963	11,295
963,4	2,61
963,8	3,238
964,2	6,41
964,7	7,924
965,1	7,41
965,5	9,752
965,9	12,295
966,3	20,495
966,8	15,924
967,2	11,81
967,6	11,981
968	7,01
968,4	6,181
968,9	5,981
969,3	4,838
969,7	5,81
970,1	9,352
970,5	6,924
971	11,61
971,4	10,095
971,8	9,867
972,2	9,838
972,6	6,638
973,1	3,752
973,5	5,638
973,9	3,638
974,3	3,324
974,7	8,238
975,2	6,61
975,6	9,467
976	14,81
976,4	9,638
976,8	10,895
977,3	8,381
977,7	5,095
978,1	8,41
978,5	3,467
978,9	-1,162
979,4	4,638
979,8	2,581
980,2	6,324
980,6	-1,79
981	-1,448
981,5	4,581
981,9	4,21
982,3	4,467
982,7	6,152
983,1	0,181
983,6	5,438
984	3,838
984,4	4,295
984,8	5,238
985,2	1,61
985,6	-2,162
986,1	6,038
986,5	6,295
986,9	0,695
987,3	0,352
987,7	1,352
988,2	0,295
988,6	2,581
989	-4,905
989,4	-3,705
989,8	0,41
990,3	-0,933
990,7	-2,933
991,1	0,924
991,5	2,495
991,9	8,581
992,3	5,295
992,8	6,324
993,2	7,01
993,6	6,238
994	9,067
994,4	7,838
994,9	6,295
995,3	8,781
995,7	5,952
996,1	6,324
996,5	9,581
996,9	3,038
997,4	0,267
997,8	-1,562
998,2	-3,848
998,6	-6,248
999	-9,705
999,5	-8,562
999,9	-7,505
1000,3	-2,705
1000,7	-0,048
1001,1	2,381
1001,5	8,695
1002	17,124
1002,4	16,895
1002,8	16,267
1003,2	16,238
1003,6	20,581
1004	23,752
1004,5	20,838
1004,9	17,838
1005,3	12,067
1005,7	16,981
1006,1	13,695
1006,6	7,524
1007	7,638
1007,4	6,524
1007,8	3,581
1008,2	1,21
1008,6	0,467
1009,1	2,924
1009,5	1,61
1009,9	-0,905
1010,3	1,467
1010,7	4,524
1011,1	8,41
1011,6	6,638
1012	9,495
1012,4	12,467
1012,8	13,838
1013,2	17,495
1013,6	15,067
1014,1	15,381
1014,5	16,495
1014,9	12,81
1015,3	9,552
1015,7	10,324
1016,1	5,01
1016,6	7,838
1017	9,524
1017,4	9,867
1017,8	9,152
1018,2	13,781
1018,6	8,867
1019,1	11,381
1019,5	11,638
1019,9	8,867
1020,3	11,352
1020,7	12,895
1021,1	11,352
1021,6	11,152
1022	11,895
1022,4	11,238
1022,8	16,181
1023,2	13,152
1023,6	15,238
1024,1	19,21
1024,5	23,21
1024,9	17,581
1025,3	14,152
1025,7	13,438
1026,1	16,038
1026,6	10,552
1027	8,095
1027,4	8,695
1027,8	11,324
1028,2	10,381
1028,6	14,695
1029	12,667
1029,5	20,895
1029,9	18,952
1030,3	15,752
1030,7	15,924
1031,1	20,952
1031,5	13,895
1032	12,581
1032,4	6,41
1032,8	3,61
1033,2	4,295
1033,6	2,495
1034	1,524
1034,4	0,352
1034,9	2,124
1035,3	-1,676
1035,7	3,524
1036,1	1,181
1036,5	3,352
1036,9	4,81
1037,4	11,981
1037,8	8,524
1038,2	14,267
1038,6	15,01
1039	19,924
1039,4	22,524
1039,8	17,867
1040,3	15,067
1040,7	14,867
1041,1	12,952
1041,5	11,352
1041,9	9,01
1042,3	10,695
1042,7	9,752
1043,2	6,724
1043,6	2,067
1044	0,095
1044,4	-4,762
1044,8	-2,476
1045,2	-5,019
1045,6	-1,419
1046,1	0,295
1046,5	7,781
1046,9	9,752
1047,3	13,038
1047,7	10,438
1048,1	8,924
1048,5	7,724
1049	6,352
1049,4	5,038
1049,8	4,067
1050,2	2,238
1050,6	3,152
1051	6,495
1051,4	4,895
1051,9	4,238
1052,3	10,467
1052,7	10,638
1053,1	11,41
1053,5	15,495
1053,9	13,124
1054,3	11,638
1054,8	15,895
1055,2	10,61
1055,6	15,895
1056	17,952
1056,4	14,81
1056,8	15,867
1057,2	17,695
1057,6	10,352
1058,1	9,238
1058,5	4,924
1058,9	10,124
1059,3	8,781
1059,7	8,467
1060,1	4,581
1060,5	7,581
1061	9,067
1061,4	7,695
1061,8	6,238
1062,2	5,467
1062,6	4,695
1063	10,61
1063,4	10,038
1063,8	8,152
1064,3	1,638
1064,7	-1,419
1065,1	-0,048
1065,5	-6,562
1065,9	-7,505
1066,3	-6,905
1066,7	-8,505
1067,1	-0,705
1067,6	2,181
1068	-0,162
1068,4	6,095
1068,8	6,152
1069,2	8,981
1069,6	10,238
1070	14,01
1070,4	10,181
1070,9	8,552
1071,3	6,61
1071,7	6,495
1072,1	7,724
1072,5	2,667
1072,9	-4,448
1073,3	-5,648
1073,7	-5,362
1074,2	0,324
1074,6	2,552
1075	-2,79
1075,4	3,267
1075,8	7,038
1076,2	7,667
1076,6	8,467
1077	5,038
1077,5	5,81
1077,9	8,667
1078,3	6,81
1078,7	3,667
1079,1	4,695
1079,5	5,724
1079,9	10,181
1080,3	8,238
1080,7	6,067
1081,2	11,524
1081,6	9,895
1082	8,581
1082,4	11,752
1082,8	6,181
1083,2	2,724
1083,6	3,552
1084	2,352
1084,5	8,467
1084,9	6,295
1085,3	2,581
1085,7	3,781
1086,1	7,038
1086,5	8,695
1086,9	9,61
1087,3	8,01
1087,7	9,638
1088,2	10,838
1088,6	8,352
1089	11,038
1089,4	10,924
1089,8	10,438
1090,2	11,895
1090,6	13,267
1091	18,238
1091,4	18,638
1091,9	14,324
1092,3	18,924
1092,7	14,838
1093,1	15,81
1093,5	13,01
1093,9	7,438
1094,3	11,638
1094,7	10,61
1095,1	8,752
1095,5	13,61
1096	7,324
1096,4	8,152
1096,8	7,552
1097,2	3,495
1097,6	8,324
1098	6,267
1098,4	5,41
1098,8	9,152
1099,2	14,067
1099,6	12,895
1100,1	10,838
1100,5	6,324
1100,9	7,038
1101,3	5,752
1101,7	3,267
1102,1	0,381
1102,5	3,41
1102,9	5,667
1103,3	9,067
1103,7	6,981
1104,2	6,781
1104,6	9,095
1105	8,324
1105,4	9,638
1105,8	9,067
1106,2	6,295
1106,6	6,295
1107	4,638
1107,4	3,867
1107,8	3,467
1108,3	-0,133
