Data from Subt2_288.txt Node
Date: Sat Aug 26 19:09:28 MSK 2023
User: vat
Spectrometer: MAYP114033
Trigger mode: 0
Integration Time (sec): 1,000000E0
Scans to average: 5
Electric dark correction enabled: true
Nonlinearity correction enabled: false
Boxcar width: 3
XAxis mode: Wavelengths
Number of Pixels in Spectrum: 2068
>>>>>Begin Spectral Data<<<<<
199,4	-0,6
199,9	3,24
200,4	3,433
200,8	5,714
201,3	4,971
201,8	8,286
202,2	6,486
202,7	12,543
203,2	11,686
203,6	11,057
204,1	8,657
204,6	10,714
205	9,886
205,5	11,771
206	7,371
206,4	7,286
206,9	8,514
207,4	7,943
207,8	7,571
208,3	5,657
208,8	7,257
209,2	10,971
209,7	13,314
210,2	14,057
210,6	15,114
211,1	14,914
211,5	13,743
212	16,629
212,5	11,943
212,9	6,257
213,4	7,543
213,9	7,714
214,3	7,6
214,8	11,029
215,3	8,771
215,7	13,857
216,2	20,286
216,7	18,286
217,1	18,257
217,6	19,314
218,1	20,143
218,5	14,829
219	4,314
219,5	3,171
219,9	1
220,4	10,629
220,9	10,629
221,3	9,6
221,8	14,714
222,3	19,629
222,7	20,6
223,2	23,714
223,6	11,8
224,1	11,829
224,6	11,771
225	7,371
225,5	7,6
226	4,829
226,4	3,943
226,9	8,143
227,4	10,086
227,8	3,886
228,3	8,943
228,8	5,514
229,2	3,657
229,7	2,771
230,2	0,486
230,6	0,629
231,1	10,371
231,5	7,857
232	11,114
232,5	12,429
232,9	17,171
233,4	19,514
233,9	16,2
234,3	11,457
234,8	11,6
235,3	16
235,7	18,314
236,2	16,057
236,7	14,029
237,1	17,057
237,6	16,571
238,1	16,086
238,5	10,943
239	8,4
239,4	13,114
239,9	16,314
240,4	15,086
240,8	17,857
241,3	13,343
241,8	14,686
242,2	15,171
242,7	8,4
243,2	3,057
243,6	0,571
244,1	2,086
244,6	7,6
245	8,686
245,5	11,286
245,9	10,2
246,4	13,714
246,9	16,2
247,3	15,571
247,8	18,457
248,3	17,371
248,7	16,743
249,2	17,629
249,7	17,914
250,1	20,171
250,6	18,429
251	20,343
251,5	20,457
252	17,486
252,4	21,943
252,9	19,343
253,4	15,057
253,8	13,657
254,3	11,314
254,8	10,857
255,2	9,914
255,7	6,029
256,1	8
256,6	11,4
257,1	12,343
257,5	5,829
258	4,543
258,5	2,514
258,9	3,029
259,4	2,486
259,9	-0,286
260,3	-1,657
260,8	1,571
261,2	2,257
261,7	5,743
262,2	2,686
262,6	3
263,1	4,143
263,6	4,229
264	5,886
264,5	10,543
264,9	11,143
265,4	15,686
265,9	11,4
266,3	12,829
266,8	15,571
267,3	14,571
267,7	13,543
268,2	11,057
268,7	10,086
269,1	15,286
269,6	14,086
270	16,571
270,5	11,029
271	10,743
271,4	11,857
271,9	8,029
272,4	7,114
272,8	6,286
273,3	1,343
273,7	8,8
274,2	9,4
274,7	13,229
275,1	15,143
275,6	13,771
276,1	10,143
276,5	11,8
277	10,543
277,4	7,114
277,9	5,286
278,4	7,571
278,8	11,629
279,3	18,371
279,8	19,543
280,2	22,6
280,7	24,543
281,1	22,257
281,6	20,686
282,1	17,8
282,5	15,286
283	13,371
283,4	9,829
283,9	7,8
284,4	9,971
284,8	9,429
285,3	7,429
285,8	9,657
286,2	6,429
286,7	6,286
287,1	4,857
287,6	5,457
288,1	5,143
288,5	9,714
289	5,629
289,5	6,143
289,9	2,714
290,4	8,743
290,8	8,257
291,3	11,629
291,8	11,771
292,2	15,571
292,7	21,286
293,1	24,857
293,6	20,514
294,1	19,057
294,5	18,114
295	14,886
295,5	11,171
295,9	10,257
296,4	8,429
296,8	8,657
297,3	11,543
297,8	5,886
298,2	2,743
298,7	4,771
299,1	2,4
299,6	2,771
300,1	2,829
300,5	1,229
301	7,543
301,5	12,371
301,9	9,343
302,4	8,257
302,8	6,771
303,3	5,143
303,8	1,714
304,2	-3,029
304,7	-3,571
305,1	-7,886
305,6	-6,514
306,1	2
306,5	3,114
307	6,6
307,4	9,629
307,9	9,486
308,4	12,914
308,8	9,8
309,3	4,371
309,8	8,114
310,2	10,371
310,7	7,057
311,1	7,143
311,6	12,686
312,1	15,343
312,5	19,286
313	16,771
313,4	16,029
313,9	18,829
314,4	16,571
314,8	9,343
315,3	7,314
315,7	-0,971
316,2	-2,057
316,7	-3,743
317,1	-0,457
317,6	0,657
318	9,171
318,5	8,857
319	10,971
319,4	15,943
319,9	20,029
320,3	16,057
320,8	16,943
321,3	14,257
321,7	17,2
322,2	17,943
322,6	17,686
323,1	14,257
323,6	16,057
324	16,143
324,5	11,6
324,9	13,8
325,4	10,971
325,9	6,343
326,3	3,8
326,8	7,286
327,2	-0,8
327,7	3,914
328,2	2,2
328,6	8,4
329,1	7,314
329,5	6,743
330	2,314
330,5	13,457
330,9	15,457
331,4	11,343
331,8	7,486
332,3	11,571
332,8	13,771
333,2	10,657
333,7	6,543
334,1	3,429
334,6	5,686
335,1	-0,543
335,5	-1,457
336	-1,086
336,4	2,171
336,9	5,314
337,4	7,514
337,8	6,2
338,3	14,457
338,7	15,429
339,2	13,571
339,7	16,286
340,1	14,486
340,6	12,486
341	14,257
341,5	11,6
342	6,886
342,4	5,286
342,9	0,829
343,3	-4,314
343,8	-2,4
344,2	2,343
344,7	8,114
345,2	9,629
345,6	12,943
346,1	16,371
346,5	21,629
347	19,4
347,5	12,686
347,9	14,429
348,4	13,286
348,8	17,829
349,3	20,343
349,8	20,571
350,2	29,771
350,7	27,571
351,1	27,743
351,6	36,229
352	39,2
352,5	39,771
353	48,657
353,4	49,629
353,9	65,571
354,3	75,571
354,8	86,086
355,3	105,229
355,7	130,143
356,2	154,486
356,6	182,457
357,1	216,2
357,5	253,2
358	297,857
358,5	341,771
358,9	390,8
359,4	445,171
359,8	508,514
360,3	586,343
360,8	666,029
361,2	760,371
361,7	862,743
362,1	978,2
362,6	1101,057
363	1236,571
363,5	1365,2
364	1516,686
364,4	1663,571
364,9	1813,057
365,3	1962,343
365,8	2103,143
366,3	2230,314
366,7	2353,514
367,2	2457
367,6	2540,571
368,1	2607,2
368,5	2647,6
369	2674,686
369,5	2684,114
369,9	2663,914
370,4	2623,971
370,8	2560,457
371,3	2480,114
371,7	2389,457
372,2	2282,857
372,7	2167,8
373,1	2050,514
373,6	1925,571
374	1813,4
374,5	1694,857
374,9	1579,914
375,4	1469,114
375,9	1360,629
376,3	1262,543
376,8	1166,229
377,2	1072,829
377,7	989,086
378,2	906,543
378,6	832
379,1	766,343
379,5	707,914
380	653,543
380,4	598,543
380,9	548,543
381,4	505,629
381,8	467,457
382,3	431,4
382,7	397,314
383,2	369,657
383,6	346,914
384,1	325,486
384,6	308,743
385	290,6
385,5	272,457
385,9	252,343
386,4	230,6
386,8	219,514
387,3	202,943
387,7	188,857
388,2	180,971
388,7	171,914
389,1	161,571
389,6	154,2
390	142,171
390,5	136,829
390,9	128,486
391,4	118,086
391,9	107,971
392,3	104,514
392,8	98,971
393,2	90,371
393,7	84,971
394,1	78,229
394,6	70,543
395,1	73,2
395,5	66,914
396	67,543
396,4	68,429
396,9	65,8
397,3	69,886
397,8	77,686
398,2	68,686
398,7	71,4
399,2	67,514
399,6	63,257
400,1	63,943
400,5	56,086
401	48,4
401,4	47,486
401,9	44,514
402,4	45,886
402,8	45,171
403,3	49,714
403,7	48,514
404,2	50,171
404,6	53,686
405,1	52
405,5	49,629
406	50,343
406,5	44,143
406,9	47,343
407,4	47,086
407,8	44,914
408,3	44,257
408,7	43,4
409,2	46,829
409,6	50,543
410,1	52,086
410,6	53,714
411	56,486
411,5	58,257
411,9	61,971
412,4	59,143
412,8	60,229
413,3	62,571
413,7	61,543
414,2	62,886
414,7	70,314
415,1	76,829
415,6	83,914
416	83,086
416,5	85,457
416,9	90,029
417,4	93,114
417,8	94,629
418,3	93,686
418,8	95,429
419,2	99,571
419,7	101,143
420,1	105,257
420,6	102,143
421	99,457
421,5	101,486
421,9	105,714
422,4	106,143
422,8	105,457
423,3	99,371
423,8	99
424,2	97,086
424,7	93,714
425,1	87,857
425,6	89,543
426	90,8
426,5	93,914
426,9	104,114
427,4	105,857
427,9	103,171
428,3	108,257
428,8	107,686
429,2	108,543
429,7	105,914
430,1	99,686
430,6	100,743
431	105,971
431,5	103,857
431,9	101,143
432,4	101,457
432,8	108,6
433,3	111,857
433,8	115,257
434,2	118,029
434,7	125,4
435,1	128,429
435,6	131,543
436	134,429
436,5	139,429
436,9	141,714
437,4	147,314
437,8	145,057
438,3	149,943
438,8	154,229
439,2	157,343
439,7	164,543
440,1	170,143
440,6	178,543
441	184,143
441,5	192,886
441,9	204,343
442,4	212,914
442,8	218
443,3	227,086
443,7	233
444,2	243,514
444,7	251,714
445,1	262
445,6	271,657
446	281,2
446,5	291,029
446,9	296,543
447,4	306,229
447,8	320,743
448,3	328,371
448,7	340,457
449,2	356,486
449,6	373,371
450,1	386,457
450,6	405,8
451	419,6
451,5	438,486
451,9	456,686
452,4	477,457
452,8	487,143
453,3	510,514
453,7	525,971
454,2	547,886
454,6	561,229
455,1	574,971
455,5	587,943
456	613,8
456,4	627,857
456,9	647,686
457,3	662,143
457,8	679,286
458,3	706,143
458,7	726,943
459,2	747,486
459,6	773,286
460,1	800,457
460,5	822,886
461	856,714
461,4	879,343
461,9	903,829
462,3	933,829
462,8	963,771
463,2	989,114
463,7	1021,086
464,1	1046,086
464,6	1079,286
465	1108,686
465,5	1134,086
466	1159,371
466,4	1184,029
466,9	1219,486
467,3	1251,457
467,8	1278,2
468,2	1304,629
468,7	1333,286
469,1	1369,086
469,6	1402,914
470	1425,4
470,5	1454,314
470,9	1485,343
471,4	1520,029
471,8	1554,086
472,3	1578,857
472,7	1610,629
473,2	1639,829
473,6	1669,771
474,1	1703,314
474,5	1741,629
475	1776,4
475,4	1813,857
475,9	1845,886
476,4	1880,571
476,8	1918,029
477,3	1945,086
477,7	1970,686
478,2	1997,943
478,6	2023,857
479,1	2051,029
479,5	2081,457
480	2106,4
480,4	2137,2
480,9	2159,914
481,3	2183,486
481,8	2211,971
482,2	2232,114
482,7	2257,514
483,1	2278,771
483,6	2300,543
484	2328,171
484,5	2357,857
484,9	2373,829
485,4	2401,943
485,8	2418,429
486,3	2438,971
486,7	2457,657
487,2	2475,4
487,6	2486,286
488,1	2512,714
488,5	2529,486
489	2552,457
489,4	2577,114
489,9	2587,429
490,4	2604,029
490,8	2624,571
491,3	2636,486
491,7	2648,8
492,2	2657,314
492,6	2663,286
493,1	2677,943
493,5	2683,886
494	2681,743
494,4	2684,143
494,9	2689,343
495,3	2702,143
495,8	2707,457
496,2	2719,914
496,7	2727,2
497,1	2744,743
497,6	2760,4
498	2776,114
498,5	2777,629
498,9	2784,171
499,4	2785,8
499,8	2798,343
500,3	2801,886
500,7	2802,229
501,2	2791,429
501,6	2795,086
502,1	2799,657
502,5	2803,514
503	2803,429
503,4	2808,914
503,9	2810,743
504,3	2825,086
504,8	2830,314
505,2	2831,657
505,7	2829,029
506,1	2833,2
506,6	2825,714
507	2825,6
507,5	2820,171
507,9	2816,429
508,4	2812,114
508,8	2817,029
509,3	2811,314
509,7	2816,629
510,2	2817,743
510,6	2814,8
511,1	2814,457
511,5	2818,4
512	2813,771
512,4	2814,343
512,9	2813,486
513,3	2815
513,8	2817,971
514,2	2820,371
514,7	2813,943
515,1	2815,343
515,6	2810,686
516	2806
516,5	2800,229
516,9	2797,686
517,4	2798,229
517,8	2805,571
518,3	2799,514
518,7	2802,114
519,2	2798,257
519,6	2798,114
520,1	2799,429
520,5	2793,829
521	2783,686
521,4	2788,971
521,9	2784,457
522,3	2789,371
522,8	2788,971
523,2	2791,943
523,7	2793,829
524,1	2800,771
524,6	2795,714
525	2799,371
525,5	2801,057
525,9	2808,8
526,4	2800,971
526,8	2803,2
527,3	2801,314
527,7	2806,314
528,2	2803,457
528,6	2800,2
529,1	2791,771
529,5	2798,429
530	2789,743
530,4	2787,2
530,9	2783,829
531,3	2789,257
531,8	2789,943
532,2	2792,857
532,6	2788,971
533,1	2789,6
533,5	2795,771
534	2797,914
534,4	2795,257
534,9	2798,143
535,3	2797,486
535,8	2799,971
536,2	2807,543
536,7	2804,457
537,1	2808,629
537,6	2812,486
538	2811,514
538,5	2815,743
538,9	2816,4
539,4	2821,486
539,8	2825,914
540,3	2831,057
540,7	2827,4
541,2	2830,914
541,6	2831,714
542,1	2839,314
542,5	2838,343
543	2837,829
543,4	2830,429
543,9	2838,343
544,3	2835,629
544,8	2840,8
545,2	2842,314
545,7	2843,857
546,1	2853,057
546,5	2862,343
547	2866,771
547,4	2872,743
547,9	2873,543
548,3	2879,743
548,8	2881,829
549,2	2879,971
549,7	2882,371
550,1	2887,8
550,6	2891,886
551	2895,657
551,5	2895,943
551,9	2899,6
552,4	2905,314
552,8	2912,343
553,3	2913,686
553,7	2919,514
554,2	2920,143
554,6	2926,629
555,1	2933,914
555,5	2934,257
555,9	2940,029
556,4	2937,371
556,8	2939,486
557,3	2945,6
557,7	2944,171
558,2	2950,686
558,6	2956,914
559,1	2950,514
559,5	2954,971
560	2956,8
560,4	2957,6
560,9	2960
561,3	2954,914
561,8	2956,2
562,2	2964,314
562,7	2969,4
563,1	2971,229
563,6	2970,543
564	2970,4
564,4	2966,143
564,9	2965,514
565,3	2962,086
565,8	2963,6
566,2	2966,086
566,7	2974,8
567,1	2981
567,6	2986,229
568	2986,743
568,5	2991,657
568,9	2989,771
569,4	2991,4
569,8	2987,171
570,3	2983,914
570,7	2980,8
571,1	2980,886
571,6	2982,743
572	2984,257
572,5	2985,857
572,9	2982,971
573,4	2981,4
573,8	2988,343
574,3	2986,114
574,7	2990,629
575,2	2990,029
575,6	2981,943
576,1	2982,543
576,5	2986
576,9	2984,829
577,4	2981,714
577,8	2969,8
578,3	2970,429
578,7	2968,029
579,2	2971,486
579,6	2965,286
580,1	2953,486
580,5	2958,257
581	2962,4
581,4	2955,829
581,9	2951,429
582,3	2940,629
582,7	2936,4
583,2	2937,543
583,6	2931,057
584,1	2922,143
584,5	2921,686
585	2921,429
585,4	2922,657
585,9	2917,857
586,3	2917,543
586,8	2913,114
587,2	2908,543
587,6	2910,4
588,1	2911,286
588,5	2907,514
589	2906,4
589,4	2899,429
589,9	2900,171
590,3	2896,771
590,8	2885,343
591,2	2875,657
591,7	2868,543
592,1	2863,229
592,5	2860,571
593	2850,486
593,4	2844,343
593,9	2838,914
594,3	2840,657
594,8	2834,486
595,2	2828,714
595,7	2821,229
596,1	2810,571
596,6	2806,6
597	2798,514
597,4	2790,514
597,9	2785,514
598,3	2787,829
598,8	2785,029
599,2	2786,429
599,7	2781,314
600,1	2775,371
600,6	2766,229
601	2763,2
601,4	2758,886
601,9	2757,571
602,3	2749,971
602,8	2745,371
603,2	2741,086
603,7	2743,171
604,1	2733,6
604,6	2720,229
605	2709,086
605,4	2707,2
605,9	2694,971
606,3	2687,429
606,8	2673,143
607,2	2665,486
607,7	2654,371
608,1	2650,771
608,6	2641,314
609	2640,4
609,4	2637,943
609,9	2626,2
610,3	2623,286
610,8	2622,343
611,2	2612,829
611,7	2600,6
612,1	2587,543
612,6	2574,286
613	2575,714
613,4	2562,114
613,9	2548,4
614,3	2534,029
614,8	2531,029
615,2	2525,571
615,7	2522,829
616,1	2510,857
616,6	2500,971
617	2493,857
617,4	2491,257
617,9	2486,743
618,3	2478,943
618,8	2468,6
619,2	2463,743
619,7	2464,8
620,1	2453,629
620,5	2444,771
621	2429,257
621,4	2419,8
621,9	2405,371
622,3	2391
622,8	2377,4
623,2	2372,4
623,6	2359,886
624,1	2350,143
624,5	2335,886
625	2336,314
625,4	2327,171
625,9	2316,543
626,3	2305,229
626,8	2292,429
627,2	2286,314
627,6	2274,714
628,1	2254,971
628,5	2249,514
629	2233,429
629,4	2226,686
629,9	2219,857
630,3	2205,171
630,7	2194,571
631,2	2186,2
631,6	2172,429
632,1	2170,286
632,5	2152,343
633	2141,943
633,4	2128,543
633,8	2123,086
634,3	2112,829
634,7	2100,086
635,2	2086,171
635,6	2082,8
636,1	2071,4
636,5	2063,829
636,9	2047,914
637,4	2038,343
637,8	2027,571
638,3	2018,171
638,7	2001,686
639,2	1991,886
639,6	1987,829
640	1982,514
640,5	1970,2
640,9	1960,771
641,4	1952,257
641,8	1948,914
642,2	1942,943
642,7	1931,543
643,1	1926,829
643,6	1918,571
644	1914,771
644,5	1910,686
644,9	1901,029
645,3	1894,486
645,8	1883,057
646,2	1872,686
646,7	1862,057
647,1	1846,257
647,6	1829,571
648	1818,2
648,4	1806,743
648,9	1801,829
649,3	1791,514
649,8	1788,743
650,2	1782,171
650,6	1778,171
651,1	1768,857
651,5	1763,257
652	1753,743
652,4	1743,114
652,9	1733,486
653,3	1723,6
653,7	1712,543
654,2	1705,486
654,6	1688,314
655,1	1679,914
655,5	1679,771
655,9	1668,371
656,4	1666,457
656,8	1657,257
657,3	1650,914
657,7	1650,057
658,2	1638,6
658,6	1624,143
659	1611,086
659,5	1596,029
659,9	1590,829
660,4	1583,314
660,8	1571,286
661,2	1564,829
661,7	1551,971
662,1	1549,914
662,6	1542,086
663	1531,943
663,4	1520,429
663,9	1513,114
664,3	1499
664,8	1494,514
665,2	1480
665,6	1468,486
666,1	1456,543
666,5	1448,371
667	1435,714
667,4	1431,114
667,9	1419,171
668,3	1414,771
668,7	1408,943
669,2	1402,143
669,6	1394,629
670,1	1388,829
670,5	1378,657
670,9	1367,429
671,4	1359,829
671,8	1352,457
672,3	1347,257
672,7	1337,971
673,1	1324,057
673,6	1318,057
674	1316,029
674,5	1305,229
674,9	1293,629
675,3	1281,086
675,8	1275,257
676,2	1273,486
676,7	1263,286
677,1	1252,229
677,5	1244,229
678	1241,629
678,4	1236,057
678,9	1227,4
679,3	1219,4
679,7	1211,629
680,2	1200,4
680,6	1192,229
681,1	1187,743
681,5	1180,114
681,9	1171,486
682,4	1166,086
682,8	1160,6
683,3	1160
683,7	1156,171
684,1	1150,257
684,6	1142,829
685	1137,371
685,5	1126,657
685,9	1111,886
686,3	1101,771
686,8	1094,857
687,2	1083,314
687,7	1077,857
688,1	1064,514
688,5	1061,371
689	1061,2
689,4	1055,086
689,9	1045,171
690,3	1037,4
690,7	1030,686
691,2	1033,114
691,6	1025,686
692	1020
692,5	1018,857
692,9	1017,114
693,4	1006,057
693,8	996,314
694,2	985,257
694,7	975,429
695,1	966,029
695,6	956,943
696	953,114
696,4	951,086
696,9	941,943
697,3	937,571
697,8	932,171
698,2	928,714
698,6	921,714
699,1	912,2
699,5	906,086
699,9	904,657
700,4	891
700,8	891,771
701,3	888,971
701,7	878,657
702,1	875,114
702,6	872,343
703	870,657
703,5	872,2
703,9	864,6
704,3	857,429
704,8	853,743
705,2	846,543
705,6	841,571
706,1	836,571
706,5	826,171
707	820,257
707,4	813,971
707,8	814,314
708,3	811,171
708,7	807,4
709,2	795,657
709,6	794,286
710	795
710,5	787,686
710,9	780,457
711,3	774,057
711,8	767,314
712,2	766,171
712,7	758,8
713,1	752,257
713,5	750,571
714	745,543
714,4	739,086
714,8	729,171
715,3	722,6
715,7	724,714
716,2	712,6
716,6	707,171
717	702,543
717,5	702,2
717,9	706,714
718,3	704,543
718,8	693,229
719,2	689,886
719,7	687,086
720,1	685,971
720,5	677,171
721	668,686
721,4	664,886
721,8	664,629
722,3	657,857
722,7	656,629
723,2	648,229
723,6	640,4
724	637,657
724,5	631,429
724,9	622,971
725,3	623,343
725,8	615,457
726,2	608,971
726,7	607,914
727,1	600,314
727,5	593,171
728	588,657
728,4	583,057
728,8	576,029
729,3	570,857
729,7	562,829
730,1	559,8
730,6	562,543
731	562,743
731,5	558,057
731,9	557,857
732,3	561,286
732,8	564,857
733,2	561,657
733,6	556,486
734,1	548,743
734,5	546,743
734,9	546,743
735,4	543,829
735,8	536,343
736,3	538,686
736,7	533,057
737,1	534,886
737,6	532,057
738	522,229
738,4	516,543
738,9	516,6
739,3	510,171
739,7	511,2
740,2	506,343
740,6	506,8
741,1	511,857
741,5	499,886
741,9	496,543
742,4	490,286
742,8	483,686
743,2	483,886
743,7	475,629
744,1	468,114
744,5	469,314
745	464,6
745,4	463,086
745,8	462,914
746,3	458,514
746,7	457,657
747,2	454,543
747,6	459,886
748	462,286
748,5	464,629
748,9	458,543
749,3	456,171
749,8	451,714
750,2	451,829
750,6	443,886
751,1	441,2
751,5	431,743
751,9	434,657
752,4	433,257
752,8	433,429
753,3	427,543
753,7	428,686
754,1	418,8
754,6	417,914
755	407,286
755,4	400,343
755,9	398
756,3	392,914
756,7	390,143
757,2	394,743
757,6	393,086
758	394,8
758,5	395
758,9	394,514
759,3	394,914
759,8	387,286
760,2	384,086
760,6	379,914
761,1	374,829
761,5	370,829
761,9	365,486
762,4	361,686
762,8	359,486
763,3	353,4
763,7	356,857
764,1	358,371
764,6	357,886
765	359,629
765,4	358,971
765,9	363,629
766,3	364,6
766,7	355,943
767,2	352,571
767,6	352,2
768	344,257
768,5	342,971
768,9	338,086
769,3	333,857
769,8	330,686
770,2	327,314
770,6	324,6
771,1	326,629
771,5	328,514
771,9	326,971
772,4	326,829
772,8	327,971
773,2	329,571
773,7	323,543
774,1	318,857
774,5	309,371
775	306,686
775,4	301,8
775,8	299,257
776,3	297,086
776,7	297,057
777,1	295,057
777,6	295,714
778	295,114
778,4	294,057
778,9	294,914
779,3	292,486
779,7	290,657
780,2	289
780,6	284,971
781	282,857
781,5	283,229
781,9	279,4
782,3	274,514
782,8	272,571
783,2	268,314
783,6	274,914
784,1	270,286
784,5	266,257
784,9	262,8
785,4	266,229
785,8	268,543
786,2	270,2
786,7	261,6
787,1	262,343
787,5	260,029
788	256,8
788,4	250,057
788,8	244,486
789,3	243,029
789,7	246,314
790,1	241,429
790,6	242,2
791	239,371
791,4	241,2
791,9	240,286
792,3	232,971
792,7	227,8
793,2	225,771
793,6	222,971
794	222,343
794,5	216,686
794,9	217,314
795,3	219,486
795,8	215,343
796,2	215,314
796,6	214,914
797,1	215,143
797,5	215,057
797,9	209,771
798,4	208,543
798,8	208,743
799,2	208,057
799,7	207,286
800,1	204,143
800,5	202,857
801	204,629
801,4	202,629
801,8	202,857
802,2	199,486
802,7	193,429
803,1	196,029
803,5	197,514
804	194,514
804,4	193,514
804,8	190,886
805,3	193,657
805,7	196,486
806,1	191,886
806,6	189,457
807	188,886
807,4	188,2
807,9	182,2
808,3	180,486
808,7	177,257
809,2	178,4
809,6	179,629
810	176,057
810,4	173,8
810,9	175
811,3	171,571
811,7	174,857
812,2	176,371
812,6	172,171
813	175,114
813,5	172,229
813,9	172,086
814,3	170,029
814,8	164,143
815,2	156,714
815,6	156,486
816,1	157,457
816,5	156,057
816,9	156,914
817,3	156,286
817,8	156,914
818,2	159,514
818,6	153,286
819,1	145,171
819,5	146,314
819,9	144,057
820,4	145,2
820,8	142,314
821,2	139,429
821,7	144,771
822,1	148,086
822,5	151,829
822,9	150,6
823,4	148,057
823,8	149,4
824,2	152,029
824,7	143,571
825,1	137,829
825,5	129,8
826	126,486
826,4	124,8
826,8	119,886
827,3	118,286
827,7	118,229
828,1	118,343
828,5	119,886
829	119,114
829,4	118,657
829,8	114,686
830,3	114,886
830,7	116,086
831,1	117,971
831,6	115,171
832	116,086
832,4	112,029
832,8	114,029
833,3	109,229
833,7	107,4
834,1	99,286
834,6	95,771
835	97,2
835,4	97,771
835,8	97,229
836,3	99,086
836,7	101,171
837,1	104,286
837,6	107,143
838	100,2
838,4	101,029
838,9	102,743
839,3	97,486
839,7	94,457
840,1	91,486
840,6	90,6
841	92,971
841,4	93,029
841,9	91,771
842,3	94,114
842,7	92,257
843,1	92,914
843,6	94,429
844	95,486
844,4	99,029
844,9	98,514
845,3	97,857
845,7	101,8
846,2	102,857
846,6	102,257
847	102,6
847,4	97,343
847,9	97,6
848,3	95,829
848,7	95,371
849,2	94,429
849,6	89,714
850	90,429
850,4	90,229
850,9	88,371
851,3	87,229
851,7	84,971
852,2	84,571
852,6	87,057
853	82,829
853,4	82,171
853,9	81,486
854,3	85,4
854,7	85,886
855,2	84,886
855,6	84,429
856	82,886
856,4	76,286
856,9	72,343
857,3	72,257
857,7	73,029
858,2	78,029
858,6	75,971
859	76,114
859,4	79,486
859,9	79,857
860,3	74,543
860,7	68,657
861,1	63,714
861,6	64,629
862	65,886
862,4	64,943
862,9	68,171
863,3	70,229
863,7	72,914
864,1	72,743
864,6	72,571
865	71,457
865,4	73,543
865,9	77,2
866,3	68,8
866,7	66,514
867,1	62,943
867,6	60,686
868	58,657
868,4	57,057
868,8	53,571
869,3	59,457
869,7	63,743
870,1	61,886
870,6	62,171
871	12,257
871,4	14,943
871,8	13,143
872,3	14,314
872,7	8,857
873,1	10,543
873,5	11,371
874	60,514
874,4	57,571
874,8	54,4
875,3	53,143
875,7	54,029
876,1	56,829
876,5	52,629
877	53
877,4	49,6
877,8	51,229
878,2	53,457
878,7	55,4
879,1	54,743
879,5	60,486
879,9	63,886
880,4	66,486
880,8	68,171
881,2	66,086
881,7	60,914
882,1	60,086
882,5	55,314
882,9	52,686
883,4	53,371
883,8	53,4
884,2	53,914
884,6	53,514
885,1	51,114
885,5	50,343
885,9	47,057
886,3	47,8
886,8	45,343
887,2	40,629
887,6	43,029
888	42,4
888,5	40,914
888,9	37,914
889,3	31,686
889,8	28,457
890,2	31,829
890,6	30,086
891	34,314
891,5	30,6
891,9	34,914
892,3	36,457
892,7	38,6
893,2	35,571
893,6	40,314
894	37,686
894,4	40
894,9	39,114
895,3	41,314
895,7	44,314
896,1	41,714
896,6	37,514
897	38,829
897,4	45,914
897,8	47,514
898,3	45,429
898,7	39,914
899,1	40,486
899,5	42,943
900	37,229
900,4	35,2
900,8	31,971
901,2	31,771
901,7	32,371
902,1	36,086
902,5	34,686
902,9	36,086
903,4	33,743
903,8	34,743
904,2	33,486
904,6	34,971
905,1	32,629
905,5	33,829
905,9	38,457
906,3	40,229
906,8	43,429
907,2	44,486
907,6	47,2
908	51,257
908,5	47,257
908,9	43,886
909,3	38,971
909,7	37,686
910,2	38,429
910,6	39,229
911	33,914
911,4	33,771
911,9	33,8
912,3	35,171
912,7	38,371
913,1	37,829
913,6	33,457
914	35,943
914,4	33,771
914,8	33,914
915,3	35,086
915,7	27,657
916,1	28,743
916,5	29,286
916,9	29,457
917,4	34,171
917,8	31,743
918,2	31,943
918,6	31,371
919,1	30,114
919,5	27,086
919,9	22,914
920,3	17,486
920,8	17,371
921,2	13,743
921,6	15,143
922	16,371
922,5	18,086
922,9	19,914
923,3	21,686
923,7	22,657
924,2	24,543
924,6	24,857
925	22
925,4	21,514
925,8	20,971
926,3	23,314
926,7	21,514
927,1	17,686
927,5	18,543
928	16,486
928,4	17,857
928,8	23,686
929,2	24,029
929,7	27,257
930,1	33,343
930,5	33,143
930,9	43,171
931,3	43,029
931,8	36,886
932,2	34,829
932,6	30,314
933	24,6
933,5	24,543
933,9	20,971
934,3	22,571
934,7	21,686
935,2	21,314
935,6	22,771
936	27,229
936,4	28,257
936,8	29,171
937,3	27,229
937,7	31,943
938,1	35,714
938,5	33,143
939	32,343
939,4	31,629
939,8	27,229
940,2	28,086
940,6	26,743
941,1	20,571
941,5	28,914
941,9	25,029
942,3	26,4
942,8	23,629
943,2	21,4
943,6	15,771
944	20,686
944,4	18,429
944,9	19,229
945,3	15,743
945,7	15,971
946,1	13,714
946,6	13,029
947	11,286
947,4	13,114
947,8	13,086
948,2	9,314
948,7	10,086
949,1	9,829
949,5	19,743
949,9	19,8
950,3	12,171
950,8	13,657
951,2	14,829
951,6	13,943
952	17,457
952,5	10,743
952,9	9,429
953,3	11,429
953,7	12,057
954,1	18,829
954,6	20,171
955	23,314
955,4	22,486
955,8	28,114
956,2	30,571
956,7	31,457
957,1	27,029
957,5	29,657
957,9	25,343
958,3	25,143
958,8	22,114
959,2	23,314
959,6	24,657
960	24,2
960,5	25,914
960,9	28,714
961,3	28,486
961,7	23,057
962,1	20,114
962,6	17,943
963	17,886
963,4	14,543
963,8	12,543
964,2	14,514
964,7	16,514
965,1	20,343
965,5	16,4
965,9	13
966,3	12,429
966,8	14,914
967,2	12,6
967,6	15,4
968	8,543
968,4	9,686
968,9	10,429
969,3	14,771
969,7	7,257
970,1	12,886
970,5	7,971
971	14
971,4	16,714
971,8	20,314
972,2	18,514
972,6	17,343
973,1	15,229
973,5	18,886
973,9	18,571
974,3	16,914
974,7	19,343
975,2	17,286
975,6	19,829
976	16,857
976,4	11,857
976,8	9,229
977,3	8,343
977,7	1,829
978,1	1,286
978,5	3,714
978,9	2,714
979,4	5,857
979,8	8,171
980,2	10,543
980,6	8,2
981	15,743
981,5	13,286
981,9	8,114
982,3	7,486
982,7	6,943
983,1	1,771
983,6	7,6
984	1,886
984,4	4,171
984,8	7,143
985,2	10,686
985,6	7,257
986,1	11,286
986,5	13,257
986,9	10,771
987,3	11,114
987,7	14,143
988,2	5,886
988,6	8,657
989	11,571
989,4	9,343
989,8	10,029
990,3	8,057
990,7	10,629
991,1	16,4
991,5	18,2
991,9	16,343
992,3	20,057
992,8	21,943
993,2	24,857
993,6	25
994	27,771
994,4	28,229
994,9	27,343
995,3	23,314
995,7	20,4
996,1	18,571
996,5	19,914
996,9	18,057
997,4	16,543
997,8	13,457
998,2	10,857
998,6	4,514
999	5,229
999,5	0,486
999,9	-0,629
1000,3	-1,343
1000,7	3,086
1001,1	6,4
1001,5	17
1002	16
1002,4	19,429
1002,8	21,086
1003,2	24,114
1003,6	25
1004	25,229
1004,5	21,514
1004,9	26,857
1005,3	21,2
1005,7	19,114
1006,1	13,114
1006,6	11,229
1007	13,086
1007,4	12,057
1007,8	8,943
1008,2	8,457
1008,6	10,6
1009,1	12,686
1009,5	13,857
1009,9	14,057
1010,3	16,457
1010,7	14,057
1011,1	16,914
1011,6	19,886
1012	22,914
1012,4	21,486
1012,8	19,943
1013,2	22,686
1013,6	23,971
1014,1	23,571
1014,5	17,057
1014,9	13,543
1015,3	15,314
1015,7	15,771
1016,1	10,314
1016,6	6,914
1017	12,514
1017,4	18,057
1017,8	19,314
1018,2	20,571
1018,6	13,086
1019,1	13,371
1019,5	15,514
1019,9	5,257
1020,3	0,943
1020,7	-0,457
1021,1	-3,571
1021,6	0,6
1022	6,543
1022,4	8,4
1022,8	16,086
1023,2	16,257
1023,6	20,343
1024,1	24,057
1024,5	28,457
1024,9	21,8
1025,3	19,229
1025,7	20,114
1026,1	20,743
1026,6	15,429
1027	13,057
1027,4	11,629
1027,8	14,229
1028,2	13,657
1028,6	16,714
1029	15,114
1029,5	17,943
1029,9	15,371
1030,3	13,657
1030,7	16,229
1031,1	17,286
1031,5	9,771
1032	11,8
1032,4	11,257
1032,8	10,429
1033,2	12,543
1033,6	5,457
1034	5,629
1034,4	6,314
1034,9	7
1035,3	5,029
1035,7	9,2
1036,1	8,8
1036,5	12,686
1036,9	18,371
1037,4	20,6
1037,8	18,257
1038,2	17,486
1038,6	14,8
1039	15,571
1039,4	19,086
1039,8	8,743
1040,3	9,486
1040,7	9,229
1041,1	13,057
1041,5	18,486
1041,9	15,314
1042,3	9,743
1042,7	17,6
1043,2	16,629
1043,6	16,543
1044	10,971
1044,4	6,229
1044,8	7,886
1045,2	6,829
1045,6	7,371
1046,1	6,486
1046,5	7,6
1046,9	8,6
1047,3	9
1047,7	7,6
1048,1	6,886
1048,5	5,486
1049	9,571
1049,4	14,114
1049,8	16,571
1050,2	18,657
1050,6	21,086
1051	24,514
1051,4	22,286
1051,9	19,086
1052,3	23,971
1052,7	19,629
1053,1	12
1053,5	11,143
1053,9	10,514
1054,3	11,2
1054,8	13,857
1055,2	8,514
1055,6	14,771
1056	21,686
1056,4	22,543
1056,8	24,657
1057,2	23,257
1057,6	19,286
1058,1	11,971
1058,5	7,114
1058,9	6,971
1059,3	8,143
1059,7	10,829
1060,1	11,229
1060,5	12,514
1061	20,4
1061,4	22,143
1061,8	19,657
1062,2	20,971
1062,6	22
1063	25,743
1063,4	25,8
1063,8	20,057
1064,3	23,143
1064,7	28,886
1065,1	22,257
1065,5	14,714
1065,9	11,686
1066,3	14,114
1066,7	10,8
1067,1	6,2
1067,6	6,286
1068	5
1068,4	7,857
1068,8	11,029
1069,2	6,171
1069,6	10,486
1070	14,429
1070,4	7,771
1070,9	7,4
1071,3	6,086
1071,7	0,657
1072,1	3,457
1072,5	2,829
1072,9	-1,4
1073,3	-0,943
1073,7	1,086
1074,2	8,171
1074,6	12,457
1075	9,286
1075,4	12,4
1075,8	13,286
1076,2	15,514
1076,6	18,657
1077	10,943
1077,5	11,829
1077,9	9,886
1078,3	6,286
1078,7	8,771
1079,1	12,057
1079,5	8,114
1079,9	10,257
1080,3	9
1080,7	15,429
1081,2	21,4
1081,6	22,029
1082	16,057
1082,4	18,8
1082,8	19,057
1083,2	18,114
1083,6	13,914
1084	6,314
1084,5	6,714
1084,9	5,771
1085,3	3,057
1085,7	2,257
1086,1	3,029
1086,5	5,086
1086,9	9,429
1087,3	7,686
1087,7	7,486
1088,2	12,714
1088,6	12,6
1089	12,771
1089,4	10,8
1089,8	11,2
1090,2	9,629
1090,6	10,2
1091	9,6
1091,4	10,2
1091,9	9,771
1092,3	9,771
1092,7	7,114
1093,1	11
1093,5	15,714
1093,9	9,571
1094,3	13,514
1094,7	12
1095,1	17,486
1095,5	20,543
1096	15,4
1096,4	15,714
1096,8	19,629
1097,2	14,714
1097,6	17,086
1098	13,114
1098,4	14,171
1098,8	16,857
1099,2	16,714
1099,6	15,571
1100,1	13,714
1100,5	11,429
1100,9	10,229
1101,3	7,114
1101,7	5,914
1102,1	3,457
1102,5	5,057
1102,9	6,943
1103,3	10,057
1103,7	10,886
1104,2	11,4
1104,6	14,8
1105	11,886
1105,4	12,2
1105,8	10,743
1106,2	6,171
1106,6	5,571
1107	3,714
1107,4	0,2
1107,8	2,36
1108,3	-0,7
