Data from Subt2_080.txt Node
Date: Sat Aug 26 16:39:04 MSK 2023
User: vat
Spectrometer: MAYP114033
Trigger mode: 0
Integration Time (sec): 1,000000E0
Scans to average: 5
Electric dark correction enabled: true
Nonlinearity correction enabled: false
Boxcar width: 3
XAxis mode: Wavelengths
Number of Pixels in Spectrum: 2068
>>>>>Begin Spectral Data<<<<<
199,4	0,05
199,9	1,88
200,4	-2,433
200,8	-1,943
201,3	-1,057
201,8	0,143
202,2	0,771
202,7	1,314
203,2	0,8
203,6	5,029
204,1	6,4
204,6	10,2
205	11,829
205,5	8,514
206	9,629
206,4	10,171
206,9	9,514
207,4	12,657
207,8	6,429
208,3	4,771
208,8	5,371
209,2	7,086
209,7	8,8
210,2	14,286
210,6	11
211,1	11,6
211,5	11,343
212	13,571
212,5	7,657
212,9	7,086
213,4	4,4
213,9	2,914
214,3	5,714
214,8	8,629
215,3	6,971
215,7	9,029
216,2	7,057
216,7	2,8
217,1	3,057
217,6	1,229
218,1	-2,343
218,5	2,229
219	11,943
219,5	17,571
219,9	18,143
220,4	18,486
220,9	18,857
221,3	23,457
221,8	18,029
222,3	10,686
222,7	5,6
223,2	8,371
223,6	7,314
224,1	11,514
224,6	6,4
225	8,4
225,5	17,114
226	16,2
226,4	16,771
226,9	15
227,4	12,4
227,8	16,286
228,3	19,8
228,8	8,086
229,2	9,286
229,7	5,943
230,2	11,914
230,6	10,486
231,1	10,457
231,5	9,286
232	17,4
232,5	16,086
232,9	19,057
233,4	18,486
233,9	22,6
234,3	19,314
234,8	19,114
235,3	15,343
235,7	20,971
236,2	18,571
236,7	16,686
237,1	12,829
237,6	12,371
238,1	13,8
238,5	13,829
239	3,143
239,4	8,143
239,9	9,257
240,4	7,371
240,8	6,943
241,3	6,057
241,8	0,514
242,2	8,371
242,7	8,343
243,2	6,686
243,6	11,971
244,1	15,714
244,6	12,086
245	15,057
245,5	14,543
245,9	13,971
246,4	15,8
246,9	12,543
247,3	7,286
247,8	9,971
248,3	12,714
248,7	14,429
249,2	9,829
249,7	8,229
250,1	9
250,6	13,2
251	13,943
251,5	3,629
252	1,829
252,4	4,486
252,9	5,857
253,4	7,229
253,8	7,514
254,3	10,229
254,8	17,343
255,2	18,771
255,7	22,629
256,1	20,2
256,6	19,543
257,1	21,343
257,5	18,943
258	20,686
258,5	19,657
258,9	17,486
259,4	21,857
259,9	21,714
260,3	17,314
260,8	18,143
261,2	20,829
261,7	23,486
262,2	23,629
262,6	19,8
263,1	17,943
263,6	20,943
264	15,886
264,5	14,314
264,9	9,171
265,4	5,714
265,9	11,571
266,3	10,771
266,8	7,8
267,3	12,286
267,7	10,114
268,2	11,343
268,7	11,657
269,1	6,229
269,6	11
270	14,114
270,5	12,571
271	13,029
271,4	7,6
271,9	8,886
272,4	8,743
272,8	3,6
273,3	0,057
273,7	-4,514
274,2	-0,743
274,7	1,029
275,1	-2,743
275,6	-4,229
276,1	-2,371
276,5	2
277	7,457
277,4	3,257
277,9	3,429
278,4	9,171
278,8	11,771
279,3	9,743
279,8	6,571
280,2	3,257
280,7	4,371
281,1	7,771
281,6	3,8
282,1	5,771
282,5	5,457
283	3,057
283,4	5,286
283,9	1,457
284,4	3,171
284,8	4,286
285,3	-1,914
285,8	0,171
286,2	-1,543
286,7	-3,371
287,1	-0,257
287,6	-0,571
288,1	-0,143
288,5	6,2
289	10,229
289,5	15,057
289,9	16,571
290,4	15,171
290,8	16,771
291,3	15,171
291,8	10,429
292,2	10,771
292,7	12,286
293,1	12,486
293,6	16,686
294,1	8,771
294,5	11,571
295	12,2
295,5	9,571
295,9	10,686
296,4	12,257
296,8	8,6
297,3	20,257
297,8	19,743
298,2	21,229
298,7	18,886
299,1	17,114
299,6	16,029
300,1	19,114
300,5	12,829
301	12,143
301,5	14,571
301,9	13,743
302,4	12,829
302,8	10,8
303,3	10,257
303,8	5,571
304,2	4,514
304,7	1,114
305,1	1,457
305,6	-0,229
306,1	1,971
306,5	0,686
307	1,971
307,4	0,914
307,9	0,686
308,4	5,857
308,8	11,171
309,3	10,257
309,8	14,857
310,2	11,914
310,7	16,657
311,1	15,429
311,6	10,143
312,1	7
312,5	6,629
313	4,314
313,4	8,829
313,9	7,086
314,4	5,829
314,8	11,886
315,3	14,257
315,7	12,886
316,2	8,914
316,7	12,286
317,1	11,771
317,6	11,514
318	6,886
318,5	7,514
319	9,286
319,4	13,571
319,9	11,4
320,3	16,029
320,8	18,886
321,3	16,171
321,7	11,429
322,2	14,514
322,6	9,629
323,1	8,314
323,6	1,457
324	3,286
324,5	3,771
324,9	4,971
325,4	2,229
325,9	9,314
326,3	13,543
326,8	17,571
327,2	16,743
327,7	19,743
328,2	19,657
328,6	23,629
329,1	19,286
329,5	18,8
330	20,4
330,5	18,914
330,9	17,829
331,4	14,6
331,8	14,886
332,3	15,657
332,8	13,686
333,2	9,114
333,7	12,143
334,1	15,686
334,6	22,886
335,1	18,543
335,5	20,286
336	16,657
336,4	15,857
336,9	17,343
337,4	12,943
337,8	7,286
338,3	9,657
338,7	7,171
339,2	13,086
339,7	11,743
340,1	9,4
340,6	7,8
341	13,171
341,5	13,971
342	11,629
342,4	8
342,9	8,914
343,3	12,657
343,8	17,857
344,2	18,2
344,7	18,086
345,2	19,514
345,6	23,886
346,1	25,6
346,5	23,143
347	23,257
347,5	18,629
347,9	17,771
348,4	20,171
348,8	18,286
349,3	18,029
349,8	18,086
350,2	17,657
350,7	24,8
351,1	23,486
351,6	26,6
352	32,8
352,5	43,4
353	53,143
353,4	64,971
353,9	75,286
354,3	92,629
354,8	104,2
355,3	123,943
355,7	142,829
356,2	167,343
356,6	196
357,1	228,086
357,5	264,257
358	316,4
358,5	369,029
358,9	428,286
359,4	499,8
359,8	575,371
360,3	664,686
360,8	763,914
361,2	871,314
361,7	985,4
362,1	1114,2
362,6	1249,514
363	1398,114
363,5	1558,686
364	1720,314
364,4	1889,371
364,9	2058,571
365,3	2223,857
365,8	2379,457
366,3	2530,343
366,7	2661,629
367,2	2780,143
367,6	2871,286
368,1	2940,2
368,5	2989,429
369	3015,286
369,5	3012,429
369,9	2983,743
370,4	2937,029
370,8	2869,4
371,3	2790,257
371,7	2688,257
372,2	2575,114
372,7	2447,229
373,1	2318,543
373,6	2183,086
374	2044,857
374,5	1908,771
374,9	1775,771
375,4	1650,314
375,9	1532,286
376,3	1416,171
376,8	1307,6
377,2	1208,286
377,7	1107,371
378,2	1016,371
378,6	926,943
379,1	848,914
379,5	780,143
380	718,057
380,4	654,6
380,9	607,314
381,4	559,429
381,8	522
382,3	480,829
382,7	438,086
383,2	403,2
383,6	381,114
384,1	351,8
384,6	327,229
385	303,743
385,5	286,143
385,9	273,371
386,4	255
386,8	236,657
387,3	220
387,7	211,657
388,2	197,886
388,7	182,629
389,1	168,571
389,6	158
390	146,171
390,5	136,457
390,9	127,2
391,4	118,314
391,9	110,114
392,3	99,2
392,8	94,943
393,2	86,857
393,7	88,571
394,1	85,257
394,6	80,429
395,1	81,857
395,5	83,886
396	79,886
396,4	77,743
396,9	72,114
397,3	64,829
397,8	63,286
398,2	56,6
398,7	50,486
399,2	45
399,6	50,486
400,1	39,029
400,5	37,857
401	36,057
401,4	38,171
401,9	42,457
402,4	46,086
402,8	40,457
403,3	47,8
403,7	48,143
404,2	48,543
404,6	43,686
405,1	38,657
405,5	35,943
406	38
406,5	31,686
406,9	32,029
407,4	33,543
407,8	39,4
408,3	36,771
408,7	41,4
409,2	38
409,6	43,486
410,1	47,343
410,6	46,143
411	43,057
411,5	48,114
411,9	43,857
412,4	48,8
412,8	51,286
413,3	48,543
413,7	55,029
414,2	61,571
414,7	69,829
415,1	76,914
415,6	82,686
416	89,029
416,5	92,086
416,9	93,571
417,4	93,971
417,8	93,943
418,3	98,057
418,8	93,571
419,2	93,629
419,7	102,429
420,1	99,857
420,6	103,486
421	103,886
421,5	98,914
421,9	101,343
422,4	101,286
422,8	97,4
423,3	98,771
423,8	100,514
424,2	101,914
424,7	108,771
425,1	109,143
425,6	110,857
426	111,829
426,5	109,086
426,9	108,743
427,4	109,714
427,9	102,743
428,3	98,429
428,8	98,286
429,2	95,343
429,7	95,314
430,1	92,457
430,6	94,429
431	99,514
431,5	109,486
431,9	111,6
432,4	120,457
432,8	132,657
433,3	140,343
433,8	143,571
434,2	146,114
434,7	146,257
435,1	150,514
435,6	156,114
436	158,029
436,5	163,2
436,9	169,886
437,4	176,257
437,8	180,314
438,3	191,629
438,8	190,743
439,2	196,229
439,7	197,657
440,1	203,914
440,6	213,057
441	228,286
441,5	232,629
441,9	246,971
442,4	265,171
442,8	281,4
443,3	286,743
443,7	295,6
444,2	306,343
444,7	321,686
445,1	333,829
445,6	340,057
446	356,4
446,5	375,486
446,9	392,457
447,4	412,8
447,8	426,714
448,3	445,829
448,7	462,543
449,2	475,743
449,6	490,8
450,1	513
450,6	524,343
451	540,6
451,5	558,514
451,9	578,429
452,4	600,857
452,8	628,057
453,3	645,8
453,7	665,571
454,2	689,543
454,6	711,371
455,1	731,914
455,5	756,857
456	782,829
456,4	810,229
456,9	838,829
457,3	870,086
457,8	899,743
458,3	933,457
458,7	963,486
459,2	991,314
459,6	1017,429
460,1	1049,514
460,5	1081,343
461	1110,057
461,4	1145,543
461,9	1173,686
462,3	1208,743
462,8	1242
463,2	1275,429
463,7	1307,343
464,1	1345,943
464,6	1376,171
465	1411,6
465,5	1446,314
466	1487,886
466,4	1528,286
466,9	1560,686
467,3	1592,457
467,8	1636,257
468,2	1675,314
468,7	1710,2
469,1	1746,457
469,6	1780,971
470	1823,171
470,5	1867,829
470,9	1905,971
471,4	1944,829
471,8	1983,457
472,3	2020,2
472,7	2063
473,2	2096,371
473,6	2130,114
474,1	2161,171
474,5	2205,343
475	2246,057
475,4	2285,914
475,9	2331,314
476,4	2373,114
476,8	2412,571
477,3	2455,143
477,7	2489,229
478,2	2525,143
478,6	2563,229
479,1	2592,286
479,5	2630,629
480	2666,143
480,4	2698,257
480,9	2735,429
481,3	2770,971
481,8	2808,229
482,2	2833,971
482,7	2867,4
483,1	2905,914
483,6	2931
484	2956,343
484,5	2986,314
484,9	3016
485,4	3048,971
485,8	3069,571
486,3	3091,829
486,7	3129,257
487,2	3159,257
487,6	3185,971
488,1	3210,771
488,5	3239,229
489	3264,571
489,4	3288,029
489,9	3310,8
490,4	3336,086
490,8	3353,314
491,3	3371,886
491,7	3385,314
492,2	3412,086
492,6	3429,971
493,1	3448,2
493,5	3452,6
494	3468,4
494,4	3481,371
494,9	3501,143
495,3	3514,543
495,8	3531,971
496,2	3543,657
496,7	3562,114
497,1	3576,657
497,6	3586,571
498	3591,371
498,5	3603,971
498,9	3610,971
499,4	3626,914
499,8	3644,4
500,3	3654,857
500,7	3672,629
501,2	3685,143
501,6	3700,086
502,1	3713,686
502,5	3716,057
503	3727,829
503,4	3735,629
503,9	3747,057
504,3	3757,486
504,8	3757,371
505,2	3758,6
505,7	3768,114
506,1	3771,943
506,6	3782,8
507	3786,229
507,5	3793,914
507,9	3802,057
508,4	3815,543
508,8	3822,8
509,3	3832,429
509,7	3829,971
510,2	3833,686
510,6	3841,629
511,1	3854,314
511,5	3858,8
512	3866,143
512,4	3873,429
512,9	3887,829
513,3	3902,543
513,8	3908,771
514,2	3906
514,7	3913,686
515,1	3917,629
515,6	3915,057
516	3913,714
516,5	3908,486
516,9	3903,457
517,4	3912,714
517,8	3911,257
518,3	3909,171
518,7	3918,771
519,2	3929,057
519,6	3934
520,1	3948,6
520,5	3956,686
521	3965,314
521,4	3973,4
521,9	3979,429
522,3	3987,029
522,8	3998,4
523,2	4000,571
523,7	4004,486
524,1	4007,686
524,6	4017,629
525	4021,943
525,5	4026,486
525,9	4031,771
526,4	4037,371
526,8	4036,314
527,3	4052,171
527,7	4057,2
528,2	4058,114
528,6	4062,257
529,1	4062,571
529,5	4069,771
530	4079,8
530,4	4082,314
530,9	4088,6
531,3	4093,886
531,8	4099,543
532,2	4111,171
532,6	4122,371
533,1	4131,914
533,5	4140,086
534	4145,229
534,4	4156,629
534,9	4177,057
535,3	4184,543
535,8	4187,8
536,2	4189,943
536,7	4196,029
537,1	4206,886
537,6	4219,257
538	4219,2
538,5	4225,629
538,9	4240,257
539,4	4255,086
539,8	4257,286
540,3	4261,257
540,7	4269,543
541,2	4275
541,6	4290,543
542,1	4293,2
542,5	4301,914
543	4312,114
543,4	4328
543,9	4329,086
544,3	4337,229
544,8	4340,571
545,2	4340,771
545,7	4344,114
546,1	4353,514
546,5	4360,943
547	4374,143
547,4	4381,943
547,9	4392,686
548,3	4410,771
548,8	4421,514
549,2	4433,629
549,7	4443,657
550,1	4452,057
550,6	4458,8
551	4460,371
551,5	4470,286
551,9	4477,514
552,4	4486,057
552,8	4490,229
553,3	4501,371
553,7	4514,029
554,2	4522,143
554,6	4529,286
555,1	4537,686
555,5	4539,143
555,9	4553,457
556,4	4557,286
556,8	4565,4
557,3	4574,829
557,7	4579,029
558,2	4581,514
558,6	4599,571
559,1	4592,657
559,5	4599,714
560	4601,257
560,4	4607,229
560,9	4622,114
561,3	4632,743
561,8	4632,857
562,2	4645,4
562,7	4649,2
563,1	4654,314
563,6	4657,343
564	4655
564,4	4659,143
564,9	4662,686
565,3	4669,314
565,8	4671,371
566,2	4672,943
566,7	4674,771
567,1	4680,429
567,6	4683,114
568	4682,771
568,5	4686,514
568,9	4690,714
569,4	4698,286
569,8	4707,514
570,3	4702,771
570,7	4701,857
571,1	4702,857
571,6	4702,571
572	4699,914
572,5	4697,8
572,9	4695,314
573,4	4698,943
573,8	4702,543
574,3	4705,686
574,7	4700,086
575,2	4696,543
575,6	4694,257
576,1	4695,171
576,5	4692,886
576,9	4695,229
577,4	4693,114
577,8	4693,6
578,3	4689,029
578,7	4688,257
579,2	4675,829
579,6	4676,886
580,1	4672,629
580,5	4665,657
581	4661,914
581,4	4658,457
581,9	4646,286
582,3	4647,514
582,7	4637,543
583,2	4616,429
583,6	4610,371
584,1	4599,971
584,5	4600,743
585	4597,543
585,4	4586,057
585,9	4581,171
586,3	4580
586,8	4567,371
587,2	4564,571
587,6	4554,343
588,1	4546,514
588,5	4544,743
589	4532,743
589,4	4524,229
589,9	4525
590,3	4503,943
590,8	4495,771
591,2	4486,914
591,7	4476,457
592,1	4471,914
592,5	4470,114
593	4457,914
593,4	4460,657
593,9	4453,171
594,3	4449,486
594,8	4440,114
595,2	4429,171
595,7	4421,543
596,1	4410,4
596,6	4406,657
597	4402,057
597,4	4394,8
597,9	4388,229
598,3	4385,114
598,8	4374,829
599,2	4369,743
599,7	4356,914
600,1	4342,743
600,6	4330,829
601	4327,857
601,4	4317,543
601,9	4302,571
602,3	4299,629
602,8	4292,514
603,2	4290,171
603,7	4284,314
604,1	4272,057
604,6	4258,029
605	4252,257
605,4	4235,571
605,9	4222,086
606,3	4203,6
606,8	4188,229
607,2	4174,914
607,7	4163,571
608,1	4146,2
608,6	4133,429
609	4120,314
609,4	4110,686
609,9	4100,971
610,3	4083,829
610,8	4076,343
611,2	4066,8
611,7	4050,714
612,1	4031,743
612,6	4015,4
613	4004,629
613,4	3994,086
613,9	3979,371
614,3	3965,4
614,8	3953,229
615,2	3945,8
615,7	3935,6
616,1	3916,086
616,6	3902,229
617	3881,914
617,4	3866,543
617,9	3855,686
618,3	3836,657
618,8	3822,6
619,2	3806,257
619,7	3790,314
620,1	3770,343
620,5	3756,857
621	3737,343
621,4	3723,143
621,9	3704,543
622,3	3697,2
622,8	3672,8
623,2	3664,229
623,6	3645,429
624,1	3635,257
624,5	3618,971
625	3600,286
625,4	3575,257
625,9	3562,943
626,3	3548,743
626,8	3536,057
627,2	3514,486
627,6	3500,4
628,1	3487,543
628,5	3476,057
629	3463,857
629,4	3439,143
629,9	3418,114
630,3	3403,143
630,7	3385,943
631,2	3365,229
631,6	3343,657
632,1	3323,029
632,5	3313,829
633	3294,714
633,4	3274,829
633,8	3253,314
634,3	3230,943
634,7	3215,857
635,2	3203,657
635,6	3186
636,1	3178,029
636,5	3161,971
636,9	3147,829
637,4	3138,4
637,8	3124,429
638,3	3100,086
638,7	3086,6
639,2	3069,457
639,6	3054,543
640	3036,2
640,5	3020,743
640,9	3002,429
641,4	2990,943
641,8	2965,657
642,2	2953,829
642,7	2942,257
643,1	2929,714
643,6	2914,543
644	2904,971
644,5	2888,657
644,9	2876,686
645,3	2856,086
645,8	2839,114
646,2	2822,4
646,7	2803,914
647,1	2785,829
647,6	2772,029
648	2759,229
648,4	2745,543
648,9	2726,771
649,3	2710,2
649,8	2698,286
650,2	2684,286
650,6	2671,686
651,1	2663,829
651,5	2651,571
652	2641,914
652,4	2626,714
652,9	2616,314
653,3	2604,429
653,7	2588,143
654,2	2572,829
654,6	2555,657
655,1	2537,571
655,5	2529,686
655,9	2511,857
656,4	2495,429
656,8	2481,914
657,3	2459,143
657,7	2444,029
658,2	2433,4
658,6	2418,029
659	2408
659,5	2386,686
659,9	2373,6
660,4	2366,914
660,8	2357,4
661,2	2336,4
661,7	2320,171
662,1	2304,514
662,6	2293,771
663	2280,314
663,4	2267,714
663,9	2249,857
664,3	2236,114
664,8	2222,486
665,2	2207,457
665,6	2195,114
666,1	2180,657
666,5	2161,457
667	2143,143
667,4	2137,029
667,9	2121,029
668,3	2111,4
668,7	2096,743
669,2	2083,8
669,6	2074,143
670,1	2064,2
670,5	2044,286
670,9	2032
671,4	2015,457
671,8	2001,286
672,3	1984,257
672,7	1965,086
673,1	1950,543
673,6	1938,057
674	1925,886
674,5	1914,486
674,9	1902,2
675,3	1893,514
675,8	1888,086
676,2	1879,486
676,7	1867,2
677,1	1858,029
677,5	1845,371
678	1835,057
678,4	1828,429
678,9	1812,543
679,3	1799,429
679,7	1789,886
680,2	1784,829
680,6	1767,2
681,1	1755,743
681,5	1738,143
681,9	1721,229
682,4	1714,429
682,8	1700,714
683,3	1681,457
683,7	1675,943
684,1	1664,457
684,6	1653,543
685	1645,057
685,5	1628,457
685,9	1623,457
686,3	1614,886
686,8	1602,829
687,2	1595,6
687,7	1584,971
688,1	1578,914
688,5	1569,343
689	1554,4
689,4	1549,343
689,9	1540,743
690,3	1531,971
690,7	1523,371
691,2	1508,771
691,6	1500,314
692	1487,943
692,5	1468,057
692,9	1457,4
693,4	1445,371
693,8	1433,514
694,2	1421,714
694,7	1417,743
695,1	1408,457
695,6	1398,143
696	1383,857
696,4	1368,657
696,9	1361,086
697,3	1355,686
697,8	1339,657
698,2	1334,514
698,6	1331,286
699,1	1320,914
699,5	1315,914
699,9	1303,4
700,4	1295,829
700,8	1289,029
701,3	1280,914
701,7	1270,6
702,1	1269,8
702,6	1260,943
703	1257,571
703,5	1245,343
703,9	1235,086
704,3	1225,657
704,8	1218,914
705,2	1206,257
705,6	1196,829
706,1	1188,2
706,5	1183,343
707	1175,086
707,4	1170,029
707,8	1163,886
708,3	1152,2
708,7	1149,2
709,2	1140,229
709,6	1135,2
710	1128,829
710,5	1119,657
710,9	1109,171
711,3	1105,371
711,8	1092
712,2	1087,514
712,7	1080
713,1	1068,857
713,5	1056,543
714	1050,857
714,4	1044,743
714,8	1042,771
715,3	1031,486
715,7	1019,114
716,2	1018
716,6	1012,971
717	1003,171
717,5	994,171
717,9	984,057
718,3	977,771
718,8	972,114
719,2	962,286
719,7	958,457
720,1	949,714
720,5	937,8
721	931,8
721,4	927,229
721,8	924,886
722,3	913,6
722,7	898,257
723,2	891,029
723,6	891
724	881,771
724,5	868,857
724,9	853,314
725,3	848,057
725,8	847,343
726,2	839,486
726,7	831,857
727,1	825,086
727,5	820,314
728	818,829
728,4	814,829
728,8	813,743
729,3	813,829
729,7	807,4
730,1	802,686
730,6	798,314
731	799,171
731,5	796,086
731,9	786,571
732,3	781,343
732,8	779,8
733,2	774,771
733,6	770,057
734,1	761,171
734,5	751,429
734,9	748,8
735,4	749,143
735,8	742,771
736,3	740,057
736,7	737,171
737,1	732,371
737,6	729,057
738	723,229
738,4	713,743
738,9	711,2
739,3	703,371
739,7	694,257
740,2	686,886
740,6	685,4
741,1	683,8
741,5	678,657
741,9	668,743
742,4	665,486
742,8	666,486
743,2	663,971
743,7	656,571
744,1	648,2
744,5	643,086
745	638,857
745,4	634,114
745,8	626,314
746,3	624,343
746,7	623,543
747,2	622,457
747,6	617,057
748	614,657
748,5	609,714
748,9	603,657
749,3	601,886
749,8	592,229
750,2	588,514
750,6	586,943
751,1	586,029
751,5	584,514
751,9	584,171
752,4	575,857
752,8	570,943
753,3	560,029
753,7	556,657
754,1	551,571
754,6	545,429
755	542,057
755,4	534,457
755,9	534,514
756,3	530,114
756,7	522,486
757,2	517,229
757,6	514,343
758	509,657
758,5	506,657
758,9	501,314
759,3	501,8
759,8	504,971
760,2	504,486
760,6	505,971
761,1	502,629
761,5	503,771
761,9	500,771
762,4	495,771
762,8	487,514
763,3	481,143
763,7	473,114
764,1	464,6
764,6	458,857
765	454,657
765,4	453,114
765,9	447,114
766,3	442,971
766,7	439,114
767,2	438,743
767,6	434,486
768	434,314
768,5	429,514
768,9	423,2
769,3	419,486
769,8	417,543
770,2	414,457
770,6	410,6
771,1	407,029
771,5	406,429
771,9	409,743
772,4	413,029
772,8	412,143
773,2	413,114
773,7	414,029
774,1	414,257
774,5	415,457
775	409
775,4	402,371
775,8	402,343
776,3	399,2
776,7	397,657
777,1	396,314
777,6	390,2
778	391,686
778,4	389,343
778,9	382,486
779,3	382,914
779,7	377,886
780,2	370,114
780,6	371,314
781	369,714
781,5	367,371
781,9	368,6
782,3	359,514
782,8	352,114
783,2	349,886
783,6	343,086
784,1	340,343
784,5	338,714
784,9	332,657
785,4	332,314
785,8	330
786,2	327,514
786,7	324,143
787,1	321,543
787,5	318,514
788	317,086
788,4	315,457
788,8	313,943
789,3	312,343
789,7	310,057
790,1	310,629
790,6	312,286
791	305,943
791,4	301,314
791,9	301,857
792,3	298,629
792,7	299,657
793,2	290,114
793,6	283,657
794	283,8
794,5	285,314
794,9	283,2
795,3	277,771
795,8	272,429
796,2	272,571
796,6	268,8
797,1	265,829
797,5	260,886
797,9	258,543
798,4	257,229
798,8	254,829
799,2	253,857
799,7	257,314
800,1	254,657
800,5	252,514
801	251,2
801,4	247,229
801,8	247,457
802,2	245,743
802,7	240,257
803,1	239,6
803,5	238,486
804	236,8
804,4	239,714
804,8	238,171
805,3	234,514
805,7	233,314
806,1	234,457
806,6	235,4
807	234,629
807,4	233,629
807,9	234,571
808,3	234,686
808,7	234,2
809,2	229,4
809,6	229,514
810	225,086
810,4	224,029
810,9	216,286
811,3	215,371
811,7	209,943
812,2	210,543
812,6	206,6
813	205,314
813,5	205,114
813,9	204,371
814,3	200,8
814,8	203,886
815,2	193,4
815,6	190,8
816,1	192,143
816,5	185,171
816,9	188,943
817,3	188,029
817,8	189,743
818,2	190,657
818,6	187,143
819,1	184,029
819,5	188,429
819,9	181,286
820,4	179,171
820,8	168,686
821,2	173,971
821,7	173,486
822,1	173,914
822,5	169,943
822,9	172,857
823,4	173
823,8	174,2
824,2	173,2
824,7	177,943
825,1	173,114
825,5	173,457
826	167,543
826,4	167,714
826,8	167,286
827,3	166,571
827,7	161,343
828,1	165,857
828,5	164,943
829	165,314
829,4	167,714
829,8	162,457
830,3	155,657
830,7	152
831,1	145,914
831,6	141,457
832	134,057
832,4	128,314
832,8	132,057
833,3	128,8
833,7	132,086
834,1	133,229
834,6	131,057
835	136,543
835,4	136,057
835,8	132,6
836,3	136,486
836,7	130,486
837,1	127,771
837,6	127,914
838	123,886
838,4	123,886
838,9	128,971
839,3	132,257
839,7	133,571
840,1	131,8
840,6	132,714
841	132,943
841,4	129,314
841,9	124,143
842,3	120,314
842,7	117,257
843,1	121,514
843,6	124,429
844	126,457
844,4	125,971
844,9	126,286
845,3	122,286
845,7	123,343
846,2	119,4
846,6	114,257
847	109,829
847,4	109
847,9	108,143
848,3	110,057
848,7	110,829
849,2	111,4
849,6	111,571
850	112,486
850,4	114,4
850,9	111,029
851,3	110,571
851,7	107,943
852,2	100,743
852,6	100,6
853	100,686
853,4	100,457
853,9	97,257
854,3	92,714
854,7	87,629
855,2	85,914
855,6	82,114
856	78,8
856,4	73,943
856,9	74,143
857,3	76,629
857,7	80,286
858,2	83,8
858,6	87,771
859	90,314
859,4	92,686
859,9	93,743
860,3	92,714
860,7	92,943
861,1	95,829
861,6	93,371
862	92,343
862,4	89,229
862,9	89,143
863,3	83,8
863,7	79,2
864,1	75,971
864,6	73,457
865	66,743
865,4	66,371
865,9	62,486
866,3	68,771
866,7	72
867,1	72,486
867,6	72,343
868	78,6
868,4	76,314
868,8	81,114
869,3	82,829
869,7	75,257
870,1	78,714
870,6	76,057
871	145,4
871,4	143,171
871,8	142,143
872,3	138,171
872,7	143,2
873,1	138,429
873,5	141,6
874	73
874,4	75,229
874,8	70,943
875,3	69,971
875,7	68,771
876,1	68,857
876,5	67,629
877	62,086
877,4	63,4
877,8	65,6
878,2	67,371
878,7	69,343
879,1	67,171
879,5	71,371
879,9	71,714
880,4	66,286
880,8	65,914
881,2	64,486
881,7	64,057
882,1	60,4
882,5	49,2
882,9	49,286
883,4	54,857
883,8	54,114
884,2	51,8
884,6	49,343
885,1	55,971
885,5	65,714
885,9	71,714
886,3	69,171
886,8	65,857
887,2	63,543
887,6	60,457
888	57,4
888,5	54,943
888,9	49,6
889,3	42,743
889,8	43,971
890,2	43,514
890,6	46,4
891	45,343
891,5	44,686
891,9	44,714
892,3	48,4
892,7	51,514
893,2	53
893,6	52,257
894	51,543
894,4	48,943
894,9	48,657
895,3	51,371
895,7	50,229
896,1	49,314
896,6	50,829
897	49,229
897,4	45,743
897,8	42,886
898,3	46,771
898,7	42,143
899,1	42,629
899,5	39,143
900	41,8
900,4	43,743
900,8	45,086
901,2	38,657
901,7	41,229
902,1	42,943
902,5	43,657
902,9	43,457
903,4	46,457
903,8	41,429
904,2	45,486
904,6	44,743
905,1	43,629
905,5	42
905,9	42,914
906,3	39,343
906,8	44,057
907,2	39,029
907,6	39
908	37,057
908,5	36,914
908,9	33,257
909,3	34,857
909,7	31,029
910,2	31,229
910,6	31,514
911	32,714
911,4	31,914
911,9	33,429
912,3	29,629
912,7	31,571
913,1	30,086
913,6	31,257
914	28,857
914,4	31,686
914,8	31,943
915,3	32,114
915,7	31,8
916,1	31,429
916,5	30,029
916,9	27,6
917,4	27,486
917,8	23,371
918,2	19,229
918,6	17,914
919,1	18,114
919,5	20,943
919,9	25,943
920,3	23
920,8	24,743
921,2	35,457
921,6	37,371
922	36,4
922,5	33
922,9	29,257
923,3	31,543
923,7	30,943
924,2	24,057
924,6	24,086
925	23,914
925,4	23,857
925,8	28,257
926,3	31,314
926,7	34,143
927,1	35,857
927,5	37,143
928	40,086
928,4	37,314
928,8	37,6
929,2	36,571
929,7	31,6
930,1	29,371
930,5	23,086
930,9	24,6
931,3	24,229
931,8	19,029
932,2	15,314
932,6	16,057
933	15,114
933,5	14,514
933,9	8,943
934,3	11,857
934,7	14,457
935,2	16,229
935,6	17,429
936	18,914
936,4	23,857
936,8	25,971
937,3	26,571
937,7	27,543
938,1	23
938,5	22,486
939	23,743
939,4	23,971
939,8	26,486
940,2	22,543
940,6	19,686
941,1	28,171
941,5	32,429
941,9	30,686
942,3	26,343
942,8	23,657
943,2	22,743
943,6	22,486
944	15,657
944,4	9,086
944,9	8,914
945,3	12,629
945,7	15,343
946,1	17,086
946,6	18,114
947	21,743
947,4	25,886
947,8	26,114
948,2	20,8
948,7	18,143
949,1	17,8
949,5	15,543
949,9	15,286
950,3	14,229
950,8	17,257
951,2	23
951,6	26,114
952	23,543
952,5	24,486
952,9	20,6
953,3	17,086
953,7	15,914
954,1	12,686
954,6	11,743
955	13,286
955,4	13
955,8	15,657
956,2	17
956,7	20,743
957,1	21
957,5	20,486
957,9	21,429
958,3	25,086
958,8	26,514
959,2	26,571
959,6	24,2
960	24,914
960,5	20,286
960,9	20,257
961,3	17,4
961,7	11,914
962,1	11,286
962,6	5,829
963	6,314
963,4	12,371
963,8	15,657
964,2	12,171
964,7	14,229
965,1	16,257
965,5	17,886
965,9	21
966,3	17,657
966,8	15,6
967,2	18,286
967,6	20,829
968	19,571
968,4	20,543
968,9	22,057
969,3	19,086
969,7	16,857
970,1	19,429
970,5	17,771
971	15,4
971,4	17,486
971,8	15,143
972,2	18,343
972,6	20,514
973,1	20,4
973,5	20,343
973,9	23,714
974,3	17,114
974,7	8,514
975,2	10,657
975,6	5,971
976	9,6
976,4	8,286
976,8	5,086
977,3	9,971
977,7	15,4
978,1	10,886
978,5	14,857
978,9	8,429
979,4	7,743
979,8	7,743
980,2	4,2
980,6	4,514
981	10,886
981,5	9,571
981,9	9,343
982,3	7,771
982,7	9,143
983,1	10,229
983,6	10,8
984	8,257
984,4	12,429
984,8	12,686
985,2	17
985,6	16,229
986,1	15,8
986,5	14,171
986,9	12,429
987,3	9,514
987,7	8,571
988,2	9,257
988,6	8,6
989	4,657
989,4	8,257
989,8	5,343
990,3	7,8
990,7	8,457
991,1	2,6
991,5	1,714
991,9	9,8
992,3	10,429
992,8	17,743
993,2	15,143
993,6	14,571
994	18,143
994,4	21,429
994,9	22,343
995,3	20,343
995,7	16,6
996,1	16,6
996,5	17,543
996,9	15,657
997,4	16,171
997,8	12,6
998,2	12,8
998,6	15,629
999	13,457
999,5	15,457
999,9	18,686
1000,3	20,714
1000,7	21,086
1001,1	23,057
1001,5	15,857
1002	17,457
1002,4	13,114
1002,8	13,086
1003,2	12,943
1003,6	13,971
1004	11,6
1004,5	12,686
1004,9	12,771
1005,3	14,486
1005,7	13,314
1006,1	7,714
1006,6	5,943
1007	2,171
1007,4	3,114
1007,8	-0,257
1008,2	-1,971
1008,6	-4,886
1009,1	-4,143
1009,5	3,943
1009,9	10,229
1010,3	12,486
1010,7	18,714
1011,1	23,4
1011,6	23,343
1012	24,886
1012,4	19,829
1012,8	12,286
1013,2	11,943
1013,6	10,514
1014,1	4,943
1014,5	7,6
1014,9	5,4
1015,3	6,171
1015,7	9,057
1016,1	6,6
1016,6	6,429
1017	11
1017,4	6,571
1017,8	6,914
1018,2	-0,029
1018,6	-0,371
1019,1	0,286
1019,5	1,343
1019,9	1,943
1020,3	6,4
1020,7	9
1021,1	14,457
1021,6	13,8
1022	9,686
1022,4	12,057
1022,8	12,114
1023,2	12,171
1023,6	9,571
1024,1	11,429
1024,5	10,143
1024,9	19,6
1025,3	16,029
1025,7	15,857
1026,1	15,514
1026,6	22,314
1027	20,771
1027,4	23,029
1027,8	18,057
1028,2	19,4
1028,6	19,629
1029	15,943
1029,5	11,429
1029,9	10,029
1030,3	14,143
1030,7	15,857
1031,1	13,286
1031,5	10,057
1032	16,886
1032,4	18,6
1032,8	15,714
1033,2	15,057
1033,6	16,657
1034	18,514
1034,4	25,286
1034,9	19,4
1035,3	21,629
1035,7	24,743
1036,1	27,114
1036,5	23,514
1036,9	21,571
1037,4	16,486
1037,8	16,457
1038,2	6,943
1038,6	3,8
1039	-5,514
1039,4	-3,343
1039,8	-5,2
1040,3	-2,257
1040,7	0,229
1041,1	4,486
1041,5	3,486
1041,9	6,143
1042,3	5,4
1042,7	5,314
1043,2	1,8
1043,6	4,943
1044	5,371
1044,4	8,743
1044,8	7,457
1045,2	8,343
1045,6	16,343
1046,1	19,143
1046,5	18
1046,9	18,629
1047,3	14,771
1047,7	16
1048,1	13,829
1048,5	9,029
1049	13,2
1049,4	12,514
1049,8	11,229
1050,2	15,629
1050,6	17,486
1051	18,657
1051,4	16,8
1051,9	13
1052,3	9,086
1052,7	14,343
1053,1	14,829
1053,5	14,6
1053,9	12,371
1054,3	12,057
1054,8	14,571
1055,2	14,4
1055,6	12,886
1056	12,457
1056,4	12,486
1056,8	15,343
1057,2	21,971
1057,6	16,571
1058,1	17,514
1058,5	13,029
1058,9	12,971
1059,3	16,171
1059,7	10,943
1060,1	7,057
1060,5	2,829
1061	4,714
1061,4	9,2
1061,8	5,371
1062,2	3,971
1062,6	4,629
1063	2,743
1063,4	9,029
1063,8	7,229
1064,3	4,571
1064,7	6,229
1065,1	7
1065,5	13,371
1065,9	14,6
1066,3	11,6
1066,7	12,8
1067,1	11,829
1067,6	14,314
1068	11,771
1068,4	11,029
1068,8	9,943
1069,2	7,486
1069,6	9,829
1070	11,943
1070,4	12,686
1070,9	11,2
1071,3	8,457
1071,7	13,371
1072,1	20,657
1072,5	23,514
1072,9	22,886
1073,3	21,629
1073,7	24,543
1074,2	26,657
1074,6	22,371
1075	15,171
1075,4	12,371
1075,8	12,514
1076,2	9,771
1076,6	7,886
1077	4,057
1077,5	4,4
1077,9	9,4
1078,3	7,857
1078,7	7
1079,1	8,943
1079,5	7,029
1079,9	14,943
1080,3	15,057
1080,7	16,714
1081,2	18,057
1081,6	24,229
1082	25,886
1082,4	26,457
1082,8	18,371
1083,2	13,886
1083,6	12,171
1084	7,857
1084,5	1,2
1084,9	-1
1085,3	0,714
1085,7	-1,429
1086,1	-3
1086,5	-1,543
1086,9	3
1087,3	3,6
1087,7	7,914
1088,2	6,314
1088,6	8,114
1089	10,371
1089,4	10,829
1089,8	11,057
1090,2	11,114
1090,6	10,257
1091	17,914
1091,4	19,686
1091,9	24,371
1092,3	21,943
1092,7	17,8
1093,1	16,229
1093,5	9,943
1093,9	5,686
1094,3	10,057
1094,7	7,029
1095,1	3,943
1095,5	8,429
1096	6,029
1096,4	11,8
1096,8	10,171
1097,2	8,571
1097,6	8,2
1098	11,229
1098,4	10,657
1098,8	13,543
1099,2	11,114
1099,6	11,314
1100,1	8,629
1100,5	9,543
1100,9	8,371
1101,3	7,686
1101,7	11,257
1102,1	12,286
1102,5	12,629
1102,9	8,086
1103,3	6,4
1103,7	4,257
1104,2	7,629
1104,6	7,514
1105	6,6
1105,4	3,2
1105,8	7,714
1106,2	8,486
1106,6	8,486
1107	2,686
1107,4	-0,533
1107,8	-2,36
1108,3	0,1
