Data from Subt2_234.txt Node
Date: Sat Aug 26 18:54:28 MSK 2023
User: vat
Spectrometer: MAYP114033
Trigger mode: 0
Integration Time (sec): 1,000000E0
Scans to average: 5
Electric dark correction enabled: true
Nonlinearity correction enabled: false
Boxcar width: 3
XAxis mode: Wavelengths
Number of Pixels in Spectrum: 2068
>>>>>Begin Spectral Data<<<<<
199,4	-0,267
199,9	-0,367
200,4	-0,7
200,8	2,062
201,3	-0,624
201,8	1,605
202,2	-1,167
202,7	2,805
203,2	2,862
203,6	2,719
204,1	-0,452
204,6	2,833
205	3,919
205,5	6,748
206	3,662
206,4	5,605
206,9	5,69
207,4	6,633
207,8	7,205
208,3	5,662
208,8	6,919
209,2	7,89
209,7	9,605
210,2	13,062
210,6	13,976
211,1	13,748
211,5	12,805
212	12,062
212,5	10,662
212,9	3,719
213,4	2,148
213,9	0,69
214,3	1,119
214,8	2,948
215,3	-0,767
215,7	-1,681
216,2	1,776
216,7	2,176
217,1	0,09
217,6	3,29
218,1	3,462
218,5	6,976
219	3,348
219,5	4,405
219,9	1,805
220,4	10,89
220,9	6,976
221,3	3,805
221,8	4,348
222,3	7,69
222,7	9,919
223,2	13,119
223,6	7,462
224,1	7,633
224,6	9,262
225	8,89
225,5	9,033
226	4,748
226,4	1,233
226,9	0,348
227,4	-0,795
227,8	-3,367
228,3	-3,052
228,8	-2,367
229,2	0,576
229,7	2,605
230,2	5,433
230,6	6,919
231,1	16,348
231,5	18,348
232	21,89
232,5	23,205
232,9	24,49
233,4	23,148
233,9	22,89
234,3	17,69
234,8	16,805
235,3	13,233
235,7	13,262
236,2	13,948
236,7	10,319
237,1	12,09
237,6	8,376
238,1	8,233
238,5	8,833
239	7,862
239,4	9,376
239,9	8,662
240,4	5,376
240,8	8,662
241,3	6,348
241,8	5,119
242,2	5,548
242,7	2,176
243,2	4,69
243,6	3,805
244,1	3,405
244,6	3,633
245	3,662
245,5	5,462
245,9	4,262
246,4	7,519
246,9	12,09
247,3	13,548
247,8	13,69
248,3	21,062
248,7	20,348
249,2	22,233
249,7	18,005
250,1	16,833
250,6	17,233
251	21,833
251,5	17,605
252	14,605
252,4	15,433
252,9	15,148
253,4	14,948
253,8	9,719
254,3	5,633
254,8	5,662
255,2	3,605
255,7	0,662
256,1	3,462
256,6	9,119
257,1	9,005
257,5	5,462
258	2,633
258,5	6,976
258,9	12,862
259,4	9,29
259,9	7,119
260,3	6,519
260,8	5,89
261,2	6,776
261,7	6,005
262,2	-3,224
262,6	-1,995
263,1	-3,424
263,6	3,805
264	11,462
264,5	16,176
264,9	13,233
265,4	20,09
265,9	21,433
266,3	20,548
266,8	17,69
267,3	16,348
267,7	9,376
268,2	11,833
268,7	13,776
269,1	14,805
269,6	10,776
270	14,033
270,5	11,09
271	12,433
271,4	14,633
271,9	5,09
272,4	4,405
272,8	8,405
273,3	-0,081
273,7	-0,224
274,2	3,348
274,7	1,49
275,1	5,805
275,6	6,433
276,1	5,433
276,5	12,119
277	11,49
277,4	9,49
277,9	8,976
278,4	9,605
278,8	13,005
279,3	14,662
279,8	15,148
280,2	20,833
280,7	20,319
281,1	14,233
281,6	14,033
282,1	12,69
282,5	10,805
283	10,776
283,4	9,405
283,9	12,062
284,4	21,976
284,8	19,919
285,3	16,805
285,8	18,405
286,2	16,89
286,7	9,233
287,1	1,833
287,6	-2,852
288,1	-2,595
288,5	2,776
289	-1,081
289,5	-1,081
289,9	2,919
290,4	12,033
290,8	15,348
291,3	18,29
291,8	15,005
292,2	19,033
292,7	21,148
293,1	22,405
293,6	22,233
294,1	20,29
294,5	23,805
295	22,919
295,5	19,433
295,9	19,719
296,4	20,319
296,8	20,433
297,3	21,119
297,8	13,748
298,2	6,548
298,7	12,633
299,1	10,033
299,6	7,376
300,1	5,49
300,5	5,776
301	14,662
301,5	22,176
301,9	12,29
302,4	12,548
302,8	13,919
303,3	11,119
303,8	6,148
304,2	-1,338
304,7	-2,081
305,1	0,233
305,6	0,148
306,1	5,462
306,5	7,662
307	13,462
307,4	17,805
307,9	21,748
308,4	21,005
308,8	16,89
309,3	14,033
309,8	15,29
310,2	10,948
310,7	6,919
311,1	-0,767
311,6	7,69
312,1	9,519
312,5	11,005
313	7,519
313,4	10,919
313,9	14,233
314,4	15,862
314,8	10,319
315,3	10,548
315,7	2,462
316,2	0,033
316,7	-1,938
317,1	-2,938
317,6	-0,395
318	4,719
318,5	6,29
319	11,433
319,4	17,262
319,9	21,148
320,3	25,548
320,8	21,348
321,3	17,633
321,7	18,69
322,2	14,748
322,6	13,29
323,1	12,033
323,6	6,319
324	6,376
324,5	6,205
324,9	4,976
325,4	6,119
325,9	6,148
326,3	4,833
326,8	7,576
327,2	11,633
327,7	9,433
328,2	10,062
328,6	18,005
329,1	12,033
329,5	12,748
330	15,233
330,5	15,09
330,9	20,233
331,4	17,005
331,8	8,976
332,3	20,348
332,8	18,662
333,2	11,09
333,7	11,433
334,1	11,719
334,6	11,319
335,1	11,633
335,5	5,69
336	7,29
336,4	9,519
336,9	10,633
337,4	8,948
337,8	12,948
338,3	16,033
338,7	16,033
339,2	12,748
339,7	16,033
340,1	11,69
340,6	7,805
341	7,262
341,5	7,89
342	7,548
342,4	12,29
342,9	9,09
343,3	14,833
343,8	15,519
344,2	15,548
344,7	19,462
345,2	17,576
345,6	13,405
346,1	13,262
346,5	7,719
347	6,633
347,5	6,205
347,9	4,776
348,4	6,805
348,8	7,662
349,3	12,062
349,8	14,719
350,2	19,919
350,7	21,833
351,1	17,119
351,6	19,062
352	25,89
352,5	25,548
353	33,148
353,4	35,319
353,9	42,833
354,3	56,633
354,8	61,376
355,3	74,176
355,7	88,605
356,2	104,805
356,6	127,548
357,1	148,862
357,5	169,319
358	210,233
358,5	239,49
358,9	279,719
359,4	321,29
359,8	366,748
360,3	423,148
360,8	480,833
361,2	543,976
361,7	616,805
362,1	696,176
362,6	781,462
363	872,376
363,5	964,462
364	1074,348
364,4	1180,376
364,9	1288,176
365,3	1396,319
365,8	1495,548
366,3	1590,833
366,7	1674,605
367,2	1746,862
367,6	1803,319
368,1	1849,033
368,5	1872,605
369	1888,633
369,5	1890,89
369,9	1879,662
370,4	1847,148
370,8	1802,69
371,3	1746,776
371,7	1686,519
372,2	1613,433
372,7	1540,519
373,1	1464,519
373,6	1378,519
374	1299,69
374,5	1216,062
374,9	1134,119
375,4	1055,319
375,9	971,833
376,3	889,29
376,8	819,119
377,2	748,262
377,7	683,205
378,2	624,376
378,6	570,976
379,1	520,776
379,5	480,69
380	447,976
380,4	412,748
380,9	382,319
381,4	346,719
381,8	321,633
382,3	298,405
382,7	279,176
383,2	258,176
383,6	239,976
384,1	222,662
384,6	214,605
385	198,262
385,5	186,462
385,9	167,748
386,4	151,948
386,8	139,948
387,3	129,776
387,7	121,005
388,2	114,919
388,7	107,29
389,1	102,119
389,6	96,833
390	97,748
390,5	93,805
390,9	88,748
391,4	84,348
391,9	79,062
392,3	77,519
392,8	71,719
393,2	61,662
393,7	56,49
394,1	49,262
394,6	43,176
395,1	42,233
395,5	36,805
396	38,205
396,4	39,69
396,9	40,205
397,3	41,662
397,8	42,576
398,2	41,148
398,7	43,062
399,2	43,919
399,6	40,748
400,1	38,433
400,5	36,776
401	38,805
401,4	36,005
401,9	37,005
402,4	33,976
402,8	31,005
403,3	36,262
403,7	35,576
404,2	35,633
404,6	39,062
405,1	38,262
405,5	34,862
406	39,062
406,5	31,29
406,9	35,033
407,4	30,662
407,8	30,719
408,3	32,69
408,7	35,69
409,2	40,49
409,6	48,89
410,1	48,89
410,6	55,69
411	56,119
411,5	57,119
411,9	62,033
412,4	60,433
412,8	60,548
413,3	65,176
413,7	62,833
414,2	64,062
414,7	67,805
415,1	70,405
415,6	73,719
416	75,319
416,5	76,033
416,9	79,719
417,4	82,005
417,8	88,233
418,3	91,976
418,8	96,948
419,2	102,662
419,7	101,576
420,1	105,433
420,6	109,576
421	103,148
421,5	103,205
421,9	103,062
422,4	101,319
422,8	106,405
423,3	102,233
423,8	101,176
424,2	103,548
424,7	104,605
425,1	104,519
425,6	105,405
426	107,319
426,5	113,119
426,9	115,633
427,4	110,605
427,9	106,005
428,3	107,319
428,8	106,262
429,2	102,09
429,7	100,548
430,1	102,262
430,6	108,005
431	112,119
431,5	110,976
431,9	109,69
432,4	113,319
432,8	118,576
433,3	116,119
433,8	119,09
434,2	120,862
434,7	127,033
435,1	133,948
435,6	133,376
436	135,062
436,5	143,433
436,9	143,033
437,4	145,919
437,8	146,805
438,3	151,548
438,8	162,033
439,2	168,262
439,7	176,005
440,1	187,49
440,6	204,319
441	213,405
441,5	223,405
441,9	233,233
442,4	241,376
442,8	251,205
443,3	264,433
443,7	272,09
444,2	283,805
444,7	295,319
445,1	309,69
445,6	323,833
446	332,776
446,5	339,662
446,9	347,119
447,4	358,633
447,8	371,919
448,3	382,662
448,7	391,633
449,2	409,176
449,6	426,919
450,1	445,29
450,6	466,519
451	484,748
451,5	500,29
451,9	523,148
452,4	545,748
452,8	569,605
453,3	590,005
453,7	607,605
454,2	629,805
454,6	652,976
455,1	675,605
455,5	689,462
456	717,119
456,4	737,633
456,9	767,233
457,3	786,005
457,8	805,748
458,3	837,748
458,7	866,662
459,2	887,976
459,6	916,176
460,1	936,633
460,5	963,576
461	1001,205
461,4	1017,776
461,9	1046,462
462,3	1078,119
462,8	1109,033
463,2	1139,605
463,7	1172,776
464,1	1202,633
464,6	1244,433
465	1280,719
465,5	1309,576
466	1349,062
466,4	1384,29
466,9	1423,605
467,3	1453,376
467,8	1485,462
468,2	1514,89
468,7	1549,662
469,1	1581,719
469,6	1614,605
470	1649,09
470,5	1690,205
470,9	1717,862
471,4	1751,376
471,8	1782,662
472,3	1815,348
472,7	1849,776
473,2	1880,09
473,6	1912,49
474,1	1952,49
474,5	1990,462
475	2025,319
475,4	2060,062
475,9	2098,805
476,4	2137,548
476,8	2172,519
477,3	2207,176
477,7	2244,319
478,2	2283,748
478,6	2311,948
479,1	2340,319
479,5	2366,519
480	2399,605
480,4	2431,29
480,9	2459,348
481,3	2484,69
481,8	2516,005
482,2	2541,919
482,7	2575,633
483,1	2600,262
483,6	2625,919
484	2652,719
484,5	2682,49
484,9	2713,462
485,4	2745,805
485,8	2768,976
486,3	2795,119
486,7	2823,805
487,2	2851,719
487,6	2871,89
488,1	2889,205
488,5	2908,748
489	2935,033
489,4	2955,233
489,9	2972,29
490,4	2984,89
490,8	3006,405
491,3	3026,519
491,7	3046,433
492,2	3064,49
492,6	3077,005
493,1	3097,262
493,5	3110,976
494	3123,862
494,4	3140,348
494,9	3153,205
495,3	3167,233
495,8	3185,233
496,2	3192,233
496,7	3209,805
497,1	3230,262
497,6	3243,69
498	3256,405
498,5	3267,433
498,9	3277,205
499,4	3287,89
499,8	3303,748
500,3	3309,69
500,7	3311,576
501,2	3319,976
501,6	3324,948
502,1	3336,919
502,5	3349,319
503	3355,719
503,4	3362,719
503,9	3374,69
504,3	3391,005
504,8	3396,89
505,2	3399,49
505,7	3410,776
506,1	3415,719
506,6	3420,033
507	3429,948
507,5	3432,662
507,9	3440,948
508,4	3447,862
508,8	3443,405
509,3	3444,662
509,7	3449,548
510,2	3459,576
510,6	3457,748
511,1	3461,919
511,5	3464,948
512	3474,776
512,4	3485,319
512,9	3494,49
513,3	3503,633
513,8	3511,348
514,2	3519,205
514,7	3529,519
515,1	3533,062
515,6	3536,29
516	3535,605
516,5	3536,233
516,9	3545,376
517,4	3550,405
517,8	3554,919
518,3	3567,148
518,7	3573,49
519,2	3580,948
519,6	3581,548
520,1	3582,176
520,5	3586,119
521	3591,376
521,4	3594,719
521,9	3599,433
522,3	3605,605
522,8	3612,319
523,2	3623,376
523,7	3628,462
524,1	3630,062
524,6	3637,148
525	3646,176
525,5	3654,09
525,9	3662,548
526,4	3665,462
526,8	3674,119
527,3	3686,319
527,7	3694,919
528,2	3703,376
528,6	3707,348
529,1	3712,462
529,5	3716,662
530	3722,319
530,4	3727,119
530,9	3728,376
531,3	3731,205
531,8	3742,548
532,2	3751,29
532,6	3760,005
533,1	3766,262
533,5	3771,462
534	3777,405
534,4	3784,319
534,9	3789,49
535,3	3794,319
535,8	3802,633
536,2	3811,462
536,7	3821,148
537,1	3830,776
537,6	3840,548
538	3851,005
538,5	3863,148
538,9	3868,49
539,4	3883,062
539,8	3898,69
540,3	3905,348
540,7	3918,519
541,2	3924,376
541,6	3930,29
542,1	3940,748
542,5	3946,576
543	3944,919
543,4	3954,29
543,9	3962,89
544,3	3969,776
544,8	3974,976
545,2	3984,69
545,7	3995,548
546,1	4015,376
546,5	4028,005
547	4032,662
547,4	4047,376
547,9	4054,348
548,3	4065,376
548,8	4069,433
549,2	4071,205
549,7	4076,833
550,1	4083,233
550,6	4090,148
551	4096,576
551,5	4099,462
551,9	4102,119
552,4	4108,519
552,8	4119,49
553,3	4125,662
553,7	4130,005
554,2	4147,805
554,6	4158,89
555,1	4171,862
555,5	4176,89
555,9	4183,576
556,4	4192,348
556,8	4202,519
557,3	4203,976
557,7	4211,833
558,2	4213,633
558,6	4227,833
559,1	4231,462
559,5	4235,233
560	4237,119
560,4	4245,633
560,9	4253,119
561,3	4266,719
561,8	4264,319
562,2	4266,719
562,7	4276,633
563,1	4281,433
563,6	4278,548
564	4282,69
564,4	4278,405
564,9	4288,319
565,3	4294,719
565,8	4296,862
566,2	4302,29
566,7	4312,09
567,1	4311,748
567,6	4324,233
568	4321,633
568,5	4324,833
568,9	4326,919
569,4	4330,148
569,8	4329,862
570,3	4331,89
570,7	4330,148
571,1	4333,233
571,6	4332,033
572	4335,776
572,5	4340,119
572,9	4343,405
573,4	4340,09
573,8	4344,405
574,3	4336,605
574,7	4338,09
575,2	4333,605
575,6	4322,862
576,1	4323,719
576,5	4327,176
576,9	4314,976
577,4	4320,49
577,8	4313,462
578,3	4305,719
578,7	4309,433
579,2	4308,805
579,6	4302,605
580,1	4292,319
580,5	4292,805
581	4299,948
581,4	4299,176
581,9	4291,29
582,3	4279,49
582,7	4276,262
583,2	4281,776
583,6	4274,833
584,1	4258,719
584,5	4257,805
585	4256,776
585,4	4250,405
585,9	4248,433
586,3	4241,662
586,8	4239,119
587,2	4232,376
587,6	4230,605
588,1	4223,519
588,5	4219,69
589	4210,833
589,4	4203,976
589,9	4182,119
590,3	4178,862
590,8	4162,919
591,2	4152,148
591,7	4147,519
592,1	4139,119
592,5	4139,005
593	4140,662
593,4	4135,69
593,9	4128,976
594,3	4125,662
594,8	4115,062
595,2	4110,233
595,7	4097,462
596,1	4089,805
596,6	4087,748
597	4079,376
597,4	4069,69
597,9	4065,062
598,3	4060,205
598,8	4048,862
599,2	4046,49
599,7	4035,833
600,1	4029,776
600,6	4022,176
601	4013,633
601,4	4004,748
601,9	4002,176
602,3	3981,69
602,8	3969,862
603,2	3960,862
603,7	3951,462
604,1	3938,719
604,6	3923,09
605	3904,576
605,4	3907,062
605,9	3896,319
606,3	3886,433
606,8	3871,433
607,2	3861,662
607,7	3845,376
608,1	3844,605
608,6	3829,205
609	3824,548
609,4	3817,29
609,9	3804,548
610,3	3794,433
610,8	3792,033
611,2	3771,319
611,7	3756,519
612,1	3732,69
612,6	3721,662
613	3711,719
613,4	3696,805
613,9	3676,576
614,3	3664,376
614,8	3655,062
615,2	3643,005
615,7	3629,433
616,1	3614,119
616,6	3597,033
617	3588,805
617,4	3581,233
617,9	3568,09
618,3	3561,49
618,8	3538,29
619,2	3526,662
619,7	3517,519
620,1	3499,348
620,5	3485,919
621	3472,376
621,4	3458,576
621,9	3446,89
622,3	3432,833
622,8	3410,976
623,2	3398,776
623,6	3382,262
624,1	3360,805
624,5	3346,919
625	3334,005
625,4	3319,205
625,9	3310,033
626,3	3295,176
626,8	3276,49
627,2	3267,062
627,6	3241,576
628,1	3219,776
628,5	3210,49
629	3195,776
629,4	3180,005
629,9	3166,605
630,3	3140,09
630,7	3123,633
631,2	3113,833
631,6	3090,033
632,1	3069,176
632,5	3053,262
633	3036,233
633,4	3026,862
633,8	3016,862
634,3	2998,319
634,7	2982,433
635,2	2966,519
635,6	2951,262
636,1	2936,89
636,5	2919,862
636,9	2902,033
637,4	2887,662
637,8	2870,462
638,3	2854,376
638,7	2838,348
639,2	2820,948
639,6	2806,262
640	2785,433
640,5	2772,033
640,9	2762,49
641,4	2752,662
641,8	2739,29
642,2	2724,319
642,7	2715,833
643,1	2714,376
643,6	2701,662
644	2691,29
644,5	2680,833
644,9	2667,662
645,3	2654,833
645,8	2633,805
646,2	2616,776
646,7	2601,433
647,1	2586,348
647,6	2575,605
648	2565,005
648,4	2553,519
648,9	2552,662
649,3	2540,005
649,8	2528,548
650,2	2519,976
650,6	2502,09
651,1	2487,405
651,5	2484,376
652	2463,862
652,4	2445,662
652,9	2434,776
653,3	2416,319
653,7	2401,148
654,2	2386,29
654,6	2363,919
655,1	2354,976
655,5	2350,062
655,9	2335,205
656,4	2320,005
656,8	2307,005
657,3	2292,69
657,7	2280,89
658,2	2263,633
658,6	2245,805
659	2235,748
659,5	2217,176
659,9	2208,69
660,4	2194,976
660,8	2178,205
661,2	2159,605
661,7	2149,262
662,1	2133,233
662,6	2125,405
663	2111,319
663,4	2100,948
663,9	2088,205
664,3	2079,262
664,8	2059,662
665,2	2046,69
665,6	2031,776
666,1	2019,09
666,5	2004,519
667	1996,69
667,4	1982,833
667,9	1969,605
668,3	1951,148
668,7	1936,633
669,2	1927,605
669,6	1914,662
670,1	1898,605
670,5	1884,29
670,9	1875,776
671,4	1867,948
671,8	1861,033
672,3	1847,376
672,7	1837,033
673,1	1820,862
673,6	1809,662
674	1804,005
674,5	1794,805
674,9	1778,49
675,3	1758,405
675,8	1747,319
676,2	1741,662
676,7	1734,69
677,1	1717,319
677,5	1701,89
678	1697,633
678,4	1694,976
678,9	1684,119
679,3	1672,262
679,7	1660,033
680,2	1642,262
680,6	1629,576
681,1	1615,805
681,5	1603,719
681,9	1591,833
682,4	1578,062
682,8	1567,833
683,3	1569,29
683,7	1561,719
684,1	1552,005
684,6	1540,919
685	1532,719
685,5	1520,233
685,9	1507,062
686,3	1487,948
686,8	1477,805
687,2	1466,233
687,7	1454,919
688,1	1439,462
688,5	1432,719
689	1425,719
689,4	1419,29
689,9	1409,519
690,3	1396,976
690,7	1388,49
691,2	1382,262
691,6	1371,976
692	1360,348
692,5	1356,69
692,9	1348,862
693,4	1343,119
693,8	1330,576
694,2	1319,119
694,7	1303,948
695,1	1297,033
695,6	1283,548
696	1277,548
696,4	1269,919
696,9	1259,405
697,3	1247,719
697,8	1245,29
698,2	1232,948
698,6	1225,576
699,1	1211,976
699,5	1207,776
699,9	1201,233
700,4	1197,233
700,8	1191,633
701,3	1187,09
701,7	1177,233
702,1	1169,033
702,6	1155,805
703	1148,348
703,5	1142,376
703,9	1130,29
704,3	1123,233
704,8	1114,433
705,2	1107,862
705,6	1101,776
706,1	1090,205
706,5	1078,49
707	1077,29
707,4	1072,833
707,8	1061,976
708,3	1057,576
708,7	1051,405
709,2	1052,462
709,6	1052,062
710	1048,833
710,5	1035,776
710,9	1036,148
711,3	1028,548
711,8	1021,776
712,2	1014,576
712,7	1001,519
713,1	987,462
713,5	984,319
714	975,919
714,4	963,805
714,8	954,462
715,3	945,062
715,7	943,89
716,2	937,433
716,6	931,548
717	926,148
717,5	922,062
717,9	918,033
718,3	910,319
718,8	903,033
719,2	893,976
719,7	886,319
720,1	879,233
720,5	875,719
721	866,433
721,4	855,462
721,8	850,548
722,3	846,348
722,7	841,805
723,2	831,833
723,6	819,062
724	811,776
724,5	810,033
724,9	797,948
725,3	793,262
725,8	787,748
726,2	779,633
726,7	778,319
727,1	770,119
727,5	767,976
728	762,89
728,4	752,233
728,8	739,833
729,3	737,919
729,7	730,319
730,1	729,033
730,6	721,405
731	716,976
731,5	716,09
731,9	712,176
732,3	706,548
732,8	705,233
733,2	704,948
733,6	701,805
734,1	694,548
734,5	686,862
734,9	684,976
735,4	684,033
735,8	673,09
736,3	669,548
736,7	662,976
737,1	665,09
737,6	666,89
738	665,633
738,4	657,376
738,9	659,776
739,3	651,119
739,7	649,09
740,2	639,148
740,6	634,976
741,1	630,748
741,5	627,633
741,9	622,805
742,4	619,633
742,8	613,176
743,2	613,49
743,7	603,005
744,1	592,862
744,5	585,462
745	575,233
745,4	567,348
745,8	565,176
746,3	557,919
746,7	551,405
747,2	554,862
747,6	557,433
748	559,376
748,5	563,405
748,9	557,976
749,3	556,576
749,8	558,748
750,2	551,919
750,6	545,119
751,1	543,862
751,5	539,005
751,9	538,205
752,4	536,576
752,8	535,205
753,3	529,233
753,7	529,662
754,1	517,976
754,6	508,319
755	496,919
755,4	488,062
755,9	484,519
756,3	483,833
756,7	477,862
757,2	481,033
757,6	481,148
758	480,719
758,5	478,976
758,9	473,948
759,3	470,205
759,8	464,719
760,2	464,69
760,6	458,519
761,1	458,833
761,5	456,29
761,9	449,948
762,4	449,462
762,8	450,148
763,3	442,805
763,7	443,69
764,1	442,176
764,6	440,233
765	445,548
765,4	443,176
765,9	441,662
766,3	442,862
766,7	437,633
767,2	434,262
767,6	435,376
768	426,976
768,5	420,319
768,9	415,519
769,3	407,062
769,8	404,49
770,2	401,319
770,6	393,805
771,1	397,69
771,5	396,805
771,9	391,948
772,4	388,605
772,8	384,176
773,2	382,862
773,7	382,205
774,1	372,805
774,5	364,662
775	365,29
775,4	365,519
775,8	363,633
776,3	360,633
776,7	355,748
777,1	352,176
777,6	353,405
778	352,262
778,4	349,833
778,9	346,119
779,3	343,005
779,7	342,09
780,2	343,376
780,6	343,833
781	337,433
781,5	332,633
781,9	335,405
782,3	330,719
782,8	325,89
783,2	321,976
783,6	319,233
784,1	316,805
784,5	313,833
784,9	307,89
785,4	311,262
785,8	313,033
786,2	311,348
786,7	307,776
787,1	304,748
787,5	306,805
788	303,519
788,4	299,119
788,8	293,576
789,3	290,519
789,7	289,919
790,1	287,662
790,6	285,062
791	280,519
791,4	276,662
791,9	277,605
792,3	270,09
792,7	271,776
793,2	268,69
793,6	266,548
794	271,233
794,5	268,262
794,9	266,176
795,3	270,148
795,8	264,519
796,2	264,348
796,6	261,89
797,1	258,062
797,5	255,49
797,9	250,919
798,4	245,805
798,8	241,005
799,2	237,862
799,7	238,005
800,1	234,776
800,5	237,148
801	239,062
801,4	238,948
801,8	233,548
802,2	236,719
802,7	230,776
803,1	229,262
803,5	224,605
804	216,605
804,4	214,976
804,8	216,49
805,3	215,462
805,7	215,376
806,1	211,576
806,6	213,09
807	215,776
807,4	215,605
807,9	213,805
808,3	210,29
808,7	206,148
809,2	208,776
809,6	205,662
810	201,148
810,4	200,005
810,9	199,462
811,3	199,462
811,7	199,576
812,2	203,976
812,6	200,433
813	209,49
813,5	208,805
813,9	209,605
814,3	200,576
814,8	197,976
815,2	190,69
815,6	187,748
816,1	181,433
816,5	177,119
816,9	174,262
817,3	175,09
817,8	179,405
818,2	175,633
818,6	172,376
819,1	170,662
819,5	170,09
819,9	169,748
820,4	169,605
820,8	161,748
821,2	156,233
821,7	160,748
822,1	161,348
822,5	167,519
822,9	165,719
823,4	164,376
823,8	165,719
824,2	172,519
824,7	165,262
825,1	156,576
825,5	147,519
826	142,033
826,4	141,376
826,8	138,033
827,3	135,805
827,7	137,233
828,1	141,948
828,5	139,348
829	139,005
829,4	141,405
829,8	134,719
830,3	131,976
830,7	126,548
831,1	122,49
831,6	121,976
832	125,033
832,4	121,948
832,8	129,49
833,3	127,405
833,7	128,548
834,1	127,89
834,6	124,176
835	123,633
835,4	122,348
835,8	120,319
836,3	117,633
836,7	120,605
837,1	116,776
837,6	122,69
838	118,205
838,4	116,233
838,9	113,976
839,3	113,548
839,7	115,776
840,1	117,69
840,6	117,462
841	118,948
841,4	121,605
841,9	122,776
842,3	120,548
842,7	115,548
843,1	112,262
843,6	110,776
844	107,833
844,4	106,69
844,9	105,29
845,3	108,119
845,7	105,748
846,2	107,205
846,6	100,719
847	101,69
847,4	101,548
847,9	105,919
848,3	104,148
848,7	107,176
849,2	105,176
849,6	102,519
850	106,09
850,4	101,69
850,9	99,433
851,3	99,605
851,7	99,062
852,2	98,605
852,6	104,433
853	101,862
853,4	99,976
853,9	96,776
854,3	98,662
854,7	97,719
855,2	93,49
855,6	91,719
856	86,062
856,4	85,805
856,9	83,29
857,3	81,49
857,7	83,119
858,2	90,148
858,6	85,49
859	89,348
859,4	89,033
859,9	87,576
860,3	84,29
860,7	81,49
861,1	77,233
861,6	78,89
862	79,29
862,4	77,719
862,9	81,062
863,3	82,919
863,7	79,69
864,1	80,748
864,6	82,462
865	77,862
865,4	81,062
865,9	81,148
866,3	75,49
866,7	74,719
867,1	70,119
867,6	68,833
868	67,805
868,4	65,262
868,8	62,319
869,3	63,319
869,7	67,662
870,1	68,548
870,6	67,005
871	15,176
871,4	18,605
871,8	15,433
872,3	17,548
872,7	13,862
873,1	12,49
873,5	11,005
874	64,119
874,4	57,805
874,8	57,548
875,3	56,49
875,7	54,719
876,1	56,405
876,5	57,09
877	52,576
877,4	48,69
877,8	48,405
878,2	49,033
878,7	52,805
879,1	50,148
879,5	51,976
879,9	55,548
880,4	59,205
880,8	63,148
881,2	59,005
881,7	55,948
882,1	58,348
882,5	56,805
882,9	55,719
883,4	55,462
883,8	54,89
884,2	58,49
884,6	55,119
885,1	59,119
885,5	58,005
885,9	58,319
886,3	62,719
886,8	62,376
887,2	59,09
887,6	58,948
888	55,062
888,5	52,148
888,9	46,633
889,3	41,062
889,8	36,548
890,2	37,605
890,6	35,262
891	35,119
891,5	38,748
891,9	43,662
892,3	47,005
892,7	47,805
893,2	46,948
893,6	52,719
894	54,348
894,4	52,919
894,9	51,148
895,3	48,262
895,7	49,433
896,1	48,833
896,6	45,062
897	44,49
897,4	48,233
897,8	48,519
898,3	47,576
898,7	43,548
899,1	43,233
899,5	42,148
900	31,148
900,4	26,176
900,8	24,776
901,2	22,262
901,7	24,033
902,1	27,119
902,5	30,348
902,9	37,605
903,4	38,605
903,8	39,605
904,2	42,376
904,6	42,262
905,1	40,033
905,5	39,919
905,9	37,833
906,3	40,519
906,8	41,519
907,2	38,462
907,6	40,062
908	40,605
908,5	38,462
908,9	37,548
909,3	30,748
909,7	26,719
910,2	25,833
910,6	28,805
911	22,833
911,4	24,49
911,9	21,29
912,3	25,548
912,7	30,862
913,1	32,976
913,6	27,776
914	33,662
914,4	30,548
914,8	36,348
915,3	35,09
915,7	35,005
916,1	37,805
916,5	36,919
916,9	38,033
917,4	39,062
917,8	40,576
918,2	35,405
918,6	26,29
919,1	20,433
919,5	22,89
919,9	19,462
920,3	15,833
920,8	13,662
921,2	18,948
921,6	20,49
922	23,119
922,5	22,119
922,9	23,09
923,3	24,519
923,7	26,719
924,2	23,748
924,6	29,748
925	34,176
925,4	32,919
925,8	30,462
926,3	33,89
926,7	28,462
927,1	26,433
927,5	24,09
928	15,805
928,4	12,862
928,8	12,148
929,2	10,119
929,7	11,176
930,1	15,405
930,5	13,748
930,9	20,119
931,3	25,09
931,8	24,49
932,2	24,719
932,6	22,29
933	17,576
933,5	17,719
933,9	17,776
934,3	17,319
934,7	16,348
935,2	16,062
935,6	20,719
936	25,233
936,4	26,033
936,8	25,062
937,3	19,348
937,7	23,319
938,1	23,148
938,5	15,948
939	13,69
939,4	12,776
939,8	10,776
940,2	13,719
940,6	12,319
941,1	9,719
941,5	17,519
941,9	18,062
942,3	20,576
942,8	24,062
943,2	27,176
943,6	24,005
944	29,033
944,4	30,09
944,9	27,348
945,3	24,176
945,7	17,09
946,1	8,805
946,6	9,376
947	6,233
947,4	2,862
947,8	4,833
948,2	3,376
948,7	7,29
949,1	11,948
949,5	19,319
949,9	20,148
950,3	19,633
950,8	21,033
951,2	20,233
951,6	16,29
952	19,062
952,5	12,205
952,9	9,09
953,3	13,033
953,7	10,29
954,1	13,605
954,6	17,833
955	21,519
955,4	21,69
955,8	27,605
956,2	23,519
956,7	24,519
957,1	21,205
957,5	23,519
957,9	16,205
958,3	17,462
958,8	16,005
959,2	17,576
959,6	17,69
960	18,948
960,5	18,69
960,9	21,976
961,3	20,833
961,7	17,49
962,1	19,405
962,6	20,176
963	20,805
963,4	14,548
963,8	12,176
964,2	17,89
964,7	17,29
965,1	16,605
965,5	16,719
965,9	14,576
966,3	19,576
966,8	19,09
967,2	16,748
967,6	18,005
968	10,49
968,4	6,748
968,9	9,148
969,3	10,148
969,7	10,319
970,1	6,233
970,5	4,776
971	11,433
971,4	12,433
971,8	17,005
972,2	15,605
972,6	14,719
973,1	16,662
973,5	19,033
973,9	19,576
974,3	19,776
974,7	16,719
975,2	13,976
975,6	13,433
976	12,348
976,4	9,119
976,8	5,89
977,3	7,805
977,7	3,29
978,1	2,805
978,5	2,548
978,9	3,319
979,4	2,89
979,8	4,09
980,2	2,805
980,6	4,662
981	7,233
981,5	12,176
981,9	10,005
982,3	12,576
982,7	10,748
983,1	7,319
983,6	8,29
984	11,319
984,4	8,148
984,8	10,033
985,2	10,69
985,6	10,719
986,1	16,205
986,5	15,462
986,9	8,89
987,3	11,09
987,7	12,319
988,2	8,833
988,6	11,976
989	10,005
989,4	13,233
989,8	13,262
990,3	13,49
990,7	13,776
991,1	16,89
991,5	15,862
991,9	17,805
992,3	19,376
992,8	23,319
993,2	22,319
993,6	19,69
994	19,262
994,4	17,319
994,9	15,29
995,3	7,633
995,7	5,89
996,1	1,176
996,5	5,348
996,9	1,09
997,4	6,262
997,8	1,29
998,2	1,89
998,6	-1,624
999	-1,452
999,5	-7,167
999,9	-2,024
1000,3	-7,281
1000,7	-1,538
1001,1	1,776
1001,5	8,948
1002	13,519
1002,4	17,89
1002,8	17,405
1003,2	24,462
1003,6	26,348
1004	26,919
1004,5	20,462
1004,9	24,148
1005,3	19,205
1005,7	20,148
1006,1	9,262
1006,6	9,633
1007	9,148
1007,4	10,748
1007,8	4,462
1008,2	6,805
1008,6	7,462
1009,1	12,776
1009,5	8,805
1009,9	8,319
1010,3	8,433
1010,7	11,862
1011,1	12,119
1011,6	9,233
1012	14,319
1012,4	11,805
1012,8	11,033
1013,2	16,119
1013,6	15,519
1014,1	16,376
1014,5	16,776
1014,9	9,348
1015,3	10,09
1015,7	9,49
1016,1	3,69
1016,6	-0,938
1017	-0,652
1017,4	-0,681
1017,8	0,062
1018,2	4,976
1018,6	4,948
1019,1	5,748
1019,5	9,062
1019,9	7,748
1020,3	14,776
1020,7	18,89
1021,1	14,633
1021,6	13,976
1022	18,433
1022,4	16,69
1022,8	15,69
1023,2	8,119
1023,6	8,005
1024,1	13,662
1024,5	16,376
1024,9	9,805
1025,3	8,033
1025,7	7,805
1026,1	11,49
1026,6	9,148
1027	4,519
1027,4	9,09
1027,8	14,748
1028,2	20,776
1028,6	28,005
1029	25,29
1029,5	27,862
1029,9	28,233
1030,3	21,69
1030,7	20,948
1031,1	20,89
1031,5	11,805
1032	12,976
1032,4	6,919
1032,8	8,548
1033,2	9,119
1033,6	7,09
1034	1,176
1034,4	3,433
1034,9	3,776
1035,3	2,205
1035,7	5,148
1036,1	4,719
1036,5	1,348
1036,9	6,576
1037,4	7,605
1037,8	3,433
1038,2	8,805
1038,6	9,919
1039	15,833
1039,4	23,348
1039,8	18,148
1040,3	18,662
1040,7	18,69
1041,1	16,376
1041,5	14,319
1041,9	8,462
1042,3	6,976
1042,7	11,833
1043,2	10,319
1043,6	8,976
1044	8,49
1044,4	6,09
1044,8	11,605
1045,2	8,462
1045,6	8,462
1046,1	9,748
1046,5	13,89
1046,9	16,662
1047,3	18,033
1047,7	11,976
1048,1	14,29
1048,5	14,405
1049	14,176
1049,4	17,176
1049,8	19,348
1050,2	18,262
1050,6	23,833
1051	22,319
1051,4	21,319
1051,9	21,776
1052,3	24,719
1052,7	21,462
1053,1	15,662
1053,5	14,376
1053,9	13,062
1054,3	6,49
1054,8	11,262
1055,2	6,776
1055,6	13,69
1056	22,062
1056,4	18,662
1056,8	21,062
1057,2	27,09
1057,6	21,605
1058,1	19,919
1058,5	10,49
1058,9	8,233
1059,3	12,405
1059,7	8,862
1060,1	8,719
1060,5	8,348
1061	9,948
1061,4	12,633
1061,8	12,405
1062,2	10,433
1062,6	14,233
1063	19,262
1063,4	17,319
1063,8	16,005
1064,3	12,948
1064,7	13,89
1065,1	12,89
1065,5	11,519
1065,9	7,033
1066,3	10,062
1066,7	6,519
1067,1	7,976
1067,6	8,862
1068	7,862
1068,4	6,519
1068,8	8,148
1069,2	5,433
1069,6	10,462
1070	14,833
1070,4	11,176
1070,9	8,662
1071,3	8,69
1071,7	5,548
1072,1	7,748
1072,5	6,519
1072,9	3,748
1073,3	8,205
1073,7	8,548
1074,2	9,662
1074,6	10,09
1075	9,805
1075,4	5,805
1075,8	11,062
1076,2	7,433
1076,6	9,862
1077	7,462
1077,5	10,605
1077,9	8,633
1078,3	10,576
1078,7	2,119
1079,1	1,919
1079,5	1,376
1079,9	4,633
1080,3	1,376
1080,7	4,805
1081,2	9,433
1081,6	14,233
1082	16,376
1082,4	20,462
1082,8	19,405
1083,2	19,462
1083,6	16,748
1084	12,633
1084,5	12,662
1084,9	8,262
1085,3	3,633
1085,7	5,519
1086,1	4,376
1086,5	9,69
1086,9	12,805
1087,3	9,976
1087,7	13,005
1088,2	14,862
1088,6	15,605
1089	17,376
1089,4	12,462
1089,8	12,948
1090,2	13,748
1090,6	14,49
1091	16,176
1091,4	14,605
1091,9	14,205
1092,3	15,662
1092,7	10,976
1093,1	13,948
1093,5	17,405
1093,9	14,805
1094,3	15,748
1094,7	17,005
1095,1	18,89
1095,5	23,262
1096	18,833
1096,4	16,005
1096,8	15,176
1097,2	14,119
1097,6	17,69
1098	17,119
1098,4	16,005
1098,8	21,033
1099,2	24,262
1099,6	24,176
1100,1	22,719
1100,5	15,89
1100,9	13,319
1101,3	12,919
1101,7	7,09
1102,1	1,862
1102,5	4,319
1102,9	9,176
1103,3	11,776
1103,7	11,833
1104,2	11,89
1104,6	15,919
1105	14,205
1105,4	16,433
1105,8	10,176
1106,2	8,519
1106,6	8,405
1107	6,462
1107,4	4,067
1107,8	6,753
1108,3	-0,517
