Data from Subt2_029.txt Node
Date: Sat Aug 26 16:20:34 MSK 2023
User: vat
Spectrometer: MAYP114033
Trigger mode: 0
Integration Time (sec): 1,000000E0
Scans to average: 5
Electric dark correction enabled: true
Nonlinearity correction enabled: false
Boxcar width: 3
XAxis mode: Wavelengths
Number of Pixels in Spectrum: 2068
>>>>>Begin Spectral Data<<<<<
199,4	-0,05
199,9	-3,18
200,4	-6,733
200,8	-4,3
201,3	-2,186
201,8	-3,014
202,2	-5,043
202,7	-3,671
203,2	1,443
203,6	3,043
204,1	2,443
204,6	3,929
205	6,871
205,5	6,014
206	5,157
206,4	6,129
206,9	7,9
207,4	11,357
207,8	7,757
208,3	8,043
208,8	10,814
209,2	11,329
209,7	10,014
210,2	14,157
210,6	11,1
211,1	10,614
211,5	3,157
212	0,3
212,5	-4,329
212,9	-7,129
213,4	-9,586
213,9	-12,1
214,3	-10,443
214,8	-1,9
215,3	1,5
215,7	1,557
216,2	5,186
216,7	-0,786
217,1	0,643
217,6	-2,529
218,1	-3,557
218,5	-2,243
219	5,729
219,5	1,729
219,9	5,414
220,4	5,071
220,9	7,929
221,3	3,557
221,8	-1,443
222,3	-5,329
222,7	-3,814
223,2	1,014
223,6	-2,243
224,1	-4,957
224,6	-5,786
225	-2,529
225,5	-0,386
226	-3,643
226,4	-3,471
226,9	-1,7
227,4	1,871
227,8	9,329
228,3	11,014
228,8	9,243
229,2	12,043
229,7	5,529
230,2	10,729
230,6	7,986
231,1	5,271
231,5	5,157
232	8,157
232,5	9,014
232,9	14,186
233,4	14,957
233,9	18,186
234,3	16,671
234,8	15,929
235,3	16,129
235,7	16,3
236,2	14,214
236,7	16,186
237,1	12,9
237,6	13,014
238,1	13,414
238,5	11,957
239	11,443
239,4	12,157
239,9	4,129
240,4	8,957
240,8	7,271
241,3	1,614
241,8	-0,014
242,2	-0,386
242,7	0,929
243,2	1,186
243,6	1,3
244,1	3,471
244,6	3,957
245	4,129
245,5	1,529
245,9	0,329
246,4	1,729
246,9	-0,757
247,3	-0,986
247,8	5,329
248,3	5,729
248,7	13,414
249,2	9,386
249,7	8,357
250,1	6,9
250,6	8,957
251	9,014
251,5	7,7
252	0,414
252,4	4,786
252,9	9,329
253,4	8,843
253,8	6,443
254,3	4,443
254,8	2,5
255,2	2,243
255,7	4,957
256,1	2,329
256,6	2,957
257,1	3,814
257,5	6,586
258	8,786
258,5	13,7
258,9	10,7
259,4	12,043
259,9	16,443
260,3	16,929
260,8	15,986
261,2	21,557
261,7	22,043
262,2	21,329
262,6	19,243
263,1	14,157
263,6	13,7
264	7,129
264,5	3,214
264,9	-0,214
265,4	2,386
265,9	3,129
266,3	3,957
266,8	3,214
267,3	9,871
267,7	9,186
268,2	9,986
268,7	4,586
269,1	2,329
269,6	4,529
270	8,271
270,5	4,214
271	2,529
271,4	-1,214
271,9	3,614
272,4	9,3
272,8	6,757
273,3	2,271
273,7	4,671
274,2	4,871
274,7	10,1
275,1	3,271
275,6	0,786
276,1	4,529
276,5	8,043
277	9,786
277,4	13,729
277,9	11,671
278,4	16,043
278,8	19,186
279,3	17,357
279,8	18,186
280,2	13,5
280,7	11,986
281,1	13,729
281,6	15,243
282,1	12,557
282,5	12,786
283	6,671
283,4	5,9
283,9	0,386
284,4	-2,271
284,8	-4,129
285,3	-5,757
285,8	-7,529
286,2	-7,271
286,7	-3,614
287,1	-0,357
287,6	1,329
288,1	0,443
288,5	3,014
289	3,586
289,5	5,3
289,9	6,071
290,4	4,986
290,8	7,5
291,3	7,5
291,8	6,071
292,2	10,414
292,7	11,186
293,1	9,957
293,6	12,957
294,1	10,471
294,5	17,557
295	14,586
295,5	13,357
295,9	16,814
296,4	14,1
296,8	9,986
297,3	10,843
297,8	5,5
298,2	6,586
298,7	1,5
299,1	-2,157
299,6	-1,843
300,1	2,3
300,5	3,214
301	4,014
301,5	8,814
301,9	10,929
302,4	10,3
302,8	13,3
303,3	11,071
303,8	6,557
304,2	4,471
304,7	-1,386
305,1	-1,557
305,6	-2,3
306,1	-4,986
306,5	-6,014
307	-6,129
307,4	-7,671
307,9	-7,329
308,4	-5,043
308,8	1,243
309,3	0,014
309,8	8,643
310,2	9,386
310,7	21,071
311,1	19,957
311,6	19,271
312,1	15,043
312,5	18,014
313	11,814
313,4	14,157
313,9	7,643
314,4	8,5
314,8	10,157
315,3	10,186
315,7	11,614
316,2	13,843
316,7	15,671
317,1	14,357
317,6	15,243
318	15,186
318,5	17,1
319	14,186
319,4	12,071
319,9	9,9
320,3	11,614
320,8	13,814
321,3	6,471
321,7	1,386
322,2	1,443
322,6	-2,7
323,1	-2,214
323,6	-7,071
324	-9,014
324,5	-5,214
324,9	-0,786
325,4	2,014
325,9	6,414
326,3	7,757
326,8	9,786
327,2	9,271
327,7	11,814
328,2	12,329
328,6	13,529
329,1	15,214
329,5	14,871
330	18,471
330,5	17,643
330,9	14,529
331,4	9,014
331,8	7,5
332,3	6,586
332,8	-1,757
333,2	-6,129
333,7	-3,386
334,1	-2,357
334,6	2,243
335,1	2,986
335,5	2,014
336	6,271
336,4	7,014
336,9	7,557
337,4	6,329
337,8	6,129
338,3	5,186
338,7	3,729
339,2	10,929
339,7	10,014
340,1	8,357
340,6	4,557
341	8,9
341,5	9,757
342	11,157
342,4	4,129
342,9	2,757
343,3	4,643
343,8	14,986
344,2	9,271
344,7	8,957
345,2	6,471
345,6	11,186
346,1	17,071
346,5	19,014
347	18,443
347,5	20,271
347,9	20,214
348,4	22,386
348,8	20,414
349,3	20,5
349,8	19,814
350,2	14,329
350,7	14,129
351,1	17,529
351,6	19,386
352	27,043
352,5	30,957
353	35,871
353,4	43,929
353,9	57,843
354,3	69,557
354,8	83,529
355,3	94,157
355,7	110,671
356,2	129,729
356,6	156,586
357,1	177,643
357,5	207,157
358	244,643
358,5	289,014
358,9	334,586
359,4	390,986
359,8	447,186
360,3	517,414
360,8	592,843
361,2	677,1
361,7	770,157
362,1	873,757
362,6	991,471
363	1115,843
363,5	1244,986
364	1378,443
364,4	1509,957
364,9	1639,957
365,3	1768,071
365,8	1885,243
366,3	1995,214
366,7	2094,1
367,2	2178,414
367,6	2255,271
368,1	2313,357
368,5	2352,329
369	2369,357
369,5	2370,986
369,9	2352,071
370,4	2312,671
370,8	2251,814
371,3	2184,757
371,7	2099,043
372,2	2003,043
372,7	1897,3
373,1	1793,043
373,6	1686,929
374	1580,243
374,5	1471,814
374,9	1369,557
375,4	1271,443
375,9	1182,243
376,3	1090,043
376,8	1004,157
377,2	927,671
377,7	847,271
378,2	774,9
378,6	710,557
379,1	648,614
379,5	593,243
380	547,757
380,4	496,157
380,9	457,414
381,4	425,986
381,8	392,414
382,3	360,243
382,7	330,757
383,2	300,814
383,6	281,386
384,1	262,814
384,6	238,271
385	222,1
385,5	209,157
385,9	201,5
386,4	191,386
386,8	182,9
387,3	171,3
387,7	163,414
388,2	153,1
388,7	141,243
389,1	126,329
389,6	114,014
390	102,157
390,5	90,757
390,9	86,643
391,4	83,929
391,9	78,129
392,3	72,1
392,8	71,157
393,2	64,3
393,7	66,929
394,1	64,757
394,6	56,614
395,1	55,243
395,5	57,7
396	59,414
396,4	64,871
396,9	63,157
397,3	58,043
397,8	58,871
398,2	58,5
398,7	52,586
399,2	47,786
399,6	49,786
400,1	41,271
400,5	43,414
401	46,443
401,4	45,271
401,9	51,129
402,4	53,243
402,8	49,814
403,3	56,214
403,7	56,9
404,2	56,471
404,6	57,129
405,1	55,5
405,5	53,329
406	51,071
406,5	53,157
406,9	53,9
407,4	55,357
407,8	62,014
408,3	70,643
408,7	76,871
409,2	86,814
409,6	91,357
410,1	102,929
410,6	106,814
411	114,329
411,5	116,214
411,9	121,614
412,4	128,014
412,8	133,757
413,3	135,414
413,7	149,043
414,2	158,471
414,7	176,386
415,1	189,671
415,6	208,614
416	223,3
416,5	237,9
416,9	249,671
417,4	262,843
417,8	275,329
418,3	296,186
418,8	303,386
419,2	325,014
419,7	350,043
420,1	365,386
420,6	388,986
421	407,3
421,5	426,7
421,9	455,7
422,4	480,729
422,8	505,157
423,3	537,414
423,8	567,871
424,2	597,071
424,7	629,671
425,1	660,071
425,6	693,157
426	725,386
426,5	763,186
426,9	799,043
427,4	847,671
427,9	885,643
428,3	931,443
428,8	975,443
429,2	1024,186
429,7	1078,414
430,1	1132,443
430,6	1184,729
431	1245,643
431,5	1310,729
431,9	1379,557
432,4	1453,5
432,8	1524,843
433,3	1603,986
433,8	1683,557
434,2	1770,814
434,7	1858,586
435,1	1955,757
435,6	2057,986
436	2160,214
436,5	2265,357
436,9	2371,957
437,4	2493,5
437,8	2610,9
438,3	2735,614
438,8	2853,414
439,2	2985,871
439,7	3126,443
440,1	3276,729
440,6	3428,414
441	3584,471
441,5	3740,157
441,9	3910,871
442,4	4085,929
442,8	4257,7
443,3	4432,757
443,7	4606,471
444,2	4796,729
444,7	4991,986
445,1	5186,986
445,6	5383,986
446	5605,043
446,5	5835,757
446,9	6061,9
447,4	6296,414
447,8	6529,986
448,3	6780,414
448,7	7034,9
449,2	7282,529
449,6	7531,586
450,1	7799,9
450,6	8066,843
451	8331,529
451,5	8601,7
451,9	8886,786
452,4	9171,329
452,8	9465,386
453,3	9752,386
453,7	10046,643
454,2	10362,129
454,6	10682,5
455,1	10994,729
455,5	11308,243
456	11621,443
456,4	11953,157
456,9	12285,3
457,3	12622,243
457,8	12949,643
458,3	13283,214
458,7	13636,414
459,2	13980,929
459,6	14330,243
460,1	14681,443
460,5	15023,043
461	15373,471
461,4	15731,729
461,9	16080,357
462,3	16442,214
462,8	16794,614
463,2	17155,557
463,7	17514,986
464,1	17869,014
464,6	18212,9
465	18555,843
465,5	18901,843
466	19259,557
466,4	19589,1
466,9	19927,786
467,3	20272,729
467,8	20629,043
468,2	20978,329
468,7	21316,786
469,1	21644,129
469,6	21991,5
470	22335,957
470,5	22655,614
470,9	22961,386
471,4	23273,3
471,8	23588,186
472,3	23880,129
472,7	24174,586
473,2	24456,129
473,6	24745,071
474,1	25032,957
474,5	25307,129
475	25575,443
475,4	25853,814
475,9	26124,614
476,4	26378,071
476,8	26625,043
477,3	26859,986
477,7	27101,643
478,2	27322,557
478,6	27533,814
479,1	27707,414
479,5	27906,557
480	28092,5
480,4	28275,671
480,9	28429,786
481,3	28589,329
481,8	28735,986
482,2	28887,1
482,7	29023,786
483,1	29155,443
483,6	29266,757
484	29381,186
484,5	29476,157
484,9	29578,271
485,4	29669,957
485,8	29735,071
486,3	29810,957
486,7	29869,957
487,2	29920,586
487,6	29973,929
488,1	29996,357
488,5	30016,386
489	30037,129
489,4	30035,729
489,9	30030,471
490,4	30010,9
490,8	29989,214
491,3	29961,957
491,7	29925,957
492,2	29879,471
492,6	29823,7
493,1	29762,071
493,5	29695,843
494	29615,5
494,4	29535,329
494,9	29445,3
495,3	29350,1
495,8	29249,071
496,2	29154,214
496,7	29037,214
497,1	28925,357
497,6	28816,129
498	28699,043
498,5	28594,129
498,9	28456,557
499,4	28325,129
499,8	28201,757
500,3	28079,043
500,7	27928,3
501,2	27783,7
501,6	27626,586
502,1	27476,129
502,5	27325,357
503	27169,7
503,4	27007,1
503,9	26841,557
504,3	26677,814
504,8	26504,843
505,2	26331,814
505,7	26152,529
506,1	25974,014
506,6	25768,243
507	25592,586
507,5	25401,929
507,9	25212,786
508,4	25028,729
508,8	24819,986
509,3	24625,3
509,7	24419,414
510,2	24202,614
510,6	24000,614
511,1	23787,043
511,5	23571,814
512	23380,414
512,4	23163,471
512,9	22969,7
513,3	22763,414
513,8	22541,3
514,2	22320,414
514,7	22114,071
515,1	21880,729
515,6	21675,443
516	21458,929
516,5	21245,671
516,9	21031,471
517,4	20823,443
517,8	20612,643
518,3	20407,186
518,7	20182,5
519,2	19966,1
519,6	19760,271
520,1	19555,129
520,5	19341,9
521	19125,5
521,4	18922,843
521,9	18720,414
522,3	18522,7
522,8	18322,043
523,2	18122,386
523,7	17931,129
524,1	17737,357
524,6	17531,671
525	17337,614
525,5	17137,557
525,9	16935,7
526,4	16737,643
526,8	16544,014
527,3	16359,671
527,7	16179,357
528,2	15986,386
528,6	15792,1
529,1	15605,271
529,5	15433,529
530	15261,786
530,4	15082,7
530,9	14900,729
531,3	14742,957
531,8	14594,1
532,2	14438,814
532,6	14273,729
533,1	14102,957
533,5	13941,843
534	13790,986
534,4	13623,7
534,9	13470,786
535,3	13316,214
535,8	13153,129
536,2	13006,357
536,7	12845,043
537,1	12688,671
537,6	12544,529
538	12390,757
538,5	12242,843
538,9	12114,3
539,4	11972,3
539,8	11847,814
540,3	11714,729
540,7	11577,243
541,2	11449,471
541,6	11325,729
542,1	11193,243
542,5	11080,443
543	10956,043
543,4	10849,957
543,9	10739,757
544,3	10622,9
544,8	10499,757
545,2	10379,329
545,7	10257,471
546,1	10150,814
546,5	10034,7
547	9923,214
547,4	9810,557
547,9	9707,957
548,3	9605,1
548,8	9497,586
549,2	9386,9
549,7	9286,129
550,1	9192,271
550,6	9093,271
551	9009,014
551,5	8922,357
551,9	8831,729
552,4	8749,9
552,8	8659,929
553,3	8573,814
553,7	8486,529
554,2	8382,871
554,6	8289,5
555,1	8202,243
555,5	8117,443
555,9	8038,557
556,4	7954,3
556,8	7879,757
557,3	7800,986
557,7	7730,414
558,2	7649,986
558,6	7573,329
559,1	7494,957
559,5	7418,214
560	7334,014
560,4	7269,986
560,9	7202,414
561,3	7141,1
561,8	7072,414
562,2	7007,5
562,7	6942,414
563,1	6877,443
563,6	6810,843
564	6744,929
564,4	6683,5
564,9	6615,1
565,3	6559,357
565,8	6504,871
566,2	6451,643
566,7	6392,5
567,1	6334,443
567,6	6273,414
568	6220,814
568,5	6159,186
568,9	6091,986
569,4	6040,671
569,8	5989,414
570,3	5939,386
570,7	5884,586
571,1	5830,786
571,6	5770,757
572	5729,929
572,5	5678,986
572,9	5630,671
573,4	5573,7
573,8	5526,129
574,3	5481,614
574,7	5435,129
575,2	5385,243
575,6	5340,129
576,1	5296,186
576,5	5249,329
576,9	5203,957
577,4	5158,843
577,8	5116,271
578,3	5064,471
578,7	5015,671
579,2	4973,529
579,6	4935,186
580,1	4896,643
580,5	4849,1
581	4807,271
581,4	4771,014
581,9	4738,271
582,3	4686,9
582,7	4647,043
583,2	4600,443
583,6	4566,443
584,1	4527,786
584,5	4491,129
585	4447,729
585,4	4413,671
585,9	4375,071
586,3	4337,814
586,8	4295,957
587,2	4263,643
587,6	4223,014
588,1	4183,557
588,5	4148,7
589	4118,471
589,4	4086,986
589,9	4063,186
590,3	4029,729
590,8	4006,414
591,2	3980,214
591,7	3945,9
592,1	3918,7
592,5	3892,729
593	3857,614
593,4	3827,814
593,9	3787,586
594,3	3753,786
594,8	3729,843
595,2	3703,3
595,7	3676,329
596,1	3650,757
596,6	3625,329
597	3608,7
597,4	3593,386
597,9	3568,414
598,3	3539,671
598,8	3515,929
599,2	3493,157
599,7	3469,071
600,1	3446,357
600,6	3418,014
601	3395,1
601,4	3371,186
601,9	3346,1
602,3	3324,157
602,8	3308,729
603,2	3288,671
603,7	3262,986
604,1	3244,471
604,6	3215,9
605	3195,986
605,4	3169,357
605,9	3139,671
606,3	3113,871
606,8	3097,671
607,2	3069,214
607,7	3056,729
608,1	3030,957
608,6	3010,529
609	2995,014
609,4	2975,157
609,9	2951,329
610,3	2934,986
610,8	2917,157
611,2	2896,529
611,7	2878,957
612,1	2856,786
612,6	2834,929
613	2818,443
613,4	2801,729
613,9	2775,929
614,3	2761,071
614,8	2738,1
615,2	2714,843
615,7	2697,386
616,1	2676,243
616,6	2650,471
617	2629,3
617,4	2613,043
617,9	2595,243
618,3	2577,729
618,8	2559,386
619,2	2542,186
619,7	2523,157
620,1	2504,614
620,5	2484,1
621	2462,329
621,4	2447,529
621,9	2428,129
622,3	2412,586
622,8	2393,729
623,2	2377,986
623,6	2354,471
624,1	2344,186
624,5	2323,5
625	2303,443
625,4	2284,214
625,9	2275,329
626,3	2261,757
626,8	2251,557
627,2	2231,814
627,6	2214,643
628,1	2202,243
628,5	2181,986
629	2169,643
629,4	2148,614
629,9	2128,5
630,3	2119,157
630,7	2106,586
631,2	2091,3
631,6	2078,5
632,1	2055,671
632,5	2044,786
633	2031,757
633,4	2013,814
633,8	2001,3
634,3	1982,014
634,7	1966,557
635,2	1954,214
635,6	1938,529
636,1	1931,443
636,5	1913,557
636,9	1895,471
637,4	1882,1
637,8	1865,957
638,3	1848,357
638,7	1838,843
639,2	1822,786
639,6	1809,271
640	1792,243
640,5	1783,157
640,9	1778,043
641,4	1769,1
641,8	1752,186
642,2	1740,014
642,7	1726,643
643,1	1722,443
643,6	1709,014
644	1699,271
644,5	1685,7
644,9	1674,186
645,3	1662,443
645,8	1659,957
646,2	1645,614
646,7	1631,643
647,1	1615,729
647,6	1606,471
648	1590,871
648,4	1578,271
648,9	1563,329
649,3	1554,043
649,8	1548,1
650,2	1537,929
650,6	1530,3
651,1	1527,614
651,5	1521,014
652	1509,386
652,4	1495,443
652,9	1487,7
653,3	1480,471
653,7	1466,986
654,2	1458,243
654,6	1443,5
655,1	1431,729
655,5	1427,529
655,9	1411,443
656,4	1399,157
656,8	1386,443
657,3	1372,7
657,7	1359,129
658,2	1355,1
658,6	1338,757
659	1330,414
659,5	1321,614
659,9	1319,1
660,4	1312,043
660,8	1308,5
661,2	1294,7
661,7	1285,729
662,1	1276,157
662,6	1265,243
663	1257,5
663,4	1245,643
663,9	1235,729
664,3	1230,586
664,8	1224,243
665,2	1219,929
665,6	1209,1
666,1	1193,757
666,5	1185,414
667	1173,786
667,4	1162,929
667,9	1150,186
668,3	1137,986
668,7	1131,757
669,2	1124,586
669,6	1115,271
670,1	1109,157
670,5	1098,271
670,9	1104,3
671,4	1096,329
671,8	1091,357
672,3	1083,157
672,7	1075,5
673,1	1063,757
673,6	1055,729
674	1037,157
674,5	1030,929
674,9	1021,357
675,3	1014,643
675,8	1008,814
676,2	1008,786
676,7	1003,243
677,1	998,9
677,5	991,386
678	987,129
678,4	980,129
678,9	969,414
679,3	956,357
679,7	952,157
680,2	945,443
680,6	939,729
681,1	930,129
681,5	925,871
681,9	922,986
682,4	917,129
682,8	906,986
683,3	894,986
683,7	884,929
684,1	876,586
684,6	864,414
685	857,443
685,5	848,014
685,9	840,243
686,3	841,5
686,8	836,043
687,2	832,557
687,7	827,357
688,1	822,843
688,5	824,357
689	821,443
689,4	814,129
689,9	811,329
690,3	804,986
690,7	802,386
691,2	795,1
691,6	790,586
692	785,271
692,5	775,671
692,9	768,329
693,4	763,071
693,8	759,214
694,2	753,5
694,7	742,786
695,1	739,386
695,6	733,271
696	724,529
696,4	718,9
696,9	711,186
697,3	702,614
697,8	698,557
698,2	686,786
698,6	686,157
699,1	687,386
699,5	676,871
699,9	674,757
700,4	677,043
700,8	678,757
701,3	679,386
701,7	671,843
702,1	663,3
702,6	663,5
703	650,243
703,5	641,271
703,9	633,043
704,3	629,157
704,8	623,614
705,2	620,414
705,6	610,814
706,1	613,214
706,5	612,214
707	602,871
707,4	596,529
707,8	594,729
708,3	591,814
708,7	597,186
709,2	590,329
709,6	583,271
710	579,843
710,5	576,014
710,9	571,271
711,3	561,7
711,8	554,129
712,2	551,586
712,7	552,271
713,1	548,814
713,5	543,186
714	542,271
714,4	542,871
714,8	539,157
715,3	535,557
715,7	524,843
716,2	522,757
716,6	519,871
717	512,557
717,5	505,157
717,9	493,329
718,3	488,929
718,8	488,986
719,2	486,186
719,7	485,529
720,1	481,414
720,5	480,529
721	482,1
721,4	481,9
721,8	481,329
722,3	474,186
722,7	466,329
723,2	463,243
723,6	459,386
724	457,3
724,5	447,414
724,9	439,329
725,3	436,929
725,8	433,243
726,2	427,5
726,7	425,157
727,1	421,243
727,5	423,643
728	419,9
728,4	415,471
728,8	413,414
729,3	411,129
729,7	408,729
730,1	407,271
730,6	400,843
731	400,586
731,5	399,9
731,9	401,1
732,3	402,157
732,8	399,5
733,2	394,271
733,6	394,3
734,1	389,929
734,5	383,9
734,9	379,5
735,4	374,271
735,8	369,7
736,3	367,529
736,7	363,529
737,1	362,129
737,6	358,9
738	355,129
738,4	354,129
738,9	353,986
739,3	348,014
739,7	347,957
740,2	346,014
740,6	348,157
741,1	346,986
741,5	344,271
741,9	335,214
742,4	342,243
742,8	340,871
743,2	338,014
743,7	335,386
744,1	329,529
744,5	330,357
745	335,471
745,4	327,843
745,8	325,414
746,3	325,643
746,7	325,871
747,2	334,414
747,6	329,843
748	327,643
748,5	324,957
748,9	319,957
749,3	316,586
749,8	308,157
750,2	298,186
750,6	295,071
751,1	293,814
751,5	290,843
751,9	286,071
752,4	285,214
752,8	286,186
753,3	284,9
753,7	284,357
754,1	278,414
754,6	277,614
755	278,157
755,4	273,929
755,9	271,671
756,3	269,1
756,7	264,357
757,2	264,586
757,6	263,529
758	261,414
758,5	260,1
758,9	258,071
759,3	255,614
759,8	258,871
760,2	255,471
760,6	257,3
761,1	253,843
761,5	250,757
761,9	250,157
762,4	248,129
762,8	247,014
763,3	245,071
763,7	238,3
764,1	237,071
764,6	235,557
765	235,671
765,4	236,871
765,9	231,843
766,3	233,129
766,7	232,957
767,2	234,786
767,6	230,814
768	231,471
768,5	227,557
768,9	225,586
769,3	219,243
769,8	220,129
770,2	222,5
770,6	220,214
771,1	217,386
771,5	218,643
771,9	215,129
772,4	219,043
772,8	215,471
773,2	211,814
773,7	216,529
774,1	215,443
774,5	215,786
775	211,729
775,4	211,186
775,8	214,043
776,3	208,271
776,7	206,786
777,1	208,186
777,6	205,214
778	211,129
778,4	207,1
778,9	200,957
779,3	203,357
779,7	199,243
780,2	192,1
780,6	189,386
781	189,586
781,5	188,557
781,9	191,529
782,3	190,671
782,8	185,014
783,2	182,929
783,6	178,357
784,1	176,329
784,5	172,671
784,9	166,129
785,4	163,271
785,8	164,357
786,2	164,586
786,7	164,443
787,1	163,329
787,5	165,671
788	167,557
788,4	165,014
788,8	166,929
789,3	168,757
789,7	168,786
790,1	167,129
790,6	168,814
791	166,957
791,4	167,014
791,9	164,643
792,3	162,729
792,7	168,157
793,2	166,557
793,6	162,7
794	160,271
794,5	160,3
794,9	163,271
795,3	164,586
795,8	157,786
796,2	155,3
796,6	151,186
797,1	152,386
797,5	150,5
797,9	146,957
798,4	144,014
798,8	138,814
799,2	139,786
799,7	144,986
800,1	141,986
800,5	139,043
801	136,243
801,4	132,071
801,8	134,786
802,2	133,3
802,7	127,786
803,1	128,243
803,5	132,243
804	135,071
804,4	133,586
804,8	132,529
805,3	129,443
805,7	126,643
806,1	128,643
806,6	127,757
807	126,414
807,4	122,643
807,9	124,3
808,3	120,671
808,7	124,614
809,2	118,986
809,6	114,9
810	112,3
810,4	119,386
810,9	114,3
811,3	119,729
811,7	118,271
812,2	122,843
812,6	122,957
813	121,814
813,5	119,929
813,9	120,186
814,3	115,557
814,8	113,986
815,2	107,443
815,6	103,814
816,1	103,929
816,5	99,443
816,9	104,757
817,3	104,443
817,8	104,929
818,2	104,271
818,6	105,586
819,1	100,929
819,5	98,586
819,9	92,329
820,4	89,843
820,8	83,757
821,2	87,5
821,7	86,814
822,1	92,1
822,5	94,643
822,9	96,5
823,4	92,814
823,8	95,557
824,2	91,557
824,7	91,5
825,1	85,7
825,5	91,243
826	87,643
826,4	92,871
826,8	93,871
827,3	96,071
827,7	97,386
828,1	101,071
828,5	96,614
829	95,5
829,4	96,243
829,8	90,786
830,3	88,7
830,7	88,529
831,1	84,7
831,6	80,329
832	76,671
832,4	75,3
832,8	76,671
833,3	70,843
833,7	69,443
834,1	69,643
834,6	66,643
835	71,871
835,4	74,271
835,8	71,357
836,3	73,414
836,7	65,1
837,1	67,071
837,6	67,014
838	63,757
838,4	56,9
838,9	65,586
839,3	68,3
839,7	71,871
840,1	68,186
840,6	69,071
841	70,071
841,4	67,014
841,9	60,729
842,3	61,186
842,7	62,3
843,1	63,729
843,6	67,1
844	65,414
844,4	71,843
844,9	70,129
845,3	67,557
845,7	67,043
846,2	64,014
846,6	58,757
847	56,3
847,4	54,129
847,9	55,5
848,3	54,443
848,7	56,129
849,2	58,214
849,6	63,986
850	63,643
850,4	64,671
850,9	59,871
851,3	59,357
851,7	57,186
852,2	54,129
852,6	49,929
853	58,814
853,4	61,043
853,9	63,471
854,3	64,157
854,7	58,071
855,2	56,014
855,6	52,614
856	45,014
856,4	41,129
856,9	39,014
857,3	38,186
857,7	46,986
858,2	46,129
858,6	52,529
859	47,671
859,4	47,3
859,9	46,586
860,3	42,014
860,7	37,271
861,1	42,414
861,6	41,443
862	49,443
862,4	49,757
862,9	51,243
863,3	51,471
863,7	46,729
864,1	44,786
864,6	37,614
865	36,386
865,4	33,614
865,9	30,9
866,3	33,871
866,7	40,843
867,1	44,843
867,6	47,471
868	47,1
868,4	43,471
868,8	47,129
869,3	47,843
869,7	41,757
870,1	39,186
870,6	39,3
871	43,414
871,4	43,557
871,8	39,643
872,3	37,443
872,7	36,271
873,1	37,071
873,5	37,814
874	34,643
874,4	35,729
874,8	38,443
875,3	39,643
875,7	42,757
876,1	36,786
876,5	34,957
877	31,186
877,4	32,5
877,8	35,529
878,2	32,1
878,7	34,157
879,1	38,243
879,5	41,814
879,9	41,929
880,4	40,1
880,8	35,071
881,2	37,729
881,7	37,843
882,1	33,071
882,5	32,414
882,9	31,014
883,4	35,271
883,8	35,414
884,2	34,443
884,6	34,043
885,1	38,014
885,5	38,529
885,9	43,3
886,3	41,843
886,8	41,757
887,2	38,786
887,6	34,957
888	31,5
888,5	29,929
888,9	23,614
889,3	17,243
889,8	16,186
890,2	16,157
890,6	17,129
891	20,014
891,5	19,786
891,9	23,443
892,3	28,386
892,7	32,014
893,2	34,414
893,6	33,871
894	30,014
894,4	29,871
894,9	28,014
895,3	28,786
895,7	27,443
896,1	30,071
896,6	28,157
897	28,357
897,4	24,957
897,8	23,757
898,3	23,471
898,7	19,329
899,1	17,9
899,5	20,643
900	18,9
900,4	18,471
900,8	20,843
901,2	19,329
901,7	19,843
902,1	19,786
902,5	15,957
902,9	20,614
903,4	22,5
903,8	17,9
904,2	18,214
904,6	15,357
905,1	16,471
905,5	17,929
905,9	15,386
906,3	13,529
906,8	16,014
907,2	11,7
907,6	16,957
908	12,329
908,5	11,1
908,9	11,5
909,3	9,729
909,7	8,757
910,2	11,443
910,6	8,671
911	9,786
911,4	8,614
911,9	11,329
912,3	12,757
912,7	13,014
913,1	9,9
913,6	12,9
914	11,214
914,4	11,3
914,8	9,586
915,3	8,786
915,7	4,186
916,1	5,729
916,5	2,729
916,9	0,471
917,4	3,786
917,8	0,843
918,2	1,243
918,6	4,757
919,1	9,186
919,5	9,386
919,9	14,757
920,3	12,329
920,8	18,357
921,2	20,5
921,6	20,929
922	16,414
922,5	16,186
922,9	12,729
923,3	16,843
923,7	11,271
924,2	7,957
924,6	7,414
925	10,271
925,4	11,329
925,8	13,071
926,3	12,586
926,7	14,157
927,1	17,957
927,5	18,186
928	14,814
928,4	17,214
928,8	19,1
929,2	16,557
929,7	12,843
930,1	8,557
930,5	6,871
930,9	12,186
931,3	10,814
931,8	10,214
932,2	11,7
932,6	13,929
933	14,614
933,5	17,471
933,9	15,786
934,3	14,357
934,7	15,671
935,2	16,129
935,6	15,129
936	14,671
936,4	12,443
936,8	10,5
937,3	9,386
937,7	7,329
938,1	1,529
938,5	1,671
939	4,129
939,4	8,529
939,8	6,186
940,2	8,357
940,6	2,957
941,1	7,643
941,5	12,071
941,9	15,5
942,3	13,557
942,8	19,414
943,2	15,9
943,6	22,329
944	20,843
944,4	13,243
944,9	7,3
945,3	8,986
945,7	8,186
946,1	11,843
946,6	8,986
947	12,129
947,4	13,986
947,8	18,586
948,2	16,643
948,7	12,586
949,1	8,586
949,5	9,471
949,9	11,071
950,3	13,843
950,8	8,443
951,2	8,586
951,6	12,5
952	10,814
952,5	9,043
952,9	3,586
953,3	-0,814
953,7	3,529
954,1	0,643
954,6	-3,443
955	-0,957
955,4	-5,557
955,8	-0,643
956,2	-0,271
956,7	0,729
957,1	1,271
957,5	0,386
957,9	-0,3
958,3	8,071
958,8	6,043
959,2	8,386
959,6	4,671
960	6,386
960,5	7,329
960,9	8,071
961,3	5,157
961,7	-1,3
962,1	0,071
962,6	-1,671
963	-4,329
963,4	-1,386
963,8	-0,386
964,2	0,729
964,7	6,1
965,1	5,586
965,5	9,129
965,9	10,586
966,3	7,814
966,8	7,843
967,2	9,957
967,6	4,729
968	2,157
968,4	2,586
968,9	7,529
969,3	4,3
969,7	1,529
970,1	0,014
970,5	4,871
971	5,7
971,4	7,471
971,8	6,243
972,2	9,671
972,6	12,586
973,1	12,214
973,5	13,786
973,9	14,129
974,3	6,957
974,7	2,814
975,2	1,186
975,6	-5,5
976	-5,357
976,4	-7,929
976,8	-7,471
977,3	-4,957
977,7	-5,443
978,1	-6,929
978,5	-0,529
978,9	0,071
979,4	-1,243
979,8	-0,929
980,2	-1,557
980,6	-3,9
981	-2,3
981,5	-2,5
981,9	-4,5
982,3	-6,957
982,7	-6,5
983,1	-1,986
983,6	0,186
984	1,929
984,4	3,814
984,8	5,586
985,2	9,986
985,6	12,129
986,1	9,614
986,5	5,786
986,9	6,843
987,3	3,986
987,7	4,329
988,2	4,671
988,6	-2,329
989	-3,3
989,4	3,186
989,8	-0,814
990,3	1,071
990,7	-3,3
991,1	-4,814
991,5	-4,243
991,9	-0,557
992,3	-0,871
992,8	3,071
993,2	3,529
993,6	10,5
994	7,614
994,4	10,414
994,9	9,871
995,3	9,214
995,7	7,329
996,1	4,929
996,5	-1,529
996,9	-0,271
997,4	-3,043
997,8	-5,586
998,2	-4,357
998,6	-3,986
999	-3,357
999,5	-1,157
999,9	2,643
1000,3	8,929
1000,7	6,071
1001,1	1,814
1001,5	0,014
1002	-3,129
1002,4	-2,243
1002,8	-3,7
1003,2	-3,643
1003,6	-0,186
1004	2,129
1004,5	2,757
1004,9	7,614
1005,3	2,443
1005,7	0,643
1006,1	-3,643
1006,6	-5,5
1007	-6,614
1007,4	-5,386
1007,8	-7,614
1008,2	-7,529
1008,6	-11,214
1009,1	-11,843
1009,5	-4,3
1009,9	1,1
1010,3	1,329
1010,7	5,671
1011,1	12,557
1011,6	17,643
1012	17,843
1012,4	16,3
1012,8	7,586
1013,2	9,757
1013,6	6,757
1014,1	5,243
1014,5	7,414
1014,9	10,214
1015,3	3,186
1015,7	7,5
1016,1	8,386
1016,6	12,786
1017	10,014
1017,4	8,186
1017,8	4,929
1018,2	9,386
1018,6	10,7
1019,1	5,9
1019,5	-0,529
1019,9	2,9
1020,3	3,186
1020,7	6,986
1021,1	5,3
1021,6	1,814
1022	1,271
1022,4	4,757
1022,8	-1,986
1023,2	-1,014
1023,6	-1,443
1024,1	3,1
1024,5	3,386
1024,9	8,1
1025,3	6,5
1025,7	14,986
1026,1	13,643
1026,6	12,957
1027	5,529
1027,4	6,9
1027,8	0,1
1028,2	-2,471
1028,6	-3,129
1029	-8,271
1029,5	-7,557
1029,9	-5,786
1030,3	-2,729
1030,7	3,157
1031,1	4,986
1031,5	-0,443
1032	5,986
1032,4	2,186
1032,8	2,329
1033,2	2,214
1033,6	4,757
1034	5,586
1034,4	11,329
1034,9	6,614
1035,3	11,814
1035,7	12,357
1036,1	10,786
1036,5	4,814
1036,9	1,1
1037,4	-2,843
1037,8	-0,643
1038,2	-8,814
1038,6	-15,443
1039	-18,7
1039,4	-18,243
1039,8	-18,871
1040,3	-20,814
1040,7	-20,157
1041,1	-14,3
1041,5	-10,957
1041,9	-10,957
1042,3	-12,843
1042,7	-5,786
1043,2	-4,671
1043,6	-5,243
1044	-6,329
1044,4	-2,7
1044,8	-1,1
1045,2	3,529
1045,6	8,071
1046,1	7,671
1046,5	14,3
1046,9	15,957
1047,3	17,586
1047,7	16,871
1048,1	14,586
1048,5	7,214
1049	11,1
1049,4	5,986
1049,8	3,043
1050,2	0,957
1050,6	-0,1
1051	4,586
1051,4	4,7
1051,9	5,843
1052,3	-0,214
1052,7	0,214
1053,1	2,386
1053,5	4,757
1053,9	-0,443
1054,3	-2,986
1054,8	-5,557
1055,2	-0,643
1055,6	-1,243
1056	-4,614
1056,4	-7,786
1056,8	-4,129
1057,2	4,129
1057,6	2,3
1058,1	3,014
1058,5	1,329
1058,9	6,071
1059,3	14,471
1059,7	8,329
1060,1	2,7
1060,5	0,186
1061	0,386
1061,4	8,9
1061,8	5,786
1062,2	1,3
1062,6	8,443
1063	8,071
1063,4	9,243
1063,8	7,871
1064,3	6,814
1064,7	4,357
1065,1	3,929
1065,5	1,814
1065,9	3,129
1066,3	3,129
1066,7	1,129
1067,1	-4,843
1067,6	-0,643
1068	-3,386
1068,4	-2,843
1068,8	-5,329
1069,2	-4,014
1069,6	-2,843
1070	-1,471
1070,4	-3,614
1070,9	-3,186
1071,3	-2,014
1071,7	-1,186
1072,1	1,414
1072,5	5,214
1072,9	11,871
1073,3	15,1
1073,7	14,157
1074,2	15,329
1074,6	14,157
1075	14,243
1075,4	12,357
1075,8	7,986
1076,2	2,957
1076,6	5,186
1077	0,129
1077,5	-1,329
1077,9	-2,9
1078,3	-5,671
1078,7	-6,271
1079,1	-2,643
1079,5	-6,929
1079,9	-0,386
1080,3	4,1
1080,7	7,329
1081,2	8,729
1081,6	10,157
1082	6,843
1082,4	7,329
1082,8	-1,871
1083,2	-4,243
1083,6	-6,643
1084	-7,471
1084,5	-10,843
1084,9	-11,871
1085,3	-6,7
1085,7	-6,843
1086,1	-9,929
1086,5	-10,1
1086,9	-8,586
1087,3	-3,757
1087,7	1,357
1088,2	-2,071
1088,6	1,186
1089	-0,586
1089,4	-2,1
1089,8	0,357
1090,2	1,071
1090,6	-2,814
1091	1,729
1091,4	3,529
1091,9	9,529
1092,3	10,014
1092,7	2,671
1093,1	-4,071
1093,5	-4,671
1093,9	-6,529
1094,3	-5,557
1094,7	-9,386
1095,1	-11,5
1095,5	-7,9
1096	-7,929
1096,4	-7,243
1096,8	-12,043
1097,2	-14,271
1097,6	-12,214
1098	-10,043
1098,4	-7,1
1098,8	-6,729
1099,2	-7,5
1099,6	-0,1
1100,1	1,3
1100,5	5,329
1100,9	5,129
1101,3	1,843
1101,7	9,014
1102,1	9,414
1102,5	6,243
1102,9	1,557
1103,3	-1,643
1103,7	-2,1
1104,2	1,986
1104,6	-3,1
1105	-0,957
1105,4	-1,986
1105,8	1,757
1106,2	1,757
1106,6	1,443
1107	-1,214
1107,4	-1,2
1107,8	-2,38
1108,3	-0,25
