Data from Subt2_117.txt Node
Date: Sat Aug 26 18:22:48 MSK 2023
User: vat
Spectrometer: MAYP114033
Trigger mode: 0
Integration Time (sec): 1,000000E0
Scans to average: 5
Electric dark correction enabled: true
Nonlinearity correction enabled: false
Boxcar width: 3
XAxis mode: Wavelengths
Number of Pixels in Spectrum: 2068
>>>>>Begin Spectral Data<<<<<
199,4	-0,767
199,9	-1,787
200,4	0,3
200,8	1,105
201,3	2,562
201,8	2,19
202,2	0,876
202,7	4,19
203,2	5,019
203,6	1,248
204,1	-2,895
204,6	-4,41
205	-3,295
205,5	-2,038
206	-5,095
206,4	-5,124
206,9	-5,095
207,4	-1,581
207,8	-1,81
208,3	-0,838
208,8	-0,181
209,2	1,562
209,7	-2,238
210,2	0,733
210,6	0,448
211,1	1,219
211,5	0,105
212	-0,667
212,5	-2,238
212,9	0,705
213,4	0,99
213,9	-2,724
214,3	-3,552
214,8	-3,152
215,3	-6,838
215,7	-3,838
216,2	-2,21
216,7	-2,352
217,1	0,476
217,6	-0,838
218,1	-1,495
218,5	-0,895
219	-10,095
219,5	-7,21
219,9	-9,838
220,4	-5,295
220,9	-1,41
221,3	-1,038
221,8	4,19
222,3	10,305
222,7	11,39
223,2	12,762
223,6	10,648
224,1	5,019
224,6	6,762
225	3,362
225,5	2,648
226	-0,781
226,4	1,648
226,9	3,162
227,4	8,533
227,8	-0,01
228,3	-1,81
228,8	-0,695
229,2	2,876
229,7	2,076
230,2	-0,095
230,6	2,962
231,1	13,505
231,5	18,876
232	18,276
232,5	13,505
232,9	14,905
233,4	16,762
233,9	13,705
234,3	10,219
234,8	8,419
235,3	5,476
235,7	7,733
236,2	4,39
236,7	2,276
237,1	0,333
237,6	-2,124
238,1	-2,267
238,5	-1,61
239	-2,41
239,4	3,733
239,9	0,448
240,4	1,99
240,8	5,533
241,3	3,676
241,8	2,19
242,2	3,133
242,7	-6,295
243,2	-1,524
243,6	-2,952
244,1	-2,438
244,6	-0,895
245	-0,524
245,5	-1,752
245,9	0,848
246,4	0,59
246,9	-0,01
247,3	1,162
247,8	0,648
248,3	7,505
248,7	7,705
249,2	10,362
249,7	8,676
250,1	8,933
250,6	3,876
251	5,133
251,5	1,676
252	0,79
252,4	1,133
252,9	-1,324
253,4	-3,695
253,8	-1,924
254,3	-1,495
254,8	0,248
255,2	-1,895
255,7	-4,695
256,1	1,505
256,6	5,848
257,1	6,533
257,5	0,933
258	-0,867
258,5	-2,495
258,9	1,162
259,4	-2,495
259,9	-2,552
260,3	-5,41
260,8	-3,724
261,2	-3,238
261,7	1,105
262,2	-2,61
262,6	-3,838
263,1	1,99
263,6	5,676
264	9,105
264,5	10,59
264,9	7,505
265,4	7,876
265,9	9,076
266,3	3,305
266,8	6,105
267,3	6,362
267,7	-0,724
268,2	-1,438
268,7	-2,495
269,1	-1,324
269,6	-8,867
270	-10,895
270,5	-14,724
271	-8,581
271,4	-4,867
271,9	-7,495
272,4	-5,381
272,8	0,59
273,3	-1,21
273,7	3,19
274,2	2,362
274,7	4,133
275,1	11,59
275,6	6,305
276,1	2,676
276,5	1,79
277	-1,124
277,4	-1,895
277,9	-4,581
278,4	-5,952
278,8	-2,524
279,3	2,39
279,8	3,619
280,2	5,105
280,7	6,733
281,1	1,705
281,6	-1,01
282,1	-1,838
282,5	-5,238
283	-5,924
283,4	-8,067
283,9	-8,238
284,4	0,105
284,8	3,019
285,3	0,733
285,8	2,59
286,2	1,733
286,7	5,905
287,1	0,848
287,6	-3,438
288,1	-7,552
288,5	-5,238
289	-5,952
289,5	-3,381
289,9	-8,524
290,4	0,505
290,8	1,676
291,3	4,819
291,8	6,819
292,2	8,619
292,7	9,162
293,1	8,819
293,6	7,876
294,1	5,305
294,5	2,19
295	1,79
295,5	0,448
295,9	-3,952
296,4	-5,867
296,8	-8,067
297,3	-4,552
297,8	-3,067
298,2	-10,495
298,7	-4,838
299,1	-2,981
299,6	-1,238
300,1	-0,181
300,5	-0,552
301	-0,81
301,5	6,305
301,9	2,619
302,4	1,19
302,8	4,819
303,3	1,19
303,8	1,019
304,2	1,533
304,7	-0,61
305,1	-3,752
305,6	-3,724
306,1	2,39
306,5	2,305
307	3,419
307,4	6,905
307,9	7,276
308,4	8,876
308,8	6,762
309,3	0,162
309,8	0,876
310,2	0,39
310,7	-3,467
311,1	-4,781
311,6	-3,495
312,1	3,419
312,5	6,562
313	7,305
313,4	7,848
313,9	9,676
314,4	10,048
314,8	9,133
315,3	4,59
315,7	-1,21
316,2	-0,495
316,7	-4,638
317,1	-4,895
317,6	-1,895
318	0,562
318,5	2,276
319	3,562
319,4	3,505
319,9	10,448
320,3	11,305
320,8	10,79
321,3	11,762
321,7	11,533
322,2	15,59
322,6	12,79
323,1	9,676
323,6	6,848
324	3,562
324,5	-0,552
324,9	2,819
325,4	-1,81
325,9	1,562
326,3	-0,438
326,8	6,448
327,2	6,105
327,7	8,99
328,2	7,705
328,6	9,819
329,1	8,648
329,5	9,99
330	5,219
330,5	7,276
330,9	6,39
331,4	5,562
331,8	6,105
332,3	8,79
332,8	7,505
333,2	5,819
333,7	5,248
334,1	3,962
334,6	0,476
335,1	-5,41
335,5	-4,61
336	-2,981
336,4	-0,838
336,9	4,562
337,4	10,248
337,8	9,305
338,3	16,048
338,7	12,676
339,2	10,705
339,7	11,962
340,1	5,162
340,6	0,476
341	3,048
341,5	-1,352
342	-4,81
342,4	-3,381
342,9	-7,495
343,3	-4,095
343,8	-7,895
344,2	-5,438
344,7	3,762
345,2	5,733
345,6	4,733
346,1	9,419
346,5	7,19
347	9,762
347,5	6,219
347,9	3,619
348,4	7,076
348,8	9,048
349,3	7,305
349,8	10,648
350,2	15,59
350,7	16,648
351,1	14,162
351,6	16,105
352	19,905
352,5	20,762
353	25,962
353,4	25,219
353,9	31,619
354,3	41,733
354,8	46,219
355,3	58,562
355,7	75,59
356,2	90,619
356,6	111,448
357,1	133,419
357,5	153,505
358	185,505
358,5	207,733
358,9	238,962
359,4	274,39
359,8	314,648
360,3	363,505
360,8	413,333
361,2	467,476
361,7	532,305
362,1	602,133
362,6	682,19
363	765,248
363,5	850,933
364	947,648
364,4	1042,619
364,9	1141,019
365,3	1234,59
365,8	1315,19
366,3	1399,276
366,7	1475,733
367,2	1533,99
367,6	1584,448
368,1	1625,876
368,5	1651,619
369	1668,905
369,5	1668,219
369,9	1653,79
370,4	1633,105
370,8	1595,333
371,3	1542,105
371,7	1486,248
372,2	1424,962
372,7	1352,705
373,1	1278,076
373,6	1199,762
374	1128,476
374,5	1054,676
374,9	983,333
375,4	910,59
375,9	843,848
376,3	777,219
376,8	716,476
377,2	657,819
377,7	604,505
378,2	554,333
378,6	510,219
379,1	468,419
379,5	435,59
380	404,99
380,4	371,305
380,9	341,39
381,4	308,762
381,8	282,933
382,3	263,333
382,7	242,219
383,2	220,848
383,6	204,019
384,1	191,59
384,6	181,848
385	163,79
385,5	146,19
385,9	133,933
386,4	123,79
386,8	117,962
387,3	106,448
387,7	101,276
388,2	99,99
388,7	95,505
389,1	89,133
389,6	85,105
390	77,733
390,5	77,562
390,9	72,79
391,4	67,248
391,9	65,219
392,3	63,733
392,8	55,933
393,2	49,705
393,7	44,533
394,1	41,962
394,6	40,39
395,1	38,99
395,5	36,419
396	38,819
396,4	38,705
396,9	38,619
397,3	40,676
397,8	43,933
398,2	43,19
398,7	40,562
399,2	36,448
399,6	39,848
400,1	35,562
400,5	30,962
401	25,59
401,4	25,162
401,9	29,276
402,4	34,905
402,8	31,676
403,3	39,676
403,7	40,819
404,2	46,419
404,6	49,762
405,1	47,705
405,5	50,076
406	57,219
406,5	53,819
406,9	56,505
407,4	54,162
407,8	57,105
408,3	63,676
408,7	63,819
409,2	66,362
409,6	71,79
410,1	80,019
410,6	91,162
411	97,248
411,5	103,19
411,9	111,79
412,4	121,019
412,8	130,99
413,3	132,476
413,7	140,276
414,2	145,248
414,7	160,848
415,1	173,333
415,6	180,276
416	192,048
416,5	202,848
416,9	208,162
417,4	226,39
417,8	237,762
418,3	252,133
418,8	271,19
419,2	285,705
419,7	305,505
420,1	329,505
420,6	341,076
421	353,39
421,5	374,905
421,9	393,133
422,4	416,533
422,8	441,933
423,3	461,39
423,8	488,162
424,2	515,848
424,7	536,448
425,1	565,133
425,6	597,333
426	625,476
426,5	661,619
426,9	698,19
427,4	727,248
427,9	760,676
428,3	800,848
428,8	836,19
429,2	879,419
429,7	916,848
430,1	962,619
430,6	1015,99
431	1074,933
431,5	1128,305
431,9	1183,676
432,4	1241,648
432,8	1309,476
433,3	1375,705
433,8	1444,533
434,2	1515,619
434,7	1587,676
435,1	1666,105
435,6	1753,705
436	1842,362
436,5	1937,19
436,9	2031,105
437,4	2125,39
437,8	2227,59
438,3	2337,905
438,8	2445,419
439,2	2554,448
439,7	2665,162
440,1	2786,648
440,6	2917,933
441	3045,962
441,5	3176,705
441,9	3315,933
442,4	3453,533
442,8	3605,305
443,3	3757,362
443,7	3915,962
444,2	4082,962
444,7	4253,162
445,1	4427,276
445,6	4610,733
446	4793,876
446,5	4981,019
446,9	5166,105
447,4	5369,419
447,8	5566,533
448,3	5780,648
448,7	5994,762
449,2	6209,99
449,6	6428,848
450,1	6651,219
450,6	6872,019
451	7103,762
451,5	7334,905
451,9	7576,59
452,4	7820,705
452,8	8064,505
453,3	8322,705
453,7	8579,876
454,2	8851,162
454,6	9114,648
455,1	9384,219
455,5	9654,648
456	9945,876
456,4	10215,733
456,9	10502,705
457,3	10789,819
457,8	11067,762
458,3	11359,133
458,7	11648,276
459,2	11935,076
459,6	12251,705
460,1	12548,99
460,5	12841,733
461	13159,333
461,4	13462,105
461,9	13773,276
462,3	14086,819
462,8	14389,048
463,2	14695,79
463,7	15006,019
464,1	15312,562
464,6	15620,876
465	15922,848
465,5	16224,276
466	16524,105
466,4	16822,619
466,9	17122,648
467,3	17409,505
467,8	17705,133
468,2	18007,019
468,7	18302,676
469,1	18606,448
469,6	18895,219
470	19189,39
470,5	19483,705
470,9	19759,419
471,4	20022,848
471,8	20296,733
472,3	20561,99
472,7	20821,962
473,2	21070,19
473,6	21315,705
474,1	21577,59
474,5	21830,19
475	22068,362
475,4	22290,533
475,9	22525,905
476,4	22747,505
476,8	22963,533
477,3	23164,248
477,7	23369,076
478,2	23562,19
478,6	23749,362
479,1	23930,733
479,5	24108,133
480	24279,076
480,4	24442,99
480,9	24584,362
481,3	24705,762
481,8	24845,219
482,2	24954,019
482,7	25068,79
483,1	25178,762
483,6	25257,048
484	25352,99
484,5	25463,019
484,9	25536,962
485,4	25624,676
485,8	25691,933
486,3	25744,619
486,7	25819,705
487,2	25879,39
487,6	25912,79
488,1	25937,905
488,5	25962,419
489	25977,562
489,4	25999,333
489,9	25998,705
490,4	25981,105
490,8	25977,876
491,3	25969,333
491,7	25933,476
492,2	25906,248
492,6	25848,99
493,1	25794,076
493,5	25735,333
494	25657,762
494,4	25581,076
494,9	25505,105
495,3	25423,19
495,8	25354,105
496,2	25284,076
496,7	25194,276
497,1	25110,419
497,6	25016,019
498	24929,79
498,5	24835,676
498,9	24717,333
499,4	24600,248
499,8	24496,048
500,3	24389,562
500,7	24266,305
501,2	24133,676
501,6	23993,848
502,1	23862,248
502,5	23727,505
503	23595,162
503,4	23446,962
503,9	23314,276
504,3	23180,419
504,8	23030,876
505,2	22887,876
505,7	22722,848
506,1	22559,105
506,6	22387,848
507	22215,333
507,5	22045,133
507,9	21884,105
508,4	21713,019
508,8	21548,105
509,3	21369,105
509,7	21202,676
510,2	21022,39
510,6	20843,59
511,1	20664,476
511,5	20480,505
512	20302,905
512,4	20133,048
512,9	19948,448
513,3	19778,333
513,8	19591,39
514,2	19401,39
514,7	19219,962
515,1	19034,019
515,6	18842,419
516	18652,705
516,5	18467,562
516,9	18288,962
517,4	18109,762
517,8	17928,762
518,3	17754,448
518,7	17569,048
519,2	17394,362
519,6	17203,533
520,1	17011,019
520,5	16830,248
521	16641,962
521,4	16439,505
521,9	16260,219
522,3	16074,648
522,8	15904,362
523,2	15741,105
523,7	15567,448
524,1	15394,819
524,6	15218,733
525	15053,448
525,5	14886,162
525,9	14715,048
526,4	14542,076
526,8	14381,905
527,3	14227,648
527,7	14083,905
528,2	13921,305
528,6	13763,848
529,1	13623,133
529,5	13470,39
530	13312,905
530,4	13157,476
530,9	13008,533
531,3	12863,305
531,8	12718,648
532,2	12570,219
532,6	12433,305
533,1	12283,676
533,5	12143,048
534	12007,962
534,4	11869,562
534,9	11736,333
535,3	11596,819
535,8	11454,276
536,2	11335,019
536,7	11212,762
537,1	11078,762
537,6	10952,362
538	10826,676
538,5	10707,79
538,9	10590,79
539,4	10469,419
539,8	10346,79
540,3	10238,248
540,7	10125,133
541,2	10005,819
541,6	9891,419
542,1	9782,419
542,5	9670,305
543	9563,705
543,4	9447,562
543,9	9348,448
544,3	9255,048
544,8	9154,676
545,2	9056,333
545,7	8963,962
546,1	8874,476
546,5	8782,333
547	8682,705
547,4	8589,59
547,9	8490,419
548,3	8399,848
548,8	8307,59
549,2	8206,048
549,7	8119,276
550,1	8030,362
550,6	7944,533
551	7861,819
551,5	7778,99
551,9	7699,933
552,4	7624,248
552,8	7547,39
553,3	7470,562
553,7	7389,019
554,2	7321,419
554,6	7246,905
555,1	7172,733
555,5	7102,133
555,9	7031,905
556,4	6954,705
556,8	6897,505
557,3	6827,79
557,7	6763,905
558,2	6698,448
558,6	6634,79
559,1	6567,79
559,5	6521,39
560	6456,19
560,4	6391,019
560,9	6325,505
561,3	6257,362
561,8	6193,048
562,2	6138,79
562,7	6079,105
563,1	6022,533
563,6	5966,848
564	5917,762
564,4	5865,705
564,9	5821,933
565,3	5764,19
565,8	5711,905
566,2	5658,448
566,7	5615,79
567,1	5567,448
567,6	5522,419
568	5463,762
568,5	5416,733
568,9	5361,619
569,4	5315,99
569,8	5264,133
570,3	5215,562
570,7	5160,562
571,1	5113,733
571,6	5064,619
572	5021,162
572,5	4976,476
572,9	4932,533
573,4	4887,905
573,8	4855,533
574,3	4821,648
574,7	4783,676
575,2	4747,019
575,6	4703,476
576,1	4669,419
576,5	4625,619
576,9	4577,362
577,4	4533,305
577,8	4487,762
578,3	4445,79
578,7	4401,076
579,2	4359,59
579,6	4322,39
580,1	4287,733
580,5	4255,248
581	4232,505
581,4	4195,933
581,9	4167,505
582,3	4128,419
582,7	4096,305
583,2	4064,048
583,6	4030,619
584,1	3989,562
584,5	3949,762
585	3912,905
585,4	3873,79
585,9	3842,533
586,3	3812,962
586,8	3779,99
587,2	3747,019
587,6	3725,705
588,1	3706,59
588,5	3685,105
589	3658,276
589,4	3625,105
589,9	3596,848
590,3	3567,848
590,8	3539,476
591,2	3505,619
591,7	3480,39
592,1	3452,219
592,5	3432,676
593	3403,876
593,4	3381,762
593,9	3358,39
594,3	3329,79
594,8	3305,533
595,2	3282,619
595,7	3254,476
596,1	3231,105
596,6	3209,476
597	3181,133
597,4	3158,333
597,9	3134,762
598,3	3114,476
598,8	3093,162
599,2	3072,733
599,7	3049,019
600,1	3027,648
600,6	3017,19
601	3001,533
601,4	2983,79
601,9	2970,162
602,3	2952,562
602,8	2937,333
603,2	2927,933
603,7	2901,705
604,1	2877,048
604,6	2851,962
605	2826,19
605,4	2802,705
605,9	2780,105
606,3	2744,762
606,8	2724,533
607,2	2702,505
607,7	2681,076
608,1	2665,905
608,6	2652,962
609	2643,39
609,4	2640,876
609,9	2623,105
610,3	2606,619
610,8	2590,733
611,2	2568,962
611,7	2548,305
612,1	2522,59
612,6	2507,59
613	2491,619
613,4	2476,019
613,9	2464,419
614,3	2447,362
614,8	2435,362
615,2	2415,305
615,7	2392,333
616,1	2377,533
616,6	2354,019
617	2332,876
617,4	2315,505
617,9	2297,276
618,3	2289,476
618,8	2277,619
619,2	2260,362
619,7	2254,448
620,1	2236,733
620,5	2227,648
621	2213,39
621,4	2195,99
621,9	2174,819
622,3	2162,248
622,8	2143,848
623,2	2135,933
623,6	2115,448
624,1	2100,162
624,5	2085,276
625	2073,419
625,4	2058,133
625,9	2045,533
626,3	2025,819
626,8	2015,248
627,2	1998,048
627,6	1976,876
628,1	1956,476
628,5	1940,848
629	1923,019
629,4	1909,39
629,9	1892,305
630,3	1875,419
630,7	1862,905
631,2	1854,648
631,6	1840,162
632,1	1826,419
632,5	1811,505
633	1797,905
633,4	1793,676
633,8	1783,219
634,3	1768,419
634,7	1752,162
635,2	1735,59
635,6	1724,562
636,1	1709,333
636,5	1687,019
636,9	1672,105
637,4	1659,676
637,8	1648,419
638,3	1639,648
638,7	1628,019
639,2	1615,648
639,6	1605,533
640	1593,79
640,5	1585,419
640,9	1578,59
641,4	1569,19
641,8	1558,219
642,2	1550,99
642,7	1552,276
643,1	1550,248
643,6	1538,533
644	1526,933
644,5	1520,019
644,9	1508,276
645,3	1497,676
645,8	1479,305
646,2	1464,676
646,7	1454,99
647,1	1440,619
647,6	1429,19
648	1425,019
648,4	1416,248
648,9	1405,448
649,3	1395,019
649,8	1388,819
650,2	1384,762
650,6	1375,676
651,1	1362,676
651,5	1358,876
652	1353,39
652,4	1343,133
652,9	1328,648
653,3	1318,648
653,7	1311,305
654,2	1300,362
654,6	1287,933
655,1	1280,876
655,5	1279,562
655,9	1271,419
656,4	1263,048
656,8	1249,505
657,3	1243,19
657,7	1238,105
658,2	1224,39
658,6	1208,276
659	1200,248
659,5	1189,333
659,9	1185,076
660,4	1175,562
660,8	1164,762
661,2	1154,305
661,7	1145,762
662,1	1140,79
662,6	1133,105
663	1124,333
663,4	1117,619
663,9	1105,019
664,3	1100,762
664,8	1092,933
665,2	1076,933
665,6	1067,162
666,1	1059,048
666,5	1050,162
667	1047,533
667,4	1039,533
667,9	1032,819
668,3	1027,933
668,7	1019,305
669,2	1015,476
669,6	1009,562
670,1	999,39
670,5	989,333
670,9	979,419
671,4	970,733
671,8	968,79
672,3	957,876
672,7	950,19
673,1	939,848
673,6	928,362
674	926,448
674,5	922,076
674,9	910,876
675,3	903,333
675,8	895,705
676,2	891,59
676,7	889,476
677,1	884,962
677,5	875,876
678	873,819
678,4	871,905
678,9	865,048
679,3	860,99
679,7	852,648
680,2	837,505
680,6	830,105
681,1	821,819
681,5	816,333
681,9	815,276
682,4	810,219
682,8	809,333
683,3	810,933
683,7	811,819
684,1	807,333
684,6	793,419
685	783,019
685,5	775,048
685,9	764,762
686,3	755,705
686,8	747,619
687,2	741,248
687,7	738,876
688,1	733,076
688,5	726,705
689	723,705
689,4	719,333
689,9	712,99
690,3	708,705
690,7	703,676
691,2	700,962
691,6	694,733
692	690,333
692,5	687,648
692,9	680,819
693,4	673,533
693,8	671,876
694,2	662,448
694,7	656,305
695,1	652,048
695,6	646,905
696	648,133
696,4	641,19
696,9	632,705
697,3	629,905
697,8	629,076
698,2	621,419
698,6	619,39
699,1	611,59
699,5	611,962
699,9	607,562
700,4	603,876
700,8	599,648
701,3	596,162
701,7	585,105
702,1	585,39
702,6	578,848
703	575,99
703,5	567,276
703,9	559,048
704,3	563,619
704,8	561,162
705,2	552,848
705,6	549,019
706,1	541,39
706,5	544,505
707	545,905
707,4	536,876
707,8	528,562
708,3	524,905
708,7	522,133
709,2	523,39
709,6	514,848
710	511,962
710,5	503,933
710,9	503,076
711,3	500,19
711,8	497,648
712,2	492,619
712,7	486,962
713,1	480,705
713,5	478,333
714	481,676
714,4	475,419
714,8	473,133
715,3	466,162
715,7	464,705
716,2	458,733
716,6	458,99
717	447,105
717,5	445,962
717,9	442,219
718,3	440,676
718,8	440,019
719,2	439,048
719,7	431,276
720,1	431,448
720,5	431,762
721	427,79
721,4	424,248
721,8	424,705
722,3	419,048
722,7	422,048
723,2	417,19
723,6	404,19
724	397,676
724,5	392,505
724,9	383,133
725,3	382,419
725,8	376,305
726,2	374,933
726,7	376,562
727,1	374,733
727,5	373,819
728	369,79
728,4	366,848
728,8	362,019
729,3	354,762
729,7	350,933
730,1	351,333
730,6	347,619
731	345,876
731,5	342,676
731,9	341,562
732,3	345,276
732,8	348,019
733,2	343,905
733,6	343,476
734,1	344,076
734,5	343,362
734,9	341,705
735,4	338,676
735,8	333,562
736,3	335,705
736,7	330,133
737,1	329,676
737,6	324,619
738	323,505
738,4	321,305
738,9	321,59
739,3	311,962
739,7	314,933
740,2	308,848
740,6	311,905
741,1	313,362
741,5	305,59
741,9	299,648
742,4	304,705
742,8	302,533
743,2	306,362
743,7	300,419
744,1	292,19
744,5	291,305
745	289,79
745,4	282,048
745,8	278,99
746,3	272,648
746,7	269,619
747,2	268,162
747,6	271,905
748	273,133
748,5	277,648
748,9	271,19
749,3	268,533
749,8	268,762
750,2	268,819
750,6	262,162
751,1	263,133
751,5	258,876
751,9	265,162
752,4	265,99
752,8	264,505
753,3	262,219
753,7	266,019
754,1	257,505
754,6	252,248
755	245,648
755,4	239,076
755,9	236,019
756,3	232,39
756,7	228,79
757,2	231,076
757,6	231,019
758	229,705
758,5	226,905
758,9	228,162
759,3	226,705
759,8	225,39
760,2	225,505
760,6	223,476
761,1	223,562
761,5	225,505
761,9	219,762
762,4	215,962
762,8	212,705
763,3	207,505
763,7	206,962
764,1	205,962
764,6	203,248
765	205,076
765,4	206,648
765,9	207,219
766,3	208,848
766,7	208,219
767,2	203,419
767,6	209,99
768	208,419
768,5	208,562
768,9	204,905
769,3	200,476
769,8	194,533
770,2	198,19
770,6	192,248
771,1	194,762
771,5	193,305
771,9	196,133
772,4	198,962
772,8	201,019
773,2	200,19
773,7	196,762
774,1	191,819
774,5	188,762
775	184,99
775,4	181,048
775,8	179,419
776,3	177,333
776,7	179,505
777,1	178,59
777,6	178,276
778	183,448
778,4	183,276
778,9	185,076
779,3	183,19
779,7	182,305
780,2	180,419
780,6	178,933
781	173,79
781,5	166,419
781,9	163,562
782,3	157,39
782,8	154,562
783,2	153,419
783,6	158,905
784,1	157,819
784,5	160,219
784,9	159,505
785,4	165,59
785,8	163,505
786,2	164,362
786,7	157,848
787,1	152,448
787,5	152,276
788	149,476
788,4	146,276
788,8	145,59
789,3	139,933
789,7	141,876
790,1	146,105
790,6	142,933
791	142,076
791,4	141,476
791,9	139,305
792,3	139,162
792,7	137,676
793,2	132,619
793,6	133,562
794	132,562
794,5	129,505
794,9	131,419
795,3	135,333
795,8	130,162
796,2	133,39
796,6	134,305
797,1	135,562
797,5	133,733
797,9	132,048
798,4	126,505
798,8	127,676
799,2	122,162
799,7	123,162
800,1	119,219
800,5	120,276
801	122,076
801,4	123,876
801,8	121,39
802,2	123,276
802,7	115,762
803,1	118,333
803,5	119,019
804	114,733
804,4	113,79
804,8	112,019
805,3	115,39
805,7	119,276
806,1	116,448
806,6	115,162
807	115,99
807,4	113,905
807,9	111,676
808,3	105,162
808,7	102,333
809,2	103,448
809,6	103,448
810	98,562
810,4	94,933
810,9	94,505
811,3	99,133
811,7	99,562
812,2	102,305
812,6	98,333
813	103,962
813,5	109,762
813,9	112,848
814,3	108,876
814,8	109,505
815,2	101,733
815,6	101,59
816,1	101,59
816,5	98,79
816,9	98,19
817,3	96,448
817,8	102,333
818,2	105,876
818,6	105,419
819,1	97,619
819,5	95,476
819,9	95,39
820,4	93,705
820,8	85,533
821,2	78,048
821,7	78,562
822,1	85,133
822,5	89,733
822,9	89,133
823,4	87,133
823,8	86,762
824,2	89,076
824,7	84,962
825,1	77,648
825,5	70,905
826	67,533
826,4	69,905
826,8	68,876
827,3	70,333
827,7	69,59
828,1	73,562
828,5	75,248
829	71,933
829,4	71,105
829,8	68,105
830,3	64,048
830,7	65,305
831,1	67,59
831,6	67,476
832	70,59
832,4	70,19
832,8	74,562
833,3	76,533
833,7	74,448
834,1	66,362
834,6	62,99
835	63,076
835,4	62,048
835,8	53,876
836,3	54,276
836,7	60,333
837,1	60,19
837,6	61,476
838	60,505
838,4	61,79
838,9	67,162
839,3	68,019
839,7	64,305
840,1	61,133
840,6	58,905
841	59,448
841,4	57,505
841,9	56,105
842,3	53,276
842,7	54,133
843,1	55,505
843,6	57,419
844	54,876
844,4	58,133
844,9	60,562
845,3	61,19
845,7	58,448
846,2	57,79
846,6	59,048
847	58,533
847,4	54,819
847,9	51,333
848,3	49,905
848,7	47,533
849,2	49,305
849,6	44,533
850	48,419
850,4	49,79
850,9	51,562
851,3	53,99
851,7	58,533
852,2	56,619
852,6	58,019
853	54,333
853,4	49,133
853,9	44,305
854,3	40,905
854,7	42,076
855,2	40,79
855,6	41,248
856	40,19
856,4	41,248
856,9	39,876
857,3	42,79
857,7	38,448
858,2	43,676
858,6	40,59
859	40,248
859,4	39,248
859,9	39,19
860,3	33,39
860,7	35,105
861,1	33,59
861,6	32,876
862	35,933
862,4	32,533
862,9	36,476
863,3	37,762
863,7	32,933
864,1	29,79
864,6	30,248
865	25,448
865,4	32,333
865,9	31,733
866,3	31,419
866,7	32,305
867,1	28,533
867,6	31,048
868	31,505
868,4	28,933
868,8	26,905
869,3	28,876
869,7	35,562
870,1	38,562
870,6	36,619
871	-36,867
871,4	-33,638
871,8	-34,552
872,3	-34,381
872,7	-42,438
873,1	-46,038
873,5	-46,581
874	25,962
874,4	23,962
874,8	20,79
875,3	19,39
875,7	18,476
876,1	23,533
876,5	22,705
877	24,39
877,4	21,733
877,8	25,933
878,2	25,076
878,7	30,533
879,1	30,648
879,5	32,248
879,9	31,048
880,4	33,362
880,8	34,39
881,2	34,19
881,7	28,048
882,1	28,105
882,5	26,305
882,9	26,562
883,4	23,876
883,8	22,019
884,2	22,505
884,6	24,562
885,1	22,733
885,5	22,848
885,9	22,105
886,3	22,076
886,8	21,59
887,2	18,476
887,6	19,019
888	15,333
888,5	14,59
888,9	13,733
889,3	8,962
889,8	8,448
890,2	11,848
890,6	9,048
891	12,676
891,5	15,762
891,9	18,505
892,3	22,562
892,7	25,619
893,2	24,59
893,6	24,248
894	23,876
894,4	22,819
894,9	22,076
895,3	23,133
895,7	21,333
896,1	20,876
896,6	23,019
897	23,448
897,4	21,648
897,8	23,305
898,3	22,619
898,7	18,162
899,1	15,705
899,5	15,076
900	10,962
900,4	10,562
900,8	5,933
901,2	2,533
901,7	4,933
902,1	6,419
902,5	8,305
902,9	8,505
903,4	10,59
903,8	10,59
904,2	11,048
904,6	15,59
905,1	18,419
905,5	15,819
905,9	16,848
906,3	17,876
906,8	19,162
907,2	21,933
907,6	20,476
908	18,619
908,5	19,648
908,9	20,162
909,3	19,162
909,7	18,105
910,2	15,248
910,6	17,133
911	13,162
911,4	13,876
911,9	11,562
912,3	7,676
912,7	9,476
913,1	12,905
913,6	5,733
914	7,762
914,4	5,562
914,8	9,305
915,3	9,819
915,7	14,39
916,1	11,362
916,5	14,562
916,9	17,705
917,4	18,276
917,8	16,505
918,2	11,362
918,6	1,79
919,1	5,219
919,5	5,39
919,9	4,19
920,3	0,219
920,8	-1,781
921,2	3,762
921,6	7,39
922	4,848
922,5	7,219
922,9	5,448
923,3	5,105
923,7	6,162
924,2	3,333
924,6	5,705
925	7,133
925,4	0,848
925,8	0,476
926,3	5,676
926,7	8,076
927,1	9,79
927,5	7,99
928	1,333
928,4	1,39
928,8	4,019
929,2	-1,01
929,7	-3,124
930,1	-0,667
930,5	-3,752
930,9	4,79
931,3	6,505
931,8	4,248
932,2	9,476
932,6	7,962
933	4,362
933,5	2,533
933,9	-0,924
934,3	-0,638
934,7	-2,781
935,2	-5,752
935,6	-4,038
936	-0,81
936,4	2,362
936,8	-0,067
937,3	-0,467
937,7	4,076
938,1	6,676
938,5	6,019
939	5,848
939,4	11,648
939,8	13,79
940,2	13,276
940,6	12,248
941,1	11,305
941,5	13,905
941,9	9,933
942,3	3,705
942,8	2,933
943,2	4,476
943,6	-0,781
944	-0,952
944,4	-4,181
944,9	-0,667
945,3	2,933
945,7	1,362
946,1	0,59
946,6	4,162
947	3,962
947,4	8,419
947,8	7,533
948,2	1,59
948,7	5,048
949,1	1,39
949,5	4,533
949,9	1,505
950,3	-3,238
950,8	-4,41
951,2	-4,895
951,6	-9,095
952	-4,01
952,5	-9,381
952,9	-7,81
953,3	-6,124
953,7	-3,21
954,1	0,733
954,6	5,019
955	4,505
955,4	6,876
955,8	10,248
956,2	10,648
956,7	10,962
957,1	7,048
957,5	5,933
957,9	5,019
958,3	4,019
958,8	2,19
959,2	3,248
959,6	1,676
960	5,305
960,5	6,848
960,9	12,248
961,3	8,962
961,7	4,733
962,1	5,476
962,6	7,419
963	8,133
963,4	2,448
963,8	-3,124
964,2	-0,495
964,7	4,733
965,1	2,59
965,5	0,476
965,9	-0,124
966,3	2,876
966,8	1,619
967,2	4,248
967,6	4,219
968	2,105
968,4	1,076
968,9	0,333
969,3	6,59
969,7	7,019
970,1	6,133
970,5	4,276
971	9,305
971,4	8,876
971,8	8,076
972,2	2,933
972,6	-0,095
973,1	-2,267
973,5	0,133
973,9	0,248
974,3	-0,01
974,7	4,219
975,2	4,505
975,6	8,333
976	12,162
976,4	6,248
976,8	3,505
977,3	4,562
977,7	-0,638
978,1	-4,667
978,5	-7,181
978,9	-10,724
979,4	-8,81
979,8	-7,61
980,2	-8,838
980,6	-8,667
981	-4,267
981,5	-0,81
981,9	-6,667
982,3	-3,352
982,7	-2,295
983,1	-5,61
983,6	-3,895
984	-1,981
984,4	-3,124
984,8	7,076
985,2	4,905
985,6	1,048
986,1	5,39
986,5	4,162
986,9	-3,924
987,3	-3,324
987,7	-4,724
988,2	-7,095
988,6	-5,581
989	-7,952
989,4	-9,21
989,8	-5,581
990,3	-7,781
990,7	-10,895
991,1	-10,781
991,5	-10,41
991,9	-5,638
992,3	-3,01
992,8	0,99
993,2	2,448
993,6	1,648
994	9,048
994,4	10,533
994,9	9,048
995,3	7,648
995,7	3,362
996,1	0,619
996,5	3,962
996,9	-1,21
997,4	1,705
997,8	-3,724
998,2	-5,21
998,6	-9,152
999	-7,581
999,5	-11,124
999,9	-13,838
1000,3	-15,781
1000,7	-9,495
1001,1	-5,952
1001,5	0,448
1002	4,105
1002,4	9,19
1002,8	13,705
1003,2	12,848
1003,6	11,876
1004	11,733
1004,5	7,962
1004,9	6,305
1005,3	-1,924
1005,7	-5,095
1006,1	-6,895
1006,6	-7,895
1007	-9,924
1007,4	-8,181
1007,8	-6,352
1008,2	-4,267
1008,6	2,648
1009,1	2,333
1009,5	-0,095
1009,9	1,79
1010,3	2,648
1010,7	1,419
1011,1	4,99
1011,6	1,162
1012	1,162
1012,4	5,39
1012,8	2,448
1013,2	6,19
1013,6	3,419
1014,1	3,99
1014,5	3,648
1014,9	4,733
1015,3	-0,638
1015,7	1,562
1016,1	-3,781
1016,6	-2,295
1017	-3,267
1017,4	-2,467
1017,8	-1,724
1018,2	4,619
1018,6	2,448
1019,1	3,876
1019,5	1,248
1019,9	-1,295
1020,3	-3,438
1020,7	-6,895
1021,1	-13,61
1021,6	-15,267
1022	-15,695
1022,4	-13,895
1022,8	-7,695
1023,2	-5,81
1023,6	-2,981
1024,1	4,648
1024,5	9,762
1024,9	6,448
1025,3	7,848
1025,7	1,105
1026,1	2,505
1026,6	4,276
1027	-0,01
1027,4	1,705
1027,8	5,333
1028,2	3,762
1028,6	8,705
1029	5,99
1029,5	7,019
1029,9	5,648
1030,3	-1,267
1030,7	2,733
1031,1	6,848
1031,5	-1,21
1032	-0,752
1032,4	-4,324
1032,8	2,99
1033,2	8,333
1033,6	3,076
1034	-2,438
1034,4	-1,038
1034,9	2,99
1035,3	1,219
1035,7	-1,61
1036,1	-5,467
1036,5	-4,267
1036,9	-3,352
1037,4	4,962
1037,8	-2,124
1038,2	-3,581
1038,6	-5,981
1039	0,533
1039,4	0,848
1039,8	4,019
1040,3	1,248
1040,7	3,362
1041,1	8,076
1041,5	11,562
1041,9	2,505
1042,3	3,933
1042,7	5,762
1043,2	5,733
1043,6	6,105
1044	7,19
1044,4	6,019
1044,8	10,819
1045,2	6,276
1045,6	3,79
1046,1	2,733
1046,5	3,048
1046,9	1,133
1047,3	-1,638
1047,7	0,333
1048,1	2,59
1048,5	0,276
1049	4,362
1049,4	3,59
1049,8	4,962
1050,2	5,276
1050,6	7,59
1051	5,448
1051,4	2,762
1051,9	-3,695
1052,3	0,533
1052,7	0,505
1053,1	-1,581
1053,5	-4,867
1053,9	-2,667
1054,3	1,99
1054,8	6,305
1055,2	3,105
1055,6	-0,438
1056	1,79
1056,4	-2,667
1056,8	1,99
1057,2	3,648
1057,6	1,733
1058,1	-1,495
1058,5	-0,124
1058,9	1,419
1059,3	4,305
1059,7	-0,495
1060,1	-1,981
1060,5	-1,038
1061	4,648
1061,4	2,619
1061,8	1,105
1062,2	5,076
1062,6	7,39
1063	8,619
1063,4	3,505
1063,8	-0,152
1064,3	-1,324
1064,7	-1,838
1065,1	-2,581
1065,5	-6,952
1065,9	-9,495
1066,3	-1,752
1066,7	-5,838
1067,1	-0,724
1067,6	5,476
1068	-1,838
1068,4	0,219
1068,8	1,133
1069,2	-5,952
1069,6	-2,724
1070	-3,152
1070,4	-12,152
1070,9	-10,238
1071,3	-10,867
1071,7	-11,581
1072,1	-8,524
1072,5	-12,238
1072,9	-11,038
1073,3	-6,038
1073,7	-5,467
1074,2	-1,438
1074,6	-3,981
1075	-1,895
1075,4	4,448
1075,8	2,99
1076,2	3,248
1076,6	4,362
1077	-0,152
1077,5	6,276
1077,9	4,162
1078,3	1,762
1078,7	0,562
1079,1	-1,381
1079,5	-0,41
1079,9	0,933
1080,3	-1,238
1080,7	-1,095
1081,2	6,276
1081,6	6,362
1082	4,619
1082,4	8,419
1082,8	9,162
1083,2	9,39
1083,6	13,762
1084	4,19
1084,5	5,676
1084,9	5,59
1085,3	-1,181
1085,7	-1,238
1086,1	-1,924
1086,5	-5,438
1086,9	2,019
1087,3	-0,581
1087,7	0,419
1088,2	2,448
1088,6	-0,267
1089	0,676
1089,4	-0,552
1089,8	-4,867
1090,2	-5,21
1090,6	-4,752
1091	-2,952
1091,4	-0,524
1091,9	-4,238
1092,3	-2,552
1092,7	-3,781
1093,1	-1,067
1093,5	-0,524
1093,9	-0,781
1094,3	3,476
1094,7	3,276
1095,1	5,048
1095,5	8,276
1096	5,619
1096,4	5,905
1096,8	5,219
1097,2	1,448
1097,6	7,876
1098	6,562
1098,4	7,248
1098,8	8,962
1099,2	15,819
1099,6	14,933
1100,1	12,59
1100,5	6,39
1100,9	6,733
1101,3	5,848
1101,7	6,648
1102,1	-1,324
1102,5	1,276
1102,9	7,562
1103,3	11,19
1103,7	10,333
1104,2	10,305
1104,6	9,39
1105	8,876
1105,4	7,819
1105,8	2,933
1106,2	0,848
1106,6	0,448
1107	-1,01
1107,4	-1,5
1107,8	0,333
1108,3	-0,767
