Data from Subt2_075.txt Node
Date: Sat Aug 26 16:35:39 MSK 2023
User: vat
Spectrometer: MAYP114033
Trigger mode: 0
Integration Time (sec): 1,000000E0
Scans to average: 5
Electric dark correction enabled: true
Nonlinearity correction enabled: false
Boxcar width: 3
XAxis mode: Wavelengths
Number of Pixels in Spectrum: 2068
>>>>>Begin Spectral Data<<<<<
199,4	-0,867
199,9	0,733
200,4	-2,767
200,8	-1,181
201,3	-1,524
201,8	1,076
202,2	1,819
202,7	4,648
203,2	3,533
203,6	7,648
204,1	4,133
204,6	7,219
205	11,162
205,5	10,819
206	9,105
206,4	10,762
206,9	8,762
207,4	14,133
207,8	9,019
208,3	5,305
208,8	6,533
209,2	7,248
209,7	6,533
210,2	9,905
210,6	10,59
211,1	10,905
211,5	9,276
212	2,39
212,5	0,448
212,9	-0,724
213,4	1,562
213,9	-2,724
214,3	0,619
214,8	-0,724
215,3	4,962
215,7	2,962
216,2	5,048
216,7	-2,267
217,1	-2,181
217,6	-2,438
218,1	-0,667
218,5	2,705
219	10,562
219,5	11,562
219,9	16,819
220,4	17,362
220,9	19,876
221,3	18,676
221,8	10,962
222,3	6,048
222,7	-0,695
223,2	-1,981
223,6	-0,038
224,1	-3,095
224,6	-4,381
225	-1,61
225,5	4,419
226	10,39
226,4	9,962
226,9	4,848
227,4	4,99
227,8	9,305
228,3	11,933
228,8	4,448
229,2	6,133
229,7	3,676
230,2	12,533
230,6	14,362
231,1	12,162
231,5	13,305
232	18,248
232,5	13,39
232,9	17,619
233,4	14,219
233,9	10,448
234,3	11,419
234,8	13,819
235,3	13,933
235,7	18,333
236,2	16,562
236,7	13,762
237,1	14,59
237,6	13,819
238,1	11,019
238,5	8,362
239	6,79
239,4	5,619
239,9	6,219
240,4	5,876
240,8	8,619
241,3	2,162
241,8	0,533
242,2	-3,124
242,7	1,076
243,2	4,619
243,6	6,562
244,1	4,476
244,6	7,79
245	9,733
245,5	11,019
245,9	11,333
246,4	7,79
246,9	10,79
247,3	9,762
247,8	7,705
248,3	7,019
248,7	12,019
249,2	4,962
249,7	4,79
250,1	2,848
250,6	0,933
251	9,105
251,5	7,162
252	5,219
252,4	7,019
252,9	6,933
253,4	5,248
253,8	4,933
254,3	-0,067
254,8	2,076
255,2	1,505
255,7	5,905
256,1	6,362
256,6	8,79
257,1	14,819
257,5	18,762
258	19,905
258,5	18,905
258,9	14,162
259,4	15,305
259,9	14,733
260,3	10,562
260,8	8,333
261,2	7,79
261,7	8,962
262,2	12,79
262,6	12,105
263,1	9,99
263,6	14,476
264	12,676
264,5	14,19
264,9	15,733
265,4	12,99
265,9	14,962
266,3	18,962
266,8	14,133
267,3	14,333
267,7	13,248
268,2	11,676
268,7	13,676
269,1	7,733
269,6	5,019
270	11,648
270,5	15,876
271	15,99
271,4	10,733
271,9	8,305
272,4	13,476
272,8	13,048
273,3	5,876
273,7	1,276
274,2	2,476
274,7	6,505
275,1	2,933
275,6	1,448
276,1	1,048
276,5	4,505
277	6,448
277,4	4,848
277,9	4,219
278,4	11,648
278,8	16,733
279,3	15,676
279,8	15,476
280,2	13,105
280,7	10,848
281,1	12,619
281,6	10,162
282,1	9,99
282,5	16,505
283	14,333
283,4	14,733
283,9	12,99
284,4	9,648
284,8	10,333
285,3	3,962
285,8	-3,295
286,2	-4,067
286,7	-4,324
287,1	-1,924
287,6	-0,381
288,1	0,105
288,5	5,276
289	7,876
289,5	7,562
289,9	8,905
290,4	12,362
290,8	16,448
291,3	12,762
291,8	10,133
292,2	14,79
292,7	18,819
293,1	19,39
293,6	12,962
294,1	7,733
294,5	14,048
295	12,105
295,5	8,676
295,9	8,333
296,4	7,362
296,8	11,448
297,3	17,362
297,8	16,105
298,2	13,619
298,7	11,19
299,1	6,562
299,6	6,79
300,1	7,905
300,5	5,562
301	3,533
301,5	10,133
301,9	12,19
302,4	15,619
302,8	15,962
303,3	20,219
303,8	18,305
304,2	18,162
304,7	14,819
305,1	12,562
305,6	7,448
306,1	6,476
306,5	1,133
307	-0,895
307,4	-4,21
307,9	-0,81
308,4	2,762
308,8	10,59
309,3	11,676
309,8	14,905
310,2	14,362
310,7	21,705
311,1	14,848
311,6	11,59
312,1	9,39
312,5	11,476
313	4,962
313,4	9,39
313,9	9,533
314,4	7,505
314,8	11,019
315,3	10,39
315,7	7,248
316,2	10,019
316,7	5,705
317,1	-0,01
317,6	2,19
318	3,59
318,5	5,848
319	3,39
319,4	3,99
319,9	5,219
320,3	10,105
320,8	13,448
321,3	11,133
321,7	7,39
322,2	10,819
322,6	7,705
323,1	8,762
323,6	4,619
324	7,362
324,5	0,676
324,9	3,19
325,4	7,476
325,9	12,905
326,3	15,076
326,8	14,962
327,2	12,305
327,7	20,048
328,2	16,819
328,6	11,333
329,1	9,619
329,5	10,905
330	11,533
330,5	10,99
330,9	7,876
331,4	4,562
331,8	6,533
332,3	11,048
332,8	8,219
333,2	6,333
333,7	8,048
334,1	10,848
334,6	16,79
335,1	19,419
335,5	15,99
336	13,019
336,4	14,59
336,9	17,476
337,4	15,076
337,8	16,133
338,3	14,619
338,7	13,019
339,2	15,448
339,7	15,676
340,1	12,79
340,6	14,248
341	14,533
341,5	13,476
342	11,476
342,4	11,59
342,9	10,19
343,3	10,505
343,8	10,59
344,2	10,39
344,7	4,762
345,2	3,648
345,6	5,276
346,1	8,476
346,5	8,162
347	10,133
347,5	6,076
347,9	9,076
348,4	11,876
348,8	10,819
349,3	8,562
349,8	9,99
350,2	7,219
350,7	10,39
351,1	14,819
351,6	17,276
352	25,333
352,5	30,733
353	39,333
353,4	45,905
353,9	54,505
354,3	66,219
354,8	75,648
355,3	84,276
355,7	97,105
356,2	106,676
356,6	127,59
357,1	145,905
357,5	169,876
358	202,99
358,5	239,59
358,9	276,562
359,4	324,676
359,8	371,762
360,3	425,733
360,8	484,048
361,2	553,19
361,7	623,19
362,1	709,276
362,6	797,505
363	892,333
363,5	999,648
364	1108,59
364,4	1210,505
364,9	1325,19
365,3	1433,362
365,8	1539,048
366,3	1639,876
366,7	1725,99
367,2	1800,562
367,6	1867,276
368,1	1914,362
368,5	1944,105
369	1956,933
369,5	1962,533
369,9	1948,762
370,4	1919,076
370,8	1877,476
371,3	1825,705
371,7	1760,305
372,2	1689,39
372,7	1598,39
373,1	1515,819
373,6	1426,676
374	1334,733
374,5	1240,676
374,9	1153,59
375,4	1069,133
375,9	993,219
376,3	918,305
376,8	852,362
377,2	790,505
377,7	729,219
378,2	673,848
378,6	619,733
379,1	566,19
379,5	519,076
380	478,362
380,4	439,248
380,9	403,876
381,4	370,305
381,8	342,533
382,3	317,162
382,7	290,248
383,2	264,733
383,6	244,076
384,1	228,476
384,6	213,619
385	198,848
385,5	190,048
385,9	182,39
386,4	172,248
386,8	166,276
387,3	152,733
387,7	146,219
388,2	136,648
388,7	126,333
389,1	112,762
389,6	102,019
390	91,619
390,5	86,076
390,9	81,448
391,4	80,705
391,9	78,762
392,3	75,419
392,8	76,848
393,2	71,562
393,7	75,819
394,1	75,905
394,6	68,362
395,1	65,619
395,5	64,362
396	62,019
396,4	60,019
396,9	55,505
397,3	47,362
397,8	49,476
398,2	50,276
398,7	49,305
399,2	43,762
399,6	47,19
400,1	41,705
400,5	43,933
401	43,562
401,4	40,676
401,9	43,076
402,4	48,333
402,8	45,362
403,3	47,362
403,7	49,162
404,2	48,905
404,6	48,533
405,1	45,562
405,5	40,619
406	39,333
406,5	38,79
406,9	35,819
407,4	34,276
407,8	33,59
408,3	33,419
408,7	38,905
409,2	39,476
409,6	40,848
410,1	43,419
410,6	42,733
411	42,876
411,5	43,362
411,9	39,676
412,4	44,105
412,8	46,533
413,3	51,162
413,7	55,19
414,2	59,019
414,7	68,79
415,1	71,819
415,6	79,076
416	81,305
416,5	79,476
416,9	79,448
417,4	80,448
417,8	83,019
418,3	91,133
418,8	85,162
419,2	89,705
419,7	96,962
420,1	100,276
420,6	101,848
421	95,648
421,5	92,962
421,9	95,076
422,4	93,905
422,8	88,933
423,3	89,133
423,8	93,762
424,2	97,362
424,7	98,762
425,1	98,448
425,6	104,476
426	105,19
426,5	105,962
426,9	104,648
427,4	100,79
427,9	94,848
428,3	96,962
428,8	93,276
429,2	88,248
429,7	87,905
430,1	86,305
430,6	90,419
431	93,79
431,5	90,962
431,9	88,905
432,4	95,333
432,8	96,848
433,3	99,333
433,8	102,705
434,2	102,562
434,7	104,819
435,1	106,076
435,6	109,819
436	114,305
436,5	119,99
436,9	123,705
437,4	131,533
437,8	135,705
438,3	142,533
438,8	139,79
439,2	142,048
439,7	138,39
440,1	141,048
440,6	148,79
441	153,962
441,5	158,048
441,9	175,076
442,4	185,448
442,8	197,105
443,3	202,019
443,7	202,076
444,2	209,962
444,7	217,048
445,1	220,105
445,6	218,819
446	227,39
446,5	234,762
446,9	245,99
447,4	256,762
447,8	266,362
448,3	275,333
448,7	290,79
449,2	298,762
449,6	311,362
450,1	327,648
450,6	337,048
451	346,019
451,5	355,305
451,9	365,79
452,4	381,305
452,8	396,276
453,3	401,476
453,7	412,762
454,2	428,676
454,6	446,705
455,1	459,248
455,5	471,305
456	484,333
456,4	503,105
456,9	520,276
457,3	538,876
457,8	553,933
458,3	576,819
458,7	596,933
459,2	614,162
459,6	634,933
460,1	655,819
460,5	674,59
461	689,705
461,4	709,905
461,9	731,105
462,3	753,705
462,8	773,019
463,2	797,305
463,7	816,162
464,1	845,162
464,6	863,99
465	884,248
465,5	912,39
466	939,59
466,4	963,048
466,9	989,876
467,3	1011,79
467,8	1042,333
468,2	1068,733
468,7	1088,619
469,1	1106,648
469,6	1130,676
470	1163,105
470,5	1192,419
470,9	1216,876
471,4	1240,276
471,8	1267,162
472,3	1291,419
472,7	1319,562
473,2	1336,105
473,6	1355,133
474,1	1372,476
474,5	1398,762
475	1422,99
475,4	1448,59
475,9	1479,133
476,4	1502,619
476,8	1532,705
477,3	1563,019
477,7	1592,162
478,2	1618,762
478,6	1640,705
479,1	1653,676
479,5	1676,79
480	1698,276
480,4	1719,933
480,9	1737,79
481,3	1753,105
481,8	1776,733
482,2	1797,19
482,7	1821,533
483,1	1844,19
483,6	1857,705
484	1878,305
484,5	1899,248
484,9	1918,562
485,4	1935,99
485,8	1946,448
486,3	1954,876
486,7	1975,505
487,2	1988,048
487,6	2002,933
488,1	2020,99
488,5	2036,362
489	2049,362
489,4	2067,533
489,9	2081,476
490,4	2092,162
490,8	2102,848
491,3	2107,248
491,7	2117,762
492,2	2129,39
492,6	2136,562
493,1	2141,248
493,5	2149,305
494	2153,962
494,4	2162,333
494,9	2170,905
495,3	2177,505
495,8	2185,276
496,2	2196,019
496,7	2196,162
497,1	2202,048
497,6	2205,39
498	2207,933
498,5	2214,19
498,9	2214,505
499,4	2211,39
499,8	2218,848
500,3	2223,505
500,7	2225,848
501,2	2229,705
501,6	2232,619
502,1	2237,076
502,5	2239,848
503	2246,933
503,4	2250,933
503,9	2259,505
504,3	2255,105
504,8	2261,133
505,2	2255,676
505,7	2265,762
506,1	2262,876
506,6	2258,162
507	2257,476
507,5	2263,733
507,9	2260,248
508,4	2264,962
508,8	2257,99
509,3	2256,133
509,7	2254,39
510,2	2248,39
510,6	2243,99
511,1	2247,819
511,5	2250,105
512	2254,333
512,4	2255,933
512,9	2254,762
513,3	2260,676
513,8	2259,476
514,2	2253,448
514,7	2249,676
515,1	2241,619
515,6	2236,276
516	2240,162
516,5	2238,619
516,9	2233,933
517,4	2232,819
517,8	2235,476
518,3	2234,905
518,7	2239,733
519,2	2238,276
519,6	2237,362
520,1	2239,505
520,5	2237,676
521	2233,876
521,4	2235,876
521,9	2234,933
522,3	2234,448
522,8	2235,962
523,2	2234,705
523,7	2236,448
524,1	2238,419
524,6	2235,733
525	2231,562
525,5	2231,219
525,9	2225,333
526,4	2228,448
526,8	2227,848
527,3	2227,648
527,7	2235,39
528,2	2237,79
528,6	2238,048
529,1	2240,39
529,5	2237,105
530	2239,448
530,4	2237,219
530,9	2232,676
531,3	2230,39
531,8	2237,676
532,2	2237,39
532,6	2242,39
533,1	2242,019
533,5	2246,448
534	2248,848
534,4	2254,133
534,9	2254,962
535,3	2265,219
535,8	2268,276
536,2	2271,905
536,7	2277,848
537,1	2277,133
537,6	2283,59
538	2286,705
538,5	2280,162
538,9	2285,076
539,4	2290,476
539,8	2291,819
540,3	2293,076
540,7	2291,848
541,2	2289,133
541,6	2298,048
542,1	2296,248
542,5	2294,79
543	2290,219
543,4	2293,619
543,9	2292,648
544,3	2296,619
544,8	2296,79
545,2	2298,105
545,7	2301,933
546,1	2312,39
546,5	2320,476
547	2327,276
547,4	2328,619
547,9	2330,219
548,3	2337,076
548,8	2338,419
549,2	2336,219
549,7	2336,905
550,1	2340,248
550,6	2347,162
551	2353,876
551,5	2359,39
551,9	2364,419
552,4	2371,705
552,8	2372,476
553,3	2379,305
553,7	2381,733
554,2	2380,248
554,6	2375,962
555,1	2376,79
555,5	2377,276
555,9	2386,076
556,4	2386,562
556,8	2386,276
557,3	2395,476
557,7	2403,733
558,2	2401,419
558,6	2406,962
559,1	2402,962
559,5	2407,419
560	2412,076
560,4	2411,848
560,9	2413,905
561,3	2423,848
561,8	2428,448
562,2	2429,162
562,7	2432,048
563,1	2434,162
563,6	2426,819
564	2430,476
564,4	2436,619
564,9	2429,962
565,3	2442,99
565,8	2448,59
566,2	2448,419
566,7	2458,905
567,1	2459,333
567,6	2457,048
568	2464,848
568,5	2462,876
568,9	2455,676
569,4	2458,276
569,8	2454,533
570,3	2459,248
570,7	2456,79
571,1	2454,133
571,6	2452,905
572	2453,819
572,5	2456,305
572,9	2466,162
573,4	2459,362
573,8	2463,133
574,3	2464,419
574,7	2462,419
575,2	2460,676
575,6	2458,79
576,1	2453,79
576,5	2454,076
576,9	2451,19
577,4	2449,762
577,8	2451,133
578,3	2448,476
578,7	2447,248
579,2	2444,79
579,6	2444,162
580,1	2440,848
580,5	2432,705
581	2428,19
581,4	2428,876
581,9	2423,105
582,3	2411,505
582,7	2406,333
583,2	2401,276
583,6	2400,448
584,1	2397,876
584,5	2396,79
585	2398,876
585,4	2394,848
585,9	2395,876
586,3	2391,419
586,8	2386,362
587,2	2383,705
587,6	2375,59
588,1	2372,476
588,5	2377,419
589	2365,305
589,4	2360,162
589,9	2363,876
590,3	2358,762
590,8	2358,39
591,2	2350,076
591,7	2341,79
592,1	2342,848
592,5	2341,533
593	2333,419
593,4	2325,933
593,9	2315,019
594,3	2306,876
594,8	2307,905
595,2	2306,476
595,7	2303,219
596,1	2296,762
596,6	2295,448
597	2296,733
597,4	2292,99
597,9	2288,19
598,3	2285,105
598,8	2284,733
599,2	2284,448
599,7	2276,59
600,1	2273,362
600,6	2276,219
601	2270,419
601,4	2264,762
601,9	2254,219
602,3	2252,99
602,8	2253,505
603,2	2250,476
603,7	2239,79
604,1	2236,019
604,6	2224,505
605	2223,705
605,4	2213,133
605,9	2208,333
606,3	2200,133
606,8	2196,076
607,2	2185,962
607,7	2184,19
608,1	2173,619
608,6	2170,562
609	2164,79
609,4	2161,876
609,9	2155,333
610,3	2152,848
610,8	2148,162
611,2	2142,705
611,7	2129,99
612,1	2117,99
612,6	2108,419
613	2102,79
613,4	2096,105
613,9	2089,162
614,3	2084,733
614,8	2074,819
615,2	2071,076
615,7	2065,648
616,1	2056,733
616,6	2048,248
617	2036,933
617,4	2029,733
617,9	2026,333
618,3	2021,562
618,8	2012,99
619,2	2010,59
619,7	2005,305
620,1	1998,333
620,5	1989,819
621	1981,705
621,4	1971,533
621,9	1966,105
622,3	1957,533
622,8	1945,19
623,2	1938,733
623,6	1933,305
624,1	1931,619
624,5	1926,019
625	1911,505
625,4	1904,248
625,9	1899,448
626,3	1890,419
626,8	1880,105
627,2	1868,819
627,6	1854,59
628,1	1847,79
628,5	1836,133
629	1829,362
629,4	1822,476
629,9	1809,362
630,3	1808,933
630,7	1805,876
631,2	1796,933
631,6	1789,133
632,1	1776,39
632,5	1769,048
633	1758,333
633,4	1739,248
633,8	1727,676
634,3	1719,048
634,7	1708,705
635,2	1701,905
635,6	1690,333
636,1	1693,019
636,5	1687,762
636,9	1676,79
637,4	1672,562
637,8	1663,619
638,3	1655,733
638,7	1647,99
639,2	1639,448
639,6	1632,848
640	1622,333
640,5	1608,362
640,9	1596,648
641,4	1589,362
641,8	1578,562
642,2	1571,59
642,7	1559,819
643,1	1562,19
643,6	1558,648
644	1561,133
644,5	1550,162
644,9	1545,648
645,3	1535,676
645,8	1532,362
646,2	1523,019
646,7	1513,79
647,1	1505,105
647,6	1496,933
648	1489,99
648,4	1478,248
648,9	1467,933
649,3	1458,562
649,8	1457,105
650,2	1443,019
650,6	1435,676
651,1	1432,419
651,5	1428,105
652	1424,076
652,4	1412,476
652,9	1404,676
653,3	1399,162
653,7	1393,19
654,2	1384,133
654,6	1372,79
655,1	1358,248
655,5	1354,819
655,9	1344,419
656,4	1344,419
656,8	1336,705
657,3	1327,305
657,7	1321,99
658,2	1321,562
658,6	1309,905
659	1302,705
659,5	1289,762
659,9	1286,533
660,4	1281,419
660,8	1278,19
661,2	1267,505
661,7	1262,105
662,1	1251,39
662,6	1243,419
663	1238,648
663,4	1233,362
663,9	1223,362
664,3	1219,19
664,8	1213,562
665,2	1209,905
665,6	1205,019
666,1	1193,733
666,5	1182,305
667	1171,305
667,4	1160,048
667,9	1153,905
668,3	1142,048
668,7	1133,076
669,2	1123,476
669,6	1119,362
670,1	1118,305
670,5	1111,505
670,9	1111,648
671,4	1112,848
671,8	1106,419
672,3	1103,276
672,7	1093,933
673,1	1082,876
673,6	1080,648
674	1066,448
674,5	1057,39
674,9	1049,562
675,3	1045,048
675,8	1040,733
676,2	1039,419
676,7	1033,333
677,1	1028,533
677,5	1021,333
678	1018,533
678,4	1008,562
678,9	1000,419
679,3	991,048
679,7	981,819
680,2	974,305
680,6	965,99
681,1	955,448
681,5	949,705
681,9	941,648
682,4	939,39
682,8	930,333
683,3	923,419
683,7	918,362
684,1	912,733
684,6	907,762
685	904,562
685,5	897,248
685,9	895,162
686,3	895,133
686,8	892,448
687,2	888,562
687,7	885,505
688,1	882,019
688,5	873,305
689	865,505
689,4	861,962
689,9	855,133
690,3	855,848
690,7	845,019
691,2	838,848
691,6	834,848
692	831,733
692,5	819,133
692,9	813,419
693,4	804,762
693,8	802,362
694,2	792,733
694,7	792,505
695,1	782,533
695,6	777,162
696	773,648
696,4	765,048
696,9	760,648
697,3	761,848
697,8	749,476
698,2	748,419
698,6	745,248
699,1	732,99
699,5	729,676
699,9	724,876
700,4	717,39
700,8	716,848
701,3	713,048
701,7	706,333
702,1	707,162
702,6	700,419
703	697,248
703,5	694,362
703,9	688,876
704,3	683,448
704,8	681,19
705,2	677,905
705,6	673,248
706,1	672,248
706,5	668,019
707	665,848
707,4	661,762
707,8	659,533
708,3	656,562
708,7	657,076
709,2	648,333
709,6	644,076
710	638,676
710,5	632,19
710,9	626,076
711,3	619,648
711,8	615,276
712,2	616,105
712,7	613,333
713,1	605,933
713,5	605,59
714	600,876
714,4	596,79
714,8	594,533
715,3	586,676
715,7	578,419
716,2	577,305
716,6	574,048
717	571,19
717,5	570,333
717,9	563,79
718,3	560,39
718,8	558,99
719,2	555,305
719,7	554,705
720,1	553,962
720,5	548,19
721	539,219
721,4	537,848
721,8	536,705
722,3	533,39
722,7	523,448
723,2	520,133
723,6	515,419
724	519,133
724,5	508,533
724,9	499,533
725,3	494,19
725,8	491,905
726,2	483,362
726,7	483,79
727,1	477,962
727,5	479,076
728	473,676
728,4	467,648
728,8	469,933
729,3	469,362
729,7	466,676
730,1	462,848
730,6	458,19
731	460,105
731,5	458,162
731,9	455,419
732,3	454,219
732,8	450,99
733,2	449,59
733,6	448,39
734,1	444,905
734,5	441,305
734,9	434,79
735,4	433,219
735,8	428,133
736,3	429,676
736,7	428,019
737,1	427,219
737,6	425,19
738	424,733
738,4	422,933
738,9	430,362
739,3	419,59
739,7	417,848
740,2	411,419
740,6	410,19
741,1	404,59
741,5	401,648
741,9	384,419
742,4	388,019
742,8	385,962
743,2	386,676
743,7	387,276
744,1	384,705
744,5	379,39
745	378,133
745,4	372,648
745,8	369,648
746,3	368,19
746,7	369,648
747,2	371,762
747,6	369,99
748	372,562
748,5	368,79
748,9	365,076
749,3	364,219
749,8	355,105
750,2	351,162
750,6	345,933
751,1	343,562
751,5	342,133
751,9	342,305
752,4	341,476
752,8	341,19
753,3	338,276
753,7	339,59
754,1	335,99
754,6	333,905
755	330,933
755,4	324,962
755,9	323,362
756,3	320,105
756,7	316,448
757,2	318,619
757,6	318,048
758	312,99
758,5	311,248
758,9	303,99
759,3	300,362
759,8	300,733
760,2	297,248
760,6	297,676
761,1	294,533
761,5	292,733
761,9	296,305
762,4	298,848
762,8	294,219
763,3	286,162
763,7	281,19
764,1	280,419
764,6	281,248
765	278,362
765,4	276,219
765,9	275,276
766,3	275,105
766,7	277,076
767,2	275,448
767,6	268,819
768	269,476
768,5	264,133
768,9	263,562
769,3	264,59
769,8	261,133
770,2	265,276
770,6	265,79
771,1	267,848
771,5	271,105
771,9	268,448
772,4	269,962
772,8	271,505
773,2	267,476
773,7	270,362
774,1	265,962
774,5	265,162
775	263,59
775,4	260,733
775,8	258,133
776,3	252,476
776,7	250,362
777,1	248,733
777,6	243,248
778	239,79
778,4	232,933
778,9	229,19
779,3	230,533
779,7	226,019
780,2	224,476
780,6	225,305
781	223,648
781,5	227,076
781,9	227,533
782,3	226,476
782,8	222,219
783,2	218,162
783,6	215,562
784,1	219,705
784,5	215,676
784,9	210,248
785,4	209,048
785,8	206,105
786,2	202,676
786,7	198,305
787,1	195,19
787,5	196,733
788	197,333
788,4	194,648
788,8	194,819
789,3	199,905
789,7	201,905
790,1	199,819
790,6	200,105
791	195,905
791,4	192,162
791,9	195,59
792,3	188,39
792,7	190,933
793,2	188,648
793,6	183,019
794	182,59
794,5	183,133
794,9	181,019
795,3	181,448
795,8	175,905
796,2	175,048
796,6	172,933
797,1	170,448
797,5	171,476
797,9	168,99
798,4	168,248
798,8	163,933
799,2	162,533
799,7	164,533
800,1	164,705
800,5	162,219
801	162,619
801,4	158,133
801,8	159,505
802,2	157,99
802,7	158,133
803,1	155,276
803,5	153,105
804	149,019
804,4	149,19
804,8	150,276
805,3	148,648
805,7	147,448
806,1	151,39
806,6	151,419
807	154,362
807,4	151,848
807,9	148,676
808,3	144,876
808,7	140,048
809,2	138,276
809,6	138,933
810	136,39
810,4	139,848
810,9	136,39
811,3	139,076
811,7	139,848
812,2	140,476
812,6	139,962
813	134,648
813,5	132,59
813,9	134,705
814,3	132,133
814,8	130,905
815,2	124,076
815,6	119,419
816,1	119,819
816,5	120,248
816,9	118,905
817,3	122,019
817,8	125,619
818,2	125,248
818,6	124,619
819,1	123,048
819,5	119,476
819,9	117,019
820,4	117,762
820,8	112,39
821,2	115,99
821,7	117,733
822,1	120,762
822,5	124,362
822,9	127,305
823,4	119,305
823,8	120,076
824,2	121,019
824,7	120,048
825,1	116,962
825,5	117,562
826	114,333
826,4	118,819
826,8	116,848
827,3	116,019
827,7	115,048
828,1	117,962
828,5	115,362
829	115,533
829,4	116,619
829,8	115,19
830,3	113,905
830,7	110,533
831,1	107,476
831,6	101,876
832	101,733
832,4	97,19
832,8	100,276
833,3	92,19
833,7	93,59
834,1	91,848
834,6	92,962
835	92,79
835,4	94,762
835,8	87,333
836,3	88,962
836,7	85,19
837,1	82,905
837,6	80,933
838	75,705
838,4	72,162
838,9	79,619
839,3	83,019
839,7	85,076
840,1	84,733
840,6	86,305
841	85,505
841,4	85,333
841,9	77,905
842,3	75,676
842,7	74,419
843,1	76,19
843,6	77,39
844	82,333
844,4	82,419
844,9	84,933
845,3	82,219
845,7	86,905
846,2	85,933
846,6	82,305
847	76,019
847,4	71,876
847,9	67,276
848,3	69,819
848,7	66,076
849,2	65,762
849,6	66,19
850	66,99
850,4	71,619
850,9	75,19
851,3	71,362
851,7	69,076
852,2	63,876
852,6	62,019
853	63,019
853,4	67,362
853,9	60,305
854,3	62,962
854,7	59,362
855,2	63,476
855,6	58,848
856	53,99
856,4	47,219
856,9	51,19
857,3	48,905
857,7	52,248
858,2	52,562
858,6	61,619
859	61,79
859,4	61,333
859,9	59,962
860,3	60,79
860,7	62,99
861,1	62,99
861,6	59,419
862	64,162
862,4	63,362
862,9	63,79
863,3	60,648
863,7	54,305
864,1	51,905
864,6	49,933
865	47,105
865,4	46,476
865,9	45,848
866,3	47,276
866,7	50,99
867,1	52,99
867,6	54,39
868	56,505
868,4	56,133
868,8	55,133
869,3	55,648
869,7	52,133
870,1	51,105
870,6	48,076
871	114,419
871,4	112,962
871,8	109,619
872,3	106,962
872,7	105,276
873,1	108,762
873,5	110,962
874	43,39
874,4	40,076
874,8	42,819
875,3	44,162
875,7	45,19
876,1	40,905
876,5	44,819
877	46,619
877,4	50,59
877,8	54,448
878,2	54,848
878,7	59,962
879,1	60,448
879,5	54,362
879,9	52,276
880,4	49,848
880,8	50,076
881,2	51,105
881,7	52,162
882,1	48,248
882,5	49,819
882,9	47,99
883,4	51,733
883,8	46,59
884,2	44,505
884,6	38,705
885,1	46,39
885,5	45,705
885,9	47,59
886,3	45,933
886,8	43,39
887,2	39,762
887,6	35,619
888	30,019
888,5	33,019
888,9	31,79
889,3	26,39
889,8	29,533
890,2	29,676
890,6	32,933
891	31,762
891,5	30,905
891,9	33,305
892,3	36,048
892,7	35,562
893,2	38,905
893,6	39,848
894	38,676
894,4	39,162
894,9	35,476
895,3	35,905
895,7	36,305
896,1	35,676
896,6	37,276
897	39,162
897,4	29,762
897,8	29,648
898,3	33,419
898,7	29,219
899,1	26,448
899,5	23,048
900	24,59
900,4	26,19
900,8	28,076
901,2	25,876
901,7	29,476
902,1	34,533
902,5	34,048
902,9	32,276
903,4	35,876
903,8	30,333
904,2	31,39
904,6	28,39
905,1	30,219
905,5	31,848
905,9	30,276
906,3	25,533
906,8	26,105
907,2	22,19
907,6	27,59
908	20,619
908,5	20,162
908,9	20,705
909,3	21,505
909,7	19,448
910,2	17,448
910,6	14,962
911	17,133
911,4	16,962
911,9	18,705
912,3	16,962
912,7	24,162
913,1	20,648
913,6	20,19
914	21,762
914,4	21,162
914,8	19,362
915,3	22,476
915,7	19,105
916,1	21,505
916,5	24,105
916,9	21,648
917,4	21,419
917,8	17,048
918,2	16,105
918,6	16,19
919,1	22,762
919,5	23,762
919,9	24,19
920,3	25,419
920,8	29,59
921,2	36,105
921,6	33,39
922	29,448
922,5	26,848
922,9	23,59
923,3	25,533
923,7	20,39
924,2	14,419
924,6	13,648
925	12,362
925,4	11,676
925,8	13,533
926,3	14,019
926,7	20,019
927,1	21,476
927,5	24,562
928	21,762
928,4	22,619
928,8	26,362
929,2	25,533
929,7	22,019
930,1	17,305
930,5	14,076
930,9	24,619
931,3	22,733
931,8	15,562
932,2	11,076
932,6	15,419
933	17,076
933,5	17,533
933,9	13,876
934,3	16,019
934,7	21,105
935,2	23,79
935,6	17,133
936	17,362
936,4	20,219
936,8	18,676
937,3	19,105
937,7	16,105
938,1	12,362
938,5	15,133
939	15,505
939,4	12,79
939,8	11,19
940,2	8,505
940,6	8,419
941,1	15,419
941,5	16,333
941,9	17,848
942,3	13,79
942,8	15,99
943,2	13,848
943,6	15,248
944	11,162
944,4	9,79
944,9	8,305
945,3	15,676
945,7	13,99
946,1	15,476
946,6	14,39
947	16,962
947,4	17,905
947,8	20,619
948,2	14,533
948,7	14,333
949,1	12,733
949,5	15,133
949,9	15,79
950,3	18,305
950,8	15,162
951,2	20,533
951,6	22,933
952	22,819
952,5	18,162
952,9	10,362
953,3	4,876
953,7	8,276
954,1	5,533
954,6	4,819
955	5,362
955,4	6,905
955,8	13,048
956,2	9,733
956,7	6,248
957,1	8,59
957,5	5,905
957,9	6,99
958,3	10,419
958,8	8,076
959,2	13,819
959,6	18,648
960	17,248
960,5	15,476
960,9	18,219
961,3	12,876
961,7	11,219
962,1	10,333
962,6	4,276
963	0,219
963,4	4,19
963,8	2,019
964,2	4,019
964,7	3,733
965,1	4,333
965,5	4,819
965,9	9,79
966,3	1,476
966,8	2,19
967,2	4,162
967,6	6,448
968	6,276
968,4	11,333
968,9	15,076
969,3	20,019
969,7	19,248
970,1	17,905
970,5	20,676
971	17,476
971,4	15,333
971,8	12,619
972,2	13,048
972,6	8,848
973,1	7,276
973,5	6,076
973,9	9,39
974,3	4,248
974,7	0,505
975,2	0,648
975,6	2,076
976	5,562
976,4	2,219
976,8	2,162
977,3	5,619
977,7	7,362
978,1	6,876
978,5	10,933
978,9	8,476
979,4	8,762
979,8	7,448
980,2	4,133
980,6	3,333
981	3,248
981,5	1,019
981,9	3,705
982,3	-0,067
982,7	-0,667
983,1	4,076
983,6	6,39
984	9,019
984,4	11,105
984,8	9,59
985,2	16,019
985,6	16,419
986,1	16,905
986,5	13,133
986,9	11,79
987,3	8,105
987,7	6,705
988,2	3,733
988,6	3,705
989	6,848
989,4	10,219
989,8	8,219
990,3	8,476
990,7	6,276
991,1	4,705
991,5	6,933
991,9	4,105
992,3	3,305
992,8	8,99
993,2	12,19
993,6	15,505
994	12,248
994,4	10,876
994,9	9,219
995,3	9,533
995,7	7,162
996,1	5,848
996,5	6,562
996,9	9,705
997,4	11,848
997,8	12,105
998,2	14,848
998,6	11,476
999	11,048
999,5	10,819
999,9	14,876
1000,3	15,162
1000,7	10,962
1001,1	5,305
1001,5	3,905
1002	2,048
1002,4	2,562
1002,8	4,59
1003,2	3,219
1003,6	9,448
1004	9,876
1004,5	9,333
1004,9	6,79
1005,3	0,876
1005,7	-4,267
1006,1	-5,867
1006,6	-7,295
1007	-5,524
1007,4	-0,638
1007,8	2,505
1008,2	6,276
1008,6	1,962
1009,1	1,248
1009,5	6,276
1009,9	9,048
1010,3	11,076
1010,7	12,876
1011,1	15,819
1011,6	20,676
1012	19,905
1012,4	16,448
1012,8	11,276
1013,2	10,19
1013,6	10,248
1014,1	4,848
1014,5	6,419
1014,9	10,19
1015,3	6,219
1015,7	8,276
1016,1	5,39
1016,6	6,19
1017	7,676
1017,4	3,419
1017,8	1,848
1018,2	0,819
1018,6	4,648
1019,1	4,505
1019,5	5,39
1019,9	11,076
1020,3	13,648
1020,7	15,876
1021,1	20,105
1021,6	15,19
1022	12,333
1022,4	12,219
1022,8	13,333
1023,2	15,219
1023,6	9,276
1024,1	12,533
1024,5	15,619
1024,9	23,133
1025,3	23,562
1025,7	19,848
1026,1	21,248
1026,6	26,79
1027	19,79
1027,4	18,676
1027,8	11,619
1028,2	12,419
1028,6	12,133
1029	7,876
1029,5	8,19
1029,9	10,105
1030,3	12,305
1030,7	14,505
1031,1	11,505
1031,5	6,419
1032	8,905
1032,4	5,619
1032,8	5,362
1033,2	4,505
1033,6	7,305
1034	10,619
1034,4	18,876
1034,9	10,819
1035,3	17,562
1035,7	16,533
1036,1	16,819
1036,5	12,276
1036,9	8,762
1037,4	5,676
1037,8	9,905
1038,2	-0,695
1038,6	-0,81
1039	-3,181
1039,4	-2,095
1039,8	-5,467
1040,3	-7,695
1040,7	-5,752
1041,1	-3,524
1041,5	-5,895
1041,9	-8,124
1042,3	-2,581
1042,7	1,59
1043,2	3,99
1043,6	6,419
1044	7,505
1044,4	9,276
1044,8	6,39
1045,2	4,59
1045,6	5,476
1046,1	2,39
1046,5	0,962
1046,9	4,533
1047,3	5,248
1047,7	11,019
1048,1	8,276
1048,5	6,99
1049	8,648
1049,4	11,848
1049,8	12,905
1050,2	14,99
1050,6	16,933
1051	19,248
1051,4	17,933
1051,9	23,219
1052,3	16,99
1052,7	11,819
1053,1	9,962
1053,5	9,648
1053,9	8,648
1054,3	7,076
1054,8	8,448
1055,2	11,848
1055,6	11,219
1056	13,733
1056,4	11,19
1056,8	11,476
1057,2	17,733
1057,6	5,248
1058,1	4,876
1058,5	5,733
1058,9	6,533
1059,3	10,276
1059,7	2,019
1060,1	-3,752
1060,5	1,79
1061	-1,61
1061,4	9,419
1061,8	7,39
1062,2	0,876
1062,6	8,848
1063	11,362
1063,4	9,99
1063,8	12,819
1064,3	3,59
1064,7	2,305
1065,1	5,362
1065,5	6,819
1065,9	8,505
1066,3	4,733
1066,7	1,276
1067,1	-1,495
1067,6	1,905
1068	-0,895
1068,4	0,419
1068,8	-0,895
1069,2	1,562
1069,6	6,333
1070	10,933
1070,4	4,362
1070,9	7,248
1071,3	1,162
1071,7	1,619
1072,1	7,162
1072,5	9,905
1072,9	13,105
1073,3	17,305
1073,7	16,276
1074,2	20,448
1074,6	19,962
1075	17,676
1075,4	14,219
1075,8	13,876
1076,2	11,19
1076,6	9,619
1077	7,19
1077,5	6,962
1077,9	7,333
1078,3	6,419
1078,7	2,248
1079,1	5,219
1079,5	7,562
1079,9	13,905
1080,3	14,933
1080,7	15,79
1081,2	14,819
1081,6	16,99
1082	15,99
1082,4	12,876
1082,8	4,048
1083,2	-1,61
1083,6	-0,124
1084	-3,238
1084,5	-6,724
1084,9	-9,181
1085,3	-2,095
1085,7	-1,467
1086,1	0,333
1086,5	1,105
1086,9	4,162
1087,3	7,905
1087,7	12,305
1088,2	4,162
1088,6	6,733
1089	7,219
1089,4	3,59
1089,8	6,762
1090,2	3,019
1090,6	-1,838
1091	3,962
1091,4	5,505
1091,9	7,762
1092,3	5,419
1092,7	1,676
1093,1	3,019
1093,5	6,276
1093,9	4,962
1094,3	6,562
1094,7	4,533
1095,1	4,448
1095,5	7,762
1096	3,79
1096,4	6,333
1096,8	2,048
1097,2	1,248
1097,6	1,448
1098	5,048
1098,4	6,19
1098,8	11,048
1099,2	8,648
1099,6	15,048
1100,1	13,905
1100,5	14,705
1100,9	14,39
1101,3	13,162
1101,7	13,276
1102,1	13,705
1102,5	10,333
1102,9	6,676
1103,3	5,648
1103,7	5,648
1104,2	7,133
1104,6	7,562
1105	8,505
1105,4	10,733
1105,8	12,733
1106,2	12,848
1106,6	10,133
1107	7,076
1107,4	4,933
1107,8	2,493
1108,3	0,383
