Data from Subt2_069.txt Node
Date: Sat Aug 26 16:34:19 MSK 2023
User: vat
Spectrometer: MAYP114033
Trigger mode: 0
Integration Time (sec): 1,000000E0
Scans to average: 5
Electric dark correction enabled: true
Nonlinearity correction enabled: false
Boxcar width: 3
XAxis mode: Wavelengths
Number of Pixels in Spectrum: 2068
>>>>>Begin Spectral Data<<<<<
199,4	0,75
199,9	1,92
200,4	-0,467
200,8	-1,286
201,3	1,571
201,8	5,629
202,2	7,229
202,7	8,971
203,2	7,914
203,6	9,057
204,1	11,086
204,6	14,429
205	12,571
205,5	11,343
206	11,657
206,4	13,314
206,9	15,6
207,4	18,943
207,8	11,057
208,3	7,343
208,8	5,543
209,2	4,429
209,7	2,114
210,2	4,057
210,6	-0,371
211,1	0,2
211,5	-1,629
212	-2,143
212,5	-7,029
212,9	-3,686
213,4	-6,686
213,9	-5
214,3	2,029
214,8	6,4
215,3	10,314
215,7	13,029
216,2	13,629
216,7	12,371
217,1	13
217,6	6,571
218,1	5,371
218,5	5,114
219	10,029
219,5	11,629
219,9	11,314
220,4	7,114
220,9	10,657
221,3	11,914
221,8	7,171
222,3	2,229
222,7	-3,057
223,2	3,314
223,6	4,943
224,1	3,343
224,6	0,686
225	5,457
225,5	12,743
226	10,971
226,4	8,029
226,9	8,343
227,4	7,629
227,8	16,543
228,3	18,343
228,8	12,543
229,2	16,371
229,7	15,029
230,2	16,629
230,6	19,286
231,1	14,543
231,5	12,2
232	15,629
232,5	12,857
232,9	13,143
233,4	9,514
233,9	6,4
234,3	6,743
234,8	6,686
235,3	2,943
235,7	9,4
236,2	3,543
236,7	5,8
237,1	3,286
237,6	3
238,1	3,829
238,5	5,8
239	2,571
239,4	8,6
239,9	7,2
240,4	10,314
240,8	9,914
241,3	2,657
241,8	-0,914
242,2	-3,114
242,7	-0,686
243,2	-0,086
243,6	1,086
244,1	-1,4
244,6	3,4
245	8
245,5	10,943
245,9	9
246,4	10,914
246,9	8,029
247,3	8,886
247,8	6,457
248,3	9,429
248,7	10,457
249,2	4,286
249,7	4,886
250,1	5,743
250,6	6,057
251	11,686
251,5	4,171
252	3,4
252,4	9,743
252,9	10,029
253,4	10,057
253,8	10,771
254,3	8,429
254,8	13,457
255,2	8,371
255,7	9,943
256,1	10,2
256,6	13,343
257,1	11,771
257,5	13
258	12,686
258,5	18,6
258,9	15,486
259,4	12,829
259,9	12,286
260,3	10,486
260,8	13,457
261,2	15,286
261,7	12,714
262,2	13,829
262,6	14,2
263,1	13,429
263,6	19,057
264	13,657
264,5	12,114
264,9	12,686
265,4	13,857
265,9	15,829
266,3	15,743
266,8	13,057
267,3	15,686
267,7	15,743
268,2	12,714
268,7	8,771
269,1	5,343
269,6	8,629
270	11,6
270,5	12,743
271	10,657
271,4	8,286
271,9	12,371
272,4	15
272,8	7,571
273,3	4,6
273,7	2,971
274,2	4,057
274,7	13,314
275,1	8,029
275,6	10,629
276,1	13,771
276,5	14,257
277	14,829
277,4	15,086
277,9	9,029
278,4	11,229
278,8	11,771
279,3	10,171
279,8	12,371
280,2	10,171
280,7	9,2
281,1	11,229
281,6	14,686
282,1	14,086
282,5	17,286
283	14,029
283,4	16,886
283,9	12,714
284,4	13,343
284,8	10,6
285,3	4,629
285,8	3,514
286,2	-0,886
286,7	1,314
287,1	5,914
287,6	8,029
288,1	9,886
288,5	15,114
289	12,914
289,5	18,514
289,9	13,629
290,4	12,029
290,8	15,6
291,3	13,343
291,8	10,686
292,2	12,457
292,7	13,6
293,1	13,371
293,6	15,171
294,1	9,714
294,5	15,686
295	16,971
295,5	15,343
295,9	15,543
296,4	18,143
296,8	17
297,3	17,029
297,8	14,257
298,2	14,771
298,7	15,429
299,1	12,886
299,6	13,486
300,1	12,114
300,5	11,457
301	15,429
301,5	15,257
301,9	16,257
302,4	13,429
302,8	11,657
303,3	14,771
303,8	13,743
304,2	8,029
304,7	5
305,1	3,029
305,6	6,943
306,1	7,314
306,5	5,886
307	6,486
307,4	4,8
307,9	7,486
308,4	9,143
308,8	15,914
309,3	17,514
309,8	20,143
310,2	18
310,7	21,971
311,1	16,286
311,6	19,743
312,1	15,086
312,5	12,857
313	8,4
313,4	12,629
313,9	13,4
314,4	18,6
314,8	19,486
315,3	16,371
315,7	18,229
316,2	18,229
316,7	15,486
317,1	16
317,6	15,143
318	12,714
318,5	14,486
319	13,571
319,4	14,857
319,9	15,057
320,3	13,2
320,8	15,829
321,3	16,457
321,7	13
322,2	13,114
322,6	12,486
323,1	13,714
323,6	9,429
324	6,829
324,5	2,314
324,9	8,429
325,4	7,457
325,9	10,029
326,3	12,343
326,8	14,4
327,2	12,143
327,7	14,429
328,2	8,857
328,6	14,943
329,1	13,571
329,5	11,371
330	7,857
330,5	7,686
330,9	5,971
331,4	0,943
331,8	-4,6
332,3	-3,029
332,8	-4,371
333,2	-1,514
333,7	3,343
334,1	7,971
334,6	17,686
335,1	17,629
335,5	19,171
336	14
336,4	13,571
336,9	16,2
337,4	12,914
337,8	9,857
338,3	10,514
338,7	9,2
339,2	18,343
339,7	17,543
340,1	15,114
340,6	16,2
341	20,257
341,5	24,343
342	24,686
342,4	17,886
342,9	18,714
343,3	19,571
343,8	22,629
344,2	24,857
344,7	20,429
345,2	18,514
345,6	21,943
346,1	24,029
346,5	26,2
347	25,543
347,5	15,714
347,9	16,229
348,4	17,086
348,8	19,029
349,3	19,029
349,8	16,057
350,2	14,629
350,7	20,571
351,1	21,971
351,6	24,486
352	33,943
352,5	34,543
353	40,371
353,4	46,571
353,9	58,086
354,3	66,229
354,8	73,771
355,3	81,514
355,7	102,2
356,2	118,086
356,6	136,743
357,1	154,371
357,5	180,829
358	215,8
358,5	248,6
358,9	285,657
359,4	329,2
359,8	375,914
360,3	432,629
360,8	493,486
361,2	558,971
361,7	632,086
362,1	717,429
362,6	807,971
363	906,057
363,5	1011,857
364	1120,371
364,4	1230,314
364,9	1339,143
365,3	1445,857
365,8	1545,829
366,3	1644,257
366,7	1724,629
367,2	1799,486
367,6	1860,743
368,1	1909,486
368,5	1940,971
369	1957,371
369,5	1961,629
369,9	1951,2
370,4	1922,657
370,8	1883,543
371,3	1832,114
371,7	1763,686
372,2	1699,314
372,7	1610,457
373,1	1523,971
373,6	1440,229
374	1348,4
374,5	1258,629
374,9	1172,143
375,4	1081,629
375,9	1006,086
376,3	929,343
376,8	853,657
377,2	787,943
377,7	724,914
378,2	668,143
378,6	614,171
379,1	567,743
379,5	522,657
380	487,514
380,4	446,486
380,9	413,314
381,4	384,114
381,8	356,457
382,3	326,086
382,7	297,457
383,2	268,543
383,6	252,8
384,1	235,2
384,6	217,257
385	200,686
385,5	188,114
385,9	182,343
386,4	172,914
386,8	162,343
387,3	151,314
387,7	144,486
388,2	136,886
388,7	130,371
389,1	122,486
389,6	112,486
390	104,829
390,5	94,4
390,9	89,457
391,4	90,114
391,9	82,771
392,3	74,143
392,8	74,114
393,2	70,429
393,7	74,257
394,1	72,086
394,6	63,486
395,1	64,971
395,5	67,229
396	65,171
396,4	65,114
396,9	63,857
397,3	58,829
397,8	58,943
398,2	55,771
398,7	50,057
399,2	44,486
399,6	47,971
400,1	40,286
400,5	41,886
401	42,2
401,4	42,914
401,9	49,686
402,4	53,457
402,8	46,686
403,3	48,571
403,7	46,429
404,2	46,143
404,6	43,971
405,1	37,886
405,5	34,429
406	33
406,5	34,571
406,9	34
407,4	35,629
407,8	36,229
408,3	39,171
408,7	46,657
409,2	48,657
409,6	47,2
410,1	50,8
410,6	51,571
411	56,2
411,5	56,257
411,9	50,8
412,4	54,857
412,8	60,629
413,3	58,743
413,7	61,257
414,2	61,086
414,7	69
415,1	70,629
415,6	76,8
416	77,771
416,5	82,943
416,9	83,114
417,4	88,486
417,8	87,429
418,3	96,6
418,8	92,571
419,2	96,4
419,7	99,6
420,1	96,314
420,6	96,171
421	96,686
421,5	95,514
421,9	100,4
422,4	98,971
422,8	98,171
423,3	104,429
423,8	108,857
424,2	110,857
424,7	108,971
425,1	104,114
425,6	109,543
426	114,743
426,5	113,171
426,9	111,686
427,4	111,971
427,9	109,057
428,3	111,486
428,8	111,4
429,2	101,057
429,7	98,714
430,1	98,429
430,6	97,2
431	99,229
431,5	98,857
431,9	97,371
432,4	105,4
432,8	110,771
433,3	110,229
433,8	112,086
434,2	115,343
434,7	116,343
435,1	116,914
435,6	124,943
436	126,4
436,5	134,686
436,9	138,6
437,4	148,171
437,8	155,943
438,3	161
438,8	157,114
439,2	165,8
439,7	167,771
440,1	173,686
440,6	179,686
441	183,286
441,5	191,143
441,9	200,029
442,4	212,343
442,8	223,857
443,3	234,4
443,7	234,629
444,2	244,743
444,7	252,429
445,1	264,486
445,6	274,457
446	283,314
446,5	294,114
446,9	311,314
447,4	325,886
447,8	339,543
448,3	354,514
448,7	361,686
449,2	373,457
449,6	385,629
450,1	402,486
450,6	418
451	429,571
451,5	441,029
451,9	457,8
452,4	472,4
452,8	489,686
453,3	501,543
453,7	515,571
454,2	539,057
454,6	564,771
455,1	580,229
455,5	603,343
456	622,971
456,4	645,629
456,9	666,857
457,3	690,257
457,8	708,143
458,3	735,943
458,7	760,257
459,2	782,914
459,6	809,143
460,1	836,771
460,5	861,029
461	883,571
461,4	908,486
461,9	929,971
462,3	960,314
462,8	986,286
463,2	1015,743
463,7	1043,486
464,1	1075,514
464,6	1100,429
465	1131,457
465,5	1157,371
466	1188,571
466,4	1216,171
466,9	1243,743
467,3	1274,029
467,8	1314,714
468,2	1349,4
468,7	1389,514
469,1	1419,314
469,6	1458,629
470	1494,8
470,5	1528,029
470,9	1556,286
471,4	1589,171
471,8	1618,314
472,3	1648,743
472,7	1671,543
473,2	1699,086
473,6	1730,029
474,1	1756,429
474,5	1782,114
475	1818,229
475,4	1852,543
475,9	1890,257
476,4	1921,8
476,8	1953,657
477,3	1990,886
477,7	2025,429
478,2	2048,914
478,6	2079,286
479,1	2106,057
479,5	2139,743
480	2172,914
480,4	2199,857
480,9	2232,914
481,3	2261,6
481,8	2289,086
482,2	2315,457
482,7	2339,486
483,1	2366,829
483,6	2393,371
484	2411,829
484,5	2434,771
484,9	2458,171
485,4	2481,171
485,8	2505,629
486,3	2524,229
486,7	2545,143
487,2	2569,371
487,6	2589,457
488,1	2607,343
488,5	2628,257
489	2645,371
489,4	2665,029
489,9	2677,171
490,4	2687,686
490,8	2698,543
491,3	2712,229
491,7	2718,2
492,2	2731,029
492,6	2734,057
493,1	2741,743
493,5	2747,286
494	2760,343
494,4	2764,486
494,9	2781,914
495,3	2792,457
495,8	2807,086
496,2	2819,914
496,7	2831,457
497,1	2844,229
497,6	2857,229
498	2860,029
498,5	2864,2
498,9	2866,971
499,4	2881,343
499,8	2888,829
500,3	2887,486
500,7	2891,457
501,2	2901,343
501,6	2902,743
502,1	2909,257
502,5	2904,229
503	2912,657
503,4	2919,486
503,9	2929,314
504,3	2923,086
504,8	2927,543
505,2	2928,4
505,7	2936,771
506,1	2937,886
506,6	2939,314
507	2933,629
507,5	2937,4
507,9	2939,571
508,4	2937,943
508,8	2930,114
509,3	2926,257
509,7	2918,429
510,2	2912,143
510,6	2904,743
511,1	2905,114
511,5	2900,171
512	2902,429
512,4	2902,114
512,9	2899,343
513,3	2911,143
513,8	2918,371
514,2	2918,343
514,7	2917,629
515,1	2918
515,6	2913,857
516	2915,029
516,5	2912,343
516,9	2905,657
517,4	2900,486
517,8	2896,086
518,3	2892,371
518,7	2890,943
519,2	2892,571
519,6	2886,343
520,1	2891,2
520,5	2889,457
521	2894,171
521,4	2891,6
521,9	2892,743
522,3	2893,8
522,8	2898,771
523,2	2899,171
523,7	2898,229
524,1	2893,886
524,6	2892,686
525	2897,286
525,5	2899,2
525,9	2894,057
526,4	2891,486
526,8	2886,571
527,3	2889,143
527,7	2892,343
528,2	2888,429
528,6	2883,971
529,1	2880,714
529,5	2874,4
530	2876,6
530,4	2882,829
530,9	2880,714
531,3	2877,314
531,8	2879,6
532,2	2880,743
532,6	2890,486
533,1	2889,8
533,5	2886,771
534	2885,314
534,4	2887,057
534,9	2895,6
535,3	2905,029
535,8	2904,971
536,2	2912,971
536,7	2912,343
537,1	2918,343
537,6	2921,543
538	2922,257
538,5	2921,629
538,9	2929,657
539,4	2934,229
539,8	2943,6
540,3	2947,143
540,7	2949,429
541,2	2946,257
541,6	2947,543
542,1	2943,314
542,5	2942,4
543	2945,371
543,4	2954,029
543,9	2956,743
544,3	2961,571
544,8	2967,629
545,2	2968,143
545,7	2972
546,1	2973,429
546,5	2972,886
547	2976,743
547,4	2982,286
547,9	2986,029
548,3	2994,229
548,8	2996,886
549,2	2998,429
549,7	3000,371
550,1	3006,971
550,6	3007,171
551	3007,971
551,5	3012,2
551,9	3019,2
552,4	3026,4
552,8	3027,486
553,3	3032,829
553,7	3038,2
554,2	3044,114
554,6	3044,143
555,1	3046,886
555,5	3044,8
555,9	3055,971
556,4	3057,286
556,8	3062,343
557,3	3059,943
557,7	3064,571
558,2	3060,114
558,6	3067,971
559,1	3062,571
559,5	3061,743
560	3064,114
560,4	3065,371
560,9	3066,8
561,3	3074,743
561,8	3080,6
562,2	3087,8
562,7	3090,829
563,1	3088,657
563,6	3091,514
564	3089,457
564,4	3092,229
564,9	3085,686
565,3	3088,429
565,8	3089,171
566,2	3083,8
566,7	3087,514
567,1	3099,857
567,6	3100,6
568	3109,743
568,5	3108,571
568,9	3112,2
569,4	3117,286
569,8	3120,371
570,3	3111,457
570,7	3110,8
571,1	3102,771
571,6	3100,714
572	3103,314
572,5	3104,029
572,9	3108
573,4	3109,143
573,8	3109,314
574,3	3108,486
574,7	3109,086
575,2	3101,629
575,6	3100,971
576,1	3092,543
576,5	3094,286
576,9	3095,257
577,4	3095,257
577,8	3090,943
578,3	3087,286
578,7	3089,371
579,2	3091,2
579,6	3091,657
580,1	3084,029
580,5	3079,914
581	3072,314
581,4	3076,714
581,9	3074,543
582,3	3064,257
582,7	3055,457
583,2	3052,8
583,6	3049,114
584,1	3050,8
584,5	3045,6
585	3039,286
585,4	3041,857
585,9	3038,457
586,3	3028,457
586,8	3021,257
587,2	3012,943
587,6	3004,171
588,1	3001,343
588,5	2989,886
589	2980,114
589,4	2981,514
589,9	2981,057
590,3	2982,029
590,8	2978,6
591,2	2972,171
591,7	2971,514
592,1	2971,857
592,5	2963,6
593	2956,343
593,4	2947,457
593,9	2938,571
594,3	2929,686
594,8	2923,886
595,2	2916,086
595,7	2913,229
596,1	2911,257
596,6	2910,8
597	2909,6
597,4	2906,571
597,9	2902,114
598,3	2898,143
598,8	2886,486
599,2	2884,257
599,7	2876,343
600,1	2871,057
600,6	2862,629
601	2858,429
601,4	2848,257
601,9	2848,571
602,3	2840,657
602,8	2834,629
603,2	2833,229
603,7	2829,486
604,1	2825,2
604,6	2821,343
605	2812,4
605,4	2804,914
605,9	2800,486
606,3	2792,4
606,8	2787,743
607,2	2771,829
607,7	2770,086
608,1	2760,8
608,6	2748,029
609	2739,2
609,4	2727,257
609,9	2720,371
610,3	2713,257
610,8	2698,714
611,2	2699,8
611,7	2694,543
612,1	2682,114
612,6	2676,571
613	2669,371
613,4	2666,771
613,9	2661,4
614,3	2650,571
614,8	2635,714
615,2	2632,629
615,7	2627,086
616,1	2610,714
616,6	2599,371
617	2587,771
617,4	2576,171
617,9	2567,971
618,3	2555,829
618,8	2540,886
619,2	2535,8
619,7	2524
620,1	2513,6
620,5	2502,8
621	2496,429
621,4	2489,543
621,9	2481,971
622,3	2470,314
622,8	2454,886
623,2	2450,371
623,6	2438,886
624,1	2431,543
624,5	2419,257
625	2407,657
625,4	2401,314
625,9	2400,943
626,3	2387,4
626,8	2382,771
627,2	2374,114
627,6	2363,829
628,1	2352,314
628,5	2337,371
629	2330,2
629,4	2312,343
629,9	2300,257
630,3	2284,543
630,7	2274,371
631,2	2265,457
631,6	2259,086
632,1	2240,486
632,5	2239,4
633	2222,143
633,4	2214,457
633,8	2201,829
634,3	2185,229
634,7	2174,229
635,2	2162,457
635,6	2153,2
636,1	2153,343
636,5	2139,029
636,9	2124,286
637,4	2120,486
637,8	2109,257
638,3	2103,686
638,7	2089,114
639,2	2074,486
639,6	2065,486
640	2059,171
640,5	2045,743
640,9	2032,743
641,4	2017,857
641,8	2003,914
642,2	2000,286
642,7	1992,6
643,1	1990,657
643,6	1978,8
644	1976,457
644,5	1969,943
644,9	1963,971
645,3	1946,629
645,8	1937,8
646,2	1929,114
646,7	1922,514
647,1	1907,914
647,6	1902,629
648	1894,829
648,4	1884,686
648,9	1875,857
649,3	1860,829
649,8	1855,857
650,2	1845,057
650,6	1833,657
651,1	1828,771
651,5	1828,343
652	1817,286
652,4	1804,857
652,9	1794,143
653,3	1788,543
653,7	1781,086
654,2	1770,143
654,6	1751,429
655,1	1739,857
655,5	1729,714
655,9	1723,714
656,4	1716,743
656,8	1704,629
657,3	1689,629
657,7	1679,314
658,2	1671,543
658,6	1658,486
659	1641,4
659,5	1622,629
659,9	1615,171
660,4	1605,743
660,8	1602,286
661,2	1595,857
661,7	1587,171
662,1	1580,743
662,6	1578,2
663	1567,457
663,4	1561,914
663,9	1554,629
664,3	1545,057
664,8	1546,114
665,2	1540,943
665,6	1530,114
666,1	1517,286
666,5	1506,286
667	1494,943
667,4	1485
667,9	1472,486
668,3	1464,543
668,7	1457
669,2	1454,857
669,6	1449,343
670,1	1444,371
670,5	1437,114
670,9	1432,486
671,4	1420,514
671,8	1414
672,3	1403,6
672,7	1393,029
673,1	1378,829
673,6	1371,486
674	1358,257
674,5	1351,057
674,9	1345,143
675,3	1336,257
675,8	1329,4
676,2	1327,4
676,7	1318,229
677,1	1315,886
677,5	1305,514
678	1290,657
678,4	1281,2
678,9	1275,543
679,3	1264,057
679,7	1256,571
680,2	1243,171
680,6	1238,829
681,1	1231,486
681,5	1228,2
681,9	1222,171
682,4	1216,857
682,8	1209,286
683,3	1198,6
683,7	1190,257
684,1	1185,714
684,6	1179,686
685	1167,829
685,5	1155,686
685,9	1148,057
686,3	1144,886
686,8	1138,886
687,2	1131,314
687,7	1124,171
688,1	1119,314
688,5	1113,114
689	1107,629
689,4	1104,4
689,9	1096
690,3	1094,114
690,7	1082,629
691,2	1077,4
691,6	1073,686
692	1062,771
692,5	1053,286
692,9	1046,114
693,4	1035,114
693,8	1035,286
694,2	1024,971
694,7	1016,429
695,1	1012,457
695,6	1002,543
696	997,857
696,4	991,2
696,9	980,171
697,3	974,886
697,8	968,229
698,2	962,829
698,6	960,686
699,1	950,457
699,5	943,629
699,9	937,8
700,4	933,286
700,8	930,143
701,3	924,457
701,7	916,114
702,1	910,857
702,6	906,743
703	895,543
703,5	889,686
703,9	883,857
704,3	880,171
704,8	879,086
705,2	875,429
705,6	865,314
706,1	871,571
706,5	872,086
707	863,143
707,4	859,457
707,8	849,486
708,3	843,086
708,7	844,629
709,2	834,743
709,6	824,029
710	820,714
710,5	813,714
710,9	813,114
711,3	807,371
711,8	800,286
712,2	793,057
712,7	787,8
713,1	785,971
713,5	780,686
714	777,114
714,4	775,6
714,8	773,171
715,3	768,686
715,7	761,543
716,2	748,486
716,6	740,514
717	731,771
717,5	727,2
717,9	719,429
718,3	710,514
718,8	711,343
719,2	715,086
719,7	713,943
720,1	708,829
720,5	705,286
721	698,657
721,4	698,857
721,8	693,257
722,3	684,686
722,7	677,514
723,2	672,514
723,6	667,229
724	662,857
724,5	652,571
724,9	644,914
725,3	640,114
725,8	637,229
726,2	630,457
726,7	623,743
727,1	617,743
727,5	617,2
728	611,8
728,4	606,943
728,8	602,114
729,3	598,229
729,7	596,057
730,1	596,171
730,6	596,371
731	597,343
731,5	594,2
731,9	590,257
732,3	592
732,8	592,743
733,2	584,943
733,6	576,514
734,1	572,229
734,5	565,8
734,9	564,657
735,4	557,686
735,8	551,086
736,3	553,229
736,7	556,714
737,1	551,343
737,6	553,314
738	547,286
738,4	547,514
738,9	543,886
739,3	532,886
739,7	525,743
740,2	521,029
740,6	514,943
741,1	511,857
741,5	508,457
741,9	500,771
742,4	502,343
742,8	501,4
743,2	501,657
743,7	502,114
744,1	498,714
744,5	495,743
745	494,943
745,4	495,457
745,8	492,314
746,3	490,629
746,7	488,171
747,2	485,057
747,6	481,829
748	478,543
748,5	474,914
748,9	470,657
749,3	467,629
749,8	461,543
750,2	458,229
750,6	459,143
751,1	461
751,5	451,829
751,9	447,686
752,4	443,686
752,8	440,343
753,3	439,143
753,7	432,629
754,1	422,543
754,6	420,714
755	416,457
755,4	414,286
755,9	410,714
756,3	406,286
756,7	403,6
757,2	403,229
757,6	399,171
758	392,829
758,5	384,8
758,9	383,771
759,3	381,543
759,8	383,086
760,2	383,457
760,6	389
761,1	392,771
761,5	394,143
761,9	391,514
762,4	388,971
762,8	381,057
763,3	375,771
763,7	368,286
764,1	362,457
764,6	359,629
765	358,029
765,4	357,743
765,9	353,571
766,3	353,6
766,7	352,486
767,2	354,429
767,6	350,886
768	351,314
768,5	347,4
768,9	342,8
769,3	340,486
769,8	342,971
770,2	342
770,6	344,057
771,1	344,086
771,5	342,657
771,9	341,657
772,4	343
772,8	336,6
773,2	331,429
773,7	328,114
774,1	324,714
774,5	322,143
775	320,971
775,4	318,543
775,8	317,629
776,3	316,743
776,7	317,943
777,1	316,4
777,6	311,914
778	313,429
778,4	304,457
778,9	301,343
779,3	302
779,7	294,086
780,2	286,743
780,6	288,029
781	283,457
781,5	285,2
781,9	283,971
782,3	277,457
782,8	274,971
783,2	271,714
783,6	265,686
784,1	265,257
784,5	264,314
784,9	263,4
785,4	261,343
785,8	260,057
786,2	263,457
786,7	265,857
787,1	266,114
787,5	264,229
788	260,171
788,4	258,514
788,8	252,571
789,3	249,943
789,7	249,171
790,1	246,486
790,6	247,714
791	249,857
791,4	249,143
791,9	254,771
792,3	251,057
792,7	252,571
793,2	243,143
793,6	238,914
794	235,771
794,5	233,029
794,9	231,429
795,3	231,6
795,8	225,114
796,2	227,971
796,6	225,029
797,1	222,086
797,5	221,686
797,9	220,514
798,4	215,743
798,8	214,371
799,2	216,743
799,7	218,514
800,1	216,914
800,5	214,457
801	210,457
801,4	206,743
801,8	208,114
802,2	203,771
802,7	197,543
803,1	194,343
803,5	194,829
804	190,914
804,4	192,257
804,8	190,143
805,3	185,486
805,7	186,571
806,1	189,971
806,6	189,114
807	191,657
807,4	187,914
807,9	184,914
808,3	185,829
808,7	182,343
809,2	177,629
809,6	176,771
810	178,143
810,4	182,229
810,9	180,4
811,3	180,457
811,7	182,8
812,2	184,257
812,6	180,2
813	176,4
813,5	176,857
813,9	176,8
814,3	176,171
814,8	173,229
815,2	168,343
815,6	166,543
816,1	165,886
816,5	159,829
816,9	160,086
817,3	158,2
817,8	160,4
818,2	153,2
818,6	153,6
819,1	153,457
819,5	153,914
819,9	149,371
820,4	149,257
820,8	139,629
821,2	146,4
821,7	147,343
822,1	138,229
822,5	140,171
822,9	143,257
823,4	138,486
823,8	143,229
824,2	140,314
824,7	139,8
825,1	143,886
825,5	142,543
826	138,543
826,4	142,086
826,8	138,657
827,3	138,114
827,7	136,343
828,1	140,171
828,5	139,771
829	137,086
829,4	138,429
829,8	135,571
830,3	135,543
830,7	132,771
831,1	127,486
831,6	121,229
832	120,629
832,4	117,114
832,8	122,514
833,3	115,543
833,7	116,429
834,1	112,514
834,6	111,286
835	113,171
835,4	113,714
835,8	107,743
836,3	109,514
836,7	102,086
837,1	99,086
837,6	96,6
838	89,857
838,4	82,914
838,9	88,943
839,3	93,457
839,7	98,371
840,1	101,457
840,6	104,314
841	105,4
841,4	106,486
841,9	97,971
842,3	97,943
842,7	95,4
843,1	97,229
843,6	99,257
844	101,829
844,4	104,2
844,9	105,457
845,3	99,371
845,7	102,943
846,2	102
846,6	98,286
847	99,229
847,4	97,514
847,9	93,4
848,3	96,2
848,7	91,571
849,2	93,314
849,6	95,886
850	93,171
850,4	95,2
850,9	96,829
851,3	93,057
851,7	94,686
852,2	87,086
852,6	82,257
853	82,343
853,4	80,571
853,9	79,714
854,3	81,6
854,7	74,8
855,2	74,857
855,6	71,029
856	65,886
856,4	64,171
856,9	59,086
857,3	57,4
857,7	66,686
858,2	65,686
858,6	69,771
859	71,429
859,4	67,2
859,9	71,514
860,3	76,171
860,7	71,486
861,1	79,057
861,6	79,371
862	79,971
862,4	84,8
862,9	84,514
863,3	77,886
863,7	74,8
864,1	67,6
864,6	67,714
865	64,514
865,4	59,743
865,9	60,314
866,3	61,2
866,7	67,857
867,1	70,457
867,6	68,743
868	74,714
868,4	73,771
868,8	72,771
869,3	73,714
869,7	65,143
870,1	61,8
870,6	60,714
871	48,686
871,4	46,943
871,8	45,829
872,3	44,314
872,7	47,543
873,1	47,8
873,5	48,029
874	58,657
874,4	58,457
874,8	57,257
875,3	58,371
875,7	55,2
876,1	57,514
876,5	60,429
877	57,743
877,4	59,457
877,8	61,629
878,2	58,8
878,7	59,4
879,1	58,571
879,5	58,086
879,9	55,086
880,4	54,057
880,8	52,943
881,2	53,2
881,7	54,743
882,1	51,086
882,5	44,371
882,9	44,6
883,4	46,2
883,8	46,171
884,2	49,143
884,6	45,943
885,1	47,971
885,5	55,143
885,9	60,2
886,3	60,714
886,8	57,743
887,2	54,543
887,6	53,086
888	50,171
888,5	45,829
888,9	42,2
889,3	36,571
889,8	38,2
890,2	35,086
890,6	36,829
891	33,771
891,5	35,343
891,9	36,029
892,3	38,257
892,7	39,886
893,2	45,657
893,6	44,657
894	47,429
894,4	42,743
894,9	44,486
895,3	45,543
895,7	43,657
896,1	38,514
896,6	38,686
897	38,086
897,4	36,143
897,8	34,143
898,3	38,171
898,7	41,171
899,1	40,714
899,5	43,571
900	44,4
900,4	46,629
900,8	45
901,2	40,829
901,7	37,543
902,1	40,057
902,5	36,229
902,9	37,8
903,4	38,314
903,8	30,486
904,2	30,8
904,6	25,171
905,1	25,314
905,5	21,457
905,9	18,971
906,3	17,429
906,8	26,343
907,2	26,629
907,6	34,714
908	33,029
908,5	35,857
908,9	36,486
909,3	33,686
909,7	30,714
910,2	31,829
910,6	31,286
911	32,829
911,4	29,229
911,9	31
912,3	34,086
912,7	39,343
913,1	31,571
913,6	27,086
914	24,771
914,4	28,2
914,8	25,371
915,3	25,571
915,7	15,343
916,1	16,429
916,5	17,714
916,9	17,229
917,4	15
917,8	11,857
918,2	8,771
918,6	12,571
919,1	18,086
919,5	19,543
919,9	19,343
920,3	22,314
920,8	28,371
921,2	36,543
921,6	35,686
922	30,571
922,5	29,343
922,9	25,629
923,3	25,971
923,7	20,743
924,2	12,943
924,6	12,829
925	16,4
925,4	14,829
925,8	16,2
926,3	17,457
926,7	21,114
927,1	21,6
927,5	25,8
928	23,943
928,4	25
928,8	30,229
929,2	29,571
929,7	24,914
930,1	27,371
930,5	23
930,9	24,8
931,3	25,943
931,8	20,629
932,2	18,6
932,6	22,657
933	17,743
933,5	15,429
933,9	18,543
934,3	13,714
934,7	12,743
935,2	13,543
935,6	13,486
936	15,686
936,4	18,886
936,8	12,6
937,3	15,457
937,7	19,971
938,1	16,371
938,5	14,4
939	17,229
939,4	17,829
939,8	19,314
940,2	20,086
940,6	16,829
941,1	22,943
941,5	21,714
941,9	19,943
942,3	20,286
942,8	20,143
943,2	16,057
943,6	19,114
944	15,2
944,4	13,886
944,9	10,914
945,3	11,057
945,7	13,686
946,1	14,914
946,6	13,2
947	18,429
947,4	20,057
947,8	25,171
948,2	22,457
948,7	20,2
949,1	20,229
949,5	20,429
949,9	19,286
950,3	19,943
950,8	18,743
951,2	21,971
951,6	24,114
952	24,657
952,5	22,771
952,9	16,771
953,3	11,6
953,7	13,057
954,1	10,486
954,6	8,2
955	6,086
955,4	6,829
955,8	10,6
956,2	12,914
956,7	11,6
957,1	10,143
957,5	10,771
957,9	12,029
958,3	12,143
958,8	9,486
959,2	7,571
959,6	8,714
960	8,371
960,5	5,514
960,9	6,257
961,3	7,314
961,7	6,4
962,1	11,743
962,6	5,571
963	7,314
963,4	6,886
963,8	8,714
964,2	5,343
964,7	7,857
965,1	7,657
965,5	12,486
965,9	14,057
966,3	13,371
966,8	10,171
967,2	15,171
967,6	16,571
968	17,6
968,4	17,086
968,9	21,086
969,3	23,543
969,7	21,171
970,1	16,429
970,5	15,029
971	11,4
971,4	16,457
971,8	15,486
972,2	21,086
972,6	23,914
973,1	27,143
973,5	26,457
973,9	26,257
974,3	20,771
974,7	18,143
975,2	12,2
975,6	6,514
976	7,486
976,4	5
976,8	8,057
977,3	7,2
977,7	2,057
978,1	0,743
978,5	5,114
978,9	0,229
979,4	-0,886
979,8	-0,743
980,2	-3,057
980,6	1,314
981	5,686
981,5	8,829
981,9	9,2
982,3	10,257
982,7	10,2
983,1	16,8
983,6	16,143
984	17,343
984,4	19,686
984,8	21,886
985,2	18,771
985,6	19,514
986,1	19,029
986,5	16,343
986,9	15,343
987,3	6,029
987,7	9,571
988,2	15,914
988,6	11,029
989	9,171
989,4	11,714
989,8	3,943
990,3	11,714
990,7	9,143
991,1	7,771
991,5	10,314
991,9	12,886
992,3	13,8
992,8	22,371
993,2	22,943
993,6	23,229
994	21,857
994,4	22,714
994,9	19,629
995,3	19,6
995,7	15,257
996,1	14,257
996,5	10,971
996,9	10,629
997,4	9,771
997,8	10,914
998,2	11,4
998,6	17,8
999	14,657
999,5	17,2
999,9	19,857
1000,3	21,286
1000,7	19,543
1001,1	16
1001,5	9,086
1002	9,914
1002,4	8,2
1002,8	9,429
1003,2	8,743
1003,6	9,971
1004	12,171
1004,5	11,4
1004,9	14,514
1005,3	11,8
1005,7	10,971
1006,1	8,143
1006,6	7,657
1007	8,743
1007,4	11,8
1007,8	7,171
1008,2	8,543
1008,6	4
1009,1	3,457
1009,5	10,343
1009,9	11,829
1010,3	13,371
1010,7	18,771
1011,1	26,514
1011,6	30,229
1012	31,4
1012,4	25,657
1012,8	16,743
1013,2	15,371
1013,6	12,543
1014,1	7,829
1014,5	8,657
1014,9	10,429
1015,3	7,114
1015,7	7,171
1016,1	5,571
1016,6	5,657
1017	4,743
1017,4	-0,514
1017,8	-2,229
1018,2	-4,657
1018,6	1,971
1019,1	1,886
1019,5	0,229
1019,9	2,171
1020,3	3,857
1020,7	2,514
1021,1	9,457
1021,6	5,714
1022	1,057
1022,4	6,6
1022,8	4,286
1023,2	9,029
1023,6	10,114
1024,1	9,886
1024,5	12,714
1024,9	19,714
1025,3	18,229
1025,7	19,714
1026,1	20,886
1026,6	23,914
1027	18,4
1027,4	19,314
1027,8	15,657
1028,2	16,029
1028,6	15,543
1029	9,8
1029,5	12,8
1029,9	13,714
1030,3	15,314
1030,7	16,6
1031,1	14,029
1031,5	8,657
1032	7,229
1032,4	0,686
1032,8	-2,029
1033,2	-4,657
1033,6	-1,286
1034	-2,857
1034,4	5,629
1034,9	5,886
1035,3	10,571
1035,7	12,943
1036,1	11,857
1036,5	7,314
1036,9	8,543
1037,4	8,029
1037,8	10,6
1038,2	2,686
1038,6	3,086
1039	2,543
1039,4	6
1039,8	0,114
1040,3	-1,371
1040,7	-7,171
1041,1	-0,314
1041,5	0,343
1041,9	3,457
1042,3	-0,8
1042,7	5,486
1043,2	7,286
1043,6	16,057
1044	14,2
1044,4	11,314
1044,8	6,886
1045,2	11,943
1045,6	15,086
1046,1	13,343
1046,5	13,686
1046,9	14,686
1047,3	14,2
1047,7	15,4
1048,1	9,314
1048,5	6,314
1049	5,029
1049,4	2,6
1049,8	3,486
1050,2	3,886
1050,6	5,829
1051	8,743
1051,4	8,629
1051,9	9,771
1052,3	5,714
1052,7	4,057
1053,1	5,771
1053,5	7,457
1053,9	7,943
1054,3	4,229
1054,8	7,8
1055,2	11,514
1055,6	11,486
1056	12,8
1056,4	10,829
1056,8	15,2
1057,2	21,114
1057,6	16,114
1058,1	17,914
1058,5	17,457
1058,9	17,314
1059,3	19,457
1059,7	11,086
1060,1	5,629
1060,5	4,514
1061	3,629
1061,4	7,629
1061,8	7,457
1062,2	5,286
1062,6	10,314
1063	10,743
1063,4	14,657
1063,8	13,171
1064,3	7,886
1064,7	9,771
1065,1	10,171
1065,5	11,829
1065,9	13,8
1066,3	7,686
1066,7	7,343
1067,1	12,114
1067,6	13,2
1068	11,429
1068,4	12,086
1068,8	12,514
1069,2	13,543
1069,6	13,257
1070	12,114
1070,4	11,6
1070,9	12,2
1071,3	6,743
1071,7	9,829
1072,1	13,8
1072,5	17,943
1072,9	19,8
1073,3	20,571
1073,7	19,971
1074,2	24,486
1074,6	22,6
1075	21,457
1075,4	20,714
1075,8	17,429
1076,2	12
1076,6	10,914
1077	5,514
1077,5	5,2
1077,9	7,114
1078,3	3,4
1078,7	4,743
1079,1	9,771
1079,5	13,029
1079,9	17,714
1080,3	10,057
1080,7	7,2
1081,2	9,143
1081,6	10,314
1082	4,057
1082,4	3,486
1082,8	-1,143
1083,2	2,343
1083,6	1,971
1084	0,171
1084,5	0,514
1084,9	2,371
1085,3	-0,886
1085,7	2,571
1086,1	3,029
1086,5	8,829
1086,9	11,114
1087,3	4,6
1087,7	10,657
1088,2	12,657
1088,6	8,743
1089	7,029
1089,4	1,486
1089,8	3,371
1090,2	11,2
1090,6	7,086
1091	12,543
1091,4	13,514
1091,9	19,829
1092,3	22,4
1092,7	17,8
1093,1	9,257
1093,5	8,429
1093,9	6,4
1094,3	10,886
1094,7	9,886
1095,1	6,514
1095,5	7,457
1096	6,686
1096,4	10,914
1096,8	7,543
1097,2	7,457
1097,6	6,171
1098	8,371
1098,4	7,571
1098,8	10,686
1099,2	6,286
1099,6	11
1100,1	10,057
1100,5	10,943
1100,9	10,771
1101,3	12,943
1101,7	15,8
1102,1	15,257
1102,5	11,229
1102,9	7,8
1103,3	6,114
1103,7	5,714
1104,2	7,857
1104,6	7,6
1105	9,286
1105,4	8,514
1105,8	9,943
1106,2	9,657
1106,6	7,457
1107	3,171
1107,4	1,4
1107,8	-0,24
1108,3	-0,15
