Data from Subt2_316.txt Node
Date: Sat Aug 26 19:16:43 MSK 2023
User: vat
Spectrometer: MAYP114033
Trigger mode: 0
Integration Time (sec): 1,000000E0
Scans to average: 5
Electric dark correction enabled: true
Nonlinearity correction enabled: false
Boxcar width: 3
XAxis mode: Wavelengths
Number of Pixels in Spectrum: 2068
>>>>>Begin Spectral Data<<<<<
199,4	-0,6
199,9	0,7
200,4	1,9
200,8	0,786
201,3	-0,329
201,8	2,929
202,2	-0,7
202,7	6,129
203,2	7,671
203,6	7,329
204,1	8,614
204,6	8,557
205	8,214
205,5	13,9
206	8,386
206,4	6,357
206,9	6,043
207,4	7,9
207,8	10,614
208,3	7,871
208,8	7,586
209,2	12,1
209,7	12,671
210,2	15,243
210,6	15,729
211,1	14,357
211,5	11,643
212	13,5
212,5	10,9
212,9	9,071
213,4	3,757
213,9	1,929
214,3	2,729
214,8	10,157
215,3	5,986
215,7	7,586
216,2	13,643
216,7	17,643
217,1	16,786
217,6	20,9
218,1	14,271
218,5	11,786
219	3,157
219,5	1,271
219,9	-0,271
220,4	11,214
220,9	9,043
221,3	14,243
221,8	22,586
222,3	30,157
222,7	28,757
223,2	28,757
223,6	17,729
224,1	16,1
224,6	11,814
225	5,214
225,5	5,1
226	4,929
226,4	6,729
226,9	6,729
227,4	6,129
227,8	6,5
228,3	9,586
228,8	8,157
229,2	12,614
229,7	13,9
230,2	16,643
230,6	22,7
231,1	26,414
231,5	23,786
232	23,471
232,5	18,071
232,9	17,586
233,4	21,986
233,9	12,071
234,3	8,871
234,8	9,214
235,3	6,3
235,7	7,786
236,2	6,3
236,7	2,5
237,1	10,271
237,6	9,729
238,1	12,9
238,5	10,986
239	8,1
239,4	9,014
239,9	5,386
240,4	4,529
240,8	9,043
241,3	8,129
241,8	9,614
242,2	14,7
242,7	10,843
243,2	12,414
243,6	10,586
244,1	10,271
244,6	12,786
245	16,329
245,5	13,586
245,9	14,814
246,4	10,614
246,9	11,871
247,3	12,329
247,8	13,843
248,3	13,671
248,7	16,214
249,2	19,3
249,7	23,929
250,1	23,643
250,6	19,214
251	11,414
251,5	13,129
252	9,757
252,4	11,7
252,9	11,386
253,4	6,271
253,8	5,5
254,3	11,814
254,8	9,7
255,2	9,1
255,7	2,5
256,1	0,271
256,6	8,9
257,1	14,271
257,5	10,814
258	10,243
258,5	10,071
258,9	11,871
259,4	11,671
259,9	7,557
260,3	0,586
260,8	-2,186
261,2	-1,986
261,7	4,786
262,2	5,186
262,6	4,843
263,1	7,614
263,6	12,386
264	15,757
264,5	20,729
264,9	12,386
265,4	13,814
265,9	14,186
266,3	14,443
266,8	15,243
267,3	16,529
267,7	9,357
268,2	10,871
268,7	10,386
269,1	10,814
269,6	9,157
270	11,586
270,5	8,386
271	11,529
271,4	12,471
271,9	12,186
272,4	15,157
272,8	13,329
273,3	12,586
273,7	13,9
274,2	12,7
274,7	14,414
275,1	17,614
275,6	17,986
276,1	18,271
276,5	15,871
277	14,157
277,4	17,129
277,9	18,986
278,4	18,243
278,8	18,9
279,3	20,414
279,8	21,471
280,2	20,071
280,7	20,786
281,1	19,414
281,6	16,357
282,1	12,643
282,5	12,786
283	14,643
283,4	13,071
283,9	13,3
284,4	16,843
284,8	17,643
285,3	18,986
285,8	19,614
286,2	15,529
286,7	21,814
287,1	14,271
287,6	9,014
288,1	9,129
288,5	9,329
289	6,843
289,5	10,557
289,9	7,871
290,4	13,7
290,8	13,529
291,3	10,814
291,8	12,014
292,2	7,614
292,7	5,329
293,1	8,271
293,6	8,129
294,1	8,957
294,5	11,1
295	9,9
295,5	12,871
295,9	16,471
296,4	12,129
296,8	9,843
297,3	9,643
297,8	7,043
298,2	5,271
298,7	6,357
299,1	4,814
299,6	5,3
300,1	7,929
300,5	8,129
301	11,386
301,5	19,1
301,9	21,129
302,4	18,986
302,8	20,3
303,3	19,186
303,8	16,043
304,2	14,471
304,7	2,929
305,1	1,014
305,6	1,557
306,1	7,014
306,5	8,614
307	12,843
307,4	15,186
307,9	18,671
308,4	16,729
308,8	11,729
309,3	6,129
309,8	2,643
310,2	2,586
310,7	-0,243
311,1	3,129
311,6	5,157
312,1	13,757
312,5	15,443
313	16,929
313,4	17,5
313,9	20,529
314,4	20,843
314,8	17,129
315,3	13,014
315,7	9,1
316,2	8,157
316,7	4,871
317,1	9,157
317,6	7,7
318	12,929
318,5	11,5
319	11,643
319,4	12,871
319,9	17,757
320,3	14,014
320,8	12,3
321,3	12,071
321,7	17,043
322,2	19,214
322,6	20,329
323,1	15,329
323,6	14,871
324	15,157
324,5	12,643
324,9	10,929
325,4	7,729
325,9	8,529
326,3	10,357
326,8	11,871
327,2	6,871
327,7	7,729
328,2	3,757
328,6	7,929
329,1	2,443
329,5	1,9
330	-1,043
330,5	6,586
330,9	11,271
331,4	9,671
331,8	9,443
332,3	15,757
332,8	18,329
333,2	17,929
333,7	19,586
334,1	19,157
334,6	18,7
335,1	15,357
335,5	12,614
336	5,871
336,4	7,671
336,9	10,1
337,4	9,671
337,8	13,7
338,3	18,957
338,7	23,729
339,2	24,7
339,7	27,471
340,1	21,757
340,6	19,014
341	15,986
341,5	16,043
342	9,643
342,4	11,929
342,9	5,843
343,3	4,9
343,8	3,271
344,2	10,243
344,7	10,957
345,2	10,471
345,6	8,186
346,1	11,157
346,5	9,1
347	8,643
347,5	2,071
347,9	4,871
348,4	6,843
348,8	9,1
349,3	9,557
349,8	16,586
350,2	21,986
350,7	23,129
351,1	20,814
351,6	26,671
352	29,271
352,5	32,243
353	39,414
353,4	42,957
353,9	56,786
354,3	67,586
354,8	71,071
355,3	94,929
355,7	113,9
356,2	134,071
356,6	158,386
357,1	184,186
357,5	211,643
358	254,443
358,5	287,014
358,9	334,443
359,4	380,957
359,8	440,071
360,3	503,1
360,8	575,843
361,2	656,129
361,7	744,414
362,1	839,729
362,6	947,071
363	1054,557
363,5	1172,386
364	1302,786
364,4	1431,157
364,9	1558,7
365,3	1686,071
365,8	1802,5
366,3	1912,929
366,7	2018,043
367,2	2103,557
367,6	2172,5
368,1	2228,1
368,5	2264,186
369	2284,529
369,5	2296,843
369,9	2285,214
370,4	2246,3
370,8	2200,986
371,3	2139,214
371,7	2064,843
372,2	1976,329
372,7	1879,129
373,1	1774,729
373,6	1679,7
374	1577,986
374,5	1475,157
374,9	1371,9
375,4	1280,043
375,9	1182,329
376,3	1089,5
376,8	1000,3
377,2	922,357
377,7	846,271
378,2	778,243
378,6	713,186
379,1	658,757
379,5	613,5
380	568,557
380,4	517,729
380,9	478,071
381,4	440,586
381,8	409,529
382,3	382,843
382,7	352,7
383,2	327,729
383,6	307,614
384,1	291,843
384,6	275,186
385	256,043
385,5	236,414
385,9	216,557
386,4	202,5
386,8	192,586
387,3	179,329
387,7	166,643
388,2	159,557
388,7	150,729
389,1	147,471
389,6	137,471
390	124,757
390,5	117,7
390,9	114,129
391,4	106,186
391,9	98,214
392,3	92,243
392,8	87,871
393,2	82,814
393,7	76,014
394,1	67,729
394,6	64,071
395,1	64,757
395,5	61,443
396	57,871
396,4	59,614
396,9	57,871
397,3	61,871
397,8	59,671
398,2	57,329
398,7	56,586
399,2	59,671
399,6	57,843
400,1	56,757
400,5	49,9
401	50,929
401,4	46,414
401,9	45,357
402,4	44,786
402,8	42,3
403,3	47,014
403,7	48,186
404,2	50,129
404,6	54,386
405,1	51,643
405,5	48,357
406	47,186
406,5	43,957
406,9	45,729
407,4	42,329
407,8	39,986
408,3	39,129
408,7	38,471
409,2	41,843
409,6	44,643
410,1	44,729
410,6	45,3
411	49,871
411,5	53,814
411,9	56,271
412,4	56,729
412,8	55,186
413,3	59,3
413,7	63,843
414,2	59,186
414,7	66,186
415,1	70,471
415,6	74,757
416	78,814
416,5	75,614
416,9	74,071
417,4	81,329
417,8	84,814
418,3	89,786
418,8	90,443
419,2	91,614
419,7	97,7
420,1	100,786
420,6	100,7
421	96,671
421,5	95,614
421,9	97,243
422,4	97,7
422,8	95,071
423,3	94,957
423,8	92,243
424,2	86,7
424,7	85,671
425,1	85,529
425,6	86,814
426	86,386
426,5	88,157
426,9	92,414
427,4	96,586
427,9	89,471
428,3	90,929
428,8	89,414
429,2	87,386
429,7	84,071
430,1	79,129
430,6	76,986
431	81,386
431,5	82,729
431,9	80,843
432,4	85,043
432,8	86,443
433,3	88,443
433,8	89,871
434,2	93,614
434,7	91,843
435,1	94,871
435,6	94,414
436	94,157
436,5	97,9
436,9	95,9
437,4	94,471
437,8	96,386
438,3	98,957
438,8	101,7
439,2	108,814
439,7	114,929
440,1	126,443
440,6	133,386
441	133,386
441,5	136,414
441,9	146,357
442,4	145,386
442,8	149,386
443,3	150,929
443,7	153,129
444,2	162,271
444,7	166,129
445,1	170,729
445,6	178,1
446	180,957
446,5	189,414
446,9	192,157
447,4	194,529
447,8	205,271
448,3	212,986
448,7	223,157
449,2	231,357
449,6	237,7
450,1	247,386
450,6	263,443
451	272,843
451,5	278,443
451,9	290,614
452,4	299,986
452,8	307,957
453,3	324,243
453,7	331,557
454,2	342,586
454,6	355,643
455,1	360,271
455,5	371,071
456	387,1
456,4	392,814
456,9	407,386
457,3	418,871
457,8	428,443
458,3	444,271
458,7	458,243
459,2	470,329
459,6	485,243
460,1	500,814
460,5	511,843
461	528,929
461,4	540,643
461,9	554,586
462,3	574,357
462,8	593,929
463,2	604,043
463,7	622,643
464,1	640,9
464,6	663,414
465	685,129
465,5	700,643
466	716,957
466,4	735,5
466,9	758,757
467,3	774,357
467,8	793,471
468,2	811,357
468,7	826,243
469,1	851,157
469,6	874,043
470	892,414
470,5	912,671
470,9	928,643
471,4	942,643
471,8	962,5
472,3	978,129
472,7	999,7
473,2	1010,671
473,6	1027,757
474,1	1048,414
474,5	1071,757
475	1093,5
475,4	1110,786
475,9	1123,3
476,4	1149,014
476,8	1171,7
477,3	1189,329
477,7	1210,443
478,2	1232,329
478,6	1250,986
479,1	1266,529
479,5	1279,9
480	1291,814
480,4	1312,071
480,9	1323,243
481,3	1333,786
481,8	1351,3
482,2	1366,3
482,7	1377,471
483,1	1397,586
483,6	1409,5
484	1418,729
484,5	1435,871
484,9	1441,986
485,4	1457,271
485,8	1469,7
486,3	1478,271
486,7	1488,271
487,2	1506,129
487,6	1512,071
488,1	1526,329
488,5	1533,129
489	1549,5
489,4	1565,529
489,9	1573,871
490,4	1582,7
490,8	1590,786
491,3	1600,014
491,7	1608,614
492,2	1618,586
492,6	1622,1
493,1	1633,271
493,5	1634,357
494	1633,214
494,4	1641,929
494,9	1649,929
495,3	1652,129
495,8	1653,729
496,2	1656,3
496,7	1659,329
497,1	1673,729
497,6	1676,557
498	1680,043
498,5	1686,814
498,9	1688,671
499,4	1688,643
499,8	1695,357
500,3	1693,843
500,7	1689,614
501,2	1692,871
501,6	1682,957
502,1	1683,814
502,5	1683,329
503	1690,357
503,4	1688,557
503,9	1688,529
504,3	1689,557
504,8	1691,557
505,2	1691,757
505,7	1693,814
506,1	1692,529
506,6	1695,643
507	1701,757
507,5	1701,7
507,9	1704,871
508,4	1703,957
508,8	1705,186
509,3	1698,271
509,7	1698,3
510,2	1694,929
510,6	1689,014
511,1	1691,443
511,5	1693,386
512	1689,729
512,4	1693,443
512,9	1692,5
513,3	1695,729
513,8	1696,557
514,2	1695,3
514,7	1698,557
515,1	1698,071
515,6	1694,5
516	1690,271
516,5	1686,529
516,9	1685,757
517,4	1684,271
517,8	1683,443
518,3	1684,471
518,7	1684,1
519,2	1684,1
519,6	1686,414
520,1	1685,957
520,5	1688,214
521	1682,414
521,4	1684,643
521,9	1687,814
522,3	1694,043
522,8	1688,014
523,2	1690,529
523,7	1689,814
524,1	1690,957
524,6	1692,357
525	1694,129
525,5	1692,129
525,9	1698,871
526,4	1694,786
526,8	1690,329
527,3	1693,757
527,7	1694,986
528,2	1692,586
528,6	1689,557
529,1	1692,9
529,5	1698,614
530	1704,814
530,4	1704,871
530,9	1706,014
531,3	1706,043
531,8	1712,014
532,2	1706,3
532,6	1704,643
533,1	1707,929
533,5	1710,129
534	1706,957
534,4	1711,843
534,9	1714,471
535,3	1719,871
535,8	1724,214
536,2	1726,643
536,7	1728,071
537,1	1734,014
537,6	1736,186
538	1738,643
538,5	1744,3
538,9	1745,9
539,4	1745,529
539,8	1744,957
540,3	1750,071
540,7	1750,957
541,2	1753,814
541,6	1752,214
542,1	1757,643
542,5	1760,929
543	1768,614
543,4	1766,471
543,9	1770,9
544,3	1779,357
544,8	1779,643
545,2	1786,414
545,7	1793,414
546,1	1796,843
546,5	1803,843
547	1807,9
547,4	1803,243
547,9	1810,014
548,3	1808,586
548,8	1812,5
549,2	1809,443
549,7	1810,729
550,1	1817,5
550,6	1823,929
551	1823,9
551,5	1825,5
551,9	1821,329
552,4	1826,986
552,8	1830,271
553,3	1826,071
553,7	1825,214
554,2	1830,671
554,6	1838,129
555,1	1843,871
555,5	1852,7
555,9	1855,014
556,4	1862,557
556,8	1866,014
557,3	1867,5
557,7	1865,843
558,2	1865,014
558,6	1867,529
559,1	1867,357
559,5	1865,871
560	1866,557
560,4	1870,786
560,9	1871,386
561,3	1872,7
561,8	1867,386
562,2	1870,929
562,7	1872,014
563,1	1879,271
563,6	1875,929
564	1881,871
564,4	1884,3
564,9	1889,414
565,3	1891,843
565,8	1895,186
566,2	1894,557
566,7	1899,186
567,1	1901,529
567,6	1902,671
568	1904,3
568,5	1906,643
568,9	1904,843
569,4	1903,243
569,8	1902,843
570,3	1899,986
570,7	1897,271
571,1	1895,814
571,6	1893,014
572	1897,014
572,5	1898,071
572,9	1891,814
573,4	1890,929
573,8	1896,157
574,3	1898,157
574,7	1899,729
575,2	1898,729
575,6	1895,671
576,1	1903,814
576,5	1910,3
576,9	1903,786
577,4	1899,186
577,8	1894,414
578,3	1894,929
578,7	1892,1
579,2	1889,614
579,6	1883,9
580,1	1883,329
580,5	1884,329
581	1883,643
581,4	1882,986
581,9	1882,814
582,3	1881,157
582,7	1881,729
583,2	1885,043
583,6	1881,071
584,1	1881,929
584,5	1877,5
585	1876,671
585,4	1868,786
585,9	1860,986
586,3	1859,757
586,8	1866,843
587,2	1862,3
587,6	1862,043
588,1	1866,929
588,5	1868,129
589	1868,757
589,4	1866,643
589,9	1853,386
590,3	1848,671
590,8	1839,9
591,2	1835,271
591,7	1835,443
592,1	1834,557
592,5	1829,871
593	1829,071
593,4	1824,529
593,9	1823,1
594,3	1816,729
594,8	1810,929
595,2	1805,9
595,7	1801,586
596,1	1797,271
596,6	1798,5
597	1797,014
597,4	1796,614
597,9	1795,671
598,3	1794,129
598,8	1795,357
599,2	1793,814
599,7	1789,957
600,1	1783,271
600,6	1776,014
601	1774,071
601,4	1774,443
601,9	1771,871
602,3	1765,214
602,8	1763,614
603,2	1760,3
603,7	1755,5
604,1	1749,3
604,6	1737,214
605	1727,643
605,4	1726,443
605,9	1715,643
606,3	1708,7
606,8	1700,757
607,2	1694,614
607,7	1686,471
608,1	1681,014
608,6	1677,814
609	1686,386
609,4	1686,443
609,9	1689,586
610,3	1685,471
610,8	1683,7
611,2	1674,557
611,7	1666,957
612,1	1653,557
612,6	1646,814
613	1638,243
613,4	1633,757
613,9	1627,443
614,3	1622,729
614,8	1619,929
615,2	1613,329
615,7	1613,329
616,1	1609,643
616,6	1601,043
617	1593,157
617,4	1593,643
617,9	1591,843
618,3	1584,843
618,8	1582,1
619,2	1572,729
619,7	1574,871
620,1	1573,843
620,5	1566,671
621	1553,786
621,4	1551,071
621,9	1536,071
622,3	1530,271
622,8	1511,7
623,2	1502,386
623,6	1497,357
624,1	1490,7
624,5	1482,9
625	1476,643
625,4	1474,043
625,9	1475,986
626,3	1472,843
626,8	1464,757
627,2	1462,957
627,6	1456,271
628,1	1448,757
628,5	1446,386
629	1436,9
629,4	1427,986
629,9	1424,443
630,3	1413,614
630,7	1400,186
631,2	1399,043
631,6	1386,786
632,1	1383,643
632,5	1375,214
633	1367,5
633,4	1362,9
633,8	1359,929
634,3	1350,043
634,7	1341,471
635,2	1326,443
635,6	1323,443
636,1	1316,043
636,5	1308,414
636,9	1300,871
637,4	1292,671
637,8	1282,729
638,3	1281,7
638,7	1271,7
639,2	1258,529
639,6	1252,786
640	1252,043
640,5	1247,643
640,9	1244,843
641,4	1241,357
641,8	1239,5
642,2	1240,7
642,7	1238,929
643,1	1233,871
643,6	1228,7
644	1220,5
644,5	1217,814
644,9	1212,729
645,3	1203,157
645,8	1188,3
646,2	1181,414
646,7	1174,214
647,1	1167,071
647,6	1162,586
648	1158,814
648,4	1149,214
648,9	1151,786
649,3	1143,986
649,8	1139,1
650,2	1142,786
650,6	1129,043
651,1	1120,157
651,5	1123,671
652	1111,671
652,4	1103,871
652,9	1098,957
653,3	1088,1
653,7	1081,643
654,2	1077,7
654,6	1067,957
655,1	1067,129
655,5	1066,071
655,9	1059,9
656,4	1051,3
656,8	1048,5
657,3	1037,871
657,7	1036,129
658,2	1023,757
658,6	1015,786
659	1007,414
659,5	1004,529
659,9	994,929
660,4	995,186
660,8	981,129
661,2	979,014
661,7	976,729
662,1	971,643
662,6	966,986
663	965,243
663,4	955,9
663,9	960,157
664,3	955,843
664,8	946,129
665,2	939,729
665,6	931,357
666,1	925,929
666,5	920,557
667	909,929
667,4	902,3
667,9	896,843
668,3	890,5
668,7	885,414
669,2	883,414
669,6	878,129
670,1	871,043
670,5	864,529
670,9	858,329
671,4	855,3
671,8	851,529
672,3	849,843
672,7	847,157
673,1	837,071
673,6	833,471
674	833,214
674,5	827,014
674,9	817,757
675,3	804,7
675,8	796,786
676,2	800,014
676,7	792,671
677,1	784,729
677,5	778,814
678	778,5
678,4	777,557
678,9	776,157
679,3	769,357
679,7	767,5
680,2	758,957
680,6	756,3
681,1	750,357
681,5	747,7
681,9	742,643
682,4	739,814
682,8	736,986
683,3	735,7
683,7	734,814
684,1	729,129
684,6	720,329
685	711,157
685,5	703,243
685,9	691,757
686,3	687,3
686,8	678,271
687,2	673,671
687,7	665,7
688,1	662,243
688,5	662,186
689	664,9
689,4	662,243
689,9	655,3
690,3	649,614
690,7	647,471
691,2	647,786
691,6	642,786
692	636,529
692,5	627,557
692,9	624,957
693,4	623,671
693,8	620,9
694,2	608,643
694,7	605,929
695,1	605,386
695,6	605,214
696	605,129
696,4	599,414
696,9	594,157
697,3	591,929
697,8	584,129
698,2	574,557
698,6	576,757
699,1	571,757
699,5	573,271
699,9	569,186
700,4	567,186
700,8	565,414
701,3	565,271
701,7	555,414
702,1	554,5
702,6	544,471
703	544,929
703,5	544,1
703,9	538,414
704,3	537,671
704,8	533,329
705,2	527,529
705,6	527,471
706,1	522,157
706,5	517,843
707	517,3
707,4	515,043
707,8	511,729
708,3	512,471
708,7	511,9
709,2	509,586
709,6	502,7
710	502,186
710,5	493,271
710,9	491,071
711,3	483,643
711,8	480,014
712,2	475,329
712,7	476,157
713,1	472,043
713,5	474,386
714	472,186
714,4	470,586
714,8	465,414
715,3	462,786
715,7	458,329
716,2	452,157
716,6	449,5
717	442,471
717,5	437,386
717,9	434,729
718,3	429,271
718,8	427,586
719,2	424,043
719,7	415,014
720,1	418,3
720,5	424,3
721	419,243
721,4	416,271
721,8	415,557
722,3	411,014
722,7	413,814
723,2	407,014
723,6	393,329
724	391,786
724,5	388,957
724,9	383,186
725,3	383,414
725,8	379,586
726,2	378,757
726,7	379,414
727,1	375,5
727,5	374,071
728	371,614
728,4	372,929
728,8	369,529
729,3	365,614
729,7	360,671
730,1	361,7
730,6	360,1
731	357,843
731,5	348,843
731,9	342,7
732,3	342,243
732,8	344,243
733,2	340,843
733,6	339,071
734,1	341,329
734,5	342,557
734,9	344,471
735,4	342,043
735,8	335,986
736,3	337,671
736,7	336,614
737,1	330,157
737,6	328,986
738	326,814
738,4	324,729
738,9	327,014
739,3	322,9
739,7	319,9
740,2	319,357
740,6	321,357
741,1	323,586
741,5	320,729
741,9	319,9
742,4	318,243
742,8	316,986
743,2	312,929
743,7	302,757
744,1	293,443
744,5	290,643
745	282,557
745,4	279,014
745,8	275,957
746,3	276,529
746,7	277,243
747,2	278,7
747,6	285,757
748	289,986
748,5	289,9
748,9	286,043
749,3	281,843
749,8	284,071
750,2	285,186
750,6	277,043
751,1	277,214
751,5	275,729
751,9	279,671
752,4	283,814
752,8	279,271
753,3	271,9
753,7	273,729
754,1	271,014
754,6	267,529
755	263,3
755,4	256,157
755,9	254,843
756,3	255,014
756,7	252,386
757,2	250,386
757,6	251,786
758	252,471
758,5	254,929
758,9	255,186
759,3	254,9
759,8	252,843
760,2	248,7
760,6	248,3
761,1	244,443
761,5	239,986
761,9	237,271
762,4	235,986
762,8	235,471
763,3	233,3
763,7	225,671
764,1	226,929
764,6	231,7
765	228,014
765,4	229,329
765,9	225,529
766,3	228,243
766,7	231,414
767,2	227,986
767,6	227,271
768	226,786
768,5	218,843
768,9	219,329
769,3	213,871
769,8	210,671
770,2	211,214
770,6	208,843
771,1	210,071
771,5	213,443
771,9	216,1
772,4	217,843
772,8	216,186
773,2	214,471
773,7	211,357
774,1	209,843
774,5	200,5
775	197,643
775,4	195,414
775,8	192,586
776,3	196,443
776,7	193,871
777,1	193,5
777,6	199,271
778	198,557
778,4	197,014
778,9	201,014
779,3	193,043
779,7	189,557
780,2	188,014
780,6	185,614
781	181,043
781,5	183,414
781,9	177,843
782,3	174,614
782,8	179,3
783,2	176,786
783,6	177,529
784,1	175,271
784,5	170,929
784,9	172,786
785,4	177,529
785,8	170,529
786,2	172,843
786,7	171,471
787,1	169,071
787,5	166,157
788	164,957
788,4	159,786
788,8	160,071
789,3	154,043
789,7	156,986
790,1	156,3
790,6	157,957
791	151,471
791,4	153,586
791,9	147,414
792,3	147,786
792,7	148,186
793,2	142,671
793,6	142,557
794	147,014
794,5	143,071
794,9	149,243
795,3	149,643
795,8	142,529
796,2	149,986
796,6	147,471
797,1	147,986
797,5	147,786
797,9	142,443
798,4	138,586
798,8	141,214
799,2	134,929
799,7	135,157
800,1	129,329
800,5	129,386
801	134,3
801,4	131,3
801,8	126,586
802,2	129,643
802,7	124,929
803,1	125,814
803,5	123,443
804	115,443
804,4	119,129
804,8	120,243
805,3	118,757
805,7	121,7
806,1	121,3
806,6	119,129
807	124,414
807,4	122,443
807,9	117,014
808,3	113,843
808,7	112,871
809,2	111,814
809,6	114,529
810	114,557
810,4	111,414
810,9	113,357
811,3	115,043
811,7	111,586
812,2	114,5
812,6	110,471
813	111,986
813,5	115,729
813,9	118,786
814,3	115,814
814,8	113,7
815,2	107,557
815,6	106,043
816,1	101,614
816,5	98,9
816,9	95,786
817,3	96,1
817,8	102,129
818,2	107,014
818,6	104,471
819,1	103,871
819,5	101,386
819,9	100,186
820,4	100,271
820,8	93,929
821,2	87,329
821,7	92,957
822,1	97,557
822,5	105,843
822,9	105,414
823,4	105,386
823,8	109,729
824,2	113,957
824,7	109,671
825,1	100,129
825,5	89,643
826	84,929
826,4	82,843
826,8	77,3
827,3	75,471
827,7	76,243
828,1	78,186
828,5	80,043
829	79,214
829,4	78,757
829,8	76,643
830,3	75,271
830,7	71,214
831,1	71,729
831,6	71,414
832	73,271
832,4	72,9
832,8	73,271
833,3	70,7
833,7	68,7
834,1	64,9
834,6	65,1
835	66,3
835,4	65,9
835,8	65,157
836,3	65,214
836,7	69,614
837,1	69,471
837,6	71,643
838	69,529
838,4	68,071
838,9	70,643
839,3	70,243
839,7	72,929
840,1	68,5
840,6	64,843
841	64,643
841,4	65,5
841,9	65,243
842,3	64,986
842,7	61,271
843,1	66,757
843,6	70,357
844	71,471
844,4	75,7
844,9	78,529
845,3	76,186
845,7	74,586
846,2	70,5
846,6	66,129
847	66,529
847,4	62,757
847,9	61,329
848,3	62,186
848,7	64,443
849,2	64,814
849,6	60,671
850	63,329
850,4	64,471
850,9	61,671
851,3	63,671
851,7	65,129
852,2	65,5
852,6	70,129
853	67,729
853,4	66,214
853,9	62,3
854,3	61,214
854,7	59,443
855,2	59,843
855,6	57,557
856	53,643
856,4	48,243
856,9	50,557
857,3	51,814
857,7	48,9
858,2	51,243
858,6	51,986
859	55,014
859,4	57,5
859,9	58,529
860,3	53,786
860,7	57,529
861,1	56,129
861,6	53,129
862	51,5
862,4	50,414
862,9	46,186
863,3	48,043
863,7	44,557
864,1	45,7
864,6	43,757
865	42,929
865,4	43,357
865,9	50,214
866,3	47,1
866,7	44,7
867,1	41,386
867,6	42,671
868	42,414
868,4	42,471
868,8	38,329
869,3	39,186
869,7	44,529
870,1	43,786
870,6	45,129
871	45,757
871,4	48,9
871,8	44,186
872,3	46,014
872,7	42,214
873,1	41,3
873,5	41,814
874	39,386
874,4	37,1
874,8	38,614
875,3	37,3
875,7	36,929
876,1	40,586
876,5	40,671
877	39,471
877,4	34,586
877,8	37,957
878,2	40,186
878,7	41,329
879,1	38,729
879,5	40,671
879,9	42,443
880,4	44,214
880,8	45,071
881,2	45,129
881,7	41,443
882,1	39,471
882,5	35,843
882,9	35,386
883,4	33,843
883,8	33,071
884,2	32,414
884,6	32,043
885,1	34,329
885,5	34,9
885,9	34,614
886,3	36,557
886,8	35,214
887,2	31,671
887,6	30,014
888	26,929
888,5	26,7
888,9	23,614
889,3	21,014
889,8	19,7
890,2	18,986
890,6	22,043
891	24,957
891,5	24,471
891,9	28,329
892,3	30,986
892,7	33,443
893,2	37,157
893,6	37,557
894	35,729
894,4	32,557
894,9	32,614
895,3	33,186
895,7	31,843
896,1	28,7
896,6	29,214
897	31,614
897,4	39,9
897,8	40,157
898,3	38,557
898,7	35,9
899,1	36,414
899,5	32,614
900	24,471
900,4	20,414
900,8	19,671
901,2	17,786
901,7	19,586
902,1	20,5
902,5	23,414
902,9	28,757
903,4	27,929
903,8	25,814
904,2	25,671
904,6	24,243
905,1	23,757
905,5	23,643
905,9	25,929
906,3	24,214
906,8	27,1
907,2	27,814
907,6	28,443
908	28,186
908,5	25,157
908,9	18,929
909,3	17,7
909,7	15,529
910,2	17,357
910,6	19,871
911	13,614
911,4	19,614
911,9	22,471
912,3	23,929
912,7	29,729
913,1	30,214
913,6	26,614
914	34,414
914,4	27,671
914,8	30,643
915,3	31,071
915,7	26,1
916,1	25,357
916,5	26,557
916,9	23,786
917,4	25,557
917,8	23,414
918,2	20,871
918,6	18,329
919,1	18,043
919,5	17,957
919,9	18,357
920,3	19,186
920,8	17,786
921,2	18,186
921,6	17,129
922	16,157
922,5	13,529
922,9	12,7
923,3	15,843
923,7	15,414
924,2	13,986
924,6	14,9
925	14,986
925,4	16,357
925,8	16,386
926,3	12,871
926,7	14,871
927,1	16,129
927,5	15,843
928	13,443
928,4	9,757
928,8	17,271
929,2	16,614
929,7	17,271
930,1	17,643
930,5	16,7
930,9	20,786
931,3	26,414
931,8	18,157
932,2	16,9
932,6	15,014
933	13,243
933,5	15,071
933,9	18,014
934,3	12,986
934,7	14,3
935,2	15,843
935,6	17,357
936	18,243
936,4	22,386
936,8	18,986
937,3	19,786
937,7	18,557
938,1	22,643
938,5	16,157
939	17,957
939,4	16,843
939,8	16,843
940,2	20,5
940,6	23,757
941,1	16,357
941,5	23,329
941,9	20,329
942,3	18,843
942,8	18,329
943,2	20,214
943,6	16,814
944	22,386
944,4	21,157
944,9	20,386
945,3	17,443
945,7	14,529
946,1	5,557
946,6	4,729
947	1,071
947,4	5,271
947,8	9,443
948,2	7,357
948,7	7,157
949,1	11,757
949,5	16,071
949,9	19,586
950,3	16,843
950,8	12,014
951,2	15,614
951,6	15,957
952	20,586
952,5	15,557
952,9	15,557
953,3	11,957
953,7	16,357
954,1	20,329
954,6	25,414
955	21,329
955,4	22,357
955,8	25,071
956,2	27,529
956,7	27,243
957,1	21,957
957,5	20,986
957,9	20,586
958,3	22,329
958,8	17,129
959,2	19,3
959,6	21,386
960	19,786
960,5	20,529
960,9	21,643
961,3	19,929
961,7	22,814
962,1	20,386
962,6	17,214
963	20,186
963,4	16,243
963,8	16,814
964,2	20,071
964,7	20,7
965,1	23,414
965,5	24,614
965,9	23,557
966,3	25,1
966,8	21,9
967,2	20,871
967,6	20,671
968	13,329
968,4	14,557
968,9	15,586
969,3	16,957
969,7	17,957
970,1	18,9
970,5	15,814
971	24,5
971,4	24,014
971,8	21,871
972,2	21,1
972,6	21,614
973,1	21,586
973,5	25,671
973,9	24,386
974,3	23,414
974,7	27,7
975,2	30,443
975,6	29,757
976	33,329
976,4	25,986
976,8	23,243
977,3	19,986
977,7	12,957
978,1	10,157
978,5	9,043
978,9	2,814
979,4	4,814
979,8	1,243
980,2	6,386
980,6	10,186
981	10,3
981,5	12,043
981,9	13,214
982,3	15,586
982,7	17,843
983,1	16,843
983,6	16,071
984	19,843
984,4	19,986
984,8	20,529
985,2	20,157
985,6	17,329
986,1	15,843
986,5	17,557
986,9	10,186
987,3	11,443
987,7	10,671
988,2	10,129
988,6	13,214
989	11,329
989,4	10,614
989,8	8,386
990,3	5,414
990,7	4,957
991,1	1,957
991,5	3,9
991,9	8,186
992,3	13,386
992,8	21,186
993,2	23,043
993,6	23,843
994	29,271
994,4	28,014
994,9	26,586
995,3	20,757
995,7	16,786
996,1	15,014
996,5	18,529
996,9	12,5
997,4	12,3
997,8	10,357
998,2	11,214
998,6	6,014
999	7,157
999,5	4,814
999,9	9,757
1000,3	12,043
1000,7	15,243
1001,1	12,557
1001,5	18,071
1002	20,471
1002,4	19,214
1002,8	14,386
1003,2	15,529
1003,6	13,786
1004	17,586
1004,5	15,386
1004,9	16,014
1005,3	9,357
1005,7	14,671
1006,1	12,129
1006,6	11,729
1007	13,271
1007,4	14,329
1007,8	12,557
1008,2	17,1
1008,6	18,243
1009,1	13,443
1009,5	13,9
1009,9	11,157
1010,3	16,386
1010,7	13,5
1011,1	13,814
1011,6	12,757
1012	19,414
1012,4	18,557
1012,8	19,243
1013,2	17,9
1013,6	21,586
1014,1	27,1
1014,5	25,214
1014,9	25,043
1015,3	22,643
1015,7	25,071
1016,1	19,271
1016,6	20,5
1017	15,843
1017,4	17,586
1017,8	13,071
1018,2	16,357
1018,6	12,014
1019,1	16,557
1019,5	13,757
1019,9	14,729
1020,3	12,443
1020,7	18,443
1021,1	18,3
1021,6	21,9
1022	24,671
1022,4	25,214
1022,8	22,586
1023,2	24,071
1023,6	20,071
1024,1	27,3
1024,5	25,786
1024,9	19,729
1025,3	17,329
1025,7	17,757
1026,1	18,557
1026,6	19,529
1027	11,014
1027,4	14,243
1027,8	17,443
1028,2	19,643
1028,6	22,986
1029	22,271
1029,5	23,357
1029,9	22,271
1030,3	17,7
1030,7	14,386
1031,1	15,9
1031,5	13,157
1032	10,986
1032,4	7,271
1032,8	12,3
1033,2	13,586
1033,6	18,243
1034	15,614
1034,4	17,814
1034,9	19,871
1035,3	17,9
1035,7	17,243
1036,1	13,3
1036,5	7,929
1036,9	9,5
1037,4	12,129
1037,8	9,186
1038,2	12,5
1038,6	8,557
1039	13,157
1039,4	18,7
1039,8	14,871
1040,3	12,443
1040,7	13,871
1041,1	11,1
1041,5	13,5
1041,9	11,614
1042,3	10,529
1042,7	12,557
1043,2	8,129
1043,6	5,614
1044	9,986
1044,4	13,271
1044,8	16,529
1045,2	15,071
1045,6	16,243
1046,1	19,186
1046,5	21,014
1046,9	17,7
1047,3	11,871
1047,7	8,386
1048,1	9,471
1048,5	9,757
1049	12,786
1049,4	15,071
1049,8	17,929
1050,2	18,214
1050,6	21,614
1051	25,414
1051,4	26,614
1051,9	24,729
1052,3	30,186
1052,7	29,614
1053,1	29,9
1053,5	29,3
1053,9	23,9
1054,3	22,386
1054,8	26,557
1055,2	23,386
1055,6	24,643
1056	24,386
1056,4	21,386
1056,8	22,357
1057,2	20,157
1057,6	13,929
1058,1	10,729
1058,5	3,014
1058,9	7,843
1059,3	11,414
1059,7	9,986
1060,1	13,157
1060,5	15,671
1061	16,643
1061,4	15,586
1061,8	14,043
1062,2	10,3
1062,6	12,929
1063	14,929
1063,4	12,757
1063,8	10,043
1064,3	12,5
1064,7	10,271
1065,1	9,671
1065,5	7,1
1065,9	4,529
1066,3	5,843
1066,7	7,271
1067,1	8,843
1067,6	11,071
1068	8,729
1068,4	10,129
1068,8	11,557
1069,2	11,129
1069,6	7,757
1070	12,5
1070,4	8,1
1070,9	7,671
1071,3	6,1
1071,7	3,186
1072,1	-0,186
1072,5	-0,471
1072,9	-1,871
1073,3	1,957
1073,7	5,986
1074,2	9,957
1074,6	12,843
1075	12,757
1075,4	17,557
1075,8	17,243
1076,2	14,871
1076,6	15,757
1077	10,814
1077,5	11,1
1077,9	14,643
1078,3	14,071
1078,7	13,729
1079,1	15,214
1079,5	13,9
1079,9	16,843
1080,3	14,157
1080,7	11,729
1081,2	15,757
1081,6	15,214
1082	14,243
1082,4	18,214
1082,8	19,671
1083,2	21,7
1083,6	24,986
1084	18,5
1084,5	17,757
1084,9	11,986
1085,3	5,157
1085,7	2,386
1086,1	-0,9
1086,5	1,671
1086,9	3,843
1087,3	4,014
1087,7	11,3
1088,2	14,729
1088,6	15,271
1089	16,557
1089,4	11,443
1089,8	10,786
1090,2	10,071
1090,6	7,586
1091	10,357
1091,4	8,443
1091,9	9,071
1092,3	11,786
1092,7	9,414
1093,1	16,071
1093,5	16,329
1093,9	13,614
1094,3	18,786
1094,7	16,243
1095,1	16,843
1095,5	22,157
1096	15,157
1096,4	18,271
1096,8	16,986
1097,2	11,214
1097,6	14,843
1098	14,529
1098,4	16,1
1098,8	17,1
1099,2	19,357
1099,6	17,671
1100,1	18,671
1100,5	14,329
1100,9	12,671
1101,3	9,529
1101,7	7,071
1102,1	5,557
1102,5	10,814
1102,9	13,243
1103,3	16,386
1103,7	17,386
1104,2	15,9
1104,6	19,7
1105	17,329
1105,4	14,957
1105,8	11,386
1106,2	9,5
1106,6	6,786
1107	5,586
1107,4	4,367
1107,8	2,5
1108,3	-0,1
