Data from Subt2_154.txt Node
Date: Sat Aug 26 18:32:08 MSK 2023
User: vat
Spectrometer: MAYP114033
Trigger mode: 0
Integration Time (sec): 1,000000E0
Scans to average: 5
Electric dark correction enabled: true
Nonlinearity correction enabled: false
Boxcar width: 3
XAxis mode: Wavelengths
Number of Pixels in Spectrum: 2068
>>>>>Begin Spectral Data<<<<<
199,4	0,633
199,9	3,633
200,4	2,633
200,8	1,633
201,3	-1,538
201,8	0,976
202,2	-2,967
202,7	0,09
203,2	-3,967
203,6	-4,567
204,1	-6,71
204,6	-5,567
205	-7,624
205,5	-1,51
206	-5,481
206,4	-3,852
206,9	-3,938
207,4	-2,081
207,8	-1,452
208,3	-0,681
208,8	-2,795
209,2	0,062
209,7	0,433
210,2	5,233
210,6	6,433
211,1	10,033
211,5	5,519
212	5,29
212,5	6,348
212,9	2,548
213,4	-1,938
213,9	-3,538
214,3	-4,681
214,8	0,633
215,3	-0,767
215,7	-1,538
216,2	3,348
216,7	2,205
217,1	-0,081
217,6	-0,681
218,1	-3,652
218,5	-0,595
219	-7,71
219,5	-7,481
219,9	-9,252
220,4	1,548
220,9	-0,138
221,3	-0,938
221,8	-0,995
222,3	3,405
222,7	2,605
223,2	7,148
223,6	-1,167
224,1	0,119
224,6	1,09
225	-2,167
225,5	0,49
226	1,176
226,4	1,462
226,9	3,119
227,4	8,176
227,8	1,348
228,3	3,576
228,8	3,462
229,2	3,805
229,7	3,748
230,2	4,548
230,6	3,433
231,1	15,976
231,5	17,805
232	19,833
232,5	17,719
232,9	16,862
233,4	15,633
233,9	11,29
234,3	10,205
234,8	6,919
235,3	3,09
235,7	4,633
236,2	1,748
236,7	-0,938
237,1	3,976
237,6	-4,167
238,1	-2,31
238,5	-6,052
239	-5,795
239,4	0,519
239,9	2,119
240,4	-2,852
240,8	4,805
241,3	-0,052
241,8	0,062
242,2	-0,367
242,7	-2,252
243,2	-5,11
243,6	-4,252
244,1	-6,281
244,6	-2,024
245	1,748
245,5	-0,31
245,9	-7,281
246,4	-1,481
246,9	-0,624
247,3	0,262
247,8	0,576
248,3	1,405
248,7	3,662
249,2	11,633
249,7	7,89
250,1	10,062
250,6	7,205
251	5,519
251,5	4,405
252	1,662
252,4	2,376
252,9	1,633
253,4	-6,824
253,8	-9,224
254,3	-7,91
254,8	-8,195
255,2	-5,91
255,7	-12,881
256,1	-7,252
256,6	-0,51
257,1	4,233
257,5	0,519
258	0,119
258,5	-0,481
258,9	2,376
259,4	0,348
259,9	-0,481
260,3	-5,195
260,8	-2,138
261,2	-2,138
261,7	-1,852
262,2	-2,11
262,6	-5,195
263,1	0,005
263,6	1,005
264	3,148
264,5	5,49
264,9	7,405
265,4	9,405
265,9	7,633
266,3	7,09
266,8	9,776
267,3	4,348
267,7	3,348
268,2	-0,624
268,7	-0,767
269,1	4,49
269,6	0,205
270	2,176
270,5	-0,681
271	-0,338
271,4	-1,738
271,9	-6,852
272,4	-5,967
272,8	-5,452
273,3	-10,081
273,7	-2,738
274,2	-6,852
274,7	-5,024
275,1	-2,452
275,6	-7,195
276,1	-10,395
276,5	-4,881
277	-7,538
277,4	-4,652
277,9	-0,767
278,4	1,89
278,8	6,29
279,3	10,862
279,8	7,776
280,2	11,29
280,7	15,519
281,1	11,519
281,6	8,776
282,1	8,376
282,5	4,948
283	4,976
283,4	3,348
283,9	-3,281
284,4	2,519
284,8	4,862
285,3	0,062
285,8	1,005
286,2	1,376
286,7	2,919
287,1	2,462
287,6	-1,081
288,1	-2,824
288,5	3,062
289	1,176
289,5	4,205
289,9	2,748
290,4	8,833
290,8	6,948
291,3	7,405
291,8	9,89
292,2	9,548
292,7	7,062
293,1	5,89
293,6	2,69
294,1	7,548
294,5	4,862
295	1,948
295,5	0,176
295,9	2,205
296,4	3,033
296,8	1,29
297,3	-2,738
297,8	-5,652
298,2	-10,31
298,7	-4,11
299,1	-8,252
299,6	-8,052
300,1	-6,481
300,5	-4,938
301	4,033
301,5	7,662
301,9	1,062
302,4	1,005
302,8	-1,138
303,3	0,548
303,8	-6,081
304,2	-11,824
304,7	-15,195
305,1	-15,967
305,6	-14,195
306,1	-9,481
306,5	-7,795
307	-4,138
307,4	1,176
307,9	2,376
308,4	2,748
308,8	-2,767
309,3	-3,167
309,8	-6,852
310,2	1,005
310,7	-3,91
311,1	-3,71
311,6	0,548
312,1	7,176
312,5	6,662
313	11,633
313,4	5,919
313,9	5,233
314,4	4,662
314,8	3,976
315,3	1,548
315,7	-3,224
316,2	-8,91
316,7	-9,881
317,1	-3,281
317,6	-1,252
318	5,205
318,5	1,548
319	5,033
319,4	6,29
319,9	14,148
320,3	12,49
320,8	10,576
321,3	8,462
321,7	13,748
322,2	11,748
322,6	13,005
323,1	6,433
323,6	6,862
324	6,776
324,5	3,462
324,9	4,576
325,4	3,719
325,9	2,319
326,3	2,833
326,8	0,519
327,2	-3,367
327,7	-2,224
328,2	0,576
328,6	3,862
329,1	0,376
329,5	-2,595
330	-2,852
330,5	5,033
330,9	6,548
331,4	1,662
331,8	-0,824
332,3	6,348
332,8	12,062
333,2	12,462
333,7	7,319
334,1	3,805
334,6	3,519
335,1	-1,681
335,5	-5,138
336	-9,652
336,4	-8,224
336,9	2,376
337,4	6,433
337,8	6,148
338,3	13,205
338,7	15,09
339,2	16,233
339,7	15,633
340,1	6,576
340,6	4,49
341	3,262
341,5	0,662
342	-2,367
342,4	-2,167
342,9	-4,881
343,3	-3,167
343,8	-5,91
344,2	-5,052
344,7	0,29
345,2	0,29
345,6	0,09
346,1	2,119
346,5	-2,71
347	-3,452
347,5	-5,11
347,9	-2,881
348,4	0,062
348,8	0,005
349,3	2,976
349,8	9,119
350,2	15,548
350,7	14,09
351,1	11,948
351,6	16,548
352	17,062
352,5	17,519
353	26,033
353,4	26,576
353,9	32,376
354,3	41,119
354,8	44,576
355,3	62,576
355,7	77,576
356,2	92,405
356,6	112,49
357,1	141,948
357,5	163,519
358	196,69
358,5	219,89
358,9	254,519
359,4	291,005
359,8	335,862
360,3	389,433
360,8	441,233
361,2	503,633
361,7	581,176
362,1	660,319
362,6	745,29
363	835,805
363,5	927,633
364	1034,548
364,4	1134,233
364,9	1231,776
365,3	1334,176
365,8	1431,405
366,3	1520,548
366,7	1600,862
367,2	1669,948
367,6	1729,976
368,1	1776,776
368,5	1804,748
369	1820,205
369,5	1822,033
369,9	1810,205
370,4	1787,033
370,8	1749,033
371,3	1692,576
371,7	1631,833
372,2	1560,919
372,7	1489,548
373,1	1406,662
373,6	1315,433
374	1233,805
374,5	1160,205
374,9	1079,433
375,4	1004,033
375,9	926,29
376,3	854,919
376,8	795,09
377,2	730,548
377,7	665,662
378,2	610,033
378,6	556,519
379,1	506,09
379,5	467,519
380	430,233
380,4	392,89
380,9	362,233
381,4	332,976
381,8	308,862
382,3	291,862
382,7	270,033
383,2	250,976
383,6	233,376
384,1	218,062
384,6	204,833
385	189,462
385,5	176,005
385,9	159,633
386,4	146,033
386,8	138,776
387,3	127,319
387,7	120,776
388,2	115,833
388,7	103,633
389,1	100,662
389,6	95,462
390	86,519
390,5	84,49
390,9	79,176
391,4	70,433
391,9	67,776
392,3	64,005
392,8	55,462
393,2	47,805
393,7	41,833
394,1	37,033
394,6	33,49
395,1	36,862
395,5	33,348
396	35,633
396,4	36,69
396,9	35,233
397,3	35,405
397,8	38,605
398,2	33,176
398,7	30,462
399,2	29,376
399,6	32,776
400,1	34,376
400,5	28,176
401	27,005
401,4	24,433
401,9	28,119
402,4	29,576
402,8	25,148
403,3	29,348
403,7	32,376
404,2	37,09
404,6	40,462
405,1	41,519
405,5	37,262
406	38,005
406,5	33,205
406,9	33,462
407,4	26,948
407,8	28,776
408,3	30,805
408,7	33,748
409,2	38,233
409,6	42,462
410,1	47,919
410,6	56,005
411	56,862
411,5	57,805
411,9	59,89
412,4	62,148
412,8	65,233
413,3	68,233
413,7	71,833
414,2	73,662
414,7	81,605
415,1	90,948
415,6	100,519
416	104,376
416,5	108,405
416,9	107,062
417,4	114,462
417,8	122,833
418,3	127,719
418,8	132,69
419,2	141,576
419,7	150,376
420,1	155,633
420,6	162,576
421	162,405
421,5	171,805
421,9	176,148
422,4	182,862
422,8	187,776
423,3	199,49
423,8	207,005
424,2	210,948
424,7	215,576
425,1	222,405
425,6	233,29
426	237,89
426,5	246,376
426,9	255,433
427,4	267,49
427,9	271,033
428,3	282,776
428,8	286,319
429,2	295,348
429,7	306,976
430,1	316,748
430,6	330,976
431	350,148
431,5	366,576
431,9	380,719
432,4	403,576
432,8	423,348
433,3	446,033
433,8	466,862
434,2	487,805
434,7	511,49
435,1	534,748
435,6	557,462
436	580,633
436,5	609,176
436,9	633,29
437,4	661,548
437,8	687,09
438,3	720,548
438,8	749,319
439,2	781,89
439,7	816,462
440,1	857,205
440,6	892,748
441	926,262
441,5	970,862
441,9	1015,69
442,4	1055,776
442,8	1094,319
443,3	1140,805
443,7	1190,033
444,2	1243,719
444,7	1286,976
445,1	1340,376
445,6	1392,833
446	1451,633
446,5	1497,862
446,9	1550,348
447,4	1604,548
447,8	1667,976
448,3	1729,548
448,7	1790,462
449,2	1854,662
449,6	1930,948
450,1	2000,948
450,6	2073,09
451	2141,033
451,5	2211,948
451,9	2299,205
452,4	2373,89
452,8	2439,662
453,3	2521,119
453,7	2594,548
454,2	2675,005
454,6	2751,005
455,1	2822,548
455,5	2895,548
456	2988,233
456,4	3065,062
456,9	3154,576
457,3	3239,148
457,8	3327,805
458,3	3418,433
458,7	3517,548
459,2	3601,919
459,6	3698,29
460,1	3790,148
460,5	3879,376
461	3974,548
461,4	4066,462
461,9	4162,005
462,3	4258,633
462,8	4355,519
463,2	4454,633
463,7	4549,833
464,1	4647,462
464,6	4749,148
465	4839,89
465,5	4933,033
466	5027,233
466,4	5117,233
466,9	5218,319
467,3	5308,119
467,8	5398,319
468,2	5487,462
468,7	5582,605
469,1	5672,89
469,6	5763,09
470	5853,805
470,5	5942,976
470,9	6027,719
471,4	6114,976
471,8	6200,519
472,3	6284,719
472,7	6363,69
473,2	6437,919
473,6	6519,033
474,1	6597,29
474,5	6680,748
475	6762,462
475,4	6839,176
475,9	6916,69
476,4	6994,948
476,8	7067,633
477,3	7138,748
477,7	7204,948
478,2	7266,405
478,6	7318,462
479,1	7377,662
479,5	7434,833
480	7489,948
480,4	7541,805
480,9	7586,976
481,3	7630,433
481,8	7686,233
482,2	7734,862
482,7	7773,776
483,1	7811,262
483,6	7848,262
484	7886,205
484,5	7918,805
484,9	7940,062
485,4	7963,719
485,8	7986,319
486,3	8004,376
486,7	8027,976
487,2	8043,205
487,6	8056,948
488,1	8069,662
488,5	8076,719
489	8089,519
489,4	8099,033
489,9	8090,319
490,4	8089,748
490,8	8088,576
491,3	8090,662
491,7	8086,233
492,2	8076,205
492,6	8057,119
493,1	8044,662
493,5	8028,405
494	8000,205
494,4	7977,948
494,9	7951,69
495,3	7930,976
495,8	7916,262
496,2	7894,09
496,7	7864,89
497,1	7851,862
497,6	7813,262
498	7782,348
498,5	7752,548
498,9	7715,176
499,4	7679,405
499,8	7643,719
500,3	7605,376
500,7	7574,09
501,2	7536,748
501,6	7483,233
502,1	7439,662
502,5	7395,748
503	7363,148
503,4	7313,262
503,9	7263,719
504,3	7217,405
504,8	7169,89
505,2	7126,119
505,7	7081,662
506,1	7027,09
506,6	6974,633
507	6929,833
507,5	6872,433
507,9	6820,69
508,4	6766,119
508,8	6706,062
509,3	6649,09
509,7	6597,805
510,2	6541,205
510,6	6492,405
511,1	6436,49
511,5	6376,29
512	6318,69
512,4	6256,148
512,9	6192,462
513,3	6136,69
513,8	6073,776
514,2	6018,262
514,7	5952,548
515,1	5891,176
515,6	5830,033
516	5766,462
516,5	5706,748
516,9	5649,605
517,4	5589,776
517,8	5541,262
518,3	5489,948
518,7	5431,862
519,2	5372,09
519,6	5309,09
520,1	5249,833
520,5	5194,233
521	5128,119
521,4	5070,462
521,9	5016,462
522,3	4964,033
522,8	4910,805
523,2	4855,69
523,7	4796,033
524,1	4744,633
524,6	4683,005
525	4628,662
525,5	4571,976
525,9	4516,319
526,4	4461,776
526,8	4408,833
527,3	4355,205
527,7	4311,319
528,2	4266,748
528,6	4219,776
529,1	4173,233
529,5	4125,119
530	4082,005
530,4	4042,69
530,9	3995,29
531,3	3942,29
531,8	3897,89
532,2	3853,833
532,6	3811,062
533,1	3764,633
533,5	3720,862
534	3677,919
534,4	3635,89
534,9	3599,119
535,3	3550,119
535,8	3510,09
536,2	3472,405
536,7	3430,148
537,1	3390,89
537,6	3353,29
538	3311,948
538,5	3283,919
538,9	3248,919
539,4	3207,605
539,8	3164,262
540,3	3130,748
540,7	3093,405
541,2	3054,348
541,6	3017,348
542,1	2980,862
542,5	2950,605
543	2922,919
543,4	2878,519
543,9	2850,09
544,3	2822,176
544,8	2788,976
545,2	2757,833
545,7	2731,633
546,1	2705,805
546,5	2686,376
547	2658,319
547,4	2631,233
547,9	2599,833
548,3	2572,005
548,8	2545,748
549,2	2519,062
549,7	2492,548
550,1	2467,976
550,6	2438,633
551	2419,862
551,5	2396,976
551,9	2368,976
552,4	2342,262
552,8	2320,833
553,3	2292,919
553,7	2270,262
554,2	2248,605
554,6	2222,376
555,1	2203,148
555,5	2181,233
555,9	2153,976
556,4	2138,805
556,8	2118,833
557,3	2095,176
557,7	2077,89
558,2	2055,662
558,6	2035,119
559,1	2014,205
559,5	1989,462
560	1973,233
560,4	1953,662
560,9	1936,148
561,3	1917,748
561,8	1902,548
562,2	1888,348
562,7	1868,776
563,1	1856,805
563,6	1841,29
564	1825,776
564,4	1807,662
564,9	1786,433
565,3	1774,176
565,8	1765,605
566,2	1747,119
566,7	1731,519
567,1	1716,633
567,6	1701,49
568	1691,633
568,5	1675,176
568,9	1660,548
569,4	1642,976
569,8	1628,719
570,3	1613,605
570,7	1598,976
571,1	1584,433
571,6	1571,833
572	1552,49
572,5	1540,119
572,9	1526,89
573,4	1515,033
573,8	1505,633
574,3	1486,348
574,7	1474,433
575,2	1462,776
575,6	1452,262
576,1	1447,09
576,5	1435,519
576,9	1421,462
577,4	1411,519
577,8	1396,062
578,3	1382,633
578,7	1369,376
579,2	1357,433
579,6	1344,719
580,1	1332,062
580,5	1326,405
581	1320,205
581,4	1315,576
581,9	1302,833
582,3	1288,319
582,7	1274,233
583,2	1269,233
583,6	1262,09
584,1	1251,662
584,5	1238,69
585	1231,49
585,4	1217,119
585,9	1211,833
586,3	1204,29
586,8	1194,776
587,2	1182,633
587,6	1177,09
588,1	1173,462
588,5	1167,548
589	1162,119
589,4	1152,319
589,9	1138,205
590,3	1134,89
590,8	1130,262
591,2	1121,033
591,7	1118,49
592,1	1107,005
592,5	1098,119
593	1092,948
593,4	1081,576
593,9	1071,262
594,3	1061,605
594,8	1048,148
595,2	1044,119
595,7	1037,576
596,1	1032,748
596,6	1024,948
597	1019,719
597,4	1015,148
597,9	1012,233
598,3	1008,833
598,8	998,748
599,2	993,176
599,7	988,862
600,1	980,376
600,6	973,662
601	966,405
601,4	961,89
601,9	960,462
602,3	949,919
602,8	946,433
603,2	938,69
603,7	929,948
604,1	926,119
604,6	917,69
605	909,148
605,4	906,633
605,9	896,09
606,3	889,662
606,8	881,319
607,2	872,633
607,7	862,205
608,1	857,205
608,6	853,005
609	853,89
609,4	850,519
609,9	850,233
610,3	842,548
610,8	837,833
611,2	834,805
611,7	828,662
612,1	822,519
612,6	817,89
613	816,805
613,4	812,09
613,9	807,176
614,3	799,576
614,8	794,662
615,2	785,033
615,7	784,862
616,1	775,519
616,6	770,805
617	764,719
617,4	762,148
617,9	760,919
618,3	759,69
618,8	755,862
619,2	748,605
619,7	747,262
620,1	743,405
620,5	741,376
621	734,576
621,4	732,462
621,9	718,433
622,3	715,776
622,8	706,89
623,2	700,176
623,6	692,948
624,1	687,519
624,5	681,519
625	687,805
625,4	686,319
625,9	687,033
626,3	685,948
626,8	683,062
627,2	677,89
627,6	667,805
628,1	656,748
628,5	651,976
629	643,519
629,4	635,09
629,9	627,405
630,3	621,548
630,7	616,576
631,2	612,633
631,6	604,605
632,1	601,862
632,5	599,89
633	593,748
633,4	587,605
633,8	585,948
634,3	578,205
634,7	577,062
635,2	570,633
635,6	568,176
636,1	569,605
636,5	565,462
636,9	558,348
637,4	557,033
637,8	548,29
638,3	542,548
638,7	537,89
639,2	534,662
639,6	533,09
640	529,576
640,5	528,233
640,9	527,69
641,4	530,233
641,8	528,662
642,2	522,976
642,7	525,919
643,1	529,89
643,6	525,976
644	522,548
644,5	523,69
644,9	518,833
645,3	515,29
645,8	504,176
646,2	502,29
646,7	500,033
647,1	493,948
647,6	488,662
648	487,29
648,4	485,148
648,9	485,262
649,3	475,49
649,8	471,29
650,2	470,633
650,6	466,69
651,1	463,833
651,5	465,29
652	460,29
652,4	458,319
652,9	454,062
653,3	451,633
653,7	444,233
654,2	441,062
654,6	429,833
655,1	434,233
655,5	439,662
655,9	438,176
656,4	437,29
656,8	437,405
657,3	436,405
657,7	441,405
658,2	432,576
658,6	420,719
659	419,633
659,5	413,262
659,9	409,062
660,4	408,319
660,8	397,748
661,2	394,776
661,7	394,662
662,1	393,633
662,6	392,776
663	389,948
663,4	380,376
663,9	380,405
664,3	379,719
664,8	375,89
665,2	367,376
665,6	365,205
666,1	364,005
666,5	366,519
667	362,948
667,4	359,005
667,9	358,233
668,3	357,719
668,7	354,89
669,2	357,805
669,6	355,776
670,1	357,233
670,5	351,805
670,9	349,49
671,4	347,033
671,8	347,376
672,3	345,348
672,7	340,062
673,1	331,776
673,6	332,29
674	330,148
674,5	327,119
674,9	318,29
675,3	309,233
675,8	310,976
676,2	310,29
676,7	309,662
677,1	304,662
677,5	301,519
678	304,033
678,4	305,176
678,9	299,519
679,3	295,205
679,7	291,233
680,2	285,719
680,6	282,062
681,1	283,062
681,5	282,748
681,9	282,833
682,4	284,062
682,8	283,833
683,3	289,605
683,7	289,233
684,1	284,119
684,6	277,633
685	273,748
685,5	269,29
685,9	262,862
686,3	256,148
686,8	253,748
687,2	253,948
687,7	252,605
688,1	248,119
688,5	248,833
689	249,948
689,4	249,862
689,9	249,833
690,3	246,29
690,7	245,319
691,2	245,719
691,6	246,176
692	243,662
692,5	242,09
692,9	242,348
693,4	241,433
693,8	242,233
694,2	241,576
694,7	237,605
695,1	235,605
695,6	234,919
696	234,005
696,4	232,748
696,9	224,776
697,3	219,49
697,8	219,319
698,2	217,519
698,6	217,548
699,1	214,69
699,5	215,948
699,9	217,748
700,4	219,09
700,8	218,576
701,3	219,662
701,7	215,205
702,1	211,09
702,6	204,062
703	206,605
703,5	204,348
703,9	199,148
704,3	197,633
704,8	198,176
705,2	199,89
705,6	199,748
706,1	194,176
706,5	191,405
707	193,548
707,4	194,748
707,8	188,119
708,3	185,09
708,7	183,69
709,2	182,033
709,6	179,833
710	180,919
710,5	174,89
710,9	180,262
711,3	179,062
711,8	180,405
712,2	179,919
712,7	180,89
713,1	175,062
713,5	177,405
714	174,519
714,4	170,805
714,8	169,89
715,3	165,976
715,7	169,976
716,2	168,376
716,6	167,719
717	163,719
717,5	167,833
717,9	167,862
718,3	167,633
718,8	158,919
719,2	156,405
719,7	150,862
720,1	152,176
720,5	152,548
721	146,233
721,4	149,805
721,8	153,233
722,3	153,833
722,7	159,948
723,2	154,605
723,6	145,719
724	143,976
724,5	134,119
724,9	129,49
725,3	127,519
725,8	121,348
726,2	124,033
726,7	127,033
727,1	126,205
727,5	132,833
728	135,062
728,4	136,233
728,8	136,833
729,3	132,433
729,7	126,376
730,1	125,519
730,6	122,29
731	116,233
731,5	115,69
731,9	108,633
732,3	110,833
732,8	116,005
733,2	116,376
733,6	118,776
734,1	120,776
734,5	120,062
734,9	125,49
735,4	126,748
735,8	122,09
736,3	126,033
736,7	119,776
737,1	121,49
737,6	119,233
738	114,776
738,4	112,89
738,9	114,862
739,3	108,605
739,7	111,376
740,2	110,29
740,6	113,033
741,1	115,976
741,5	113,205
741,9	111,205
742,4	113,433
742,8	112,062
743,2	116,233
743,7	109,519
744,1	103,233
744,5	101,148
745	99,862
745,4	94,919
745,8	94,69
746,3	88,833
746,7	87,948
747,2	90,262
747,6	96,119
748	100,148
748,5	105,805
748,9	98,976
749,3	99,833
749,8	104,233
750,2	105,776
750,6	101,576
751,1	102,376
751,5	98,348
751,9	103,09
752,4	101,09
752,8	96,919
753,3	96,062
753,7	96,262
754,1	91,405
754,6	88,776
755	86,776
755,4	85,776
755,9	87,462
756,3	85,919
756,7	89,119
757,2	89,719
757,6	95,633
758	96,49
758,5	99,319
758,9	100,005
759,3	101,319
759,8	96,548
760,2	94,205
760,6	87,976
761,1	85,576
761,5	79,348
761,9	73,319
762,4	69,862
762,8	66,776
763,3	62,176
763,7	65,776
764,1	69,033
764,6	69,862
765	72,433
765,4	71,033
765,9	76,29
766,3	83,29
766,7	80,833
767,2	76,433
767,6	78,062
768	79,49
768,5	79,776
768,9	75,148
769,3	71,662
769,8	70,976
770,2	74,519
770,6	71,233
771,1	72,49
771,5	72,662
771,9	75,405
772,4	74,29
772,8	71,548
773,2	68,205
773,7	69,805
774,1	64,405
774,5	64,719
775	59,49
775,4	59,976
775,8	58,176
776,3	58,176
776,7	55,576
777,1	60,062
777,6	65,119
778	68,49
778,4	66,062
778,9	74,062
779,3	76,976
779,7	78,776
780,2	80,519
780,6	73,519
781	70,005
781,5	69,548
781,9	63,633
782,3	59,09
782,8	59,776
783,2	55,376
783,6	60,233
784,1	57,176
784,5	53,976
784,9	54,405
785,4	58,948
785,8	60,605
786,2	60,919
786,7	60,605
787,1	64,005
787,5	70,633
788	68,948
788,4	65,719
788,8	61,376
789,3	58,519
789,7	58,719
790,1	58,833
790,6	59,348
791	60,119
791,4	59,919
791,9	58,49
792,3	55,748
792,7	53,348
793,2	49,119
793,6	48,805
794	50,862
794,5	44,176
794,9	46,148
795,3	53,062
795,8	50,119
796,2	56,405
796,6	52,005
797,1	50,776
797,5	52,776
797,9	51,776
798,4	45,148
798,8	46,462
799,2	44,719
799,7	47,462
800,1	43,519
800,5	47,376
801	50,89
801,4	50,862
801,8	49,948
802,2	47,805
802,7	45,49
803,1	49,49
803,5	47,005
804	41,576
804,4	43,633
804,8	40,348
805,3	41,576
805,7	45,719
806,1	45,776
806,6	48,805
807	51,233
807,4	45,033
807,9	44,519
808,3	42,862
808,7	37,719
809,2	37,233
809,6	36,319
810	35,405
810,4	42,176
810,9	45,148
811,3	48,976
811,7	46,919
812,2	47,433
812,6	46,29
813	49,662
813,5	49,519
813,9	49,919
814,3	42,433
814,8	43,319
815,2	40,69
815,6	39,033
816,1	37,605
816,5	37,633
816,9	40,719
817,3	45,148
817,8	47,976
818,2	44,633
818,6	46,948
819,1	43,662
819,5	41,405
819,9	33,948
820,4	32,948
820,8	30,176
821,2	29,748
821,7	28,462
822,1	34,062
822,5	42,062
822,9	44,519
823,4	46,405
823,8	48,29
824,2	52,833
824,7	48,205
825,1	37,09
825,5	24,176
826	18,976
826,4	15,29
826,8	9,976
827,3	9,376
827,7	12,062
828,1	18,09
828,5	20,376
829	23,119
829,4	23,005
829,8	21,862
830,3	19,062
830,7	18,605
831,1	15,29
831,6	15,833
832	17,09
832,4	14,719
832,8	21,662
833,3	21,748
833,7	20,319
834,1	22,062
834,6	23,09
835	23,633
835,4	27,29
835,8	20,062
836,3	20,948
836,7	22,576
837,1	20,548
837,6	21,29
838	20,862
838,4	21,119
838,9	25,262
839,3	24,519
839,7	28,09
840,1	25,919
840,6	24,748
841	26,09
841,4	25,776
841,9	27,548
842,3	28,262
842,7	24,805
843,1	27,433
843,6	27,319
844	22,29
844,4	25,376
844,9	21,433
845,3	22,033
845,7	20,748
846,2	19,576
846,6	13,919
847	14,605
847,4	11,748
847,9	14,148
848,3	9,548
848,7	12,548
849,2	13,633
849,6	16,205
850	21,49
850,4	21,148
850,9	23,433
851,3	27,233
851,7	27,176
852,2	25,976
852,6	32,833
853	31,719
853,4	30,976
853,9	25,205
854,3	24,205
854,7	22,633
855,2	21,348
855,6	17,176
856	12,119
856,4	8,919
856,9	10,348
857,3	11,948
857,7	10,376
858,2	17,605
858,6	19,348
859	23,633
859,4	24,976
859,9	23,062
860,3	17,405
860,7	19,405
861,1	14,633
861,6	13,662
862	13,548
862,4	16,319
862,9	19,033
863,3	21,005
863,7	19,033
864,1	19,862
864,6	18,633
865	15,233
865,4	14,719
865,9	18,405
866,3	15,976
866,7	15,233
867,1	13,49
867,6	11,948
868	8,633
868,4	4,319
868,8	-0,338
869,3	-1,738
869,7	1,519
870,1	-3,538
870,6	-4,11
871	-19,767
871,4	-10,652
871,8	-11,738
872,3	-6,938
872,7	-8,967
873,1	-2,538
873,5	-0,395
874	20,662
874,4	14,433
874,8	12,233
875,3	12,005
875,7	10,433
876,1	12,462
876,5	14,919
877	8,69
877,4	5,776
877,8	13,862
878,2	17,776
878,7	17,205
879,1	17,433
879,5	13,033
879,9	19,862
880,4	24,805
880,8	20,662
881,2	17,119
881,7	18,119
882,1	17,319
882,5	19,662
882,9	16,519
883,4	12,548
883,8	12,319
884,2	13,033
884,6	11,033
885,1	6,69
885,5	8,633
885,9	8,662
886,3	12,89
886,8	10,348
887,2	8,833
887,6	8,09
888	6,719
888,5	3,776
888,9	1,462
889,3	-5,252
889,8	-2,967
890,2	-3,852
890,6	-0,881
891	3,49
891,5	3,262
891,9	4,262
892,3	9,176
892,7	7,262
893,2	9,605
893,6	6,919
894	4,233
894,4	2,605
894,9	4,976
895,3	4,862
895,7	8,09
896,1	10,148
896,6	11,148
897	12,748
897,4	20,29
897,8	19,062
898,3	20,376
898,7	14,119
899,1	10,69
899,5	13,405
900	7,148
900,4	-1,138
900,8	-1,652
901,2	-5,938
901,7	-5,252
902,1	-4,595
902,5	-3,71
902,9	2,119
903,4	4,776
903,8	6,062
904,2	8,033
904,6	13,119
905,1	13,29
905,5	11,605
905,9	10,376
906,3	10,662
906,8	14,29
907,2	13,519
907,6	14,433
908	15,348
908,5	15,748
908,9	13,176
909,3	11,119
909,7	9,176
910,2	8,29
910,6	8,605
911	2,376
911,4	-0,338
911,9	2,519
912,3	4,662
912,7	5,662
913,1	9,748
913,6	8,576
914	11,405
914,4	10,433
914,8	10,462
915,3	7,033
915,7	6,262
916,1	2,29
916,5	0,862
916,9	1,662
917,4	5,605
917,8	4,833
918,2	4,748
918,6	-1,081
919,1	0,405
919,5	2,033
919,9	2,662
920,3	-5,624
920,8	-4,424
921,2	-5,252
921,6	1,062
922	-0,052
922,5	-3,71
922,9	-4,995
923,3	-0,081
923,7	-0,967
924,2	-0,081
924,6	-4,424
925	-1,852
925,4	-3,167
925,8	-1,338
926,3	3,49
926,7	-0,195
927,1	0,29
927,5	2,005
928	1,29
928,4	4,519
928,8	2,433
929,2	-3,538
929,7	1,748
930,1	4,233
930,5	2,49
930,9	6,405
931,3	5,062
931,8	6,576
932,2	7,005
932,6	3,062
933	0,319
933,5	2,319
933,9	-1,081
934,3	3,233
934,7	1,148
935,2	1,633
935,6	4,605
936	5,49
936,4	5,976
936,8	4,576
937,3	1,005
937,7	3,805
938,1	12,719
938,5	8,233
939	11,148
939,4	9,833
939,8	7,119
940,2	6,919
940,6	6,29
941,1	-0,738
941,5	8,576
941,9	1,719
942,3	0,805
942,8	3,69
943,2	4,005
943,6	2,576
944	2,005
944,4	-2,51
944,9	-2,595
945,3	-4,167
945,7	-10,995
946,1	-14,138
946,6	-13,938
947	-12,338
947,4	-6,967
947,8	-3,567
948,2	-4,31
948,7	4,29
949,1	5,89
949,5	9,605
949,9	12,233
950,3	7,405
950,8	7,319
951,2	13,805
951,6	10,005
952	12,433
952,5	8,148
952,9	6,148
953,3	5,29
953,7	7,633
954,1	6,862
954,6	8,433
955	9,576
955,4	7,862
955,8	8,69
956,2	9,833
956,7	9,776
957,1	5,976
957,5	8,89
957,9	9,833
958,3	9,69
958,8	7,29
959,2	6,405
959,6	4,89
960	5,119
960,5	8,605
960,9	5,633
961,3	3,805
961,7	4,119
962,1	3,919
962,6	4,548
963	3,605
963,4	-7,795
963,8	-7,11
964,2	-2,795
964,7	-5,424
965,1	-4,967
965,5	-2,052
965,9	-1,938
966,3	3,205
966,8	3,662
967,2	3,233
967,6	4,262
968	1,976
968,4	-2,681
968,9	-1,024
969,3	6,862
969,7	2,776
970,1	2,262
970,5	1,69
971	5,576
971,4	8,862
971,8	12,148
972,2	6,319
972,6	13,262
973,1	15,376
973,5	16,033
973,9	17,976
974,3	14,49
974,7	15,462
975,2	14,49
975,6	7,776
976	10,69
976,4	7,805
976,8	4,29
977,3	3,548
977,7	-1,595
978,1	-2,681
978,5	-0,424
978,9	-7,767
979,4	-2,938
979,8	-3,681
980,2	3,262
980,6	3,433
981	8,433
981,5	6,09
981,9	6,462
982,3	3,662
982,7	4,09
983,1	-2,167
983,6	0,605
984	-6,367
984,4	-2,681
984,8	0,176
985,2	0,605
985,6	-4,367
986,1	-4,767
986,5	-6,281
986,9	-7,538
987,3	-6,681
987,7	-6,424
988,2	-8,338
988,6	-3,11
989	-4,281
989,4	-6,252
989,8	-3,11
990,3	-3,424
990,7	-4,795
991,1	0,148
991,5	3,033
991,9	8,662
992,3	12,89
992,8	12,948
993,2	8,148
993,6	10,49
994	9,062
994,4	7,519
994,9	4,719
995,3	3,119
995,7	-0,738
996,1	1,005
996,5	-0,967
996,9	-4,195
997,4	-1,481
997,8	-5,767
998,2	-9,281
998,6	-9,481
999	-9,167
999,5	-9,481
999,9	-8,795
1000,3	-16,938
1000,7	-11,995
1001,1	-10,51
1001,5	-5,795
1002	-3,967
1002,4	-3,481
1002,8	-1,367
1003,2	4,719
1003,6	9,033
1004	9,462
1004,5	6,519
1004,9	8,433
1005,3	3,776
1005,7	3,205
1006,1	2,948
1006,6	-2,338
1007	-0,338
1007,4	-0,424
1007,8	-3,452
1008,2	-0,338
1008,6	4,49
1009,1	0,976
1009,5	-1,51
1009,9	-0,424
1010,3	1,033
1010,7	1,776
1011,1	3,376
1011,6	-1,681
1012	1,376
1012,4	-0,167
1012,8	-5,481
1013,2	1,633
1013,6	2,576
1014,1	4,405
1014,5	7,662
1014,9	8,205
1015,3	13,519
1015,7	15,89
1016,1	8,89
1016,6	6,376
1017	6,948
1017,4	7,662
1017,8	6,205
1018,2	5,548
1018,6	4,862
1019,1	5,605
1019,5	4,719
1019,9	-1,338
1020,3	-2,91
1020,7	-5,024
1021,1	-6,052
1021,6	-6,252
1022	-5,167
1022,4	-2,652
1022,8	4,976
1023,2	2,348
1023,6	4,519
1024,1	12,319
1024,5	13,776
1024,9	8,519
1025,3	9,262
1025,7	6,49
1026,1	7,319
1026,6	10,948
1027	4,805
1027,4	3,405
1027,8	4,976
1028,2	0,348
1028,6	3,319
1029	1,948
1029,5	1,548
1029,9	-2,224
1030,3	-4,367
1030,7	-2,224
1031,1	3,633
1031,5	-3,052
1032	-5,738
1032,4	-9,852
1032,8	-3,824
1033,2	0,033
1033,6	-2,31
1034	-10,91
1034,4	-8,052
1034,9	-3,11
1035,3	-5,624
1035,7	-6,424
1036,1	-10,795
1036,5	-13,252
1036,9	-10,081
1037,4	-7,481
1037,8	-11,138
1038,2	-10,195
1038,6	-8,167
1039	-2,138
1039,4	7,49
1039,8	7,862
1040,3	7,576
1040,7	3,805
1041,1	10,376
1041,5	6,29
1041,9	1,062
1042,3	-4,538
1042,7	-4,995
1043,2	-8,595
1043,6	-5,052
1044	-9,024
1044,4	-9,681
1044,8	-6,31
1045,2	-7,11
1045,6	-8,281
1046,1	-7,995
1046,5	-6,738
1046,9	-13,195
1047,3	-9,081
1047,7	-12,138
1048,1	-11,852
1048,5	-8,424
1049	-9,967
1049,4	-6,995
1049,8	-1,852
1050,2	-5,51
1050,6	1,205
1051	3,433
1051,4	1,862
1051,9	6,633
1052,3	9,262
1052,7	13,605
1053,1	12,376
1053,5	11,748
1053,9	9,233
1054,3	12,605
1054,8	15,119
1055,2	15,319
1055,6	12,09
1056	14,519
1056,4	10,462
1056,8	13,262
1057,2	13,805
1057,6	1,233
1058,1	-4,224
1058,5	-4,91
1058,9	-3,852
1059,3	-2,395
1059,7	-5,424
1060,1	-4,281
1060,5	5,119
1061	9,919
1061,4	8,119
1061,8	9,29
1062,2	9,033
1062,6	13,862
1063	13,119
1063,4	13,576
1063,8	8,748
1064,3	4,062
1064,7	-1,91
1065,1	-4,738
1065,5	-7,967
1065,9	-11,595
1066,3	-20,481
1066,7	-20,881
1067,1	-17,424
1067,6	-15,738
1068	-19,681
1068,4	-21,995
1068,8	-18,91
1069,2	-12,824
1069,6	-10,424
1070	-6,252
1070,4	-9,881
1070,9	-4,681
1071,3	-4,595
1071,7	-6,138
1072,1	-7,595
1072,5	-11,938
1072,9	-12,281
1073,3	-9,538
1073,7	-11,852
1074,2	-12,795
1074,6	-11,538
1075	-12,51
1075,4	-7,91
1075,8	-8,195
1076,2	-4,567
1076,6	-0,51
1077	-0,31
1077,5	3,09
1077,9	6,948
1078,3	2,805
1078,7	4,09
1079,1	1,976
1079,5	0,005
1079,9	1,833
1080,3	-2,738
1080,7	-3,538
1081,2	6,89
1081,6	5,09
1082	3,662
1082,4	6,948
1082,8	8,319
1083,2	8,776
1083,6	10,976
1084	1,662
1084,5	1,376
1084,9	4,376
1085,3	0,976
1085,7	2,605
1086,1	0,462
1086,5	-0,395
1086,9	4,348
1087,3	3,119
1087,7	1,09
1088,2	2,119
1088,6	-3,338
1089	-0,652
1089,4	-3,767
1089,8	-7,052
1090,2	-6,852
1090,6	-3,624
1091	-4,738
1091,4	1,262
1091,9	2,319
1092,3	6,89
1092,7	6,69
1093,1	9,605
1093,5	6,805
1093,9	6,348
1094,3	8,348
1094,7	5,348
1095,1	4,919
1095,5	8,233
1096	3,948
1096,4	5,576
1096,8	7,662
1097,2	1,519
1097,6	6,49
1098	5,719
1098,4	3,548
1098,8	3,69
1099,2	6,719
1099,6	6,205
1100,1	5,062
1100,5	0,148
1100,9	-2,452
1101,3	-1,081
1101,7	-1,624
1102,1	-5,281
1102,5	-3,71
1102,9	-1,138
1103,3	2,462
1103,7	4,519
1104,2	1,976
1104,6	5,462
1105	4,662
1105,4	1,29
1105,8	0,976
1106,2	-1,624
1106,6	-2,738
1107	-1,538
1107,4	-3,033
1107,8	-3,087
1108,3	-0,567
