Data from Subt2_322.txt Node
Date: Sat Aug 26 19:18:03 MSK 2023
User: vat
Spectrometer: MAYP114033
Trigger mode: 0
Integration Time (sec): 1,000000E0
Scans to average: 5
Electric dark correction enabled: true
Nonlinearity correction enabled: false
Boxcar width: 3
XAxis mode: Wavelengths
Number of Pixels in Spectrum: 2068
>>>>>Begin Spectral Data<<<<<
199,4	0,25
199,9	4,42
200,4	2,667
200,8	2,014
201,3	-1,129
201,8	-0,014
202,2	-0,1
202,7	5,243
203,2	2,129
203,6	4,529
204,1	5,757
204,6	7,386
205	10,271
205,5	11,471
206	8,043
206,4	9,386
206,9	4,557
207,4	6,386
207,8	10,471
208,3	7,614
208,8	11,071
209,2	12,014
209,7	12,643
210,2	16,1
210,6	14,614
211,1	13,129
211,5	11,557
212	7,871
212,5	4,957
212,9	2,043
213,4	3,7
213,9	0,129
214,3	3,014
214,8	8,329
215,3	7,129
215,7	11,671
216,2	17,929
216,7	21,043
217,1	23,843
217,6	25,214
218,1	19,671
218,5	17,586
219	10,929
219,5	7,957
219,9	0,557
220,4	0,986
220,9	-4,557
221,3	-2,814
221,8	4,386
222,3	7,471
222,7	6,786
223,2	10,386
223,6	9,3
224,1	9,271
224,6	13,814
225	6,814
225,5	7,957
226	8,157
226,4	10,129
226,9	10,986
227,4	13,557
227,8	6,243
228,3	7,271
228,8	5,643
229,2	8,843
229,7	8,9
230,2	8,929
230,6	13,557
231,1	17,7
231,5	18,786
232	23,186
232,5	17,614
232,9	16,414
233,4	17,471
233,9	11,414
234,3	9,614
234,8	8,929
235,3	4,643
235,7	9,357
236,2	7,7
236,7	6,386
237,1	8,871
237,6	8,157
238,1	7,329
238,5	5,614
239	6,843
239,4	13,271
239,9	12,729
240,4	9,643
240,8	13,214
241,3	14,1
241,8	14,014
242,2	10,014
242,7	2,671
243,2	4,529
243,6	3,986
244,1	1,7
244,6	5,871
245	7,186
245,5	9,986
245,9	7,471
246,4	8,757
246,9	15,414
247,3	14,614
247,8	12,614
248,3	13,414
248,7	14,414
249,2	21,871
249,7	21,071
250,1	16,929
250,6	17,129
251	16,414
251,5	15,243
252	9,5
252,4	10,471
252,9	8,529
253,4	6,643
253,8	5,386
254,3	7,586
254,8	10,443
255,2	11,929
255,7	8,271
256,1	10,043
256,6	12,271
257,1	14,414
257,5	10,757
258	7,729
258,5	7,043
258,9	3,9
259,4	4,643
259,9	3,986
260,3	1,671
260,8	-0,929
261,2	-0,929
261,7	1,386
262,2	2,871
262,6	-1,786
263,1	-0,871
263,6	1,614
264	9,7
264,5	13,9
264,9	12,814
265,4	15,386
265,9	19,271
266,3	20,214
266,8	23,043
267,3	16,986
267,7	16,9
268,2	20,157
268,7	20,986
269,1	21,586
269,6	17,557
270	20,586
270,5	23,386
271	21,357
271,4	20,129
271,9	15,986
272,4	16,129
272,8	21,5
273,3	11,957
273,7	11,843
274,2	14,757
274,7	15,157
275,1	16,671
275,6	18,129
276,1	11,871
276,5	17,929
277	17,7
277,4	13,986
277,9	12,3
278,4	15,957
278,8	17,129
279,3	23,557
279,8	22,386
280,2	24,271
280,7	24,729
281,1	22,129
281,6	17,414
282,1	16,643
282,5	11,671
283	11,014
283,4	5,329
283,9	6,614
284,4	14,214
284,8	15,643
285,3	8,814
285,8	10,443
286,2	6,786
286,7	7,729
287,1	4,071
287,6	-2,586
288,1	-4,529
288,5	0,986
289	-0,214
289,5	1,614
289,9	3,386
290,4	8,186
290,8	8,157
291,3	9,243
291,8	9,814
292,2	7,757
292,7	9,443
293,1	7,529
293,6	7,814
294,1	10,271
294,5	11,557
295	9,843
295,5	11,529
295,9	12,186
296,4	12,5
296,8	8,557
297,3	6,757
297,8	3,271
298,2	-2,071
298,7	0,471
299,1	1,529
299,6	1,557
300,1	8,357
300,5	12,157
301	16,414
301,5	23,614
301,9	23,186
302,4	21,271
302,8	23,786
303,3	16,729
303,8	14,014
304,2	12,957
304,7	11,671
305,1	10,214
305,6	11,9
306,1	18,414
306,5	22,729
307	25,271
307,4	26,614
307,9	26,786
308,4	23,671
308,8	16,071
309,3	10,843
309,8	12,271
310,2	10,529
310,7	7,357
311,1	7,786
311,6	12,5
312,1	20,071
312,5	19,471
313	16,243
313,4	13,957
313,9	16,186
314,4	13,929
314,8	9,9
315,3	9,443
315,7	7,3
316,2	5,557
316,7	6,271
317,1	8,271
317,6	8,329
318	13,157
318,5	10,443
319	13,729
319,4	16,9
319,9	21,929
320,3	20,386
320,8	17,986
321,3	19,214
321,7	25,757
322,2	25,929
322,6	26,271
323,1	20,471
323,6	20,129
324	23,929
324,5	21,271
324,9	16,814
325,4	14,529
325,9	15,043
326,3	15,157
326,8	18,729
327,2	11,871
327,7	12,357
328,2	11,414
328,6	12,529
329,1	2,9
329,5	4,471
330	0,7
330,5	8,1
330,9	9,3
331,4	10,529
331,8	10,529
332,3	20,7
332,8	21,3
333,2	19,414
333,7	19,757
334,1	15,957
334,6	14,471
335,1	12,414
335,5	10,414
336	9,529
336,4	10,586
336,9	12,671
337,4	16,3
337,8	14,443
338,3	14,071
338,7	14,329
339,2	11,957
339,7	14,843
340,1	12,7
340,6	12,271
341	13,729
341,5	16,814
342	14,643
342,4	13,9
342,9	13,671
343,3	9,357
343,8	9,843
344,2	10,757
344,7	13,414
345,2	11,443
345,6	14,929
346,1	14,043
346,5	16,186
347	12,043
347,5	14,014
347,9	11,557
348,4	16,043
348,8	17,786
349,3	18,586
349,8	23,186
350,2	31,386
350,7	26,5
351,1	28,014
351,6	31,614
352	32,386
352,5	38,214
353	44,1
353,4	45,9
353,9	59,529
354,3	69,5
354,8	81,443
355,3	105,557
355,7	122,386
356,2	140,671
356,6	167,329
357,1	196,671
357,5	233,043
358	272,9
358,5	308,357
358,9	359,014
359,4	414,814
359,8	476,7
360,3	546,214
360,8	614,643
361,2	698,5
361,7	788,7
362,1	892,1
362,6	1006,157
363	1123,071
363,5	1246,529
364	1391,129
364,4	1522,243
364,9	1666,643
365,3	1800,471
365,8	1926,186
366,3	2050,7
366,7	2164,071
367,2	2256,9
367,6	2336,386
368,1	2399,329
368,5	2438,9
369	2461,7
369,5	2469,471
369,9	2456,671
370,4	2421,643
370,8	2367,471
371,3	2295,1
371,7	2218,9
372,2	2124,671
372,7	2020,443
373,1	1909,386
373,6	1792,471
374	1685,043
374,5	1573,386
374,9	1463,9
375,4	1359,843
375,9	1250,729
376,3	1154,186
376,8	1062,243
377,2	977,614
377,7	896,614
378,2	819,529
378,6	750,729
379,1	696,386
379,5	639,986
380	594,357
380,4	546,757
380,9	501,671
381,4	459,643
381,8	425,557
382,3	393,957
382,7	365,814
383,2	339,157
383,6	319,471
384,1	301,643
384,6	283,814
385	265,843
385,5	242,986
385,9	222,043
386,4	203,957
386,8	187,814
387,3	174,271
387,7	163,271
388,2	153,157
388,7	146,757
389,1	140,586
389,6	135,7
390	126,843
390,5	121,071
390,9	115,957
391,4	108,214
391,9	97,614
392,3	97,271
392,8	85,814
393,2	80,929
393,7	75,957
394,1	68,1
394,6	65,5
395,1	70,157
395,5	58,7
396	60,5
396,4	58,814
396,9	56,786
397,3	62,071
397,8	61,186
398,2	55,3
398,7	60,986
399,2	57,7
399,6	58,929
400,1	60,814
400,5	50,957
401	49,929
401,4	48,929
401,9	45,586
402,4	50,9
402,8	46,271
403,3	44,986
403,7	44,671
404,2	46,929
404,6	46,7
405,1	46,129
405,5	42,329
406	42,471
406,5	40,671
406,9	44,157
407,4	40,3
407,8	42,329
408,3	40,643
408,7	41,014
409,2	42,043
409,6	43,5
410,1	46,014
410,6	50,9
411	53,729
411,5	56,786
411,9	55,7
412,4	55,471
412,8	57,329
413,3	56,729
413,7	57,214
414,2	58,871
414,7	67,614
415,1	79,786
415,6	87,529
416	93,271
416,5	94,071
416,9	93,1
417,4	93,129
417,8	92,071
418,3	90,071
418,8	92,243
419,2	87,129
419,7	91,614
420,1	92,814
420,6	91,843
421	88,186
421,5	89,186
421,9	87,586
422,4	92,843
422,8	93,957
423,3	96,386
423,8	96,7
424,2	96,529
424,7	95,243
425,1	93,043
425,6	90,357
426	88,9
426,5	89,014
426,9	93,157
427,4	91,357
427,9	83,157
428,3	85,786
428,8	83,643
429,2	83,014
429,7	78,414
430,1	75,414
430,6	78,186
431	84,157
431,5	86,386
431,9	83,014
432,4	84,014
432,8	84,986
433,3	84,471
433,8	83,957
434,2	83,5
434,7	81,7
435,1	84,443
435,6	86,329
436	87,014
436,5	95,243
436,9	94,357
437,4	92,329
437,8	90,414
438,3	93,614
438,8	92,157
439,2	94,471
439,7	92,014
440,1	97,9
440,6	105,614
441	107,129
441,5	110,757
441,9	115,557
442,4	118,814
442,8	117,357
443,3	119,5
443,7	123,043
444,2	131,243
444,7	131,5
445,1	131,671
445,6	136,414
446	144,243
446,5	147,243
446,9	143,043
447,4	146,214
447,8	155,9
448,3	165,586
448,7	174,1
449,2	184,7
449,6	192,643
450,1	202,929
450,6	211,214
451	215,643
451,5	223,929
451,9	233,786
452,4	240,271
452,8	249,214
453,3	266,071
453,7	266,1
454,2	277,729
454,6	282,329
455,1	288,243
455,5	292,186
456	303,786
456,4	306,614
456,9	321,3
457,3	330,786
457,8	342,643
458,3	353,5
458,7	361,357
459,2	371,186
459,6	380,929
460,1	396,157
460,5	402,157
461	415,157
461,4	423,614
461,9	437,529
462,3	448,329
462,8	462,414
463,2	470,957
463,7	490,186
464,1	501,414
464,6	521,3
465	537,614
465,5	548,5
466	562,986
466,4	580,814
466,9	596,586
467,3	609,843
467,8	623,129
468,2	637,214
468,7	653,843
469,1	673,871
469,6	686,414
470	699,7
470,5	717,529
470,9	727,1
471,4	744,1
471,8	758,871
472,3	771,843
472,7	789,129
473,2	802,271
473,6	816,1
474,1	837,129
474,5	851,929
475	871,557
475,4	882,357
475,9	894,443
476,4	911,071
476,8	933,129
477,3	944,014
477,7	960,1
478,2	972,814
478,6	988,414
479,1	1000,586
479,5	1015,414
480	1022,843
480,4	1042,871
480,9	1051,271
481,3	1061,329
481,8	1075,814
482,2	1086,7
482,7	1094,271
483,1	1108,3
483,6	1111,614
484	1124,271
484,5	1139,586
484,9	1151,071
485,4	1167,414
485,8	1177,5
486,3	1183,3
486,7	1196,214
487,2	1201,871
487,6	1205,9
488,1	1208,843
488,5	1216,643
489	1230,986
489,4	1242,957
489,9	1244,271
490,4	1260,471
490,8	1268,214
491,3	1276,643
491,7	1283,214
492,2	1288,557
492,6	1294,329
493,1	1305,043
493,5	1300,557
494	1301,7
494,4	1305,643
494,9	1304,157
495,3	1304,957
495,8	1307,329
496,2	1313,043
496,7	1320,386
497,1	1329,214
497,6	1335,814
498	1342,843
498,5	1346,3
498,9	1349,214
499,4	1347,671
499,8	1356,014
500,3	1357,586
500,7	1359,929
501,2	1362,1
501,6	1360,386
502,1	1359,529
502,5	1363,529
503	1361,643
503,4	1360,871
503,9	1356,214
504,3	1351,9
504,8	1355,214
505,2	1356,7
505,7	1352,271
506,1	1352,186
506,6	1352,614
507	1354,957
507,5	1359,414
507,9	1358,529
508,4	1358,3
508,8	1359,786
509,3	1351,643
509,7	1351,957
510,2	1350,929
510,6	1343,929
511,1	1348,386
511,5	1345,271
512	1344,186
512,4	1349,243
512,9	1349,643
513,3	1353,129
513,8	1358,957
514,2	1354,9
514,7	1357,586
515,1	1359,729
515,6	1358,929
516	1357,271
516,5	1354,843
516,9	1355,329
517,4	1355,271
517,8	1354,671
518,3	1355,443
518,7	1356,814
519,2	1355,414
519,6	1354,757
520,1	1357,929
520,5	1358,9
521	1361,443
521,4	1367,957
521,9	1368,529
522,3	1371,414
522,8	1373,443
523,2	1375,814
523,7	1377,014
524,1	1376,957
524,6	1372,443
525	1377,643
525,5	1377,957
525,9	1380,871
526,4	1374,129
526,8	1372,957
527,3	1370,271
527,7	1370,643
528,2	1368,129
528,6	1367,271
529,1	1368,729
529,5	1374,5
530	1377,671
530,4	1385,529
530,9	1387,957
531,3	1392,014
531,8	1401,014
532,2	1402,7
532,6	1402,243
533,1	1401,471
533,5	1398,757
534	1401,586
534,4	1401,757
534,9	1400,1
535,3	1405,357
535,8	1409,557
536,2	1417,443
536,7	1422,1
537,1	1424,586
537,6	1427,043
538	1432,986
538,5	1435,614
538,9	1432,957
539,4	1438,929
539,8	1442,357
540,3	1442,357
540,7	1443,271
541,2	1441,386
541,6	1440,614
542,1	1453,014
542,5	1449,214
543	1448,329
543,4	1448,243
543,9	1452,814
544,3	1461,671
544,8	1461,557
545,2	1457,129
545,7	1462,671
546,1	1472,586
546,5	1486,986
547	1485,786
547,4	1485,3
547,9	1489,7
548,3	1495,871
548,8	1502,271
549,2	1501,614
549,7	1493,814
550,1	1502,986
550,6	1504,071
551	1504,643
551,5	1511,071
551,9	1510,643
552,4	1513,357
552,8	1519,243
553,3	1515,957
553,7	1518,014
554,2	1526,443
554,6	1527,671
555,1	1527,986
555,5	1530,843
555,9	1540,071
556,4	1545,957
556,8	1548,929
557,3	1552,386
557,7	1554,843
558,2	1555,5
558,6	1559,129
559,1	1556,7
559,5	1557,071
560	1562,129
560,4	1563,586
560,9	1561,386
561,3	1565,786
561,8	1567,043
562,2	1571,843
562,7	1574,271
563,1	1574,157
563,6	1574,843
564	1580,643
564,4	1578,786
564,9	1582,986
565,3	1579,557
565,8	1581,586
566,2	1582,929
566,7	1583,414
567,1	1587,357
567,6	1589,671
568	1582,986
568,5	1585,014
568,9	1582,614
569,4	1581,414
569,8	1582,3
570,3	1578,7
570,7	1578,7
571,1	1586,214
571,6	1588,957
572	1594,271
572,5	1595,3
572,9	1592,1
573,4	1586,757
573,8	1592,9
574,3	1588,786
574,7	1586,243
575,2	1585,043
575,6	1586,014
576,1	1589,843
576,5	1598,614
576,9	1589,929
577,4	1595,014
577,8	1594,357
578,3	1593,071
578,7	1590,071
579,2	1589,671
579,6	1585,3
580,1	1585,986
580,5	1583,271
581	1584,3
581,4	1586,471
581,9	1585,386
582,3	1583,186
582,7	1582,9
583,2	1586,814
583,6	1580,329
584,1	1576,014
584,5	1571,186
585	1574,014
585,4	1565,386
585,9	1560,729
586,3	1559,614
586,8	1560,986
587,2	1558,871
587,6	1565,357
588,1	1562,157
588,5	1566,271
589	1568,614
589,4	1562,529
589,9	1558,329
590,3	1559,071
590,8	1552,214
591,2	1546,586
591,7	1546,786
592,1	1544,871
592,5	1545,043
593	1542,643
593,4	1537,729
593,9	1529,443
594,3	1528,586
594,8	1518,014
595,2	1513,957
595,7	1508,014
596,1	1503,357
596,6	1503,557
597	1508,243
597,4	1510,329
597,9	1513,157
598,3	1510,929
598,8	1507,529
599,2	1509,1
599,7	1501,614
600,1	1494,243
600,6	1487,929
601	1487,214
601,4	1487,757
601,9	1489,957
602,3	1483,586
602,8	1490,671
603,2	1490,671
603,7	1484,614
604,1	1482,7
604,6	1473,3
605	1461,043
605,4	1460,957
605,9	1446,557
606,3	1434,643
606,8	1432,643
607,2	1425,557
607,7	1419,871
608,1	1422,071
608,6	1421,871
609	1428,329
609,4	1429,329
609,9	1422,243
610,3	1415,986
610,8	1414,871
611,2	1412,414
611,7	1401,129
612,1	1389,757
612,6	1385,7
613	1389,1
613,4	1381,929
613,9	1372,786
614,3	1366,129
614,8	1362,671
615,2	1356,5
615,7	1350,471
616,1	1340,814
616,6	1336,586
617	1336,1
617,4	1332,186
617,9	1332,729
618,3	1331,957
618,8	1327,9
619,2	1322,586
619,7	1320,471
620,1	1314,043
620,5	1306,729
621	1294,529
621,4	1294,443
621,9	1289,786
622,3	1286,957
622,8	1279,471
623,2	1272,129
623,6	1269,9
624,1	1270,614
624,5	1256,271
625	1257,671
625,4	1254,157
625,9	1252,386
626,3	1248,814
626,8	1239,329
627,2	1230,329
627,6	1219,5
628,1	1201,9
628,5	1194,843
629	1188,7
629,4	1183,986
629,9	1180,3
630,3	1173,271
630,7	1172,071
631,2	1171,3
631,6	1161,671
632,1	1156,614
632,5	1150,5
633	1146,329
633,4	1144,757
633,8	1139,729
634,3	1134,271
634,7	1131,786
635,2	1122,357
635,6	1119,214
636,1	1114,043
636,5	1102,243
636,9	1097,586
637,4	1089,871
637,8	1083,671
638,3	1078,843
638,7	1072,757
639,2	1064,729
639,6	1064,9
640	1060,214
640,5	1057,157
640,9	1053,3
641,4	1047,871
641,8	1041,214
642,2	1036,186
642,7	1035,5
643,1	1035,157
643,6	1030,214
644	1024,957
644,5	1022,471
644,9	1019,586
645,3	1013,9
645,8	999,871
646,2	991,614
646,7	981,871
647,1	978,271
647,6	977,414
648	971,071
648,4	967,043
648,9	964,957
649,3	959,243
649,8	959,443
650,2	951,386
650,6	944,157
651,1	939,3
651,5	938,757
652	935,729
652,4	931,586
652,9	927,957
653,3	924,557
653,7	922,214
654,2	919,014
654,6	907,329
655,1	905,643
655,5	906,443
655,9	902,243
656,4	900,243
656,8	889,9
657,3	887,557
657,7	890,586
658,2	880,243
658,6	866,443
659	858,157
659,5	851,014
659,9	847,157
660,4	837,471
660,8	827,843
661,2	822,1
661,7	824,443
662,1	823,329
662,6	817,843
663	817,443
663,4	813,071
663,9	808,7
664,3	806,929
664,8	794,757
665,2	787,186
665,6	775,186
666,1	763,386
666,5	759,157
667	755,1
667,4	749,729
667,9	752,214
668,3	745,357
668,7	748,271
669,2	749,957
669,6	747,443
670,1	742,671
670,5	735,243
670,9	728,614
671,4	727,271
671,8	726,329
672,3	722,3
672,7	720,014
673,1	713,357
673,6	712,043
674	708,414
674,5	704,671
674,9	691,557
675,3	684,443
675,8	677,671
676,2	677,786
676,7	671,957
677,1	667,414
677,5	663,071
678	662,814
678,4	662,3
678,9	659,557
679,3	653,5
679,7	653,157
680,2	644,957
680,6	642,357
681,1	641,671
681,5	635,329
681,9	632,243
682,4	628,557
682,8	625,7
683,3	625,386
683,7	619,814
684,1	613,014
684,6	610,986
685	602,471
685,5	599,1
685,9	587,957
686,3	583,443
686,8	582,386
687,2	586,129
687,7	581,871
688,1	575,586
688,5	575,414
689	576,329
689,4	572,586
689,9	568,643
690,3	555,043
690,7	552,329
691,2	558,786
691,6	552,929
692	550,214
692,5	546,329
692,9	540,843
693,4	539,671
693,8	538,814
694,2	528,729
694,7	522,814
695,1	515,986
695,6	512,586
696	512,643
696,4	512,186
696,9	500,386
697,3	494,986
697,8	493,243
698,2	488,186
698,6	485,357
699,1	482,814
699,5	479,471
699,9	479,871
700,4	476,929
700,8	473,157
701,3	476,7
701,7	474,329
702,1	467,3
702,6	462,243
703	456,9
703,5	456,014
703,9	453,929
704,3	450,3
704,8	443,3
705,2	441,529
705,6	439,471
706,1	438,357
706,5	434,243
707	431,814
707,4	432,3
707,8	429,1
708,3	427,414
708,7	429,243
709,2	426,014
709,6	424,243
710	425,557
710,5	417,986
710,9	417,243
711,3	413,586
711,8	409,414
712,2	407,414
712,7	404,043
713,1	403,557
713,5	402,386
714	404,757
714,4	401,729
714,8	397,214
715,3	392,871
715,7	392,757
716,2	383,071
716,6	382,271
717	372,329
717,5	370,7
717,9	370,529
718,3	369,157
718,8	364,786
719,2	360,329
719,7	357,986
720,1	362,843
720,5	365,929
721	361,786
721,4	360,386
721,8	365,014
722,3	364,271
722,7	362,157
723,2	353,557
723,6	340,757
724	336,586
724,5	331,214
724,9	322,986
725,3	322,386
725,8	318,186
726,2	317,1
726,7	314,186
727,1	313,329
727,5	314,9
728	315,243
728,4	313,929
728,8	312,214
729,3	306,7
729,7	310,129
730,1	307,129
730,6	304,471
731	299,9
731,5	293,671
731,9	289,186
732,3	295,529
732,8	294,586
733,2	295,329
733,6	295,929
734,1	296,557
734,5	300,186
734,9	305,7
735,4	305,471
735,8	302,1
736,3	299,786
736,7	293,1
737,1	291,471
737,6	287,357
738	280,214
738,4	273,843
738,9	271,757
739,3	271,157
739,7	270,7
740,2	265,271
740,6	266,243
741,1	268,157
741,5	263,7
741,9	262,929
742,4	263,814
742,8	264,414
743,2	267,871
743,7	264,386
744,1	258,014
744,5	256,729
745	249,1
745,4	244,929
745,8	245,557
746,3	241,186
746,7	238,557
747,2	240,3
747,6	244,986
748	252,3
748,5	255,9
748,9	249,814
749,3	248,814
749,8	248,329
750,2	247,929
750,6	241,843
751,1	241,214
751,5	231,957
751,9	236,643
752,4	233,871
752,8	233,643
753,3	231,957
753,7	235,586
754,1	228,443
754,6	225,5
755	219,671
755,4	216,9
755,9	217,357
756,3	212,014
756,7	208,014
757,2	211,814
757,6	213,557
758	211,957
758,5	213,1
758,9	208,529
759,3	209,386
759,8	208,129
760,2	207,271
760,6	202,957
761,1	201,443
761,5	197,357
761,9	197,986
762,4	193,529
762,8	190,786
763,3	187,1
763,7	188,671
764,1	190,643
764,6	195,014
765	192,357
765,4	195,014
765,9	194,986
766,3	195,129
766,7	195,043
767,2	193,214
767,6	194,586
768	194,043
768,5	189,9
768,9	190,157
769,3	186,471
769,8	185,043
770,2	186,443
770,6	178,071
771,1	181,843
771,5	184,443
771,9	184,157
772,4	187,071
772,8	185,786
773,2	180,414
773,7	184,186
774,1	178,529
774,5	172,786
775	169,271
775,4	166,757
775,8	164,757
776,3	164,471
776,7	161,043
777,1	160,671
777,6	164,414
778	167,843
778,4	166,614
778,9	169,271
779,3	169,214
779,7	167,843
780,2	168,957
780,6	164,671
781	160,729
781,5	155,871
781,9	151,3
782,3	147,929
782,8	147,5
783,2	141,386
783,6	144,643
784,1	145,471
784,5	144,186
784,9	142,186
785,4	146,271
785,8	146,643
786,2	149,557
786,7	144,043
787,1	137,386
787,5	139,471
788	139,614
788,4	135,929
788,8	133,043
789,3	131,414
789,7	137,643
790,1	138,7
790,6	140,957
791	138,757
791,4	140,014
791,9	136,843
792,3	130,529
792,7	131,129
793,2	131,329
793,6	126,129
794	126,9
794,5	123,929
794,9	125,386
795,3	129,129
795,8	122,471
796,2	122,7
796,6	124,3
797,1	122,157
797,5	120,643
797,9	120,7
798,4	116,671
798,8	116,729
799,2	114,843
799,7	117,214
800,1	115,671
800,5	112,329
801	113,414
801,4	114,357
801,8	110,186
802,2	110,9
802,7	102,757
803,1	103,986
803,5	108,3
804	105,729
804,4	104,071
804,8	106,7
805,3	102,929
805,7	104,014
806,1	104,671
806,6	101,871
807	101,643
807,4	102,1
807,9	96,786
808,3	98,214
808,7	100,014
809,2	100,786
809,6	101,414
810	99,586
810,4	98,614
810,9	101,786
811,3	104,671
811,7	105,529
812,2	106,414
812,6	107,3
813	113,357
813,5	115,3
813,9	111,614
814,3	105,814
814,8	101,786
815,2	97,443
815,6	95,614
816,1	91,386
816,5	90,9
816,9	94,471
817,3	95,271
817,8	97,814
818,2	98,043
818,6	94,643
819,1	95,386
819,5	91,3
819,9	87,729
820,4	87,414
820,8	82,814
821,2	80,843
821,7	82,043
822,1	78,3
822,5	84,043
822,9	84,186
823,4	84,214
823,8	86,186
824,2	90,757
824,7	87,157
825,1	84,529
825,5	75,214
826	73,986
826,4	72,386
826,8	71,586
827,3	71,129
827,7	70,357
828,1	70,957
828,5	75,357
829	70,357
829,4	71,7
829,8	66,757
830,3	64,643
830,7	65,157
831,1	66,614
831,6	69,3
832	74,014
832,4	69,243
832,8	72,757
833,3	69,043
833,7	68,957
834,1	65,9
834,6	62,129
835	65,9
835,4	70,871
835,8	65,471
836,3	63,529
836,7	64,386
837,1	67,7
837,6	70,329
838	64,071
838,4	60,157
838,9	64,214
839,3	65,671
839,7	65,671
840,1	59,471
840,6	56,671
841	58,757
841,4	57,071
841,9	56,7
842,3	52,9
842,7	50,786
843,1	53,5
843,6	56,214
844	59,157
844,4	63,729
844,9	65,957
845,3	68,986
845,7	68,586
846,2	67,986
846,6	61,614
847	59,871
847,4	56,9
847,9	55,643
848,3	55,757
848,7	57,329
849,2	58,129
849,6	57,386
850	59,271
850,4	58,186
850,9	58,614
851,3	60,014
851,7	62,129
852,2	58,557
852,6	66,414
853	60,071
853,4	58,586
853,9	56,5
854,3	51,957
854,7	49,271
855,2	51,1
855,6	45,757
856	46,071
856,4	43,9
856,9	44,7
857,3	46,414
857,7	52,843
858,2	56,814
858,6	52,471
859	50,129
859,4	55,443
859,9	53,471
860,3	50,329
860,7	40,786
861,1	39,043
861,6	38,957
862	41,243
862,4	35,3
862,9	37,757
863,3	38,986
863,7	41,7
864,1	38,786
864,6	42,614
865	40,643
865,4	46,643
865,9	46,757
866,3	44,386
866,7	41,071
867,1	38,414
867,6	40,071
868	41,243
868,4	40,443
868,8	37,643
869,3	38,043
869,7	45,957
870,1	43,271
870,6	39,814
871	23,014
871,4	23,7
871,8	20,786
872,3	25,186
872,7	21,129
873,1	26,471
873,5	26,9
874	45,729
874,4	39,9
874,8	39,071
875,3	36,643
875,7	36,357
876,1	36,357
876,5	36,1
877	32,786
877,4	32,729
877,8	35,014
878,2	39,186
878,7	38,243
879,1	36,5
879,5	38,586
879,9	43,014
880,4	46,3
880,8	48,5
881,2	48,729
881,7	42,414
882,1	45,729
882,5	43,814
882,9	40,1
883,4	38,843
883,8	35,386
884,2	31,271
884,6	35,043
885,1	31,014
885,5	28,157
885,9	30,471
886,3	31,471
886,8	34,157
887,2	32,471
887,6	31,471
888	31,214
888,5	33,243
888,9	30,529
889,3	27,271
889,8	26,014
890,2	27,243
890,6	25,186
891	24,671
891,5	24,014
891,9	24,186
892,3	23,557
892,7	22,243
893,2	24,243
893,6	29,643
894	34,786
894,4	34,357
894,9	36,129
895,3	35,986
895,7	34,414
896,1	28,214
896,6	25,414
897	24,3
897,4	29,357
897,8	29,243
898,3	34,471
898,7	37,1
899,1	38,357
899,5	34,843
900	27,9
900,4	21,1
900,8	13,3
901,2	6,614
901,7	5,014
902,1	8,414
902,5	15,786
902,9	17,414
903,4	21,043
903,8	28,929
904,2	29,443
904,6	28,471
905,1	24,586
905,5	20,186
905,9	25,729
906,3	26,5
906,8	26,557
907,2	29,414
907,6	28,071
908	33,014
908,5	32,5
908,9	26,1
909,3	22,157
909,7	23,557
910,2	21,986
910,6	27,129
911	21,843
911,4	21,414
911,9	25,643
912,3	25,9
912,7	26,3
913,1	30,243
913,6	23,757
914	28,157
914,4	26,357
914,8	25,014
915,3	24,614
915,7	20,243
916,1	15,957
916,5	23,157
916,9	20,186
917,4	20,414
917,8	20,843
918,2	18,5
918,6	16,1
919,1	16,5
919,5	15,329
919,9	16,243
920,3	15,214
920,8	15,3
921,2	17,357
921,6	21,3
922	21,786
922,5	18,443
922,9	18,957
923,3	23,671
923,7	23,529
924,2	21,7
924,6	21,043
925	21,3
925,4	21,414
925,8	22,129
926,3	21,5
926,7	17,357
927,1	22,757
927,5	19,729
928	18,357
928,4	19,014
928,8	20,157
929,2	17,071
929,7	22,129
930,1	19,3
930,5	20,586
930,9	22,186
931,3	23,471
931,8	19,071
932,2	22,643
932,6	19,929
933	11,157
933,5	13,557
933,9	15,3
934,3	14,3
934,7	11,186
935,2	11,929
935,6	13,7
936	21,929
936,4	22,786
936,8	25,471
937,3	22,157
937,7	30,014
938,1	27,843
938,5	22,729
939	27,157
939,4	24,529
939,8	18,814
940,2	20,7
940,6	20,071
941,1	16,843
941,5	24,614
941,9	20,014
942,3	19,9
942,8	21,471
943,2	24,814
943,6	22,557
944	29,414
944,4	25,443
944,9	22,271
945,3	21,3
945,7	14,557
946,1	8,357
946,6	7,814
947	1,3
947,4	6,871
947,8	14,214
948,2	11,643
948,7	14,957
949,1	15,129
949,5	19,357
949,9	22,957
950,3	17,357
950,8	14,1
951,2	10,243
951,6	10,329
952	13,671
952,5	5,271
952,9	4,329
953,3	3,5
953,7	2,157
954,1	8,757
954,6	11,129
955	13,014
955,4	12,7
955,8	14,757
956,2	14,157
956,7	12,786
957,1	11,557
957,5	13,786
957,9	11,529
958,3	11,471
958,8	11,729
959,2	13,7
959,6	17,443
960	18,157
960,5	18,271
960,9	18,414
961,3	16,5
961,7	12,071
962,1	12,557
962,6	11,043
963	7,471
963,4	1,271
963,8	1,414
964,2	7,071
964,7	8,843
965,1	10,471
965,5	11,1
965,9	14,643
966,3	20,243
966,8	18,043
967,2	19,329
967,6	21,671
968	17,014
968,4	15,643
968,9	15,757
969,3	16,757
969,7	18,5
970,1	15,729
970,5	13,014
971	17,443
971,4	16,729
971,8	15,671
972,2	17,586
972,6	15,786
973,1	13,757
973,5	14,071
973,9	11,843
974,3	15,1
974,7	20,7
975,2	20,357
975,6	19,186
976	23,643
976,4	21,1
976,8	21,786
977,3	15,214
977,7	8,214
978,1	6,243
978,5	6,843
978,9	4,186
979,4	4,186
979,8	0,929
980,2	6,386
980,6	5,871
981	9,786
981,5	11,071
981,9	11,643
982,3	12,329
982,7	13,5
983,1	11,1
983,6	15,3
984	6,414
984,4	8,814
984,8	9,9
985,2	12,614
985,6	10,786
986,1	13,443
986,5	12,729
986,9	14,757
987,3	17,243
987,7	22,729
988,2	20,757
988,6	24,329
989	20,243
989,4	19,586
989,8	19,1
990,3	13,843
990,7	6,586
991,1	7,986
991,5	8,271
991,9	12,814
992,3	14,1
992,8	16,357
993,2	17,043
993,6	19,786
994	22,329
994,4	21,586
994,9	22,557
995,3	18,414
995,7	16,614
996,1	15,557
996,5	15,357
996,9	8,5
997,4	10,757
997,8	4,271
998,2	5,5
998,6	1,386
999	2,129
999,5	-1,729
999,9	3,7
1000,3	1,414
1000,7	5,843
1001,1	6,7
1001,5	8,214
1002	10,786
1002,4	11,957
1002,8	11,1
1003,2	14,671
1003,6	15,557
1004	19,757
1004,5	19,586
1004,9	20,5
1005,3	18,7
1005,7	16,643
1006,1	11,186
1006,6	9,586
1007	6,586
1007,4	9,671
1007,8	8,043
1008,2	8,3
1008,6	11,814
1009,1	11,871
1009,5	12,414
1009,9	15,871
1010,3	13,586
1010,7	15,5
1011,1	15,843
1011,6	14,7
1012	19,557
1012,4	14,957
1012,8	10,329
1013,2	13,957
1013,6	9,3
1014,1	12,357
1014,5	13,929
1014,9	10,757
1015,3	9,529
1015,7	11,529
1016,1	9,243
1016,6	10,414
1017	10,986
1017,4	10,957
1017,8	8,386
1018,2	15,757
1018,6	9,986
1019,1	11,3
1019,5	11,5
1019,9	5,929
1020,3	3,471
1020,7	8,729
1021,1	3,614
1021,6	5,786
1022	9,243
1022,4	8,757
1022,8	14,386
1023,2	13,9
1023,6	10,843
1024,1	19,729
1024,5	25,1
1024,9	21,186
1025,3	21,186
1025,7	22,443
1026,1	22,014
1026,6	20,586
1027	10,5
1027,4	10,557
1027,8	7,729
1028,2	7,443
1028,6	6,014
1029	6,786
1029,5	12,671
1029,9	14,871
1030,3	9,814
1030,7	16,071
1031,1	16,871
1031,5	16,014
1032	16,9
1032,4	15,014
1032,8	19,729
1033,2	24,043
1033,6	20,186
1034	23,729
1034,4	24,243
1034,9	28,043
1035,3	25,214
1035,7	25,243
1036,1	21,186
1036,5	19,329
1036,9	17,843
1037,4	22,929
1037,8	18,529
1038,2	17,157
1038,6	13,643
1039	22,357
1039,4	28,443
1039,8	19,443
1040,3	19,671
1040,7	18,843
1041,1	24,014
1041,5	26,786
1041,9	20,386
1042,3	17,671
1042,7	26,386
1043,2	22,471
1043,6	20,357
1044	15,471
1044,4	14,871
1044,8	11,929
1045,2	11,3
1045,6	12,357
1046,1	9,7
1046,5	12,586
1046,9	14,071
1047,3	13,386
1047,7	12,929
1048,1	12,5
1048,5	13,357
1049	15,443
1049,4	16,414
1049,8	20,271
1050,2	21,3
1050,6	24,243
1051	25,3
1051,4	19,129
1051,9	14,271
1052,3	18,9
1052,7	13,757
1053,1	10,3
1053,5	10,843
1053,9	10,329
1054,3	13,243
1054,8	18,843
1055,2	17,3
1055,6	21,414
1056	19,586
1056,4	17,786
1056,8	20,586
1057,2	20,643
1057,6	20,071
1058,1	15,329
1058,5	8,557
1058,9	12,7
1059,3	14,157
1059,7	11,5
1060,1	11,614
1060,5	15,157
1061	16,557
1061,4	19,5
1061,8	23,386
1062,2	24,643
1062,6	26,271
1063	29,843
1063,4	26,071
1063,8	25,214
1064,3	24,014
1064,7	21,814
1065,1	22,7
1065,5	14,443
1065,9	11,929
1066,3	10,186
1066,7	7,871
1067,1	9,986
1067,6	11,357
1068	5,5
1068,4	13,757
1068,8	18,986
1069,2	19,1
1069,6	22,757
1070	21,129
1070,4	15,443
1070,9	15,3
1071,3	8,786
1071,7	0,329
1072,1	1,3
1072,5	-0,014
1072,9	1,871
1073,3	5,7
1073,7	6,014
1074,2	8,071
1074,6	10,071
1075	5,614
1075,4	5,586
1075,8	5,843
1076,2	4,443
1076,6	8,586
1077	12,157
1077,5	10,871
1077,9	12,014
1078,3	11,157
1078,7	9,843
1079,1	10,157
1079,5	9,357
1079,9	9,386
1080,3	10,043
1080,7	13,329
1081,2	19,5
1081,6	20,443
1082	18,671
1082,4	22,871
1082,8	18,5
1083,2	20,871
1083,6	21,471
1084	16,157
1084,5	16,671
1084,9	13,7
1085,3	6,129
1085,7	11,214
1086,1	9,7
1086,5	9,414
1086,9	12,043
1087,3	13,414
1087,7	17,586
1088,2	20,414
1088,6	18,3
1089	19,414
1089,4	19,271
1089,8	14,786
1090,2	12,243
1090,6	8,843
1091	11,271
1091,4	14,786
1091,9	13,557
1092,3	14,786
1092,7	11,414
1093,1	11,957
1093,5	14,614
1093,9	11,729
1094,3	12,386
1094,7	13,129
1095,1	14,271
1095,5	17,729
1096	15,557
1096,4	15,471
1096,8	10,614
1097,2	8,243
1097,6	13,071
1098	9,214
1098,4	13,357
1098,8	16,043
1099,2	19,929
1099,6	23,614
1100,1	19,986
1100,5	12,729
1100,9	13,871
1101,3	13,043
1101,7	11,7
1102,1	6,357
1102,5	9,329
1102,9	12,414
1103,3	17,3
1103,7	17,757
1104,2	13,157
1104,6	12,843
1105	14,557
1105,4	12,729
1105,8	9,1
1106,2	4,271
1106,6	1,671
1107	2,814
1107,4	2,267
1107,8	0,94
1108,3	-0,75
