Data from Subt2_184.txt Node
Date: Sat Aug 26 18:40:38 MSK 2023
User: vat
Spectrometer: MAYP114033
Trigger mode: 0
Integration Time (sec): 1,000000E0
Scans to average: 5
Electric dark correction enabled: true
Nonlinearity correction enabled: false
Boxcar width: 3
XAxis mode: Wavelengths
Number of Pixels in Spectrum: 2068
>>>>>Begin Spectral Data<<<<<
199,4	0,2
199,9	2,86
200,4	0,233
200,8	0,5
201,3	-1,157
201,8	-1,071
202,2	-2,643
202,7	-1,043
203,2	-2,557
203,6	-0,614
204,1	-0,129
204,6	1,443
205	4,443
205,5	4,643
206	5,243
206,4	4,843
206,9	3,071
207,4	2,9
207,8	1,071
208,3	-1,3
208,8	-0,671
209,2	1,329
209,7	0,757
210,2	3,243
210,6	3,243
211,1	7,643
211,5	3,157
212	5,1
212,5	4,814
212,9	3,043
213,4	6,643
213,9	6,843
214,3	8,214
214,8	12,243
215,3	10,329
215,7	9,7
216,2	15,957
216,7	14,9
217,1	15,386
217,6	12,1
218,1	12,243
218,5	13,329
219	4,471
219,5	4,129
219,9	-0,157
220,4	7,843
220,9	7,271
221,3	7,357
221,8	9,786
222,3	13,843
222,7	12,986
223,2	14,643
223,6	4,786
224,1	1,243
224,6	3,1
225	-0,414
225,5	1,586
226	-0,9
226,4	2,643
226,9	-0,386
227,4	1,586
227,8	-3,329
228,3	-2,443
228,8	-1,271
229,2	-2,929
229,7	-5,729
230,2	-0,214
230,6	4,186
231,1	12,186
231,5	10,214
232	7,7
232,5	6,643
232,9	3,871
233,4	6,614
233,9	5,557
234,3	1,014
234,8	4,471
235,3	6,471
235,7	11,671
236,2	15,414
236,7	11,586
237,1	11,386
237,6	7,471
238,1	3,329
238,5	-0,357
239	-0,071
239,4	-2,014
239,9	-3,3
240,4	-6,271
240,8	-2,129
241,3	-0,871
241,8	1,3
242,2	-1,414
242,7	-3,1
243,2	-3,357
243,6	-4,671
244,1	-1,329
244,6	3,757
245	4,557
245,5	1,071
245,9	1,329
246,4	1,729
246,9	5,471
247,3	3,5
247,8	0,043
248,3	0,214
248,7	3,614
249,2	5,414
249,7	5,871
250,1	6,843
250,6	4,157
251	5,386
251,5	7,957
252	5,129
252,4	5,414
252,9	2,1
253,4	-2,1
253,8	-2,043
254,3	-3,157
254,8	-5,386
255,2	-2,557
255,7	-5,614
256,1	-1,071
256,6	3,814
257,1	4,586
257,5	0,386
258	0,1
258,5	1,7
258,9	0,414
259,4	-0,357
259,9	-1,357
260,3	-5,1
260,8	-3,186
261,2	-4,814
261,7	-3,557
262,2	0,071
262,6	4,014
263,1	4,186
263,6	10,643
264	15,386
264,5	18,014
264,9	15,986
265,4	18,586
265,9	14,786
266,3	16,386
266,8	15,643
267,3	14,1
267,7	12,071
268,2	13,271
268,7	9,014
269,1	6,529
269,6	2,757
270	3,757
270,5	-0,814
271	0,843
271,4	-0,986
271,9	-0,9
272,4	3,443
272,8	2,557
273,3	-1,614
273,7	0,729
274,2	-1,557
274,7	-2,871
275,1	-0,814
275,6	-1,186
276,1	1,786
276,5	3,014
277	2,3
277,4	5,443
277,9	8,3
278,4	10,9
278,8	12,214
279,3	9,871
279,8	11,471
280,2	16,471
280,7	16,414
281,1	12,729
281,6	10,1
282,1	7,014
282,5	7,729
283	7,3
283,4	3,157
283,9	1,471
284,4	5,786
284,8	4,7
285,3	5,529
285,8	6,186
286,2	3,129
286,7	3,586
287,1	0,357
287,6	1,243
288,1	-0,614
288,5	0,243
289	-2,5
289,5	2,957
289,9	-1,386
290,4	4,9
290,8	0,7
291,3	3,586
291,8	6,5
292,2	9,7
292,7	8,043
293,1	10,357
293,6	8,071
294,1	9,871
294,5	11,129
295	9,186
295,5	6,929
295,9	4,3
296,4	2,071
296,8	1,214
297,3	1,757
297,8	-4,329
298,2	-8,929
298,7	-4,186
299,1	-0,586
299,6	1,386
300,1	3,7
300,5	5,014
301	12,529
301,5	18,243
301,9	15,671
302,4	10,814
302,8	12,729
303,3	10,1
303,8	3,5
304,2	-0,071
304,7	-4,243
305,1	-8,757
305,6	-4,843
306,1	-3,357
306,5	-3,557
307	2,3
307,4	3,557
307,9	3,7
308,4	8,814
308,8	5,614
309,3	5,7
309,8	4,471
310,2	4,843
310,7	0,729
311,1	0,129
311,6	-0,186
312,1	-1,329
312,5	-0,9
313	1,386
313,4	-2,5
313,9	-1,614
314,4	-0,186
314,8	-2,586
315,3	-1,671
315,7	-6,471
316,2	-10,357
316,7	-8,329
317,1	-1,129
317,6	-3,186
318	-1,729
318,5	0,014
319	3,014
319,4	8,071
319,9	11,986
320,3	8,643
320,8	10,729
321,3	15,957
321,7	17,414
322,2	18,929
322,6	17,643
323,1	13,586
323,6	11,671
324	9,071
324,5	2,757
324,9	-1,014
325,4	-2,7
325,9	-0,929
326,3	0,471
326,8	3,014
327,2	0,586
327,7	2,7
328,2	7,814
328,6	9,7
329,1	3,214
329,5	1,443
330	-3,414
330,5	-0,729
330,9	-1,986
331,4	-5,986
331,8	-9,357
332,3	-1,957
332,8	-1,5
333,2	1,186
333,7	4,671
334,1	3,414
334,6	2,014
335,1	-2,729
335,5	-5,014
336	-6,157
336,4	-2,986
336,9	2,329
337,4	6,557
337,8	8,671
338,3	15,043
338,7	18,329
339,2	17,529
339,7	18,357
340,1	8,957
340,6	5,129
341	5,014
341,5	5,7
342	-0,243
342,4	1,471
342,9	-3,271
343,3	1,5
343,8	2,9
344,2	3,729
344,7	8,614
345,2	9,729
345,6	10,071
346,1	13,414
346,5	7,986
347	4,043
347,5	3,386
347,9	2,757
348,4	2,214
348,8	0,529
349,3	-0,329
349,8	1,929
350,2	12,071
350,7	9,814
351,1	8,186
351,6	14,529
352	22,443
352,5	25,271
353	36,5
353,4	37,157
353,9	52,243
354,3	66,786
354,8	77,929
355,3	94,7
355,7	115,071
356,2	133,243
356,6	156,957
357,1	184,014
357,5	213,786
358	250,729
358,5	286,214
358,9	330,357
359,4	382,157
359,8	440,614
360,3	509,986
360,8	578,957
361,2	663,129
361,7	755,929
362,1	864,5
362,6	972,586
363	1090,529
363,5	1206,9
364	1345,3
364,4	1477,329
364,9	1615,329
365,3	1745,671
365,8	1870,157
366,3	1982,1
366,7	2095,186
367,2	2180,814
367,6	2254,1
368,1	2310,071
368,5	2345,271
369	2366,729
369,5	2376,614
369,9	2357,7
370,4	2326,271
370,8	2279,129
371,3	2211,3
371,7	2130,586
372,2	2042,757
372,7	1944,414
373,1	1842,614
373,6	1734,1
374	1627,214
374,5	1520,529
374,9	1418,186
375,4	1322,157
375,9	1223,786
376,3	1131,786
376,8	1038,671
377,2	953,929
377,7	875,3
378,2	800,129
378,6	732,243
379,1	673,557
379,5	618,043
380	571,471
380,4	525,529
380,9	482,729
381,4	444,3
381,8	403,757
382,3	372,186
382,7	344,757
383,2	323,557
383,6	301,214
384,1	282,329
384,6	265,5
385	248,586
385,5	230,243
385,9	210,614
386,4	190,9
386,8	176,957
387,3	163,386
387,7	151,643
388,2	144,7
388,7	137,157
389,1	127,729
389,6	122,129
390	114,1
390,5	112,471
390,9	105,957
391,4	96,471
391,9	90,071
392,3	85,986
392,8	79,443
393,2	73,557
393,7	67,357
394,1	61,9
394,6	61,9
395,1	63,014
395,5	58,071
396	60,214
396,4	56,3
396,9	50,243
397,3	58,214
397,8	58,929
398,2	55,129
398,7	55,786
399,2	51,471
399,6	54,3
400,1	56,386
400,5	47,071
401	42,357
401,4	36,1
401,9	38,529
402,4	38,386
402,8	31,814
403,3	36,957
403,7	39,729
404,2	42,7
404,6	48,529
405,1	47,871
405,5	49,186
406	56,843
406,5	52,557
406,9	52,9
407,4	53,357
407,8	54,957
408,3	57,9
408,7	56,186
409,2	60,443
409,6	66,986
410,1	73,129
410,6	79,357
411	86,814
411,5	90,471
411,9	101,414
412,4	104,3
412,8	109,329
413,3	117,386
413,7	120,757
414,2	124,986
414,7	137,443
415,1	147,643
415,6	157,443
416	165,671
416,5	170,643
416,9	181,3
417,4	191,586
417,8	203,357
418,3	217,3
418,8	229,214
419,2	240,586
419,7	253,586
420,1	269,186
420,6	283,986
421	290,271
421,5	299,386
421,9	312,529
422,4	328,014
422,8	344,243
423,3	355,843
423,8	365,929
424,2	381,957
424,7	400,129
425,1	416,214
425,6	437,471
426	453,214
426,5	475,986
426,9	503,386
427,4	528,557
427,9	546,529
428,3	575,786
428,8	601,014
429,2	629,614
429,7	657,7
430,1	689,157
430,6	722,757
431	760,557
431,5	795,929
431,9	826,186
432,4	866,529
432,8	905,786
433,3	944,557
433,8	987,757
434,2	1034,9
434,7	1085,414
435,1	1141,186
435,6	1192,871
436	1253,757
436,5	1316,386
436,9	1370,529
437,4	1431,814
437,8	1493,1
438,3	1560,014
438,8	1629,557
439,2	1700,7
439,7	1770,757
440,1	1850,871
440,6	1938,529
441	2016,014
441,5	2102,214
441,9	2192,671
442,4	2277,186
442,8	2376,471
443,3	2482,129
443,7	2577,614
444,2	2688,3
444,7	2796,271
445,1	2908,157
445,6	3024,729
446	3139,643
446,5	3251,586
446,9	3368,3
447,4	3491,671
447,8	3616,214
448,3	3751,329
448,7	3884,586
449,2	4026,986
449,6	4166,586
450,1	4312,586
450,6	4459,214
451	4603,871
451,5	4752,814
451,9	4908,757
452,4	5061,9
452,8	5221,9
453,3	5392,557
453,7	5560,557
454,2	5743,671
454,6	5914,643
455,1	6093,957
455,5	6271,271
456	6450,157
456,4	6617,586
456,9	6802,329
457,3	6990,3
457,8	7169,414
458,3	7357,043
458,7	7549,586
459,2	7746,9
459,6	7944,071
460,1	8135,757
460,5	8321,814
461	8528,157
461,4	8725,614
461,9	8922,643
462,3	9118,557
462,8	9329,529
463,2	9525,043
463,7	9724,214
464,1	9929,443
464,6	10137,357
465	10342,586
465,5	10543,643
466	10750,1
466,4	10955,729
466,9	11162,586
467,3	11351,5
467,8	11544,871
468,2	11738,9
468,7	11943,357
469,1	12136,671
469,6	12338,557
470	12534,614
470,5	12725,871
470,9	12913,814
471,4	13104,557
471,8	13280,3
472,3	13456,471
472,7	13627,357
473,2	13798,329
473,6	13970,986
474,1	14145,3
474,5	14304,729
475	14470,671
475,4	14629,5
475,9	14801,214
476,4	14945,786
476,8	15109,7
477,3	15250,929
477,7	15403,729
478,2	15543,443
478,6	15672,529
479,1	15786,014
479,5	15917,1
480	16022,557
480,4	16130,529
480,9	16225,757
481,3	16332,071
481,8	16434,7
482,2	16513,214
482,7	16596,357
483,1	16677,014
483,6	16753,157
484	16831,614
484,5	16886,929
484,9	16949,271
485,4	17018,529
485,8	17061,3
486,3	17106,957
486,7	17156,786
487,2	17185,357
487,6	17217,357
488,1	17227,386
488,5	17254,271
489	17274,614
489,4	17284,614
489,9	17277,957
490,4	17267,214
490,8	17265,871
491,3	17259,157
491,7	17227,643
492,2	17201,5
492,6	17175,557
493,1	17145,786
493,5	17097,014
494	17044,214
494,4	16992,843
494,9	16940,957
495,3	16897,014
495,8	16835,414
496,2	16779,443
496,7	16729,843
497,1	16679,157
497,6	16609,414
498	16549,443
498,5	16466,586
498,9	16400,3
499,4	16318,186
499,8	16245,986
500,3	16163,929
500,7	16079,614
501,2	15987,014
501,6	15897,243
502,1	15797,929
502,5	15705,3
503	15600,957
503,4	15495,671
503,9	15387,043
504,3	15279,157
504,8	15171,243
505,2	15069,271
505,7	14953,129
506,1	14856,357
506,6	14728,586
507	14625,043
507,5	14512,9
507,9	14409,786
508,4	14293,414
508,8	14176,129
509,3	14045,643
509,7	13943,357
510,2	13831,471
510,6	13706,5
511,1	13576,871
511,5	13444,9
512	13328,729
512,4	13208,786
512,9	13077,186
513,3	12951,186
513,8	12831,214
514,2	12707,643
514,7	12582,814
515,1	12447,957
515,6	12319,1
516	12192,414
516,5	12063,557
516,9	11938,443
517,4	11815,671
517,8	11696,786
518,3	11587,043
518,7	11469,1
519,2	11344,586
519,6	11221,214
520,1	11092,529
520,5	10966,671
521	10842,529
521,4	10713,843
521,9	10592,414
522,3	10480,786
522,8	10365,357
523,2	10256,529
523,7	10147,9
524,1	10032,986
524,6	9917,814
525	9811,529
525,5	9700,929
525,9	9598,471
526,4	9494,786
526,8	9391,3
527,3	9284,986
527,7	9192,786
528,2	9088,443
528,6	8982,986
529,1	8880,243
529,5	8781,729
530	8679,929
530,4	8582,986
530,9	8478,786
531,3	8380,586
531,8	8288,814
532,2	8190,957
532,6	8099,957
533,1	8004,3
533,5	7912,471
534	7826,329
534,4	7741,071
534,9	7661,214
535,3	7587,957
535,8	7498,1
536,2	7416,871
536,7	7338,414
537,1	7262,786
537,6	7185,529
538	7103,357
538,5	7030,586
538,9	6957,214
539,4	6891,157
539,8	6823,329
540,3	6751,529
540,7	6680,843
541,2	6609,786
541,6	6526,529
542,1	6457,471
542,5	6383,614
543	6316,129
543,4	6243,129
543,9	6176,243
544,3	6119,3
544,8	6051,871
545,2	5987,5
545,7	5927,986
546,1	5862,214
546,5	5804,014
547	5748,557
547,4	5693,729
547,9	5646,757
548,3	5596,986
548,8	5545,729
549,2	5499,614
549,7	5448,443
550,1	5394,929
550,6	5336,614
551	5284,557
551,5	5232,3
551,9	5186,814
552,4	5136,671
552,8	5088,329
553,3	5039,271
553,7	4992,729
554,2	4943,843
554,6	4904,414
555,1	4864,014
555,5	4819,3
555,9	4780,414
556,4	4741,243
556,8	4698,357
557,3	4667,014
557,7	4625,729
558,2	4575,386
558,6	4540,814
559,1	4502,729
559,5	4465,757
560	4429,329
560,4	4390,071
560,9	4352,7
561,3	4315,643
561,8	4275,557
562,2	4238,986
562,7	4202,329
563,1	4181,586
563,6	4144,186
564	4115,043
564,4	4085,5
564,9	4054,471
565,3	4026,871
565,8	3996,643
566,2	3958,271
566,7	3931,329
567,1	3902,386
567,6	3874,186
568	3851,157
568,5	3818,3
568,9	3792,814
569,4	3765,243
569,8	3736,014
570,3	3704,957
570,7	3675,3
571,1	3646,786
571,6	3619,986
572	3594,014
572,5	3565,043
572,9	3539,9
573,4	3513,243
573,8	3494,129
574,3	3465,3
574,7	3438,843
575,2	3411,729
575,6	3390,243
576,1	3363,271
576,5	3341,929
576,9	3314,243
577,4	3290,871
577,8	3266,271
578,3	3245,1
578,7	3219,7
579,2	3198,7
579,6	3170,786
580,1	3147,757
580,5	3127,643
581	3108,786
581,4	3086,871
581,9	3065,586
582,3	3040,329
582,7	3022,786
583,2	3002,271
583,6	2981,329
584,1	2970,586
584,5	2946,443
585	2925,157
585,4	2903,329
585,9	2883,414
586,3	2863,529
586,8	2847,043
587,2	2820,271
587,6	2805,471
588,1	2794,643
588,5	2781,471
589	2768,1
589,4	2751,586
589,9	2731,929
590,3	2712,157
590,8	2692,5
591,2	2670,414
591,7	2653,757
592,1	2634,614
592,5	2618,729
593	2603,957
593,4	2590,271
593,9	2570,986
594,3	2553,214
594,8	2537,7
595,2	2522,329
595,7	2513,614
596,1	2496,129
596,6	2483,443
597	2470,243
597,4	2460,043
597,9	2451,957
598,3	2443,243
598,8	2423,614
599,2	2415,014
599,7	2401,271
600,1	2391,3
600,6	2373,443
601	2360,414
601,4	2346,157
601,9	2333,3
602,3	2315,386
602,8	2301,529
603,2	2287,043
603,7	2278,329
604,1	2258,586
604,6	2244,986
605	2227,814
605,4	2220,843
605,9	2204,443
606,3	2191,814
606,8	2175,443
607,2	2165,9
607,7	2147,071
608,1	2140,5
608,6	2130,329
609	2125,814
609,4	2119,157
609,9	2110,843
610,3	2095,729
610,8	2089,043
611,2	2077,357
611,7	2061,414
612,1	2045,243
612,6	2031,243
613	2018,871
613,4	2013,043
613,9	1996,757
614,3	1982,557
614,8	1967,786
615,2	1950,786
615,7	1939,329
616,1	1926,1
616,6	1905,614
617	1897,814
617,4	1888,271
617,9	1876,729
618,3	1870,443
618,8	1862,043
619,2	1850,586
619,7	1846,129
620,1	1837,386
620,5	1829,357
621	1820,386
621,4	1808,129
621,9	1791,1
622,3	1784,757
622,8	1774,5
623,2	1760,214
623,6	1742,214
624,1	1734,7
624,5	1730,757
625	1723,243
625,4	1708,929
625,9	1699,471
626,3	1688,214
626,8	1680,557
627,2	1672,129
627,6	1650,157
628,1	1634,129
628,5	1621,671
629	1604,214
629,4	1594,5
629,9	1585,414
630,3	1568,614
630,7	1559,757
631,2	1556,471
631,6	1549,843
632,1	1542,957
632,5	1531,014
633	1518,929
633,4	1509,643
633,8	1502,586
634,3	1488,757
634,7	1480,814
635,2	1468,471
635,6	1456,586
636,1	1446,3
636,5	1433,814
636,9	1422,214
637,4	1415,071
637,8	1395,5
638,3	1382,929
638,7	1376,729
639,2	1363,3
639,6	1356,186
640	1343,357
640,5	1331,157
640,9	1328,243
641,4	1326,014
641,8	1322,157
642,2	1320,1
642,7	1316,729
643,1	1319,3
643,6	1312,443
644	1307,214
644,5	1299,957
644,9	1290,414
645,3	1283,357
645,8	1270,586
646,2	1261,7
646,7	1256,7
647,1	1242,443
647,6	1233,471
648	1229,9
648,4	1217,071
648,9	1213,414
649,3	1201,786
649,8	1196,071
650,2	1197,557
650,6	1190,757
651,1	1177,7
651,5	1177,5
652	1164,814
652,4	1157,471
652,9	1149,3
653,3	1138,329
653,7	1129,786
654,2	1119,729
654,6	1107,843
655,1	1102,3
655,5	1100,986
655,9	1087,1
656,4	1080,986
656,8	1074,729
657,3	1072,1
657,7	1066,7
658,2	1058,614
658,6	1045,871
659	1041,014
659,5	1029,814
659,9	1024,529
660,4	1019,7
660,8	1011,1
661,2	1002,471
661,7	998,414
662,1	995,5
662,6	988,814
663	980,9
663,4	973,214
663,9	965,643
664,3	959,1
664,8	952,129
665,2	943,586
665,6	937,214
666,1	931,671
666,5	920,614
667	916,5
667,4	909,3
667,9	898,871
668,3	889,471
668,7	884,186
669,2	882,671
669,6	878,043
670,1	870,871
670,5	869,957
670,9	862,471
671,4	857,071
671,8	851,843
672,3	843,071
672,7	835,5
673,1	824,929
673,6	813,843
674	814,471
674,5	807,1
674,9	795,214
675,3	787,214
675,8	786,814
676,2	788,357
676,7	783,357
677,1	778,014
677,5	779,243
678	781,1
678,4	780,3
678,9	767,3
679,3	755,843
679,7	753,757
680,2	738,9
680,6	728,129
681,1	721,443
681,5	713,271
681,9	715,9
682,4	715,671
682,8	714,929
683,3	717,929
683,7	714,014
684,1	708,471
684,6	701,214
685	689,929
685,5	685,386
685,9	671,671
686,3	662,214
686,8	657,929
687,2	654,643
687,7	646,5
688,1	644,871
688,5	635,357
689	633,157
689,4	630,214
689,9	625,786
690,3	618,786
690,7	617,986
691,2	616,471
691,6	618,329
692	618,271
692,5	614,071
692,9	612,386
693,4	607,814
693,8	604,014
694,2	594,814
694,7	588,529
695,1	579,357
695,6	576,586
696	568,529
696,4	565,386
696,9	554,471
697,3	547,129
697,8	539,557
698,2	537,871
698,6	534,557
699,1	531,871
699,5	531,357
699,9	532,843
700,4	529,243
700,8	526,471
701,3	528,443
701,7	522,929
702,1	522,986
702,6	517,357
703	515,129
703,5	511,957
703,9	506,814
704,3	499,129
704,8	493,986
705,2	486,329
705,6	481,614
706,1	474,671
706,5	473,471
707	472,529
707,4	471,729
707,8	469,271
708,3	465,757
708,7	459,9
709,2	459,557
709,6	459,243
710	463,443
710,5	452,043
710,9	448,929
711,3	446,957
711,8	450,671
712,2	447,757
712,7	441,986
713,1	435,5
713,5	436,186
714	437,1
714,4	428,3
714,8	421,929
715,3	412,757
715,7	410,586
716,2	400,643
716,6	401,814
717	394,271
717,5	393,957
717,9	395,3
718,3	394,929
718,8	391,014
719,2	390,186
719,7	385,129
720,1	386,5
720,5	389,443
721	382,786
721,4	383,186
721,8	382,157
722,3	377,357
722,7	376,071
723,2	365,614
723,6	353,957
724	347,986
724,5	340,243
724,9	335,586
725,3	336,643
725,8	329,357
726,2	330,071
726,7	332,329
727,1	333,814
727,5	334,643
728	328,586
728,4	324,7
728,8	324,757
729,3	323,471
729,7	317,986
730,1	313,557
730,6	313,471
731	313,1
731,5	313,929
731,9	305,757
732,3	307,129
732,8	309,871
733,2	307,986
733,6	303,957
734,1	302,843
734,5	300,557
734,9	306,1
735,4	301,843
735,8	296,529
736,3	296,929
736,7	294,186
737,1	293,043
737,6	288,643
738	286,7
738,4	285,129
738,9	286,271
739,3	283,329
739,7	282,243
740,2	277,529
740,6	282,529
741,1	286,5
741,5	279,843
741,9	278,614
742,4	276,814
742,8	277,014
743,2	279,557
743,7	269,243
744,1	258,014
744,5	256,729
745	250,214
745,4	244,1
745,8	241,214
746,3	237,814
746,7	237,1
747,2	238,5
747,6	244,1
748	248,757
748,5	251,214
748,9	248,871
749,3	246,243
749,8	245,843
750,2	243,157
750,6	234,871
751,1	232,271
751,5	228,957
751,9	229,586
752,4	230,586
752,8	231,443
753,3	230,529
753,7	234,671
754,1	228,7
754,6	223,786
755	219,586
755,4	216,071
755,9	213,929
756,3	210,7
756,7	204,071
757,2	204,243
757,6	206,843
758	206,157
758,5	206,014
758,9	203,243
759,3	204,814
759,8	201,671
760,2	202,157
760,6	199,643
761,1	198,014
761,5	196,1
761,9	193,757
762,4	188,471
762,8	192,3
763,3	188,557
763,7	188,3
764,1	186,843
764,6	186,614
765	188,5
765,4	189,243
765,9	189,443
766,3	190,729
766,7	186,9
767,2	182,929
767,6	183,043
768	178,557
768,5	182,786
768,9	181,014
769,3	178,271
769,8	180,271
770,2	181,757
770,6	178,586
771,1	183,614
771,5	179,9
771,9	177,7
772,4	175,329
772,8	171,1
773,2	172,843
773,7	170,871
774,1	166,843
774,5	158,5
775	158,643
775,4	161,186
775,8	161,157
776,3	158,043
776,7	160,529
777,1	161,1
777,6	167,1
778	167,586
778,4	160,929
778,9	164,929
779,3	166,614
779,7	165,5
780,2	159,014
780,6	153,071
781	152,1
781,5	148,871
781,9	145,329
782,3	138,9
782,8	134,414
783,2	136,243
783,6	139,186
784,1	134,671
784,5	138,529
784,9	139,1
785,4	144,157
785,8	143,786
786,2	143,071
786,7	142,929
787,1	144,3
787,5	143,757
788	137,043
788,4	133,043
788,8	133,243
789,3	129,071
789,7	128,957
790,1	127,7
790,6	132,586
791	132,186
791,4	135,471
791,9	132,186
792,3	134,471
792,7	134,957
793,2	130,014
793,6	125,3
794	131,1
794,5	125,614
794,9	130,871
795,3	129,786
795,8	124,643
796,2	128,814
796,6	129,843
797,1	126,529
797,5	123,986
797,9	118,186
798,4	115,843
798,8	115,643
799,2	111,357
799,7	112,529
800,1	109,014
800,5	110,071
801	114,3
801,4	112,643
801,8	110,157
802,2	108,414
802,7	104,043
803,1	103,614
803,5	105,357
804	95,386
804,4	98,986
804,8	98,957
805,3	98,186
805,7	97,471
806,1	96,271
806,6	95,614
807	99,043
807,4	93,871
807,9	88,643
808,3	91,329
808,7	87,757
809,2	88,329
809,6	88,071
810	89,9
810,4	90,786
810,9	95,671
811,3	95,071
811,7	98,471
812,2	101,957
812,6	100,386
813	98,043
813,5	100,243
813,9	100,471
814,3	99,271
814,8	98,3
815,2	93,214
815,6	92,729
816,1	94,814
816,5	90,214
816,9	88,871
817,3	89,3
817,8	90,929
818,2	91,814
818,6	83,214
819,1	81,671
819,5	80,129
819,9	81,414
820,4	79,9
820,8	75,414
821,2	70,443
821,7	80,757
822,1	82,929
822,5	89,157
822,9	83,386
823,4	84,014
823,8	86,9
824,2	92,643
824,7	84,357
825,1	74,986
825,5	65,186
826	63,214
826,4	59,671
826,8	54,9
827,3	54,986
827,7	53,243
828,1	57,957
828,5	63,757
829	61,357
829,4	60,9
829,8	58,443
830,3	53,214
830,7	53,986
831,1	53,557
831,6	52,043
832	55,586
832,4	55,7
832,8	57,529
833,3	61,5
833,7	61,729
834,1	59,7
834,6	55,871
835	56,3
835,4	60,271
835,8	54,643
836,3	50,043
836,7	52,471
837,1	51,957
837,6	57,043
838	57,1
838,4	52,814
838,9	57,386
839,3	58,243
839,7	60,129
840,1	57,271
840,6	53,243
841	50,814
841,4	51,9
841,9	53,871
842,3	55,071
842,7	54,843
843,1	56,557
843,6	61,071
844	65,986
844,4	68,443
844,9	69,271
845,3	66,814
845,7	63,557
846,2	61,7
846,6	55,9
847	53,586
847,4	50,757
847,9	49,271
848,3	47,043
848,7	48,243
849,2	50,871
849,6	48,643
850	51,214
850,4	49,129
850,9	45,129
851,3	46,957
851,7	44,643
852,2	40,814
852,6	48,986
853	47,729
853,4	47,014
853,9	47,586
854,3	47,957
854,7	50,414
855,2	54,157
855,6	50,7
856	47,729
856,4	46,443
856,9	44,1
857,3	41,129
857,7	39,043
858,2	38,214
858,6	34,643
859	33,557
859,4	33,9
859,9	36,3
860,3	34,1
860,7	35,386
861,1	33,814
861,6	35,243
862	32,157
862,4	29,814
862,9	28,357
863,3	32,929
863,7	30,614
864,1	32,614
864,6	31,1
865	34,5
865,4	38,214
865,9	40,443
866,3	35,957
866,7	38,443
867,1	31,271
867,6	31,586
868	29,957
868,4	27,443
868,8	26,214
869,3	30,7
869,7	30,986
870,1	33,614
870,6	28,814
871	-46,7
871,4	-42,871
871,8	-47,729
872,3	-50,1
872,7	-51,1
873,1	-45,843
873,5	-41,5
874	30,757
874,4	27,214
874,8	30,671
875,3	31,557
875,7	28,1
876,1	26,243
876,5	25,786
877	27,3
877,4	24,329
877,8	27,843
878,2	28,871
878,7	29,586
879,1	29,271
879,5	33,786
879,9	36,3
880,4	35,329
880,8	29,071
881,2	27,014
881,7	26,9
882,1	25,186
882,5	20,071
882,9	18,471
883,4	22,071
883,8	27,586
884,2	25,329
884,6	25,186
885,1	26,986
885,5	25,843
885,9	28,443
886,3	27,471
886,8	24,529
887,2	23,157
887,6	21,5
888	20,643
888,5	21,071
888,9	16,386
889,3	12,9
889,8	12,357
890,2	16,071
890,6	13,957
891	11,729
891,5	10,9
891,9	14,1
892,3	18,7
892,7	17,186
893,2	18,271
893,6	20,757
894	22,071
894,4	21,443
894,9	23,557
895,3	21,157
895,7	24,671
896,1	26,129
896,6	26,043
897	27,614
897,4	33,1
897,8	30,386
898,3	32,929
898,7	26,7
899,1	24,643
899,5	22,386
900	18,9
900,4	16,586
900,8	14,786
901,2	10,3
901,7	15,5
902,1	13,7
902,5	16,357
902,9	15,929
903,4	14,671
903,8	13,671
904,2	14,614
904,6	12,586
905,1	13,357
905,5	14,557
905,9	14,757
906,3	14,986
906,8	18,471
907,2	19,7
907,6	21,557
908	20,443
908,5	18,271
908,9	16,157
909,3	13,729
909,7	12,5
910,2	13,557
910,6	13,843
911	7,386
911,4	7,5
911,9	6,957
912,3	7,586
912,7	10,443
913,1	8,986
913,6	6,643
914	12,871
914,4	5,014
914,8	5,1
915,3	-0,014
915,7	-5,814
916,1	-4,014
916,5	-2,014
916,9	-0,671
917,4	6,814
917,8	9,214
918,2	10,957
918,6	8,614
919,1	6,843
919,5	5,014
919,9	1,243
920,3	-3,557
920,8	-4,071
921,2	1,471
921,6	4,186
922	7,129
922,5	8,329
922,9	11,271
923,3	11,243
923,7	12,757
924,2	7,243
924,6	8,843
925	7,529
925,4	6,214
925,8	3,929
926,3	9,986
926,7	8,557
927,1	13,557
927,5	11,214
928	6,329
928,4	7,386
928,8	12,786
929,2	8,814
929,7	10,871
930,1	8,871
930,5	10,614
930,9	16,529
931,3	14,757
931,8	10,043
932,2	10,043
932,6	6,043
933	3,557
933,5	6,329
933,9	1,557
934,3	2,243
934,7	4,014
935,2	9,557
935,6	11,043
936	14,3
936,4	8,843
936,8	12,871
937,3	9,129
937,7	10,957
938,1	9,643
938,5	6,014
939	3,986
939,4	8,014
939,8	6,929
940,2	10,3
940,6	8,957
941,1	6,471
941,5	12,557
941,9	11,786
942,3	8,671
942,8	7,7
943,2	7,614
943,6	4,5
944	2,414
944,4	1,757
944,9	-2,129
945,3	-0,871
945,7	-5,129
946,1	-9,9
946,6	-9,357
947	-8,271
947,4	-6,471
947,8	-0,014
948,2	-3,757
948,7	-2,529
949,1	1,614
949,5	6,357
949,9	7,071
950,3	4,3
950,8	2,786
951,2	3,529
951,6	1,957
952	4,843
952,5	-3,329
952,9	-3,9
953,3	-3,843
953,7	-5,614
954,1	-0,586
954,6	5,471
955	5,614
955,4	9,071
955,8	13,214
956,2	12,357
956,7	14,786
957,1	12,9
957,5	13,814
957,9	10,671
958,3	11,586
958,8	9,529
959,2	11,243
959,6	14,814
960	12,9
960,5	14,786
960,9	17,386
961,3	10,814
961,7	6,843
962,1	6,3
962,6	2,929
963	4,1
963,4	-3,3
963,8	-5,929
964,2	-0,471
964,7	4,129
965,1	4,957
965,5	2,614
965,9	3,186
966,3	6,671
966,8	6,414
967,2	9,271
967,6	5,814
968	0,071
968,4	0,7
968,9	1,643
969,3	4,843
969,7	0,043
970,1	-2,9
970,5	-2,643
971	2,214
971,4	0,214
971,8	0,414
972,2	-4,129
972,6	-2,386
973,1	-0,357
973,5	1,557
973,9	2,757
974,3	5,014
974,7	3,786
975,2	5,757
975,6	7,643
976	10,7
976,4	8,414
976,8	7,129
977,3	7,843
977,7	4,243
978,1	5,786
978,5	5,214
978,9	-1,3
979,4	-1,414
979,8	-2,214
980,2	-5,129
980,6	-5,9
981	-11,529
981,5	-11,071
981,9	-9,071
982,3	-7,814
982,7	-4,357
983,1	-5,786
983,6	-1,471
984	2,557
984,4	7,357
984,8	7,329
985,2	6,043
985,6	3,043
986,1	9,643
986,5	11,843
986,9	4,7
987,3	4,129
987,7	3,3
988,2	4,729
988,6	4,443
989	0,386
989,4	-2,529
989,8	4,329
990,3	2,671
990,7	3,471
991,1	0,357
991,5	0,443
991,9	5,243
992,3	10,5
992,8	8,986
993,2	8,814
993,6	11,357
994	16,957
994,4	16,443
994,9	11,157
995,3	4,443
995,7	3,529
996,1	1,5
996,5	-2,186
996,9	-8,586
997,4	-2,786
997,8	-6,3
998,2	-5,814
998,6	-9,329
999	-6,386
999,5	-7,357
999,9	-3,529
1000,3	-11,814
1000,7	-7,1
1001,1	-5,157
1001,5	-1,043
1002	1,471
1002,4	2,757
1002,8	2,9
1003,2	7,7
1003,6	10,3
1004	11,671
1004,5	11,957
1004,9	7,386
1005,3	2,3
1005,7	1,986
1006,1	5,014
1006,6	2,7
1007	1,443
1007,4	0,243
1007,8	1,186
1008,2	2,557
1008,6	1,1
1009,1	-7,214
1009,5	-2,843
1009,9	-5,9
1010,3	-2,243
1010,7	-2,129
1011,1	4,843
1011,6	6,329
1012	10,129
1012,4	4,986
1012,8	5,443
1013,2	4,586
1013,6	4,5
1014,1	-0,671
1014,5	-1,586
1014,9	-2,871
1015,3	-3,557
1015,7	-1,014
1016,1	-5,5
1016,6	-1,814
1017	3,271
1017,4	3,414
1017,8	5,729
1018,2	11,329
1018,6	6,071
1019,1	11,186
1019,5	7,986
1019,9	3,214
1020,3	4,7
1020,7	3,271
1021,1	-2,129
1021,6	3,329
1022	4,443
1022,4	-0,443
1022,8	0,357
1023,2	0,414
1023,6	-1,129
1024,1	6,186
1024,5	4,729
1024,9	-1,814
1025,3	2,929
1025,7	1,614
1026,1	1,843
1026,6	0,271
1027	-5,614
1027,4	-0,243
1027,8	5,014
1028,2	3,414
1028,6	7,986
1029	6,271
1029,5	14,871
1029,9	15,843
1030,3	7,786
1030,7	4,586
1031,1	8,929
1031,5	6,043
1032	6,614
1032,4	2,1
1032,8	4,271
1033,2	8,157
1033,6	8,586
1034	3,1
1034,4	3,957
1034,9	6,557
1035,3	2,614
1035,7	4,3
1036,1	4,529
1036,5	2,043
1036,9	5,243
1037,4	4,443
1037,8	0,329
1038,2	2,3
1038,6	-1,214
1039	0,986
1039,4	8,471
1039,8	4,271
1040,3	7,814
1040,7	8,357
1041,1	10,071
1041,5	7,671
1041,9	3,643
1042,3	-1,386
1042,7	-2,157
1043,2	-3,9
1043,6	-7,186
1044	-6,843
1044,4	-2,843
1044,8	-2,243
1045,2	0,186
1045,6	6,957
1046,1	3,671
1046,5	6,529
1046,9	2,414
1047,3	-2,814
1047,7	-5,7
1048,1	-10,671
1048,5	-12,014
1049	-4,643
1049,4	-1,414
1049,8	3,214
1050,2	8,357
1050,6	14,814
1051	16,271
1051,4	14,386
1051,9	8,471
1052,3	15,729
1052,7	11,643
1053,1	8,814
1053,5	8,5
1053,9	10,929
1054,3	5,129
1054,8	13,014
1055,2	8,329
1055,6	12,7
1056	12,5
1056,4	8,214
1056,8	2,929
1057,2	6,929
1057,6	-2,843
1058,1	-7,214
1058,5	-10,643
1058,9	-13,329
1059,3	-11,9
1059,7	-6,014
1060,1	-1,843
1060,5	3,014
1061	4,329
1061,4	3,129
1061,8	6,471
1062,2	2,643
1062,6	3,814
1063	1,843
1063,4	0,157
1063,8	1,643
1064,3	2,1
1064,7	1,129
1065,1	6,986
1065,5	4,814
1065,9	5,357
1066,3	2,243
1066,7	-5,157
1067,1	-8,043
1067,6	-4,3
1068	-8,9
1068,4	-7,871
1068,8	-4,5
1069,2	-3,929
1069,6	-0,814
1070	6,957
1070,4	5,843
1070,9	7,271
1071,3	6,586
1071,7	1,157
1072,1	2,786
1072,5	1,329
1072,9	-0,186
1073,3	0,386
1073,7	-3,071
1074,2	-2,729
1074,6	0,386
1075	1,157
1075,4	3,1
1075,8	4,329
1076,2	4,5
1076,6	8,871
1077	7,957
1077,5	9,129
1077,9	7,7
1078,3	5,557
1078,7	2,3
1079,1	1,043
1079,5	1,1
1079,9	1,043
1080,3	-1,043
1080,7	-0,1
1081,2	6,357
1081,6	5,729
1082	3,786
1082,4	7,986
1082,8	9,986
1083,2	8,786
1083,6	9,414
1084	6,243
1084,5	8,471
1084,9	6,186
1085,3	-1,557
1085,7	-0,729
1086,1	-2,186
1086,5	2,357
1086,9	6,414
1087,3	6,957
1087,7	9,586
1088,2	11,157
1088,6	7,586
1089	13,414
1089,4	6,986
1089,8	8,5
1090,2	8,271
1090,6	11,843
1091	12,7
1091,4	16,186
1091,9	12,014
1092,3	9,671
1092,7	2,929
1093,1	3,071
1093,5	0,5
1093,9	1,643
1094,3	1,729
1094,7	-0,9
1095,1	1,757
1095,5	5,357
1096	2,843
1096,4	3,643
1096,8	2,871
1097,2	-0,986
1097,6	3,843
1098	5,243
1098,4	6,471
1098,8	9,243
1099,2	14,129
1099,6	14,471
1100,1	16,529
1100,5	12,129
1100,9	15,129
1101,3	11,386
1101,7	10,243
1102,1	4,214
1102,5	3,786
1102,9	1,929
1103,3	4,071
1103,7	3,214
1104,2	5,386
1104,6	5,1
1105	5,071
1105,4	8,643
1105,8	8,357
1106,2	8,071
1106,6	5,5
1107	3,329
1107,4	3,467
1107,8	3,74
1108,3	-0,95
