Data from Subt2_042.txt Node
Date: Sat Aug 26 16:25:14 MSK 2023
User: vat
Spectrometer: MAYP114033
Trigger mode: 0
Integration Time (sec): 1,000000E0
Scans to average: 5
Electric dark correction enabled: true
Nonlinearity correction enabled: false
Boxcar width: 3
XAxis mode: Wavelengths
Number of Pixels in Spectrum: 2068
>>>>>Begin Spectral Data<<<<<
199,4	0,183
199,9	-0,967
200,4	-2,567
200,8	-2,424
201,3	-0,51
201,8	0,776
202,2	0,233
202,7	2,976
203,2	4,262
203,6	7,148
204,1	7,776
204,6	9,433
205	10,919
205,5	10,005
206	8,519
206,4	9,119
206,9	6,633
207,4	9,433
207,8	3,662
208,3	0,833
208,8	0,262
209,2	0,005
209,7	1,062
210,2	5,433
210,6	3,862
211,1	1,405
211,5	-1,367
212	-1,71
212,5	-5,081
212,9	-5,052
213,4	-8,424
213,9	-10,167
214,3	-3,195
214,8	1,948
215,3	5,033
215,7	3,462
216,2	4,119
216,7	3,119
217,1	3,49
217,6	3,605
218,1	-0,052
218,5	4,519
219	13,919
219,5	15,405
219,9	16,776
220,4	14,69
220,9	12,605
221,3	13,69
221,8	3,919
222,3	-0,395
222,7	-6,767
223,2	-3,795
223,6	-3,881
224,1	-2,881
224,6	-4,795
225	1,233
225,5	6,262
226	6,033
226,4	6,09
226,9	8,69
227,4	9,662
227,8	13,233
228,3	13,576
228,8	6,776
229,2	13,262
229,7	12,348
230,2	15,862
230,6	12,462
231,1	14,776
231,5	15,062
232	20,348
232,5	19,776
232,9	16,662
233,4	13,233
233,9	17,062
234,3	14,548
234,8	12,833
235,3	11,433
235,7	11,348
236,2	11,776
236,7	11,548
237,1	8,233
237,6	8,433
238,1	5,29
238,5	1,405
239	0,776
239,4	2,176
239,9	3,633
240,4	6,748
240,8	7,205
241,3	8,605
241,8	8,262
242,2	3,89
242,7	4,29
243,2	5,919
243,6	4,09
244,1	0,833
244,6	-1,595
245	1,633
245,5	-0,852
245,9	-2,024
246,4	-7,138
246,9	-8,652
247,3	-7,252
247,8	-6,538
248,3	-5,624
248,7	3,833
249,2	-0,652
249,7	-0,424
250,1	1,005
250,6	0,319
251	3,29
251,5	-1,424
252	-0,624
252,4	5,005
252,9	6,519
253,4	6,033
253,8	6,462
254,3	7,176
254,8	11,576
255,2	5,205
255,7	4,548
256,1	1,862
256,6	4,719
257,1	7,69
257,5	7,719
258	7,233
258,5	5,805
258,9	4,69
259,4	6,49
259,9	4,662
260,3	-0,11
260,8	2,233
261,2	2,948
261,7	7,948
262,2	10,462
262,6	9,548
263,1	8,49
263,6	10,376
264	8,033
264,5	8,662
264,9	4,205
265,4	3,005
265,9	7,662
266,3	7,976
266,8	7,748
267,3	4,776
267,7	0,262
268,2	0,948
268,7	0,433
269,1	-1,481
269,6	-1,338
270	2,376
270,5	8,348
271	11,748
271,4	10,405
271,9	7,69
272,4	5,405
272,8	3,119
273,3	-0,881
273,7	-7,91
274,2	-9,31
274,7	-6,567
275,1	-3,281
275,6	-1,424
276,1	3,462
276,5	6,576
277	10,748
277,4	13,519
277,9	9,519
278,4	10,376
278,8	12,748
279,3	8,062
279,8	7,833
280,2	1,548
280,7	-1,538
281,1	2,805
281,6	2,005
282,1	-0,881
282,5	2,233
283	1,862
283,4	7,119
283,9	7,605
284,4	4,062
284,8	2,29
285,3	0,262
285,8	-2,11
286,2	-7,881
286,7	-13,338
287,1	-13,224
287,6	-6,881
288,1	-6,167
288,5	-2,481
289	-2,024
289,5	2,405
289,9	6,519
290,4	3,833
290,8	8,005
291,3	8,433
291,8	7,376
292,2	10,033
292,7	12,176
293,1	12,176
293,6	12,005
294,1	1,233
294,5	4,205
295	2,49
295,5	4,605
295,9	-0,395
296,4	1,976
296,8	0,862
297,3	6,062
297,8	3,062
298,2	5,919
298,7	3,748
299,1	8,148
299,6	4,348
300,1	8,09
300,5	10,148
301	11,233
301,5	10,119
301,9	8,176
302,4	7,433
302,8	12,005
303,3	12,69
303,8	6,89
304,2	4,405
304,7	3,29
305,1	2,862
305,6	0,576
306,1	-2,167
306,5	-2,195
307	-2,052
307,4	-1,995
307,9	-0,367
308,4	-0,824
308,8	5,119
309,3	3,862
309,8	6,576
310,2	3,89
310,7	9,233
311,1	8,062
311,6	9,119
312,1	9,548
312,5	12,348
313	7,862
313,4	12,205
313,9	15,262
314,4	12,576
314,8	12,862
315,3	8,005
315,7	3,919
316,2	4,69
316,7	5,748
317,1	-2,624
317,6	-4,538
318	-6,795
318,5	-4,024
319	1,176
319,4	4,062
319,9	5,605
320,3	8,862
320,8	14,69
321,3	14,89
321,7	11,862
322,2	12,662
322,6	7,748
323,1	6,376
323,6	5,519
324	4,719
324,5	5,605
324,9	6,49
325,4	7,233
325,9	13,176
326,3	12,919
326,8	13,462
327,2	14,976
327,7	16,89
328,2	17,833
328,6	14,233
329,1	8,119
329,5	8,062
330	7,319
330,5	6,262
330,9	3,748
331,4	-2,824
331,8	2,233
332,3	5,976
332,8	4,576
333,2	5,348
333,7	7,519
334,1	13,319
334,6	21,49
335,1	22,548
335,5	22,548
336	20,148
336,4	17,148
336,9	16,633
337,4	11,605
337,8	10,405
338,3	3,976
338,7	2,662
339,2	6,119
339,7	10,005
340,1	6,719
340,6	5,833
341	9,005
341,5	13,405
342	15,29
342,4	14,633
342,9	9,205
343,3	12,119
343,8	15,662
344,2	14,576
344,7	11,776
345,2	8,319
345,6	10,119
346,1	11,69
346,5	10,005
347	9,433
347,5	2,719
347,9	2,033
348,4	4,719
348,8	3,405
349,3	6,662
349,8	8,49
350,2	8,719
350,7	14,233
351,1	16,319
351,6	19,605
352	27,633
352,5	36,062
353	43,948
353,4	54,462
353,9	63,805
354,3	78,833
354,8	90,233
355,3	106,176
355,7	121,005
356,2	144,462
356,6	171,033
357,1	202,662
357,5	233,776
358	281,919
358,5	330,776
358,9	382,49
359,4	439,405
359,8	501,319
360,3	575,29
360,8	660,433
361,2	749,576
361,7	843,976
362,1	961,005
362,6	1087,176
363	1226,862
363,5	1370,662
364	1519,948
364,4	1669,119
364,9	1821,862
365,3	1968,205
365,8	2110,348
366,3	2238,148
366,7	2355,262
367,2	2451,976
367,6	2542,576
368,1	2612,976
368,5	2655,205
369	2672,062
369,5	2675,462
369,9	2656,919
370,4	2620,719
370,8	2555,033
371,3	2475,176
371,7	2384,805
372,2	2290,719
372,7	2177,433
373,1	2067,862
373,6	1949,662
374	1828,262
374,5	1710,062
374,9	1594,49
375,4	1480,776
375,9	1374,519
376,3	1262,148
376,8	1164,233
377,2	1077,605
377,7	985,89
378,2	904,776
378,6	824,376
379,1	752,519
379,5	691,719
380	638,576
380,4	584,176
380,9	543,319
381,4	501,662
381,8	466,033
382,3	430,776
382,7	394,005
383,2	357,976
383,6	331,319
384,1	309,576
384,6	286,205
385	268,462
385,5	247,348
385,9	233,748
386,4	218,033
386,8	206,862
387,3	186,833
387,7	175,376
388,2	159,948
388,7	150,862
389,1	139,805
389,6	132,005
390	117,833
390,5	113,576
390,9	112,348
391,4	108,633
391,9	105,405
392,3	99,519
392,8	94,548
393,2	88,033
393,7	83,69
394,1	74,776
394,6	69,976
395,1	63,148
395,5	61,519
396	60,576
396,4	59,348
396,9	57,405
397,3	52,976
397,8	50,09
398,2	48,576
398,7	43,176
399,2	37,119
399,6	40,005
400,1	35,405
400,5	37,776
401	37,033
401,4	38,69
401,9	43,29
402,4	46,119
402,8	43,862
403,3	46,29
403,7	49,062
404,2	49,833
404,6	48,862
405,1	43,548
405,5	40,062
406	40,833
406,5	37,376
406,9	33,69
407,4	32,49
407,8	35,09
408,3	39,605
408,7	51,576
409,2	52,348
409,6	58,833
410,1	66,033
410,6	66,519
411	71,633
411,5	74,719
411,9	71,776
412,4	78,205
412,8	84,462
413,3	85,29
413,7	92,49
414,2	100,948
414,7	109,976
415,1	113,919
415,6	124,548
416	131,433
416,5	137,576
416,9	148,062
417,4	152,833
417,8	161,319
418,3	177,405
418,8	172,776
419,2	180,805
419,7	195,148
420,1	204,719
420,6	212,29
421	219,348
421,5	224,033
421,9	243,062
422,4	251,633
422,8	256,49
423,3	263,205
423,8	278,405
424,2	292,462
424,7	308,205
425,1	322,633
425,6	341,662
426	358,405
426,5	375,262
426,9	386,49
427,4	400,49
427,9	411,605
428,3	430,348
428,8	445,862
429,2	462,719
429,7	480,176
430,1	502,805
430,6	522,89
431	547,033
431,5	570,633
431,9	596,29
432,4	628,29
432,8	667,805
433,3	698,69
433,8	735,005
434,2	771,776
434,7	805,29
435,1	841,833
435,6	888,433
436	923,605
436,5	971,776
436,9	1016,805
437,4	1070,69
437,8	1119,948
438,3	1174,033
438,8	1214,548
439,2	1271,776
439,7	1325,119
440,1	1380,976
440,6	1441,605
441	1504,49
441,5	1564,062
441,9	1634,233
442,4	1706,319
442,8	1782,719
443,3	1861,576
443,7	1928,462
444,2	2009,09
444,7	2092,262
445,1	2175,062
445,6	2257,148
446	2343,148
446,5	2430,519
446,9	2529,348
447,4	2624,033
447,8	2724,376
448,3	2825,005
448,7	2927,376
449,2	3027,605
449,6	3132,405
450,1	3242,89
450,6	3350,919
451	3457,69
451,5	3571,49
451,9	3690,119
452,4	3811,119
452,8	3938,833
453,3	4052,233
453,7	4176,062
454,2	4303,89
454,6	4430,49
455,1	4551,49
455,5	4681,548
456	4811,233
456,4	4955,605
456,9	5089,976
457,3	5233,062
457,8	5381,89
458,3	5532,805
458,7	5682,033
459,2	5828,69
459,6	5972,49
460,1	6124,633
460,5	6274,548
461	6415,805
461,4	6565,119
461,9	6706,833
462,3	6855,633
462,8	7000,29
463,2	7153,148
463,7	7299,605
464,1	7456,205
464,6	7601,49
465	7755,49
465,5	7913,776
466	8067,49
466,4	8218,519
466,9	8366,605
467,3	8511,005
467,8	8662,605
468,2	8814,748
468,7	8964,49
469,1	9113,262
469,6	9252,462
470	9405,405
470,5	9554,405
470,9	9701,405
471,4	9846,433
471,8	9977,262
472,3	10103,148
472,7	10245,948
473,2	10368,262
473,6	10497,09
474,1	10614,205
474,5	10724,062
475	10841,376
475,4	10959,776
475,9	11077,119
476,4	11192,433
476,8	11298,062
477,3	11401,462
477,7	11507,462
478,2	11605,319
478,6	11707,519
479,1	11792,748
479,5	11876,49
480	11962,148
480,4	12053,633
480,9	12131,062
481,3	12206,49
481,8	12276,748
482,2	12348,576
482,7	12416,548
483,1	12468,919
483,6	12510,176
484	12570,805
484,5	12621,205
484,9	12670,662
485,4	12702,09
485,8	12730,89
486,3	12773,519
486,7	12806,548
487,2	12828,719
487,6	12843,548
488,1	12853,805
488,5	12877,233
489	12899,776
489,4	12903,348
489,9	12906,89
490,4	12899,233
490,8	12904,205
491,3	12888,833
491,7	12862,005
492,2	12835,633
492,6	12809,719
493,1	12786,262
493,5	12751,89
494	12706,662
494,4	12675,919
494,9	12645,776
495,3	12609,29
495,8	12577,519
496,2	12540,805
496,7	12503,719
497,1	12467,348
497,6	12421,919
498	12371,89
498,5	12318,862
498,9	12252,719
499,4	12201,748
499,8	12143,262
500,3	12079,548
500,7	12020,519
501,2	11953,805
501,6	11892,89
502,1	11829,09
502,5	11753,776
503	11687,148
503,4	11617,319
503,9	11549,548
504,3	11481,633
504,8	11394,348
505,2	11317,633
505,7	11240,348
506,1	11159,262
506,6	11080,09
507	10997,633
507,5	10916,89
507,9	10843,433
508,4	10767,376
508,8	10680,462
509,3	10597,719
509,7	10504,462
510,2	10406,748
510,6	10306,233
511,1	10214,462
511,5	10121,29
512	10029,89
512,4	9930,719
512,9	9837,719
513,3	9755,605
513,8	9668,233
514,2	9575,89
514,7	9483,148
515,1	9382,49
515,6	9296,49
516	9198,033
516,5	9100,033
516,9	9002,89
517,4	8907,805
517,8	8806,148
518,3	8720,976
518,7	8620,005
519,2	8540,89
519,6	8443,805
520,1	8353,519
520,5	8265,433
521	8176,776
521,4	8086,49
521,9	8005,948
522,3	7914,405
522,8	7832,605
523,2	7751,719
523,7	7663,519
524,1	7585,062
524,6	7494,576
525	7405,605
525,5	7323,176
525,9	7237,148
526,4	7149,605
526,8	7064,662
527,3	6980,462
527,7	6908,376
528,2	6821,719
528,6	6742,49
529,1	6663,919
529,5	6583,776
530	6513,719
530,4	6435,09
530,9	6356,119
531,3	6290,29
531,8	6219,633
532,2	6152,148
532,6	6086,348
533,1	6001,605
533,5	5936,176
534	5869,09
534,4	5801,519
534,9	5735,262
535,3	5664,148
535,8	5597,433
536,2	5542,776
536,7	5476,49
537,1	5414,89
537,6	5349,862
538	5284,805
538,5	5225,605
538,9	5163,633
539,4	5115,433
539,8	5052,119
540,3	4991,633
540,7	4937,205
541,2	4880,776
541,6	4831,948
542,1	4784,205
542,5	4722,319
543	4675,662
543,4	4627,233
543,9	4569,776
544,3	4519,148
544,8	4466,833
545,2	4412,519
545,7	4369,89
546,1	4323,69
546,5	4272,633
547	4232,405
547,4	4185,776
547,9	4142,062
548,3	4099,919
548,8	4052,09
549,2	4004,776
549,7	3964,319
550,1	3922,462
550,6	3882,033
551	3845,948
551,5	3805,062
551,9	3772,633
552,4	3736,548
552,8	3699,69
553,3	3662,462
553,7	3626,89
554,2	3588,233
554,6	3551,062
555,1	3509,49
555,5	3477,548
555,9	3441,148
556,4	3408,29
556,8	3373,033
557,3	3334,348
557,7	3307,405
558,2	3272,176
558,6	3241,776
559,1	3208,976
559,5	3182,062
560	3154,49
560,4	3124,29
560,9	3086,89
561,3	3057,233
561,8	3023,976
562,2	2993,748
562,7	2963,233
563,1	2935,776
563,6	2905,633
564	2888,09
564,4	2865,69
564,9	2841,748
565,3	2825,49
565,8	2798,033
566,2	2770,348
566,7	2751,776
567,1	2728,176
567,6	2707,233
568	2682,462
568,5	2664,833
568,9	2638,605
569,4	2620,119
569,8	2597,433
570,3	2575,833
570,7	2548,262
571,1	2530,348
571,6	2502,633
572	2491,605
572,5	2469,776
572,9	2456,748
573,4	2430,633
573,8	2416,033
574,3	2392,748
574,7	2370,519
575,2	2341,405
575,6	2319,776
576,1	2294,662
576,5	2276,976
576,9	2256,519
577,4	2243,319
577,8	2224,605
578,3	2204,833
578,7	2190,605
579,2	2169,919
579,6	2156,319
580,1	2141,833
580,5	2117,233
581	2104,29
581,4	2091,719
581,9	2072,862
582,3	2059,033
582,7	2038,005
583,2	2013,376
583,6	1998,748
584,1	1975,376
584,5	1962,776
585	1948,976
585,4	1932,462
585,9	1920,433
586,3	1914,433
586,8	1903,576
587,2	1892,119
587,6	1874,805
588,1	1860,605
588,5	1846,033
589	1828,405
589,4	1806,462
589,9	1791,69
590,3	1781,29
590,8	1769,548
591,2	1759,319
591,7	1748,633
592,1	1740,119
592,5	1733,662
593	1722,805
593,4	1706,462
593,9	1691,348
594,3	1673,719
594,8	1662,833
595,2	1655,005
595,7	1643,633
596,1	1631,776
596,6	1627,576
597	1622,376
597,4	1613,776
597,9	1600,748
598,3	1584,576
598,8	1571,148
599,2	1558,605
599,7	1543,69
600,1	1531,348
600,6	1520,262
601	1511,319
601,4	1503,776
601,9	1495,948
602,3	1488,605
602,8	1481,919
603,2	1474,49
603,7	1469,005
604,1	1466,233
604,6	1457,548
605	1448,919
605,4	1441,176
605,9	1434,405
606,3	1419,462
606,8	1405,433
607,2	1391,405
607,7	1382,605
608,1	1369,69
608,6	1358,005
609	1344,89
609,4	1339,49
609,9	1334,976
610,3	1322,148
610,8	1314,205
611,2	1306,462
611,7	1296,776
612,1	1283,919
612,6	1277,205
613	1267,976
613,4	1258,433
613,9	1247,519
614,3	1240,433
614,8	1231,776
615,2	1232,205
615,7	1224,462
616,1	1216,005
616,6	1211,462
617	1199,29
617,4	1197,09
617,9	1190,862
618,3	1179,89
618,8	1168,348
619,2	1158,805
619,7	1155,348
620,1	1149,09
620,5	1138,748
621	1130,776
621,4	1123,833
621,9	1114,976
622,3	1116,005
622,8	1099,233
623,2	1091,348
623,6	1080,205
624,1	1076,033
624,5	1064,119
625	1058,005
625,4	1046,89
625,9	1045,548
626,3	1041,605
626,8	1038,89
627,2	1029,548
627,6	1023,548
628,1	1017,519
628,5	1006,862
629	998,805
629,4	989,548
629,9	980,919
630,3	974,262
630,7	974,633
631,2	966,462
631,6	960,948
632,1	957,919
632,5	954,719
633	943,405
633,4	933,805
633,8	922,89
634,3	915,662
634,7	911,605
635,2	905,205
635,6	897,719
636,1	897,262
636,5	891,348
636,9	881,519
637,4	881,033
637,8	866,89
638,3	850,89
638,7	845,09
639,2	837,29
639,6	833,233
640	831,948
640,5	822,748
640,9	824,776
641,4	826,633
641,8	820,405
642,2	820,176
642,7	816,605
643,1	813,405
643,6	808,776
644	808,833
644,5	804,833
644,9	796,319
645,3	786,919
645,8	783,605
646,2	777,376
646,7	769,662
647,1	762,29
647,6	758,376
648	757,519
648,4	756,462
648,9	752,633
649,3	745,29
649,8	744,948
650,2	733,376
650,6	726,576
651,1	724,633
651,5	716,605
652	710,662
652,4	701,662
652,9	694,833
653,3	692,948
653,7	689,719
654,2	681,69
654,6	679,348
655,1	672,319
655,5	671,919
655,9	670,062
656,4	666,205
656,8	659,805
657,3	658,119
657,7	647,233
658,2	642,176
658,6	636,062
659	632,062
659,5	624,49
659,9	622,348
660,4	621,662
660,8	624,69
661,2	620,233
661,7	615,348
662,1	608,348
662,6	604,09
663	597,719
663,4	589,833
663,9	582,062
664,3	578,862
664,8	578,748
665,2	574,89
665,6	573,005
666,1	567,89
666,5	558,548
667	551,89
667,4	548,376
667,9	543,605
668,3	540,519
668,7	535,405
669,2	534,519
669,6	534,09
670,1	536,205
670,5	530,862
670,9	528,405
671,4	528,548
671,8	525,548
672,3	522,662
672,7	516,062
673,1	509,69
673,6	511,09
674	504,776
674,5	498,605
674,9	496,062
675,3	490,405
675,8	488,519
676,2	491,062
676,7	484,776
677,1	484,605
677,5	482,576
678	481,662
678,4	480,462
678,9	482,69
679,3	470,119
679,7	466,805
680,2	466,176
680,6	461,89
681,1	453,89
681,5	447,405
681,9	439,919
682,4	441,005
682,8	435,148
683,3	429,748
683,7	426,376
684,1	425,49
684,6	427,519
685	424,148
685,5	421,233
685,9	423,033
686,3	419,462
686,8	411,319
687,2	412,49
687,7	408,005
688,1	409,548
688,5	406,233
689	400,376
689,4	398,062
689,9	402,719
690,3	397,805
690,7	392,719
691,2	388,348
691,6	386,119
692	382,805
692,5	376,433
692,9	368,719
693,4	368,519
693,8	368,69
694,2	362,576
694,7	361,262
695,1	356,062
695,6	352,89
696	355,519
696,4	349,005
696,9	345,805
697,3	345,033
697,8	338,748
698,2	338,262
698,6	339,919
699,1	329,576
699,5	324,548
699,9	318,605
700,4	315,748
700,8	317,29
701,3	316,519
701,7	309,805
702,1	312,262
702,6	314,205
703	306,633
703,5	305,29
703,9	298,433
704,3	298,805
704,8	302,176
705,2	301,062
705,6	291,719
706,1	301,748
706,5	300,833
707	299,462
707,4	298,462
707,8	295,033
708,3	290,433
708,7	296,09
709,2	289,805
709,6	288,29
710	286,862
710,5	280,49
710,9	275,919
711,3	273,005
711,8	269,605
712,2	267,748
712,7	268,633
713,1	266,805
713,5	263,462
714	265,433
714,4	269,262
714,8	268,748
715,3	268,262
715,7	255,605
716,2	255,29
716,6	258,148
717	253,348
717,5	247,89
717,9	245,519
718,3	242,719
718,8	248,405
719,2	249,033
719,7	246,89
720,1	241,605
720,5	241,948
721	239,49
721,4	240,348
721,8	236,548
722,3	229,205
722,7	223,719
723,2	226,29
723,6	220,776
724	218,119
724,5	210,205
724,9	208,376
725,3	212,376
725,8	210,89
726,2	210,833
726,7	210,833
727,1	206,49
727,5	206,29
728	205,033
728,4	200,833
728,8	198,519
729,3	192,576
729,7	193,148
730,1	191,948
730,6	192,462
731	195,462
731,5	195,033
731,9	199,29
732,3	202,005
732,8	199,976
733,2	199,89
733,6	199,033
734,1	193,662
734,5	187,576
734,9	185,119
735,4	187,005
735,8	183,49
736,3	186,119
736,7	186,69
737,1	188,462
737,6	189,062
738	187,833
738,4	186,233
738,9	188,69
739,3	183,948
739,7	179,748
740,2	175,433
740,6	177,09
741,1	171,69
741,5	168,833
741,9	163,29
742,4	160,062
742,8	164,462
743,2	167,548
743,7	164,49
744,1	162,976
744,5	159,233
745	158,348
745,4	159,49
745,8	155,748
746,3	154,805
746,7	151,833
747,2	155,376
747,6	158,262
748	156,576
748,5	154,976
748,9	150,833
749,3	149,405
749,8	147,976
750,2	145,919
750,6	142,633
751,1	144,319
751,5	142,576
751,9	143,433
752,4	141,062
752,8	141,519
753,3	141,005
753,7	141,09
754,1	144,148
754,6	145,005
755	145,948
755,4	145,405
755,9	148,405
756,3	145,005
756,7	141,405
757,2	138,462
757,6	138,119
758	132,976
758,5	131,348
758,9	124,833
759,3	124,548
759,8	129,69
760,2	131,862
760,6	132,776
761,1	133,719
761,5	130,576
761,9	134,205
762,4	134,405
762,8	133,233
763,3	127,09
763,7	120,89
764,1	119,005
764,6	122,49
765	118,69
765,4	118,119
765,9	110,748
766,3	110,833
766,7	113,033
767,2	112,319
767,6	103,776
768	108,148
768,5	106,976
768,9	100,176
769,3	100,49
769,8	99,262
770,2	102,262
770,6	102,919
771,1	100,033
771,5	97,262
771,9	100,719
772,4	105,376
772,8	106,805
773,2	105,033
773,7	109,062
774,1	108,919
774,5	111,09
775	111,748
775,4	102,576
775,8	104,09
776,3	100,519
776,7	99,89
777,1	101,433
777,6	101,033
778	102,405
778,4	103,576
778,9	98,433
779,3	101,976
779,7	98,89
780,2	94,576
780,6	95,605
781	98,376
781,5	96,376
781,9	94,776
782,3	90,605
782,8	85,062
783,2	82,148
783,6	77,976
784,1	79,805
784,5	82,005
784,9	85,662
785,4	85,205
785,8	87,348
786,2	87,262
786,7	86,49
787,1	78,319
787,5	77,605
788	78,148
788,4	76,776
788,8	77,062
789,3	78,233
789,7	79,262
790,1	82,748
790,6	85,462
791	83,748
791,4	85,633
791,9	88,462
792,3	88,919
792,7	91,748
793,2	88,633
793,6	84,976
794	85,376
794,5	81,29
794,9	85,233
795,3	82,262
795,8	76,462
796,2	76,376
796,6	68,405
797,1	63,548
797,5	65,09
797,9	60,49
798,4	63,062
798,8	62,862
799,2	62,233
799,7	70,348
800,1	70,805
800,5	67,919
801	66,29
801,4	63,748
801,8	64,062
802,2	64,89
802,7	62,69
803,1	60,976
803,5	65,748
804	67,576
804,4	65,148
804,8	69,605
805,3	66,005
805,7	65,862
806,1	71,519
806,6	69,748
807	68,033
807,4	67,948
807,9	65,49
808,3	65,519
808,7	66,09
809,2	61,262
809,6	59,662
810	60,262
810,4	63,49
810,9	59,69
811,3	58,062
811,7	55,605
812,2	59,348
812,6	59,976
813	59,89
813,5	58,576
813,9	57,719
814,3	60,748
814,8	61,805
815,2	56,776
815,6	54,519
816,1	51,319
816,5	48,719
816,9	49,548
817,3	51,69
817,8	52,519
818,2	49,319
818,6	50,29
819,1	48,548
819,5	49,69
819,9	45,919
820,4	44,748
820,8	39,719
821,2	46,405
821,7	45,69
822,1	46,005
822,5	46,176
822,9	52,748
823,4	50,719
823,8	56,376
824,2	51,719
824,7	58,319
825,1	60,233
825,5	64,548
826	63,319
826,4	61,862
826,8	56,262
827,3	61,519
827,7	54,719
828,1	53,605
828,5	48,062
829	42,748
829,4	46,776
829,8	45,919
830,3	42,49
830,7	42,576
831,1	41,148
831,6	41,148
832	42,519
832,4	38,805
832,8	41,319
833,3	36,862
833,7	36,548
834,1	39,176
834,6	35,348
835	36,576
835,4	39,462
835,8	36,319
836,3	38,233
836,7	34,805
837,1	33,633
837,6	33,262
838	31,119
838,4	25,062
838,9	29,405
839,3	30,548
839,7	31,89
840,1	32,29
840,6	33,805
841	35,233
841,4	36,205
841,9	35,205
842,3	36,89
842,7	36,719
843,1	35,376
843,6	38,748
844	38,148
844,4	42,119
844,9	40,719
845,3	37,262
845,7	42,005
846,2	41,948
846,6	39,005
847	37,233
847,4	36,919
847,9	37,89
848,3	39,033
848,7	35,319
849,2	38,176
849,6	37,719
850	38,348
850,4	39,376
850,9	39,633
851,3	36,005
851,7	37,376
852,2	30,662
852,6	31,405
853	37,233
853,4	34,605
853,9	29,605
854,3	30,519
854,7	24,948
855,2	26,148
855,6	25,548
856	15,148
856,4	12,805
856,9	12,176
857,3	12,376
857,7	18,09
858,2	18,319
858,6	22,576
859	22,919
859,4	22,176
859,9	26,948
860,3	29,233
860,7	28,805
861,1	33,062
861,6	30,119
862	34,776
862,4	35,605
862,9	35,376
863,3	33,033
863,7	29,548
864,1	27,376
864,6	24,748
865	23,119
865,4	21,862
865,9	20,919
866,3	22,005
866,7	25,376
867,1	27,348
867,6	29,605
868	33,348
868,4	35,69
868,8	38,376
869,3	40,262
869,7	36,09
870,1	37,033
870,6	32,405
871	19,205
871,4	16,348
871,8	11,748
872,3	10,033
872,7	10,176
873,1	5,69
873,5	11,09
874	24,262
874,4	22,405
874,8	22,948
875,3	20,662
875,7	21,919
876,1	21,176
876,5	19,776
877	16,662
877,4	19,805
877,8	22,948
878,2	23,262
878,7	26,462
879,1	29,605
879,5	28,576
879,9	29,462
880,4	28,233
880,8	28,319
881,2	31,719
881,7	33,29
882,1	29,976
882,5	29,119
882,9	27,119
883,4	29,148
883,8	28,262
884,2	22,462
884,6	20,033
885,1	22,262
885,5	26,005
885,9	28,462
886,3	24,519
886,8	19,833
887,2	22,29
887,6	14,805
888	12,376
888,5	10,348
888,9	11,09
889,3	6,29
889,8	7,29
890,2	3,948
890,6	9,405
891	8,262
891,5	9,148
891,9	9,29
892,3	13,033
892,7	15,633
893,2	19,348
893,6	13,805
894	13,319
894,4	12,033
894,9	9,148
895,3	13,719
895,7	12,89
896,1	13,148
896,6	14,948
897	18,405
897,4	13,719
897,8	14,662
898,3	14,719
898,7	13,062
899,1	15,148
899,5	13,319
900	10,948
900,4	13,948
900,8	14,833
901,2	12,462
901,7	10,148
902,1	7,719
902,5	15,262
902,9	17,119
903,4	18,462
903,8	10,948
904,2	17,69
904,6	19,176
905,1	23,605
905,5	16,405
905,9	15,205
906,3	12,633
906,8	16,519
907,2	10,033
907,6	12,348
908	6,176
908,5	9,519
908,9	7,119
909,3	6,176
909,7	4,148
910,2	0,205
910,6	0,69
911	1,262
911,4	-0,852
911,9	3,748
912,3	5,605
912,7	4,976
913,1	5,09
913,6	4,662
914	4,919
914,4	2,862
914,8	0,433
915,3	-0,481
915,7	0,148
916,1	3,405
916,5	3,29
916,9	1,319
917,4	6,519
917,8	4,262
918,2	4,148
918,6	7,376
919,1	10,833
919,5	13,176
919,9	15,005
920,3	11,948
920,8	15,29
921,2	24,69
921,6	23,262
922	17,376
922,5	12,005
922,9	8,348
923,3	12,833
923,7	7,948
924,2	-4,652
924,6	-2,938
925	-3,681
925,4	-2,338
925,8	-0,738
926,3	-2,652
926,7	3,319
927,1	9,548
927,5	7,976
928	13,348
928,4	12,205
928,8	17,033
929,2	17,605
929,7	11,605
930,1	9,09
930,5	8,005
930,9	8,662
931,3	15,062
931,8	11,262
932,2	8,319
932,6	15,633
933	11,348
933,5	13,348
933,9	10,805
934,3	3,319
934,7	2,948
935,2	6,119
935,6	-0,138
936	2,148
936,4	0,919
936,8	1,433
937,3	4,433
937,7	3,948
938,1	-0,281
938,5	2,319
939	5,49
939,4	6,49
939,8	7,062
940,2	6,519
940,6	7,09
941,1	12,576
941,5	12,519
941,9	12,348
942,3	11,148
942,8	11,062
943,2	10,033
943,6	12,49
944	7,719
944,4	0,919
944,9	-2,91
945,3	-0,824
945,7	-0,567
946,1	0,89
946,6	-0,31
947	0,862
947,4	2,548
947,8	6,49
948,2	4,262
948,7	5,348
949,1	3,09
949,5	1,548
949,9	3,205
950,3	6,062
950,8	4,69
951,2	6,205
951,6	7,233
952	6,776
952,5	5,462
952,9	4,29
953,3	3,319
953,7	4,69
954,1	5,805
954,6	2,462
955	3,233
955,4	2,548
955,8	7,148
956,2	6,319
956,7	6,433
957,1	4,576
957,5	4,033
957,9	4,633
958,3	6,89
958,8	4,748
959,2	10,862
959,6	11,119
960	9,519
960,5	8,719
960,9	9,662
961,3	12,462
961,7	6,319
962,1	2,176
962,6	-0,281
963	3,462
963,4	5,176
963,8	3,633
964,2	-0,71
964,7	4,862
965,1	5,862
965,5	6,005
965,9	4,062
966,3	2,319
966,8	4,89
967,2	7,233
967,6	4,633
968	4,119
968,4	7,262
968,9	14,119
969,3	15,49
969,7	12,605
970,1	12,576
970,5	12,205
971	9,748
971,4	12,69
971,8	7,919
972,2	9,033
972,6	10,948
973,1	14,633
973,5	15,433
973,9	18,433
974,3	9,548
974,7	7,319
975,2	4,262
975,6	-2,624
976	-4,652
976,4	-4,281
976,8	-6,538
977,3	-3,652
977,7	-3,51
978,1	-2,452
978,5	3,719
978,9	-1,052
979,4	-0,795
979,8	-1,252
980,2	-4,11
980,6	-7,167
981	-4,338
981,5	-3,31
981,9	-3,195
982,3	-4,738
982,7	0,69
983,1	9,519
983,6	16,69
984	15,548
984,4	17,89
984,8	20,062
985,2	19,576
985,6	17,605
986,1	10,433
986,5	3,005
986,9	4,662
987,3	-1,367
987,7	2,748
988,2	9,205
988,6	5,062
989	6,348
989,4	9,805
989,8	1,748
990,3	7,376
990,7	0,148
991,1	-7,967
991,5	-4,938
991,9	0,49
992,3	0,862
992,8	5,405
993,2	4,462
993,6	8,519
994	9,576
994,4	8,062
994,9	4,09
995,3	4,119
995,7	1,376
996,1	-4,281
996,5	-5,738
996,9	-5,252
997,4	-4,024
997,8	-5,367
998,2	-3,11
998,6	5,719
999	6,862
999,5	6,176
999,9	6,833
1000,3	7,262
1000,7	9,805
1001,1	5,09
1001,5	-1,452
1002	-4,767
1002,4	-3,11
1002,8	5,319
1003,2	6,233
1003,6	7,805
1004	7,69
1004,5	6,89
1004,9	12,062
1005,3	10,348
1005,7	0,148
1006,1	-2,138
1006,6	-4,481
1007	-4,452
1007,4	-3,281
1007,8	-5,652
1008,2	-4,424
1008,6	-4,367
1009,1	-3,51
1009,5	-1,052
1009,9	6,462
1010,3	8,405
1010,7	13,148
1011,1	17,29
1011,6	15,976
1012	15,776
1012,4	15,119
1012,8	5,519
1013,2	5,776
1013,6	5,633
1014,1	3,005
1014,5	6,119
1014,9	8,49
1015,3	5,748
1015,7	10,062
1016,1	7,833
1016,6	10,033
1017	8,233
1017,4	6,605
1017,8	3,948
1018,2	3,148
1018,6	5,062
1019,1	0,29
1019,5	-1,767
1019,9	2,948
1020,3	5,69
1020,7	5,833
1021,1	6,976
1021,6	3,976
1022	5,633
1022,4	6,348
1022,8	4,205
1023,2	4,233
1023,6	3,976
1024,1	6,005
1024,5	8,376
1024,9	11,89
1025,3	7,69
1025,7	8,49
1026,1	6,033
1026,6	8,205
1027	4,29
1027,4	2,176
1027,8	1,29
1028,2	4,49
1028,6	6,49
1029	8,662
1029,5	11,519
1029,9	15,462
1030,3	19,433
1030,7	19,576
1031,1	15,119
1031,5	6,433
1032	6,605
1032,4	-0,738
1032,8	0,405
1033,2	-0,767
1033,6	2,919
1034	4,005
1034,4	12,576
1034,9	7,89
1035,3	10,69
1035,7	7,948
1036,1	8,376
1036,5	3,376
1036,9	6,233
1037,4	-0,71
1037,8	2,662
1038,2	-3,567
1038,6	-6,167
1039	-10,795
1039,4	-8,681
1039,8	-12,967
1040,3	-10,795
1040,7	-12,824
1041,1	-10,652
1041,5	-10,424
1041,9	-10,71
1042,3	-10,738
1042,7	-4,795
1043,2	-4,881
1043,6	-0,167
1044	3,69
1044,4	0,976
1044,8	0,948
1045,2	2,49
1045,6	2,262
1046,1	9,005
1046,5	9,919
1046,9	12,633
1047,3	15,748
1047,7	14,976
1048,1	12,148
1048,5	11,576
1049	9,319
1049,4	7,119
1049,8	6,833
1050,2	11,919
1050,6	16,233
1051	20,033
1051,4	18,376
1051,9	14,862
1052,3	8,719
1052,7	6,233
1053,1	4,576
1053,5	6,805
1053,9	5,205
1054,3	2,862
1054,8	8,662
1055,2	16,348
1055,6	15,69
1056	15,29
1056,4	12,776
1056,8	10,233
1057,2	13,719
1057,6	8,205
1058,1	4,319
1058,5	7,433
1058,9	8,605
1059,3	8,976
1059,7	5,919
1060,1	3,119
1060,5	0,433
1061	0,69
1061,4	4,119
1061,8	-0,967
1062,2	-4,367
1062,6	1,862
1063	2,319
1063,4	6,89
1063,8	6,576
1064,3	3,548
1064,7	3,976
1065,1	2,948
1065,5	4,49
1065,9	3,89
1066,3	-2,51
1066,7	0,805
1067,1	-3,738
1067,6	0,205
1068	1,09
1068,4	1,976
1068,8	4,262
1069,2	6,033
1069,6	4,69
1070	5,29
1070,4	2,09
1070,9	0,119
1071,3	0,148
1071,7	-0,738
1072,1	4,462
1072,5	5,719
1072,9	11,89
1073,3	10,919
1073,7	13,348
1074,2	11,405
1074,6	7,833
1075	5,862
1075,4	0,319
1075,8	-1,595
1076,2	0,49
1076,6	1,69
1077	-2,624
1077,5	0,405
1077,9	0,833
1078,3	2,89
1078,7	-2,738
1079,1	-2,195
1079,5	-6,167
1079,9	-2,424
1080,3	0,633
1080,7	2,205
1081,2	5,09
1081,6	9,462
1082	8,719
1082,4	11,919
1082,8	7,948
1083,2	3,033
1083,6	0,605
1084	-5,138
1084,5	-5,424
1084,9	-7,338
1085,3	-5,795
1085,7	-5,424
1086,1	-1,395
1086,5	-0,338
1086,9	4,805
1087,3	7,948
1087,7	14,148
1088,2	11,833
1088,6	11,005
1089	5,633
1089,4	5,633
1089,8	10,005
1090,2	7,719
1090,6	4,49
1091	7,262
1091,4	8,605
1091,9	11,262
1092,3	8,776
1092,7	2,49
1093,1	-0,567
1093,5	-3,081
1093,9	-2,652
1094,3	-0,424
1094,7	0,348
1095,1	0,148
1095,5	1,519
1096	-2,224
1096,4	-1,995
1096,8	-4,824
1097,2	-8,367
1097,6	-7,138
1098	-4,338
1098,4	-2,824
1098,8	2,862
1099,2	1,433
1099,6	5,462
1100,1	7,605
1100,5	9,405
1100,9	6,262
1101,3	4,633
1101,7	6,348
1102,1	11,176
1102,5	7,49
1102,9	3,89
1103,3	-3,767
1103,7	-2,595
1104,2	-1,195
1104,6	0,09
1105	-2,338
1105,4	-3,138
1105,8	1,148
1106,2	5,319
1106,6	4,348
1107	2,662
1107,4	-1,833
1107,8	-2,567
1108,3	-0,117
