Data from Subt2_128.txt Node
Date: Sat Aug 26 18:25:33 MSK 2023
User: vat
Spectrometer: MAYP114033
Trigger mode: 0
Integration Time (sec): 1,000000E0
Scans to average: 5
Electric dark correction enabled: true
Nonlinearity correction enabled: false
Boxcar width: 3
XAxis mode: Wavelengths
Number of Pixels in Spectrum: 2068
>>>>>Begin Spectral Data<<<<<
199,4	0,367
199,9	0,627
200,4	-3,833
200,8	-4,505
201,3	-6,99
201,8	-5,105
202,2	-7,105
202,7	-0,762
203,2	-3,448
203,6	-0,133
204,1	0,152
204,6	2,867
205	4,552
205,5	10,981
206	5,724
206,4	8,352
206,9	10,152
207,4	12,324
207,8	13,324
208,3	10,324
208,8	5,038
209,2	3,152
209,7	4,867
210,2	3,581
210,6	2,867
211,1	2,695
211,5	-0,276
212	-0,305
212,5	-1,448
212,9	-2,933
213,4	-2,876
213,9	-4,419
214,3	-6,705
214,8	-5,448
215,3	-4,905
215,7	-0,448
216,2	3,61
216,7	1,667
217,1	4,352
217,6	7,924
218,1	10,01
218,5	9,095
219	3,781
219,5	-1,305
219,9	-0,962
220,4	3,067
220,9	1,067
221,3	-2,819
221,8	0,581
222,3	4,295
222,7	5,81
223,2	11,495
223,6	5,095
224,1	1,038
224,6	3,467
225	-2,819
225,5	-2,476
226	-5,076
226,4	-9,39
226,9	-8,476
227,4	-4,305
227,8	-5,933
228,3	-3,19
228,8	-1,962
229,2	-0,19
229,7	1,324
230,2	0,095
230,6	4,581
231,1	8,724
231,5	9,181
232	6,61
232,5	4,838
232,9	5,524
233,4	7,924
233,9	1,01
234,3	1,238
234,8	4,067
235,3	4,581
235,7	8,61
236,2	6,638
236,7	3,552
237,1	8,152
237,6	3,295
238,1	1,695
238,5	-4,333
239	-6,533
239,4	-2,676
239,9	1,067
240,4	0,295
240,8	5,41
241,3	2,238
241,8	5,324
242,2	3,867
242,7	-0,905
243,2	-1,048
243,6	1,61
244,1	-2,162
244,6	5,838
245	5,838
245,5	7,495
245,9	5,61
246,4	1,524
246,9	-2,905
247,3	0,867
247,8	-4,39
248,3	-0,819
248,7	-1,219
249,2	-0,076
249,7	0,952
250,1	5,81
250,6	0,952
251	4,01
251,5	1,61
252	1,295
252,4	8,152
252,9	7,924
253,4	0,752
253,8	3,495
254,3	0,667
254,8	0,952
255,2	-1,562
255,7	-9,448
256,1	-7,076
256,6	-4,99
257,1	-3,448
257,5	-6,648
258	-10,39
258,5	-7,362
258,9	-2,848
259,4	-5,619
259,9	-4,219
260,3	-9,019
260,8	-6,762
261,2	-2,533
261,7	0,295
262,2	-0,962
262,6	-5,762
263,1	-2,676
263,6	-1,219
264	-0,362
264,5	2,981
264,9	2,952
265,4	0,981
265,9	3,381
266,3	0,752
266,8	4,924
267,3	5,781
267,7	3,438
268,2	1,867
268,7	5,438
269,1	9,095
269,6	7,981
270	7,21
270,5	5,438
271	5,552
271,4	4,781
271,9	1,01
272,4	1,81
272,8	2,124
273,3	-2,276
273,7	-0,762
274,2	-0,39
274,7	-3,248
275,1	-1,19
275,6	3,581
276,1	-1,562
276,5	1,981
277	4,438
277,4	3,267
277,9	8,41
278,4	9,552
278,8	3,438
279,3	8,438
279,8	10,781
280,2	7,295
280,7	12,152
281,1	5,981
281,6	5,981
282,1	7,838
282,5	3,81
283	0,21
283,4	-2,819
283,9	-6,448
284,4	-0,362
284,8	-2,876
285,3	-7,048
285,8	-1,648
286,2	-2,076
286,7	-1,59
287,1	-5,448
287,6	-6,39
288,1	-8,762
288,5	-2,448
289	-5,39
289,5	-2,076
289,9	-2,705
290,4	-1,133
290,8	-4,648
291,3	-2,076
291,8	-1,648
292,2	-3,99
292,7	-1,248
293,1	-0,905
293,6	2,524
294,1	6,124
294,5	7,324
295	5,81
295,5	8,267
295,9	2,381
296,4	7,181
296,8	2,295
297,3	1,81
297,8	0,067
298,2	-2,819
298,7	1,695
299,1	3,124
299,6	-3,905
300,1	4,21
300,5	5,01
301	9,61
301,5	13,61
301,9	9,695
302,4	7,41
302,8	11,724
303,3	5,324
303,8	-2,105
304,2	-6,305
304,7	-9,448
305,1	-10,676
305,6	-9,333
306,1	-4,133
306,5	0,667
307	7,838
307,4	11,581
307,9	12,581
308,4	11,438
308,8	7,324
309,3	2,667
309,8	-0,19
310,2	-1,105
310,7	-7,162
311,1	-5,19
311,6	-3,19
312,1	1,352
312,5	5,438
313	6,438
313,4	6,61
313,9	11,838
314,4	7,581
314,8	6,41
315,3	8,467
315,7	3,667
316,2	1,324
316,7	-0,876
317,1	-0,962
317,6	-0,133
318	1,981
318,5	-0,676
319	-1,333
319,4	-0,59
319,9	7,438
320,3	5,381
320,8	3,924
321,3	7,095
321,7	10,667
322,2	10,21
322,6	13,81
323,1	7,438
323,6	7,867
324	9,952
324,5	6,038
324,9	3,667
325,4	2,895
325,9	3,724
326,3	2,552
326,8	4,238
327,2	0,724
327,7	1,267
328,2	1,01
328,6	4,781
329,1	-0,676
329,5	1,838
330	-2,019
330,5	5,781
330,9	7,267
331,4	11,495
331,8	7,61
332,3	7,152
332,8	5,867
333,2	9,667
333,7	5,067
334,1	5,238
334,6	-1,705
335,1	-3,762
335,5	-1,19
336	-2,676
336,4	-3,133
336,9	6,095
337,4	7,724
337,8	9,067
338,3	11,638
338,7	11,752
339,2	11,152
339,7	9,01
340,1	-0,133
340,6	-0,105
341	-2,248
341,5	-1,705
342	-6,162
342,4	-6,733
342,9	-9,905
343,3	-7,505
343,8	-9,876
344,2	-4,39
344,7	1,638
345,2	4,067
345,6	6,038
346,1	11,752
346,5	5,41
347	3,724
347,5	2,038
347,9	3,124
348,4	6,41
348,8	4,267
349,3	5,724
349,8	13,695
350,2	22,095
350,7	19,952
351,1	19,381
351,6	19,381
352	22,038
352,5	23,867
353	28,552
353,4	26,21
353,9	38,181
354,3	46,21
354,8	55,552
355,3	75,61
355,7	91,895
356,2	106,838
356,6	128,124
357,1	148,295
357,5	174,41
358	205,895
358,5	227,867
358,9	263,838
359,4	304,524
359,8	352,581
360,3	410,181
360,8	466,867
361,2	533,467
361,7	611,495
362,1	698,038
362,6	787,581
363	878,038
363,5	975,21
364	1086,81
364,4	1198,41
364,9	1310,295
365,3	1412,295
365,8	1515,781
366,3	1616,152
366,7	1702,867
367,2	1777,838
367,6	1835,838
368,1	1886,81
368,5	1917,381
369	1933,895
369,5	1940,552
369,9	1926,238
370,4	1897,924
370,8	1858,01
371,3	1804,038
371,7	1743,781
372,2	1670,381
372,7	1589,952
373,1	1508,981
373,6	1417,867
374	1333,952
374,5	1239,495
374,9	1155,581
375,4	1075,467
375,9	992,838
376,3	920,781
376,8	851,752
377,2	785,124
377,7	725,638
378,2	665,038
378,6	612,867
379,1	562,238
379,5	513,095
380	473,895
380,4	429,981
380,9	396,61
381,4	362,381
381,8	331,981
382,3	310,01
382,7	288,21
383,2	269,724
383,6	253,438
384,1	239,524
384,6	226,581
385	209,924
385,5	191,067
385,9	177,21
386,4	159,667
386,8	152,295
387,3	138,467
387,7	130,324
388,2	123,752
388,7	117,152
389,1	110,067
389,6	104,495
390	95,781
390,5	94,581
390,9	87,81
391,4	80,295
391,9	73,895
392,3	71,552
392,8	65,124
393,2	56,695
393,7	49,524
394,1	43,638
394,6	42,81
395,1	42,181
395,5	35,095
396	36,038
396,4	34,61
396,9	34,667
397,3	38,21
397,8	38,495
398,2	40,238
398,7	40,924
399,2	41,724
399,6	44,238
400,1	43,267
400,5	36,181
401	36,21
401,4	31,467
401,9	34,152
402,4	32,238
402,8	30,952
403,3	38,181
403,7	39,038
404,2	43,124
404,6	46,352
405,1	43,038
405,5	43,495
406	43,952
406,5	36,61
406,9	44,895
407,4	43,295
407,8	46,781
408,3	55,01
408,7	59,781
409,2	66,867
409,6	73,838
410,1	76,838
410,6	85,695
411	92,638
411,5	94,181
411,9	99,952
412,4	101,924
412,8	106,295
413,3	112,752
413,7	118,067
414,2	123,667
414,7	137,495
415,1	148,838
415,6	164,61
416	176,238
416,5	185,752
416,9	192,695
417,4	206,21
417,8	221,41
418,3	233,895
418,8	244,352
419,2	256,61
419,7	273,438
420,1	288,781
420,6	301,352
421	310,01
421,5	324,61
421,9	342,61
422,4	360,21
422,8	376,01
423,3	394,41
423,8	414,181
424,2	431,581
424,7	455,352
425,1	474,781
425,6	498,981
426	525,781
426,5	554,924
426,9	587,41
427,4	614,895
427,9	639,152
428,3	673,981
428,8	707,952
429,2	738,838
429,7	774,181
430,1	808,61
430,6	851,038
431	899,267
431,5	939,495
431,9	979,152
432,4	1032,381
432,8	1084,695
433,3	1139,21
433,8	1198,781
434,2	1256,524
434,7	1323,124
435,1	1393,638
435,6	1461,181
436	1533,238
436,5	1607,21
436,9	1685,038
437,4	1758,781
437,8	1845,581
438,3	1935,667
438,8	2025,667
439,2	2120,81
439,7	2223,724
440,1	2330,238
440,6	2446,667
441	2551,152
441,5	2661,124
441,9	2779,124
442,4	2891,467
442,8	3006,152
443,3	3128,924
443,7	3256,981
444,2	3393,524
444,7	3534,124
445,1	3675,095
445,6	3828,324
446	3988,124
446,5	4140,667
446,9	4295,181
447,4	4458,267
447,8	4626,438
448,3	4802,267
448,7	4973,467
449,2	5151,067
449,6	5339,952
450,1	5526,267
450,6	5712,952
451	5903,267
451,5	6092,324
451,9	6299,781
452,4	6502,895
452,8	6705,352
453,3	6918,581
453,7	7138,238
454,2	7362,352
454,6	7587,895
455,1	7815,381
455,5	8041,124
456	8276,181
456,4	8508,438
456,9	8746,038
457,3	8978,838
457,8	9205,61
458,3	9441,552
458,7	9683,867
459,2	9930,124
459,6	10177,238
460,1	10425,295
460,5	10669,867
461	10933,581
461,4	11188,467
461,9	11442,867
462,3	11695,495
462,8	11954,638
463,2	12201,781
463,7	12464,924
464,1	12723,467
464,6	12986,467
465	13240,581
465,5	13499,152
466	13754,61
466,4	14012,438
466,9	14266,295
467,3	14518,21
467,8	14762,438
468,2	15017,552
468,7	15256,467
469,1	15500,695
469,6	15736,61
470	15973,838
470,5	16208,524
470,9	16428,067
471,4	16650,724
471,8	16872,752
472,3	17094,438
472,7	17319,952
473,2	17527,752
473,6	17733,724
474,1	17950,924
474,5	18163,238
475	18371,752
475,4	18565,695
475,9	18757,381
476,4	18947,61
476,8	19127,895
477,3	19284,21
477,7	19454,638
478,2	19618,467
478,6	19771,41
479,1	19914,981
479,5	20066,41
480	20194,41
480,4	20353,781
480,9	20479,695
481,3	20594,41
481,8	20716,238
482,2	20823,524
482,7	20916,581
483,1	21026,867
483,6	21107,581
484	21182,381
484,5	21265,152
484,9	21328,495
485,4	21396,238
485,8	21450,781
486,3	21500,124
486,7	21549,41
487,2	21597,152
487,6	21619,924
488,1	21645,324
488,5	21661,495
489	21683,352
489,4	21704,581
489,9	21690,438
490,4	21674,152
490,8	21671,038
491,3	21657,438
491,7	21643,467
492,2	21613,581
492,6	21560,581
493,1	21521,181
493,5	21466,495
494	21407,581
494,4	21357,01
494,9	21283,867
495,3	21220,067
495,8	21162,638
496,2	21101,61
496,7	21029,381
497,1	20969,124
497,6	20879,552
498	20804,467
498,5	20727,895
498,9	20631,667
499,4	20537,295
499,8	20450,695
500,3	20333,324
500,7	20231,438
501,2	20123,752
501,6	19998,352
502,1	19888,924
502,5	19780,352
503	19672,381
503,4	19573,324
503,9	19459,467
504,3	19351,124
504,8	19239,238
505,2	19114,352
505,7	18984,067
506,1	18849,81
506,6	18696,181
507	18552,552
507,5	18406,381
507,9	18256,867
508,4	18120,524
508,8	17973,095
509,3	17820,924
509,7	17677,867
510,2	17530,295
510,6	17381,324
511,1	17237,467
511,5	17084,095
512	16942,724
512,4	16801,524
512,9	16653,552
513,3	16509,467
513,8	16339,21
514,2	16191,952
514,7	16033,838
515,1	15868,295
515,6	15702,267
516	15546,724
516,5	15388,581
516,9	15255,038
517,4	15094,467
517,8	14938,495
518,3	14779,21
518,7	14623,81
519,2	14470,267
519,6	14312,238
520,1	14147,324
520,5	13989,838
521	13831,952
521,4	13690,695
521,9	13557,324
522,3	13409,295
522,8	13263,295
523,2	13123,867
523,7	12976,81
524,1	12839,724
524,6	12701,524
525	12547,667
525,5	12406,267
525,9	12274,895
526,4	12139,41
526,8	12015,952
527,3	11885,638
527,7	11746,638
528,2	11609,095
528,6	11482,038
529,1	11353,781
529,5	11224,724
530	11092,238
530,4	10967,981
530,9	10844,381
531,3	10730,124
531,8	10612,667
532,2	10484,952
532,6	10358,381
533,1	10239,752
533,5	10117,181
534	9997,752
534,4	9876,381
534,9	9761,467
535,3	9644,752
535,8	9534,524
536,2	9430,724
536,7	9334,981
537,1	9230,895
537,6	9130,152
538	9018,21
538,5	8922,238
538,9	8821,181
539,4	8718,781
539,8	8608,781
540,3	8512,438
540,7	8412,838
541,2	8312,381
541,6	8217,352
542,1	8131,495
542,5	8033,324
543	7949,467
543,4	7853,695
543,9	7771,581
544,3	7697,01
544,8	7609,81
545,2	7527,895
545,7	7446,524
546,1	7370,41
546,5	7295,867
547	7222,095
547,4	7142,324
547,9	7069,552
548,3	6995,038
548,8	6918,381
549,2	6834,781
549,7	6765,952
550,1	6694,867
550,6	6623,895
551	6554,724
551,5	6484,495
551,9	6421,552
552,4	6358,124
552,8	6285,838
553,3	6219,781
553,7	6158,695
554,2	6095,21
554,6	6027,495
555,1	5969,267
555,5	5905,752
555,9	5857,552
556,4	5798,495
556,8	5738,924
557,3	5683,952
557,7	5632,524
558,2	5579,352
558,6	5531,038
559,1	5471,724
559,5	5413,352
560	5363,552
560,4	5312,981
560,9	5264,152
561,3	5214,238
561,8	5163,181
562,2	5119,01
562,7	5077,867
563,1	5029,724
563,6	4976,495
564	4936,495
564,4	4890,467
564,9	4840,267
565,3	4797,752
565,8	4750,781
566,2	4711,895
566,7	4678,581
567,1	4623,295
567,6	4583,495
568	4548,838
568,5	4502,038
568,9	4462,581
569,4	4419,181
569,8	4382,581
570,3	4348,038
570,7	4303,124
571,1	4267,61
571,6	4237,124
572	4203,895
572,5	4169,81
572,9	4128,095
573,4	4097,781
573,8	4068,181
574,3	4026,838
574,7	3992,638
575,2	3954,552
575,6	3918,124
576,1	3891,41
576,5	3859,61
576,9	3824,095
577,4	3793,295
577,8	3757,381
578,3	3728,724
578,7	3696,038
579,2	3662,924
579,6	3622,524
580,1	3592,41
580,5	3566,638
581	3538,152
581,4	3504,981
581,9	3473,695
582,3	3438,438
582,7	3421,21
583,2	3393,267
583,6	3362,81
584,1	3337,267
584,5	3312,724
585	3292,552
585,4	3264,181
585,9	3234,838
586,3	3215,238
586,8	3193,638
587,2	3163,638
587,6	3139,695
588,1	3113,838
588,5	3089,21
589	3063,724
589,4	3037,152
589,9	3009,81
590,3	2984,838
590,8	2963,695
591,2	2942,438
591,7	2925,152
592,1	2907,667
592,5	2886,952
593	2863,552
593,4	2848,152
593,9	2819,295
594,3	2799,61
594,8	2774,552
595,2	2752,124
595,7	2730,552
596,1	2714,695
596,6	2691,952
597	2681,581
597,4	2661,038
597,9	2645,352
598,3	2631,524
598,8	2610,438
599,2	2589,495
599,7	2569,41
600,1	2547,324
600,6	2527,781
601	2514,238
601,4	2496,61
601,9	2485,81
602,3	2474,352
602,8	2461,01
603,2	2445,352
603,7	2434,381
604,1	2416,495
604,6	2395,01
605	2371,352
605,4	2355,01
605,9	2338,41
606,3	2320,838
606,8	2299,752
607,2	2280,21
607,7	2264,724
608,1	2254,61
608,6	2240,581
609	2231,695
609,4	2218,124
609,9	2201,895
610,3	2191,838
610,8	2180,552
611,2	2165,152
611,7	2146,581
612,1	2129,238
612,6	2119,295
613	2110,467
613,4	2094,467
613,9	2074,124
614,3	2060,581
614,8	2052,095
615,2	2033,695
615,7	2021,867
616,1	2002,21
616,6	1992,238
617	1981,952
617,4	1964,895
617,9	1949,61
618,3	1942,267
618,8	1928,01
619,2	1920,295
619,7	1907,952
620,1	1894,381
620,5	1885,21
621	1866,152
621,4	1851,152
621,9	1829,524
622,3	1812,867
622,8	1792,838
623,2	1780,41
623,6	1764,295
624,1	1757,381
624,5	1743,867
625	1737,61
625,4	1731,324
625,9	1722,124
626,3	1706,838
626,8	1698,21
627,2	1689,61
627,6	1665,838
628,1	1647,724
628,5	1633,152
629	1621,952
629,4	1614,752
629,9	1600,267
630,3	1577,01
630,7	1572,81
631,2	1567,581
631,6	1552,724
632,1	1541,152
632,5	1527,352
633	1519,981
633,4	1513,467
633,8	1508,124
634,3	1496,467
634,7	1487,752
635,2	1468,724
635,6	1456,267
636,1	1444,324
636,5	1430,724
636,9	1412,01
637,4	1402,467
637,8	1382,067
638,3	1376,524
638,7	1366,838
639,2	1351,581
639,6	1347,952
640	1341,895
640,5	1332,581
640,9	1331,524
641,4	1325,324
641,8	1320,838
642,2	1315,495
642,7	1303,124
643,1	1299,181
643,6	1288,638
644	1283,41
644,5	1277,781
644,9	1266,124
645,3	1253,981
645,8	1247,81
646,2	1239,467
646,7	1233,324
647,1	1221,238
647,6	1211,724
648	1208,552
648,4	1201,01
648,9	1194,981
649,3	1181,695
649,8	1172,81
650,2	1166,095
650,6	1160,581
651,1	1150,724
651,5	1155,467
652	1145,01
652,4	1139,41
652,9	1132,41
653,3	1124,867
653,7	1116,038
654,2	1108,124
654,6	1091,781
655,1	1088,581
655,5	1090,124
655,9	1081,238
656,4	1072,695
656,8	1064,495
657,3	1057,067
657,7	1051,667
658,2	1041,952
658,6	1028,867
659	1025,41
659,5	1016,095
659,9	1010,124
660,4	1004,324
660,8	996,667
661,2	987,781
661,7	982,067
662,1	972,524
662,6	967,295
663	956,495
663,4	949,095
663,9	940,381
664,3	936,067
664,8	927,324
665,2	918,324
665,6	911,552
666,1	910,752
666,5	905,21
667	902,01
667,4	892,524
667,9	886,924
668,3	881,838
668,7	877,781
669,2	871,695
669,6	863,267
670,1	854,295
670,5	847,21
670,9	840,352
671,4	832,295
671,8	827,495
672,3	817,638
672,7	813,467
673,1	805,552
673,6	798,095
674	793,438
674,5	788,724
674,9	777,781
675,3	770,895
675,8	766,724
676,2	763,524
676,7	760,61
677,1	752,295
677,5	745,667
678	747,495
678,4	745,01
678,9	738,467
679,3	734,838
679,7	728,867
680,2	722,067
680,6	718,867
681,1	710,524
681,5	705,781
681,9	700,038
682,4	693,41
682,8	688,781
683,3	687,067
683,7	683,41
684,1	680,295
684,6	670,81
685	665,038
685,5	659,667
685,9	649,552
686,3	638,552
686,8	631,61
687,2	622,038
687,7	620,524
688,1	611,095
688,5	606,01
689	607,295
689,4	608,41
689,9	601,552
690,3	597,924
690,7	597,295
691,2	601,067
691,6	595,438
692	590,952
692,5	586,152
692,9	584,295
693,4	581,724
693,8	572,21
694,2	562,752
694,7	559,324
695,1	553,495
695,6	553,01
696	547,952
696,4	546,581
696,9	538,981
697,3	532,124
697,8	530,181
698,2	528,524
698,6	523,01
699,1	521,838
699,5	517,61
699,9	514,01
700,4	513,924
700,8	514,181
701,3	512,61
701,7	504,238
702,1	496,61
702,6	489,352
703	494,181
703,5	491,781
703,9	480,667
704,3	475,981
704,8	475,181
705,2	474,895
705,6	471,01
706,1	461,352
706,5	454,724
707	457,495
707,4	456,352
707,8	450,495
708,3	447,495
708,7	446,295
709,2	442,267
709,6	440,038
710	437,381
710,5	428,781
710,9	428,467
711,3	422,638
711,8	421,781
712,2	424,41
712,7	422,152
713,1	415,724
713,5	418,524
714	417,724
714,4	412,01
714,8	408,21
715,3	400,152
715,7	396,467
716,2	391,638
716,6	383,21
717	373,038
717,5	371,667
717,9	371,752
718,3	368,21
718,8	366,238
719,2	367,838
719,7	368,267
720,1	370,81
720,5	372,467
721	364,695
721,4	366,981
721,8	368,781
722,3	361,638
722,7	359,61
723,2	351,352
723,6	343,41
724	340,924
724,5	335,81
724,9	328,61
725,3	327,438
725,8	324,495
726,2	329,21
726,7	329,838
727,1	325,152
727,5	323,124
728	319,752
728,4	319,095
728,8	313,752
729,3	307,581
729,7	302,01
730,1	297,467
730,6	294,838
731	293,895
731,5	291,324
731,9	290,238
732,3	291,467
732,8	294,524
733,2	301,267
733,6	296,038
734,1	292,524
734,5	289,81
734,9	292,41
735,4	291,752
735,8	284,181
736,3	283,01
736,7	282,438
737,1	282,552
737,6	279,867
738	271,095
738,4	265,838
738,9	268,867
739,3	261,724
739,7	260,524
740,2	252,924
740,6	254,781
741,1	259,238
741,5	252,895
741,9	249,41
742,4	252,781
742,8	252,381
743,2	258,352
743,7	250,867
744,1	243,41
744,5	250,41
745	248,438
745,4	242,495
745,8	240,352
746,3	235,038
746,7	234,438
747,2	235,095
747,6	232,524
748	238,495
748,5	236,238
748,9	236,41
749,3	236,324
749,8	237,238
750,2	235,495
750,6	227,781
751,1	224,124
751,5	223,267
751,9	224,581
752,4	224,952
752,8	221,352
753,3	219,924
753,7	224,838
754,1	220,152
754,6	219,352
755	210,581
755,4	204,295
755,9	205,238
756,3	202,895
756,7	198,781
757,2	198,352
757,6	199,124
758	197,238
758,5	198,381
758,9	193,924
759,3	193,867
759,8	189,895
760,2	186,838
760,6	181,295
761,1	181,238
761,5	180,781
761,9	180,981
762,4	180,524
762,8	183,438
763,3	179,581
763,7	181,867
764,1	185,381
764,6	183,152
765	184,295
765,4	181,552
765,9	179,01
766,3	181,352
766,7	178,895
767,2	173,295
767,6	176,324
768	174,067
768,5	171,467
768,9	167,924
769,3	163,952
769,8	162,981
770,2	162,495
770,6	158,638
771,1	159,01
771,5	158,267
771,9	159,838
772,4	161,295
772,8	164,467
773,2	163,867
773,7	162,267
774,1	160,238
774,5	157,238
775	155,01
775,4	155,438
775,8	147,61
776,3	149,41
776,7	145,924
777,1	141,867
777,6	144,695
778	147,495
778,4	140,524
778,9	140,01
779,3	137,21
779,7	139,381
780,2	143,638
780,6	142,152
781	137,581
781,5	136,752
781,9	140,552
782,3	136,352
782,8	132,781
783,2	129,41
783,6	133,238
784,1	131,81
784,5	134,324
784,9	130,267
785,4	136,181
785,8	142,095
786,2	140,295
786,7	133,724
787,1	133,295
787,5	133,752
788	132,581
788,4	128,01
788,8	122,495
789,3	122,924
789,7	123,352
790,1	122,467
790,6	122,724
791	119,152
791,4	119,295
791,9	118,21
792,3	115,81
792,7	124,724
793,2	118,867
793,6	116,467
794	119,41
794,5	118,067
794,9	120,981
795,3	120,724
795,8	112,267
796,2	118,752
796,6	118,181
797,1	115,81
797,5	115,095
797,9	110,638
798,4	109,152
798,8	106,61
799,2	98,695
799,7	99,467
800,1	97,552
800,5	99,838
801	104,295
801,4	102,581
801,8	99,581
802,2	101,41
802,7	95,124
803,1	93,124
803,5	91,638
804	84,01
804,4	82,838
804,8	83,467
805,3	87,267
805,7	92,981
806,1	93,467
806,6	94,81
807	95,238
807,4	95,695
807,9	92,067
808,3	87,752
808,7	84,724
809,2	85,724
809,6	82,781
810	80,41
810,4	80,438
810,9	82,152
811,3	83,695
811,7	84,324
812,2	88,352
812,6	86,61
813	92,552
813,5	96,81
813,9	97,038
814,3	92,295
814,8	89,495
815,2	82,867
815,6	79,695
816,1	78,581
816,5	73,952
816,9	75,038
817,3	80,095
817,8	85,152
818,2	87,324
818,6	85,067
819,1	80,152
819,5	77,552
819,9	75,695
820,4	73,552
820,8	65,667
821,2	62,038
821,7	67,552
822,1	69,752
822,5	74,381
822,9	76,781
823,4	74,01
823,8	76,267
824,2	81,867
824,7	73,752
825,1	68,924
825,5	61,267
826	54,724
826,4	58,667
826,8	59,324
827,3	56,981
827,7	61,267
828,1	63,438
828,5	67,095
829	66,21
829,4	60,895
829,8	56,924
830,3	56,295
830,7	53,524
831,1	56,381
831,6	56,981
832	60,952
832,4	62,552
832,8	65,352
833,3	64,724
833,7	63,638
834,1	57,924
834,6	56,81
835	56,895
835,4	56,981
835,8	52,01
836,3	47,752
836,7	49,981
837,1	49,552
837,6	52,724
838	52,41
838,4	52,152
838,9	55,095
839,3	53,895
839,7	54,667
840,1	51,238
840,6	46,067
841	46,924
841,4	47,324
841,9	46,838
842,3	45,638
842,7	40,781
843,1	42,724
843,6	46,952
844	45,552
844,4	49,238
844,9	51,181
845,3	55,295
845,7	59,952
846,2	58,638
846,6	52,124
847	51,952
847,4	48,495
847,9	46,981
848,3	44,724
848,7	43,067
849,2	42,695
849,6	39,524
850	42,01
850,4	37,038
850,9	38,067
851,3	43,467
851,7	46,095
852,2	50,152
852,6	60,81
853	55,438
853,4	57,524
853,9	51,981
854,3	45,781
854,7	41,81
855,2	36,352
855,6	32,438
856	31,467
856,4	30,095
856,9	33,21
857,3	34,495
857,7	34,21
858,2	39,124
858,6	35,781
859	35,238
859,4	37,352
859,9	33,124
860,3	31,81
860,7	30,895
861,1	29,895
861,6	28,638
862	29,238
862,4	26,095
862,9	28,667
863,3	28,838
863,7	30,867
864,1	33,21
864,6	33,352
865	34,81
865,4	38,238
865,9	41,267
866,3	36,724
866,7	33,324
867,1	28,695
867,6	25,21
868	23,524
868,4	22,295
868,8	18,038
869,3	21,01
869,7	27,21
870,1	27,81
870,6	30,41
871	35,438
871,4	36,752
871,8	37,924
872,3	39,295
872,7	34,724
873,1	32,438
873,5	34,838
874	28,324
874,4	25,324
874,8	22,781
875,3	22,952
875,7	23,81
876,1	28,038
876,5	27,895
877	28,41
877,4	23,21
877,8	26,181
878,2	26,352
878,7	27,41
879,1	24,267
879,5	23,295
879,9	25,181
880,4	30,352
880,8	31,067
881,2	27,781
881,7	22,467
882,1	21,038
882,5	20,095
882,9	17,01
883,4	16,181
883,8	14,01
884,2	18,41
884,6	20,581
885,1	28,724
885,5	28,21
885,9	29,324
886,3	31,61
886,8	28,095
887,2	22,324
887,6	18,724
888	12,724
888,5	15,124
888,9	13,724
889,3	7,01
889,8	10,81
890,2	11,552
890,6	15,667
891	14,667
891,5	13,295
891,9	15,867
892,3	20,752
892,7	21,752
893,2	22,952
893,6	25,581
894	30,152
894,4	26,038
894,9	25,01
895,3	22,81
895,7	20,867
896,1	20,21
896,6	15,638
897	12,41
897,4	21,41
897,8	21,095
898,3	24,552
898,7	17,752
899,1	16,467
899,5	15,924
900	13,181
900,4	6,352
900,8	3,81
901,2	2,067
901,7	8,324
902,1	11,21
902,5	13,638
902,9	13,324
903,4	13,095
903,8	12,581
904,2	10,752
904,6	13,038
905,1	12,41
905,5	10,524
905,9	12,895
906,3	14,924
906,8	20,067
907,2	17,895
907,6	16,095
908	19,838
908,5	21,41
908,9	15,095
909,3	13,067
909,7	11,695
910,2	16,981
910,6	18,81
911	10,438
911,4	8,524
911,9	8,581
912,3	10,924
912,7	13,867
913,1	10,61
913,6	5,895
914	10,238
914,4	11,267
914,8	17,981
915,3	13,81
915,7	9,238
916,1	6,581
916,5	11,838
916,9	13,038
917,4	14,495
917,8	11,981
918,2	11,638
918,6	9,952
919,1	14,524
919,5	11,752
919,9	8,01
920,3	5,067
920,8	2,295
921,2	3,752
921,6	0,952
922	0,181
922,5	-0,905
922,9	4,838
923,3	1,438
923,7	7,895
924,2	5,438
924,6	11,01
925	11,895
925,4	9,752
925,8	5,352
926,3	8,181
926,7	1,352
927,1	2,41
927,5	3,295
928	-3,562
928,4	-0,276
928,8	0,667
929,2	-1,105
929,7	3,267
930,1	4,038
930,5	-4,162
930,9	2,895
931,3	0,81
931,8	1,667
932,2	2,41
932,6	-0,219
933	-1,876
933,5	5,095
933,9	7,01
934,3	8,238
934,7	2,667
935,2	7,267
935,6	5,295
936	5,581
936,4	4,552
936,8	2,781
937,3	2,095
937,7	7,152
938,1	6,552
938,5	3,924
939	7,181
939,4	5,981
939,8	3,438
940,2	0,924
940,6	2,838
941,1	0,81
941,5	8,152
941,9	3,667
942,3	1,181
942,8	1,267
943,2	4,895
943,6	1,895
944	0,895
944,4	2,724
944,9	-0,219
945,3	2,867
945,7	2,467
946,1	-3,562
946,6	-6,333
947	-8,248
947,4	-8,419
947,8	-1,076
948,2	-3,819
948,7	-2,562
949,1	4,61
949,5	9,695
949,9	13,21
950,3	10,638
950,8	6,724
951,2	5,438
951,6	2,495
952	-1,105
952,5	-7,162
952,9	-8,419
953,3	-11,076
953,7	-10,619
954,1	-4,533
954,6	-3,79
955	2,324
955,4	4,495
955,8	6,152
956,2	8,438
956,7	10,295
957,1	6,781
957,5	9,895
957,9	7,324
958,3	6,267
958,8	8,467
959,2	10,867
959,6	13,895
960	13,638
960,5	15,81
960,9	12,124
961,3	10,438
961,7	6,038
962,1	4,01
962,6	2,524
963	5,067
963,4	-0,676
963,8	4,781
964,2	9,324
964,7	7,867
965,1	8,524
965,5	4,552
965,9	4,267
966,3	8,01
966,8	7,695
967,2	6,581
967,6	10,267
968	6,552
968,4	9,867
968,9	8,895
969,3	9,895
969,7	2,752
970,1	4,495
970,5	-0,219
971	6,981
971,4	6,81
971,8	7,552
972,2	5,552
972,6	7,381
973,1	4,238
973,5	10,152
973,9	8,752
974,3	8,667
974,7	9,152
975,2	11,667
975,6	12,81
976	15,581
976,4	10,01
976,8	6,467
977,3	1,038
977,7	-2,419
978,1	-2,305
978,5	-4,419
978,9	-8,305
979,4	-12,848
979,8	-16,248
980,2	-14,362
980,6	-13,676
981	-19,305
981,5	-17,305
981,9	-17,362
982,3	-12,648
982,7	-6,905
983,1	-5,505
983,6	-3,933
984	-0,362
984,4	-1,248
984,8	0,152
985,2	1,895
985,6	-3,79
986,1	-1,648
986,5	-0,562
986,9	-3,448
987,3	-0,648
987,7	-1,762
988,2	-3,048
988,6	-1,362
989	-0,362
989,4	-2,476
989,8	-0,105
990,3	-1,79
990,7	3,038
991,1	0,152
991,5	5,867
991,9	6,067
992,3	12,095
992,8	11,838
993,2	13,867
993,6	15,838
994	23,752
994,4	19,181
994,9	18,238
995,3	14,381
995,7	9,524
996,1	6,638
996,5	3,781
996,9	-0,733
997,4	2,667
997,8	-5,105
998,2	-8,133
998,6	-10,333
999	-9,133
999,5	-10,448
999,9	-9,162
1000,3	-15,676
1000,7	-10,848
1001,1	-14,59
1001,5	-5,019
1002	-4,39
1002,4	-6,705
1002,8	-9,876
1003,2	-4,076
1003,6	-2,448
1004	2,238
1004,5	-3,533
1004,9	-2,733
1005,3	-1,219
1005,7	2,867
1006,1	-2,848
1006,6	-6,676
1007	-3,448
1007,4	-6,105
1007,8	-6,933
1008,2	-9,505
1008,6	-5,419
1009,1	-4,362
1009,5	0,495
1009,9	-3,619
1010,3	2,838
1010,7	2,324
1011,1	3,924
1011,6	-2,705
1012	3,038
1012,4	1,01
1012,8	0,295
1013,2	2,695
1013,6	-1,219
1014,1	1,695
1014,5	4,952
1014,9	0,724
1015,3	-3,076
1015,7	3,01
1016,1	-1,962
1016,6	1,81
1017	2,981
1017,4	2,552
1017,8	0,467
1018,2	8,41
1018,6	1,438
1019,1	3,781
1019,5	1,638
1019,9	-3,476
1020,3	-4,619
1020,7	-2,105
1021,1	-10,219
1021,6	-9,39
1022	-6,448
1022,4	-4,333
1022,8	-2,848
1023,2	-4,362
1023,6	-0,705
1024,1	8,552
1024,5	11,238
1024,9	7,324
1025,3	8,295
1025,7	8,41
1026,1	11,381
1026,6	6,952
1027	5,838
1027,4	5,152
1027,8	5,667
1028,2	2,295
1028,6	6,295
1029	6,267
1029,5	9,895
1029,9	4,467
1030,3	3,238
1030,7	2,238
1031,1	5,695
1031,5	0,067
1032	-0,162
1032,4	-1,733
1032,8	0,095
1033,2	4,152
1033,6	5,181
1034	4,181
1034,4	2,41
1034,9	4,095
1035,3	0,781
1035,7	1,752
1036,1	0,067
1036,5	-4,819
1036,9	-2,619
1037,4	4,667
1037,8	1,152
1038,2	1,724
1038,6	1,724
1039	6,695
1039,4	15,581
1039,8	7,667
1040,3	9,41
1040,7	7,867
1041,1	9,952
1041,5	11,61
1041,9	6,524
1042,3	-0,905
1042,7	10,495
1043,2	4,067
1043,6	7,124
1044	6,495
1044,4	3,81
1044,8	2,238
1045,2	6,495
1045,6	4,181
1046,1	5,267
1046,5	4,181
1046,9	0,01
1047,3	-0,076
1047,7	-4,105
1048,1	-10,79
1048,5	-15,819
1049	-15,048
1049,4	-9,733
1049,8	-7,105
1050,2	-5,848
1050,6	1,752
1051	8,438
1051,4	9,752
1051,9	9,667
1052,3	12,324
1052,7	14,067
1053,1	8,381
1053,5	8,867
1053,9	3,181
1054,3	0,752
1054,8	5,352
1055,2	-1,39
1055,6	0,81
1056	6,21
1056,4	3,667
1056,8	6,124
1057,2	5,81
1057,6	-0,705
1058,1	-2,676
1058,5	-6,133
1058,9	-3,133
1059,3	-4,219
1059,7	-2,362
1060,1	-1,448
1060,5	-3,362
1061	3,038
1061,4	4,095
1061,8	4,038
1062,2	5,61
1062,6	6,724
1063	12,324
1063,4	17,81
1063,8	13,21
1064,3	12,067
1064,7	4,524
1065,1	3,352
1065,5	1,124
1065,9	-3,19
1066,3	-7,648
1066,7	-8,133
1067,1	-8,505
1067,6	-1,562
1068	-5,762
1068,4	-4,59
1068,8	-0,448
1069,2	1,524
1069,6	-0,562
1070	1,438
1070,4	-0,105
1070,9	3,038
1071,3	1,095
1071,7	-3,99
1072,1	-2,362
1072,5	-5,533
1072,9	-7,619
1073,3	-7,476
1073,7	-13,448
1074,2	-13,733
1074,6	-11,219
1075	-15,248
1075,4	-13,105
1075,8	-9,133
1076,2	-9,733
1076,6	-0,59
1077	-2,79
1077,5	-0,019
1077,9	2,924
1078,3	3,81
1078,7	-2,476
1079,1	-4,248
1079,5	-7,305
1079,9	-0,876
1080,3	-2,248
1080,7	-2,076
1081,2	7,638
1081,6	11,895
1082	10,695
1082,4	14,581
1082,8	13,867
1083,2	10,867
1083,6	11,552
1084	3,952
1084,5	4,124
1084,9	3,752
1085,3	-2,705
1085,7	-5,648
1086,1	-9,362
1086,5	-10,448
1086,9	-10,733
1087,3	-10,19
1087,7	-7,962
1088,2	-5,905
1088,6	-5,419
1089	-0,619
1089,4	-2,676
1089,8	-4,276
1090,2	-4,819
1090,6	-5,79
1091	-1,99
1091,4	1,695
1091,9	2,61
1092,3	3,981
1092,7	4,724
1093,1	7,81
1093,5	9,438
1093,9	4,067
1094,3	4,981
1094,7	1,724
1095,1	4,295
1095,5	6,524
1096	2,067
1096,4	4,038
1096,8	6,781
1097,2	1,467
1097,6	6,638
1098	4,324
1098,4	5,238
1098,8	7,267
1099,2	8,752
1099,6	7,552
1100,1	7,581
1100,5	1,238
1100,9	4,038
1101,3	-0,99
1101,7	-3,39
1102,1	-4,79
1102,5	-1,162
1102,9	-0,505
1103,3	5,41
1103,7	6,467
1104,2	9,21
1104,6	10,038
1105	8,781
1105,4	5,524
1105,8	5,724
1106,2	2,781
1106,6	-0,505
1107	-0,676
1107,4	-0,267
1107,8	-1,653
1108,3	-0,583
