Data from Subt2_004.txt Node
Date: Sat Aug 26 16:10:24 MSK 2023
User: vat
Spectrometer: MAYP114033
Trigger mode: 0
Integration Time (sec): 1,000000E0
Scans to average: 5
Electric dark correction enabled: true
Nonlinearity correction enabled: false
Boxcar width: 3
XAxis mode: Wavelengths
Number of Pixels in Spectrum: 2068
>>>>>Begin Spectral Data<<<<<
199,4	-1,233
199,9	3,767
200,4	0,667
200,8	-0,033
201,3	-0,462
201,8	0,738
202,2	0,338
202,7	-0,49
203,2	-3,662
203,6	0,938
204,1	4,052
204,6	5,938
205	5,824
205,5	8,138
206	10,938
206,4	10,281
206,9	7,795
207,4	4,938
207,8	8,224
208,3	5,538
208,8	7,995
209,2	4,395
209,7	7,367
210,2	9,652
210,6	5,681
211,1	4,167
211,5	1,538
212	-2,976
212,5	1,252
212,9	2,281
213,4	0,738
213,9	6,024
214,3	2,538
214,8	11,195
215,3	12,024
215,7	9,824
216,2	7,567
216,7	11,567
217,1	10,51
217,6	10,881
218,1	7,424
218,5	4,567
219	-2,062
219,5	-0,119
219,9	-5,748
220,4	-2,262
220,9	-6,548
221,3	-4,662
221,8	-4,062
222,3	2,367
222,7	-0,805
223,2	1,195
223,6	1,338
224,1	3,024
224,6	-2,348
225	1,224
225,5	1,881
226	4,595
226,4	4,938
226,9	5,224
227,4	7,452
227,8	11,081
228,3	9,767
228,8	9,71
229,2	5,081
229,7	-0,576
230,2	-0,89
230,6	0,367
231,1	2,138
231,5	4,11
232	2,967
232,5	5,795
232,9	9,424
233,4	8,167
233,9	6,224
234,3	0,652
234,8	-1,348
235,3	1,71
235,7	-1,09
236,2	-2,69
236,7	-10,262
237,1	-7,09
237,6	-7,176
238,1	-7,633
238,5	-10,633
239	-0,062
239,4	2,852
239,9	5,11
240,4	5,138
240,8	9,052
241,3	11,052
241,8	10,767
242,2	1,738
242,7	3,767
243,2	7,51
243,6	7,624
244,1	7,138
244,6	6,452
245	3,795
245,5	8,395
245,9	7,91
246,4	11,51
246,9	12,567
247,3	12,567
247,8	12,681
248,3	14,281
248,7	11,938
249,2	11,424
249,7	10,224
250,1	12,31
250,6	12,424
251	9,224
251,5	15,224
252	16,395
252,4	21,424
252,9	17,681
253,4	15,138
253,8	12,795
254,3	15,738
254,8	14,11
255,2	8,624
255,7	-0,062
256,1	5,224
256,6	0,938
257,1	5,195
257,5	3,281
258	3,252
258,5	4,452
258,9	9,71
259,4	0,338
259,9	-3,148
260,3	-5,633
260,8	-2,662
261,2	-4,49
261,7	-7,033
262,2	-9,062
262,6	-6,233
263,1	1,995
263,6	1,167
264	2,91
264,5	2,738
264,9	9,567
265,4	7,252
265,9	9,995
266,3	5,167
266,8	5,652
267,3	-0,062
267,7	1,652
268,2	-0,89
268,7	-1,262
269,1	-2,748
269,6	-0,548
270	0,367
270,5	5,567
271	0,738
271,4	-0,49
271,9	3,51
272,4	5,967
272,8	8,31
273,3	12,11
273,7	10,395
274,2	12,681
274,7	16,767
275,1	19,167
275,6	16,024
276,1	16,538
276,5	10,824
277	8,224
277,4	11,224
277,9	7,052
278,4	4,024
278,8	3,824
279,3	0,824
279,8	4,138
280,2	5,024
280,7	2,538
281,1	1,595
281,6	-2,462
282,1	0,367
282,5	0,538
283	1,338
283,4	-0,462
283,9	-4,49
284,4	-6,176
284,8	-2,262
285,3	-4,433
285,8	-5,548
286,2	-9,005
286,7	-10,29
287,1	-3,719
287,6	-0,005
288,1	0,538
288,5	1,281
289	5,052
289,5	7,938
289,9	10,852
290,4	7,367
290,8	4,31
291,3	5,681
291,8	3,767
292,2	4,081
292,7	6,138
293,1	9,767
293,6	14,824
294,1	19,167
294,5	13,367
295	15,252
295,5	12,824
295,9	4,281
296,4	1,052
296,8	-1,09
297,3	-2,433
297,8	-0,548
298,2	-0,776
298,7	1,024
299,1	6,938
299,6	7,252
300,1	12,595
300,5	14,052
301	18,624
301,5	21,024
301,9	18,91
302,4	14,052
302,8	13,767
303,3	6,395
303,8	3,024
304,2	1,738
304,7	0,681
305,1	-4,233
305,6	0,11
306,1	-4,062
306,5	-5,605
307	-6,005
307,4	-11,548
307,9	-10,462
308,4	-4,833
308,8	-3,062
309,3	1,71
309,8	5,338
310,2	8,567
310,7	13,738
311,1	11,767
311,6	12,138
312,1	9,624
312,5	9,538
313	6,595
313,4	5,938
313,9	1,281
314,4	0,167
314,8	-2,348
315,3	-0,233
315,7	2,281
316,2	2,652
316,7	1,281
317,1	7,51
317,6	9,938
318	8,424
318,5	8,167
319	4,395
319,4	1,967
319,9	1,252
320,3	-1,919
320,8	-2,319
321,3	-0,662
321,7	-5,119
322,2	-4,948
322,6	-2,119
323,1	-0,776
323,6	-1,49
324	-0,69
324,5	2,31
324,9	4,281
325,4	5,795
325,9	5,767
326,3	7,938
326,8	9,624
327,2	9,281
327,7	5,51
328,2	1,738
328,6	-0,833
329,1	-2,319
329,5	-4,176
330	-7,976
330,5	-11,176
330,9	-8,148
331,4	-7,376
331,8	-5,348
332,3	-0,919
332,8	-0,062
333,2	-0,148
333,7	6,481
334,1	5,652
334,6	12,738
335,1	11,824
335,5	7,595
336	7,567
336,4	9,91
336,9	1,538
337,4	2,252
337,8	-1,976
338,3	-2,662
338,7	0,167
339,2	-0,233
339,7	-2,376
340,1	5,852
340,6	4,51
341	6,11
341,5	11,681
342	12,11
342,4	17,081
342,9	28,052
343,3	23,538
343,8	26,052
344,2	23,367
344,7	22,652
345,2	22,767
345,6	17,967
346,1	10,395
346,5	10,567
347	8,852
347,5	12,795
347,9	12,91
348,4	11,167
348,8	13,652
349,3	16,167
349,8	19,938
350,2	23,852
350,7	24,567
351,1	23,881
351,6	30,338
352	33,652
352,5	42,281
353	51,595
353,4	58,91
353,9	71,881
354,3	91,11
354,8	108,367
355,3	130,224
355,7	147,11
356,2	171,481
356,6	202,51
357,1	239,424
357,5	278,71
358	324,967
358,5	380,681
358,9	450,824
359,4	520,11
359,8	602,081
360,3	691,338
360,8	796,424
361,2	914,281
361,7	1040,91
362,1	1174,624
362,6	1328,081
363	1490,395
363,5	1664,424
364	1845,51
364,4	2029,195
364,9	2214,91
365,3	2400,738
365,8	2577,51
366,3	2741,281
366,7	2885,995
367,2	3009,024
367,6	3109,11
368,1	3188,281
368,5	3238,252
369	3260,367
369,5	3254,51
369,9	3235,252
370,4	3176,024
370,8	3104,081
371,3	3009,51
371,7	2892,967
372,2	2769,852
372,7	2638,195
373,1	2490,11
373,6	2353,538
374	2208,081
374,5	2063,138
374,9	1925,938
375,4	1790,567
375,9	1659,938
376,3	1529,967
376,8	1405,967
377,2	1287,938
377,7	1182,281
378,2	1083,452
378,6	988,767
379,1	903,31
379,5	827,624
380	758,595
380,4	694,224
380,9	634,938
381,4	580,852
381,8	535,11
382,3	494,367
382,7	459,91
383,2	426,51
383,6	398,681
384,1	370,252
384,6	340,424
385	312,767
385,5	292,91
385,9	268,367
386,4	248,195
386,8	231,51
387,3	213,138
387,7	201,995
388,2	190,052
388,7	173,795
389,1	162,767
389,6	151,538
390	140,938
390,5	134,167
390,9	122,567
391,4	119,024
391,9	112,852
392,3	106,567
392,8	98,31
393,2	86,767
393,7	77,595
394,1	78,195
394,6	70,71
395,1	60,195
395,5	62,138
396	62,738
396,4	62,652
396,9	62,081
397,3	56,795
397,8	54,11
398,2	59,11
398,7	49,824
399,2	48,881
399,6	42,738
400,1	39,424
400,5	39,052
401	34,024
401,4	29,767
401,9	33,91
402,4	37,024
402,8	42,967
403,3	43,995
403,7	48,281
404,2	56,481
404,6	59,367
405,1	56,538
405,5	53,91
406	50,538
406,5	55,71
406,9	55,281
407,4	51,052
407,8	55,824
408,3	57,967
408,7	57,995
409,2	68,052
409,6	71,652
410,1	78,452
410,6	86,367
411	89,167
411,5	99,795
411,9	110,938
412,4	120,395
412,8	127,567
413,3	133,71
413,7	143,995
414,2	152,71
414,7	157,567
415,1	159,767
415,6	166,681
416	170,824
416,5	181,967
416,9	190,367
417,4	199,052
417,8	209,367
418,3	221,71
418,8	233,824
419,2	250,252
419,7	260,167
420,1	272,995
420,6	288,795
421	300,852
421,5	319,424
421,9	328,738
422,4	342,252
422,8	357,91
423,3	372,852
423,8	389,795
424,2	413,595
424,7	433,281
425,1	457,995
425,6	480,052
426	502,567
426,5	531,167
426,9	555,11
427,4	580,252
427,9	603,995
428,3	637,652
428,8	669,681
429,2	698,852
429,7	729,938
430,1	769,224
430,6	806,052
431	846,452
431,5	881,51
431,9	923,738
432,4	971,767
432,8	1011,424
433,3	1059,538
433,8	1109,338
434,2	1160,91
434,7	1211,995
435,1	1275,11
435,6	1332,995
436	1399,224
436,5	1461,738
436,9	1526,91
437,4	1595,367
437,8	1671,252
438,3	1739,967
438,8	1821,938
439,2	1905,452
439,7	1985,938
440,1	2072,338
440,6	2162,995
441	2259,538
441,5	2357,995
441,9	2459,652
442,4	2563,938
442,8	2674,281
443,3	2790,367
443,7	2910,881
444,2	3022,595
444,7	3145,538
445,1	3265,91
445,6	3394,738
446	3528,881
446,5	3665,052
446,9	3798,51
447,4	3952,538
447,8	4102,424
448,3	4248,367
448,7	4404,51
449,2	4557,138
449,6	4714,138
450,1	4885,081
450,6	5050,91
451	5213,252
451,5	5392,052
451,9	5568,967
452,4	5748,424
452,8	5941,795
453,3	6126,938
453,7	6320,11
454,2	6523,138
454,6	6726,738
455,1	6927,938
455,5	7131,738
456	7335,738
456,4	7542,367
456,9	7753,567
457,3	7958,995
457,8	8165,567
458,3	8375,252
458,7	8608,11
459,2	8831,795
459,6	9054,681
460,1	9279,852
460,5	9511,938
461	9752,51
461,4	9990,738
461,9	10223,767
462,3	10450,424
462,8	10691,881
463,2	10923,338
463,7	11160,338
464,1	11393,224
464,6	11636,967
465	11863,852
465,5	12115,795
466	12355,395
466,4	12583,11
466,9	12811,31
467,3	13045,395
467,8	13276,881
468,2	13512,652
468,7	13735,452
469,1	13957,852
469,6	14193,395
470	14424,395
470,5	14648,081
470,9	14873,681
471,4	15093,652
471,8	15312,567
472,3	15529,052
472,7	15746,367
473,2	15946,681
473,6	16141,852
474,1	16328,881
474,5	16527,967
475	16717,995
475,4	16913,938
475,9	17094,738
476,4	17287,967
476,8	17469,538
477,3	17646,91
477,7	17820,195
478,2	17964,024
478,6	18111,424
479,1	18258,881
479,5	18397,081
480	18532,51
480,4	18672,11
480,9	18781,567
481,3	18921,195
481,8	19040,681
482,2	19154,224
482,7	19261,367
483,1	19368,595
483,6	19454,91
484	19546,567
484,5	19623,595
484,9	19694,052
485,4	19759,081
485,8	19817,024
486,3	19870,938
486,7	19924,738
487,2	19973,91
487,6	20014,681
488,1	20052,567
488,5	20076,11
489	20103,11
489,4	20114,852
489,9	20112,881
490,4	20104,652
490,8	20094,567
491,3	20074,167
491,7	20053,681
492,2	20032,224
492,6	20003,624
493,1	19965,681
493,5	19916,881
494	19868,167
494,4	19799,452
494,9	19739,681
495,3	19673,052
495,8	19602,71
496,2	19542,11
496,7	19483,052
497,1	19406,681
497,6	19349,281
498	19281,71
498,5	19190,938
498,9	19106,995
499,4	19016,167
499,8	18917,652
500,3	18817,681
500,7	18721,281
501,2	18619,138
501,6	18525,224
502,1	18420,824
502,5	18312,338
503	18207,195
503,4	18107,138
503,9	17988,51
504,3	17865,367
504,8	17738,967
505,2	17619,51
505,7	17493,71
506,1	17375,738
506,6	17241,51
507	17112,281
507,5	16983,424
507,9	16854,367
508,4	16716,881
508,8	16573,967
509,3	16408,024
509,7	16270,224
510,2	16129,11
510,6	15989,881
511,1	15855,538
511,5	15711,881
512	15571,424
512,4	15450,338
512,9	15305,395
513,3	15154,71
513,8	15006,767
514,2	14842,224
514,7	14688,91
515,1	14544,367
515,6	14392,31
516	14245,424
516,5	14097,938
516,9	13941,795
517,4	13809,367
517,8	13671,652
518,3	13533,167
518,7	13383,91
519,2	13243,51
519,6	13118,824
520,1	12985,395
520,5	12844,052
521	12702,824
521,4	12568,138
521,9	12437,91
522,3	12303,681
522,8	12157,31
523,2	12030,452
523,7	11903,567
524,1	11779,481
524,6	11647,338
525	11523,567
525,5	11393,452
525,9	11274,452
526,4	11153,452
526,8	11017,881
527,3	10888,11
527,7	10765,11
528,2	10644,852
528,6	10531,567
529,1	10406,567
529,5	10277,881
530	10161,624
530,4	10057,738
530,9	9941,338
531,3	9829,338
531,8	9711,567
532,2	9611,595
532,6	9517,681
533,1	9418,481
533,5	9313,281
534	9210,367
534,4	9109,938
534,9	9010,167
535,3	8903,11
535,8	8805,881
536,2	8715,138
536,7	8620,367
537,1	8531,367
537,6	8443,081
538	8356,281
538,5	8266,338
538,9	8168,881
539,4	8070,452
539,8	7990,138
540,3	7902,081
540,7	7816,681
541,2	7735,881
541,6	7655,481
542,1	7576,938
542,5	7508,71
543	7423,481
543,4	7354,595
543,9	7281,538
544,3	7204,052
544,8	7137,567
545,2	7066,767
545,7	6991,281
546,1	6921,252
546,5	6845,081
547	6775,252
547,4	6708,338
547,9	6641,395
548,3	6577,052
548,8	6516,167
549,2	6459,738
549,7	6401,71
550,1	6347,252
550,6	6287,395
551	6229,852
551,5	6176,11
551,9	6123,052
552,4	6057,424
552,8	6003,138
553,3	5942,395
553,7	5900,567
554,2	5847,395
554,6	5794,052
555,1	5741,367
555,5	5698,138
555,9	5654,652
556,4	5605,281
556,8	5548,71
557,3	5498,567
557,7	5451,424
558,2	5405,31
558,6	5357,424
559,1	5309,024
559,5	5264,795
560	5224,681
560,4	5191,252
560,9	5153,167
561,3	5111,652
561,8	5078,967
562,2	5032,738
562,7	4996,31
563,1	4958,224
563,6	4920,11
564	4879,481
564,4	4836,595
564,9	4790,367
565,3	4752,595
565,8	4720,91
566,2	4686,71
566,7	4644,167
567,1	4603,824
567,6	4575,91
568	4543,252
568,5	4507,281
568,9	4463,567
569,4	4423,424
569,8	4394,51
570,3	4371,081
570,7	4341,167
571,1	4316,652
571,6	4290,138
572	4261,395
572,5	4235,71
572,9	4199,052
573,4	4164,51
573,8	4132,624
574,3	4094,824
574,7	4068,71
575,2	4039,652
575,6	4009,595
576,1	3989,024
576,5	3961,538
576,9	3932,824
577,4	3904,738
577,8	3876,852
578,3	3854,767
578,7	3830,338
579,2	3802,652
579,6	3777,081
580,1	3747,995
580,5	3726,995
581	3701,824
581,4	3676,595
581,9	3650,824
582,3	3619,081
582,7	3593,081
583,2	3571,195
583,6	3545,024
584,1	3523,967
584,5	3497,51
585	3474,224
585,4	3456,738
585,9	3433,738
586,3	3411,481
586,8	3393,738
587,2	3363,738
587,6	3340,367
588,1	3320,395
588,5	3291,138
589	3267,824
589,4	3247,995
589,9	3227,881
590,3	3216,367
590,8	3193,452
591,2	3171,595
591,7	3157,367
592,1	3144,795
592,5	3123,91
593	3097,538
593,4	3078,767
593,9	3071,881
594,3	3044,767
594,8	3028,938
595,2	3012,681
595,7	2997,824
596,1	2979,91
596,6	2964,338
597	2942,281
597,4	2931,167
597,9	2918,595
598,3	2893,481
598,8	2871,938
599,2	2858,652
599,7	2844,395
600,1	2822,681
600,6	2808,51
601	2790,252
601,4	2783,338
601,9	2776,51
602,3	2764,795
602,8	2743,024
603,2	2733,281
603,7	2718,338
604,1	2699,738
604,6	2685,681
605	2671,252
605,4	2656,424
605,9	2649,367
606,3	2634,424
606,8	2621,51
607,2	2607,995
607,7	2588,852
608,1	2573,195
608,6	2559,452
609	2539,881
609,4	2518,967
609,9	2507,367
610,3	2492,91
610,8	2485,595
611,2	2467,624
611,7	2446,224
612,1	2433,252
612,6	2429,195
613	2409,995
613,4	2400,11
613,9	2380,395
614,3	2366,052
614,8	2359,595
615,2	2346,338
615,7	2334,11
616,1	2322,052
616,6	2308,424
617	2293,738
617,4	2276,567
617,9	2259,824
618,3	2240,081
618,8	2222,852
619,2	2210,881
619,7	2198,195
620,1	2180,995
620,5	2171,452
621	2158,281
621,4	2156,767
621,9	2147,195
622,3	2134,681
622,8	2121,795
623,2	2113,367
623,6	2102,252
624,1	2087,852
624,5	2067,167
625	2051,824
625,4	2037,51
625,9	2022,281
626,3	2008,624
626,8	1996,195
627,2	1984,338
627,6	1971,624
628,1	1954,538
628,5	1943,595
629	1930,481
629,4	1917,481
629,9	1906,652
630,3	1893,595
630,7	1878,395
631,2	1864,452
631,6	1850,167
632,1	1839,281
632,5	1830,767
633	1815,338
633,4	1811,595
633,8	1805,252
634,3	1794,11
634,7	1788,795
635,2	1768,481
635,6	1758,424
636,1	1744,51
636,5	1723,538
636,9	1704,395
637,4	1695,195
637,8	1674,71
638,3	1665,795
638,7	1648,881
639,2	1640,367
639,6	1634,567
640	1632,424
640,5	1621,224
640,9	1615,367
641,4	1609,252
641,8	1603,281
642,2	1595,138
642,7	1588,852
643,1	1574,281
643,6	1567,224
644	1559,395
644,5	1550,824
644,9	1540,938
645,3	1531,024
645,8	1511,452
646,2	1502,995
646,7	1492,281
647,1	1483,481
647,6	1465,738
648	1453,624
648,4	1445,51
648,9	1445,652
649,3	1438,681
649,8	1431,195
650,2	1425,452
650,6	1425,681
651,1	1423,852
651,5	1410,195
652	1400,195
652,4	1390,481
652,9	1380,195
653,3	1367,624
653,7	1354,652
654,2	1338,395
654,6	1327,995
655,1	1316,91
655,5	1308,967
655,9	1299,338
656,4	1290,767
656,8	1285,624
657,3	1278,881
657,7	1274,595
658,2	1267,31
658,6	1258,281
659	1253,195
659,5	1239,452
659,9	1231,881
660,4	1225,11
660,8	1214,481
661,2	1203,652
661,7	1196,595
662,1	1188,881
662,6	1184,138
663	1177,11
663,4	1168,824
663,9	1167,51
664,3	1164,567
664,8	1155,081
665,2	1146,652
665,6	1142,281
666,1	1136,624
666,5	1125,652
667	1115,367
667,4	1106,024
667,9	1096,738
668,3	1089,338
668,7	1074,71
669,2	1065,51
669,6	1060,538
670,1	1052,11
670,5	1041,824
670,9	1034,167
671,4	1027,881
671,8	1025,624
672,3	1011,852
672,7	1004,967
673,1	998,167
673,6	991,481
674	982,767
674,5	970,681
674,9	962,824
675,3	961,567
675,8	952,567
676,2	944,424
676,7	936,281
677,1	931,795
677,5	926,338
678	920,424
678,4	912,11
678,9	906,167
679,3	901,281
679,7	895,567
680,2	892,081
680,6	884,567
681,1	876,167
681,5	868,31
681,9	862,567
682,4	857,567
682,8	852,738
683,3	844,881
683,7	836,395
684,1	828,824
684,6	822,767
685	811,852
685,5	803,167
685,9	794,938
686,3	787,852
686,8	785,052
687,2	784,195
687,7	781,938
688,1	782,71
688,5	774,538
689	769,31
689,4	763,91
689,9	762,652
690,3	752,31
690,7	744,738
691,2	741,595
691,6	740,71
692	734,224
692,5	731,881
692,9	721,138
693,4	715,824
693,8	703,081
694,2	694,081
694,7	687,595
695,1	685,252
695,6	681,681
696	681,252
696,4	678,967
696,9	684,338
697,3	675,967
697,8	670,681
698,2	668,167
698,6	661,51
699,1	657,71
699,5	654,167
699,9	653,567
700,4	652,852
700,8	647,024
701,3	637,51
701,7	630,424
702,1	624,967
702,6	619,567
703	604,795
703,5	597,795
703,9	594,281
704,3	591,481
704,8	586,024
705,2	577,252
705,6	571,881
706,1	572,252
706,5	567,024
707	566,71
707,4	561,224
707,8	561,395
708,3	560,681
708,7	560,11
709,2	551,995
709,6	550,995
710	543,538
710,5	540,567
710,9	533,567
711,3	530,395
711,8	525,11
712,2	528,624
712,7	526,452
713,1	523,395
713,5	521,51
714	521,91
714,4	516,281
714,8	508,824
715,3	504,367
715,7	491,995
716,2	487,795
716,6	483,881
717	474,652
717,5	470,681
717,9	466,424
718,3	457,224
718,8	459,452
719,2	450,595
719,7	447,367
720,1	443,51
720,5	437,738
721	438,91
721,4	436,938
721,8	436,452
722,3	436,224
722,7	430,995
723,2	429,481
723,6	426,681
724	422,367
724,5	416,624
724,9	412,824
725,3	411,052
725,8	405,852
726,2	402,767
726,7	403,252
727,1	398,738
727,5	397,395
728	388,024
728,4	386,424
728,8	380,938
729,3	378,852
729,7	372,424
730,1	367,738
730,6	367,852
731	368,481
731,5	364,767
731,9	364,967
732,3	363,481
732,8	363,938
733,2	365,138
733,6	366,367
734,1	366,395
734,5	361,681
734,9	358,195
735,4	348,652
735,8	344,024
736,3	340,452
736,7	334,881
737,1	333,367
737,6	333,167
738	332,767
738,4	339,71
738,9	341,281
739,3	341,481
739,7	340,767
740,2	341,424
740,6	340,738
741,1	341,995
741,5	334,881
741,9	326,281
742,4	323,224
742,8	319,395
743,2	311,71
743,7	310,538
744,1	309,024
744,5	307,938
745	313,51
745,4	308,91
745,8	307,567
746,3	305,538
746,7	302,767
747,2	294,824
747,6	296,31
748	290,852
748,5	286,91
748,9	284,338
749,3	283,31
749,8	281,91
750,2	284,767
750,6	283,024
751,1	281,881
751,5	286,824
751,9	285,424
752,4	281,995
752,8	275,138
753,3	276,224
753,7	271,767
754,1	269,395
754,6	265,081
755	264,481
755,4	260,938
755,9	261,31
756,3	259,538
756,7	255,052
757,2	252,338
757,6	248,195
758	243,91
758,5	246,367
758,9	247,51
759,3	244,138
759,8	245,91
760,2	243,538
760,6	243,681
761,1	242,367
761,5	241,567
761,9	237,252
762,4	234,024
762,8	231,652
763,3	232,995
763,7	224,767
764,1	223,081
764,6	218,138
765	221,167
765,4	217,395
765,9	216,71
766,3	214,824
766,7	216,138
767,2	216,052
767,6	219,91
768	216,367
768,5	218,938
768,9	209,624
769,3	206,767
769,8	209,595
770,2	204,252
770,6	195,195
771,1	189,767
771,5	180,824
771,9	187,681
772,4	186,424
772,8	182,224
773,2	184,824
773,7	185,681
774,1	186,795
774,5	194,052
775	190,567
775,4	190,31
775,8	191,881
776,3	192,795
776,7	193,138
777,1	190,395
777,6	185,824
778	185,452
778,4	182,452
778,9	180,595
779,3	172,452
779,7	174,395
780,2	176,081
780,6	176,795
781	178,71
781,5	179,252
781,9	180,338
782,3	186,024
782,8	184,138
783,2	186,538
783,6	185,052
784,1	177,052
784,5	175,138
784,9	172,167
785,4	163,538
785,8	169,195
786,2	165,881
786,7	161,31
787,1	159,538
787,5	157,795
788	154,738
788,4	157,138
788,8	149,11
789,3	144,195
789,7	147,338
790,1	149,738
790,6	144,538
791	146,31
791,4	141,795
791,9	139,71
792,3	141,824
792,7	143,424
793,2	143,224
793,6	147,51
794	148,281
794,5	152,967
794,9	153,624
795,3	152,31
795,8	148,938
796,2	149,967
796,6	148,224
797,1	151,51
797,5	149,395
797,9	144,538
798,4	138,424
798,8	134,938
799,2	134,995
799,7	134,31
800,1	128,624
800,5	127,938
801	127,795
801,4	132,652
801,8	135,91
802,2	133,681
802,7	135,91
803,1	133,681
803,5	130,11
804	134,11
804,4	129,424
804,8	125,424
805,3	123,281
805,7	114,195
806,1	113,995
806,6	114,024
807	108,71
807,4	113,395
807,9	112,31
808,3	108,852
808,7	110,424
809,2	106,824
809,6	107,081
810	109,024
810,4	103,738
810,9	104,938
811,3	102,652
811,7	107,767
812,2	108,138
812,6	102,452
813	96,424
813,5	95,081
813,9	93,652
814,3	99,852
814,8	99,281
815,2	97,224
815,6	99,738
816,1	100,995
816,5	104,567
816,9	98,652
817,3	94,395
817,8	92,995
818,2	94,367
818,6	96,71
819,1	97,252
819,5	93,938
819,9	98,395
820,4	97,11
820,8	95,538
821,2	93,681
821,7	91,424
822,1	94,167
822,5	95,424
822,9	96,195
823,4	96,367
823,8	97,91
824,2	97,967
824,7	97,538
825,1	96,367
825,5	92,338
826	90,71
826,4	90,995
826,8	83,71
827,3	82,31
827,7	80,195
828,1	77,11
828,5	82,252
829	74,852
829,4	73,595
829,8	77,452
830,3	76,024
830,7	73,71
831,1	74,967
831,6	71,167
832	70,681
832,4	68,452
832,8	68,138
833,3	70,595
833,7	71,595
834,1	71,767
834,6	70,395
835	76,11
835,4	83,052
835,8	81,995
836,3	76,91
836,7	77,538
837,1	68,852
837,6	67,538
838	63,595
838,4	54,31
838,9	49,367
839,3	54,824
839,7	52,224
840,1	60,481
840,6	62,967
841	64,51
841,4	68,738
841,9	68,567
842,3	65,824
842,7	68,252
843,1	65,681
843,6	67,71
844	68,91
844,4	67,167
844,9	68,738
845,3	65,91
845,7	64,967
846,2	59,452
846,6	52,795
847	49,538
847,4	44,338
847,9	43,31
848,3	41,538
848,7	40,852
849,2	44,881
849,6	43,024
850	43,138
850,4	44,024
850,9	47,824
851,3	49,224
851,7	50,538
852,2	46,195
852,6	49,11
853	50,167
853,4	50,624
853,9	50,081
854,3	51,138
854,7	44,195
855,2	48,138
855,6	44,881
856	41,995
856,4	45,652
856,9	44,567
857,3	42,881
857,7	50,595
858,2	48,481
858,6	49,138
859	49,481
859,4	45,71
859,9	43,081
860,3	45,738
860,7	42,481
861,1	42,71
861,6	45,081
862	46,338
862,4	45,852
862,9	46,452
863,3	44,395
863,7	40,852
864,1	43,595
864,6	45,167
865	43,395
865,4	45,224
865,9	45,281
866,3	41,481
866,7	41,967
867,1	34,881
867,6	25,424
868	20,938
868,4	19,452
868,8	19,452
869,3	27,31
869,7	29,224
870,1	30,052
870,6	34,31
871	19,224
871,4	21,767
871,8	21,11
872,3	12,424
872,7	11,567
873,1	14,224
873,5	14,852
874	36,824
874,4	32,338
874,8	27,31
875,3	29,767
875,7	27,081
876,1	26,31
876,5	25,995
877	20,91
877,4	18,71
877,8	20,538
878,2	16,567
878,7	19,967
879,1	19,31
879,5	23,624
879,9	20,11
880,4	24,395
880,8	22,824
881,2	24,338
881,7	21,91
882,1	23,795
882,5	21,252
882,9	28,138
883,4	28,11
883,8	24,738
884,2	29,281
884,6	32,167
885,1	29,91
885,5	29,138
885,9	24,767
886,3	20,852
886,8	28,081
887,2	26,767
887,6	22,31
888	23,167
888,5	22,138
888,9	23,052
889,3	29,138
889,8	30,481
890,2	25,567
890,6	27,024
891	26,395
891,5	22,395
891,9	20,938
892,3	14,252
892,7	11,11
893,2	13,195
893,6	9,995
894	8,338
894,4	9,595
894,9	11,567
895,3	10,881
895,7	13,652
896,1	10,024
896,6	16,281
897	15,167
897,4	15,995
897,8	19,167
898,3	22,91
898,7	19,024
899,1	23,567
899,5	18,967
900	22,367
900,4	24,995
900,8	19,824
901,2	18,767
901,7	18,138
902,1	16,91
902,5	18,167
902,9	16,652
903,4	13,652
903,8	15,652
904,2	13,424
904,6	15,795
905,1	14,967
905,5	15,595
905,9	17,881
906,3	18,738
906,8	11,538
907,2	12,51
907,6	8,052
908	8,281
908,5	8,538
908,9	4,024
909,3	2,995
909,7	7,195
910,2	8,195
910,6	13,081
911	14,795
911,4	11,767
911,9	11,395
912,3	13,738
912,7	17,138
913,1	16,624
913,6	12,652
914	13,31
914,4	16,11
914,8	18,024
915,3	18,652
915,7	18,11
916,1	20,71
916,5	19,881
916,9	24,31
917,4	22,624
917,8	23,795
918,2	19,252
918,6	22,938
919,1	17,738
919,5	20,852
919,9	14,481
920,3	15,195
920,8	13,31
921,2	15,967
921,6	12,395
922	14,081
922,5	12,91
922,9	14,967
923,3	16,31
923,7	16,424
924,2	18,138
924,6	14,567
925	17,967
925,4	18,51
925,8	14,338
926,3	12,31
926,7	17,31
927,1	14,138
927,5	16,595
928	18,881
928,4	17,081
928,8	17,538
929,2	20,538
929,7	19,052
930,1	21,281
930,5	24,31
930,9	23,281
931,3	26,538
931,8	26,881
932,2	25,71
932,6	22,967
933	18,081
933,5	11,91
933,9	7,252
934,3	2,995
934,7	0,967
935,2	-2,548
935,6	-3,576
936	0,024
936,4	3,31
936,8	1,91
937,3	5,767
937,7	8,881
938,1	10,367
938,5	5,938
939	5,024
939,4	4,51
939,8	5,195
940,2	1,738
940,6	-0,148
941,1	1,91
941,5	5,481
941,9	7,052
942,3	8,31
942,8	10,11
943,2	11,338
943,6	12,852
944	11,024
944,4	13,567
944,9	10,91
945,3	8,995
945,7	6,881
946,1	-0,233
946,6	0,967
947	-0,919
947,4	0,281
947,8	-2,005
948,2	-1,548
948,7	-0,119
949,1	8,11
949,5	6,767
949,9	9,71
950,3	7,967
950,8	7,052
951,2	6,31
951,6	7,624
952	6,452
952,5	5,681
952,9	5,395
953,3	0,738
953,7	6,11
954,1	5,338
954,6	4,738
955	5,767
955,4	7,91
955,8	1,824
956,2	4,595
956,7	5,995
957,1	7,91
957,5	3,91
957,9	2,481
958,3	1,795
958,8	8,052
959,2	7,681
959,6	7,081
960	9,51
960,5	12,967
960,9	12,824
961,3	13,31
961,7	9,71
962,1	6,424
962,6	4,51
963	3,595
963,4	3,138
963,8	4,138
964,2	-1,033
964,7	-2,29
965,1	3,395
965,5	-0,89
965,9	-3,462
966,3	-1,862
966,8	-4,519
967,2	0,367
967,6	6,738
968	3,71
968,4	6,624
968,9	7,11
969,3	9,367
969,7	15,081
970,1	14,51
970,5	13,652
971	12,338
971,4	13,967
971,8	11,681
972,2	8,652
972,6	4,224
973,1	3,881
973,5	-0,062
973,9	1,052
974,3	3,138
974,7	5,681
975,2	4,995
975,6	9,481
976	4,224
976,4	5,424
976,8	10,11
977,3	6,738
977,7	3,71
978,1	2,338
978,5	-2,576
978,9	-0,119
979,4	-0,319
979,8	-6,262
980,2	-8,662
980,6	-6,148
981	-4,348
981,5	-7,719
981,9	-4,576
982,3	-0,862
982,7	0,938
983,1	2,167
983,6	2,995
984	-1,49
984,4	4,852
984,8	4,652
985,2	0,424
985,6	-1,205
986,1	1,195
986,5	-0,376
986,9	-0,576
987,3	0,824
987,7	0,338
988,2	2,938
988,6	3,252
989	2,995
989,4	2,51
989,8	4,424
990,3	0,452
990,7	1,195
991,1	-5,176
991,5	-0,09
991,9	-2,433
992,3	2,395
992,8	-2,062
993,2	-2,662
993,6	-4,69
994	-0,376
994,4	-2,662
994,9	0,91
995,3	0,481
995,7	5,11
996,1	6,567
996,5	3,995
996,9	5,595
997,4	4,281
997,8	4,138
998,2	-2,405
998,6	-4,662
999	-7,462
999,5	-1,462
999,9	0,595
1000,3	1,652
1000,7	-0,005
1001,1	6,252
1001,5	7,452
1002	11,338
1002,4	6,795
1002,8	0,938
1003,2	-2,49
1003,6	-0,033
1004	0,481
1004,5	0,595
1004,9	1,224
1005,3	-1,148
1005,7	0,51
1006,1	2,052
1006,6	-0,89
1007	-2,548
1007,4	-0,119
1007,8	-3,005
1008,2	4,824
1008,6	4,881
1009,1	5,738
1009,5	5,167
1009,9	3,367
1010,3	0,938
1010,7	2,795
1011,1	-4,319
1011,6	2,452
1012	2,595
1012,4	4,995
1012,8	3,367
1013,2	3,11
1013,6	0,538
1014,1	5,424
1014,5	-4,405
1014,9	-2,348
1015,3	-2,405
1015,7	0,224
1016,1	2,71
1016,6	6,652
1017	8,367
1017,4	14,452
1017,8	17,167
1018,2	10,395
1018,6	12,967
1019,1	12,71
1019,5	10,024
1019,9	3,91
1020,3	-0,662
1020,7	-7,862
1021,1	-7,348
1021,6	-8,062
1022	-5,833
1022,4	-6,29
1022,8	-4,833
1023,2	4,481
1023,6	4,71
1024,1	9,91
1024,5	3,081
1024,9	0,51
1025,3	3,967
1025,7	2,538
1026,1	-5,605
1026,6	-6,89
1027	-5,776
1027,4	-2,662
1027,8	0,767
1028,2	-2,433
1028,6	-1,033
1029	-3,748
1029,5	-0,548
1029,9	-7,29
1030,3	-8,833
1030,7	-7,776
1031,1	-8,833
1031,5	-9,262
1032	-5,919
1032,4	-5,348
1032,8	-0,348
1033,2	3,081
1033,6	1,51
1034	4,252
1034,4	9,595
1034,9	10,881
1035,3	11,138
1035,7	11,767
1036,1	12,881
1036,5	11,138
1036,9	11,367
1037,4	9,738
1037,8	9,081
1038,2	12,052
1038,6	11,024
1039	3,424
1039,4	3,081
1039,8	4,052
1040,3	2,852
1040,7	4,11
1041,1	1,252
1041,5	0,252
1041,9	7,11
1042,3	8,967
1042,7	8,11
1043,2	9,938
1043,6	7,995
1044	5,167
1044,4	10,595
1044,8	8,281
1045,2	2,767
1045,6	2,995
1046,1	-0,976
1046,5	0,024
1046,9	9,31
1047,3	3,452
1047,7	8,11
1048,1	12,995
1048,5	11,881
1049	16,395
1049,4	16,767
1049,8	3,852
1050,2	5,91
1050,6	-0,519
1051	-2,519
1051,4	-1,319
1051,9	-8,062
1052,3	-7,119
1052,7	-0,719
1053,1	0,338
1053,5	2,795
1053,9	3,224
1054,3	6,624
1054,8	10,252
1055,2	10,167
1055,6	7,367
1056	6,224
1056,4	11,11
1056,8	15,024
1057,2	10,767
1057,6	7,481
1058,1	3,538
1058,5	4,71
1058,9	7,167
1059,3	8,51
1059,7	6,367
1060,1	8,51
1060,5	14,567
1061	16,424
1061,4	13,681
1061,8	12,538
1062,2	6,081
1062,6	3,595
1063	4,024
1063,4	5,081
1063,8	1,138
1064,3	7,081
1064,7	8,91
1065,1	11,938
1065,5	11,452
1065,9	7,595
1066,3	6,195
1066,7	8,081
1067,1	9,024
1067,6	9,538
1068	7,824
1068,4	6,824
1068,8	4,167
1069,2	1,138
1069,6	1,824
1070	-4,376
1070,4	-5,719
1070,9	-12,119
1071,3	-8,462
1071,7	0,138
1072,1	-0,433
1072,5	3,881
1072,9	8,595
1073,3	2,852
1073,7	9,138
1074,2	12,281
1074,6	3,367
1075	5,424
1075,4	5,424
1075,8	2,91
1076,2	9,424
1076,6	7,367
1077	2,652
1077,5	9,224
1077,9	7,995
1078,3	4,452
1078,7	4,224
1079,1	-0,262
1079,5	-0,062
1079,9	-0,548
1080,3	-6,805
1080,7	-4,776
1081,2	-6,719
1081,6	-5,319
1082	-8,062
1082,4	-4,576
1082,8	-3,633
1083,2	-1,605
1083,6	-3,805
1084	2,281
1084,5	2,338
1084,9	7,852
1085,3	2,452
1085,7	4,224
1086,1	11,224
1086,5	7,424
1086,9	6,738
1087,3	7,481
1087,7	2,052
1088,2	4,71
1088,6	2,51
1089	-0,805
1089,4	1,538
1089,8	-4,148
1090,2	-8,148
1090,6	-5,262
1091	-3,176
1091,4	-6,062
1091,9	-7,919
1092,3	-2,719
1092,7	-4,376
1093,1	3,31
1093,5	5,081
1093,9	5,138
1094,3	9,567
1094,7	8,51
1095,1	11,024
1095,5	16,767
1096	14,11
1096,4	14,538
1096,8	12,852
1097,2	13,195
1097,6	14,91
1098	9,738
1098,4	8,195
1098,8	1,052
1099,2	-1,433
1099,6	-0,319
1100,1	-2,69
1100,5	-5,062
1100,9	-7,719
1101,3	-9,548
1101,7	-2,548
1102,1	-0,29
1102,5	-0,89
1102,9	1,795
1103,3	0,51
1103,7	3,338
1104,2	5,967
1104,6	2,595
1105	2,538
1105,4	-0,005
1105,8	-2,262
1106,2	-0,09
1106,6	-1,033
1107	-0,919
1107,4	0,2
1107,8	-1,513
1108,3	0,467
