Data from Subt2_070.txt Node
Date: Sat Aug 26 16:34:24 MSK 2023
User: vat
Spectrometer: MAYP114033
Trigger mode: 0
Integration Time (sec): 1,000000E0
Scans to average: 5
Electric dark correction enabled: true
Nonlinearity correction enabled: false
Boxcar width: 3
XAxis mode: Wavelengths
Number of Pixels in Spectrum: 2068
>>>>>Begin Spectral Data<<<<<
199,4	-0,283
199,9	-1,953
200,4	-4,567
200,8	-4,633
201,3	-2,433
201,8	-0,805
202,2	0,91
202,7	0,938
203,2	1,224
203,6	4,624
204,1	9,595
204,6	10,91
205	11,024
205,5	6,624
206	10,767
206,4	11,338
206,9	10,138
207,4	6,738
207,8	0,224
208,3	-2,033
208,8	3,624
209,2	2,595
209,7	2,424
210,2	8,881
210,6	7,91
211,1	11,052
211,5	10,91
212	4,424
212,5	-1,805
212,9	-1,262
213,4	-5,205
213,9	-4,89
214,3	-3,862
214,8	-1,119
215,3	3,881
215,7	6,71
216,2	8,11
216,7	5,424
217,1	6,224
217,6	5,938
218,1	6,024
218,5	6,51
219	12,252
219,5	8,824
219,9	8,738
220,4	7,081
220,9	9,11
221,3	8,338
221,8	5,51
222,3	-0,033
222,7	5,452
223,2	7,681
223,6	7,138
224,1	6,881
224,6	3,738
225	4,767
225,5	10,624
226	7,252
226,4	8,852
226,9	8,652
227,4	9,738
227,8	15,052
228,3	19,11
228,8	11,767
229,2	13,195
229,7	6,624
230,2	12,024
230,6	11,052
231,1	8,081
231,5	9,795
232	18,652
232,5	17,995
232,9	24,31
233,4	18,852
233,9	17,424
234,3	18,167
234,8	10,967
235,3	6,052
235,7	10,595
236,2	7,481
236,7	9,852
237,1	9,681
237,6	12,567
238,1	17,538
238,5	16,31
239	11,767
239,4	18,51
239,9	18,31
240,4	17,252
240,8	15,052
241,3	9,852
241,8	7,995
242,2	4,081
242,7	-4,262
243,2	-4,748
243,6	-2,49
244,1	-3,205
244,6	-1,148
245	0,424
245,5	4,195
245,9	4,195
246,4	1,195
246,9	-1,005
247,3	-2,119
247,8	-0,805
248,3	1,995
248,7	5,824
249,2	4,767
249,7	6,338
250,1	7,224
250,6	6,681
251	5,367
251,5	-0,005
252	-3,49
252,4	1,081
252,9	4,51
253,4	6,938
253,8	5,31
254,3	6,081
254,8	8,424
255,2	7,31
255,7	7,281
256,1	2,938
256,6	-3,262
257,1	4,31
257,5	6,624
258	5,595
258,5	6,681
258,9	5,11
259,4	8,681
259,9	15,052
260,3	7,338
260,8	4,31
261,2	10,424
261,7	10,824
262,2	11,424
262,6	10,281
263,1	8,281
263,6	12,224
264	11,338
264,5	7,252
264,9	7,31
265,4	8,367
265,9	11,51
266,3	11,252
266,8	8,967
267,3	9,481
267,7	11,138
268,2	7,595
268,7	4,452
269,1	-2,205
269,6	1,567
270	6,252
270,5	8,852
271	7,138
271,4	10,281
271,9	13,738
272,4	16,91
272,8	8,138
273,3	4,624
273,7	-1,005
274,2	-0,605
274,7	1,424
275,1	-3,062
275,6	-0,976
276,1	4,338
276,5	4,395
277	10,995
277,4	11,852
277,9	4,281
278,4	9,538
278,8	12,71
279,3	11,081
279,8	14,795
280,2	9,252
280,7	7,481
281,1	16,338
281,6	15,395
282,1	10,51
282,5	11,595
283	9,195
283,4	11,252
283,9	8,652
284,4	2,31
284,8	2,567
285,3	3,167
285,8	1,224
286,2	-0,805
286,7	-2,233
287,1	-1,319
287,6	5,252
288,1	5,052
288,5	4,51
289	9,195
289,5	7,424
289,9	10,681
290,4	8,967
290,8	9,938
291,3	7,881
291,8	9,538
292,2	10,71
292,7	14,681
293,1	12,024
293,6	17,738
294,1	8,738
294,5	13,767
295	12,852
295,5	12,767
295,9	15,995
296,4	19,624
296,8	15,681
297,3	20,195
297,8	15,652
298,2	13,938
298,7	7,424
299,1	5,11
299,6	5,51
300,1	9,281
300,5	11,881
301	14,938
301,5	18,424
301,9	20,367
302,4	20,195
302,8	18,71
303,3	16,852
303,8	8,91
304,2	3,024
304,7	2,31
305,1	6,11
305,6	1,481
306,1	-3,576
306,5	-2,69
307	0,052
307,4	-0,005
307,9	-4,319
308,4	-3,605
308,8	5,938
309,3	12,395
309,8	13,71
310,2	15,338
310,7	24,024
311,1	23,11
311,6	19,767
312,1	12,824
312,5	9,538
313	4,538
313,4	5,795
313,9	3,138
314,4	6,024
314,8	7,967
315,3	10,252
315,7	8,681
316,2	10,224
316,7	10,195
317,1	11,967
317,6	11,367
318	12,424
318,5	13,938
319	15,252
319,4	16,338
319,9	16,081
320,3	12,252
320,8	13,595
321,3	7,452
321,7	4,767
322,2	5,624
322,6	4,995
323,1	3,967
323,6	-0,805
324	1,281
324,5	0,91
324,9	-0,805
325,4	-0,405
325,9	5,595
326,3	7,31
326,8	16,11
327,2	16,567
327,7	19,281
328,2	19,424
328,6	20,967
329,1	15,195
329,5	17,91
330	14,024
330,5	12,967
330,9	13,767
331,4	11,11
331,8	11,624
332,3	15,338
332,8	11,624
333,2	11,052
333,7	8,624
334,1	9,367
334,6	13,395
335,1	13,481
335,5	10,195
336	4,252
336,4	4,881
336,9	6,767
337,4	6,195
337,8	7,881
338,3	6,938
338,7	7,995
339,2	14,51
339,7	13,624
340,1	12,31
340,6	6,538
341	7,824
341,5	7,824
342	11,367
342,4	9,91
342,9	5,681
343,3	10,395
343,8	18,167
344,2	17,31
344,7	15,224
345,2	10,938
345,6	13,081
346,1	20,795
346,5	17,452
347	16,624
347,5	15,281
347,9	18,367
348,4	19,795
348,8	19,538
349,3	15,881
349,8	20,767
350,2	19,624
350,7	23,538
351,1	20,51
351,6	22,167
352	29,881
352,5	35,138
353	40,567
353,4	47,024
353,9	52,11
354,3	64,167
354,8	72,71
355,3	84,738
355,7	98,852
356,2	111,767
356,6	136,652
357,1	158,138
357,5	185,567
358	221,024
358,5	252,995
358,9	289,967
359,4	336,338
359,8	379,995
360,3	433,995
360,8	493,767
361,2	564,995
361,7	642,338
362,1	727,995
362,6	817,852
363	918,424
363,5	1032,452
364	1140,91
364,4	1247,881
364,9	1356,11
365,3	1469,91
365,8	1577,824
366,3	1677,31
366,7	1763,538
367,2	1848,967
367,6	1913,652
368,1	1966,938
368,5	1995,71
369	2010,252
369,5	2009,881
369,9	1985,538
370,4	1949,195
370,8	1907,91
371,3	1850,567
371,7	1784,967
372,2	1711,024
372,7	1623,995
373,1	1546,452
373,6	1455,424
374	1357,938
374,5	1270,567
374,9	1184,881
375,4	1101,738
375,9	1028,852
376,3	950,767
376,8	879,51
377,2	818,424
377,7	753,738
378,2	692,567
378,6	635,395
379,1	580,11
379,5	532,567
380	494,624
380,4	452,367
380,9	415,31
381,4	383,281
381,8	352,31
382,3	324,395
382,7	297,995
383,2	270,052
383,6	250,224
384,1	236,852
384,6	219,395
385	205,967
385,5	195,51
385,9	186,852
386,4	181,824
386,8	176,595
387,3	164,595
387,7	155,367
388,2	144,195
388,7	135,195
389,1	125,395
389,6	114,567
390	101,252
390,5	92,395
390,9	92,681
391,4	91,938
391,9	85,538
392,3	77,91
392,8	72,91
393,2	66,424
393,7	64,795
394,1	58,395
394,6	52,395
395,1	49,481
395,5	51,252
396	51,624
396,4	54,652
396,9	55,052
397,3	50,538
397,8	47,967
398,2	49,167
398,7	46,31
399,2	43,138
399,6	46,281
400,1	41,51
400,5	44,424
401	47,452
401,4	47,795
401,9	47,91
402,4	49,738
402,8	44,652
403,3	45,024
403,7	45,795
404,2	44,138
404,6	41,567
405,1	40,195
405,5	36,71
406	36,31
406,5	37,538
406,9	36,824
407,4	37,967
407,8	44,31
408,3	45,481
408,7	50,852
409,2	51,281
409,6	49,338
410,1	53,595
410,6	55,195
411	50,11
411,5	49,652
411,9	48,31
412,4	50,738
412,8	55,852
413,3	57,195
413,7	61,138
414,2	69,081
414,7	77,995
415,1	79,224
415,6	85,824
416	89,424
416,5	88,595
416,9	90,138
417,4	88,567
417,8	87,31
418,3	91,51
418,8	87,995
419,2	89,881
419,7	91,852
420,1	87,195
420,6	88,052
421	87,481
421,5	90,51
421,9	97,195
422,4	95,995
422,8	97,138
423,3	102,338
423,8	106,395
424,2	107,195
424,7	108,052
425,1	106,738
425,6	107,767
426	111,481
426,5	110,681
426,9	108,881
427,4	111,281
427,9	105,424
428,3	102,081
428,8	103,71
429,2	98,395
429,7	97,195
430,1	100,652
430,6	101,91
431	103,681
431,5	111,824
431,9	110,51
432,4	112,567
432,8	118,967
433,3	113,824
433,8	117,31
434,2	122,595
434,7	117,738
435,1	120,31
435,6	130,195
436	133,367
436,5	144,967
436,9	147,738
437,4	152,138
437,8	156,195
438,3	165,224
438,8	163,395
439,2	163,31
439,7	164,367
440,1	170,195
440,6	178,852
441	191,052
441,5	195,338
441,9	206,881
442,4	221,824
442,8	232,681
443,3	238,395
443,7	240,824
444,2	249,681
444,7	259,481
445,1	269,224
445,6	273,938
446	286,081
446,5	298,167
446,9	314,252
447,4	327,681
447,8	338,824
448,3	348,367
448,7	363,338
449,2	373,11
449,6	379,51
450,1	392,252
450,6	401,995
451	417,338
451,5	432,538
451,9	449,738
452,4	469,481
452,8	492,852
453,3	508,395
453,7	522,31
454,2	539,481
454,6	559,767
455,1	576,424
455,5	592,852
456	614,538
456,4	638,195
456,9	660,967
457,3	684,252
457,8	709,024
458,3	732,881
458,7	758,224
459,2	779,138
459,6	798,938
460,1	826,024
460,5	848,538
461	866,367
461,4	892,767
461,9	917,738
462,3	944,967
462,8	974,91
463,2	1004,51
463,7	1033,481
464,1	1067,11
464,6	1094,338
465	1124,538
465,5	1159,167
466	1188,652
466,4	1215,51
466,9	1246,852
467,3	1270,824
467,8	1304,424
468,2	1331,452
468,7	1359,481
469,1	1393,681
469,6	1426,167
470	1460,767
470,5	1505,338
470,9	1537,624
471,4	1575,11
471,8	1607,31
472,3	1633,824
472,7	1673,624
473,2	1702,852
473,6	1729,624
474,1	1753,052
474,5	1784,91
475	1820,595
475,4	1853,995
475,9	1885,281
476,4	1917,881
476,8	1949,138
477,3	1988,881
477,7	2014,71
478,2	2048,767
478,6	2081,224
479,1	2105,967
479,5	2135,167
480	2165,167
480,4	2189,51
480,9	2222,081
481,3	2242,967
481,8	2274,995
482,2	2298,51
482,7	2319,71
483,1	2345,31
483,6	2369,452
484	2394,252
484,5	2421,252
484,9	2439,281
485,4	2467,452
485,8	2493,538
486,3	2506,824
486,7	2539,081
487,2	2558,967
487,6	2577,195
488,1	2601,767
488,5	2616,995
489	2628,91
489,4	2652,738
489,9	2660,595
490,4	2674,024
490,8	2687,71
491,3	2700,652
491,7	2708,538
492,2	2727,652
492,6	2742,824
493,1	2752,767
493,5	2761,595
494	2771,567
494,4	2781,138
494,9	2790,624
495,3	2803,71
495,8	2809,395
496,2	2822,881
496,7	2828,024
497,1	2836,91
497,6	2836,795
498	2846,995
498,5	2852,938
498,9	2856,681
499,4	2860,538
499,8	2866,995
500,3	2872,681
500,7	2882,767
501,2	2888,338
501,6	2887,681
502,1	2900,567
502,5	2898,367
503	2905,995
503,4	2904,91
503,9	2910,595
504,3	2912,595
504,8	2914,081
505,2	2904,452
505,7	2911,538
506,1	2914,652
506,6	2916,338
507	2912,995
507,5	2919,367
507,9	2924,367
508,4	2931,195
508,8	2933,31
509,3	2935,024
509,7	2929,967
510,2	2928,681
510,6	2920,338
511,1	2922,71
511,5	2922,224
512	2917,367
512,4	2911,595
512,9	2914,967
513,3	2916,024
513,8	2914,395
514,2	2907,052
514,7	2901,538
515,1	2897,852
515,6	2896,11
516	2896,852
516,5	2893,91
516,9	2884,881
517,4	2885,081
517,8	2889,595
518,3	2889,538
518,7	2882,595
519,2	2877,767
519,6	2875,938
520,1	2886,167
520,5	2878,224
521	2870,595
521,4	2871,138
521,9	2881,338
522,3	2877,852
522,8	2879,595
523,2	2874,995
523,7	2876,195
524,1	2876,224
524,6	2873,395
525	2873,681
525,5	2881,767
525,9	2871,167
526,4	2872,767
526,8	2872,338
527,3	2874,51
527,7	2879,795
528,2	2869,852
528,6	2865,481
529,1	2872,395
529,5	2868,852
530	2870,424
530,4	2872,852
530,9	2864,024
531,3	2868,424
531,8	2874,11
532,2	2876,738
532,6	2879,538
533,1	2874,081
533,5	2872,452
534	2880,881
534,4	2879,567
534,9	2880,138
535,3	2885,024
535,8	2887,881
536,2	2893,452
536,7	2900,595
537,1	2903,481
537,6	2910,567
538	2911,367
538,5	2908,881
538,9	2913,967
539,4	2920,281
539,8	2914,852
540,3	2913,31
540,7	2912,681
541,2	2910,652
541,6	2920,252
542,1	2924,795
542,5	2925,681
543	2933,452
543,4	2942,481
543,9	2944,681
544,3	2952,681
544,8	2950,367
545,2	2950,31
545,7	2957,052
546,1	2960,281
546,5	2962,967
547	2969,11
547,4	2963,767
547,9	2970,052
548,3	2973,51
548,8	2972,91
549,2	2972,71
549,7	2974,081
550,1	2976,824
550,6	2985,624
551	2987,138
551,5	2983,624
551,9	2994,081
552,4	2999,138
552,8	3001,938
553,3	3009,138
553,7	3013,081
554,2	3015,967
554,6	3020,681
555,1	3025,738
555,5	3026,195
555,9	3028,195
556,4	3028,652
556,8	3029,738
557,3	3027,852
557,7	3035,338
558,2	3030,167
558,6	3042,024
559,1	3045,795
559,5	3049,052
560	3059,395
560,4	3065,938
560,9	3070,195
561,3	3077,195
561,8	3078,538
562,2	3077,538
562,7	3078,51
563,1	3071,281
563,6	3073,367
564	3078,252
564,4	3079,338
564,9	3071,367
565,3	3079,338
565,8	3086,338
566,2	3088,71
566,7	3092,424
567,1	3089,567
567,6	3091,852
568	3096,624
568,5	3094,767
568,9	3093,281
569,4	3096,738
569,8	3095,71
570,3	3097,281
570,7	3091,167
571,1	3093,224
571,6	3091,91
572	3093,824
572,5	3093,395
572,9	3102,967
573,4	3103,195
573,8	3108,195
574,3	3103,881
574,7	3105,281
575,2	3100,252
575,6	3096,852
576,1	3089,024
576,5	3087,338
576,9	3083,71
577,4	3084,938
577,8	3079,567
578,3	3076,281
578,7	3073,395
579,2	3066,967
579,6	3068,51
580,1	3067,538
580,5	3070,967
581	3068,224
581,4	3064,224
581,9	3071,11
582,3	3063,224
582,7	3058,967
583,2	3052,51
583,6	3043,338
584,1	3033,681
584,5	3033,795
585	3020,51
585,4	3019,967
585,9	3012,738
586,3	3010,224
586,8	3001,195
587,2	3000,31
587,6	2995,452
588,1	2999,824
588,5	2999,138
589	2994,424
589,4	2988,252
589,9	2985,395
590,3	2979,024
590,8	2970,367
591,2	2955,852
591,7	2945,624
592,1	2940,481
592,5	2939,738
593	2934,052
593,4	2932,052
593,9	2926,967
594,3	2922,31
594,8	2921,681
595,2	2918,967
595,7	2913,738
596,1	2906,167
596,6	2906,452
597	2903,624
597,4	2898,624
597,9	2889,624
598,3	2881,424
598,8	2873,052
599,2	2873,424
599,7	2867,824
600,1	2869,881
600,6	2866,338
601	2865,367
601,4	2858,595
601,9	2852,881
602,3	2849,452
602,8	2838,595
603,2	2825,71
603,7	2821,395
604,1	2819,138
604,6	2809,91
605	2800,995
605,4	2793,138
605,9	2787,652
606,3	2774,481
606,8	2765,652
607,2	2751,767
607,7	2750,995
608,1	2748,338
608,6	2742,395
609	2740,195
609,4	2734,852
609,9	2729,367
610,3	2725,767
610,8	2716,852
611,2	2703,852
611,7	2693,567
612,1	2678,767
612,6	2671,767
613	2666,938
613,4	2655,624
613,9	2648,452
614,3	2638,281
614,8	2628,167
615,2	2624,367
615,7	2614,395
616,1	2597,738
616,6	2584,852
617	2570,281
617,4	2563,167
617,9	2552,252
618,3	2538,138
618,8	2529,424
619,2	2523,538
619,7	2518,224
620,1	2511,167
620,5	2500,31
621	2490,767
621,4	2485,652
621,9	2479,738
622,3	2473,367
622,8	2452,652
623,2	2449,71
623,6	2445,51
624,1	2438,567
624,5	2421,852
625	2408,081
625,4	2398,052
625,9	2389,738
626,3	2371,595
626,8	2358,681
627,2	2345,681
627,6	2338,024
628,1	2325,767
628,5	2309,51
629	2304,91
629,4	2294,681
629,9	2283,567
630,3	2277,967
630,7	2266,967
631,2	2256,281
631,6	2248,538
632,1	2238,138
632,5	2233,11
633	2216,338
633,4	2197,881
633,8	2181,195
634,3	2175,395
634,7	2165,252
635,2	2155,538
635,6	2140,31
636,1	2142,452
636,5	2133,881
636,9	2133,71
637,4	2124,281
637,8	2105,652
638,3	2092,824
638,7	2081,938
639,2	2066,967
639,6	2057,681
640	2045,624
640,5	2033,167
640,9	2032,452
641,4	2024,51
641,8	2013,452
642,2	2007,795
642,7	1999,595
643,1	1994,681
643,6	1986,367
644	1974,367
644,5	1968,938
644,9	1960,624
645,3	1950,338
645,8	1944,681
646,2	1932,567
646,7	1920,481
647,1	1912,71
647,6	1899,024
648	1887,167
648,4	1877,938
648,9	1861,824
649,3	1849,795
649,8	1842,852
650,2	1828,824
650,6	1822,224
651,1	1821,91
651,5	1813,795
652	1810,967
652,4	1800,624
652,9	1793,652
653,3	1786,424
653,7	1776,71
654,2	1763,995
654,6	1750,224
655,1	1736,681
655,5	1732,024
655,9	1718,31
656,4	1715,767
656,8	1702,51
657,3	1690,852
657,7	1677,424
658,2	1673,195
658,6	1655,252
659	1646,824
659,5	1631,481
659,9	1629,195
660,4	1622,31
660,8	1620,224
661,2	1602,71
661,7	1598,681
662,1	1591,71
662,6	1583,481
663	1570,681
663,4	1563,538
663,9	1551,824
664,3	1546,881
664,8	1538,738
665,2	1530,624
665,6	1522,967
666,1	1514,595
666,5	1504,881
667	1491,795
667,4	1484,452
667,9	1473,195
668,3	1465,138
668,7	1453,024
669,2	1441,052
669,6	1431,567
670,1	1428,681
670,5	1415,652
670,9	1414,367
671,4	1401,681
671,8	1393,081
672,3	1389,538
672,7	1380,138
673,1	1365,995
673,6	1360,91
674	1348,481
674,5	1346,51
674,9	1342,595
675,3	1334,452
675,8	1327,738
676,2	1326,881
676,7	1319,967
677,1	1314,824
677,5	1302,624
678	1293,538
678,4	1286,881
678,9	1276,138
679,3	1262,281
679,7	1250,967
680,2	1242,595
680,6	1231,252
681,1	1220,424
681,5	1209,681
681,9	1199,624
682,4	1197,452
682,8	1189,281
683,3	1175,11
683,7	1170,395
684,1	1164,852
684,6	1157,224
685	1155,881
685,5	1147,71
685,9	1143,538
686,3	1141,395
686,8	1136,11
687,2	1129,31
687,7	1123,31
688,1	1111,995
688,5	1102,138
689	1093,567
689,4	1090,995
689,9	1083,281
690,3	1078,767
690,7	1072,538
691,2	1071,224
691,6	1067,367
692	1062,138
692,5	1049,252
692,9	1041,452
693,4	1035,052
693,8	1027,367
694,2	1018,567
694,7	1014,995
695,1	1010,452
695,6	1003,024
696	996,71
696,4	988,91
696,9	982,652
697,3	975,538
697,8	962,824
698,2	955,51
698,6	957,052
699,1	946,567
699,5	939,91
699,9	935,252
700,4	928,995
700,8	926,738
701,3	917,51
701,7	907,51
702,1	905,052
702,6	902,367
703	892,624
703,5	887,595
703,9	884,91
704,3	883,624
704,8	882,024
705,2	879,195
705,6	868,795
706,1	872,71
706,5	868,31
707	859,852
707,4	856,595
707,8	850,11
708,3	842,052
708,7	842,024
709,2	834,195
709,6	833,738
710	824,852
710,5	819,767
710,9	808,995
711,3	803,195
711,8	795,367
712,2	790,71
712,7	782,995
713,1	780,852
713,5	767,995
714	765,081
714,4	762,538
714,8	762,567
715,3	754,967
715,7	742,652
716,2	733,11
716,6	732,938
717	727,195
717,5	727,281
717,9	717,31
718,3	709,881
718,8	709,338
719,2	706,567
719,7	702,395
720,1	696,51
720,5	687,91
721	684,71
721,4	682,31
721,8	676,51
722,3	670,31
722,7	661,452
723,2	660,31
723,6	656,052
724	652,424
724,5	647,595
724,9	638,424
725,3	635,995
725,8	635,681
726,2	628,852
726,7	623,367
727,1	614,224
727,5	607,767
728	606,252
728,4	602,052
728,8	599,081
729,3	595,624
729,7	591,281
730,1	588,595
730,6	586,424
731	584,224
731,5	582,452
731,9	582,281
732,3	581,938
732,8	581,024
733,2	576,71
733,6	573,281
734,1	573,71
734,5	564,967
734,9	558,224
735,4	553,938
735,8	550,681
736,3	554,281
736,7	549,567
737,1	543,081
737,6	545,367
738	541,424
738,4	538,338
738,9	539,081
739,3	530,481
739,7	530,567
740,2	527,91
740,6	525,052
741,1	523,624
741,5	520,652
741,9	511,824
742,4	510,167
742,8	508,538
743,2	505,367
743,7	506,881
744,1	498,938
744,5	497,567
745	492,167
745,4	488,195
745,8	487,938
746,3	486,652
746,7	479,738
747,2	481,167
747,6	476,424
748	474,795
748,5	472,967
748,9	462,567
749,3	460,938
749,8	455,281
750,2	451,452
750,6	447,31
751,1	448,681
751,5	444,91
751,9	444,795
752,4	437,938
752,8	434,71
753,3	431,138
753,7	428,395
754,1	420,738
754,6	417,652
755	415,424
755,4	412,938
755,9	411,567
756,3	406,395
756,7	406,138
757,2	404,11
757,6	401,767
758	396,824
758,5	398,681
758,9	396,024
759,3	392,424
759,8	393,71
760,2	396,195
760,6	394,081
761,1	392,281
761,5	388,252
761,9	385,424
762,4	385,252
762,8	379,195
763,3	367,852
763,7	363,195
764,1	358,881
764,6	359,195
765	359,481
765,4	359,138
765,9	353,652
766,3	354,995
766,7	357,91
767,2	359,652
767,6	353,452
768	353,252
768,5	349,224
768,9	346,51
769,3	346,852
769,8	344,938
770,2	343,481
770,6	340,538
771,1	337,538
771,5	335,195
771,9	332,795
772,4	331,967
772,8	329,91
773,2	329,938
773,7	333,767
774,1	334,138
774,5	336,338
775	331,91
775,4	326,367
775,8	324,852
776,3	318,795
776,7	311,767
777,1	308,767
777,6	302,567
778	305,481
778,4	303,338
778,9	296,452
779,3	296,424
779,7	296,595
780,2	290,138
780,6	289,767
781	287,595
781,5	290,024
781,9	291,395
782,3	288,395
782,8	280,71
783,2	281,338
783,6	276,481
784,1	275,91
784,5	271,738
784,9	271,195
785,4	270,167
785,8	268,881
786,2	264,31
786,7	262,452
787,1	257,481
787,5	254,367
788	248,452
788,4	241,224
788,8	238,081
789,3	245,31
789,7	243,652
790,1	244,795
790,6	245,624
791	244,738
791,4	244,967
791,9	250,91
792,3	240,395
792,7	243,995
793,2	240,767
793,6	238,567
794	239,024
794,5	238,652
794,9	231,824
795,3	233,681
795,8	229,967
796,2	226,738
796,6	222,738
797,1	215,195
797,5	213,081
797,9	214,881
798,4	211,538
798,8	204,795
799,2	205,281
799,7	205,567
800,1	208,167
800,5	206,852
801	204,481
801,4	199,938
801,8	205,224
802,2	205,624
802,7	204,91
803,1	201,71
803,5	202,624
804	201,224
804,4	197,91
804,8	197,024
805,3	190,852
805,7	186,881
806,1	187,595
806,6	182,852
807	179,938
807,4	179,452
807,9	177,195
808,3	172,424
808,7	173,367
809,2	168,624
809,6	171,281
810	169,052
810,4	173,795
810,9	168,252
811,3	175,852
811,7	171,852
812,2	175,367
812,6	170,395
813	170,567
813,5	164,395
813,9	167,081
814,3	163,452
814,8	167,452
815,2	159,052
815,6	159,681
816,1	158,31
816,5	161,195
816,9	159,081
817,3	156,967
817,8	155,481
818,2	154,767
818,6	153,281
819,1	153,224
819,5	152,424
819,9	149,51
820,4	154,967
820,8	149,024
821,2	156,567
821,7	154,081
822,1	153,852
822,5	149,367
822,9	153,424
823,4	144,081
823,8	147,795
824,2	140,395
824,7	141,91
825,1	137,938
825,5	139,338
826	135,51
826,4	135,11
826,8	134,11
827,3	136,11
827,7	135,138
828,1	137,51
828,5	138,195
829	132,795
829,4	137,51
829,8	131,51
830,3	130,252
830,7	124,538
831,1	121,138
831,6	118,338
832	118,567
832,4	115,652
832,8	117,852
833,3	115,595
833,7	123,252
834,1	121,11
834,6	116,624
835	117,624
835,4	115,424
835,8	111,452
836,3	108,938
836,7	97,71
837,1	95,995
837,6	94,11
838	91,652
838,4	87,567
838,9	93,252
839,3	95,567
839,7	99,395
840,1	101,395
840,6	102,852
841	103,195
841,4	106,852
841,9	99,595
842,3	99,11
842,7	102,795
843,1	106,481
843,6	106,967
844	109,567
844,4	108,852
844,9	109,481
845,3	106,91
845,7	104,052
846,2	102,595
846,6	101,338
847	97,195
847,4	96,424
847,9	94,91
848,3	96,224
848,7	94,795
849,2	91,681
849,6	91,11
850	90,052
850,4	84,652
850,9	83,824
851,3	82,395
851,7	83,338
852,2	76,738
852,6	74,51
853	77,824
853,4	84,995
853,9	84,195
854,3	83,167
854,7	79,71
855,2	82,424
855,6	78,138
856	71,795
856,4	63,881
856,9	64,338
857,3	64,11
857,7	69,252
858,2	68,11
858,6	75,452
859	71,91
859,4	76,395
859,9	74,681
860,3	75,738
860,7	71,938
861,1	73,624
861,6	71,938
862	78,052
862,4	73,281
862,9	75,852
863,3	73,11
863,7	66,567
864,1	65,195
864,6	63,167
865	61,995
865,4	61,795
865,9	55,71
866,3	55,652
866,7	59,224
867,1	61,767
867,6	61,281
868	60,081
868,4	60,681
868,8	65,167
869,3	67,424
869,7	66,452
870,1	68,51
870,6	67,595
871	62,538
871,4	60,338
871,8	57,567
872,3	54,195
872,7	53,338
873,1	52,138
873,5	53,395
874	57,767
874,4	56,424
874,8	55,824
875,3	52,767
875,7	51,367
876,1	48,424
876,5	49,052
877	49,91
877,4	51,51
877,8	50,424
878,2	51,995
878,7	56,538
879,1	56,738
879,5	56,081
879,9	58,195
880,4	57,481
880,8	57,795
881,2	58,995
881,7	55,938
882,1	53,052
882,5	48,052
882,9	43,395
883,4	45,91
883,8	46,367
884,2	44,424
884,6	43,567
885,1	47,567
885,5	53,967
885,9	58,138
886,3	57,167
886,8	56,91
887,2	55,081
887,6	49,595
888	43,567
888,5	43,51
888,9	38,081
889,3	34,252
889,8	35,681
890,2	34,995
890,6	40,71
891	42,967
891,5	38,424
891,9	40,395
892,3	45,252
892,7	44,938
893,2	50,938
893,6	44,31
894	46,395
894,4	45,138
894,9	41,995
895,3	38,71
895,7	40,167
896,1	38,881
896,6	41,71
897	39,195
897,4	35,338
897,8	36,795
898,3	39,367
898,7	34,138
899,1	31,281
899,5	30,71
900	29,795
900,4	32,795
900,8	33,824
901,2	30,281
901,7	31,167
902,1	30,91
902,5	33,595
902,9	33,738
903,4	34,224
903,8	30,138
904,2	33,824
904,6	27,31
905,1	29,167
905,5	27,567
905,9	27,567
906,3	26,167
906,8	29,595
907,2	26,11
907,6	30,424
908	25,138
908,5	26,538
908,9	24,567
909,3	25,424
909,7	24,195
910,2	20,91
910,6	24,995
911	30,71
911,4	28,595
911,9	29,881
912,3	27,652
912,7	28,967
913,1	27,138
913,6	26,224
914	27,024
914,4	25,31
914,8	25,995
915,3	28,681
915,7	23,567
916,1	25,71
916,5	26,51
916,9	20,995
917,4	25,081
917,8	21,367
918,2	16,281
918,6	17,681
919,1	19,252
919,5	18,824
919,9	19,481
920,3	14,795
920,8	16,938
921,2	21,681
921,6	26,024
922	24,824
922,5	23,624
922,9	20,081
923,3	25,395
923,7	24,252
924,2	22,024
924,6	19,052
925	17,481
925,4	17,538
925,8	18,224
926,3	17,51
926,7	18,195
927,1	22,624
927,5	21,681
928	21,681
928,4	19,081
928,8	25,71
929,2	25,652
929,7	20,167
930,1	19,052
930,5	14,738
930,9	21,31
931,3	24,91
931,8	19,995
932,2	19,11
932,6	26,167
933	21,424
933,5	25,224
933,9	20,824
934,3	19,138
934,7	23,338
935,2	25,481
935,6	23,71
936	26,395
936,4	27,195
936,8	27,71
937,3	28,138
937,7	23,281
938,1	14,252
938,5	12,795
939	13,852
939,4	13,938
939,8	11,91
940,2	12,338
940,6	13,138
941,1	19,681
941,5	24,995
941,9	23,681
942,3	24,852
942,8	26,652
943,2	25,081
943,6	29,138
944	26,852
944,4	19,11
944,9	17,224
945,3	18,11
945,7	17,452
946,1	17,652
946,6	14,452
947	17,852
947,4	19,824
947,8	23,024
948,2	18,767
948,7	18,681
949,1	16,652
949,5	16,395
949,9	14,052
950,3	14,795
950,8	12,367
951,2	13,967
951,6	14,395
952	14,167
952,5	13,338
952,9	9,538
953,3	11,395
953,7	14,51
954,1	15,51
954,6	18,567
955	21,252
955,4	16,938
955,8	22,195
956,2	16,367
956,7	15,424
957,1	11,452
957,5	5,424
957,9	3,852
958,3	10,824
958,8	11,481
959,2	15,538
959,6	12,938
960	14,881
960,5	14,91
960,9	15,424
961,3	12,51
961,7	5,852
962,1	0,367
962,6	1,424
963	-0,233
963,4	1,11
963,8	2,652
964,2	0,367
964,7	1,252
965,1	8,11
965,5	7,138
965,9	9,738
966,3	10,995
966,8	8,624
967,2	12,31
967,6	14,31
968	13,91
968,4	16,081
968,9	20,395
969,3	17,252
969,7	15,224
970,1	13,71
970,5	16,51
971	11,681
971,4	11,081
971,8	11,567
972,2	14,11
972,6	16,081
973,1	21,281
973,5	21,995
973,9	22,881
974,3	20,252
974,7	14,71
975,2	10,481
975,6	6,424
976	5,967
976,4	2,252
976,8	0,852
977,3	1,767
977,7	3,938
978,1	4,881
978,5	9,71
978,9	4,31
979,4	3,424
979,8	8,51
980,2	7,824
980,6	7,91
981	10,738
981,5	9,11
981,9	10,052
982,3	9,881
982,7	7,738
983,1	12,224
983,6	9,71
984	7,424
984,4	9,824
984,8	10,424
985,2	9,881
985,6	10,452
986,1	5,824
986,5	4,51
986,9	9,281
987,3	4,452
987,7	5,995
988,2	13,252
988,6	13,138
989	14,11
989,4	17,738
989,8	13,967
990,3	18,481
990,7	15,967
991,1	7,538
991,5	4,338
991,9	10,938
992,3	12,567
992,8	15,138
993,2	17,91
993,6	17,538
994	19,652
994,4	24,31
994,9	20,91
995,3	17,395
995,7	16,081
996,1	13,024
996,5	10,938
996,9	10,195
997,4	6,252
997,8	0,824
998,2	4,624
998,6	7,795
999	4,824
999,5	7,167
999,9	10,967
1000,3	16,138
1000,7	18,824
1001,1	15,938
1001,5	8,795
1002	6,624
1002,4	7,452
1002,8	8,681
1003,2	8,052
1003,6	11,024
1004	8,852
1004,5	11,624
1004,9	13,624
1005,3	9,652
1005,7	4,881
1006,1	4,824
1006,6	-1,348
1007	-2,062
1007,4	-2,433
1007,8	-1,148
1008,2	-0,605
1008,6	-3,719
1009,1	-6,748
1009,5	3,252
1009,9	10,852
1010,3	13,31
1010,7	14,224
1011,1	20,052
1011,6	22,71
1012	19,71
1012,4	15,824
1012,8	7,481
1013,2	9,31
1013,6	13,224
1014,1	11,481
1014,5	12,11
1014,9	19,024
1015,3	15,567
1015,7	18,024
1016,1	18,452
1016,6	17,424
1017	15,195
1017,4	14,881
1017,8	8,91
1018,2	7,938
1018,6	8,252
1019,1	2,995
1019,5	2,567
1019,9	5,652
1020,3	6,738
1020,7	8,852
1021,1	13,481
1021,6	13,624
1022	8,681
1022,4	8,167
1022,8	4,71
1023,2	6,595
1023,6	3,71
1024,1	7,11
1024,5	4,481
1024,9	13,681
1025,3	14,881
1025,7	17,424
1026,1	18,424
1026,6	24,452
1027	13,91
1027,4	16,938
1027,8	12,995
1028,2	15,481
1028,6	15,938
1029	13,31
1029,5	15,195
1029,9	16,281
1030,3	16,595
1030,7	18,852
1031,1	10,424
1031,5	9,11
1032	9,452
1032,4	0,824
1032,8	7,567
1033,2	6,91
1033,6	7,538
1034	13,624
1034,4	18,538
1034,9	11,538
1035,3	23,795
1035,7	21,71
1036,1	20,938
1036,5	15,538
1036,9	12,652
1037,4	9,367
1037,8	17,995
1038,2	8,938
1038,6	5,424
1039	6,081
1039,4	11,167
1039,8	12,195
1040,3	10,71
1040,7	6,395
1041,1	9,652
1041,5	14,881
1041,9	12,824
1042,3	12,481
1042,7	12,938
1043,2	12,624
1043,6	19,281
1044	21,167
1044,4	16,681
1044,8	14,424
1045,2	15,595
1045,6	16,567
1046,1	19,395
1046,5	16,538
1046,9	10,652
1047,3	11,167
1047,7	15,081
1048,1	9,138
1048,5	8,281
1049	8,195
1049,4	4,824
1049,8	3,824
1050,2	4,852
1050,6	6,338
1051	14,91
1051,4	6,967
1051,9	11,624
1052,3	10,081
1052,7	11,081
1053,1	12,281
1053,5	10,738
1053,9	3,595
1054,3	5,71
1054,8	2,11
1055,2	6,224
1055,6	7,281
1056	5,71
1056,4	5,91
1056,8	7,91
1057,2	11,595
1057,6	8,081
1058,1	10,624
1058,5	10,567
1058,9	13,795
1059,3	19,795
1059,7	15,824
1060,1	14,824
1060,5	12,624
1061	7,31
1061,4	9,395
1061,8	3,652
1062,2	-5,833
1062,6	-2,49
1063	-0,89
1063,4	0,052
1063,8	1,967
1064,3	0,71
1064,7	0,338
1065,1	4,738
1065,5	4,795
1065,9	4,852
1066,3	2,795
1066,7	3,31
1067,1	3,624
1067,6	5,452
1068	0,795
1068,4	4,852
1068,8	4,195
1069,2	4,167
1069,6	4,538
1070	3,624
1070,4	5,995
1070,9	8,881
1071,3	5,424
1071,7	5,481
1072,1	14,224
1072,5	14,338
1072,9	16,367
1073,3	15,081
1073,7	15,481
1074,2	22,51
1074,6	21,71
1075	15,71
1075,4	15,995
1075,8	18,767
1076,2	15,624
1076,6	14,424
1077	6,081
1077,5	11,652
1077,9	14,738
1078,3	11,738
1078,7	10,681
1079,1	15,424
1079,5	12,595
1079,9	16,252
1080,3	10,938
1080,7	9,481
1081,2	14,224
1081,6	11,795
1082	11,281
1082,4	13,081
1082,8	10,881
1083,2	7,11
1083,6	7,824
1084	4,224
1084,5	2,024
1084,9	-0,605
1085,3	1,024
1085,7	-1,748
1086,1	-0,462
1086,5	1,024
1086,9	2,852
1087,3	6,881
1087,7	11,338
1088,2	11,595
1088,6	11,367
1089	12,538
1089,4	7,967
1089,8	10,395
1090,2	10,167
1090,6	7,852
1091	7,767
1091,4	10,538
1091,9	12,538
1092,3	12,652
1092,7	5,995
1093,1	4,795
1093,5	3,338
1093,9	8,995
1094,3	8,91
1094,7	9,11
1095,1	10,281
1095,5	14,395
1096	12,938
1096,4	16,167
1096,8	10,081
1097,2	10,395
1097,6	12,167
1098	13,281
1098,4	12,167
1098,8	12,881
1099,2	11,281
1099,6	13,91
1100,1	15,138
1100,5	15,51
1100,9	14,767
1101,3	13,824
1101,7	13,31
1102,1	11,738
1102,5	7,91
1102,9	4,738
1103,3	2,367
1103,7	0,081
1104,2	0,195
1104,6	1,195
1105	3,967
1105,4	4,91
1105,8	6,31
1106,2	4,91
1106,6	4,624
1107	4,538
1107,4	3,1
1107,8	-0,673
1108,3	0,117
