Data from Subt2_035.txt Node
Date: Sat Aug 26 16:22:24 MSK 2023
User: vat
Spectrometer: MAYP114033
Trigger mode: 0
Integration Time (sec): 1,000000E0
Scans to average: 5
Electric dark correction enabled: true
Nonlinearity correction enabled: false
Boxcar width: 3
XAxis mode: Wavelengths
Number of Pixels in Spectrum: 2068
>>>>>Begin Spectral Data<<<<<
199,4	-0,083
199,9	0,147
200,4	-2,6
200,8	-1,333
201,3	0,152
201,8	-0,076
202,2	-0,562
202,7	1,667
203,2	0,467
203,6	3,295
204,1	3,638
204,6	6,267
205	9,61
205,5	9,581
206	9,724
206,4	12,781
206,9	9,81
207,4	13,41
207,8	6,952
208,3	4,781
208,8	6,152
209,2	5,067
209,7	7,61
210,2	14,01
210,6	10,61
211,1	11,552
211,5	10,21
212	6,181
212,5	0,495
212,9	-4,248
213,4	-4,248
213,9	-8,219
214,3	-5,133
214,8	-1,505
215,3	0,095
215,7	1,838
216,2	2,495
216,7	-4,59
217,1	-3,79
217,6	-4,219
218,1	-4,733
218,5	-2,333
219	9,21
219,5	11,524
219,9	16,152
220,4	17,638
220,9	20,152
221,3	17,781
221,8	14,838
222,3	5,81
222,7	3,152
223,2	6,21
223,6	5,295
224,1	1,667
224,6	1,724
225	-0,962
225,5	3,238
226	2,724
226,4	3,152
226,9	0,952
227,4	2,581
227,8	4,638
228,3	13,981
228,8	10,124
229,2	12,695
229,7	6,381
230,2	12,695
230,6	9,667
231,1	10,295
231,5	5,238
232	10,124
232,5	6,867
232,9	9,438
233,4	13,581
233,9	16,524
234,3	13,781
234,8	15,067
235,3	11,267
235,7	17,695
236,2	16,238
236,7	8,981
237,1	4,038
237,6	3,324
238,1	6,41
238,5	8,638
239	2,781
239,4	5,552
239,9	6,181
240,4	11,495
240,8	12,01
241,3	5,238
241,8	2,41
242,2	-0,133
242,7	-1,476
243,2	0,952
243,6	-0,248
244,1	2,581
244,6	3,381
245	2,495
245,5	4,895
245,9	3,981
246,4	-0,305
246,9	-1,619
247,3	-5,19
247,8	-4,362
248,3	-1,819
248,7	5,181
249,2	6,667
249,7	11,838
250,1	11,21
250,6	14,981
251	16,61
251,5	11,095
252	9,552
252,4	8,124
252,9	8,324
253,4	13,295
253,8	7,867
254,3	6,867
254,8	10,324
255,2	4,467
255,7	6,61
256,1	1,438
256,6	-2,19
257,1	1,867
257,5	4,695
258	5,981
258,5	10,552
258,9	7,981
259,4	9,781
259,9	14,124
260,3	9,381
260,8	11,238
261,2	13,781
261,7	13,495
262,2	13,438
262,6	11,638
263,1	5,095
263,6	11,495
264	8,21
264,5	7,038
264,9	3,981
265,4	2,581
265,9	5,095
266,3	8,524
266,8	8,438
267,3	6,524
267,7	4,524
268,2	6,01
268,7	5,581
269,1	3,81
269,6	7,067
270	8,152
270,5	11,81
271	11,067
271,4	6,638
271,9	10,41
272,4	12,295
272,8	3,752
273,3	-0,162
273,7	-1,562
274,2	0,981
274,7	2,524
275,1	-1,448
275,6	-0,505
276,1	3,61
276,5	6,295
277	5,838
277,4	5,352
277,9	4,352
278,4	10,038
278,8	9,867
279,3	8,01
279,8	11,524
280,2	8,867
280,7	8,495
281,1	7,81
281,6	6,924
282,1	6,324
282,5	12,038
283	5,267
283,4	6,495
283,9	3,467
284,4	5,324
284,8	2,924
285,3	0,238
285,8	-6,676
286,2	-9,076
286,7	-10,476
287,1	-10,648
287,6	-6,476
288,1	-6,105
288,5	-1,19
289	0,21
289,5	1,952
289,9	1,01
290,4	3,61
290,8	7,524
291,3	4,267
291,8	4,038
292,2	10,467
292,7	11,438
293,1	14,324
293,6	14,552
294,1	2,981
294,5	7,438
295	2,095
295,5	-0,476
295,9	0,724
296,4	3,267
296,8	-1,076
297,3	7,381
297,8	6,667
298,2	7,295
298,7	2,61
299,1	3,381
299,6	2,41
300,1	8,01
300,5	7,867
301	6,381
301,5	9,01
301,9	11,752
302,4	9,581
302,8	9,467
303,3	7,495
303,8	3,781
304,2	6,238
304,7	3,667
305,1	5,095
305,6	2,152
306,1	1,924
306,5	3,267
307	2,81
307,4	1,238
307,9	1,124
308,4	-0,676
308,8	8,667
309,3	6,752
309,8	11,695
310,2	12,181
310,7	14,495
311,1	15,324
311,6	17,124
312,1	16,838
312,5	16,552
313	9,41
313,4	8,952
313,9	9,924
314,4	10,267
314,8	10,981
315,3	7,067
315,7	11,524
316,2	13,895
316,7	14,952
317,1	17,324
317,6	19,152
318	19,667
318,5	22,781
319	22,752
319,4	22,124
319,9	21,952
320,3	19,724
320,8	19,067
321,3	16,838
321,7	12,724
322,2	11,724
322,6	8,61
323,1	7,41
323,6	5,81
324	7,724
324,5	4,01
324,9	5,324
325,4	5,838
325,9	12,038
326,3	15,781
326,8	17,01
327,2	16,552
327,7	20,267
328,2	16,581
328,6	15,695
329,1	12,838
329,5	9,381
330	10,381
330,5	7,21
330,9	7,01
331,4	5,952
331,8	5,581
332,3	9,324
332,8	8,867
333,2	4,295
333,7	6,81
334,1	8,695
334,6	12,752
335,1	11,924
335,5	6,552
336	5,667
336,4	8,295
336,9	7,124
337,4	5,01
337,8	5,067
338,3	10,152
338,7	10,067
339,2	17,01
339,7	16,21
340,1	20,152
340,6	21,667
341	25,867
341,5	28,067
342	25,095
342,4	20,21
342,9	18,152
343,3	14,61
343,8	14,867
344,2	13,238
344,7	8,295
345,2	11,381
345,6	14,181
346,1	12,352
346,5	14,838
347	15,381
347,5	11,61
347,9	8,781
348,4	9,438
348,8	9,667
349,3	15,581
349,8	14,067
350,2	13,381
350,7	14,295
351,1	17,267
351,6	23,552
352	29,952
352,5	35,324
353	43,581
353,4	54,952
353,9	69,01
354,3	87,952
354,8	101,552
355,3	121,724
355,7	146,81
356,2	174,038
356,6	203,924
357,1	239,41
357,5	276,695
358	325,467
358,5	377,81
358,9	435,981
359,4	504,524
359,8	578,381
360,3	664,981
360,8	759,124
361,2	866,524
361,7	982,267
362,1	1114,438
362,6	1256,067
363	1408,667
363,5	1568,895
364	1739,495
364,4	1902,867
364,9	2069,295
365,3	2230,524
365,8	2383,952
366,3	2537,038
366,7	2669,038
367,2	2782,267
367,6	2885,924
368,1	2957,438
368,5	3003,352
369	3032,61
369,5	3026,924
369,9	2998,924
370,4	2940,81
370,8	2862,524
371,3	2777,638
371,7	2677,152
372,2	2561,295
372,7	2432,352
373,1	2304,067
373,6	2174,838
374	2036,095
374,5	1900,924
374,9	1765,724
375,4	1630,267
375,9	1510,438
376,3	1390,552
376,8	1279,41
377,2	1183,295
377,7	1087,924
378,2	997,61
378,6	912,895
379,1	838,638
379,5	767,895
380	707,724
380,4	645,552
380,9	592,095
381,4	545,267
381,8	509,41
382,3	466,038
382,7	429,695
383,2	393,895
383,6	364,895
384,1	339,095
384,6	315,638
385	289,581
385,5	271,238
385,9	256,438
386,4	243,695
386,8	226,924
387,3	211,295
387,7	197,352
388,2	185,381
388,7	172,838
389,1	160,781
389,6	147,838
390	139,781
390,5	130,381
390,9	128,724
391,4	125,124
391,9	116,695
392,3	105,095
392,8	102,724
393,2	98,038
393,7	94,324
394,1	84,752
394,6	76,381
395,1	76,267
395,5	75,581
396	71,21
396,4	70,181
396,9	69,038
397,3	64,61
397,8	61,638
398,2	58,124
398,7	53,924
399,2	46,61
399,6	48,581
400,1	40,781
400,5	43,838
401	50,581
401,4	50,124
401,9	56,067
402,4	60,838
402,8	57,124
403,3	61,867
403,7	59,238
404,2	52,124
404,6	51,324
405,1	47,352
405,5	49,267
406	53,924
406,5	51,724
406,9	55,981
407,4	63,21
407,8	67,724
408,3	74,21
408,7	77,781
409,2	80,924
409,6	90,352
410,1	99,524
410,6	104,581
411	115,21
411,5	121,352
411,9	125,867
412,4	133,324
412,8	141,695
413,3	145,695
413,7	158,695
414,2	165,895
414,7	180,952
415,1	192,41
415,6	206,867
416	217,381
416,5	232,038
416,9	239,752
417,4	252,638
417,8	264,467
418,3	285,152
418,8	297,41
419,2	317,438
419,7	338,638
420,1	358,952
420,6	379,838
421	400,981
421,5	421,867
421,9	448,381
422,4	472,952
422,8	495,667
423,3	524,41
423,8	555,552
424,2	589,152
424,7	620,667
425,1	649,038
425,6	683,095
426	716,638
426,5	753,352
426,9	791,038
427,4	829,01
427,9	866,61
428,3	911,381
428,8	961,667
429,2	1012,067
429,7	1061,895
430,1	1118,61
430,6	1173,067
431	1237,152
431,5	1302,181
431,9	1366,638
432,4	1438,467
432,8	1514,924
433,3	1588,838
433,8	1671,038
434,2	1751,724
434,7	1832,895
435,1	1920,352
435,6	2016,524
436	2116,152
436,5	2221,067
436,9	2331,295
437,4	2450,81
437,8	2574,01
438,3	2705,095
438,8	2825,124
439,2	2952,81
439,7	3090,952
440,1	3229,124
440,6	3371,267
441	3522,038
441,5	3669,838
441,9	3836,581
442,4	4004,81
442,8	4172,781
443,3	4351,867
443,7	4529,467
444,2	4718,867
444,7	4914,124
445,1	5112,381
445,6	5317,81
446	5532,524
446,5	5746,952
446,9	5976,924
447,4	6200,895
447,8	6438,067
448,3	6675,467
448,7	6918,352
449,2	7158,867
449,6	7409,324
450,1	7670,01
450,6	7932,81
451	8185,41
451,5	8459,238
451,9	8743,81
452,4	9032,952
452,8	9330,095
453,3	9615,21
453,7	9913,781
454,2	10226,924
454,6	10535,695
455,1	10843,324
455,5	11157,981
456	11468,981
456,4	11780,838
456,9	12104,895
457,3	12436,467
457,8	12769,381
458,3	13099,781
458,7	13446,981
459,2	13789,81
459,6	14144,81
460,1	14493,124
460,5	14832,781
461	15183,124
461,4	15530,695
461,9	15866,638
462,3	16220,352
462,8	16580,81
463,2	16941,924
463,7	17294,095
464,1	17650,581
464,6	18001,381
465	18343,21
465,5	18688,667
466	19027,895
466,4	19355,21
466,9	19695,838
467,3	20023,352
467,8	20371,238
468,2	20717,781
468,7	21050,695
469,1	21379,667
469,6	21715,924
470	22050,81
470,5	22375,352
470,9	22690,981
471,4	23010,352
471,8	23319,01
472,3	23606,324
472,7	23896,667
473,2	24170,695
473,6	24470,238
474,1	24733,352
474,5	24988,695
475	25262,81
475,4	25528,352
475,9	25798,238
476,4	26059,152
476,8	26288,238
477,3	26535,581
477,7	26763,295
478,2	26974,981
478,6	27201,21
479,1	27402,495
479,5	27600,924
480	27783,152
480,4	27946,524
480,9	28122,581
481,3	28282,238
481,8	28433,067
482,2	28569,238
482,7	28701,495
483,1	28851,495
483,6	28964,781
484	29076,81
484,5	29178,838
484,9	29266,238
485,4	29336,838
485,8	29406,552
486,3	29452,438
486,7	29520,21
487,2	29569,981
487,6	29603,41
488,1	29632,61
488,5	29667,495
489	29688,81
489,4	29690,124
489,9	29687,752
490,4	29670,01
490,8	29658,924
491,3	29642,552
491,7	29599,695
492,2	29564,781
492,6	29507,724
493,1	29452,381
493,5	29380,81
494	29310,01
494,4	29226,381
494,9	29143,095
495,3	29026,038
495,8	28947,61
496,2	28857,352
496,7	28755,438
497,1	28647,924
497,6	28530,438
498	28420,924
498,5	28305,524
498,9	28162,924
499,4	28029,095
499,8	27898,181
500,3	27756,581
500,7	27615,152
501,2	27474,152
501,6	27347,152
502,1	27211,324
502,5	27058,067
503	26913,61
503,4	26759,467
503,9	26601,067
504,3	26441,238
504,8	26249,61
505,2	26065,838
505,7	25884,867
506,1	25695,381
506,6	25495,667
507	25308,838
507,5	25100,981
507,9	24902,324
508,4	24712,352
508,8	24513,952
509,3	24317,924
509,7	24119,238
510,2	23915,295
510,6	23721,295
511,1	23524,867
511,5	23307,124
512	23094,667
512,4	22882,61
512,9	22674,324
513,3	22476,781
513,8	22258,524
514,2	22052,724
514,7	21851,838
515,1	21646,638
515,6	21434,238
516	21226,838
516,5	21010,552
516,9	20797,752
517,4	20588,495
517,8	20374,667
518,3	20169,695
518,7	19957,495
519,2	19761,638
519,6	19549,752
520,1	19354,895
520,5	19137,724
521	18926,952
521,4	18712,552
521,9	18519,181
522,3	18302,295
522,8	18097,524
523,2	17890,981
523,7	17700,352
524,1	17503,267
524,6	17305,095
525	17105,981
525,5	16904,695
525,9	16705,324
526,4	16519,067
526,8	16331,038
527,3	16157,295
527,7	15982,41
528,2	15791,067
528,6	15620,067
529,1	15448,438
529,5	15275,552
530	15098,267
530,4	14912,324
530,9	14735,124
531,3	14587,21
531,8	14430,152
532,2	14262,724
532,6	14093,124
533,1	13935,067
533,5	13783,01
534	13631,324
534,4	13462,81
534,9	13308,295
535,3	13164,381
535,8	13017,724
536,2	12871,667
536,7	12719,781
537,1	12571,067
537,6	12436,81
538	12291,81
538,5	12148,524
538,9	12010,381
539,4	11871,724
539,8	11747,638
540,3	11613,952
540,7	11470,981
541,2	11331,924
541,6	11203,724
542,1	11075,838
542,5	10955,495
543	10824,124
543,4	10710,724
543,9	10595,438
544,3	10479,295
544,8	10358,095
545,2	10244,295
545,7	10129,295
546,1	10021,381
546,5	9912,61
547	9799,581
547,4	9693,838
547,9	9597,638
548,3	9489,695
548,8	9391,981
549,2	9286,867
549,7	9183,324
550,1	9093,667
550,6	9009,21
551	8922,638
551,5	8841,067
551,9	8743,352
552,4	8665,124
552,8	8576,724
553,3	8484,838
553,7	8392,238
554,2	8291,724
554,6	8200,267
555,1	8120,41
555,5	8028,781
555,9	7941,381
556,4	7864,295
556,8	7781,21
557,3	7702,581
557,7	7618,867
558,2	7547,638
558,6	7474,21
559,1	7405,21
559,5	7332,152
560	7265,552
560,4	7192,638
560,9	7131,267
561,3	7055,381
561,8	6994,981
562,2	6927,467
562,7	6866,952
563,1	6797,495
563,6	6735,867
564	6668,21
564,4	6609,695
564,9	6535,838
565,3	6472,952
565,8	6406,124
566,2	6345,352
566,7	6290,952
567,1	6234,952
567,6	6182,524
568	6139,495
568,5	6083,495
568,9	6027,838
569,4	5977,038
569,8	5923,238
570,3	5872,352
570,7	5806,381
571,1	5747,667
571,6	5700,352
572	5655,581
572,5	5600,952
572,9	5554,781
573,4	5503,324
573,8	5471,724
574,3	5421,752
574,7	5373,981
575,2	5321,181
575,6	5281,752
576,1	5228,124
576,5	5186,067
576,9	5129,495
577,4	5085,01
577,8	5042,038
578,3	5000,181
578,7	4955,667
579,2	4913,752
579,6	4866,695
580,1	4829,124
580,5	4794,095
581	4750,21
581,4	4715,238
581,9	4672,724
582,3	4636,952
582,7	4599,524
583,2	4556,81
583,6	4514,552
584,1	4474,781
584,5	4434,867
585	4404,981
585,4	4364,867
585,9	4329,61
586,3	4297,01
586,8	4256,21
587,2	4222,381
587,6	4183,067
588,1	4145,038
588,5	4116,867
589	4079,524
589,4	4044,324
589,9	4026,895
590,3	4003,895
590,8	3974,81
591,2	3940,152
591,7	3906,981
592,1	3879,724
592,5	3851,667
593	3819,752
593,4	3785,295
593,9	3758,581
594,3	3730,181
594,8	3701,581
595,2	3679,81
595,7	3651,581
596,1	3620,524
596,6	3600,695
597	3578,752
597,4	3559,095
597,9	3537,495
598,3	3513,267
598,8	3485,667
599,2	3464,638
599,7	3440,038
600,1	3411,524
600,6	3387,152
601	3363,038
601,4	3339,21
601,9	3321,781
602,3	3296,724
602,8	3270,695
603,2	3249,095
603,7	3227,524
604,1	3203,152
604,6	3174,781
605	3148,781
605,4	3126,21
605,9	3099,838
606,3	3074,038
606,8	3047,267
607,2	3025,21
607,7	3009,495
608,1	2989,867
608,6	2972,295
609	2959,638
609,4	2943,667
609,9	2928,01
610,3	2912,381
610,8	2894,895
611,2	2875,352
611,7	2847,324
612,1	2825,552
612,6	2805,238
613	2792,181
613,4	2768,895
613,9	2744,981
614,3	2727,267
614,8	2706,867
615,2	2686,924
615,7	2672,181
616,1	2643,81
616,6	2624,867
617	2602,552
617,4	2583,238
617,9	2574,381
618,3	2555,867
618,8	2531,267
619,2	2517,667
619,7	2499,352
620,1	2484,238
620,5	2469,61
621	2448,152
621,4	2428,01
621,9	2412,552
622,3	2399,495
622,8	2378,81
623,2	2365,924
623,6	2346,152
624,1	2333,61
624,5	2319,381
625	2295,981
625,4	2273,838
625,9	2266,81
626,3	2248,781
626,8	2236,981
627,2	2220,095
627,6	2199,952
628,1	2185,324
628,5	2164,552
629	2145,867
629,4	2119,267
629,9	2100,781
630,3	2083,638
630,7	2068,81
631,2	2062,438
631,6	2055,038
632,1	2038,067
632,5	2030,81
633	2013,238
633,4	1993,552
633,8	1980,381
634,3	1965,352
634,7	1948,867
635,2	1934,695
635,6	1917,924
636,1	1909,552
636,5	1897,01
636,9	1880,181
637,4	1864,867
637,8	1849,181
638,3	1830,21
638,7	1822,752
639,2	1808,41
639,6	1798,867
640	1789,781
640,5	1780,038
640,9	1770,038
641,4	1766,495
641,8	1752,038
642,2	1739,01
642,7	1727,038
643,1	1720,41
643,6	1708,352
644	1699,038
644,5	1683,095
644,9	1671,381
645,3	1663,21
645,8	1650,667
646,2	1641,095
646,7	1621,81
647,1	1608,381
647,6	1592,295
648	1576,41
648,4	1558,295
648,9	1547,952
649,3	1529,867
649,8	1523,724
650,2	1507,952
650,6	1498,667
651,1	1497,981
651,5	1493,867
652	1483,552
652,4	1474,238
652,9	1463,667
653,3	1460,095
653,7	1455,01
654,2	1442,61
654,6	1429,438
655,1	1414,01
655,5	1408,438
655,9	1398,095
656,4	1384,095
656,8	1375,895
657,3	1358,438
657,7	1345,695
658,2	1348,467
658,6	1330,867
659	1323,81
659,5	1318,324
659,9	1308,438
660,4	1303,867
660,8	1301,61
661,2	1285,152
661,7	1280,095
662,1	1273,067
662,6	1259,21
663	1250,267
663,4	1243,524
663,9	1230,695
664,3	1222,267
664,8	1215,781
665,2	1200,124
665,6	1192,067
666,1	1181,552
666,5	1170,695
667	1160,181
667,4	1151,952
667,9	1138,381
668,3	1139,61
668,7	1134,152
669,2	1124,238
669,6	1116,295
670,1	1111,181
670,5	1097,438
670,9	1094,924
671,4	1078,095
671,8	1067,095
672,3	1065,952
672,7	1057,61
673,1	1047,152
673,6	1043,638
674	1032,095
674,5	1030,638
674,9	1026,552
675,3	1015,81
675,8	1008,638
676,2	1004,924
676,7	995,924
677,1	992,01
677,5	981,067
678	975,067
678,4	966,124
678,9	957,038
679,3	943,752
679,7	938,895
680,2	930,067
680,6	923,124
681,1	913,067
681,5	911,181
681,9	907,552
682,4	908,438
682,8	897,724
683,3	892,838
683,7	888,267
684,1	879,581
684,6	873,324
685	862,752
685,5	850,724
685,9	850,695
686,3	843,238
686,8	835,095
687,2	830,124
687,7	822,895
688,1	823,124
688,5	819,438
689	813,124
689,4	809,438
689,9	802,924
690,3	804,867
690,7	796,295
691,2	790,61
691,6	783,41
692	772,41
692,5	762,924
692,9	758,181
693,4	743,81
693,8	740,152
694,2	728,41
694,7	726,781
695,1	727,238
695,6	721,724
696	719,81
696,4	712,724
696,9	704,638
697,3	705,152
697,8	695,038
698,2	687,895
698,6	686,267
699,1	677,295
699,5	675,267
699,9	668,095
700,4	660,21
700,8	656,295
701,3	649,01
701,7	640,095
702,1	639,81
702,6	638,61
703	634,638
703,5	629,267
703,9	628,724
704,3	627,581
704,8	623,81
705,2	616,552
705,6	603,124
706,1	608,067
706,5	607,124
707	600,981
707,4	595,895
707,8	591,01
708,3	586,124
708,7	590,524
709,2	580,924
709,6	571,952
710	567,638
710,5	563,895
710,9	562,638
711,3	558,41
711,8	551,238
712,2	546,61
712,7	548,924
713,1	544,067
713,5	539,124
714	533,667
714,4	525,838
714,8	525,724
715,3	524,381
715,7	515,638
716,2	509,067
716,6	509,467
717	506,038
717,5	504,667
717,9	497,952
718,3	490,924
718,8	493,61
719,2	492,781
719,7	487,924
720,1	480,181
720,5	475,667
721	470,267
721,4	469,667
721,8	462,381
722,3	454,867
722,7	443,524
723,2	444,838
723,6	443,867
724	441,924
724,5	432,324
724,9	426,467
725,3	427,352
725,8	427,152
726,2	418,152
726,7	412,667
727,1	408,695
727,5	412,038
728	408,21
728,4	404,838
728,8	405,495
729,3	406,695
729,7	407,752
730,1	402,524
730,6	395,438
731	398,895
731,5	396,095
731,9	395,295
732,3	395,981
732,8	391,524
733,2	392,81
733,6	391,238
734,1	386,924
734,5	377,467
734,9	371,21
735,4	368,095
735,8	366,038
736,3	363,638
736,7	362,524
737,1	357,724
737,6	363,667
738	362,381
738,4	359,638
738,9	360,01
739,3	357,038
739,7	355,381
740,2	349,952
740,6	349,467
741,1	344,21
741,5	339,924
741,9	331,924
742,4	334,524
742,8	335,581
743,2	339,867
743,7	336,238
744,1	329,495
744,5	329,638
745	327,21
745,4	319,095
745,8	313,438
746,3	310,124
746,7	308,038
747,2	316,095
747,6	311,81
748	313,981
748,5	312,752
748,9	312,21
749,3	313,152
749,8	304,981
750,2	301,038
750,6	295,895
751,1	294,152
751,5	289,924
751,9	287,81
752,4	281,781
752,8	284,152
753,3	281,581
753,7	283,01
754,1	281,21
754,6	278,724
755	278,038
755,4	276,867
755,9	273,667
756,3	266,467
756,7	264,267
757,2	260,295
757,6	262,724
758	253,638
758,5	249,41
758,9	247,324
759,3	251,181
759,8	253,438
760,2	253,095
760,6	252,952
761,1	250,352
761,5	252,667
761,9	252,467
762,4	247,952
762,8	244,324
763,3	239,038
763,7	234,781
764,1	232,867
764,6	225,352
765	223,781
765,4	223,41
765,9	216,981
766,3	215,552
766,7	212,352
767,2	216,724
767,6	216,267
768	214,981
768,5	209,752
768,9	211,067
769,3	210,324
769,8	212,124
770,2	211,352
770,6	212,038
771,1	212,724
771,5	218,61
771,9	218,61
772,4	223,61
772,8	220,438
773,2	218,095
773,7	219,781
774,1	219,41
774,5	218,81
775	215,552
775,4	207,21
775,8	206,295
776,3	202,781
776,7	202,524
777,1	202,81
777,6	200,61
778	202,524
778,4	201,524
778,9	201,267
779,3	202,124
779,7	196,01
780,2	191,524
780,6	190,21
781	186,524
781,5	184,695
781,9	184,552
782,3	182,781
782,8	177,352
783,2	173,867
783,6	166,181
784,1	166,781
784,5	168,752
784,9	167,124
785,4	166,295
785,8	163,124
786,2	162,238
786,7	166,952
787,1	166,095
787,5	167,038
788	164,867
788,4	163,295
788,8	166,21
789,3	167,495
789,7	165,067
790,1	162,61
790,6	160,638
791	161,21
791,4	157,438
791,9	159,038
792,3	156,695
792,7	158,981
793,2	154,067
793,6	153,352
794	150,724
794,5	152,61
794,9	152,895
795,3	153,21
795,8	147,181
796,2	152,495
796,6	147,181
797,1	144,21
797,5	142,752
797,9	137,752
798,4	135,238
798,8	134,21
799,2	131,21
799,7	137,81
800,1	135,924
800,5	135,152
801	137,61
801,4	132,838
801,8	130,438
802,2	131,038
802,7	126,324
803,1	121,895
803,5	119,238
804	120,267
804,4	125,21
804,8	125,781
805,3	123,238
805,7	120,324
806,1	127,867
806,6	131,238
807	126,295
807,4	117,438
807,9	117,838
808,3	116,638
808,7	114,495
809,2	107,438
809,6	108,095
810	106,667
810,4	111,324
810,9	108,724
811,3	108,095
811,7	109,552
812,2	114,695
812,6	111,381
813	111,352
813,5	112,095
813,9	114,552
814,3	113,324
814,8	118,524
815,2	110,352
815,6	106,838
816,1	106,181
816,5	103,295
816,9	101,124
817,3	100,438
817,8	97,781
818,2	100,267
818,6	102,152
819,1	103,581
819,5	103,552
819,9	98,61
820,4	95,781
820,8	88,324
821,2	92,838
821,7	90,952
822,1	90,181
822,5	85,552
822,9	92,124
823,4	92,238
823,8	94,01
824,2	92,267
824,7	95,095
825,1	92,581
825,5	101,152
826	100,381
826,4	102,838
826,8	103,152
827,3	103,438
827,7	102,952
828,1	105,867
828,5	98,21
829	92,381
829,4	95,295
829,8	90,61
830,3	86,495
830,7	84,381
831,1	82,752
831,6	83,067
832	82,152
832,4	75,381
832,8	81,267
833,3	76,838
833,7	77,524
834,1	71,781
834,6	69,61
835	71,41
835,4	77,038
835,8	70,267
836,3	71,895
836,7	66,21
837,1	69,267
837,6	66,838
838	64,324
838,4	55,181
838,9	61,238
839,3	65,61
839,7	58,667
840,1	56,781
840,6	60,324
841	63,295
841,4	63,81
841,9	58,867
842,3	55,667
842,7	62,41
843,1	69,324
843,6	69,724
844	66,295
844,4	65,924
844,9	66,924
845,3	67,638
845,7	71,61
846,2	67,867
846,6	66,81
847	66,124
847,4	65,781
847,9	64,781
848,3	63,495
848,7	59,724
849,2	62,952
849,6	62,752
850	57,838
850,4	61,724
850,9	61,095
851,3	56,981
851,7	58,038
852,2	45,21
852,6	43,295
853	50,695
853,4	51,267
853,9	50,495
854,3	54,038
854,7	50,467
855,2	51,81
855,6	50,81
856	45,324
856,4	41,638
856,9	41,581
857,3	37,895
857,7	42,21
858,2	49,867
858,6	52,895
859	50,01
859,4	54,781
859,9	54,695
860,3	56,495
860,7	54,695
861,1	52,61
861,6	47,752
862	51,181
862,4	47,724
862,9	44,295
863,3	41,81
863,7	37,981
864,1	31,781
864,6	30,781
865	31,295
865,4	27,038
865,9	24,581
866,3	27,581
866,7	27,152
867,1	33,21
867,6	36,124
868	37,467
868,4	34,152
868,8	39,324
869,3	40,838
869,7	40,924
870,1	44,267
870,6	40,352
871	84,181
871,4	87,124
871,8	86,724
872,3	86,324
872,7	84,838
873,1	80,895
873,5	86,552
874	42,181
874,4	41,981
874,8	39,124
875,3	33,61
875,7	36,238
876,1	33,267
876,5	33,81
877	33,181
877,4	34,381
877,8	37,61
878,2	35,381
878,7	38,21
879,1	38,324
879,5	34,21
879,9	35,695
880,4	33,181
880,8	30,238
881,2	36,895
881,7	36,01
882,1	33,438
882,5	35,01
882,9	32,724
883,4	37,295
883,8	39,152
884,2	35,21
884,6	32,838
885,1	37,467
885,5	37,952
885,9	41,038
886,3	37,41
886,8	36,638
887,2	34,638
887,6	29,381
888	26,495
888,5	24,952
888,9	25,695
889,3	20,21
889,8	20,352
890,2	19,581
890,6	22,524
891	23,667
891,5	23,552
891,9	18,124
892,3	25,181
892,7	26,495
893,2	28,467
893,6	27,895
894	27,124
894,4	28,01
894,9	30,095
895,3	28,038
895,7	23,81
896,1	23,467
896,6	24,581
897	21,952
897,4	15,81
897,8	15,952
898,3	22,067
898,7	22,41
899,1	21,638
899,5	20,695
900	21,524
900,4	26,267
900,8	24,238
901,2	19,524
901,7	18,352
902,1	22,181
902,5	21,095
902,9	25,381
903,4	24,838
903,8	19,895
904,2	23,61
904,6	17,267
905,1	16,695
905,5	15,752
905,9	10,752
906,3	10,867
906,8	17,695
907,2	11,667
907,6	22,381
908	18,581
908,5	20,495
908,9	20,867
909,3	18,581
909,7	15,067
910,2	14,552
910,6	13,638
911	14,638
911,4	12,867
911,9	15,895
912,3	19,181
912,7	20,238
913,1	18,238
913,6	18,981
914	18,267
914,4	17,267
914,8	14,924
915,3	11,552
915,7	6,638
916,1	5,467
916,5	4,152
916,9	4,695
917,4	7,324
917,8	8,267
918,2	8,21
918,6	15,095
919,1	19,41
919,5	19,124
919,9	19,581
920,3	18,867
920,8	18,381
921,2	23,067
921,6	20,381
922	20,095
922,5	20,21
922,9	20,352
923,3	23,095
923,7	20,181
924,2	14,152
924,6	13,638
925	12,638
925,4	7,838
925,8	7,781
926,3	8,952
926,7	9,61
927,1	10,324
927,5	9,238
928	8,552
928,4	10,781
928,8	13,295
929,2	10,381
929,7	10,467
930,1	12,61
930,5	13,124
930,9	14,381
931,3	13,81
931,8	12,552
932,2	11,867
932,6	13,524
933	10,838
933,5	12,895
933,9	9,581
934,3	9,581
934,7	9,752
935,2	7,781
935,6	6,381
936	4,867
936,4	2,838
936,8	4,524
937,3	4,952
937,7	1,352
938,1	-0,733
938,5	-2,333
939	-0,448
939,4	2,01
939,8	0,781
940,2	1,952
940,6	3,581
941,1	11,895
941,5	14,924
941,9	15,152
942,3	8,267
942,8	13,41
943,2	10,21
943,6	13,638
944	5,838
944,4	3,524
944,9	5,495
945,3	10,324
945,7	11,467
946,1	14,781
946,6	9,552
947	9,752
947,4	6,552
947,8	9,61
948,2	6,952
948,7	3,038
949,1	0,638
949,5	4,238
949,9	8,467
950,3	12,124
950,8	7,495
951,2	8,21
951,6	8,781
952	8,638
952,5	5,781
952,9	6,524
953,3	3,752
953,7	6,524
954,1	8,924
954,6	9,81
955	8,867
955,4	8,381
955,8	10,524
956,2	13,124
956,7	11,724
957,1	10,781
957,5	5,952
957,9	7,781
958,3	8,61
958,8	-0,448
959,2	1,724
959,6	0,495
960	0,924
960,5	0,695
960,9	7,552
961,3	8,81
961,7	8,124
962,1	3,924
962,6	0,638
963	-1,762
963,4	0,295
963,8	-6,219
964,2	-5,448
964,7	-0,39
965,1	2,838
965,5	7,438
965,9	10,381
966,3	10,095
966,8	10,467
967,2	9,981
967,6	9,581
968	6,724
968,4	9,352
968,9	12,61
969,3	8,924
969,7	7,981
970,1	8,724
970,5	9,895
971	11,61
971,4	9,467
971,8	8,867
972,2	15,981
972,6	15,752
973,1	13,752
973,5	12,524
973,9	11,01
974,3	7,524
974,7	-1,048
975,2	-5,276
975,6	-7,448
976	-5,276
976,4	-2,305
976,8	-2,619
977,3	-3,048
977,7	2,467
978,1	0,267
978,5	0,867
978,9	-1,048
979,4	-6,648
979,8	-3,648
980,2	-5,276
980,6	-4,905
981	2,781
981,5	4,238
981,9	1,267
982,3	3,438
982,7	2,524
983,1	7,638
983,6	3,124
984	-3,619
984,4	0,952
984,8	4,495
985,2	0,695
985,6	0,067
986,1	-1,133
986,5	3,295
986,9	6,495
987,3	1,267
987,7	2,867
988,2	9,038
988,6	6,41
989	9,495
989,4	9,924
989,8	6,981
990,3	9,838
990,7	4,952
991,1	1,267
991,5	1,524
991,9	-3,905
992,3	-1,533
992,8	1,524
993,2	2,438
993,6	5,895
994	5,81
994,4	10,21
994,9	13,724
995,3	7,781
995,7	6,238
996,1	0,867
996,5	-2,276
996,9	-2,133
997,4	-4,448
997,8	-2,905
998,2	3,438
998,6	6,552
999	9,495
999,5	13,067
999,9	11,352
1000,3	14,924
1000,7	10,81
1001,1	6,867
1001,5	2,638
1002	2,238
1002,4	0,667
1002,8	4,295
1003,2	3,01
1003,6	4,838
1004	3,21
1004,5	0,895
1004,9	2,352
1005,3	0,324
1005,7	1,324
1006,1	-3,419
1006,6	-1,533
1007	-0,733
1007,4	5,61
1007,8	2,524
1008,2	5,924
1008,6	1,267
1009,1	-0,076
1009,5	2,867
1009,9	6,867
1010,3	4,952
1010,7	8,867
1011,1	9,41
1011,6	12,067
1012	14,238
1012,4	12,01
1012,8	9,752
1013,2	8,724
1013,6	5,467
1014,1	0,981
1014,5	0,067
1014,9	3,324
1015,3	-1,505
1015,7	-4,019
1016,1	-4,705
1016,6	-3,419
1017	0,552
1017,4	0,352
1017,8	-2,99
1018,2	-3,305
1018,6	-2,276
1019,1	-3,505
1019,5	-2,505
1019,9	-1,333
1020,3	-0,705
1020,7	0,324
1021,1	4,952
1021,6	3,381
1022	3,381
1022,4	3,038
1022,8	-3,133
1023,2	-3,219
1023,6	-4,505
1024,1	-2,219
1024,5	3,238
1024,9	10,295
1025,3	9,152
1025,7	14,324
1026,1	19,838
1026,6	21,467
1027	16,752
1027,4	13,895
1027,8	7,638
1028,2	9,581
1028,6	10,267
1029	7,01
1029,5	10,952
1029,9	8,667
1030,3	11,667
1030,7	13,21
1031,1	9,81
1031,5	4,781
1032	3,21
1032,4	-7,962
1032,8	-6,076
1033,2	-10,219
1033,6	-7,305
1034	-7,248
1034,4	0,981
1034,9	-1,648
1035,3	7,867
1035,7	8,238
1036,1	7,095
1036,5	2,61
1036,9	5,695
1037,4	3,067
1037,8	5,295
1038,2	-5,219
1038,6	-8,248
1039	-9,048
1039,4	-6,219
1039,8	-12,105
1040,3	-15,219
1040,7	-19,933
1041,1	-11,133
1041,5	-14,362
1041,9	-12,619
1042,3	-12,762
1042,7	-7,476
1043,2	-6,676
1043,6	2,467
1044	-2,933
1044,4	1,095
1044,8	-0,876
1045,2	1,038
1045,6	6,124
1046,1	8,61
1046,5	8,895
1046,9	14,581
1047,3	16,352
1047,7	15,295
1048,1	10,067
1048,5	5,667
1049	1,952
1049,4	-4,848
1049,8	-4,533
1050,2	-0,019
1050,6	3,295
1051	9,438
1051,4	9,152
1051,9	15,21
1052,3	13,981
1052,7	12,21
1053,1	9,324
1053,5	10,152
1053,9	6,152
1054,3	7,495
1054,8	6,21
1055,2	10,752
1055,6	11,324
1056	11,895
1056,4	11,724
1056,8	12,695
1057,2	8,124
1057,6	0,41
1058,1	4,495
1058,5	0,067
1058,9	-2,619
1059,3	1,638
1059,7	-2,419
1060,1	0,41
1060,5	1,41
1061	-8,276
1061,4	-1,219
1061,8	-3,219
1062,2	-2,219
1062,6	5,238
1063	2,352
1063,4	7,152
1063,8	11,581
1064,3	7,667
1064,7	6,21
1065,1	-1,762
1065,5	-0,448
1065,9	3,552
1066,3	-3,648
1066,7	-7,305
1067,1	-7,162
1067,6	-4,505
1068	-1,162
1068,4	-1,562
1068,8	-6,476
1069,2	-3,276
1069,6	4,524
1070	5,324
1070,4	3,581
1070,9	-1,333
1071,3	-7,219
1071,7	-4,133
1072,1	-0,019
1072,5	-2,048
1072,9	0,724
1073,3	4,981
1073,7	4,895
1074,2	10,438
1074,6	8,952
1075	5,724
1075,4	6,867
1075,8	6,581
1076,2	6,61
1076,6	9,752
1077	4,695
1077,5	8,038
1077,9	9,981
1078,3	5,838
1078,7	4,238
1079,1	4,952
1079,5	3,495
1079,9	5,752
1080,3	4,438
1080,7	7,181
1081,2	8,381
1081,6	9,352
1082	6,667
1082,4	8,21
1082,8	5,867
1083,2	2,695
1083,6	4,552
1084	1,981
1084,5	-2,305
1084,9	-0,705
1085,3	-1,619
1085,7	-3,762
1086,1	-5,219
1086,5	-7,762
1086,9	-2,933
1087,3	1,124
1087,7	1,752
1088,2	-0,219
1088,6	0,61
1089	1,695
1089,4	1,752
1089,8	2,438
1090,2	2,324
1090,6	0,152
1091	3,752
1091,4	8,952
1091,9	13,695
1092,3	9,867
1092,7	3,981
1093,1	0,295
1093,5	-0,619
1093,9	1,638
1094,3	0,381
1094,7	-0,59
1095,1	-2,59
1095,5	-0,676
1096	-2,333
1096,4	4,524
1096,8	-0,19
1097,2	0,381
1097,6	-0,305
1098	0,924
1098,4	2,838
1098,8	6,981
1099,2	0,552
1099,6	6,267
1100,1	5,038
1100,5	5,41
1100,9	6,067
1101,3	5,495
1101,7	8,238
1102,1	8,038
1102,5	3,181
1102,9	-3,219
1103,3	-9,476
1103,7	-9,419
1104,2	-6,39
1104,6	-6,448
1105	-4,819
1105,4	-2,39
1105,8	2,838
1106,2	8,352
1106,6	7,981
1107	4,41
1107,4	1,967
1107,8	1,307
1108,3	-0,433
