Data from Subt2_314.txt Node
Date: Sat Aug 26 19:15:48 MSK 2023
User: vat
Spectrometer: MAYP114033
Trigger mode: 0
Integration Time (sec): 1,000000E0
Scans to average: 5
Electric dark correction enabled: true
Nonlinearity correction enabled: false
Boxcar width: 3
XAxis mode: Wavelengths
Number of Pixels in Spectrum: 2068
>>>>>Begin Spectral Data<<<<<
199,4	-0,45
199,9	2,56
200,4	1,967
200,8	4,229
201,3	3,686
201,8	5,229
202,2	4,457
202,7	10,543
203,2	8,886
203,6	8,829
204,1	5,686
204,6	5,629
205	6,829
205,5	7,657
206	4,143
206,4	4,086
206,9	4,743
207,4	9,457
207,8	11,457
208,3	8,829
208,8	10,429
209,2	14,886
209,7	17,057
210,2	18,486
210,6	17,857
211,1	19,029
211,5	16,543
212	16,2
212,5	11,286
212,9	7,6
213,4	10,286
213,9	6,143
214,3	5,857
214,8	13,143
215,3	14,543
215,7	14,571
216,2	19,371
216,7	14,743
217,1	17,229
217,6	19,171
218,1	17,571
218,5	15,943
219	11,8
219,5	12,771
219,9	12,543
220,4	19,857
220,9	17,857
221,3	15,943
221,8	16,486
222,3	22,143
222,7	20,743
223,2	21,743
223,6	13,886
224,1	9,829
224,6	12,657
225	8,371
225,5	5,857
226	4,771
226,4	6,171
226,9	7,943
227,4	11,543
227,8	3,714
228,3	4,486
228,8	4,657
229,2	4,8
229,7	2,543
230,2	5,086
230,6	9,229
231,1	19,571
231,5	21,543
232	25,429
232,5	21,171
232,9	24,686
233,4	22,029
233,9	14,371
234,3	9,029
234,8	10,343
235,3	6,257
235,7	12,914
236,2	11,2
236,7	7,171
237,1	11,286
237,6	10,6
238,1	9
238,5	6,571
239	5,229
239,4	5,943
239,9	7,543
240,4	7,886
240,8	10,886
241,3	8,257
241,8	11,086
242,2	6,114
242,7	2,829
243,2	4,829
243,6	-0,6
244,1	0,114
244,6	3,514
245	1,286
245,5	1,029
245,9	3
246,4	3
246,9	9,086
247,3	7,886
247,8	9,143
248,3	9,829
248,7	14,057
249,2	15,6
249,7	15,571
250,1	14,743
250,6	18,171
251	16,971
251,5	21,086
252	20,914
252,4	21,971
252,9	16
253,4	11,457
253,8	6,4
254,3	7,8
254,8	6,743
255,2	4,657
255,7	2,2
256,1	9,686
256,6	13,8
257,1	15,514
257,5	11,714
258	9,629
258,5	10,2
258,9	9,771
259,4	7,029
259,9	11,771
260,3	6,943
260,8	6,171
261,2	7,629
261,7	11,657
262,2	8,686
262,6	12,457
263,1	10,171
263,6	14,086
264	15,6
264,5	15,743
264,9	9,429
265,4	11,857
265,9	6,429
266,3	8,143
266,8	9,143
267,3	12,171
267,7	10,057
268,2	11,829
268,7	12,6
269,1	9,486
269,6	5,829
270	4,743
270,5	0,029
271	5,343
271,4	5,771
271,9	3,486
272,4	14,657
272,8	11,857
273,3	6,543
273,7	7,886
274,2	3,886
274,7	4,914
275,1	8,257
275,6	0,543
276,1	-0,657
276,5	5,686
277	8,857
277,4	8,743
277,9	10,343
278,4	9,771
278,8	11,229
279,3	13
279,8	14
280,2	15,257
280,7	17,4
281,1	14,514
281,6	14,114
282,1	13,914
282,5	15,4
283	12,657
283,4	11,6
283,9	13,829
284,4	17,857
284,8	17,457
285,3	18,743
285,8	21,4
286,2	21,4
286,7	22,686
287,1	19,771
287,6	15,829
288,1	16,6
288,5	18,057
289	11,857
289,5	13,571
289,9	9,771
290,4	9,571
290,8	11,371
291,3	9,429
291,8	9,343
292,2	9,886
292,7	10,171
293,1	11
293,6	11,857
294,1	12,6
294,5	13,171
295	12,029
295,5	16,257
295,9	15,771
296,4	14,657
296,8	14,114
297,3	17,371
297,8	15,171
298,2	13,086
298,7	15,886
299,1	15,686
299,6	14,714
300,1	15,914
300,5	11,229
301	20,029
301,5	26,714
301,9	20,029
302,4	18,343
302,8	19,343
303,3	15,6
303,8	9,686
304,2	3,771
304,7	-2,914
305,1	-3,143
305,6	-4,571
306,1	3,657
306,5	5
307	12,143
307,4	14,229
307,9	17,943
308,4	19,714
308,8	19,029
309,3	16,8
309,8	17,143
310,2	20,114
310,7	14,829
311,1	12,6
311,6	18,343
312,1	20,8
312,5	17,457
313	20,829
313,4	18,571
313,9	24,543
314,4	21,8
314,8	12,886
315,3	11,914
315,7	6,714
316,2	3,743
316,7	-1,371
317,1	1,457
317,6	4,486
318	9,543
318,5	12,686
319	14,114
319,4	14,114
319,9	20,6
320,3	16,571
320,8	17,486
321,3	20,029
321,7	20,143
322,2	25,8
322,6	24,429
323,1	21,429
323,6	20,857
324	19,857
324,5	14,629
324,9	12,029
325,4	9,314
325,9	11,029
326,3	12,429
326,8	12,829
327,2	10,057
327,7	9,657
328,2	12,286
328,6	12,371
329,1	7,543
329,5	8,914
330	6,743
330,5	12,286
330,9	13,571
331,4	9,343
331,8	8,371
332,3	14,714
332,8	10,543
333,2	10,886
333,7	8,171
334,1	9
334,6	10
335,1	7,229
335,5	5,914
336	10,086
336,4	11,771
336,9	19,457
337,4	21,629
337,8	23,857
338,3	25,2
338,7	27,057
339,2	27,314
339,7	30,257
340,1	20,2
340,6	20,057
341	15,4
341,5	16,686
342	11,657
342,4	8,371
342,9	4,286
343,3	6,4
343,8	6,914
344,2	10,286
344,7	15,4
345,2	15,857
345,6	17,286
346,1	17,257
346,5	12,457
347	8,657
347,5	7,171
347,9	8,657
348,4	14,2
348,8	13,543
349,3	19,257
349,8	23,229
350,2	29,743
350,7	28,514
351,1	25,114
351,6	26,686
352	33,857
352,5	37,314
353	47,686
353,4	49,286
353,9	63,314
354,3	74,2
354,8	82,114
355,3	98,314
355,7	115,943
356,2	133,229
356,6	156,771
357,1	183,286
357,5	212,057
358	250,886
358,5	281,286
358,9	321,571
359,4	370,686
359,8	423,914
360,3	486
360,8	555,457
361,2	625,943
361,7	710,486
362,1	811,6
362,6	916,629
363	1029,114
363,5	1142,914
364	1267,971
364,4	1397,686
364,9	1527,714
365,3	1645,2
365,8	1759,686
366,3	1868,029
366,7	1968,4
367,2	2055,514
367,6	2121,886
368,1	2180,6
368,5	2217,286
369	2236
369,5	2242,714
369,9	2225,629
370,4	2187
370,8	2142,114
371,3	2077,143
371,7	2004,771
372,2	1919,086
372,7	1824,971
373,1	1733,4
373,6	1634,914
374	1536,029
374,5	1430,743
374,9	1330,771
375,4	1236,857
375,9	1145,571
376,3	1054,857
376,8	969,371
377,2	893,486
377,7	820,686
378,2	751
378,6	690,686
379,1	633,714
379,5	584,657
380	546,543
380,4	497,086
380,9	457,771
381,4	424,114
381,8	389,429
382,3	361,857
382,7	333,4
383,2	308
383,6	288,286
384,1	271,771
384,6	254,829
385	239,657
385,5	220,743
385,9	205,429
386,4	186,943
386,8	174,629
387,3	160,2
387,7	151,629
388,2	142,543
388,7	133
389,1	123,686
389,6	119,371
390	113,371
390,5	113,257
390,9	105,6
391,4	101,543
391,9	96,057
392,3	94,343
392,8	85,114
393,2	81,771
393,7	76,6
394,1	69,229
394,6	62,457
395,1	61,629
395,5	55,114
396	56,971
396,4	55,2
396,9	51,857
397,3	56,571
397,8	61,057
398,2	62,971
398,7	63,229
399,2	63,686
399,6	63,457
400,1	58,457
400,5	49,543
401	47,114
401,4	41,343
401,9	43,343
402,4	42,343
402,8	35,686
403,3	44,771
403,7	44,943
404,2	42,914
404,6	47,429
405,1	43,6
405,5	39
406	44,4
406,5	36,4
406,9	40,486
407,4	40,914
407,8	39,314
408,3	41,371
408,7	42,686
409,2	44,571
409,6	47,029
410,1	47,971
410,6	52,629
411	53,086
411,5	55,943
411,9	61,057
412,4	63,714
412,8	64,657
413,3	67,543
413,7	69,457
414,2	71,629
414,7	74,943
415,1	80,171
415,6	82,771
416	88,057
416,5	86,114
416,9	82,371
417,4	85,714
417,8	89,429
418,3	91,343
418,8	93,857
419,2	95,943
419,7	102,657
420,1	109,514
420,6	111,057
421	108,371
421,5	105,057
421,9	102,086
422,4	103,943
422,8	100,886
423,3	95,6
423,8	93,086
424,2	94,629
424,7	97,486
425,1	99,114
425,6	100,086
426	101,771
426,5	103,286
426,9	111,029
427,4	106,086
427,9	101,2
428,3	103,714
428,8	101,571
429,2	98,886
429,7	98,714
430,1	91,629
430,6	95,257
431	97,371
431,5	93
431,9	88,743
432,4	90,971
432,8	96,657
433,3	100,171
433,8	99,457
434,2	103
434,7	109,914
435,1	113,257
435,6	116,857
436	115,343
436,5	116,914
436,9	120,171
437,4	120,257
437,8	120,886
438,3	125,057
438,8	121,343
439,2	125,514
439,7	133,171
440,1	140,543
440,6	149,2
441	149,686
441,5	154,429
441,9	168,8
442,4	172,143
442,8	171,371
443,3	176,143
443,7	182,543
444,2	191,4
444,7	200,257
445,1	203,629
445,6	214,457
446	225,343
446,5	228,8
446,9	229,771
447,4	239,771
447,8	248,343
448,3	262,829
448,7	269,8
449,2	281,629
449,6	300,143
450,1	312,657
450,6	326,4
451	336,057
451,5	347,829
451,9	366,086
452,4	376,571
452,8	385,057
453,3	406
453,7	414,229
454,2	431,229
454,6	443,314
455,1	454,514
455,5	469,257
456	488,029
456,4	495,086
456,9	512,257
457,3	527,686
457,8	539,714
458,3	558,371
458,7	578,114
459,2	593,743
459,6	612,571
460,1	636,714
460,5	652,2
461	677,486
461,4	692,229
461,9	708,714
462,3	731,086
462,8	751,943
463,2	765,114
463,7	789,686
464,1	812,114
464,6	835,457
465	857,171
465,5	877,857
466	901,4
466,4	928,4
466,9	955,457
467,3	974,714
467,8	998,371
468,2	1023,514
468,7	1045
469,1	1076,914
469,6	1100,657
470	1120,486
470,5	1145,143
470,9	1167,086
471,4	1189,286
471,8	1211,8
472,3	1233,686
472,7	1258,514
473,2	1278,286
473,6	1298,629
474,1	1323,657
474,5	1353
475	1381,371
475,4	1398,343
475,9	1420,429
476,4	1449,4
476,8	1477,857
477,3	1502,229
477,7	1523,371
478,2	1544,029
478,6	1566,714
479,1	1582,857
479,5	1601,371
480	1618,514
480,4	1645,857
480,9	1662,457
481,3	1678,6
481,8	1702,343
482,2	1721,029
482,7	1742,657
483,1	1765,257
483,6	1774
484	1791,343
484,5	1817,171
484,9	1831,4
485,4	1859,571
485,8	1869,943
486,3	1883,371
486,7	1904,771
487,2	1922,543
487,6	1932,971
488,1	1947,8
488,5	1954,2
489	1970,343
489,4	1986,4
489,9	1990,629
490,4	2004,743
490,8	2013,143
491,3	2024,886
491,7	2035,571
492,2	2044,714
492,6	2049,771
493,1	2062,571
493,5	2064,571
494	2066,343
494,4	2069,6
494,9	2076,886
495,3	2087,743
495,8	2092,143
496,2	2103,571
496,7	2101,143
497,1	2114
497,6	2116,6
498	2125,343
498,5	2126,343
498,9	2129,886
499,4	2122,6
499,8	2143,286
500,3	2151,343
500,7	2154,314
501,2	2146,2
501,6	2146,571
502,1	2146,571
502,5	2156,029
503	2152,686
503,4	2145,6
503,9	2149
504,3	2154,086
504,8	2149,514
505,2	2153,629
505,7	2148,943
506,1	2151,429
506,6	2154,029
507	2153,086
507,5	2152,629
507,9	2153,543
508,4	2151,086
508,8	2150,771
509,3	2141,229
509,7	2145,743
510,2	2145,4
510,6	2146,314
511,1	2150,914
511,5	2146,886
512	2147,543
512,4	2149,143
512,9	2144,829
513,3	2145,543
513,8	2144,171
514,2	2143,229
514,7	2146,343
515,1	2145,143
515,6	2138,229
516	2129,257
516,5	2128
516,9	2128,514
517,4	2131,229
517,8	2132,457
518,3	2128,543
518,7	2136
519,2	2139,6
519,6	2143,143
520,1	2143,857
520,5	2135,429
521	2129,143
521,4	2126,514
521,9	2125,714
522,3	2121,4
522,8	2109,257
523,2	2107,8
523,7	2109,486
524,1	2106,914
524,6	2108
525	2101,971
525,5	2108,229
525,9	2112,257
526,4	2103,629
526,8	2101,029
527,3	2104,857
527,7	2105,457
528,2	2110
528,6	2106,657
529,1	2114,2
529,5	2118,657
530	2119,314
530,4	2123,457
530,9	2127
531,3	2124,114
531,8	2132,229
532,2	2132,486
532,6	2132,943
533,1	2134,086
533,5	2135,771
534	2138,657
534,4	2140,057
534,9	2137,143
535,3	2130,829
535,8	2137,829
536,2	2142
536,7	2141,8
537,1	2144,486
537,6	2149,143
538	2150,086
538,5	2160,6
538,9	2154,514
539,4	2161,429
539,8	2163,486
540,3	2166,829
540,7	2167,229
541,2	2163,829
541,6	2166,914
542,1	2179,8
542,5	2180,4
543	2180,2
543,4	2178,886
543,9	2191,714
544,3	2200,571
544,8	2194,714
545,2	2190,114
545,7	2198,571
546,1	2206,857
546,5	2216,371
547	2209,086
547,4	2212,8
547,9	2218,057
548,3	2223,171
548,8	2225,714
549,2	2227,429
549,7	2229,029
550,1	2233,171
550,6	2238,543
551	2244,8
551,5	2249,114
551,9	2242,829
552,4	2244
552,8	2245,229
553,3	2244,771
553,7	2243,114
554,2	2246,229
554,6	2251,171
555,1	2262,143
555,5	2265,771
555,9	2268,429
556,4	2276,343
556,8	2277,686
557,3	2273,486
557,7	2271,229
558,2	2269,457
558,6	2272,057
559,1	2270,686
559,5	2273,4
560	2274,714
560,4	2279,857
560,9	2283,229
561,3	2283,086
561,8	2285,543
562,2	2288,429
562,7	2294,457
563,1	2307
563,6	2306,886
564	2309,286
564,4	2311,771
564,9	2317,486
565,3	2314,314
565,8	2309,8
566,2	2305
566,7	2309,8
567,1	2310,2
567,6	2310,8
568	2307,057
568,5	2313,686
568,9	2317,486
569,4	2318,343
569,8	2318,8
570,3	2315,457
570,7	2314,114
571,1	2316,571
571,6	2319,514
572	2319,714
572,5	2321,543
572,9	2321,057
573,4	2324,171
573,8	2328,971
574,3	2325,343
574,7	2318,943
575,2	2312,457
575,6	2308,571
576,1	2312,714
576,5	2315,514
576,9	2312,857
577,4	2304,143
577,8	2303,343
578,3	2309,2
578,7	2310,371
579,2	2309,086
579,6	2305,257
580,1	2304,343
580,5	2314,743
581	2314,314
581,4	2310,429
581,9	2303,029
582,3	2295,714
582,7	2293,057
583,2	2292,286
583,6	2287,029
584,1	2284,6
584,5	2277,743
585	2277,143
585,4	2266,114
585,9	2261,829
586,3	2253,029
586,8	2249,371
587,2	2242,114
587,6	2244,171
588,1	2239,914
588,5	2245,029
589	2245
589,4	2237,629
589,9	2236,086
590,3	2235,057
590,8	2228,114
591,2	2227,114
591,7	2226,086
592,1	2221,514
592,5	2228,6
593	2220
593,4	2217,486
593,9	2211
594,3	2203,029
594,8	2190,2
595,2	2185,229
595,7	2177,171
596,1	2172,514
596,6	2169,886
597	2168,171
597,4	2166,543
597,9	2171,286
598,3	2165,971
598,8	2164,857
599,2	2161,857
599,7	2156,886
600,1	2150,143
600,6	2147,371
601	2140,686
601,4	2146,971
601,9	2142,886
602,3	2137,886
602,8	2131,514
603,2	2128,714
603,7	2119,543
604,1	2119,057
604,6	2105
605	2099,857
605,4	2098,371
605,9	2092,143
606,3	2083,629
606,8	2081,457
607,2	2073,429
607,7	2069,2
608,1	2058,257
608,6	2049,171
609	2049,771
609,4	2047,486
609,9	2034,086
610,3	2023,743
610,8	2014,286
611,2	2009,886
611,7	2004,486
612,1	1996,8
612,6	1991,886
613	1995,486
613,4	1992,743
613,9	1988,629
614,3	1984,114
614,8	1984,6
615,2	1971,543
615,7	1969,143
616,1	1962,514
616,6	1951,829
617	1942,686
617,4	1931
617,9	1924,629
618,3	1922,514
618,8	1915,114
619,2	1905,314
619,7	1899,429
620,1	1894,371
620,5	1891,743
621	1876,714
621,4	1870,371
621,9	1856,429
622,3	1848,6
622,8	1840,971
623,2	1834,486
623,6	1826,714
624,1	1821,514
624,5	1812,686
625	1814,571
625,4	1807,886
625,9	1799,486
626,3	1793,343
626,8	1785,971
627,2	1778,914
627,6	1764,371
628,1	1747,114
628,5	1741,886
629	1732,943
629,4	1721,143
629,9	1709,686
630,3	1695,343
630,7	1688,2
631,2	1680,771
631,6	1669,543
632,1	1661,457
632,5	1652,943
633	1644,029
633,4	1639,029
633,8	1638
634,3	1631,314
634,7	1621,229
635,2	1609,886
635,6	1601,686
636,1	1596,486
636,5	1584,086
636,9	1573,686
637,4	1563,514
637,8	1551,229
638,3	1547,257
638,7	1536,371
639,2	1522,114
639,6	1520,886
640	1510,657
640,5	1505,971
640,9	1500,543
641,4	1495,029
641,8	1491,343
642,2	1490,771
642,7	1488,914
643,1	1484,6
643,6	1478,4
644	1475,686
644,5	1468,771
644,9	1462,971
645,3	1455,971
645,8	1437,343
646,2	1427,886
646,7	1420,314
647,1	1413,429
647,6	1406,943
648	1397,571
648,4	1387,2
648,9	1389,429
649,3	1381,457
649,8	1374,714
650,2	1369,657
650,6	1364,771
651,1	1356,743
651,5	1356,971
652	1348,6
652,4	1343,514
652,9	1336,686
653,3	1326,543
653,7	1319,6
654,2	1312,886
654,6	1297,343
655,1	1294,2
655,5	1290,629
655,9	1283,743
656,4	1280,171
656,8	1268,886
657,3	1264,171
657,7	1265,914
658,2	1253,429
658,6	1244,086
659	1233,371
659,5	1219
659,9	1210,229
660,4	1203,914
660,8	1186,714
661,2	1177,171
661,7	1174,829
662,1	1173,743
662,6	1172,143
663	1170,8
663,4	1162,743
663,9	1162,2
664,3	1159,057
664,8	1146,057
665,2	1132
665,6	1123,629
666,1	1119,914
666,5	1118,229
667	1108,2
667,4	1100,286
667,9	1094,571
668,3	1093,029
668,7	1089,457
669,2	1080,943
669,6	1074,886
670,1	1071,886
670,5	1062,943
670,9	1054,571
671,4	1044,371
671,8	1039,143
672,3	1031,457
672,7	1024,371
673,1	1013,314
673,6	1008,971
674	1008,514
674,5	1003,886
674,9	988,771
675,3	980,686
675,8	974,686
676,2	971,943
676,7	963,257
677,1	955,143
677,5	949,171
678	950,686
678,4	946,943
678,9	937,686
679,3	935,057
679,7	928,8
680,2	915,429
680,6	908,914
681,1	902,714
681,5	897
681,9	893,143
682,4	884,114
682,8	882,2
683,3	885,714
683,7	884
684,1	879,143
684,6	872,143
685	864,971
685,5	860,6
685,9	852,771
686,3	847,686
686,8	840,657
687,2	839,257
687,7	834,057
688,1	825,229
688,5	815,714
689	812,771
689,4	804,086
689,9	798,486
690,3	786,571
690,7	784,371
691,2	786,4
691,6	788,286
692	783,943
692,5	784
692,9	782,771
693,4	777,857
693,8	769,8
694,2	763,114
694,7	757,257
695,1	751,771
695,6	748,543
696	747,086
696,4	745,114
696,9	737,857
697,3	728,857
697,8	721,6
698,2	715,514
698,6	707,914
699,1	702,686
699,5	698,943
699,9	697,571
700,4	693,629
700,8	691,114
701,3	690,8
701,7	686,114
702,1	673,857
702,6	670,514
703	671,486
703,5	667,543
703,9	662,714
704,3	658,571
704,8	650,429
705,2	648,286
705,6	639,486
706,1	630,057
706,5	625,514
707	625,714
707,4	619,171
707,8	614,429
708,3	612,686
708,7	611,743
709,2	608,571
709,6	607,343
710	601,714
710,5	592,686
710,9	594,086
711,3	587,714
711,8	584,971
712,2	582,114
712,7	575,086
713,1	571,086
713,5	575,086
714	571,714
714,4	568,229
714,8	566,229
715,3	558,486
715,7	557,943
716,2	550,857
716,6	547,343
717	541,743
717,5	540,571
717,9	535,486
718,3	532,143
718,8	528,229
719,2	523,057
719,7	519,457
720,1	514,4
720,5	512,057
721	506,457
721,4	503,229
721,8	502,714
722,3	498,057
722,7	497,086
723,2	490,571
723,6	481,886
724	478,943
724,5	474
724,9	466,857
725,3	468,914
725,8	462
726,2	460,629
726,7	459,571
727,1	458,857
727,5	458,229
728	452,514
728,4	449,114
728,8	444,857
729,3	442,371
729,7	439,286
730,1	433,886
730,6	436,514
731	432,943
731,5	430,971
731,9	429,829
732,3	431,143
732,8	429,371
733,2	430,4
733,6	424,943
734,1	425
734,5	420,571
734,9	416,029
735,4	410,8
735,8	403,229
736,3	401,829
736,7	396,657
737,1	396,657
737,6	394,057
738	395,543
738,4	390,514
738,9	396,571
739,3	389,371
739,7	390,657
740,2	384,857
740,6	384,2
741,1	383,029
741,5	378,486
741,9	371,943
742,4	371,914
742,8	370,4
743,2	371
743,7	366,514
744,1	357,829
744,5	356,686
745	352,086
745,4	349,057
745,8	345,286
746,3	344,343
746,7	343,343
747,2	344,857
747,6	347,429
748	348,971
748,5	346,4
748,9	340,8
749,3	341,8
749,8	338,971
750,2	337,6
750,6	332,714
751,1	331,057
751,5	329,971
751,9	333,029
752,4	329,514
752,8	329,429
753,3	328,971
753,7	328,514
754,1	325,8
754,6	322,514
755	318,286
755,4	314,171
755,9	311,057
756,3	306,971
756,7	306,143
757,2	305,257
757,6	303,857
758	300,286
758,5	297,114
758,9	295,343
759,3	295,743
759,8	296,4
760,2	293,771
760,6	292,343
761,1	289,514
761,5	287,8
761,9	285,657
762,4	281,171
762,8	277,2
763,3	274
763,7	272,8
764,1	271,429
764,6	271,514
765	273,714
765,4	271,657
765,9	271,914
766,3	274,2
766,7	272,457
767,2	273,114
767,6	274,057
768	268,229
768,5	265,829
768,9	262,486
769,3	260,514
769,8	257,6
770,2	261,829
770,6	259,971
771,1	265,543
771,5	266,171
771,9	265,743
772,4	265,457
772,8	262,286
773,2	256,8
773,7	252,171
774,1	243,657
774,5	236,343
775	233,543
775,4	228,343
775,8	229,714
776,3	229,829
776,7	226,343
777,1	226,143
777,6	231,429
778	235,657
778,4	237,029
778,9	235,371
779,3	231,2
779,7	233,257
780,2	231,629
780,6	226,743
781	217,829
781,5	210,829
781,9	213,143
782,3	208,086
782,8	208,457
783,2	206,543
783,6	211,686
784,1	213,571
784,5	211,914
784,9	206,6
785,4	208,886
785,8	205,657
786,2	203,257
786,7	201,429
787,1	194,771
787,5	196,314
788	192,971
788,4	193,514
788,8	191,571
789,3	190,229
789,7	185,029
790,1	188,686
790,6	188,457
791	185,743
791,4	183,114
791,9	176,629
792,3	173,829
792,7	176,229
793,2	173,343
793,6	173,457
794	176,229
794,5	172,343
794,9	181,057
795,3	182,143
795,8	177,543
796,2	176,429
796,6	174,686
797,1	173,114
797,5	172,486
797,9	165,029
798,4	162,257
798,8	158,514
799,2	157,486
799,7	158,286
800,1	155,171
800,5	157,257
801	159,8
801,4	161,629
801,8	161,514
802,2	159,486
802,7	152,943
803,1	153,257
803,5	149,886
804	146,629
804,4	147,2
804,8	147,314
805,3	149,086
805,7	149,514
806,1	148,343
806,6	148,229
807	144,657
807,4	141,257
807,9	136,286
808,3	131,543
808,7	133,057
809,2	136,2
809,6	136,943
810	138,657
810,4	139,771
810,9	141,943
811,3	145,029
811,7	145,686
812,2	147,686
812,6	144,743
813	147,257
813,5	144,343
813,9	143,943
814,3	144,257
814,8	140,029
815,2	131,371
815,6	125,143
816,1	125,143
816,5	124,514
816,9	126,943
817,3	125,086
817,8	131,143
818,2	134,2
818,6	138,171
819,1	135,714
819,5	131,086
819,9	127,743
820,4	124,657
820,8	116,171
821,2	110,429
821,7	112,4
822,1	114,057
822,5	120,029
822,9	119,743
823,4	119,514
823,8	122
824,2	124,314
824,7	118,8
825,1	108,829
825,5	99,857
826	95,114
826,4	91,686
826,8	88,914
827,3	88,886
827,7	86,2
828,1	87,286
828,5	92,971
829	88,029
829,4	89,286
829,8	86,4
830,3	84,2
830,7	85,514
831,1	86,8
831,6	83,086
832	87,6
832,4	86,486
832,8	86,314
833,3	83,8
833,7	82,543
834,1	78,029
834,6	79,429
835	80,229
835,4	82,057
835,8	80,571
836,3	80,943
836,7	84,314
837,1	84,857
837,6	83,2
838	81,743
838,4	82,771
838,9	85,057
839,3	84,114
839,7	83,286
840,1	81,943
840,6	79,714
841	82,943
841,4	83,086
841,9	77,514
842,3	76,314
842,7	76,514
843,1	76,829
843,6	82,371
844	79,229
844,4	78,686
844,9	84,029
845,3	86,229
845,7	84,057
846,2	82
846,6	78,543
847	80,629
847,4	77,857
847,9	77,457
848,3	73,6
848,7	73,4
849,2	77,514
849,6	73,229
850	76,514
850,4	77,114
850,9	78,371
851,3	81,6
851,7	82,286
852,2	79,029
852,6	85,143
853	81,457
853,4	78
853,9	72,943
854,3	71,857
854,7	73,6
855,2	73,514
855,6	73
856	70,143
856,4	66,886
856,9	68,8
857,3	70,257
857,7	67,429
858,2	73,086
858,6	65,657
859	62,714
859,4	63,057
859,9	58,543
860,3	55,514
860,7	55,286
861,1	51,229
861,6	51,771
862	50,914
862,4	52,8
862,9	54,229
863,3	55,057
863,7	54,543
864,1	54,4
864,6	56,686
865	56,057
865,4	57,571
865,9	60,971
866,3	52,171
866,7	47,914
867,1	46,457
867,6	46,714
868	48,514
868,4	43,629
868,8	40,514
869,3	45,743
869,7	50,229
870,1	46,457
870,6	43,229
871	28,029
871,4	31,143
871,8	23,2
872,3	27,343
872,7	27,571
873,1	31,486
873,5	32
874	47,371
874,4	49,4
874,8	54,943
875,3	51,371
875,7	47,057
876,1	47,629
876,5	46,829
877	45,143
877,4	39,686
877,8	41,657
878,2	45,457
878,7	50,286
879,1	50,543
879,5	50,543
879,9	52,914
880,4	54,943
880,8	57,771
881,2	51,714
881,7	44,514
882,1	43,857
882,5	43,857
882,9	39,943
883,4	39,257
883,8	39,2
884,2	42,457
884,6	45,4
885,1	44,571
885,5	42,114
885,9	43,029
886,3	45,286
886,8	38,771
887,2	33,943
887,6	36,029
888	34,743
888,5	38,571
888,9	37,6
889,3	34,657
889,8	36,143
890,2	38,029
890,6	31,714
891	32,943
891,5	35,743
891,9	38,571
892,3	40,314
892,7	39,057
893,2	42,229
893,6	46,4
894	47,543
894,4	42,486
894,9	41,571
895,3	38,286
895,7	41,286
896,1	39,6
896,6	37,857
897	37,429
897,4	43
897,8	47
898,3	50,857
898,7	46,714
899,1	45,514
899,5	45,8
900	39,943
900,4	35,943
900,8	25,371
901,2	20,229
901,7	22,6
902,1	23
902,5	22,143
902,9	26,486
903,4	27,8
903,8	33,857
904,2	35,943
904,6	32,486
905,1	33,2
905,5	34,829
905,9	36
906,3	36,686
906,8	40,086
907,2	40,429
907,6	42,914
908	42,657
908,5	39,886
908,9	34,143
909,3	30,943
909,7	25,257
910,2	25
910,6	31,457
911	28,286
911,4	32,114
911,9	30,429
912,3	28,4
912,7	31
913,1	35,4
913,6	24,971
914	24,571
914,4	18,257
914,8	23,829
915,3	23,029
915,7	24,914
916,1	17,971
916,5	24,486
916,9	26,629
917,4	32,429
917,8	35,914
918,2	33,343
918,6	27,857
919,1	29,086
919,5	27,714
919,9	28,2
920,3	25
920,8	19,6
921,2	24,343
921,6	24,343
922	24,514
922,5	22,886
922,9	22,114
923,3	19,229
923,7	20,714
924,2	19,829
924,6	20,914
925	21,8
925,4	20,657
925,8	26,314
926,3	29,429
926,7	27,314
927,1	27,314
927,5	28,714
928	23,429
928,4	25,571
928,8	22,6
929,2	20,143
929,7	22,171
930,1	25
930,5	21,343
930,9	29,343
931,3	28,857
931,8	27,914
932,2	31,257
932,6	27,486
933	20,457
933,5	24,343
933,9	25,114
934,3	28,229
934,7	24,057
935,2	22,886
935,6	24,771
936	28
936,4	29
936,8	27,514
937,3	20,829
937,7	24,6
938,1	27,257
938,5	22,314
939	24,686
939,4	23
939,8	19,514
940,2	19,943
940,6	17,057
941,1	13,857
941,5	20,371
941,9	18,514
942,3	17,2
942,8	22,114
943,2	25,771
943,6	22,171
944	21,314
944,4	15,714
944,9	11,229
945,3	9,6
945,7	1,257
946,1	-2,429
946,6	-1,371
947	-0,571
947,4	8,629
947,8	13
948,2	11,743
948,7	16,029
949,1	15,457
949,5	24,743
949,9	25,943
950,3	22,257
950,8	22,229
951,2	18,314
951,6	12,114
952	16,029
952,5	7,029
952,9	3,486
953,3	1,857
953,7	2,257
954,1	13,686
954,6	22,943
955	23,114
955,4	24,286
955,8	30,886
956,2	31,829
956,7	33,686
957,1	27,514
957,5	27,086
957,9	23,314
958,3	27,457
958,8	24,914
959,2	29,143
959,6	29,229
960	27,743
960,5	26,914
960,9	29,686
961,3	22,771
961,7	19,914
962,1	12,257
962,6	10,457
963	13,743
963,4	7,514
963,8	8,486
964,2	12,171
964,7	11,429
965,1	17,829
965,5	18,2
965,9	18,4
966,3	21,657
966,8	18,771
967,2	18,486
967,6	20,286
968	13,743
968,4	13,886
968,9	15
969,3	18,829
969,7	16,6
970,1	20,543
970,5	19,771
971	23,886
971,4	22,886
971,8	24,857
972,2	21,229
972,6	22,971
973,1	17,2
973,5	20,457
973,9	20,486
974,3	19,457
974,7	20,114
975,2	21,4
975,6	17,086
976	22,4
976,4	15,6
976,8	14,6
977,3	16,771
977,7	10,143
978,1	10,371
978,5	15,029
978,9	9,229
979,4	12,429
979,8	10,171
980,2	5,571
980,6	5,971
981	5,343
981,5	6,057
981,9	8,743
982,3	9,514
982,7	10,886
983,1	10,657
983,6	9,914
984	8,571
984,4	9,914
984,8	9,371
985,2	9,571
985,6	3,629
986,1	8,686
986,5	9,543
986,9	4,343
987,3	5,2
987,7	6,829
988,2	8,6
988,6	17,286
989	15,314
989,4	18,543
989,8	22,771
990,3	18,943
990,7	18,857
991,1	16,314
991,5	15,771
991,9	19,657
992,3	16,771
992,8	18,343
993,2	20,971
993,6	20,229
994	23,571
994,4	25,686
994,9	18,943
995,3	18,286
995,7	19,086
996,1	21,429
996,5	22
996,9	19,371
997,4	18,486
997,8	18,314
998,2	17,714
998,6	14,657
999	12
999,5	11,114
999,9	11,943
1000,3	6,457
1000,7	10,171
1001,1	13,8
1001,5	15,314
1002	18,8
1002,4	19,657
1002,8	15,857
1003,2	19,029
1003,6	20,857
1004	23,743
1004,5	19,343
1004,9	12,371
1005,3	11,629
1005,7	15,114
1006,1	9,514
1006,6	5,8
1007	3,2
1007,4	9
1007,8	9,629
1008,2	3,8
1008,6	5,6
1009,1	6,629
1009,5	7,943
1009,9	8,743
1010,3	6,543
1010,7	10,171
1011,1	15,514
1011,6	14,714
1012	21,029
1012,4	19,257
1012,8	13,429
1013,2	19,514
1013,6	18,257
1014,1	18,514
1014,5	17,743
1014,9	16,029
1015,3	13,8
1015,7	17,371
1016,1	11,714
1016,6	11,4
1017	8,714
1017,4	7,114
1017,8	6,8
1018,2	13,514
1018,6	11,429
1019,1	10,914
1019,5	11,657
1019,9	12,571
1020,3	16,6
1020,7	17,286
1021,1	14,057
1021,6	14,371
1022	16,943
1022,4	16,343
1022,8	20,857
1023,2	16,686
1023,6	15,943
1024,1	22,257
1024,5	23,8
1024,9	19,4
1025,3	21,8
1025,7	19,943
1026,1	21,143
1026,6	22,686
1027	16,743
1027,4	14,486
1027,8	15,714
1028,2	10,4
1028,6	13,314
1029	15,686
1029,5	17,429
1029,9	14,429
1030,3	10,657
1030,7	11,429
1031,1	15,943
1031,5	10,6
1032	8,171
1032,4	7,371
1032,8	10,486
1033,2	16,943
1033,6	18
1034	17,743
1034,4	18,514
1034,9	23,114
1035,3	16,371
1035,7	17,8
1036,1	18,714
1036,5	19,743
1036,9	16,257
1037,4	21,343
1037,8	12,714
1038,2	21,171
1038,6	17,943
1039	20,4
1039,4	26,2
1039,8	29,343
1040,3	25,143
1040,7	26
1041,1	22,914
1041,5	27,629
1041,9	21,114
1042,3	18,4
1042,7	18,914
1043,2	17,914
1043,6	18,971
1044	20,486
1044,4	15,829
1044,8	19,457
1045,2	14,514
1045,6	11,4
1046,1	11,543
1046,5	14,143
1046,9	10,371
1047,3	14,486
1047,7	10,743
1048,1	11,4
1048,5	13,6
1049	17,4
1049,4	19,543
1049,8	21,171
1050,2	18,714
1050,6	23,171
1051	23,914
1051,4	26,114
1051,9	21,143
1052,3	27,971
1052,7	23,829
1053,1	22,229
1053,5	20,971
1053,9	20,771
1054,3	16,743
1054,8	24,914
1055,2	16,4
1055,6	25,6
1056	22,029
1056,4	19,343
1056,8	18,343
1057,2	17,629
1057,6	9,143
1058,1	5,886
1058,5	-6,914
1058,9	0,657
1059,3	3,457
1059,7	3,771
1060,1	5,4
1060,5	9,171
1061	13,086
1061,4	13,114
1061,8	11,2
1062,2	9,571
1062,6	9,171
1063	12,886
1063,4	14
1063,8	14,029
1064,3	17,743
1064,7	19,286
1065,1	16,543
1065,5	14,314
1065,9	9,657
1066,3	5,857
1066,7	3,657
1067,1	4,4
1067,6	3,143
1068	2,286
1068,4	2,857
1068,8	10,114
1069,2	11,686
1069,6	10,829
1070	13,743
1070,4	12,6
1070,9	13,686
1071,3	14,714
1071,7	8,571
1072,1	9,543
1072,5	9,6
1072,9	7,914
1073,3	10,8
1073,7	15,086
1074,2	18,029
1074,6	16,771
1075	12,257
1075,4	15,029
1075,8	19,2
1076,2	18,514
1076,6	16,857
1077	13,457
1077,5	19,314
1077,9	23,886
1078,3	21,029
1078,7	15,714
1079,1	12,343
1079,5	12,886
1079,9	14,914
1080,3	11,686
1080,7	7,686
1081,2	13,686
1081,6	12,886
1082	15,914
1082,4	19,8
1082,8	20,629
1083,2	19,686
1083,6	17,943
1084	10,686
1084,5	15,229
1084,9	13,571
1085,3	5,343
1085,7	7,457
1086,1	7,314
1086,5	13,829
1086,9	16,686
1087,3	15,371
1087,7	14
1088,2	18,029
1088,6	14,4
1089	17,4
1089,4	14,8
1089,8	14,314
1090,2	12,429
1090,6	14,714
1091	13,743
1091,4	16,371
1091,9	13,943
1092,3	14,171
1092,7	15,286
1093,1	19,114
1093,5	16,057
1093,9	19,314
1094,3	18,771
1094,7	17,857
1095,1	19,943
1095,5	20,171
1096	16,057
1096,4	18,429
1096,8	18,571
1097,2	19,514
1097,6	24,286
1098	20,486
1098,4	22,943
1098,8	24,6
1099,2	30,771
1099,6	28,943
1100,1	23,457
1100,5	18,2
1100,9	20,343
1101,3	17,143
1101,7	14,514
1102,1	9,571
1102,5	9,8
1102,9	12,314
1103,3	14,371
1103,7	11,114
1104,2	6,029
1104,6	9,6
1105	6,657
1105,4	4,8
1105,8	3,057
1106,2	0,257
1106,6	0,857
1107	3,943
1107,4	1
1107,8	1,16
1108,3	0,25
