Data from Subt2_251.txt Node
Date: Sat Aug 26 18:59:33 MSK 2023
User: vat
Spectrometer: MAYP114033
Trigger mode: 0
Integration Time (sec): 1,000000E0
Scans to average: 5
Electric dark correction enabled: true
Nonlinearity correction enabled: false
Boxcar width: 3
XAxis mode: Wavelengths
Number of Pixels in Spectrum: 2068
>>>>>Begin Spectral Data<<<<<
199,4	-0,333
199,9	1,007
200,4	-3,1
200,8	-1,719
201,3	-3,005
201,8	0,767
202,2	-2,633
202,7	1,367
203,2	1,538
203,6	6,281
204,1	3,995
204,6	8,881
205	6,595
205,5	11,367
206	7,081
206,4	7,424
206,9	7,338
207,4	10,31
207,8	3,11
208,3	0,481
208,8	1,51
209,2	5,338
209,7	7,338
210,2	9,11
210,6	7,795
211,1	11,481
211,5	9,71
212	9,938
212,5	7,224
212,9	3,995
213,4	4,195
213,9	4,881
214,3	6,852
214,8	11,91
215,3	6,367
215,7	9,081
216,2	9,71
216,7	9,995
217,1	8,081
217,6	8,367
218,1	6,652
218,5	9,024
219	3,567
219,5	6,738
219,9	-1,662
220,4	7,538
220,9	5,224
221,3	4,652
221,8	5,481
222,3	9,281
222,7	7,224
223,2	13,31
223,6	7,767
224,1	6,881
224,6	8,91
225	10,481
225,5	8,595
226	7,767
226,4	11,081
226,9	10,824
227,4	11,281
227,8	10,252
228,3	7,624
228,8	9,967
229,2	6,652
229,7	2,538
230,2	2,71
230,6	8,738
231,1	9,881
231,5	10,824
232	10,138
232,5	13,652
232,9	14,11
233,4	14,452
233,9	9,395
234,3	7,881
234,8	9,138
235,3	5,71
235,7	6,024
236,2	6,824
236,7	6,081
237,1	10,51
237,6	7,395
238,1	5,424
238,5	7,281
239	6,995
239,4	10,51
239,9	7,11
240,4	5,681
240,8	10,252
241,3	7,824
241,8	7,824
242,2	8,167
242,7	3,652
243,2	5,938
243,6	0,338
244,1	1,995
244,6	7,795
245	7,31
245,5	11,51
245,9	13,224
246,4	13,138
246,9	19,91
247,3	17,167
247,8	16,652
248,3	19,681
248,7	16,995
249,2	16,252
249,7	14,91
250,1	12,51
250,6	9,567
251	8,452
251,5	6,167
252	5,595
252,4	7,481
252,9	8,224
253,4	5,852
253,8	9,052
254,3	11,652
254,8	13,138
255,2	10,995
255,7	6,938
256,1	3,681
256,6	4,995
257,1	8,138
257,5	0,767
258	-0,605
258,5	1,481
258,9	0,824
259,4	2,652
259,9	4,538
260,3	1,652
260,8	5,195
261,2	6,481
261,7	7,824
262,2	11,738
262,6	12,652
263,1	11,881
263,6	11,51
264	17,681
264,5	19,424
264,9	18,024
265,4	19,624
265,9	20,71
266,3	21,938
266,8	21,852
267,3	14,567
267,7	10,424
268,2	8,767
268,7	3,281
269,1	1,938
269,6	-1,49
270	3,967
270,5	4,795
271	4,938
271,4	5,138
271,9	3,424
272,4	6,31
272,8	8,624
273,3	0,281
273,7	-0,519
274,2	0,024
274,7	1,081
275,1	2,995
275,6	0,338
276,1	-0,605
276,5	5,824
277	7,024
277,4	9,424
277,9	6,167
278,4	7,11
278,8	10,224
279,3	10,681
279,8	8,852
280,2	10,595
280,7	13,167
281,1	13,595
281,6	13,424
282,1	10,11
282,5	10,452
283	9,881
283,4	8,281
283,9	0,224
284,4	3,91
284,8	4,452
285,3	5,481
285,8	4,081
286,2	3,224
286,7	1,767
287,1	5,395
287,6	3,767
288,1	1,11
288,5	4,538
289	1,195
289,5	3,881
289,9	3,995
290,4	8,052
290,8	8,252
291,3	8,738
291,8	7,824
292,2	10,424
292,7	11,281
293,1	9,881
293,6	10,395
294,1	7,681
294,5	8,767
295	8,224
295,5	9,538
295,9	7,824
296,4	9,51
296,8	5,31
297,3	7,795
297,8	6,938
298,2	3,681
298,7	5,881
299,1	3,881
299,6	1,081
300,1	2,224
300,5	2,624
301	8,795
301,5	15,138
301,9	12,91
302,4	13,881
302,8	16,395
303,3	13,795
303,8	9,052
304,2	4,338
304,7	0,852
305,1	-5,062
305,6	-4,433
306,1	3,167
306,5	6,767
307	10,624
307,4	11,767
307,9	10,824
308,4	11,995
308,8	7,881
309,3	2,91
309,8	-0,805
310,2	2,567
310,7	-1,49
311,1	0,824
311,6	6,31
312,1	10,252
312,5	8,824
313	10,51
313,4	8,538
313,9	12,081
314,4	8,91
314,8	3,138
315,3	1,452
315,7	0,11
316,2	-0,005
316,7	-3,576
317,1	0,652
317,6	0,024
318	9,424
318,5	7,995
319	10,11
319,4	12,081
319,9	19,91
320,3	17,767
320,8	16,252
321,3	13,51
321,7	14,424
322,2	15,567
322,6	13,252
323,1	8,938
323,6	4,91
324	7,938
324,5	4,31
324,9	6,824
325,4	4,281
325,9	7,31
326,3	4,224
326,8	7,51
327,2	1,424
327,7	1,738
328,2	2,681
328,6	4,71
329,1	1,452
329,5	3,024
330	1,395
330,5	10,995
330,9	11,995
331,4	12,167
331,8	6,938
332,3	10,338
332,8	11,481
333,2	11,424
333,7	8,367
334,1	8,71
334,6	3,795
335,1	3,338
335,5	1,881
336	-0,719
336,4	2,167
336,9	8,91
337,4	7,967
337,8	9,71
338,3	13,395
338,7	16,51
339,2	14,938
339,7	17,481
340,1	10,738
340,6	13,995
341	12,31
341,5	10,881
342	3,595
342,4	6,71
342,9	0,224
343,3	-2,948
343,8	-6,148
344,2	-3,348
344,7	1,31
345,2	4,281
345,6	5,138
346,1	6,767
346,5	7,71
347	7,795
347,5	5,138
347,9	6,395
348,4	5,91
348,8	5,138
349,3	9,395
349,8	11,995
350,2	20,11
350,7	19,795
351,1	18,71
351,6	24,052
352	31,595
352,5	32,338
353	40,681
353,4	42,567
353,9	56,31
354,3	68,51
354,8	76,767
355,3	91,652
355,7	109,081
356,2	126,852
356,6	151,881
357,1	178,767
357,5	210,138
358	250,938
358,5	287,51
358,9	331,052
359,4	381,367
359,8	435,738
360,3	502,852
360,8	568,595
361,2	645,538
361,7	736,71
362,1	843,481
362,6	950,538
363	1066,652
363,5	1185,795
364	1322,624
364,4	1452,31
364,9	1581,795
365,3	1702,024
365,8	1825,624
366,3	1936,624
366,7	2037,167
367,2	2118,481
367,6	2192,71
368,1	2253,767
368,5	2291,452
369	2302,481
369,5	2303,31
369,9	2284,138
370,4	2250,71
370,8	2200,938
371,3	2129,624
371,7	2055,938
372,2	1971,024
372,7	1877,567
373,1	1779,624
373,6	1676,51
374	1570,595
374,5	1471,367
374,9	1370,195
375,4	1276,595
375,9	1184,652
376,3	1090,795
376,8	1002,195
377,2	927,938
377,7	846,252
378,2	773,624
378,6	707,967
379,1	646,138
379,5	599,281
380	558,281
380,4	513,424
380,9	471,11
381,4	437,167
381,8	408,995
382,3	383,281
382,7	357,138
383,2	331,424
383,6	305,881
384,1	292,681
384,6	273,795
385	248,224
385,5	232,167
385,9	214,224
386,4	197,738
386,8	183,567
387,3	167,624
387,7	155,338
388,2	150,167
388,7	137,624
389,1	127,338
389,6	117,452
390	108,71
390,5	103,424
390,9	100,081
391,4	92,767
391,9	86,567
392,3	83,995
392,8	80,195
393,2	74,167
393,7	68,824
394,1	61,424
394,6	59,481
395,1	58,452
395,5	51,081
396	49,167
396,4	49,795
396,9	50,052
397,3	52,138
397,8	51,824
398,2	49,652
398,7	50,738
399,2	48,538
399,6	49,224
400,1	44,024
400,5	37,967
401	34,938
401,4	24,824
401,9	25,91
402,4	29,338
402,8	25,51
403,3	30,024
403,7	27,195
404,2	32,538
404,6	41,51
405,1	37,852
405,5	32,624
406	30,767
406,5	26,767
406,9	33,652
407,4	26,995
407,8	28,91
408,3	34,195
408,7	36,424
409,2	38,881
409,6	43,31
410,1	42,167
410,6	46,024
411	42,481
411,5	38,995
411,9	42,424
412,4	47,624
412,8	51,052
413,3	52,938
413,7	53,51
414,2	56,824
414,7	63,395
415,1	68,91
415,6	71,881
416	70,595
416,5	74,052
416,9	75,51
417,4	80,395
417,8	88,881
418,3	91,71
418,8	91,195
419,2	93,31
419,7	95,052
420,1	97,938
420,6	96,652
421	90,881
421,5	88,652
421,9	89,824
422,4	90,51
422,8	88,795
423,3	88,024
423,8	88,338
424,2	84,51
424,7	83,567
425,1	82,681
425,6	85,081
426	83,367
426,5	85,538
426,9	89,852
427,4	88,91
427,9	82,338
428,3	85,795
428,8	84,738
429,2	85,567
429,7	86,938
430,1	82,595
430,6	88,624
431	93,538
431,5	90,024
431,9	89,595
432,4	92,967
432,8	94,824
433,3	100,11
433,8	100,881
434,2	107,281
434,7	113,852
435,1	116,967
435,6	117,395
436	121,052
436,5	127,167
436,9	123,31
437,4	127,51
437,8	130,481
438,3	136,138
438,8	140,224
439,2	143,91
439,7	149,281
440,1	162,052
440,6	169,652
441	171,795
441,5	179,081
441,9	189,567
442,4	192,71
442,8	198,595
443,3	208,738
443,7	213,252
444,2	224,624
444,7	233,11
445,1	243,795
445,6	255,252
446	263,138
446,5	266,138
446,9	269,481
447,4	282,538
447,8	293,024
448,3	301,91
448,7	313,367
449,2	324,738
449,6	345,224
450,1	363,081
450,6	380,452
451	397,024
451,5	410,081
451,9	427,91
452,4	446,852
452,8	458,31
453,3	479,138
453,7	487,652
454,2	506,452
454,6	519,338
455,1	535,452
455,5	548,738
456	571,281
456,4	583,052
456,9	602,795
457,3	614,995
457,8	635,91
458,3	656,424
458,7	674,367
459,2	693,024
459,6	717,138
460,1	738,852
460,5	756,538
461	782,995
461,4	803,852
461,9	832,567
462,3	857,167
462,8	880,167
463,2	902,738
463,7	933,71
464,1	960,938
464,6	989,881
465	1013,224
465,5	1039,395
466	1062,424
466,4	1088,681
466,9	1115,967
467,3	1138,681
467,8	1164,081
468,2	1187,852
468,7	1213,024
469,1	1246,652
469,6	1278,767
470	1305,91
470,5	1335,367
470,9	1359,252
471,4	1387,252
471,8	1414,824
472,3	1441,252
472,7	1470,395
473,2	1494,652
473,6	1517,224
474,1	1549,652
474,5	1579,767
475	1608,224
475,4	1639,11
475,9	1664,567
476,4	1693,681
476,8	1726,881
477,3	1749,338
477,7	1782,338
478,2	1813,195
478,6	1829,167
479,1	1850,852
479,5	1879,51
480	1905,11
480,4	1937,367
480,9	1959,767
481,3	1973,71
481,8	2002,195
482,2	2021,824
482,7	2044,452
483,1	2063,967
483,6	2079,938
484	2100,767
484,5	2132,595
484,9	2153,338
485,4	2181,052
485,8	2197,738
486,3	2221,91
486,7	2242,11
487,2	2255,91
487,6	2266,995
488,1	2284,11
488,5	2296,538
489	2318,71
489,4	2331,367
489,9	2345,51
490,4	2363,167
490,8	2382,281
491,3	2404,424
491,7	2419,824
492,2	2432,367
492,6	2447,195
493,1	2462,967
493,5	2470,852
494	2477,167
494,4	2480,252
494,9	2492,881
495,3	2504,738
495,8	2513,024
496,2	2522,138
496,7	2531,995
497,1	2546,195
497,6	2565,424
498	2574,138
498,5	2583,167
498,9	2595,567
499,4	2608,824
499,8	2625,338
500,3	2636,795
500,7	2639,024
501,2	2646,31
501,6	2651,081
502,1	2655,795
502,5	2654,967
503	2664,481
503,4	2664,195
503,9	2670,081
504,3	2677,824
504,8	2681,338
505,2	2691,852
505,7	2701,367
506,1	2702,738
506,6	2707,481
507	2707,167
507,5	2717,452
507,9	2724,567
508,4	2727,795
508,8	2732,795
509,3	2735,738
509,7	2748,881
510,2	2761,681
510,6	2763,71
511,1	2769,481
511,5	2772,652
512	2779,024
512,4	2787,367
512,9	2787,51
513,3	2791,081
513,8	2795,91
514,2	2803,624
514,7	2809,252
515,1	2816,367
515,6	2816,052
516	2816,652
516,5	2823,824
516,9	2824,224
517,4	2831,567
517,8	2841,995
518,3	2847,224
518,7	2857,967
519,2	2867,138
519,6	2867,567
520,1	2874,31
520,5	2880,452
521	2873,795
521,4	2873,052
521,9	2873,995
522,3	2879,795
522,8	2889,852
523,2	2895,652
523,7	2897,31
524,1	2907,881
524,6	2916,652
525	2923,91
525,5	2923,767
525,9	2927,338
526,4	2931,681
526,8	2938,138
527,3	2945,938
527,7	2955,024
528,2	2963,338
528,6	2976,224
529,1	2984,738
529,5	2997,91
530	3001,481
530,4	3010,967
530,9	3017,052
531,3	3028,424
531,8	3040,938
532,2	3052,052
532,6	3057,595
533,1	3063,081
533,5	3068,91
534	3073,595
534,4	3077,138
534,9	3079,452
535,3	3078,852
535,8	3088,738
536,2	3100,71
536,7	3108,452
537,1	3119,195
537,6	3125,081
538	3132,852
538,5	3145,51
538,9	3145,852
539,4	3152,195
539,8	3161,938
540,3	3173,338
540,7	3182,881
541,2	3190,252
541,6	3195,795
542,1	3206,024
542,5	3214,652
543	3222,995
543,4	3220,967
543,9	3229,652
544,3	3235,967
544,8	3241,538
545,2	3249,624
545,7	3264,138
546,1	3271,738
546,5	3286,281
547	3294,11
547,4	3305,967
547,9	3317,195
548,3	3328,424
548,8	3335,31
549,2	3336,71
549,7	3342,167
550,1	3351,567
550,6	3355,024
551	3364,167
551,5	3371,51
551,9	3375,052
552,4	3388,452
552,8	3394,824
553,3	3403,224
553,7	3413,224
554,2	3418,138
554,6	3424,052
555,1	3429,167
555,5	3428,967
555,9	3432,681
556,4	3436,367
556,8	3442,738
557,3	3450,224
557,7	3454,967
558,2	3462,938
558,6	3476,052
559,1	3485,167
559,5	3484,024
560	3484,395
560,4	3490,395
560,9	3497,595
561,3	3498,367
561,8	3497,881
562,2	3506,052
562,7	3516,967
563,1	3524,824
563,6	3525,281
564	3530,824
564,4	3534,481
564,9	3541,681
565,3	3541,652
565,8	3546,624
566,2	3556,51
566,7	3569,167
567,1	3571,195
567,6	3577,367
568	3581,424
568,5	3588,995
568,9	3589,852
569,4	3588,595
569,8	3584,967
570,3	3587,995
570,7	3585,51
571,1	3588,452
571,6	3589,91
572	3591,881
572,5	3596,767
572,9	3594,081
573,4	3595,795
573,8	3605,852
574,3	3603,967
574,7	3603,338
575,2	3599,938
575,6	3596,281
576,1	3597,31
576,5	3596,567
576,9	3590,281
577,4	3588,538
577,8	3586,538
578,3	3585,795
578,7	3579,31
579,2	3583,052
579,6	3578,852
580,1	3569,624
580,5	3566,138
581	3563,338
581,4	3558,424
581,9	3554,795
582,3	3548,881
582,7	3543,624
583,2	3543,167
583,6	3538,31
584,1	3533,281
584,5	3530,51
585	3529,138
585,4	3515,538
585,9	3507,167
586,3	3503,967
586,8	3501,652
587,2	3494,767
587,6	3497,71
588,1	3495,767
588,5	3492,767
589	3498,938
589,4	3490,481
589,9	3482,138
590,3	3476,367
590,8	3465,11
591,2	3465,024
591,7	3467,71
592,1	3457,424
592,5	3455,71
593	3450,995
593,4	3443,824
593,9	3433,881
594,3	3419,852
594,8	3405,252
595,2	3398,11
595,7	3393,71
596,1	3383,91
596,6	3378,11
597	3382,795
597,4	3375,452
597,9	3376,138
598,3	3376,624
598,8	3371,852
599,2	3371,481
599,7	3363,081
600,1	3349,481
600,6	3334,967
601	3324,967
601,4	3315,138
601,9	3305,995
602,3	3295,395
602,8	3291,51
603,2	3280,881
603,7	3280,167
604,1	3269,967
604,6	3254,481
605	3243,995
605,4	3238,11
605,9	3226,767
606,3	3218,052
606,8	3207,567
607,2	3203,138
607,7	3190,395
608,1	3179,967
608,6	3170,338
609	3169,624
609,4	3157,31
609,9	3146,395
610,3	3135,395
610,8	3133,224
611,2	3125,281
611,7	3112,824
612,1	3092,195
612,6	3089,252
613	3084,51
613,4	3073,938
613,9	3060,51
614,3	3051,452
614,8	3042,224
615,2	3031,652
615,7	3022,795
616,1	3009,224
616,6	2994,081
617	2980,052
617,4	2962,738
617,9	2954,71
618,3	2947,71
618,8	2931,167
619,2	2915,91
619,7	2912,481
620,1	2903,252
620,5	2899,767
621	2882,595
621,4	2874,224
621,9	2862,795
622,3	2851,995
622,8	2829,281
623,2	2822,052
623,6	2806,881
624,1	2797,652
624,5	2782,024
625	2771,338
625,4	2760,938
625,9	2749,138
626,3	2736,481
626,8	2717,91
627,2	2704,224
627,6	2687,538
628,1	2665,052
628,5	2655,795
629	2639,681
629,4	2616,052
629,9	2608,11
630,3	2590,024
630,7	2578,567
631,2	2576,367
631,6	2560,395
632,1	2549,224
632,5	2542,852
633	2527,138
633,4	2512,71
633,8	2498,767
634,3	2478,252
634,7	2462,51
635,2	2452,452
635,6	2440,281
636,1	2423,138
636,5	2410,081
636,9	2391,624
637,4	2381,624
637,8	2369,11
638,3	2350,652
638,7	2332,338
639,2	2327,738
639,6	2322,367
640	2313,167
640,5	2301,138
640,9	2291,767
641,4	2288,681
641,8	2283,338
642,2	2271,395
642,7	2257,595
643,1	2253,995
643,6	2239,081
644	2230,052
644,5	2215,424
644,9	2199,338
645,3	2185,367
645,8	2169,652
646,2	2153,967
646,7	2145,138
647,1	2126,252
647,6	2120,538
648	2114,624
648,4	2106,31
648,9	2101,681
649,3	2090,967
649,8	2079,51
650,2	2076,738
650,6	2065,595
651,1	2049,567
651,5	2041,024
652	2024,11
652,4	2009,938
652,9	2002,395
653,3	1984,367
653,7	1967,081
654,2	1963,567
654,6	1945,91
655,1	1939,938
655,5	1939,424
655,9	1927,367
656,4	1925,224
656,8	1919,367
657,3	1908,11
657,7	1902,024
658,2	1888,11
658,6	1870,652
659	1862,767
659,5	1842,824
659,9	1828,71
660,4	1819,995
660,8	1805,252
661,2	1800,652
661,7	1785,91
662,1	1772,11
662,6	1763,338
663	1751,31
663,4	1729,052
663,9	1720,024
664,3	1703,052
664,8	1693,167
665,2	1681,967
665,6	1671,481
666,1	1656,595
666,5	1651,767
667	1641,281
667,4	1633,681
667,9	1617,652
668,3	1604,767
668,7	1597,138
669,2	1598,624
669,6	1589,395
670,1	1580,967
670,5	1568,395
670,9	1564,252
671,4	1550,252
671,8	1540,538
672,3	1530,338
672,7	1519,652
673,1	1505,652
673,6	1493,824
674	1489,081
674,5	1483,281
674,9	1468,338
675,3	1447,138
675,8	1433,91
676,2	1420,452
676,7	1411,195
677,1	1400,081
677,5	1390,852
678	1381,567
678,4	1382,281
678,9	1375,31
679,3	1366,595
679,7	1357,595
680,2	1339,767
680,6	1328,538
681,1	1319,195
681,5	1309,795
681,9	1299,395
682,4	1293,795
682,8	1294,481
683,3	1293,967
683,7	1289,624
684,1	1283,767
684,6	1273,424
685	1267,481
685,5	1259,767
685,9	1240,738
686,3	1231,31
686,8	1220,995
687,2	1213,824
687,7	1202,538
688,1	1190,281
688,5	1179,167
689	1173,452
689,4	1163,538
689,9	1153,252
690,3	1138,795
690,7	1136,967
691,2	1133,738
691,6	1130,224
692	1125,31
692,5	1120,538
692,9	1115,024
693,4	1110,195
693,8	1099,824
694,2	1090,31
694,7	1081,024
695,1	1071,195
695,6	1060,91
696	1053,395
696,4	1046,624
696,9	1035,995
697,3	1028,167
697,8	1016,395
698,2	1008,652
698,6	1005,052
699,1	1002,595
699,5	1000,795
699,9	991,795
700,4	982,595
700,8	982,367
701,3	979,31
701,7	968,91
702,1	955,11
702,6	944,052
703	941,51
703,5	934,767
703,9	928,424
704,3	921,795
704,8	916,824
705,2	916,51
705,6	908,681
706,1	902,595
706,5	899,224
707	891,081
707,4	885,081
707,8	874,052
708,3	870,938
708,7	870,024
709,2	863,538
709,6	855,824
710	851,424
710,5	839,795
710,9	836,51
711,3	823,481
711,8	818,652
712,2	813,024
712,7	809,367
713,1	804,424
713,5	801,824
714	796,481
714,4	790,024
714,8	778,595
715,3	771,224
715,7	763,338
716,2	756,881
716,6	756,195
717	751,995
717,5	749,824
717,9	748,91
718,3	743,452
718,8	737,71
719,2	728,595
719,7	720,052
720,1	718,224
720,5	716,195
721	706,595
721,4	701,852
721,8	702,624
722,3	699,91
722,7	698,138
723,2	686,224
723,6	674,338
724	671,452
724,5	663,395
724,9	651,481
725,3	647,367
725,8	636,052
726,2	634,852
726,7	633,252
727,1	626,652
727,5	626,11
728	620,424
728,4	616,081
728,8	613,938
729,3	605,995
729,7	596,624
730,1	592,081
730,6	587,681
731	583,167
731,5	581,71
731,9	578,567
732,3	574,938
732,8	574,424
733,2	574,138
733,6	575,167
734,1	579,081
734,5	571,31
734,9	568,767
735,4	568,91
735,8	559,452
736,3	556,652
736,7	547,995
737,1	540,595
737,6	539,338
738	533,31
738,4	524,795
738,9	527,852
739,3	522,852
739,7	518,852
740,2	515,824
740,6	512,681
741,1	513,338
741,5	510,367
741,9	506,795
742,4	509,538
742,8	504,452
743,2	502,167
743,7	492,452
744,1	480,538
744,5	480,595
745	474,195
745,4	465,052
745,8	462,681
746,3	462,995
746,7	464,224
747,2	469,024
747,6	469,367
748	473,967
748,5	472,938
748,9	469,31
749,3	460,252
749,8	458,91
750,2	454,71
750,6	447,252
751,1	446,938
751,5	442,795
751,9	444,31
752,4	444,71
752,8	441,31
753,3	438,138
753,7	435,11
754,1	426,281
754,6	420,624
755	413,052
755,4	405,738
755,9	403,538
756,3	397,452
756,7	394,795
757,2	393,938
757,6	391,852
758	393,795
758,5	394,538
758,9	394,938
759,3	393,852
759,8	396,71
760,2	389,138
760,6	387,424
761,1	382,052
761,5	375,51
761,9	364,995
762,4	358,681
762,8	353,624
763,3	352,167
763,7	350,395
764,1	346,338
764,6	347,624
765	350,995
765,4	354,795
765,9	351,252
766,3	351,024
766,7	346,938
767,2	344,51
767,6	345,481
768	341,081
768,5	337,51
768,9	335,081
769,3	330,881
769,8	328,938
770,2	330,881
770,6	324,138
771,1	324,252
771,5	319,252
771,9	320,738
772,4	320,538
772,8	317,795
773,2	315,681
773,7	314,967
774,1	311,252
774,5	307,624
775	299,452
775,4	299,138
775,8	298,481
776,3	297,824
776,7	295,367
777,1	292,538
777,6	292,51
778	296,481
778,4	292,567
778,9	290,795
779,3	283,795
779,7	284,681
780,2	283,452
780,6	283,367
781	277,195
781,5	272,167
781,9	272,167
782,3	269,91
782,8	263,681
783,2	257,567
783,6	256,424
784,1	256,052
784,5	254,881
784,9	249,367
785,4	253,167
785,8	256,224
786,2	258,767
786,7	255,367
787,1	253,224
787,5	254,595
788	251,481
788,4	246,167
788,8	237,852
789,3	234,252
789,7	235,195
790,1	231,91
790,6	230,338
791	229,595
791,4	226,795
791,9	224,395
792,3	219,424
792,7	219,51
793,2	219,167
793,6	216,567
794	220,11
794,5	216,452
794,9	219,824
795,3	221,138
795,8	214,738
796,2	214,167
796,6	213,195
797,1	210,081
797,5	211,595
797,9	205,538
798,4	202,967
798,8	202,852
799,2	198,224
799,7	196,11
800,1	194,881
800,5	192,738
801	197,195
801,4	196,195
801,8	195,424
802,2	196,395
802,7	195,481
803,1	191,967
803,5	192,252
804	187,624
804,4	189,367
804,8	185,995
805,3	184,281
805,7	182,595
806,1	179,167
806,6	177,195
807	178,024
807,4	174,167
807,9	170,652
808,3	167,71
808,7	163,224
809,2	165,595
809,6	163,881
810	160,538
810,4	159,567
810,9	161,795
811,3	161,024
811,7	161,852
812,2	163,681
812,6	163,938
813	163,11
813,5	163,224
813,9	160,424
814,3	158,11
814,8	158,938
815,2	152,395
815,6	149,652
816,1	152,11
816,5	151,881
816,9	153,11
817,3	155,652
817,8	156,71
818,2	156,081
818,6	150,795
819,1	148,424
819,5	145,367
819,9	143,052
820,4	140,938
820,8	136,138
821,2	130,11
821,7	134,624
822,1	132,824
822,5	139,71
822,9	137,995
823,4	134,252
823,8	136,424
824,2	141,138
824,7	134,852
825,1	129,367
825,5	119,567
826	114,452
826,4	110,224
826,8	104,538
827,3	104,71
827,7	102,995
828,1	107,652
828,5	107,395
829	109,595
829,4	114,852
829,8	113,424
830,3	111,195
830,7	111,395
831,1	110,138
831,6	106,624
832	106,967
832,4	104,367
832,8	107,624
833,3	104,481
833,7	99,824
834,1	97,11
834,6	97,424
835	98,91
835,4	97,795
835,8	90,681
836,3	89,138
836,7	100,424
837,1	98,167
837,6	102,367
838	99,624
838,4	98,452
838,9	99,595
839,3	98,967
839,7	95,052
840,1	90,538
840,6	86,252
841	89,338
841,4	88,852
841,9	89,567
842,3	93,567
842,7	90,795
843,1	91,967
843,6	93,338
844	88,481
844,4	95,481
844,9	97,224
845,3	91,395
845,7	90,824
846,2	89,881
846,6	89,51
847	89,967
847,4	84,767
847,9	80,91
848,3	81,452
848,7	81,995
849,2	82,967
849,6	76,738
850	80,595
850,4	79,538
850,9	82,481
851,3	81,51
851,7	79,824
852,2	78,767
852,6	84,224
853	79,138
853,4	77,138
853,9	71,452
854,3	72,938
854,7	74,367
855,2	75,795
855,6	74,452
856	72,824
856,4	70,31
856,9	69,452
857,3	70,995
857,7	69,938
858,2	72,452
858,6	71,938
859	71,795
859,4	69,938
859,9	69,224
860,3	61,024
860,7	61,452
861,1	59,938
861,6	59,481
862	61,167
862,4	62,538
862,9	68,595
863,3	70,824
863,7	66,424
864,1	67,11
864,6	63,481
865	55,395
865,4	59,224
865,9	58,052
866,3	56,738
866,7	60,024
867,1	55,424
867,6	55,595
868	59,71
868,4	54,538
868,8	48,681
869,3	47,71
869,7	51,252
870,1	47,767
870,6	45,738
871	-25,519
871,4	-20,633
871,8	-20,09
872,3	-13,833
872,7	-18,833
873,1	-18,433
873,5	-18,89
874	51,481
874,4	48,824
874,8	52,024
875,3	51,538
875,7	48,195
876,1	52,852
876,5	54,567
877	54,167
877,4	50,538
877,8	47,995
878,2	48,767
878,7	50,224
879,1	48,452
879,5	50,652
879,9	49,424
880,4	50,967
880,8	52,395
881,2	51,767
881,7	49,052
882,1	48,424
882,5	43,252
882,9	42,138
883,4	41,738
883,8	40,881
884,2	38,195
884,6	40,452
885,1	41,595
885,5	44,281
885,9	45,795
886,3	46,081
886,8	42,71
887,2	38,424
887,6	38,224
888	36,024
888,5	33,795
888,9	31,424
889,3	27,881
889,8	31,224
890,2	32,881
890,6	29,738
891	31,881
891,5	34,881
891,9	38,281
892,3	42,452
892,7	39,424
893,2	37,767
893,6	39,881
894	37,624
894,4	32,881
894,9	31,195
895,3	30,138
895,7	32,91
896,1	33,624
896,6	36,252
897	36,338
897,4	42,31
897,8	43,11
898,3	43,852
898,7	40,11
899,1	39,081
899,5	33,967
900	26,024
900,4	24,11
900,8	19,538
901,2	12,652
901,7	13,195
902,1	16,652
902,5	19,567
902,9	25,024
903,4	25,024
903,8	30,538
904,2	35,31
904,6	36,738
905,1	36,824
905,5	39,71
905,9	43,452
906,3	43,824
906,8	41,395
907,2	39,224
907,6	39,538
908	37,795
908,5	32,338
908,9	24,995
909,3	21,967
909,7	23,31
910,2	24,052
910,6	28,195
911	26,138
911,4	25,452
911,9	25,424
912,3	27,681
912,7	32,795
913,1	32,767
913,6	30,967
914	35,624
914,4	35,252
914,8	39,052
915,3	36,91
915,7	29,367
916,1	28,252
916,5	27,424
916,9	21,424
917,4	23,252
917,8	25,195
918,2	20,51
918,6	18,395
919,1	17,081
919,5	16,024
919,9	19,281
920,3	16,138
920,8	14,052
921,2	15,052
921,6	18,938
922	21,281
922,5	19,938
922,9	17,395
923,3	18,738
923,7	17,252
924,2	19,281
924,6	16,938
925	14,595
925,4	10,538
925,8	12,195
926,3	14,91
926,7	13,852
927,1	13,224
927,5	15,11
928	14,252
928,4	16,081
928,8	16,995
929,2	12,91
929,7	15,11
930,1	15,31
930,5	14,024
930,9	20,824
931,3	22,938
931,8	24,167
932,2	25,081
932,6	23,024
933	18,767
933,5	17,167
933,9	14,881
934,3	13,652
934,7	7,567
935,2	7,852
935,6	11,167
936	17,138
936,4	20,538
936,8	20,795
937,3	19,967
937,7	24,424
938,1	27,081
938,5	21,795
939	22,595
939,4	21,452
939,8	17,824
940,2	18,824
940,6	19,024
941,1	17,252
941,5	22,767
941,9	16,252
942,3	12,624
942,8	13,595
943,2	15,795
943,6	11,195
944	13,395
944,4	9,167
944,9	8,595
945,3	11,624
945,7	10,024
946,1	3,195
946,6	1,71
947	-0,233
947,4	2,71
947,8	8,824
948,2	3,052
948,7	3,481
949,1	5,024
949,5	17,738
949,9	17,51
950,3	16,938
950,8	16,538
951,2	19,195
951,6	20,995
952	26,852
952,5	18,167
952,9	16,738
953,3	14,567
953,7	14,852
954,1	18,167
954,6	17,51
955	16,395
955,4	12,367
955,8	17,11
956,2	17,995
956,7	14,795
957,1	11,338
957,5	13,738
957,9	8,51
958,3	11,995
958,8	7,71
959,2	11,938
959,6	13,767
960	14,424
960,5	14,595
960,9	17,938
961,3	13,967
961,7	17,052
962,1	15,195
962,6	13,91
963	13,995
963,4	8,71
963,8	11,452
964,2	14,538
964,7	11,167
965,1	12,338
965,5	10,795
965,9	10,081
966,3	11,51
966,8	7,767
967,2	11,652
967,6	7,367
968	-0,633
968,4	-0,348
968,9	3,024
969,3	9,852
969,7	10,252
970,1	7,795
970,5	9,652
971	17,71
971,4	16,795
971,8	16,138
972,2	11,624
972,6	10,11
973,1	8,852
973,5	12,624
973,9	10,024
974,3	14,252
974,7	15,481
975,2	16,852
975,6	15,481
976	18,367
976,4	14,938
976,8	15,538
977,3	12,11
977,7	7,595
978,1	8,281
978,5	7,338
978,9	6,881
979,4	8,224
979,8	9,652
980,2	12,595
980,6	13,052
981	12,538
981,5	12,281
981,9	12,338
982,3	13,281
982,7	14,11
983,1	8,052
983,6	10,481
984	9,624
984,4	15,51
984,8	13,338
985,2	12,395
985,6	7,252
986,1	9,252
986,5	11,281
986,9	5,11
987,3	2,91
987,7	6,11
988,2	7,652
988,6	10,852
989	11,738
989,4	4,567
989,8	6,167
990,3	5,024
990,7	1,195
991,1	0,795
991,5	0,881
991,9	2,224
992,3	6,852
992,8	7,281
993,2	8,91
993,6	11,081
994	11,795
994,4	8,481
994,9	9,367
995,3	6,938
995,7	8,167
996,1	4,024
996,5	2,595
996,9	-2,462
997,4	2,652
997,8	-2,176
998,2	-1,748
998,6	-7,548
999	-4,319
999,5	-3,805
999,9	-0,862
1000,3	-6,176
1000,7	0,738
1001,1	1,138
1001,5	8,224
1002	10,452
1002,4	10,824
1002,8	11,652
1003,2	17,052
1003,6	18,424
1004	22,31
1004,5	18,938
1004,9	21,51
1005,3	17,652
1005,7	17,367
1006,1	13,681
1006,6	8,31
1007	6,538
1007,4	7,367
1007,8	3,052
1008,2	5,081
1008,6	10,11
1009,1	9,795
1009,5	10,11
1009,9	12,052
1010,3	13,081
1010,7	12,767
1011,1	12,795
1011,6	9,224
1012	12,395
1012,4	11,367
1012,8	6,624
1013,2	8,224
1013,6	12,51
1014,1	13,167
1014,5	13,11
1014,9	7,938
1015,3	9,052
1015,7	13,281
1016,1	13,338
1016,6	8,767
1017	10,167
1017,4	4,595
1017,8	4,424
1018,2	6,538
1018,6	-0,748
1019,1	-2,176
1019,5	1,195
1019,9	-4,805
1020,3	-0,09
1020,7	5,338
1021,1	4,281
1021,6	6,881
1022	8,452
1022,4	6,367
1022,8	11,081
1023,2	10,338
1023,6	9,024
1024,1	13,91
1024,5	16,452
1024,9	13,881
1025,3	12,252
1025,7	15,71
1026,1	19,795
1026,6	20,167
1027	18,31
1027,4	19,852
1027,8	19,652
1028,2	19,338
1028,6	19,567
1029	12,424
1029,5	14,31
1029,9	11,538
1030,3	7,367
1030,7	13,252
1031,1	18,567
1031,5	12,824
1032	16,567
1032,4	13,91
1032,8	16,967
1033,2	22,51
1033,6	17,538
1034	12,024
1034,4	9,31
1034,9	14,281
1035,3	10,852
1035,7	10,424
1036,1	5,367
1036,5	6,567
1036,9	6,252
1037,4	12,11
1037,8	0,995
1038,2	1,281
1038,6	-2,062
1039	1,281
1039,4	6,852
1039,8	4,595
1040,3	8,681
1040,7	16,624
1041,1	23,081
1041,5	23,795
1041,9	20,852
1042,3	17,795
1042,7	24,967
1043,2	20,824
1043,6	18,281
1044	14,967
1044,4	16,795
1044,8	19,995
1045,2	17,252
1045,6	16,481
1046,1	17,624
1046,5	18,395
1046,9	19,281
1047,3	17,452
1047,7	13,252
1048,1	12,938
1048,5	7,595
1049	8,995
1049,4	8,881
1049,8	6,652
1050,2	10,995
1050,6	17,481
1051	18,681
1051,4	18,481
1051,9	14,795
1052,3	22,852
1052,7	24,081
1053,1	19,452
1053,5	19,081
1053,9	17,938
1054,3	17,881
1054,8	22,91
1055,2	18,31
1055,6	18,31
1056	18,652
1056,4	11,624
1056,8	14,538
1057,2	14,138
1057,6	7,081
1058,1	3,652
1058,5	0,11
1058,9	1,052
1059,3	3,081
1059,7	2,51
1060,1	6,624
1060,5	10,281
1061	12,252
1061,4	14,795
1061,8	17,852
1062,2	21,51
1062,6	19,91
1063	20,71
1063,4	19,31
1063,8	17,967
1064,3	15,081
1064,7	11,595
1065,1	8,852
1065,5	6,91
1065,9	6,967
1066,3	2,681
1066,7	2,024
1067,1	-0,633
1067,6	2,938
1068	-2,633
1068,4	-4,605
1068,8	-4,833
1069,2	2,738
1069,6	2,652
1070	11,367
1070,4	6,852
1070,9	10,967
1071,3	15,338
1071,7	12,967
1072,1	10,795
1072,5	4,852
1072,9	1,795
1073,3	0,11
1073,7	-0,29
1074,2	-0,948
1074,6	2,624
1075	1,652
1075,4	7,995
1075,8	8,967
1076,2	12,738
1076,6	14,738
1077	13,51
1077,5	11,595
1077,9	11,624
1078,3	8,624
1078,7	6,795
1079,1	4,338
1079,5	6,452
1079,9	7,081
1080,3	6,052
1080,7	4,452
1081,2	10,224
1081,6	11,11
1082	10,195
1082,4	11,881
1082,8	14,024
1083,2	14,281
1083,6	19,167
1084	15,967
1084,5	16,138
1084,9	15,681
1085,3	10,71
1085,7	9,024
1086,1	9,91
1086,5	6,824
1086,9	10,738
1087,3	9,395
1087,7	11,167
1088,2	15,052
1088,6	13,081
1089	12,167
1089,4	11,795
1089,8	8,424
1090,2	7,852
1090,6	8,567
1091	7,595
1091,4	10,367
1091,9	10,567
1092,3	10,367
1092,7	6,71
1093,1	10,824
1093,5	9,395
1093,9	5,681
1094,3	9,138
1094,7	8,395
1095,1	7,31
1095,5	8,538
1096	5,281
1096,4	6,567
1096,8	6,51
1097,2	2,738
1097,6	7,852
1098	8,738
1098,4	13,11
1098,8	15,138
1099,2	21,595
1099,6	20,595
1100,1	18,538
1100,5	12,852
1100,9	11,71
1101,3	9,91
1101,7	8,452
1102,1	0,481
1102,5	4,567
1102,9	7,338
1103,3	10,395
1103,7	14,024
1104,2	13,452
1104,6	13,081
1105	13,738
1105,4	13,024
1105,8	10,31
1106,2	7,281
1106,6	3,767
1107	2,538
1107,4	1,933
1107,8	2,087
1108,3	-0,083
