Data from Subt2_312.txt Node
Date: Sat Aug 26 19:15:38 MSK 2023
User: vat
Spectrometer: MAYP114033
Trigger mode: 0
Integration Time (sec): 1,000000E0
Scans to average: 5
Electric dark correction enabled: true
Nonlinearity correction enabled: false
Boxcar width: 3
XAxis mode: Wavelengths
Number of Pixels in Spectrum: 2068
>>>>>Begin Spectral Data<<<<<
199,4	-0,9
199,9	2,46
200,4	1,933
200,8	6,014
201,3	5,757
201,8	7,871
202,2	7,729
202,7	11,814
203,2	7,929
203,6	10,214
204,1	6,443
204,6	8,071
205	9,814
205,5	9,071
206	5,671
206,4	10,214
206,9	9,529
207,4	10,871
207,8	9,671
208,3	7,757
208,8	8,871
209,2	9,557
209,7	6,729
210,2	8,871
210,6	7,414
211,1	6,471
211,5	2,557
212	7,986
212,5	9,271
212,9	8,443
213,4	5,014
213,9	3,814
214,3	7,1
214,8	10,5
215,3	2,586
215,7	3,871
216,2	9,7
216,7	11,329
217,1	10,5
217,6	11,5
218,1	9,843
218,5	12,471
219	4,414
219,5	6,386
219,9	2,986
220,4	10,7
220,9	7,729
221,3	12,043
221,8	14,443
222,3	22,643
222,7	18,957
223,2	20,1
223,6	13,843
224,1	13,814
224,6	12,557
225	7,643
225,5	6,3
226	4,929
226,4	7,643
226,9	9,157
227,4	13,671
227,8	8,214
228,3	13,614
228,8	14,786
229,2	17,214
229,7	17,129
230,2	19,157
230,6	15,557
231,1	24,157
231,5	22,957
232	20,671
232,5	14,986
232,9	17,414
233,4	19,614
233,9	18,186
234,3	15,186
234,8	12,871
235,3	10,129
235,7	13,443
236,2	8,957
236,7	2,5
237,1	8,586
237,6	-0,186
238,1	-1,129
238,5	-1,5
239	-0,271
239,4	4,471
239,9	10,043
240,4	3,929
240,8	13,129
241,3	11,5
241,8	8,786
242,2	5,414
242,7	-0,729
243,2	-2,1
243,6	-3,3
244,1	-1,157
244,6	5,271
245	8,814
245,5	9,129
245,9	8,671
246,4	9,443
246,9	13,614
247,3	12,529
247,8	9,814
248,3	12,786
248,7	15,529
249,2	18,357
249,7	14,757
250,1	15,357
250,6	12,386
251	15,529
251,5	15,443
252	12,386
252,4	15,529
252,9	15,129
253,4	11,871
253,8	9,443
254,3	4,586
254,8	4,3
255,2	1,729
255,7	-3,614
256,1	-1,157
256,6	1,414
257,1	7,1
257,5	6,786
258	5,814
258,5	7,671
258,9	9,129
259,4	6,471
259,9	8,5
260,3	4,586
260,8	3,929
261,2	4,586
261,7	6,586
262,2	2,3
262,6	1,329
263,1	-0,129
263,6	0,986
264	6,871
264,5	11,071
264,9	11,843
265,4	19,014
265,9	18,729
266,3	22,414
266,8	25,7
267,3	18,129
267,7	13,471
268,2	10,843
268,7	8,3
269,1	11,7
269,6	5,643
270	3,757
270,5	5,786
271	7,186
271,4	7,9
271,9	4,557
272,4	6,243
272,8	7,1
273,3	3,9
273,7	8,557
274,2	11,214
274,7	13,014
275,1	18,214
275,6	15,043
276,1	12,843
276,5	17,443
277	14,271
277,4	10,671
277,9	10,471
278,4	9,9
278,8	13,786
279,3	17,129
279,8	17,586
280,2	18,9
280,7	21,529
281,1	20,186
281,6	19,986
282,1	18,1
282,5	15,3
283	10,214
283,4	11,3
283,9	13,043
284,4	18,7
284,8	16,729
285,3	16,1
285,8	18,814
286,2	17,529
286,7	17,957
287,1	11,5
287,6	6,929
288,1	7,386
288,5	9,671
289	6,5
289,5	10,357
289,9	7,3
290,4	14,557
290,8	15,214
291,3	16,243
291,8	16,014
292,2	18,757
292,7	19,757
293,1	18,871
293,6	16,329
294,1	18,357
294,5	16,586
295	15,5
295,5	13,186
295,9	13,014
296,4	13,186
296,8	10,129
297,3	10,986
297,8	6,271
298,2	1,929
298,7	6,186
299,1	6,329
299,6	4,386
300,1	4,729
300,5	0,814
301	9,529
301,5	19,1
301,9	12,757
302,4	10,471
302,8	13,9
303,3	14,614
303,8	12,9
304,2	10,986
304,7	3,671
305,1	4,3
305,6	5,786
306,1	9,586
306,5	11,186
307	14,214
307,4	14,443
307,9	14,786
308,4	16,871
308,8	11,757
309,3	7,814
309,8	3,9
310,2	0,414
310,7	-6,5
311,1	-6,729
311,6	-4,871
312,1	-2,129
312,5	0,671
313	3,529
313,4	7,671
313,9	11,1
314,4	12,9
314,8	10,414
315,3	10,3
315,7	6,043
316,2	5,357
316,7	0,1
317,1	8,557
317,6	7,529
318	14,529
318,5	16,5
319	16,586
319,4	14,329
319,9	25,1
320,3	21,786
320,8	19,929
321,3	14,671
321,7	15,043
322,2	10,3
322,6	14,414
323,1	6,9
323,6	3,986
324	7,329
324,5	4,214
324,9	4,443
325,4	6,871
325,9	10,871
326,3	14,671
326,8	19,471
327,2	14,329
327,7	18,5
328,2	17,786
328,6	24,929
329,1	15,386
329,5	12,786
330	7,7
330,5	14,129
330,9	13,414
331,4	13,7
331,8	10,9
332,3	13,014
332,8	15,986
333,2	17,357
333,7	16,614
334,1	17,986
334,6	15,5
335,1	9,871
335,5	15,214
336	8,929
336,4	10,871
336,9	13,529
337,4	14,586
337,8	14,1
338,3	16,871
338,7	15,414
339,2	13,986
339,7	11,386
340,1	8,557
340,6	4,9
341	5,5
341,5	7,586
342	6,957
342,4	7,986
342,9	8,471
343,3	8,271
343,8	8,129
344,2	7,529
344,7	11,271
345,2	8,443
345,6	11,5
346,1	11,757
346,5	7,586
347	6,9
347,5	7,729
347,9	8,443
348,4	8,757
348,8	10,214
349,3	13,557
349,8	17,5
350,2	25,471
350,7	26,043
351,1	24,7
351,6	28,043
352	29,1
352,5	30,786
353	41,471
353,4	42,586
353,9	54,271
354,3	68,329
354,8	80,729
355,3	103,1
355,7	120,186
356,2	133,157
356,6	156,814
357,1	184,386
357,5	210,7
358	244,357
358,5	275,5
358,9	321,757
359,4	375,529
359,8	427,9
360,3	489,671
360,8	555,814
361,2	632,5
361,7	719,5
362,1	814,243
362,6	916,929
363	1029,043
363,5	1143,471
364	1273,614
364,4	1401,157
364,9	1528,614
365,3	1652,586
365,8	1767,014
366,3	1881,071
366,7	1984,9
367,2	2070,071
367,6	2136,929
368,1	2193,814
368,5	2227,071
369	2248,329
369,5	2250,129
369,9	2233,129
370,4	2198,614
370,8	2153,214
371,3	2089,843
371,7	2019,986
372,2	1936,9
372,7	1837,271
373,1	1739,471
373,6	1635,157
374	1536,414
374,5	1434,871
374,9	1331,471
375,4	1234,871
375,9	1150,757
376,3	1060,843
376,8	979,871
377,2	901,243
377,7	827,843
378,2	763,071
378,6	699,414
379,1	642,186
379,5	594,271
380	551,386
380,4	509,557
380,9	469,071
381,4	433,586
381,8	399,586
382,3	371,243
382,7	344,7
383,2	319,471
383,6	299,243
384,1	282,9
384,6	266,957
385	250,471
385,5	232,529
385,9	212,9
386,4	198,1
386,8	180,557
387,3	165,9
387,7	151,357
388,2	142,157
388,7	136,214
389,1	131,129
389,6	126,043
390	120,243
390,5	115,014
390,9	109,671
391,4	107,757
391,9	99,186
392,3	94,614
392,8	84,9
393,2	82,557
393,7	79,357
394,1	72,843
394,6	68,843
395,1	71,329
395,5	66,529
396	67,843
396,4	65,3
396,9	60,271
397,3	66,757
397,8	68,157
398,2	64,014
398,7	63,5
399,2	63,386
399,6	62,186
400,1	58,214
400,5	50,986
401	45,586
401,4	37,357
401,9	40,843
402,4	41,3
402,8	35,986
403,3	43,271
403,7	41,586
404,2	47,929
404,6	51,786
405,1	47,3
405,5	41,929
406	44,586
406,5	41,329
406,9	45,414
407,4	37,357
407,8	39,586
408,3	43,814
408,7	43,9
409,2	50,386
409,6	54,186
410,1	52,414
410,6	57,471
411	58,814
411,5	57,529
411,9	61,5
412,4	57,414
412,8	57,729
413,3	61,3
413,7	58,814
414,2	59,071
414,7	63,9
415,1	67,986
415,6	72,871
416	76,3
416,5	77,957
416,9	84,443
417,4	88,786
417,8	93,157
418,3	95,643
418,8	98,3
419,2	98,243
419,7	104,386
420,1	103,7
420,6	102,729
421	98,7
421,5	100,329
421,9	98,214
422,4	100,243
422,8	96,186
423,3	95,357
423,8	90,7
424,2	88,786
424,7	88,471
425,1	90,671
425,6	92,271
426	92,414
426,5	96,786
426,9	105,186
427,4	106,729
427,9	99,186
428,3	100,929
428,8	100,586
429,2	97,186
429,7	91,843
430,1	90,643
430,6	92,957
431	97,129
431,5	95,186
431,9	91,186
432,4	95,329
432,8	103,357
433,3	105,214
433,8	105,643
434,2	110,443
434,7	113,529
435,1	115,386
435,6	117,357
436	115,957
436,5	117,157
436,9	117,786
437,4	119,557
437,8	120,729
438,3	128,129
438,8	131,9
439,2	133,386
439,7	139,814
440,1	147,471
440,6	152,529
441	155,443
441,5	158,586
441,9	165,786
442,4	172,871
442,8	177,214
443,3	185,443
443,7	193,071
444,2	203,557
444,7	214,9
445,1	221,671
445,6	233,1
446	242,5
446,5	242,414
446,9	242,129
447,4	246,786
447,8	249,071
448,3	260,5
448,7	267,3
449,2	277,214
449,6	293,929
450,1	309,329
450,6	328,014
451	343,014
451,5	354,414
451,9	370,014
452,4	379,786
452,8	388,843
453,3	405,757
453,7	413,5
454,2	429,329
454,6	442,157
455,1	453,643
455,5	468,586
456	489,786
456,4	501,014
456,9	521,986
457,3	534,243
457,8	547,9
458,3	569,814
458,7	583,729
459,2	597,614
459,6	621,071
460,1	633,014
460,5	650,5
461	672,986
461,4	684,957
461,9	707,357
462,3	725,529
462,8	744,529
463,2	766,871
463,7	793,414
464,1	814,386
464,6	840,014
465	865,557
465,5	890,186
466	913,443
466,4	940,443
466,9	961,929
467,3	980,929
467,8	1004,271
468,2	1025,129
468,7	1045,986
469,1	1070,9
469,6	1091,1
470	1114,329
470,5	1143,7
470,9	1165,614
471,4	1189,3
471,8	1215,243
472,3	1238,014
472,7	1266,957
473,2	1288,014
473,6	1307,9
474,1	1338,471
474,5	1366,157
475	1394,1
475,4	1418,843
475,9	1439,329
476,4	1461,814
476,8	1491,929
477,3	1506,929
477,7	1534,871
478,2	1557,557
478,6	1575,271
479,1	1598,614
479,5	1627,043
480	1644,786
480,4	1666,957
480,9	1685,443
481,3	1700,357
481,8	1725,357
482,2	1736,614
482,7	1753,043
483,1	1774,557
483,6	1792,586
484	1800,643
484,5	1824,243
484,9	1837,071
485,4	1858,957
485,8	1878,071
486,3	1890,729
486,7	1911,957
487,2	1936,986
487,6	1948,929
488,1	1961,9
488,5	1978,214
489	1992,586
489,4	2009,186
489,9	2012,357
490,4	2015,243
490,8	2028,071
491,3	2041,529
491,7	2051,014
492,2	2059,3
492,6	2064,129
493,1	2079,443
493,5	2083,157
494	2086,129
494,4	2093,014
494,9	2099,843
495,3	2101,414
495,8	2108,386
496,2	2112,529
496,7	2117,214
497,1	2131,443
497,6	2137,586
498	2141,5
498,5	2149,329
498,9	2149,929
499,4	2152,5
499,8	2162,329
500,3	2162,814
500,7	2164,814
501,2	2164,557
501,6	2157,671
502,1	2160,014
502,5	2156,757
503	2159,357
503,4	2157,243
503,9	2154,271
504,3	2158,071
504,8	2163,043
505,2	2163,814
505,7	2166,557
506,1	2167,443
506,6	2163,929
507	2167,329
507,5	2164,586
507,9	2160,871
508,4	2156,814
508,8	2155,986
509,3	2152,786
509,7	2155,929
510,2	2156,443
510,6	2152,729
511,1	2153,529
511,5	2159,414
512	2158,586
512,4	2159,1
512,9	2150,614
513,3	2149,443
513,8	2144,643
514,2	2146,414
514,7	2138,1
515,1	2139,214
515,6	2135,043
516	2135,557
516,5	2131,157
516,9	2137,157
517,4	2134,871
517,8	2139,386
518,3	2137,671
518,7	2139,5
519,2	2135,929
519,6	2135,529
520,1	2134,529
520,5	2133,614
521	2130,443
521,4	2129,329
521,9	2132,043
522,3	2137,014
522,8	2136,071
523,2	2133,729
523,7	2133,529
524,1	2129,243
524,6	2125,243
525	2120,271
525,5	2115,157
525,9	2116,729
526,4	2119,214
526,8	2117,157
527,3	2120,014
527,7	2125,843
528,2	2135,786
528,6	2139,243
529,1	2138,329
529,5	2141,729
530	2142,043
530,4	2143,271
530,9	2144,757
531,3	2137,871
531,8	2141,614
532,2	2144,586
532,6	2137,614
533,1	2143,129
533,5	2151,871
534	2152,357
534,4	2154,957
534,9	2151,757
535,3	2150,814
535,8	2158,929
536,2	2158,871
536,7	2159,5
537,1	2160,614
537,6	2163,871
538	2172,586
538,5	2178,557
538,9	2175,014
539,4	2182,757
539,8	2181,186
540,3	2185,871
540,7	2184,529
541,2	2177,814
541,6	2179,471
542,1	2184,929
542,5	2183,9
543	2186,014
543,4	2183,1
543,9	2188,414
544,3	2199,643
544,8	2198,214
545,2	2199,614
545,7	2205,557
546,1	2210,071
546,5	2226,071
547	2231,586
547,4	2232,357
547,9	2234,471
548,3	2242,614
548,8	2247,157
549,2	2251,871
549,7	2248,814
550,1	2249,7
550,6	2256,614
551	2261,5
551,5	2262,3
551,9	2263,1
552,4	2261,443
552,8	2262,671
553,3	2264,014
553,7	2258,929
554,2	2261,157
554,6	2265,814
555,1	2269,186
555,5	2269,3
555,9	2272,043
556,4	2275,386
556,8	2274,9
557,3	2276,929
557,7	2281,271
558,2	2282,386
558,6	2294,814
559,1	2294,186
559,5	2294,986
560	2302,443
560,4	2301,3
560,9	2302,614
561,3	2300,643
561,8	2298,929
562,2	2299,586
562,7	2300,786
563,1	2308,386
563,6	2317,186
564	2316,3
564,4	2320,757
564,9	2326,671
565,3	2331,243
565,8	2335,443
566,2	2340,357
566,7	2342,386
567,1	2340,7
567,6	2341,471
568	2337,5
568,5	2338,586
568,9	2335,071
569,4	2332,386
569,8	2332,929
570,3	2332,557
570,7	2330,986
571,1	2336,214
571,6	2340,986
572	2345,471
572,5	2339,414
572,9	2337,386
573,4	2340,614
573,8	2343,1
574,3	2333,671
574,7	2328,386
575,2	2328,014
575,6	2326,471
576,1	2329,071
576,5	2329,414
576,9	2324,157
577,4	2327,9
577,8	2327,157
578,3	2321,986
578,7	2321,243
579,2	2317,1
579,6	2312,357
580,1	2310,871
580,5	2301,186
581	2298,843
581,4	2294,671
581,9	2290,814
582,3	2287,3
582,7	2288,986
583,2	2287,243
583,6	2288,3
584,1	2286,643
584,5	2287,071
585	2285,814
585,4	2276,357
585,9	2268,471
586,3	2275,843
586,8	2274,157
587,2	2268,5
587,6	2268,529
588,1	2269,957
588,5	2275,043
589	2274,843
589,4	2258,614
589,9	2254,043
590,3	2250,157
590,8	2240,014
591,2	2233,414
591,7	2232,214
592,1	2230,786
592,5	2232,614
593	2226,843
593,4	2219,586
593,9	2220,7
594,3	2221,957
594,8	2209,529
595,2	2203,243
595,7	2200,329
596,1	2202,157
596,6	2202,986
597	2201,329
597,4	2194,786
597,9	2198,5
598,3	2197,871
598,8	2195,557
599,2	2185,786
599,7	2187,814
600,1	2174,929
600,6	2168,757
601	2162,871
601,4	2161,643
601,9	2163,414
602,3	2162,157
602,8	2150,243
603,2	2151,243
603,7	2147,586
604,1	2138,671
604,6	2126,5
605	2108,1
605,4	2105,357
605,9	2099,9
606,3	2090,9
606,8	2083,9
607,2	2076,586
607,7	2071,071
608,1	2069,671
608,6	2062,471
609	2061,757
609,4	2064,614
609,9	2058,271
610,3	2057,386
610,8	2051,9
611,2	2045,386
611,7	2031,814
612,1	2023,471
612,6	2013,043
613	2010,414
613,4	2001,471
613,9	1992,043
614,3	1985,957
614,8	1988,614
615,2	1974,071
615,7	1968,3
616,1	1958,957
616,6	1948,814
617	1940,243
617,4	1931,786
617,9	1926,671
618,3	1924,843
618,8	1921,7
619,2	1911,357
619,7	1911,329
620,1	1905,471
620,5	1898,043
621	1883,843
621,4	1880,214
621,9	1863,129
622,3	1858,357
622,8	1844,871
623,2	1842,157
623,6	1835,814
624,1	1831,043
624,5	1822,129
625	1823,357
625,4	1815,157
625,9	1809,271
626,3	1798,043
626,8	1787,043
627,2	1781,729
627,6	1767,271
628,1	1749,5
628,5	1743,671
629	1735,529
629,4	1729,729
629,9	1722,471
630,3	1707,786
630,7	1701,443
631,2	1697,5
631,6	1689,471
632,1	1685,986
632,5	1674,957
633	1670,871
633,4	1663,471
633,8	1660,071
634,3	1651,357
634,7	1645,871
635,2	1627,329
635,6	1622,071
636,1	1609,1
636,5	1600,614
636,9	1589,7
637,4	1581,614
637,8	1564,871
638,3	1559,014
638,7	1548,471
639,2	1539,386
639,6	1536,1
640	1527,729
640,5	1522,729
640,9	1515,443
641,4	1511,786
641,8	1506,414
642,2	1506,557
642,7	1496,729
643,1	1493,843
643,6	1483,214
644	1483,671
644,5	1478,986
644,9	1471,386
645,3	1457,329
645,8	1449,814
646,2	1441,3
646,7	1436,643
647,1	1427,814
647,6	1418,243
648	1415,643
648,4	1411,214
648,9	1406,957
649,3	1395,9
649,8	1390,386
650,2	1386,443
650,6	1387,357
651,1	1374,414
651,5	1369,386
652	1357,529
652,4	1351,129
652,9	1342,243
653,3	1329,986
653,7	1316,329
654,2	1312,929
654,6	1302,1
655,1	1304,614
655,5	1304,014
655,9	1296,243
656,4	1289,814
656,8	1278,986
657,3	1272,129
657,7	1274,414
658,2	1260,986
658,6	1246,929
659	1239,614
659,5	1230,671
659,9	1222,786
660,4	1216,586
660,8	1200,5
661,2	1192,214
661,7	1193,186
662,1	1188,443
662,6	1184,471
663	1185,557
663,4	1171,214
663,9	1164,414
664,3	1156,357
664,8	1142,186
665,2	1136,243
665,6	1128,871
666,1	1120,357
666,5	1123,157
667	1118,729
667,4	1113,5
667,9	1108,414
668,3	1100,071
668,7	1089,757
669,2	1081,157
669,6	1071,157
670,1	1065,529
670,5	1056,1
670,9	1046,643
671,4	1034,557
671,8	1033,443
672,3	1028,386
672,7	1022,757
673,1	1009,757
673,6	1005,729
674	1006,757
674,5	1001,614
674,9	990,871
675,3	985,357
675,8	976,814
676,2	976,186
676,7	970,843
677,1	963,357
677,5	957,357
678	955,414
678,4	950,9
678,9	945,443
679,3	940,071
679,7	933,3
680,2	922,357
680,6	917,157
681,1	909,814
681,5	906,014
681,9	902,9
682,4	898,043
682,8	897,843
683,3	900,386
683,7	897,529
684,1	893,014
684,6	879,243
685	873,1
685,5	866,843
685,9	852,614
686,3	840,786
686,8	838,529
687,2	831,757
687,7	828,871
688,1	815,414
688,5	811,757
689	812,614
689,4	804,814
689,9	794,414
690,3	792,357
690,7	791,157
691,2	793,071
691,6	786,243
692	780,214
692,5	778,557
692,9	775,329
693,4	767,643
693,8	755,814
694,2	746,386
694,7	739,814
695,1	736,043
695,6	736,614
696	735,386
696,4	728,386
696,9	722,786
697,3	722,957
697,8	719,043
698,2	712,871
698,6	706,586
699,1	698,586
699,5	697,814
699,9	696,186
700,4	686,986
700,8	685,786
701,3	684,929
701,7	676,614
702,1	674,786
702,6	666,929
703	665,957
703,5	662,129
703,9	657,786
704,3	653,614
704,8	651,414
705,2	646,357
705,6	646,529
706,1	642,1
706,5	639,3
707	636,043
707,4	632,5
707,8	623,786
708,3	619,414
708,7	611,014
709,2	603,586
709,6	602,014
710	601,786
710,5	593,1
710,9	591,3
711,3	587,7
711,8	586,157
712,2	587,071
712,7	578,643
713,1	573,471
713,5	573,071
714	575,814
714,4	574,929
714,8	573,729
715,3	566,929
715,7	568,929
716,2	560,1
716,6	558,7
717	545,643
717,5	536,557
717,9	536,386
718,3	531,757
718,8	526,814
719,2	519,729
719,7	513,157
720,1	519,243
720,5	521,9
721	514,786
721,4	514,157
721,8	510,5
722,3	508,014
722,7	504,471
723,2	493,871
723,6	482,957
724	478,243
724,5	473,157
724,9	467,186
725,3	468,843
725,8	466,757
726,2	465,014
726,7	461,757
727,1	457,1
727,5	457,9
728	454,557
728,4	450,671
728,8	447,3
729,3	444,471
729,7	442,529
730,1	441,729
730,6	438,157
731	436,614
731,5	430,386
731,9	429,614
732,3	430,786
732,8	431,186
733,2	426,243
733,6	421,471
734,1	417,929
734,5	418,271
734,9	417,386
735,4	414,9
735,8	410,043
736,3	411,5
736,7	408,843
737,1	411,957
737,6	409,271
738	404,357
738,4	399,157
738,9	402,986
739,3	398,586
739,7	397,986
740,2	391,071
740,6	391,729
741,1	391,243
741,5	386,957
741,9	379,729
742,4	380,386
742,8	381,986
743,2	385,814
743,7	376,214
744,1	368,1
744,5	364,7
745	358,157
745,4	353,786
745,8	348,671
746,3	342,386
746,7	341,729
747,2	343,957
747,6	348,329
748	351,643
748,5	352,443
748,9	345,643
749,3	341,786
749,8	344,014
750,2	339,957
750,6	334,186
751,1	333,071
751,5	326,129
751,9	327,929
752,4	328,586
752,8	323,586
753,3	322,243
753,7	323,957
754,1	317,957
754,6	315,043
755	309,014
755,4	306,9
755,9	310,957
756,3	309,786
756,7	303,729
757,2	308,671
757,6	308,871
758	309,329
758,5	306,243
758,9	299,443
759,3	298,643
759,8	300,357
760,2	296,671
760,6	294,729
761,1	293,443
761,5	293,871
761,9	291,957
762,4	287,043
762,8	279,614
763,3	276,386
763,7	278,443
764,1	279,843
764,6	273,643
765	273,443
765,4	271,186
765,9	274,729
766,3	277,3
766,7	269,129
767,2	265,529
767,6	269,471
768	263,929
768,5	263,729
768,9	263,3
769,3	257,471
769,8	258,529
770,2	251,586
770,6	246,3
771,1	253,586
771,5	253,814
771,9	252,871
772,4	250,586
772,8	247,957
773,2	252,014
773,7	251,557
774,1	242,729
774,5	234,986
775	227,757
775,4	227,071
775,8	226,843
776,3	226,357
776,7	225,529
777,1	225,671
777,6	230,614
778	234,443
778,4	232,557
778,9	233,357
779,3	227,786
779,7	227,214
780,2	224,871
780,6	224,957
781	220,7
781,5	217,071
781,9	216,014
782,3	213,957
782,8	210,671
783,2	209,471
783,6	211,7
784,1	207,729
784,5	207,9
784,9	202,614
785,4	206,7
785,8	208,729
786,2	211,329
786,7	204,214
787,1	204,129
787,5	204,243
788	204,443
788,4	200,214
788,8	197,957
789,3	193,386
789,7	191,157
790,1	192,5
790,6	192,7
791	189,329
791,4	194,814
791,9	189,957
792,3	183,7
792,7	186,1
793,2	179,614
793,6	176,329
794	179,986
794,5	171,757
794,9	174,071
795,3	178,186
795,8	172,814
796,2	177,014
796,6	177,7
797,1	171,586
797,5	168,329
797,9	165,014
798,4	160,386
798,8	157,357
799,2	155,586
799,7	155,7
800,1	154,329
800,5	157,357
801	157,357
801,4	158,1
801,8	159,729
802,2	153,071
802,7	146,5
803,1	149,5
803,5	150,557
804	149,614
804,4	151,471
804,8	151,357
805,3	157,786
805,7	158,1
806,1	154,7
806,6	151,271
807	149,471
807,4	146,1
807,9	142,014
808,3	139,614
808,7	141,386
809,2	144,443
809,6	144,9
810	144,929
810,4	143,786
810,9	141,929
811,3	137,271
811,7	137,271
812,2	137,3
812,6	133,043
813	133,957
813,5	137,243
813,9	139,929
814,3	143,414
814,8	139,671
815,2	134,529
815,6	134,671
816,1	133,357
816,5	127,471
816,9	127,1
817,3	125,643
817,8	130,243
818,2	129,386
818,6	126,071
819,1	124,214
819,5	125,957
819,9	122,157
820,4	119,043
820,8	113,1
821,2	108,471
821,7	111,3
822,1	112,186
822,5	115,529
822,9	115,014
823,4	115,129
823,8	115,1
824,2	118,557
824,7	116,243
825,1	106,957
825,5	100,214
826	95,786
826,4	96,586
826,8	93,043
827,3	95,1
827,7	92,5
828,1	96,271
828,5	95,1
829	95,071
829,4	91,557
829,8	90,529
830,3	87,1
830,7	87,814
831,1	90,471
831,6	90,043
832	90,071
832,4	86,271
832,8	89,471
833,3	86,7
833,7	85,157
834,1	81,014
834,6	83,186
835	86,071
835,4	87,786
835,8	82,129
836,3	81,129
836,7	82,986
837,1	86,386
837,6	86,214
838	86,871
838,4	90,443
838,9	96,186
839,3	95,643
839,7	93,614
840,1	87,557
840,6	85,357
841	82,786
841,4	78,9
841,9	73,986
842,3	72,3
842,7	72,414
843,1	71,071
843,6	70,729
844	70,929
844,4	71,871
844,9	74,643
845,3	76,586
845,7	75,614
846,2	74,643
846,6	71,443
847	72,1
847,4	72,843
847,9	74,071
848,3	72,214
848,7	70,157
849,2	72,814
849,6	71,957
850	75,671
850,4	71,271
850,9	67,586
851,3	71,157
851,7	73,443
852,2	68,014
852,6	72,9
853	70,671
853,4	71,614
853,9	66,929
854,3	65,7
854,7	62,9
855,2	70,443
855,6	68,471
856	61,214
856,4	58,243
856,9	59,786
857,3	62,386
857,7	67,243
858,2	64,643
858,6	64,214
859	68,3
859,4	70,443
859,9	69,757
860,3	59,957
860,7	55,586
861,1	56,271
861,6	52,271
862	50,157
862,4	47,843
862,9	49,957
863,3	53,471
863,7	49,671
864,1	51,1
864,6	51,157
865	48,557
865,4	51,243
865,9	51,5
866,3	50,357
866,7	54,871
867,1	50,271
867,6	52,871
868	54,786
868,4	51,243
868,8	49,014
869,3	53,786
869,7	57,071
870,1	56,014
870,6	53,471
871	43,871
871,4	49,729
871,8	46,014
872,3	42,7
872,7	34,9
873,1	35,243
873,5	36,986
874	45,757
874,4	42,186
874,8	45,386
875,3	45,014
875,7	46,9
876,1	52,471
876,5	46,614
877	47,1
877,4	41,871
877,8	40,871
878,2	46,586
878,7	47,243
879,1	40,157
879,5	44,1
879,9	43,957
880,4	48,129
880,8	49,043
881,2	41,929
881,7	40,129
882,1	40,929
882,5	37,9
882,9	35,929
883,4	32,614
883,8	34,357
884,2	31,614
884,6	30,729
885,1	30,729
885,5	34,157
885,9	34,986
886,3	38,414
886,8	33,3
887,2	35,957
887,6	38,671
888	38,129
888,5	38,1
888,9	38,671
889,3	34,986
889,8	37,014
890,2	37,186
890,6	30,929
891	31,271
891,5	31,357
891,9	31,329
892,3	35,557
892,7	38,443
893,2	38,671
893,6	43,614
894	45,729
894,4	39,014
894,9	37,157
895,3	33,186
895,7	30,5
896,1	30,071
896,6	26,414
897	22,586
897,4	32,643
897,8	36,243
898,3	40,814
898,7	38,957
899,1	35,3
899,5	38,271
900	35,957
900,4	28,014
900,8	22,329
901,2	15,414
901,7	17,271
902,1	18,471
902,5	18,643
902,9	19,614
903,4	25,557
903,8	28,043
904,2	27,871
904,6	27,786
905,1	31,243
905,5	32,157
905,9	36,443
906,3	34,871
906,8	35,9
907,2	43,129
907,6	41,814
908	40,129
908,5	35,671
908,9	31,671
909,3	32,3
909,7	32,271
910,2	23,814
910,6	28,471
911	21,671
911,4	22,786
911,9	26,014
912,3	24,814
912,7	24,786
913,1	30,786
913,6	24,957
914	32,043
914,4	32,414
914,8	33,5
915,3	32,414
915,7	32,7
916,1	29,729
916,5	32,729
916,9	31,186
917,4	33,271
917,8	32,757
918,2	24,757
918,6	18,3
919,1	17,043
919,5	12,614
919,9	13,957
920,3	9,3
920,8	5,243
921,2	10,471
921,6	14,414
922	14,186
922,5	15,471
922,9	12,471
923,3	15,871
923,7	18,7
924,2	21,129
924,6	19,414
925	22,386
925,4	20,5
925,8	21,929
926,3	21,186
926,7	19,014
927,1	15,471
927,5	19,043
928	17,757
928,4	19,414
928,8	21,3
929,2	19,7
929,7	22,043
930,1	21,757
930,5	21,357
930,9	25,243
931,3	28,586
931,8	27,386
932,2	29,786
932,6	28,214
933	28,043
933,5	23,214
933,9	21,414
934,3	18,129
934,7	13,471
935,2	11,986
935,6	11,5
936	11,643
936,4	16,614
936,8	15,557
937,3	17,157
937,7	22,071
938,1	25,386
938,5	22,271
939	21,757
939,4	16,986
939,8	15,986
940,2	14,129
940,6	15,443
941,1	14,129
941,5	16,7
941,9	15,443
942,3	16,671
942,8	17,5
943,2	18,729
943,6	16,043
944	17,871
944,4	18,243
944,9	18,757
945,3	21,586
945,7	16,157
946,1	13,843
946,6	6,814
947	2,271
947,4	4,1
947,8	7,557
948,2	2,786
948,7	8,443
949,1	8,529
949,5	15,9
949,9	20,957
950,3	19,386
950,8	16,814
951,2	16,757
951,6	14,729
952	16,271
952,5	13,843
952,9	10,329
953,3	8,586
953,7	7,871
954,1	15,843
954,6	18,386
955	20,957
955,4	19,614
955,8	24,214
956,2	23,986
956,7	29,329
957,1	17,986
957,5	18,414
957,9	16,5
958,3	18,843
958,8	14,671
959,2	19,986
959,6	20,729
960	25,1
960,5	26,243
960,9	27,5
961,3	24,7
961,7	22,529
962,1	20,414
962,6	19,214
963	19,557
963,4	11,271
963,8	5,757
964,2	11,071
964,7	9,586
965,1	9,586
965,5	6,757
965,9	6,586
966,3	13,214
966,8	14,414
967,2	11,671
967,6	13,243
968	10,586
968,4	8,7
968,9	13,443
969,3	15,957
969,7	14,671
970,1	17,1
970,5	15,671
971	17,929
971,4	20,3
971,8	19,7
972,2	19,157
972,6	22,5
973,1	18,3
973,5	19,814
973,9	19,329
974,3	19,957
974,7	16,757
975,2	17,9
975,6	19,157
976	22,243
976,4	16,929
976,8	14,986
977,3	13,729
977,7	12,357
978,1	5,957
978,5	1,614
978,9	-2,729
979,4	1,586
979,8	3,243
980,2	4,243
980,6	2,386
981	10,643
981,5	11,871
981,9	14,557
982,3	15,271
982,7	14,1
983,1	10,329
983,6	13,843
984	9,643
984,4	12,986
984,8	14,929
985,2	14,557
985,6	13,614
986,1	16,386
986,5	17,014
986,9	15,129
987,3	14,443
987,7	12,671
988,2	9,071
988,6	12,586
989	13,729
989,4	15,986
989,8	12,5
990,3	14,3
990,7	13,5
991,1	18,1
991,5	17,071
991,9	16,586
992,3	12,243
992,8	16,729
993,2	11,929
993,6	14,3
994	16,443
994,4	15,986
994,9	16,1
995,3	20,386
995,7	18,043
996,1	19,329
996,5	17,243
996,9	12,471
997,4	12,014
997,8	10,1
998,2	5,814
998,6	1,7
999	2,243
999,5	2,071
999,9	4,671
1000,3	4,643
1000,7	4,243
1001,1	2,757
1001,5	7,214
1002	6,957
1002,4	8,157
1002,8	9,814
1003,2	11,214
1003,6	14,643
1004	22,3
1004,5	18,271
1004,9	14,186
1005,3	10,271
1005,7	6,7
1006,1	3,071
1006,6	-1,186
1007	-4,414
1007,4	-0,786
1007,8	4,9
1008,2	7,214
1008,6	11,157
1009,1	13,129
1009,5	16,786
1009,9	18,386
1010,3	18,243
1010,7	15,529
1011,1	14,5
1011,6	15,271
1012	15,243
1012,4	8,5
1012,8	6,243
1013,2	10,3
1013,6	14,643
1014,1	16,614
1014,5	14,757
1014,9	15,557
1015,3	18,529
1015,7	16,986
1016,1	12,471
1016,6	13,3
1017	13,3
1017,4	14,9
1017,8	11,7
1018,2	14,957
1018,6	9,443
1019,1	14,643
1019,5	11,357
1019,9	9,271
1020,3	6,814
1020,7	15,071
1021,1	13,3
1021,6	18,443
1022	18,243
1022,4	15,557
1022,8	21,7
1023,2	21,557
1023,6	18,871
1024,1	26,243
1024,5	27,043
1024,9	17,043
1025,3	22,843
1025,7	20,529
1026,1	21,757
1026,6	20,5
1027	15,386
1027,4	17,957
1027,8	23,586
1028,2	19,986
1028,6	21,3
1029	18,186
1029,5	18,786
1029,9	18,443
1030,3	11,214
1030,7	11,443
1031,1	15,471
1031,5	11,271
1032	10,586
1032,4	7,814
1032,8	9,786
1033,2	15,986
1033,6	18,614
1034	17,7
1034,4	16,986
1034,9	22,843
1035,3	21,157
1035,7	19,043
1036,1	15,1
1036,5	10,471
1036,9	7,843
1037,4	12,929
1037,8	6,929
1038,2	9,271
1038,6	9,643
1039	17,871
1039,4	24,129
1039,8	21,243
1040,3	22,414
1040,7	23,157
1041,1	23,3
1041,5	24,186
1041,9	14,871
1042,3	14,014
1042,7	12,614
1043,2	9,386
1043,6	8,757
1044	6,843
1044,4	5,757
1044,8	11,071
1045,2	6,414
1045,6	15,386
1046,1	14,3
1046,5	14,214
1046,9	15,614
1047,3	16,014
1047,7	15,843
1048,1	16,614
1048,5	9,3
1049	14,186
1049,4	18,443
1049,8	16,243
1050,2	14,786
1050,6	18,786
1051	21,214
1051,4	18,3
1051,9	14,871
1052,3	17,929
1052,7	21,443
1053,1	21,757
1053,5	18,414
1053,9	16,843
1054,3	19,129
1054,8	26,986
1055,2	25,957
1055,6	25,929
1056	27,357
1056,4	22,557
1056,8	23,843
1057,2	27,671
1057,6	20,357
1058,1	17,586
1058,5	14,986
1058,9	13,3
1059,3	15,786
1059,7	15,529
1060,1	13,214
1060,5	12,329
1061	13,357
1061,4	13,957
1061,8	17,129
1062,2	16,814
1062,6	17,014
1063	20,071
1063,4	18,671
1063,8	16,729
1064,3	14,243
1064,7	13,529
1065,1	15,814
1065,5	12,071
1065,9	9,729
1066,3	8,843
1066,7	5,386
1067,1	4,929
1067,6	9,071
1068	4,786
1068,4	9,471
1068,8	11,043
1069,2	16,443
1069,6	16,157
1070	20,929
1070,4	14,186
1070,9	15,586
1071,3	13,014
1071,7	8,957
1072,1	2,586
1072,5	3,9
1072,9	1,586
1073,3	2,7
1073,7	2,414
1074,2	1,9
1074,6	7,271
1075	7,614
1075,4	7,1
1075,8	9,9
1076,2	10,129
1076,6	11,414
1077	12,871
1077,5	15,014
1077,9	13,014
1078,3	13,243
1078,7	13,9
1079,1	13,014
1079,5	10,729
1079,9	7,443
1080,3	5,186
1080,7	11,443
1081,2	16,671
1081,6	17,243
1082	15,243
1082,4	20,871
1082,8	21,1
1083,2	20,471
1083,6	19,9
1084	17,157
1084,5	16,586
1084,9	15,557
1085,3	10,529
1085,7	13,814
1086,1	12,671
1086,5	11,586
1086,9	13,586
1087,3	11,729
1087,7	13,471
1088,2	11,929
1088,6	12,3
1089	14,643
1089,4	12,529
1089,8	12,586
1090,2	10,957
1090,6	10,3
1091	15,557
1091,4	14,157
1091,9	11,9
1092,3	14,586
1092,7	10,586
1093,1	12,729
1093,5	14,329
1093,9	11,329
1094,3	17,414
1094,7	16,243
1095,1	18,014
1095,5	20,757
1096	17,5
1096,4	20,671
1096,8	19,243
1097,2	13,386
1097,6	16,157
1098	14,957
1098,4	17,214
1098,8	20,757
1099,2	24,957
1099,6	27,3
1100,1	24,986
1100,5	19,814
1100,9	14,614
1101,3	12,757
1101,7	8,671
1102,1	2,157
1102,5	3,129
1102,9	6,414
1103,3	13,814
1103,7	15,386
1104,2	14,814
1104,6	15,329
1105	14,014
1105,4	12,757
1105,8	9,271
1106,2	3,443
1106,6	3,614
1107	1,643
1107,4	2,3
1107,8	1,7
1108,3	-0,25
