Data from Subt2_089.txt Node
Date: Sat Aug 26 16:41:49 MSK 2023
User: vat
Spectrometer: MAYP114033
Trigger mode: 0
Integration Time (sec): 1,000000E0
Scans to average: 5
Electric dark correction enabled: true
Nonlinearity correction enabled: false
Boxcar width: 3
XAxis mode: Wavelengths
Number of Pixels in Spectrum: 2068
>>>>>Begin Spectral Data<<<<<
199,4	-0,983
199,9	0,067
200,4	-0,833
200,8	-0,419
201,3	0,352
201,8	1,81
202,2	4,552
202,7	9,124
203,2	9,067
203,6	12,038
204,1	12,61
204,6	15,495
205	17,838
205,5	16,467
206	14,152
206,4	15,524
206,9	11,61
207,4	14,724
207,8	9,781
208,3	10,152
208,8	9,552
209,2	11,124
209,7	11,038
210,2	21,295
210,6	17,895
211,1	17,152
211,5	12,295
212	9,924
212,5	4,181
212,9	3,581
213,4	-2,219
213,9	-2,962
214,3	5,667
214,8	10,867
215,3	8,295
215,7	11,552
216,2	12,21
216,7	11,038
217,1	14,21
217,6	10,067
218,1	7,638
218,5	16,695
219	21,238
219,5	23,467
219,9	23,124
220,4	20,21
220,9	19,724
221,3	18,867
221,8	14,981
222,3	9,838
222,7	5,61
223,2	6,667
223,6	3,667
224,1	4,21
224,6	2,495
225	1,467
225,5	9,867
226	10,324
226,4	11,867
226,9	13,724
227,4	13,924
227,8	17,438
228,3	18,752
228,8	11,381
229,2	12,095
229,7	5,981
230,2	9,638
230,6	7,952
231,1	8,267
231,5	10,295
232	17,581
232,5	22,152
232,9	29,381
233,4	31,924
233,9	33,638
234,3	30,181
234,8	30,381
235,3	24,667
235,7	27,41
236,2	23,01
236,7	19,895
237,1	18,81
237,6	19,752
238,1	18,895
238,5	15,781
239	9,667
239,4	7,352
239,9	7,467
240,4	7,438
240,8	7,638
241,3	2,952
241,8	6,838
242,2	2,524
242,7	8,038
243,2	9,238
243,6	9,695
244,1	7,895
244,6	10,267
245	8,81
245,5	9,781
245,9	8,752
246,4	4,381
246,9	6,381
247,3	7,095
247,8	8,724
248,3	11,038
248,7	18,952
249,2	18,495
249,7	17,752
250,1	14,524
250,6	16,752
251	15,667
251,5	11,41
252	8,838
252,4	8,01
252,9	12,524
253,4	14,752
253,8	14,41
254,3	16,438
254,8	15,295
255,2	11,352
255,7	13,438
256,1	9,381
256,6	7,381
257,1	5,467
257,5	6,724
258	8,467
258,5	8,867
258,9	10,667
259,4	14,095
259,9	15,067
260,3	14,238
260,8	11,21
261,2	18,524
261,7	20,295
262,2	18,667
262,6	16,181
263,1	15,095
263,6	20,552
264	20,467
264,5	14,552
264,9	13,867
265,4	12,552
265,9	14,067
266,3	16,21
266,8	12,238
267,3	16,552
267,7	16,438
268,2	13,952
268,7	12,695
269,1	11,124
269,6	10,61
270	14,552
270,5	14,781
271	15,924
271,4	14,295
271,9	13,924
272,4	14,381
272,8	13,124
273,3	8,181
273,7	2,324
274,2	0,61
274,7	4,21
275,1	4,752
275,6	7,667
276,1	11,124
276,5	15,752
277	17,267
277,4	19,381
277,9	18,267
278,4	17,695
278,8	21,667
279,3	19,552
279,8	22,295
280,2	20,467
280,7	15,667
281,1	20,01
281,6	21,838
282,1	21,152
282,5	20,581
283	17,352
283,4	20,41
283,9	23,095
284,4	21,067
284,8	19,095
285,3	14,438
285,8	15,638
286,2	11,667
286,7	12,61
287,1	12,381
287,6	14,067
288,1	14,981
288,5	15,295
289	13,267
289,5	13,21
289,9	14,095
290,4	13,124
290,8	15,495
291,3	15,038
291,8	16,124
292,2	16,324
292,7	18,752
293,1	14,21
293,6	17,724
294,1	12,495
294,5	14,124
295	13,181
295,5	16,838
295,9	22,41
296,4	25,952
296,8	19,467
297,3	19,295
297,8	21,924
298,2	21,61
298,7	13,838
299,1	11,152
299,6	9,295
300,1	14,838
300,5	18,581
301	17,838
301,5	18,038
301,9	18,181
302,4	13,638
302,8	13,581
303,3	11,324
303,8	5,695
304,2	0,61
304,7	-0,019
305,1	6,41
305,6	4,095
306,1	4,61
306,5	6,01
307	7,667
307,4	8,324
307,9	5,81
308,4	7,038
308,8	13,41
309,3	12,781
309,8	15,495
310,2	10,895
310,7	18,781
311,1	17,21
311,6	15,61
312,1	14,495
312,5	15,81
313	14,095
313,4	22,095
313,9	20,724
314,4	21,524
314,8	22,21
315,3	21,352
315,7	19,638
316,2	19,695
316,7	17,41
317,1	13,124
317,6	18,724
318	16,295
318,5	20,552
319	20,781
319,4	20,095
319,9	19,267
320,3	20,838
320,8	18,124
321,3	19,752
321,7	14,724
322,2	15,895
322,6	10,267
323,1	13,895
323,6	10,324
324	10,267
324,5	6,952
324,9	6,352
325,4	8,81
325,9	18,695
326,3	17,981
326,8	24,152
327,2	24,238
327,7	25,581
328,2	25,724
328,6	21,067
329,1	18,724
329,5	15,352
330	11,838
330,5	9,61
330,9	11,381
331,4	9,924
331,8	14,381
332,3	14,238
332,8	13,067
333,2	10,81
333,7	14,067
334,1	13,41
334,6	16,781
335,1	16,781
335,5	15,895
336	14,152
336,4	14,152
336,9	16,638
337,4	15,267
337,8	15,524
338,3	10,581
338,7	8,552
339,2	11,838
339,7	15,838
340,1	15,781
340,6	16,781
341	18,895
341,5	24,867
342	27,467
342,4	29,638
342,9	25,238
343,3	21,81
343,8	23,924
344,2	24,724
344,7	22,238
345,2	15,067
345,6	16,324
346,1	18,238
346,5	21,352
347	18,21
347,5	13,01
347,9	14,524
348,4	20,467
348,8	17,095
349,3	18,21
349,8	18,61
350,2	21,867
350,7	26,438
351,1	25,352
351,6	26,724
352	37,41
352,5	43,952
353	52,438
353,4	57,067
353,9	68,581
354,3	83,324
354,8	96,752
355,3	112,352
355,7	130,324
356,2	150,124
356,6	176,667
357,1	200,61
357,5	233,324
358	275,524
358,5	321,81
358,9	369,638
359,4	423,324
359,8	486,781
360,3	562,238
360,8	638,81
361,2	728,067
361,7	818,667
362,1	931,667
362,6	1052,981
363	1180,438
363,5	1316,295
364	1457,295
364,4	1597,152
364,9	1741,752
365,3	1875,381
365,8	2009,524
366,3	2138,981
366,7	2253,952
367,2	2352,81
367,6	2440,41
368,1	2505,067
368,5	2556,981
369	2579,952
369,5	2579,295
369,9	2555,095
370,4	2521,295
370,8	2458,467
371,3	2391,667
371,7	2299,152
372,2	2202,352
372,7	2091,438
373,1	1982,21
373,6	1863,295
374	1747,41
374,5	1624,495
374,9	1514,924
375,4	1405,781
375,9	1305,924
376,3	1206,124
376,8	1116,638
377,2	1032,781
377,7	949,667
378,2	871,781
378,6	795,524
379,1	729,781
379,5	670,295
380	612,067
380,4	559,01
380,9	513,581
381,4	473,067
381,8	442,152
382,3	407,752
382,7	374,152
383,2	347,181
383,6	323,124
384,1	303,638
384,6	279,21
385	255,581
385,5	237,895
385,9	226,438
386,4	212,895
386,8	199,152
387,3	185,352
387,7	176,838
388,2	166,838
388,7	156,895
389,1	141,41
389,6	129,552
390	120,61
390,5	112,41
390,9	109,381
391,4	109,781
391,9	101,638
392,3	98,667
392,8	100,495
393,2	95,238
393,7	92,152
394,1	84,21
394,6	75,924
395,1	75,667
395,5	73,952
396	66,238
396,4	63,067
396,9	62,752
397,3	60,21
397,8	53,895
398,2	52,324
398,7	47,352
399,2	47,238
399,6	50,781
400,1	41,781
400,5	41,467
401	46,752
401,4	45,638
401,9	47,724
402,4	46,152
402,8	42,981
403,3	46,552
403,7	45,61
404,2	43,981
404,6	42,552
405,1	37,895
405,5	38,238
406	38,867
406,5	38,838
406,9	36,867
407,4	34,695
407,8	35,552
408,3	41,381
408,7	43,724
409,2	46,267
409,6	47,21
410,1	54,981
410,6	57,981
411	62,61
411,5	60,21
411,9	55,924
412,4	57,41
412,8	58,867
413,3	57,324
413,7	57,038
414,2	57,21
414,7	64,267
415,1	66,61
415,6	72,524
416	76,838
416,5	80,952
416,9	84,781
417,4	87,038
417,8	90,552
418,3	100,895
418,8	96,295
419,2	97,638
419,7	101,752
420,1	101,267
420,6	105,438
421	105,524
421,5	99,724
421,9	104,638
422,4	106,81
422,8	105,667
423,3	109,895
423,8	110,838
424,2	111,152
424,7	114,638
425,1	114,181
425,6	115,695
426	116,238
426,5	113,181
426,9	113,524
427,4	114,381
427,9	108,867
428,3	108,667
428,8	111,867
429,2	111,21
429,7	110,21
430,1	106,81
430,6	105,01
431	107,324
431,5	109,152
431,9	111,267
432,4	113,21
432,8	122,638
433,3	124,238
433,8	135,838
434,2	143,324
434,7	146,41
435,1	146,095
435,6	156,781
436	157,81
436,5	170,124
436,9	169,095
437,4	175,152
437,8	179,895
438,3	189,21
438,8	189,438
439,2	199,238
439,7	204,41
440,1	214,952
440,6	227,638
441	239,667
441,5	249,381
441,9	262,324
442,4	274,295
442,8	285,352
443,3	293,01
443,7	300,438
444,2	310,038
444,7	321,01
445,1	333,438
445,6	346,638
446	358,695
446,5	375,781
446,9	391,524
447,4	404,438
447,8	419,552
448,3	435,038
448,7	449,581
449,2	468,781
449,6	483,552
450,1	506,952
450,6	527,495
451	544,667
451,5	564,695
451,9	583,324
452,4	606,924
452,8	630,552
453,3	641,867
453,7	669,352
454,2	700,295
454,6	721,752
455,1	744,381
455,5	766,781
456	793,61
456,4	826,981
456,9	850,152
457,3	873,81
457,8	900,924
458,3	934,238
458,7	964,038
459,2	994,667
459,6	1026,381
460,1	1058,552
460,5	1089,924
461	1116,381
461,4	1149,667
461,9	1183,438
462,3	1217,724
462,8	1249,152
463,2	1279,238
463,7	1309,552
464,1	1351,41
464,6	1386,552
465	1418,752
465,5	1456,238
466	1488,524
466,4	1528,067
466,9	1571,267
467,3	1607,752
467,8	1646,524
468,2	1685,267
468,7	1718,038
469,1	1758,981
469,6	1800,124
470	1839,781
470,5	1885,867
470,9	1925,924
471,4	1967,01
471,8	2008,524
472,3	2044,61
472,7	2083,381
473,2	2114,095
473,6	2148,467
474,1	2174,838
474,5	2214,095
475	2255,638
475,4	2296,924
475,9	2342,381
476,4	2380,467
476,8	2416,467
477,3	2466,952
477,7	2503,01
478,2	2534,724
478,6	2568,095
479,1	2595,61
479,5	2638,524
480	2674,152
480,4	2702,695
480,9	2741,495
481,3	2777,781
481,8	2813,61
482,2	2848,495
482,7	2884,238
483,1	2919,581
483,6	2948,81
484	2974,467
484,5	3005,838
484,9	3035,752
485,4	3067,952
485,8	3084,724
486,3	3109,267
486,7	3140,238
487,2	3168,324
487,6	3194,152
488,1	3224,581
488,5	3238,81
489	3265,324
489,4	3286,095
489,9	3308,324
490,4	3331,952
490,8	3348,838
491,3	3367,152
491,7	3386,095
492,2	3411,152
492,6	3433,695
493,1	3450,438
493,5	3458,581
494	3479,495
494,4	3488,867
494,9	3511,81
495,3	3526,552
495,8	3538,095
496,2	3557,095
496,7	3573,067
497,1	3581,438
497,6	3599,638
498	3611,21
498,5	3627,41
498,9	3636,838
499,4	3647,552
499,8	3658,324
500,3	3673,267
500,7	3676,752
501,2	3691,838
501,6	3698,381
502,1	3712,695
502,5	3720,952
503	3736,781
503,4	3743,095
503,9	3766,724
504,3	3767,238
504,8	3778,352
505,2	3787,181
505,7	3798,981
506,1	3808,267
506,6	3814,81
507	3813,381
507,5	3828,067
507,9	3830,381
508,4	3841,124
508,8	3845,038
509,3	3850,01
509,7	3854,181
510,2	3862,952
510,6	3865,61
511,1	3869,438
511,5	3877,467
512	3884,181
512,4	3886,467
512,9	3893,038
513,3	3901,095
513,8	3901,21
514,2	3911,267
514,7	3914,067
515,1	3919,695
515,6	3934,41
516	3941,267
516,5	3949,01
516,9	3953,324
517,4	3958,41
517,8	3958,352
518,3	3962,924
518,7	3956,124
519,2	3962,324
519,6	3959,067
520,1	3970,152
520,5	3969,667
521	3979,524
521,4	3980,295
521,9	3993,524
522,3	3999,981
522,8	4008,124
523,2	4018,41
523,7	4023,581
524,1	4018,781
524,6	4028,638
525	4028,01
525,5	4029,467
525,9	4031,124
526,4	4031,381
526,8	4039,352
527,3	4051,781
527,7	4054,552
528,2	4064,695
528,6	4075,01
529,1	4084,152
529,5	4093,238
530	4106,238
530,4	4113,295
530,9	4119,61
531,3	4120,524
531,8	4127,21
532,2	4131,067
532,6	4137,038
533,1	4135,752
533,5	4141,267
534	4151,638
534,4	4164,324
534,9	4174,495
535,3	4195,41
535,8	4206,524
536,2	4222,238
536,7	4232,552
537,1	4239,495
537,6	4246,238
538	4257,895
538,5	4254,724
538,9	4260,267
539,4	4269,067
539,8	4277,01
540,3	4283,181
540,7	4293,495
541,2	4291,381
541,6	4309,01
542,1	4318,01
542,5	4323,352
543	4335,324
543,4	4348,638
543,9	4355,667
544,3	4373,438
544,8	4375,181
545,2	4373,952
545,7	4388,724
546,1	4394,152
546,5	4396,61
547	4398,667
547,4	4411,381
547,9	4419,238
548,3	4428,752
548,8	4427,981
549,2	4434,038
549,7	4450,181
550,1	4465,01
550,6	4465,124
551	4476,01
551,5	4494,667
551,9	4509,552
552,4	4517,895
552,8	4524,495
553,3	4531,124
553,7	4536,981
554,2	4543,638
554,6	4545,724
555,1	4548,952
555,5	4557,981
555,9	4566,095
556,4	4577,81
556,8	4587,495
557,3	4595,724
557,7	4609,01
558,2	4613,724
558,6	4627,467
559,1	4629,524
559,5	4624,467
560	4630,495
560,4	4635,581
560,9	4637,667
561,3	4643,067
561,8	4642,324
562,2	4645,41
562,7	4660,095
563,1	4668,095
563,6	4671,552
564	4679,61
564,4	4688,381
564,9	4689,495
565,3	4696,438
565,8	4699,638
566,2	4697,981
566,7	4701,838
567,1	4704,495
567,6	4700,152
568	4706,867
568,5	4711,352
568,9	4706,724
569,4	4711,181
569,8	4707,495
570,3	4705,867
570,7	4705,467
571,1	4705,038
571,6	4703,01
572	4708,267
572,5	4703,638
572,9	4714,667
573,4	4715,124
573,8	4719,381
574,3	4716,838
574,7	4716,038
575,2	4713,095
575,6	4716,238
576,1	4711,524
576,5	4707,038
576,9	4703,238
577,4	4701,61
577,8	4698,324
578,3	4696,067
578,7	4694,552
579,2	4684,467
579,6	4684,695
580,1	4682,752
580,5	4678,781
581	4674,867
581,4	4676,152
581,9	4668,524
582,3	4669,581
582,7	4658,695
583,2	4643,381
583,6	4635,095
584,1	4635,181
584,5	4625,381
585	4617,152
585,4	4604,381
585,9	4601,238
586,3	4603,038
586,8	4591,695
587,2	4572,495
587,6	4563,41
588,1	4560,981
588,5	4555,352
589	4539,752
589,4	4526,695
589,9	4523,181
590,3	4519,495
590,8	4515,295
591,2	4504,552
591,7	4495,895
592,1	4495,867
592,5	4500,581
593	4496,638
593,4	4490,381
593,9	4480,438
594,3	4462,924
594,8	4457,724
595,2	4454,152
595,7	4440,638
596,1	4429,838
596,6	4424,381
597	4417,781
597,4	4416,324
597,9	4408,781
598,3	4400,838
598,8	4393,838
599,2	4392,61
599,7	4385,01
600,1	4375,01
600,6	4369,867
601	4360,724
601,4	4354,01
601,9	4339,124
602,3	4328,867
602,8	4322,524
603,2	4313,61
603,7	4304,067
604,1	4299,381
604,6	4276,152
605	4265,952
605,4	4252,352
605,9	4235,524
606,3	4223,467
606,8	4210,495
607,2	4193,295
607,7	4189,695
608,1	4180,581
608,6	4160,638
609	4149,752
609,4	4136,61
609,9	4122,867
610,3	4111,152
610,8	4100,781
611,2	4084,724
611,7	4073,038
612,1	4057,152
612,6	4045,552
613	4040,267
613,4	4022,067
613,9	4002,238
614,3	3992,181
614,8	3974,495
615,2	3959,81
615,7	3946,752
616,1	3925,581
616,6	3911,095
617	3892,581
617,4	3878,381
617,9	3871,324
618,3	3859,695
618,8	3844,438
619,2	3829,152
619,7	3822,781
620,1	3807,238
620,5	3786,095
621	3766,695
621,4	3746,81
621,9	3728,667
622,3	3710,438
622,8	3677,21
623,2	3658,724
623,6	3640,981
624,1	3627,352
624,5	3617,695
625	3599,438
625,4	3581,695
625,9	3576,724
626,3	3564,638
626,8	3550,038
627,2	3528,324
627,6	3501,695
628,1	3486,295
628,5	3474,81
629	3458,895
629,4	3442,152
629,9	3425,038
630,3	3407,552
630,7	3399,524
631,2	3376,524
631,6	3359,638
632,1	3342,638
632,5	3327,724
633	3308,095
633,4	3297,438
633,8	3274,038
634,3	3260,667
634,7	3243,495
635,2	3223,752
635,6	3209,81
636,1	3204,267
636,5	3181,495
636,9	3165,695
637,4	3149,324
637,8	3128,181
638,3	3106,895
638,7	3083,981
639,2	3057,467
639,6	3043,381
640	3029,21
640,5	3014,181
640,9	3004,181
641,4	2987,781
641,8	2975,067
642,2	2963,41
642,7	2945,81
643,1	2932,295
643,6	2919,067
644	2905,267
644,5	2897,324
644,9	2877,238
645,3	2864,838
645,8	2856,467
646,2	2845,41
646,7	2827,724
647,1	2808,295
647,6	2792,295
648	2785,01
648,4	2769,667
648,9	2753,41
649,3	2732,781
649,8	2719,867
650,2	2704,21
650,6	2691,038
651,1	2683,038
651,5	2667,467
652	2655,41
652,4	2637,581
652,9	2623,352
653,3	2607,924
653,7	2591,552
654,2	2573,867
654,6	2557,952
655,1	2538,781
655,5	2530,01
655,9	2516,038
656,4	2507,867
656,8	2491,295
657,3	2464,295
657,7	2444,352
658,2	2432,181
658,6	2409,467
659	2393,752
659,5	2376,295
659,9	2365,267
660,4	2357,952
660,8	2353,41
661,2	2339,867
661,7	2330,81
662,1	2316,352
662,6	2300,038
663	2283,924
663,4	2268,895
663,9	2254,152
664,3	2240,667
664,8	2229,552
665,2	2218,41
665,6	2208,381
666,1	2189,038
666,5	2175,524
667	2155,524
667,4	2142,238
667,9	2125,524
668,3	2109,61
668,7	2091,638
669,2	2088,781
669,6	2075,752
670,1	2067,667
670,5	2050,324
670,9	2042,524
671,4	2030,124
671,8	2015,752
672,3	1998,581
672,7	1980,838
673,1	1964,552
673,6	1955,124
674	1943,524
674,5	1928,524
674,9	1918,238
675,3	1905,981
675,8	1895,752
676,2	1890,438
676,7	1877,952
677,1	1861,238
677,5	1853,552
678	1843,295
678,4	1832,067
678,9	1821,81
679,3	1801,152
679,7	1786,467
680,2	1777,752
680,6	1765,667
681,1	1747,752
681,5	1738,81
681,9	1728,81
682,4	1722,724
682,8	1712,21
683,3	1694,01
683,7	1680,21
684,1	1672,695
684,6	1657,324
685	1643,067
685,5	1629,524
685,9	1623,752
686,3	1616,267
686,8	1602,724
687,2	1591,524
687,7	1584,895
688,1	1577,01
688,5	1568,724
689	1555,524
689,4	1547,581
689,9	1536,81
690,3	1534,324
690,7	1520,267
691,2	1509,895
691,6	1495,924
692	1481,724
692,5	1467,438
692,9	1460,21
693,4	1446,21
693,8	1439,295
694,2	1430,552
694,7	1424,41
695,1	1419,581
695,6	1406,781
696	1396,524
696,4	1381,238
696,9	1370,667
697,3	1359,81
697,8	1345,295
698,2	1335,267
698,6	1332,81
699,1	1322,838
699,5	1322,01
699,9	1316,01
700,4	1307,781
700,8	1306,61
701,3	1298,238
701,7	1283,867
702,1	1273,41
702,6	1258,924
703	1240,581
703,5	1233,638
703,9	1221,81
704,3	1214,981
704,8	1212,924
705,2	1204,067
705,6	1194,838
706,1	1196,21
706,5	1186,267
707	1178,981
707,4	1169,41
707,8	1160,752
708,3	1156,724
708,7	1153,552
709,2	1142,552
709,6	1138,124
710	1131,267
710,5	1124,295
710,9	1114,038
711,3	1106,181
711,8	1094,952
712,2	1089,438
712,7	1078,952
713,1	1069,352
713,5	1057,667
714	1047,552
714,4	1040,238
714,8	1039,152
715,3	1032,838
715,7	1021,467
716,2	1012,552
716,6	1007,01
717	1003,352
717,5	996,61
717,9	982,981
718,3	973,295
718,8	969,752
719,2	963,667
719,7	961,552
720,1	953,152
720,5	943,895
721	935,724
721,4	932,324
721,8	926,067
722,3	917,381
722,7	906,295
723,2	898,352
723,6	896,61
724	890,438
724,5	877,324
724,9	865,124
725,3	857,181
725,8	850,695
726,2	843,581
726,7	835,781
727,1	825,295
727,5	822,81
728	820,838
728,4	820,095
728,8	814,152
729,3	804,724
729,7	799,752
730,1	801,467
730,6	790,467
731	789,895
731,5	783,124
731,9	780,352
732,3	783,638
732,8	778,238
733,2	774,895
733,6	772,41
734,1	764,238
734,5	755,067
734,9	749,01
735,4	744,838
735,8	743,838
736,3	736,41
736,7	735,61
737,1	729,895
737,6	729,095
738	723,152
738,4	715,524
738,9	709,295
739,3	701,724
739,7	700,695
740,2	699,838
740,6	695,324
741,1	691,838
741,5	691,01
741,9	682,495
742,4	679,152
742,8	671,895
743,2	666,952
743,7	664,01
744,1	654,038
744,5	649,01
745	644,61
745,4	643,467
745,8	637,895
746,3	632,152
746,7	628,495
747,2	631,152
747,6	622,667
748	617,867
748,5	607,038
748,9	600,038
749,3	600,81
749,8	596,267
750,2	590,124
750,6	587,238
751,1	586,924
751,5	587,695
751,9	583,41
752,4	579,895
752,8	571,467
753,3	568,638
753,7	565,038
754,1	557,895
754,6	554,895
755	550,01
755,4	543,524
755,9	541,352
756,3	536,152
756,7	532,095
757,2	529,41
757,6	527,924
758	528,638
758,5	521,667
758,9	519,667
759,3	513,524
759,8	515,038
760,2	514,724
760,6	509,952
761,1	507,324
761,5	504,067
761,9	501,01
762,4	499,581
762,8	493,724
763,3	483,124
763,7	475,552
764,1	466,495
764,6	463,438
765	459,352
765,4	457,124
765,9	447,352
766,3	445,781
766,7	442,467
767,2	444,152
767,6	440,01
768	435,781
768,5	436,981
768,9	438,895
769,3	436,752
769,8	439,495
770,2	439,981
770,6	435,152
771,1	440,095
771,5	435,067
771,9	429,61
772,4	431,638
772,8	424,981
773,2	419,067
773,7	419,724
774,1	411,067
774,5	406,838
775	406,495
775,4	404,152
775,8	400,152
776,3	394,524
776,7	391,524
777,1	388,438
777,6	384,267
778	379,667
778,4	373,752
778,9	371,352
779,3	369,867
779,7	367,267
780,2	366,81
780,6	365,324
781	364,038
781,5	361,667
781,9	359,781
782,3	360,438
782,8	358,181
783,2	355,524
783,6	347,267
784,1	348,352
784,5	344,238
784,9	340,181
785,4	335,581
785,8	329,267
786,2	322,695
786,7	322,524
787,1	318,124
787,5	319,095
788	317,181
788,4	310,552
788,8	309,695
789,3	309,181
789,7	309,01
790,1	306,81
790,6	299,552
791	300,352
791,4	303,381
791,9	305,21
792,3	305,752
792,7	305,352
793,2	303,867
793,6	301,724
794	300,695
794,5	298,381
794,9	293,924
795,3	290,467
795,8	288,581
796,2	285,952
796,6	281,867
797,1	277,124
797,5	271,781
797,9	268,181
798,4	264,752
798,8	262,467
799,2	259,381
799,7	266,01
800,1	267,352
800,5	269,152
801	269,352
801,4	263,067
801,8	259,667
802,2	255,781
802,7	250,524
803,1	245,21
803,5	241,324
804	241,124
804,4	244,238
804,8	244,924
805,3	245,038
805,7	242,152
806,1	244,267
806,6	242,838
807	240,581
807,4	235,952
807,9	234,81
808,3	231,81
808,7	230,495
809,2	225,381
809,6	224,152
810	222,21
810,4	224,381
810,9	218,124
811,3	214,981
811,7	212,01
812,2	214,495
812,6	212,781
813	210,752
813,5	207,152
813,9	205,095
814,3	204,781
814,8	203,438
815,2	191,781
815,6	183,667
816,1	181,667
816,5	181,838
816,9	183,495
817,3	182,152
817,8	183,667
818,2	186,238
818,6	194,524
819,1	190,552
819,5	188,352
819,9	182,752
820,4	182,924
820,8	173,924
821,2	172,667
821,7	167,981
822,1	168,067
822,5	169,01
822,9	174,01
823,4	170,724
823,8	174,867
824,2	175,752
824,7	174,61
825,1	171,467
825,5	171,695
826	167,724
826,4	168,981
826,8	169,924
827,3	170,981
827,7	166,581
828,1	170,381
828,5	164,181
829	161,21
829,4	161,695
829,8	154,152
830,3	153,752
830,7	150,752
831,1	150,895
831,6	153,952
832	148,952
832,4	149,438
832,8	155,21
833,3	151,552
833,7	154,838
834,1	145,724
834,6	137,352
835	143,524
835,4	142,867
835,8	135,667
836,3	129,924
836,7	126,181
837,1	129,752
837,6	129,695
838	125,124
838,4	117,038
838,9	121,152
839,3	128,181
839,7	129,952
840,1	125,467
840,6	124,41
841	124,267
841,4	125,41
841,9	125,438
842,3	121,724
842,7	122,638
843,1	125,067
843,6	126,952
844	125,867
844,4	126,524
844,9	123,838
845,3	121,781
845,7	118,952
846,2	118,924
846,6	117,267
847	117,038
847,4	111,781
847,9	110,724
848,3	111,524
848,7	108,638
849,2	108,124
849,6	106,638
850	102,752
850,4	108,21
850,9	106,61
851,3	100,067
851,7	102,038
852,2	97,552
852,6	99,524
853	106,381
853,4	105,01
853,9	102,352
854,3	106,781
854,7	103,438
855,2	101,667
855,6	97,21
856	91,524
856,4	90,981
856,9	89,524
857,3	85,895
857,7	88,924
858,2	90,01
858,6	92,924
859	88,552
859,4	85,152
859,9	89,21
860,3	89,067
860,7	87,981
861,1	92,695
861,6	92,01
862	97,152
862,4	99,752
862,9	94,667
863,3	93,381
863,7	91,495
864,1	87,924
864,6	87,152
865	83,924
865,4	78,838
865,9	79,867
866,3	82,324
866,7	82,438
867,1	84,524
867,6	80,495
868	81,01
868,4	78,038
868,8	78,124
869,3	77,638
869,7	73,152
870,1	70,495
870,6	68,667
871	77,638
871,4	76,41
871,8	74,695
872,3	72,267
872,7	73,267
873,1	74,924
873,5	81,438
874	72,867
874,4	75,752
874,8	72,924
875,3	72,81
875,7	67,581
876,1	59,267
876,5	56,352
877	55,724
877,4	56,724
877,8	62,981
878,2	59,895
878,7	69,095
879,1	73,124
879,5	73,552
879,9	74,41
880,4	71,81
880,8	68,152
881,2	69,752
881,7	64,867
882,1	65,181
882,5	59,352
882,9	54,952
883,4	58,124
883,8	57,381
884,2	58,81
884,6	60,095
885,1	64,152
885,5	71,867
885,9	75,695
886,3	72,352
886,8	70,438
887,2	67,781
887,6	63,524
888	58,01
888,5	56,381
888,9	54,067
889,3	48,552
889,8	48,495
890,2	48,867
890,6	49,524
891	46,552
891,5	44,667
891,9	43,952
892,3	49,295
892,7	52,981
893,2	50,838
893,6	52,01
894	53,41
894,4	52,581
894,9	49,781
895,3	49,61
895,7	46,838
896,1	48,695
896,6	47,638
897	48,61
897,4	39,952
897,8	43,638
898,3	44,81
898,7	41,781
899,1	42,724
899,5	40,552
900	37,581
900,4	46,01
900,8	44,21
901,2	40,638
901,7	41,724
902,1	40,924
902,5	43,924
902,9	43,495
903,4	42,61
903,8	37,095
904,2	39,295
904,6	38,152
905,1	38,124
905,5	33,81
905,9	34,438
906,3	30,038
906,8	35,552
907,2	32,895
907,6	38,038
908	31,095
908,5	36,495
908,9	37,495
909,3	40,838
909,7	38,381
910,2	38,038
910,6	33,238
911	38,81
911,4	37,267
911,9	35,695
912,3	33,181
912,7	38,438
913,1	35,581
913,6	39,895
914	37,867
914,4	33,781
914,8	34,752
915,3	34,61
915,7	25,724
916,1	27,524
916,5	23,667
916,9	24,038
917,4	27,095
917,8	22,638
918,2	22,724
918,6	25,981
919,1	25,524
919,5	25,81
919,9	26,667
920,3	25,01
920,8	28,524
921,2	31,781
921,6	30,438
922	29,838
922,5	32,038
922,9	29,381
923,3	31,638
923,7	29,467
924,2	23,352
924,6	23,724
925	21,895
925,4	17,124
925,8	21,067
926,3	21,952
926,7	22,724
927,1	25,638
927,5	27,724
928	28,867
928,4	25,981
928,8	27,438
929,2	25,724
929,7	20,838
930,1	23,295
930,5	19,952
930,9	25,152
931,3	29,895
931,8	23,952
932,2	23,41
932,6	31,295
933	23,838
933,5	22,81
933,9	21,324
934,3	20,21
934,7	26,238
935,2	28,867
935,6	25,495
936	28,324
936,4	30,41
936,8	26,524
937,3	25,752
937,7	21,267
938,1	11,038
938,5	10,867
939	14,524
939,4	14,181
939,8	14,152
940,2	10,981
940,6	12,41
941,1	20,381
941,5	22,324
941,9	22,352
942,3	18,152
942,8	20,924
943,2	23,324
943,6	23,552
944	20,867
944,4	13,267
944,9	11,581
945,3	19,552
945,7	17,352
946,1	18,295
946,6	14,152
947	15,924
947,4	18,41
947,8	20,238
948,2	18,295
948,7	17,152
949,1	15,41
949,5	19,524
949,9	18,495
950,3	22,01
950,8	21,381
951,2	19,267
951,6	23,01
952	22,067
952,5	19,752
952,9	17,467
953,3	17,495
953,7	17,981
954,1	18,695
954,6	17,352
955	21,095
955,4	21,067
955,8	27,238
956,2	24,41
956,7	22,495
957,1	18,667
957,5	18,238
957,9	15,81
958,3	20,238
958,8	17,952
959,2	18,038
959,6	20,352
960	24,124
960,5	26,438
960,9	22,524
961,3	14,81
961,7	8,81
962,1	12,124
962,6	8,352
963	6,467
963,4	9,01
963,8	16,267
964,2	19,381
964,7	20,752
965,1	23,267
965,5	20,838
965,9	21,61
966,3	15,895
966,8	10,467
967,2	10,095
967,6	12,095
968	7,581
968,4	11,724
968,9	18,067
969,3	15,752
969,7	14,324
970,1	17,038
970,5	19,324
971	18,895
971,4	21,838
971,8	18,495
972,2	21,867
972,6	26,895
973,1	27,924
973,5	26,124
973,9	24,381
974,3	20,581
974,7	12,41
975,2	10,895
975,6	5,867
976	6,352
976,4	7,095
976,8	10,181
977,3	8,838
977,7	12,095
978,1	12,095
978,5	14,01
978,9	9,81
979,4	8,981
979,8	8,867
980,2	4,524
980,6	8,067
981	12,695
981,5	14,952
981,9	13,667
982,3	9,781
982,7	7,952
983,1	11,924
983,6	15,295
984	14,067
984,4	16,752
984,8	16,267
985,2	22,095
985,6	22,61
986,1	25,152
986,5	16,524
986,9	17,724
987,3	14,067
987,7	17,81
988,2	17,41
988,6	18,038
989	20,267
989,4	29,21
989,8	25,324
990,3	26,038
990,7	26,152
991,1	23,524
991,5	22,381
991,9	21,381
992,3	14,61
992,8	18,124
993,2	22,124
993,6	23,238
994	22,067
994,4	23,181
994,9	23,867
995,3	23,01
995,7	21,467
996,1	19,438
996,5	13,781
996,9	14,01
997,4	10,724
997,8	8,01
998,2	9,067
998,6	8,638
999	4,524
999,5	4,41
999,9	8,267
1000,3	14,752
1000,7	14,238
1001,1	13,752
1001,5	8,495
1002	9,324
1002,4	12,152
1002,8	13,724
1003,2	9,381
1003,6	11,124
1004	12,524
1004,5	17,724
1004,9	17,352
1005,3	14,095
1005,7	9,381
1006,1	8,495
1006,6	8,238
1007	9,01
1007,4	7,952
1007,8	7,067
1008,2	9,095
1008,6	5,724
1009,1	4,038
1009,5	8,324
1009,9	12,124
1010,3	14,467
1010,7	19,324
1011,1	27,552
1011,6	33,438
1012	38,781
1012,4	35,581
1012,8	28,295
1013,2	27,61
1013,6	27,295
1014,1	20,981
1014,5	20,038
1014,9	19,467
1015,3	15,867
1015,7	18,324
1016,1	15,124
1016,6	16,61
1017	13,038
1017,4	9,695
1017,8	6,781
1018,2	4,61
1018,6	4,181
1019,1	3,981
1019,5	1,638
1019,9	8,324
1020,3	7,181
1020,7	6,638
1021,1	10,067
1021,6	7,038
1022	4,838
1022,4	5,295
1022,8	1,095
1023,2	6,352
1023,6	3,667
1024,1	10,695
1024,5	14,552
1024,9	19,095
1025,3	18,867
1025,7	22,067
1026,1	22,638
1026,6	28,067
1027	23,267
1027,4	23,524
1027,8	21,238
1028,2	25,695
1028,6	25,124
1029	19,238
1029,5	20,124
1029,9	16,695
1030,3	20,981
1030,7	21,41
1031,1	12,867
1031,5	7,552
1032	14,524
1032,4	8,667
1032,8	9,81
1033,2	5,638
1033,6	8,867
1034	11,867
1034,4	17,21
1034,9	11,867
1035,3	22,61
1035,7	21,695
1036,1	24,667
1036,5	20,724
1036,9	20,61
1037,4	20,295
1037,8	21,667
1038,2	9,724
1038,6	7,981
1039	3,981
1039,4	5,238
1039,8	2,895
1040,3	0,01
1040,7	-4,819
1041,1	0,295
1041,5	3,781
1041,9	0,181
1042,3	2,21
1042,7	2,038
1043,2	7,152
1043,6	15,838
1044	15,695
1044,4	10,295
1044,8	10,152
1045,2	13,324
1045,6	20,324
1046,1	17,152
1046,5	22,552
1046,9	20,724
1047,3	24,581
1047,7	24,181
1048,1	16,552
1048,5	13,21
1049	14,752
1049,4	4,952
1049,8	7,695
1050,2	12,467
1050,6	18,524
1051	25,267
1051,4	24,124
1051,9	24,438
1052,3	19,41
1052,7	15,552
1053,1	13,467
1053,5	16,01
1053,9	10,752
1054,3	7,295
1054,8	8,724
1055,2	14,152
1055,6	13,895
1056	13,981
1056,4	10,352
1056,8	16,295
1057,2	22,581
1057,6	16,01
1058,1	18,924
1058,5	21,124
1058,9	24,524
1059,3	28,981
1059,7	20,152
1060,1	14,324
1060,5	13,124
1061	7,124
1061,4	13,267
1061,8	4,667
1062,2	0,124
1062,6	1,467
1063	3,438
1063,4	10,495
1063,8	16,038
1064,3	10,695
1064,7	11,038
1065,1	12,81
1065,5	17,41
1065,9	18,438
1066,3	6,981
1066,7	2,752
1067,1	-1,133
1067,6	5,638
1068	4,695
1068,4	7,038
1068,8	7,41
1069,2	15,724
1069,6	21,295
1070	27,295
1070,4	24,267
1070,9	21,867
1071,3	16,552
1071,7	16,61
1072,1	19,124
1072,5	18,552
1072,9	23,667
1073,3	23,181
1073,7	24,238
1074,2	27,81
1074,6	28,324
1075	28,41
1075,4	28,752
1075,8	22,524
1076,2	24,238
1076,6	22,61
1077	19,581
1077,5	22,067
1077,9	22,838
1078,3	17,095
1078,7	17,181
1079,1	14,695
1079,5	11,581
1079,9	19,724
1080,3	11,924
1080,7	10,095
1081,2	13,752
1081,6	14,438
1082	16,667
1082,4	19,41
1082,8	11,667
1083,2	12,581
1083,6	12,467
1084	11,81
1084,5	11,01
1084,9	8,895
1085,3	10,781
1085,7	10,667
1086,1	11,495
1086,5	13,724
1086,9	16,952
1087,3	14,352
1087,7	16,352
1088,2	13,467
1088,6	12,21
1089	11,638
1089,4	11,41
1089,8	14,21
1090,2	17,152
1090,6	12,21
1091	16,895
1091,4	20,095
1091,9	24,724
1092,3	19,838
1092,7	9,124
1093,1	6,067
1093,5	8,01
1093,9	9,095
1094,3	10,467
1094,7	7,81
1095,1	6,467
1095,5	8,895
1096	10,124
1096,4	12,295
1096,8	7,952
1097,2	4,638
1097,6	3,781
1098	5,895
1098,4	4,838
1098,8	5,467
1099,2	4,41
1099,6	8,61
1100,1	11,352
1100,5	13,752
1100,9	13,952
1101,3	13,895
1101,7	17,695
1102,1	17,838
1102,5	13,924
1102,9	9,067
1103,3	6,438
1103,7	6,552
1104,2	10,81
1104,6	12,724
1105	14,21
1105,4	13,495
1105,8	14,81
1106,2	15,01
1106,6	12,495
1107	9,61
1107,4	2,967
1107,8	-0,813
1108,3	0,717
