Data from Subt2_327.txt Node
Date: Sat Aug 26 19:19:28 MSK 2023
User: vat
Spectrometer: MAYP114033
Trigger mode: 0
Integration Time (sec): 1,000000E0
Scans to average: 5
Electric dark correction enabled: true
Nonlinearity correction enabled: false
Boxcar width: 3
XAxis mode: Wavelengths
Number of Pixels in Spectrum: 2068
>>>>>Begin Spectral Data<<<<<
199,4	0,033
199,9	3,873
200,4	4,533
200,8	2,119
201,3	2,433
201,8	6,405
202,2	5,519
202,7	11,119
203,2	6,719
203,6	6,176
204,1	5,776
204,6	6,69
205	6,89
205,5	6,719
206	3,576
206,4	10,29
206,9	10,462
207,4	15,49
207,8	13,433
208,3	9,748
208,8	14,148
209,2	16,176
209,7	14,319
210,2	16,405
210,6	17,776
211,1	20,262
211,5	16,862
212	12,919
212,5	11,005
212,9	6,49
213,4	3,862
213,9	-0,967
214,3	0,033
214,8	4,29
215,3	5,719
215,7	7,262
216,2	14,89
216,7	17,005
217,1	16,09
217,6	16,548
218,1	15,09
218,5	9,862
219	6,976
219,5	1,719
219,9	-3,824
220,4	8,062
220,9	5,205
221,3	6,29
221,8	15,748
222,3	17,805
222,7	19,348
223,2	25,205
223,6	16,89
224,1	14,405
224,6	19,976
225	15,49
225,5	13,748
226	12,205
226,4	12,148
226,9	12,719
227,4	16,205
227,8	7,605
228,3	9,776
228,8	10,49
229,2	13,29
229,7	12,29
230,2	13,033
230,6	19,176
231,1	24,633
231,5	24,662
232	23,833
232,5	19,605
232,9	21,033
233,4	21,948
233,9	14,605
234,3	12,833
234,8	11,662
235,3	10,005
235,7	13,49
236,2	9,49
236,7	6,148
237,1	10,205
237,6	6,29
238,1	3,519
238,5	-1,881
239	-4,967
239,4	3,462
239,9	3,662
240,4	1,176
240,8	2,605
241,3	2,519
241,8	7,405
242,2	7,033
242,7	-1,652
243,2	0,09
243,6	-1,481
244,1	4,119
244,6	8,376
245	12,49
245,5	12,519
245,9	9,948
246,4	8,405
246,9	11,776
247,3	9,776
247,8	8,576
248,3	9,748
248,7	11,748
249,2	19,433
249,7	18,719
250,1	21,205
250,6	19,89
251	19,319
251,5	18,833
252	17,719
252,4	17,519
252,9	14,376
253,4	9,576
253,8	9,033
254,3	9,519
254,8	8,919
255,2	9,462
255,7	6,919
256,1	10,662
256,6	12,348
257,1	18,862
257,5	20,776
258	14,976
258,5	16,833
258,9	15,976
259,4	12,805
259,9	14,348
260,3	6,862
260,8	-1,624
261,2	3,519
261,7	5,519
262,2	3,462
262,6	8,062
263,1	8,29
263,6	12,119
264	19,662
264,5	23,462
264,9	19,519
265,4	23,633
265,9	22,519
266,3	23,776
266,8	23,205
267,3	22,005
267,7	15,005
268,2	17,462
268,7	17,176
269,1	15,919
269,6	10,89
270	12,262
270,5	7,748
271	12,005
271,4	7,176
271,9	4,29
272,4	8,662
272,8	7,033
273,3	4,062
273,7	11,462
274,2	9,919
274,7	12,605
275,1	15,976
275,6	15,262
276,1	18,29
276,5	19,233
277	13,233
277,4	12,719
277,9	18,405
278,4	19,662
278,8	20,062
279,3	19,348
279,8	18,662
280,2	25,005
280,7	28,49
281,1	19,433
281,6	19,462
282,1	17,062
282,5	17,233
283	18,719
283,4	11,919
283,9	13,233
284,4	23,976
284,8	23,005
285,3	21,005
285,8	21,919
286,2	18,09
286,7	21,462
287,1	14,262
287,6	6,919
288,1	2,919
288,5	5,89
289	7,148
289,5	11,948
289,9	10,148
290,4	16,348
290,8	18,49
291,3	22,519
291,8	25,033
292,2	22,748
292,7	22,919
293,1	23,205
293,6	20,29
294,1	17,89
294,5	14,29
295	11,319
295,5	12,29
295,9	12,919
296,4	12,433
296,8	10,233
297,3	13,605
297,8	10,662
298,2	4,548
298,7	4,033
299,1	-0,052
299,6	-1,195
300,1	1,205
300,5	-1,481
301	6,576
301,5	14,919
301,9	15,119
302,4	13,005
302,8	15,462
303,3	12,405
303,8	9,062
304,2	3,319
304,7	0,148
305,1	-2,824
305,6	1,605
306,1	5,862
306,5	8,205
307	12,833
307,4	19,519
307,9	22,176
308,4	24,462
308,8	16,719
309,3	8,348
309,8	9,662
310,2	9,462
310,7	1,662
311,1	-4,31
311,6	-5,052
312,1	3,29
312,5	10,805
313	11,405
313,4	10,605
313,9	13,29
314,4	15,176
314,8	14,519
315,3	10,833
315,7	5,919
316,2	2,748
316,7	2,09
317,1	9,205
317,6	10,262
318	14,033
318,5	13,462
319	15,976
319,4	19,976
319,9	25,605
320,3	20,462
320,8	20,462
321,3	19,319
321,7	23,462
322,2	22,119
322,6	19,719
323,1	12,033
323,6	13,376
324	11,319
324,5	6,89
324,9	2,776
325,4	2,548
325,9	5,576
326,3	7,633
326,8	10,348
327,2	7,148
327,7	12,433
328,2	11,719
328,6	12,233
329,1	6,605
329,5	6,405
330	3,005
330,5	12,89
330,9	11,433
331,4	13,719
331,8	14,176
332,3	16,433
332,8	18,319
333,2	16,919
333,7	14,548
334,1	13,148
334,6	12,719
335,1	9,033
335,5	7,719
336	4,748
336,4	5,89
336,9	9,205
337,4	12,833
337,8	13,062
338,3	17,119
338,7	20,833
339,2	24,49
339,7	27,776
340,1	23,119
340,6	23,548
341	22,005
341,5	19,805
342	17,005
342,4	14,262
342,9	11,805
343,3	10,662
343,8	7,805
344,2	11,262
344,7	19,319
345,2	18,576
345,6	18,033
346,1	17,348
346,5	13,89
347	14,348
347,5	13,89
347,9	13,176
348,4	16,348
348,8	18,976
349,3	20,719
349,8	24,805
350,2	29,49
350,7	27,89
351,1	25,233
351,6	29,119
352	34,919
352,5	40,005
353	49,833
353,4	48,319
353,9	64,148
354,3	76,376
354,8	86,919
355,3	103,148
355,7	121,49
356,2	140,919
356,6	168,976
357,1	190,262
357,5	218,576
358	253,462
358,5	289,319
358,9	331,462
359,4	381,976
359,8	441,262
360,3	507,919
360,8	576,919
361,2	656,948
361,7	745,205
362,1	848,29
362,6	952,348
363	1062,49
363,5	1185,948
364	1320,89
364,4	1448,49
364,9	1584,348
365,3	1710,348
365,8	1833,719
366,3	1949,805
366,7	2050,919
367,2	2138,976
367,6	2214,862
368,1	2268,662
368,5	2305,033
369	2324,348
369,5	2327,348
369,9	2307,09
370,4	2268,633
370,8	2221,319
371,3	2157,548
371,7	2089,09
372,2	1999,49
372,7	1902,919
373,1	1807,462
373,6	1706,405
374	1604,862
374,5	1499,462
374,9	1388,49
375,4	1294,119
375,9	1203,719
376,3	1109,833
376,8	1022,405
377,2	941,948
377,7	861,862
378,2	788,748
378,6	723,576
379,1	659,462
379,5	606,205
380	559,948
380,4	510,033
380,9	471,633
381,4	437,033
381,8	403,948
382,3	378,89
382,7	355,662
383,2	331,062
383,6	306,376
384,1	289,548
384,6	275,376
385	257,205
385,5	238,776
385,9	219,405
386,4	200,948
386,8	195,005
387,3	178,948
387,7	166,29
388,2	158,948
388,7	148,005
389,1	143,176
389,6	141,576
390	129,405
390,5	129,062
390,9	122,662
391,4	114,49
391,9	110,348
392,3	106,148
392,8	97,433
393,2	92,062
393,7	81,862
394,1	77,09
394,6	73,776
395,1	75,405
395,5	65,862
396	63,49
396,4	62,948
396,9	64,005
397,3	66,005
397,8	66,176
398,2	61,833
398,7	63,062
399,2	61,319
399,6	60,005
400,1	56,233
400,5	48,662
401	49,605
401,4	44,033
401,9	50,062
402,4	53,662
402,8	48,148
403,3	49,062
403,7	47,005
404,2	46,862
404,6	48,376
405,1	44,205
405,5	38,976
406	41,205
406,5	39,548
406,9	44,919
407,4	41,29
407,8	42,462
408,3	40,319
408,7	39,519
409,2	42,29
409,6	46,405
410,1	48,062
410,6	51,89
411	53,062
411,5	56,262
411,9	62,233
412,4	64,29
412,8	64,519
413,3	63,262
413,7	58,29
414,2	60,262
414,7	65,262
415,1	73,49
415,6	75,662
416	77,662
416,5	77,376
416,9	83,005
417,4	85,348
417,8	85,776
418,3	85,919
418,8	90,348
419,2	94,633
419,7	98,29
420,1	98,09
420,6	97,405
421	93,976
421,5	88,633
421,9	86,319
422,4	87,633
422,8	87,69
423,3	91,062
423,8	87,548
424,2	89,433
424,7	87,433
425,1	85,519
425,6	85,062
426	84,462
426,5	82,719
426,9	85,948
427,4	80,119
427,9	78,005
428,3	78,433
428,8	77,148
429,2	70,262
429,7	65,49
430,1	59,433
430,6	59,776
431	57,233
431,5	55,176
431,9	47,719
432,4	54,233
432,8	59,748
433,3	61,69
433,8	60,49
434,2	65,033
434,7	66,49
435,1	69,148
435,6	65,348
436	60,919
436,5	63,319
436,9	60,462
437,4	58,348
437,8	57,919
438,3	58,433
438,8	61,148
439,2	66,748
439,7	68,919
440,1	76,69
440,6	81,033
441	75,748
441,5	77,062
441,9	80,348
442,4	74,805
442,8	74,862
443,3	73,49
443,7	73,176
444,2	85,119
444,7	87,948
445,1	89,148
445,6	91,948
446	95,89
446,5	95,09
446,9	93,433
447,4	93,262
447,8	93,605
448,3	100,033
448,7	108,948
449,2	114,519
449,6	125,462
450,1	129,748
450,6	135,205
451	142,948
451,5	147,49
451,9	150,262
452,4	153,205
452,8	158,376
453,3	166,262
453,7	165,49
454,2	168,405
454,6	169,233
455,1	172,976
455,5	173,69
456	179,376
456,4	184,49
456,9	192,576
457,3	196,605
457,8	199,405
458,3	205,433
458,7	214,862
459,2	216,776
459,6	219,519
460,1	229,233
460,5	233,033
461	244,948
461,4	246,719
461,9	249,89
462,3	257,833
462,8	268,833
463,2	272,89
463,7	284,319
464,1	293,29
464,6	307,319
465	318,062
465,5	325,805
466	332,29
466,4	340,176
466,9	351,662
467,3	359,233
467,8	374,005
468,2	380,948
468,7	389,405
469,1	404,519
469,6	414,376
470	419,062
470,5	427,862
470,9	428,948
471,4	436,348
471,8	446,348
472,3	455,433
472,7	465,833
473,2	475,548
473,6	483,176
474,1	496,633
474,5	509,233
475	521,662
475,4	527,29
475,9	535,662
476,4	544,576
476,8	555,519
477,3	563,662
477,7	575,662
478,2	587,605
478,6	592,319
479,1	599,49
479,5	609,805
480	615,805
480,4	622,119
480,9	627,605
481,3	626,148
481,8	634,633
482,2	640,805
482,7	646,69
483,1	652,233
483,6	661,49
484	665,433
484,5	679,09
484,9	682,262
485,4	691,319
485,8	698,319
486,3	705,148
486,7	704,719
487,2	709,776
487,6	713,09
488,1	722,262
488,5	721,033
489	729,062
489,4	736,348
489,9	740,948
490,4	747,348
490,8	754,033
491,3	761,862
491,7	765,033
492,2	765,176
492,6	765,348
493,1	771,605
493,5	773,433
494	769,633
494,4	773,719
494,9	779,833
495,3	781,433
495,8	783,233
496,2	788,662
496,7	790,319
497,1	795,976
497,6	797,49
498	804,062
498,5	809,09
498,9	809,976
499,4	806,633
499,8	813,576
500,3	815,69
500,7	811,719
501,2	805,205
501,6	799,376
502,1	802,862
502,5	805,033
503	804,348
503,4	803,405
503,9	800,633
504,3	808,776
504,8	812,319
505,2	815,662
505,7	812,833
506,1	816,062
506,6	820,033
507	825,119
507,5	824,633
507,9	823,062
508,4	815,233
508,8	819,433
509,3	809,919
509,7	804,062
510,2	805,805
510,6	801,748
511,1	802,262
511,5	807,633
512	805,633
512,4	811,805
512,9	812,005
513,3	812,69
513,8	811,119
514,2	813,033
514,7	811,89
515,1	814,376
515,6	812,805
516	811,005
516,5	811,005
516,9	813,176
517,4	817,262
517,8	821,405
518,3	822,405
518,7	825,348
519,2	831,748
519,6	836,119
520,1	838,833
520,5	840,205
521	835,633
521,4	839,605
521,9	837,262
522,3	837,462
522,8	831,205
523,2	828,776
523,7	827,69
524,1	832,662
524,6	829,719
525	832,205
525,5	828,548
525,9	834,062
526,4	835,148
526,8	836,719
527,3	837,205
527,7	837,233
528,2	837,805
528,6	838,805
529,1	837,862
529,5	846,005
530	844,319
530,4	845,833
530,9	849,319
531,3	852,805
531,8	859,205
532,2	864,29
532,6	861,948
533,1	867,89
533,5	872,605
534	867,69
534,4	867,405
534,9	869,005
535,3	867,633
535,8	871,148
536,2	869,948
536,7	874,148
537,1	883,862
537,6	885,576
538	889,176
538,5	893,519
538,9	897,205
539,4	902,633
539,8	900,376
540,3	903,062
540,7	909,49
541,2	909,576
541,6	914,49
542,1	917,062
542,5	919,462
543	921,919
543,4	918,633
543,9	921,005
544,3	927,176
544,8	922,433
545,2	923,348
545,7	921,605
546,1	927,548
546,5	935,776
547	938,976
547,4	938,748
547,9	944,748
548,3	948,633
548,8	953,462
549,2	950,69
549,7	954,976
550,1	960,176
550,6	962,633
551	965,805
551,5	964,148
551,9	964,548
552,4	971,662
552,8	970,576
553,3	968,69
553,7	965,748
554,2	967,119
554,6	973,89
555,1	979,29
555,5	975,948
555,9	977,576
556,4	979,233
556,8	985,805
557,3	989,976
557,7	990,919
558,2	989,205
558,6	996,805
559,1	998,433
559,5	997,262
560	999,176
560,4	1000,005
560,9	1000,09
561,3	1001,462
561,8	993,89
562,2	998,176
562,7	1002,748
563,1	1003,148
563,6	999,49
564	1001,405
564,4	1006,348
564,9	1013,948
565,3	1011,833
565,8	1006,862
566,2	1010,776
566,7	1019,062
567,1	1023,833
567,6	1022,205
568	1020,833
568,5	1025,462
568,9	1030,919
569,4	1032,433
569,8	1030,633
570,3	1027,805
570,7	1026,119
571,1	1027,262
571,6	1026,462
572	1032,033
572,5	1034,376
572,9	1030,062
573,4	1030,033
573,8	1033,29
574,3	1033,119
574,7	1032,719
575,2	1032,462
575,6	1030,033
576,1	1035,09
576,5	1038,633
576,9	1037,633
577,4	1036,49
577,8	1032,548
578,3	1028,69
578,7	1024,033
579,2	1025,748
579,6	1018,405
580,1	1013,948
580,5	1016,09
581	1021,09
581,4	1018,633
581,9	1019,662
582,3	1016,29
582,7	1020,833
583,2	1025,233
583,6	1023,833
584,1	1022,662
584,5	1023,09
585	1021,862
585,4	1011,662
585,9	1011,376
586,3	1013,833
586,8	1012,719
587,2	1005,976
587,6	1008,262
588,1	1013,919
588,5	1021,09
589	1019,205
589,4	1014,49
589,9	1011,805
590,3	1014,49
590,8	1008,405
591,2	1001,69
591,7	1006,262
592,1	1003,29
592,5	1008,319
593	1005,29
593,4	1001,633
593,9	1000,376
594,3	999,433
594,8	990,519
595,2	988,376
595,7	980,462
596,1	979,205
596,6	979,148
597	980,376
597,4	979,49
597,9	978,548
598,3	978,405
598,8	976,89
599,2	975,605
599,7	971,576
600,1	966,033
600,6	960,833
601	958,49
601,4	962,919
601,9	964,29
602,3	963,69
602,8	963,605
603,2	961,119
603,7	961,433
604,1	961,262
604,6	951,29
605	946,29
605,4	946,719
605,9	944,719
606,3	939,062
606,8	927,519
607,2	923,633
607,7	921,576
608,1	919,49
608,6	917,719
609	916,376
609,4	917,348
609,9	926,605
610,3	924,719
610,8	920,748
611,2	920,862
611,7	920,233
612,1	916,605
612,6	914,776
613	910,119
613,4	906,176
613,9	900,205
614,3	894,119
614,8	886,148
615,2	882,09
615,7	879,09
616,1	874,262
616,6	873,148
617	873,919
617,4	872,548
617,9	876,348
618,3	871,919
618,8	873,233
619,2	867,548
619,7	865,605
620,1	866,148
620,5	861,776
621	853,548
621,4	855,519
621,9	848,605
622,3	849,062
622,8	844,719
623,2	836,833
623,6	831,062
624,1	826,405
624,5	823,605
625	822,49
625,4	817,319
625,9	811,062
626,3	810,29
626,8	807,233
627,2	805,462
627,6	793,69
628,1	786,89
628,5	787,89
629	785,376
629,4	780,348
629,9	778,605
630,3	772,205
630,7	772,062
631,2	771,462
631,6	763,205
632,1	757,719
632,5	751,49
633	746,433
633,4	742,69
633,8	737,49
634,3	727,348
634,7	724,862
635,2	719,119
635,6	720,605
636,1	715,633
636,5	714,433
636,9	709,433
637,4	712,69
637,8	705,89
638,3	707,233
638,7	703,919
639,2	701,49
639,6	699,319
640	698,005
640,5	697,49
640,9	698,433
641,4	695,033
641,8	690,862
642,2	689,005
642,7	691,233
643,1	693,319
643,6	687,719
644	679,662
644,5	679,205
644,9	675,748
645,3	668,833
645,8	655,519
646,2	652,805
646,7	649,976
647,1	649,69
647,6	645,262
648	642,605
648,4	638,89
648,9	639,062
649,3	631,662
649,8	629,548
650,2	632,062
650,6	629,148
651,1	622,576
651,5	626,148
652	622,405
652,4	618,348
652,9	615,805
653,3	606,348
653,7	601,976
654,2	600,605
654,6	593,09
655,1	591,433
655,5	594,862
655,9	591,119
656,4	593,49
656,8	588,262
657,3	588,319
657,7	592,548
658,2	588,005
658,6	580,976
659	578,09
659,5	573,576
659,9	571,862
660,4	568,862
660,8	561,89
661,2	555,948
661,7	552,605
662,1	548,748
662,6	545,833
663	544,919
663,4	536,805
663,9	531,976
664,3	530,805
664,8	523,348
665,2	518,09
665,6	510,576
666,1	506,576
666,5	506,119
667	503,748
667,4	497,176
667,9	496,548
668,3	493,29
668,7	489,09
669,2	485,176
669,6	479,719
670,1	477,148
670,5	479,748
670,9	476,719
671,4	472,69
671,8	475,033
672,3	472,948
672,7	475,776
673,1	464,719
673,6	462,005
674	461,205
674,5	458,262
674,9	448,005
675,3	444,548
675,8	439,862
676,2	444,319
676,7	437,748
677,1	432,262
677,5	432,862
678	433,519
678,4	435,205
678,9	431,519
679,3	426,948
679,7	425,405
680,2	418,262
680,6	413,776
681,1	413,519
681,5	407,862
681,9	406,348
682,4	408,605
682,8	410,433
683,3	416,919
683,7	415,833
684,1	414,719
684,6	412,833
685	407,433
685,5	403,862
685,9	394,262
686,3	386,976
686,8	385,519
687,2	377,462
687,7	370,433
688,1	362,805
688,5	359,69
689	362,948
689,4	360,09
689,9	355,376
690,3	355,262
690,7	359,948
691,2	368,748
691,6	368,148
692	367,233
692,5	370,462
692,9	369,176
693,4	368,033
693,8	363,633
694,2	355,976
694,7	351,862
695,1	345,49
695,6	345,233
696	346,433
696,4	345,205
696,9	343,205
697,3	340,919
697,8	339,033
698,2	336,748
698,6	333,69
699,1	330,119
699,5	327,605
699,9	324,09
700,4	320,548
700,8	319,005
701,3	322,148
701,7	316,062
702,1	308,633
702,6	306,976
703	305,205
703,5	304,576
703,9	299,405
704,3	295,462
704,8	297,748
705,2	301,062
705,6	296,29
706,1	295,148
706,5	292,919
707	292,433
707,4	289,233
707,8	280,405
708,3	279,319
708,7	280,719
709,2	278,948
709,6	278,205
710	281,433
710,5	275,719
710,9	279,976
711,3	276,09
711,8	274,805
712,2	275,033
712,7	274,633
713,1	272,205
713,5	274,548
714	271,719
714,4	268,605
714,8	266,633
715,3	264,09
715,7	263,119
716,2	255,833
716,6	255,748
717	250,69
717,5	249,405
717,9	249,776
718,3	247,405
718,8	244,405
719,2	245,119
719,7	239,262
720,1	242,662
720,5	245,033
721	244,176
721,4	243,519
721,8	245,633
722,3	243,748
722,7	246,662
723,2	243,29
723,6	236,233
724	232,09
724,5	228,09
724,9	223,776
725,3	220,805
725,8	212,89
726,2	210,062
726,7	207,548
727,1	208,462
727,5	205,633
728	203,176
728,4	204,719
728,8	207,119
729,3	205,033
729,7	204,405
730,1	199,69
730,6	203,976
731	200,062
731,5	197,948
731,9	196,519
732,3	198,519
732,8	199,976
733,2	200,262
733,6	196,005
734,1	198,262
734,5	197,548
734,9	199,805
735,4	195,948
735,8	190,662
736,3	192,919
736,7	189,233
737,1	191,262
737,6	190,033
738	187,205
738,4	187,376
738,9	190,29
739,3	188,605
739,7	191,719
740,2	185,605
740,6	188,948
741,1	186,719
741,5	181,548
741,9	180,976
742,4	183,348
742,8	178,119
743,2	180,148
743,7	171,033
744,1	164,633
744,5	165,548
745	162,405
745,4	156,148
745,8	161,605
746,3	159,319
746,7	160,833
747,2	167,376
747,6	170,348
748	173,29
748,5	178,348
748,9	170,833
749,3	170,376
749,8	174,662
750,2	172,49
750,6	172,119
751,1	170,519
751,5	165,09
751,9	169,948
752,4	171,833
752,8	168,29
753,3	169,119
753,7	168,548
754,1	165,519
754,6	161,205
755	154,205
755,4	148,462
755,9	144,919
756,3	143,376
756,7	141,633
757,2	143,148
757,6	145,776
758	148,062
758,5	151,09
758,9	152,948
759,3	151,433
759,8	150,462
760,2	146,776
760,6	146,805
761,1	147,662
761,5	144,348
761,9	140,262
762,4	139,376
762,8	135,005
763,3	137,262
763,7	135,89
764,1	136,405
764,6	139,69
765	144,519
765,4	143,948
765,9	147,833
766,3	145,176
766,7	144,719
767,2	140,605
767,6	137,062
768	132,29
768,5	132,776
768,9	131,405
769,3	134,262
769,8	130,719
770,2	131,805
770,6	128,433
771,1	129,633
771,5	126,29
771,9	124,462
772,4	121,29
772,8	121,205
773,2	121,605
773,7	120,633
774,1	113,89
774,5	109,976
775	109,633
775,4	110,262
775,8	109,805
776,3	108,433
776,7	112,805
777,1	116,519
777,6	121,033
778	121,69
778,4	116,233
778,9	114,033
779,3	113,29
779,7	109,948
780,2	112,233
780,6	111,49
781	105,976
781,5	107,605
781,9	110,776
782,3	108,805
782,8	109,348
783,2	103,719
783,6	103,662
784,1	104,119
784,5	99,519
784,9	94,662
785,4	99,49
785,8	99,09
786,2	101,033
786,7	100,719
787,1	100,548
787,5	104,233
788	107,233
788,4	106,605
788,8	103,976
789,3	104,833
789,7	104,776
790,1	105,719
790,6	109,09
791	101,033
791,4	99,633
791,9	100,119
792,3	96,462
792,7	100,205
793,2	98,519
793,6	93,748
794	101,519
794,5	96,405
794,9	99,69
795,3	99,633
795,8	94,548
796,2	95,233
796,6	95,548
797,1	95,062
797,5	90,405
797,9	83,519
798,4	81,69
798,8	76,919
799,2	74,233
799,7	74,833
800,1	69,548
800,5	73,605
801	79,89
801,4	78,919
801,8	83,405
802,2	85,205
802,7	85,633
803,1	87,49
803,5	88,948
804	85,233
804,4	89,49
804,8	89,719
805,3	89,148
805,7	83,205
806,1	79,833
806,6	81,405
807	79,462
807,4	75,948
807,9	67,005
808,3	65,262
808,7	67,262
809,2	71,376
809,6	70,433
810	70,376
810,4	72,462
810,9	76,976
811,3	80,462
811,7	83,433
812,2	84,49
812,6	81,948
813	84,033
813,5	83,69
813,9	82,662
814,3	76,89
814,8	74,576
815,2	71,805
815,6	73,148
816,1	74,805
816,5	73,576
816,9	75,719
817,3	78,69
817,8	82,576
818,2	81,205
818,6	78,348
819,1	72,148
819,5	71,148
819,9	73,233
820,4	69,233
820,8	63,005
821,2	60,405
821,7	56,605
822,1	61,462
822,5	63,176
822,9	57,605
823,4	59,29
823,8	62,605
824,2	62,662
824,7	67,176
825,1	59,49
825,5	52,29
826	51,633
826,4	54,89
826,8	52,605
827,3	55,69
827,7	50,662
828,1	55,776
828,5	59,805
829	56,29
829,4	53,148
829,8	50,062
830,3	48,719
830,7	52,662
831,1	52,862
831,6	51,09
832	53,119
832,4	50,205
832,8	52,09
833,3	52,862
833,7	49,49
834,1	45,748
834,6	44,405
835	43,662
835,4	46,976
835,8	41,748
836,3	37,148
836,7	35,376
837,1	34,319
837,6	40,805
838	41,948
838,4	40,519
838,9	44,233
839,3	44,89
839,7	48,576
840,1	47,062
840,6	43,748
841	43,719
841,4	43,09
841,9	46,005
842,3	45,262
842,7	42,805
843,1	45,319
843,6	48,262
844	49,605
844,4	52,005
844,9	47,776
845,3	49,405
845,7	50,205
846,2	45,348
846,6	41,862
847	41,433
847,4	40,919
847,9	46,548
848,3	47,262
848,7	45,69
849,2	48,148
849,6	45,033
850	47,805
850,4	45,833
850,9	44,49
851,3	46,748
851,7	50,69
852,2	52,205
852,6	54,348
853	50,062
853,4	52,519
853,9	46,176
854,3	41,662
854,7	37,548
855,2	35,776
855,6	37,776
856	36,605
856,4	31,89
856,9	34,005
857,3	34,433
857,7	36,519
858,2	40,89
858,6	39,09
859	42,319
859,4	39,919
859,9	38,833
860,3	36,805
860,7	33,976
861,1	33,662
861,6	33,176
862	31,005
862,4	32,119
862,9	31,148
863,3	31,748
863,7	31,29
864,1	32,976
864,6	34,405
865	33,633
865,4	34,919
865,9	36,862
866,3	33,862
866,7	38,548
867,1	31,605
867,6	27,148
868	27,69
868,4	28,519
868,8	27,005
869,3	31,205
869,7	30,748
870,1	28,748
870,6	31,033
871	-24,824
871,4	-19,881
871,8	-22,51
872,3	-22,995
872,7	-24,252
873,1	-21,224
873,5	-21,595
874	34,205
874,4	30,576
874,8	33,319
875,3	34,148
875,7	30,376
876,1	34,033
876,5	35,605
877	33,805
877,4	32,605
877,8	32,633
878,2	35,119
878,7	36,776
879,1	36,033
879,5	36,29
879,9	38,033
880,4	37,976
880,8	40,233
881,2	33,09
881,7	30,548
882,1	28,633
882,5	25,433
882,9	24,662
883,4	24,062
883,8	25,833
884,2	30,519
884,6	31,148
885,1	31,262
885,5	33,376
885,9	36,262
886,3	38,519
886,8	35,948
887,2	30,433
887,6	32,976
888	32,062
888,5	28,805
888,9	25,176
889,3	19,662
889,8	13,748
890,2	18,062
890,6	12,119
891	10,862
891,5	12,376
891,9	12,662
892,3	16,862
892,7	21,462
893,2	19,976
893,6	26,548
894	30,462
894,4	27,29
894,9	25,062
895,3	24,605
895,7	25,176
896,1	26,005
896,6	24,89
897	21,49
897,4	27,519
897,8	31,176
898,3	30,319
898,7	28,462
899,1	27,49
899,5	24,748
900	22,662
900,4	17,433
900,8	16,576
901,2	14,662
901,7	14,748
902,1	13,89
902,5	17,319
902,9	17,605
903,4	20,948
903,8	22,348
904,2	20,805
904,6	21,148
905,1	24,719
905,5	21,69
905,9	26,376
906,3	24,862
906,8	25,69
907,2	29,148
907,6	30,09
908	29,719
908,5	28,748
908,9	24,548
909,3	27,062
909,7	21,548
910,2	18,062
910,6	21,348
911	13,405
911,4	13,49
911,9	11,89
912,3	10,49
912,7	18,119
913,1	21,576
913,6	16,376
914	23,605
914,4	23,576
914,8	25,348
915,3	24,005
915,7	18,176
916,1	17,119
916,5	21,548
916,9	24,176
917,4	23,119
917,8	26,233
918,2	23,776
918,6	24,862
919,1	24,233
919,5	23,919
919,9	19,919
920,3	24,033
920,8	21,033
921,2	21,719
921,6	21,376
922	23,433
922,5	21,433
922,9	22,662
923,3	17,433
923,7	20,148
924,2	20,719
924,6	19,262
925	20,005
925,4	17,69
925,8	13,09
926,3	15,633
926,7	9,776
927,1	11,948
927,5	13,433
928	8,262
928,4	7,433
928,8	12,719
929,2	10,719
929,7	12,29
930,1	12,748
930,5	11,348
930,9	18,519
931,3	21,633
931,8	21,919
932,2	22,69
932,6	26,748
933	19,576
933,5	21,605
933,9	20,605
934,3	20,548
934,7	18,89
935,2	23,376
935,6	23,948
936	28,262
936,4	30,719
936,8	26,919
937,3	27,462
937,7	28,69
938,1	26,89
938,5	18,833
939	18,576
939,4	16,576
939,8	15,605
940,2	12,09
940,6	10,462
941,1	8,576
941,5	15,662
941,9	14,119
942,3	11,576
942,8	13,548
943,2	15,633
943,6	14,919
944	15,176
944,4	17,462
944,9	17,376
945,3	17,262
945,7	11,89
946,1	9,29
946,6	6,119
947	5,776
947,4	3,062
947,8	4,433
948,2	-0,567
948,7	4,662
949,1	4,29
949,5	9,776
949,9	10,805
950,3	7,919
950,8	7,776
951,2	11,519
951,6	7,519
952	14,005
952,5	9,633
952,9	12,205
953,3	12,319
953,7	8,49
954,1	15,748
954,6	19,805
955	16,805
955,4	19,205
955,8	18,519
956,2	19,633
956,7	25,833
957,1	19,005
957,5	20,948
957,9	20,69
958,3	18,033
958,8	17,176
959,2	20,976
959,6	22,548
960	22,948
960,5	22,776
960,9	22,29
961,3	20,862
961,7	19,376
962,1	14,176
962,6	11,89
963	12,462
963,4	3,233
963,8	3,662
964,2	7,205
964,7	7,748
965,1	12,29
965,5	11,29
965,9	12,176
966,3	21,833
966,8	21,69
967,2	22,148
967,6	20,462
968	12,69
968,4	12,919
968,9	14,433
969,3	13,633
969,7	8,748
970,1	8,976
970,5	7,062
971	14,948
971,4	14,29
971,8	14,605
972,2	15,176
972,6	18,748
973,1	18,719
973,5	20,062
973,9	18,262
974,3	17,833
974,7	15,719
975,2	13,948
975,6	12,662
976	12,805
976,4	10,348
976,8	8,233
977,3	6,405
977,7	3,719
978,1	0,948
978,5	0,833
978,9	0,176
979,4	0,548
979,8	1,062
980,2	3,119
980,6	5,348
981	11,09
981,5	12,919
981,9	13,462
982,3	13,633
982,7	15,262
983,1	12,233
983,6	11,348
984	7,948
984,4	10,205
984,8	8,805
985,2	12,433
985,6	7,605
986,1	12,919
986,5	16,605
986,9	13,062
987,3	10,805
987,7	13,376
988,2	9,919
988,6	13,776
989	13,862
989,4	14,319
989,8	18,09
990,3	16,862
990,7	15,605
991,1	17,49
991,5	18,948
991,9	20,805
992,3	19,662
992,8	19,376
993,2	20,348
993,6	21,348
994	24,548
994,4	25,548
994,9	23,405
995,3	19,976
995,7	19,319
996,1	19,033
996,5	15,976
996,9	15,462
997,4	15,805
997,8	10,033
998,2	7,633
998,6	3,576
999	1,862
999,5	2,976
999,9	0,776
1000,3	-8,195
1000,7	-1,195
1001,1	0,633
1001,5	4,49
1002	9,205
1002,4	10,262
1002,8	7,176
1003,2	13,633
1003,6	13,09
1004	18,176
1004,5	15,776
1004,9	16,948
1005,3	14,833
1005,7	20,09
1006,1	20,548
1006,6	17,862
1007	15,662
1007,4	17,233
1007,8	14,062
1008,2	12,005
1008,6	14,348
1009,1	13,348
1009,5	13,119
1009,9	15,233
1010,3	20,948
1010,7	20,833
1011,1	24,319
1011,6	21,605
1012	24,005
1012,4	24,005
1012,8	21,29
1013,2	22,519
1013,6	22,405
1014,1	23,919
1014,5	22,633
1014,9	19,348
1015,3	21,462
1015,7	21,576
1016,1	16,376
1016,6	14,833
1017	11,262
1017,4	13,719
1017,8	13,776
1018,2	15,319
1018,6	10,319
1019,1	7,576
1019,5	7,09
1019,9	5,748
1020,3	10,262
1020,7	16,176
1021,1	10,148
1021,6	13,033
1022	17,262
1022,4	18,319
1022,8	19,262
1023,2	11,976
1023,6	8,548
1024,1	17,805
1024,5	20,148
1024,9	19,748
1025,3	22,776
1025,7	25,262
1026,1	27,519
1026,6	25,833
1027	21,176
1027,4	21,662
1027,8	20,976
1028,2	19,119
1028,6	20,433
1029	18,205
1029,5	20,833
1029,9	15,662
1030,3	16,176
1030,7	20,29
1031,1	22,919
1031,5	20,09
1032	23,262
1032,4	19,948
1032,8	27,976
1033,2	27,005
1033,6	21,319
1034	17,433
1034,4	17,89
1034,9	17,576
1035,3	17,005
1035,7	12,433
1036,1	8,262
1036,5	6,233
1036,9	7,376
1037,4	10,576
1037,8	5,348
1038,2	6,662
1038,6	9,319
1039	14,233
1039,4	22,976
1039,8	14,976
1040,3	15,719
1040,7	17,348
1041,1	20,205
1041,5	24,29
1041,9	24,576
1042,3	17,805
1042,7	27,49
1043,2	21,519
1043,6	22,119
1044	16,948
1044,4	12,233
1044,8	11,033
1045,2	12,348
1045,6	10,176
1046,1	11,748
1046,5	9,89
1046,9	9,49
1047,3	12,205
1047,7	10,319
1048,1	7,49
1048,5	7,062
1049	10,89
1049,4	18,633
1049,8	21,433
1050,2	18,405
1050,6	24,233
1051	26,262
1051,4	26,976
1051,9	21,233
1052,3	25,348
1052,7	26,833
1053,1	20,776
1053,5	16,948
1053,9	18,519
1054,3	18,005
1054,8	25,062
1055,2	21,29
1055,6	23,005
1056	26,833
1056,4	28,205
1056,8	25,976
1057,2	24,062
1057,6	15,29
1058,1	10,348
1058,5	4,948
1058,9	8,033
1059,3	8,576
1059,7	8,576
1060,1	10,548
1060,5	16,376
1061	19,49
1061,4	17,919
1061,8	17,433
1062,2	15,519
1062,6	18,176
1063	18,233
1063,4	18,433
1063,8	14,862
1064,3	11,319
1064,7	11,805
1065,1	13,519
1065,5	7,405
1065,9	6,662
1066,3	4,376
1066,7	-0,995
1067,1	2,033
1067,6	0,948
1068	-7,91
1068,4	-0,852
1068,8	0,062
1069,2	2,348
1069,6	7,833
1070	12,548
1070,4	7,919
1070,9	13,005
1071,3	9,662
1071,7	6,433
1072,1	4,233
1072,5	-0,11
1072,9	1,548
1073,3	3,262
1073,7	1,262
1074,2	3,748
1074,6	9,433
1075	10,29
1075,4	14,805
1075,8	13,176
1076,2	18,29
1076,6	25,633
1077	22,919
1077,5	24,319
1077,9	21,319
1078,3	19,719
1078,7	18,548
1079,1	15,605
1079,5	10,433
1079,9	13,376
1080,3	10,862
1080,7	13,862
1081,2	16,548
1081,6	15,69
1082	12,033
1082,4	16,919
1082,8	14,29
1083,2	9,805
1083,6	12,862
1084	10,005
1084,5	13,89
1084,9	12,69
1085,3	7,49
1085,7	10,833
1086,1	14,033
1086,5	11,719
1086,9	15,29
1087,3	14,09
1087,7	15,376
1088,2	17,062
1088,6	10,776
1089	10,662
1089,4	7,662
1089,8	8,29
1090,2	6,49
1090,6	10,776
1091	14,376
1091,4	21,176
1091,9	24,205
1092,3	23,976
1092,7	20,205
1093,1	21,919
1093,5	21,519
1093,9	19,148
1094,3	16,376
1094,7	11,062
1095,1	14,262
1095,5	15,176
1096	10,976
1096,4	9,09
1096,8	8,205
1097,2	5,605
1097,6	11,69
1098	13,262
1098,4	16,262
1098,8	17,119
1099,2	21,948
1099,6	21,09
1100,1	22,862
1100,5	16,433
1100,9	14,319
1101,3	13,89
1101,7	14,748
1102,1	11,748
1102,5	13,29
1102,9	15,519
1103,3	18,29
1103,7	18,633
1104,2	14,833
1104,6	16,29
1105	13,519
1105,4	11,119
1105,8	6,748
1106,2	4,719
1106,6	2,548
1107	2,233
1107,4	-0,233
1107,8	0,713
1108,3	-0,267
