Data from Subt2_062.txt Node
Date: Sat Aug 26 16:32:24 MSK 2023
User: vat
Spectrometer: MAYP114033
Trigger mode: 0
Integration Time (sec): 1,000000E0
Scans to average: 5
Electric dark correction enabled: true
Nonlinearity correction enabled: false
Boxcar width: 3
XAxis mode: Wavelengths
Number of Pixels in Spectrum: 2068
>>>>>Begin Spectral Data<<<<<
199,4	-0,433
199,9	-2,213
200,4	-3,667
200,8	-3,533
201,3	-4,276
201,8	-0,933
202,2	-0,39
202,7	0,581
203,2	2,667
203,6	3,838
204,1	5,524
204,6	8,952
205	9,581
205,5	7,581
206	7,181
206,4	8,61
206,9	8,952
207,4	11,495
207,8	7,981
208,3	6,324
208,8	8,381
209,2	8,724
209,7	5,21
210,2	10,781
210,6	9,867
211,1	10,038
211,5	6,81
212	3,01
212,5	1,724
212,9	1,981
213,4	-3,362
213,9	-5,133
214,3	-0,419
214,8	3,038
215,3	6,81
215,7	3,61
216,2	7,838
216,7	3,638
217,1	5,067
217,6	2,295
218,1	-1,162
218,5	0,524
219	8,267
219,5	7,838
219,9	12,638
220,4	10,495
220,9	11,781
221,3	12,038
221,8	7,724
222,3	4,895
222,7	-0,162
223,2	1,324
223,6	-1,59
224,1	-5,105
224,6	-8,105
225	-5,048
225,5	-0,562
226	2,867
226,4	2,781
226,9	4,895
227,4	9,267
227,8	15,952
228,3	17,952
228,8	13,095
229,2	14,152
229,7	10,667
230,2	14,181
230,6	12,667
231,1	15,267
231,5	16,01
232	20,552
232,5	20,752
232,9	22,095
233,4	20,552
233,9	19,924
234,3	14,267
234,8	11,324
235,3	6,21
235,7	11,01
236,2	10,952
236,7	14,267
237,1	11,01
237,6	8,981
238,1	11,467
238,5	12,21
239	6,381
239,4	8,181
239,9	5,124
240,4	8,781
240,8	12,067
241,3	3,324
241,8	2,552
242,2	0,21
242,7	-2,505
243,2	-5,619
243,6	-6,362
244,1	-5,533
244,6	-4,019
245	-1,533
245,5	-1,648
245,9	-2,019
246,4	0,181
246,9	0,181
247,3	1,467
247,8	2,41
248,3	1,895
248,7	9,381
249,2	9,267
249,7	7,267
250,1	5,095
250,6	2,152
251	9,095
251,5	4,838
252	1,095
252,4	5,095
252,9	5,495
253,4	9,067
253,8	6,352
254,3	3,667
254,8	9,124
255,2	6,41
255,7	6,781
256,1	7,324
256,6	4,724
257,1	10,267
257,5	10,724
258	9,924
258,5	15,267
258,9	15,61
259,4	19,981
259,9	25,01
260,3	17,467
260,8	18,524
261,2	23,41
261,7	22,81
262,2	21,724
262,6	19,267
263,1	12,61
263,6	20,038
264	19,152
264,5	13,495
264,9	9,952
265,4	3,467
265,9	0,095
266,3	0,952
266,8	-0,79
267,3	-1,19
267,7	2,581
268,2	3,41
268,7	7,695
269,1	9,952
269,6	14,924
270	18,667
270,5	20,438
271	16,695
271,4	10,581
271,9	16,038
272,4	16,21
272,8	9,61
273,3	1,238
273,7	-1,19
274,2	1,552
274,7	6,295
275,1	-4,648
275,6	-4,105
276,1	-0,076
276,5	4,038
277	4,067
277,4	1,895
277,9	-2,533
278,4	6,524
278,8	8,124
279,3	6,924
279,8	8,895
280,2	10,467
280,7	6,838
281,1	15,981
281,6	16,495
282,1	16,924
282,5	18,495
283	16,924
283,4	15,324
283,9	15,952
284,4	10,952
284,8	8,838
285,3	2,124
285,8	-1,962
286,2	-1,733
286,7	-2,162
287,1	-3,733
287,6	1,038
288,1	0,867
288,5	6,352
289	12,924
289,5	7,095
289,9	6,724
290,4	10,324
290,8	10,41
291,3	9,924
291,8	6,152
292,2	6,41
292,7	9,238
293,1	13,581
293,6	12,838
294,1	8,924
294,5	9,981
295	9,638
295,5	9,638
295,9	16,895
296,4	16,238
296,8	13,41
297,3	13,552
297,8	13,381
298,2	14,61
298,7	13,381
299,1	8,21
299,6	4,981
300,1	8,638
300,5	11,038
301	12,752
301,5	14,924
301,9	8,695
302,4	10,01
302,8	9,695
303,3	9,41
303,8	3,124
304,2	-2,762
304,7	-4,962
305,1	-0,59
305,6	-4,219
306,1	-2,648
306,5	-1,762
307	-2,876
307,4	-4,019
307,9	-3,648
308,4	-2,733
308,8	4,095
309,3	3,924
309,8	5,238
310,2	7,895
310,7	17,467
311,1	17,324
311,6	16,667
312,1	15,638
312,5	12,981
313	9,838
313,4	12,752
313,9	12,638
314,4	9,038
314,8	6,695
315,3	5,552
315,7	7,41
316,2	8,867
316,7	7,61
317,1	4,095
317,6	9,81
318	14,924
318,5	17,867
319	16,581
319,4	13,638
319,9	13,667
320,3	17,381
320,8	15,752
321,3	11,381
321,7	7,438
322,2	7,41
322,6	7,61
323,1	8,438
323,6	3,438
324	2,838
324,5	2,324
324,9	2,381
325,4	4,667
325,9	7,752
326,3	10,667
326,8	14,724
327,2	13,352
327,7	14,695
328,2	11,324
328,6	11,752
329,1	9,981
329,5	4,695
330	1,667
330,5	4,238
330,9	4,781
331,4	4,781
331,8	5,724
332,3	10,552
332,8	12,095
333,2	9,21
333,7	10,238
334,1	10,667
334,6	14,952
335,1	13,667
335,5	11,638
336	8,21
336,4	10,61
336,9	12,152
337,4	10,467
337,8	9,381
338,3	10,638
338,7	8,924
339,2	14,581
339,7	16,638
340,1	16,038
340,6	15,095
341	18,381
341,5	19,838
342	19,467
342,4	12,638
342,9	9,981
343,3	11,752
343,8	14,61
344,2	15,581
344,7	8,952
345,2	6,952
345,6	17,295
346,1	16,21
346,5	16,381
347	17,41
347,5	11,21
347,9	15,581
348,4	16,352
348,8	14,152
349,3	15,524
349,8	16,638
350,2	14,981
350,7	19,667
351,1	21,524
351,6	24,695
352	30,41
352,5	35,381
353	39,295
353,4	47,867
353,9	53,238
354,3	61,467
354,8	70,952
355,3	81,038
355,7	93,524
356,2	110,695
356,6	130,752
357,1	156,181
357,5	180,01
358	218,695
358,5	256,124
358,9	299,038
359,4	343,295
359,8	398,381
360,3	459,467
360,8	527,067
361,2	594,495
361,7	669,981
362,1	759,267
362,6	859,781
363	957,952
363,5	1066,695
364	1179,752
364,4	1298,238
364,9	1412,295
365,3	1524,181
365,8	1630,21
366,3	1737,695
366,7	1830,467
367,2	1914,095
367,6	1976,495
368,1	2037,381
368,5	2072,581
369	2087,752
369,5	2083,381
369,9	2065,752
370,4	2029,581
370,8	1983,952
371,3	1922,381
371,7	1850,067
372,2	1782,01
372,7	1697,21
373,1	1608,095
373,6	1516,095
374	1422,981
374,5	1329,152
374,9	1239,467
375,4	1138,695
375,9	1052,21
376,3	969,467
376,8	897,038
377,2	831,924
377,7	763,61
378,2	705,038
378,6	653,467
379,1	601,724
379,5	556,495
380	516,838
380,4	474,724
380,9	438,095
381,4	399,41
381,8	365,638
382,3	334,638
382,7	306,381
383,2	278,01
383,6	255,152
384,1	237,438
384,6	222,467
385	209,667
385,5	197,524
385,9	188,524
386,4	178,324
386,8	172,467
387,3	160,267
387,7	153,038
388,2	142,638
388,7	137,952
389,1	128,81
389,6	119,41
390	108,067
390,5	102,467
390,9	103,324
391,4	101,552
391,9	93,724
392,3	85,295
392,8	82,895
393,2	77,867
393,7	77,552
394,1	69,152
394,6	65,467
395,1	63,667
395,5	65,238
396	61,867
396,4	59,81
396,9	57,438
397,3	53,752
397,8	52,41
398,2	50,524
398,7	46,695
399,2	44,667
399,6	46,695
400,1	39,324
400,5	42,238
401	41,81
401,4	41,581
401,9	42,238
402,4	47,152
402,8	44,095
403,3	49,438
403,7	46,352
404,2	46,524
404,6	45,952
405,1	41,81
405,5	35,267
406	34,324
406,5	32,152
406,9	31,581
407,4	32,01
407,8	34,924
408,3	39,467
408,7	47,838
409,2	51,038
409,6	52,752
410,1	59,324
410,6	61,438
411	63,924
411,5	61,467
411,9	54,524
412,4	57,867
412,8	59,895
413,3	56,867
413,7	60,467
414,2	62,552
414,7	70,438
415,1	73,924
415,6	75,381
416	79,667
416,5	82,152
416,9	81,724
417,4	81,352
417,8	81,438
418,3	89,01
418,8	84,21
419,2	86,981
419,7	91,038
420,1	87,667
420,6	89,181
421	91,752
421,5	93,038
421,9	102,267
422,4	103,01
422,8	102,181
423,3	108,495
423,8	113,752
424,2	114,41
424,7	112,552
425,1	107,21
425,6	110,924
426	109,238
426,5	106,667
426,9	103,495
427,4	102,495
427,9	95,724
428,3	99,752
428,8	94,924
429,2	97,981
429,7	95,467
430,1	98,41
430,6	95,924
431	99,581
431,5	99,81
431,9	102,81
432,4	105,295
432,8	111,038
433,3	111,038
433,8	113,638
434,2	116,467
434,7	119,895
435,1	120,552
435,6	127,952
436	133,552
436,5	141,61
436,9	148,124
437,4	158,124
437,8	159,152
438,3	168,895
438,8	168,867
439,2	173,152
439,7	176,038
440,1	180,81
440,6	188,695
441	197,438
441,5	201,524
441,9	212,781
442,4	225,667
442,8	233,695
443,3	247,81
443,7	252,81
444,2	265,038
444,7	274,352
445,1	281,01
445,6	286,41
446	297,838
446,5	307,638
446,9	322,952
447,4	333,895
447,8	348,581
448,3	364,067
448,7	375,895
449,2	391,067
449,6	404,838
450,1	419,895
450,6	437,438
451	451,638
451,5	462,724
451,9	482,067
452,4	500,952
452,8	519,752
453,3	530,867
453,7	550,952
454,2	568,095
454,6	591,952
455,1	607,152
455,5	626,81
456	648,01
456,4	676,238
456,9	697,61
457,3	726,352
457,8	751,01
458,3	780,01
458,7	807,838
459,2	832,581
459,6	859,067
460,1	882,381
460,5	907,752
461	934,095
461,4	966,467
461,9	992,467
462,3	1023,238
462,8	1054,724
463,2	1088,752
463,7	1115,41
464,1	1146,752
464,6	1174,352
465	1203,067
465,5	1232,01
466	1255,324
466,4	1286,838
466,9	1322,467
467,3	1352,124
467,8	1389,924
468,2	1421,324
468,7	1455,695
469,1	1494,524
469,6	1528,381
470	1561,352
470,5	1599,838
470,9	1631,752
471,4	1668,381
471,8	1701,238
472,3	1733,152
472,7	1769,295
473,2	1798,238
473,6	1832,181
474,1	1858,838
474,5	1893,095
475	1931,038
475,4	1962,61
475,9	2000,924
476,4	2035,067
476,8	2070,438
477,3	2104,895
477,7	2140,095
478,2	2172,495
478,6	2213,21
479,1	2238,581
479,5	2278,81
480	2308,41
480,4	2341,981
480,9	2374,095
481,3	2397,381
481,8	2424,295
482,2	2449,695
482,7	2473,467
483,1	2500,895
483,6	2525,981
484	2550,552
484,5	2580,152
484,9	2606,838
485,4	2632,352
485,8	2660,324
486,3	2683,81
486,7	2710,324
487,2	2733,152
487,6	2754,552
488,1	2780,581
488,5	2799,867
489	2811,124
489,4	2827,81
489,9	2847,981
490,4	2861,781
490,8	2876,124
491,3	2884,724
491,7	2902,752
492,2	2928,21
492,6	2939,667
493,1	2947,638
493,5	2957,981
494	2971,981
494,4	2977,724
494,9	2985,467
495,3	2990,867
495,8	3007,124
496,2	3016,352
496,7	3027,695
497,1	3036,495
497,6	3050,41
498	3057,21
498,5	3059,867
498,9	3063,438
499,4	3069,61
499,8	3074,495
500,3	3083,61
500,7	3083,895
501,2	3091,038
501,6	3098,467
502,1	3102,124
502,5	3104,838
503	3106,781
503,4	3107,752
503,9	3113,895
504,3	3116,552
504,8	3118,324
505,2	3116,124
505,7	3123,495
506,1	3133,981
506,6	3134,21
507	3138,695
507,5	3137,495
507,9	3136,552
508,4	3148,752
508,8	3147,41
509,3	3137,781
509,7	3137,667
510,2	3131,438
510,6	3130,238
511,1	3132,924
511,5	3125,667
512	3124,352
512,4	3123,352
512,9	3123,21
513,3	3129,81
513,8	3126,267
514,2	3127,467
514,7	3122,41
515,1	3119,352
515,6	3120,61
516	3114,295
516,5	3110,752
516,9	3112,667
517,4	3106,81
517,8	3104,581
518,3	3103,81
518,7	3101,067
519,2	3099,838
519,6	3095,381
520,1	3095,952
520,5	3099,01
521	3097,438
521,4	3097,124
521,9	3105,152
522,3	3102,038
522,8	3110,267
523,2	3107,267
523,7	3102,238
524,1	3105,067
524,6	3103,981
525	3101,867
525,5	3114,095
525,9	3102,552
526,4	3103,181
526,8	3099,038
527,3	3098,695
527,7	3099,581
528,2	3092,038
528,6	3086,181
529,1	3087,638
529,5	3089,267
530	3096,324
530,4	3096,095
530,9	3090,867
531,3	3091,352
531,8	3090,81
532,2	3093,581
532,6	3095,038
533,1	3091,752
533,5	3092,467
534	3098,181
534,4	3100,867
534,9	3111,21
535,3	3111,438
535,8	3113,638
536,2	3115,895
536,7	3118,238
537,1	3116,695
537,6	3120,524
538	3118,295
538,5	3129,438
538,9	3127,752
539,4	3131,867
539,8	3132,267
540,3	3137,067
540,7	3133,61
541,2	3131,781
541,6	3130,638
542,1	3139,21
542,5	3138,295
543	3147,638
543,4	3153,324
543,9	3156,467
544,3	3159,638
544,8	3156,781
545,2	3157,924
545,7	3166,295
546,1	3169,067
546,5	3169,724
547	3177,238
547,4	3178,267
547,9	3183,267
548,3	3187,952
548,8	3192,381
549,2	3190,01
549,7	3196,124
550,1	3200,667
550,6	3203,495
551	3209,295
551,5	3209,981
551,9	3213,295
552,4	3216,21
552,8	3217,352
553,3	3218,352
553,7	3226,038
554,2	3228,381
554,6	3228,41
555,1	3227,295
555,5	3235,295
555,9	3238,41
556,4	3243,238
556,8	3245,095
557,3	3250,981
557,7	3261,838
558,2	3261,438
558,6	3270,952
559,1	3275,41
559,5	3279,61
560	3282,467
560,4	3281,552
560,9	3278,181
561,3	3285,867
561,8	3286,152
562,2	3289,752
562,7	3293,267
563,1	3297,152
563,6	3297,352
564	3307,381
564,4	3313,638
564,9	3309,838
565,3	3313,41
565,8	3314,095
566,2	3319,01
566,7	3319,41
567,1	3315,781
567,6	3314,552
568	3318,324
568,5	3316,895
568,9	3318,41
569,4	3318,838
569,8	3321,695
570,3	3323,467
570,7	3324,867
571,1	3329,495
571,6	3329,667
572	3329,267
572,5	3321,695
572,9	3331,01
573,4	3330,124
573,8	3329,524
574,3	3321,81
574,7	3323,581
575,2	3322,724
575,6	3324,352
576,1	3317,067
576,5	3313,638
576,9	3310,181
577,4	3308,752
577,8	3300,952
578,3	3296,61
578,7	3294,895
579,2	3292,295
579,6	3289,981
580,1	3287,895
580,5	3285,124
581	3282,924
581,4	3282,552
581,9	3280,838
582,3	3276,181
582,7	3272,295
583,2	3267,467
583,6	3258,952
584,1	3255,467
584,5	3250,981
585	3244,238
585,4	3235,21
585,9	3237,838
586,3	3234,552
586,8	3233,724
587,2	3226,095
587,6	3218,067
588,1	3217,467
588,5	3214,352
589	3204,152
589,4	3194,381
589,9	3188,581
590,3	3189,124
590,8	3187,438
591,2	3180,781
591,7	3178,467
592,1	3169,152
592,5	3169,124
593	3163,924
593,4	3155,295
593,9	3146,952
594,3	3134,067
594,8	3128,638
595,2	3125,295
595,7	3120,152
596,1	3113,352
596,6	3114,895
597	3110,695
597,4	3112,838
597,9	3099,381
598,3	3099,381
598,8	3090,295
599,2	3086,695
599,7	3075,267
600,1	3068,324
600,6	3062,667
601	3059,181
601,4	3045,781
601,9	3038,695
602,3	3032,581
602,8	3024,638
603,2	3025,495
603,7	3013,61
604,1	3011,781
604,6	3003,438
605	3002,21
605,4	2999,981
605,9	2992,095
606,3	2977,124
606,8	2971,838
607,2	2965,581
607,7	2961,924
608,1	2949,581
608,6	2939,981
609	2933,924
609,4	2932,695
609,9	2926,752
610,3	2917,238
610,8	2910,295
611,2	2902,524
611,7	2889,067
612,1	2874,467
612,6	2861,324
613	2854,41
613,4	2847,924
613,9	2841,01
614,3	2836,81
614,8	2828,552
615,2	2830,724
615,7	2823,952
616,1	2811,81
616,6	2799,124
617	2788,752
617,4	2771,838
617,9	2760,581
618,3	2748,124
618,8	2740,067
619,2	2732,495
619,7	2725,467
620,1	2710,067
620,5	2702,981
621	2696,41
621,4	2684,01
621,9	2667,21
622,3	2659,638
622,8	2644,724
623,2	2637,41
623,6	2624,61
624,1	2618,81
624,5	2611,067
625	2598,867
625,4	2586,581
625,9	2575,067
626,3	2564,781
626,8	2555,61
627,2	2535,695
627,6	2520,867
628,1	2509,895
628,5	2491,067
629	2480,124
629,4	2464,324
629,9	2454,067
630,3	2445,267
630,7	2436,838
631,2	2429,867
631,6	2423,295
632,1	2412,01
632,5	2401,524
633	2379,781
633,4	2369,524
633,8	2353,067
634,3	2341,552
634,7	2332,267
635,2	2322,581
635,6	2309,495
636,1	2313,581
636,5	2299,895
636,9	2294,581
637,4	2277,895
637,8	2262,038
638,3	2243,038
638,7	2237,324
639,2	2223,038
639,6	2213,81
640	2200,981
640,5	2194,895
640,9	2184,124
641,4	2181,81
641,8	2169,495
642,2	2156,695
642,7	2141,81
643,1	2137,381
643,6	2129,981
644	2123,01
644,5	2111,238
644,9	2105,381
645,3	2098,352
645,8	2091,238
646,2	2073,267
646,7	2060,352
647,1	2053,152
647,6	2038,981
648	2026,924
648,4	2016,638
648,9	2006,495
649,3	2000,181
649,8	1994,181
650,2	1978,781
650,6	1976,895
651,1	1971,581
651,5	1963,524
652	1960,295
652,4	1945,838
652,9	1939,638
653,3	1930,381
653,7	1919,695
654,2	1905,467
654,6	1890,524
655,1	1871,552
655,5	1865,438
655,9	1845,095
656,4	1840,067
656,8	1828,81
657,3	1813,638
657,7	1802,495
658,2	1799,667
658,6	1786,552
659	1774,81
659,5	1763,067
659,9	1753,638
660,4	1748,924
660,8	1742,295
661,2	1727,352
661,7	1717,381
662,1	1711,267
662,6	1699,181
663	1689,295
663,4	1678,238
663,9	1667,41
664,3	1664,181
664,8	1656,867
665,2	1645,695
665,6	1632,981
666,1	1616,838
666,5	1605,981
667	1594,924
667,4	1588,124
667,9	1576,01
668,3	1573,667
668,7	1565,981
669,2	1564,552
669,6	1557,295
670,1	1551,352
670,5	1531,695
670,9	1529,895
671,4	1516,61
671,8	1510,552
672,3	1503,724
672,7	1494,467
673,1	1481,295
673,6	1478,21
674	1464,581
674,5	1457,81
674,9	1444,438
675,3	1435,124
675,8	1426,01
676,2	1420,267
676,7	1412,238
677,1	1405,724
677,5	1398,41
678	1397,352
678,4	1388,438
678,9	1377,724
679,3	1367,41
679,7	1355,067
680,2	1349,324
680,6	1337,352
681,1	1324,867
681,5	1315,295
681,9	1308,667
682,4	1304,467
682,8	1294,952
683,3	1278,067
683,7	1268,867
684,1	1258,981
684,6	1249,381
685	1244,181
685,5	1237,724
685,9	1234,495
686,3	1235,181
686,8	1229,638
687,2	1223,152
687,7	1220,981
688,1	1212,01
688,5	1201,838
689	1191,467
689,4	1183,067
689,9	1175,667
690,3	1172,695
690,7	1159,781
691,2	1154,181
691,6	1152,295
692	1146,495
692,5	1136,324
692,9	1132,752
693,4	1122,01
693,8	1119,495
694,2	1109,752
694,7	1098,667
695,1	1091,981
695,6	1088,981
696	1084,867
696,4	1078,238
696,9	1071,867
697,3	1066,524
697,8	1055,81
698,2	1048,181
698,6	1043,781
699,1	1026,381
699,5	1024,152
699,9	1015,495
700,4	1009,324
700,8	1008,781
701,3	1003,867
701,7	990,838
702,1	987,924
702,6	977,095
703	967,752
703,5	956,552
703,9	948,867
704,3	946,695
704,8	944,01
705,2	940,495
705,6	934,752
706,1	934,667
706,5	937,867
707	927,695
707,4	919,495
707,8	911,838
708,3	905,352
708,7	903,438
709,2	896,924
709,6	889,924
710	889,467
710,5	887,524
710,9	880,981
711,3	874,095
711,8	864,838
712,2	860,61
712,7	854,01
713,1	845,067
713,5	835,552
714	830,724
714,4	831,152
714,8	832,952
715,3	821,924
715,7	814,21
716,2	808,295
716,6	806,781
717	801,867
717,5	794,781
717,9	784,81
718,3	781,724
718,8	780,524
719,2	777,01
719,7	774,552
720,1	764,067
720,5	755,438
721	747,867
721,4	748,438
721,8	742,095
722,3	734,638
722,7	720,295
723,2	721,41
723,6	720,838
724	719,152
724,5	705,381
724,9	697,752
725,3	692,152
725,8	691,095
726,2	682,638
726,7	675,324
727,1	664,238
727,5	664,01
728	663,01
728,4	660,695
728,8	656,124
729,3	650,181
729,7	644,695
730,1	645,924
730,6	639,21
731	637,095
731,5	635,267
731,9	635,038
732,3	637,381
732,8	633,981
733,2	630,038
733,6	630,495
734,1	623,095
734,5	613,838
734,9	606,267
735,4	604,495
735,8	606,61
736,3	602,695
736,7	595,438
737,1	595,581
737,6	597,152
738	593,838
738,4	590,867
738,9	585,61
739,3	582,238
739,7	580,61
740,2	572,124
740,6	565,438
741,1	560,524
741,5	553,01
741,9	545,752
742,4	542,724
742,8	542,381
743,2	540,238
743,7	543,267
744,1	539,695
744,5	540,381
745	537,667
745,4	533,638
745,8	529,095
746,3	528,21
746,7	522,695
747,2	526,352
747,6	518,61
748	516,067
748,5	513,124
748,9	509,81
749,3	511,638
749,8	506,067
750,2	497,067
750,6	496,581
751,1	495,867
751,5	491,038
751,9	484,124
752,4	477,295
752,8	479,095
753,3	474,467
753,7	473,267
754,1	467,352
754,6	464,781
755	463,895
755,4	463,438
755,9	459,267
756,3	455,01
756,7	449,838
757,2	449,581
757,6	444,752
758	442,267
758,5	433,724
758,9	426,238
759,3	426,752
759,8	428,581
760,2	427,61
760,6	426,467
761,1	421,324
761,5	423,524
761,9	426,01
762,4	425,267
762,8	419,61
763,3	411,467
763,7	409,352
764,1	406,495
764,6	400,324
765	396,324
765,4	391,924
765,9	385,638
766,3	384,267
766,7	382,524
767,2	382,038
767,6	374,952
768	373,924
768,5	368,524
768,9	370,41
769,3	368,295
769,8	369,695
770,2	370,438
770,6	369,152
771,1	363,381
771,5	366,438
771,9	361,467
772,4	364,924
772,8	362,524
773,2	356,295
773,7	358,667
774,1	359,867
774,5	355,781
775	350,324
775,4	343,924
775,8	340,724
776,3	340,095
776,7	335,095
777,1	331,381
777,6	329,438
778	329,81
778,4	327,552
778,9	324,952
779,3	321,924
779,7	324,495
780,2	322,924
780,6	318,267
781	319,724
781,5	319,352
781,9	316,352
782,3	313,81
782,8	308,838
783,2	301,838
783,6	299,752
784,1	295,152
784,5	289,324
784,9	284,495
785,4	282,267
785,8	273,467
786,2	275,695
786,7	275,495
787,1	271,352
787,5	272,238
788	273,181
788,4	270,495
788,8	275,981
789,3	274,324
789,7	269,981
790,1	271,895
790,6	265,581
791	260,152
791,4	256,295
791,9	251,724
792,3	251,495
792,7	255,495
793,2	249,838
793,6	250,181
794	250,524
794,5	253,724
794,9	254,981
795,3	249,924
795,8	242,752
796,2	243,781
796,6	239,438
797,1	235,495
797,5	232,381
797,9	230,467
798,4	226,895
798,8	225,41
799,2	224,638
799,7	226,61
800,1	224,152
800,5	225,095
801	222,124
801,4	221,038
801,8	222,467
802,2	222,952
802,7	222,952
803,1	224,352
803,5	222,895
804	220,01
804,4	217,981
804,8	218,467
805,3	210,038
805,7	207,267
806,1	207,01
806,6	203,695
807	204,095
807,4	201,067
807,9	199,695
808,3	198,667
808,7	195,667
809,2	193,981
809,6	193,124
810	189,495
810,4	193,61
810,9	188,267
811,3	191,667
811,7	186,667
812,2	189,61
812,6	186,724
813	189,467
813,5	186,867
813,9	185,552
814,3	180,724
814,8	183,867
815,2	176,438
815,6	171,667
816,1	167,41
816,5	165,781
816,9	167,695
817,3	165,295
817,8	167,295
818,2	161,924
818,6	166,867
819,1	166,867
819,5	164,01
819,9	157,238
820,4	156,781
820,8	148,21
821,2	153,152
821,7	152,01
822,1	150,781
822,5	151,238
822,9	156,267
823,4	155,152
823,8	157,781
824,2	154,981
824,7	152,21
825,1	150,01
825,5	152,924
826	148,952
826,4	149,638
826,8	151,524
827,3	154,438
827,7	153,981
828,1	154,295
828,5	151,324
829	147,924
829,4	149,095
829,8	144,21
830,3	142,01
830,7	137,295
831,1	136,781
831,6	130,695
832	126,81
832,4	123,181
832,8	124,952
833,3	118,038
833,7	121,238
834,1	119,981
834,6	119,81
835	124,181
835,4	127,324
835,8	120,41
836,3	119,838
836,7	112,752
837,1	105,581
837,6	105,381
838	102,524
838,4	93,781
838,9	99,467
839,3	103,41
839,7	110,981
840,1	113,467
840,6	116,095
841	114,238
841,4	115,21
841,9	109,495
842,3	108,695
842,7	102,438
843,1	103,124
843,6	101,667
844	106,352
844,4	108,41
844,9	109,324
845,3	103,267
845,7	105,781
846,2	100,924
846,6	98,895
847	92,752
847,4	87,467
847,9	86,324
848,3	93,381
848,7	91,752
849,2	98,181
849,6	97,038
850	98,467
850,4	101,124
850,9	100,381
851,3	92,324
851,7	90,152
852,2	80,924
852,6	81,181
853	84,01
853,4	83,124
853,9	80,667
854,3	81,838
854,7	79,524
855,2	82,267
855,6	78,61
856	70,81
856,4	73,41
856,9	76,781
857,3	76,038
857,7	79,438
858,2	80,381
858,6	85,952
859	87,21
859,4	87,41
859,9	79,267
860,3	83,867
860,7	83,438
861,1	82,181
861,6	77,638
862	79,067
862,4	78,21
862,9	85,495
863,3	81,181
863,7	76,667
864,1	75,838
864,6	73,41
865	72,181
865,4	66,667
865,9	61,952
866,3	61,838
866,7	63,867
867,1	66,61
867,6	69,124
868	68,724
868,4	65,638
868,8	68,524
869,3	72,21
869,7	67,638
870,1	63,924
870,6	60,695
871	73,324
871,4	71,41
871,8	70,095
872,3	65,01
872,7	64,638
873,1	68,438
873,5	71,81
874	58,838
874,4	61,981
874,8	61,181
875,3	58,867
875,7	61,238
876,1	57,781
876,5	57,752
877	56,21
877,4	58,667
877,8	58,324
878,2	61,095
878,7	60,981
879,1	61,438
879,5	61,352
879,9	60,895
880,4	59,295
880,8	56,095
881,2	56,724
881,7	58,095
882,1	55,895
882,5	54,238
882,9	53,495
883,4	54,067
883,8	55,838
884,2	51,467
884,6	47,695
885,1	50,981
885,5	50,867
885,9	55,067
886,3	52,124
886,8	48,238
887,2	51,724
887,6	47,867
888	42,181
888,5	42,981
888,9	37,752
889,3	32,924
889,8	36,81
890,2	31,181
890,6	37,152
891	36,552
891,5	32,781
891,9	33,01
892,3	37,581
892,7	38,752
893,2	42,267
893,6	42,41
894	45,238
894,4	46,524
894,9	46,752
895,3	47,21
895,7	47,295
896,1	47,295
896,6	43,895
897	42,381
897,4	38,438
897,8	41,181
898,3	44,752
898,7	43,095
899,1	41,467
899,5	39,324
900	37,781
900,4	38,41
900,8	37,295
901,2	32,438
901,7	29,295
902,1	29,41
902,5	32,695
902,9	36,21
903,4	36,295
903,8	28,381
904,2	32,724
904,6	33,438
905,1	36,667
905,5	31,981
905,9	29,467
906,3	28,952
906,8	35,524
907,2	30,724
907,6	34,067
908	29,095
908,5	33,01
908,9	33,21
909,3	36,924
909,7	30,895
910,2	32,724
910,6	29,638
911	29,467
911,4	29,438
911,9	32,438
912,3	31,667
912,7	41,181
913,1	33,924
913,6	34,895
914	35,61
914,4	34,667
914,8	31,981
915,3	31,21
915,7	23,924
916,1	26,552
916,5	26,124
916,9	25,552
917,4	25,438
917,8	23,61
918,2	16,095
918,6	14,438
919,1	19,124
919,5	21,238
919,9	21,981
920,3	20,781
920,8	20,467
921,2	27,952
921,6	28,61
922	23,067
922,5	22,01
922,9	17,952
923,3	23,181
923,7	22,038
924,2	17,895
924,6	19,981
925	23,267
925,4	22,181
925,8	23,924
926,3	21,267
926,7	25,21
927,1	25,181
927,5	26,41
928	24,295
928,4	25,295
928,8	30,381
929,2	31,124
929,7	23,924
930,1	20,21
930,5	15,581
930,9	19,41
931,3	18,981
931,8	14,038
932,2	10,181
932,6	14,067
933	13,495
933,5	15,467
933,9	12,895
934,3	10,467
934,7	16,438
935,2	18,838
935,6	18,067
936	20,781
936,4	23,381
936,8	21,695
937,3	25,495
937,7	23,724
938,1	16,238
938,5	18,752
939	22,552
939,4	20,781
939,8	22,095
940,2	16,438
940,6	10,124
941,1	16,952
941,5	15,21
941,9	13,324
942,3	11,267
942,8	14,552
943,2	13,552
943,6	17,352
944	14,267
944,4	11,21
944,9	9,038
945,3	9,752
945,7	3,21
946,1	4,752
946,6	3,01
947	2,781
947,4	2,41
947,8	7,552
948,2	6,695
948,7	8,038
949,1	6,267
949,5	9,61
949,9	14,095
950,3	17,867
950,8	15,152
951,2	18,41
951,6	23,581
952	26,181
952,5	21,295
952,9	16,067
953,3	14,581
953,7	15,524
954,1	14,152
954,6	11,752
955	8,81
955,4	10,667
955,8	18,152
956,2	18,467
956,7	16,581
957,1	16,41
957,5	14,581
957,9	19,181
958,3	18,038
958,8	11,924
959,2	15,238
959,6	13,61
960	12,381
960,5	10,124
960,9	7,467
961,3	7,124
961,7	3,81
962,1	-0,905
962,6	1,838
963	-1,419
963,4	3,667
963,8	6,124
964,2	5,667
964,7	9,667
965,1	10,067
965,5	10,924
965,9	13,552
966,3	9,067
966,8	5,61
967,2	4,667
967,6	3,238
968	4,095
968,4	5,552
968,9	12,695
969,3	9,238
969,7	9,324
970,1	11,21
970,5	15,924
971	10,552
971,4	11,467
971,8	6,124
972,2	12,152
972,6	14,238
973,1	16,152
973,5	14,295
973,9	18,924
974,3	14,181
974,7	12,752
975,2	13,095
975,6	8,267
976	9,638
976,4	8,467
976,8	8,01
977,3	8,495
977,7	8,181
978,1	4,324
978,5	10,438
978,9	9,238
979,4	11,295
979,8	13,352
980,2	9,152
980,6	8,267
981	12,381
981,5	9,467
981,9	2,61
982,3	-3,133
982,7	-3,962
983,1	3,267
983,6	7,695
984	7,895
984,4	9,752
984,8	14,181
985,2	17,124
985,6	20,01
986,1	18,41
986,5	12,581
986,9	9,667
987,3	8,752
987,7	7,324
988,2	9,152
988,6	5,324
989	1,352
989,4	6,267
989,8	4,695
990,3	4,867
990,7	5,467
991,1	-1,333
991,5	-1,133
991,9	6,438
992,3	5,038
992,8	11,781
993,2	15,152
993,6	14,267
994	18,124
994,4	21,781
994,9	16,467
995,3	17,381
995,7	11,61
996,1	5,667
996,5	11,038
996,9	9,895
997,4	7,581
997,8	6,067
998,2	3,695
998,6	6,752
999	6,752
999,5	2,667
999,9	6,352
1000,3	5,524
1000,7	5,924
1001,1	5,324
1001,5	0,038
1002	1,838
1002,4	2,467
1002,8	1,01
1003,2	2,238
1003,6	5,61
1004	4,238
1004,5	6,467
1004,9	8,295
1005,3	4,752
1005,7	5,695
1006,1	3,21
1006,6	4,21
1007	6,724
1007,4	6,752
1007,8	2,524
1008,2	6,61
1008,6	2,524
1009,1	0,867
1009,5	2,638
1009,9	7,095
1010,3	10,152
1010,7	12,981
1011,1	17,267
1011,6	18,524
1012	19,981
1012,4	17,295
1012,8	11,352
1013,2	11,552
1013,6	11,81
1014,1	5,981
1014,5	7,038
1014,9	11,01
1015,3	9,095
1015,7	10,21
1016,1	10,381
1016,6	11,152
1017	11,695
1017,4	11,61
1017,8	8,952
1018,2	7,21
1018,6	10,838
1019,1	7,838
1019,5	6,267
1019,9	8,01
1020,3	8,581
1020,7	6,867
1021,1	10,324
1021,6	3,01
1022	-1,705
1022,4	0,038
1022,8	-0,476
1023,2	-0,105
1023,6	1,495
1024,1	3,695
1024,5	9,295
1024,9	18,21
1025,3	17,152
1025,7	21,695
1026,1	23,181
1026,6	24,124
1027	16,438
1027,4	15,438
1027,8	10,895
1028,2	10,467
1028,6	8,41
1029	2,295
1029,5	2,695
1029,9	3,124
1030,3	4,41
1030,7	3,352
1031,1	-0,419
1031,5	-4,562
1032	0,61
1032,4	-4,933
1032,8	-3,962
1033,2	-4,105
1033,6	1,067
1034	5,724
1034,4	15,81
1034,9	9,924
1035,3	16,838
1035,7	18,124
1036,1	16,61
1036,5	12,752
1036,9	12,867
1037,4	7,124
1037,8	10,752
1038,2	0,152
1038,6	-0,248
1039	-2,362
1039,4	-3,19
1039,8	-3,99
1040,3	-9,59
1040,7	-9,019
1041,1	-1,533
1041,5	-2,362
1041,9	-0,39
1042,3	4,781
1042,7	7,581
1043,2	8,752
1043,6	14,295
1044	12,352
1044,4	12,61
1044,8	11,41
1045,2	8,695
1045,6	10,438
1046,1	12,324
1046,5	7,724
1046,9	15,581
1047,3	14,552
1047,7	15,981
1048,1	12,781
1048,5	6,724
1049	6,638
1049,4	6,295
1049,8	0,01
1050,2	2,21
1050,6	-0,448
1051	3,781
1051,4	3,238
1051,9	8,867
1052,3	5,752
1052,7	7,124
1053,1	9,381
1053,5	16,095
1053,9	13,238
1054,3	14,095
1054,8	13,181
1055,2	18,467
1055,6	17,438
1056	14,781
1056,4	11,467
1056,8	19,667
1057,2	21,524
1057,6	14,467
1058,1	11,352
1058,5	8,638
1058,9	9,781
1059,3	9,924
1059,7	-0,533
1060,1	0,124
1060,5	-3,905
1061	-2,076
1061,4	4,61
1061,8	2,61
1062,2	3,838
1062,6	5,324
1063	5,152
1063,4	10,895
1063,8	10,295
1064,3	3,41
1064,7	4,724
1065,1	2,238
1065,5	6,181
1065,9	0,867
1066,3	-2,248
1066,7	-2,848
1067,1	0,181
1067,6	5,41
1068	2,952
1068,4	0,524
1068,8	4,981
1069,2	3,267
1069,6	4,152
1070	6,467
1070,4	1,038
1070,9	0,41
1071,3	-0,276
1071,7	-2,076
1072,1	6,952
1072,5	7,61
1072,9	9,21
1073,3	9,267
1073,7	10,838
1074,2	15,638
1074,6	15,981
1075	11,467
1075,4	11,01
1075,8	7,238
1076,2	11,381
1076,6	14,895
1077	9,638
1077,5	12,524
1077,9	12,41
1078,3	12,295
1078,7	14,181
1079,1	8,41
1079,5	5,438
1079,9	15,095
1080,3	14,381
1080,7	17,324
1081,2	17,295
1081,6	20,438
1082	24,238
1082,4	22,01
1082,8	13,152
1083,2	6,838
1083,6	5,21
1084	0,981
1084,5	-1,79
1084,9	-4,362
1085,3	1,867
1085,7	1,952
1086,1	3,81
1086,5	6,552
1086,9	13,667
1087,3	14,667
1087,7	20,152
1088,2	12,867
1088,6	11,781
1089	12,181
1089,4	10,41
1089,8	5,524
1090,2	3,952
1090,6	-2,076
1091	4,152
1091,4	4,152
1091,9	8,924
1092,3	5,038
1092,7	3,124
1093,1	-0,762
1093,5	0,038
1093,9	-0,533
1094,3	1,61
1094,7	-3,448
1095,1	-9,362
1095,5	-8,448
1096	-10,162
1096,4	-8,933
1096,8	-14,533
1097,2	-11,848
1097,6	-7,448
1098	0,981
1098,4	5,41
1098,8	8,924
1099,2	9,067
1099,6	15,952
1100,1	14,952
1100,5	16,238
1100,9	13,524
1101,3	10,267
1101,7	11,981
1102,1	13,81
1102,5	10,552
1102,9	5,41
1103,3	0,895
1103,7	2,038
1104,2	5,924
1104,6	8,267
1105	6,924
1105,4	5,81
1105,8	8,381
1106,2	8,952
1106,6	8,552
1107	4,838
1107,4	0,6
1107,8	-1,733
1108,3	-0,083
