Data from Subt2_121.txt Node
Date: Sat Aug 26 18:24:03 MSK 2023
User: vat
Spectrometer: MAYP114033
Trigger mode: 0
Integration Time (sec): 1,000000E0
Scans to average: 5
Electric dark correction enabled: true
Nonlinearity correction enabled: false
Boxcar width: 3
XAxis mode: Wavelengths
Number of Pixels in Spectrum: 2068
>>>>>Begin Spectral Data<<<<<
199,4	-0,317
199,9	-1,147
200,4	-5,133
200,8	-3,124
201,3	-3,524
201,8	-2,295
202,2	-4,495
202,7	-1,267
203,2	-1,152
203,6	2,19
204,1	-4,495
204,6	-6,61
205	-7,81
205,5	-6,61
206	-10,01
206,4	-8,038
206,9	-8,21
207,4	-2,638
207,8	1,762
208,3	1,933
208,8	2,933
209,2	5,419
209,7	4,962
210,2	3,819
210,6	5,048
211,1	4,533
211,5	-0,61
212	1,533
212,5	-0,781
212,9	-1,41
213,4	1,276
213,9	-1,867
214,3	-0,267
214,8	6,39
215,3	1,762
215,7	3,362
216,2	6,248
216,7	4,59
217,1	4,676
217,6	2,362
218,1	-1,152
218,5	-2,381
219	-8,867
219,5	-11,552
219,9	-11,895
220,4	-4,61
220,9	-4,867
221,3	-1,01
221,8	2,79
222,3	10,476
222,7	11,362
223,2	12,248
223,6	4,876
224,1	1,248
224,6	0,619
225	-2,295
225,5	-5,867
226	-5,438
226,4	-0,638
226,9	2,019
227,4	9,219
227,8	3,276
228,3	5,162
228,8	3,305
229,2	2,933
229,7	0,105
230,2	-2,038
230,6	-3,781
231,1	7,648
231,5	10,048
232	13,705
232,5	12,305
232,9	10,762
233,4	9,905
233,9	7,162
234,3	-0,838
234,8	-1,81
235,3	-4,524
235,7	0,305
236,2	-1,552
236,7	4,505
237,1	7,59
237,6	8,048
238,1	8,076
238,5	3,19
239	0,048
239,4	3,933
239,9	-1,524
240,4	-3,381
240,8	-0,01
241,3	-6,895
241,8	-0,21
242,2	-2,238
242,7	-6,438
243,2	-4,924
243,6	-7,152
244,1	-6,095
244,6	2,19
245	1,533
245,5	1,733
245,9	0,848
246,4	2,876
246,9	5,99
247,3	2,876
247,8	1,648
248,3	5,276
248,7	4,676
249,2	8,133
249,7	4,619
250,1	5,333
250,6	6,39
251	6,705
251,5	4,419
252	6,048
252,4	3,105
252,9	0,19
253,4	-4,124
253,8	-7,552
254,3	-8,895
254,8	-9,752
255,2	-11,152
255,7	-9,61
256,1	-6,01
256,6	-3,438
257,1	-2,381
257,5	-3,638
258	-3,667
258,5	-4,438
258,9	-4,952
259,4	-6,667
259,9	-6,238
260,3	-9,895
260,8	-14,181
261,2	-14,038
261,7	-10,61
262,2	-10,895
262,6	-11,667
263,1	-8,867
263,6	-2,467
264	6,076
264,5	8,362
264,9	3,59
265,4	3,933
265,9	6,819
266,3	5,848
266,8	8,048
267,3	6,705
267,7	2,105
268,2	2,419
268,7	6,619
269,1	5,133
269,6	2,705
270	3,419
270,5	-0,495
271	0,476
271,4	2,419
271,9	-8,067
272,4	-2,067
272,8	-2,838
273,3	-11,181
273,7	-10,01
274,2	-12,352
274,7	-12,438
275,1	-6,724
275,6	-10,952
276,1	-12,495
276,5	-6,21
277	-7,381
277,4	-3,581
277,9	-0,267
278,4	-0,038
278,8	1,162
279,3	1,533
279,8	2,79
280,2	3,219
280,7	3,419
281,1	-0,01
281,6	0,448
282,1	1,362
282,5	0,905
283	-2,667
283,4	-3,152
283,9	-3,952
284,4	0,762
284,8	3,276
285,3	1,905
285,8	6,105
286,2	4,59
286,7	5,676
287,1	4,59
287,6	0,219
288,1	-5,667
288,5	-4,924
289	-9,324
289,5	-3,724
289,9	-1,238
290,4	4,448
290,8	3,076
291,3	7,448
291,8	9,419
292,2	13,248
292,7	9,905
293,1	7,533
293,6	9,019
294,1	9,762
294,5	10,648
295	7,362
295,5	3,962
295,9	3,962
296,4	5,162
296,8	-1,381
297,3	0,505
297,8	-6,952
298,2	-9,295
298,7	-5,695
299,1	-3,695
299,6	-6,238
300,1	-4,067
300,5	-2,581
301	5,419
301,5	12,933
301,9	4,819
302,4	1,448
302,8	2,248
303,3	-1,267
303,8	-5,695
304,2	-10,524
304,7	-12,61
305,1	-9,152
305,6	-10,495
306,1	-4,267
306,5	0,276
307	3,59
307,4	9,876
307,9	4,248
308,4	6,333
308,8	1,819
309,3	-1,981
309,8	-3,124
310,2	-5,067
310,7	-11,21
311,1	-10,038
311,6	-8,752
312,1	-2,095
312,5	-1,067
313	-0,581
313,4	5,562
313,9	7,305
314,4	8,219
314,8	5,59
315,3	4,305
315,7	1,248
316,2	-1,352
316,7	-4,267
317,1	0,019
317,6	0,419
318	8,505
318,5	6,619
319	4,19
319,4	6,476
319,9	5,819
320,3	4,79
320,8	5,39
321,3	3,162
321,7	8,133
322,2	12,333
322,6	12,505
323,1	6,476
323,6	2,876
324	-0,01
324,5	-3,924
324,9	-3,81
325,4	-2,41
325,9	0,39
326,3	4,762
326,8	6,648
327,2	5,848
327,7	5,933
328,2	4,105
328,6	6,562
329,1	-1,667
329,5	-1,038
330	-1,381
330,5	2,476
330,9	3,676
331,4	3,019
331,8	-3,781
332,3	3,019
332,8	3,419
333,2	2,562
333,7	5,848
334,1	6,848
334,6	3,133
335,1	2,105
335,5	0,476
336	-3,724
336,4	-1,924
336,9	2,505
337,4	5,619
337,8	8,505
338,3	8,733
338,7	11,076
339,2	16,962
339,7	15,476
340,1	5,59
340,6	1,876
341	2,048
341,5	4,59
342	1,076
342,4	-3,781
342,9	-6,181
343,3	-4,41
343,8	-6,838
344,2	-7,952
344,7	-4,581
345,2	-2,867
345,6	0,048
346,1	5,39
346,5	-0,152
347	1,362
347,5	0,819
347,9	3,276
348,4	0,876
348,8	2,305
349,3	-1,41
349,8	4,419
350,2	7,79
350,7	8,305
351,1	2,676
351,6	7,276
352	9,162
352,5	13,048
353	15,676
353,4	19,476
353,9	27,248
354,3	39,333
354,8	44,648
355,3	56,762
355,7	72,933
356,2	89,362
356,6	104,476
357,1	123,39
357,5	144,448
358	173,962
358,5	194,048
358,9	222,162
359,4	253,362
359,8	290,162
360,3	338,105
360,8	377,733
361,2	423,476
361,7	481,476
362,1	546,876
362,6	615,905
363	687,248
363,5	760,648
364	853,133
364,4	940,133
364,9	1031,105
365,3	1113,476
365,8	1191,076
366,3	1266,562
366,7	1332,848
367,2	1392,448
367,6	1441,876
368,1	1477,048
368,5	1499,676
369	1516,19
369,5	1519,876
369,9	1508,533
370,4	1477,19
370,8	1440,276
371,3	1394,305
371,7	1345,476
372,2	1283,162
372,7	1221,39
373,1	1157,333
373,6	1093,933
374	1029,533
374,5	963,076
374,9	897,448
375,4	837,562
375,9	773,19
376,3	712,276
376,8	653,476
377,2	601,048
377,7	552,962
378,2	507,905
378,6	467,076
379,1	427,39
379,5	399,562
380	367,333
380,4	335,905
380,9	307,305
381,4	278,419
381,8	260,79
382,3	246,905
382,7	222,762
383,2	207,562
383,6	194,105
384,1	185,219
384,6	176,19
385	157,676
385,5	143,533
385,9	132,99
386,4	124,19
386,8	115,99
387,3	106,819
387,7	99,676
388,2	97,59
388,7	90,533
389,1	84,876
389,6	81,59
390	77,133
390,5	73,162
390,9	70,276
391,4	63,848
391,9	62,448
392,3	61,962
392,8	52,819
393,2	49,248
393,7	46,162
394,1	36,019
394,6	35,819
395,1	33,99
395,5	32,105
396	38,219
396,4	39,048
396,9	37,676
397,3	48,676
397,8	49,848
398,2	50,076
398,7	49,248
399,2	44,733
399,6	44,733
400,1	41,362
400,5	35,962
401	30,505
401,4	26,99
401,9	31,876
402,4	35,448
402,8	35,162
403,3	43,133
403,7	40,162
404,2	45,733
404,6	50,276
405,1	47,362
405,5	44,648
406	45,476
406,5	41,533
406,9	49,533
407,4	54,362
407,8	59,39
408,3	63,962
408,7	66,276
409,2	72,248
409,6	78,105
410,1	82,076
410,6	93,419
411	96,219
411,5	99,39
411,9	109,619
412,4	115,362
412,8	125,162
413,3	134,076
413,7	131,276
414,2	138,533
414,7	151,476
415,1	165,105
415,6	175,705
416	186,105
416,5	196,133
416,9	207,933
417,4	226,39
417,8	247,076
418,3	260,105
418,8	275,448
419,2	291,162
419,7	307,133
420,1	329,476
420,6	343,019
421	346,562
421,5	366,305
421,9	385,133
422,4	404,762
422,8	424,848
423,3	444,648
423,8	467,705
424,2	495,248
424,7	517,848
425,1	542,962
425,6	573,533
426	604,105
426,5	638,648
426,9	672,048
427,4	706,648
427,9	735,276
428,3	777,162
428,8	813,305
429,2	854,362
429,7	892,79
430,1	934,19
430,6	980,905
431	1039,019
431,5	1092,733
431,9	1143,79
432,4	1201,333
432,8	1262,362
433,3	1331,819
433,8	1401,419
434,2	1474,105
434,7	1548,19
435,1	1625,876
435,6	1709,476
436	1790,562
436,5	1874,048
436,9	1957,676
437,4	2050,133
437,8	2145,762
438,3	2251,562
438,8	2355,105
439,2	2465,648
439,7	2580,59
440,1	2706,99
440,6	2827,276
441	2946,619
441,5	3071,048
441,9	3205,79
442,4	3341,133
442,8	3480,648
443,3	3625,248
443,7	3780,619
444,2	3945,333
444,7	4112,505
445,1	4283,333
445,6	4455,819
446	4639,676
446,5	4818,705
446,9	4995,619
447,4	5181,533
447,8	5377,648
448,3	5570,933
448,7	5773,99
449,2	5978,733
449,6	6191,19
450,1	6409,276
450,6	6629,676
451	6851,276
451,5	7081,476
451,9	7324,533
452,4	7556,362
452,8	7796,133
453,3	8043,505
453,7	8296,705
454,2	8546,248
454,6	8806,733
455,1	9060,448
455,5	9325,419
456	9594,962
456,4	9853,648
456,9	10123,733
457,3	10400,19
457,8	10664,962
458,3	10941,276
458,7	11226,19
459,2	11513,59
459,6	11806,362
460,1	12093,076
460,5	12385,619
461	12691,476
461,4	12985,39
461,9	13275,219
462,3	13567,476
462,8	13863,39
463,2	14154,105
463,7	14452,448
464,1	14740,133
464,6	15032,019
465	15332,305
465,5	15625,39
466	15915,019
466,4	16211,019
466,9	16501,333
467,3	16791,419
467,8	17089,676
468,2	17374,39
468,7	17658,505
469,1	17955,019
469,6	18233,848
470	18500,705
470,5	18772,962
470,9	19036,248
471,4	19308,305
471,8	19573,19
472,3	19816,162
472,7	20073,333
473,2	20327,048
473,6	20562,276
474,1	20803,848
474,5	21031,876
475	21255,362
475,4	21485,076
475,9	21704,733
476,4	21915,219
476,8	22127,619
477,3	22320,962
477,7	22516,533
478,2	22711,048
478,6	22892,19
479,1	23048,19
479,5	23221,276
480	23368,933
480,4	23532,562
480,9	23671,105
481,3	23798,59
481,8	23932,962
482,2	24063,762
482,7	24174,876
483,1	24303,79
483,6	24402,019
484	24497,39
484,5	24593,99
484,9	24664,448
485,4	24745,133
485,8	24819,905
486,3	24879,648
486,7	24920,362
487,2	24973,248
487,6	25016,076
488,1	25053,962
488,5	25077,933
489	25092,905
489,4	25107,933
489,9	25108,476
490,4	25094,162
490,8	25066,305
491,3	25048,019
491,7	25025,448
492,2	24996,162
492,6	24954,476
493,1	24906,619
493,5	24841,448
494	24783,162
494,4	24713,133
494,9	24636,59
495,3	24550,505
495,8	24461,905
496,2	24402,99
496,7	24325,762
497,1	24260,848
497,6	24168,019
498	24061,048
498,5	23965,419
498,9	23862,19
499,4	23738,19
499,8	23643,819
500,3	23504,762
500,7	23380,819
501,2	23262,733
501,6	23134,79
502,1	23007,276
502,5	22885,876
503	22746,99
503,4	22615,419
503,9	22483,448
504,3	22355,276
504,8	22204,705
505,2	22055,676
505,7	21910,476
506,1	21765,162
506,6	21607,876
507	21455,962
507,5	21291,933
507,9	21135,333
508,4	20974,305
508,8	20803,533
509,3	20623,419
509,7	20468,705
510,2	20304,162
510,6	20131,019
511,1	19958,048
511,5	19782,048
512	19607,476
512,4	19440,419
512,9	19250,476
513,3	19077,933
513,8	18902,933
514,2	18727,905
514,7	18559,848
515,1	18372,962
515,6	18181,648
516	18008,133
516,5	17820,562
516,9	17641,876
517,4	17456,248
517,8	17274,876
518,3	17104,876
518,7	16925,619
519,2	16743,762
519,6	16557,848
520,1	16376,648
520,5	16211,705
521	16024,505
521,4	15848,533
521,9	15687,848
522,3	15511,619
522,8	15348,019
523,2	15182,505
523,7	15004,019
524,1	14838,162
524,6	14667,19
525	14505,648
525,5	14351,905
525,9	14198,905
526,4	14045,133
526,8	13902,962
527,3	13759,619
527,7	13619,219
528,2	13460,39
528,6	13297,333
529,1	13143,133
529,5	12991,933
530	12836,219
530,4	12684,962
530,9	12526,762
531,3	12393,819
531,8	12264,705
532,2	12125,39
532,6	11980,162
533,1	11840,076
533,5	11701,619
534	11581,419
534,4	11434,905
534,9	11305,733
535,3	11168,848
535,8	11045,448
536,2	10926,076
536,7	10797,219
537,1	10671,762
537,6	10559,676
538	10439,19
538,5	10333,219
538,9	10207,562
539,4	10084,59
539,8	9974,133
540,3	9863,848
540,7	9746,562
541,2	9631,705
541,6	9514,505
542,1	9417,905
542,5	9321,705
543	9220,848
543,4	9111,876
543,9	9014,248
544,3	8924,362
544,8	8820,705
545,2	8720,419
545,7	8626,305
546,1	8535,648
546,5	8444,676
547	8351,305
547,4	8260,933
547,9	8176,476
548,3	8093,733
548,8	8000,076
549,2	7904,448
549,7	7818,476
550,1	7747,848
550,6	7664,676
551	7591,59
551,5	7511,905
551,9	7439,39
552,4	7371,848
552,8	7298,533
553,3	7215,076
553,7	7130,333
554,2	7051,562
554,6	6980,648
555,1	6905,905
555,5	6835,419
555,9	6765,248
556,4	6694,019
556,8	6642,276
557,3	6577,876
557,7	6509,219
558,2	6453,219
558,6	6390,333
559,1	6328,59
559,5	6268,162
560	6201,333
560,4	6141,133
560,9	6091,105
561,3	6029,19
561,8	5974,876
562,2	5918,076
562,7	5866,39
563,1	5821,476
563,6	5765,876
564	5705,19
564,4	5650,419
564,9	5597,905
565,3	5550,562
565,8	5496,448
566,2	5435,019
566,7	5391,562
567,1	5353,905
567,6	5304,705
568	5255,705
568,5	5213,762
568,9	5166,99
569,4	5120,59
569,8	5075,99
570,3	5019,505
570,7	4975,076
571,1	4936,819
571,6	4885,333
572	4851,133
572,5	4809,248
572,9	4763,762
573,4	4720,905
573,8	4686,933
574,3	4642,362
574,7	4604,819
575,2	4560,99
575,6	4522,905
576,1	4483,79
576,5	4455,505
576,9	4413,962
577,4	4376,362
577,8	4336,619
578,3	4292,648
578,7	4257,905
579,2	4225,648
579,6	4182,019
580,1	4141,905
580,5	4106,39
581	4074,476
581,4	4046,733
581,9	4005,905
582,3	3966,333
582,7	3935,848
583,2	3904,848
583,6	3872,533
584,1	3836,79
584,5	3805,962
585	3782,333
585,4	3751,619
585,9	3719,762
586,3	3696,19
586,8	3668,019
587,2	3637,962
587,6	3607,39
588,1	3579,848
588,5	3556,533
589	3531,019
589,4	3495,162
589,9	3461,876
590,3	3434,533
590,8	3411,705
591,2	3384,162
591,7	3362,848
592,1	3338,505
592,5	3319,848
593	3290,505
593,4	3268,733
593,9	3242,476
594,3	3216,876
594,8	3186,019
595,2	3158,676
595,7	3136,533
596,1	3120,905
596,6	3101,933
597	3079,076
597,4	3064,562
597,9	3042,133
598,3	3026,305
598,8	3001,762
599,2	2985,305
599,7	2963,533
600,1	2940,39
600,6	2921,19
601	2908,79
601,4	2896,076
601,9	2879,905
602,3	2857,448
602,8	2839,048
603,2	2820,905
603,7	2794,105
604,1	2763,562
604,6	2734,048
605	2709,79
605,4	2699,276
605,9	2677,933
606,3	2655,962
606,8	2637,162
607,2	2624,79
607,7	2599,876
608,1	2581,733
608,6	2559,562
609	2544,219
609,4	2531,476
609,9	2515,619
610,3	2497,533
610,8	2481,248
611,2	2474,248
611,7	2453,476
612,1	2435,619
612,6	2416,019
613	2403,733
613,4	2385,076
613,9	2373,448
614,3	2349,333
614,8	2337,533
615,2	2321,59
615,7	2311,476
616,1	2287,019
616,6	2270,733
617	2258,362
617,4	2245,733
617,9	2230,019
618,3	2216,562
618,8	2204,105
619,2	2192,533
619,7	2181,733
620,1	2164,305
620,5	2148,905
621	2133,848
621,4	2114,962
621,9	2092,048
622,3	2080,876
622,8	2067,99
623,2	2051,705
623,6	2039,848
624,1	2021,105
624,5	2003,333
625	1999,762
625,4	1981,819
625,9	1968,562
626,3	1955,562
626,8	1936,362
627,2	1924,19
627,6	1908,19
628,1	1883,79
628,5	1872,705
629	1849,133
629,4	1832,79
629,9	1821,419
630,3	1804,533
630,7	1795,19
631,2	1785,362
631,6	1767,933
632,1	1760,448
632,5	1748,99
633	1738,962
633,4	1731,219
633,8	1722,59
634,3	1707,105
634,7	1698,076
635,2	1683,333
635,6	1673,219
636,1	1659,619
636,5	1644,105
636,9	1626,248
637,4	1616,048
637,8	1601,819
638,3	1591,248
638,7	1582,162
639,2	1569,476
639,6	1560,133
640	1550,733
640,5	1538,419
640,9	1530,648
641,4	1520,162
641,8	1506,133
642,2	1495,562
642,7	1490,248
643,1	1483,79
643,6	1476,619
644	1464,848
644,5	1456,105
644,9	1453,962
645,3	1441,848
645,8	1426,705
646,2	1418,733
646,7	1403,733
647,1	1395,448
647,6	1387,133
648	1375,305
648,4	1369,448
648,9	1359,162
649,3	1346,59
649,8	1340,59
650,2	1336,39
650,6	1328,448
651,1	1316,676
651,5	1310,533
652	1302,905
652,4	1292,619
652,9	1285,276
653,3	1268,533
653,7	1259,648
654,2	1245,733
654,6	1229,933
655,1	1224,705
655,5	1221,533
655,9	1211,505
656,4	1209,019
656,8	1200,676
657,3	1197,648
657,7	1195,419
658,2	1188,905
658,6	1177,705
659	1171,876
659,5	1160,133
659,9	1149,933
660,4	1141,333
660,8	1133,19
661,2	1118,933
661,7	1112,019
662,1	1102,762
662,6	1093,248
663	1085,505
663,4	1075,933
663,9	1068,133
664,3	1062,133
664,8	1049,505
665,2	1042,448
665,6	1036,105
666,1	1028,59
666,5	1024,105
667	1014,762
667,4	1005,105
667,9	998,362
668,3	991,362
668,7	986,276
669,2	981,362
669,6	974,162
670,1	968,59
670,5	961,276
670,9	953,933
671,4	945,79
671,8	935,048
672,3	929,505
672,7	920,448
673,1	906,705
673,6	901,305
674	900,933
674,5	893,848
674,9	886,19
675,3	874,448
675,8	870,19
676,2	865,933
676,7	861,99
677,1	852,533
677,5	844,448
678	841,876
678,4	839,105
678,9	832,848
679,3	826,276
679,7	819,219
680,2	812,505
680,6	803,248
681,1	795,848
681,5	792,848
681,9	784,362
682,4	783,676
682,8	783,476
683,3	782,305
683,7	783,962
684,1	779,133
684,6	771,19
685	767,362
685,5	760,562
685,9	745,819
686,3	733,819
686,8	723,705
687,2	720,419
687,7	711,219
688,1	700,676
688,5	696,39
689	697,676
689,4	694,048
689,9	692,019
690,3	683,19
690,7	685,19
691,2	685,305
691,6	677,248
692	670,39
692,5	670,39
692,9	663,362
693,4	657,39
693,8	650,219
694,2	645,676
694,7	638,876
695,1	633,648
695,6	625,676
696	624,333
696,4	621,79
696,9	612,019
697,3	606,39
697,8	601,648
698,2	592,962
698,6	590,276
699,1	586,705
699,5	584,705
699,9	581,105
700,4	572,19
700,8	569,705
701,3	570,276
701,7	560,99
702,1	551,505
702,6	546,505
703	544,848
703,5	542,333
703,9	536,362
704,3	532,419
704,8	530,476
705,2	530,562
705,6	527,933
706,1	526,076
706,5	523,562
707	522,533
707,4	519,19
707,8	511,19
708,3	506,79
708,7	500,59
709,2	495,762
709,6	492,676
710	489,39
710,5	481,076
710,9	480,905
711,3	476,248
711,8	477,048
712,2	471,362
712,7	468,39
713,1	464,476
713,5	466,676
714	463,733
714,4	459,133
714,8	451,248
715,3	447,248
715,7	444,705
716,2	437,99
716,6	434,905
717	430,876
717,5	426,99
717,9	426,162
718,3	422,448
718,8	415,362
719,2	414,619
719,7	406,476
720,1	405,39
720,5	411,562
721	405,619
721,4	399,905
721,8	405,848
722,3	400,019
722,7	400,533
723,2	391,819
723,6	374,505
724	367,419
724,5	366,648
724,9	359,676
725,3	361,39
725,8	354,819
726,2	357,533
726,7	360,619
727,1	362,648
727,5	363,819
728	358,933
728,4	356,505
728,8	354,676
729,3	348,248
729,7	343,305
730,1	338,848
730,6	335,305
731	329,676
731,5	326,905
731,9	325,905
732,3	327,648
732,8	328,105
733,2	326,676
733,6	322,248
734,1	324,619
734,5	320,705
734,9	320,676
735,4	320,419
735,8	314,419
736,3	316,876
736,7	314,419
737,1	314,248
737,6	312,562
738	311,59
738,4	305,819
738,9	309,59
739,3	305,305
739,7	306,962
740,2	299,39
740,6	304,105
741,1	302,648
741,5	297,419
741,9	295,219
742,4	295,562
742,8	293,476
743,2	292,533
743,7	283,105
744,1	276,476
744,5	275,276
745	272,905
745,4	263,819
745,8	263,362
746,3	264,876
746,7	263,79
747,2	263,848
747,6	267,562
748	268,333
748,5	274,962
748,9	268,648
749,3	265,876
749,8	267,105
750,2	265,048
750,6	262,362
751,1	262,819
751,5	252,733
751,9	253,562
752,4	255,962
752,8	251,905
753,3	251,448
753,7	248,99
754,1	240,305
754,6	241,105
755	238,133
755,4	233,419
755,9	231,105
756,3	227,848
756,7	225,933
757,2	225,79
757,6	228,79
758	223,305
758,5	217,448
758,9	216,705
759,3	213,905
759,8	214,419
760,2	213,848
760,6	207,905
761,1	209,619
761,5	210,533
761,9	207,733
762,4	205,505
762,8	203,79
763,3	200,59
763,7	202,676
764,1	202,962
764,6	203,133
765	204,99
765,4	205,99
765,9	200,133
766,3	201,305
766,7	194,99
767,2	191,648
767,6	194,076
768	190,39
768,5	186,276
768,9	189,933
769,3	188,39
769,8	187,905
770,2	190,19
770,6	185,133
771,1	189,219
771,5	190,762
771,9	192,59
772,4	189,905
772,8	187,619
773,2	186,676
773,7	185,39
774,1	176,79
774,5	172,19
775	168,79
775,4	169,676
775,8	168,076
776,3	167,419
776,7	164,305
777,1	165,219
777,6	167,705
778	167,962
778,4	164,533
778,9	170,419
779,3	168,105
779,7	172,048
780,2	173,848
780,6	173,562
781	168,133
781,5	161,733
781,9	157,733
782,3	151,762
782,8	148,162
783,2	141,333
783,6	141,79
784,1	140,962
784,5	143,705
784,9	141,819
785,4	145,876
785,8	144,848
786,2	148,219
786,7	146,333
787,1	142,048
787,5	143,79
788	144,219
788,4	144,276
788,8	142,305
789,3	142,133
789,7	140,819
790,1	146,219
790,6	148,248
791	145,762
791,4	145,99
791,9	142,962
792,3	137,048
792,7	141,476
793,2	135,905
793,6	132,248
794	132,79
794,5	124,019
794,9	126,619
795,3	130,019
795,8	123,362
796,2	126,419
796,6	124,533
797,1	120,762
797,5	121,59
797,9	118,076
798,4	116,705
798,8	115,219
799,2	109,933
799,7	115,619
800,1	118,162
800,5	121,876
801	126,505
801,4	121,619
801,8	117,019
802,2	115,876
802,7	104,648
803,1	104,105
803,5	102,905
804	95,105
804,4	100,505
804,8	102,762
805,3	106,505
805,7	112,848
806,1	112,105
806,6	110,162
807	114,162
807,4	110,705
807,9	108,219
808,3	107,419
808,7	104,133
809,2	109,533
809,6	112,276
810	108,048
810,4	104,648
810,9	104,419
811,3	104,39
811,7	105,248
812,2	101,533
812,6	98,533
813	102,476
813,5	107,905
813,9	109,533
814,3	106,048
814,8	102,533
815,2	94,762
815,6	93,705
816,1	93,448
816,5	88,562
816,9	85,333
817,3	86,448
817,8	93,705
818,2	97,79
818,6	92,962
819,1	86,105
819,5	82,562
819,9	83,905
820,4	81,733
820,8	72,448
821,2	70,048
821,7	75,59
822,1	78,676
822,5	87,619
822,9	86,59
823,4	86,19
823,8	86,933
824,2	86,962
824,7	77,276
825,1	74,476
825,5	64,648
826	60,79
826,4	60,533
826,8	62,219
827,3	65,333
827,7	67,248
828,1	67,876
828,5	71,933
829	70,533
829,4	67,619
829,8	58,905
830,3	55,676
830,7	54,562
831,1	57,733
831,6	56,562
832	60,076
832,4	60,876
832,8	71,562
833,3	71,648
833,7	71,248
834,1	65,19
834,6	61,962
835	61,733
835,4	60,533
835,8	48,648
836,3	50,876
836,7	55,705
837,1	56,162
837,6	60,019
838	58,448
838,4	57,819
838,9	63,533
839,3	53,19
839,7	52,505
840,1	50,619
840,6	47,133
841	45,619
841,4	48,705
841,9	47,305
842,3	49,248
842,7	46,019
843,1	46,733
843,6	48,533
844	52,876
844,4	56,305
844,9	58,705
845,3	59,762
845,7	61,59
846,2	59,162
846,6	55,019
847	50,876
847,4	47,333
847,9	46,048
848,3	44,162
848,7	40,39
849,2	45,933
849,6	45,276
850	51,705
850,4	50,962
850,9	53,219
851,3	57,162
851,7	61,562
852,2	53,076
852,6	56,505
853	50,733
853,4	46,362
853,9	43,019
854,3	42,19
854,7	41,676
855,2	48,39
855,6	47,248
856	43,533
856,4	42,762
856,9	43,133
857,3	43,562
857,7	42,276
858,2	42,048
858,6	39,876
859	43,876
859,4	45,133
859,9	43,79
860,3	38,762
860,7	37,105
861,1	37,733
861,6	35,39
862	33,076
862,4	35,39
862,9	37,105
863,3	40,276
863,7	37,505
864,1	37,219
864,6	40,019
865	39,19
865,4	36,419
865,9	37,333
866,3	30,933
866,7	31,419
867,1	22,105
867,6	20,476
868	20,819
868,4	16,562
868,8	13,99
869,3	17,762
869,7	22,762
870,1	25,448
870,6	27,048
871	-45,152
871,4	-36,41
871,8	-40,152
872,3	-38,238
872,7	-39,752
873,1	-37,01
873,5	-39,552
874	31,819
874,4	26,648
874,8	24,305
875,3	23,962
875,7	20,276
876,1	16,733
876,5	20,276
877	18,333
877,4	15,048
877,8	20,848
878,2	20,562
878,7	24,076
879,1	29,476
879,5	29,133
879,9	34,79
880,4	36,248
880,8	32,448
881,2	32,305
881,7	29,105
882,1	29,105
882,5	28,305
882,9	24,105
883,4	23,562
883,8	27,39
884,2	22,848
884,6	20,762
885,1	18,39
885,5	16,562
885,9	18,162
886,3	20,905
886,8	15,619
887,2	15,533
887,6	16,39
888	13,99
888,5	12,705
888,9	10,133
889,3	5,248
889,8	6,705
890,2	8,933
890,6	8,848
891	13,448
891,5	16,619
891,9	15,533
892,3	20,676
892,7	25,076
893,2	25,162
893,6	28,19
894	28,019
894,4	26,219
894,9	24,39
895,3	23,819
895,7	22,79
896,1	24,162
896,6	21,219
897	20,39
897,4	23,333
897,8	28,105
898,3	28,419
898,7	23,762
899,1	22,79
899,5	20,762
900	15,619
900,4	14,876
900,8	14,619
901,2	9,419
901,7	9,048
902,1	8,333
902,5	9,419
902,9	12,619
903,4	10,362
903,8	5,448
904,2	6,79
904,6	8,276
905,1	10,19
905,5	12,248
905,9	12,333
906,3	16,476
906,8	23,39
907,2	24,448
907,6	28,133
908	28,99
908,5	28,59
908,9	24,733
909,3	20,876
909,7	17,305
910,2	16,733
910,6	14,476
911	10,019
911,4	10,99
911,9	10,619
912,3	7,305
912,7	11,762
913,1	14,133
913,6	15,79
914	19,162
914,4	16,39
914,8	19,619
915,3	18,476
915,7	15,276
916,1	11,648
916,5	12,762
916,9	11,305
917,4	10,276
917,8	10,448
918,2	9,533
918,6	4,905
919,1	7,419
919,5	6,562
919,9	5,362
920,3	0,676
920,8	0,962
921,2	3,133
921,6	5,19
922	4,733
922,5	-1,181
922,9	-2,21
923,3	4,19
923,7	2,562
924,2	1,59
924,6	-1,695
925	1,076
925,4	3,162
925,8	3,905
926,3	3,076
926,7	0,219
927,1	0,876
927,5	4,705
928	-2,067
928,4	-1,924
928,8	-1,724
929,2	-4,438
929,7	-0,124
930,1	1,962
930,5	3,048
930,9	5,562
931,3	7,762
931,8	8,419
932,2	11,105
932,6	7,105
933	-0,038
933,5	1,333
933,9	3,762
934,3	4,105
934,7	-0,638
935,2	3,248
935,6	6,905
936	10,362
936,4	8,362
936,8	9,248
937,3	3,133
937,7	9,076
938,1	7,505
938,5	0,819
939	5,333
939,4	6,276
939,8	4,905
940,2	9,762
940,6	8,648
941,1	5,476
941,5	14,305
941,9	8,59
942,3	3,019
942,8	2,99
943,2	5,819
943,6	0,59
944	3,676
944,4	2,219
944,9	5,79
945,3	10,39
945,7	5,79
946,1	2,905
946,6	3,762
947	0,019
947,4	0,59
947,8	1,648
948,2	-1,724
948,7	-2,01
949,1	-4,552
949,5	1,848
949,9	4,076
950,3	5,19
950,8	3,648
951,2	5,019
951,6	6,676
952	7,248
952,5	2,219
952,9	1,533
953,3	-3,752
953,7	-1,981
954,1	2,733
954,6	3,962
955	7,162
955,4	5,219
955,8	7,505
956,2	9,362
956,7	5,076
957,1	0,619
957,5	1,99
957,9	-3,41
958,3	-1,324
958,8	-0,295
959,2	0,676
959,6	2,876
960	-1,324
960,5	-0,124
960,9	4,219
961,3	1,533
961,7	-3,61
962,1	-4,495
962,6	-1,21
963	4,762
963,4	-1,838
963,8	-5,895
964,2	0,162
964,7	1,533
965,1	1,648
965,5	-0,924
965,9	-4,324
966,3	1,505
966,8	2,333
967,2	-1,095
967,6	-0,238
968	-1,924
968,4	-3,752
968,9	-2,61
969,3	0,276
969,7	-0,552
970,1	3,362
970,5	0,905
971	4,905
971,4	9,076
971,8	10,048
972,2	8,362
972,6	8,99
973,1	4,048
973,5	2,39
973,9	-0,695
974,3	-3,467
974,7	-1,095
975,2	-5,267
975,6	-5,781
976	-3,324
976,4	0,762
976,8	3,105
977,3	0,819
977,7	-5,581
978,1	-3,095
978,5	-3,067
978,9	-4,952
979,4	-6,667
979,8	-9,381
980,2	-8,381
980,6	-7,495
981	-1,552
981,5	-3,124
981,9	0,762
982,3	2,848
982,7	7,39
983,1	5,076
983,6	9,476
984	4,019
984,4	5,619
984,8	5,533
985,2	5,105
985,6	-0,752
986,1	4,333
986,5	4,476
986,9	-2,781
987,3	-0,724
987,7	-1,295
988,2	-3,952
988,6	-2,152
989	-8,067
989,4	-13,467
989,8	-8,781
990,3	-9,524
990,7	-13,267
991,1	-11,41
991,5	-7,895
991,9	-2,81
992,3	0,419
992,8	0,019
993,2	0,59
993,6	1,648
994	4,762
994,4	-0,01
994,9	1,505
995,3	0,762
995,7	1,59
996,1	-1,067
996,5	-0,924
996,9	-7,781
997,4	-3,267
997,8	-8,238
998,2	-8,924
998,6	-14,781
999	-14,581
999,5	-15,124
999,9	-9,667
1000,3	-14,667
1000,7	-9,495
1001,1	-7,095
1001,5	1,648
1002	9,133
1002,4	14,133
1002,8	8,733
1003,2	13,362
1003,6	10,676
1004	12,819
1004,5	6,876
1004,9	6,219
1005,3	-1,238
1005,7	2,876
1006,1	1,648
1006,6	2,076
1007	2,79
1007,4	7,133
1007,8	1,448
1008,2	-1,581
1008,6	-2,867
1009,1	-6,867
1009,5	-6,124
1009,9	-9,81
1010,3	-8,181
1010,7	-4,838
1011,1	0,848
1011,6	5,248
1012	8,876
1012,4	7,105
1012,8	5,505
1013,2	6,419
1013,6	8,676
1014,1	8,762
1014,5	5,79
1014,9	5,448
1015,3	5,562
1015,7	6,819
1016,1	4,476
1016,6	-0,181
1017	0,848
1017,4	-2,81
1017,8	-0,352
1018,2	-1,238
1018,6	-1,21
1019,1	-5,067
1019,5	-4,752
1019,9	-6,781
1020,3	-2,038
1020,7	-5,638
1021,1	-6,724
1021,6	-5,952
1022	-0,895
1022,4	-0,295
1022,8	3,59
1023,2	0,333
1023,6	0,962
1024,1	10,305
1024,5	12,133
1024,9	7,59
1025,3	6,676
1025,7	4,419
1026,1	7,048
1026,6	7,276
1027	1,505
1027,4	-0,952
1027,8	-0,552
1028,2	-2,238
1028,6	0,019
1029	-2,438
1029,5	0,476
1029,9	-0,41
1030,3	-3,01
1030,7	-1,324
1031,1	5,648
1031,5	1,99
1032	2,619
1032,4	-3,352
1032,8	-1,638
1033,2	5,476
1033,6	6,362
1034	3,048
1034,4	-1,61
1034,9	1,848
1035,3	3,905
1035,7	2,448
1036,1	-2,095
1036,5	-6,352
1036,9	-10,41
1037,4	-2,01
1037,8	-10,981
1038,2	-10,952
1038,6	-11,038
1039	-10,152
1039,4	-2,181
1039,8	1,133
1040,3	4,076
1040,7	12,933
1041,1	14,162
1041,5	12,705
1041,9	10,105
1042,3	6,905
1042,7	6,933
1043,2	3,133
1043,6	-2,724
1044	-4,467
1044,4	0,019
1044,8	4,733
1045,2	2,648
1045,6	6,276
1046,1	2,448
1046,5	4,39
1046,9	3,219
1047,3	-3,724
1047,7	-5,438
1048,1	-5,181
1048,5	-7,495
1049	-1,152
1049,4	0,162
1049,8	2,619
1050,2	6,533
1050,6	7,705
1051	9,99
1051,4	4,076
1051,9	-7,924
1052,3	-4,324
1052,7	-7,152
1053,1	-8,095
1053,5	-5,724
1053,9	-10,095
1054,3	-8,152
1054,8	5,562
1055,2	2,562
1055,6	6,448
1056	8,105
1056,4	-0,524
1056,8	1,019
1057,2	2,99
1057,6	-2,381
1058,1	-5,781
1058,5	-9,752
1058,9	-8,095
1059,3	-0,01
1059,7	-1,067
1060,1	-2,581
1060,5	-0,952
1061	4,305
1061,4	8,848
1061,8	10,876
1062,2	5,876
1062,6	14,648
1063	16,476
1063,4	16,99
1063,8	13,533
1064,3	10,276
1064,7	7,648
1065,1	8,99
1065,5	-3,352
1065,9	-3,152
1066,3	-5,295
1066,7	-5,324
1067,1	-7,238
1067,6	-5,867
1068	-8,895
1068,4	-2,952
1068,8	0,99
1069,2	2,533
1069,6	2,362
1070	10,79
1070,4	3,705
1070,9	6,876
1071,3	5,648
1071,7	-0,981
1072,1	-5,067
1072,5	-5,695
1072,9	-14,867
1073,3	-10,981
1073,7	-14,41
1074,2	-13,781
1074,6	-10,81
1075	-8,267
1075,4	-6,81
1075,8	-3,038
1076,2	-2,867
1076,6	4,39
1077	1,648
1077,5	4,048
1077,9	2,248
1078,3	-1,638
1078,7	-5,01
1079,1	-2,61
1079,5	-5,695
1079,9	-1,01
1080,3	-3,21
1080,7	-2,324
1081,2	6,362
1081,6	9,533
1082	4,448
1082,4	6,476
1082,8	0,248
1083,2	-1,524
1083,6	1,905
1084	-5,581
1084,5	-3,924
1084,9	-3,324
1085,3	-10,724
1085,7	-8,21
1086,1	-5,267
1086,5	-6,095
1086,9	-0,324
1087,3	0,133
1087,7	3,819
1088,2	8,076
1088,6	8,162
1089	7,476
1089,4	6,448
1089,8	5,99
1090,2	2,419
1090,6	1,248
1091	2,79
1091,4	7,276
1091,9	5,619
1092,3	6,448
1092,7	2,448
1093,1	4,762
1093,5	5,276
1093,9	3,533
1094,3	6,876
1094,7	7,276
1095,1	8,048
1095,5	12,105
1096	7,219
1096,4	9,333
1096,8	9,305
1097,2	5,476
1097,6	7,99
1098	6,362
1098,4	6,533
1098,8	10,533
1099,2	15,019
1099,6	14,848
1100,1	8,762
1100,5	5,162
1100,9	4,705
1101,3	3,019
1101,7	2,362
1102,1	-4,295
1102,5	-2,781
1102,9	2,305
1103,3	4,048
1103,7	6,048
1104,2	5,048
1104,6	4,705
1105	3,019
1105,4	0,648
1105,8	-0,467
1106,2	-1,467
1106,6	-3,467
1107	-3,524
1107,4	-2,967
1107,8	-1,987
1108,3	-0,217
