Data from Subt2_092.txt Node
Date: Sat Aug 26 16:43:09 MSK 2023
User: vat
Spectrometer: MAYP114033
Trigger mode: 0
Integration Time (sec): 1,000000E0
Scans to average: 5
Electric dark correction enabled: true
Nonlinearity correction enabled: false
Boxcar width: 3
XAxis mode: Wavelengths
Number of Pixels in Spectrum: 2068
>>>>>Begin Spectral Data<<<<<
199,4	-0,15
199,9	-0,4
200,4	-0
200,8	1,029
201,3	3,971
201,8	6,286
202,2	7,943
202,7	10,543
203,2	10,743
203,6	13,2
204,1	13,429
204,6	12,543
205	11,886
205,5	11
206	11,6
206,4	15,714
206,9	13,114
207,4	18,543
207,8	14,286
208,3	14,543
208,8	16,571
209,2	16,6
209,7	15,629
210,2	21,657
210,6	17,8
211,1	18,6
211,5	17,543
212	13,171
212,5	6,429
212,9	2,086
213,4	-1,057
213,9	-5
214,3	1,057
214,8	2,229
215,3	6,457
215,7	9,943
216,2	11,371
216,7	6,114
217,1	6,657
217,6	3,086
218,1	1,771
218,5	3,029
219	6,571
219,5	8
219,9	12
220,4	15,886
220,9	19,029
221,3	20,371
221,8	13,571
222,3	11,343
222,7	8,6
223,2	12,514
223,6	9,743
224,1	6,686
224,6	4,943
225	6,943
225,5	8,771
226	11,514
226,4	8,857
226,9	9,286
227,4	11,257
227,8	13,029
228,3	17,457
228,8	12,829
229,2	12,829
229,7	8,371
230,2	11,6
230,6	7,971
231,1	10,6
231,5	10,429
232	16,457
232,5	17,057
232,9	18,457
233,4	19,086
233,9	22,8
234,3	21,143
234,8	18,4
235,3	16,229
235,7	17,629
236,2	16,343
236,7	13,943
237,1	9,429
237,6	6
238,1	7,429
238,5	7,943
239	6,429
239,4	8,343
239,9	4,6
240,4	7,114
240,8	9,771
241,3	4,971
241,8	4,514
242,2	-2,343
242,7	-0,057
243,2	3,057
243,6	4,429
244,1	7,486
244,6	7,971
245	7,114
245,5	14,686
245,9	16,114
246,4	13,486
246,9	10,114
247,3	6,457
247,8	9,6
248,3	11,943
248,7	16,286
249,2	12,057
249,7	16,229
250,1	15,657
250,6	16
251	16,229
251,5	13,257
252	8,257
252,4	9,886
252,9	10,714
253,4	13,286
253,8	12,914
254,3	16,2
254,8	17,771
255,2	14,514
255,7	18,514
256,1	17,371
256,6	20,257
257,1	24,2
257,5	24,886
258	25,229
258,5	28,971
258,9	24,486
259,4	23,429
259,9	23,371
260,3	19,029
260,8	17,314
261,2	17,6
261,7	18,057
262,2	17,229
262,6	15,686
263,1	7,371
263,6	7,6
264	3,686
264,5	4,743
264,9	2,657
265,4	2,857
265,9	7,2
266,3	12,914
266,8	13,943
267,3	20,143
267,7	20,714
268,2	19,457
268,7	19,629
269,1	14,571
269,6	17,6
270	18,371
270,5	15
271	11,771
271,4	11
271,9	12,029
272,4	11,514
272,8	3,714
273,3	1,429
273,7	-0,486
274,2	1,857
274,7	6,114
275,1	1,486
275,6	7,514
276,1	12,629
276,5	17,2
277	21,171
277,4	20,914
277,9	20,343
278,4	28,429
278,8	27,829
279,3	26,857
279,8	25,743
280,2	20,4
280,7	18,229
281,1	19,143
281,6	13,486
282,1	16,114
282,5	18,257
283	15,771
283,4	18,857
283,9	16,629
284,4	11,2
284,8	12,857
285,3	4,686
285,8	3,686
286,2	4,2
286,7	2,229
287,1	4,457
287,6	10,029
288,1	11,057
288,5	17,143
289	18,629
289,5	16,314
289,9	12,457
290,4	11,257
290,8	14,829
291,3	12,8
291,8	10,514
292,2	7,829
292,7	9,971
293,1	14,914
293,6	18,314
294,1	10,629
294,5	14
295	11,543
295,5	15,257
295,9	18,571
296,4	19,714
296,8	13,371
297,3	15,714
297,8	18,086
298,2	15,857
298,7	13,657
299,1	11,4
299,6	13,914
300,1	23,286
300,5	24,086
301	20,657
301,5	22,257
301,9	21,943
302,4	21,457
302,8	16,714
303,3	9,229
303,8	6,457
304,2	4,343
304,7	5,771
305,1	5,286
305,6	3,829
306,1	7
306,5	12,314
307	11,371
307,4	9,257
307,9	8,8
308,4	9,857
308,8	15,486
309,3	14,343
309,8	14,943
310,2	14,314
310,7	24,143
311,1	22,257
311,6	23,6
312,1	19,943
312,5	19,143
313	16,2
313,4	21,171
313,9	21,543
314,4	23,171
314,8	23,714
315,3	23,8
315,7	22,6
316,2	19,4
316,7	21,229
317,1	16,571
317,6	17
318	17,429
318,5	19,057
319	21
319,4	24,029
319,9	20,114
320,3	18,286
320,8	17,171
321,3	13,4
321,7	6,857
322,2	8,286
322,6	8,743
323,1	10,429
323,6	8,229
324	10,857
324,5	6,857
324,9	11,229
325,4	13,086
325,9	14,257
326,3	15,629
326,8	20,686
327,2	18,286
327,7	25
328,2	24,657
328,6	23,229
329,1	25,486
329,5	24,857
330	24,257
330,5	23,286
330,9	23,971
331,4	18,457
331,8	21,743
332,3	25,543
332,8	20,571
333,2	16,257
333,7	20,743
334,1	18,229
334,6	23,6
335,1	22,114
335,5	17,943
336	19,171
336,4	21,686
336,9	20,657
337,4	23,4
337,8	25,057
338,3	18,771
338,7	15,886
339,2	19,971
339,7	20,171
340,1	21,543
340,6	16,886
341	19,829
341,5	26,229
342	27,571
342,4	22,571
342,9	17,8
343,3	19,743
343,8	23,086
344,2	21,314
344,7	17,914
345,2	14,029
345,6	18,114
346,1	24,086
346,5	23,029
347	23,371
347,5	20,571
347,9	19,457
348,4	25,429
348,8	25,771
349,3	30,886
349,8	29,914
350,2	31,886
350,7	38,114
351,1	43,229
351,6	46,029
352	61,4
352,5	66,657
353	83,657
353,4	101,314
353,9	119,429
354,3	143,229
354,8	168,571
355,3	194,029
355,7	228,629
356,2	263,486
356,6	311,086
357,1	362,857
357,5	425,343
358	503,543
358,5	586,371
358,9	681,8
359,4	792,057
359,8	908,914
360,3	1045,371
360,8	1193,886
361,2	1359,686
361,7	1539,8
362,1	1743,886
362,6	1963,171
363	2204,943
363,5	2459,4
364	2719,543
364,4	2980,057
364,9	3239,486
365,3	3491,171
365,8	3734,286
366,3	3956,686
366,7	4159,771
367,2	4338,029
367,6	4480,4
368,1	4596,086
368,5	4670,429
369	4703,229
369,5	4697,314
369,9	4646,743
370,4	4565,457
370,8	4450,714
371,3	4321,029
371,7	4152,914
372,2	3976,514
372,7	3777,2
373,1	3577,457
373,6	3375,4
374	3173,314
374,5	2959,857
374,9	2758,343
375,4	2558,971
375,9	2373,543
376,3	2190,143
376,8	2009,743
377,2	1852,6
377,7	1698,114
378,2	1559,057
378,6	1425,057
379,1	1304,486
379,5	1198,971
380	1105,029
380,4	1002,229
380,9	921,429
381,4	848,314
381,8	782,457
382,3	724,086
382,7	665,029
383,2	609,829
383,6	570,8
384,1	528,057
384,6	488,571
385	454,857
385,5	423,171
385,9	397,314
386,4	374,543
386,8	353,657
387,3	331,829
387,7	312,6
388,2	295,314
388,7	269,886
389,1	249,714
389,6	227,629
390	207,971
390,5	188,371
390,9	178,571
391,4	166,743
391,9	156,943
392,3	144,286
392,8	141,657
393,2	131,8
393,7	131,714
394,1	124,514
394,6	118,743
395,1	117,114
395,5	113,514
396	107,971
396,4	105,171
396,9	98,4
397,3	90,743
397,8	87,629
398,2	83,143
398,7	74,771
399,2	69,829
399,6	69,943
400,1	60,286
400,5	60,571
401	57,571
401,4	52,914
401,9	57,171
402,4	57,457
402,8	50,6
403,3	56,943
403,7	55,857
404,2	55,543
404,6	52,143
405,1	49,429
405,5	43,143
406	42,914
406,5	37,171
406,9	30,229
407,4	28,857
407,8	32,143
408,3	34,657
408,7	45,171
409,2	46,057
409,6	51,229
410,1	59,114
410,6	57,629
411	60,8
411,5	61,543
411,9	57,629
412,4	57,114
412,8	62,714
413,3	63,857
413,7	69,257
414,2	71,743
414,7	79,857
415,1	76,686
415,6	87,486
416	83,629
416,5	87,2
416,9	88,171
417,4	91,514
417,8	87,743
418,3	95,886
418,8	92,857
419,2	98,371
419,7	100,571
420,1	96,543
420,6	100,514
421	104,657
421,5	106
421,9	106,171
422,4	104,543
422,8	104,286
423,3	106,943
423,8	104,514
424,2	104,171
424,7	100,543
425,1	99,971
425,6	101,829
426	102,686
426,5	104,457
426,9	105,029
427,4	106,657
427,9	108,143
428,3	110,457
428,8	115,743
429,2	113
429,7	110,543
430,1	111,371
430,6	111,4
431	111,6
431,5	111,4
431,9	107,943
432,4	111,743
432,8	119,314
433,3	121,629
433,8	122,457
434,2	126,371
434,7	131,114
435,1	131,714
435,6	138,714
436	137,914
436,5	144,914
436,9	152,429
437,4	159,257
437,8	164,143
438,3	175,086
438,8	175,971
439,2	184,971
439,7	190,229
440,1	194,571
440,6	204,029
441	208,829
441,5	218,057
441,9	227
442,4	240,714
442,8	251,714
443,3	260,343
443,7	264,971
444,2	280,257
444,7	285,057
445,1	294,714
445,6	304,143
446	314,629
446,5	329,657
446,9	350,343
447,4	365,171
447,8	380,514
448,3	399,2
448,7	411,457
449,2	423,429
449,6	438,114
450,1	451,971
450,6	466,143
451	478,314
451,5	495,314
451,9	516,486
452,4	538,514
452,8	562,286
453,3	577,829
453,7	594,457
454,2	620,029
454,6	641,371
455,1	659
455,5	681,257
456	701,743
456,4	727,371
456,9	752,314
457,3	777,486
457,8	797,286
458,3	827,429
458,7	850,343
459,2	872,886
459,6	903,143
460,1	933,457
460,5	963,543
461	993,829
461,4	1019,371
461,9	1046,943
462,3	1078,057
462,8	1105,771
463,2	1131,886
463,7	1161,057
464,1	1193,857
464,6	1224,057
465	1259,057
465,5	1296,8
466	1326,6
466,4	1361,571
466,9	1393,771
467,3	1426,314
467,8	1465,257
468,2	1494,486
468,7	1523,171
469,1	1558,657
469,6	1596,6
470	1635,229
470,5	1670,486
470,9	1700,714
471,4	1739,2
471,8	1771,543
472,3	1803,6
472,7	1838,086
473,2	1867,229
473,6	1898,743
474,1	1931,829
474,5	1966,429
475	1999,886
475,4	2033,8
475,9	2069,057
476,4	2099,971
476,8	2134,886
477,3	2174,857
477,7	2208,971
478,2	2245
478,6	2280,371
479,1	2315,2
479,5	2357,057
480	2387,657
480,4	2413,857
480,9	2446,857
481,3	2474,543
481,8	2506,457
482,2	2528,886
482,7	2551,743
483,1	2587,543
483,6	2612,771
484	2637
484,5	2663,914
484,9	2691,943
485,4	2720,029
485,8	2741,6
486,3	2764,286
486,7	2789,571
487,2	2809,771
487,6	2833,543
488,1	2853,6
488,5	2872,886
489	2892,171
489,4	2911,743
489,9	2932,857
490,4	2954,371
490,8	2974,229
491,3	2990,629
491,7	3005,314
492,2	3026,657
492,6	3043
493,1	3054,514
493,5	3068,343
494	3078,886
494,4	3091,6
494,9	3109,229
495,3	3127,486
495,8	3142,057
496,2	3164,714
496,7	3175,714
497,1	3195,514
497,6	3209,629
498	3216,057
498,5	3228,743
498,9	3238,771
499,4	3251,486
499,8	3264,514
500,3	3272,314
500,7	3280,943
501,2	3297,229
501,6	3305,8
502,1	3314,171
502,5	3315,971
503	3327,971
503,4	3340,8
503,9	3352,886
504,3	3356,543
504,8	3359,2
505,2	3361,829
505,7	3372,4
506,1	3374,6
506,6	3374,457
507	3377,314
507,5	3389,943
507,9	3393,057
508,4	3408,486
508,8	3409,143
509,3	3421,686
509,7	3431,114
510,2	3435,514
510,6	3435,914
511,1	3450,057
511,5	3450,343
512	3460,343
512,4	3467,257
512,9	3469,429
513,3	3482,743
513,8	3490,171
514,2	3491,143
514,7	3497,029
515,1	3502,8
515,6	3502,286
516	3509,743
516,5	3510,2
516,9	3513,143
517,4	3513,914
517,8	3519,2
518,3	3515,343
518,7	3517,286
519,2	3519,714
519,6	3521,829
520,1	3527,057
520,5	3532,971
521	3539,057
521,4	3543,914
521,9	3548,943
522,3	3553,314
522,8	3567,114
523,2	3572,2
523,7	3582,229
524,1	3582,2
524,6	3597,6
525	3608,514
525,5	3614,286
525,9	3613,6
526,4	3623,6
526,8	3622,514
527,3	3633,4
527,7	3631,257
528,2	3635,486
528,6	3643,829
529,1	3648,543
529,5	3645,171
530	3660,657
530,4	3666,2
530,9	3683,6
531,3	3687,6
531,8	3695,571
532,2	3703,086
532,6	3718,686
533,1	3720,343
533,5	3730,171
534	3733,971
534,4	3747,229
534,9	3759,629
535,3	3767,771
535,8	3773,057
536,2	3785,286
536,7	3791,143
537,1	3797,8
537,6	3807,943
538	3814,257
538,5	3827,2
538,9	3838,971
539,4	3846,743
539,8	3858,629
540,3	3862,229
540,7	3861,943
541,2	3863,629
541,6	3868,829
542,1	3876,543
542,5	3880,943
543	3886,257
543,4	3902,657
543,9	3906,143
544,3	3918,086
544,8	3931,857
545,2	3937,629
545,7	3956,286
546,1	3965,571
546,5	3971,314
547	3987,714
547,4	3989,6
547,9	3992,657
548,3	4003,257
548,8	4003,171
549,2	4012,514
549,7	4024,457
550,1	4035,829
550,6	4049,029
551	4059,343
551,5	4068,8
551,9	4077,286
552,4	4080,371
552,8	4082,457
553,3	4087,057
553,7	4092,086
554,2	4101,914
554,6	4103
555,1	4109,743
555,5	4125,057
555,9	4130,457
556,4	4135,514
556,8	4144,371
557,3	4144,2
557,7	4156,486
558,2	4160,543
558,6	4157,4
559,1	4170,171
559,5	4179,943
560	4186,886
560,4	4188,429
560,9	4198,086
561,3	4213,486
561,8	4223,4
562,2	4223,057
562,7	4225
563,1	4234,114
563,6	4245,571
564	4246,514
564,4	4247,343
564,9	4249,4
565,3	4260,057
565,8	4268,029
566,2	4265,057
566,7	4260,829
567,1	4267,886
567,6	4272,543
568	4280,857
568,5	4279,2
568,9	4280,657
569,4	4280,029
569,8	4290,143
570,3	4286,457
570,7	4283,2
571,1	4284,914
571,6	4287,686
572	4288,686
572,5	4293,743
572,9	4299,086
573,4	4298,514
573,8	4298,2
574,3	4291,771
574,7	4288,229
575,2	4283,057
575,6	4283,143
576,1	4273,6
576,5	4269,629
576,9	4274,143
577,4	4277
577,8	4272,543
578,3	4273,229
578,7	4275,143
579,2	4278,229
579,6	4277,629
580,1	4267,514
580,5	4263,286
581	4265,343
581,4	4261,343
581,9	4259,943
582,3	4248,029
582,7	4243,571
583,2	4240,743
583,6	4229,886
584,1	4218,457
584,5	4206,371
585	4195,143
585,4	4193,057
585,9	4194,686
586,3	4191,429
586,8	4184,686
587,2	4178,514
587,6	4177,8
588,1	4168,771
588,5	4163,543
589	4149,086
589,4	4140,971
589,9	4140,457
590,3	4133,829
590,8	4127,829
591,2	4120,971
591,7	4111,057
592,1	4106,543
592,5	4093,657
593	4085,086
593,4	4084,543
593,9	4073,657
594,3	4061,714
594,8	4050,514
595,2	4045,571
595,7	4041,714
596,1	4033,571
596,6	4026,371
597	4029
597,4	4029,229
597,9	4024,629
598,3	4019,4
598,8	4009
599,2	3997,829
599,7	3982,229
600,1	3971,171
600,6	3962,343
601	3952,771
601,4	3941,086
601,9	3935,8
602,3	3932,829
602,8	3930,457
603,2	3922,029
603,7	3915,371
604,1	3914,857
604,6	3896
605	3882,829
605,4	3863,743
605,9	3852,429
606,3	3841,057
606,8	3826,657
607,2	3807,486
607,7	3803,429
608,1	3792,571
608,6	3789,8
609	3777,2
609,4	3767,2
609,9	3759,771
610,3	3748,943
610,8	3743,714
611,2	3731,914
611,7	3721,686
612,1	3702,714
612,6	3688,543
613	3669,229
613,4	3656
613,9	3634,8
614,3	3621,829
614,8	3599,343
615,2	3593,629
615,7	3577,514
616,1	3566,771
616,6	3548,143
617	3533,571
617,4	3516,771
617,9	3502,029
618,3	3488,914
618,8	3476,371
619,2	3465,114
619,7	3455,057
620,1	3439,543
620,5	3429,629
621	3421,6
621,4	3399,971
621,9	3386,629
622,3	3364,343
622,8	3347
623,2	3334,171
623,6	3322,257
624,1	3309,114
624,5	3302,114
625	3282,514
625,4	3274,629
625,9	3263,429
626,3	3251,171
626,8	3234,057
627,2	3216,057
627,6	3196,171
628,1	3181,771
628,5	3160,4
629	3145,514
629,4	3125,314
629,9	3112,6
630,3	3102,857
630,7	3090,571
631,2	3075,4
631,6	3064,829
632,1	3051,4
632,5	3036,886
633	3011,543
633,4	2985,914
633,8	2963,029
634,3	2946,771
634,7	2931,914
635,2	2913,514
635,6	2902,914
636,1	2899,543
636,5	2887,857
636,9	2880,743
637,4	2873,886
637,8	2857,8
638,3	2841,229
638,7	2824,886
639,2	2806,771
639,6	2796,971
640	2778,714
640,5	2759,257
640,9	2745,543
641,4	2734,314
641,8	2720,257
642,2	2708,286
642,7	2690,143
643,1	2685,486
643,6	2671,371
644	2662,114
644,5	2653,657
644,9	2639,057
645,3	2620,943
645,8	2613,4
646,2	2596,143
646,7	2579,6
647,1	2562,171
647,6	2543,143
648	2527,943
648,4	2516,829
648,9	2499,571
649,3	2485,171
649,8	2477,657
650,2	2463,2
650,6	2452,8
651,1	2444,514
651,5	2434,229
652	2418,686
652,4	2402,971
652,9	2391,257
653,3	2381,429
653,7	2371,2
654,2	2355,571
654,6	2340,029
655,1	2325,743
655,5	2310,514
655,9	2290,457
656,4	2279,4
656,8	2264,229
657,3	2249,229
657,7	2231,543
658,2	2222,257
658,6	2208,257
659	2194,629
659,5	2179,4
659,9	2164,514
660,4	2156,771
660,8	2147,971
661,2	2136,314
661,7	2126,8
662,1	2116,457
662,6	2101,114
663	2084,829
663,4	2071,514
663,9	2055,343
664,3	2041,657
664,8	2023,171
665,2	2011,771
665,6	1996,771
666,1	1985,343
666,5	1967,914
667	1950,114
667,4	1937,314
667,9	1926,743
668,3	1912,6
668,7	1899,829
669,2	1889,6
669,6	1878,771
670,1	1877,429
670,5	1861,229
670,9	1854,514
671,4	1837,857
671,8	1827,971
672,3	1813,943
672,7	1799,971
673,1	1784,086
673,6	1771,629
674	1758,714
674,5	1751,629
674,9	1738,714
675,3	1730,057
675,8	1716,857
676,2	1709,686
676,7	1703,6
677,1	1697,257
677,5	1687,943
678	1677,457
678,4	1666,6
678,9	1661,314
679,3	1645,257
679,7	1634,743
680,2	1618,457
680,6	1604,029
681,1	1596,314
681,5	1588,029
681,9	1575,229
682,4	1570,057
682,8	1552,829
683,3	1544,457
683,7	1536,171
684,1	1521,914
684,6	1508,914
685	1499,4
685,5	1486,686
685,9	1481,171
686,3	1471,543
686,8	1462,771
687,2	1452,914
687,7	1445,714
688,1	1440,114
688,5	1427,2
689	1420,429
689,4	1413,143
689,9	1406,514
690,3	1400,257
690,7	1386,857
691,2	1377,086
691,6	1369,286
692	1356,571
692,5	1343,143
692,9	1327,343
693,4	1316,943
693,8	1307,686
694,2	1293,429
694,7	1286,057
695,1	1279,743
695,6	1267,371
696	1263,571
696,4	1253,343
696,9	1247,6
697,3	1235,743
697,8	1225,114
698,2	1215,743
698,6	1212,171
699,1	1198,429
699,5	1197,343
699,9	1186,029
700,4	1184,457
700,8	1179,829
701,3	1170,514
701,7	1159,314
702,1	1152,286
702,6	1137,886
703	1125,143
703,5	1112,971
703,9	1106,057
704,3	1101,686
704,8	1098,829
705,2	1096,943
705,6	1090,4
706,1	1097,257
706,5	1095,114
707	1081,971
707,4	1076,314
707,8	1072,2
708,3	1060,457
708,7	1058,029
709,2	1043,657
709,6	1036,257
710	1032,914
710,5	1023,114
710,9	1008,743
711,3	1005,057
711,8	994,657
712,2	986,571
712,7	980,629
713,1	969,543
713,5	959
714	954,8
714,4	949,257
714,8	941,971
715,3	939,029
715,7	926,4
716,2	921,486
716,6	921,314
717	912,543
717,5	906,571
717,9	899,429
718,3	892,486
718,8	889,343
719,2	883,257
719,7	875,029
720,1	869,2
720,5	860,743
721	853,286
721,4	844,743
721,8	841,429
722,3	830,714
722,7	820,229
723,2	813,343
723,6	802,457
724	798,829
724,5	788,686
724,9	776
725,3	770,314
725,8	767,086
726,2	759,743
726,7	756,257
727,1	749,2
727,5	748,657
728	742,514
728,4	739,714
728,8	733,2
729,3	729,057
729,7	729,514
730,1	722,657
730,6	718,743
731	719,286
731,5	720,343
731,9	718,857
732,3	717,886
732,8	709,571
733,2	703
733,6	699,4
734,1	692,857
734,5	681,971
734,9	675,571
735,4	668,6
735,8	663,343
736,3	660,2
736,7	654,457
737,1	654,543
737,6	657,2
738	650,943
738,4	645,8
738,9	643,457
739,3	639,114
739,7	634,857
740,2	628,714
740,6	623,629
741,1	621,8
741,5	622,029
741,9	613,971
742,4	611,371
742,8	612,086
743,2	612,714
743,7	605,571
744,1	597,4
744,5	593,829
745	591,857
745,4	589,6
745,8	581,771
746,3	575,371
746,7	573,371
747,2	575,371
747,6	565,743
748	563,914
748,5	560,8
748,9	553,343
749,3	549,886
749,8	539,886
750,2	532,286
750,6	534,571
751,1	530,514
751,5	525,257
751,9	525,657
752,4	519,971
752,8	520,971
753,3	520,6
753,7	518,857
754,1	510,114
754,6	505,771
755	502,2
755,4	497,2
755,9	498,371
756,3	491,743
756,7	482,657
757,2	484,057
757,6	485,971
758	477,229
758,5	472,057
758,9	466,8
759,3	459,486
759,8	462,314
760,2	463,743
760,6	458,2
761,1	460,371
761,5	460,714
761,9	457,114
762,4	462,057
762,8	453,2
763,3	441,543
763,7	437,2
764,1	429,286
764,6	426,086
765	420,6
765,4	418,286
765,9	416,829
766,3	416,857
766,7	414,086
767,2	418,457
767,6	412,771
768	411,429
768,5	406,057
768,9	397,171
769,3	397,371
769,8	394,8
770,2	391,429
770,6	390,171
771,1	388,171
771,5	385,343
771,9	387,314
772,4	391,314
772,8	390,857
773,2	386,114
773,7	386,171
774,1	384,514
774,5	386,514
775	385,771
775,4	376,714
775,8	372,771
776,3	371,829
776,7	370,2
777,1	370,943
777,6	361,343
778	358,429
778,4	355,543
778,9	352,486
779,3	350,771
779,7	350,8
780,2	341,543
780,6	346,457
781	341,771
781,5	341,2
781,9	342,114
782,3	337
782,8	326,114
783,2	325,543
783,6	317,2
784,1	319,171
784,5	315
784,9	305,229
785,4	301,657
785,8	297,543
786,2	293,629
786,7	291,029
787,1	286,029
787,5	283,886
788	287,286
788,4	283,429
788,8	283,714
789,3	284,629
789,7	283,857
790,1	283,8
790,6	281,029
791	277,6
791,4	275,857
791,9	277,8
792,3	274,343
792,7	273,857
793,2	267,171
793,6	265,571
794	264,714
794,5	264,314
794,9	263
795,3	262,8
795,8	260,514
796,2	262,114
796,6	258,343
797,1	258,057
797,5	255,486
797,9	252,971
798,4	246,486
798,8	243,571
799,2	242,286
799,7	243,629
800,1	239,686
800,5	240,114
801	238,029
801,4	238,886
801,8	237,029
802,2	235,657
802,7	233,486
803,1	227,2
803,5	224,286
804	224,171
804,4	224,229
804,8	227,086
805,3	224,829
805,7	221,086
806,1	227,686
806,6	228,971
807	225,029
807,4	218,8
807,9	215,257
808,3	210,343
808,7	210,943
809,2	208,2
809,6	207,429
810	210,543
810,4	213,743
810,9	204,457
811,3	208,457
811,7	204,943
812,2	200,086
812,6	192,857
813	187,657
813,5	184,886
813,9	189,943
814,3	187,029
814,8	185,057
815,2	183,229
815,6	181,2
816,1	178,2
816,5	174,286
816,9	174,343
817,3	171,086
817,8	173,914
818,2	169,914
818,6	171,829
819,1	173,057
819,5	175,657
819,9	170,086
820,4	169,057
820,8	156,943
821,2	160,943
821,7	158,943
822,1	154,771
822,5	149,6
822,9	151,257
823,4	149,771
823,8	156,914
824,2	153,143
824,7	158,543
825,1	160,086
825,5	167,6
826	165
826,4	163,629
826,8	162,2
827,3	160,4
827,7	156,429
828,1	157,029
828,5	152,057
829	148,143
829,4	151,6
829,8	146,571
830,3	150,943
830,7	144,971
831,1	138,2
831,6	131,229
832	131,829
832,4	127,029
832,8	132,714
833,3	118,457
833,7	117,886
834,1	116,514
834,6	117,8
835	122,057
835,4	123,714
835,8	120,257
836,3	126,114
836,7	123,114
837,1	121,286
837,6	118,429
838	111,314
838,4	107,629
838,9	108,686
839,3	112,029
839,7	114,743
840,1	111,857
840,6	111,371
841	109,971
841,4	106,657
841,9	102,857
842,3	101,743
842,7	101,057
843,1	108,114
843,6	111,657
844	113,486
844,4	111,8
844,9	113
845,3	112,314
845,7	113,371
846,2	109,686
846,6	110
847	110
847,4	109,6
847,9	107,914
848,3	108,943
848,7	105,257
849,2	105,343
849,6	100,571
850	99,571
850,4	104,257
850,9	103,771
851,3	96,771
851,7	99,286
852,2	92,514
852,6	91,657
853	92,857
853,4	90,486
853,9	83,714
854,3	81,971
854,7	77,829
855,2	83,714
855,6	82,229
856	74,086
856,4	73,257
856,9	75,457
857,3	77,8
857,7	79,571
858,2	80,971
858,6	86,143
859	88,457
859,4	87,171
859,9	86,314
860,3	85,229
860,7	83,771
861,1	79,514
861,6	79,629
862	82,4
862,4	82,229
862,9	82,086
863,3	76,886
863,7	74,857
864,1	74,314
864,6	69,943
865	66,543
865,4	63,171
865,9	64,486
866,3	72
866,7	72,629
867,1	76,114
867,6	74,143
868	76,486
868,4	76,286
868,8	76,571
869,3	78,686
869,7	76,486
870,1	71,914
870,6	70,371
871	119,457
871,4	119,229
871,8	117,914
872,3	112,657
872,7	112,914
873,1	115,486
873,5	119,314
874	69,057
874,4	69,886
874,8	67,743
875,3	67,657
875,7	67,857
876,1	63,486
876,5	62,8
877	62,714
877,4	64,8
877,8	66,371
878,2	65,171
878,7	66,257
879,1	67,286
879,5	65,257
879,9	62,057
880,4	58,743
880,8	56,514
881,2	58,971
881,7	60,514
882,1	60,457
882,5	57,657
882,9	58,543
883,4	61,6
883,8	60,429
884,2	55,429
884,6	49,6
885,1	50,914
885,5	58,314
885,9	64,714
886,3	61,686
886,8	61,6
887,2	62,029
887,6	62,571
888	61,971
888,5	60,429
888,9	55,457
889,3	50,486
889,8	51,6
890,2	46,171
890,6	47,829
891	46,886
891,5	43,4
891,9	41,4
892,3	43,686
892,7	44,343
893,2	49,2
893,6	45,543
894	43,543
894,4	42,914
894,9	43,857
895,3	42,6
895,7	40,771
896,1	40,343
896,6	41,743
897	40,571
897,4	37,971
897,8	36,429
898,3	44,8
898,7	43,514
899,1	43,086
899,5	40,143
900	38,743
900,4	38,829
900,8	39,171
901,2	34,886
901,7	32,686
902,1	35,114
902,5	36
902,9	37,457
903,4	38,743
903,8	33,257
904,2	33,143
904,6	34,914
905,1	35,029
905,5	39,771
905,9	42,057
906,3	39,543
906,8	43,4
907,2	40,971
907,6	42,571
908	38,829
908,5	37,029
908,9	37,371
909,3	40,086
909,7	38,086
910,2	36,686
910,6	34,514
911	35,857
911,4	31,343
911,9	30,314
912,3	26,371
912,7	28,257
913,1	24,629
913,6	26,657
914	24,343
914,4	23,8
914,8	25,229
915,3	27,771
915,7	26,029
916,1	27,6
916,5	25,4
916,9	23,743
917,4	26,543
917,8	20,686
918,2	20,143
918,6	22,429
919,1	25,629
919,5	26,371
919,9	29,686
920,3	29,857
920,8	34,229
921,2	38,657
921,6	34,571
922	32,943
922,5	36,4
922,9	34,429
923,3	37,257
923,7	31,429
924,2	25,257
924,6	26,429
925	29,429
925,4	29,2
925,8	28,171
926,3	29,4
926,7	34,286
927,1	34,629
927,5	34,543
928	31,286
928,4	25,829
928,8	31,314
929,2	28,8
929,7	26,771
930,1	26,743
930,5	26,229
930,9	28,943
931,3	32,486
931,8	27,314
932,2	22,4
932,6	23,6
933	19,943
933,5	23,6
933,9	18,686
934,3	15,886
934,7	23,914
935,2	29,743
935,6	27,143
936	28,829
936,4	28,429
936,8	30,457
937,3	30,343
937,7	24,457
938,1	15,971
938,5	15,629
939	17,171
939,4	13,286
939,8	14,657
940,2	15
940,6	12,657
941,1	19,8
941,5	23,771
941,9	26
942,3	24,914
942,8	25,2
943,2	22,571
943,6	26,886
944	23,686
944,4	17,514
944,9	9,629
945,3	15,4
945,7	13,343
946,1	15,886
946,6	10,257
947	11,543
947,4	15,971
947,8	22,914
948,2	20,686
948,7	21,171
949,1	19,771
949,5	25,114
949,9	26,371
950,3	27,029
950,8	28,714
951,2	28,286
951,6	26,2
952	27,743
952,5	23
952,9	17,429
953,3	12,686
953,7	8,971
954,1	7,171
954,6	10
955	7,629
955,4	6,629
955,8	9,2
956,2	8,971
956,7	11,314
957,1	7,514
957,5	3,771
957,9	3,171
958,3	6,857
958,8	7,229
959,2	11,143
959,6	8,4
960	13,743
960,5	15,857
960,9	22,057
961,3	22,171
961,7	22,543
962,1	20,629
962,6	20
963	20,743
963,4	21,4
963,8	20,629
964,2	17,486
964,7	14,971
965,1	16,971
965,5	19,686
965,9	17,229
966,3	15,857
966,8	10,086
967,2	13,543
967,6	16,114
968	18,257
968,4	17,029
968,9	20,029
969,3	23,057
969,7	22,6
970,1	17,657
970,5	19,314
971	14,229
971,4	15,6
971,8	16,057
972,2	18,171
972,6	22,829
973,1	29,771
973,5	31,286
973,9	29,657
974,3	26
974,7	19,486
975,2	14,857
975,6	9
976	8,6
976,4	5,886
976,8	6,514
977,3	10,514
977,7	14,086
978,1	7,171
978,5	10,343
978,9	4,371
979,4	3,057
979,8	5,343
980,2	0,571
980,6	-0,486
981	7,543
981,5	9,771
981,9	10,171
982,3	6,914
982,7	5,457
983,1	8,886
983,6	11,857
984	10,8
984,4	12,4
984,8	15,743
985,2	17,171
985,6	16,743
986,1	14,8
986,5	11,457
986,9	15,457
987,3	13,114
987,7	12,486
988,2	19,343
988,6	22,486
989	23,714
989,4	29,086
989,8	25,229
990,3	24
990,7	22,714
991,1	16,143
991,5	13,943
991,9	12,086
992,3	9,457
992,8	11,4
993,2	15,029
993,6	12,857
994	12,514
994,4	12,057
994,9	15,771
995,3	18,486
995,7	15,457
996,1	10,943
996,5	13,571
996,9	12,229
997,4	11,686
997,8	9,086
998,2	6,086
998,6	7,629
999	6,429
999,5	6,514
999,9	9,857
1000,3	12,371
1000,7	10,286
1001,1	10,057
1001,5	5,429
1002	6,657
1002,4	9,114
1002,8	14,6
1003,2	17,857
1003,6	23,543
1004	20,657
1004,5	20,914
1004,9	20,029
1005,3	14,314
1005,7	5,943
1006,1	0,143
1006,6	-2,714
1007	-0,914
1007,4	2,886
1007,8	3,543
1008,2	4,257
1008,6	5
1009,1	4,343
1009,5	8,771
1009,9	16,057
1010,3	14,514
1010,7	21,229
1011,1	27,486
1011,6	28,971
1012	30,314
1012,4	29,429
1012,8	20,2
1013,2	22,571
1013,6	19,886
1014,1	18,543
1014,5	21,886
1014,9	23,629
1015,3	19,943
1015,7	21,4
1016,1	23,714
1016,6	23,971
1017	25,857
1017,4	20,029
1017,8	18,8
1018,2	12,714
1018,6	16,029
1019,1	13,286
1019,5	14,114
1019,9	11,314
1020,3	14,029
1020,7	13,571
1021,1	22,286
1021,6	16,771
1022	12,114
1022,4	13,943
1022,8	12,029
1023,2	12,543
1023,6	13,486
1024,1	13,143
1024,5	17,029
1024,9	26,4
1025,3	19,486
1025,7	22,657
1026,1	24,286
1026,6	26,114
1027	23,543
1027,4	20,686
1027,8	14,943
1028,2	16,829
1028,6	14,886
1029	10,943
1029,5	10,686
1029,9	11,486
1030,3	15,057
1030,7	12,6
1031,1	9,543
1031,5	2
1032	6,086
1032,4	2,314
1032,8	-0
1033,2	-1,286
1033,6	3,971
1034	7,457
1034,4	17,114
1034,9	12,229
1035,3	15,971
1035,7	18,486
1036,1	20,229
1036,5	13,543
1036,9	14,229
1037,4	10,2
1037,8	12,571
1038,2	4,086
1038,6	1,086
1039	-3,914
1039,4	-1,743
1039,8	-7,314
1040,3	-4,514
1040,7	-8,657
1041,1	-1,857
1041,5	-5,029
1041,9	-0,029
1042,3	-0,086
1042,7	5,543
1043,2	3,914
1043,6	10,4
1044	10,343
1044,4	12,943
1044,8	8,743
1045,2	10,771
1045,6	12,457
1046,1	15,514
1046,5	14,171
1046,9	15,143
1047,3	17,343
1047,7	17,2
1048,1	16,486
1048,5	15,171
1049	12,914
1049,4	12,086
1049,8	11,4
1050,2	12,571
1050,6	17,514
1051	20,686
1051,4	21,371
1051,9	26,2
1052,3	26,486
1052,7	28,6
1053,1	30,686
1053,5	28,371
1053,9	29,543
1054,3	27,971
1054,8	27,657
1055,2	26,8
1055,6	25,229
1056	21,4
1056,4	23,543
1056,8	22,829
1057,2	25,629
1057,6	21,914
1058,1	23,857
1058,5	21,171
1058,9	24,743
1059,3	26,943
1059,7	17,714
1060,1	14,943
1060,5	10,457
1061	7,686
1061,4	15
1061,8	9,029
1062,2	8,886
1062,6	19,971
1063	18,571
1063,4	21,286
1063,8	21,486
1064,3	16,743
1064,7	16,971
1065,1	13,714
1065,5	10,629
1065,9	10,629
1066,3	7,686
1066,7	7,257
1067,1	7,629
1067,6	9,343
1068	11,229
1068,4	11,4
1068,8	11,914
1069,2	13,714
1069,6	19,229
1070	17,257
1070,4	21,2
1070,9	14,886
1071,3	12,943
1071,7	17,943
1072,1	20,029
1072,5	20,571
1072,9	24,343
1073,3	26,257
1073,7	26,457
1074,2	32,143
1074,6	27,086
1075	25,543
1075,4	23,343
1075,8	21,4
1076,2	17,543
1076,6	22,571
1077	18,8
1077,5	18,486
1077,9	21,914
1078,3	18,514
1078,7	17,714
1079,1	19,486
1079,5	14,686
1079,9	19,857
1080,3	17,4
1080,7	15,914
1081,2	18,114
1081,6	21,4
1082	19,657
1082,4	21,429
1082,8	13,286
1083,2	12,429
1083,6	8,6
1084	8,914
1084,5	6,371
1084,9	6,029
1085,3	5,943
1085,7	2,8
1086,1	0,771
1086,5	5,371
1086,9	3,371
1087,3	4,886
1087,7	9,429
1088,2	6,286
1088,6	9,914
1089	13,429
1089,4	13,486
1089,8	18,086
1090,2	19,714
1090,6	14,743
1091	20,8
1091,4	23,943
1091,9	26,143
1092,3	25,8
1092,7	19,629
1093,1	10,286
1093,5	10,886
1093,9	10,743
1094,3	7,971
1094,7	9,057
1095,1	6,257
1095,5	7,143
1096	9,4
1096,4	12,171
1096,8	6,886
1097,2	7,171
1097,6	5,143
1098	6,229
1098,4	8,629
1098,8	10,714
1099,2	8,686
1099,6	12,257
1100,1	14,914
1100,5	17,657
1100,9	14,286
1101,3	12,171
1101,7	14,914
1102,1	14,486
1102,5	14,143
1102,9	9,371
1103,3	4,6
1103,7	8,6
1104,2	10,4
1104,6	10,457
1105	9,114
1105,4	6,229
1105,8	7,143
1106,2	8,114
1106,6	5,486
1107	2,886
1107,4	-0,833
1107,8	-2,32
1108,3	-0,45
