Data from Subt2_323.txt Node
Date: Sat Aug 26 19:18:08 MSK 2023
User: vat
Spectrometer: MAYP114033
Trigger mode: 0
Integration Time (sec): 1,000000E0
Scans to average: 5
Electric dark correction enabled: true
Nonlinearity correction enabled: false
Boxcar width: 3
XAxis mode: Wavelengths
Number of Pixels in Spectrum: 2068
>>>>>Begin Spectral Data<<<<<
199,4	-0,117
199,9	3,733
200,4	3,367
200,8	3,276
201,3	4,105
201,8	9,905
202,2	8,248
202,7	13,562
203,2	12,533
203,6	11,762
204,1	9,762
204,6	10,162
205	8,248
205,5	7,705
206	4,59
206,4	5,048
206,9	7,819
207,4	10,162
207,8	7,99
208,3	5,362
208,8	8,562
209,2	10,819
209,7	11,019
210,2	9,619
210,6	8,676
211,1	12,333
211,5	8,905
212	8,705
212,5	7,676
212,9	4,076
213,4	7,162
213,9	7,476
214,3	9,59
214,8	17,448
215,3	17,333
215,7	16,99
216,2	22,905
216,7	20,219
217,1	18,39
217,6	16,019
218,1	12,105
218,5	9,448
219	2,276
219,5	-1,752
219,9	-6,01
220,4	7,019
220,9	5,962
221,3	6,162
221,8	10,362
222,3	18,419
222,7	23,733
223,2	29,99
223,6	19,762
224,1	18,59
224,6	18,905
225	15,19
225,5	14,962
226	9,933
226,4	9,533
226,9	12,619
227,4	12,019
227,8	9,419
228,3	13,705
228,8	10,305
229,2	15,648
229,7	14,048
230,2	10,533
230,6	16,705
231,1	18,648
231,5	16,733
232	16,562
232,5	12,476
232,9	15,305
233,4	21,133
233,9	15,819
234,3	15,619
234,8	18,19
235,3	15,476
235,7	16,476
236,2	14,076
236,7	11,762
237,1	15,962
237,6	13,362
238,1	9,905
238,5	10,019
239	9,676
239,4	11,019
239,9	7,648
240,4	6,619
240,8	10,905
241,3	9,533
241,8	14,076
242,2	14,219
242,7	13,905
243,2	21,59
243,6	16,333
244,1	19,333
244,6	24,419
245	27,219
245,5	25,962
245,9	23,476
246,4	16,533
246,9	20,562
247,3	16,505
247,8	12,733
248,3	9,59
248,7	9,676
249,2	12,562
249,7	10,619
250,1	9,733
250,6	10,276
251	13,676
251,5	13,505
252	12,39
252,4	12,219
252,9	16,305
253,4	14,876
253,8	15,448
254,3	14,533
254,8	15,762
255,2	11,962
255,7	9,476
256,1	9,39
256,6	9,705
257,1	7,676
257,5	5,676
258	3,476
258,5	8,19
258,9	4,733
259,4	1,562
259,9	5,619
260,3	3,39
260,8	2,276
261,2	3,219
261,7	5,619
262,2	7,733
262,6	8,362
263,1	8,562
263,6	15,019
264	18,476
264,5	20,419
264,9	17,076
265,4	21,419
265,9	18,819
266,3	17,933
266,8	14,962
267,3	13,476
267,7	8,705
268,2	11,476
268,7	9,505
269,1	13,333
269,6	11,105
270	14,448
270,5	8,705
271	11,848
271,4	9,133
271,9	3,562
272,4	3,219
272,8	5,505
273,3	2,848
273,7	9,933
274,2	10,419
274,7	13,019
275,1	20,562
275,6	21,79
276,1	14,276
276,5	16,048
277	12,79
277,4	11,019
277,9	13,076
278,4	13,048
278,8	15,848
279,3	22,305
279,8	20,848
280,2	24,39
280,7	26,876
281,1	23,962
281,6	23,533
282,1	20,99
282,5	17,762
283	16,876
283,4	13,676
283,9	13,99
284,4	15,219
284,8	14,99
285,3	10,59
285,8	17,076
286,2	15,676
286,7	15,219
287,1	12,276
287,6	11,048
288,1	6,848
288,5	9,79
289	3,676
289,5	2,562
289,9	2,648
290,4	3,248
290,8	1,19
291,3	2,705
291,8	6,676
292,2	6,933
292,7	13,39
293,1	13,362
293,6	17,362
294,1	18,933
294,5	19,819
295	14,19
295,5	14,619
295,9	11,648
296,4	13,562
296,8	9,562
297,3	7,79
297,8	4,533
298,2	1,019
298,7	5,448
299,1	3,333
299,6	0,619
300,1	4,248
300,5	7,733
301	13,79
301,5	21,733
301,9	19,419
302,4	16,448
302,8	18,99
303,3	16,962
303,8	15,076
304,2	12,076
304,7	7,162
305,1	2,305
305,6	5,39
306,1	9,505
306,5	9,419
307	11,619
307,4	16,648
307,9	17,19
308,4	20,362
308,8	18,705
309,3	11,019
309,8	9,99
310,2	9,048
310,7	-0,124
311,1	2,533
311,6	5,79
312,1	9,076
312,5	14,076
313	13,962
313,4	10,162
313,9	15,848
314,4	13,533
314,8	7,819
315,3	4,59
315,7	-1,638
316,2	-2,81
316,7	0,105
317,1	3,019
317,6	4,819
318	10,019
318,5	14,362
319	16,362
319,4	17,933
319,9	18,048
320,3	16,048
320,8	12,362
321,3	10,333
321,7	10,333
322,2	12,562
322,6	13,333
323,1	9,733
323,6	8,276
324	7,648
324,5	6,19
324,9	4,39
325,4	2,705
325,9	4,79
326,3	9,105
326,8	12,962
327,2	12,019
327,7	15,276
328,2	13,105
328,6	14,59
329,1	10,933
329,5	10,562
330	3,476
330,5	6,79
330,9	4,133
331,4	11,533
331,8	9,762
332,3	11,076
332,8	11,048
333,2	15,248
333,7	18,419
334,1	19,505
334,6	12,619
335,1	11,048
335,5	12,533
336	10,733
336,4	10,676
336,9	12,505
337,4	13,79
337,8	11,505
338,3	14,219
338,7	14,362
339,2	16,39
339,7	22,305
340,1	17,762
340,6	17,276
341	19,476
341,5	20,476
342	15,333
342,4	12,048
342,9	5,19
343,3	6,705
343,8	5,905
344,2	8,105
344,7	9,962
345,2	14,79
345,6	15,048
346,1	16,733
346,5	16,133
347	13,476
347,5	9,076
347,9	11,676
348,4	7,562
348,8	10,105
349,3	11,048
349,8	11,448
350,2	21,362
350,7	25,762
351,1	25,219
351,6	33,533
352	38,248
352,5	40,419
353	48,276
353,4	47,876
353,9	58,505
354,3	69,333
354,8	80,79
355,3	97,79
355,7	118,162
356,2	137,648
356,6	164,59
357,1	193,305
357,5	223,99
358	261,648
358,5	295,505
358,9	340,476
359,4	389,39
359,8	447,39
360,3	510,733
360,8	580,019
361,2	658,905
361,7	753,19
362,1	852,79
362,6	956,133
363	1068,59
363,5	1193,733
364	1327,105
364,4	1457,419
364,9	1588,933
365,3	1715,648
365,8	1842,362
366,3	1956,79
366,7	2051,676
367,2	2142,333
367,6	2215,048
368,1	2273,59
368,5	2306,933
369	2328,048
369,5	2328,619
369,9	2316,048
370,4	2276,419
370,8	2225,705
371,3	2159,762
371,7	2085,933
372,2	1994,419
372,7	1905,333
373,1	1808,076
373,6	1702,362
374	1602,962
374,5	1495,276
374,9	1395,19
375,4	1301,019
375,9	1197,648
376,3	1102,676
376,8	1015,562
377,2	931,819
377,7	853,505
378,2	782,39
378,6	716,876
379,1	663,362
379,5	614,019
380	566,905
380,4	519,962
380,9	481,105
381,4	440,048
381,8	408,505
382,3	379,219
382,7	351,076
383,2	331,962
383,6	306,533
384,1	286,133
384,6	271,105
385	250,248
385,5	228,419
385,9	208,905
386,4	189,162
386,8	179,99
387,3	167,619
387,7	157,99
388,2	151,448
388,7	141,019
389,1	132,019
389,6	124,562
390	117,276
390,5	114,505
390,9	109,305
391,4	103,59
391,9	97,648
392,3	98,248
392,8	94,105
393,2	84,648
393,7	78,933
394,1	68,305
394,6	65,619
395,1	67,533
395,5	59,048
396	59,562
396,4	57,562
396,9	56,048
397,3	62,819
397,8	58,562
398,2	55,59
398,7	58,019
399,2	55,305
399,6	58,676
400,1	57,019
400,5	47,762
401	51,59
401,4	48,333
401,9	50,248
402,4	52,505
402,8	48,933
403,3	49,676
403,7	48,79
404,2	49,933
404,6	53,505
405,1	48,19
405,5	42,733
406	43,105
406,5	41,219
406,9	45,133
407,4	40,305
407,8	42,162
408,3	43,533
408,7	47,133
409,2	50,876
409,6	54,819
410,1	57,419
410,6	61,79
411	62,876
411,5	59,962
411,9	60,648
412,4	61,419
412,8	62,848
413,3	62,99
413,7	63,076
414,2	60,105
414,7	66,705
415,1	73,733
415,6	77,19
416	80,305
416,5	84,105
416,9	81,248
417,4	87,162
417,8	92,505
418,3	91,59
418,8	95,362
419,2	95,105
419,7	96,448
420,1	99,533
420,6	100,248
421	94,048
421,5	95,133
421,9	94,905
422,4	92,819
422,8	91,448
423,3	92,962
423,8	88,819
424,2	90,762
424,7	88,476
425,1	87,733
425,6	90,505
426	88,076
426,5	90,333
426,9	95,79
427,4	93,876
427,9	90,676
428,3	90,133
428,8	87,448
429,2	87,533
429,7	83,648
430,1	79,505
430,6	80,048
431	80,962
431,5	79,79
431,9	74,476
432,4	75,448
432,8	75,705
433,3	76,19
433,8	74,59
434,2	79,248
434,7	81,533
435,1	85,762
435,6	85,39
436	87,105
436,5	90,105
436,9	92,962
437,4	88,476
437,8	87,99
438,3	91,019
438,8	94,276
439,2	93,105
439,7	95,762
440,1	100,933
440,6	106,448
441	105,162
441,5	111,162
441,9	115,476
442,4	120,419
442,8	120,762
443,3	123,705
443,7	129,533
444,2	138,219
444,7	137,219
445,1	144,333
445,6	147,962
446	153,533
446,5	153,162
446,9	148,676
447,4	152,076
447,8	161,962
448,3	164,39
448,7	170,562
449,2	179,505
449,6	191,248
450,1	200,562
450,6	209,219
451	213,276
451,5	219,076
451,9	230,962
452,4	239,505
452,8	244,79
453,3	257,819
453,7	263,276
454,2	273,905
454,6	281,505
455,1	287,933
455,5	292,676
456	304,962
456,4	312,219
456,9	324,619
457,3	333,705
457,8	342,819
458,3	353,905
458,7	362,419
459,2	372,219
459,6	383,019
460,1	392,962
460,5	399,705
461	416,962
461,4	423,79
461,9	437,79
462,3	451,419
462,8	465,448
463,2	476,076
463,7	492,619
464,1	507,876
464,6	526,39
465	542,505
465,5	553,676
466	565,619
466,4	577,819
466,9	594,333
467,3	605,019
467,8	616,762
468,2	629,39
468,7	644,076
469,1	662,476
469,6	679,619
470	692,905
470,5	707,248
470,9	725,99
471,4	738,59
471,8	751,99
472,3	767,905
472,7	785,019
473,2	798,276
473,6	810,105
474,1	829,133
474,5	846,562
475	867,162
475,4	880,905
475,9	893,733
476,4	910,248
476,8	935,362
477,3	945,905
477,7	966,648
478,2	984,762
478,6	993,762
479,1	1007,876
479,5	1017,619
480	1026,248
480,4	1043,619
480,9	1053,162
481,3	1057,733
481,8	1077,019
482,2	1084,933
482,7	1100,248
483,1	1109,362
483,6	1113,733
484	1122,105
484,5	1137,048
484,9	1143,533
485,4	1161,933
485,8	1173,59
486,3	1185,533
486,7	1198,39
487,2	1211,019
487,6	1216,133
488,1	1222,105
488,5	1223,019
489	1232,305
489,4	1241,762
489,9	1239,362
490,4	1244,562
490,8	1253,019
491,3	1264,99
491,7	1275,076
492,2	1280,876
492,6	1283,362
493,1	1295,933
493,5	1297,105
494	1298,962
494,4	1305,133
494,9	1307,705
495,3	1308,019
495,8	1310,79
496,2	1314,733
496,7	1320,133
497,1	1328,39
497,6	1330,676
498	1335,305
498,5	1344,162
498,9	1348,905
499,4	1348,819
499,8	1356,79
500,3	1362,562
500,7	1360,533
501,2	1358,248
501,6	1352,505
502,1	1350,848
502,5	1356,39
503	1352,219
503,4	1346,905
503,9	1348,276
504,3	1352,962
504,8	1357,648
505,2	1360,219
505,7	1358,19
506,1	1365,476
506,6	1361,705
507	1362,248
507,5	1364,733
507,9	1361,876
508,4	1359,219
508,8	1359,333
509,3	1349,676
509,7	1354,505
510,2	1352,105
510,6	1346,39
511,1	1351,99
511,5	1354,305
512	1354,019
512,4	1357,819
512,9	1355,562
513,3	1360,305
513,8	1362,248
514,2	1358,648
514,7	1359,333
515,1	1358,562
515,6	1358,762
516	1353,276
516,5	1351,876
516,9	1352,333
517,4	1353,448
517,8	1354,905
518,3	1358,905
518,7	1355,419
519,2	1359,133
519,6	1359,648
520,1	1359,762
520,5	1360,19
521	1355,448
521,4	1352,19
521,9	1359,105
522,3	1361,819
522,8	1357,048
523,2	1354,162
523,7	1354,419
524,1	1360,419
524,6	1362,076
525	1360,219
525,5	1356,448
525,9	1362,276
526,4	1363,048
526,8	1361,39
527,3	1359,505
527,7	1360,533
528,2	1364,133
528,6	1368,419
529,1	1372,619
529,5	1382,533
530	1387,133
530,4	1387,419
530,9	1391,762
531,3	1386,39
531,8	1391,905
532,2	1390,39
532,6	1386,39
533,1	1384,876
533,5	1389,019
534	1389,59
534,4	1398,362
534,9	1397,848
535,3	1398,248
535,8	1400,819
536,2	1404,79
536,7	1408,99
537,1	1412,448
537,6	1410,048
538	1414,248
538,5	1419,933
538,9	1419,99
539,4	1424,99
539,8	1426,562
540,3	1429,333
540,7	1434,248
541,2	1433,79
541,6	1436,762
542,1	1445,419
542,5	1449,733
543	1455,333
543,4	1450,59
543,9	1452,819
544,3	1459,533
544,8	1459,705
545,2	1462,248
545,7	1457,476
546,1	1458,305
546,5	1467,19
547	1472,505
547,4	1478,19
547,9	1484,533
548,3	1488,762
548,8	1499,733
549,2	1497,419
549,7	1501,619
550,1	1504,362
550,6	1503,105
551	1504,533
551,5	1504,962
551,9	1502,476
552,4	1503,105
552,8	1502,733
553,3	1500,448
553,7	1503,619
554,2	1505,733
554,6	1505,762
555,1	1512,476
555,5	1517,933
555,9	1516,962
556,4	1520,448
556,8	1517,762
557,3	1519,533
557,7	1525,476
558,2	1523,476
558,6	1530,048
559,1	1534,848
559,5	1537,19
560	1543,762
560,4	1546,019
560,9	1544,105
561,3	1542,219
561,8	1541,019
562,2	1549,705
562,7	1555,848
563,1	1561,676
563,6	1558,962
564	1565,733
564,4	1572,476
564,9	1574,448
565,3	1571,905
565,8	1572,819
566,2	1574,305
566,7	1578,562
567,1	1582,59
567,6	1584,562
568	1590,705
568,5	1589,133
568,9	1587,619
569,4	1587,619
569,8	1586,505
570,3	1581,79
570,7	1576,076
571,1	1575,562
571,6	1578,476
572	1582,648
572,5	1576,676
572,9	1580,19
573,4	1582,762
573,8	1593,105
574,3	1587,733
574,7	1583,076
575,2	1576,248
575,6	1579,448
576,1	1584,962
576,5	1587,533
576,9	1581,79
577,4	1581,133
577,8	1582,676
578,3	1587,248
578,7	1587,505
579,2	1583,19
579,6	1575,219
580,1	1571,362
580,5	1569,705
581	1573,848
581,4	1569,676
581,9	1564,476
582,3	1561,076
582,7	1562,019
583,2	1562,162
583,6	1565,39
584,1	1560,476
584,5	1556,619
585	1558,162
585,4	1550,619
585,9	1551,962
586,3	1551,248
586,8	1548,79
587,2	1545,448
587,6	1546,133
588,1	1545,448
588,5	1549,333
589	1542,933
589,4	1538,648
589,9	1532,419
590,3	1529,362
590,8	1529,819
591,2	1528,019
591,7	1528,99
592,1	1529,733
592,5	1529,362
593	1529,048
593,4	1530,619
593,9	1524,305
594,3	1523,276
594,8	1519,933
595,2	1515,619
595,7	1515,305
596,1	1512,248
596,6	1507,933
597	1506,99
597,4	1505,505
597,9	1504,505
598,3	1505,762
598,8	1504,448
599,2	1502,133
599,7	1500,362
600,1	1492,79
600,6	1487,419
601	1481,219
601,4	1483,162
601,9	1479,048
602,3	1477,048
602,8	1475,933
603,2	1481,362
603,7	1478,848
604,1	1476,962
604,6	1465,533
605	1457,305
605,4	1458,562
605,9	1449,59
606,3	1439,248
606,8	1432,019
607,2	1427,219
607,7	1419,362
608,1	1420,99
608,6	1414,505
609	1417,79
609,4	1417,705
609,9	1414,248
610,3	1411,619
610,8	1406,219
611,2	1399,848
611,7	1394,448
612,1	1384,219
612,6	1380,59
613	1374,076
613,4	1366,733
613,9	1360,333
614,3	1357,648
614,8	1353,419
615,2	1345,505
615,7	1344,848
616,1	1342,848
616,6	1334,419
617	1332,448
617,4	1324,276
617,9	1322,733
618,3	1321,476
618,8	1315,762
619,2	1311,562
619,7	1308,248
620,1	1304,276
620,5	1301,505
621	1291,562
621,4	1285,933
621,9	1278,048
622,3	1270,648
622,8	1265,448
623,2	1263,733
623,6	1254,248
624,1	1249,162
624,5	1248,676
625	1244,59
625,4	1241,619
625,9	1240,162
626,3	1231,476
626,8	1233,962
627,2	1233,219
627,6	1217,276
628,1	1204,505
628,5	1201,419
629	1192,79
629,4	1190,39
629,9	1184,162
630,3	1171,162
630,7	1173,305
631,2	1172,848
631,6	1164,419
632,1	1160,819
632,5	1152,562
633	1142,619
633,4	1142,162
633,8	1136,448
634,3	1129,933
634,7	1124,533
635,2	1116,619
635,6	1113,676
636,1	1108,905
636,5	1101,962
636,9	1093,048
637,4	1089,448
637,8	1078,59
638,3	1072,19
638,7	1064,39
639,2	1053,048
639,6	1047,819
640	1044,676
640,5	1040,076
640,9	1039,79
641,4	1037,419
641,8	1036,276
642,2	1040,048
642,7	1037,962
643,1	1038,533
643,6	1031,248
644	1028,133
644,5	1027,162
644,9	1024,905
645,3	1021,019
645,8	1010,133
646,2	1005,133
646,7	1000,533
647,1	995,99
647,6	985,79
648	978,933
648,4	969,59
648,9	972,762
649,3	961,819
649,8	957,876
650,2	953,076
650,6	953,076
651,1	949,448
651,5	952,333
652	941,333
652,4	933,448
652,9	932,362
653,3	924,848
653,7	914,562
654,2	905,676
654,6	892,305
655,1	894,905
655,5	898,133
655,9	892,105
656,4	894,076
656,8	891,562
657,3	888,533
657,7	885,305
658,2	874,99
658,6	866,676
659	856,248
659,5	840,276
659,9	838,505
660,4	834,762
660,8	831,048
661,2	823,333
661,7	820,819
662,1	819,248
662,6	821,419
663	812,648
663,4	808,848
663,9	805,419
664,3	802,019
664,8	793,048
665,2	782,79
665,6	771,848
666,1	765,733
666,5	760,705
667	750,962
667,4	745,133
667,9	745,362
668,3	746,19
668,7	745,076
669,2	747,848
669,6	738,419
670,1	741,962
670,5	738,19
670,9	729,305
671,4	720,505
671,8	722,219
672,3	717,133
672,7	717,59
673,1	709,162
673,6	699,848
674	700,133
674,5	701,333
674,9	691,933
675,3	681,99
675,8	677,476
676,2	672,533
676,7	673,762
677,1	668,019
677,5	657,305
678	653,876
678,4	650,676
678,9	645,362
679,3	643,762
679,7	641,39
680,2	633,333
680,6	629,905
681,1	621,476
681,5	620,59
681,9	620,79
682,4	614,676
682,8	612,705
683,3	613,248
683,7	614,505
684,1	613,162
684,6	608,933
685	596,505
685,5	591,19
685,9	580,362
686,3	570,362
686,8	566,533
687,2	564,19
687,7	555,905
688,1	554,648
688,5	551,533
689	550,648
689,4	552,762
689,9	546,562
690,3	539,876
690,7	541,019
691,2	542,076
691,6	539,619
692	538,648
692,5	537,562
692,9	538,848
693,4	536,59
693,8	529,705
694,2	524,79
694,7	523,105
695,1	518,819
695,6	516,505
696	516,648
696,4	511,562
696,9	510,905
697,3	504,162
697,8	497,448
698,2	491,505
698,6	488,276
699,1	480,933
699,5	485,79
699,9	485,476
700,4	482,905
700,8	479,848
701,3	482,248
701,7	475,019
702,1	472,048
702,6	467,876
703	463,648
703,5	459,648
703,9	453,962
704,3	450,819
704,8	451,362
705,2	446,848
705,6	441,848
706,1	437,59
706,5	437,048
707	440,533
707,4	441,076
707,8	431,39
708,3	433,99
708,7	429,162
709,2	424,276
709,6	423,305
710	422,676
710,5	413,19
710,9	414,733
711,3	404,819
711,8	409,419
712,2	410,619
712,7	404,276
713,1	398,59
713,5	398,476
714	396,105
714,4	391,105
714,8	385,876
715,3	380,676
715,7	381,019
716,2	379,933
716,6	378,648
717	375,19
717,5	374,705
717,9	374,848
718,3	371,476
718,8	366,305
719,2	365,79
719,7	360,276
720,1	364,019
720,5	369,019
721	358,962
721,4	358,59
721,8	360,219
722,3	353,219
722,7	351,019
723,2	341,419
723,6	327,848
724	328,762
724,5	325,19
724,9	320,276
725,3	317,79
725,8	317,562
726,2	316,819
726,7	323,333
727,1	318,933
727,5	319,019
728	317,476
728,4	317,105
728,8	314,476
729,3	311,848
729,7	303,819
730,1	303,39
730,6	300,333
731	299,733
731,5	299,448
731,9	297,99
732,3	298,533
732,8	302,933
733,2	299,448
733,6	295,133
734,1	292,762
734,5	288,133
734,9	289,562
735,4	284,762
735,8	277,819
736,3	285,019
736,7	284,476
737,1	284,819
737,6	286,048
738	283,162
738,4	286,133
738,9	287,619
739,3	280,705
739,7	281,333
740,2	276,533
740,6	279,162
741,1	280,876
741,5	269,619
741,9	270,933
742,4	270,819
742,8	269,476
743,2	268,676
743,7	261,276
744,1	256,019
744,5	261,362
745	253,048
745,4	245,933
745,8	243,676
746,3	244,819
746,7	242,848
747,2	240,448
747,6	243,99
748	253,619
748,5	259,333
748,9	254,448
749,3	253,219
749,8	251,248
750,2	249,162
750,6	240,733
751,1	233,619
751,5	227,562
751,9	235,39
752,4	231,276
752,8	232,648
753,3	231,59
753,7	234,476
754,1	231,276
754,6	228,048
755	218,533
755,4	216,619
755,9	214,19
756,3	211,79
756,7	207,562
757,2	205,762
757,6	208,162
758	210,705
758,5	212,819
758,9	215,419
759,3	217,133
759,8	214,076
760,2	212,705
760,6	210,19
761,1	209,076
761,5	202,933
761,9	200,019
762,4	196,762
762,8	195,762
763,3	197,476
763,7	201,276
764,1	198,276
764,6	201,933
765	198,505
765,4	197,905
765,9	203,419
766,3	201,219
766,7	194,619
767,2	192,305
767,6	194,162
768	192,962
768,5	189,79
768,9	184,162
769,3	183,048
769,8	181,105
770,2	181,876
770,6	175,305
771,1	176,819
771,5	177,333
771,9	178,562
772,4	181,505
772,8	181,905
773,2	180,39
773,7	177,733
774,1	176,505
774,5	170,448
775	168,676
775,4	164,362
775,8	161,133
776,3	162,19
776,7	163,733
777,1	162,219
777,6	165,019
778	167,648
778,4	165,305
778,9	169,048
779,3	164,933
779,7	163,133
780,2	163,448
780,6	165,333
781	159,276
781,5	158,419
781,9	158,819
782,3	158,219
782,8	159,79
783,2	156,248
783,6	153,619
784,1	151,048
784,5	148,59
784,9	143,619
785,4	148,562
785,8	146,819
786,2	147,048
786,7	143,99
787,1	145,333
787,5	145,448
788	145,019
788,4	137,905
788,8	134,733
789,3	131,39
789,7	134,79
790,1	134,476
790,6	138,019
791	133,733
791,4	139,505
791,9	136,733
792,3	132,076
792,7	133,962
793,2	128,619
793,6	123,79
794	126,105
794,5	118,505
794,9	122,676
795,3	126,733
795,8	122,705
796,2	127,39
796,6	129,362
797,1	129,79
797,5	129,076
797,9	127,019
798,4	122,648
798,8	119,419
799,2	115,619
799,7	114,476
800,1	111,733
800,5	115,962
801	116,59
801,4	116,876
801,8	115,362
802,2	115,448
802,7	114,248
803,1	111,676
803,5	110,448
804	105,733
804,4	108,905
804,8	110,362
805,3	112,99
805,7	111,476
806,1	113,076
806,6	110,733
807	112,419
807,4	109,99
807,9	106,019
808,3	103,448
808,7	100,105
809,2	101,819
809,6	102,048
810	100,248
810,4	101,676
810,9	106,819
811,3	105,876
811,7	106,676
812,2	105,533
812,6	103,99
813	107,59
813,5	105,933
813,9	100,219
814,3	99,419
814,8	98,762
815,2	95,848
815,6	92,876
816,1	89,676
816,5	90,305
816,9	91,448
817,3	90,59
817,8	94,59
818,2	96,419
818,6	95,476
819,1	91,39
819,5	86,848
819,9	89,562
820,4	89,762
820,8	83,905
821,2	75,876
821,7	76,762
822,1	84,019
822,5	90,048
822,9	85,105
823,4	82,848
823,8	88,105
824,2	95,819
824,7	91,762
825,1	86,39
825,5	79,705
826	74,676
826,4	71,876
826,8	69,562
827,3	71,162
827,7	73,448
828,1	75,076
828,5	76,19
829	79,048
829,4	78,533
829,8	70,562
830,3	66,933
830,7	66,619
831,1	65,619
831,6	62,819
832	61,819
832,4	61,362
832,8	67,048
833,3	66,162
833,7	61,676
834,1	56,333
834,6	54,419
835	57,933
835,4	59,505
835,8	55,162
836,3	51,905
836,7	54,533
837,1	60,476
837,6	63,933
838	60,362
838,4	59,562
838,9	58,333
839,3	58,533
839,7	61,476
840,1	50,276
840,6	49,305
841	53,905
841,4	56,562
841,9	61,248
842,3	57,905
842,7	55,848
843,1	64,305
843,6	69,048
844	65,99
844,4	67,105
844,9	68,533
845,3	71,59
845,7	69,048
846,2	59,819
846,6	52,676
847	52,105
847,4	49,333
847,9	46,248
848,3	46,762
848,7	48,962
849,2	54,248
849,6	50,905
850	56,248
850,4	54,619
850,9	55,819
851,3	55,105
851,7	55,39
852,2	54,619
852,6	64,133
853	58,333
853,4	59,99
853,9	56,79
854,3	56,276
854,7	52,762
855,2	49,562
855,6	45,162
856	43,962
856,4	41,219
856,9	39,505
857,3	39,819
857,7	43,162
858,2	51,048
858,6	50,505
859	52,305
859,4	53,962
859,9	52,933
860,3	51,99
860,7	52,105
861,1	49,505
861,6	49,533
862	49,905
862,4	49,219
862,9	56,333
863,3	55,905
863,7	52,905
864,1	55,305
864,6	52,733
865	50,39
865,4	49,733
865,9	43,933
866,3	38,248
866,7	39,048
867,1	29,79
867,6	30,676
868	28,705
868,4	28,048
868,8	31,99
869,3	35,505
869,7	36,59
870,1	38,676
870,6	35,39
871	18,819
871,4	23,79
871,8	21,705
872,3	24,59
872,7	25,705
873,1	27,562
873,5	31,276
874	49,019
874,4	45,476
874,8	40,048
875,3	41,79
875,7	35,505
876,1	36,933
876,5	34,133
877	33,99
877,4	28,762
877,8	31,019
878,2	31,733
878,7	37,048
879,1	36,819
879,5	43,048
879,9	43,962
880,4	47,848
880,8	49,276
881,2	45,962
881,7	39,562
882,1	41,562
882,5	37,333
882,9	34,648
883,4	33,048
883,8	34,648
884,2	32,962
884,6	34,19
885,1	33,876
885,5	33,419
885,9	33,305
886,3	36,905
886,8	33,648
887,2	33,562
887,6	37,705
888	33,562
888,5	29,562
888,9	31,076
889,3	25,162
889,8	26,219
890,2	25,39
890,6	19,276
891	19,276
891,5	20,933
891,9	22,619
892,3	25,79
892,7	28,162
893,2	31,133
893,6	34,419
894	34,99
894,4	35,705
894,9	34,19
895,3	36,876
895,7	35,476
896,1	33,676
896,6	29,905
897	30,876
897,4	36,39
897,8	35,362
898,3	32,676
898,7	27,476
899,1	27,505
899,5	34,762
900	30,79
900,4	22,876
900,8	20,305
901,2	18,99
901,7	17,876
902,1	19,476
902,5	17,076
902,9	19,505
903,4	22,448
903,8	24,248
904,2	20,962
904,6	22,305
905,1	18,19
905,5	19,048
905,9	21,762
906,3	21,019
906,8	24,105
907,2	27,219
907,6	32,305
908	33,476
908,5	30,305
908,9	24,99
909,3	22,219
909,7	21,333
910,2	19,79
910,6	22,076
911	18,305
911,4	19,419
911,9	16,962
912,3	17,905
912,7	20,876
913,1	25,19
913,6	18,219
914	23,59
914,4	22,933
914,8	24,648
915,3	25,848
915,7	21,419
916,1	16,905
916,5	18,362
916,9	18,105
917,4	18,448
917,8	20,676
918,2	13,505
918,6	8,276
919,1	11,276
919,5	12,733
919,9	12,162
920,3	10,79
920,8	10,276
921,2	16,39
921,6	22,333
922	22,162
922,5	21,762
922,9	23,105
923,3	21,619
923,7	24,848
924,2	23,933
924,6	20,762
925	19,476
925,4	18,419
925,8	16,305
926,3	17,533
926,7	14,076
927,1	15,676
927,5	19,533
928	17,676
928,4	17,048
928,8	19,248
929,2	18,419
929,7	19,533
930,1	21,676
930,5	19,019
930,9	23,133
931,3	24,219
931,8	20,533
932,2	22,476
932,6	20,676
933	12,762
933,5	11,99
933,9	9,819
934,3	11,019
934,7	6,962
935,2	6,762
935,6	9,562
936	13,448
936,4	14,305
936,8	17,362
937,3	14,876
937,7	24,505
938,1	28,533
938,5	24,962
939	25,848
939,4	26,219
939,8	23,705
940,2	24,99
940,6	20,476
941,1	17,076
941,5	23,448
941,9	24,648
942,3	22,162
942,8	21,705
943,2	22,19
943,6	22,619
944	21,933
944,4	16,819
944,9	10,162
945,3	10,19
945,7	8,876
946,1	4,19
946,6	3,733
947	2,276
947,4	7,419
947,8	12,619
948,2	13,219
948,7	12,648
949,1	16,305
949,5	24,39
949,9	22,448
950,3	17,876
950,8	18,933
951,2	16,219
951,6	13,79
952	14,619
952,5	2,876
952,9	5,448
953,3	5,848
953,7	5,219
954,1	11,219
954,6	15,562
955	14,419
955,4	14,19
955,8	20,79
956,2	22,648
956,7	21,79
957,1	17,676
957,5	20,305
957,9	20,619
958,3	22,105
958,8	14,876
959,2	14,819
959,6	18,248
960	17,019
960,5	13,905
960,9	16,419
961,3	16,362
961,7	17,59
962,1	14,276
962,6	11,99
963	13,133
963,4	7,79
963,8	6,533
964,2	9,962
964,7	11,648
965,1	17,505
965,5	18,048
965,9	15,933
966,3	24,076
966,8	23,048
967,2	23,162
967,6	24,819
968	15,648
968,4	15,762
968,9	20,933
969,3	18,705
969,7	16,705
970,1	14,562
970,5	8,305
971	19,648
971,4	15,019
971,8	15,819
972,2	14,619
972,6	13,419
973,1	15,419
973,5	20,533
973,9	17,162
974,3	22,105
974,7	22,705
975,2	23,905
975,6	26,133
976	26,705
976,4	21,105
976,8	19,219
977,3	15,362
977,7	11,219
978,1	12,305
978,5	7,533
978,9	5,019
979,4	9,476
979,8	6,762
980,2	10,19
980,6	8,19
981	6,648
981,5	10,876
981,9	9,162
982,3	6,99
982,7	8,105
983,1	3,305
983,6	6,962
984	8,733
984,4	9,076
984,8	10,933
985,2	10,705
985,6	12,933
986,1	16,505
986,5	17,505
986,9	10,619
987,3	14,99
987,7	14,876
988,2	14,562
988,6	12,419
989	10,39
989,4	7,019
989,8	12,505
990,3	10,533
990,7	13,333
991,1	15,648
991,5	17,419
991,9	20,762
992,3	27,162
992,8	26,133
993,2	25,476
993,6	24,79
994	24,019
994,4	24,819
994,9	27,505
995,3	20,905
995,7	19,133
996,1	19,99
996,5	20,219
996,9	19,533
997,4	17,876
997,8	8,362
998,2	7,505
998,6	5,648
999	3,248
999,5	1,076
999,9	1,562
1000,3	-0,638
1000,7	5,248
1001,1	6,876
1001,5	11,505
1002	13,79
1002,4	13,533
1002,8	12,19
1003,2	15,962
1003,6	17,562
1004	19,562
1004,5	12,676
1004,9	15,248
1005,3	14,019
1005,7	20,476
1006,1	16,676
1006,6	13,105
1007	11,762
1007,4	17,419
1007,8	16,705
1008,2	14,333
1008,6	12,105
1009,1	13,162
1009,5	15,105
1009,9	18,219
1010,3	18,676
1010,7	17,333
1011,1	19,876
1011,6	17,076
1012	20,276
1012,4	19,676
1012,8	15,19
1013,2	16,705
1013,6	16,333
1014,1	20,105
1014,5	18,848
1014,9	19,733
1015,3	18,219
1015,7	22,733
1016,1	24,533
1016,6	22,648
1017	18,419
1017,4	17,648
1017,8	10,876
1018,2	12,648
1018,6	8,733
1019,1	2,99
1019,5	1,019
1019,9	2,99
1020,3	10,619
1020,7	16,248
1021,1	14,248
1021,6	14,219
1022	18,076
1022,4	21,59
1022,8	22,105
1023,2	17,505
1023,6	17,905
1024,1	23,79
1024,5	23,305
1024,9	18,648
1025,3	18,505
1025,7	15,848
1026,1	17,476
1026,6	13,619
1027	6,448
1027,4	13,305
1027,8	13,819
1028,2	9,39
1028,6	15,99
1029	10,019
1029,5	15,619
1029,9	18,162
1030,3	10,048
1030,7	14,076
1031,1	22,59
1031,5	14,876
1032	17,448
1032,4	13,505
1032,8	22,333
1033,2	27,448
1033,6	26,619
1034	17,619
1034,4	20,533
1034,9	24,962
1035,3	21,019
1035,7	17,105
1036,1	14,276
1036,5	9,333
1036,9	12,79
1037,4	14,39
1037,8	6,705
1038,2	15,105
1038,6	10,59
1039	14,905
1039,4	23,476
1039,8	18,676
1040,3	17,933
1040,7	21,619
1041,1	16,162
1041,5	15,276
1041,9	10,048
1042,3	4,476
1042,7	10,962
1043,2	9,162
1043,6	9,105
1044	11,562
1044,4	13,048
1044,8	15,419
1045,2	17,676
1045,6	17,762
1046,1	17,019
1046,5	16,876
1046,9	13,648
1047,3	15,248
1047,7	16,99
1048,1	14,39
1048,5	15,19
1049	17,505
1049,4	21,905
1049,8	23,333
1050,2	20,076
1050,6	20,305
1051	25,79
1051,4	20,19
1051,9	20,876
1052,3	25,933
1052,7	25,505
1053,1	26,848
1053,5	28,848
1053,9	27,505
1054,3	30,276
1054,8	30,019
1055,2	25,048
1055,6	26,333
1056	29,105
1056,4	25,619
1056,8	20,848
1057,2	19,505
1057,6	14,762
1058,1	10,019
1058,5	8,019
1058,9	8,133
1059,3	10,133
1059,7	11,99
1060,1	10,219
1060,5	13,448
1061	15,362
1061,4	19,362
1061,8	21,333
1062,2	18,333
1062,6	22,248
1063	27,019
1063,4	26,048
1063,8	22,19
1064,3	14,448
1064,7	9,419
1065,1	5,59
1065,5	0,133
1065,9	-4,81
1066,3	-4,038
1066,7	-3,324
1067,1	-0,924
1067,6	4,39
1068	4,162
1068,4	5,962
1068,8	9,19
1069,2	8,562
1069,6	10,619
1070	14,19
1070,4	7,448
1070,9	13,362
1071,3	11,562
1071,7	9,962
1072,1	10,048
1072,5	5,59
1072,9	2,533
1073,3	4,876
1073,7	-0,095
1074,2	4,848
1074,6	9,219
1075	10,819
1075,4	15,705
1075,8	19,933
1076,2	20,99
1076,6	25,419
1077	23,362
1077,5	22,562
1077,9	21,476
1078,3	18,905
1078,7	16,133
1079,1	15,048
1079,5	12,848
1079,9	11,533
1080,3	8,333
1080,7	7,448
1081,2	11,619
1081,6	11,448
1082	6,533
1082,4	9,59
1082,8	12,019
1083,2	11,39
1083,6	12,933
1084	9,733
1084,5	11,733
1084,9	11,648
1085,3	7,448
1085,7	8,133
1086,1	8,162
1086,5	9,133
1086,9	10,305
1087,3	9,676
1087,7	11,219
1088,2	13,933
1088,6	10,448
1089	14,448
1089,4	13,733
1089,8	12,533
1090,2	10,448
1090,6	12,276
1091	12,705
1091,4	15,333
1091,9	12,819
1092,3	14,819
1092,7	10,876
1093,1	16,276
1093,5	19,133
1093,9	20,505
1094,3	24,505
1094,7	24,533
1095,1	24,419
1095,5	29,105
1096	23,362
1096,4	22,362
1096,8	23,533
1097,2	17,705
1097,6	21,048
1098	18,99
1098,4	21,619
1098,8	21,39
1099,2	23,448
1099,6	18,362
1100,1	17,619
1100,5	14,362
1100,9	15,419
1101,3	12,933
1101,7	11,676
1102,1	7,762
1102,5	10,048
1102,9	11,419
1103,3	15,705
1103,7	15,019
1104,2	13,419
1104,6	17,705
1105	19,705
1105,4	19,048
1105,8	15,619
1106,2	9,59
1106,6	7,562
1107	7,619
1107,4	4,867
1107,8	2,813
1108,3	-0,067
