Data from Subt2_291.txt Node
Date: Sat Aug 26 19:10:43 MSK 2023
User: vat
Spectrometer: MAYP114033
Trigger mode: 0
Integration Time (sec): 1,000000E0
Scans to average: 5
Electric dark correction enabled: true
Nonlinearity correction enabled: false
Boxcar width: 3
XAxis mode: Wavelengths
Number of Pixels in Spectrum: 2068
>>>>>Begin Spectral Data<<<<<
199,4	-0,85
199,9	1,84
200,4	1,1
200,8	3,571
201,3	4,114
201,8	8,286
202,2	6,457
202,7	10,371
203,2	7,829
203,6	9,057
204,1	5,371
204,6	4,743
205	1,6
205,5	2,686
206	-1,2
206,4	0,943
206,9	1,314
207,4	4,314
207,8	5,657
208,3	7,371
208,8	9,543
209,2	10,771
209,7	11,057
210,2	11,343
210,6	7,971
211,1	11,8
211,5	8
212	6,8
212,5	8,314
212,9	7,343
213,4	9,2
213,9	10,057
214,3	9,171
214,8	11,229
215,3	8,743
215,7	10,229
216,2	12,143
216,7	9
217,1	6,657
217,6	3,943
218,1	3,457
218,5	4,371
219	-0,114
219,5	-1,743
219,9	-3,829
220,4	6,914
220,9	6,286
221,3	8,886
221,8	13,029
222,3	13,8
222,7	16,914
223,2	19,657
223,6	13,514
224,1	11,2
224,6	10,857
225	7,457
225,5	7,229
226	6,314
226,4	9,514
226,9	9,971
227,4	12,886
227,8	6,029
228,3	7,714
228,8	6,771
229,2	4,886
229,7	0,4
230,2	-0,371
230,6	2,314
231,1	10,6
231,5	13,171
232	15,257
232,5	16,429
232,9	19,143
233,4	19,943
233,9	16,829
234,3	15,857
234,8	13,6
235,3	13,943
235,7	14,829
236,2	14,257
236,7	14,971
237,1	17,4
237,6	13,486
238,1	13,057
238,5	7,086
239	5,914
239,4	7,486
239,9	5,343
240,4	2,914
240,8	8,571
241,3	7,086
241,8	12,029
242,2	9,114
242,7	5,914
243,2	5,286
243,6	4,143
244,1	2,6
244,6	4,343
245	4,857
245,5	4,8
245,9	1,829
246,4	2,057
246,9	3,514
247,3	2,743
247,8	2,514
248,3	2,6
248,7	3,486
249,2	4,829
249,7	6,257
250,1	9,714
250,6	6,286
251	12,343
251,5	10,343
252	12,371
252,4	19,2
252,9	18,029
253,4	11,943
253,8	12,971
254,3	6,771
254,8	9,6
255,2	4,857
255,7	-2,6
256,1	0,686
256,6	2,457
257,1	5,971
257,5	2,314
258	0,029
258,5	2,457
258,9	4,6
259,4	0,714
259,9	1,686
260,3	-4,057
260,8	-5,771
261,2	-4,771
261,7	1,629
262,2	2,057
262,6	2,543
263,1	7,829
263,6	12,829
264	22,829
264,5	24,629
264,9	16,486
265,4	20,057
265,9	19,114
266,3	18,371
266,8	16,629
267,3	16,171
267,7	14,114
268,2	16,543
268,7	16,8
269,1	17,771
269,6	12
270	17,943
270,5	13,2
271	12,514
271,4	13,686
271,9	7,514
272,4	13,229
272,8	14,543
273,3	5,971
273,7	7,343
274,2	8,4
274,7	10,829
275,1	14,771
275,6	9,571
276,1	7,657
276,5	14,486
277	10,257
277,4	12,086
277,9	11,514
278,4	9,743
278,8	13,686
279,3	18,371
279,8	13,629
280,2	18,8
280,7	16,171
281,1	9,943
281,6	9,2
282,1	8,971
282,5	8,057
283	8,571
283,4	8,886
283,9	12,143
284,4	21,029
284,8	24,114
285,3	19,543
285,8	20,714
286,2	17,886
286,7	13,286
287,1	8,943
287,6	5,629
288,1	0,829
288,5	1,429
289	-0,686
289,5	3,914
289,9	2,8
290,4	6,971
290,8	7,571
291,3	12,114
291,8	16,114
292,2	14
292,7	14,114
293,1	14,857
293,6	14,086
294,1	12,029
294,5	9,686
295	7,171
295,5	8,629
295,9	8,4
296,4	6,8
296,8	5,2
297,3	5,457
297,8	4,543
298,2	-0,143
298,7	3,971
299,1	1,086
299,6	3,371
300,1	8,257
300,5	11,343
301	15,514
301,5	23
301,9	20,829
302,4	20,857
302,8	19,886
303,3	16,143
303,8	10,286
304,2	7,6
304,7	3,629
305,1	0,343
305,6	1,171
306,1	10,886
306,5	12,057
307	19
307,4	22,743
307,9	21,114
308,4	19,8
308,8	20,086
309,3	14,314
309,8	9,971
310,2	3,086
310,7	-5,343
311,1	-3,571
311,6	-1,857
312,1	-0,657
312,5	2,457
313	6,686
313,4	13,114
313,9	18,286
314,4	16,914
314,8	12,314
315,3	11,114
315,7	4,229
316,2	2,286
316,7	-1,829
317,1	2,943
317,6	1,943
318	11,8
318,5	12,429
319	15,143
319,4	14,2
319,9	20,943
320,3	18,229
320,8	19,857
321,3	17,057
321,7	16,486
322,2	17,486
322,6	19,514
323,1	11,743
323,6	10,457
324	11,143
324,5	8,143
324,9	10,257
325,4	8,514
325,9	10,371
326,3	12,571
326,8	13,743
327,2	8,4
327,7	9,971
328,2	9,171
328,6	11,314
329,1	4,971
329,5	7,057
330	6,4
330,5	12,029
330,9	11,543
331,4	11,829
331,8	9,286
332,3	17,314
332,8	16,2
333,2	13,314
333,7	17,343
334,1	18,457
334,6	16,514
335,1	14,857
335,5	10,686
336	6,8
336,4	8,171
336,9	8,143
337,4	10,171
337,8	9,829
338,3	15,286
338,7	18,343
339,2	21,343
339,7	22,4
340,1	20,257
340,6	19,2
341	18,571
341,5	16,486
342	15,229
342,4	13,2
342,9	9,6
343,3	8,429
343,8	3,714
344,2	5,429
344,7	10,086
345,2	8,143
345,6	10,371
346,1	12,771
346,5	10,743
347	10,857
347,5	8,743
347,9	8,857
348,4	10,2
348,8	9,886
349,3	14,8
349,8	20,114
350,2	28,171
350,7	26,543
351,1	24,143
351,6	27,257
352	31,114
352,5	31,571
353	36,457
353,4	35,8
353,9	49,657
354,3	60,229
354,8	71,571
355,3	89,171
355,7	108,114
356,2	127,657
356,6	152,857
357,1	176,114
357,5	205,143
358	241,857
358,5	274,257
358,9	312,257
359,4	356,686
359,8	408,914
360,3	473,486
360,8	536,657
361,2	608,314
361,7	691,857
362,1	785,371
362,6	885,771
363	988,429
363,5	1093,314
364	1211,886
364,4	1329,886
364,9	1449,171
365,3	1562,886
365,8	1671,829
366,3	1779,514
366,7	1875,143
367,2	1957,314
367,6	2022,343
368,1	2070,4
368,5	2105,429
369	2122,886
369,5	2131,371
369,9	2115,886
370,4	2081,257
370,8	2037,457
371,3	1978,057
371,7	1907,286
372,2	1822,857
372,7	1725,257
373,1	1637,857
373,6	1546,029
374	1448,429
374,5	1354,657
374,9	1266,229
375,4	1183,257
375,9	1095,057
376,3	1011,657
376,8	926,057
377,2	856,2
377,7	784
378,2	714,829
378,6	653,429
379,1	602,4
379,5	550,657
380	513,543
380,4	465,914
380,9	430,429
381,4	392,514
381,8	364,771
382,3	340,229
382,7	315,086
383,2	293,429
383,6	274,429
384,1	261,886
384,6	252,743
385	232,657
385,5	217,429
385,9	203,4
386,4	188,171
386,8	175,571
387,3	156,429
387,7	144,286
388,2	138,971
388,7	127,543
389,1	119,229
389,6	112,6
390	109,714
390,5	107,971
390,9	104,371
391,4	96,943
391,9	93,886
392,3	91,229
392,8	85,6
393,2	75,4
393,7	73,914
394,1	68,171
394,6	64,543
395,1	63,171
395,5	59,657
396	59,029
396,4	62,429
396,9	58,2
397,3	59,057
397,8	56,171
398,2	52,829
398,7	52,257
399,2	51,171
399,6	51,914
400,1	48,543
400,5	42,457
401	42,457
401,4	40,029
401,9	41,429
402,4	41,8
402,8	36,629
403,3	44,257
403,7	44,486
404,2	47,857
404,6	51
405,1	46,829
405,5	45,629
406	46,886
406,5	43,829
406,9	48
407,4	45,714
407,8	45,629
408,3	49,314
408,7	48,6
409,2	54,829
409,6	57,029
410,1	57,743
410,6	62
411	64,171
411,5	64,114
411,9	66,086
412,4	62,971
412,8	61,8
413,3	61,886
413,7	62,086
414,2	59,8
414,7	64,171
415,1	68,143
415,6	73,486
416	75,629
416,5	81,571
416,9	77,371
417,4	84,171
417,8	89,314
418,3	96,743
418,8	98,114
419,2	99,743
419,7	98,571
420,1	109,686
420,6	110,8
421	106,029
421,5	100,743
421,9	102,629
422,4	105,971
422,8	108,943
423,3	105,257
423,8	99,6
424,2	97,629
424,7	98,371
425,1	95,429
425,6	94,8
426	91,171
426,5	93,629
426,9	100,314
427,4	101,171
427,9	96,229
428,3	98,086
428,8	97,171
429,2	96,743
429,7	93,629
430,1	91,314
430,6	93,457
431	100,629
431,5	104,371
431,9	101,429
432,4	106,829
432,8	114,314
433,3	115,314
433,8	115,457
434,2	117,514
434,7	116,086
435,1	123,6
435,6	124,943
436	122,886
436,5	129,171
436,9	132,371
437,4	136,143
437,8	139,914
438,3	143,829
438,8	142,857
439,2	151
439,7	155,771
440,1	165,4
440,6	172,571
441	174,171
441,5	179,714
441,9	191,743
442,4	193,771
442,8	197,2
443,3	204,743
443,7	210,429
444,2	225,286
444,7	231,8
445,1	243,029
445,6	251,314
446	264,171
446,5	267,114
446,9	274,171
447,4	283,8
447,8	298,6
448,3	312,371
448,7	325,257
449,2	343,943
449,6	364,771
450,1	381,086
450,6	401,743
451	415,314
451,5	425,286
451,9	444,343
452,4	460,543
452,8	471,286
453,3	489,857
453,7	500,257
454,2	516,314
454,6	534,857
455,1	551,029
455,5	560,2
456	586,371
456,4	602,2
456,9	618,829
457,3	638,029
457,8	652,343
458,3	677,2
458,7	699,6
459,2	719,686
459,6	740,829
460,1	767,371
460,5	788,914
461	820,229
461,4	837,314
461,9	859,629
462,3	881,886
462,8	909,086
463,2	930,629
463,7	957,771
464,1	982,714
464,6	1014,743
465	1046,057
465,5	1076,2
466	1104,571
466,4	1130,457
466,9	1160,314
467,3	1188,457
467,8	1217,829
468,2	1248,971
468,7	1274,371
469,1	1305,086
469,6	1339,686
470	1368,286
470,5	1399,886
470,9	1425,029
471,4	1451,8
471,8	1483,886
472,3	1513,857
472,7	1543,543
473,2	1570,2
473,6	1597,286
474,1	1630
474,5	1659,6
475	1689,686
475,4	1716,771
475,9	1750,286
476,4	1781,829
476,8	1812,029
477,3	1841,457
477,7	1872,057
478,2	1901,943
478,6	1925,571
479,1	1946,971
479,5	1977,714
480	2006,257
480,4	2028,971
480,9	2052,2
481,3	2071,971
481,8	2103,086
482,2	2123,171
482,7	2143,886
483,1	2161,971
483,6	2189,6
484	2208,171
484,5	2239,743
484,9	2252,657
485,4	2277,857
485,8	2297,143
486,3	2318,257
486,7	2338,514
487,2	2358,543
487,6	2365,429
488,1	2389,086
488,5	2402,343
489	2421,2
489,4	2442,229
489,9	2454,371
490,4	2473,229
490,8	2490,6
491,3	2506,743
491,7	2522,4
492,2	2537,114
492,6	2542,629
493,1	2545,229
493,5	2549,486
494	2554,314
494,4	2560,371
494,9	2567,286
495,3	2569,829
495,8	2574,743
496,2	2587,629
496,7	2594,429
497,1	2605,571
497,6	2612,2
498	2616,286
498,5	2624,286
498,9	2631,229
499,4	2635,314
499,8	2648,686
500,3	2655,714
500,7	2659,086
501,2	2662,771
501,6	2657,486
502,1	2663,229
502,5	2668,229
503	2665,829
503,4	2663,429
503,9	2659,543
504,3	2664,714
504,8	2671,2
505,2	2671,114
505,7	2669,486
506,1	2673
506,6	2672,457
507	2680,829
507,5	2683,171
507,9	2684,6
508,4	2683,029
508,8	2687,171
509,3	2681,886
509,7	2685,086
510,2	2684,257
510,6	2677,6
511,1	2673,114
511,5	2674,029
512	2666,486
512,4	2667,314
512,9	2665,771
513,3	2657,086
513,8	2651,371
514,2	2656,257
514,7	2651,943
515,1	2651,029
515,6	2645,314
516	2640,457
516,5	2645,629
516,9	2653,686
517,4	2650,943
517,8	2653,029
518,3	2648,4
518,7	2650,657
519,2	2648,686
519,6	2644,714
520,1	2638,057
520,5	2636,714
521	2626,429
521,4	2628,743
521,9	2625,286
522,3	2623,457
522,8	2622,286
523,2	2621,286
523,7	2617,914
524,1	2625,8
524,6	2623,4
525	2620,257
525,5	2617,543
525,9	2621,114
526,4	2620,343
526,8	2615,029
527,3	2617,429
527,7	2622,8
528,2	2625,6
528,6	2630,4
529,1	2632,857
529,5	2633,2
530	2641,314
530,4	2640,257
530,9	2636,743
531,3	2637,2
531,8	2640,2
532,2	2640,629
532,6	2642,743
533,1	2644,114
533,5	2643,114
534	2649,829
534,4	2653,829
534,9	2655,086
535,3	2654,8
535,8	2656,943
536,2	2659,4
536,7	2661,029
537,1	2658,114
537,6	2654,857
538	2656,457
538,5	2655,4
538,9	2657,114
539,4	2656,629
539,8	2656,571
540,3	2659,486
540,7	2660,6
541,2	2659,657
541,6	2662,314
542,1	2666,943
542,5	2669,771
543	2672,714
543,4	2672,571
543,9	2683,314
544,3	2685,057
544,8	2684,971
545,2	2688,114
545,7	2690,457
546,1	2696,314
546,5	2703,914
547	2703,486
547,4	2712,829
547,9	2717,686
548,3	2717,2
548,8	2719,314
549,2	2715,457
549,7	2714,286
550,1	2720,486
550,6	2720,429
551	2723,857
551,5	2731,514
551,9	2733,457
552,4	2740,286
552,8	2747,857
553,3	2746,8
553,7	2749
554,2	2750,543
554,6	2752,914
555,1	2757,8
555,5	2760,543
555,9	2761,143
556,4	2761,543
556,8	2763,314
557,3	2770,057
557,7	2769,8
558,2	2774,514
558,6	2779,343
559,1	2781
559,5	2782,914
560	2789,371
560,4	2787,571
560,9	2791,029
561,3	2788,686
561,8	2785,8
562,2	2791,629
562,7	2795,429
563,1	2795,771
563,6	2795,886
564	2801,8
564,4	2807,514
564,9	2809,543
565,3	2809,229
565,8	2815,257
566,2	2816,914
566,7	2821,571
567,1	2821
567,6	2822,914
568	2826
568,5	2823,714
568,9	2821,2
569,4	2822,743
569,8	2825
570,3	2823,8
570,7	2819,514
571,1	2821,314
571,6	2826,771
572	2832,086
572,5	2829,086
572,9	2820,971
573,4	2816,571
573,8	2820,571
574,3	2820
574,7	2814
575,2	2800,857
575,6	2797,971
576,1	2801,743
576,5	2810,914
576,9	2810,486
577,4	2803,086
577,8	2803,4
578,3	2808,2
578,7	2798,943
579,2	2799,029
579,6	2783,914
580,1	2771,543
580,5	2772,657
581	2774,4
581,4	2775,286
581,9	2773,971
582,3	2773,514
582,7	2777,971
583,2	2780,657
583,6	2777,771
584,1	2766,114
584,5	2757,571
585	2758,8
585,4	2746,343
585,9	2739,343
586,3	2731,229
586,8	2728,571
587,2	2724,171
587,6	2724,457
588,1	2722,486
588,5	2721,971
589	2722,086
589,4	2718
589,9	2717,086
590,3	2713,457
590,8	2702,457
591,2	2699,429
591,7	2697,343
592,1	2690,143
592,5	2696,114
593	2681
593,4	2679,257
593,9	2674,4
594,3	2664,8
594,8	2658,571
595,2	2654,914
595,7	2641,257
596,1	2642,8
596,6	2637,257
597	2636,857
597,4	2638,286
597,9	2634,486
598,3	2629,829
598,8	2628,886
599,2	2627,971
599,7	2626,086
600,1	2618,314
600,6	2609,429
601	2605,543
601,4	2600,914
601,9	2596,286
602,3	2584,886
602,8	2573,371
603,2	2570,229
603,7	2568,943
604,1	2557,943
604,6	2554,514
605	2541,457
605,4	2539,686
605,9	2539,4
606,3	2526,914
606,8	2513,143
607,2	2507
607,7	2497,314
608,1	2497
608,6	2494,257
609	2489,257
609,4	2488,943
609,9	2483,486
610,3	2472,857
610,8	2455,543
611,2	2449,143
611,7	2436,686
612,1	2424,886
612,6	2419,486
613	2416,457
613,4	2410,8
613,9	2412,229
614,3	2398,6
614,8	2393,429
615,2	2384,314
615,7	2378,057
616,1	2363,4
616,6	2356,714
617	2348,743
617,4	2344,657
617,9	2334,114
618,3	2326,114
618,8	2316,829
619,2	2313,8
619,7	2305,8
620,1	2292,743
620,5	2285,486
621	2274,514
621,4	2269,657
621,9	2255,086
622,3	2246,429
622,8	2237,429
623,2	2230,314
623,6	2222
624,1	2215,743
624,5	2203,686
625	2201
625,4	2191,343
625,9	2184,114
626,3	2176,429
626,8	2163,4
627,2	2151,457
627,6	2137
628,1	2125,514
628,5	2115,486
629	2103,514
629,4	2092,286
629,9	2080,6
630,3	2064,2
630,7	2054,343
631,2	2043,657
631,6	2029,057
632,1	2018,771
632,5	2007,371
633	1999,171
633,4	1994,971
633,8	1989,114
634,3	1977,314
634,7	1970,6
635,2	1957,686
635,6	1947
636,1	1940,714
636,5	1931,229
636,9	1921,4
637,4	1912,4
637,8	1903,657
638,3	1895,2
638,7	1885,714
639,2	1869,229
639,6	1865,086
640	1852,543
640,5	1847,429
640,9	1838,143
641,4	1834,514
641,8	1829,771
642,2	1822,943
642,7	1814,6
643,1	1812,2
643,6	1799,257
644	1789,4
644,5	1779,857
644,9	1771,429
645,3	1761,886
645,8	1749,657
646,2	1742,114
646,7	1733,029
647,1	1725,514
647,6	1714,943
648	1706,514
648,4	1698,143
648,9	1691,171
649,3	1680,371
649,8	1673,514
650,2	1664,143
650,6	1662,086
651,1	1655,829
651,5	1653,2
652	1642,143
652,4	1630,171
652,9	1624,714
653,3	1619,971
653,7	1603,143
654,2	1590,571
654,6	1581,743
655,1	1577,371
655,5	1579,343
655,9	1567,543
656,4	1555,714
656,8	1550
657,3	1543,086
657,7	1534,743
658,2	1524,914
658,6	1507,829
659	1501,286
659,5	1491,457
659,9	1481,743
660,4	1473,857
660,8	1467,771
661,2	1460,8
661,7	1455,057
662,1	1450,857
662,6	1446,457
663	1444,6
663,4	1437,029
663,9	1428,2
664,3	1418,343
664,8	1407,771
665,2	1395,457
665,6	1381,771
666,1	1372,486
666,5	1361,457
667	1353,829
667,4	1345,657
667,9	1338,971
668,3	1328,514
668,7	1323,314
669,2	1320,171
669,6	1316,886
670,1	1306,857
670,5	1296,629
670,9	1287,886
671,4	1276,714
671,8	1272,657
672,3	1259,257
672,7	1249,171
673,1	1233,657
673,6	1228,543
674	1224,829
674,5	1220,6
674,9	1208,514
675,3	1195,686
675,8	1190,6
676,2	1192,886
676,7	1181,686
677,1	1172,4
677,5	1164,486
678	1158,914
678,4	1157,343
678,9	1149,629
679,3	1139,114
679,7	1133,714
680,2	1124,743
680,6	1116,429
681,1	1115,429
681,5	1109,429
681,9	1103,743
682,4	1095,829
682,8	1091,286
683,3	1086,2
683,7	1080,343
684,1	1071,657
684,6	1061,429
685	1049,2
685,5	1042,743
685,9	1032,114
686,3	1024,029
686,8	1020,371
687,2	1010,743
687,7	1006,057
688,1	997,429
688,5	992,629
689	988,457
689,4	985,8
689,9	977
690,3	967,629
690,7	961,629
691,2	965,6
691,6	960,286
692	955,486
692,5	951,543
692,9	948,029
693,4	946,571
693,8	940,943
694,2	929,943
694,7	924,286
695,1	916,971
695,6	911,771
696	907,143
696,4	899,314
696,9	891,114
697,3	885,886
697,8	879,086
698,2	875,171
698,6	866,2
699,1	861,343
699,5	860,971
699,9	852,943
700,4	845,886
700,8	841,8
701,3	834,771
701,7	828,829
702,1	817,857
702,6	809,629
703	813,829
703,5	805,343
703,9	798
704,3	794,571
704,8	788,6
705,2	789,286
705,6	786,314
706,1	776,114
706,5	772,914
707	773,2
707,4	770,971
707,8	765,257
708,3	761,229
708,7	756,057
709,2	754,714
709,6	751,8
710	747,257
710,5	739,2
710,9	735
711,3	725,514
711,8	718,257
712,2	711,4
712,7	704,514
713,1	699,2
713,5	697,8
714	696,771
714,4	694,514
714,8	691,857
715,3	685,229
715,7	685,2
716,2	675,114
716,6	668,6
717	660,029
717,5	656,029
717,9	655,114
718,3	651,857
718,8	647,886
719,2	645,029
719,7	642
720,1	645,429
720,5	639,371
721	629,229
721,4	625,257
721,8	628,257
722,3	625,229
722,7	625,343
723,2	613,486
723,6	602,714
724	597,4
724,5	590,114
724,9	577,343
725,3	570,686
725,8	559,314
726,2	554,057
726,7	556,343
727,1	551,457
727,5	552
728	544
728,4	540,543
728,8	537,4
729,3	534,886
729,7	529,314
730,1	528,714
730,6	523,686
731	519,057
731,5	516,2
731,9	513,429
732,3	516,514
732,8	516,457
733,2	513,657
733,6	511,086
734,1	516,857
734,5	516,2
734,9	515,629
735,4	508,571
735,8	501,257
736,3	503,829
736,7	500,114
737,1	497,029
737,6	494,743
738	489,829
738,4	488,914
738,9	494
739,3	485,971
739,7	488,686
740,2	482,371
740,6	482,114
741,1	483,286
741,5	473,543
741,9	464,943
742,4	465,571
742,8	457,457
743,2	457
743,7	447,257
744,1	438,457
744,5	439,229
745	436,886
745,4	429,486
745,8	428,543
746,3	425,771
746,7	425,571
747,2	423,229
747,6	426,171
748	430,457
748,5	429,886
748,9	421,257
749,3	416,971
749,8	415,171
750,2	414,543
750,6	410,343
751,1	407,457
751,5	402,857
751,9	406,743
752,4	405,171
752,8	403,629
753,3	401,543
753,7	397,514
754,1	387,171
754,6	383
755	375,8
755,4	371,771
755,9	369,371
756,3	366,286
756,7	363,943
757,2	371,286
757,6	371,686
758	370,686
758,5	371,143
758,9	364,371
759,3	362,143
759,8	360,314
760,2	353,057
760,6	350,943
761,1	348,057
761,5	343,629
761,9	344,771
762,4	341,171
762,8	338,314
763,3	337,143
763,7	337,686
764,1	339,914
764,6	339,686
765	338,371
765,4	340
765,9	335,629
766,3	333,429
766,7	326,8
767,2	320,286
767,6	318,914
768	312,943
768,5	306,914
768,9	307,657
769,3	300,229
769,8	301,4
770,2	301,286
770,6	297,286
771,1	300,771
771,5	299,286
771,9	298,286
772,4	298,486
772,8	295,571
773,2	295,8
773,7	293,257
774,1	290,086
774,5	288,971
775	284,171
775,4	286,686
775,8	284,143
776,3	285,057
776,7	282,943
777,1	278,829
777,6	280,086
778	280,343
778,4	280,086
778,9	281,086
779,3	273,514
779,7	274,029
780,2	276
780,6	271,971
781	266,543
781,5	258,8
781,9	255,743
782,3	254,286
782,8	251
783,2	249,343
783,6	250,771
784,1	253,429
784,5	250,229
784,9	246,514
785,4	247,514
785,8	248,286
786,2	246,629
786,7	242,743
787,1	241,371
787,5	245,171
788	239,457
788,4	237,543
788,8	235,314
789,3	228,629
789,7	227,257
790,1	221,571
790,6	219,143
791	220,171
791,4	219,257
791,9	213,971
792,3	215,143
792,7	217,057
793,2	215,971
793,6	213,229
794	214,714
794,5	211,257
794,9	212,514
795,3	213,657
795,8	208,771
796,2	209,971
796,6	210,086
797,1	207,571
797,5	206,6
797,9	205,657
798,4	201,657
798,8	197,743
799,2	199,086
799,7	198,029
800,1	196,057
800,5	195,2
801	195,314
801,4	192,371
801,8	193,057
802,2	188,657
802,7	181,714
803,1	182,057
803,5	180,971
804	174,886
804,4	174,886
804,8	173,486
805,3	169,629
805,7	170,257
806,1	169,6
806,6	167
807	164,171
807,4	163,343
807,9	154,886
808,3	154,771
808,7	155,8
809,2	158,457
809,6	160,543
810	161,371
810,4	160,171
810,9	166,886
811,3	167,886
811,7	168,629
812,2	167,571
812,6	164,829
813	170,4
813,5	170,886
813,9	168,257
814,3	164,343
814,8	161,914
815,2	150,486
815,6	146,886
816,1	143,229
816,5	141,457
816,9	142,286
817,3	142,857
817,8	146,943
818,2	147,143
818,6	148,029
819,1	144,657
819,5	140,457
819,9	141,114
820,4	140,514
820,8	133,143
821,2	131,629
821,7	133,686
822,1	136,057
822,5	142,914
822,9	135,857
823,4	135,714
823,8	138,657
824,2	142,543
824,7	135,629
825,1	125,286
825,5	116,257
826	113,686
826,4	111,943
826,8	110,4
827,3	110,857
827,7	112,829
828,1	117,457
828,5	116,429
829	114,057
829,4	112,2
829,8	105,543
830,3	105,257
830,7	103,771
831,1	104,371
831,6	107,714
832	113,514
832,4	109,971
832,8	111,943
833,3	107
833,7	102,971
834,1	100,457
834,6	97,457
835	97,2
835,4	101,714
835,8	101,314
836,3	102,971
836,7	108,057
837,1	107,229
837,6	110,514
838	106,2
838,4	100,343
838,9	99,4
839,3	93,914
839,7	89,829
840,1	87,629
840,6	82,571
841	87,286
841,4	92,029
841,9	93,971
842,3	97,343
842,7	98,2
843,1	93,714
843,6	96,571
844	94
844,4	94,171
844,9	93,943
845,3	93,086
845,7	92,971
846,2	97,143
846,6	94,629
847	95,343
847,4	92,371
847,9	88,314
848,3	88,143
848,7	84,086
849,2	84,086
849,6	80,971
850	82,686
850,4	79,6
850,9	78,743
851,3	80,629
851,7	82,429
852,2	81,857
852,6	88,543
853	87,086
853,4	85,371
853,9	83,257
854,3	79,829
854,7	77,057
855,2	74,857
855,6	68,371
856	59,714
856,4	60,943
856,9	61,8
857,3	64,629
857,7	66,286
858,2	71,571
858,6	72,486
859	76,171
859,4	76,457
859,9	75,114
860,3	69,143
860,7	70,314
861,1	69,114
861,6	65,343
862	67,543
862,4	61,657
862,9	62,771
863,3	65,371
863,7	62,943
864,1	60,171
864,6	60,057
865	60,543
865,4	62,171
865,9	64,171
866,3	62,343
866,7	61,886
867,1	58,829
867,6	61,429
868	60,4
868,4	61,743
868,8	59,971
869,3	56,114
869,7	59,257
870,1	56,029
870,6	54,286
871	5,857
871,4	10,943
871,8	6,629
872,3	10,086
872,7	6,514
873,1	10,114
873,5	8,314
874	54,057
874,4	51
874,8	51,514
875,3	50,714
875,7	49,714
876,1	54,486
876,5	56,029
877	53,543
877,4	49,429
877,8	49,6
878,2	55,171
878,7	58,286
879,1	54,886
879,5	55,286
879,9	57,486
880,4	60,143
880,8	60,943
881,2	54,771
881,7	50,429
882,1	49,914
882,5	48,457
882,9	48,714
883,4	42,657
883,8	42,743
884,2	42,429
884,6	41,257
885,1	37,657
885,5	37,914
885,9	36,829
886,3	42,4
886,8	39,714
887,2	37,457
887,6	36,343
888	37,229
888,5	38,371
888,9	34,171
889,3	31,914
889,8	34,886
890,2	36,114
890,6	34,371
891	37,571
891,5	35,857
891,9	36,829
892,3	36,686
892,7	35,743
893,2	35,514
893,6	40,829
894	38,714
894,4	35,371
894,9	37,543
895,3	39,029
895,7	41,943
896,1	41,857
896,6	42,086
897	45,2
897,4	49,543
897,8	52,257
898,3	52,543
898,7	48,343
899,1	49,914
899,5	44,086
900	36,714
900,4	35,429
900,8	30,771
901,2	26,686
901,7	25,4
902,1	26
902,5	31,457
902,9	33,6
903,4	33,057
903,8	31,114
904,2	31,857
904,6	34,4
905,1	33,171
905,5	29,886
905,9	34,171
906,3	33,229
906,8	38,086
907,2	41,371
907,6	39,686
908	39,143
908,5	37,943
908,9	33,571
909,3	32,971
909,7	31,571
910,2	31,857
910,6	35,429
911	30,6
911,4	33,343
911,9	29,514
912,3	31,371
912,7	32,2
913,1	27,457
913,6	22,6
914	26,6
914,4	24,029
914,8	27,343
915,3	24,629
915,7	23,286
916,1	24,029
916,5	25,114
916,9	26,029
917,4	26,286
917,8	27,286
918,2	26,857
918,6	20,429
919,1	23,629
919,5	22,314
919,9	21,6
920,3	20,429
920,8	21,029
921,2	20,343
921,6	23,057
922	22,057
922,5	21,943
922,9	22,114
923,3	23,971
923,7	24,829
924,2	25,571
924,6	28,714
925	27
925,4	29,686
925,8	31,057
926,3	30,143
926,7	23,114
927,1	23,714
927,5	24,686
928	22,714
928,4	17,743
928,8	16,457
929,2	16,229
929,7	21,571
930,1	23,743
930,5	19,943
930,9	24,114
931,3	26,314
931,8	25,6
932,2	23,543
932,6	22,371
933	14,2
933,5	14,829
933,9	13,714
934,3	14
934,7	13,714
935,2	15,714
935,6	17,171
936	23,943
936,4	25,629
936,8	24,914
937,3	26,543
937,7	28,943
938,1	31,114
938,5	26,886
939	25,114
939,4	22,514
939,8	21,371
940,2	18,029
940,6	14,257
941,1	10,6
941,5	14,971
941,9	9,086
942,3	7,029
942,8	8,514
943,2	9,714
943,6	12,457
944	14
944,4	11,543
944,9	14,886
945,3	18,657
945,7	15,229
946,1	12,2
946,6	8,429
947	5,914
947,4	9,057
947,8	10
948,2	5,686
948,7	8,571
949,1	10,571
949,5	15,171
949,9	17,171
950,3	14,114
950,8	14,771
951,2	17,857
951,6	14,829
952	18,886
952,5	16,514
952,9	17,686
953,3	18
953,7	16,114
954,1	18,371
954,6	22,2
955	22,8
955,4	18,543
955,8	19,343
956,2	16,029
956,7	17,6
957,1	15,343
957,5	13,714
957,9	9
958,3	8,886
958,8	9,457
959,2	15,4
959,6	18,314
960	14,429
960,5	18,371
960,9	20,971
961,3	20,286
961,7	17,4
962,1	13,286
962,6	11,714
963	14,2
963,4	9,971
963,8	8,971
964,2	11,743
964,7	12,086
965,1	15,6
965,5	14,829
965,9	17,057
966,3	16,086
966,8	16,171
967,2	16,971
967,6	19,171
968	15,429
968,4	14,143
968,9	11,571
969,3	17,314
969,7	14,029
970,1	16,429
970,5	11,971
971	14,2
971,4	17,771
971,8	20,543
972,2	14,6
972,6	17,771
973,1	18,343
973,5	21,286
973,9	21,543
974,3	16,886
974,7	17,4
975,2	20,286
975,6	19,086
976	16,429
976,4	11,629
976,8	11,171
977,3	15,029
977,7	12,543
978,1	13,514
978,5	11,429
978,9	9
979,4	13,286
979,8	14,171
980,2	12,6
980,6	12,914
981	14,4
981,5	16,114
981,9	15,2
982,3	15,743
982,7	14,743
983,1	12,257
983,6	14,086
984	10,314
984,4	10,486
984,8	14,371
985,2	14,314
985,6	11,4
986,1	15,486
986,5	17,114
986,9	14,457
987,3	16,914
987,7	14,029
988,2	10,971
988,6	11,314
989	7,657
989,4	5,286
989,8	7,314
990,3	7,4
990,7	8,6
991,1	10,886
991,5	15,257
991,9	16,857
992,3	16,829
992,8	17,171
993,2	12,943
993,6	14,629
994	15,6
994,4	15,2
994,9	16,229
995,3	13,886
995,7	12,057
996,1	13,229
996,5	12,943
996,9	10,486
997,4	8,343
997,8	7
998,2	6,686
998,6	1,286
999	1,457
999,5	4,343
999,9	1,229
1000,3	1,429
1000,7	0,371
1001,1	3,486
1001,5	11,086
1002	13,714
1002,4	11,114
1002,8	13,914
1003,2	16,771
1003,6	22,514
1004	22,114
1004,5	19
1004,9	16,571
1005,3	13,4
1005,7	14,657
1006,1	12,6
1006,6	7,229
1007	6,714
1007,4	7,571
1007,8	8,686
1008,2	7,371
1008,6	7,514
1009,1	6,171
1009,5	10,8
1009,9	13,914
1010,3	15,4
1010,7	15,857
1011,1	18,086
1011,6	19,771
1012	25,257
1012,4	20,686
1012,8	15
1013,2	20,314
1013,6	18,571
1014,1	18,629
1014,5	15,6
1014,9	11,686
1015,3	8,571
1015,7	10,943
1016,1	5,743
1016,6	4,629
1017	8,114
1017,4	8,171
1017,8	8,086
1018,2	16,8
1018,6	9,257
1019,1	8,571
1019,5	13,171
1019,9	9
1020,3	9,6
1020,7	10,771
1021,1	8,2
1021,6	14,543
1022	19,629
1022,4	15,4
1022,8	19,057
1023,2	19,857
1023,6	18,829
1024,1	17,286
1024,5	20,2
1024,9	13,143
1025,3	15,514
1025,7	16,857
1026,1	20,543
1026,6	18,971
1027	20
1027,4	16,286
1027,8	20,943
1028,2	16,057
1028,6	17,086
1029	12,8
1029,5	17,4
1029,9	13,457
1030,3	15,057
1030,7	14,029
1031,1	18,943
1031,5	10,857
1032	11,371
1032,4	11,229
1032,8	13,714
1033,2	13,943
1033,6	13,771
1034	13,143
1034,4	16,2
1034,9	18,171
1035,3	12,429
1035,7	17,114
1036,1	15
1036,5	12,8
1036,9	9,257
1037,4	13,171
1037,8	10,714
1038,2	12,457
1038,6	10,4
1039	14,514
1039,4	21,143
1039,8	16,486
1040,3	12,571
1040,7	14,314
1041,1	16,171
1041,5	15,686
1041,9	10,314
1042,3	6,229
1042,7	13,829
1043,2	14,514
1043,6	10,657
1044	12,857
1044,4	11,257
1044,8	14,714
1045,2	12,086
1045,6	14,4
1046,1	15,4
1046,5	17,686
1046,9	14,714
1047,3	17,371
1047,7	15,286
1048,1	12,114
1048,5	12,057
1049	14,971
1049,4	16,657
1049,8	18,229
1050,2	16,943
1050,6	24,4
1051	31,943
1051,4	28,971
1051,9	21,343
1052,3	25,743
1052,7	25,6
1053,1	21,143
1053,5	17,143
1053,9	13,114
1054,3	13,343
1054,8	22,4
1055,2	19,743
1055,6	21,714
1056	25,171
1056,4	24,286
1056,8	22,457
1057,2	19,657
1057,6	14,543
1058,1	5,629
1058,5	0,4
1058,9	1
1059,3	3,829
1059,7	5,657
1060,1	11,057
1060,5	10,657
1061	17,686
1061,4	19,4
1061,8	22,314
1062,2	17,486
1062,6	20,543
1063	21,143
1063,4	24,943
1063,8	24,057
1064,3	20,029
1064,7	17,657
1065,1	18,8
1065,5	17,4
1065,9	16,286
1066,3	14
1066,7	11,286
1067,1	12,714
1067,6	12,314
1068	9,743
1068,4	10,086
1068,8	12,257
1069,2	13,571
1069,6	14,2
1070	19,514
1070,4	18,771
1070,9	18,943
1071,3	18,429
1071,7	13,829
1072,1	14,486
1072,5	12,343
1072,9	8,171
1073,3	9,657
1073,7	6,4
1074,2	4,657
1074,6	9,8
1075	4
1075,4	10,514
1075,8	14,371
1076,2	10,4
1076,6	13,371
1077	11,486
1077,5	11,029
1077,9	10,971
1078,3	6,457
1078,7	5,086
1079,1	6,8
1079,5	10,2
1079,9	10,829
1080,3	5,914
1080,7	10,886
1081,2	16,6
1081,6	10,629
1082	7,886
1082,4	11,743
1082,8	16,971
1083,2	19,486
1083,6	19,371
1084	18,686
1084,5	22,429
1084,9	22,657
1085,3	13,571
1085,7	10,657
1086,1	9,429
1086,5	11,2
1086,9	8,543
1087,3	11,143
1087,7	12,4
1088,2	17,143
1088,6	16,114
1089	17,857
1089,4	13,971
1089,8	14,943
1090,2	10,829
1090,6	15
1091	16,286
1091,4	17,8
1091,9	13,886
1092,3	13,714
1092,7	12,6
1093,1	17,229
1093,5	15,8
1093,9	14,829
1094,3	20,743
1094,7	23,286
1095,1	27,771
1095,5	28,914
1096	23,914
1096,4	25,4
1096,8	23,314
1097,2	16,857
1097,6	18,857
1098	14,629
1098,4	16,229
1098,8	21,057
1099,2	24,4
1099,6	24,8
1100,1	24,8
1100,5	21,143
1100,9	19,714
1101,3	16,971
1101,7	14,486
1102,1	8,943
1102,5	12,371
1102,9	14,171
1103,3	17,514
1103,7	19,229
1104,2	18,086
1104,6	16,257
1105	13
1105,4	12,143
1105,8	8,343
1106,2	4,457
1106,6	2,857
1107	2,086
1107,4	2,1
1107,8	4,4
1108,3	0,15
