Data from Subt2_295.txt Node
Date: Sat Aug 26 19:11:03 MSK 2023
User: vat
Spectrometer: MAYP114033
Trigger mode: 0
Integration Time (sec): 1,000000E0
Scans to average: 5
Electric dark correction enabled: true
Nonlinearity correction enabled: false
Boxcar width: 3
XAxis mode: Wavelengths
Number of Pixels in Spectrum: 2068
>>>>>Begin Spectral Data<<<<<
199,4	0,617
199,9	2,907
200,4	0,633
200,8	2,01
201,3	1,61
201,8	1,524
202,2	0,267
202,7	6,41
203,2	3,324
203,6	5,752
204,1	2,038
204,6	5,467
205	7,638
205,5	12,895
206	7,581
206,4	10,81
206,9	9,067
207,4	14,095
207,8	11,867
208,3	7,067
208,8	1,981
209,2	3,324
209,7	3,181
210,2	5,752
210,6	4,752
211,1	5,695
211,5	5,238
212	5,638
212,5	5,438
212,9	1,124
213,4	0,01
213,9	-2,333
214,3	-0,333
214,8	6,41
215,3	9,152
215,7	11,495
216,2	19,467
216,7	22,181
217,1	25,352
217,6	22,324
218,1	19,124
218,5	16,295
219	8,752
219,5	6,781
219,9	1,267
220,4	4,067
220,9	3,324
221,3	6,581
221,8	9,181
222,3	14,324
222,7	15,981
223,2	19,124
223,6	13,41
224,1	14,381
224,6	14,724
225	13,838
225,5	12,467
226	10,752
226,4	11,752
226,9	15,238
227,4	16,21
227,8	11,038
228,3	7,867
228,8	10,295
229,2	10,552
229,7	9,638
230,2	9,21
230,6	13,095
231,1	17,381
231,5	21,324
232	20,895
232,5	21,067
232,9	25,352
233,4	28,095
233,9	21,724
234,3	20,924
234,8	19,838
235,3	18,781
235,7	17,924
236,2	16,524
236,7	12,095
237,1	16,61
237,6	15,324
238,1	12,295
238,5	9,21
239	11,038
239,4	13,838
239,9	11,724
240,4	7,895
240,8	8,295
241,3	7,695
241,8	7,524
242,2	4,067
242,7	-3,419
243,2	2,181
243,6	1,41
244,1	4,381
244,6	10,124
245	10,867
245,5	10,438
245,9	9,981
246,4	5,981
246,9	10,524
247,3	8,352
247,8	7,21
248,3	9,581
248,7	10,695
249,2	16,495
249,7	15,952
250,1	16,924
250,6	16,495
251	15,867
251,5	15,095
252	14,81
252,4	14,495
252,9	17,724
253,4	11,467
253,8	9,924
254,3	8,438
254,8	11,667
255,2	8,095
255,7	5,038
256,1	4,724
256,6	9,41
257,1	10,038
257,5	8,181
258	3,667
258,5	9,81
258,9	11,067
259,4	6,552
259,9	8,41
260,3	8,038
260,8	6,552
261,2	7,038
261,7	7,952
262,2	0,324
262,6	1,295
263,1	-0,79
263,6	0,238
264	5,895
264,5	7,581
264,9	3,952
265,4	15,838
265,9	12,181
266,3	22,095
266,8	25,61
267,3	24,324
267,7	23,438
268,2	24,267
268,7	22,238
269,1	27,238
269,6	16,41
270	16,467
270,5	14,324
271	12,924
271,4	13,524
271,9	9,952
272,4	15,324
272,8	16,867
273,3	9,61
273,7	12,152
274,2	13,895
274,7	13,467
275,1	12,381
275,6	8,295
276,1	7,267
276,5	12,952
277	14,324
277,4	15,838
277,9	16,267
278,4	16,667
278,8	18,724
279,3	17,952
279,8	18,781
280,2	17,981
280,7	19,495
281,1	14,581
281,6	16,467
282,1	17,81
282,5	16,952
283	14,981
283,4	15,124
283,9	19,352
284,4	23,41
284,8	20,038
285,3	13,238
285,8	13,695
286,2	13,324
286,7	13,724
287,1	4,152
287,6	4,667
288,1	6,981
288,5	9,924
289	7,781
289,5	6,895
289,9	5,924
290,4	10,21
290,8	8,581
291,3	9,752
291,8	10,952
292,2	12,524
292,7	18,924
293,1	15,495
293,6	16,267
294,1	16,067
294,5	13,238
295	11,61
295,5	13,21
295,9	8,524
296,4	12,667
296,8	13,895
297,3	11,41
297,8	9,724
298,2	8,324
298,7	7,924
299,1	9,067
299,6	4,324
300,1	1,324
300,5	5,638
301	9,152
301,5	16,781
301,9	13,895
302,4	11,352
302,8	15,267
303,3	13,124
303,8	9,638
304,2	8,152
304,7	2,581
305,1	-0,562
305,6	1,181
306,1	4,41
306,5	5,781
307	10,81
307,4	12,01
307,9	13,41
308,4	14,524
308,8	4,752
309,3	0,381
309,8	-0,076
310,2	-1,848
310,7	-0,848
311,1	-1,333
311,6	4,381
312,1	13,695
312,5	15,238
313	18,495
313,4	19,21
313,9	18,01
314,4	18,838
314,8	17,01
315,3	16,524
315,7	10,267
316,2	4,552
316,7	4,61
317,1	8,667
317,6	5,381
318	9,124
318,5	6,238
319	11,752
319,4	14,952
319,9	19,324
320,3	19,238
320,8	18,924
321,3	15,781
321,7	19,667
322,2	20,61
322,6	20,924
323,1	14,295
323,6	10,181
324	10,095
324,5	7,895
324,9	6,981
325,4	6,838
325,9	7,324
326,3	9,752
326,8	11,581
327,2	9,81
327,7	13,41
328,2	14,867
328,6	15,324
329,1	10,61
329,5	8,067
330	7,552
330,5	11,781
330,9	11,924
331,4	9,752
331,8	9,724
332,3	17,01
332,8	21,724
333,2	17,21
333,7	20,61
334,1	20,638
334,6	20,01
335,1	18,038
335,5	13,81
336	8,067
336,4	13,667
336,9	18,867
337,4	17,695
337,8	19,781
338,3	18,838
338,7	23,295
339,2	24,352
339,7	27,067
340,1	15,41
340,6	15,81
341	10,952
341,5	14,181
342	9,524
342,4	8,495
342,9	1,41
343,3	3,581
343,8	-0,648
344,2	1,695
344,7	8,552
345,2	9,267
345,6	11,552
346,1	13,152
346,5	12,01
347	13,438
347,5	12,295
347,9	11,038
348,4	12,21
348,8	13,01
349,3	17,21
349,8	18,695
350,2	27,438
350,7	25,124
351,1	18,181
351,6	23,038
352	26,438
352,5	28,724
353	36,41
353,4	34,895
353,9	51,21
354,3	64,295
354,8	71,752
355,3	88,41
355,7	102,981
356,2	124,667
356,6	151,01
357,1	172,238
357,5	200,895
358	238,781
358,5	272,752
358,9	313,924
359,4	358,324
359,8	412,095
360,3	477,867
360,8	539,352
361,2	606,352
361,7	691,924
362,1	789,238
362,6	887,838
363	987,952
363,5	1097,067
364	1222,752
364,4	1348,381
364,9	1474,01
365,3	1589,781
365,8	1699,21
366,3	1805,01
366,7	1901,838
367,2	1983,924
367,6	2052,324
368,1	2098,095
368,5	2132,981
369	2153,981
369,5	2159,295
369,9	2139,552
370,4	2102,667
370,8	2057,667
371,3	1993,095
371,7	1920,581
372,2	1837,01
372,7	1754,667
373,1	1663,438
373,6	1568,181
374	1465,581
374,5	1371,038
374,9	1278,352
375,4	1188,352
375,9	1096,61
376,3	1010,724
376,8	930,238
377,2	865,352
377,7	795,467
378,2	728,267
378,6	669,638
379,1	613,067
379,5	566,695
380	527,61
380,4	479,867
380,9	441,924
381,4	409,524
381,8	381,667
382,3	352,638
382,7	330,952
383,2	307,095
383,6	284,981
384,1	266,381
384,6	249,924
385	230,352
385,5	216,01
385,9	199,01
386,4	183,752
386,8	174,61
387,3	166,895
387,7	160,067
388,2	153,667
388,7	144,81
389,1	135,152
389,6	127,867
390	119,381
390,5	113,352
390,9	105,895
391,4	94,695
391,9	90,752
392,3	89,752
392,8	85,152
393,2	80,895
393,7	75,867
394,1	72,295
394,6	71,781
395,1	70,352
395,5	61,01
396	61,124
396,4	61,867
396,9	58,924
397,3	56,124
397,8	58,581
398,2	56,095
398,7	61,381
399,2	59,981
399,6	55,552
400,1	54,781
400,5	49,495
401	49,467
401,4	46,838
401,9	46,781
402,4	45,667
402,8	45,352
403,3	46,495
403,7	45,095
404,2	42,781
404,6	42,21
405,1	37,524
405,5	37,495
406	42,295
406,5	36,981
406,9	41,495
407,4	39,752
407,8	44,495
408,3	47,181
408,7	46,981
409,2	44,324
409,6	51,41
410,1	52,952
410,6	57,41
411	55,41
411,5	56,695
411,9	55,895
412,4	61,267
412,8	64,667
413,3	71,552
413,7	73,267
414,2	73,695
414,7	78,524
415,1	87,152
415,6	87,467
416	86,952
416,5	84,638
416,9	83,895
417,4	86,352
417,8	91,695
418,3	94,467
418,8	99,238
419,2	101,952
419,7	101,21
420,1	108,181
420,6	113,01
421	109,095
421,5	107,038
421,9	103,524
422,4	104,495
422,8	104,267
423,3	101,638
423,8	100,267
424,2	99,324
424,7	98,038
425,1	101,438
425,6	101,695
426	104,667
426,5	106,124
426,9	106,467
427,4	104,438
427,9	102,838
428,3	97,895
428,8	96,924
429,2	95,838
429,7	91,752
430,1	92,952
430,6	94,438
431	93,295
431,5	98,41
431,9	96,867
432,4	99,838
432,8	105,324
433,3	108,667
433,8	111,324
434,2	117,152
434,7	121,152
435,1	126,01
435,6	127,752
436	129,381
436,5	137,067
436,9	140,81
437,4	143,61
437,8	143,524
438,3	146,752
438,8	150,267
439,2	155,067
439,7	156,81
440,1	159,81
440,6	171,438
441	175,495
441,5	184,638
441,9	196,724
442,4	203,495
442,8	209,152
443,3	220,438
443,7	220,695
444,2	234,295
444,7	244,495
445,1	248,781
445,6	256,552
446	264,924
446,5	269,924
446,9	276,381
447,4	284,21
447,8	288,238
448,3	300,895
448,7	314,295
449,2	331,038
449,6	348,438
450,1	364,438
450,6	384,838
451	401,152
451,5	417,01
451,9	433,01
452,4	448,781
452,8	461,552
453,3	483,552
453,7	490,752
454,2	514,467
454,6	534,667
455,1	553,81
455,5	568,095
456	590,352
456,4	607,467
456,9	629,01
457,3	643,438
457,8	654,352
458,3	672,81
458,7	691,867
459,2	710,41
459,6	738,067
460,1	759,981
460,5	778,638
461	807,038
461,4	830,781
461,9	851,295
462,3	878,524
462,8	897,152
463,2	921,352
463,7	954,295
464,1	981,124
464,6	1008,095
465	1043,152
465,5	1071,581
466	1098,467
466,4	1126,238
466,9	1151,124
467,3	1177,381
467,8	1208,324
468,2	1234,381
468,7	1263,152
469,1	1296,695
469,6	1328,095
470	1358,924
470,5	1390,981
470,9	1415,81
471,4	1441,438
471,8	1467,495
472,3	1499,095
472,7	1529,095
473,2	1553,867
473,6	1577,61
474,1	1613,467
474,5	1644,495
475	1676,781
475,4	1701,324
475,9	1735,867
476,4	1763,067
476,8	1794,324
477,3	1819,324
477,7	1851,524
478,2	1881,495
478,6	1907,61
479,1	1926,61
479,5	1956,381
480	1983,41
480,4	2006,238
480,9	2025,981
481,3	2044,238
481,8	2063,524
482,2	2082,752
482,7	2111,524
483,1	2134,981
483,6	2156,695
484	2177,352
484,5	2203,524
484,9	2227,581
485,4	2251,552
485,8	2266,238
486,3	2284,695
486,7	2307,038
487,2	2329,152
487,6	2344,952
488,1	2364,267
488,5	2382,695
489	2405,438
489,4	2424,438
489,9	2438,495
490,4	2452,267
490,8	2471,067
491,3	2489,01
491,7	2499,924
492,2	2506,152
492,6	2511,695
493,1	2518,295
493,5	2525,238
494	2517,181
494,4	2518,838
494,9	2528,552
495,3	2539,638
495,8	2543,638
496,2	2556,352
496,7	2561,952
497,1	2581,781
497,6	2592,952
498	2597,695
498,5	2597,981
498,9	2604,895
499,4	2606,067
499,8	2616,124
500,3	2617,352
500,7	2614,095
501,2	2618,467
501,6	2621,781
502,1	2626,524
502,5	2633,524
503	2635,01
503,4	2638,152
503,9	2640,41
504,3	2642,124
504,8	2646,781
505,2	2652,21
505,7	2648,038
506,1	2651,124
506,6	2651,438
507	2649,695
507,5	2649,352
507,9	2646,838
508,4	2643,124
508,8	2640,038
509,3	2634,181
509,7	2635,81
510,2	2639,352
510,6	2635,238
511,1	2634,181
511,5	2636,638
512	2636,895
512,4	2636,181
512,9	2632,295
513,3	2630,381
513,8	2630,981
514,2	2629,438
514,7	2620,381
515,1	2622,467
515,6	2619,81
516	2613,41
516,5	2611,581
516,9	2608,41
517,4	2610,895
517,8	2615,61
518,3	2612,524
518,7	2610,781
519,2	2608,495
519,6	2608,352
520,1	2608,695
520,5	2607,381
521	2599,667
521,4	2603,324
521,9	2606,038
522,3	2608,495
522,8	2604,81
523,2	2600,21
523,7	2594,952
524,1	2599,21
524,6	2590,981
525	2589,781
525,5	2586,867
525,9	2590,152
526,4	2590,095
526,8	2592,524
527,3	2592,267
527,7	2596,867
528,2	2593,838
528,6	2593,895
529,1	2594,181
529,5	2597,667
530	2595,695
530,4	2600,038
530,9	2596,295
531,3	2599,067
531,8	2599,467
532,2	2595,752
532,6	2593,438
533,1	2592,324
533,5	2593,495
534	2596,81
534,4	2597,152
534,9	2601,695
535,3	2606,667
535,8	2614,267
536,2	2619,381
536,7	2619,552
537,1	2622,41
537,6	2624,01
538	2624,352
538,5	2631,295
538,9	2628,61
539,4	2629,667
539,8	2630,21
540,3	2631,324
540,7	2636,152
541,2	2637,981
541,6	2633,495
542,1	2638,095
542,5	2643,324
543	2645,981
543,4	2645,067
543,9	2645,067
544,3	2654,495
544,8	2653,524
545,2	2655,952
545,7	2656,295
546,1	2662,124
546,5	2671,467
547	2675,667
547,4	2677,324
547,9	2685,695
548,3	2689,952
548,8	2694,267
549,2	2695,295
549,7	2695,152
550,1	2698,21
550,6	2699,095
551	2703,352
551,5	2704,295
551,9	2706,952
552,4	2709,495
552,8	2714,81
553,3	2717,924
553,7	2721,695
554,2	2723,181
554,6	2725,638
555,1	2729,552
555,5	2727,352
555,9	2728,381
556,4	2729,124
556,8	2728,495
557,3	2731,01
557,7	2738,781
558,2	2738,152
558,6	2747,381
559,1	2747,895
559,5	2748,21
560	2752,238
560,4	2755,21
560,9	2753,295
561,3	2753,838
561,8	2751,238
562,2	2759,352
562,7	2765,467
563,1	2771,895
563,6	2768,438
564	2771,638
564,4	2778,667
564,9	2781,467
565,3	2779,638
565,8	2786,124
566,2	2782,467
566,7	2790,981
567,1	2794,267
567,6	2796,438
568	2799,21
568,5	2800,324
568,9	2794,124
569,4	2798,695
569,8	2794,895
570,3	2788,724
570,7	2783,552
571,1	2783,752
571,6	2783,124
572	2791,038
572,5	2791,524
572,9	2794,152
573,4	2799,41
573,8	2805,752
574,3	2799,381
574,7	2795,524
575,2	2787,124
575,6	2782,895
576,1	2786,924
576,5	2786,467
576,9	2778,152
577,4	2777,01
577,8	2776,181
578,3	2778,152
578,7	2779,895
579,2	2771,524
579,6	2767,952
580,1	2757,238
580,5	2756,181
581	2754,81
581,4	2751,124
581,9	2743,352
582,3	2740,724
582,7	2738,352
583,2	2743,067
583,6	2742,095
584,1	2738,61
584,5	2733,495
585	2730,01
585,4	2723,352
585,9	2717,124
586,3	2713,21
586,8	2709,524
587,2	2701,638
587,6	2700,21
588,1	2699,067
588,5	2699,752
589	2694,181
589,4	2686,324
589,9	2680,038
590,3	2679,552
590,8	2671,838
591,2	2667,01
591,7	2664,895
592,1	2663,524
592,5	2664,495
593	2657,61
593,4	2651,438
593,9	2649,01
594,3	2644,952
594,8	2634,467
595,2	2629,095
595,7	2623,21
596,1	2620,324
596,6	2623,438
597	2619,01
597,4	2609,038
597,9	2608,867
598,3	2606,267
598,8	2605,21
599,2	2604,467
599,7	2595,267
600,1	2590,038
600,6	2589,295
601	2582,752
601,4	2579,352
601,9	2576,41
602,3	2566,324
602,8	2560,124
603,2	2556,781
603,7	2552,152
604,1	2550,095
604,6	2544,381
605	2531,552
605,4	2531,952
605,9	2527,924
606,3	2508,152
606,8	2502,381
607,2	2489,895
607,7	2477,981
608,1	2474,295
608,6	2463,267
609	2458,867
609,4	2464,895
609,9	2454,124
610,3	2448,552
610,8	2442,324
611,2	2435,867
611,7	2427,324
612,1	2416,01
612,6	2404,552
613	2402,067
613,4	2392,552
613,9	2382,352
614,3	2371,095
614,8	2364,067
615,2	2354,467
615,7	2349,61
616,1	2339,21
616,6	2328,238
617	2324,781
617,4	2320,838
617,9	2319,01
618,3	2310,552
618,8	2305,238
619,2	2293,41
619,7	2288,21
620,1	2279,867
620,5	2271,124
621	2258,067
621,4	2253,124
621,9	2239,61
622,3	2232,438
622,8	2222,438
623,2	2208,924
623,6	2198,581
624,1	2186,038
624,5	2179,01
625	2173,924
625,4	2166,152
625,9	2159,667
626,3	2149,524
626,8	2142,038
627,2	2141,067
627,6	2118,581
628,1	2097,838
628,5	2087,952
629	2079,838
629,4	2074,21
629,9	2061,895
630,3	2044,067
630,7	2037,21
631,2	2037,895
631,6	2027,552
632,1	2013,752
632,5	2002,238
633	1992,61
633,4	1986,838
633,8	1982,867
634,3	1970,924
634,7	1960,238
635,2	1948,467
635,6	1944,438
636,1	1932,467
636,5	1918,181
636,9	1904,41
637,4	1893,638
637,8	1880,552
638,3	1871,495
638,7	1853,924
639,2	1848,267
639,6	1841,095
640	1833,924
640,5	1822,638
640,9	1821,981
641,4	1819,61
641,8	1814,781
642,2	1809,638
642,7	1812,181
643,1	1808,724
643,6	1804,924
644	1797,667
644,5	1792,124
644,9	1784,81
645,3	1769,867
645,8	1751,981
646,2	1740,524
646,7	1729,952
647,1	1715,781
647,6	1703,581
648	1694,267
648,4	1688,181
648,9	1684,01
649,3	1675,21
649,8	1667,267
650,2	1664,524
650,6	1657,124
651,1	1648,924
651,5	1644,038
652	1629,181
652,4	1619,238
652,9	1614,152
653,3	1601,495
653,7	1587,01
654,2	1581,067
654,6	1565,467
655,1	1563,981
655,5	1560,124
655,9	1551,067
656,4	1544,41
656,8	1538,981
657,3	1526,952
657,7	1526,781
658,2	1513,695
658,6	1504,638
659	1493,867
659,5	1485,41
659,9	1477,295
660,4	1472,124
660,8	1457,61
661,2	1450,038
661,7	1443,152
662,1	1434,495
662,6	1424,181
663	1416,724
663,4	1405,895
663,9	1402,267
664,3	1394,438
664,8	1378,038
665,2	1370,781
665,6	1364,524
666,1	1357,438
666,5	1354,01
667	1342,81
667,4	1333,067
667,9	1326,838
668,3	1319,295
668,7	1307,581
669,2	1299,495
669,6	1289,695
670,1	1284,495
670,5	1271,838
670,9	1267,667
671,4	1255,924
671,8	1251,952
672,3	1246,81
672,7	1238,01
673,1	1229,295
673,6	1226,095
674	1223,438
674,5	1217,21
674,9	1204,581
675,3	1189,581
675,8	1186,238
676,2	1179,638
676,7	1177,038
677,1	1162,695
677,5	1152,295
678	1150,581
678,4	1151,552
678,9	1138,924
679,3	1128,867
679,7	1117,61
680,2	1110,752
680,6	1107,038
681,1	1099,667
681,5	1091,381
681,9	1088,238
682,4	1083,181
682,8	1081,267
683,3	1079,152
683,7	1074,038
684,1	1071,181
684,6	1063,324
685	1052,724
685,5	1042,467
685,9	1027,152
686,3	1012,667
686,8	1006,638
687,2	997,267
687,7	984,467
688,1	980,295
688,5	979,981
689	979,81
689,4	979,61
689,9	972,724
690,3	964,438
690,7	965,981
691,2	964,752
691,6	956,924
692	951,61
692,5	946,952
692,9	944,724
693,4	941,41
693,8	935,238
694,2	922,124
694,7	916,581
695,1	906,667
695,6	904,695
696	898,181
696,4	889,495
696,9	880,381
697,3	877,095
697,8	871,724
698,2	865,067
698,6	858,552
699,1	850,81
699,5	849,667
699,9	846,038
700,4	837,81
700,8	833,724
701,3	834,867
701,7	826,61
702,1	825,181
702,6	817,267
703	815,038
703,5	813,467
703,9	804,667
704,3	798,21
704,8	791,895
705,2	784,981
705,6	781,81
706,1	774,095
706,5	768,438
707	765,152
707,4	761,952
707,8	753,867
708,3	751,21
708,7	745,467
709,2	741,21
709,6	737,552
710	737,267
710,5	727,667
710,9	726,124
711,3	716,81
711,8	712,867
712,2	706,352
712,7	702,038
713,1	693,324
713,5	693,095
714	692,781
714,4	687,267
714,8	684,638
715,3	680,495
715,7	672,181
716,2	668,695
716,6	667,181
717	656,067
717,5	654,81
717,9	650,581
718,3	642,667
718,8	638,352
719,2	633,952
719,7	624,838
720,1	626,667
720,5	624,238
721	612,981
721,4	613,867
721,8	613,724
722,3	611,267
722,7	611,352
723,2	602,638
723,6	590,152
724	588,467
724,5	581,81
724,9	579,838
725,3	572,038
725,8	565,61
726,2	563,038
726,7	563,381
727,1	559,324
727,5	558,238
728	549,81
728,4	547,781
728,8	538,381
729,3	534,352
729,7	529,067
730,1	528,638
730,6	526,895
731	519,952
731,5	514,238
731,9	515,981
732,3	511,838
732,8	511,695
733,2	510,667
733,6	507,695
734,1	507,21
734,5	508,381
734,9	506,295
735,4	505,638
735,8	497,895
736,3	493,924
736,7	489,038
737,1	487,724
737,6	482,552
738	477,152
738,4	473,438
738,9	476,267
739,3	472,752
739,7	471,095
740,2	466,41
740,6	465,352
741,1	465,61
741,5	456,924
741,9	454,952
742,4	454,495
742,8	451,981
743,2	450,581
743,7	445,495
744,1	440,495
744,5	441,438
745	433,952
745,4	425,21
745,8	423,924
746,3	423,981
746,7	421,981
747,2	423,21
747,6	428,295
748	430,981
748,5	434,324
748,9	426,038
749,3	419,724
749,8	422,695
750,2	415,238
750,6	406,495
751,1	404,41
751,5	395,495
751,9	396,152
752,4	401,524
752,8	393,552
753,3	395,895
753,7	401,038
754,1	393,524
754,6	393,552
755	389,667
755,4	381,038
755,9	378,752
756,3	372,524
756,7	364,867
757,2	367,295
757,6	369,981
758	369,41
758,5	366,638
758,9	362,41
759,3	363,181
759,8	359,352
760,2	355,752
760,6	350,295
761,1	346,952
761,5	346,352
761,9	346,41
762,4	340,381
762,8	334,924
763,3	335,81
763,7	334,81
764,1	332,21
764,6	331,467
765	329,324
765,4	328,838
765,9	328,495
766,3	327,952
766,7	322,981
767,2	323,438
767,6	323,752
768	320,381
768,5	316,438
768,9	317,552
769,3	312,41
769,8	308,981
770,2	306,01
770,6	299,01
771,1	303,867
771,5	304,495
771,9	305,381
772,4	302,724
772,8	305,838
773,2	304,324
773,7	301,981
774,1	298,724
774,5	289,438
775	285,838
775,4	287,267
775,8	279,495
776,3	279,695
776,7	276,581
777,1	271,724
777,6	276,524
778	274,552
778,4	268,838
778,9	272,695
779,3	270,038
779,7	272,924
780,2	273,695
780,6	271,095
781	266,638
781,5	263,781
781,9	258,267
782,3	251,524
782,8	253,038
783,2	247,952
783,6	251,324
784,1	250,867
784,5	246,867
784,9	245,752
785,4	247,867
785,8	244,41
786,2	243,724
786,7	238,638
787,1	235,41
787,5	237,781
788	235,238
788,4	233,381
788,8	228,352
789,3	225,495
789,7	224,352
790,1	225,724
790,6	221,581
791	218,124
791,4	220,467
791,9	215,895
792,3	213,095
792,7	216,438
793,2	211,467
793,6	208,924
794	213,01
794,5	205,924
794,9	209,495
795,3	210,324
795,8	203,667
796,2	201,152
796,6	204,552
797,1	197,581
797,5	196,61
797,9	189,781
798,4	185,067
798,8	184,695
799,2	186,981
799,7	184,724
800,1	187,467
800,5	188,524
801	194,81
801,4	195,867
801,8	193,438
802,2	192,181
802,7	188,467
803,1	187,667
803,5	186,467
804	178,581
804,4	178,467
804,8	180,381
805,3	181,81
805,7	181,61
806,1	182,895
806,6	182,581
807	186,124
807,4	184,638
807,9	177,581
808,3	169,067
808,7	169,124
809,2	163,667
809,6	160,81
810	157,838
810,4	158,095
810,9	161,838
811,3	166,495
811,7	164,752
812,2	169,81
812,6	166,695
813	167,41
813,5	166,124
813,9	163,124
814,3	159,61
814,8	157,067
815,2	147,01
815,6	148,924
816,1	151,181
816,5	147,952
816,9	143,838
817,3	142,952
817,8	148,324
818,2	150,238
818,6	145,81
819,1	139,667
819,5	136,924
819,9	140,638
820,4	140,895
820,8	133,924
821,2	131,981
821,7	134,124
822,1	136,152
822,5	142,924
822,9	138,324
823,4	137,01
823,8	135,524
824,2	139,038
824,7	133,61
825,1	126,752
825,5	119,638
826	117,867
826,4	116,581
826,8	117,352
827,3	113,124
827,7	114,895
828,1	117,895
828,5	118,724
829	113,238
829,4	110,181
829,8	103,981
830,3	103,552
830,7	101,981
831,1	102,381
831,6	99,838
832	105,838
832,4	108,152
832,8	115,352
833,3	112,552
833,7	109,038
834,1	106,267
834,6	106,295
835	106,524
835,4	105,781
835,8	97,838
836,3	98,981
836,7	101,895
837,1	99,524
837,6	101,467
838	97,01
838,4	98,352
838,9	98,21
839,3	94,267
839,7	95,381
840,1	92,695
840,6	85,695
841	89,61
841,4	87,01
841,9	92,924
842,3	95,41
842,7	94,61
843,1	97,838
843,6	99,924
844	98,752
844,4	100,867
844,9	94,552
845,3	93,895
845,7	90,981
846,2	87,01
846,6	84,638
847	85,067
847,4	79,867
847,9	83,21
848,3	81,552
848,7	81,552
849,2	83,124
849,6	80,324
850	79,952
850,4	79,981
850,9	80,524
851,3	81,352
851,7	80,952
852,2	78,495
852,6	86,01
853	86,41
853,4	83,381
853,9	78,124
854,3	78,295
854,7	78,495
855,2	78,124
855,6	75,81
856	68,952
856,4	67,324
856,9	66,152
857,3	63,438
857,7	65,924
858,2	72,695
858,6	71,181
859	73,352
859,4	73,981
859,9	75,667
860,3	73,324
860,7	68,981
861,1	69,438
861,6	69,067
862	69,124
862,4	69,438
862,9	70,781
863,3	74,095
863,7	72,21
864,1	65,667
864,6	61,324
865	58,438
865,4	61,21
865,9	60,01
866,3	54,095
866,7	53,838
867,1	51,381
867,6	54,867
868	53,924
868,4	48,438
868,8	47,324
869,3	50,724
869,7	56,295
870,1	54,724
870,6	51,952
871	-18,105
871,4	-9,505
871,8	-10,905
872,3	-9,79
872,7	-11,962
873,1	-12,305
873,5	-9,905
874	58,152
874,4	54,81
874,8	52,524
875,3	55,267
875,7	52,695
876,1	58,952
876,5	57,467
877	58,495
877,4	55,181
877,8	60,352
878,2	58,952
878,7	59,352
879,1	55,838
879,5	58,724
879,9	60,695
880,4	58,552
880,8	54,924
881,2	54,838
881,7	53,752
882,1	51,295
882,5	46,895
882,9	44,41
883,4	42,067
883,8	44,61
884,2	40,838
884,6	36,324
885,1	39,295
885,5	39,038
885,9	41,581
886,3	43,581
886,8	37,867
887,2	32,61
887,6	36,41
888	34,81
888,5	35,781
888,9	35,695
889,3	35,724
889,8	38,467
890,2	44,124
890,6	40,524
891	39,495
891,5	36,781
891,9	35,781
892,3	39,524
892,7	40,695
893,2	39,495
893,6	41,924
894	44,152
894,4	42,495
894,9	39,41
895,3	35,324
895,7	37,21
896,1	35,295
896,6	31,781
897	33,238
897,4	40,352
897,8	47,267
898,3	51,638
898,7	46,067
899,1	46,352
899,5	51,01
900	40,895
900,4	36,295
900,8	28,552
901,2	21,495
901,7	20,01
902,1	21,667
902,5	20,581
902,9	26,295
903,4	28,581
903,8	27,752
904,2	29,067
904,6	32,695
905,1	33,324
905,5	33,867
905,9	38,267
906,3	37,41
906,8	41,238
907,2	45,952
907,6	47,21
908	46,467
908,5	45,438
908,9	39,524
909,3	36,667
909,7	35,495
910,2	31,838
910,6	35,524
911	33,238
911,4	34,581
911,9	34,952
912,3	37,81
912,7	43,21
913,1	45,038
913,6	37,295
914	40,038
914,4	35,667
914,8	34,095
915,3	30,067
915,7	25,61
916,1	24,838
916,5	25,724
916,9	24,867
917,4	28,124
917,8	28,867
918,2	23,552
918,6	18,038
919,1	18,838
919,5	19,667
919,9	18,267
920,3	14,181
920,8	14,267
921,2	21,067
921,6	25,495
922	24,781
922,5	27,61
922,9	25,895
923,3	27,41
923,7	28,295
924,2	25,067
924,6	23,21
925	20,924
925,4	19,095
925,8	22,952
926,3	23,181
926,7	20,095
927,1	20,867
927,5	21,324
928	18,324
928,4	14,21
928,8	13,724
929,2	12,324
929,7	16,724
930,1	22,524
930,5	21,381
930,9	27,81
931,3	31,867
931,8	31,352
932,2	35,181
932,6	32,438
933	20,067
933,5	21,695
933,9	21,924
934,3	19,295
934,7	15,895
935,2	11,867
935,6	11,124
936	16,924
936,4	18,01
936,8	17,41
937,3	16,067
937,7	19,781
938,1	25,267
938,5	21,81
939	25,952
939,4	23,924
939,8	18,952
940,2	17,667
940,6	15,495
941,1	10,21
941,5	17,638
941,9	18,61
942,3	19,667
942,8	23,381
943,2	26,838
943,6	25,61
944	27,324
944,4	24,495
944,9	17,152
945,3	15,838
945,7	11,181
946,1	9,867
946,6	8,581
947	5,895
947,4	7,21
947,8	11,438
948,2	10,324
948,7	11,495
949,1	14,81
949,5	21,238
949,9	23,124
950,3	23,295
950,8	19,752
951,2	21,552
951,6	18,838
952	17,81
952,5	9,895
952,9	10,238
953,3	11,038
953,7	13,124
954,1	14,61
954,6	19,524
955	16,695
955,4	18,095
955,8	21,895
956,2	19,581
956,7	22,181
957,1	20,981
957,5	19,552
957,9	21,124
958,3	20,81
958,8	18,181
959,2	21,21
959,6	24,324
960	20,152
960,5	22,324
960,9	24,981
961,3	23,81
961,7	21,781
962,1	14,552
962,6	9,067
963	14,095
963,4	9,381
963,8	3,41
964,2	5,61
964,7	2,495
965,1	9,381
965,5	7,295
965,9	5,067
966,3	6,638
966,8	8,61
967,2	11,41
967,6	13,552
968	9,695
968,4	10,381
968,9	11,124
969,3	18,752
969,7	16,924
970,1	14,981
970,5	15,667
971	20,295
971,4	21,438
971,8	23,552
972,2	17,038
972,6	17,61
973,1	19,438
973,5	19,667
973,9	17,467
974,3	17,667
974,7	15,381
975,2	14,552
975,6	12,667
976	13,152
976,4	8,267
976,8	11,867
977,3	12,181
977,7	8,381
978,1	8,038
978,5	8,267
978,9	2,838
979,4	6,724
979,8	2,01
980,2	3,067
980,6	0,581
981	4,638
981,5	6,21
981,9	9,981
982,3	8,524
982,7	12,952
983,1	9,752
983,6	15,324
984	15,952
984,4	16,495
984,8	17,724
985,2	17,352
985,6	12,495
986,1	16,438
986,5	17,067
986,9	9,381
987,3	13,581
987,7	11,695
988,2	11,324
988,6	11,267
989	11,952
989,4	9,181
989,8	12,724
990,3	10,181
990,7	10,152
991,1	15,41
991,5	16,095
991,9	16,924
992,3	21,21
992,8	22,495
993,2	22,981
993,6	20,695
994	21,524
994,4	25,867
994,9	21,152
995,3	21,01
995,7	20,695
996,1	16,581
996,5	19,21
996,9	12,01
997,4	13,01
997,8	8,895
998,2	5,495
998,6	0,124
999	0,781
999,5	-2,619
999,9	0,781
1000,3	-2,962
1000,7	5,267
1001,1	5,181
1001,5	12,781
1002	18,01
1002,4	22,667
1002,8	22,752
1003,2	25,41
1003,6	24,952
1004	27,895
1004,5	23,781
1004,9	25,524
1005,3	20,524
1005,7	20,038
1006,1	13,467
1006,6	10,381
1007	13,067
1007,4	12,981
1007,8	8,581
1008,2	5,438
1008,6	6,752
1009,1	7,152
1009,5	4,181
1009,9	1,81
1010,3	4,667
1010,7	4,152
1011,1	12,438
1011,6	13,467
1012	17,981
1012,4	20,124
1012,8	14,895
1013,2	16,895
1013,6	15,695
1014,1	13,895
1014,5	12,838
1014,9	9,067
1015,3	6,895
1015,7	12,095
1016,1	10,438
1016,6	10,752
1017	11,095
1017,4	16,724
1017,8	15,352
1018,2	21,067
1018,6	17,181
1019,1	15,381
1019,5	14,952
1019,9	11,981
1020,3	5,667
1020,7	7,124
1021,1	3,152
1021,6	3,124
1022	6,638
1022,4	9,752
1022,8	12,295
1023,2	12,324
1023,6	12,267
1024,1	19,895
1024,5	22,324
1024,9	20,467
1025,3	19,524
1025,7	19,238
1026,1	19,667
1026,6	22,124
1027	13,381
1027,4	18,21
1027,8	14,752
1028,2	13,667
1028,6	21,324
1029	19,695
1029,5	22,467
1029,9	25,152
1030,3	19,181
1030,7	20,667
1031,1	19,124
1031,5	8,381
1032	10,695
1032,4	6,61
1032,8	13,238
1033,2	17,21
1033,6	12,438
1034	12,467
1034,4	16,724
1034,9	18,152
1035,3	14,21
1035,7	9,238
1036,1	4,581
1036,5	8,781
1036,9	11,667
1037,4	15,495
1037,8	8,067
1038,2	7,867
1038,6	8,61
1039	15,01
1039,4	19,067
1039,8	11,238
1040,3	9,067
1040,7	14,352
1041,1	20,038
1041,5	23,695
1041,9	17,381
1042,3	16,524
1042,7	24,895
1043,2	22,895
1043,6	19,21
1044	19,324
1044,4	13,438
1044,8	16,152
1045,2	12,038
1045,6	11,895
1046,1	7,467
1046,5	13,067
1046,9	7,438
1047,3	6,038
1047,7	5,924
1048,1	4,752
1048,5	5,21
1049	12,381
1049,4	19,267
1049,8	24,181
1050,2	24,924
1050,6	24,81
1051	28,41
1051,4	29,095
1051,9	24,41
1052,3	20,21
1052,7	18,752
1053,1	20,181
1053,5	20,495
1053,9	18,467
1054,3	20,61
1054,8	23,838
1055,2	19,724
1055,6	23,267
1056	23,124
1056,4	21,981
1056,8	25,01
1057,2	19,752
1057,6	13,095
1058,1	12,381
1058,5	8,324
1058,9	9,581
1059,3	11,838
1059,7	13,638
1060,1	13,61
1060,5	22,867
1061	24,067
1061,4	23,667
1061,8	23,781
1062,2	21,524
1062,6	14,438
1063	14,267
1063,4	7,581
1063,8	9,381
1064,3	7,095
1064,7	4,152
1065,1	5,695
1065,5	6,267
1065,9	3,352
1066,3	-0,162
1066,7	-5,648
1067,1	-5,19
1067,6	-1,533
1068	-7,819
1068,4	-0,933
1068,8	4,095
1069,2	11,238
1069,6	16,924
1070	21,152
1070,4	18,01
1070,9	19,895
1071,3	14,41
1071,7	12,038
1072,1	15,41
1072,5	9,724
1072,9	8,21
1073,3	12,267
1073,7	13,695
1074,2	16,095
1074,6	15,524
1075	10,981
1075,4	9,267
1075,8	10,895
1076,2	9,352
1076,6	9,181
1077	10,295
1077,5	16,124
1077,9	15,152
1078,3	18,467
1078,7	17,724
1079,1	19,238
1079,5	20,095
1079,9	19,495
1080,3	15,952
1080,7	17,181
1081,2	24,21
1081,6	20,124
1082	14,267
1082,4	18,524
1082,8	16,467
1083,2	15,324
1083,6	18,267
1084	13,21
1084,5	17,724
1084,9	19,381
1085,3	11,581
1085,7	13,695
1086,1	11,695
1086,5	9,695
1086,9	10,952
1087,3	9,867
1087,7	12,781
1088,2	21,067
1088,6	19,552
1089	24,81
1089,4	22,724
1089,8	22,61
1090,2	23,41
1090,6	20,467
1091	18,095
1091,4	19,324
1091,9	15,295
1092,3	17,638
1092,7	17,81
1093,1	17,352
1093,5	16,238
1093,9	12,181
1094,3	15,067
1094,7	15,724
1095,1	15,61
1095,5	10,924
1096	5,952
1096,4	10,781
1096,8	11,038
1097,2	8,724
1097,6	11,924
1098	11,295
1098,4	14,438
1098,8	18,695
1099,2	21,952
1099,6	23,324
1100,1	17,695
1100,5	15,838
1100,9	14,095
1101,3	16,124
1101,7	14,324
1102,1	9,152
1102,5	10,952
1102,9	16,295
1103,3	17,581
1103,7	18,21
1104,2	14,467
1104,6	13,667
1105	10,095
1105,4	8,924
1105,8	5,638
1106,2	1,81
1106,6	-0,19
1107	-0,648
1107,4	0,033
1107,8	1,907
1108,3	-0,683
