Data from Subt2_177.txt Node
Date: Sat Aug 26 18:39:18 MSK 2023
User: vat
Spectrometer: MAYP114033
Trigger mode: 0
Integration Time (sec): 1,000000E0
Scans to average: 5
Electric dark correction enabled: true
Nonlinearity correction enabled: false
Boxcar width: 3
XAxis mode: Wavelengths
Number of Pixels in Spectrum: 2068
>>>>>Begin Spectral Data<<<<<
199,4	0,383
199,9	1,953
200,4	1,233
200,8	1,033
201,3	-1,052
201,8	1,919
202,2	0,519
202,7	1,948
203,2	0,405
203,6	2,062
204,1	0,519
204,6	1,576
205	0,919
205,5	0,49
206	0,319
206,4	3,376
206,9	1,748
207,4	5,633
207,8	4,119
208,3	2,005
208,8	5,348
209,2	2,662
209,7	0,005
210,2	0,69
210,6	-2,652
211,1	1,376
211,5	-0,167
212	-1,252
212,5	-0,938
212,9	-2,452
213,4	-3,824
213,9	-3,081
214,3	-3,481
214,8	-2,881
215,3	-5,795
215,7	-1,167
216,2	3,49
216,7	6,205
217,1	4,376
217,6	5,176
218,1	3,805
218,5	3,205
219	-5,91
219,5	-5,167
219,9	-10,138
220,4	-1,052
220,9	-1,595
221,3	-0,995
221,8	3,976
222,3	9,605
222,7	7,033
223,2	12,062
223,6	3,376
224,1	4,548
224,6	5,69
225	2,833
225,5	3,89
226	5,519
226,4	7,033
226,9	10,633
227,4	10,405
227,8	9,376
228,3	8,09
228,8	8,49
229,2	7,148
229,7	1,519
230,2	3,005
230,6	0,605
231,1	6,405
231,5	9,405
232	10,805
232,5	8,548
232,9	12,719
233,4	11,319
233,9	12,519
234,3	6,833
234,8	7,662
235,3	4,033
235,7	8,119
236,2	9,948
236,7	9,976
237,1	8,89
237,6	8,633
238,1	5,319
238,5	1,348
239	1,805
239,4	1,69
239,9	-1,167
240,4	0,033
240,8	4,262
241,3	1,976
241,8	4,176
242,2	-1,252
242,7	-6,052
243,2	-2,938
243,6	-3,91
244,1	-4,052
244,6	3,548
245	3,576
245,5	8,119
245,9	8,462
246,4	8,205
246,9	12,776
247,3	11,319
247,8	8,69
248,3	12,233
248,7	9,662
249,2	11,148
249,7	10,719
250,1	11,948
250,6	9,576
251	9,976
251,5	9,062
252	8,719
252,4	9,89
252,9	6,548
253,4	-3,31
253,8	-2,081
254,3	-4,052
254,8	-3,652
255,2	-3,424
255,7	-6,11
256,1	-2,252
256,6	3,49
257,1	10,148
257,5	8,976
258	5,519
258,5	3,948
258,9	1,062
259,4	-0,11
259,9	-1,252
260,3	-8,538
260,8	-6,738
261,2	-2,452
261,7	-1,567
262,2	0,948
262,6	2,89
263,1	6,833
263,6	9,319
264	11,633
264,5	13,719
264,9	11,919
265,4	14,49
265,9	10,89
266,3	9,748
266,8	14,005
267,3	15,633
267,7	17,062
268,2	18,376
268,7	16,233
269,1	17,005
269,6	15,205
270	10,605
270,5	8,433
271	4,405
271,4	7,89
271,9	8,948
272,4	12,262
272,8	10,433
273,3	6,433
273,7	2,69
274,2	3,519
274,7	1,548
275,1	2,948
275,6	1,148
276,1	1,062
276,5	7,148
277	9,405
277,4	7,748
277,9	8,205
278,4	5,376
278,8	5,862
279,3	8,548
279,8	6,89
280,2	9,09
280,7	10,605
281,1	4,919
281,6	5,176
282,1	4,205
282,5	4,005
283	4,69
283,4	0,748
283,9	2,462
284,4	10,719
284,8	10,09
285,3	8,433
285,8	9,376
286,2	8,462
286,7	10,89
287,1	6,233
287,6	4,776
288,1	3,805
288,5	4,033
289	-2,195
289,5	-1,195
289,9	-3,281
290,4	0,833
290,8	-2,881
291,3	2,862
291,8	5,433
292,2	5,176
292,7	5,319
293,1	3,919
293,6	0,348
294,1	4,29
294,5	4,319
295	2,805
295,5	3,719
295,9	1,748
296,4	2,49
296,8	5,148
297,3	3,233
297,8	-1,424
298,2	-4,395
298,7	1,119
299,1	1,119
299,6	1,776
300,1	3,033
300,5	2,605
301	9,319
301,5	17,748
301,9	14,633
302,4	11,49
302,8	10,976
303,3	9,176
303,8	4,119
304,2	-1,567
304,7	-4,052
305,1	-8,424
305,6	-3,595
306,1	-1,367
306,5	0,262
307	10,062
307,4	14,262
307,9	6,833
308,4	9,948
308,8	4,405
309,3	3,262
309,8	-0,51
310,2	-4,967
310,7	-13,081
311,1	-6,767
311,6	-3,595
312,1	-0,767
312,5	2,205
313	5,605
313,4	6,319
313,9	10,69
314,4	8,462
314,8	7,548
315,3	7,69
315,7	3,176
316,2	-2,281
316,7	-5,31
317,1	0,662
317,6	-0,138
318	1,605
318,5	0,49
319	-0,052
319,4	4,862
319,9	12,89
320,3	8,776
320,8	10,405
321,3	10,348
321,7	15,833
322,2	15,205
322,6	18,233
323,1	10,89
323,6	7,576
324	7,148
324,5	4,805
324,9	2,119
325,4	3,062
325,9	-1,31
326,3	4,176
326,8	7,062
327,2	5,805
327,7	4,69
328,2	2,319
328,6	5,119
329,1	0,062
329,5	-2,224
330	-3,681
330,5	-1,595
330,9	0,748
331,4	2,976
331,8	1,605
332,3	8,262
332,8	8,805
333,2	8,262
333,7	8,233
334,1	7,976
334,6	6,605
335,1	4,519
335,5	3,776
336	-1,652
336,4	-0,252
336,9	4,148
337,4	6,376
337,8	4,29
338,3	8,005
338,7	13,29
339,2	13,862
339,7	17,405
340,1	9,119
340,6	6,89
341	6,605
341,5	6,119
342	-3,71
342,4	-4,967
342,9	-7,31
343,3	-1,91
343,8	-1,738
344,2	-1,481
344,7	3,548
345,2	6,748
345,6	11,319
346,1	10,976
346,5	5,348
347	7,233
347,5	5,776
347,9	5,805
348,4	12,005
348,8	13,262
349,3	16,233
349,8	21,005
350,2	23,033
350,7	27,09
351,1	22,005
351,6	22,176
352	28,69
352,5	33,605
353	46,348
353,4	50,376
353,9	65,633
354,3	84,262
354,8	97,833
355,3	117,005
355,7	141,119
356,2	160,405
356,6	192,519
357,1	223,405
357,5	257,348
358	298,519
358,5	341,119
358,9	389,29
359,4	446,69
359,8	510,433
360,3	584,09
360,8	664,319
361,2	757,576
361,7	859,948
362,1	975,805
362,6	1108,548
363	1243,719
363,5	1391,148
364	1544,89
364,4	1703,919
364,9	1862,319
365,3	2017,09
365,8	2155,148
366,3	2289,833
366,7	2408,605
367,2	2516,148
367,6	2600,405
368,1	2666,719
368,5	2711,776
369	2738,376
369,5	2743,89
369,9	2717,576
370,4	2677,29
370,8	2618,319
371,3	2544,748
371,7	2448,033
372,2	2342,348
372,7	2225,005
373,1	2111,662
373,6	1983,176
374	1860,49
374,5	1734,776
374,9	1620,519
375,4	1507,29
375,9	1396,033
376,3	1290,833
376,8	1193,662
377,2	1100,262
377,7	1009,29
378,2	920,748
378,6	839,319
379,1	772,833
379,5	710,605
380	659,176
380,4	600,776
380,9	551,548
381,4	504,662
381,8	468,433
382,3	435,376
382,7	402,348
383,2	369,433
383,6	343,662
384,1	323,548
384,6	305,548
385	284,69
385,5	260,69
385,9	240,519
386,4	222,205
386,8	208,805
387,3	191,176
387,7	181,262
388,2	171,348
388,7	160,776
389,1	155,205
389,6	145,176
390	132,805
390,5	126,89
390,9	119,548
391,4	109,348
391,9	102,633
392,3	94,548
392,8	84,776
393,2	79,49
393,7	75,262
394,1	65,948
394,6	62,405
395,1	63,233
395,5	55,462
396	58,748
396,4	60,548
396,9	55,919
397,3	60,29
397,8	63,319
398,2	55,405
398,7	57,348
399,2	56,633
399,6	51,376
400,1	52,376
400,5	46,176
401	42,605
401,4	40,776
401,9	42,519
402,4	39,862
402,8	39,29
403,3	40,319
403,7	41,233
404,2	44,033
404,6	51,348
405,1	50,033
405,5	50,89
406	50,348
406,5	50,148
406,9	55,176
407,4	53,29
407,8	54,148
408,3	57,919
408,7	58,062
409,2	66,948
409,6	75,862
410,1	79,405
410,6	89,119
411	92,605
411,5	96,805
411,9	104,748
412,4	112,062
412,8	117,29
413,3	121,833
413,7	122,405
414,2	129,462
414,7	139,405
415,1	152,49
415,6	161,719
416	167,462
416,5	176,919
416,9	185,376
417,4	195,548
417,8	210,633
418,3	220,976
418,8	228,805
419,2	240,89
419,7	250,49
420,1	263,805
420,6	276,519
421	282,776
421,5	293,319
421,9	305,776
422,4	320,748
422,8	340,548
423,3	357,919
423,8	374,862
424,2	390,519
424,7	409,319
425,1	433,005
425,6	451,462
426	467,462
426,5	488,89
426,9	515,319
427,4	537,319
427,9	556,49
428,3	579,576
428,8	608,405
429,2	634,948
429,7	663,519
430,1	689,548
430,6	726,49
431	763,805
431,5	798,805
431,9	834,69
432,4	880,833
432,8	925,976
433,3	970,119
433,8	1015,69
434,2	1067,519
434,7	1121,462
435,1	1175,748
435,6	1230,519
436	1283,605
436,5	1344,719
436,9	1403,405
437,4	1463,919
437,8	1524,633
438,3	1594,376
438,8	1662,805
439,2	1736,519
439,7	1812,805
440,1	1899,148
440,6	1986,033
441	2069,69
441,5	2154,005
441,9	2249,148
442,4	2345,262
442,8	2440,919
443,3	2538,005
443,7	2634,948
444,2	2752,548
444,7	2867,833
445,1	2980,348
445,6	3097,09
446	3221,005
446,5	3336,748
446,9	3460,576
447,4	3577,005
447,8	3702,748
448,3	3833,662
448,7	3972,033
449,2	4113,49
449,6	4261,919
450,1	4402,348
450,6	4561,976
451	4708,69
451,5	4866,519
451,9	5029,119
452,4	5192,262
452,8	5355,348
453,3	5531,976
453,7	5697,805
454,2	5873,119
454,6	6047,319
455,1	6213,948
455,5	6386,548
456	6566,176
456,4	6746,519
456,9	6941,605
457,3	7130,29
457,8	7316,862
458,3	7517,176
458,7	7712,605
459,2	7915,89
459,6	8122,862
460,1	8312,833
460,5	8519,348
461	8733,29
461,4	8936,948
461,9	9142,205
462,3	9346,119
462,8	9548,119
463,2	9762,348
463,7	9973,748
464,1	10173,176
464,6	10384,062
465	10598,862
465,5	10803,919
466	11021,148
466,4	11217,919
466,9	11426,69
467,3	11629,405
467,8	11832,233
468,2	12028,548
468,7	12235,862
469,1	12437,548
469,6	12648,49
470	12840,462
470,5	13044,176
470,9	13229,605
471,4	13422,319
471,8	13609,176
472,3	13793,176
472,7	13975,519
473,2	14148,433
473,6	14320,805
474,1	14505,833
474,5	14683,719
475	14855,576
475,4	15024,862
475,9	15190,09
476,4	15354,89
476,8	15518,033
477,3	15669,09
477,7	15817,662
478,2	15954,548
478,6	16081,748
479,1	16210,205
479,5	16345,919
480	16463,205
480,4	16573,262
480,9	16676,776
481,3	16781,919
481,8	16878,976
482,2	16960,119
482,7	17043,462
483,1	17135,405
483,6	17215,605
484	17289,09
484,5	17358,862
484,9	17423,519
485,4	17499,89
485,8	17551,233
486,3	17592,805
486,7	17626,948
487,2	17654,662
487,6	17684,205
488,1	17695,519
488,5	17700,548
489	17710,348
489,4	17719,69
489,9	17714,976
490,4	17721,976
490,8	17708,719
491,3	17704,119
491,7	17690,205
492,2	17668,262
492,6	17626,49
493,1	17597,09
493,5	17536,148
494	17499,319
494,4	17447,148
494,9	17388,662
495,3	17333,405
495,8	17278,462
496,2	17237,033
496,7	17193,719
497,1	17127,833
497,6	17076,633
498	17006,49
498,5	16940,09
498,9	16867,662
499,4	16770,748
499,8	16680,576
500,3	16599,005
500,7	16506,948
501,2	16417,49
501,6	16325,29
502,1	16235,033
502,5	16151,548
503	16050,005
503,4	15950,376
503,9	15854,348
504,3	15756,233
504,8	15646,519
505,2	15528,033
505,7	15401,719
506,1	15303,662
506,6	15174,605
507	15056,119
507,5	14935,348
507,9	14802,519
508,4	14683,09
508,8	14566,662
509,3	14437,348
509,7	14323,748
510,2	14192,376
510,6	14061,062
511,1	13940,919
511,5	13813,805
512	13688,233
512,4	13568,69
512,9	13446,519
513,3	13325,719
513,8	13206,348
514,2	13074,862
514,7	12952,519
515,1	12818,776
515,6	12682,405
516	12546,548
516,5	12408,833
516,9	12277,405
517,4	12163,233
517,8	12034,262
518,3	11922,548
518,7	11788,89
519,2	11656,233
519,6	11525,662
520,1	11396,376
520,5	11267,233
521	11133,605
521,4	11014,919
521,9	10906,805
522,3	10793,976
522,8	10679,919
523,2	10573,462
523,7	10451,005
524,1	10340,233
524,6	10213,376
525	10096,776
525,5	9987,69
525,9	9878,49
526,4	9761,605
526,8	9658,433
527,3	9558,833
527,7	9456,89
528,2	9346,462
528,6	9238,748
529,1	9134,376
529,5	9035,176
530	8932,148
530,4	8822,748
530,9	8724,833
531,3	8641,433
531,8	8551,548
532,2	8466,462
532,6	8365,119
533,1	8274,919
533,5	8192,005
534	8103,262
534,4	8004,205
534,9	7913,919
535,3	7827,748
535,8	7749,262
536,2	7665,719
536,7	7586,49
537,1	7502,576
537,6	7423,69
538	7339,49
538,5	7254,805
538,9	7170,433
539,4	7096,69
539,8	7017,69
540,3	6940,462
540,7	6869,519
541,2	6795,405
541,6	6713,89
542,1	6652,776
542,5	6578,633
543	6508,49
543,4	6441,462
543,9	6370,948
544,3	6308,119
544,8	6249,233
545,2	6184,148
545,7	6121,262
546,1	6062,548
546,5	6004,119
547	5942,976
547,4	5883,862
547,9	5817,719
548,3	5764,062
548,8	5710,348
549,2	5648,776
549,7	5599,805
550,1	5550,148
550,6	5499,062
551	5458,776
551,5	5401,576
551,9	5355,119
552,4	5304,148
552,8	5255,319
553,3	5207,605
553,7	5153,348
554,2	5108,919
554,6	5064,033
555,1	5017,748
555,5	4980,89
555,9	4930,776
556,4	4884,005
556,8	4851,319
557,3	4809,519
557,7	4764,805
558,2	4718,176
558,6	4680,176
559,1	4635,376
559,5	4599,49
560	4558,433
560,4	4517,805
560,9	4485,633
561,3	4456,005
561,8	4410,69
562,2	4381,062
562,7	4342,205
563,1	4307,862
563,6	4268,348
564	4234,29
564,4	4198,062
564,9	4173,005
565,3	4141,976
565,8	4115,062
566,2	4088,605
566,7	4073,233
567,1	4045,262
567,6	4015,233
568	3980,262
568,5	3952,833
568,9	3925,09
569,4	3893,319
569,8	3854,833
570,3	3822,462
570,7	3789,69
571,1	3765,376
571,6	3734,033
572	3707,005
572,5	3675,319
572,9	3650,462
573,4	3625,348
573,8	3601,69
574,3	3574,176
574,7	3545,748
575,2	3512,605
575,6	3487,662
576,1	3463,033
576,5	3441,919
576,9	3415,148
577,4	3387,319
577,8	3360,576
578,3	3345,119
578,7	3324,062
579,2	3301,005
579,6	3274,976
580,1	3252,176
580,5	3230,805
581	3214,69
581,4	3189,948
581,9	3165,033
582,3	3138,29
582,7	3122,09
583,2	3098,319
583,6	3078,205
584,1	3054,833
584,5	3029,776
585	3009,005
585,4	2984,176
585,9	2957,605
586,3	2943,49
586,8	2922,662
587,2	2902,433
587,6	2885,948
588,1	2874,49
588,5	2862,776
589	2848,605
589,4	2826,862
589,9	2815,633
590,3	2796,062
590,8	2783,205
591,2	2762,948
591,7	2749,233
592,1	2732,862
592,5	2727,948
593	2708,062
593,4	2696,005
593,9	2669,319
594,3	2655,49
594,8	2636,119
595,2	2617,605
595,7	2593,633
596,1	2577,462
596,6	2567,919
597	2562,805
597,4	2550,862
597,9	2537,205
598,3	2525,462
598,8	2511,776
599,2	2503,233
599,7	2480,748
600,1	2462,005
600,6	2446,062
601	2436,233
601,4	2427,919
601,9	2420,005
602,3	2400,433
602,8	2395,519
603,2	2387,376
603,7	2368,576
604,1	2357,119
604,6	2336,262
605	2318,748
605,4	2310,976
605,9	2290,319
606,3	2272,69
606,8	2261,69
607,2	2239,776
607,7	2224,548
608,1	2212,976
608,6	2201,862
609	2197,376
609,4	2188,176
609,9	2174,148
610,3	2165,29
610,8	2158,976
611,2	2146,976
611,7	2130,948
612,1	2117,148
612,6	2103,233
613	2092,462
613,4	2085,233
613,9	2068,005
614,3	2055,833
614,8	2042,062
615,2	2022,548
615,7	2013,033
616,1	2003,833
616,6	1984,29
617	1971,662
617,4	1954,519
617,9	1946,462
618,3	1943,405
618,8	1933,205
619,2	1918,919
619,7	1910,576
620,1	1900,49
620,5	1896,805
621	1885,348
621,4	1870,776
621,9	1854,09
622,3	1843,462
622,8	1831,033
623,2	1816,49
623,6	1798,176
624,1	1787,233
624,5	1776,205
625	1769,233
625,4	1755,519
625,9	1746,09
626,3	1738,262
626,8	1727,148
627,2	1715,09
627,6	1698,862
628,1	1682,119
628,5	1674,89
629	1657,805
629,4	1646,148
629,9	1638,548
630,3	1622,148
630,7	1612,462
631,2	1605,576
631,6	1593,548
632,1	1584,405
632,5	1572,662
633	1560,948
633,4	1550,319
633,8	1543,09
634,3	1534,89
634,7	1524,776
635,2	1511,176
635,6	1503,433
636,1	1493,033
636,5	1485,833
636,9	1475,262
637,4	1459,605
637,8	1446,233
638,3	1440,433
638,7	1426,862
639,2	1415,29
639,6	1407,205
640	1397,862
640,5	1387,033
640,9	1380,919
641,4	1373,862
641,8	1367,262
642,2	1359,49
642,7	1356,719
643,1	1349,262
643,6	1343,119
644	1336,262
644,5	1326,09
644,9	1321,576
645,3	1312,033
645,8	1296,033
646,2	1289,833
646,7	1282,49
647,1	1269,919
647,6	1269,662
648	1262,233
648,4	1253,348
648,9	1251,005
649,3	1240,69
649,8	1236,548
650,2	1234,462
650,6	1220,919
651,1	1211,09
651,5	1210,005
652	1202,948
652,4	1192,919
652,9	1179,948
653,3	1172,233
653,7	1163,033
654,2	1154,09
654,6	1141,405
655,1	1135,319
655,5	1135,405
655,9	1130,948
656,4	1124,205
656,8	1120,005
657,3	1115,29
657,7	1111,89
658,2	1094,49
658,6	1079,148
659	1072,319
659,5	1059,976
659,9	1053,805
660,4	1046,862
660,8	1037,319
661,2	1033,433
661,7	1032,862
662,1	1024,033
662,6	1020,576
663	1013,433
663,4	1005,69
663,9	1000,748
664,3	994,519
664,8	984,005
665,2	978,948
665,6	971,519
666,1	967,09
666,5	959,519
667	951,062
667,4	943,976
667,9	931,005
668,3	921,776
668,7	911,576
669,2	901,776
669,6	899,233
670,1	894,776
670,5	888,919
670,9	883,576
671,4	879,376
671,8	879,662
672,3	878,205
672,7	872,519
673,1	861,89
673,6	854,119
674	856,319
674,5	851,09
674,9	837,205
675,3	821,605
675,8	813,033
676,2	807,548
676,7	803,29
677,1	793,719
677,5	788,433
678	789,09
678,4	789,433
678,9	780,633
679,3	776,719
679,7	772,748
680,2	766,176
680,6	754,776
681,1	746,233
681,5	740,69
681,9	738,548
682,4	737,005
682,8	734,833
683,3	736,633
683,7	738,519
684,1	732,719
684,6	724,033
685	716,719
685,5	706,29
685,9	691,548
686,3	678,462
686,8	669,833
687,2	666,262
687,7	661,89
688,1	653,548
688,5	650,519
689	650,862
689,4	649,262
689,9	646,719
690,3	636,69
690,7	635,49
691,2	635,49
691,6	634,176
692	626,176
692,5	625,662
692,9	620,348
693,4	614,405
693,8	610,405
694,2	606,433
694,7	598,348
695,1	597,033
695,6	587,176
696	584,462
696,4	586,462
696,9	578,405
697,3	573,205
697,8	565,662
698,2	555,833
698,6	556,633
699,1	548,605
699,5	548,233
699,9	541,805
700,4	536,319
700,8	538,862
701,3	541,662
701,7	534,119
702,1	533,062
702,6	522,233
703	523,319
703,5	521,29
703,9	515,862
704,3	513,319
704,8	509,576
705,2	502,29
705,6	501,748
706,1	499,09
706,5	492,348
707	489,862
707,4	488,719
707,8	482,805
708,3	482,862
708,7	478,719
709,2	473,148
709,6	470,862
710	470,748
710,5	461,548
710,9	458,719
711,3	455,49
711,8	457,519
712,2	454,005
712,7	451,033
713,1	444,176
713,5	445,205
714	444,262
714,4	436,805
714,8	426,062
715,3	421,605
715,7	421,948
716,2	413,862
716,6	411,462
717	404,548
717,5	405,519
717,9	409,833
718,3	405,376
718,8	398,233
719,2	399,919
719,7	395,69
720,1	397,176
720,5	395,148
721	388,833
721,4	388,948
721,8	386,948
722,3	379,405
722,7	380,633
723,2	371,176
723,6	358,89
724	355,348
724,5	349,719
724,9	345,919
725,3	350,119
725,8	342,576
726,2	342,433
726,7	344,519
727,1	339,405
727,5	335,29
728	330,49
728,4	324,005
728,8	320,119
729,3	315,548
729,7	313,462
730,1	314,262
730,6	315,69
731	314,49
731,5	311,805
731,9	306,462
732,3	311,205
732,8	312,233
733,2	309,805
733,6	310,062
734,1	311,176
734,5	311,976
734,9	315,69
735,4	314,49
735,8	309,319
736,3	310,376
736,7	304,462
737,1	302,405
737,6	302,062
738	298,176
738,4	295,605
738,9	299,09
739,3	294,49
739,7	294,233
740,2	290,605
740,6	289,09
741,1	287,119
741,5	280,948
741,9	274,433
742,4	276,462
742,8	274,09
743,2	273,262
743,7	265,69
744,1	258,205
744,5	254,776
745	251,405
745,4	243,576
745,8	244,205
746,3	242,005
746,7	240,205
747,2	246,833
747,6	252,833
748	256,748
748,5	259,462
748,9	250,89
749,3	252,519
749,8	254,119
750,2	250,033
750,6	242,919
751,1	241,205
751,5	237,205
751,9	241,262
752,4	235,405
752,8	233,233
753,3	228,062
753,7	234,119
754,1	227,176
754,6	221,833
755	216,319
755,4	217,119
755,9	214,29
756,3	213,948
756,7	203,29
757,2	206,605
757,6	210,605
758	214,605
758,5	210,09
758,9	211,09
759,3	215,862
759,8	217,29
760,2	217,09
760,6	213,462
761,1	209,719
761,5	209,976
761,9	208,89
762,4	200,776
762,8	199,519
763,3	194,748
763,7	197,805
764,1	196,005
764,6	197,548
765	195,89
765,4	196,519
765,9	194,862
766,3	195,405
766,7	189,748
767,2	186,262
767,6	185,719
768	182,462
768,5	181,776
768,9	180,748
769,3	178,805
769,8	174,348
770,2	177,348
770,6	172,062
771,1	177,148
771,5	177,462
771,9	178,919
772,4	178,919
772,8	180,719
773,2	183,519
773,7	183,776
774,1	179,862
774,5	175,348
775	171,005
775,4	172,319
775,8	169,719
776,3	164,29
776,7	161,176
777,1	158,576
777,6	162,862
778	165,576
778,4	161,805
778,9	164,119
779,3	161,748
779,7	163,233
780,2	160,776
780,6	158,319
781	153,176
781,5	148,062
781,9	142,033
782,3	142,633
782,8	144,662
783,2	144,005
783,6	142,49
784,1	143,89
784,5	144,805
784,9	148,433
785,4	151,862
785,8	148,662
786,2	148,005
786,7	148,09
787,1	146,919
787,5	144,348
788	141,719
788,4	134,776
788,8	134,89
789,3	131,548
789,7	130,033
790,1	129,976
790,6	136,948
791	133,005
791,4	134,376
791,9	129,69
792,3	129,662
792,7	132,719
793,2	127,948
793,6	125,748
794	129,005
794,5	124,948
794,9	128,948
795,3	129,548
795,8	122,005
796,2	124,405
796,6	121,262
797,1	121,462
797,5	118,805
797,9	114,462
798,4	109,062
798,8	110,719
799,2	109,205
799,7	110,005
800,1	106,719
800,5	109,605
801	112,376
801,4	113,262
801,8	109,748
802,2	107,376
802,7	101,033
803,1	101,89
803,5	101,748
804	94,605
804,4	99,033
804,8	101,29
805,3	105,119
805,7	107,719
806,1	108,89
806,6	108,976
807	109,005
807,4	104,49
807,9	97,376
808,3	92,776
808,7	91,062
809,2	89,662
809,6	89,119
810	90,033
810,4	92,262
810,9	96,176
811,3	98,862
811,7	99,005
812,2	100,405
812,6	97,69
813	102,062
813,5	99,462
813,9	100,005
814,3	94,69
814,8	92,833
815,2	87,548
815,6	86,348
816,1	88,176
816,5	88,833
816,9	89,262
817,3	90,09
817,8	95,262
818,2	97,376
818,6	96,176
819,1	90,005
819,5	87,205
819,9	87,462
820,4	87,005
820,8	80,319
821,2	77,519
821,7	78,119
822,1	80,805
822,5	85,576
822,9	78,548
823,4	76,062
823,8	76,719
824,2	78,748
824,7	76,262
825,1	69,776
825,5	66,062
826	60,776
826,4	62,319
826,8	59,576
827,3	59,205
827,7	58,919
828,1	63,833
828,5	60,233
829	63,033
829,4	66,405
829,8	62,519
830,3	61,976
830,7	61,748
831,1	59,119
831,6	60,348
832	64,662
832,4	58,233
832,8	63,062
833,3	57,233
833,7	55,605
834,1	48,29
834,6	43,89
835	44,919
835,4	46,148
835,8	41,348
836,3	40,89
836,7	45,462
837,1	52,776
837,6	58,776
838	55,233
838,4	54,29
838,9	56,405
839,3	58,862
839,7	60,433
840,1	52,348
840,6	49,548
841	54,205
841,4	56,605
841,9	58,605
842,3	56,576
842,7	51,205
843,1	55,29
843,6	54,633
844	51,176
844,4	49,148
844,9	48,662
845,3	53,119
845,7	56,005
846,2	52,462
846,6	51,033
847	53,062
847,4	53,862
847,9	56,262
848,3	52,633
848,7	51,576
849,2	55,319
849,6	55,062
850	55,09
850,4	53,148
850,9	51,948
851,3	53,462
851,7	51,805
852,2	47,662
852,6	50,262
853	48,519
853,4	49,548
853,9	44,119
854,3	42,805
854,7	42,89
855,2	44,09
855,6	41,033
856	37,69
856,4	32,576
856,9	32,919
857,3	35,348
857,7	36,005
858,2	43,376
858,6	44,805
859	46,29
859,4	48,005
859,9	46,89
860,3	43,862
860,7	42,09
861,1	40,633
861,6	39,719
862	39,348
862,4	39,69
862,9	42,948
863,3	42,176
863,7	40,519
864,1	36,69
864,6	33,662
865	31,548
865,4	31,548
865,9	31,205
866,3	27,376
866,7	25,348
867,1	25,376
867,6	28,176
868	26,662
868,4	24,348
868,8	25,262
869,3	27,462
869,7	34,919
870,1	26,605
870,6	26,376
871	14,062
871,4	20,033
871,8	14,976
872,3	17,49
872,7	12,405
873,1	17,29
873,5	23,348
874	35,49
874,4	33,29
874,8	34,719
875,3	33,69
875,7	33,605
876,1	37,062
876,5	27,805
877	29,09
877,4	23,205
877,8	27,29
878,2	28,262
878,7	29,29
879,1	27,576
879,5	31,89
879,9	32,462
880,4	36,119
880,8	33,605
881,2	33,833
881,7	31,176
882,1	31,319
882,5	28,062
882,9	27,29
883,4	27,919
883,8	28,805
884,2	25,262
884,6	24,005
885,1	23,405
885,5	22,29
885,9	22,89
886,3	23,805
886,8	22,29
887,2	19,919
887,6	19,605
888	19,948
888,5	20,205
888,9	14,919
889,3	13,033
889,8	9,376
890,2	13,233
890,6	10,833
891	8,576
891,5	7,948
891,9	14,005
892,3	14,49
892,7	18,09
893,2	18,319
893,6	24,805
894	25,148
894,4	24,233
894,9	23,09
895,3	21,462
895,7	23,776
896,1	22,005
896,6	20,062
897	20,262
897,4	25,833
897,8	25,119
898,3	28,062
898,7	23,205
899,1	24,862
899,5	23,062
900	17,405
900,4	14,033
900,8	11,119
901,2	7,348
901,7	6,348
902,1	4,89
902,5	10,49
902,9	13,233
903,4	16,519
903,8	21,605
904,2	23,833
904,6	26,919
905,1	24,462
905,5	18,976
905,9	23,862
906,3	20,862
906,8	19,976
907,2	17,805
907,6	16,49
908	19,662
908,5	16,148
908,9	11,576
909,3	6,348
909,7	3,148
910,2	5,405
910,6	9,69
911	4,548
911,4	11,348
911,9	8,748
912,3	13,319
912,7	18,776
913,1	18,262
913,6	17,519
914	21,119
914,4	18,519
914,8	24,719
915,3	20,29
915,7	16,519
916,1	17,29
916,5	14,376
916,9	13,348
917,4	14,576
917,8	13,89
918,2	16,862
918,6	14,748
919,1	13,29
919,5	13,805
919,9	15,862
920,3	10,833
920,8	9,748
921,2	8,205
921,6	8,462
922	7,605
922,5	6,49
922,9	7,205
923,3	11,748
923,7	8,89
924,2	9,748
924,6	10,748
925	10,405
925,4	7,348
925,8	3,862
926,3	2,462
926,7	3,405
927,1	2,405
927,5	3,805
928	3,148
928,4	4,89
928,8	9,49
929,2	9,433
929,7	15,519
930,1	19,605
930,5	18,005
930,9	18,89
931,3	23,548
931,8	21,719
932,2	19,09
932,6	14,148
933	7,062
933,5	6,948
933,9	10,69
934,3	7,919
934,7	6,519
935,2	10,09
935,6	12,148
936	15,919
936,4	15,262
936,8	15,062
937,3	10,548
937,7	10,348
938,1	12,605
938,5	8,748
939	13,69
939,4	13,833
939,8	10,662
940,2	10,148
940,6	15,69
941,1	11,748
941,5	16,405
941,9	11,433
942,3	11,69
942,8	12,176
943,2	17,205
943,6	9,89
944	11,005
944,4	9,719
944,9	9,348
945,3	8,976
945,7	1,976
946,1	-0,167
946,6	-0,11
947	0,319
947,4	1,433
947,8	4,519
948,2	-0,052
948,7	7,919
949,1	7,176
949,5	11,748
949,9	12,262
950,3	11,005
950,8	4,576
951,2	8,662
951,6	3,89
952	5,09
952,5	1,462
952,9	1,148
953,3	1,433
953,7	4,205
954,1	6,605
954,6	9,576
955	10,776
955,4	8,462
955,8	10,433
956,2	8,833
956,7	11,062
957,1	6,205
957,5	7,148
957,9	6,633
958,3	11,376
958,8	10,805
959,2	10,948
959,6	14,662
960	16,719
960,5	17,919
960,9	18,462
961,3	12,376
961,7	8,062
962,1	1,748
962,6	-1,624
963	-1,624
963,4	-5,538
963,8	-6,881
964,2	-2,938
964,7	-2,481
965,1	3,319
965,5	1,633
965,9	4,176
966,3	6,119
966,8	4,033
967,2	1,005
967,6	-0,31
968	-4,11
968,4	-3,681
968,9	-3,51
969,3	-3,081
969,7	-3,681
970,1	-0,881
970,5	-3,71
971	5,205
971,4	4,262
971,8	4,205
972,2	3,862
972,6	3,29
973,1	4,719
973,5	12,233
973,9	8,348
974,3	13,205
974,7	13,462
975,2	13,205
975,6	12,633
976	9,662
976,4	4,519
976,8	3,69
977,3	-1,795
977,7	-5,338
978,1	-6,995
978,5	-6,195
978,9	-7,795
979,4	-7,081
979,8	-9,967
980,2	-8,71
980,6	-9,824
981	-3,367
981,5	-0,91
981,9	0,862
982,3	1,776
982,7	2,948
983,1	-3,995
983,6	-0,195
984	-6,424
984,4	-7,052
984,8	-7,767
985,2	-6,595
985,6	-8,71
986,1	-2,452
986,5	0,033
986,9	-2,424
987,3	2,719
987,7	2,948
988,2	2,69
988,6	5,29
989	7,376
989,4	3,948
989,8	6,805
990,3	3,233
990,7	3,776
991,1	2,033
991,5	3,662
991,9	3,033
992,3	1,262
992,8	2,89
993,2	0,805
993,6	2,462
994	8,805
994,4	10,405
994,9	7,319
995,3	7,862
995,7	4,348
996,1	6,69
996,5	5,69
996,9	-1,338
997,4	0,662
997,8	-0,338
998,2	-3,138
998,6	-8,795
999	-9,052
999,5	-8,938
999,9	-7,71
1000,3	-13,681
1000,7	-10,538
1001,1	-11,367
1001,5	0,662
1002	5,576
1002,4	2,69
1002,8	0,833
1003,2	6,262
1003,6	8,49
1004	14,033
1004,5	6,262
1004,9	4,29
1005,3	1,976
1005,7	4,976
1006,1	-1,252
1006,6	-0,538
1007	0,119
1007,4	-0,395
1007,8	-4,738
1008,2	-0,795
1008,6	3,062
1009,1	7,005
1009,5	4,976
1009,9	5,09
1010,3	9,519
1010,7	11,405
1011,1	9,09
1011,6	3,833
1012	5,548
1012,4	2,205
1012,8	-2,11
1013,2	-0,424
1013,6	3,519
1014,1	10,29
1014,5	12,062
1014,9	8,348
1015,3	10,09
1015,7	9,29
1016,1	5,776
1016,6	0,433
1017	-2,481
1017,4	0,29
1017,8	0,062
1018,2	5,405
1018,6	6,348
1019,1	6,805
1019,5	10,176
1019,9	5,519
1020,3	3,205
1020,7	5,09
1021,1	1,633
1021,6	0,69
1022	8,033
1022,4	3,69
1022,8	9,319
1023,2	5,605
1023,6	5,462
1024,1	8,462
1024,5	13,662
1024,9	5,462
1025,3	5,89
1025,7	2,233
1026,1	4,69
1026,6	4,033
1027	0,519
1027,4	0,948
1027,8	1,462
1028,2	0,948
1028,6	9,033
1029	8,719
1029,5	10,662
1029,9	7,005
1030,3	0,148
1030,7	3,405
1031,1	4,062
1031,5	-1,681
1032	-0,824
1032,4	-2,51
1032,8	2,69
1033,2	9,805
1033,6	6,319
1034	5,29
1034,4	2,119
1034,9	1,148
1035,3	-2,852
1035,7	0,033
1036,1	-5,195
1036,5	-5,395
1036,9	-6,824
1037,4	-2,11
1037,8	-6,024
1038,2	-5,91
1038,6	-8,91
1039	-2,624
1039,4	2,033
1039,8	-0,995
1040,3	-1,052
1040,7	0,49
1041,1	3,433
1041,5	0,976
1041,9	-5,138
1042,3	-3,538
1042,7	3,948
1043,2	3,005
1043,6	1,976
1044	1,69
1044,4	1,662
1044,8	6,09
1045,2	2,776
1045,6	4,148
1046,1	3,89
1046,5	2,548
1046,9	1,548
1047,3	-0,967
1047,7	-0,367
1048,1	-1,452
1048,5	-5,195
1049	-2,281
1049,4	5,519
1049,8	4,548
1050,2	7,976
1050,6	11,833
1051	9,29
1051,4	9,062
1051,9	9,119
1052,3	17,833
1052,7	23,062
1053,1	22,119
1053,5	15,005
1053,9	14,89
1054,3	14,519
1054,8	18,176
1055,2	4,605
1055,6	8,633
1056	10,033
1056,4	10,776
1056,8	15,805
1057,2	15,062
1057,6	6,719
1058,1	7,662
1058,5	-3,338
1058,9	-0,138
1059,3	-1,081
1059,7	-3,367
1060,1	1,919
1060,5	4,148
1061	5,548
1061,4	8,376
1061,8	6,405
1062,2	8,119
1062,6	12,49
1063	10,09
1063,4	9,29
1063,8	4,976
1064,3	6,833
1064,7	5,519
1065,1	5,005
1065,5	-2,567
1065,9	-5,595
1066,3	-8,281
1066,7	-5,967
1067,1	-9,31
1067,6	-7,31
1068	-9,252
1068,4	-4,824
1068,8	-1,852
1069,2	-2,681
1069,6	1,348
1070	4,833
1070,4	2,919
1070,9	3,262
1071,3	-0,224
1071,7	-0,652
1072,1	4,576
1072,5	1,462
1072,9	-0,995
1073,3	-0,167
1073,7	-3,881
1074,2	0,833
1074,6	-1,91
1075	-2,452
1075,4	-3,052
1075,8	0,805
1076,2	-2,167
1076,6	0,976
1077	-0,567
1077,5	1,319
1077,9	-2,481
1078,3	-4,252
1078,7	-5,767
1079,1	-1,71
1079,5	-0,024
1079,9	0,576
1080,3	-0,024
1080,7	4,148
1081,2	13,033
1081,6	13,405
1082	11,833
1082,4	18,433
1082,8	16,29
1083,2	21,09
1083,6	22,519
1084	17,176
1084,5	14,262
1084,9	10,919
1085,3	4,462
1085,7	8,976
1086,1	2,548
1086,5	0,462
1086,9	6,29
1087,3	7,119
1087,7	11,376
1088,2	12,005
1088,6	5,319
1089	12,033
1089,4	12,033
1089,8	6,062
1090,2	4,062
1090,6	3,633
1091	1,576
1091,4	8,405
1091,9	6,062
1092,3	7,29
1092,7	7,805
1093,1	14,376
1093,5	12,319
1093,9	15,29
1094,3	13,405
1094,7	7,776
1095,1	6,49
1095,5	8,29
1096	2,605
1096,4	1,262
1096,8	0,662
1097,2	1,005
1097,6	10,205
1098	8,376
1098,4	5,576
1098,8	7,005
1099,2	15,405
1099,6	13,262
1100,1	8,49
1100,5	2,119
1100,9	4,776
1101,3	9,719
1101,7	11,262
1102,1	4,519
1102,5	6,776
1102,9	10,862
1103,3	14,89
1103,7	15,548
1104,2	10,833
1104,6	10,119
1105	10,262
1105,4	10,176
1105,8	7,205
1106,2	4,319
1106,6	1,776
1107	1,605
1107,4	1
1107,8	1,593
1108,3	-0,617
