Data from Subt2_283.txt Node
Date: Sat Aug 26 19:07:08 MSK 2023
User: vat
Spectrometer: MAYP114033
Trigger mode: 0
Integration Time (sec): 1,000000E0
Scans to average: 5
Electric dark correction enabled: true
Nonlinearity correction enabled: false
Boxcar width: 3
XAxis mode: Wavelengths
Number of Pixels in Spectrum: 2068
>>>>>Begin Spectral Data<<<<<
199,4	-0,233
199,9	3,667
200,4	0,5
200,8	0,724
201,3	-0,419
201,8	0,895
202,2	0,438
202,7	6,638
203,2	3,781
203,6	6,467
204,1	3,01
204,6	3,981
205	4,41
205,5	4,324
206	-0,79
206,4	1,181
206,9	-0,962
207,4	5,524
207,8	5,324
208,3	5,038
208,8	3,552
209,2	7,552
209,7	6,495
210,2	10,581
210,6	8,267
211,1	11,752
211,5	5,81
212	7,295
212,5	3,524
212,9	2,924
213,4	1,152
213,9	0,438
214,3	-1,248
214,8	7,067
215,3	7,41
215,7	10,038
216,2	10,552
216,7	12,724
217,1	13,295
217,6	13,067
218,1	10,238
218,5	9,152
219	0,838
219,5	2,067
219,9	-2,419
220,4	5,61
220,9	5,552
221,3	4,581
221,8	7,981
222,3	14,524
222,7	20,41
223,2	19,267
223,6	7,838
224,1	3,152
224,6	4,638
225	0,267
225,5	-1,676
226	-9,362
226,4	-4,562
226,9	-0,362
227,4	1,324
227,8	-3,562
228,3	-1,305
228,8	-0,476
229,2	4,838
229,7	2,695
230,2	0,924
230,6	6,152
231,1	12,21
231,5	11,352
232	12,038
232,5	6,895
232,9	11,238
233,4	15,295
233,9	11,638
234,3	12,581
234,8	14,181
235,3	13,038
235,7	15,324
236,2	10,981
236,7	5,21
237,1	8,095
237,6	0,267
238,1	-2,99
238,5	-8,133
239	-10,648
239,4	-8,133
239,9	-5,962
240,4	-7,105
240,8	2,324
241,3	3,324
241,8	3,124
242,2	5,981
242,7	0,924
243,2	3,752
243,6	5,667
244,1	5,267
244,6	7,667
245	14,181
245,5	10,21
245,9	12,381
246,4	10,038
246,9	9,067
247,3	5,21
247,8	4,181
248,3	4,01
248,7	6,352
249,2	9,352
249,7	8,467
250,1	5,895
250,6	5,924
251	9,724
251,5	10,01
252	9,581
252,4	8,781
252,9	8,895
253,4	6,667
253,8	2,038
254,3	-0,019
254,8	-1,048
255,2	-1,762
255,7	-4,019
256,1	-3,105
256,6	2,667
257,1	9,01
257,5	4,581
258	5,667
258,5	10,21
258,9	12,095
259,4	11,867
259,9	10,752
260,3	8,581
260,8	8,267
261,2	5,667
261,7	6,581
262,2	3,181
262,6	1,895
263,1	3,381
263,6	6,352
264	11,81
264,5	15,152
264,9	8,267
265,4	12,695
265,9	11,952
266,3	8,724
266,8	10,867
267,3	9,895
267,7	5,781
268,2	9,41
268,7	6,781
269,1	8,752
269,6	8,752
270	10,267
270,5	7,067
271	11,324
271,4	12,981
271,9	7,667
272,4	11,295
272,8	12,152
273,3	4,038
273,7	6,381
274,2	6,524
274,7	3,838
275,1	14,924
275,6	13,495
276,1	10,152
276,5	14,495
277	11,952
277,4	11,152
277,9	16,581
278,4	11,238
278,8	12,495
279,3	18,295
279,8	16,324
280,2	20,21
280,7	20,152
281,1	12,324
281,6	12,895
282,1	7,41
282,5	3,695
283	0,667
283,4	-4,019
283,9	-4,276
284,4	0,324
284,8	0,41
285,3	0,895
285,8	2,724
286,2	4,552
286,7	7,81
287,1	8,495
287,6	5,524
288,1	4,238
288,5	8,21
289	2,381
289,5	1,295
289,9	-0,39
290,4	2,01
290,8	2,21
291,3	6,838
291,8	8,238
292,2	14,438
292,7	19,638
293,1	22,924
293,6	20,41
294,1	22,41
294,5	19,038
295	18,61
295,5	13,295
295,9	13,895
296,4	9,724
296,8	9,81
297,3	8,381
297,8	4,124
298,2	1,752
298,7	8,638
299,1	6,495
299,6	7,21
300,1	4,924
300,5	4,095
301	9,124
301,5	13,781
301,9	9,41
302,4	3,524
302,8	3,21
303,3	5,295
303,8	5,695
304,2	7,581
304,7	3,267
305,1	0,61
305,6	7,01
306,1	13,552
306,5	13,095
307	16,095
307,4	15,924
307,9	14,495
308,4	16,581
308,8	13,324
309,3	9,41
309,8	10,581
310,2	6,981
310,7	0,181
311,1	1,638
311,6	4,552
312,1	6,552
312,5	6,81
313	6,067
313,4	8,21
313,9	10,952
314,4	11,981
314,8	8,01
315,3	7,438
315,7	-0,19
316,2	-0,019
316,7	-1,048
317,1	3,41
317,6	0,695
318	7,638
318,5	6,295
319	11,21
319,4	6,067
319,9	8,352
320,3	8,552
320,8	7,324
321,3	6,838
321,7	9,581
322,2	9,21
322,6	17,295
323,1	15,152
323,6	7,61
324	8,152
324,5	6,724
324,9	8,067
325,4	9,324
325,9	6,838
326,3	8,01
326,8	14,695
327,2	13,124
327,7	11,095
328,2	8,581
328,6	9,952
329,1	5,324
329,5	4,238
330	2,095
330,5	5,838
330,9	6,552
331,4	10,667
331,8	6,495
332,3	14,924
332,8	18,01
333,2	17,41
333,7	19,895
334,1	19,524
334,6	13,01
335,1	12,01
335,5	9,638
336	4,638
336,4	8,067
336,9	8,467
337,4	12,352
337,8	10,81
338,3	16,095
338,7	15,781
339,2	15,524
339,7	15,295
340,1	11,124
340,6	5,181
341	7,238
341,5	7,781
342	4,467
342,4	6,61
342,9	4,095
343,3	3,524
343,8	3,467
344,2	8,867
344,7	11,638
345,2	13,524
345,6	12,01
346,1	15,524
346,5	13,152
347	13,867
347,5	7,295
347,9	6,81
348,4	5,838
348,8	7,352
349,3	3,695
349,8	6,238
350,2	12,41
350,7	9,61
351,1	6,924
351,6	10,667
352	12,438
352,5	15,438
353	21,81
353,4	24,238
353,9	38,01
354,3	45,695
354,8	50,238
355,3	61,352
355,7	75,638
356,2	89,61
356,6	105,21
357,1	122,81
357,5	143,41
358	170,552
358,5	193,124
358,9	223,61
359,4	255,381
359,8	294,438
360,3	336,752
360,8	380,238
361,2	431,752
361,7	492,61
362,1	561,667
362,6	634,667
363	705,267
363,5	781,495
364	869,61
364,4	955,124
364,9	1040,181
365,3	1119,41
365,8	1197,181
366,3	1276,038
366,7	1347,21
367,2	1408,781
367,6	1456,81
368,1	1501,81
368,5	1527,638
369	1541,267
369,5	1540,838
369,9	1525,581
370,4	1503,295
370,8	1470,81
371,3	1423,81
371,7	1372,524
372,2	1312,467
372,7	1253,238
373,1	1190,41
373,6	1115,41
374	1048,552
374,5	974,067
374,9	906,724
375,4	841,381
375,9	777,895
376,3	717,41
376,8	662,838
377,2	607,438
377,7	560,752
378,2	514,981
378,6	475,924
379,1	431,81
379,5	397,352
380	368,038
380,4	337,324
380,9	308,495
381,4	280,467
381,8	257,152
382,3	244,181
382,7	226,781
383,2	213,781
383,6	199,21
384,1	193,038
384,6	183,867
385	173,695
385,5	160,495
385,9	148,467
386,4	136,352
386,8	127,61
387,3	113,267
387,7	104,324
388,2	99,895
388,7	90,895
389,1	86,581
389,6	83,495
390	76,21
390,5	73,752
390,9	70,41
391,4	64,352
391,9	62,324
392,3	57,181
392,8	47,381
393,2	46,295
393,7	44,152
394,1	41,838
394,6	37,695
395,1	35,695
395,5	32,81
396	36,581
396,4	34,952
396,9	33,81
397,3	37,095
397,8	41,181
398,2	38,867
398,7	38,581
399,2	37,124
399,6	39,01
400,1	39,124
400,5	34,01
401	31,152
401,4	29,181
401,9	35,181
402,4	34,124
402,8	33,81
403,3	38,238
403,7	36,781
404,2	38,267
404,6	39,867
405,1	36,667
405,5	33,21
406	35,181
406,5	29,495
406,9	34,152
407,4	32,124
407,8	31,381
408,3	31,895
408,7	30,181
409,2	32,238
409,6	34,752
410,1	34,781
410,6	37,41
411	43,581
411,5	45,181
411,9	52,438
412,4	50,181
412,8	51,095
413,3	48,924
413,7	45,81
414,2	45,61
414,7	48,581
415,1	53,352
415,6	56,124
416	58,438
416,5	60,381
416,9	66,724
417,4	69,952
417,8	71,667
418,3	72,752
418,8	76,895
419,2	77,41
419,7	77,267
420,1	78,524
420,6	75,095
421	75,552
421,5	75,495
421,9	70,838
422,4	76,152
422,8	79,21
423,3	78,724
423,8	77,981
424,2	74,667
424,7	71,981
425,1	75,352
425,6	73,724
426	70,867
426,5	68,981
426,9	73,581
427,4	73,952
427,9	68,581
428,3	67,867
428,8	59,895
429,2	57,924
429,7	55,324
430,1	51,41
430,6	48,581
431	49,124
431,5	45,724
431,9	44,152
432,4	47,724
432,8	49,381
433,3	51,324
433,8	50,324
434,2	53,581
434,7	52,638
435,1	55,295
435,6	52,61
436	47,267
436,5	46,01
436,9	40,152
437,4	38,238
437,8	40,438
438,3	42,152
438,8	40,095
439,2	40,724
439,7	39,467
440,1	47,41
440,6	52,552
441	48,124
441,5	47,581
441,9	49,181
442,4	50,524
442,8	50,267
443,3	48,81
443,7	43,695
444,2	48,095
444,7	47,095
445,1	51,552
445,6	55,267
446	57,267
446,5	58,867
446,9	57,581
447,4	59,781
447,8	65,01
448,3	66,638
448,7	65,924
449,2	70,01
449,6	76,352
450,1	79,438
450,6	85,295
451	86,238
451,5	85,638
451,9	92,781
452,4	98,724
452,8	100,038
453,3	110,381
453,7	105,467
454,2	107,352
454,6	112,667
455,1	112,41
455,5	110,895
456	120,267
456,4	116,324
456,9	126,61
457,3	131,295
457,8	132,61
458,3	136,467
458,7	139,981
459,2	136,181
459,6	144,21
460,1	148,895
460,5	145,238
461	153,267
461,4	154,438
461,9	158,267
462,3	165,295
462,8	167,438
463,2	166,924
463,7	179,152
464,1	187,667
464,6	197,295
465	203,01
465,5	206,267
466	217,038
466,4	220,21
466,9	230,781
467,3	229,867
467,8	237,695
468,2	244,438
468,7	248,924
469,1	253,552
469,6	265,781
470	270,324
470,5	279,838
470,9	284,638
471,4	287,295
471,8	296,867
472,3	304,467
472,7	309,781
473,2	308,667
473,6	308,867
474,1	317,867
474,5	331,295
475	335,752
475,4	339,324
475,9	347,61
476,4	357,524
476,8	375,01
477,3	377,352
477,7	382,295
478,2	392,41
478,6	397,324
479,1	397,267
479,5	402,695
480	399,095
480,4	408,01
480,9	410,552
481,3	411,981
481,8	418,152
482,2	422,01
482,7	429,352
483,1	436,267
483,6	435,667
484	440,21
484,5	450,724
484,9	452,152
485,4	462,781
485,8	468,838
486,3	472,781
486,7	476,781
487,2	481,924
487,6	481,61
488,1	484,838
488,5	482,61
489	488,867
489,4	498,381
489,9	504,667
490,4	512,238
490,8	514,238
491,3	524,324
491,7	530,038
492,2	531,124
492,6	531,724
493,1	536,152
493,5	531,124
494	532,467
494,4	533,095
494,9	537,41
495,3	542,952
495,8	540,924
496,2	547,838
496,7	546,867
497,1	556,181
497,6	556,495
498	564,638
498,5	567,181
498,9	571,381
499,4	569,552
499,8	586,124
500,3	584,781
500,7	588,438
501,2	582,067
501,6	575,952
502,1	578,524
502,5	582,61
503	582,495
503,4	585,924
503,9	585,638
504,3	592,267
504,8	601,781
505,2	603,924
505,7	601,667
506,1	603,495
506,6	602,038
507	604,438
507,5	603,295
507,9	602,01
508,4	603,095
508,8	609,838
509,3	607,21
509,7	617,524
510,2	625,724
510,6	630,467
511,1	632,438
511,5	639,924
512	638,924
512,4	645,438
512,9	642,467
513,3	641,381
513,8	640,638
514,2	643,295
514,7	641,467
515,1	644,838
515,6	646,61
516	646,467
516,5	650,295
516,9	653,952
517,4	663,924
517,8	665,838
518,3	670,667
518,7	672,895
519,2	680,324
519,6	678,267
520,1	683,981
520,5	677,01
521	682,381
521,4	682,095
521,9	682,495
522,3	685,21
522,8	690,781
523,2	696,41
523,7	703,267
524,1	704,695
524,6	710,124
525	712,838
525,5	711,781
525,9	719,238
526,4	714,295
526,8	717,124
527,3	723,21
527,7	727,724
528,2	734,752
528,6	734,41
529,1	734,124
529,5	745,295
530	750,181
530,4	754,438
530,9	759,238
531,3	763,267
531,8	774,638
532,2	780,267
532,6	780,438
533,1	779,867
533,5	778,095
534	778,952
534,4	780,638
534,9	782,438
535,3	785,067
535,8	788,638
536,2	795,924
536,7	802,267
537,1	809,181
537,6	811,581
538	815,124
538,5	823,895
538,9	824,152
539,4	827,924
539,8	833,552
540,3	834,752
540,7	837,867
541,2	841,838
541,6	837,952
542,1	847,981
542,5	848,524
543	846,924
543,4	847,41
543,9	851,895
544,3	856,067
544,8	861,038
545,2	861,981
545,7	872,581
546,1	881,781
546,5	888,352
547	889,352
547,4	894,467
547,9	900,581
548,3	902,181
548,8	905,638
549,2	907,181
549,7	913,667
550,1	926,752
550,6	930,181
551	932,095
551,5	937,067
551,9	933,895
552,4	935,295
552,8	936,067
553,3	930,381
553,7	926,695
554,2	930,581
554,6	936,81
555,1	946,324
555,5	952,467
555,9	954,638
556,4	958,181
556,8	963,295
557,3	966,495
557,7	969,81
558,2	967,124
558,6	971,438
559,1	971,981
559,5	973,838
560	975,924
560,4	977,81
560,9	976,01
561,3	980,152
561,8	978,524
562,2	982,81
562,7	987,467
563,1	992,038
563,6	994,181
564	999,61
564,4	997,638
564,9	1001,952
565,3	1000,724
565,8	1001,752
566,2	1005,21
566,7	1006,238
567,1	1009,724
567,6	1012,724
568	1008,124
568,5	1008,552
568,9	1008,981
569,4	1008,524
569,8	1007,41
570,3	1004,781
570,7	1003,267
571,1	1012,038
571,6	1017,238
572	1018,467
572,5	1021,895
572,9	1023,324
573,4	1022,267
573,8	1028,638
574,3	1025,41
574,7	1027,781
575,2	1028,267
575,6	1022,352
576,1	1025,81
576,5	1030,838
576,9	1023,867
577,4	1023,81
577,8	1018,638
578,3	1020,781
578,7	1026,21
579,2	1027,667
579,6	1019,124
580,1	1020,267
580,5	1023,724
581	1029,41
581,4	1027,41
581,9	1027,067
582,3	1022,524
582,7	1029,61
583,2	1029,524
583,6	1028,181
584,1	1024,867
584,5	1025,81
585	1021,61
585,4	1020,752
585,9	1014,695
586,3	1018,838
586,8	1018,467
587,2	1019,924
587,6	1016,838
588,1	1019,724
588,5	1021,181
589	1022,838
589,4	1021,581
589,9	1014,952
590,3	1011,095
590,8	1008,981
591,2	1005,067
591,7	1007,667
592,1	1010,41
592,5	1009,295
593	1007,61
593,4	1004,781
593,9	1003,038
594,3	1002,067
594,8	994,895
595,2	987,152
595,7	985,524
596,1	984,667
596,6	983,867
597	985,295
597,4	985,324
597,9	989,81
598,3	995,038
598,8	990,695
599,2	989,61
599,7	988,81
600,1	979,61
600,6	978,038
601	970,924
601,4	971,038
601,9	970,724
602,3	971,381
602,8	971,41
603,2	977,638
603,7	975,81
604,1	973,41
604,6	967,238
605	964,01
605,4	963,095
605,9	955,124
606,3	944,724
606,8	937,381
607,2	934,924
607,7	923,667
608,1	922,067
608,6	922,181
609	925,467
609,4	929,495
609,9	930,238
610,3	924,352
610,8	928,924
611,2	922,581
611,7	911,524
612,1	905,495
612,6	902,095
613	901,152
613,4	902,781
613,9	897,61
614,3	894,924
614,8	897,181
615,2	889,038
615,7	887,495
616,1	884,21
616,6	873,124
617	870,924
617,4	870,352
617,9	864,61
618,3	868,095
618,8	868,467
619,2	859,924
619,7	864,981
620,1	862,21
620,5	862,067
621	864,467
621,4	864,152
621,9	857,352
622,3	856,752
622,8	855,924
623,2	854,038
623,6	845,952
624,1	839,638
624,5	830,095
625	830,752
625,4	827,467
625,9	823,181
626,3	819,238
626,8	813,152
627,2	813,152
627,6	805,581
628,1	797,524
628,5	798,438
629	788,295
629,4	779,295
629,9	779,295
630,3	769,038
630,7	769,61
631,2	763,952
631,6	757,124
632,1	754,01
632,5	758,438
633	758,152
633,4	756,895
633,8	756,695
634,3	753,61
634,7	749,038
635,2	744,952
635,6	741,267
636,1	734,467
636,5	722,81
636,9	713,495
637,4	707,61
637,8	700,667
638,3	696,524
638,7	687,295
639,2	681,21
639,6	685,438
640	684,552
640,5	682,838
640,9	677,467
641,4	677,152
641,8	676,41
642,2	678,81
642,7	678,638
643,1	678,752
643,6	670,952
644	673,667
644,5	670,952
644,9	663,781
645,3	660,238
645,8	650,095
646,2	647,895
646,7	649,61
647,1	646,352
647,6	645,267
648	645,467
648,4	638,752
648,9	637,124
649,3	627,295
649,8	624,81
650,2	620,81
650,6	616,895
651,1	615,181
651,5	614,638
652	615,438
652,4	611,267
652,9	611,981
653,3	608,067
653,7	600,552
654,2	595,352
654,6	588,467
655,1	583,781
655,5	590,952
655,9	585,552
656,4	585,352
656,8	587,21
657,3	587,838
657,7	587,181
658,2	580,781
658,6	572,01
659	569,524
659,5	559,495
659,9	551,067
660,4	546,752
660,8	538,838
661,2	542,124
661,7	542,41
662,1	540,067
662,6	541,381
663	542,495
663,4	539,181
663,9	538,438
664,3	529,41
664,8	520,61
665,2	513,467
665,6	507,981
666,1	505,895
666,5	502,467
667	497,495
667,4	492,467
667,9	491,238
668,3	488,581
668,7	484,124
669,2	485,124
669,6	479,438
670,1	481,867
670,5	479,124
670,9	477,581
671,4	476,181
671,8	479,324
672,3	477,01
672,7	475,067
673,1	466,124
673,6	465,067
674	462,581
674,5	456,238
674,9	443,638
675,3	434,467
675,8	432,552
676,2	430,724
676,7	427,238
677,1	419,924
677,5	418,352
678	424,638
678,4	420,552
678,9	416,238
679,3	412,838
679,7	408,924
680,2	407,781
680,6	401,467
681,1	395,295
681,5	394,381
681,9	396,467
682,4	397,61
682,8	397,124
683,3	398,581
683,7	399,524
684,1	401,238
684,6	398,352
685	392,095
685,5	393,095
685,9	386,438
686,3	379,181
686,8	378,438
687,2	376,638
687,7	373,067
688,1	368,067
688,5	360,781
689	364,295
689,4	365,667
689,9	362,295
690,3	352,524
690,7	348,038
691,2	349,752
691,6	349,867
692	345,867
692,5	340,181
692,9	340,21
693,4	338,895
693,8	339,867
694,2	335,038
694,7	330,61
695,1	330,095
695,6	332,895
696	328,21
696,4	329,381
696,9	325,095
697,3	321,724
697,8	324,695
698,2	321,724
698,6	318,524
699,1	316,667
699,5	314,038
699,9	314,324
700,4	309,295
700,8	305,181
701,3	306,495
701,7	301,724
702,1	295,524
702,6	294,267
703	293,552
703,5	294,181
703,9	289,752
704,3	287,838
704,8	284,638
705,2	287,724
705,6	290,01
706,1	286,038
706,5	284,152
707	283,924
707,4	279,581
707,8	279,181
708,3	280,952
708,7	276,181
709,2	274,638
709,6	272,895
710	274,381
710,5	267,638
710,9	267,181
711,3	259,324
711,8	259,61
712,2	259,552
712,7	256,152
713,1	253,181
713,5	256,324
714	251,81
714,4	250,638
714,8	248,352
715,3	245,095
715,7	247,095
716,2	238,61
716,6	240,124
717	238,152
717,5	235,695
717,9	235,324
718,3	231,695
718,8	230,238
719,2	229,752
719,7	225,152
720,1	225,752
720,5	232,038
721	227,438
721,4	229,952
721,8	232,867
722,3	231,238
722,7	230,895
723,2	224,81
723,6	213,152
724	211,752
724,5	205,381
724,9	198,724
725,3	201,981
725,8	198,295
726,2	198,895
726,7	201,095
727,1	199,324
727,5	202,295
728	203,238
728,4	198,638
728,8	196,381
729,3	195,695
729,7	192,495
730,1	188,581
730,6	186,524
731	182,438
731,5	183,524
731,9	184,724
732,3	184,01
732,8	188,667
733,2	191,61
733,6	191,181
734,1	193,438
734,5	187,667
734,9	187,752
735,4	189,267
735,8	183,695
736,3	187,895
736,7	185,21
737,1	179,981
737,6	182,867
738	183,524
738,4	180,381
738,9	180,895
739,3	174,467
739,7	175,61
740,2	177,438
740,6	179,81
741,1	178,724
741,5	176,724
741,9	178,695
742,4	181,981
742,8	182,524
743,2	182,952
743,7	175,152
744,1	169,324
744,5	167,495
745	162,438
745,4	158,781
745,8	157,924
746,3	156,381
746,7	158,41
747,2	160,438
747,6	166,038
748	168,524
748,5	168,41
748,9	162,181
749,3	160,61
749,8	161,724
750,2	157,581
750,6	150,038
751,1	150,324
751,5	148,124
751,9	150,981
752,4	150,038
752,8	149,124
753,3	150,61
753,7	157,124
754,1	152,495
754,6	149,695
755	144,867
755,4	142,924
755,9	140,21
756,3	139,295
756,7	138,238
757,2	139,724
757,6	138,067
758	137,41
758,5	136,495
758,9	141,238
759,3	142,067
759,8	136,895
760,2	135,352
760,6	134,267
761,1	136,467
761,5	136,124
761,9	133,495
762,4	130,638
762,8	129,552
763,3	132,21
763,7	134,952
764,1	131,895
764,6	135,038
765	133,381
765,4	132,781
765,9	128,981
766,3	125,867
766,7	124,038
767,2	121,524
767,6	120,267
768	116,41
768,5	115,152
768,9	120,867
769,3	120,181
769,8	120,467
770,2	125,152
770,6	121,181
771,1	126,724
771,5	130,752
771,9	131,352
772,4	129,152
772,8	127,924
773,2	125,924
773,7	127,095
774,1	122,667
774,5	113,381
775	108,01
775,4	108,924
775,8	107,01
776,3	108,752
776,7	105,667
777,1	107,352
777,6	108,067
778	110,067
778,4	105,724
778,9	104,01
779,3	97,238
779,7	102,41
780,2	101,638
780,6	103,038
781	103,181
781,5	104,467
781,9	105,895
782,3	103,981
782,8	99,067
783,2	93,467
783,6	98,295
784,1	95,81
784,5	90,581
784,9	91,752
785,4	96,667
785,8	98,867
786,2	99,067
786,7	94,867
787,1	92,495
787,5	94,638
788	92,295
788,4	91,981
788,8	87,781
789,3	86,438
789,7	84,095
790,1	82,952
790,6	83,61
791	79,781
791,4	78,267
791,9	80,495
792,3	79,124
792,7	85,41
793,2	84,81
793,6	84,295
794	89,695
794,5	86,781
794,9	85,952
795,3	88,238
795,8	84,124
796,2	87,152
796,6	90,152
797,1	82,752
797,5	83,324
797,9	77,81
798,4	74,01
798,8	73,952
799,2	68,781
799,7	68,61
800,1	71,41
800,5	71,724
801	76,581
801,4	79,781
801,8	76,438
802,2	76,924
802,7	69,667
803,1	69,267
803,5	72,724
804	67,41
804,4	65,838
804,8	68,895
805,3	71,752
805,7	73,61
806,1	72,038
806,6	68,152
807	68,924
807,4	67,267
807,9	58,21
808,3	57,924
808,7	58,581
809,2	60,81
809,6	62,21
810	59,61
810,4	59,295
810,9	63,867
811,3	63,981
811,7	65,467
812,2	67,952
812,6	65,952
813	73,038
813,5	74,495
813,9	73,495
814,3	68,124
814,8	67,324
815,2	62,838
815,6	61,352
816,1	60,295
816,5	60,695
816,9	62,667
817,3	64,581
817,8	70,067
818,2	69,581
818,6	65,524
819,1	62,038
819,5	58,838
819,9	59,781
820,4	59,667
820,8	52,21
821,2	50,41
821,7	53,667
822,1	57,552
822,5	63,638
822,9	62,667
823,4	60,581
823,8	64,952
824,2	64,381
824,7	60,41
825,1	53,667
825,5	48,781
826	43,01
826,4	45,867
826,8	38,467
827,3	43,952
827,7	44,381
828,1	45,667
828,5	45,438
829	43,181
829,4	41,924
829,8	41,581
830,3	36,352
830,7	37,781
831,1	41,381
831,6	39,981
832	45,838
832,4	44,038
832,8	47,781
833,3	45,495
833,7	43,724
834,1	38,438
834,6	36,381
835	36,381
835,4	40,752
835,8	35,495
836,3	35,952
836,7	40,695
837,1	40,724
837,6	45,067
838	38,038
838,4	34,61
838,9	39,038
839,3	38,667
839,7	34,752
840,1	31,124
840,6	27,724
841	33,952
841,4	32,667
841,9	29,124
842,3	30,095
842,7	31,124
843,1	33,21
843,6	36,781
844	35,838
844,4	41,238
844,9	43,524
845,3	42,21
845,7	42,381
846,2	41,152
846,6	34,181
847	35,924
847,4	34,638
847,9	34,381
848,3	35,667
848,7	36,352
849,2	38,295
849,6	41,895
850	44,01
850,4	40,095
850,9	40,61
851,3	41,324
851,7	42,695
852,2	45,41
852,6	44,61
853	40,895
853,4	42,152
853,9	34,924
854,3	31,981
854,7	31,695
855,2	27,752
855,6	29,695
856	22,524
856,4	21,267
856,9	26,752
857,3	30,238
857,7	31,838
858,2	37,752
858,6	36,981
859	42,295
859,4	43,867
859,9	46,21
860,3	44,752
860,7	42,695
861,1	36,838
861,6	36,324
862	35,095
862,4	32,952
862,9	33,524
863,3	35,095
863,7	33,438
864,1	37,438
864,6	37,352
865	37,124
865,4	39,895
865,9	37,095
866,3	30,638
866,7	27,267
867,1	24,638
867,6	23,61
868	26,181
868,4	20,981
868,8	21,152
869,3	22,21
869,7	27,152
870,1	26,352
870,6	25,695
871	36,352
871,4	41,352
871,8	39,895
872,3	43,038
872,7	40,01
873,1	39,524
873,5	39,038
874	24,695
874,4	27,524
874,8	25,752
875,3	25,21
875,7	25,81
876,1	27,752
876,5	28,895
877	28,895
877,4	20,524
877,8	22,581
878,2	23,895
878,7	23,381
879,1	23,067
879,5	24,324
879,9	28,752
880,4	34,667
880,8	33,495
881,2	31,095
881,7	30,01
882,1	28,124
882,5	22,295
882,9	22,238
883,4	17,952
883,8	19,324
884,2	20,152
884,6	19,01
885,1	20,038
885,5	24,238
885,9	16,238
886,3	18,41
886,8	14,638
887,2	11,981
887,6	12,724
888	12,352
888,5	16,667
888,9	19,495
889,3	12,095
889,8	16,095
890,2	17,067
890,6	15,952
891	14,438
891,5	9,352
891,9	11,381
892,3	18,41
892,7	17,324
893,2	19,295
893,6	22,952
894	26,067
894,4	23,438
894,9	24,238
895,3	23,981
895,7	27,552
896,1	25,238
896,6	23,152
897	21,524
897,4	27,781
897,8	27,924
898,3	27,552
898,7	22,352
899,1	23,61
899,5	23,467
900	19,152
900,4	15,895
900,8	14,067
901,2	11,752
901,7	12,924
902,1	15,381
902,5	16,981
902,9	22,01
903,4	23,21
903,8	21,867
904,2	21,238
904,6	23,124
905,1	23,952
905,5	22,524
905,9	24,238
906,3	25,181
906,8	28,152
907,2	30,181
907,6	26,01
908	22,381
908,5	20,352
908,9	14,381
909,3	10,838
909,7	8,781
910,2	7,467
910,6	12,124
911	9,438
911,4	13,638
911,9	13,01
912,3	13,152
912,7	19,352
913,1	20,467
913,6	16,41
914	14,724
914,4	11,381
914,8	14,438
915,3	11,438
915,7	8,152
916,1	8,352
916,5	8,895
916,9	15,124
917,4	15,352
917,8	14,81
918,2	11,181
918,6	4,724
919,1	6,381
919,5	8,038
919,9	6,038
920,3	1,81
920,8	1,352
921,2	9,124
921,6	11,981
922	9,981
922,5	8,524
922,9	7,924
923,3	8,981
923,7	9,438
924,2	4,067
924,6	5,695
925	4,981
925,4	4,21
925,8	1,067
926,3	5,124
926,7	1,838
927,1	5,438
927,5	7,838
928	6,124
928,4	5,581
928,8	14,924
929,2	11,752
929,7	15,581
930,1	18,067
930,5	13,524
930,9	15,152
931,3	18,352
931,8	13,01
932,2	14,352
932,6	11,581
933	5,981
933,5	7,038
933,9	10,638
934,3	10,467
934,7	6,867
935,2	8,295
935,6	6,81
936	10,267
936,4	12,095
936,8	12,21
937,3	11,324
937,7	13,267
938,1	16,324
938,5	17,61
939	13,781
939,4	12,981
939,8	7,381
940,2	7,01
940,6	7,695
941,1	4,724
941,5	10,467
941,9	11,524
942,3	14,152
942,8	16,724
943,2	19,381
943,6	14,981
944	13,638
944,4	11,581
944,9	10,724
945,3	7,552
945,7	1,581
946,1	-3,762
946,6	-0,162
947	-3,39
947,4	-0,59
947,8	0,981
948,2	-1,019
948,7	8,238
949,1	11,152
949,5	16,352
949,9	21,638
950,3	16,638
950,8	18,295
951,2	15,61
951,6	8,81
952	12,867
952,5	4,667
952,9	6,638
953,3	7,467
953,7	5,752
954,1	11,781
954,6	12,981
955	13,324
955,4	15,81
955,8	15,038
956,2	17,981
956,7	17,038
957,1	11,924
957,5	16,61
957,9	15,21
958,3	15,295
958,8	13,21
959,2	11,981
959,6	14,895
960	17,095
960,5	19,752
960,9	19,524
961,3	17,467
961,7	16,752
962,1	15,467
962,6	15,295
963	14,895
963,4	6,495
963,8	3,638
964,2	6,952
964,7	6,41
965,1	6,724
965,5	7,781
965,9	4,381
966,3	7,152
966,8	6,095
967,2	5,381
967,6	6,81
968	2,867
968,4	1,552
968,9	6,752
969,3	11,981
969,7	12,038
970,1	13,81
970,5	14,038
971	20,267
971,4	18,781
971,8	18,781
972,2	14,638
972,6	14,952
973,1	10,781
973,5	10,21
973,9	7,381
974,3	8,952
974,7	7,467
975,2	6,724
975,6	7,552
976	10,552
976,4	8,095
976,8	5,695
977,3	2,867
977,7	4,552
978,1	4,152
978,5	1,352
978,9	-1,533
979,4	-0,305
979,8	3,924
980,2	4,895
980,6	3,552
981	8,924
981,5	11,638
981,9	16,724
982,3	14,924
982,7	13,41
983,1	11,181
983,6	13,867
984	8,695
984,4	8,495
984,8	7,838
985,2	9,124
985,6	7,838
986,1	9,438
986,5	9,067
986,9	6,01
987,3	6,324
987,7	7,752
988,2	7,724
988,6	6,552
989	9,467
989,4	6,495
989,8	6,981
990,3	5,981
990,7	1,781
991,1	5,41
991,5	8,952
991,9	12,181
992,3	16,781
992,8	18,495
993,2	14,981
993,6	16,152
994	12,324
994,4	13,438
994,9	11,295
995,3	7,695
995,7	9,41
996,1	13,067
996,5	13,067
996,9	13,267
997,4	11,695
997,8	6,952
998,2	6,724
998,6	2,324
999	0,067
999,5	2,552
999,9	3,495
1000,3	1,724
1000,7	3,495
1001,1	3,495
1001,5	3,21
1002	10,067
1002,4	10,181
1002,8	7,524
1003,2	11,21
1003,6	13,381
1004	13,638
1004,5	15,124
1004,9	11,752
1005,3	5,352
1005,7	11,381
1006,1	6,152
1006,6	5,21
1007	8,724
1007,4	10,124
1007,8	8,381
1008,2	7,952
1008,6	4,695
1009,1	8,295
1009,5	12,638
1009,9	11,01
1010,3	15,267
1010,7	14,752
1011,1	18,695
1011,6	22,324
1012	24,467
1012,4	18,895
1012,8	16,524
1013,2	15,438
1013,6	16,695
1014,1	16,781
1014,5	12,238
1014,9	9,61
1015,3	7,381
1015,7	12,381
1016,1	7,438
1016,6	6,981
1017	7,124
1017,4	8,781
1017,8	4,895
1018,2	11,667
1018,6	5,095
1019,1	5,381
1019,5	5,952
1019,9	1,41
1020,3	1,638
1020,7	4,981
1021,1	-2,533
1021,6	-1,819
1022	5,781
1022,4	7,667
1022,8	13,867
1023,2	13,495
1023,6	11,952
1024,1	22,781
1024,5	28,295
1024,9	21,781
1025,3	20,81
1025,7	20,01
1026,1	23,238
1026,6	25,038
1027	20,867
1027,4	23,895
1027,8	22,895
1028,2	21,667
1028,6	24,038
1029	22,067
1029,5	25,324
1029,9	19,581
1030,3	11,781
1030,7	12,495
1031,1	9,838
1031,5	2,467
1032	0,467
1032,4	-5,59
1032,8	-1,362
1033,2	1,695
1033,6	3,781
1034	5,867
1034,4	10,467
1034,9	11,41
1035,3	10,952
1035,7	9,01
1036,1	5,781
1036,5	3,238
1036,9	5,524
1037,4	4,838
1037,8	0,638
1038,2	-1,162
1038,6	0,124
1039	3,81
1039,4	8,038
1039,8	3,324
1040,3	1,067
1040,7	6,381
1041,1	10,838
1041,5	15,352
1041,9	10,152
1042,3	8,924
1042,7	13,867
1043,2	15,495
1043,6	9,267
1044	12,295
1044,4	9,01
1044,8	13,067
1045,2	13,038
1045,6	12,552
1046,1	11,781
1046,5	12,838
1046,9	9,695
1047,3	6,895
1047,7	6,038
1048,1	2,295
1048,5	2,038
1049	5,352
1049,4	8,638
1049,8	10,267
1050,2	12,752
1050,6	12,467
1051	16,438
1051,4	14,038
1051,9	6,924
1052,3	12,724
1052,7	11,752
1053,1	9,01
1053,5	12,752
1053,9	10,581
1054,3	9,152
1054,8	16,667
1055,2	16,124
1055,6	19,21
1056	20,667
1056,4	14,124
1056,8	15,695
1057,2	15,524
1057,6	9,21
1058,1	-1,648
1058,5	-6,905
1058,9	-5,848
1059,3	-1,476
1059,7	-1,048
1060,1	4,124
1060,5	11,867
1061	18,781
1061,4	16,61
1061,8	18,581
1062,2	15,81
1062,6	17,638
1063	19,581
1063,4	14,552
1063,8	14,81
1064,3	13,81
1064,7	11,438
1065,1	13,41
1065,5	8,152
1065,9	5,067
1066,3	2,381
1066,7	-2,276
1067,1	-0,733
1067,6	-0,105
1068	-1,562
1068,4	1,438
1068,8	0,752
1069,2	7,352
1069,6	5,81
1070	10,295
1070,4	6,21
1070,9	2,867
1071,3	0,752
1071,7	-0,648
1072,1	-3,648
1072,5	-4,848
1072,9	-8,962
1073,3	-4,705
1073,7	-1,733
1074,2	-1,248
1074,6	0,124
1075	-3,762
1075,4	2,41
1075,8	7,381
1076,2	11,238
1076,6	12,981
1077	11,781
1077,5	15,095
1077,9	18,981
1078,3	15,81
1078,7	13,467
1079,1	6,352
1079,5	4,695
1079,9	5,238
1080,3	-2,248
1080,7	-3,619
1081,2	4,238
1081,6	1,152
1082	1,352
1082,4	4,61
1082,8	2,895
1083,2	4,352
1083,6	6,924
1084	1,981
1084,5	3,552
1084,9	1,067
1085,3	-5,448
1085,7	1,495
1086,1	1,495
1086,5	-0,476
1086,9	5,638
1087,3	7,752
1087,7	10,838
1088,2	13,924
1088,6	11,895
1089	15,581
1089,4	17,267
1089,8	13,924
1090,2	13,524
1090,6	13,752
1091	17,067
1091,4	18,41
1091,9	17,981
1092,3	19,21
1092,7	16,381
1093,1	19,152
1093,5	20,067
1093,9	17,81
1094,3	20,667
1094,7	18,095
1095,1	18,381
1095,5	17,981
1096	14,295
1096,4	13,838
1096,8	10,438
1097,2	3,181
1097,6	4,952
1098	5,581
1098,4	5,238
1098,8	9,267
1099,2	14,067
1099,6	17,467
1100,1	16,524
1100,5	14,952
1100,9	11,124
1101,3	13,981
1101,7	9,438
1102,1	6,752
1102,5	8,552
1102,9	11,324
1103,3	14,952
1103,7	15,895
1104,2	12,581
1104,6	11,924
1105	7,41
1105,4	5,724
1105,8	3,41
1106,2	-0,048
1106,6	-1,39
1107	-1,133
1107,4	-0,7
1107,8	1,627
1108,3	-0,533
