Data from Subt2_307.txt Node
Date: Sat Aug 26 19:14:28 MSK 2023
User: vat
Spectrometer: MAYP114033
Trigger mode: 0
Integration Time (sec): 1,000000E0
Scans to average: 5
Electric dark correction enabled: true
Nonlinearity correction enabled: false
Boxcar width: 3
XAxis mode: Wavelengths
Number of Pixels in Spectrum: 2068
>>>>>Begin Spectral Data<<<<<
199,4	0,15
199,9	2,96
200,4	0,533
200,8	2,943
201,3	1
201,8	4,429
202,2	1,914
202,7	6,857
203,2	7,486
203,6	7
204,1	3,743
204,6	6,743
205	6,6
205,5	7,486
206	4,8
206,4	2,6
206,9	7,4
207,4	8,457
207,8	9,514
208,3	5,143
208,8	7,457
209,2	9,914
209,7	12,8
210,2	11,2
210,6	12,914
211,1	13,686
211,5	13,057
212	14,457
212,5	13,971
212,9	7,6
213,4	9,371
213,9	8,257
214,3	6,686
214,8	10,943
215,3	10,229
215,7	11,4
216,2	14,571
216,7	14,771
217,1	18,857
217,6	21,143
218,1	20,543
218,5	17,886
219	12,029
219,5	12,343
219,9	8,314
220,4	8,629
220,9	3,229
221,3	3,143
221,8	9,971
222,3	17,943
222,7	22,057
223,2	25,629
223,6	21,8
224,1	21,771
224,6	24,429
225	17,057
225,5	10,057
226	7,743
226,4	7,143
226,9	7,771
227,4	12,914
227,8	5,4
228,3	7,114
228,8	5,686
229,2	7,686
229,7	5,2
230,2	8,743
230,6	8,657
231,1	17,714
231,5	19,057
232	21,514
232,5	19,886
232,9	23,8
233,4	21,914
233,9	19,571
234,3	17,143
234,8	18,571
235,3	20,257
235,7	20,971
236,2	17,714
236,7	14,057
237,1	15,943
237,6	12,971
238,1	14,886
238,5	12,771
239	12,6
239,4	17,057
239,9	15,8
240,4	15,029
240,8	19
241,3	12,229
241,8	10,343
242,2	8,6
242,7	4,343
243,2	6,914
243,6	6,086
244,1	6,029
244,6	7,771
245	9,343
245,5	7,629
245,9	4,886
246,4	5,114
246,9	6,857
247,3	4,514
247,8	7,629
248,3	11,2
248,7	13,057
249,2	17,971
249,7	18,086
250,1	17,086
250,6	14,743
251	16,143
251,5	15,943
252	14,086
252,4	15
252,9	12,571
253,4	10,543
253,8	9,543
254,3	4,771
254,8	3,886
255,2	3,343
255,7	-2,343
256,1	0,714
256,6	4,457
257,1	11,486
257,5	11,8
258	10,686
258,5	11,543
258,9	14,229
259,4	13,629
259,9	13,829
260,3	5,8
260,8	3,771
261,2	3,257
261,7	4,457
262,2	4,086
262,6	2,371
263,1	3,771
263,6	8,257
264	14,029
264,5	16,029
264,9	11,457
265,4	15,6
265,9	12,657
266,3	15,057
266,8	16,514
267,3	13,714
267,7	8,543
268,2	14,286
268,7	13,371
269,1	19,8
269,6	13,657
270	15,429
270,5	12,971
271	17,571
271,4	13,857
271,9	4,143
272,4	4,886
272,8	4,829
273,3	-1,457
273,7	3,4
274,2	1
274,7	4,6
275,1	13,6
275,6	9,2
276,1	8,2
276,5	15,943
277	10,8
277,4	14,914
277,9	18,514
278,4	16,457
278,8	19,543
279,3	21,6
279,8	16,914
280,2	20,171
280,7	19,457
281,1	14,829
281,6	16,286
282,1	16,857
282,5	14,429
283	14,429
283,4	13,343
283,9	9,8
284,4	15,057
284,8	17,971
285,3	16,029
285,8	19,514
286,2	16,2
286,7	16,171
287,1	15,714
287,6	11,886
288,1	6,743
288,5	9,429
289	4,6
289,5	8,971
289,9	6,6
290,4	9,857
290,8	7,343
291,3	11,457
291,8	8,429
292,2	10,314
292,7	10,571
293,1	8,457
293,6	5,486
294,1	8,971
294,5	3,971
295	6,2
295,5	6,914
295,9	4,914
296,4	9,571
296,8	9,086
297,3	5,686
297,8	3
298,2	-2
298,7	-1,8
299,1	1,771
299,6	0,714
300,1	4,914
300,5	7,143
301	11,257
301,5	19,314
301,9	18,4
302,4	12,171
302,8	13
303,3	11,314
303,8	8,743
304,2	8,143
304,7	1,886
305,1	2,457
305,6	6,886
306,1	10,314
306,5	11,857
307	17,714
307,4	20,343
307,9	21,829
308,4	17,486
308,8	13,629
309,3	10,2
309,8	8,8
310,2	4,514
310,7	-1,829
311,1	-5,343
311,6	0,486
312,1	5,971
312,5	9,486
313	9,486
313,4	9,4
313,9	14,657
314,4	16,771
314,8	11,886
315,3	11,171
315,7	6,514
316,2	4,829
316,7	4,6
317,1	7,457
317,6	9,429
318	18,429
318,5	15,857
319	17,429
319,4	19,514
319,9	25,314
320,3	25,314
320,8	26,343
321,3	24,771
321,7	26,143
322,2	24,714
322,6	25,2
323,1	20,057
323,6	17,086
324	16,286
324,5	11,343
324,9	10,886
325,4	9,8
325,9	11,886
326,3	11,686
326,8	12,914
327,2	7,457
327,7	6,229
328,2	6,171
328,6	11,743
329,1	7,686
329,5	10,286
330	8,914
330,5	17,457
330,9	19,086
331,4	21,314
331,8	17,514
332,3	20,686
332,8	20,343
333,2	23,714
333,7	18,543
334,1	19,371
334,6	13,971
335,1	14,143
335,5	13,657
336	9,229
336,4	9,714
336,9	16,743
337,4	19,886
337,8	20,143
338,3	18,886
338,7	19,543
339,2	18,629
339,7	16,971
340,1	9,2
340,6	11,486
341	11,086
341,5	15,514
342	13,4
342,4	15,486
342,9	14,114
343,3	18,429
343,8	9,514
344,2	9,771
344,7	9,314
345,2	8,286
345,6	12,743
346,1	12,457
346,5	7,771
347	11,343
347,5	11,771
347,9	13,371
348,4	17
348,8	15,2
349,3	15,629
349,8	17,686
350,2	23,2
350,7	23,657
351,1	24,457
351,6	25,714
352	29,229
352,5	36,114
353	45,486
353,4	49,257
353,9	63,743
354,3	75,229
354,8	81,943
355,3	97,171
355,7	117,4
356,2	135,714
356,6	162,086
357,1	188,886
357,5	220,743
358	261,4
358,5	298,686
358,9	341,771
359,4	393,2
359,8	446,371
360,3	513,714
360,8	580,029
361,2	657,571
361,7	751,4
362,1	849,743
362,6	958,743
363	1075,686
363,5	1191,857
364	1324,057
364,4	1457,943
364,9	1589,571
365,3	1716,314
365,8	1835,057
366,3	1952,571
366,7	2053,629
367,2	2143,486
367,6	2215,257
368,1	2266,171
368,5	2303,4
369	2322,6
369,5	2322,714
369,9	2310,229
370,4	2270,086
370,8	2222,571
371,3	2157,286
371,7	2076,8
372,2	1989,486
372,7	1890,543
373,1	1785,829
373,6	1683,886
374	1578,914
374,5	1476,514
374,9	1375,914
375,4	1278,4
375,9	1183,714
376,3	1094,314
376,8	1006,086
377,2	921,771
377,7	847,943
378,2	780,714
378,6	716,8
379,1	656,286
379,5	606,971
380	559,457
380,4	518,571
380,9	477,429
381,4	440,086
381,8	408,2
382,3	384,143
382,7	352,714
383,2	334,743
383,6	309,629
384,1	289,8
384,6	271,171
385	252,714
385,5	232
385,9	216,571
386,4	196,486
386,8	185,743
387,3	172,286
387,7	160,257
388,2	150,743
388,7	142,686
389,1	137,171
389,6	131,486
390	122,514
390,5	116,429
390,9	111,457
391,4	106,457
391,9	99,229
392,3	93,857
392,8	86,343
393,2	81
393,7	77,143
394,1	69,457
394,6	66,429
395,1	64,914
395,5	61,114
396	61,514
396,4	59,657
396,9	57,8
397,3	65,886
397,8	63,743
398,2	62,771
398,7	61,429
399,2	59,686
399,6	61,714
400,1	58,2
400,5	48,943
401	48,914
401,4	44,686
401,9	46,743
402,4	43,457
402,8	39,171
403,3	45,343
403,7	42,457
404,2	44,029
404,6	48,829
405,1	47,086
405,5	48,086
406	49,229
406,5	44,6
406,9	51,686
407,4	48,886
407,8	47,8
408,3	47,886
408,7	48,886
409,2	53,086
409,6	55,971
410,1	54,143
410,6	59,829
411	59,114
411,5	61,143
411,9	64,714
412,4	62,171
412,8	63,543
413,3	63,2
413,7	57,857
414,2	59,429
414,7	60,486
415,1	66,143
415,6	70,4
416	72,829
416,5	78,714
416,9	82,571
417,4	86,6
417,8	94,171
418,3	97,057
418,8	99,914
419,2	99,514
419,7	100,171
420,1	102,543
420,6	104,171
421	98,429
421,5	97,486
421,9	97,171
422,4	97,914
422,8	102,029
423,3	101,143
423,8	100,571
424,2	99,6
424,7	96,514
425,1	94,886
425,6	100,371
426	95,286
426,5	96,971
426,9	98,629
427,4	97,086
427,9	93,914
428,3	94,914
428,8	89,657
429,2	91,371
429,7	88,371
430,1	86,886
430,6	90,6
431	93,829
431,5	96,286
431,9	94,971
432,4	97,8
432,8	102,714
433,3	105,629
433,8	106,657
434,2	107,571
434,7	110,257
435,1	113,943
435,6	114,6
436	112,457
436,5	113,743
436,9	114,943
437,4	119,029
437,8	121,171
438,3	126,4
438,8	128,114
439,2	135,971
439,7	145,257
440,1	152,114
440,6	156,914
441	160,029
441,5	168,086
441,9	178,057
442,4	177,371
442,8	177,543
443,3	186,4
443,7	193,286
444,2	203,286
444,7	208,371
445,1	213,6
445,6	226,514
446	240,343
446,5	245,029
446,9	247,314
447,4	252,029
447,8	259,257
448,3	269,229
448,7	281,371
449,2	286,857
449,6	299,686
450,1	315,257
450,6	329,971
451	341,714
451,5	353,171
451,9	367,457
452,4	386,314
452,8	397,829
453,3	418,686
453,7	428,457
454,2	448,314
454,6	465,229
455,1	477,714
455,5	483,629
456	502,429
456,4	510,286
456,9	531,257
457,3	545,657
457,8	553,743
458,3	575,429
458,7	596,971
459,2	616,171
459,6	634,086
460,1	654,686
460,5	666,714
461	695,286
461,4	710,229
461,9	728,2
462,3	747
462,8	772,8
463,2	790,143
463,7	815,943
464,1	837,286
464,6	867,257
465	891,371
465,5	916,886
466	939,971
466,4	964,743
466,9	995
467,3	1017,629
467,8	1035,943
468,2	1062,343
468,7	1080,886
469,1	1108
469,6	1134,114
470	1154,029
470,5	1182,943
470,9	1208,286
471,4	1231,657
471,8	1257,286
472,3	1286,514
472,7	1312,857
473,2	1341,457
473,6	1363,543
474,1	1394,429
474,5	1419,771
475	1448,314
475,4	1470,114
475,9	1490,343
476,4	1509,657
476,8	1538,886
477,3	1559,771
477,7	1587,343
478,2	1612,029
478,6	1632,971
479,1	1657,2
479,5	1679,371
480	1696,029
480,4	1719,429
480,9	1737,657
481,3	1753
481,8	1772,714
482,2	1797,657
482,7	1824,629
483,1	1852,257
483,6	1862,4
484	1877,829
484,5	1899,371
484,9	1914,314
485,4	1931,4
485,8	1940,571
486,3	1951,743
486,7	1969,829
487,2	1987,229
487,6	1999,429
488,1	2010,229
488,5	2017,886
489	2036,657
489,4	2051
489,9	2060
490,4	2074,886
490,8	2087
491,3	2103,686
491,7	2115
492,2	2124,143
492,6	2126,429
493,1	2137,143
493,5	2137,143
494	2143,057
494,4	2143,943
494,9	2150,343
495,3	2158,086
495,8	2167,829
496,2	2177,229
496,7	2184
497,1	2189,686
497,6	2198,086
498	2202,629
498,5	2201,686
498,9	2205,8
499,4	2214,486
499,8	2226,571
500,3	2237,314
500,7	2242,6
501,2	2244,171
501,6	2239,886
502,1	2243,343
502,5	2236,371
503	2233,6
503,4	2228,343
503,9	2226,8
504,3	2226,429
504,8	2235,629
505,2	2233,886
505,7	2234,971
506,1	2235,2
506,6	2232,171
507	2232,6
507,5	2237,143
507,9	2238,943
508,4	2237,829
508,8	2239,714
509,3	2236,886
509,7	2242,029
510,2	2245,943
510,6	2237,171
511,1	2232,457
511,5	2227,371
512	2224,314
512,4	2226,086
512,9	2222,4
513,3	2216,229
513,8	2219,6
514,2	2222,914
514,7	2224,457
515,1	2225,886
515,6	2224,171
516	2217,886
516,5	2218,971
516,9	2216,486
517,4	2215,743
517,8	2219,714
518,3	2219,8
518,7	2217,257
519,2	2223,286
519,6	2222,943
520,1	2223,343
520,5	2222
521	2213,171
521,4	2209,629
521,9	2209,629
522,3	2206,629
522,8	2206,143
523,2	2208,514
523,7	2204,6
524,1	2205,343
524,6	2199,971
525	2196,371
525,5	2194,114
525,9	2196,857
526,4	2190,486
526,8	2190,857
527,3	2195,514
527,7	2202,971
528,2	2210,171
528,6	2209,514
529,1	2203,514
529,5	2210,886
530	2210,886
530,4	2211,543
530,9	2208,771
531,3	2205,657
531,8	2212,771
532,2	2217,029
532,6	2215
533,1	2215,286
533,5	2213,686
534	2212,686
534,4	2218,057
534,9	2215,829
535,3	2218,571
535,8	2221,543
536,2	2225,343
536,7	2227,514
537,1	2233,6
537,6	2234,886
538	2239,8
538,5	2246,029
538,9	2244,829
539,4	2247,714
539,8	2250,057
540,3	2256,686
540,7	2256,314
541,2	2255,343
541,6	2252,8
542,1	2262,943
542,5	2259,714
543	2258,457
543,4	2258,6
543,9	2264,971
544,3	2271,086
544,8	2273,571
545,2	2270,371
545,7	2278,314
546,1	2284,029
546,5	2289,457
547	2287,829
547,4	2291,914
547,9	2294,6
548,3	2299,486
548,8	2303,743
549,2	2307,914
549,7	2306,714
550,1	2317,743
550,6	2321,486
551	2321
551,5	2327,8
551,9	2325,486
552,4	2331,371
552,8	2331,543
553,3	2331,229
553,7	2325,057
554,2	2332,571
554,6	2327,086
555,1	2335,514
555,5	2335,771
555,9	2346,8
556,4	2346,771
556,8	2354,657
557,3	2354,714
557,7	2365,6
558,2	2366,943
558,6	2373,514
559,1	2367,229
559,5	2370,4
560	2375,057
560,4	2375,857
560,9	2376,714
561,3	2378,971
561,8	2373,857
562,2	2382,057
562,7	2378,314
563,1	2380
563,6	2380,829
564	2383,371
564,4	2377,543
564,9	2383,486
565,3	2383,2
565,8	2387,086
566,2	2388,6
566,7	2393,257
567,1	2389,171
567,6	2398,229
568	2396,971
568,5	2396,314
568,9	2399,486
569,4	2400,8
569,8	2405,886
570,3	2407,886
570,7	2405,429
571,1	2408,257
571,6	2408,629
572	2409,486
572,5	2406,229
572,9	2402,4
573,4	2402,143
573,8	2404,171
574,3	2404,914
574,7	2401,714
575,2	2400,2
575,6	2402,143
576,1	2401,171
576,5	2404,8
576,9	2397,486
577,4	2391,657
577,8	2393,143
578,3	2387,514
578,7	2386,886
579,2	2388,686
579,6	2377,886
580,1	2379
580,5	2380,771
581	2384,514
581,4	2384,714
581,9	2377,457
582,3	2372,171
582,7	2374,286
583,2	2371,571
583,6	2364,886
584,1	2353,943
584,5	2350,714
585	2354,514
585,4	2348,629
585,9	2349,114
586,3	2351,714
586,8	2352,2
587,2	2349,571
587,6	2351,943
588,1	2346,286
588,5	2339,857
589	2330,314
589,4	2316,4
589,9	2310,171
590,3	2308,6
590,8	2296,971
591,2	2293,571
591,7	2294,571
592,1	2286,171
592,5	2291,943
593	2288,8
593,4	2276,286
593,9	2275,486
594,3	2269,4
594,8	2265,629
595,2	2267,343
595,7	2262,429
596,1	2257,771
596,6	2263,229
597	2254,657
597,4	2251,829
597,9	2249,943
598,3	2253,457
598,8	2248,4
599,2	2240,371
599,7	2234,286
600,1	2230,914
600,6	2229,4
601	2224,829
601,4	2220,6
601,9	2217,6
602,3	2215,743
602,8	2210,4
603,2	2204,4
603,7	2194,857
604,1	2191,771
604,6	2184,229
605	2174,686
605,4	2176,086
605,9	2168,714
606,3	2169,257
606,8	2159,029
607,2	2146,057
607,7	2132,257
608,1	2128,114
608,6	2122,257
609	2124,229
609,4	2120,143
609,9	2114,114
610,3	2112,257
610,8	2110,371
611,2	2102,914
611,7	2086,571
612,1	2075,686
612,6	2067,029
613	2063,4
613,4	2055,857
613,9	2050,629
614,3	2043,514
614,8	2042,6
615,2	2030,8
615,7	2022,229
616,1	2018,457
616,6	2004
617	1990,743
617,4	1984,886
617,9	1979,714
618,3	1972,571
618,8	1967,429
619,2	1958,429
619,7	1966
620,1	1960,886
620,5	1956,543
621	1948,371
621,4	1947,086
621,9	1937,629
622,3	1929,886
622,8	1910,971
623,2	1902,114
623,6	1891,457
624,1	1881,971
624,5	1870,629
625	1867,429
625,4	1860,029
625,9	1855,571
626,3	1849,771
626,8	1837,143
627,2	1830,829
627,6	1817,657
628,1	1806,057
628,5	1801,6
629	1791,771
629,4	1781,429
629,9	1780,429
630,3	1768,571
630,7	1761,343
631,2	1757
631,6	1739,886
632,1	1726,771
632,5	1721,086
633	1710,714
633,4	1705,829
633,8	1705,543
634,3	1696,571
634,7	1689,886
635,2	1681,057
635,6	1669,629
636,1	1655,743
636,5	1645,829
636,9	1629,971
637,4	1612,543
637,8	1604,914
638,3	1598,486
638,7	1591,829
639,2	1586,657
639,6	1578,829
640	1575,657
640,5	1574,686
640,9	1564,4
641,4	1560
641,8	1554,571
642,2	1548,371
642,7	1545,543
643,1	1540,686
643,6	1534,343
644	1530,914
644,5	1525,571
644,9	1517,8
645,3	1512,143
645,8	1493,914
646,2	1483,343
646,7	1475,371
647,1	1468,057
647,6	1463,571
648	1459,371
648,4	1450,857
648,9	1451,114
649,3	1443
649,8	1437,029
650,2	1433,257
650,6	1425,943
651,1	1417,886
651,5	1411,4
652	1405,114
652,4	1397,457
652,9	1390,714
653,3	1382,971
653,7	1374,971
654,2	1367,257
654,6	1359,8
655,1	1352,143
655,5	1354,971
655,9	1347,086
656,4	1340,314
656,8	1330,171
657,3	1325,714
657,7	1324,971
658,2	1316,829
658,6	1304,486
659	1294,8
659,5	1285,229
659,9	1279,943
660,4	1266,457
660,8	1254,743
661,2	1246,2
661,7	1237,257
662,1	1228,286
662,6	1219,143
663	1208,4
663,4	1200,057
663,9	1189,514
664,3	1182,629
664,8	1172,743
665,2	1166,429
665,6	1158,371
666,1	1155,057
666,5	1149,914
667	1141,857
667,4	1133,943
667,9	1127,286
668,3	1117,371
668,7	1108,886
669,2	1100,257
669,6	1098,571
670,1	1097,029
670,5	1091,057
670,9	1079,857
671,4	1074,543
671,8	1074,029
672,3	1070,8
672,7	1061,571
673,1	1046,857
673,6	1039,6
674	1041,257
674,5	1039,371
674,9	1025,743
675,3	1016,257
675,8	1009,743
676,2	1006,6
676,7	998,029
677,1	996,8
677,5	986,829
678	988,029
678,4	985,229
678,9	977,6
679,3	974,829
679,7	972,229
680,2	955,743
680,6	952,171
681,1	943,543
681,5	941,086
681,9	942,543
682,4	938,343
682,8	935,829
683,3	934,857
683,7	928,571
684,1	923,743
684,6	910,886
685	898,029
685,5	888,086
685,9	877,086
686,3	864,486
686,8	858,914
687,2	856,429
687,7	852,429
688,1	846,343
688,5	843,114
689	845,029
689,4	843,229
689,9	838,2
690,3	827,743
690,7	824
691,2	819,429
691,6	813,943
692	805,629
692,5	805,286
692,9	803,4
693,4	800,629
693,8	794,829
694,2	792,314
694,7	787,114
695,1	779,229
695,6	772,686
696	764,743
696,4	760,286
696,9	752,629
697,3	744,886
697,8	738,4
698,2	734,857
698,6	728,8
699,1	724,971
699,5	722,257
699,9	722,486
700,4	715,257
700,8	710,571
701,3	704,857
701,7	697,571
702,1	692,6
702,6	682,343
703	676,457
703,5	677,514
703,9	678,286
704,3	678,286
704,8	676,171
705,2	670,914
705,6	669,8
706,1	663,971
706,5	659,257
707	654,771
707,4	649,571
707,8	643,943
708,3	642,771
708,7	640,4
709,2	639,229
709,6	632,2
710	633,629
710,5	626,571
710,9	626,057
711,3	620,971
711,8	619,343
712,2	614,114
712,7	609,371
713,1	597,771
713,5	594,2
714	592,429
714,4	586,943
714,8	580,029
715,3	572,114
715,7	575,229
716,2	571,686
716,6	571,571
717	561,771
717,5	559,286
717,9	558,543
718,3	555,657
718,8	546,286
719,2	546,343
719,7	539,429
720,1	539,886
720,5	540,143
721	530,8
721,4	529,457
721,8	531,857
722,3	522,543
722,7	522,343
723,2	517,657
723,6	503,886
724	500,714
724,5	497,629
724,9	488,886
725,3	486,371
725,8	480,657
726,2	476,171
726,7	479,371
727,1	477,057
727,5	471,629
728	472,657
728,4	473,143
728,8	471,829
729,3	466,571
729,7	463,086
730,1	462,286
730,6	461,229
731	453,314
731,5	449,886
731,9	441,4
732,3	440,286
732,8	438,829
733,2	433,343
733,6	430,2
734,1	428,314
734,5	422,286
734,9	426,429
735,4	421,971
735,8	419,086
736,3	419,914
736,7	417,029
737,1	414,343
737,6	411,229
738	404,657
738,4	404,914
738,9	403,086
739,3	402,343
739,7	399,971
740,2	399,114
740,6	402,657
741,1	403,229
741,5	398,314
741,9	393,743
742,4	389,714
742,8	387,8
743,2	386,657
743,7	378,8
744,1	370,371
744,5	369,143
745	365,543
745,4	360,143
745,8	360,771
746,3	356,714
746,7	349,829
747,2	355,571
747,6	359,743
748	365,2
748,5	369,543
748,9	361,886
749,3	357,743
749,8	362,171
750,2	357,8
750,6	349,4
751,1	345,686
751,5	341,829
751,9	343,229
752,4	345,686
752,8	346,629
753,3	343,229
753,7	345,029
754,1	337,914
754,6	332,629
755	331
755,4	327,371
755,9	318,457
756,3	313,286
756,7	313,2
757,2	312,057
757,6	311,829
758	305,086
758,5	301,114
758,9	301,343
759,3	302,771
759,8	298,457
760,2	299
760,6	296,2
761,1	296,4
761,5	293,714
761,9	291,114
762,4	288,743
762,8	284,743
763,3	279,629
763,7	278,314
764,1	276,886
764,6	281,6
765	281,429
765,4	280,943
765,9	285,171
766,3	286,857
766,7	283,457
767,2	278,657
767,6	278,257
768	280,543
768,5	276,086
768,9	272,629
769,3	267,943
769,8	265,657
770,2	266,8
770,6	262,429
771,1	260,171
771,5	262,171
771,9	260,943
772,4	264,286
772,8	262,029
773,2	262,943
773,7	255,943
774,1	249,314
774,5	242,771
775	235,343
775,4	232,457
775,8	232,829
776,3	230,314
776,7	231,257
777,1	234,657
777,6	238,343
778	243
778,4	236,514
778,9	236,543
779,3	236,771
779,7	237,943
780,2	236,457
780,6	234,257
781	226,714
781,5	227,229
781,9	226,114
782,3	218
782,8	215,057
783,2	213,914
783,6	214,6
784,1	213,657
784,5	211,514
784,9	204,943
785,4	210,514
785,8	212,371
786,2	209,029
786,7	204,257
787,1	204,771
787,5	208,743
788	209,743
788,4	208,771
788,8	204,143
789,3	201,2
789,7	201,771
790,1	197,086
790,6	192,257
791	189
791,4	186,457
791,9	182,029
792,3	175,029
792,7	175,629
793,2	174,829
793,6	173,343
794	176,943
794,5	174,486
794,9	176,086
795,3	182,6
795,8	178,343
796,2	180,2
796,6	179,914
797,1	177,057
797,5	174,857
797,9	172,971
798,4	169,229
798,8	165,8
799,2	159,686
799,7	159,229
800,1	159,057
800,5	161,714
801	163,886
801,4	162,286
801,8	158,886
802,2	160,971
802,7	154,971
803,1	156,286
803,5	151,914
804	145,657
804,4	146,143
804,8	149,286
805,3	153,286
805,7	152,886
806,1	148,6
806,6	151,714
807	152,657
807,4	149,171
807,9	143
808,3	137,543
808,7	140,629
809,2	139,514
809,6	135,171
810	138,6
810,4	140,571
810,9	145,314
811,3	148,2
811,7	145,457
812,2	148,857
812,6	147,629
813	145,086
813,5	143,486
813,9	141,257
814,3	136,657
814,8	136,057
815,2	128,457
815,6	126,343
816,1	126,314
816,5	126,743
816,9	124,543
817,3	125,6
817,8	131,114
818,2	134,714
818,6	135,343
819,1	131,2
819,5	126,914
819,9	128,857
820,4	127,314
820,8	121,286
821,2	118,114
821,7	117,314
822,1	119,514
822,5	124,4
822,9	123,657
823,4	119
823,8	121,429
824,2	122,429
824,7	117
825,1	107,171
825,5	98,371
826	92,171
826,4	91,886
826,8	85,286
827,3	87,743
827,7	89,914
828,1	96,829
828,5	99,657
829	96,886
829,4	99,571
829,8	95,686
830,3	92,486
830,7	90,914
831,1	89,914
831,6	88
832	89,886
832,4	87,686
832,8	91,686
833,3	90,571
833,7	89,2
834,1	85,914
834,6	88,286
835	91,657
835,4	91,943
835,8	90,514
836,3	85,857
836,7	88,114
837,1	89,029
837,6	85,257
838	86,229
838,4	83,486
838,9	81,686
839,3	84,086
839,7	84,429
840,1	82,6
840,6	80,514
841	80,686
841,4	78,4
841,9	81,114
842,3	76,657
842,7	77,314
843,1	73,657
843,6	80,029
844	74,857
844,4	80,886
844,9	85
845,3	87,086
845,7	85,8
846,2	87,086
846,6	79,286
847	80,2
847,4	78,257
847,9	70,886
848,3	70,743
848,7	67,857
849,2	71,971
849,6	72,314
850	73,4
850,4	73,886
850,9	73,971
851,3	74,114
851,7	78,514
852,2	75,914
852,6	80,114
853	80,714
853,4	77,743
853,9	74,8
854,3	75,8
854,7	69,686
855,2	67,143
855,6	63,943
856	60,171
856,4	56,029
856,9	55,771
857,3	55,114
857,7	58,971
858,2	63,886
858,6	64,943
859	65,629
859,4	68,314
859,9	67,314
860,3	65,143
860,7	64,086
861,1	61,686
861,6	59,857
862	60,771
862,4	59,229
862,9	59,143
863,3	60,829
863,7	56,857
864,1	55,6
864,6	52,143
865	52,6
865,4	58,229
865,9	62,743
866,3	55,629
866,7	52,286
867,1	46,943
867,6	50,8
868	47,943
868,4	40
868,8	37,114
869,3	40,114
869,7	49,514
870,1	51,143
870,6	50,771
871	-23,857
871,4	-17,371
871,8	-19,971
872,3	-18,629
872,7	-22,629
873,1	-21
873,5	-21,543
874	52,057
874,4	50,943
874,8	50,343
875,3	50,029
875,7	47,114
876,1	48,343
876,5	45,571
877	42,771
877,4	39,486
877,8	40,171
878,2	42,2
878,7	46,171
879,1	42,314
879,5	47,486
879,9	50,429
880,4	54,514
880,8	55,257
881,2	53,257
881,7	47,514
882,1	50,343
882,5	42,171
882,9	40,486
883,4	35,714
883,8	35,571
884,2	32,029
884,6	32,343
885,1	30,4
885,5	36,514
885,9	34,657
886,3	34,371
886,8	32,086
887,2	32,486
887,6	29,2
888	28,829
888,5	26,571
888,9	29,971
889,3	25,657
889,8	23,429
890,2	27,229
890,6	27,114
891	28,743
891,5	30,257
891,9	28,829
892,3	33,771
892,7	37,743
893,2	35,229
893,6	40,543
894	40
894,4	39,2
894,9	39,343
895,3	37,029
895,7	38,829
896,1	37,629
896,6	37,229
897	36,886
897,4	41,657
897,8	43,086
898,3	45,857
898,7	40,943
899,1	42,486
899,5	36,686
900	31,314
900,4	25,571
900,8	23,686
901,2	19,886
901,7	22,086
902,1	23,229
902,5	30,486
902,9	37,257
903,4	36,971
903,8	34,8
904,2	35
904,6	34,057
905,1	32,143
905,5	31,914
905,9	33
906,3	35,743
906,8	39,371
907,2	38,371
907,6	37,914
908	36,657
908,5	31,771
908,9	23,857
909,3	21,343
909,7	22,857
910,2	24,943
910,6	25,543
911	26,686
911,4	29,943
911,9	31,229
912,3	31,943
912,7	29,743
913,1	30,086
913,6	26,314
914	23,514
914,4	16,8
914,8	20,714
915,3	14,2
915,7	15,086
916,1	11,686
916,5	18,257
916,9	22,457
917,4	30,143
917,8	30,286
918,2	29,514
918,6	23,857
919,1	26,8
919,5	23,714
919,9	23,6
920,3	19,229
920,8	19,286
921,2	23,171
921,6	26,571
922	24,429
922,5	22,4
922,9	20,486
923,3	20,286
923,7	18,057
924,2	15,143
924,6	15,371
925	17,571
925,4	18,143
925,8	14,486
926,3	17,486
926,7	15,6
927,1	19,429
927,5	18,943
928	13,857
928,4	14,629
928,8	19,114
929,2	13,714
929,7	16,914
930,1	18,457
930,5	19,171
930,9	23,143
931,3	22,743
931,8	21
932,2	20,857
932,6	15,486
933	12,371
933,5	12,429
933,9	14,8
934,3	19,429
934,7	18,029
935,2	20,829
935,6	23,943
936	25,743
936,4	24,314
936,8	24,771
937,3	21,057
937,7	22,486
938,1	28,6
938,5	27,429
939	27,286
939,4	25,057
939,8	21,914
940,2	22,086
940,6	22,686
941,1	14,486
941,5	19,4
941,9	16,943
942,3	19,171
942,8	22,057
943,2	22,143
943,6	22,114
944	23,457
944,4	19,114
944,9	18,771
945,3	19,143
945,7	10,4
946,1	7,114
946,6	2,514
947	2
947,4	3,8
947,8	5,057
948,2	4,971
948,7	10,857
949,1	11,543
949,5	17,2
949,9	17,571
950,3	15,486
950,8	12,743
951,2	9,143
951,6	7,657
952	11,657
952,5	3,886
952,9	2,371
953,3	4,943
953,7	7,971
954,1	12,657
954,6	13,657
955	12,314
955,4	14,771
955,8	21,686
956,2	20,314
956,7	20,714
957,1	16,086
957,5	18,657
957,9	16,629
958,3	16,971
958,8	16,314
959,2	18,686
959,6	20,257
960	22,457
960,5	22,114
960,9	24,657
961,3	24,686
961,7	22,371
962,1	19,029
962,6	18,743
963	17,743
963,4	12,286
963,8	10,457
964,2	13,086
964,7	12,571
965,1	14,943
965,5	16,971
965,9	17
966,3	17,543
966,8	20,057
967,2	17,286
967,6	13,086
968	11,857
968,4	13,857
968,9	16,286
969,3	20,457
969,7	16,257
970,1	23,429
970,5	27,4
971	31,629
971,4	23,057
971,8	22,543
972,2	21,514
972,6	20,886
973,1	17,886
973,5	18,171
973,9	16,514
974,3	18,943
974,7	21,229
975,2	22,8
975,6	27,314
976	27,771
976,4	22,514
976,8	19,486
977,3	18,2
977,7	12
978,1	12,114
978,5	7,886
978,9	2,657
979,4	4,143
979,8	4,371
980,2	6,114
980,6	5,457
981	6,343
981,5	6,971
981,9	5,771
982,3	5,857
982,7	4,971
983,1	-0,571
983,6	-0,171
984	-1,657
984,4	-0,057
984,8	3
985,2	4,057
985,6	4,714
986,1	10,286
986,5	14,914
986,9	10,829
987,3	9,4
987,7	8,343
988,2	7,257
988,6	9,286
989	11,057
989,4	8,829
989,8	13,486
990,3	15,971
990,7	17,657
991,1	18,914
991,5	19,057
991,9	19,657
992,3	20,943
992,8	19,429
993,2	16,286
993,6	18,543
994	20,971
994,4	18,971
994,9	18,229
995,3	16,2
995,7	17,086
996,1	19,486
996,5	16,371
996,9	12,629
997,4	15,514
997,8	10,8
998,2	9,657
998,6	0,4
999	0,4
999,5	-1,2
999,9	-1
1000,3	-3,571
1000,7	1,2
1001,1	1,286
1001,5	9,714
1002	14,171
1002,4	18,2
1002,8	21,657
1003,2	22,514
1003,6	23,829
1004	31,371
1004,5	28,514
1004,9	28,114
1005,3	20,371
1005,7	18,829
1006,1	15,943
1006,6	12,114
1007	7,714
1007,4	5,057
1007,8	0,286
1008,2	3,286
1008,6	5,143
1009,1	6,343
1009,5	8,971
1009,9	10,286
1010,3	17,029
1010,7	15,257
1011,1	20,886
1011,6	17,514
1012	18,286
1012,4	12,629
1012,8	11,943
1013,2	13,886
1013,6	16,943
1014,1	16,343
1014,5	16,8
1014,9	17,6
1015,3	17,229
1015,7	18,314
1016,1	14,657
1016,6	11,571
1017	11,629
1017,4	19,429
1017,8	22,4
1018,2	27,971
1018,6	21,943
1019,1	22,629
1019,5	21,057
1019,9	21,171
1020,3	15,229
1020,7	12,4
1021,1	11,029
1021,6	16,114
1022	15,114
1022,4	18,914
1022,8	19,429
1023,2	16,943
1023,6	17,771
1024,1	21,257
1024,5	23,057
1024,9	20,429
1025,3	18,029
1025,7	13,343
1026,1	18,229
1026,6	12,8
1027	7,971
1027,4	9,771
1027,8	9,886
1028,2	14,143
1028,6	17,257
1029	15,857
1029,5	21,486
1029,9	20
1030,3	15,057
1030,7	13,857
1031,1	12
1031,5	11,8
1032	12,171
1032,4	9,971
1032,8	15
1033,2	12,686
1033,6	16,486
1034	14,543
1034,4	11,6
1034,9	9,057
1035,3	6,029
1035,7	7,571
1036,1	7,457
1036,5	4,743
1036,9	10,4
1037,4	16,457
1037,8	15,086
1038,2	16,571
1038,6	13,914
1039	19,571
1039,4	31,743
1039,8	23,371
1040,3	13,457
1040,7	16,714
1041,1	18,629
1041,5	18,457
1041,9	12,829
1042,3	4,171
1042,7	11,571
1043,2	17,714
1043,6	15,171
1044	14,571
1044,4	13,314
1044,8	13,629
1045,2	10,171
1045,6	11,514
1046,1	14,971
1046,5	12,514
1046,9	12,4
1047,3	14,314
1047,7	15,143
1048,1	15,571
1048,5	7,486
1049	7,8
1049,4	14,914
1049,8	16,686
1050,2	18,057
1050,6	26,2
1051	26,143
1051,4	32,286
1051,9	31,086
1052,3	36,771
1052,7	33,743
1053,1	26,971
1053,5	22,657
1053,9	24,371
1054,3	24,286
1054,8	29,514
1055,2	21,171
1055,6	23,086
1056	25,6
1056,4	18,257
1056,8	21,429
1057,2	17,657
1057,6	7,971
1058,1	9,543
1058,5	6,714
1058,9	8,086
1059,3	14,486
1059,7	12,686
1060,1	15,057
1060,5	16,514
1061	16,371
1061,4	15,714
1061,8	15,771
1062,2	11,8
1062,6	14,543
1063	14,8
1063,4	15,571
1063,8	14,971
1064,3	13,8
1064,7	14,543
1065,1	14,4
1065,5	8,2
1065,9	7,543
1066,3	5,486
1066,7	3,314
1067,1	7,571
1067,6	7,171
1068	6,686
1068,4	7,486
1068,8	7,857
1069,2	11,257
1069,6	9,714
1070	12,4
1070,4	13,286
1070,9	15,171
1071,3	16,571
1071,7	13,314
1072,1	13
1072,5	11,8
1072,9	10,229
1073,3	10,8
1073,7	12,914
1074,2	14,429
1074,6	14,657
1075	11,914
1075,4	13,829
1075,8	13,657
1076,2	10,229
1076,6	10,971
1077	6,571
1077,5	6,429
1077,9	4,514
1078,3	5,229
1078,7	3,886
1079,1	7,2
1079,5	5,143
1079,9	10,143
1080,3	10
1080,7	14,2
1081,2	20,886
1081,6	20,914
1082	15,429
1082,4	19,171
1082,8	15,629
1083,2	18,486
1083,6	20,657
1084	14,886
1084,5	15,314
1084,9	17,686
1085,3	10,971
1085,7	13,743
1086,1	11,686
1086,5	8,229
1086,9	15
1087,3	12,371
1087,7	15,514
1088,2	17,286
1088,6	17,457
1089	19,743
1089,4	17,486
1089,8	10,571
1090,2	11,886
1090,6	6,343
1091	9,686
1091,4	12,829
1091,9	9,657
1092,3	12,314
1092,7	11,286
1093,1	11,886
1093,5	15,514
1093,9	14,571
1094,3	14,314
1094,7	15
1095,1	16,314
1095,5	19,571
1096	15,629
1096,4	12,8
1096,8	9,657
1097,2	3,114
1097,6	8,4
1098	7,629
1098,4	7,971
1098,8	11,943
1099,2	22,543
1099,6	24,514
1100,1	22,743
1100,5	16
1100,9	15,371
1101,3	11,743
1101,7	12,657
1102,1	3,086
1102,5	4,429
1102,9	9,8
1103,3	14,514
1103,7	14,886
1104,2	15,171
1104,6	15,657
1105	15,543
1105,4	12,857
1105,8	9,457
1106,2	5,829
1106,6	3,857
1107	3,086
1107,4	0
1107,8	0,12
1108,3	-0,55
