Data from Subt2_096.txt Node
Date: Sat Aug 26 16:44:29 MSK 2023
User: vat
Spectrometer: MAYP114033
Trigger mode: 0
Integration Time (sec): 1,000000E0
Scans to average: 5
Electric dark correction enabled: true
Nonlinearity correction enabled: false
Boxcar width: 3
XAxis mode: Wavelengths
Number of Pixels in Spectrum: 2068
>>>>>Begin Spectral Data<<<<<
199,4	-0,2
199,9	2,82
200,4	-0,667
200,8	0,386
201,3	2,929
201,8	5,1
202,2	4,729
202,7	7,786
203,2	5,7
203,6	11,1
204,1	12,5
204,6	11,357
205	9,929
205,5	9,186
206	7,357
206,4	8,3
206,9	4,471
207,4	7,271
207,8	5,014
208,3	6,157
208,8	9,9
209,2	10,929
209,7	12,586
210,2	20,929
210,6	17,586
211,1	21,5
211,5	18,814
212	15,814
212,5	12,757
212,9	12,557
213,4	7,871
213,9	3,986
214,3	4,529
214,8	6,157
215,3	7,214
215,7	7,471
216,2	8,5
216,7	2,729
217,1	3,9
217,6	0,986
218,1	2,757
218,5	7,5
219	15,929
219,5	15,529
219,9	23,1
220,4	24,014
220,9	25,443
221,3	23,586
221,8	17,671
222,3	13,614
222,7	8,471
223,2	8,214
223,6	7,9
224,1	7,5
224,6	9,357
225	10,614
225,5	11,1
226	14,357
226,4	16,614
226,9	16,9
227,4	19,843
227,8	18,214
228,3	24,957
228,8	23,3
229,2	24,071
229,7	17,386
230,2	22,729
230,6	18,757
231,1	20,043
231,5	17,757
232	21,1
232,5	18,957
232,9	20,071
233,4	18,157
233,9	18,614
234,3	17,3
234,8	14,986
235,3	9,243
235,7	14,443
236,2	13,043
236,7	14,014
237,1	16,071
237,6	15,643
238,1	14,129
238,5	15,329
239	14,414
239,4	19,757
239,9	18,243
240,4	18,3
240,8	19,014
241,3	18,986
241,8	17,186
242,2	14,757
242,7	12,071
243,2	11,186
243,6	11,357
244,1	11,271
244,6	9,414
245	9,071
245,5	9,557
245,9	9,529
246,4	6,7
246,9	5,471
247,3	3,329
247,8	4,614
248,3	10,557
248,7	12,014
249,2	9,871
249,7	13,871
250,1	13,129
250,6	18,643
251	21,014
251,5	16,671
252	17,529
252,4	17,243
252,9	16,671
253,4	15,414
253,8	10,643
254,3	9,157
254,8	10,1
255,2	6,414
255,7	10,443
256,1	9,757
256,6	10,7
257,1	12,386
257,5	13,9
258	12,043
258,5	15,757
258,9	13,757
259,4	13,471
259,9	16,414
260,3	16,443
260,8	16,071
261,2	24,529
261,7	22,471
262,2	21,957
262,6	22,586
263,1	19,614
263,6	22,357
264	19,471
264,5	14,814
264,9	12,529
265,4	14,7
265,9	14,071
266,3	14,671
266,8	10,271
267,3	11,271
267,7	7,586
268,2	6,957
268,7	1,986
269,1	0,071
269,6	2,843
270	7,357
270,5	11,271
271	13,071
271,4	12,786
271,9	16,157
272,4	19,357
272,8	12,786
273,3	8,129
273,7	6,386
274,2	7,729
274,7	10,386
275,1	5,757
275,6	8,871
276,1	13,757
276,5	16,243
277	13,614
277,4	14,443
277,9	14,271
278,4	20,586
278,8	23,329
279,3	18,5
279,8	21,7
280,2	22,071
280,7	17,671
281,1	20,214
281,6	18,471
282,1	13,929
282,5	22,214
283	19,186
283,4	20,357
283,9	17,729
284,4	13,471
284,8	16,986
285,3	11,643
285,8	7,1
286,2	5,357
286,7	4,443
287,1	9,3
287,6	13,929
288,1	9,957
288,5	14,729
289	16,243
289,5	18,414
289,9	17,986
290,4	20,357
290,8	23,786
291,3	21,443
291,8	21,529
292,2	25,043
292,7	24,129
293,1	24,5
293,6	21,1
294,1	10,9
294,5	16,957
295	14,1
295,5	10,843
295,9	14,471
296,4	17,614
296,8	17,129
297,3	23,643
297,8	20,757
298,2	21,757
298,7	18,414
299,1	16,3
299,6	14,414
300,1	18,586
300,5	17,929
301	19,357
301,5	20,9
301,9	22,357
302,4	19,1
302,8	21,014
303,3	18,729
303,8	13,271
304,2	11,814
304,7	11,071
305,1	11,5
305,6	11,443
306,1	6,129
306,5	7,7
307	9,786
307,4	6,671
307,9	6,7
308,4	6,186
308,8	13,557
309,3	15,071
309,8	16,471
310,2	14,871
310,7	26,414
311,1	22,614
311,6	22,671
312,1	17,729
312,5	16,843
313	12,7
313,4	17,671
313,9	14,243
314,4	9,414
314,8	12,757
315,3	13,986
315,7	19,557
316,2	20,357
316,7	18,786
317,1	14,186
317,6	20,443
318	18,786
318,5	18,986
319	13,157
319,4	13,443
319,9	8,3
320,3	8,043
320,8	10,957
321,3	8,243
321,7	4,643
322,2	7,414
322,6	4,986
323,1	8,186
323,6	6,729
324	6,957
324,5	5,014
324,9	6,186
325,4	9,071
325,9	17,1
326,3	22,957
326,8	26,014
327,2	23,386
327,7	30,186
328,2	27,729
328,6	25,614
329,1	19,043
329,5	18,7
330	16,3
330,5	17,157
330,9	14,843
331,4	16,7
331,8	18,757
332,3	23,214
332,8	19,414
333,2	20,557
333,7	20,386
334,1	21,871
334,6	24,271
335,1	24,243
335,5	21,129
336	17,071
336,4	16,1
336,9	19,014
337,4	18,757
337,8	15,786
338,3	16,186
338,7	14,729
339,2	19,414
339,7	22,757
340,1	18,157
340,6	15,186
341	19,957
341,5	20,786
342	24,871
342,4	23,214
342,9	17,071
343,3	19,043
343,8	24,5
344,2	21,814
344,7	17,843
345,2	14,871
345,6	19,757
346,1	22,329
346,5	22,357
347	20,529
347,5	17,843
347,9	18,271
348,4	20,614
348,8	18,786
349,3	22,214
349,8	24,5
350,2	21,471
350,7	27,043
351,1	27,7
351,6	31,386
352	38,9
352,5	42,757
353	56,129
353,4	70,357
353,9	84,3
354,3	105,129
354,8	121,786
355,3	145,5
355,7	174,843
356,2	199,557
356,6	238,414
357,1	281,3
357,5	324,414
358	379,614
358,5	440,557
358,9	509,871
359,4	593,871
359,8	679,7
360,3	782,271
360,8	897,614
361,2	1027,329
361,7	1168,929
362,1	1328,529
362,6	1501,471
363	1690,529
363,5	1889,957
364	2100,043
364,4	2311,671
364,9	2521,329
365,3	2731,271
365,8	2932,986
366,3	3124,214
366,7	3298,186
367,2	3450,243
367,6	3581,643
368,1	3685,557
368,5	3752,357
369	3793,214
369,5	3794,471
369,9	3764,929
370,4	3706,786
370,8	3619,357
371,3	3515,014
371,7	3393,243
372,2	3246,643
372,7	3086,557
373,1	2923,614
373,6	2754,529
374	2584,5
374,5	2408,986
374,9	2232,271
375,4	2072,786
375,9	1922,186
376,3	1772,471
376,8	1637,9
377,2	1510,214
377,7	1390,3
378,2	1279,5
378,6	1169,614
379,1	1073,443
379,5	986,5
380	905,186
380,4	824,586
380,9	758,614
381,4	699,729
381,8	647,5
382,3	595,643
382,7	546,643
383,2	502,014
383,6	472,329
384,1	440,757
384,6	408,814
385	378,814
385,5	355,529
385,9	334,871
386,4	315,614
386,8	297,157
387,3	273,957
387,7	259,729
388,2	238,7
388,7	221,643
389,1	205,757
389,6	189,986
390	171,9
390,5	158,3
390,9	151,5
391,4	146,9
391,9	138,471
392,3	126,043
392,8	120,043
393,2	109,843
393,7	108,357
394,1	99,586
394,6	93,386
395,1	91,9
395,5	92,243
396	86,014
396,4	90,357
396,9	87,214
397,3	80,357
397,8	71,929
398,2	62,043
398,7	54,529
399,2	50,443
399,6	44,729
400,1	35,529
400,5	36,557
401	41,843
401,4	41,814
401,9	47,014
402,4	50,1
402,8	45,986
403,3	46,243
403,7	46,271
404,2	40,957
404,6	41,814
405,1	38,471
405,5	34,7
406	35,186
406,5	34,329
406,9	30,529
407,4	35,614
407,8	35,7
408,3	39,014
408,7	43,129
409,2	44,043
409,6	46,271
410,1	52,214
410,6	54,386
411	61,186
411,5	58,043
411,9	57,986
412,4	61,929
412,8	68,157
413,3	68,671
413,7	68,3
414,2	67,843
414,7	74,157
415,1	73,529
415,6	77,129
416	80,671
416,5	82,357
416,9	84,5
417,4	85,957
417,8	88,929
418,3	93,557
418,8	89,986
419,2	88,729
419,7	92,757
420,1	91,3
420,6	94,757
421	89,786
421,5	92,586
421,9	96,586
422,4	96,414
422,8	92,614
423,3	96,414
423,8	96,843
424,2	101,357
424,7	97,5
425,1	95,786
425,6	100,957
426	102,414
426,5	100,7
426,9	97,957
427,4	96,757
427,9	92,586
428,3	91,871
428,8	85,757
429,2	82,643
429,7	77,871
430,1	76,757
430,6	75,243
431	79,5
431,5	79,271
431,9	78,3
432,4	79,471
432,8	84,5
433,3	81,786
433,8	84,357
434,2	85,814
434,7	86,757
435,1	89,071
435,6	94,929
436	95,643
436,5	103,1
436,9	108,414
437,4	112,271
437,8	113,014
438,3	118,5
438,8	114,357
439,2	117,043
439,7	117,9
440,1	118,643
440,6	124,5
441	131,929
441,5	134,357
441,9	144,157
442,4	157,443
442,8	162,443
443,3	165,386
443,7	167,129
444,2	169,614
444,7	178,214
445,1	183,7
445,6	182,157
446	187,557
446,5	194,7
446,9	203,329
447,4	209,5
447,8	215,786
448,3	223,786
448,7	229,586
449,2	234,843
449,6	244,929
450,1	255,3
450,6	264,729
451	269,071
451,5	275,586
451,9	286,814
452,4	303,043
452,8	309,957
453,3	315,871
453,7	328,014
454,2	337,357
454,6	348,7
455,1	354,1
455,5	364,986
456	378,414
456,4	393,814
456,9	409,786
457,3	429,471
457,8	444,443
458,3	466,9
458,7	481,243
459,2	497,471
459,6	513,786
460,1	530,043
460,5	547,729
461	557,814
461,4	571,957
461,9	587,1
462,3	601,843
462,8	614,271
463,2	628,7
463,7	642,186
464,1	666,471
464,6	681,614
465	701,814
465,5	721,071
466	743,471
466,4	761,7
466,9	782,643
467,3	799,271
467,8	824,5
468,2	835,329
468,7	857,671
469,1	874,786
469,6	896,986
470	916,471
470,5	936,586
470,9	954,529
471,4	978,271
471,8	994,929
472,3	1012,157
472,7	1030,414
473,2	1042,757
473,6	1066,071
474,1	1081,929
474,5	1102,586
475	1123,157
475,4	1143,014
475,9	1168,414
476,4	1192,757
476,8	1208,071
477,3	1228,9
477,7	1248,357
478,2	1264,929
478,6	1284,214
479,1	1294,814
479,5	1312,557
480	1334,843
480,4	1354,1
480,9	1375,271
481,3	1393,729
481,8	1415,671
482,2	1433,871
482,7	1450,357
483,1	1466,643
483,6	1481,557
484	1491,814
484,5	1508,014
484,9	1522,671
485,4	1538,9
485,8	1553,414
486,3	1566,7
486,7	1586,186
487,2	1600,529
487,6	1619,129
488,1	1632,871
488,5	1643,157
489	1659,357
489,4	1671,643
489,9	1681,243
490,4	1691,814
490,8	1696,529
491,3	1704,757
491,7	1717,957
492,2	1732,443
492,6	1742,014
493,1	1749,214
493,5	1760,614
494	1768,9
494,4	1778,957
494,9	1787,329
495,3	1789,957
495,8	1799,871
496,2	1806,957
496,7	1810,529
497,1	1821,586
497,6	1829,243
498	1831,7
498,5	1840,614
498,9	1845,871
499,4	1853,014
499,8	1860,157
500,3	1862,729
500,7	1867,3
501,2	1878,586
501,6	1888,729
502,1	1893,357
502,5	1897,929
503	1914,414
503,4	1921,071
503,9	1933,357
504,3	1938,814
504,8	1937,214
505,2	1942,843
505,7	1951,5
506,1	1951,471
506,6	1958,814
507	1956,214
507,5	1957,986
507,9	1961,614
508,4	1967,814
508,8	1971,643
509,3	1979,329
509,7	1981,5
510,2	1984,129
510,6	1990,357
511,1	2003,871
511,5	2010,757
512	2018,7
512,4	2020,557
512,9	2023,729
513,3	2036,3
513,8	2042,357
514,2	2045,386
514,7	2048,071
515,1	2051,529
515,6	2048,557
516	2058,271
516,5	2065,329
516,9	2065,129
517,4	2064,157
517,8	2068,843
518,3	2073,3
518,7	2084,671
519,2	2087,729
519,6	2084,414
520,1	2091,271
520,5	2102,7
521	2105,071
521,4	2106,871
521,9	2114,9
522,3	2123,157
522,8	2140,443
523,2	2149,071
523,7	2148,357
524,1	2157,357
524,6	2165,7
525	2172,471
525,5	2177,986
525,9	2174,929
526,4	2181,443
526,8	2189,786
527,3	2196,157
527,7	2202,471
528,2	2206,271
528,6	2212,186
529,1	2218,386
529,5	2219,557
530	2227,471
530,4	2237,557
530,9	2244,786
531,3	2252,929
531,8	2264,814
532,2	2273,814
532,6	2290,3
533,1	2296,871
533,5	2305,9
534	2315,3
534,4	2322,071
534,9	2326,243
535,3	2332,3
535,8	2339,814
536,2	2348,071
536,7	2348,843
537,1	2353,929
537,6	2361,1
538	2364,7
538,5	2374,843
538,9	2381,071
539,4	2386,214
539,8	2397,3
540,3	2404,557
540,7	2408,586
541,2	2418,729
541,6	2426,871
542,1	2433,757
542,5	2441,614
543	2442,557
543,4	2452,1
543,9	2458,157
544,3	2468,7
544,8	2471,9
545,2	2475,043
545,7	2481,814
546,1	2494,729
546,5	2503,786
547	2518,043
547,4	2518,014
547,9	2529,386
548,3	2538,386
548,8	2542,243
549,2	2542,271
549,7	2545,7
550,1	2552,814
550,6	2564,271
551	2570,186
551,5	2574,329
551,9	2586,929
552,4	2595,5
552,8	2603,929
553,3	2611,986
553,7	2615,5
554,2	2616,157
554,6	2619,671
555,1	2620,986
555,5	2632,014
555,9	2635,5
556,4	2640,071
556,8	2642,643
557,3	2650,557
557,7	2659,443
558,2	2670,214
558,6	2676,529
559,1	2680,529
559,5	2682,186
560	2693,129
560,4	2701,243
560,9	2709,129
561,3	2716,843
561,8	2723,386
562,2	2726,214
562,7	2736,614
563,1	2739,271
563,6	2734,729
564	2740,414
564,4	2741,443
564,9	2738,214
565,3	2748,757
565,8	2750,643
566,2	2752,586
566,7	2759,386
567,1	2760,843
567,6	2762,271
568	2771,357
568,5	2773,843
568,9	2771,243
569,4	2777,214
569,8	2784,271
570,3	2787,843
570,7	2785,871
571,1	2785,329
571,6	2785,271
572	2793,757
572,5	2794,186
572,9	2800,5
573,4	2798,871
573,8	2803,014
574,3	2802,329
574,7	2803,986
575,2	2797,243
575,6	2797,386
576,1	2794,329
576,5	2795,1
576,9	2795,557
577,4	2796,614
577,8	2797,414
578,3	2800,329
578,7	2798,071
579,2	2794,3
579,6	2795,3
580,1	2796,814
580,5	2795,214
581	2787,014
581,4	2787,843
581,9	2785,671
582,3	2779,329
582,7	2780,157
583,2	2771,929
583,6	2765,671
584,1	2766,186
584,5	2763,243
585	2767,129
585,4	2762,329
585,9	2757,071
586,3	2753,786
586,8	2754,814
587,2	2751,386
587,6	2745,271
588,1	2737,071
588,5	2742,614
589	2736,129
589,4	2738,843
589,9	2730,986
590,3	2723,186
590,8	2721,357
591,2	2715,871
591,7	2707,043
592,1	2705,5
592,5	2696,843
593	2692,729
593,4	2690,814
593,9	2679,957
594,3	2671,1
594,8	2663,814
595,2	2659,757
595,7	2652,7
596,1	2651,729
596,6	2650,014
597	2652,843
597,4	2649,614
597,9	2647,671
598,3	2639,357
598,8	2640,186
599,2	2633,643
599,7	2632,757
600,1	2621,814
600,6	2620,586
601	2617,5
601,4	2609,757
601,9	2603,157
602,3	2599,243
602,8	2588,614
603,2	2585,929
603,7	2581,357
604,1	2576,214
604,6	2568,843
605	2559,071
605,4	2553,243
605,9	2541,1
606,3	2537,071
606,8	2522,129
607,2	2508,186
607,7	2503,214
608,1	2500,786
608,6	2491,157
609	2491,986
609,4	2481,014
609,9	2476,386
610,3	2473,129
610,8	2468,871
611,2	2458,186
611,7	2445,471
612,1	2430,643
612,6	2425,529
613	2417,871
613,4	2409,5
613,9	2401,329
614,3	2391,9
614,8	2387,871
615,2	2387,414
615,7	2379,843
616,1	2372,614
616,6	2362,614
617	2349,643
617,4	2339,214
617,9	2330,957
618,3	2324,043
618,8	2314,5
619,2	2309,3
619,7	2301,443
620,1	2287,586
620,5	2278,643
621	2268,643
621,4	2251,186
621,9	2238,557
622,3	2228,586
622,8	2210,871
623,2	2211,729
623,6	2204,1
624,1	2198,7
624,5	2192,329
625	2179,271
625,4	2166,7
625,9	2168,3
626,3	2155,957
626,8	2146,271
627,2	2133,729
627,6	2113,957
628,1	2105,271
628,5	2087,443
629	2077,671
629,4	2063,157
629,9	2051,357
630,3	2041,329
630,7	2042,157
631,2	2034,957
631,6	2034,786
632,1	2018,3
632,5	2013,9
633	1999,414
633,4	1988,9
633,8	1968,386
634,3	1957,071
634,7	1944,929
635,2	1930,671
635,6	1917,157
636,1	1913,529
636,5	1897,357
636,9	1890,243
637,4	1882,129
637,8	1872,5
638,3	1869,443
638,7	1857,329
639,2	1844,9
639,6	1838,214
640	1832,7
640,5	1819,729
640,9	1809,7
641,4	1794,843
641,8	1788,386
642,2	1780,471
642,7	1771,986
643,1	1769,529
643,6	1759,986
644	1755,443
644,5	1751,814
644,9	1743,271
645,3	1734,243
645,8	1726,786
646,2	1711,071
646,7	1701,329
647,1	1694,329
647,6	1677,643
648	1663,957
648,4	1653,643
648,9	1645,386
649,3	1635,357
649,8	1630,014
650,2	1618,214
650,6	1618,586
651,1	1618,3
651,5	1607,871
652	1595,614
652,4	1587,414
652,9	1579,843
653,3	1570,9
653,7	1560,014
654,2	1549,386
654,6	1544,329
655,1	1538,5
655,5	1530,3
655,9	1521,357
656,4	1511,271
656,8	1500,957
657,3	1487,929
657,7	1475,586
658,2	1472,557
658,6	1459,386
659	1443,357
659,5	1431,386
659,9	1421,129
660,4	1413,957
660,8	1412,586
661,2	1393,386
661,7	1388,3
662,1	1383,414
662,6	1376,471
663	1372,929
663,4	1361,586
663,9	1348,957
664,3	1345,986
664,8	1341,329
665,2	1335,871
665,6	1326,1
666,1	1315,214
666,5	1310,814
667	1296,729
667,4	1289,157
667,9	1273,529
668,3	1264,986
668,7	1261,471
669,2	1252,643
669,6	1244,271
670,1	1242,557
670,5	1229,1
670,9	1231,757
671,4	1219,671
671,8	1209,843
672,3	1203,529
672,7	1196,329
673,1	1184,471
673,6	1177,043
674	1161,671
674,5	1158,643
674,9	1148,671
675,3	1141,957
675,8	1132,043
676,2	1133,471
676,7	1126,271
677,1	1123,014
677,5	1114,729
678	1111,214
678,4	1104,786
678,9	1099,614
679,3	1088,043
679,7	1085,671
680,2	1075,9
680,6	1067,186
681,1	1058,129
681,5	1047,729
681,9	1039,271
682,4	1030,786
682,8	1016,871
683,3	1007,443
683,7	999,386
684,1	992,986
684,6	991,7
685	984,243
685,5	978,014
685,9	976,014
686,3	971,414
686,8	968,529
687,2	965,471
687,7	957,186
688,1	957,814
688,5	948,871
689	947,186
689,4	945,357
689,9	938,529
690,3	930,986
690,7	920,443
691,2	910,643
691,6	909,214
692	898,471
692,5	887,329
692,9	879,414
693,4	874,271
693,8	873,043
694,2	862,614
694,7	851,9
695,1	844,3
695,6	840,043
696	831,329
696,4	822,357
696,9	813,929
697,3	806,3
697,8	799,157
698,2	792,786
698,6	790,757
699,1	787,529
699,5	782,471
699,9	779,557
700,4	779,814
700,8	779,614
701,3	775,271
701,7	764,214
702,1	758,757
702,6	748,9
703	738,671
703,5	730,871
703,9	727,757
704,3	729,157
704,8	728,814
705,2	722,986
705,6	720,071
706,1	719,243
706,5	720,414
707	710,929
707,4	704,3
707,8	699,186
708,3	692,814
708,7	693,529
709,2	690,414
709,6	685,043
710	680,5
710,5	674,1
710,9	668,014
711,3	666,871
711,8	658,786
712,2	655,071
712,7	647,871
713,1	643,757
713,5	637,014
714	633,471
714,4	632,5
714,8	628,414
715,3	623,929
715,7	617,786
716,2	611,071
716,6	613,243
717	608,243
717,5	602,3
717,9	593,129
718,3	587,443
718,8	585,071
719,2	582,814
719,7	577,529
720,1	570,843
720,5	568,129
721	568,186
721,4	560,357
721,8	557,986
722,3	553,186
722,7	541,614
723,2	540,643
723,6	534,3
724	533,243
724,5	529,529
724,9	518,786
725,3	518,814
725,8	517,386
726,2	510,9
726,7	505,671
727,1	495,186
727,5	491,357
728	495,957
728,4	491,529
728,8	494,643
729,3	489,929
729,7	487,586
730,1	484,414
730,6	482,214
731	480,614
731,5	476,614
731,9	474,471
732,3	474,9
732,8	473,7
733,2	477,043
733,6	475,729
734,1	464,557
734,5	457,243
734,9	449,471
735,4	448,814
735,8	445,5
736,3	439,129
736,7	439,329
737,1	444,843
737,6	448,7
738	449,129
738,4	445,386
738,9	446,986
739,3	443,271
739,7	437,5
740,2	431,986
740,6	426,014
741,1	418,071
741,5	418,271
741,9	409,471
742,4	410,157
742,8	409,7
743,2	405,757
743,7	406,986
744,1	405,443
744,5	397,757
745	394,843
745,4	389,271
745,8	389,871
746,3	390,129
746,7	386,9
747,2	386,529
747,6	387,757
748	385,586
748,5	380,957
748,9	367,9
749,3	364,9
749,8	358,3
750,2	354,757
750,6	351,071
751,1	350,386
751,5	349,3
751,9	355,414
752,4	349,129
752,8	348,7
753,3	344,043
753,7	340,7
754,1	337,757
754,6	335,7
755	332,5
755,4	329,7
755,9	325,243
756,3	325,786
756,7	323,043
757,2	321,586
757,6	320,443
758	313,729
758,5	310,9
758,9	313,643
759,3	306,814
759,8	307,614
760,2	303,929
760,6	306,357
761,1	302,386
761,5	305,586
761,9	299,843
762,4	303,929
762,8	297,214
763,3	295,129
763,7	287,5
764,1	288,1
764,6	284,271
765	281,186
765,4	275,814
765,9	273,814
766,3	271,1
766,7	270,986
767,2	271,271
767,6	267,186
768	269,271
768,5	269,529
768,9	265,471
769,3	263,643
769,8	261,271
770,2	260,814
770,6	254,586
771,1	251,1
771,5	246,7
771,9	248,443
772,4	252,443
772,8	251,671
773,2	248,043
773,7	251,071
774,1	253,243
774,5	252,186
775	247,757
775,4	243,757
775,8	241,5
776,3	234,757
776,7	236,9
777,1	234,271
777,6	232,071
778	231,586
778,4	227,071
778,9	223,557
779,3	227,671
779,7	221,386
780,2	216,9
780,6	221,071
781	218,214
781,5	220,957
781,9	223,443
782,3	218,071
782,8	216,986
783,2	214,471
783,6	204,471
784,1	206,043
784,5	197,529
784,9	196,814
785,4	195,586
785,8	194,586
786,2	193,129
786,7	194,243
787,1	195,957
787,5	199,843
788	201,957
788,4	202,957
788,8	199,014
789,3	201,157
789,7	199,443
790,1	196,043
790,6	193,214
791	187,471
791,4	183,271
791,9	184,357
792,3	181,557
792,7	182,729
793,2	177,3
793,6	174,614
794	171,7
794,5	173,7
794,9	173,414
795,3	174,043
795,8	172,671
796,2	174,814
796,6	173,614
797,1	175,471
797,5	176,871
797,9	176,214
798,4	169,357
798,8	165,786
799,2	165,729
799,7	167,014
800,1	161,357
800,5	156,9
801	153,871
801,4	153,214
801,8	153,957
802,2	150,357
802,7	146,5
803,1	146,814
803,5	146,157
804	146,586
804,4	148,386
804,8	148,643
805,3	146,214
805,7	145,5
806,1	143,614
806,6	146,071
807	145,9
807,4	141,786
807,9	140,414
808,3	138,9
808,7	137,557
809,2	136,5
809,6	134,329
810	131,9
810,4	133,986
810,9	129,443
811,3	129,986
811,7	130,386
812,2	132,3
812,6	129,471
813	128,643
813,5	124,614
813,9	123,071
814,3	123,1
814,8	126,586
815,2	119,586
815,6	118,529
816,1	119,214
816,5	120,071
816,9	126,071
817,3	127,757
817,8	126,271
818,2	128,3
818,6	128,214
819,1	127,014
819,5	126,157
819,9	119,586
820,4	118,1
820,8	111,9
821,2	115,757
821,7	114,1
822,1	112,386
822,5	115,157
822,9	117,271
823,4	116,271
823,8	120,3
824,2	113,3
824,7	115,7
825,1	114,614
825,5	114,586
826	113,757
826,4	112,7
826,8	111,929
827,3	115,414
827,7	112,643
828,1	115,443
828,5	112,9
829	106,1
829,4	108,1
829,8	101,671
830,3	100,043
830,7	97,443
831,1	91,929
831,6	89,871
832	89,871
832,4	84,614
832,8	91,129
833,3	91,186
833,7	90,986
834,1	93,157
834,6	88,329
835	91,757
835,4	98,386
835,8	92,614
836,3	89,3
836,7	87,643
837,1	80,271
837,6	78,329
838	72,814
838,4	65,329
838,9	66,614
839,3	69,529
839,7	72,471
840,1	77,3
840,6	82,729
841	84,729
841,4	83,443
841,9	81,586
842,3	80,214
842,7	77,214
843,1	80,586
843,6	79,5
844	82,1
844,4	83,129
844,9	88,414
845,3	83,357
845,7	85,557
846,2	80,329
846,6	77,529
847	73,814
847,4	70,986
847,9	61,386
848,3	63,357
848,7	61,643
849,2	65,9
849,6	65,7
850	65,757
850,4	67,3
850,9	73,014
851,3	71,357
851,7	69,814
852,2	59,843
852,6	62,929
853	63,014
853,4	67,329
853,9	60,3
854,3	60,014
854,7	55,271
855,2	59,414
855,6	52,9
856	49,757
856,4	45,586
856,9	48,671
857,3	52,586
857,7	59,414
858,2	57,614
858,6	64,243
859	67,129
859,4	65,129
859,9	64,271
860,3	62,729
860,7	58,329
861,1	61,157
861,6	61,414
862	62,471
862,4	61,3
862,9	62,129
863,3	56,443
863,7	56,529
864,1	54,243
864,6	50,414
865	46,671
865,4	43,786
865,9	42,214
866,3	48,786
866,7	51,5
867,1	55,529
867,6	57,157
868	58,7
868,4	62,386
868,8	63,643
869,3	61,757
869,7	57,586
870,1	53,357
870,6	52,757
871	64,757
871,4	61,871
871,8	57,443
872,3	55,757
872,7	54,529
873,1	54,957
873,5	56,7
874	43,014
874,4	41,5
874,8	42,843
875,3	41,386
875,7	41,757
876,1	38,729
876,5	39,157
877	41,9
877,4	48,671
877,8	53,214
878,2	56,414
878,7	60,471
879,1	61,271
879,5	60,386
879,9	59,814
880,4	54,071
880,8	55,014
881,2	51,786
881,7	50,586
882,1	51,071
882,5	46,414
882,9	42,786
883,4	47,214
883,8	41,329
884,2	41,243
884,6	41,529
885,1	46,843
885,5	51,557
885,9	57,729
886,3	51,443
886,8	53,7
887,2	54,9
887,6	46,957
888	41,814
888,5	39,443
888,9	37,043
889,3	36,757
889,8	35,329
890,2	33,3
890,6	38,786
891	37,729
891,5	38,329
891,9	38,386
892,3	42,271
892,7	42,7
893,2	44,529
893,6	37,071
894	35,871
894,4	35,271
894,9	33,329
895,3	31,729
895,7	28,957
896,1	27,871
896,6	34,414
897	36,843
897,4	27,386
897,8	28,357
898,3	31,929
898,7	30,929
899,1	29,014
899,5	24,243
900	19,071
900,4	24,586
900,8	25,757
901,2	22,7
901,7	24,643
902,1	26,5
902,5	29,671
902,9	36,614
903,4	37,729
903,8	30,586
904,2	34,414
904,6	31,529
905,1	32,186
905,5	30,557
905,9	27,071
906,3	24,386
906,8	29,471
907,2	22,329
907,6	28,271
908	27,214
908,5	31,071
908,9	29,814
909,3	28,871
909,7	24,843
910,2	26,129
910,6	23,871
911	21,871
911,4	20,357
911,9	17,729
912,3	18,243
912,7	19,7
913,1	15,557
913,6	17,357
914	21,443
914,4	18,786
914,8	21,643
915,3	23,871
915,7	24,986
916,1	25,643
916,5	24,671
916,9	15,614
917,4	17,614
917,8	17,3
918,2	14,186
918,6	14,1
919,1	18,243
919,5	18,614
919,9	23,757
920,3	25,5
920,8	23,329
921,2	27,729
921,6	28,443
922	24,929
922,5	22,329
922,9	22,157
923,3	24,071
923,7	22,786
924,2	17,814
924,6	15,157
925	19,814
925,4	19,757
925,8	18,043
926,3	15,043
926,7	21,614
927,1	28,043
927,5	27,5
928	23,586
928,4	22,586
928,8	27,7
929,2	26,986
929,7	20,1
930,1	14,614
930,5	15,9
930,9	21,386
931,3	22,043
931,8	20,243
932,2	19,214
932,6	24,614
933	20,529
933,5	23,5
933,9	22,614
934,3	23,071
934,7	21,586
935,2	27,043
935,6	24,043
936	29,386
936,4	26,814
936,8	25,271
937,3	27,7
937,7	28,386
938,1	20,929
938,5	19,786
939	22,157
939,4	20,214
939,8	19,614
940,2	17,243
940,6	16,157
941,1	21,329
941,5	25,786
941,9	21,757
942,3	21,7
942,8	23,3
943,2	17,471
943,6	20,443
944	16,129
944,4	9,843
944,9	9,814
945,3	13,1
945,7	10,614
946,1	14,443
946,6	11,043
947	14,043
947,4	17,014
947,8	19,614
948,2	14,614
948,7	17,043
949,1	16,814
949,5	21,243
949,9	21,357
950,3	20,5
950,8	19,329
951,2	22,129
951,6	20,386
952	19,471
952,5	12,9
952,9	10,329
953,3	10,957
953,7	11,786
954,1	8,443
954,6	10,843
955	13,243
955,4	13,529
955,8	14,043
956,2	12,814
956,7	12,957
957,1	16,757
957,5	13,729
957,9	13,557
958,3	15,443
958,8	17,386
959,2	21,643
959,6	18,814
960	16,471
960,5	15,843
960,9	15,157
961,3	15,214
961,7	10,329
962,1	5,529
962,6	5,186
963	5,386
963,4	5,729
963,8	7,5
964,2	7,614
964,7	8,729
965,1	11,814
965,5	14,043
965,9	15,557
966,3	13,214
966,8	9,043
967,2	10,957
967,6	17,071
968	12,157
968,4	13,214
968,9	17,586
969,3	16,214
969,7	17,414
970,1	15,957
970,5	9,757
971	12,214
971,4	13,957
971,8	14,157
972,2	17,357
972,6	16,443
973,1	19,071
973,5	22,7
973,9	24,071
974,3	16,757
974,7	10,929
975,2	7,957
975,6	5,157
976	6,043
976,4	4,786
976,8	5,671
977,3	11,814
977,7	12,014
978,1	13,186
978,5	15,386
978,9	10,414
979,4	7,586
979,8	11,957
980,2	7,014
980,6	3,843
981	8,586
981,5	11,329
981,9	11,271
982,3	10,814
982,7	4,043
983,1	10,757
983,6	18,643
984	19,586
984,4	22,643
984,8	23,671
985,2	27,443
985,6	31,157
986,1	23,557
986,5	15,671
986,9	14,071
987,3	9,671
987,7	14,586
988,2	17,871
988,6	13,529
989	17,3
989,4	22,129
989,8	18,271
990,3	21,614
990,7	16,414
991,1	9,357
991,5	14,129
991,9	16,7
992,3	16,357
992,8	22,9
993,2	25,157
993,6	26,814
994	29,586
994,4	26,557
994,9	25,871
995,3	26,957
995,7	21,414
996,1	12,871
996,5	12,729
996,9	13,357
997,4	13,986
997,8	9,929
998,2	7,386
998,6	5,586
999	7,043
999,5	5,471
999,9	8,1
1000,3	13,671
1000,7	15,9
1001,1	16,986
1001,5	16,586
1002	13,729
1002,4	13,9
1002,8	10,871
1003,2	7,871
1003,6	10,614
1004	10,957
1004,5	11,043
1004,9	15,729
1005,3	13,443
1005,7	14,586
1006,1	6,614
1006,6	5,357
1007	4,329
1007,4	8,843
1007,8	8,614
1008,2	8,786
1008,6	2,471
1009,1	4,214
1009,5	8,157
1009,9	10,957
1010,3	10,1
1010,7	13,329
1011,1	18,214
1011,6	20,586
1012	21,586
1012,4	23,957
1012,8	16,071
1013,2	20,071
1013,6	16,071
1014,1	15,129
1014,5	18,386
1014,9	20,586
1015,3	10,3
1015,7	14,243
1016,1	10,957
1016,6	17,186
1017	16,5
1017,4	15,214
1017,8	11,957
1018,2	11,786
1018,6	14,157
1019,1	10,671
1019,5	7,271
1019,9	8,014
1020,3	7,9
1020,7	12,957
1021,1	18,814
1021,6	11,9
1022	12,329
1022,4	12,043
1022,8	10,043
1023,2	10,843
1023,6	9,786
1024,1	9,157
1024,5	18,557
1024,9	24,271
1025,3	25,329
1025,7	25,614
1026,1	24,014
1026,6	25,729
1027	21,157
1027,4	20,014
1027,8	14,614
1028,2	15,729
1028,6	17,471
1029	17,671
1029,5	16,271
1029,9	17,471
1030,3	15,729
1030,7	14,3
1031,1	7,929
1031,5	2,871
1032	6,186
1032,4	1,929
1032,8	1,129
1033,2	2,529
1033,6	8,157
1034	11,014
1034,4	17,471
1034,9	14,386
1035,3	18,929
1035,7	19,043
1036,1	21,757
1036,5	16,757
1036,9	18,186
1037,4	16,1
1037,8	16,129
1038,2	9,071
1038,6	10,329
1039	3,871
1039,4	6,871
1039,8	5,7
1040,3	3,243
1040,7	3,071
1041,1	9,9
1041,5	9,557
1041,9	11,9
1042,3	14,814
1042,7	15,757
1043,2	19,1
1043,6	24,157
1044	24,214
1044,4	24,1
1044,8	24,043
1045,2	20,386
1045,6	21,757
1046,1	21,929
1046,5	19,357
1046,9	19,471
1047,3	18,386
1047,7	15,014
1048,1	16,271
1048,5	15,1
1049	14,271
1049,4	13,871
1049,8	13,643
1050,2	17,443
1050,6	23,786
1051	24,529
1051,4	22,671
1051,9	24,186
1052,3	20,529
1052,7	18,614
1053,1	16,9
1053,5	15,7
1053,9	13,586
1054,3	17,386
1054,8	18,129
1055,2	21,243
1055,6	20,814
1056	21,814
1056,4	21,729
1056,8	22,786
1057,2	22,986
1057,6	21,357
1058,1	21,157
1058,5	17,414
1058,9	18,557
1059,3	21,757
1059,7	18,1
1060,1	16,786
1060,5	8,957
1061	11,471
1061,4	22,243
1061,8	18,071
1062,2	14,243
1062,6	14,671
1063	9,1
1063,4	13,614
1063,8	12,243
1064,3	4,757
1064,7	4,557
1065,1	3,529
1065,5	7,471
1065,9	9,014
1066,3	9,586
1066,7	9,214
1067,1	8,529
1067,6	11,129
1068	11,186
1068,4	17,186
1068,8	20,1
1069,2	20,157
1069,6	18,357
1070	23,986
1070,4	24,871
1070,9	25,843
1071,3	19,614
1071,7	18,671
1072,1	23,214
1072,5	28,957
1072,9	28,871
1073,3	28,443
1073,7	23,871
1074,2	26,814
1074,6	28,043
1075	26,557
1075,4	23,929
1075,8	22,243
1076,2	19,643
1076,6	23,586
1077	18,529
1077,5	17,614
1077,9	15,386
1078,3	10,757
1078,7	9,843
1079,1	14,043
1079,5	8,586
1079,9	11,271
1080,3	10,757
1080,7	15,357
1081,2	16,671
1081,6	21,357
1082	20,757
1082,4	23,814
1082,8	21,129
1083,2	15,1
1083,6	12,386
1084	11,9
1084,5	6,1
1084,9	3,671
1085,3	5,729
1085,7	3,214
1086,1	5,786
1086,5	6,929
1086,9	8,386
1087,3	9,471
1087,7	10,729
1088,2	7,443
1088,6	6,643
1089	3,729
1089,4	2,1
1089,8	3,014
1090,2	3,5
1090,6	1,271
1091	5,757
1091,4	9,586
1091,9	16,357
1092,3	15,043
1092,7	10,529
1093,1	8,1
1093,5	9,443
1093,9	9,814
1094,3	8,957
1094,7	9,843
1095,1	8,843
1095,5	10,643
1096	11,643
1096,4	14,157
1096,8	7,7
1097,2	8,986
1097,6	8,929
1098	11,243
1098,4	12,557
1098,8	14,014
1099,2	9,871
1099,6	11,757
1100,1	13,614
1100,5	14,471
1100,9	11,1
1101,3	8,186
1101,7	10,071
1102,1	11,186
1102,5	14,129
1102,9	7,957
1103,3	3,471
1103,7	3,129
1104,2	8,329
1104,6	6,357
1105	7,386
1105,4	7,757
1105,8	10,329
1106,2	11,357
1106,6	11,471
1107	7,557
1107,4	5,833
1107,8	3,82
1108,3	0,6
