Data from Subt2_267.txt Node
Date: Sat Aug 26 19:03:13 MSK 2023
User: vat
Spectrometer: MAYP114033
Trigger mode: 0
Integration Time (sec): 1,000000E0
Scans to average: 5
Electric dark correction enabled: true
Nonlinearity correction enabled: false
Boxcar width: 3
XAxis mode: Wavelengths
Number of Pixels in Spectrum: 2068
>>>>>Begin Spectral Data<<<<<
199,4	-0,2
199,9	-0,18
200,4	-2
200,8	0,186
201,3	-1,014
201,8	2,986
202,2	-0,957
202,7	5,071
203,2	5,1
203,6	6,357
204,1	4,129
204,6	5,129
205	2,471
205,5	5,843
206	1,643
206,4	3,7
206,9	4,7
207,4	6,586
207,8	7,271
208,3	7,214
208,8	11,129
209,2	14,357
209,7	12,471
210,2	14,471
210,6	13,757
211,1	17,1
211,5	16,386
212	13,3
212,5	10,986
212,9	8,043
213,4	7,1
213,9	6,329
214,3	4,757
214,8	6,443
215,3	6,357
215,7	3,157
216,2	8,729
216,7	7,671
217,1	5,871
217,6	5,157
218,1	3,243
218,5	2,3
219	-0,529
219,5	0,929
219,9	-1,843
220,4	10,386
220,9	11,157
221,3	12,643
221,8	14,643
222,3	22,3
222,7	18,957
223,2	22,129
223,6	12,7
224,1	13,586
224,6	15,129
225	13,243
225,5	8,814
226	10,157
226,4	11,529
226,9	14,157
227,4	12,7
227,8	7,9
228,3	11,871
228,8	13,271
229,2	11,9
229,7	10,014
230,2	9,871
230,6	13,014
231,1	18,3
231,5	19,671
232	21,071
232,5	21,814
232,9	22,129
233,4	23,357
233,9	17,671
234,3	15,443
234,8	10,557
235,3	6,671
235,7	7,043
236,2	10,586
236,7	4,871
237,1	6,5
237,6	3,329
238,1	4,3
238,5	1,871
239	4,9
239,4	2,9
239,9	6,5
240,4	7,186
240,8	12,243
241,3	12,043
241,8	16,614
242,2	13,671
242,7	10,471
243,2	13,071
243,6	8,386
244,1	11,414
244,6	11,843
245	8,5
245,5	7,814
245,9	6,9
246,4	-0,043
246,9	4,786
247,3	2,271
247,8	4,414
248,3	6,529
248,7	7,243
249,2	11,329
249,7	10,414
250,1	10,757
250,6	11,729
251	10,443
251,5	11,186
252	12,357
252,4	11,786
252,9	13,386
253,4	10,157
253,8	2,957
254,3	3,329
254,8	4,929
255,2	1,643
255,7	-0,957
256,1	-1,014
256,6	0,871
257,1	5,814
257,5	0,729
258	1,671
258,5	2,1
258,9	2,329
259,4	2,014
259,9	3,929
260,3	-0,357
260,8	0,157
261,2	-0,643
261,7	-1,014
262,2	-4,957
262,6	-1,414
263,1	0,7
263,6	7,043
264	13,671
264,5	15,043
264,9	15,014
265,4	20,557
265,9	15,357
266,3	10,9
266,8	10,729
267,3	8,329
267,7	5,386
268,2	5,957
268,7	8,986
269,1	14,271
269,6	12,3
270	12,243
270,5	9,157
271	11,843
271,4	13,043
271,9	6,214
272,4	4,557
272,8	4,014
273,3	-0,557
273,7	-1,529
274,2	-7,529
274,7	-10,129
275,1	-6,386
275,6	-2,786
276,1	0,671
276,5	5,357
277	7,3
277,4	12,7
277,9	15,071
278,4	16,129
278,8	15,329
279,3	15,1
279,8	12,586
280,2	12,729
280,7	12,729
281,1	8,243
281,6	7,014
282,1	6,071
282,5	7,529
283	7,614
283,4	7,814
283,9	7,271
284,4	19,243
284,8	18,271
285,3	15,129
285,8	15,614
286,2	13,129
286,7	11,9
287,1	9,071
287,6	1,757
288,1	-0,7
288,5	2,7
289	3,443
289,5	2,671
289,9	1,586
290,4	6,214
290,8	5,3
291,3	10,043
291,8	8,929
292,2	5,443
292,7	13,957
293,1	15,557
293,6	13,871
294,1	15,814
294,5	14,071
295	15,5
295,5	13,643
295,9	10,471
296,4	6,843
296,8	3,471
297,3	1,557
297,8	-2,471
298,2	-5,243
298,7	-2,1
299,1	-5,443
299,6	-1,1
300,1	-1,471
300,5	1,3
301	4,957
301,5	12,271
301,9	12,129
302,4	15,243
302,8	15,443
303,3	17,871
303,8	12,957
304,2	14,1
304,7	8,243
305,1	3,243
305,6	-1,357
306,1	2,614
306,5	4,1
307	7,671
307,4	9,043
307,9	7,471
308,4	9,957
308,8	7,329
309,3	4,871
309,8	3,929
310,2	5,929
310,7	0,414
311,1	1,443
311,6	3,1
312,1	11,843
312,5	14,243
313	14,557
313,4	12,529
313,9	14,443
314,4	14,3
314,8	11,586
315,3	6,129
315,7	1,443
316,2	-0,071
316,7	-1,671
317,1	6,014
317,6	7,957
318	15,329
318,5	15,471
319	16,786
319,4	20,186
319,9	27,071
320,3	22,7
320,8	18,529
321,3	17,3
321,7	20,014
322,2	20,243
322,6	18,271
323,1	10,871
323,6	9,071
324	10,557
324,5	6,157
324,9	8,1
325,4	9,071
325,9	10,614
326,3	14,157
326,8	13,014
327,2	5,986
327,7	6,643
328,2	5,014
328,6	5,786
329,1	0,7
329,5	-0,586
330	0,843
330,5	13,014
330,9	15,814
331,4	17,357
331,8	13,671
332,3	20,957
332,8	18,271
333,2	16,357
333,7	13,014
334,1	12,814
334,6	5,243
335,1	3,071
335,5	-1,614
336	-1,929
336,4	0,329
336,9	3,214
337,4	3,157
337,8	7,557
338,3	8,414
338,7	12,071
339,2	14,329
339,7	17,071
340,1	14,9
340,6	16,957
341	14,757
341,5	14,157
342	8,7
342,4	8,5
342,9	4,129
343,3	2,614
343,8	-1,157
344,2	1,814
344,7	14,529
345,2	13,929
345,6	15,357
346,1	18,671
346,5	21,986
347	20,243
347,5	20,329
347,9	13,7
348,4	19,186
348,8	19,129
349,3	18,757
349,8	18,929
350,2	22,1
350,7	17,814
351,1	17,186
351,6	17,443
352	21,786
352,5	26,871
353	32,471
353,4	37,871
353,9	48,157
354,3	52,157
354,8	65,757
355,3	78,271
355,7	93,443
356,2	110,871
356,6	127,786
357,1	151,843
357,5	180,671
358	205,786
358,5	237,5
358,9	270,1
359,4	308,557
359,8	359,243
360,3	413,929
360,8	471,557
361,2	539,129
361,7	611,786
362,1	699,729
362,6	784,929
363	874,843
363,5	975,871
364	1087,014
364,4	1194,3
364,9	1306,186
365,3	1410,471
365,8	1515,929
366,3	1617,5
366,7	1703,986
367,2	1777,529
367,6	1840,271
368,1	1884,014
368,5	1909,214
369	1926,271
369,5	1930,557
369,9	1915,814
370,4	1887,557
370,8	1849,1
371,3	1794,3
371,7	1736,9
372,2	1658,1
372,7	1575,043
373,1	1490,443
373,6	1401,786
374	1314,357
374,5	1226,814
374,9	1143,471
375,4	1063,386
375,9	983,5
376,3	905,3
376,8	834,014
377,2	765,157
377,7	701,843
378,2	637,757
378,6	586,729
379,1	540,986
379,5	497,271
380	458,357
380,4	419,329
380,9	384,843
381,4	353,443
381,8	330,3
382,3	304,3
382,7	283,643
383,2	266,271
383,6	247,729
384,1	234,5
384,6	224,729
385	205,043
385,5	190,643
385,9	175,071
386,4	158,186
386,8	146,671
387,3	131,729
387,7	123,129
388,2	115,929
388,7	104,329
389,1	97,9
389,6	91,7
390	86,414
390,5	87,271
390,9	81,757
391,4	76,871
391,9	73,329
392,3	75,871
392,8	71,729
393,2	68,014
393,7	60,814
394,1	56,586
394,6	54,986
395,1	56,329
395,5	48,729
396	46,414
396,4	45,671
396,9	45,357
397,3	46,5
397,8	45,414
398,2	43,329
398,7	42,414
399,2	46,043
399,6	44,214
400,1	43,557
400,5	31,843
401	31,414
401,4	28,757
401,9	31,671
402,4	29,014
402,8	27,157
403,3	31,671
403,7	33,386
404,2	37,186
404,6	40,7
405,1	36,9
405,5	35,757
406	32,929
406,5	29,386
406,9	35,871
407,4	34,071
407,8	33,1
408,3	36,9
408,7	37,329
409,2	45,214
409,6	46,443
410,1	48,786
410,6	48,329
411	47,957
411,5	48,214
411,9	50,671
412,4	49,729
412,8	52,243
413,3	52,871
413,7	57,386
414,2	62,129
414,7	66,386
415,1	76,129
415,6	81,814
416	84,757
416,5	88,557
416,9	86,271
417,4	89,443
417,8	95,471
418,3	91,3
418,8	91,9
419,2	92,214
419,7	89,9
420,1	93,786
420,6	92,614
421	86,243
421,5	92,729
421,9	93,671
422,4	97,7
422,8	103,1
423,3	101,557
423,8	102,043
424,2	103,586
424,7	96,614
425,1	97,386
425,6	91,757
426	90,929
426,5	91,414
426,9	92,329
427,4	88,9
427,9	87,471
428,3	85,014
428,8	83,843
429,2	79,7
429,7	78,729
430,1	77,386
430,6	77,614
431	76,443
431,5	80,129
431,9	78,186
432,4	80,443
432,8	85,329
433,3	85,614
433,8	89,671
434,2	94,043
434,7	91,529
435,1	98,729
435,6	98,129
436	97,129
436,5	98,671
436,9	95,014
437,4	97,586
437,8	103,3
438,3	104,929
438,8	104,557
439,2	104,729
439,7	110,157
440,1	114,1
440,6	120,614
441	118,957
441,5	124,586
441,9	132,214
442,4	133,043
442,8	129,357
443,3	135,671
443,7	136,129
444,2	142,071
444,7	146,386
445,1	153,643
445,6	162,671
446	173,243
446,5	175,786
446,9	180,957
447,4	185,5
447,8	194,614
448,3	205,071
448,7	214,614
449,2	227,557
449,6	243,1
450,1	248,757
450,6	263,071
451	272,729
451,5	280,1
451,9	289,586
452,4	300,214
452,8	306,414
453,3	325,786
453,7	334,071
454,2	344,071
454,6	355,471
455,1	365,643
455,5	371,386
456	391,729
456,4	396,1
456,9	406,729
457,3	413,843
457,8	421,243
458,3	435,986
458,7	448,386
459,2	458,271
459,6	472,671
460,1	488,671
460,5	502,243
461	524,1
461,4	535,214
461,9	549,7
462,3	563,329
462,8	578,386
463,2	590,243
463,7	609,414
464,1	622,586
464,6	641,843
465	660,3
465,5	679,586
466	701,471
466,4	723,043
466,9	741,814
467,3	756,586
467,8	774,7
468,2	790,043
468,7	806,9
469,1	824,214
469,6	841,871
470	862,129
470,5	879,986
470,9	894,957
471,4	918,329
471,8	929,414
472,3	948,7
472,7	966,814
473,2	977,757
473,6	996,614
474,1	1021,129
474,5	1041,043
475	1064,1
475,4	1082,443
475,9	1102,643
476,4	1122,9
476,8	1145,529
477,3	1161,414
477,7	1179,071
478,2	1196,929
478,6	1212,7
479,1	1228,186
479,5	1248,014
480	1256,414
480,4	1274,529
480,9	1287,929
481,3	1300,271
481,8	1318,671
482,2	1330,671
482,7	1345,7
483,1	1366,586
483,6	1375,586
484	1387,529
484,5	1411,014
484,9	1421,014
485,4	1441,729
485,8	1452,186
486,3	1465,614
486,7	1485,271
487,2	1505,329
487,6	1512,7
488,1	1527,043
488,5	1533,157
489	1548,157
489,4	1557,871
489,9	1565,043
490,4	1570,386
490,8	1583,157
491,3	1596,986
491,7	1608,9
492,2	1618,9
492,6	1631,243
493,1	1638,814
493,5	1646,957
494	1645,786
494,4	1647,186
494,9	1655,3
495,3	1662,871
495,8	1668,814
496,2	1680,214
496,7	1682,414
497,1	1698,729
497,6	1708,471
498	1716,014
498,5	1724,414
498,9	1733,129
499,4	1738,814
499,8	1753,9
500,3	1760,471
500,7	1767,843
501,2	1768,471
501,6	1768,129
502,1	1770,329
502,5	1775,814
503	1778,986
503,4	1779,386
503,9	1780,357
504,3	1792,129
504,8	1800,386
505,2	1808,814
505,7	1815,271
506,1	1825,786
506,6	1828,386
507	1838,014
507,5	1838,757
507,9	1842,071
508,4	1843,243
508,8	1847,271
509,3	1841,929
509,7	1854,5
510,2	1857,643
510,6	1855,957
511,1	1861,986
511,5	1870,043
512	1869,814
512,4	1877,014
512,9	1875,014
513,3	1878,043
513,8	1889,929
514,2	1896,614
514,7	1896,357
515,1	1902,671
515,6	1908,757
516	1912,357
516,5	1916,414
516,9	1921,071
517,4	1925,3
517,8	1937,729
518,3	1943,586
518,7	1949,529
519,2	1956,586
519,6	1963,957
520,1	1969,729
520,5	1971,786
521	1968,729
521,4	1972,757
521,9	1977,986
522,3	1983,957
522,8	1983,843
523,2	1987,586
523,7	1994,9
524,1	2002,786
524,6	2007,186
525	2011,814
525,5	2015,871
525,9	2029,986
526,4	2032,129
526,8	2041,071
527,3	2050,1
527,7	2060,243
528,2	2065,586
528,6	2068,671
529,1	2070,3
529,5	2086,043
530	2088,1
530,4	2094,671
530,9	2105,557
531,3	2109,586
531,8	2124,329
532,2	2132,186
532,6	2134,186
533,1	2140,186
533,5	2144,643
534	2140,271
534,4	2148,471
534,9	2156,329
535,3	2158,614
535,8	2164,414
536,2	2172,157
536,7	2182,1
537,1	2194,7
537,6	2203,757
538	2211,671
538,5	2225,843
538,9	2228,814
539,4	2239,529
539,8	2241,586
540,3	2249,929
540,7	2259,529
541,2	2255,414
541,6	2261,129
542,1	2279,043
542,5	2290,671
543	2298,671
543,4	2304,329
543,9	2304,043
544,3	2316,414
544,8	2317,129
545,2	2319,614
545,7	2319,929
546,1	2334,871
546,5	2344,043
547	2356,157
547,4	2364,3
547,9	2378,586
548,3	2381,9
548,8	2386,729
549,2	2382,586
549,7	2386,214
550,1	2391,5
550,6	2398,814
551	2401,071
551,5	2408,557
551,9	2415,357
552,4	2423,414
552,8	2431,557
553,3	2438,786
553,7	2444,786
554,2	2454,243
554,6	2464,7
555,1	2474,5
555,5	2481,157
555,9	2491,243
556,4	2495,214
556,8	2499,357
557,3	2503,329
557,7	2503,471
558,2	2505,614
558,6	2510,986
559,1	2511,157
559,5	2519,871
560	2524,471
560,4	2526,843
560,9	2534,814
561,3	2540,557
561,8	2547,014
562,2	2551,157
562,7	2553,443
563,1	2557,986
563,6	2560,7
564	2562,529
564,4	2569,129
564,9	2572,014
565,3	2578,214
565,8	2578,243
566,2	2585,5
566,7	2590,386
567,1	2596,071
567,6	2593,014
568	2595,1
568,5	2592,586
568,9	2595,5
569,4	2594,186
569,8	2595,1
570,3	2597,386
570,7	2598,129
571,1	2601,7
571,6	2606,843
572	2615,157
572,5	2617,7
572,9	2624,471
573,4	2625,9
573,8	2634,043
574,3	2630,929
574,7	2631,671
575,2	2627,586
575,6	2626,014
576,1	2626,357
576,5	2625,243
576,9	2619,443
577,4	2622,043
577,8	2622,7
578,3	2628,186
578,7	2629,871
579,2	2624,643
579,6	2620,357
580,1	2617,414
580,5	2613,814
581	2612,186
581,4	2605,757
581,9	2604,843
582,3	2599,414
582,7	2595,814
583,2	2596,814
583,6	2597,329
584,1	2590,1
584,5	2582,186
585	2575,986
585,4	2571,814
585,9	2573,386
586,3	2571,557
586,8	2566,614
587,2	2561,471
587,6	2566,329
588,1	2564,557
588,5	2570,557
589	2572,071
589,4	2560,443
589,9	2552,043
590,3	2546,214
590,8	2536,643
591,2	2532,729
591,7	2529,443
592,1	2519,471
592,5	2525,157
593	2516,243
593,4	2515,329
593,9	2508,5
594,3	2506,071
594,8	2495,386
595,2	2487,529
595,7	2483,671
596,1	2482,357
596,6	2479,557
597	2478,3
597,4	2474,614
597,9	2477,014
598,3	2478,843
598,8	2469,443
599,2	2473,986
599,7	2470,671
600,1	2461,786
600,6	2453,671
601	2443,529
601,4	2440,043
601,9	2441,471
602,3	2433,386
602,8	2426,214
603,2	2424,7
603,7	2416,214
604,1	2412,014
604,6	2402,9
605	2387,471
605,4	2380,671
605,9	2372,786
606,3	2360,7
606,8	2352,071
607,2	2339,814
607,7	2332,157
608,1	2330,471
608,6	2323,814
609	2322,471
609,4	2324,757
609,9	2319,557
610,3	2319,271
610,8	2310,3
611,2	2301,129
611,7	2290,157
612,1	2277,7
612,6	2271,329
613	2269,443
613,4	2254,3
613,9	2249,186
614,3	2239,271
614,8	2237,471
615,2	2228,386
615,7	2215,871
616,1	2206,814
616,6	2200,7
617	2185,329
617,4	2180,557
617,9	2176,386
618,3	2169,843
618,8	2160,157
619,2	2147,271
619,7	2140,043
620,1	2135,357
620,5	2128,7
621	2115,043
621,4	2105,957
621,9	2099,471
622,3	2091,957
622,8	2081,186
623,2	2072,729
623,6	2058,643
624,1	2044,5
624,5	2036,957
625	2024,729
625,4	2018,557
625,9	2012,243
626,3	2003,443
626,8	1991,157
627,2	1987,243
627,6	1968,3
628,1	1957,643
628,5	1951,157
629	1936,871
629,4	1926,871
629,9	1922,014
630,3	1906,529
630,7	1901,443
631,2	1892,471
631,6	1877,186
632,1	1870,214
632,5	1863,186
633	1856,586
633,4	1847,586
633,8	1837,186
634,3	1827,414
634,7	1816,1
635,2	1805,386
635,6	1795,3
636,1	1781,957
636,5	1777,014
636,9	1767,614
637,4	1760,071
637,8	1749,814
638,3	1741,614
638,7	1726,614
639,2	1719,157
639,6	1704,271
640	1696,557
640,5	1685,957
640,9	1678,243
641,4	1672,357
641,8	1668,186
642,2	1659,386
642,7	1660,186
643,1	1661,557
643,6	1655,614
644	1649,557
644,5	1640,671
644,9	1633,357
645,3	1626,986
645,8	1607,186
646,2	1593,986
646,7	1586,357
647,1	1578,386
647,6	1563,071
648	1560,129
648,4	1546,443
648,9	1542,757
649,3	1531,357
649,8	1526,871
650,2	1519,471
650,6	1519,329
651,1	1502,357
651,5	1501,071
652	1498,214
652,4	1491,329
652,9	1478,9
653,3	1469,414
653,7	1460,129
654,2	1456,129
654,6	1440,986
655,1	1434,871
655,5	1430,586
655,9	1422,643
656,4	1415,129
656,8	1404,814
657,3	1395,957
657,7	1392,157
658,2	1378,157
658,6	1367,414
659	1357,471
659,5	1345,443
659,9	1335,814
660,4	1323,957
660,8	1313,071
661,2	1307,471
661,7	1294,757
662,1	1293,614
662,6	1285,871
663	1281,443
663,4	1275,757
663,9	1267,071
664,3	1254,929
664,8	1248,014
665,2	1233,443
665,6	1229,843
666,1	1219,157
666,5	1214,043
667	1205,5
667,4	1198,014
667,9	1190,929
668,3	1185,243
668,7	1175,5
669,2	1172,214
669,6	1162,1
670,1	1156,957
670,5	1147,357
670,9	1139,957
671,4	1127,957
671,8	1119,529
672,3	1113,414
672,7	1104,443
673,1	1093,671
673,6	1089,786
674	1088,443
674,5	1083,243
674,9	1074,3
675,3	1064,929
675,8	1058,529
676,2	1053,357
676,7	1043,471
677,1	1032,3
677,5	1025,329
678	1019,843
678,4	1014,843
678,9	1010,3
679,3	1004,814
679,7	1000,329
680,2	986,214
680,6	977,814
681,1	972,386
681,5	963,643
681,9	957,014
682,4	957,986
682,8	954,929
683,3	959,843
683,7	960,9
684,1	952,043
684,6	945,614
685	935,843
685,5	920,414
685,9	906,5
686,3	893,386
686,8	880,957
687,2	878,843
687,7	870,443
688,1	862,929
688,5	856,957
689	861,329
689,4	855,929
689,9	850,586
690,3	842,957
690,7	839,786
691,2	839,557
691,6	839,014
692	827,129
692,5	824,529
692,9	820,986
693,4	816,329
693,8	807,357
694,2	797,786
694,7	788,957
695,1	785,186
695,6	782,214
696	779,014
696,4	772,671
696,9	767,043
697,3	759,957
697,8	752,871
698,2	744,871
698,6	739,7
699,1	731,614
699,5	727,471
699,9	722,3
700,4	717,1
700,8	714,586
701,3	714,214
701,7	704,9
702,1	701,186
702,6	697,7
703	694,7
703,5	694,757
703,9	688,814
704,3	685,929
704,8	682,843
705,2	678,271
705,6	671,443
706,1	668,071
706,5	665,586
707	664,7
707,4	654,814
707,8	648,9
708,3	646,957
708,7	642,929
709,2	639,414
709,6	626,3
710	625,871
710,5	620,386
710,9	619,071
711,3	608,529
711,8	606,186
712,2	602,986
712,7	603,157
713,1	594,643
713,5	596,671
714	591,757
714,4	589,129
714,8	586,843
715,3	580,014
715,7	579,786
716,2	575,357
716,6	570,814
717	563,614
717,5	561,357
717,9	556,329
718,3	551,043
718,8	543,9
719,2	539,786
719,7	530,214
720,1	529,071
720,5	529,243
721	523,557
721,4	522,329
721,8	523,271
722,3	518,071
722,7	519,129
723,2	507,643
723,6	495,557
724	486,043
724,5	479,871
724,9	470,414
725,3	463,729
725,8	457,871
726,2	462,643
726,7	459,614
727,1	458,243
727,5	456,671
728	455,586
728,4	456,214
728,8	456,271
729,3	450,614
729,7	448,414
730,1	448,329
730,6	449,443
731	443,243
731,5	438,471
731,9	431,9
732,3	426,471
732,8	426,671
733,2	423,1
733,6	414,243
734,1	410,529
734,5	411,586
734,9	409,071
735,4	409,014
735,8	403,214
736,3	403,7
736,7	401,643
737,1	403,671
737,6	398,843
738	399,929
738,4	397,243
738,9	399,186
739,3	396,471
739,7	396,471
740,2	392,814
740,6	390,786
741,1	389,5
741,5	385,871
741,9	382,871
742,4	382,357
742,8	382,614
743,2	381,071
743,7	374,329
744,1	365,357
744,5	361,586
745	357,786
745,4	348,729
745,8	344,786
746,3	344,043
746,7	344,929
747,2	347,129
747,6	349,9
748	349,557
748,5	352,871
748,9	344,1
749,3	337,986
749,8	342,414
750,2	339,5
750,6	335,3
751,1	334,329
751,5	332,014
751,9	335,929
752,4	335,414
752,8	328,214
753,3	323,329
753,7	323,043
754,1	315,957
754,6	310,186
755	299,7
755,4	295,586
755,9	292,729
756,3	288,3
756,7	284,757
757,2	288,729
757,6	288,757
758	293,243
758,5	289,214
758,9	284,786
759,3	288,014
759,8	287,643
760,2	281,186
760,6	278,9
761,1	276,757
761,5	279,814
761,9	279,186
762,4	273,986
762,8	271,1
763,3	268,1
763,7	268,386
764,1	265,014
764,6	266,586
765	266,3
765,4	268,1
765,9	268,014
766,3	266,5
766,7	262,843
767,2	261,843
767,6	259,1
768	253,443
768,5	248,586
768,9	244,129
769,3	243,443
769,8	241,329
770,2	242,014
770,6	240,9
771,1	247,986
771,5	248,357
771,9	249,471
772,4	249,643
772,8	249,529
773,2	247,614
773,7	242,014
774,1	234,043
774,5	229,214
775	226,729
775,4	222,557
775,8	218,071
776,3	219,871
776,7	219,443
777,1	220,386
777,6	224,1
778	227,243
778,4	225,271
778,9	225,9
779,3	217,757
779,7	216,5
780,2	216,957
780,6	208,3
781	200,557
781,5	200,243
781,9	200,643
782,3	202,329
782,8	200,729
783,2	195,443
783,6	200,871
784,1	199,329
784,5	195,643
784,9	192,957
785,4	192,786
785,8	190,786
786,2	193,329
786,7	192,071
787,1	190,843
787,5	193,557
788	192,929
788,4	187,329
788,8	186,129
789,3	180,357
789,7	179,843
790,1	178,557
790,6	179,329
791	171,929
791,4	177,757
791,9	175,957
792,3	173,986
792,7	174,443
793,2	168,957
793,6	167,5
794	172,643
794,5	163,671
794,9	165,471
795,3	165,729
795,8	160,443
796,2	166,329
796,6	161,614
797,1	160,386
797,5	161,186
797,9	154,186
798,4	151,929
798,8	148,586
799,2	143,443
799,7	147,157
800,1	142,471
800,5	142,7
801	147,643
801,4	144,529
801,8	139,243
802,2	140,471
802,7	131,586
803,1	131,329
803,5	129,557
804	125,843
804,4	127,271
804,8	132,129
805,3	132,5
805,7	137,929
806,1	135,414
806,6	137,986
807	136,129
807,4	133,729
807,9	130,729
808,3	130,414
808,7	129,671
809,2	135,7
809,6	136,157
810	135,243
810,4	133,214
810,9	135,471
811,3	134,414
811,7	133,443
812,2	133,357
812,6	128,7
813	131,957
813,5	136,5
813,9	134,7
814,3	132,986
814,8	129,443
815,2	123,129
815,6	124,814
816,1	122,871
816,5	123,586
816,9	121,7
817,3	119,214
817,8	124,786
818,2	123,357
818,6	119,357
819,1	116,586
819,5	108,7
819,9	111,214
820,4	113,671
820,8	104,386
821,2	102,814
821,7	101,814
822,1	104,043
822,5	113,557
822,9	111,586
823,4	106,129
823,8	110,643
824,2	108,071
824,7	104,043
825,1	93,929
825,5	84,071
826	76,014
826,4	74,014
826,8	69,614
827,3	76,014
827,7	77,271
828,1	81,671
828,5	82,357
829	81,757
829,4	81,186
829,8	76,186
830,3	75,471
830,7	72,614
831,1	69,271
831,6	70,643
832	77,014
832,4	75,871
832,8	83,414
833,3	79,557
833,7	80,957
834,1	82,471
834,6	80,557
835	80,271
835,4	80,5
835,8	73,671
836,3	71,357
836,7	70,214
837,1	73,214
837,6	75,757
838	71,729
838,4	74,014
838,9	77,243
839,3	76,9
839,7	80,386
840,1	73,386
840,6	71,1
841	72,529
841,4	74,386
841,9	73,986
842,3	75,757
842,7	69,414
843,1	75,243
843,6	74,757
844	74,414
844,4	76,443
844,9	77,586
845,3	75,386
845,7	78,5
846,2	74,214
846,6	72,071
847	71,757
847,4	69,243
847,9	67,986
848,3	70,557
848,7	70,1
849,2	70,757
849,6	66,729
850	68,329
850,4	64,643
850,9	61,786
851,3	63,471
851,7	62,986
852,2	60,7
852,6	62,529
853	60,271
853,4	58,329
853,9	56,271
854,3	52,471
854,7	55,871
855,2	57,071
855,6	61,271
856	60,3
856,4	58,357
856,9	56,7
857,3	56,471
857,7	56,786
858,2	59,071
858,6	54,3
859	53,014
859,4	56,357
859,9	58,271
860,3	54,729
860,7	49,871
861,1	52,329
861,6	53,414
862	56,186
862,4	50,957
862,9	51,7
863,3	52,243
863,7	51,786
864,1	49,443
864,6	47,1
865	44,157
865,4	48,386
865,9	48,214
866,3	43,471
866,7	44,3
867,1	37,271
867,6	40,071
868	39,414
868,4	37,957
868,8	37,157
869,3	41,043
869,7	44,614
870,1	44,3
870,6	40,843
871	19,814
871,4	21,786
871,8	22,043
872,3	24,157
872,7	22,986
873,1	22,843
873,5	25,957
874	45,986
874,4	46,357
874,8	44,9
875,3	42,729
875,7	38,271
876,1	44,671
876,5	41,843
877	41,671
877,4	36,214
877,8	36,643
878,2	40,329
878,7	43,786
879,1	42,757
879,5	46,071
879,9	47,814
880,4	52,757
880,8	52,9
881,2	52,157
881,7	48,243
882,1	48,7
882,5	43,614
882,9	40,186
883,4	37,814
883,8	41,043
884,2	36,986
884,6	32,929
885,1	30,5
885,5	31,129
885,9	30,129
886,3	30,243
886,8	25,3
887,2	26,5
887,6	29,271
888	29,986
888,5	32,729
888,9	34,614
889,3	30,786
889,8	33,3
890,2	33,843
890,6	30,957
891	32,271
891,5	29,071
891,9	26,929
892,3	29,243
892,7	30,471
893,2	30,329
893,6	34,157
894	33,471
894,4	34,643
894,9	33,243
895,3	31,9
895,7	30,871
896,1	28,3
896,6	29,271
897	29,529
897,4	30,443
897,8	33,786
898,3	35,186
898,7	30,1
899,1	29,643
899,5	27,786
900	21,214
900,4	23,357
900,8	19,386
901,2	18,329
901,7	19,014
902,1	21,329
902,5	22,386
902,9	22,586
903,4	21,386
903,8	25,586
904,2	26,071
904,6	26,814
905,1	23,043
905,5	22,586
905,9	25,586
906,3	23,214
906,8	25,3
907,2	24,1
907,6	26,9
908	27,957
908,5	25,5
908,9	21,729
909,3	24,157
909,7	24,5
910,2	24,157
910,6	24,1
911	19,1
911,4	22,357
911,9	24,729
912,3	18,843
912,7	20,614
913,1	23,129
913,6	18,786
914	26,5
914,4	21,957
914,8	22,757
915,3	25,329
915,7	25,357
916,1	23,957
916,5	26,471
916,9	23,786
917,4	29,929
917,8	30,271
918,2	26,3
918,6	16,157
919,1	17,043
919,5	19,729
919,9	20,3
920,3	15,957
920,8	16,271
921,2	22,529
921,6	28,671
922	28,5
922,5	22,214
922,9	21,786
923,3	21,214
923,7	20,386
924,2	16,671
924,6	13,014
925	14,957
925,4	17,7
925,8	18,986
926,3	19,786
926,7	16,643
927,1	14,557
927,5	17,271
928	12,043
928,4	11,214
928,8	11,586
929,2	11,671
929,7	16,443
930,1	19,3
930,5	17,186
930,9	22,9
931,3	22,3
931,8	20,929
932,2	17,986
932,6	13,557
933	8,757
933,5	9,271
933,9	4,586
934,3	6,186
934,7	1,729
935,2	5,071
935,6	8,243
936	13,786
936,4	16,414
936,8	18,414
937,3	17,414
937,7	20,757
938,1	22,014
938,5	18,557
939	17,614
939,4	16,614
939,8	14,043
940,2	13,5
940,6	13,843
941,1	9,1
941,5	12,7
941,9	8,957
942,3	1,471
942,8	3,786
943,2	7,5
943,6	6,043
944	9,614
944,4	10,414
944,9	12,186
945,3	22,443
945,7	17,386
946,1	12,443
946,6	7,5
947	4,357
947,4	3,871
947,8	5,5
948,2	2,643
948,7	6,043
949,1	6,443
949,5	16,271
949,9	19,471
950,3	17,7
950,8	15,671
951,2	13,357
951,6	13,9
952	14,157
952,5	7,9
952,9	7,843
953,3	8,014
953,7	10,186
954,1	11,329
954,6	14,557
955	17,414
955,4	17,786
955,8	22,1
956,2	22,557
956,7	23,071
957,1	16,786
957,5	15,043
957,9	13,129
958,3	12,643
958,8	8,814
959,2	8,071
959,6	8,871
960	13,471
960,5	13,929
960,9	15,786
961,3	12,529
961,7	9,814
962,1	4,871
962,6	2,186
963	4,329
963,4	-0,3
963,8	-0,043
964,2	5,414
964,7	6,443
965,1	13,757
965,5	14,243
965,9	11,471
966,3	15,786
966,8	12,3
967,2	12,243
967,6	11,443
968	2,214
968,4	-1,271
968,9	3,957
969,3	7,071
969,7	5,3
970,1	7,357
970,5	6,957
971	14,529
971,4	19,5
971,8	14,9
972,2	13,129
972,6	17,443
973,1	14,1
973,5	16,643
973,9	17,557
974,3	14,671
974,7	19,157
975,2	19,357
975,6	16,5
976	19,986
976,4	15,843
976,8	14,786
977,3	17,586
977,7	14,186
978,1	10,3
978,5	7,443
978,9	2,929
979,4	6,186
979,8	1,643
980,2	-2,186
980,6	-7,329
981	-2,3
981,5	2,329
981,9	3,071
982,3	3,871
982,7	9,243
983,1	12,157
983,6	16,9
984	14,729
984,4	15,843
984,8	15,757
985,2	14,043
985,6	9,643
986,1	11,3
986,5	12,814
986,9	9,071
987,3	9,443
987,7	10,586
988,2	7,843
988,6	9,443
989	2,5
989,4	-1,043
989,8	0,586
990,3	0,7
990,7	-1,671
991,1	1,271
991,5	5,443
991,9	11,643
992,3	14,557
992,8	14,9
993,2	9,471
993,6	9,843
994	12,843
994,4	12,729
994,9	11,614
995,3	10,043
995,7	9,843
996,1	13,186
996,5	16,929
996,9	8,614
997,4	8,957
997,8	5,529
998,2	3,671
998,6	-2,529
999	-2,157
999,5	-5,986
999,9	-3,3
1000,3	-9,014
1000,7	-6,529
1001,1	-6,557
1001,5	0,671
1002	4,9
1002,4	9,786
1002,8	11,157
1003,2	13,557
1003,6	15,643
1004	18,729
1004,5	17,1
1004,9	13,3
1005,3	9,671
1005,7	12,671
1006,1	10,329
1006,6	9,586
1007	12,3
1007,4	8,529
1007,8	6,986
1008,2	6,643
1008,6	6,071
1009,1	8,357
1009,5	5,7
1009,9	4,643
1010,3	11,186
1010,7	11,671
1011,1	14,529
1011,6	16,071
1012	18,586
1012,4	21,614
1012,8	18,1
1013,2	21,586
1013,6	20,7
1014,1	20,957
1014,5	16,7
1014,9	16,9
1015,3	12,3
1015,7	16,186
1016,1	11,5
1016,6	13,014
1017	11,3
1017,4	10,129
1017,8	4,871
1018,2	10,329
1018,6	3,643
1019,1	2,443
1019,5	0,214
1019,9	-4,329
1020,3	2,329
1020,7	6,071
1021,1	1,471
1021,6	5,271
1022	8,814
1022,4	12,157
1022,8	14,7
1023,2	14,043
1023,6	11,357
1024,1	21,157
1024,5	22,614
1024,9	18,929
1025,3	17,9
1025,7	17,329
1026,1	15,843
1026,6	18,557
1027	13,671
1027,4	15,814
1027,8	14,186
1028,2	16,071
1028,6	22,3
1029	22,871
1029,5	29,7
1029,9	24,729
1030,3	22,786
1030,7	27,386
1031,1	23,5
1031,5	16,329
1032	14,843
1032,4	7,986
1032,8	8,643
1033,2	6,957
1033,6	4,5
1034	5,614
1034,4	5,271
1034,9	6,243
1035,3	0,986
1035,7	7,129
1036,1	3,957
1036,5	1,7
1036,9	3,329
1037,4	13,3
1037,8	8,3
1038,2	11,843
1038,6	6,729
1039	13,729
1039,4	20,271
1039,8	17,157
1040,3	11,529
1040,7	11,9
1041,1	16,9
1041,5	17,786
1041,9	13,786
1042,3	10,3
1042,7	14,1
1043,2	12,386
1043,6	11,614
1044	6,929
1044,4	6,671
1044,8	10,386
1045,2	11,243
1045,6	12,014
1046,1	12,614
1046,5	12,5
1046,9	11,443
1047,3	13,671
1047,7	9,471
1048,1	3,7
1048,5	0,5
1049	3,586
1049,4	12,043
1049,8	13,614
1050,2	11,957
1050,6	18,043
1051	22,529
1051,4	21,843
1051,9	17,186
1052,3	20,929
1052,7	23,7
1053,1	22,043
1053,5	18,929
1053,9	15,671
1054,3	17,357
1054,8	23,186
1055,2	18,986
1055,6	19,271
1056	20,9
1056,4	19,843
1056,8	24,357
1057,2	20,271
1057,6	16,357
1058,1	12,157
1058,5	5,7
1058,9	6,957
1059,3	10,586
1059,7	7,014
1060,1	9,557
1060,5	9,071
1061	9,529
1061,4	9,214
1061,8	7,9
1062,2	2,186
1062,6	5,157
1063	11,3
1063,4	10,186
1063,8	9,186
1064,3	11,729
1064,7	12,557
1065,1	12,586
1065,5	7,1
1065,9	-1,329
1066,3	-2,271
1066,7	-7,157
1067,1	-6,186
1067,6	-5,986
1068	-6,814
1068,4	-0,414
1068,8	3,586
1069,2	3,871
1069,6	9,871
1070	12,471
1070,4	10,757
1070,9	9,329
1071,3	6,643
1071,7	3,786
1072,1	9,557
1072,5	4,1
1072,9	1,243
1073,3	7,586
1073,7	7,986
1074,2	9,386
1074,6	15,729
1075	9,471
1075,4	10,643
1075,8	13,786
1076,2	9,614
1076,6	12,843
1077	10,186
1077,5	7,786
1077,9	5,014
1078,3	8,014
1078,7	5,643
1079,1	0,643
1079,5	2,071
1079,9	2,214
1080,3	-0,043
1080,7	4,129
1081,2	6,843
1081,6	2,529
1082	6,843
1082,4	9,186
1082,8	12,386
1083,2	12,614
1083,6	14,9
1084	10,843
1084,5	15,271
1084,9	12,957
1085,3	6,014
1085,7	6,443
1086,1	4,843
1086,5	6,357
1086,9	11,243
1087,3	11,329
1087,7	10,929
1088,2	11,443
1088,6	9,214
1089	14,643
1089,4	11,5
1089,8	8,214
1090,2	7,243
1090,6	8,157
1091	14,071
1091,4	18,557
1091,9	14,929
1092,3	17,757
1092,7	14,214
1093,1	15,157
1093,5	17,014
1093,9	13,3
1094,3	12,243
1094,7	11,843
1095,1	14,214
1095,5	19,329
1096	15,814
1096,4	15,243
1096,8	15,157
1097,2	12,157
1097,6	15,957
1098	11,986
1098,4	11,357
1098,8	15,271
1099,2	20,271
1099,6	17,357
1100,1	14,814
1100,5	9,614
1100,9	6,9
1101,3	8,071
1101,7	5,843
1102,1	-1,443
1102,5	4,529
1102,9	8,957
1103,3	11,757
1103,7	14,614
1104,2	12,443
1104,6	13,243
1105	14,129
1105,4	11,129
1105,8	7,471
1106,2	4,9
1106,6	3,271
1107	2,157
1107,4	1,167
1107,8	1,38
1108,3	-0,25
