Data from Subt2_067.txt Node
Date: Sat Aug 26 16:34:09 MSK 2023
User: vat
Spectrometer: MAYP114033
Trigger mode: 0
Integration Time (sec): 1,000000E0
Scans to average: 5
Electric dark correction enabled: true
Nonlinearity correction enabled: false
Boxcar width: 3
XAxis mode: Wavelengths
Number of Pixels in Spectrum: 2068
>>>>>Begin Spectral Data<<<<<
199,4	-1,283
199,9	-0,333
200,4	-1,133
200,8	-0,276
201,3	1,038
201,8	1,095
202,2	1,152
202,7	4,695
203,2	5,524
203,6	6,952
204,1	8,181
204,6	9,81
205	10,067
205,5	10,095
206	8,81
206,4	8,438
206,9	4,895
207,4	6,038
207,8	1,667
208,3	3,01
208,8	2,552
209,2	2,324
209,7	1,952
210,2	9,867
210,6	8,152
211,1	10,238
211,5	8,61
212	5,924
212,5	5,552
212,9	6,067
213,4	-0,648
213,9	-4,448
214,3	-3,362
214,8	-2,762
215,3	0,838
215,7	-0,59
216,2	2,181
216,7	2,781
217,1	4,067
217,6	4,467
218,1	1,81
218,5	4,552
219	13,438
219,5	12,667
219,9	14,667
220,4	15,581
220,9	16,552
221,3	17,924
221,8	10,752
222,3	3,524
222,7	-0,648
223,2	-1,505
223,6	-2,048
224,1	-3,39
224,6	-1,219
225	3,381
225,5	9,61
226	8,067
226,4	12,952
226,9	10,895
227,4	12,41
227,8	13,381
228,3	16,81
228,8	9,695
229,2	12,324
229,7	6,238
230,2	15,01
230,6	8,581
231,1	6,752
231,5	4,524
232	11,552
232,5	12,495
232,9	16,181
233,4	11,295
233,9	18,352
234,3	17,324
234,8	16,581
235,3	11,81
235,7	14,552
236,2	15,41
236,7	14,752
237,1	12,181
237,6	13,581
238,1	12,667
238,5	14,152
239	11,324
239,4	12,152
239,9	11,924
240,4	12,638
240,8	15,181
241,3	11,781
241,8	6,467
242,2	7,867
242,7	5,981
243,2	5,924
243,6	2,467
244,1	-0,505
244,6	0,638
245	3,038
245,5	2,524
245,9	2,638
246,4	4,838
246,9	5,095
247,3	5,895
247,8	8,181
248,3	11,81
248,7	17,381
249,2	13,438
249,7	12,467
250,1	14,152
250,6	11,095
251	10,581
251,5	2,81
252	-4,219
252,4	-0,076
252,9	-3,676
253,4	-3,133
253,8	-2,619
254,3	-1,562
254,8	1,752
255,2	2,038
255,7	4,095
256,1	7,495
256,6	8,01
257,1	11,61
257,5	16,095
258	16,038
258,5	17,438
258,9	13,695
259,4	15,924
259,9	17,381
260,3	14,924
260,8	13,295
261,2	20,152
261,7	22,724
262,2	19,781
262,6	15,01
263,1	13,381
263,6	16,895
264	12,238
264,5	6,581
264,9	1,524
265,4	6,295
265,9	8,81
266,3	9,724
266,8	8,01
267,3	10,867
267,7	10,867
268,2	11,267
268,7	6,724
269,1	7,067
269,6	6,524
270	8,667
270,5	9,152
271	8,924
271,4	6,695
271,9	7,181
272,4	5,952
272,8	5,467
273,3	1,638
273,7	-4,39
274,2	-5,59
274,7	-0,705
275,1	-2,305
275,6	0,181
276,1	3,638
276,5	10,181
277	15,581
277,4	17,124
277,9	12,867
278,4	17,467
278,8	21,438
279,3	15,21
279,8	12,952
280,2	9,095
280,7	7,952
281,1	13,895
281,6	12,924
282,1	10,81
282,5	13,638
283	10,495
283,4	10,352
283,9	10,638
284,4	4,352
284,8	4,667
285,3	-0,019
285,8	0,01
286,2	-4,619
286,7	-3,448
287,1	-6,533
287,6	-0,162
288,1	0,267
288,5	5,924
289	6,438
289,5	9,267
289,9	8,124
290,4	9,438
290,8	11,181
291,3	8,038
291,8	4,238
292,2	4,61
292,7	4,61
293,1	8,695
293,6	13,267
294,1	3,438
294,5	10,524
295	10,667
295,5	12,724
295,9	16,981
296,4	16,152
296,8	11,01
297,3	15,352
297,8	10,324
298,2	7,01
298,7	2,695
299,1	0,952
299,6	2,838
300,1	4,924
300,5	7,581
301	10,067
301,5	12,038
301,9	11,152
302,4	12,038
302,8	12,067
303,3	12,981
303,8	7,495
304,2	3,581
304,7	3,838
305,1	4,467
305,6	-3,562
306,1	-8,648
306,5	-6,733
307	-0,505
307,4	-1,048
307,9	-2,362
308,4	1,952
308,8	15,638
309,3	16,067
309,8	17,238
310,2	14,81
310,7	20,038
311,1	19,638
311,6	16,924
312,1	10,81
312,5	12,524
313	10,095
313,4	11,181
313,9	14,638
314,4	12,352
314,8	15,781
315,3	13,41
315,7	14,124
316,2	14,095
316,7	12,952
317,1	8,524
317,6	11,524
318	12,41
318,5	18,495
319	19,952
319,4	19,638
319,9	20,752
320,3	20,895
320,8	25,695
321,3	20,867
321,7	14,438
322,2	13,695
322,6	10,238
323,1	10,467
323,6	9,124
324	5,724
324,5	4,181
324,9	7,952
325,4	5,181
325,9	9,952
326,3	8,724
326,8	11,352
327,2	10,295
327,7	12,238
328,2	7,152
328,6	12,524
329,1	11,295
329,5	15,495
330	12,381
330,5	14,61
330,9	14,952
331,4	17,552
331,8	17,838
332,3	21,152
332,8	16,467
333,2	15,352
333,7	14,952
334,1	17,752
334,6	18,067
335,1	15,81
335,5	14,495
336	9,152
336,4	10,524
336,9	11,981
337,4	9,181
337,8	9,152
338,3	8,867
338,7	7,067
339,2	12,381
339,7	14,752
340,1	11,295
340,6	8,295
341	13,867
341,5	12,067
342	10,067
342,4	9,867
342,9	4,667
343,3	7,095
343,8	12,41
344,2	9,038
344,7	7,324
345,2	5,038
345,6	4,781
346,1	8,038
346,5	6,581
347	7,695
347,5	3,695
347,9	7,352
348,4	13,781
348,8	13,581
349,3	14,152
349,8	14,838
350,2	13,267
350,7	18,924
351,1	20,752
351,6	18,21
352	25,438
352,5	26,181
353	34,352
353,4	40,495
353,9	47,181
354,3	56,838
354,8	66,295
355,3	77,467
355,7	94,838
356,2	108,81
356,6	131,667
357,1	155,381
357,5	181,21
358	215,924
358,5	255,067
358,9	296,181
359,4	347,924
359,8	391,152
360,3	447,438
360,8	509,952
361,2	585,038
361,7	658,581
362,1	747,952
362,6	838,581
363	942,924
363,5	1051,724
364	1163,61
364,4	1276,295
364,9	1388,152
365,3	1498,61
365,8	1602,524
366,3	1707,81
366,7	1801,438
367,2	1882,524
367,6	1949,238
368,1	2002,695
368,5	2032,781
369	2049,438
369,5	2047,981
369,9	2030,752
370,4	2000,352
370,8	1954,724
371,3	1902,667
371,7	1834,352
372,2	1761,324
372,7	1670,181
373,1	1588,695
373,6	1496,381
374	1400,267
374,5	1303,038
374,9	1212,41
375,4	1125,61
375,9	1050,981
376,3	965,552
376,8	892,667
377,2	825,81
377,7	758,724
378,2	696,752
378,6	640,924
379,1	587,381
379,5	539,352
380	496,638
380,4	454,038
380,9	422,581
381,4	395,238
381,8	363,867
382,3	334,438
382,7	308,238
383,2	283,095
383,6	266,381
384,1	247,895
384,6	227,695
385	213,81
385,5	201,667
385,9	189,467
386,4	180,152
386,8	171,295
387,3	159,581
387,7	154,752
388,2	142,724
388,7	131,352
389,1	126,467
389,6	115,724
390	104,81
390,5	95,924
390,9	92,038
391,4	93,381
391,9	88,867
392,3	78,952
392,8	75,41
393,2	70,267
393,7	70,581
394,1	68,752
394,6	64,181
395,1	65,581
395,5	67,724
396	68,981
396,4	68,495
396,9	68,781
397,3	57,695
397,8	51,21
398,2	45,295
398,7	38,238
399,2	34,038
399,6	34,438
400,1	29,667
400,5	37,524
401	44,61
401,4	47,381
401,9	49,381
402,4	47,838
402,8	47,724
403,3	44,495
403,7	40,981
404,2	37,924
404,6	35,324
405,1	35,381
405,5	36,438
406	35,038
406,5	37,581
406,9	34,124
407,4	34,695
407,8	40,238
408,3	42,067
408,7	46,638
409,2	47,095
409,6	48,61
410,1	54,552
410,6	55,495
411	54,01
411,5	53,752
411,9	49,552
412,4	56,152
412,8	60,038
413,3	60,495
413,7	60,038
414,2	64,524
414,7	69,638
415,1	71,495
415,6	70,524
416	76,181
416,5	81,095
416,9	84,552
417,4	87,467
417,8	89,924
418,3	97,552
418,8	97,381
419,2	95,638
419,7	98,781
420,1	98,01
420,6	99,181
421	98,238
421,5	101,124
421,9	105,495
422,4	108,238
422,8	109,067
423,3	113,41
423,8	121,552
424,2	118,981
424,7	116,41
425,1	111,981
425,6	110,752
426	109,438
426,5	107,952
426,9	100,095
427,4	102,352
427,9	98,41
428,3	100,695
428,8	103,438
429,2	97,01
429,7	93,724
430,1	94,295
430,6	96,752
431	98,124
431,5	99,667
431,9	98,667
432,4	108,095
432,8	113,438
433,3	112,581
433,8	115,181
434,2	121,638
434,7	121,21
435,1	121,41
435,6	125,381
436	127,324
436,5	133,638
436,9	135,81
437,4	142,152
437,8	150,41
438,3	157,924
438,8	156,438
439,2	160,41
439,7	163,724
440,1	172,267
440,6	176,095
441	180,924
441,5	185,81
441,9	198,895
442,4	216,381
442,8	224,067
443,3	229,352
443,7	236,381
444,2	247,781
444,7	260,238
445,1	264,495
445,6	265,324
446	278,752
446,5	288,41
446,9	301,667
447,4	312,638
447,8	321,781
448,3	341,438
448,7	357,295
449,2	368,61
449,6	387,267
450,1	404,124
450,6	418,095
451	432,095
451,5	441,552
451,9	456,41
452,4	475,067
452,8	492,981
453,3	509,324
453,7	525,381
454,2	543,581
454,6	565,552
455,1	581,038
455,5	602,267
456	619,81
456,4	637,981
456,9	661,952
457,3	686,438
457,8	703,952
458,3	734,21
458,7	759,952
459,2	786,61
459,6	811,838
460,1	833,124
460,5	860,181
461	887,095
461,4	912,781
461,9	934,438
462,3	959,81
462,8	991,181
463,2	1025,181
463,7	1050,581
464,1	1085,61
464,6	1110,581
465	1143,952
465,5	1178,238
466	1207,924
466,4	1236,781
466,9	1271,724
467,3	1299,181
467,8	1342,095
468,2	1366,924
468,7	1392,81
469,1	1427,181
469,6	1457,752
470	1486,895
470,5	1521,924
470,9	1544,581
471,4	1585,952
471,8	1619,124
472,3	1643,324
472,7	1678,581
473,2	1709,124
473,6	1740,238
474,1	1769,181
474,5	1796,067
475	1828,924
475,4	1865,181
475,9	1899,61
476,4	1929,438
476,8	1964,038
477,3	2000,038
477,7	2032,238
478,2	2064,81
478,6	2092,924
479,1	2122,695
479,5	2157,267
480	2186,41
480,4	2218,095
480,9	2248,638
481,3	2275,752
481,8	2312,352
482,2	2334,352
482,7	2359,838
483,1	2386,467
483,6	2408,152
484	2433,867
484,5	2457,467
484,9	2476,952
485,4	2499,438
485,8	2522,81
486,3	2543,667
486,7	2565,981
487,2	2583,838
487,6	2601,667
488,1	2620,067
488,5	2640,067
489	2655,581
489,4	2670,352
489,9	2687,952
490,4	2706,667
490,8	2724,581
491,3	2738,781
491,7	2749,552
492,2	2764,267
492,6	2776,181
493,1	2785,41
493,5	2792,467
494	2804,438
494,4	2808,867
494,9	2823,895
495,3	2835,324
495,8	2844,781
496,2	2855,524
496,7	2862,667
497,1	2870,095
497,6	2884,724
498	2887,01
498,5	2895,095
498,9	2896,895
499,4	2897,524
499,8	2901,781
500,3	2907,01
500,7	2902,867
501,2	2908,067
501,6	2911,895
502,1	2920,095
502,5	2929,61
503	2938,295
503,4	2935,01
503,9	2938,638
504,3	2942,267
504,8	2940,381
505,2	2940,467
505,7	2945,324
506,1	2943,838
506,6	2945,295
507	2948,61
507,5	2951,695
507,9	2955,695
508,4	2955,324
508,8	2953,581
509,3	2953,981
509,7	2954,667
510,2	2952,952
510,6	2945,924
511,1	2945,21
511,5	2946,838
512	2944,952
512,4	2946,867
512,9	2944,295
513,3	2951,581
513,8	2955,752
514,2	2952,21
514,7	2952,295
515,1	2949,638
515,6	2939,781
516	2942,552
516,5	2934,781
516,9	2931,067
517,4	2932,01
517,8	2924,924
518,3	2920,752
518,7	2922,01
519,2	2920,095
519,6	2921,781
520,1	2921,324
520,5	2915,867
521	2914,781
521,4	2910,524
521,9	2914,895
522,3	2912,238
522,8	2913,267
523,2	2911,352
523,7	2909,667
524,1	2917,952
524,6	2920,438
525	2921,124
525,5	2924,124
525,9	2917,41
526,4	2916,781
526,8	2921,638
527,3	2920,638
527,7	2926,667
528,2	2922,324
528,6	2921,981
529,1	2924,295
529,5	2926,952
530	2924,495
530,4	2923,981
530,9	2918,581
531,3	2914,467
531,8	2918,267
532,2	2915,524
532,6	2915,895
533,1	2917,695
533,5	2916,867
534	2920,095
534,4	2925,724
534,9	2922,81
535,3	2928,295
535,8	2932,095
536,2	2933,01
536,7	2932,238
537,1	2936,895
537,6	2944,495
538	2947,581
538,5	2952,495
538,9	2950,467
539,4	2957,295
539,8	2957,981
540,3	2952,638
540,7	2949,895
541,2	2954,495
541,6	2958,81
542,1	2960,581
542,5	2956,524
543	2963,638
543,4	2973,838
543,9	2977,752
544,3	2981,41
544,8	2978,952
545,2	2985,724
545,7	2989,895
546,1	2993,981
546,5	2992,981
547	2994,924
547,4	2996,21
547,9	3001,581
548,3	3006,467
548,8	3013,438
549,2	3019,038
549,7	3024,924
550,1	3035,581
550,6	3042,381
551	3049,724
551,5	3051,724
551,9	3058,181
552,4	3051,667
552,8	3055,838
553,3	3054,752
553,7	3051,438
554,2	3044,781
554,6	3043,124
555,1	3047,095
555,5	3056,067
555,9	3055,095
556,4	3052,981
556,8	3058,067
557,3	3064,467
557,7	3070,752
558,2	3063,895
558,6	3071,895
559,1	3077,352
559,5	3081,638
560	3085,752
560,4	3092,924
560,9	3098,324
561,3	3111,524
561,8	3112,095
562,2	3112,867
562,7	3116,41
563,1	3118,01
563,6	3111,61
564	3113,152
564,4	3108,838
564,9	3103,438
565,3	3113,01
565,8	3118,952
566,2	3119,667
566,7	3121,81
567,1	3123,495
567,6	3126,381
568	3137,952
568,5	3131,352
568,9	3130,924
569,4	3133,61
569,8	3138,724
570,3	3136,095
570,7	3125,552
571,1	3121,21
571,6	3119,524
572	3119,01
572,5	3117,124
572,9	3122,752
573,4	3124,038
573,8	3134,752
574,3	3133,152
574,7	3139,095
575,2	3134,324
575,6	3129,495
576,1	3123,924
576,5	3127,21
576,9	3129,495
577,4	3123,724
577,8	3119,095
578,3	3112,81
578,7	3113,895
579,2	3113,267
579,6	3108,067
580,1	3099,924
580,5	3098,924
581	3091,924
581,4	3093,952
581,9	3090,581
582,3	3082,524
582,7	3077,21
583,2	3067,638
583,6	3062,41
584,1	3062,067
584,5	3057,267
585	3059,095
585,4	3053,152
585,9	3049,124
586,3	3051,152
586,8	3043,01
587,2	3040,181
587,6	3034,695
588,1	3028,124
588,5	3023,895
589	3017,924
589,4	3007,552
589,9	3009,981
590,3	3001,981
590,8	3003,238
591,2	2996,81
591,7	2994,81
592,1	2990,838
592,5	2990,038
593	2982,352
593,4	2979,581
593,9	2966,124
594,3	2949,981
594,8	2945,524
595,2	2942,752
595,7	2939,638
596,1	2939,238
596,6	2936,981
597	2944,667
597,4	2945,981
597,9	2939,152
598,3	2935,867
598,8	2929,81
599,2	2918,581
599,7	2911,781
600,1	2898,038
600,6	2897,381
601	2893,724
601,4	2886,867
601,9	2878,867
602,3	2878,752
602,8	2873,038
603,2	2870,01
603,7	2860,581
604,1	2855,01
604,6	2841,81
605	2836,324
605,4	2830,981
605,9	2819,21
606,3	2811,295
606,8	2802,495
607,2	2800,952
607,7	2796,924
608,1	2790,21
608,6	2779,724
609	2776,695
609,4	2762,41
609,9	2757,152
610,3	2740,952
610,8	2737,838
611,2	2729,924
611,7	2717,667
612,1	2712,781
612,6	2708,867
613	2704,41
613,4	2692,21
613,9	2680,695
614,3	2675,867
614,8	2660,324
615,2	2650,495
615,7	2645,152
616,1	2630,152
616,6	2625,21
617	2613,181
617,4	2598,724
617,9	2595,867
618,3	2584,438
618,8	2569,41
619,2	2565,038
619,7	2556,352
620,1	2543,981
620,5	2537,21
621	2528,867
621,4	2515,41
621,9	2504,152
622,3	2490,438
622,8	2473,181
623,2	2466,638
623,6	2448,181
624,1	2442,095
624,5	2436,381
625	2426,324
625,4	2416,781
625,9	2411,752
626,3	2400,238
626,8	2395,381
627,2	2380,124
627,6	2369,124
628,1	2362,495
628,5	2348,695
629	2340,495
629,4	2328,781
629,9	2317,438
630,3	2308,724
630,7	2294,524
631,2	2282,01
631,6	2273,295
632,1	2259,61
632,5	2253,752
633	2239,095
633,4	2227,867
633,8	2212,01
634,3	2202,524
634,7	2191,724
635,2	2184,124
635,6	2165,124
636,1	2163,752
636,5	2152,21
636,9	2146,552
637,4	2138,524
637,8	2129,867
638,3	2116,238
638,7	2111,581
639,2	2099,438
639,6	2091,067
640	2078,924
640,5	2064,695
640,9	2052,21
641,4	2044,438
641,8	2037,01
642,2	2022,781
642,7	2013,267
643,1	2006,01
643,6	1997,01
644	1987,952
644,5	1976,381
644,9	1966,838
645,3	1964,124
645,8	1955,095
646,2	1950,524
646,7	1942,81
647,1	1936,61
647,6	1928,152
648	1919,124
648,4	1905,581
648,9	1898,895
649,3	1885,038
649,8	1874,695
650,2	1862,41
650,6	1854,638
651,1	1845,381
651,5	1837,352
652	1825,61
652,4	1816,952
652,9	1805,952
653,3	1801,61
653,7	1795,81
654,2	1785,095
654,6	1772,524
655,1	1759,067
655,5	1748,01
655,9	1743,838
656,4	1731,638
656,8	1721,095
657,3	1708,21
657,7	1698,181
658,2	1696,495
658,6	1683,524
659	1671,667
659,5	1660,238
659,9	1649,295
660,4	1645,752
660,8	1639,295
661,2	1624,41
661,7	1620,638
662,1	1611,01
662,6	1603,781
663	1596,895
663,4	1582,924
663,9	1575,381
664,3	1569,838
664,8	1559,467
665,2	1551,295
665,6	1541,267
666,1	1529,981
666,5	1523,267
667	1507,924
667,4	1499,181
667,9	1487,495
668,3	1475,324
668,7	1469,61
669,2	1459,581
669,6	1446,838
670,1	1446,324
670,5	1434,038
670,9	1427,952
671,4	1426,267
671,8	1413,695
672,3	1406,867
672,7	1399,81
673,1	1383,61
673,6	1375,838
674	1368,21
674,5	1359,095
674,9	1351,524
675,3	1342,838
675,8	1337,638
676,2	1337,267
676,7	1328,61
677,1	1319,724
677,5	1308,381
678	1302,581
678,4	1294,952
678,9	1288,438
679,3	1277,01
679,7	1268,924
680,2	1267,295
680,6	1260,267
681,1	1253,038
681,5	1242,752
681,9	1231,781
682,4	1224,181
682,8	1212,581
683,3	1195,552
683,7	1186,924
684,1	1178,038
684,6	1173,095
685	1166,724
685,5	1157,952
685,9	1158,495
686,3	1158,152
686,8	1151,095
687,2	1146,21
687,7	1136,381
688,1	1131,267
688,5	1124,381
689	1119,781
689,4	1112,524
689,9	1109,01
690,3	1102,924
690,7	1096,667
691,2	1087,924
691,6	1084,01
692	1074,438
692,5	1064,752
692,9	1049,381
693,4	1043,781
693,8	1043,724
694,2	1039,21
694,7	1036,352
695,1	1029,495
695,6	1024,124
696	1023,381
696,4	1011,552
696,9	1000,095
697,3	992,781
697,8	982,667
698,2	974,581
698,6	969,838
699,1	959,181
699,5	958,152
699,9	955,41
700,4	944,467
700,8	941,524
701,3	935,267
701,7	928,638
702,1	926,41
702,6	920,438
703	909,352
703,5	905,924
703,9	896,152
704,3	894,067
704,8	888,638
705,2	886,438
705,6	875,295
706,1	875,667
706,5	872,067
707	866,638
707,4	863,01
707,8	861,524
708,3	856,381
708,7	854,838
709,2	846,438
709,6	844,552
710	838,867
710,5	830,752
710,9	819,638
711,3	810,495
711,8	804,038
712,2	802,095
712,7	793,752
713,1	787,638
713,5	781,581
714	780,924
714,4	777,324
714,8	776,467
715,3	771,352
715,7	759,667
716,2	757,495
716,6	752,81
717	744,267
717,5	744,81
717,9	735,181
718,3	725,324
718,8	727,41
719,2	723,524
719,7	723,724
720,1	717,467
720,5	709,381
721	707,352
721,4	707,924
721,8	701,895
722,3	693,895
722,7	679,867
723,2	677,067
723,6	670,295
724	664,295
724,5	653,581
724,9	646,238
725,3	639,895
725,8	641,181
726,2	632,21
726,7	625,495
727,1	619,867
727,5	619,181
728	618,124
728,4	615,695
728,8	608,495
729,3	608,781
729,7	609,581
730,1	605,352
730,6	598,952
731	599,438
731,5	597,924
731,9	600,524
732,3	599,124
732,8	595,295
733,2	591,667
733,6	589,781
734,1	583,752
734,5	576,752
734,9	568,038
735,4	563,581
735,8	558,724
736,3	557,352
736,7	555,21
737,1	554,124
737,6	553,381
738	548,124
738,4	547,695
738,9	544,838
739,3	539,724
739,7	538,552
740,2	533,267
740,6	531,41
741,1	531,695
741,5	522,61
741,9	514,895
742,4	511,095
742,8	508,41
743,2	509,01
743,7	503,667
744,1	497,038
744,5	500,724
745	501,381
745,4	497,095
745,8	489,181
746,3	483,952
746,7	483,581
747,2	485,61
747,6	480,067
748	478,952
748,5	476,438
748,9	472,438
749,3	468,524
749,8	460,924
750,2	453,638
750,6	449,838
751,1	448,867
751,5	449,295
751,9	447,21
752,4	442,952
752,8	441,495
753,3	438,781
753,7	437,524
754,1	433,41
754,6	430,41
755	429,895
755,4	429,81
755,9	426,981
756,3	421,752
756,7	415,41
757,2	410,895
757,6	407,695
758	405,838
758,5	401,038
758,9	398,467
759,3	397,181
759,8	397,61
760,2	398,724
760,6	394,895
761,1	392,181
761,5	393,667
761,9	394,695
762,4	396,267
762,8	395,724
763,3	383,695
763,7	380,724
764,1	375,238
764,6	369,81
765	360,524
765,4	355,495
765,9	347,01
766,3	349,81
766,7	349,667
767,2	350,695
767,6	346,495
768	350,41
768,5	350,781
768,9	352,724
769,3	351,638
769,8	350,181
770,2	348,838
770,6	347,41
771,1	347,752
771,5	344,038
771,9	338,124
772,4	340,438
772,8	336,438
773,2	334,81
773,7	335,438
774,1	330,867
774,5	330,467
775	326,838
775,4	320,124
775,8	318,981
776,3	313,324
776,7	308,552
777,1	309,267
777,6	305,467
778	307,61
778,4	306,581
778,9	304,267
779,3	303,524
779,7	301,924
780,2	293,752
780,6	291,952
781	289,752
781,5	288,981
781,9	289,095
782,3	288,067
782,8	285,667
783,2	288,381
783,6	281,267
784,1	278,467
784,5	273,581
784,9	270,924
785,4	269,924
785,8	265,467
786,2	262,124
786,7	267,981
787,1	270,41
787,5	269,267
788	264,181
788,4	259,552
788,8	258,952
789,3	259,895
789,7	257,038
790,1	248,81
790,6	249,724
791	249,41
791,4	244,41
791,9	240,21
792,3	234,124
792,7	235,81
793,2	233,695
793,6	234,238
794	230,952
794,5	234,924
794,9	241,41
795,3	241,381
795,8	236,581
796,2	237,095
796,6	225,638
797,1	225,095
797,5	223,181
797,9	220,552
798,4	213,981
798,8	209,981
799,2	209,01
799,7	213,524
800,1	209,81
800,5	205,21
801	202,867
801,4	200,438
801,8	200,838
802,2	198,267
802,7	194,81
803,1	194,01
803,5	195,638
804	195,038
804,4	196,038
804,8	196,895
805,3	193,067
805,7	190,695
806,1	193,724
806,6	191,952
807	186,467
807,4	186,638
807,9	181,152
808,3	180,552
808,7	182,552
809,2	178,352
809,6	177,438
810	176,581
810,4	179,552
810,9	178,01
811,3	182,038
811,7	177,638
812,2	178,952
812,6	176,438
813	177,352
813,5	173,781
813,9	171,324
814,3	165,895
814,8	167,21
815,2	164,095
815,6	159,381
816,1	154,181
816,5	151,038
816,9	151,781
817,3	152,667
817,8	158,695
818,2	156,124
818,6	156,438
819,1	163,495
819,5	162,838
819,9	159,524
820,4	162,695
820,8	151,867
821,2	155,01
821,7	157,41
822,1	148,952
822,5	148,781
822,9	153,581
823,4	148,352
823,8	148,352
824,2	142,495
824,7	142,838
825,1	146,238
825,5	149,667
826	145,495
826,4	144,01
826,8	144,181
827,3	145,981
827,7	144,638
828,1	142,095
828,5	135,867
829	134,724
829,4	134,952
829,8	129,552
830,3	127,952
830,7	123,181
831,1	119,324
831,6	115,181
832	111,038
832,4	108,238
832,8	113,038
833,3	111,467
833,7	115,352
834,1	113,581
834,6	112,724
835	117,181
835,4	122,352
835,8	115,981
836,3	113,352
836,7	105,752
837,1	109,467
837,6	108,038
838	101,838
838,4	96,067
838,9	102,924
839,3	108,238
839,7	111,381
840,1	105,381
840,6	111,238
841	112,295
841,4	111,667
841,9	108,552
842,3	104,238
842,7	98,781
843,1	104,638
843,6	103,638
844	104,724
844,4	105,295
844,9	104,238
845,3	103,581
845,7	108,067
846,2	104,438
846,6	98,467
847	93,41
847,4	88,495
847,9	85,124
848,3	86,467
848,7	86,438
849,2	87,467
849,6	88,638
850	86,781
850,4	91,667
850,9	90,124
851,3	84,381
851,7	82,524
852,2	74,895
852,6	77,41
853	82,952
853,4	84,324
853,9	85,067
854,3	85,095
854,7	79,267
855,2	81,095
855,6	75,324
856	73,61
856,4	71,324
856,9	71,667
857,3	72,524
857,7	79,667
858,2	77,695
858,6	82,581
859	78,152
859,4	74,295
859,9	73,524
860,3	76,467
860,7	72,238
861,1	76,81
861,6	73,01
862	72,667
862,4	74,524
862,9	76,181
863,3	69,581
863,7	64,695
864,1	62,381
864,6	62,181
865	62,41
865,4	57,838
865,9	51,152
866,3	51,181
866,7	56,41
867,1	56,21
867,6	54,924
868	56,638
868,4	57,095
868,8	63,124
869,3	67,467
869,7	62,152
870,1	62,267
870,6	62,495
871	54,124
871,4	53,552
871,8	52,581
872,3	49,638
872,7	55,324
873,1	59,552
873,5	61,638
874	70,724
874,4	68,867
874,8	66,124
875,3	64,867
875,7	57,981
876,1	49,695
876,5	50,352
877	46,524
877,4	47,724
877,8	48,267
878,2	50,552
878,7	60,41
879,1	63,124
879,5	60,895
879,9	60,581
880,4	59,181
880,8	58,01
881,2	59,524
881,7	57,495
882,1	54,295
882,5	50,495
882,9	50,495
883,4	54,724
883,8	54,124
884,2	50,638
884,6	47,467
885,1	54,324
885,5	59,581
885,9	66,238
886,3	66,467
886,8	63,924
887,2	60,067
887,6	57,724
888	51,467
888,5	51,981
888,9	47,381
889,3	39,038
889,8	40,038
890,2	41,81
890,6	42,152
891	44,267
891,5	40,495
891,9	39,467
892,3	41,41
892,7	41,095
893,2	42,667
893,6	39,238
894	36,381
894,4	30,038
894,9	27,467
895,3	27,524
895,7	27,667
896,1	25,295
896,6	24,895
897	26,638
897,4	28,924
897,8	33,095
898,3	36,924
898,7	35,295
899,1	36,495
899,5	35,581
900	36,181
900,4	35,552
900,8	37,238
901,2	33,381
901,7	35,352
902,1	35,267
902,5	35,638
902,9	31,524
903,4	35,324
903,8	29,552
904,2	31,267
904,6	31,095
905,1	30,781
905,5	30,838
905,9	31,952
906,3	29,01
906,8	28,781
907,2	26,552
907,6	26,01
908	23,181
908,5	24,752
908,9	23,524
909,3	23,095
909,7	22,867
910,2	22,638
910,6	21,095
911	24,01
911,4	22,924
911,9	25,952
912,3	25,067
912,7	25,467
913,1	21,924
913,6	24,438
914	22,838
914,4	23,695
914,8	23,295
915,3	25,124
915,7	23,752
916,1	25,124
916,5	26,238
916,9	26,524
917,4	26,581
917,8	24,21
918,2	21,495
918,6	22,952
919,1	25,695
919,5	23,781
919,9	20,238
920,3	20,695
920,8	21,495
921,2	26,667
921,6	20,438
922	16,41
922,5	20,524
922,9	20,267
923,3	21,124
923,7	17,467
924,2	11,752
924,6	15,295
925	20,152
925,4	15,438
925,8	15,238
926,3	18,41
926,7	22,81
927,1	26,438
927,5	29,981
928	27,924
928,4	26,952
928,8	32,21
929,2	28,438
929,7	23,552
930,1	23,238
930,5	17,438
930,9	17,381
931,3	19,41
931,8	17,124
932,2	16,867
932,6	20,581
933	15,838
933,5	18,495
933,9	19,667
934,3	13,038
934,7	15,124
935,2	15,524
935,6	17,181
936	22,667
936,4	24,01
936,8	20,81
937,3	22,781
937,7	20,895
938,1	13,867
938,5	9,924
939	9,667
939,4	8,61
939,8	13,124
940,2	12,381
940,6	11,267
941,1	18,295
941,5	19,924
941,9	20,295
942,3	18,924
942,8	16,381
943,2	16,324
943,6	17,067
944	17,038
944,4	16,352
944,9	14,181
945,3	18,61
945,7	18,667
946,1	21,981
946,6	18,524
947	19,067
947,4	17,124
947,8	16,924
948,2	12,181
948,7	14,61
949,1	12,924
949,5	18,924
949,9	15,81
950,3	20,295
950,8	20,781
951,2	23,895
951,6	21,638
952	20,067
952,5	16,895
952,9	13,781
953,3	7,695
953,7	9,981
954,1	8,667
954,6	6,038
955	7,952
955,4	7,095
955,8	11,667
956,2	9,752
956,7	8,524
957,1	6,867
957,5	7,867
957,9	10,724
958,3	11,638
958,8	10,581
959,2	17,238
959,6	14,638
960	14,01
960,5	15,467
960,9	13,81
961,3	13,467
961,7	8,495
962,1	2,752
962,6	0,981
963	1,924
963,4	1,724
963,8	0,41
964,2	-0,876
964,7	1,095
965,1	6,21
965,5	8,552
965,9	9,981
966,3	8,267
966,8	10,324
967,2	12,752
967,6	14,667
968	14,067
968,4	17,81
968,9	21,981
969,3	20,61
969,7	17,152
970,1	12,41
970,5	17,067
971	16,095
971,4	15,01
971,8	12,295
972,2	15,524
972,6	14,495
973,1	19,067
973,5	18,467
973,9	16,238
974,3	9,752
974,7	6,038
975,2	4,467
975,6	3,552
976	6,638
976,4	2,124
976,8	4,295
977,3	9,41
977,7	4,981
978,1	6,381
978,5	8,667
978,9	3,867
979,4	4,924
979,8	6,867
980,2	1,695
980,6	6,01
981	9,724
981,5	9,981
981,9	8,695
982,3	7,095
982,7	5,21
983,1	9,467
983,6	10,124
984	6,667
984,4	6,838
984,8	9,495
985,2	12,01
985,6	13,61
986,1	9,981
986,5	8,181
986,9	9,667
987,3	6,667
987,7	8,952
988,2	10,667
988,6	10,781
989	12,952
989,4	21,695
989,8	14,781
990,3	17,581
990,7	14,552
991,1	5,495
991,5	0,267
991,9	5,695
992,3	-0,333
992,8	9,238
993,2	10,61
993,6	11,724
994	18,352
994,4	20,581
994,9	18,067
995,3	16,61
995,7	9,095
996,1	8,638
996,5	7,952
996,9	7,524
997,4	10,438
997,8	7,61
998,2	9,752
998,6	11,352
999	9,352
999,5	6,581
999,9	5,438
1000,3	5,181
1000,7	3,552
1001,1	1,924
1001,5	1,267
1002	1,495
1002,4	3,524
1002,8	7,752
1003,2	5,467
1003,6	10,152
1004	10,695
1004,5	9,495
1004,9	9,01
1005,3	5,838
1005,7	-0,79
1006,1	-4,448
1006,6	-4,59
1007	-1,905
1007,4	1,695
1007,8	-0,39
1008,2	-0,133
1008,6	0,295
1009,1	3,667
1009,5	5,438
1009,9	10,038
1010,3	8,21
1010,7	12,781
1011,1	17,324
1011,6	20,41
1012	22,124
1012,4	20,895
1012,8	9,495
1013,2	10,21
1013,6	11,724
1014,1	8,895
1014,5	6,01
1014,9	4,381
1015,3	1,838
1015,7	2,924
1016,1	4,61
1016,6	3,924
1017	5,781
1017,4	7,638
1017,8	7,695
1018,2	6,352
1018,6	13,638
1019,1	9,01
1019,5	8,552
1019,9	9,752
1020,3	13,067
1020,7	11,867
1021,1	15,552
1021,6	10,352
1022	9,495
1022,4	11,381
1022,8	7,524
1023,2	6,295
1023,6	4,467
1024,1	5,124
1024,5	6,667
1024,9	11,238
1025,3	9,038
1025,7	14,924
1026,1	16,524
1026,6	19,695
1027	14,352
1027,4	12,41
1027,8	11,781
1028,2	10,61
1028,6	7,924
1029	4,438
1029,5	5,324
1029,9	7,324
1030,3	10,152
1030,7	9,81
1031,1	4,895
1031,5	0,495
1032	-0,505
1032,4	-3,848
1032,8	-2,162
1033,2	-2,019
1033,6	2,667
1034	7,438
1034,4	13,524
1034,9	10,038
1035,3	16,524
1035,7	14,752
1036,1	13,638
1036,5	4,095
1036,9	4,238
1037,4	3,067
1037,8	7,324
1038,2	-0,648
1038,6	-1,933
1039	-2,19
1039,4	-0,39
1039,8	-2,276
1040,3	-4,762
1040,7	-7,533
1041,1	-1,648
1041,5	-3,133
1041,9	-4,019
1042,3	0,895
1042,7	0,21
1043,2	-0,99
1043,6	8,41
1044	2,21
1044,4	2,152
1044,8	-2,19
1045,2	-1,333
1045,6	6,638
1046,1	10,01
1046,5	6,467
1046,9	11,867
1047,3	14,238
1047,7	19,838
1048,1	16,695
1048,5	10,581
1049	11,838
1049,4	7,695
1049,8	11,381
1050,2	18,381
1050,6	20,524
1051	23,924
1051,4	24,067
1051,9	26,324
1052,3	26,238
1052,7	23,781
1053,1	15,552
1053,5	14,867
1053,9	9,21
1054,3	9,267
1054,8	10,638
1055,2	15,752
1055,6	9,324
1056	11,667
1056,4	11,781
1056,8	17,124
1057,2	19,552
1057,6	10,238
1058,1	5,781
1058,5	9,524
1058,9	13,295
1059,3	15,752
1059,7	8,152
1060,1	4,952
1060,5	4,61
1061	2,495
1061,4	5,924
1061,8	0,924
1062,2	-1,076
1062,6	1,238
1063	1,267
1063,4	6,838
1063,8	10,638
1064,3	6,667
1064,7	4,438
1065,1	2,152
1065,5	8,352
1065,9	7,324
1066,3	2,924
1066,7	1,067
1067,1	-1,076
1067,6	4,381
1068	3,324
1068,4	0,638
1068,8	3,438
1069,2	4,895
1069,6	8,467
1070	15,124
1070,4	10,495
1070,9	10,467
1071,3	12,324
1071,7	11,581
1072,1	17,381
1072,5	14,524
1072,9	13,524
1073,3	14,152
1073,7	15,495
1074,2	17,295
1074,6	19,438
1075	14,552
1075,4	17,295
1075,8	17,238
1076,2	18,981
1076,6	19,552
1077	13,695
1077,5	13,352
1077,9	17,552
1078,3	13,181
1078,7	10,838
1079,1	16,038
1079,5	12,81
1079,9	17,61
1080,3	17,724
1080,7	20,324
1081,2	23,467
1081,6	25,695
1082	20,524
1082,4	20,838
1082,8	18,038
1083,2	10,438
1083,6	6,067
1084	3,838
1084,5	3,552
1084,9	0,952
1085,3	3,01
1085,7	1,181
1086,1	2,238
1086,5	1,267
1086,9	0,724
1087,3	-0,905
1087,7	2,038
1088,2	-0,648
1088,6	-0,648
1089	1,495
1089,4	3,21
1089,8	6,495
1090,2	9,952
1090,6	9,581
1091	15,01
1091,4	17,238
1091,9	21,552
1092,3	18,41
1092,7	15,01
1093,1	8,238
1093,5	7,067
1093,9	7,981
1094,3	9,867
1094,7	7,324
1095,1	7,838
1095,5	8,067
1096	9,867
1096,4	13,781
1096,8	7,295
1097,2	6,095
1097,6	8,552
1098	6,81
1098,4	8,781
1098,8	11,867
1099,2	6,838
1099,6	9,038
1100,1	9,552
1100,5	8,038
1100,9	8,838
1101,3	9,324
1101,7	10,838
1102,1	12,981
1102,5	12,924
1102,9	6,924
1103,3	2,467
1103,7	2,981
1104,2	4,781
1104,6	2,41
1105	4,695
1105,4	5,01
1105,8	8,41
1106,2	11,41
1106,6	9,524
1107	5,638
1107,4	4,767
1107,8	0,987
1108,3	0,067
