Data from Subt2_111.txt Node
Date: Sat Aug 26 18:21:18 MSK 2023
User: vat
Spectrometer: MAYP114033
Trigger mode: 0
Integration Time (sec): 1,000000E0
Scans to average: 5
Electric dark correction enabled: true
Nonlinearity correction enabled: false
Boxcar width: 3
XAxis mode: Wavelengths
Number of Pixels in Spectrum: 2068
>>>>>Begin Spectral Data<<<<<
199,4	-0,383
199,9	1,967
200,4	0,667
200,8	0,967
201,3	1,11
201,8	0,852
202,2	-0,519
202,7	3,995
203,2	2,652
203,6	4,367
204,1	-0,433
204,6	-1,062
205	3,938
205,5	4,51
206	-0,119
206,4	-0,262
206,9	-3,919
207,4	3,852
207,8	4,281
208,3	1,967
208,8	3,167
209,2	4,338
209,7	7,652
210,2	11,595
210,6	8,195
211,1	10,367
211,5	3,081
212	0,367
212,5	-0,29
212,9	-4,148
213,4	-5,033
213,9	-4,976
214,3	-4,948
214,8	0,167
215,3	-3,176
215,7	-4,176
216,2	-4,662
216,7	-2,948
217,1	-5,776
217,6	-5,433
218,1	-7,776
218,5	-7,89
219	-11,033
219,5	-10,233
219,9	-16,69
220,4	-8,005
220,9	-10,176
221,3	-10,748
221,8	-3,776
222,3	1,481
222,7	4,481
223,2	6,195
223,6	1,395
224,1	-0,862
224,6	3,081
225	-2,948
225,5	-3,748
226	-9,348
226,4	-5,69
226,9	-4,462
227,4	-2,176
227,8	-9,405
228,3	-5,548
228,8	-5,919
229,2	2,824
229,7	0,481
230,2	0,652
230,6	3,424
231,1	13,395
231,5	14,767
232	16,595
232,5	11,367
232,9	17,51
233,4	16,652
233,9	14,195
234,3	12,281
234,8	11,424
235,3	9,224
235,7	9,938
236,2	5,881
236,7	3,938
237,1	6,567
237,6	0,11
238,1	-1,605
238,5	-6,033
239	-6,376
239,4	-5,033
239,9	-4,748
240,4	-9,119
240,8	-0,376
241,3	-1,89
241,8	-0,09
242,2	-4,976
242,7	-10,205
243,2	-9,29
243,6	-7,605
244,1	-6,976
244,6	-3,462
245	0,938
245,5	5,767
245,9	5,995
246,4	5,081
246,9	6,71
247,3	3,424
247,8	7,824
248,3	8,195
248,7	10,081
249,2	13,738
249,7	16,195
250,1	14,538
250,6	14,052
251	11,252
251,5	9,052
252	6,31
252,4	8,938
252,9	7,595
253,4	1,91
253,8	0,967
254,3	2,538
254,8	3,224
255,2	2,252
255,7	-5,605
256,1	-1,176
256,6	2,31
257,1	3,195
257,5	-3,919
258	-4,748
258,5	-7,09
258,9	-0,462
259,4	-7,405
259,9	-5,176
260,3	-7,205
260,8	-6,262
261,2	-7,605
261,7	-0,49
262,2	-3,319
262,6	-3,09
263,1	-1,033
263,6	-0,662
264	0,31
264,5	4,31
264,9	-0,519
265,4	1,252
265,9	1,652
266,3	3,481
266,8	6,367
267,3	9,11
267,7	4,538
268,2	5,195
268,7	5,167
269,1	5,795
269,6	3,852
270	6,367
270,5	3,795
271	6,138
271,4	6,338
271,9	3,024
272,4	6,738
272,8	2,224
273,3	-3,176
273,7	0,452
274,2	-4,633
274,7	-2,29
275,1	1,167
275,6	-2,833
276,1	-4,119
276,5	-1,605
277	-3,462
277,4	-0,462
277,9	-1,062
278,4	-1,605
278,8	3,538
279,3	7,652
279,8	6,967
280,2	6,538
280,7	11,51
281,1	6,252
281,6	6,367
282,1	3,881
282,5	3,71
283	1,224
283,4	-0,633
283,9	-1,719
284,4	2,881
284,8	5,452
285,3	4,11
285,8	2,967
286,2	4,281
286,7	7,081
287,1	4,367
287,6	6,624
288,1	2,538
288,5	2,395
289	0,567
289,5	0,538
289,9	-0,919
290,4	1,338
290,8	-0,748
291,3	0,538
291,8	2,538
292,2	4,281
292,7	5,567
293,1	5,738
293,6	8,424
294,1	10,71
294,5	8,624
295	6,081
295,5	5,338
295,9	6,91
296,4	5,252
296,8	-1,776
297,3	-4,519
297,8	-7,719
298,2	-11,033
298,7	-3,405
299,1	-4,605
299,6	-7,348
300,1	-4,09
300,5	-2,805
301	3,224
301,5	8,081
301,9	1,252
302,4	-2,548
302,8	2,538
303,3	3,252
303,8	-4,205
304,2	-7,833
304,7	-8,09
305,1	-7,548
305,6	-4,605
306,1	1,224
306,5	2,138
307	11,052
307,4	13,567
307,9	9,995
308,4	6,795
308,8	1,081
309,3	-5,462
309,8	-9,633
310,2	-10,69
310,7	-15,748
311,1	-10,262
311,6	-8,462
312,1	-2,662
312,5	-0,919
313	1,252
313,4	-0,976
313,9	6,024
314,4	3,881
314,8	5,224
315,3	4,138
315,7	-0,748
316,2	-3,262
316,7	-4,576
317,1	-4,462
317,6	-3,776
318	-1,862
318,5	-3,09
319	-0,319
319,4	2,881
319,9	9,624
320,3	8,052
320,8	5,138
321,3	7,681
321,7	11,538
322,2	11,852
322,6	10,567
323,1	2,995
323,6	-0,748
324	-0,405
324,5	-7,576
324,9	-7,748
325,4	-6,948
325,9	-4,49
326,3	-2,69
326,8	4,367
327,2	0,081
327,7	3,167
328,2	-1,519
328,6	-0,605
329,1	-5,233
329,5	-4,89
330	-5,205
330,5	-1,005
330,9	1,31
331,4	5,938
331,8	3,367
332,3	8,024
332,8	11,91
333,2	9,167
333,7	10,795
334,1	8,538
334,6	4,452
335,1	-0,662
335,5	-0,376
336	-3,09
336,4	-1,233
336,9	2,195
337,4	3,195
337,8	4,338
338,3	10,767
338,7	10,967
339,2	5,024
339,7	4,024
340,1	-1,319
340,6	-0,005
341	-0,719
341,5	0,31
342	-4,833
342,4	-5,462
342,9	-6,719
343,3	-7,833
343,8	-10,233
344,2	-9,748
344,7	-10,748
345,2	-7,319
345,6	-1,89
346,1	-1,148
346,5	3,424
347	2,195
347,5	1,91
347,9	7,995
348,4	8,224
348,8	7,138
349,3	6,51
349,8	5,338
350,2	14,481
350,7	13,652
351,1	7,995
351,6	13,395
352	20,31
352,5	25,31
353	33,395
353,4	30,052
353,9	38,138
354,3	43,481
354,8	46,738
355,3	58,967
355,7	70,624
356,2	79,824
356,6	95,824
357,1	114,652
357,5	137,91
358	158,252
358,5	173,395
358,9	198,71
359,4	229,281
359,8	265,452
360,3	304,652
360,8	342,395
361,2	396,024
361,7	450,652
362,1	513,595
362,6	575,71
363	640,367
363,5	710,224
364	792,167
364,4	872,138
364,9	955,795
365,3	1033,91
365,8	1108,11
366,3	1178,224
366,7	1240,995
367,2	1292,967
367,6	1329,852
368,1	1365,538
368,5	1382,91
369	1397,081
369,5	1403,024
369,9	1394,224
370,4	1375,138
370,8	1345,624
371,3	1298,795
371,7	1256,681
372,2	1202,538
372,7	1142,681
373,1	1084,681
373,6	1020,395
374	961,224
374,5	900,195
374,9	836,995
375,4	776,681
375,9	722,424
376,3	663,738
376,8	610,938
377,2	563,11
377,7	518,252
378,2	472,481
378,6	432,51
379,1	393,567
379,5	367,452
380	344,31
380,4	312,995
380,9	286,595
381,4	261,167
381,8	245,395
382,3	228,824
382,7	207,252
383,2	189,995
383,6	177,395
384,1	170,452
384,6	160,681
385	149,338
385,5	135,71
385,9	124,452
386,4	112,881
386,8	108,31
387,3	97,281
387,7	95,281
388,2	89,395
388,7	83,767
389,1	82,338
389,6	79,824
390	75,367
390,5	76,652
390,9	73,538
391,4	66,624
391,9	62,71
392,3	59,138
392,8	53,51
393,2	45,938
393,7	37,31
394,1	31,052
394,6	33,081
395,1	34,652
395,5	32,795
396	35,938
396,4	38,967
396,9	38,567
397,3	43,452
397,8	43,624
398,2	43,367
398,7	41,452
399,2	40,11
399,6	41,452
400,1	42,852
400,5	37,224
401	32,31
401,4	28,681
401,9	34,024
402,4	31,938
402,8	27,567
403,3	32,224
403,7	33,881
404,2	38,938
404,6	44,767
405,1	44,681
405,5	45,081
406	47,538
406,5	43,881
406,9	48,824
407,4	50,995
407,8	50,967
408,3	54,681
408,7	58,995
409,2	66,852
409,6	76,195
410,1	80,824
410,6	89,11
411	98,281
411,5	105,51
411,9	110,852
412,4	118,395
412,8	124,224
413,3	131,11
413,7	136,595
414,2	142,567
414,7	157,367
415,1	175,081
415,6	185,481
416	199,195
416,5	210,624
416,9	220,595
417,4	238,738
417,8	248,452
418,3	264,167
418,8	279,024
419,2	295,367
419,7	315,767
420,1	337,567
420,6	351,852
421	363,71
421,5	385,567
421,9	408,881
422,4	430,338
422,8	449,024
423,3	472,938
423,8	495,852
424,2	526,738
424,7	548,395
425,1	576,138
425,6	607,595
426	640,424
426,5	672,538
426,9	714,767
427,4	747,767
427,9	787,11
428,3	828,395
428,8	867,452
429,2	911,995
429,7	956,167
430,1	997,138
430,6	1052,51
431	1102,967
431,5	1156,51
431,9	1210,167
432,4	1275,195
432,8	1347,595
433,3	1425,024
433,8	1494,424
434,2	1575,995
434,7	1654,995
435,1	1741,252
435,6	1823,738
436	1911,024
436,5	2006,395
436,9	2102,595
437,4	2199,281
437,8	2304,452
438,3	2414,995
438,8	2523,138
439,2	2639,567
439,7	2755,395
440,1	2884,652
440,6	3023,967
441	3157,71
441,5	3298,11
441,9	3451,824
442,4	3594,338
442,8	3742,938
443,3	3903,938
443,7	4062,624
444,2	4235,852
444,7	4413,795
445,1	4586,052
445,6	4774,967
446	4970,31
446,5	5163,081
446,9	5355,081
447,4	5550,795
447,8	5754,281
448,3	5971,452
448,7	6186,938
449,2	6410,967
449,6	6636,138
450,1	6867,224
450,6	7105,624
451	7348,538
451,5	7591,795
451,9	7845,624
452,4	8101,281
452,8	8356,681
453,3	8622,31
453,7	8883,195
454,2	9157,252
454,6	9434,995
455,1	9715,995
455,5	9988,824
456	10274,538
456,4	10556,995
456,9	10859,081
457,3	11147,367
457,8	11444,338
458,3	11733,852
458,7	12043,995
459,2	12355,281
459,6	12664,995
460,1	12965,995
460,5	13267,881
461	13587,195
461,4	13908,795
461,9	14228,767
462,3	14535,367
462,8	14850,995
463,2	15164,71
463,7	15486,881
464,1	15792,367
464,6	16106,395
465	16408,681
465,5	16726,281
466	17044,024
466,4	17353,281
466,9	17673,452
467,3	17983,71
467,8	18291,395
468,2	18609,367
468,7	18915,424
469,1	19218,795
469,6	19523,738
470	19801,738
470,5	20090,052
470,9	20369,881
471,4	20642,624
471,8	20908,91
472,3	21169,91
472,7	21436,281
473,2	21702,138
473,6	21949,967
474,1	22199,11
474,5	22440,224
475	22694,281
475,4	22937,538
475,9	23166,938
476,4	23388,567
476,8	23616,224
477,3	23833,024
477,7	24046,51
478,2	24243,252
478,6	24425,967
479,1	24605,995
479,5	24791,481
480	24963,624
480,4	25134,195
480,9	25282,567
481,3	25432,338
481,8	25587,624
482,2	25729,995
482,7	25853,567
483,1	25973,052
483,6	26069,738
484	26161,881
484,5	26256,367
484,9	26336,395
485,4	26414,652
485,8	26474,395
486,3	26531,595
486,7	26590,51
487,2	26659,595
487,6	26691,767
488,1	26714,652
488,5	26731,252
489	26756,224
489,4	26770,081
489,9	26756,652
490,4	26735,51
490,8	26713,452
491,3	26689,338
491,7	26654,538
492,2	26611,938
492,6	26569,452
493,1	26527,367
493,5	26458,681
494	26393,167
494,4	26319,624
494,9	26251,681
495,3	26178,567
495,8	26079,195
496,2	25994,138
496,7	25891,51
497,1	25804,881
497,6	25719,224
498	25630,767
498,5	25522,767
498,9	25410,11
499,4	25299,824
499,8	25189,51
500,3	25059,91
500,7	24920,11
501,2	24755,11
501,6	24617,395
502,1	24484,167
502,5	24350,481
503	24228,652
503,4	24100,424
503,9	23947,795
504,3	23811,51
504,8	23649,91
505,2	23504,452
505,7	23342,91
506,1	23183,424
506,6	23000,395
507	22850,195
507,5	22682,795
507,9	22532,71
508,4	22351,995
508,8	22176,338
509,3	21986,167
509,7	21807,51
510,2	21622,967
510,6	21442,71
511,1	21248,767
511,5	21067,052
512	20874,224
512,4	20697,167
512,9	20503,795
513,3	20317,91
513,8	20129,538
514,2	19936,967
514,7	19743,367
515,1	19552,138
515,6	19356,338
516	19172,252
516,5	18975,252
516,9	18786,252
517,4	18594,795
517,8	18413,052
518,3	18232,195
518,7	18044,652
519,2	17856,281
519,6	17677,71
520,1	17487,167
520,5	17298,11
521	17098,452
521,4	16908,938
521,9	16719,024
522,3	16539,024
522,8	16343,138
523,2	16161,452
523,7	15987,481
524,1	15815,881
524,6	15634,167
525	15458,195
525,5	15289,167
525,9	15128,852
526,4	14957,052
526,8	14797,738
527,3	14639,567
527,7	14471,652
528,2	14319,51
528,6	14145,481
529,1	13982,224
529,5	13829,881
530	13666,138
530,4	13502,424
530,9	13356,852
531,3	13192,167
531,8	13049,31
532,2	12894,91
532,6	12745,281
533,1	12593,91
533,5	12451,995
534	12306,395
534,4	12171,052
534,9	12037,51
535,3	11905,424
535,8	11772,738
536,2	11640,967
536,7	11515,71
537,1	11383,652
537,6	11260,367
538	11126,91
538,5	11011,11
538,9	10880,024
539,4	10762,31
539,8	10622,281
540,3	10503,995
540,7	10373,11
541,2	10248,338
541,6	10126,167
542,1	10015,567
542,5	9905,881
543	9809,652
543,4	9690,395
543,9	9587,024
544,3	9495,652
544,8	9387,624
545,2	9291,224
545,7	9185,881
546,1	9085,224
546,5	9002,395
547	8897,881
547,4	8799,424
547,9	8699,538
548,3	8604,224
548,8	8509,91
549,2	8416,024
549,7	8321,51
550,1	8246,51
550,6	8155,91
551	8073,71
551,5	7983,252
551,9	7901,91
552,4	7826,452
552,8	7739,624
553,3	7659,452
553,7	7580,338
554,2	7515,052
554,6	7444,138
555,1	7372,881
555,5	7293,595
555,9	7232,624
556,4	7154,767
556,8	7085,51
557,3	7007,338
557,7	6935,081
558,2	6862,624
558,6	6795,138
559,1	6725,081
559,5	6664,367
560	6603,824
560,4	6543,052
560,9	6482,51
561,3	6423,738
561,8	6365,567
562,2	6302,338
562,7	6245,567
563,1	6186,624
563,6	6126,252
564	6070,71
564,4	6003,995
564,9	5945,052
565,3	5888,481
565,8	5829,167
566,2	5775,195
566,7	5724,967
567,1	5673,338
567,6	5630,51
568	5578,138
568,5	5531,138
568,9	5477,452
569,4	5424,252
569,8	5371,481
570,3	5319,052
570,7	5270,881
571,1	5223,338
571,6	5177,91
572	5139,195
572,5	5093,881
572,9	5053,995
573,4	5011,681
573,8	4967,881
574,3	4926,938
574,7	4879,767
575,2	4831,052
575,6	4795,51
576,1	4752,995
576,5	4715,995
576,9	4668,224
577,4	4625,995
577,8	4589,252
578,3	4550,91
578,7	4505,995
579,2	4467,167
579,6	4424,367
580,1	4392,995
580,5	4355,338
581	4321,91
581,4	4290,281
581,9	4247,681
582,3	4208,338
582,7	4176,938
583,2	4135,938
583,6	4100,052
584,1	4061,595
584,5	4026,024
585	3999,138
585,4	3955,538
585,9	3916,824
586,3	3889,824
586,8	3862,481
587,2	3825,51
587,6	3799,51
588,1	3773,824
588,5	3753,338
589	3726,51
589,4	3702,195
589,9	3671,195
590,3	3646,881
590,8	3615,995
591,2	3586,681
591,7	3564,11
592,1	3533,281
592,5	3508,652
593	3479,538
593,4	3457,967
593,9	3430,252
594,3	3405,167
594,8	3380,738
595,2	3357,538
595,7	3330,681
596,1	3312,281
596,6	3290,195
597	3272,052
597,4	3248,195
597,9	3225,538
598,3	3208,11
598,8	3181,395
599,2	3157,081
599,7	3130,824
600,1	3104,081
600,6	3077,967
601	3056,481
601,4	3037,852
601,9	3025,681
602,3	3006,395
602,8	2988,167
603,2	2966,281
603,7	2952,652
604,1	2929,367
604,6	2904,51
605	2872,652
605,4	2853,424
605,9	2832,881
606,3	2812,795
606,8	2785,052
607,2	2764,138
607,7	2742,881
608,1	2726,567
608,6	2708,795
609	2691,938
609,4	2676,395
609,9	2659,481
610,3	2641,11
610,8	2626,138
611,2	2612,852
611,7	2593,338
612,1	2576,195
612,6	2559,11
613	2541,738
613,4	2524,967
613,9	2505,681
614,3	2482,567
614,8	2464,395
615,2	2439,824
615,7	2424,024
616,1	2408,624
616,6	2392,452
617	2372,567
617,4	2358,452
617,9	2344,452
618,3	2333,395
618,8	2318,024
619,2	2297,738
619,7	2281,795
620,1	2271,281
620,5	2256,852
621	2231,081
621,4	2208,767
621,9	2185,767
622,3	2174,224
622,8	2157,795
623,2	2137,938
623,6	2121,252
624,1	2112,738
624,5	2101,567
625	2090,995
625,4	2077,624
625,9	2068,195
626,3	2053,081
626,8	2039,481
627,2	2026,31
627,6	2003,852
628,1	1988,738
628,5	1974,652
629	1947,681
629,4	1934,624
629,9	1916,51
630,3	1893,367
630,7	1883,652
631,2	1871,824
631,6	1857,681
632,1	1852,081
632,5	1839,224
633	1830,595
633,4	1826,31
633,8	1814,138
634,3	1796,224
634,7	1782,995
635,2	1762,167
635,6	1750,681
636,1	1737,824
636,5	1719,224
636,9	1700,681
637,4	1687,567
637,8	1668,281
638,3	1660,224
638,7	1644,967
639,2	1625,967
639,6	1619,738
640	1614,91
640,5	1608,281
640,9	1598,995
641,4	1586,824
641,8	1575,31
642,2	1569,195
642,7	1556,452
643,1	1549,938
643,6	1537,367
644	1532,91
644,5	1530,481
644,9	1519,967
645,3	1509,024
645,8	1498,281
646,2	1487,71
646,7	1476,395
647,1	1463,081
647,6	1453,91
648	1446,567
648,4	1435,767
648,9	1428,995
649,3	1413,281
649,8	1404,738
650,2	1399,681
650,6	1385,481
651,1	1374,481
651,5	1367,424
652	1356,995
652,4	1349,024
652,9	1338,738
653,3	1325,11
653,7	1315,681
654,2	1310,481
654,6	1297,538
655,1	1288,538
655,5	1286,338
655,9	1279,795
656,4	1269,795
656,8	1262,081
657,3	1255,71
657,7	1252,967
658,2	1240,395
658,6	1227,224
659	1214,681
659,5	1206,252
659,9	1195,824
660,4	1183,767
660,8	1170,567
661,2	1162,624
661,7	1155,252
662,1	1148,081
662,6	1141,11
663	1135,395
663,4	1129,824
663,9	1122,995
664,3	1117,595
664,8	1105,881
665,2	1097,281
665,6	1091,338
666,1	1079,51
666,5	1068,167
667	1063,367
667,4	1055,338
667,9	1046,995
668,3	1041,281
668,7	1028,11
669,2	1024,081
669,6	1012,338
670,1	1001,195
670,5	990,452
670,9	981,681
671,4	974,195
671,8	974,681
672,3	971,567
672,7	966,624
673,1	956,852
673,6	951,995
674	951,824
674,5	941,567
674,9	928,767
675,3	912,795
675,8	905,595
676,2	898,91
676,7	887,624
677,1	880,31
677,5	872,424
678	869,595
678,4	868,224
678,9	865,424
679,3	860,31
679,7	859,452
680,2	847,938
680,6	845,052
681,1	836,595
681,5	829,11
681,9	821,395
682,4	815,881
682,8	810,395
683,3	805,738
683,7	802,681
684,1	793,281
684,6	788,395
685	780,824
685,5	774,71
685,9	769,167
686,3	762,995
686,8	755,281
687,2	752,424
687,7	746,11
688,1	739,052
688,5	734,681
689	726,71
689,4	722,881
689,9	715,367
690,3	708,624
690,7	704,195
691,2	700,795
691,6	695,738
692	693,71
692,5	689,281
692,9	685,938
693,4	683,824
693,8	677,595
694,2	673,052
694,7	667,052
695,1	658,824
695,6	655,938
696	649,795
696,4	645,367
696,9	638,967
697,3	633,91
697,8	632,51
698,2	629,338
698,6	626,081
699,1	623,51
699,5	623,167
699,9	619,595
700,4	612,881
700,8	607,995
701,3	606,595
701,7	594,738
702,1	593,624
702,6	582,767
703	579,11
703,5	576,252
703,9	568,995
704,3	566,652
704,8	565,367
705,2	557,138
705,6	556,652
706,1	551,281
706,5	548,538
707	546,195
707,4	537,824
707,8	532,824
708,3	529,338
708,7	519,824
709,2	517,91
709,6	512,938
710	511,424
710,5	503,081
710,9	503,681
711,3	496,595
711,8	495,281
712,2	492,852
712,7	489,767
713,1	488,538
713,5	494,11
714	491,481
714,4	491,795
714,8	489,224
715,3	482,424
715,7	483,31
716,2	476,195
716,6	468,224
717	460,395
717,5	453,395
717,9	456,395
718,3	451,595
718,8	443,424
719,2	439,138
719,7	436,852
720,1	435,052
720,5	435,967
721	427,138
721,4	425,224
721,8	424,767
722,3	422,081
722,7	423,995
723,2	418,881
723,6	409,395
724	408,138
724,5	403,767
724,9	399,367
725,3	395,167
725,8	383,052
726,2	379,938
726,7	380,852
727,1	375,11
727,5	371,481
728	365,681
728,4	364,481
728,8	361,481
729,3	357,395
729,7	356,71
730,1	355,195
730,6	356,367
731	355,538
731,5	349,91
731,9	351,367
732,3	351,681
732,8	348,167
733,2	344,652
733,6	338,081
734,1	338,852
734,5	337,481
734,9	337,681
735,4	334,824
735,8	329,538
736,3	330,852
736,7	333,052
737,1	329,224
737,6	325,281
738	318,71
738,4	314,91
738,9	316,252
739,3	311,71
739,7	310,51
740,2	309,024
740,6	314,252
741,1	316,481
741,5	310,538
741,9	306,11
742,4	307,195
742,8	306,367
743,2	308,51
743,7	297,252
744,1	294,167
744,5	290,967
745	290,081
745,4	283,338
745,8	279,881
746,3	272,052
746,7	273,481
747,2	269,281
747,6	275,452
748	277,795
748,5	281,338
748,9	274,71
749,3	274,252
749,8	272,995
750,2	272,481
750,6	265,767
751,1	263,024
751,5	255,652
751,9	258,11
752,4	259,881
752,8	259,338
753,3	256,91
753,7	260,595
754,1	250,967
754,6	251,51
755	251,11
755,4	242,595
755,9	243,052
756,3	238,224
756,7	237,281
757,2	243,824
757,6	241,795
758	235,738
758,5	237,395
758,9	234,31
759,3	238,338
759,8	236,71
760,2	234,71
760,6	235,138
761,1	231,738
761,5	228,452
761,9	223,424
762,4	216,91
762,8	211,71
763,3	208,395
763,7	206,824
764,1	212,881
764,6	212,767
765	215,51
765,4	217,167
765,9	217,681
766,3	221,995
766,7	215,224
767,2	207,681
767,6	207,338
768	206,052
768,5	202,052
768,9	200,281
769,3	194,195
769,8	191,681
770,2	192,595
770,6	189,938
771,1	191,652
771,5	191,795
771,9	192,224
772,4	192,51
772,8	194,738
773,2	194,91
773,7	194,91
774,1	194,138
774,5	188,71
775	185,367
775,4	184,452
775,8	184,852
776,3	183,681
776,7	186,195
777,1	181,024
777,6	184,052
778	184,395
778,4	179,738
778,9	179,338
779,3	176,338
779,7	172,71
780,2	172,595
780,6	173,195
781	168,71
781,5	168,195
781,9	165,681
782,3	163,595
782,8	162,195
783,2	157,538
783,6	158,595
784,1	159,31
784,5	158,31
784,9	155,567
785,4	157,852
785,8	153,795
786,2	156,795
786,7	149,024
787,1	148,995
787,5	149,052
788	147,252
788,4	148,71
788,8	149,081
789,3	145,452
789,7	147,367
790,1	148,024
790,6	145,195
791	143,424
791,4	141,567
791,9	137,624
792,3	132,738
792,7	138,395
793,2	134,252
793,6	133,395
794	135,681
794,5	131,624
794,9	135,995
795,3	141,624
795,8	133,824
796,2	134,681
796,6	132,881
797,1	128,967
797,5	127,595
797,9	122,995
798,4	120,938
798,8	121,767
799,2	119,767
799,7	125,938
800,1	127,767
800,5	128,624
801	132,51
801,4	131,852
801,8	127,652
802,2	126,252
802,7	114,395
803,1	116,71
803,5	116,452
804	110,167
804,4	110,224
804,8	114,767
805,3	118,795
805,7	122,367
806,1	120,738
806,6	120,252
807	119,11
807,4	112,967
807,9	106,967
808,3	101,652
808,7	104,452
809,2	105,024
809,6	103,624
810	101,881
810,4	105,881
810,9	105,967
811,3	105,11
811,7	105,538
812,2	105,938
812,6	106,024
813	111,424
813,5	113,081
813,9	114,252
814,3	114,767
814,8	110,938
815,2	105,395
815,6	102,881
816,1	104,424
816,5	101,51
816,9	104,31
817,3	101,824
817,8	108,595
818,2	109,338
818,6	106,31
819,1	99,938
819,5	98,595
819,9	96,91
820,4	94,852
820,8	83,567
821,2	81,338
821,7	87,538
822,1	86,224
822,5	88,51
822,9	84,224
823,4	82,052
823,8	81,567
824,2	79,91
824,7	74,91
825,1	72,652
825,5	63,681
826	62,652
826,4	64,767
826,8	65,624
827,3	65,652
827,7	64,481
828,1	68,424
828,5	72,881
829	68,624
829,4	72,138
829,8	67,31
830,3	68,481
830,7	64,71
831,1	64,367
831,6	62,424
832	65,138
832,4	65,51
832,8	68,852
833,3	66,138
833,7	64,081
834,1	60,11
834,6	59,138
835	63,852
835,4	61,281
835,8	57,052
836,3	53,824
836,7	59,138
837,1	62,424
837,6	67,081
838	61,967
838,4	58,138
838,9	60,395
839,3	62,91
839,7	62,424
840,1	55,681
840,6	49,052
841	49,795
841,4	52,538
841,9	55,081
842,3	56,367
842,7	53,452
843,1	53,338
843,6	54,738
844	55,567
844,4	59,338
844,9	60,424
845,3	56,624
845,7	59,595
846,2	62,338
846,6	62,167
847	63,852
847,4	58,967
847,9	56,881
848,3	57,795
848,7	57,595
849,2	58,967
849,6	53,624
850	50,31
850,4	51,624
850,9	54,31
851,3	55,71
851,7	53,024
852,2	50,31
852,6	56,052
853	57,452
853,4	54,195
853,9	49,367
854,3	48,538
854,7	49,595
855,2	45,852
855,6	43,624
856	40,338
856,4	36,052
856,9	32,938
857,3	29,881
857,7	30,424
858,2	36,767
858,6	36,252
859	35,167
859,4	41,252
859,9	43,452
860,3	39,167
860,7	38,138
861,1	38,967
861,6	40,195
862	40,91
862,4	36,138
862,9	34,852
863,3	41,967
863,7	42,338
864,1	41,11
864,6	37,024
865	36,567
865,4	40,652
865,9	42,338
866,3	37,795
866,7	33,481
867,1	26,081
867,6	29,167
868	28,595
868,4	23,567
868,8	23,795
869,3	24,767
869,7	31,624
870,1	32,481
870,6	27,767
871	6,167
871,4	16,367
871,8	12,967
872,3	14,167
872,7	8,252
873,1	10,052
873,5	14,881
874	34,967
874,4	29,424
874,8	29,795
875,3	30,51
875,7	29,081
876,1	30,31
876,5	28,081
877	30,652
877,4	27,51
877,8	28,652
878,2	29,481
878,7	31,681
879,1	31,195
879,5	34,652
879,9	35,51
880,4	33,024
880,8	37,081
881,2	35,738
881,7	32,738
882,1	31,595
882,5	28,167
882,9	25,024
883,4	26,71
883,8	21,624
884,2	20,024
884,6	15,424
885,1	17,652
885,5	20,71
885,9	19,052
886,3	21,681
886,8	22,567
887,2	22,681
887,6	27,624
888	26,538
888,5	24,538
888,9	27,395
889,3	22,11
889,8	21,795
890,2	20,338
890,6	16,538
891	17,367
891,5	14,595
891,9	15,252
892,3	19,938
892,7	20,138
893,2	22,138
893,6	28,538
894	29,624
894,4	27,795
894,9	24,252
895,3	25,824
895,7	26,024
896,1	28,795
896,6	23,024
897	20,367
897,4	28,338
897,8	31,995
898,3	26,395
898,7	17,681
899,1	14,367
899,5	15,967
900	13,081
900,4	5,852
900,8	1,738
901,2	-1,119
901,7	5,367
902,1	6,738
902,5	13,424
902,9	13,452
903,4	14,767
903,8	12,31
904,2	14,31
904,6	12,767
905,1	9,738
905,5	7,538
905,9	9,195
906,3	12,395
906,8	16,281
907,2	19,252
907,6	24,081
908	25,167
908,5	22,624
908,9	22,052
909,3	15,624
909,7	15,652
910,2	12,367
910,6	14,824
911	15,31
911,4	10,367
911,9	7,852
912,3	10,052
912,7	14,138
913,1	16,767
913,6	9,881
914	9,881
914,4	12,024
914,8	15,081
915,3	13,51
915,7	10,538
916,1	7,481
916,5	9,995
916,9	10,052
917,4	10,424
917,8	9,452
918,2	7,91
918,6	4,824
919,1	6,595
919,5	6,71
919,9	3,138
920,3	3,281
920,8	0,881
921,2	3,195
921,6	3,852
922	2,538
922,5	4,195
922,9	7,967
923,3	6,567
923,7	11,138
924,2	9,71
924,6	6,852
925	9,624
925,4	5,167
925,8	3,31
926,3	6,538
926,7	1,31
927,1	1,538
927,5	5,538
928	0,967
928,4	-2,405
928,8	3,195
929,2	1,881
929,7	5,652
930,1	10,881
930,5	6,938
930,9	15,367
931,3	21,51
931,8	20,338
932,2	21,795
932,6	18,652
933	11,081
933,5	16,795
933,9	12,624
934,3	16,167
934,7	9,91
935,2	12,024
935,6	12,195
936	17,224
936,4	16,481
936,8	17,767
937,3	8,767
937,7	12,31
938,1	8,538
938,5	4,91
939	-0,062
939,4	-2,605
939,8	-4,976
940,2	-3,605
940,6	-4,119
941,1	-3,262
941,5	7,252
941,9	6,11
942,3	8,11
942,8	8,367
943,2	15,252
943,6	13,195
944	11,881
944,4	7,652
944,9	9,338
945,3	6,71
945,7	2,538
946,1	-6,148
946,6	-7,69
947	-10,69
947,4	-12,148
947,8	-8,062
948,2	-12,062
948,7	-7,605
949,1	-7,29
949,5	-0,919
949,9	2,395
950,3	4,71
950,8	-0,433
951,2	3,024
951,6	-0,405
952	4,338
952,5	-3,348
952,9	-2,948
953,3	-4,176
953,7	-1,605
954,1	1,281
954,6	5,395
955	2,195
955,4	4,195
955,8	5,624
956,2	4,11
956,7	5,252
957,1	2,624
957,5	3,224
957,9	8,024
958,3	8,824
958,8	10,024
959,2	8,567
959,6	12,395
960	12,795
960,5	17,338
960,9	15,795
961,3	12,51
961,7	9,852
962,1	12,024
962,6	9,367
963	11,281
963,4	1,424
963,8	-0,033
964,2	4,024
964,7	1,367
965,1	6,795
965,5	6,852
965,9	1,452
966,3	5,024
966,8	5,367
967,2	5,852
967,6	10,767
968	0,224
968,4	-4,033
968,9	0,452
969,3	5,367
969,7	2,595
970,1	6,424
970,5	0,052
971	9,767
971,4	10,795
971,8	12,138
972,2	8,138
972,6	7,481
973,1	3,081
973,5	4,91
973,9	-0,89
974,3	0,995
974,7	3,71
975,2	2,538
975,6	5,081
976	4,338
976,4	5,281
976,8	7,567
977,3	5,51
977,7	-2,119
978,1	-1,348
978,5	-2,662
978,9	-4,433
979,4	-2,633
979,8	-3,29
980,2	-1,576
980,6	-0,69
981	0,824
981,5	-0,548
981,9	0,91
982,3	0,167
982,7	3,195
983,1	-0,433
983,6	-0,233
984	-1,348
984,4	1,538
984,8	1,395
985,2	1,738
985,6	-3,433
986,1	-2,005
986,5	-1,319
986,9	-4,405
987,3	-4,662
987,7	-3,205
988,2	-6,49
988,6	-5,148
989	-2,548
989,4	0,538
989,8	1,424
990,3	1,11
990,7	0,195
991,1	1,538
991,5	2,91
991,9	2,852
992,3	2,367
992,8	5,11
993,2	6,738
993,6	9,795
994	11,624
994,4	13,681
994,9	12,424
995,3	10,367
995,7	6,938
996,1	7,138
996,5	2,281
996,9	-1,948
997,4	-2,976
997,8	-5,633
998,2	-8,348
998,6	-11,205
999	-12,176
999,5	-8,805
999,9	-7,548
1000,3	-10,89
1000,7	-5,462
1001,1	-2,405
1001,5	0,967
1002	1,91
1002,4	-0,205
1002,8	-0,148
1003,2	4,281
1003,6	5,538
1004	6,452
1004,5	2,852
1004,9	5,11
1005,3	2,338
1005,7	5,024
1006,1	-1,033
1006,6	-6,49
1007	-4,49
1007,4	-1,148
1007,8	-2,319
1008,2	-1,833
1008,6	-0,89
1009,1	-2,462
1009,5	1,595
1009,9	1,452
1010,3	0,595
1010,7	-2,862
1011,1	3,51
1011,6	2,652
1012	7,852
1012,4	6,567
1012,8	2,052
1013,2	10,252
1013,6	12,567
1014,1	11,681
1014,5	12,138
1014,9	10,252
1015,3	8,51
1015,7	13,767
1016,1	6,51
1016,6	4,452
1017	3,367
1017,4	4,11
1017,8	4,31
1018,2	8,224
1018,6	-5,062
1019,1	-6,519
1019,5	-5,719
1019,9	-9,033
1020,3	-11,69
1020,7	-6,662
1021,1	-10,062
1021,6	0,767
1022	5,424
1022,4	6,738
1022,8	5,91
1023,2	5,51
1023,6	2,224
1024,1	9,738
1024,5	9,738
1024,9	4,281
1025,3	2,11
1025,7	3,938
1026,1	7,795
1026,6	6,024
1027	2,167
1027,4	1,395
1027,8	3,71
1028,2	0,938
1028,6	4,567
1029	2,424
1029,5	4,481
1029,9	3,167
1030,3	-0,062
1030,7	2,595
1031,1	3,081
1031,5	-1,319
1032	-2,662
1032,4	-0,89
1032,8	3,367
1033,2	7,538
1033,6	5,767
1034	8,795
1034,4	6,024
1034,9	9,624
1035,3	5,081
1035,7	2,967
1036,1	-2,976
1036,5	-8,29
1036,9	-6,719
1037,4	0,881
1037,8	-3,09
1038,2	0,224
1038,6	-2,748
1039	7,167
1039,4	12,881
1039,8	8,395
1040,3	4,795
1040,7	0,081
1041,1	-0,062
1041,5	-0,776
1041,9	-6,89
1042,3	-5,633
1042,7	-0,29
1043,2	-1,005
1043,6	2,881
1044	0,452
1044,4	4,881
1044,8	5,252
1045,2	2,681
1045,6	-0,462
1046,1	-0,862
1046,5	0,138
1046,9	0,11
1047,3	-5,462
1047,7	-5,405
1048,1	-10,89
1048,5	-10,033
1049	-9,69
1049,4	-9,548
1049,8	-13,49
1050,2	-13,205
1050,6	-14,005
1051	-11,033
1051,4	-13,005
1051,9	-13,405
1052,3	-6,405
1052,7	-0,548
1053,1	-6,119
1053,5	-2,805
1053,9	-0,576
1054,3	1,395
1054,8	7,938
1055,2	2,967
1055,6	4,995
1056	11,91
1056,4	9,31
1056,8	12,195
1057,2	5,967
1057,6	-0,49
1058,1	-4,033
1058,5	-9,576
1058,9	-10,262
1059,3	-10,148
1059,7	-10,719
1060,1	-3,205
1060,5	-4,405
1061	-1,662
1061,4	-1,748
1061,8	-0,29
1062,2	1,881
1062,6	2,395
1063	4,995
1063,4	7,31
1063,8	3,624
1064,3	6,852
1064,7	5,195
1065,1	3,224
1065,5	1,767
1065,9	-1,462
1066,3	-2,376
1066,7	-2,376
1067,1	-5,719
1067,6	-2,319
1068	-6,119
1068,4	-7,576
1068,8	-6,69
1069,2	-2,833
1069,6	-0,633
1070	0,224
1070,4	-2,49
1070,9	-2,262
1071,3	-2,919
1071,7	-6,233
1072,1	-7,805
1072,5	-6,405
1072,9	-4,89
1073,3	-4,805
1073,7	-3,719
1074,2	-1,748
1074,6	2,167
1075	-0,433
1075,4	-2,49
1075,8	-0,319
1076,2	2,024
1076,6	3,652
1077	3,852
1077,5	6,224
1077,9	6,081
1078,3	9,538
1078,7	6,138
1079,1	7,624
1079,5	6,852
1079,9	8,167
1080,3	5,167
1080,7	7,738
1081,2	9,681
1081,6	10,167
1082	6,452
1082,4	9,91
1082,8	9,11
1083,2	8,852
1083,6	8,681
1084	4,224
1084,5	4,938
1084,9	2,881
1085,3	-4,376
1085,7	-6,519
1086,1	-7,405
1086,5	-6,605
1086,9	-2,919
1087,3	-2,833
1087,7	-2,348
1088,2	1,338
1088,6	2,31
1089	2,967
1089,4	0,424
1089,8	-1,576
1090,2	-2,376
1090,6	-3,233
1091	0,852
1091,4	1,967
1091,9	1,367
1092,3	2,252
1092,7	-0,405
1093,1	1,824
1093,5	3,538
1093,9	0,11
1094,3	3,652
1094,7	0,081
1095,1	0,51
1095,5	3,252
1096	-0,776
1096,4	0,281
1096,8	1,31
1097,2	-2,633
1097,6	3,31
1098	2,31
1098,4	4,538
1098,8	6,167
1099,2	10,338
1099,6	7,71
1100,1	6,481
1100,5	1,195
1100,9	0,595
1101,3	-1,748
1101,7	-0,09
1102,1	-4,862
1102,5	0,138
1102,9	2,852
1103,3	8,538
1103,7	11,338
1104,2	9,081
1104,6	8,624
1105	7,881
1105,4	4,71
1105,8	2,052
1106,2	-1,033
1106,6	-3,205
1107	-1,576
1107,4	-2,167
1107,8	-1,233
1108,3	-0,533
