Data from Subt2_260.txt Node
Date: Sat Aug 26 19:01:03 MSK 2023
User: vat
Spectrometer: MAYP114033
Trigger mode: 0
Integration Time (sec): 1,000000E0
Scans to average: 5
Electric dark correction enabled: true
Nonlinearity correction enabled: false
Boxcar width: 3
XAxis mode: Wavelengths
Number of Pixels in Spectrum: 2068
>>>>>Begin Spectral Data<<<<<
199,4	0,183
199,9	1,793
200,4	1,033
200,8	1,662
201,3	3,376
201,8	5,405
202,2	2,148
202,7	5,09
203,2	4,605
203,6	4,833
204,1	3,348
204,6	3,49
205	2,176
205,5	4,376
206	3,176
206,4	3,433
206,9	2,976
207,4	3,462
207,8	2,662
208,3	3,69
208,8	8,233
209,2	7,462
209,7	8,576
210,2	10,776
210,6	10,062
211,1	12,605
211,5	9,319
212	8,748
212,5	10,148
212,9	7,319
213,4	8,519
213,9	9,09
214,3	6,005
214,8	8,719
215,3	4,548
215,7	3,148
216,2	4,348
216,7	2,633
217,1	2,348
217,6	5,748
218,1	5,205
218,5	4,805
219	-1,452
219,5	-1,167
219,9	-3,681
220,4	3,919
220,9	0,719
221,3	-0,995
221,8	0,748
222,3	7,205
222,7	10,033
223,2	9,519
223,6	2,948
224,1	2,205
224,6	3,776
225	3,548
225,5	3,262
226	0,862
226,4	4,662
226,9	6,119
227,4	7,262
227,8	2,548
228,3	1,69
228,8	2,405
229,2	6,319
229,7	4,29
230,2	1,148
230,6	2,462
231,1	7,405
231,5	9,576
232	11,69
232,5	6,833
232,9	10,433
233,4	14,005
233,9	14,319
234,3	16,948
234,8	15,376
235,3	12,205
235,7	14,005
236,2	14,29
236,7	15,29
237,1	15,833
237,6	9,433
238,1	11,09
238,5	10,233
239	9,948
239,4	11,633
239,9	8,005
240,4	7,433
240,8	13,919
241,3	11,605
241,8	12,262
242,2	11,548
242,7	2,176
243,2	5,919
243,6	3,633
244,1	1,348
244,6	3,462
245	5,348
245,5	7,548
245,9	8,148
246,4	2,233
246,9	4,062
247,3	5,09
247,8	7,205
248,3	6,89
248,7	5,033
249,2	7,833
249,7	11,262
250,1	12,262
250,6	12,09
251	9,405
251,5	6,548
252	6,605
252,4	12,09
252,9	12,948
253,4	8,205
253,8	1,376
254,3	2,776
254,8	3,576
255,2	2,948
255,7	-1,567
256,1	-0,052
256,6	4,89
257,1	12,348
257,5	7,376
258	5,29
258,5	4,29
258,9	7,319
259,4	1,633
259,9	4,262
260,3	2,148
260,8	3,633
261,2	9,605
261,7	12,376
262,2	8,948
262,6	10,033
263,1	7,233
263,6	8,119
264	9,49
264,5	9,376
264,9	6,833
265,4	8,148
265,9	9,605
266,3	9,176
266,8	11,005
267,3	11,976
267,7	6,976
268,2	4,462
268,7	4,833
269,1	3,548
269,6	-2,052
270	-1,224
270,5	-4,795
271	-1,681
271,4	4,49
271,9	1,576
272,4	7,348
272,8	11,548
273,3	6,405
273,7	13,862
274,2	18,005
274,7	16,062
275,1	19,205
275,6	17,776
276,1	16,862
276,5	22,548
277	23,033
277,4	17,719
277,9	18,805
278,4	15,862
278,8	13,376
279,3	15,233
279,8	12,005
280,2	8,719
280,7	12,09
281,1	9,89
281,6	11,519
282,1	13,433
282,5	10,633
283	9,376
283,4	8,033
283,9	6,119
284,4	11,405
284,8	12,205
285,3	9,09
285,8	11,148
286,2	13,205
286,7	10,29
287,1	7,662
287,6	3,348
288,1	-1,767
288,5	0,605
289	-1,081
289,5	-3,681
289,9	-2,538
290,4	0,748
290,8	-3,681
291,3	-0,652
291,8	-0,024
292,2	1,433
292,7	6,233
293,1	8,119
293,6	7,005
294,1	14,662
294,5	18,29
295	19,09
295,5	20,033
295,9	20,005
296,4	18,033
296,8	17,062
297,3	12,662
297,8	8,462
298,2	7,633
298,7	8,09
299,1	9,576
299,6	9,405
300,1	13,976
300,5	14,576
301	15,119
301,5	16,976
301,9	15,89
302,4	9,519
302,8	10,519
303,3	6,662
303,8	-0,138
304,2	2,776
304,7	-1,51
305,1	-6,395
305,6	-6,281
306,1	-2,538
306,5	0,319
307	8,262
307,4	9,376
307,9	9,69
308,4	11,919
308,8	9,976
309,3	9,576
309,8	5,919
310,2	6,148
310,7	4,09
311,1	5,776
311,6	8,69
312,1	11,29
312,5	12,748
313	13,833
313,4	12,948
313,9	13,919
314,4	12,033
314,8	8,833
315,3	7,89
315,7	2,348
316,2	0,033
316,7	0,49
317,1	2,833
317,6	5,49
318	11,948
318,5	11,233
319	15,548
319,4	18,805
319,9	20,748
320,3	20,319
320,8	15,662
321,3	14,719
321,7	17,69
322,2	13,862
322,6	15,062
323,1	12,262
323,6	6,033
324	5,348
324,5	3,633
324,9	3,576
325,4	4,033
325,9	3,833
326,3	7,29
326,8	12,976
327,2	11,919
327,7	12,062
328,2	13,119
328,6	14,205
329,1	6,976
329,5	4,69
330	2,033
330,5	6,833
330,9	5,119
331,4	4,033
331,8	3,233
332,3	9,662
332,8	6,89
333,2	5,776
333,7	7,633
334,1	6,576
334,6	2,405
335,1	1,719
335,5	0,433
336	2,805
336,4	7,148
336,9	10,633
337,4	13,405
337,8	15,805
338,3	13,548
338,7	18,833
339,2	16,176
339,7	18,919
340,1	10,005
340,6	9,89
341	10,548
341,5	12,976
342	4,748
342,4	9,033
342,9	1,748
343,3	5,833
343,8	2,433
344,2	2,662
344,7	5,262
345,2	4,205
345,6	2,376
346,1	4,576
346,5	4,319
347	3,776
347,5	2,49
347,9	5,919
348,4	11,119
348,8	12,376
349,3	15,548
349,8	16,405
350,2	24,919
350,7	23,49
351,1	20,319
351,6	23,69
352	28,662
352,5	31,09
353	38,033
353,4	40,319
353,9	52,49
354,3	62,205
354,8	70,319
355,3	85,433
355,7	99,89
356,2	115,29
356,6	135,662
357,1	157,148
357,5	180,576
358	211,376
358,5	239,176
358,9	276,576
359,4	318,205
359,8	364,262
360,3	421,09
360,8	482,49
361,2	553,348
361,7	624,805
362,1	709,805
362,6	801,062
363	896,176
363,5	994,976
364	1109,176
364,4	1217,69
364,9	1333,376
365,3	1438,09
365,8	1543,719
366,3	1637,119
366,7	1729,348
367,2	1801,976
367,6	1861,748
368,1	1910,376
368,5	1946,233
369	1959,89
369,5	1967,633
369,9	1956,148
370,4	1929,89
370,8	1891,405
371,3	1834,233
371,7	1768,033
372,2	1693,205
372,7	1608,776
373,1	1518,005
373,6	1429,233
374	1340,319
374,5	1253,948
374,9	1168,576
375,4	1084,833
375,9	1009,548
376,3	933,519
376,8	857,548
377,2	789,062
377,7	726,662
378,2	664,462
378,6	610,748
379,1	559,433
379,5	516,69
380	480,519
380,4	437,09
380,9	398,662
381,4	365,29
381,8	337,348
382,3	312,776
382,7	290,49
383,2	266,49
383,6	250,319
384,1	233,433
384,6	224,805
385	208,862
385,5	194,176
385,9	176,719
386,4	160,433
386,8	152,89
387,3	144,948
387,7	131,062
388,2	123,862
388,7	116,633
389,1	112,062
389,6	110,205
390	100,605
390,5	93,605
390,9	90,49
391,4	85,462
391,9	78,09
392,3	73,376
392,8	66,462
393,2	59,462
393,7	53,69
394,1	51,719
394,6	48,89
395,1	52,262
395,5	47,09
396	47,319
396,4	45,348
396,9	43,405
397,3	41,862
397,8	44,405
398,2	38,519
398,7	40,805
399,2	38,233
399,6	38,719
400,1	42,09
400,5	32,748
401	28,29
401,4	24,633
401,9	22,205
402,4	23,176
402,8	20,176
403,3	24,805
403,7	29,005
404,2	32,405
404,6	35,062
405,1	32,548
405,5	27,805
406	27,376
406,5	19,49
406,9	24,119
407,4	20,062
407,8	21,033
408,3	26,176
408,7	29,633
409,2	37,062
409,6	42,433
410,1	42,805
410,6	48,833
411	52,919
411,5	54,805
411,9	57,49
412,4	58,005
412,8	59,89
413,3	62,176
413,7	59,033
414,2	57,233
414,7	61,548
415,1	67,233
415,6	67,633
416	68,176
416,5	69,376
416,9	75,176
417,4	81,662
417,8	86,119
418,3	85,576
418,8	90,776
419,2	92,176
419,7	90,605
420,1	93,062
420,6	93,262
421	88,205
421,5	91,062
421,9	90,948
422,4	90,176
422,8	92,148
423,3	95,29
423,8	92,376
424,2	91,405
424,7	87,005
425,1	88,462
425,6	94,176
426	95,548
426,5	89,548
426,9	92,433
427,4	88,319
427,9	86,548
428,3	85,062
428,8	80,319
429,2	79,005
429,7	80,319
430,1	77,233
430,6	83,662
431	84,776
431,5	86,376
431,9	85,89
432,4	87,69
432,8	90,976
433,3	94,519
433,8	96,748
434,2	98,062
434,7	99,576
435,1	100,805
435,6	105,462
436	103,69
436,5	105,948
436,9	104,205
437,4	108,89
437,8	109,633
438,3	111,548
438,8	111,148
439,2	116,033
439,7	123,119
440,1	127,376
440,6	139,148
441	143,148
441,5	157,548
441,9	165,262
442,4	167,948
442,8	169,948
443,3	177,948
443,7	179,033
444,2	187,576
444,7	188,205
445,1	195,89
445,6	207,976
446	218,319
446,5	223,033
446,9	226,919
447,4	235,948
447,8	244,776
448,3	252,119
448,7	261,376
449,2	272,233
449,6	286,976
450,1	298,376
450,6	314,69
451	326,519
451,5	342,176
451,9	353,49
452,4	368,348
452,8	376,976
453,3	396,833
453,7	404,976
454,2	421,176
454,6	433,948
455,1	446,69
455,5	454,833
456	477,233
456,4	482,948
456,9	497,062
457,3	509,348
457,8	520,119
458,3	538,776
458,7	557,805
459,2	570,176
459,6	592,09
460,1	611,548
460,5	626,205
461	647,519
461,4	665,89
461,9	680,462
462,3	703,719
462,8	720,119
463,2	736,662
463,7	762,719
464,1	783,205
464,6	803,69
465	830,662
465,5	853,262
466	877,176
466,4	900,948
466,9	919,233
467,3	939,576
467,8	962,719
468,2	982,005
468,7	1001,119
469,1	1030,605
469,6	1056,89
470	1085,319
470,5	1108,862
470,9	1129,805
471,4	1151,805
471,8	1175,719
472,3	1198,09
472,7	1218,662
473,2	1238,776
473,6	1257,69
474,1	1286,119
474,5	1314,376
475	1336,148
475,4	1354,605
475,9	1377,462
476,4	1400,29
476,8	1428,376
477,3	1448,176
477,7	1472,09
478,2	1493,748
478,6	1509,605
479,1	1532,576
479,5	1548,062
480	1566,119
480,4	1591,633
480,9	1603,833
481,3	1622,719
481,8	1642,748
482,2	1655,89
482,7	1682,462
483,1	1703,462
483,6	1713,176
484	1730,576
484,5	1754,748
484,9	1773,519
485,4	1797,748
485,8	1812,062
486,3	1826,89
486,7	1843,976
487,2	1863,033
487,6	1869,319
488,1	1885,719
488,5	1896,833
489	1909,119
489,4	1927,719
489,9	1939,719
490,4	1952,89
490,8	1968,519
491,3	1986,605
491,7	1991,805
492,2	2008,833
492,6	2016,548
493,1	2024,948
493,5	2030,405
494	2039,948
494,4	2041,433
494,9	2056,89
495,3	2065,376
495,8	2071,919
496,2	2086,433
496,7	2092,605
497,1	2103,033
497,6	2114,49
498	2121,09
498,5	2129,49
498,9	2136,862
499,4	2144,29
499,8	2157,262
500,3	2164,148
500,7	2166,776
501,2	2174,119
501,6	2173,719
502,1	2180,948
502,5	2187,833
503	2197,205
503,4	2195,89
503,9	2205,833
504,3	2215,805
504,8	2224,519
505,2	2233,69
505,7	2235,062
506,1	2247,148
506,6	2255,462
507	2262,405
507,5	2270,262
507,9	2269,405
508,4	2272,148
508,8	2279,033
509,3	2275,49
509,7	2285,433
510,2	2292,748
510,6	2285,519
511,1	2297,033
511,5	2300,976
512	2303,833
512,4	2312,29
512,9	2315,348
513,3	2320,605
513,8	2330,062
514,2	2330,748
514,7	2338,09
515,1	2342,548
515,6	2341,833
516	2339,49
516,5	2342,662
516,9	2347,519
517,4	2359,548
517,8	2365,69
518,3	2367,976
518,7	2375,748
519,2	2381,062
519,6	2387,376
520,1	2391,805
520,5	2395,519
521	2398,262
521,4	2407,062
521,9	2407,233
522,3	2417,49
522,8	2419,262
523,2	2425,319
523,7	2433,49
524,1	2438,319
524,6	2446,29
525	2453,09
525,5	2461,062
525,9	2469,119
526,4	2474,262
526,8	2472,576
527,3	2477,319
527,7	2478,719
528,2	2491,576
528,6	2492,376
529,1	2501,148
529,5	2512,776
530	2521,119
530,4	2530,805
530,9	2541,233
531,3	2547,262
531,8	2557,09
532,2	2563,376
532,6	2568,119
533,1	2573,576
533,5	2583,233
534	2587,662
534,4	2590,119
534,9	2598,719
535,3	2602,176
535,8	2608,662
536,2	2617,09
536,7	2623,605
537,1	2634,462
537,6	2645,09
538	2647,748
538,5	2658,205
538,9	2667,49
539,4	2675,462
539,8	2678,633
540,3	2685,576
540,7	2695,405
541,2	2705,862
541,6	2714,176
542,1	2724,119
542,5	2736,519
543	2741,805
543,4	2746,433
543,9	2752,29
544,3	2757,719
544,8	2760,262
545,2	2763,519
545,7	2771,233
546,1	2785,69
546,5	2797,348
547	2802,69
547,4	2819,29
547,9	2827,348
548,3	2836,976
548,8	2843,005
549,2	2847,262
549,7	2850,919
550,1	2860,719
550,6	2863,348
551	2874,433
551,5	2875,862
551,9	2886,719
552,4	2891,633
552,8	2906,948
553,3	2909,633
553,7	2912,776
554,2	2921,148
554,6	2930,862
555,1	2933,948
555,5	2940,633
555,9	2943,262
556,4	2948,919
556,8	2953,862
557,3	2958,233
557,7	2966,805
558,2	2968,633
558,6	2976,805
559,1	2983,576
559,5	2986,176
560	2995,348
560,4	2998,233
560,9	2999,09
561,3	3004,49
561,8	3008,348
562,2	3009,005
562,7	3019,005
563,1	3022,862
563,6	3020,433
564	3032,948
564,4	3037,662
564,9	3040,462
565,3	3044,348
565,8	3045,976
566,2	3051,833
566,7	3059,89
567,1	3057,033
567,6	3058,433
568	3062,605
568,5	3064,776
568,9	3064,462
569,4	3064,805
569,8	3069,69
570,3	3071,148
570,7	3067,148
571,1	3070,262
571,6	3077,576
572	3085,833
572,5	3088,09
572,9	3088,262
573,4	3089,805
573,8	3101,233
574,3	3097,776
574,7	3091,548
575,2	3080,548
575,6	3079,262
576,1	3084,405
576,5	3086,748
576,9	3079,176
577,4	3080,148
577,8	3078,262
578,3	3079,976
578,7	3073,433
579,2	3067,805
579,6	3057,205
580,1	3056,662
580,5	3056,433
581	3060,49
581,4	3064,062
581,9	3062,262
582,3	3056,148
582,7	3061,49
583,2	3059,119
583,6	3051,748
584,1	3048,605
584,5	3040,89
585	3043,176
585,4	3028,09
585,9	3019,919
586,3	3021,462
586,8	3017,89
587,2	3006,405
587,6	3006,548
588,1	3002,948
588,5	3010,576
589	3003,69
589,4	2988,262
589,9	2983,09
590,3	2977,833
590,8	2974,719
591,2	2974,719
591,7	2974,319
592,1	2970,148
592,5	2973,348
593	2962,919
593,4	2962,005
593,9	2949,719
594,3	2934,376
594,8	2925,205
595,2	2926,29
595,7	2922,662
596,1	2926,719
596,6	2926,519
597	2925,633
597,4	2926,833
597,9	2922,948
598,3	2919,976
598,8	2912,433
599,2	2904,29
599,7	2895,062
600,1	2893,176
600,6	2882,176
601	2876,376
601,4	2871,405
601,9	2864,148
602,3	2857,233
602,8	2848,89
603,2	2838,205
603,7	2837,09
604,1	2830,062
604,6	2816,233
605	2807,805
605,4	2799,462
605,9	2785,69
606,3	2774,462
606,8	2762,262
607,2	2749,576
607,7	2740,805
608,1	2727,976
608,6	2727,862
609	2731,348
609,4	2725,662
609,9	2715,776
610,3	2706,805
610,8	2696,605
611,2	2696,462
611,7	2679,433
612,1	2661,176
612,6	2656,433
613	2650,262
613,4	2643,262
613,9	2639,233
614,3	2625,376
614,8	2622,976
615,2	2619,033
615,7	2613,09
616,1	2605,405
616,6	2595,69
617	2579,605
617,4	2565,462
617,9	2552,033
618,3	2540,776
618,8	2528,748
619,2	2514,433
619,7	2511,519
620,1	2506,119
620,5	2505,976
621	2494,348
621,4	2484,433
621,9	2468,29
622,3	2463,09
622,8	2445,405
623,2	2437,548
623,6	2424,548
624,1	2417,748
624,5	2405,005
625	2397,919
625,4	2385,833
625,9	2371,576
626,3	2359,662
626,8	2345,576
627,2	2333,119
627,6	2313,805
628,1	2297,062
628,5	2283,033
629	2273,062
629,4	2255,348
629,9	2245,576
630,3	2232,005
630,7	2220,462
631,2	2213,748
631,6	2202,719
632,1	2196,49
632,5	2185,719
633	2175,69
633,4	2162,605
633,8	2159,633
634,3	2146,348
634,7	2133,233
635,2	2115,29
635,6	2106,862
636,1	2093,433
636,5	2084,148
636,9	2070,776
637,4	2056,89
637,8	2050,462
638,3	2040,49
638,7	2025,233
639,2	2014,29
639,6	2008,862
640	2000,205
640,5	1995,69
640,9	1979,519
641,4	1969,29
641,8	1958,919
642,2	1949,09
642,7	1936,719
643,1	1933,176
643,6	1919,69
644	1911,548
644,5	1907,948
644,9	1901,719
645,3	1889,948
645,8	1873,262
646,2	1862,89
646,7	1854,433
647,1	1846,262
647,6	1839,376
648	1833,576
648,4	1826,376
648,9	1821,548
649,3	1805,748
649,8	1796,633
650,2	1789,833
650,6	1775,519
651,1	1766,376
651,5	1754,062
652	1742,69
652,4	1733,005
652,9	1721,119
653,3	1709,605
653,7	1697,976
654,2	1685,69
654,6	1676,348
655,1	1672,719
655,5	1669,033
655,9	1660,776
656,4	1652,576
656,8	1640,948
657,3	1633,919
657,7	1627,633
658,2	1613,148
658,6	1600,862
659	1592,862
659,5	1576,519
659,9	1570,748
660,4	1563,948
660,8	1553,919
661,2	1542,919
661,7	1532,205
662,1	1524,605
662,6	1520,348
663	1510,576
663,4	1494,776
663,9	1483,633
664,3	1474,205
664,8	1459,405
665,2	1443,49
665,6	1431,348
666,1	1421,805
666,5	1416,748
667	1409,805
667,4	1400,719
667,9	1392,948
668,3	1386,776
668,7	1379,005
669,2	1373,319
669,6	1359,462
670,1	1350,548
670,5	1340,033
670,9	1333,69
671,4	1323,976
671,8	1319,176
672,3	1311,662
672,7	1309,176
673,1	1295,719
673,6	1285,976
674	1280,576
674,5	1274,862
674,9	1258,862
675,3	1244,605
675,8	1231,119
676,2	1227,062
676,7	1220,548
677,1	1209,49
677,5	1197,462
678	1192,29
678,4	1188,976
678,9	1179,233
679,3	1169,805
679,7	1162,176
680,2	1149,119
680,6	1136,948
681,1	1132,319
681,5	1126,262
681,9	1120,976
682,4	1113,776
682,8	1108,976
683,3	1112,005
683,7	1112,69
684,1	1101,205
684,6	1089,862
685	1078,805
685,5	1073,062
685,9	1059,605
686,3	1049,776
686,8	1044,576
687,2	1041,005
687,7	1032,148
688,1	1027,948
688,5	1020,69
689	1020,919
689,4	1009,719
689,9	999,062
690,3	988,462
690,7	982,89
691,2	981,405
691,6	974,062
692	966,976
692,5	967,262
692,9	962,033
693,4	959,633
693,8	954,233
694,2	944,433
694,7	937,633
695,1	928,776
695,6	917,005
696	909,976
696,4	902,262
696,9	893,719
697,3	882,605
697,8	879,805
698,2	872,633
698,6	869,433
699,1	862,148
699,5	860,948
699,9	854,462
700,4	849,948
700,8	843,176
701,3	842,662
701,7	834,862
702,1	826,09
702,6	814,148
703	811,919
703,5	809,29
703,9	800,805
704,3	794,005
704,8	783,833
705,2	783,376
705,6	782,119
706,1	776,005
706,5	767,462
707	763,033
707,4	760,862
707,8	757,776
708,3	753,205
708,7	747,433
709,2	742,09
709,6	736,89
710	732,919
710,5	719,89
710,9	713,548
711,3	705,405
711,8	701,033
712,2	698,005
712,7	695,29
713,1	692,748
713,5	693,062
714	692,576
714,4	689,49
714,8	684,29
715,3	676,262
715,7	671,633
716,2	661,176
716,6	655,662
717	649,776
717,5	645,29
717,9	644,176
718,3	637,176
718,8	632,548
719,2	627,719
719,7	622,548
720,1	617,862
720,5	615,09
721	601,776
721,4	600,005
721,8	599,833
722,3	596,662
722,7	595,148
723,2	587,548
723,6	573,89
724	568,89
724,5	563,348
724,9	552,976
725,3	547,776
725,8	541,548
726,2	537,376
726,7	535,805
727,1	537,976
727,5	537,719
728	535,148
728,4	533,49
728,8	527,119
729,3	526,405
729,7	524,948
730,1	519,205
730,6	513,548
731	509,319
731,5	503,548
731,9	504,29
732,3	503,062
732,8	501,833
733,2	496,719
733,6	495,062
734,1	494,776
734,5	493,433
734,9	492,262
735,4	490,062
735,8	484,262
736,3	489,348
736,7	483,033
737,1	478,519
737,6	478,062
738	471,033
738,4	465,29
738,9	465,205
739,3	456,948
739,7	458,205
740,2	454,462
740,6	455,919
741,1	457,319
741,5	450,548
741,9	446,576
742,4	447,062
742,8	440,09
743,2	435,519
743,7	423,69
744,1	413,919
744,5	415,69
745	412,519
745,4	403,662
745,8	403,405
746,3	402,805
746,7	401,033
747,2	396,09
747,6	399,205
748	400,148
748,5	403,862
748,9	397,89
749,3	394,49
749,8	393,548
750,2	394,833
750,6	382,748
751,1	380,576
751,5	371,348
751,9	375,833
752,4	375,748
752,8	372,462
753,3	368,319
753,7	374,776
754,1	365,833
754,6	363,176
755	351,862
755,4	350,09
755,9	350,062
756,3	348,348
756,7	341,033
757,2	343,833
757,6	340,49
758	343,348
758,5	334,376
758,9	327,89
759,3	326,462
759,8	324,919
760,2	320,719
760,6	321,462
761,1	316,348
761,5	310,776
761,9	308,433
762,4	304,548
762,8	299,605
763,3	297,233
763,7	296,49
764,1	297,519
764,6	304,29
765	308,319
765,4	309,776
765,9	312,376
766,3	315,748
766,7	310,976
767,2	305,662
767,6	305,748
768	302,976
768,5	296,433
768,9	293,49
769,3	286,862
769,8	281,805
770,2	282,69
770,6	279,033
771,1	276,148
771,5	279,805
771,9	279,433
772,4	280,09
772,8	284,862
773,2	285,005
773,7	281,576
774,1	277,005
774,5	268,833
775	263,519
775,4	260,662
775,8	253,89
776,3	249,719
776,7	249,29
777,1	250,148
777,6	250,433
778	252,519
778,4	247,976
778,9	252,376
779,3	248,319
779,7	244,69
780,2	243,148
780,6	242,119
781	236,519
781,5	232,976
781,9	230,605
782,3	226,919
782,8	227,919
783,2	224,005
783,6	228,662
784,1	225,148
784,5	226,576
784,9	219,633
785,4	224,605
785,8	224,976
786,2	224,862
786,7	215,433
787,1	215,605
787,5	212,462
788	214,69
788,4	212,662
788,8	206,548
789,3	204,548
789,7	204,462
790,1	204,148
790,6	205,205
791	198,49
791,4	197,348
791,9	196,49
792,3	191,09
792,7	193,29
793,2	189,148
793,6	187,948
794	191,233
794,5	183,519
794,9	183,148
795,3	189,319
795,8	184,805
796,2	186,748
796,6	185,89
797,1	182,919
797,5	185,29
797,9	185,005
798,4	179,062
798,8	177,29
799,2	172,348
799,7	173,233
800,1	175,233
800,5	173,919
801	173,805
801,4	172,062
801,8	170,319
802,2	170,89
802,7	162,405
803,1	161,519
803,5	157,262
804	151,919
804,4	151,205
804,8	152,29
805,3	150,376
805,7	155,262
806,1	148,548
806,6	151,833
807	150,376
807,4	150,176
807,9	146,976
808,3	144,348
808,7	140,119
809,2	142,148
809,6	142,233
810	142,605
810,4	142,919
810,9	143,376
811,3	146,462
811,7	147,262
812,2	149,605
812,6	147,205
813	152,919
813,5	150,033
813,9	147,719
814,3	143,719
814,8	142,776
815,2	141,148
815,6	139,69
816,1	134,919
816,5	132,89
816,9	133,605
817,3	133,719
817,8	131,976
818,2	126,89
818,6	124,49
819,1	124,376
819,5	123,633
819,9	122,548
820,4	123,919
820,8	121,69
821,2	118,576
821,7	121,576
822,1	121,748
822,5	126,405
822,9	126,519
823,4	121,09
823,8	126,005
824,2	129,09
824,7	124,005
825,1	116,976
825,5	107,49
826	103,576
826,4	106,148
826,8	102,033
827,3	102,89
827,7	100,233
828,1	100,833
828,5	104,233
829	102,119
829,4	102,033
829,8	96,519
830,3	94,748
830,7	95,319
831,1	98,176
831,6	96,833
832	100,919
832,4	101,148
832,8	100,805
833,3	96,748
833,7	95,919
834,1	90,462
834,6	88,09
835	87,719
835,4	86,376
835,8	85,205
836,3	84,148
836,7	82,033
837,1	82,776
837,6	86,319
838	83,09
838,4	81,319
838,9	85,69
839,3	86,862
839,7	87,976
840,1	79,033
840,6	76,433
841	76,862
841,4	73,919
841,9	69,176
842,3	67,062
842,7	67,69
843,1	73,433
843,6	76,033
844	73,148
844,4	77,948
844,9	79,976
845,3	78,919
845,7	80,433
846,2	76,148
846,6	66,748
847	66,89
847,4	62,919
847,9	62,89
848,3	67,033
848,7	62,719
849,2	64,119
849,6	63,005
850	65,119
850,4	61,89
850,9	61,976
851,3	58,005
851,7	63,69
852,2	64,89
852,6	72,862
853	72,605
853,4	75,805
853,9	72,09
854,3	72,29
854,7	67,148
855,2	64,862
855,6	64,29
856	58,976
856,4	56,205
856,9	55,748
857,3	56,119
857,7	59,033
858,2	64,719
858,6	59,89
859	64,462
859,4	64,319
859,9	64,348
860,3	60,576
860,7	58,776
861,1	57,148
861,6	56,205
862	51,833
862,4	49,548
862,9	51,148
863,3	56,205
863,7	57,148
864,1	56,405
864,6	55,348
865	55,376
865,4	56,519
865,9	56,433
866,3	50,49
866,7	48,205
867,1	44,262
867,6	48,205
868	44,462
868,4	42,89
868,8	45,376
869,3	50,862
869,7	55,948
870,1	57,176
870,6	55,49
871	4,49
871,4	10,548
871,8	5,805
872,3	5,548
872,7	2,09
873,1	3,405
873,5	5,548
874	62,033
874,4	57,405
874,8	55,548
875,3	52,033
875,7	50,205
876,1	48,09
876,5	45,205
877	40,719
877,4	36,462
877,8	40,119
878,2	41,89
878,7	43,89
879,1	45,376
879,5	44,548
879,9	49,348
880,4	51,605
880,8	49,433
881,2	43,148
881,7	37,862
882,1	35,719
882,5	35,862
882,9	33,776
883,4	32,519
883,8	32,29
884,2	38,033
884,6	36,062
885,1	36,69
885,5	36,719
885,9	35,09
886,3	37,348
886,8	34,976
887,2	31,348
887,6	34,376
888	33,09
888,5	28,005
888,9	26,748
889,3	24,548
889,8	25,29
890,2	24,29
890,6	19,89
891	21,748
891,5	28,262
891,9	31,262
892,3	33,776
892,7	33,776
893,2	37,119
893,6	39,719
894	38,433
894,4	36,89
894,9	31,262
895,3	29,233
895,7	29,719
896,1	30,148
896,6	31,805
897	32,576
897,4	36,548
897,8	42,662
898,3	42,805
898,7	42,319
899,1	39,548
899,5	35,948
900	32,09
900,4	27,833
900,8	22,519
901,2	20,062
901,7	19,719
902,1	21,205
902,5	24,319
902,9	26,633
903,4	22,948
903,8	27,605
904,2	30,662
904,6	30,519
905,1	28,462
905,5	28,833
905,9	32,919
906,3	37,119
906,8	36,89
907,2	33,805
907,6	35,233
908	38,519
908,5	34,29
908,9	29,519
909,3	28,233
909,7	26,319
910,2	31,69
910,6	34,576
911	31,348
911,4	33,005
911,9	30,09
912,3	27,862
912,7	29,376
913,1	27,29
913,6	17,576
914	17,89
914,4	15,005
914,8	18,49
915,3	17,662
915,7	16,348
916,1	15,148
916,5	20,262
916,9	18,948
917,4	22,862
917,8	23,805
918,2	21,576
918,6	16,519
919,1	16,605
919,5	20,405
919,9	22,833
920,3	17,833
920,8	17,69
921,2	19,462
921,6	24,633
922	23,405
922,5	18,005
922,9	16,433
923,3	17,519
923,7	16,348
924,2	15,805
924,6	14,576
925	14,976
925,4	14,662
925,8	14,919
926,3	16,69
926,7	12,948
927,1	16,49
927,5	14,919
928	13,062
928,4	12,348
928,8	13,69
929,2	15,148
929,7	17,662
930,1	15,376
930,5	14,833
930,9	19,033
931,3	19,805
931,8	19,662
932,2	20,605
932,6	19,405
933	14,69
933,5	15,005
933,9	14,062
934,3	15,748
934,7	14,319
935,2	12,09
935,6	13,69
936	18,405
936,4	19,49
936,8	18,633
937,3	15,748
937,7	16,205
938,1	17,462
938,5	14,205
939	16,519
939,4	15,748
939,8	15,376
940,2	16,662
940,6	19,119
941,1	14,633
941,5	21,205
941,9	20,69
942,3	21,119
942,8	20,719
943,2	22,776
943,6	18,29
944	20,69
944,4	17,205
944,9	15,433
945,3	13,29
945,7	8,89
946,1	5,49
946,6	3,833
947	4,376
947,4	6,233
947,8	6,833
948,2	8,29
948,7	12,09
949,1	11,205
949,5	15,262
949,9	13,89
950,3	13,862
950,8	14,148
951,2	9,919
951,6	8,005
952	14,119
952,5	8,833
952,9	8,633
953,3	5,176
953,7	4,348
954,1	9,433
954,6	12,148
955	10,319
955,4	12,69
955,8	18,319
956,2	18,033
956,7	15,776
957,1	11,548
957,5	12,176
957,9	12,205
958,3	13,319
958,8	11,062
959,2	16,262
959,6	20,233
960	25,719
960,5	27,805
960,9	29,748
961,3	26,576
961,7	22,319
962,1	17,262
962,6	16,319
963	18,976
963,4	13,948
963,8	9,719
964,2	10,833
964,7	11,862
965,1	15,548
965,5	14,576
965,9	11,205
966,3	14,319
966,8	14,633
967,2	18,29
967,6	21,69
968	15,605
968,4	16,719
968,9	14,033
969,3	18,576
969,7	19,833
970,1	17,89
970,5	14,948
971	19,776
971,4	16,433
971,8	21,89
972,2	12,862
972,6	10,633
973,1	11,148
973,5	10,29
973,9	15,119
974,3	16,233
974,7	13,233
975,2	18,033
975,6	17,29
976	17,862
976,4	14,69
976,8	5,176
977,3	5,09
977,7	2,49
978,1	-0,538
978,5	-1,481
978,9	-5,881
979,4	-3,281
979,8	-0,767
980,2	3,433
980,6	1,833
981	2,176
981,5	6,748
981,9	9,662
982,3	13,605
982,7	16,719
983,1	10,09
983,6	15,233
984	19,919
984,4	19,005
984,8	17,576
985,2	17,519
985,6	11,69
986,1	14,433
986,5	12,976
986,9	3,005
987,3	4,148
987,7	1,633
988,2	-1,795
988,6	1,919
989	2,09
989,4	3,319
989,8	9,519
990,3	5,205
990,7	10,833
991,1	10,633
991,5	12,89
991,9	14,662
992,3	13,148
992,8	12,605
993,2	12,205
993,6	13,548
994	17,462
994,4	16,405
994,9	16,919
995,3	18,348
995,7	17,376
996,1	20,262
996,5	18,119
996,9	10,919
997,4	13,376
997,8	8,29
998,2	5,433
998,6	1,205
999	0,433
999,5	-1,252
999,9	1,49
1000,3	-4,624
1000,7	0,862
1001,1	2,662
1001,5	12,462
1002	15,919
1002,4	19,748
1002,8	19,148
1003,2	24,09
1003,6	26,005
1004	26,69
1004,5	21,462
1004,9	22,033
1005,3	19,519
1005,7	21,919
1006,1	20,119
1006,6	13,605
1007	12,262
1007,4	10,748
1007,8	8,719
1008,2	5,576
1008,6	7,348
1009,1	5,29
1009,5	7,69
1009,9	10,119
1010,3	14,776
1010,7	12,033
1011,1	13,89
1011,6	12,805
1012	15,89
1012,4	13,462
1012,8	7,319
1013,2	6,948
1013,6	8,748
1014,1	6,919
1014,5	5,376
1014,9	4,348
1015,3	4,919
1015,7	9,29
1016,1	7,376
1016,6	7,49
1017	10,89
1017,4	11,576
1017,8	10,919
1018,2	14,633
1018,6	11,69
1019,1	8,605
1019,5	6,062
1019,9	1,29
1020,3	-0,767
1020,7	2,405
1021,1	-2,081
1021,6	-1,938
1022	5,405
1022,4	7,576
1022,8	10,919
1023,2	14,719
1023,6	14,462
1024,1	18,29
1024,5	20,776
1024,9	13,205
1025,3	11,976
1025,7	10,748
1026,1	10,548
1026,6	7,119
1027	5,89
1027,4	5,862
1027,8	7,605
1028,2	5,633
1028,6	14,062
1029	13,433
1029,5	16,005
1029,9	11,233
1030,3	10,319
1030,7	11,948
1031,1	15,748
1031,5	7,433
1032	6,119
1032,4	4,205
1032,8	12,205
1033,2	15,548
1033,6	14,233
1034	13,09
1034,4	16,376
1034,9	18,119
1035,3	13,662
1035,7	11,262
1036,1	7,233
1036,5	6,376
1036,9	5,948
1037,4	8,548
1037,8	5,062
1038,2	8,176
1038,6	6,576
1039	8,805
1039,4	11,519
1039,8	10,519
1040,3	6,89
1040,7	3,948
1041,1	3,862
1041,5	7,805
1041,9	6,576
1042,3	2,148
1042,7	5,205
1043,2	5,776
1043,6	10,976
1044	10,948
1044,4	9,633
1044,8	11,233
1045,2	14,833
1045,6	16,462
1046,1	13,919
1046,5	13,09
1046,9	14,576
1047,3	13,09
1047,7	9,833
1048,1	9,662
1048,5	5,548
1049	8,862
1049,4	12,805
1049,8	7,319
1050,2	5,548
1050,6	12,033
1051	15,948
1051,4	17,49
1051,9	15,862
1052,3	16,833
1052,7	22,262
1053,1	19,519
1053,5	12,033
1053,9	6,719
1054,3	5,49
1054,8	9,548
1055,2	7,548
1055,6	11,09
1056	15,005
1056,4	13,833
1056,8	14,948
1057,2	15,948
1057,6	8,948
1058,1	7,748
1058,5	2,548
1058,9	4,405
1059,3	8,862
1059,7	10,748
1060,1	10,748
1060,5	14,919
1061	13,633
1061,4	16,233
1061,8	19,119
1062,2	18,976
1062,6	19,348
1063	20,29
1063,4	21,948
1063,8	20,89
1064,3	13,319
1064,7	7,662
1065,1	5,148
1065,5	1,776
1065,9	-0,024
1066,3	-4,967
1066,7	-8,595
1067,1	-5,824
1067,6	-2,71
1068	-5,795
1068,4	-3,824
1068,8	-3,024
1069,2	-3,11
1069,6	3,662
1070	9,976
1070,4	6,205
1070,9	7,976
1071,3	6,948
1071,7	5,405
1072,1	4,69
1072,5	-0,652
1072,9	-2,767
1073,3	1,176
1073,7	2,662
1074,2	0,976
1074,6	3,462
1075	4,433
1075,4	9,148
1075,8	9,433
1076,2	5,948
1076,6	6,348
1077	7,005
1077,5	10,29
1077,9	11,433
1078,3	7,29
1078,7	5,862
1079,1	6,49
1079,5	6,776
1079,9	7,833
1080,3	2,605
1080,7	1,49
1081,2	7,576
1081,6	6,605
1082	6,748
1082,4	15,548
1082,8	15,719
1083,2	16,776
1083,6	17,462
1084	11,062
1084,5	15,119
1084,9	14,119
1085,3	3,176
1085,7	4,69
1086,1	2,862
1086,5	1,805
1086,9	10,205
1087,3	4,748
1087,7	5,605
1088,2	7,605
1088,6	5,433
1089	5,176
1089,4	7,805
1089,8	7,433
1090,2	7,176
1090,6	10,376
1091	13,033
1091,4	15,09
1091,9	17,233
1092,3	15,948
1092,7	11,205
1093,1	18,148
1093,5	12,862
1093,9	11,405
1094,3	15,29
1094,7	14,576
1095,1	16,119
1095,5	13,633
1096	9,29
1096,4	10,119
1096,8	10,148
1097,2	6,89
1097,6	11,262
1098	9,405
1098,4	11,805
1098,8	14,062
1099,2	21,233
1099,6	20,69
1100,1	17,805
1100,5	11,376
1100,9	12,519
1101,3	14,176
1101,7	11,919
1102,1	6,776
1102,5	7,719
1102,9	10,148
1103,3	14,205
1103,7	14,29
1104,2	10,633
1104,6	9,662
1105	9,005
1105,4	8,633
1105,8	5,519
1106,2	2,348
1106,6	0,633
1107	2,005
1107,4	2,1
1107,8	1,673
1108,3	-0,317
