Data from Subt2_139.txt Node
Date: Sat Aug 26 18:28:13 MSK 2023
User: vat
Spectrometer: MAYP114033
Trigger mode: 0
Integration Time (sec): 1,000000E0
Scans to average: 5
Electric dark correction enabled: true
Nonlinearity correction enabled: false
Boxcar width: 3
XAxis mode: Wavelengths
Number of Pixels in Spectrum: 2068
>>>>>Begin Spectral Data<<<<<
199,4	-0,2
199,9	1,54
200,4	-2,233
200,8	-2,586
201,3	-2,5
201,8	-0,271
202,2	-1,357
202,7	1,9
203,2	0,186
203,6	2,871
204,1	0,1
204,6	-1,643
205	-0,814
205,5	0,129
206	-2,929
206,4	-4,814
206,9	-7,214
207,4	-3,529
207,8	0,043
208,3	-2,557
208,8	-1,414
209,2	-0,214
209,7	2,7
210,2	3,643
210,6	4,871
211,1	3,586
211,5	0,729
212	0,929
212,5	2,586
212,9	3,071
213,4	7,471
213,9	6,986
214,3	6,443
214,8	9,929
215,3	6,557
215,7	6,271
216,2	5,214
216,7	3,529
217,1	-0,386
217,6	1,814
218,1	-3,329
218,5	-4,1
219	-13,443
219,5	-10,071
219,9	-17,871
220,4	-8,3
220,9	-9,186
221,3	-8,414
221,8	-4,729
222,3	0,443
222,7	0,414
223,2	9,043
223,6	3,014
224,1	1,071
224,6	7,957
225	5,157
225,5	5,871
226	2,5
226,4	0,843
226,9	3,5
227,4	3,214
227,8	-4,129
228,3	-5,1
228,8	-2,671
229,2	-2,129
229,7	-3,3
230,2	-7,7
230,6	-4,871
231,1	1,386
231,5	4,814
232	3,5
232,5	1,471
232,9	3,586
233,4	6,443
233,9	2,243
234,3	1,414
234,8	3,214
235,3	0,157
235,7	2,814
236,2	2,529
236,7	2,271
237,1	6,186
237,6	0,071
238,1	-3,757
238,5	-4,214
239	-3,1
239,4	-1,7
239,9	-4,357
240,4	-7,729
240,8	-1,129
241,3	-1,786
241,8	1,729
242,2	-0,529
242,7	-5,643
243,2	-4,129
243,6	-2,386
244,1	-3,357
244,6	-1,157
245	-1,7
245,5	-2,529
245,9	-4,5
246,4	-4,271
246,9	0,3
247,3	-0,271
247,8	4,129
248,3	5,386
248,7	8,557
249,2	13,214
249,7	10,957
250,1	6,529
250,6	7,071
251	2,043
251,5	-1,671
252	-1,271
252,4	1,243
252,9	2,329
253,4	1,5
253,8	-1,586
254,3	-0,1
254,8	3,014
255,2	1,443
255,7	-3,386
256,1	-5,329
256,6	-6,671
257,1	-4,186
257,5	-8,414
258	-11,643
258,5	-12,9
258,9	-8,271
259,4	-8,071
259,9	-3,529
260,3	-5,329
260,8	-4,757
261,2	-4,471
261,7	-5,5
262,2	-10,7
262,6	-10,957
263,1	-9,043
263,6	-6,1
264	-1,129
264,5	6,357
264,9	6,243
265,4	12,986
265,9	14,957
266,3	15,9
266,8	17,186
267,3	14,357
267,7	9,871
268,2	10,357
268,7	7,129
269,1	9,814
269,6	4,671
270	7,1
270,5	3,071
271	5,014
271,4	4,9
271,9	-0,814
272,4	1,786
272,8	3,271
273,3	-4,186
273,7	1,1
274,2	0,957
274,7	1,729
275,1	7,786
275,6	4,471
276,1	0,157
276,5	5,243
277	5,729
277,4	5,814
277,9	8,443
278,4	8,271
278,8	10,529
279,3	13,414
279,8	13,529
280,2	15,329
280,7	18,214
281,1	12,271
281,6	11,5
282,1	10,014
282,5	9,671
283	7,043
283,4	4,157
283,9	-0,071
284,4	6,814
284,8	10,843
285,3	7,814
285,8	11,214
286,2	9,3
286,7	8,786
287,1	7,443
287,6	6,586
288,1	1,243
288,5	3,471
289	-2,186
289,5	2,357
289,9	1,443
290,4	3,957
290,8	1,557
291,3	-0,3
291,8	-0,929
292,2	2,329
292,7	1,786
293,1	4,043
293,6	3,843
294,1	3,586
294,5	8,414
295	11,443
295,5	10,071
295,9	6,043
296,4	2,386
296,8	-0,557
297,3	1,929
297,8	-2,3
298,2	-8,014
298,7	-4,357
299,1	1,957
299,6	-0,643
300,1	2,7
300,5	3,5
301	6,529
301,5	14,243
301,9	10,929
302,4	1,814
302,8	6,386
303,3	5,443
303,8	-1,243
304,2	-0,471
304,7	-6,5
305,1	-9,614
305,6	-4,786
306,1	0,9
306,5	3,129
307	8,957
307,4	11,614
307,9	14,271
308,4	16,071
308,8	13,957
309,3	6,243
309,8	4,157
310,2	3,186
310,7	-3,9
311,1	-3,3
311,6	-0,671
312,1	2,529
312,5	7,643
313	8,986
313,4	9,3
313,9	13,386
314,4	7,729
314,8	6,871
315,3	3,157
315,7	-1,443
316,2	-4,9
316,7	-7,414
317,1	-2,071
317,6	-2,129
318	3,5
318,5	5,1
319	6,471
319,4	7,186
319,9	12,386
320,3	6,1
320,8	6,843
321,3	4,214
321,7	8,3
322,2	1,843
322,6	1,7
323,1	-4,643
323,6	-7,214
324	-4,729
324,5	-7,757
324,9	-10,329
325,4	-2,786
325,9	-0,614
326,3	0,329
326,8	5,443
327,2	0,871
327,7	1,386
328,2	0,814
328,6	6,757
329,1	0,214
329,5	3,5
330	4,443
330,5	10,471
330,9	9,5
331,4	11,043
331,8	3,071
332,3	9,357
332,8	6,557
333,2	2,729
333,7	4,129
334,1	7,329
334,6	2,843
335,1	-2,386
335,5	-1,386
336	-1,243
336,4	0,557
336,9	4,214
337,4	2,071
337,8	3,929
338,3	9,786
338,7	9,814
339,2	8,5
339,7	10,957
340,1	3,529
340,6	2,643
341	-0,671
341,5	1,5
342	-4,186
342,4	-4,471
342,9	-9,271
343,3	-7,786
343,8	-7,329
344,2	-1,957
344,7	0,586
345,2	3,643
345,6	5,814
346,1	8,7
346,5	6,757
347	2,443
347,5	1,071
347,9	-0,414
348,4	0,586
348,8	-0,786
349,3	-2,614
349,8	-1,129
350,2	8,7
350,7	3,871
351,1	3,929
351,6	6,9
352	12,471
352,5	19,357
353	26,1
353,4	27,929
353,9	39,814
354,3	47,443
354,8	52,671
355,3	67,757
355,7	83,1
356,2	100,586
356,6	119,243
357,1	145,357
357,5	172,786
358	206,957
358,5	236,443
358,9	268,986
359,4	311,871
359,8	361,643
360,3	417,986
360,8	475,443
361,2	540,986
361,7	617,014
362,1	703,329
362,6	792,1
363	885,5
363,5	983,7
364	1098,871
364,4	1213,014
364,9	1323,871
365,3	1435,329
365,8	1535,271
366,3	1634,014
366,7	1721,529
367,2	1795,186
367,6	1858,529
368,1	1910,557
368,5	1939,3
369	1962,043
369,5	1968,043
369,9	1954,557
370,4	1927,814
370,8	1881,271
371,3	1827,1
371,7	1764,329
372,2	1688,586
372,7	1612,3
373,1	1531,157
373,6	1433,729
374	1350,471
374,5	1262,557
374,9	1179,329
375,4	1097,9
375,9	1009,7
376,3	929,757
376,8	860,414
377,2	791,357
377,7	720,9
378,2	659,957
378,6	603,929
379,1	552,871
379,5	510,9
380	472,957
380,4	434,9
380,9	403,357
381,4	363,957
381,8	335,071
382,3	310,129
382,7	287,071
383,2	265,186
383,6	240,643
384,1	221,5
384,6	212,3
385	199,5
385,5	189,329
385,9	170,129
386,4	157,414
386,8	147,814
387,3	138,471
387,7	125,729
388,2	115,9
388,7	104,357
389,1	100,214
389,6	92,729
390	87,671
390,5	79,1
390,9	75,7
391,4	71,3
391,9	65,929
392,3	63,614
392,8	55,843
393,2	52,071
393,7	52,586
394,1	47,643
394,6	43,3
395,1	44,329
395,5	40,3
396	43,871
396,4	44,643
396,9	40,957
397,3	46,786
397,8	48,814
398,2	46,157
398,7	46,271
399,2	47,071
399,6	44,443
400,1	47,871
400,5	43,643
401	39,786
401,4	36,986
401,9	36,271
402,4	36,157
402,8	36,443
403,3	38,757
403,7	35,471
404,2	39,871
404,6	43,5
405,1	42,3
405,5	39,071
406	39,071
406,5	32,071
406,9	33,986
407,4	34,7
407,8	35,5
408,3	42,386
408,7	45,843
409,2	53,157
409,6	61,614
410,1	68,443
410,6	74,557
411	81,214
411,5	82,529
411,9	92,529
412,4	90,243
412,8	96,357
413,3	98,271
413,7	99,414
414,2	100,529
414,7	112,329
415,1	119,214
415,6	131,071
416	138,614
416,5	149,614
416,9	158,271
417,4	174,557
417,8	186,871
418,3	195,443
418,8	205,7
419,2	215,1
419,7	226,557
420,1	237,671
420,6	250,243
421	252,843
421,5	266,329
421,9	281,9
422,4	300,1
422,8	311,643
423,3	329,757
423,8	338,929
424,2	354,271
424,7	369,871
425,1	385,157
425,6	400,471
426	420,586
426,5	439,671
426,9	461,5
427,4	482,7
427,9	500,329
428,3	528,129
428,8	549,357
429,2	573,3
429,7	600,843
430,1	626,5
430,6	659,643
431	694,729
431,5	725,986
431,9	755,929
432,4	795,443
432,8	836,043
433,3	879,186
433,8	919,1
434,2	965,614
434,7	1009,129
435,1	1065,043
435,6	1116,329
436	1171,529
436,5	1229,9
436,9	1289,929
437,4	1347,271
437,8	1410,386
438,3	1472,843
438,8	1535,071
439,2	1601,471
439,7	1672,7
440,1	1745,7
440,6	1827,786
441	1910,586
441,5	1998,186
441,9	2090,757
442,4	2171,643
442,8	2264,129
443,3	2361,471
443,7	2461,329
444,2	2560,157
444,7	2667,071
445,1	2773,5
445,6	2893,329
446	3014,071
446,5	3124,814
446,9	3236,071
447,4	3355,614
447,8	3476,929
448,3	3613,329
448,7	3745,814
449,2	3874,043
449,6	4021,757
450,1	4158,643
450,6	4308,3
451	4451,271
451,5	4595,529
451,9	4746,814
452,4	4899,529
452,8	5051,014
453,3	5214,214
453,7	5370,357
454,2	5537,986
454,6	5704,157
455,1	5873,071
455,5	6038,471
456	6216,729
456,4	6386,871
456,9	6572,357
457,3	6758,1
457,8	6933,243
458,3	7121,3
458,7	7313,814
459,2	7499,414
459,6	7696,871
460,1	7881,7
460,5	8059,643
461	8259,871
461,4	8444,043
461,9	8629,871
462,3	8818,443
462,8	9013,529
463,2	9198,643
463,7	9394,957
464,1	9586,271
464,6	9780,157
465	9975,414
465,5	10167,329
466	10358,729
466,4	10556,071
466,9	10748,729
467,3	10933,586
467,8	11121,014
468,2	11316,671
468,7	11511,843
469,1	11693,814
469,6	11883,557
470	12066,614
470,5	12249,1
470,9	12419,729
471,4	12584,843
471,8	12742,414
472,3	12913,1
472,7	13078,157
473,2	13238,529
473,6	13387,414
474,1	13540,443
474,5	13694,414
475	13860,7
475,4	14005,986
475,9	14144,614
476,4	14281,671
476,8	14434,871
477,3	14571,871
477,7	14706,871
478,2	14824,557
478,6	14953,386
479,1	15065,986
479,5	15197,957
480	15300,443
480,4	15415,957
480,9	15510,329
481,3	15599,643
481,8	15690,729
482,2	15778,729
482,7	15841,871
483,1	15916,586
483,6	15969,043
484	16037,014
484,5	16104,129
484,9	16139,043
485,4	16184,757
485,8	16229,986
486,3	16266,929
486,7	16322,586
487,2	16361,671
487,6	16377,529
488,1	16402,757
488,5	16419,529
489	16434,843
489,4	16446,614
489,9	16435,671
490,4	16418,729
490,8	16412,643
491,3	16408,071
491,7	16397,557
492,2	16369,9
492,6	16336,157
493,1	16298,786
493,5	16253,957
494	16205,929
494,4	16155,529
494,9	16101,443
495,3	16054,814
495,8	16003,329
496,2	15960,871
496,7	15910,557
497,1	15870,5
497,6	15807,729
498	15759,414
498,5	15692,471
498,9	15618,3
499,4	15550,871
499,8	15492,157
500,3	15408,957
500,7	15342,214
501,2	15250,957
501,6	15169,986
502,1	15098,786
502,5	15002,157
503	14910,1
503,4	14819,786
503,9	14723,729
504,3	14631,386
504,8	14533,986
505,2	14430,329
505,7	14340,757
506,1	14241,157
506,6	14139,357
507	14033,9
507,5	13935,471
507,9	13825,843
508,4	13717,643
508,8	13610,186
509,3	13490,643
509,7	13377,814
510,2	13268,043
510,6	13142,129
511,1	13027,471
511,5	12915,586
512	12790,814
512,4	12680,243
512,9	12562,5
513,3	12444,814
513,8	12326,243
514,2	12216,786
514,7	12088,814
515,1	11968,957
515,6	11858,014
516	11744,986
516,5	11625,843
516,9	11508,329
517,4	11385,757
517,8	11281,014
518,3	11167,7
518,7	11041,729
519,2	10929,186
519,6	10811,871
520,1	10697,929
520,5	10579,757
521	10450,986
521,4	10332,129
521,9	10224,529
522,3	10105,529
522,8	9995,957
523,2	9891,071
523,7	9783,271
524,1	9684,671
524,6	9579,071
525	9462,529
525,5	9358,157
525,9	9248,386
526,4	9132,814
526,8	9029,643
527,3	8930,614
527,7	8830,529
528,2	8734,443
528,6	8628,014
529,1	8535,157
529,5	8452,157
530	8356,929
530,4	8260,614
530,9	8169,643
531,3	8075,157
531,8	7986,843
532,2	7894,071
532,6	7792,957
533,1	7704,586
533,5	7610,271
534	7514,186
534,4	7425,871
534,9	7339,3
535,3	7252,357
535,8	7171,643
536,2	7093,243
536,7	7015,957
537,1	6945,586
537,6	6871,186
538	6796,557
538,5	6719,357
538,9	6641,5
539,4	6568,529
539,8	6491,214
540,3	6418,157
540,7	6348,814
541,2	6275,443
541,6	6203,986
542,1	6140,557
542,5	6070,329
543	6000,643
543,4	5926,071
543,9	5851,214
544,3	5789,614
544,8	5729,357
545,2	5662,271
545,7	5601,871
546,1	5544,1
546,5	5489,9
547	5430,386
547,4	5372,071
547,9	5311,671
548,3	5254,357
548,8	5193,414
549,2	5137,186
549,7	5081,814
550,1	5032,3
550,6	4974,129
551	4924,871
551,5	4879,871
551,9	4830,1
552,4	4773,643
552,8	4717,443
553,3	4666,814
553,7	4620,643
554,2	4576,157
554,6	4529,9
555,1	4484,871
555,5	4444,214
555,9	4408,471
556,4	4365,729
556,8	4326,043
557,3	4280,786
557,7	4236,471
558,2	4195,729
558,6	4161,214
559,1	4114,5
559,5	4074,757
560	4038,643
560,4	4002,814
560,9	3960,814
561,3	3919,271
561,8	3881,557
562,2	3853,3
562,7	3821,186
563,1	3779,7
563,6	3740,529
564	3707,529
564,4	3671,843
564,9	3635,129
565,3	3602,186
565,8	3566,329
566,2	3537,671
566,7	3508,957
567,1	3484,186
567,6	3454,643
568	3426,814
568,5	3393,871
568,9	3361,843
569,4	3336,129
569,8	3308,814
570,3	3274,3
570,7	3245,729
571,1	3219,3
571,6	3193,957
572	3172,071
572,5	3140,786
572,9	3109,9
573,4	3082,157
573,8	3057,671
574,3	3026,786
574,7	2999,957
575,2	2970,643
575,6	2946,586
576,1	2924,643
576,5	2909,386
576,9	2878,871
577,4	2856,729
577,8	2831,529
578,3	2811,243
578,7	2783,014
579,2	2760,386
579,6	2728,5
580,1	2709,643
580,5	2689,729
581	2669,471
581,4	2647,071
581,9	2628,414
582,3	2606,414
582,7	2582,586
583,2	2561,957
583,6	2537,871
584,1	2516,414
584,5	2493,1
585	2477,157
585,4	2451,243
585,9	2437,586
586,3	2423,1
586,8	2407,186
587,2	2386,386
587,6	2373,729
588,1	2360,871
588,5	2346,757
589	2328,786
589,4	2304,157
589,9	2286,014
590,3	2267,614
590,8	2247,1
591,2	2224,271
591,7	2210,271
592,1	2191,9
592,5	2183,186
593	2163,529
593,4	2149,043
593,9	2130,157
594,3	2109,9
594,8	2095,414
595,2	2079,214
595,7	2064,386
596,1	2053,157
596,6	2040,271
597	2033,7
597,4	2021,329
597,9	2002,186
598,3	1994,729
598,8	1975,586
599,2	1964,129
599,7	1952,1
600,1	1928,929
600,6	1918,071
601	1906,529
601,4	1896,671
601,9	1889,243
602,3	1875,643
602,8	1860,843
603,2	1852,386
603,7	1839,643
604,1	1834,014
604,6	1817,129
605	1801,471
605,4	1788,357
605,9	1779,271
606,3	1765,671
606,8	1748,157
607,2	1733,643
607,7	1716,757
608,1	1703,7
608,6	1695,214
609	1684,614
609,4	1679,471
609,9	1669,986
610,3	1660,129
610,8	1652,5
611,2	1644,957
611,7	1631,014
612,1	1619,129
612,6	1603,929
613	1595,386
613,4	1577,957
613,9	1560,871
614,3	1550,157
614,8	1540,529
615,2	1527,871
615,7	1521,871
616,1	1514,586
616,6	1503,614
617	1500,414
617,4	1490,186
617,9	1481,529
618,3	1468,471
618,8	1458,071
619,2	1447,871
619,7	1442,7
620,1	1432,986
620,5	1425,071
621	1413,043
621,4	1411,557
621,9	1399,071
622,3	1387,814
622,8	1379,414
623,2	1370,1
623,6	1361,986
624,1	1352,414
624,5	1336,071
625	1336,786
625,4	1327,957
625,9	1317,557
626,3	1305,929
626,8	1290,843
627,2	1282,443
627,6	1268,414
628,1	1247,157
628,5	1241,957
629	1227,529
629,4	1220,214
629,9	1215,557
630,3	1202,957
630,7	1199,5
631,2	1194,9
631,6	1184,214
632,1	1177,986
632,5	1172,129
633	1163,929
633,4	1159,1
633,8	1152,871
634,3	1143,5
634,7	1137,043
635,2	1130,357
635,6	1121,471
636,1	1108,1
636,5	1097,357
636,9	1086,5
637,4	1078,471
637,8	1064,529
638,3	1052,3
638,7	1047,786
639,2	1045,757
639,6	1043,7
640	1035,357
640,5	1029,671
640,9	1027,814
641,4	1024,214
641,8	1014,814
642,2	1005,786
642,7	998,586
643,1	996,757
643,6	987,586
644	979,814
644,5	978,786
644,9	972,071
645,3	968,386
645,8	959,157
646,2	952,271
646,7	947,986
647,1	935,329
647,6	927,329
648	922,843
648,4	915,214
648,9	907,386
649,3	897,386
649,8	893,271
650,2	892,757
650,6	883,871
651,1	874,871
651,5	873,729
652	870,071
652,4	866,529
652,9	868,214
653,3	862,1
653,7	858,529
654,2	854,929
654,6	841,214
655,1	840,214
655,5	841,729
655,9	824,586
656,4	815,443
656,8	811,071
657,3	806,729
657,7	805,329
658,2	795,243
658,6	781,043
659	777,729
659,5	775,757
659,9	768,957
660,4	761,3
660,8	753,757
661,2	750,414
661,7	750,729
662,1	744,3
662,6	738,071
663	734,843
663,4	729,9
663,9	727,329
664,3	720,871
664,8	715,957
665,2	709,271
665,6	702,671
666,1	695,814
666,5	695,129
667	694,643
667,4	686,729
667,9	680,043
668,3	674,414
668,7	665,3
669,2	664,329
669,6	653,5
670,1	643,643
670,5	643,814
670,9	633,5
671,4	634,271
671,8	636,786
672,3	633,157
672,7	633,529
673,1	628,357
673,6	624,643
674	626,786
674,5	618,014
674,9	611,014
675,3	600,529
675,8	594,5
676,2	589,414
676,7	577,471
677,1	572,157
677,5	569,357
678	569,786
678,4	567,386
678,9	560,957
679,3	556,557
679,7	556,643
680,2	549,986
680,6	542,5
681,1	534,586
681,5	528,614
681,9	527,986
682,4	525,557
682,8	525,243
683,3	525,729
683,7	530,071
684,1	524,843
684,6	521,1
685	515,271
685,5	511,786
685,9	501,3
686,3	495,043
686,8	490,786
687,2	491,443
687,7	488,3
688,1	478,643
688,5	479,7
689	478,786
689,4	475,071
689,9	468,7
690,3	463,814
690,7	463,157
691,2	469,271
691,6	460,671
692	459,357
692,5	458,9
692,9	458,471
693,4	449,814
693,8	443,643
694,2	436,443
694,7	434,5
695,1	429,357
695,6	425,329
696	422,214
696,4	425,614
696,9	419,271
697,3	412,414
697,8	405,414
698,2	405,557
698,6	403,7
699,1	400,014
699,5	401,843
699,9	401,271
700,4	399,214
700,8	396,529
701,3	395,957
701,7	386,1
702,1	382,243
702,6	375,643
703	377,014
703,5	377,214
703,9	377,071
704,3	370,557
704,8	370,443
705,2	367,814
705,6	364,157
706,1	361,329
706,5	357,357
707	356,471
707,4	353,9
707,8	350,043
708,3	348,443
708,7	346,157
709,2	344,557
709,6	343,157
710	340,3
710,5	336,729
710,9	337,329
711,3	334,157
711,8	332,786
712,2	329,1
712,7	328,614
713,1	326,5
713,5	327,843
714	327,5
714,4	320,3
714,8	318,5
715,3	312,329
715,7	309,157
716,2	305,786
716,6	302,7
717	293,7
717,5	293,129
717,9	290,443
718,3	288,957
718,8	281,957
719,2	277,271
719,7	269,043
720,1	272,9
720,5	275,414
721	273,386
721,4	272,443
721,8	276,357
722,3	276,671
722,7	283,586
723,2	278,986
723,6	274,786
724	267,557
724,5	266,043
724,9	262,671
725,3	261,414
725,8	252,3
726,2	252,5
726,7	249,729
727,1	252,614
727,5	252,929
728	249,129
728,4	245,671
728,8	250,043
729,3	242,643
729,7	240,671
730,1	239,443
730,6	238,929
731	236,871
731,5	235,814
731,9	230,414
732,3	234,643
732,8	234,329
733,2	230,586
733,6	225,5
734,1	225,929
734,5	225,471
734,9	226,129
735,4	223,814
735,8	214,586
736,3	214,129
736,7	212,186
737,1	210,986
737,6	209,071
738	207,529
738,4	208,614
738,9	217,414
739,3	213,786
739,7	213,471
740,2	211,557
740,6	211,3
741,1	211,871
741,5	205,9
741,9	199,614
742,4	200,443
742,8	199,843
743,2	198,1
743,7	194,729
744,1	188,586
744,5	183,129
745	180,271
745,4	175,814
745,8	176,443
746,3	172,214
746,7	173,786
747,2	176,129
747,6	183,271
748	188,529
748,5	190,871
748,9	183,214
749,3	184,5
749,8	178,1
750,2	173,443
750,6	170,186
751,1	168,729
751,5	167,614
751,9	172,386
752,4	172,529
752,8	174,757
753,3	174,586
753,7	178,414
754,1	172,9
754,6	165,471
755	160,157
755,4	157,557
755,9	157,929
756,3	158,043
756,7	152,386
757,2	154,386
757,6	157,586
758	160,414
758,5	161,329
758,9	158,157
759,3	158,929
759,8	159,729
760,2	155,586
760,6	153,814
761,1	155,071
761,5	149,843
761,9	146,814
762,4	141,9
762,8	137,386
763,3	141,014
763,7	142,557
764,1	139,671
764,6	144,271
765	144,729
765,4	145,671
765,9	150,586
766,3	148,871
766,7	145,243
767,2	140,157
767,6	138,7
768	141,157
768,5	141,357
768,9	137,586
769,3	134,843
769,8	138,414
770,2	139,443
770,6	137,1
771,1	138,557
771,5	138,729
771,9	138,814
772,4	136,014
772,8	132,786
773,2	133,129
773,7	135,014
774,1	131,357
774,5	123,814
775	119,929
775,4	117,814
775,8	116,957
776,3	117,1
776,7	110,243
777,1	108,443
777,6	114,214
778	115,929
778,4	120,443
778,9	120,386
779,3	114,929
779,7	115,129
780,2	114,386
780,6	108,986
781	103,671
781,5	99,157
781,9	92,271
782,3	90,986
782,8	91,1
783,2	89,129
783,6	94,671
784,1	94,843
784,5	98,129
784,9	104,071
785,4	111,129
785,8	111,014
786,2	109,443
786,7	108,186
787,1	108,614
787,5	107,186
788	102,586
788,4	98,586
788,8	97,786
789,3	99,414
789,7	98,271
790,1	100,071
790,6	97,786
791	96,786
791,4	100,386
791,9	101,243
792,3	97,871
792,7	98,1
793,2	93,7
793,6	95,071
794	99,329
794,5	90,129
794,9	90,214
795,3	93,614
795,8	90,9
796,2	92,271
796,6	92,471
797,1	87,014
797,5	88,243
797,9	84,443
798,4	84,1
798,8	83,671
799,2	82,871
799,7	80,957
800,1	81,471
800,5	83,043
801	89,157
801,4	83,529
801,8	79,671
802,2	79,443
802,7	76,043
803,1	79,586
803,5	79,843
804	71,3
804,4	74,386
804,8	77,186
805,3	81,814
805,7	81,071
806,1	76,329
806,6	75,357
807	82,243
807,4	79,157
807,9	73,871
808,3	67,357
808,7	68,157
809,2	71,443
809,6	73,786
810	69,814
810,4	68,043
810,9	69,9
811,3	70,443
811,7	72,243
812,2	75,471
812,6	68,757
813	73,871
813,5	78,243
813,9	80,871
814,3	77,9
814,8	76,643
815,2	69,786
815,6	71,043
816,1	66,186
816,5	63,186
816,9	60,157
817,3	63,614
817,8	64,957
818,2	65,329
818,6	62,614
819,1	61,529
819,5	61,9
819,9	65,529
820,4	64,243
820,8	61,757
821,2	56,871
821,7	61,129
822,1	59,929
822,5	61,614
822,9	52,557
823,4	51,7
823,8	51,214
824,2	55,071
824,7	50,271
825,1	46,814
825,5	43,129
826	45,786
826,4	47,586
826,8	45,729
827,3	47,786
827,7	51,7
828,1	56,986
828,5	59,329
829	57,614
829,4	53,557
829,8	52,614
830,3	53,386
830,7	49,1
831,1	48,014
831,6	45,271
832	47,643
832,4	49,129
832,8	48,357
833,3	47,843
833,7	45,929
834,1	40,357
834,6	39,129
835	40,843
835,4	39,586
835,8	39,043
836,3	35,671
836,7	35,471
837,1	36,786
837,6	39,471
838	35,471
838,4	34,357
838,9	37,129
839,3	33,557
839,7	35,357
840,1	29,357
840,6	27,043
841	26,614
841,4	28,757
841,9	27,9
842,3	30,357
842,7	29,271
843,1	32,871
843,6	35,043
844	40,871
844,4	43,014
844,9	43,471
845,3	45,329
845,7	47,671
846,2	46,271
846,6	40,271
847	38,071
847,4	32,786
847,9	31,9
848,3	28,643
848,7	28,957
849,2	32,471
849,6	33,614
850	34,471
850,4	34,814
850,9	34,586
851,3	37,243
851,7	37,671
852,2	36,157
852,6	40,471
853	36,643
853,4	37,786
853,9	36,843
854,3	36,986
854,7	37,471
855,2	36,043
855,6	37,786
856	33,957
856,4	28,729
856,9	27,414
857,3	26,1
857,7	26,614
858,2	34,186
858,6	26,729
859	29,786
859,4	31,5
859,9	30,5
860,3	24,986
860,7	22,414
861,1	20,586
861,6	22,529
862	22,1
862,4	23,529
862,9	23,671
863,3	30,1
863,7	28,929
864,1	30,9
864,6	31,471
865	30,7
865,4	30,814
865,9	35,243
866,3	27,614
866,7	24,7
867,1	15,786
867,6	16,586
868	17,929
868,4	16,529
868,8	11,614
869,3	15,986
869,7	21,614
870,1	23,586
870,6	20,957
871	22,3
871,4	25,471
871,8	25,614
872,3	27,157
872,7	28,386
873,1	29,386
873,5	28,7
874	27,129
874,4	24,5
874,8	24,986
875,3	26,043
875,7	21,157
876,1	21,871
876,5	22,729
877	21,271
877,4	18,1
877,8	18,271
878,2	20,329
878,7	22,1
879,1	24,129
879,5	25,271
879,9	23,671
880,4	23,386
880,8	21,929
881,2	17,929
881,7	14,414
882,1	9,214
882,5	6,871
882,9	7,157
883,4	9,5
883,8	11,5
884,2	9,586
884,6	9,329
885,1	9,757
885,5	8,9
885,9	10,557
886,3	11,414
886,8	7,957
887,2	7,957
887,6	9,957
888	8,929
888,5	12,757
888,9	10,443
889,3	7,071
889,8	8,757
890,2	8,214
890,6	5,671
891	9,814
891,5	6,729
891,9	10,671
892,3	17,1
892,7	17,814
893,2	20,386
893,6	24,929
894	20,929
894,4	20,957
894,9	18,414
895,3	15,157
895,7	18,1
896,1	15,957
896,6	13,357
897	14,529
897,4	19,757
897,8	23,557
898,3	25,414
898,7	20,386
899,1	19,529
899,5	19,929
900	16,214
900,4	11,929
900,8	3,529
901,2	-1,386
901,7	-2,929
902,1	0,671
902,5	3,7
902,9	4,1
903,4	4,9
903,8	9,071
904,2	11,157
904,6	14,1
905,1	11,957
905,5	8,929
905,9	16,186
906,3	16,757
906,8	17,929
907,2	22,671
907,6	25,329
908	27,5
908,5	24,214
908,9	16,986
909,3	14,3
909,7	14,7
910,2	12,1
910,6	10,757
911	7,471
911,4	9,271
911,9	10,9
912,3	8,957
912,7	10,871
913,1	8,214
913,6	3,843
914	3,043
914,4	2,443
914,8	3,386
915,3	3,1
915,7	0,214
916,1	-0,157
916,5	2,9
916,9	6,043
917,4	7,843
917,8	6,614
918,2	4,614
918,6	-0,843
919,1	0,529
919,5	3,329
919,9	-0,7
920,3	-5,557
920,8	-4,814
921,2	0,643
921,6	4,757
922	5,471
922,5	-0,557
922,9	-0,071
923,3	4,529
923,7	4,757
924,2	-0,529
924,6	-0,671
925	-0,557
925,4	-1,071
925,8	1,586
926,3	-1,443
926,7	-1,614
927,1	0,071
927,5	3,129
928	-3,557
928,4	0,243
928,8	0,157
929,2	0,014
929,7	1,357
930,1	4,5
930,5	2,214
930,9	9,243
931,3	9,529
931,8	10,557
932,2	13,729
932,6	12,414
933	5,671
933,5	6,414
933,9	8,071
934,3	5,129
934,7	1,643
935,2	1,214
935,6	-0,557
936	6,329
936,4	6,786
936,8	4,443
937,3	8,157
937,7	13,071
938,1	14,729
938,5	12,414
939	13,071
939,4	13,243
939,8	9,986
940,2	3,329
940,6	-2,471
941,1	-4,814
941,5	4,471
941,9	-1,129
942,3	-6,414
942,8	-3,129
943,2	1,243
943,6	-0,214
944	-2,871
944,4	-5,7
944,9	-3,7
945,3	-0,271
945,7	-5,186
946,1	-5,214
946,6	-3,5
947	-1,414
947,4	-1,614
947,8	-1,843
948,2	-1,186
948,7	0,243
949,1	0,214
949,5	5,157
949,9	3,014
950,3	2,443
950,8	2,786
951,2	1,9
951,6	3,043
952	4,014
952,5	-5,014
952,9	-4,443
953,3	-7,871
953,7	-9,443
954,1	-9,214
954,6	-7,729
955	-7,957
955,4	-0,729
955,8	4,186
956,2	3,986
956,7	7,414
957,1	5,786
957,5	8,929
957,9	9,9
958,3	6,357
958,8	4,186
959,2	7,586
959,6	11,043
960	9,386
960,5	6,071
960,9	4,243
961,3	0,157
961,7	-0,9
962,1	0,014
962,6	-1,786
963	0,014
963,4	0,814
963,8	0,386
964,2	6,386
964,7	5,186
965,1	4,557
965,5	3,529
965,9	4,814
966,3	5,557
966,8	6,871
967,2	6,871
967,6	7,9
968	2,643
968,4	1,671
968,9	4,1
969,3	7,329
969,7	2,786
970,1	6,871
970,5	6,957
971	10,557
971,4	10,3
971,8	7,614
972,2	2,957
972,6	5,929
973,1	-1,729
973,5	-1,586
973,9	0,071
974,3	1,186
974,7	2,386
975,2	3,443
975,6	2,7
976	6,214
976,4	4,843
976,8	5,129
977,3	0,5
977,7	0,5
978,1	-0,643
978,5	-2,529
978,9	-3,471
979,4	-4,071
979,8	-6,643
980,2	-1,243
980,6	-6,643
981	-2,757
981,5	-1,5
981,9	0,1
982,3	4,186
982,7	3,929
983,1	1,329
983,6	1,614
984	-1,986
984,4	1,014
984,8	0,157
985,2	-2,786
985,6	-3,7
986,1	-0,757
986,5	1,757
986,9	-0,414
987,3	-1,586
987,7	-1,5
988,2	-1,729
988,6	1,214
989	-1,729
989,4	0,843
989,8	2,9
990,3	1,7
990,7	-0,443
991,1	1,786
991,5	2,729
991,9	6,529
992,3	8,557
992,8	6,729
993,2	7,729
993,6	6,043
994	7,157
994,4	7,357
994,9	4,786
995,3	2,529
995,7	0,586
996,1	-1,729
996,5	4,471
996,9	-1,1
997,4	2,414
997,8	-1,729
998,2	-4,7
998,6	-5,757
999	-5,671
999,5	-7,5
999,9	-6,757
1000,3	-10,357
1000,7	-7,957
1001,1	-5,871
1001,5	0,329
1002	4,414
1002,4	3,786
1002,8	4,929
1003,2	7,643
1003,6	9,471
1004	15,814
1004,5	7,986
1004,9	12,243
1005,3	6,329
1005,7	11,9
1006,1	6,157
1006,6	4,957
1007	2,014
1007,4	6,271
1007,8	3,014
1008,2	6,5
1008,6	6,243
1009,1	3,7
1009,5	8,329
1009,9	8,786
1010,3	9,014
1010,7	6,529
1011,1	7,386
1011,6	4,786
1012	9,929
1012,4	3,043
1012,8	-0,471
1013,2	3,043
1013,6	2,871
1014,1	2,957
1014,5	1,786
1014,9	0,929
1015,3	-1,329
1015,7	-2,443
1016,1	-2,643
1016,6	-3,129
1017	-2,014
1017,4	-1,586
1017,8	-3,671
1018,2	2,843
1018,6	1,671
1019,1	-2,014
1019,5	-3,443
1019,9	-8,157
1020,3	-5,9
1020,7	-3,843
1021,1	-10,157
1021,6	-10,157
1022	-8,271
1022,4	-4,586
1022,8	0,471
1023,2	-0,329
1023,6	0,129
1024,1	7,243
1024,5	8,557
1024,9	6,043
1025,3	3,586
1025,7	6,243
1026,1	9,157
1026,6	12,614
1027	8,814
1027,4	9,129
1027,8	10,243
1028,2	6,043
1028,6	8,443
1029	2,7
1029,5	1,186
1029,9	-0,214
1030,3	-2,5
1030,7	-1,5
1031,1	1,871
1031,5	-4,043
1032	-4,471
1032,4	-6,414
1032,8	-0,643
1033,2	2,186
1033,6	1,271
1034	5,1
1034,4	5,614
1034,9	9,129
1035,3	7,214
1035,7	7,529
1036,1	6,929
1036,5	2,757
1036,9	6,043
1037,4	6,1
1037,8	0,843
1038,2	2,329
1038,6	-3,271
1039	-0,614
1039,4	7,929
1039,8	-3,357
1040,3	-5,929
1040,7	-4,871
1041,1	-3,986
1041,5	-1,986
1041,9	-4,271
1042,3	-6,014
1042,7	-0,843
1043,2	0,843
1043,6	2,071
1044	-1,157
1044,4	0,843
1044,8	0,671
1045,2	-1,929
1045,6	1,357
1046,1	0,043
1046,5	-3,871
1046,9	-3,414
1047,3	-5,814
1047,7	-11,186
1048,1	-14,529
1048,5	-16,529
1049	-12,814
1049,4	-8,3
1049,8	-5,843
1050,2	-3,071
1050,6	6,071
1051	10,014
1051,4	9,471
1051,9	3,157
1052,3	8,9
1052,7	9,443
1053,1	5,386
1053,5	2,9
1053,9	2,471
1054,3	1,986
1054,8	10,386
1055,2	5,814
1055,6	7,3
1056	10,586
1056,4	9,586
1056,8	8,7
1057,2	9,043
1057,6	2,329
1058,1	-2,671
1058,5	-8,729
1058,9	-10,529
1059,3	-9,243
1059,7	-7,414
1060,1	-3,671
1060,5	-2,471
1061	4,186
1061,4	6,157
1061,8	8,986
1062,2	6,357
1062,6	8,386
1063	6,071
1063,4	8,186
1063,8	4,614
1064,3	1,357
1064,7	-1,357
1065,1	-4,271
1065,5	-7,843
1065,9	-7,329
1066,3	-8,443
1066,7	-10,3
1067,1	-11,557
1067,6	-9,471
1068	-9,329
1068,4	-12,129
1068,8	-10,729
1069,2	-8,129
1069,6	-4,671
1070	1,471
1070,4	2,129
1070,9	5,757
1071,3	8,357
1071,7	4,443
1072,1	0,786
1072,5	-3,557
1072,9	-3,129
1073,3	-4,586
1073,7	-6,9
1074,2	-6,786
1074,6	-3,414
1075	-3,786
1075,4	-2,7
1075,8	-1,843
1076,2	-4,614
1076,6	-1,557
1077	-0,443
1077,5	-0,243
1077,9	0,929
1078,3	1,3
1078,7	0,7
1079,1	3,1
1079,5	1,5
1079,9	-0,071
1080,3	-3,471
1080,7	-4,214
1081,2	0,214
1081,6	-3,843
1082	-8,386
1082,4	-4,129
1082,8	-3,729
1083,2	-4,843
1083,6	-2,929
1084	-2,843
1084,5	3,243
1084,9	1,871
1085,3	-1,5
1085,7	-1,157
1086,1	0,586
1086,5	0,443
1086,9	-0,214
1087,3	-4,014
1087,7	1,557
1088,2	-0,329
1088,6	-0,243
1089	-0,643
1089,4	-0,614
1089,8	-1,871
1090,2	-2,329
1090,6	-1,043
1091	4,357
1091,4	6,214
1091,9	5,9
1092,3	6,757
1092,7	6,414
1093,1	11,843
1093,5	6,871
1093,9	3,986
1094,3	5,471
1094,7	1,643
1095,1	3,329
1095,5	3,157
1096	-5,529
1096,4	-2,671
1096,8	-4,843
1097,2	-6,643
1097,6	2,157
1098	-0,1
1098,4	1,986
1098,8	4,957
1099,2	11,1
1099,6	11,843
1100,1	9,9
1100,5	4,386
1100,9	3,814
1101,3	2,814
1101,7	1,043
1102,1	-1,671
1102,5	1,986
1102,9	3,786
1103,3	9,071
1103,7	11,557
1104,2	10,843
1104,6	16,186
1105	10,7
1105,4	8,5
1105,8	6,871
1106,2	3,071
1106,6	0,357
1107	0,271
1107,4	-3,233
1107,8	0,1
1108,3	-0,65
