Data from Subt2_266.txt Node
Date: Sat Aug 26 19:03:08 MSK 2023
User: vat
Spectrometer: MAYP114033
Trigger mode: 0
Integration Time (sec): 1,000000E0
Scans to average: 5
Electric dark correction enabled: true
Nonlinearity correction enabled: false
Boxcar width: 3
XAxis mode: Wavelengths
Number of Pixels in Spectrum: 2068
>>>>>Begin Spectral Data<<<<<
199,4	-0,567
199,9	-1,587
200,4	-3,233
200,8	-1,381
201,3	-3,981
201,8	-0,924
202,2	-5,067
202,7	-1,01
203,2	-1,267
203,6	0,562
204,1	-0,981
204,6	1,448
205	-1,324
205,5	3,019
206	2,819
206,4	5,533
206,9	4,59
207,4	6,19
207,8	6,562
208,3	6,419
208,8	7,305
209,2	6,99
209,7	9,79
210,2	10,133
210,6	10,362
211,1	12,219
211,5	6,933
212	5,19
212,5	0,619
212,9	-4,924
213,4	-3,095
213,9	-4,61
214,3	-1,981
214,8	4,705
215,3	3,476
215,7	7,648
216,2	12,048
216,7	8,905
217,1	5,505
217,6	3,019
218,1	0,505
218,5	-0,067
219	-9,81
219,5	-9,895
219,9	-10,21
220,4	-0,838
220,9	-2,324
221,3	-0,438
221,8	4,362
222,3	14,533
222,7	17,533
223,2	17,019
223,6	11,419
224,1	8,59
224,6	9,505
225	6,419
225,5	4,105
226	-1,924
226,4	2,133
226,9	2,733
227,4	7,19
227,8	2,876
228,3	6,533
228,8	6,762
229,2	6,19
229,7	1,219
230,2	0,533
230,6	2,076
231,1	8,105
231,5	5,562
232	6,476
232,5	7,105
232,9	13,505
233,4	14,019
233,9	8,79
234,3	10,333
234,8	11,019
235,3	10,305
235,7	10,99
236,2	10,448
236,7	11,762
237,1	17,562
237,6	11,762
238,1	10,505
238,5	6,248
239	10,333
239,4	9,762
239,9	5,276
240,4	1,619
240,8	5,133
241,3	3,619
241,8	6,79
242,2	5,076
242,7	2,533
243,2	6,105
243,6	6,19
244,1	4,562
244,6	10,562
245	9,876
245,5	8,676
245,9	6,305
246,4	4,505
246,9	6,39
247,3	5,248
247,8	5,619
248,3	7,819
248,7	8,333
249,2	14,59
249,7	17,076
250,1	18,905
250,6	17,562
251	14,076
251,5	14,905
252	15,562
252,4	16,362
252,9	10,248
253,4	2,276
253,8	5,419
254,3	6,876
254,8	4,876
255,2	-0,124
255,7	-3,381
256,1	2,99
256,6	6,419
257,1	9,933
257,5	5,39
258	6,048
258,5	9,905
258,9	6,505
259,4	3,705
259,9	6,476
260,3	-0,895
260,8	1,162
261,2	1,105
261,7	3,59
262,2	6,448
262,6	6,362
263,1	8,533
263,6	10,19
264	13,876
264,5	15,533
264,9	11,676
265,4	8,733
265,9	7,39
266,3	5,905
266,8	8,476
267,3	4,762
267,7	5,819
268,2	5,219
268,7	7,133
269,1	10,39
269,6	8,905
270	11,019
270,5	8,162
271	6,848
271,4	7,133
271,9	3,59
272,4	8,333
272,8	9,562
273,3	6,762
273,7	12,933
274,2	13,819
274,7	17,19
275,1	24,905
275,6	21,533
276,1	20,076
276,5	22,562
277	21,905
277,4	20,562
277,9	20,79
278,4	19,105
278,8	17,19
279,3	19,819
279,8	19,39
280,2	19,305
280,7	24,048
281,1	17,019
281,6	17,276
282,1	16,248
282,5	12,476
283	8,762
283,4	4,448
283,9	-1,01
284,4	11,762
284,8	11,705
285,3	10,705
285,8	14,333
286,2	14,533
286,7	17,333
287,1	14,162
287,6	5,648
288,1	-1,524
288,5	4,619
289	-0,381
289,5	0,19
289,9	-4,41
290,4	2,762
290,8	1,848
291,3	8,076
291,8	5,848
292,2	11,419
292,7	13,505
293,1	18,133
293,6	17,162
294,1	17,105
294,5	16,162
295	16,162
295,5	10,59
295,9	13,248
296,4	12,962
296,8	6,705
297,3	7,39
297,8	6,333
298,2	4,162
298,7	8,876
299,1	6,933
299,6	5,619
300,1	12,076
300,5	13,848
301	15,505
301,5	19,448
301,9	15,39
302,4	11,39
302,8	9,733
303,3	6,962
303,8	0,162
304,2	-0,095
304,7	-3,952
305,1	-6,467
305,6	-4,924
306,1	6,133
306,5	9,533
307	15,133
307,4	19,162
307,9	21,733
308,4	22,705
308,8	17,648
309,3	8,019
309,8	4,076
310,2	5,19
310,7	0,705
311,1	-1,952
311,6	-0,838
312,1	5,105
312,5	10,733
313	11,619
313,4	12,333
313,9	10,562
314,4	10,962
314,8	10,733
315,3	9,419
315,7	1,419
316,2	1,59
316,7	-5,867
317,1	2,362
317,6	2,162
318	4,676
318,5	6,819
319	13,562
319,4	13,619
319,9	22,59
320,3	15,933
320,8	15,219
321,3	19,619
321,7	18,305
322,2	15,019
322,6	16,276
323,1	12,819
323,6	11,762
324	10,705
324,5	4,876
324,9	4,39
325,4	4,476
325,9	4,762
326,3	6,79
326,8	12,562
327,2	10,248
327,7	11,762
328,2	11,419
328,6	12,59
329,1	5,305
329,5	1,19
330	-3,381
330,5	1,733
330,9	3,648
331,4	2,333
331,8	0,733
332,3	7,876
332,8	12,933
333,2	15,39
333,7	14,99
334,1	16,248
334,6	16,533
335,1	15,476
335,5	13,248
336	9,19
336,4	7,905
336,9	14,276
337,4	12,39
337,8	14,476
338,3	17,305
338,7	19,333
339,2	19,162
339,7	23,362
340,1	15,39
340,6	14,248
341	13,819
341,5	10,533
342	6,533
342,4	8,79
342,9	2,933
343,3	1,962
343,8	-1,21
344,2	-1,724
344,7	1,476
345,2	2,733
345,6	-0,438
346,1	3,676
346,5	1,933
347	0,333
347,5	0,076
347,9	5,219
348,4	5,476
348,8	8,962
349,3	12,819
349,8	16,105
350,2	26,476
350,7	24,048
351,1	20,019
351,6	25,619
352	26,219
352,5	27,305
353	34,59
353,4	34,448
353,9	49,505
354,3	61,648
354,8	64,505
355,3	80,676
355,7	96,076
356,2	112,648
356,6	131,905
357,1	151,533
357,5	172,733
358	210,59
358,5	242,619
358,9	277,619
359,4	321,133
359,8	371,99
360,3	430,533
360,8	490,819
361,2	558,048
361,7	633,619
362,1	722,733
362,6	813,79
363	909,276
363,5	1007,99
364	1120,59
364,4	1229,79
364,9	1340,905
365,3	1444,048
365,8	1548,505
366,3	1646,648
366,7	1735,905
367,2	1819,276
367,6	1877,676
368,1	1932,505
368,5	1967,276
369	1983,59
369,5	1988,105
369,9	1972,219
370,4	1934,933
370,8	1900,705
371,3	1838,362
371,7	1773,419
372,2	1693,39
372,7	1609,619
373,1	1526,276
373,6	1432,162
374	1341,333
374,5	1252,848
374,9	1165,105
375,4	1084,933
375,9	1005,19
376,3	925,933
376,8	857,448
377,2	788,648
377,7	723,733
378,2	664,333
378,6	607,79
379,1	553,162
379,5	510,248
380	474,419
380,4	435,762
380,9	400,533
381,4	364,133
381,8	339,962
382,3	316,676
382,7	293,619
383,2	270,905
383,6	250,505
384,1	236,762
384,6	224,019
385	206,619
385,5	193,933
385,9	176,133
386,4	158,476
386,8	150,962
387,3	136,962
387,7	129,476
388,2	124,305
388,7	113,79
389,1	113,819
389,6	109,448
390	100,248
390,5	97,333
390,9	91,305
391,4	86,133
391,9	84,133
392,3	75,276
392,8	64,419
393,2	57,019
393,7	54,733
394,1	49,248
394,6	47,048
395,1	47,362
395,5	43,248
396	48,276
396,4	52,619
396,9	51,476
397,3	58,105
397,8	58,276
398,2	55,248
398,7	56,448
399,2	57,962
399,6	53,905
400,1	47,59
400,5	38,819
401	33,733
401,4	29,162
401,9	32,762
402,4	30,619
402,8	24,648
403,3	30,476
403,7	28,79
404,2	32,562
404,6	36,676
405,1	30,676
405,5	30,19
406	33,733
406,5	27,905
406,9	31,933
407,4	29,762
407,8	30,505
408,3	37,048
408,7	34,248
409,2	37,39
409,6	42,819
410,1	45,648
410,6	47,59
411	47,933
411,5	46,819
411,9	51,19
412,4	52,533
412,8	55,505
413,3	55,733
413,7	56,533
414,2	58,133
414,7	65,39
415,1	72,076
415,6	77,048
416	80,133
416,5	78,905
416,9	81,619
417,4	85,362
417,8	85,676
418,3	86,505
418,8	86,962
419,2	86,876
419,7	91,876
420,1	94,419
420,6	95,19
421	92,819
421,5	90,59
421,9	93,362
422,4	93,219
422,8	96,276
423,3	94,762
423,8	91,162
424,2	91,362
424,7	89,162
425,1	84,905
425,6	87,619
426	85,876
426,5	87,505
426,9	97,39
427,4	92,505
427,9	91,533
428,3	94,59
428,8	91,648
429,2	86,676
429,7	82,362
430,1	73,362
430,6	76,619
431	78,733
431,5	77,819
431,9	75,962
432,4	78,733
432,8	84,333
433,3	86,419
433,8	84,048
434,2	87,333
434,7	90,848
435,1	94,876
435,6	95,619
436	99,533
436,5	105,962
436,9	110,133
437,4	108,476
437,8	105,59
438,3	107,048
438,8	110,905
439,2	108,162
439,7	109,505
440,1	115,705
440,6	123,99
441	127,276
441,5	132,476
441,9	138,105
442,4	139,133
442,8	140,619
443,3	142,048
443,7	145,619
444,2	154,505
444,7	158,105
445,1	165,733
445,6	172,848
446	180,819
446,5	184,962
446,9	185,162
447,4	188,048
447,8	194,133
448,3	199,39
448,7	213,219
449,2	225,133
449,6	239,362
450,1	251,19
450,6	266,219
451	281,333
451,5	293,819
451,9	307,505
452,4	314,505
452,8	321,276
453,3	338,505
453,7	341,419
454,2	349,048
454,6	357,876
455,1	359,219
455,5	367,276
456	382,333
456,4	386,562
456,9	402,562
457,3	412,105
457,8	418,333
458,3	435,99
458,7	447,676
459,2	457,39
459,6	472,99
460,1	487,019
460,5	498,733
461	516,819
461,4	529,219
461,9	545,962
462,3	563,505
462,8	582,79
463,2	597,276
463,7	617,819
464,1	638,362
464,6	657,448
465	677,019
465,5	696,133
466	713,533
466,4	731,933
466,9	751,562
467,3	765,59
467,8	783,39
468,2	796,905
468,7	810,99
469,1	830,219
469,6	849,733
470	869,076
470,5	888,59
470,9	906,276
471,4	925,705
471,8	947,99
472,3	963,819
472,7	984,705
473,2	998,019
473,6	1013,59
474,1	1031,619
474,5	1049,648
475	1068,105
475,4	1088,819
475,9	1105,419
476,4	1126,019
476,8	1147,905
477,3	1167,505
477,7	1194,448
478,2	1212,248
478,6	1225,533
479,1	1242,105
479,5	1259,276
480	1273,219
480,4	1292,39
480,9	1302,105
481,3	1314,876
481,8	1333,162
482,2	1345,39
482,7	1358,933
483,1	1379,333
483,6	1390,105
484	1400,39
484,5	1417,99
484,9	1431,019
485,4	1448,076
485,8	1463,219
486,3	1473,619
486,7	1487,333
487,2	1503,905
487,6	1513,79
488,1	1519,819
488,5	1529,619
489	1544,476
489,4	1553,19
489,9	1562,448
490,4	1575,19
490,8	1585,133
491,3	1606,162
491,7	1612,905
492,2	1621,219
492,6	1634,076
493,1	1643,048
493,5	1646,933
494	1652,476
494,4	1657,248
494,9	1669,448
495,3	1678,19
495,8	1687,076
496,2	1697,276
496,7	1704,19
497,1	1719,419
497,6	1727,305
498	1732,905
498,5	1740,848
498,9	1739,533
499,4	1744,962
499,8	1757,476
500,3	1761,59
500,7	1764,048
501,2	1772,105
501,6	1769,276
502,1	1781,219
502,5	1789,448
503	1789,362
503,4	1793,019
503,9	1796,019
504,3	1802,99
504,8	1807,448
505,2	1813,619
505,7	1816,505
506,1	1828,019
506,6	1833,305
507	1837,133
507,5	1841,276
507,9	1853,848
508,4	1854,819
508,8	1858,419
509,3	1858,962
509,7	1860,333
510,2	1868,962
510,6	1868,819
511,1	1867,79
511,5	1875,276
512	1873,59
512,4	1877,733
512,9	1883,076
513,3	1890,219
513,8	1895,876
514,2	1900,962
514,7	1903,99
515,1	1912,162
515,6	1918,105
516	1923,562
516,5	1927,59
516,9	1931,962
517,4	1939,648
517,8	1953,333
518,3	1961,076
518,7	1966,59
519,2	1971,619
519,6	1975,133
520,1	1985,219
520,5	1986,276
521	1979,905
521,4	1987,076
521,9	1991,219
522,3	1998,476
522,8	2004,39
523,2	2004,79
523,7	2010,848
524,1	2017,39
524,6	2017,933
525	2022,876
525,5	2026,105
525,9	2034,448
526,4	2041,105
526,8	2051,133
527,3	2065,648
527,7	2078,019
528,2	2086,19
528,6	2094,476
529,1	2099,076
529,5	2108,733
530	2112,905
530,4	2108,419
530,9	2115,448
531,3	2122,048
531,8	2130,876
532,2	2140,819
532,6	2143,676
533,1	2149,705
533,5	2157,219
534	2159,562
534,4	2164,79
534,9	2168,99
535,3	2171,419
535,8	2180,99
536,2	2193,276
536,7	2204,99
537,1	2217,79
537,6	2224,419
538	2230,362
538,5	2245,905
538,9	2252,619
539,4	2258,876
539,8	2264,505
540,3	2270,562
540,7	2279,79
541,2	2284,419
541,6	2284,305
542,1	2290,533
542,5	2298,362
543	2305,905
543,4	2308,905
543,9	2319,59
544,3	2334,848
544,8	2339,705
545,2	2346,248
545,7	2351,905
546,1	2364,019
546,5	2373,99
547	2374,533
547,4	2378,476
547,9	2388,39
548,3	2401,162
548,8	2407,762
549,2	2404,505
549,7	2411,619
550,1	2426,933
550,6	2426,162
551	2433,505
551,5	2440,39
551,9	2443,105
552,4	2455,076
552,8	2456,933
553,3	2453,962
553,7	2465,105
554,2	2470,99
554,6	2477,676
555,1	2491,019
555,5	2494,305
555,9	2504,648
556,4	2513,076
556,8	2516,962
557,3	2519,676
557,7	2521,876
558,2	2520,19
558,6	2527,905
559,1	2528,162
559,5	2527,219
560	2535,876
560,4	2544,105
560,9	2544,105
561,3	2549,79
561,8	2551,733
562,2	2561,59
562,7	2577,076
563,1	2577,762
563,6	2577,562
564	2585,019
564,4	2588,705
564,9	2593,333
565,3	2593,819
565,8	2592,59
566,2	2596,933
566,7	2607,362
567,1	2608,962
567,6	2614,076
568	2621,219
568,5	2621,99
568,9	2623,248
569,4	2626,848
569,8	2627,762
570,3	2630,962
570,7	2631,39
571,1	2634,676
571,6	2638,619
572	2643,219
572,5	2645,648
572,9	2639,248
573,4	2639,962
573,8	2643,905
574,3	2637,019
574,7	2639,59
575,2	2637,476
575,6	2636,79
576,1	2641,076
576,5	2647,133
576,9	2640,419
577,4	2643,59
577,8	2634,248
578,3	2636,619
578,7	2630,105
579,2	2630,733
579,6	2620,476
580,1	2617,219
580,5	2617,533
581	2615,819
581,4	2607,762
581,9	2605,99
582,3	2598,048
582,7	2599,933
583,2	2602,105
583,6	2596,305
584,1	2602,505
584,5	2597,19
585	2598,248
585,4	2595,048
585,9	2585,448
586,3	2580,79
586,8	2580,19
587,2	2569,59
587,6	2573,733
588,1	2575,448
588,5	2568,848
589	2569,676
589,4	2565,619
589,9	2561,019
590,3	2559,79
590,8	2552,048
591,2	2544,362
591,7	2552,105
592,1	2543,676
592,5	2550,076
593	2544,133
593,4	2536,705
593,9	2530,962
594,3	2527,762
594,8	2515,505
595,2	2515,448
595,7	2503,676
596,1	2495,419
596,6	2495,933
597	2496,419
597,4	2492,448
597,9	2494,59
598,3	2493,762
598,8	2486,79
599,2	2488,162
599,7	2478,619
600,1	2471,933
600,6	2462,39
601	2449,676
601,4	2446,819
601,9	2447,562
602,3	2440,648
602,8	2442,933
603,2	2436,705
603,7	2433,762
604,1	2434,333
604,6	2425,99
605	2411,276
605,4	2406,305
605,9	2393,648
606,3	2384,905
606,8	2372,162
607,2	2356,733
607,7	2343,505
608,1	2340,676
608,6	2335,619
609	2336,048
609,4	2334,962
609,9	2331,505
610,3	2329,476
610,8	2323,133
611,2	2315,305
611,7	2302,133
612,1	2289,476
612,6	2278,848
613	2270,848
613,4	2257,219
613,9	2243,79
614,3	2233,79
614,8	2232,648
615,2	2219,562
615,7	2209,533
616,1	2205,505
616,6	2199,248
617	2195,019
617,4	2190,533
617,9	2180,933
618,3	2177,076
618,8	2172,533
619,2	2159,99
619,7	2158,79
620,1	2153,419
620,5	2145,676
621	2133,39
621,4	2133,39
621,9	2122,648
622,3	2114,962
622,8	2100,59
623,2	2089,105
623,6	2078,962
624,1	2074,733
624,5	2061,476
625	2057,705
625,4	2050,99
625,9	2043,876
626,3	2034,39
626,8	2022,133
627,2	2010,219
627,6	1992,733
628,1	1978,59
628,5	1971,733
629	1959,905
629,4	1951,876
629,9	1944,59
630,3	1929,476
630,7	1914,99
631,2	1902,105
631,6	1888,905
632,1	1881,362
632,5	1873,79
633	1866,99
633,4	1858,905
633,8	1856,562
634,3	1847,848
634,7	1843,076
635,2	1830,248
635,6	1817,59
636,1	1805,848
636,5	1793,019
636,9	1780,248
637,4	1774,133
637,8	1756,248
638,3	1738,876
638,7	1727,59
639,2	1713,419
639,6	1709,905
640	1699,105
640,5	1687,876
640,9	1684,305
641,4	1687,676
641,8	1682,962
642,2	1681,333
642,7	1674,448
643,1	1676,105
643,6	1666,905
644	1654,448
644,5	1643,933
644,9	1637,448
645,3	1627,476
645,8	1620,133
646,2	1604,562
646,7	1598,39
647,1	1592,019
647,6	1588,448
648	1579,305
648,4	1566,676
648,9	1560,048
649,3	1552,705
649,8	1543,562
650,2	1537,619
650,6	1523,933
651,1	1514,19
651,5	1512,705
652	1500,79
652,4	1494,162
652,9	1489,819
653,3	1475,648
653,7	1467,219
654,2	1458,19
654,6	1439,933
655,1	1436,39
655,5	1432,476
655,9	1418,562
656,4	1415,448
656,8	1412,162
657,3	1404,448
657,7	1403,99
658,2	1390,219
658,6	1376,876
659	1373,305
659,5	1358,162
659,9	1348,79
660,4	1343,733
660,8	1332,276
661,2	1324,419
661,7	1315,59
662,1	1303,619
662,6	1299,448
663	1287,848
663,4	1279,019
663,9	1270,505
664,3	1258,476
664,8	1250,648
665,2	1241,276
665,6	1234,362
666,1	1222,705
666,5	1217,276
667	1213,619
667,4	1206,819
667,9	1202,39
668,3	1196,333
668,7	1186,248
669,2	1187,105
669,6	1179,762
670,1	1171,505
670,5	1165,048
670,9	1158,533
671,4	1149,362
671,8	1142,333
672,3	1136,448
672,7	1129,105
673,1	1117,876
673,6	1108,448
674	1100,905
674,5	1097,048
674,9	1084,905
675,3	1070,505
675,8	1064,419
676,2	1057,99
676,7	1056,676
677,1	1045,276
677,5	1034,819
678	1034,219
678,4	1031,762
678,9	1021,105
679,3	1013,59
679,7	999,99
680,2	989,305
680,6	981,162
681,1	975,419
681,5	971,333
681,9	961,39
682,4	959,305
682,8	956,676
683,3	959,933
683,7	958,933
684,1	952,59
684,6	941,505
685	935,59
685,5	923,762
685,9	915,105
686,3	902,648
686,8	891,59
687,2	884,019
687,7	875,276
688,1	867,419
688,5	863,276
689	858,962
689,4	850,962
689,9	848,533
690,3	841,876
690,7	840,048
691,2	840,476
691,6	836,362
692	832,533
692,5	834,962
692,9	830,533
693,4	822,276
693,8	818,962
694,2	812,533
694,7	807,362
695,1	798,162
695,6	792,105
696	783,333
696,4	778,962
696,9	764,79
697,3	760,705
697,8	754,162
698,2	749,562
698,6	742,59
699,1	745,133
699,5	746,448
699,9	745,476
700,4	734,79
700,8	729,648
701,3	728,848
701,7	723,848
702,1	713,562
702,6	707,162
703	704,648
703,5	704,676
703,9	700,448
704,3	696,562
704,8	691,705
705,2	685,676
705,6	679,248
706,1	670,562
706,5	660,705
707	655,19
707,4	649,533
707,8	639,619
708,3	637,505
708,7	632,305
709,2	629,162
709,6	622,876
710	628,105
710,5	619,476
710,9	618,962
711,3	613,733
711,8	611,39
712,2	610,248
712,7	607,819
713,1	599,048
713,5	596,048
714	591,99
714,4	587,105
714,8	579,19
715,3	574,105
715,7	569,619
716,2	563,333
716,6	564,619
717	558,419
717,5	555,876
717,9	556,448
718,3	548,676
718,8	547,019
719,2	539,533
719,7	534,105
720,1	536,048
720,5	532,876
721	524,019
721,4	522,876
721,8	525,362
722,3	521,962
722,7	519,448
723,2	507,848
723,6	494,048
724	491,648
724,5	488,562
724,9	480,619
725,3	477,333
725,8	470,819
726,2	472,848
726,7	477,076
727,1	476,048
727,5	474,333
728	468,562
728,4	464,619
728,8	461,105
729,3	456,105
729,7	452,162
730,1	448,905
730,6	445,448
731	442,333
731,5	443,39
731,9	442,448
732,3	444,933
732,8	442,162
733,2	436,962
733,6	431,705
734,1	431,819
734,5	424,048
734,9	420,562
735,4	414,276
735,8	408,79
736,3	412,448
736,7	407,505
737,1	405,276
737,6	404,933
738	401,819
738,4	396,648
738,9	399,733
739,3	389,819
739,7	392,876
740,2	390,419
740,6	393,048
741,1	390,962
741,5	386,533
741,9	382,248
742,4	389,79
742,8	386,219
743,2	384,19
743,7	375,162
744,1	369,162
744,5	366,905
745	364,133
745,4	355,505
745,8	354,076
746,3	349,305
746,7	344,419
747,2	345,048
747,6	351,019
748	350,562
748,5	348,933
748,9	345,076
749,3	342,39
749,8	350,276
750,2	351,133
750,6	342,105
751,1	338,733
751,5	336,305
751,9	334,905
752,4	333,876
752,8	325,162
753,3	321,362
753,7	320,848
754,1	319,648
754,6	315,905
755	313,133
755,4	311,505
755,9	308,476
756,3	304,419
756,7	303,619
757,2	304,79
757,6	301,676
758	298,276
758,5	292,19
758,9	289,962
759,3	292,019
759,8	286,876
760,2	277,248
760,6	274,276
761,1	271,962
761,5	270,219
761,9	270,733
762,4	260,333
762,8	260,048
763,3	263,419
763,7	264,676
764,1	264,048
764,6	262,876
765	262,305
765,4	264,619
765,9	266,476
766,3	267,79
766,7	267,876
767,2	265,762
767,6	268,619
768	264,905
768,5	263,076
768,9	258,419
769,3	250,133
769,8	245,448
770,2	246,048
770,6	241,733
771,1	243,648
771,5	242,39
771,9	243,19
772,4	244,562
772,8	241,762
773,2	237,819
773,7	236,962
774,1	233,819
774,5	226,133
775	221,962
775,4	218,505
775,8	216,933
776,3	216,648
776,7	211,248
777,1	209,076
777,6	215,39
778	217,533
778,4	213,762
778,9	214,219
779,3	211,39
779,7	216,019
780,2	214,905
780,6	208,848
781	205,876
781,5	200,419
781,9	198,305
782,3	198,876
782,8	194,505
783,2	190,248
783,6	195,848
784,1	191,962
784,5	191,79
784,9	187,533
785,4	184,219
785,8	185,219
786,2	188,79
786,7	180,419
787,1	180,162
787,5	186,676
788	186,39
788,4	185,705
788,8	182,076
789,3	177,905
789,7	182,133
790,1	184,076
790,6	183,162
791	181,562
791,4	184,162
791,9	181,333
792,3	177,019
792,7	176,876
793,2	167,905
793,6	165,505
794	169,962
794,5	163,819
794,9	165,105
795,3	168,99
795,8	164,219
796,2	165,79
796,6	164,705
797,1	159,19
797,5	156,705
797,9	152,133
798,4	145,476
798,8	143,076
799,2	141,933
799,7	137,733
800,1	137,933
800,5	136,876
801	139,99
801,4	140,19
801,8	139,19
802,2	140,619
802,7	136,39
803,1	138,448
803,5	139,276
804	138,105
804,4	141,076
804,8	142,162
805,3	139,448
805,7	142,248
806,1	139,648
806,6	141,362
807	141,619
807,4	137,505
807,9	133,848
808,3	133,762
808,7	135,648
809,2	137,762
809,6	136,133
810	132,39
810,4	130,905
810,9	133,733
811,3	135,819
811,7	128,733
812,2	126,476
812,6	124,448
813	126,648
813,5	126,39
813,9	122,162
814,3	117,419
814,8	120,676
815,2	116,048
815,6	111,848
816,1	111,676
816,5	112,848
816,9	113,99
817,3	112,248
817,8	116,105
818,2	115,019
818,6	113,733
819,1	111,762
819,5	108,59
819,9	105,905
820,4	107,276
820,8	101,133
821,2	100,705
821,7	102,419
822,1	100,019
822,5	105,476
822,9	101,762
823,4	99,533
823,8	103,476
824,2	101,59
824,7	99,676
825,1	95,133
825,5	88,19
826	90,733
826,4	91,505
826,8	83,79
827,3	86,362
827,7	84,248
828,1	85,619
828,5	86,448
829	82,048
829,4	80,819
829,8	76,676
830,3	77,619
830,7	78,048
831,1	79,79
831,6	79,876
832	81,505
832,4	80,219
832,8	89,59
833,3	83,419
833,7	81,762
834,1	80,819
834,6	78,962
835	83,619
835,4	85,362
835,8	78,619
836,3	78,619
836,7	81,933
837,1	78,819
837,6	78,99
838	70,676
838,4	67,79
838,9	69,105
839,3	65,848
839,7	63,733
840,1	61,533
840,6	61,248
841	69,79
841,4	68,59
841,9	70,305
842,3	75,762
842,7	74,676
843,1	75,533
843,6	77,219
844	70,248
844,4	73,133
844,9	72,276
845,3	70,562
845,7	72,99
846,2	73,133
846,6	68,99
847	72,19
847,4	75,79
847,9	73,305
848,3	71,476
848,7	69,848
849,2	70,105
849,6	65,105
850	66,533
850,4	59,448
850,9	61,448
851,3	64,905
851,7	63,505
852,2	62,076
852,6	69,39
853	67,876
853,4	67,905
853,9	64,762
854,3	61,505
854,7	63,19
855,2	63,019
855,6	62,19
856	58,505
856,4	55,105
856,9	53,905
857,3	54,905
857,7	57,105
858,2	58,733
858,6	55,162
859	56,248
859,4	57,562
859,9	55,99
860,3	54,39
860,7	50,905
861,1	52,819
861,6	49,905
862	49,105
862,4	47,248
862,9	49,19
863,3	48,048
863,7	46,219
864,1	46,019
864,6	47,505
865	42,619
865,4	47,819
865,9	53,933
866,3	52,133
866,7	51,076
867,1	43,105
867,6	45,648
868	50,419
868,4	47,162
868,8	41,876
869,3	43,676
869,7	49,105
870,1	50,562
870,6	47,019
871	-30,981
871,4	-25,638
871,8	-29,638
872,3	-30,695
872,7	-36,552
873,1	-34,924
873,5	-31,781
874	42,248
874,4	38,276
874,8	40,276
875,3	41,933
875,7	43,676
876,1	44,305
876,5	39,562
877	40,219
877,4	36,933
877,8	38,705
878,2	39,076
878,7	39,619
879,1	38,905
879,5	44,962
879,9	45,362
880,4	45,962
880,8	40,076
881,2	40,019
881,7	35,79
882,1	37,248
882,5	35,162
882,9	32,905
883,4	29,276
883,8	36,305
884,2	33,905
884,6	34,962
885,1	35,762
885,5	34,19
885,9	33,505
886,3	37,448
886,8	31,676
887,2	29,362
887,6	29,733
888	24,819
888,5	26,362
888,9	24,59
889,3	21,848
889,8	21,933
890,2	23,019
890,6	20,019
891	22,276
891,5	18,933
891,9	22,248
892,3	21,876
892,7	23,905
893,2	25,39
893,6	28,648
894	28,99
894,4	26,448
894,9	22,105
895,3	20,419
895,7	19,19
896,1	20,048
896,6	17,733
897	19,505
897,4	24,476
897,8	32,133
898,3	33,876
898,7	30,39
899,1	26,562
899,5	30,048
900	23,533
900,4	22,705
900,8	16,79
901,2	18,133
901,7	20,533
902,1	19,962
902,5	18,99
902,9	20,705
903,4	20,133
903,8	24,533
904,2	23,133
904,6	25,305
905,1	23,676
905,5	21,476
905,9	25,333
906,3	26,276
906,8	26,419
907,2	27,505
907,6	24,162
908	29,39
908,5	27,705
908,9	22,562
909,3	22,562
909,7	19,248
910,2	21,019
910,6	24,048
911	20,248
911,4	24,048
911,9	23,933
912,3	23,505
912,7	32,79
913,1	26,133
913,6	22,848
914	24,219
914,4	20,79
914,8	23,19
915,3	19,648
915,7	14,619
916,1	16,79
916,5	18,962
916,9	22,59
917,4	22,848
917,8	24,333
918,2	24,905
918,6	19,562
919,1	20,762
919,5	25,333
919,9	20,79
920,3	21,133
920,8	17,905
921,2	19,133
921,6	18,705
922	19,819
922,5	13,99
922,9	14,076
923,3	13,533
923,7	15,819
924,2	14,333
924,6	16,476
925	17,305
925,4	18,99
925,8	19,248
926,3	18,362
926,7	15,219
927,1	15,648
927,5	18,962
928	16,562
928,4	12,162
928,8	13,876
929,2	12,99
929,7	16,448
930,1	15,562
930,5	13,105
930,9	18,019
931,3	23,962
931,8	22,962
932,2	22,705
932,6	19,362
933	14,305
933,5	14,333
933,9	10,333
934,3	7,876
934,7	1,848
935,2	5,076
935,6	7,019
936	12,848
936,4	12,848
936,8	13,562
937,3	12,962
937,7	19,133
938,1	21,105
938,5	17,105
939	19,019
939,4	17,676
939,8	17,276
940,2	15,876
940,6	15,248
941,1	12,933
941,5	22,019
941,9	14,676
942,3	17,419
942,8	18,819
943,2	21,619
943,6	15,162
944	13,476
944,4	8,419
944,9	11,333
945,3	5,619
945,7	3,905
946,1	3,076
946,6	5,476
947	5,105
947,4	8,705
947,8	9,562
948,2	10,705
948,7	10,59
949,1	8,762
949,5	16,619
949,9	18,39
950,3	16,362
950,8	11,333
951,2	11,733
951,6	9,162
952	14,476
952,5	4,819
952,9	3,59
953,3	0,848
953,7	5,219
954,1	11,105
954,6	11,476
955	6,448
955,4	8,048
955,8	11,762
956,2	10,876
956,7	12,533
957,1	5,305
957,5	9,448
957,9	11,19
958,3	13,676
958,8	11,505
959,2	14,248
959,6	16,762
960	16,362
960,5	16,876
960,9	17,648
961,3	18,505
961,7	15,99
962,1	15,162
962,6	14,362
963	14,362
963,4	9,648
963,8	8,676
964,2	8,533
964,7	12,59
965,1	13,848
965,5	11,333
965,9	14,933
966,3	16,362
966,8	13,048
967,2	14,676
967,6	10,619
968	9,362
968,4	8,076
968,9	6,305
969,3	9,733
969,7	11,59
970,1	11,105
970,5	12,305
971	14,19
971,4	16,848
971,8	19,133
972,2	19,219
972,6	17,59
973,1	17,59
973,5	19,048
973,9	19,533
974,3	17,762
974,7	20,848
975,2	19,733
975,6	18,762
976	20,648
976,4	16,305
976,8	13,676
977,3	11,905
977,7	6,419
978,1	4,419
978,5	5,19
978,9	0,762
979,4	1,99
979,8	1,705
980,2	4,105
980,6	4,076
981	8,19
981,5	11,162
981,9	12,248
982,3	14,562
982,7	13,39
983,1	13,419
983,6	10,848
984	8,362
984,4	9,105
984,8	8,248
985,2	7,105
985,6	5,733
986,1	5,59
986,5	8,39
986,9	2,133
987,3	2,905
987,7	5,533
988,2	2,733
988,6	6,019
989	7,048
989,4	12,333
989,8	18,648
990,3	16,333
990,7	15,762
991,1	22,076
991,5	19,019
991,9	18,733
992,3	15,876
992,8	14,876
993,2	14,133
993,6	15,276
994	13,076
994,4	16,59
994,9	18,162
995,3	18,619
995,7	17,562
996,1	17,676
996,5	15,162
996,9	8,79
997,4	7,133
997,8	0,19
998,2	-4,01
998,6	-7,752
999	-11,581
999,5	-9,295
999,9	-2,581
1000,3	-3,038
1000,7	1,648
1001,1	5,562
1001,5	10,648
1002	16,076
1002,4	12,733
1002,8	10,362
1003,2	13,562
1003,6	16,305
1004	17,248
1004,5	11,19
1004,9	11,905
1005,3	6,962
1005,7	11,419
1006,1	6,362
1006,6	5,505
1007	4,362
1007,4	8,076
1007,8	6,533
1008,2	9,733
1008,6	11,905
1009,1	16,105
1009,5	13,533
1009,9	10,362
1010,3	12,476
1010,7	12,933
1011,1	14,048
1011,6	8,219
1012	8,733
1012,4	10,505
1012,8	7,933
1013,2	6,048
1013,6	5,076
1014,1	7,162
1014,5	8,305
1014,9	10,048
1015,3	5,733
1015,7	10,276
1016,1	7,562
1016,6	8,562
1017	9,962
1017,4	10,705
1017,8	3,619
1018,2	8,333
1018,6	4,448
1019,1	6,305
1019,5	5,076
1019,9	0,305
1020,3	-0,41
1020,7	3,562
1021,1	1,419
1021,6	3,333
1022	7,562
1022,4	11,019
1022,8	11,733
1023,2	11,076
1023,6	9,305
1024,1	14,733
1024,5	14,19
1024,9	11,162
1025,3	8,819
1025,7	11,276
1026,1	13,248
1026,6	15,076
1027	12,448
1027,4	16,048
1027,8	15,962
1028,2	14,362
1028,6	16,905
1029	13,676
1029,5	14,476
1029,9	10,79
1030,3	6,648
1030,7	9,562
1031,1	12,248
1031,5	7,219
1032	6,248
1032,4	3,962
1032,8	10,819
1033,2	12,819
1033,6	8,276
1034	6,048
1034,4	6,162
1034,9	10,562
1035,3	7,333
1035,7	5,448
1036,1	2,105
1036,5	-0,067
1036,9	3,962
1037,4	8,59
1037,8	1,533
1038,2	-0,124
1038,6	-1,838
1039	2,076
1039,4	11,533
1039,8	3,762
1040,3	2,905
1040,7	7,676
1041,1	10,848
1041,5	9,848
1041,9	8,19
1042,3	5,705
1042,7	10,562
1043,2	8,19
1043,6	4,905
1044	6,019
1044,4	5,562
1044,8	7,248
1045,2	5,933
1045,6	4,133
1046,1	4,419
1046,5	7,019
1046,9	9,619
1047,3	9,562
1047,7	5,533
1048,1	4,076
1048,5	7,133
1049	8,333
1049,4	15,048
1049,8	12,048
1050,2	12,19
1050,6	16,076
1051	15,476
1051,4	12,248
1051,9	10,162
1052,3	10,305
1052,7	15,59
1053,1	11,733
1053,5	11,79
1053,9	10,562
1054,3	13,762
1054,8	19,133
1055,2	15,876
1055,6	12,076
1056	15,962
1056,4	12,105
1056,8	12,705
1057,2	6,733
1057,6	2,962
1058,1	-0,867
1058,5	-2,267
1058,9	-3,181
1059,3	1,076
1059,7	3,619
1060,1	11,59
1060,5	11,933
1061	13,419
1061,4	13,676
1061,8	18,762
1062,2	16,59
1062,6	16,876
1063	15,19
1063,4	17,419
1063,8	17,648
1064,3	13,019
1064,7	9,905
1065,1	11,048
1065,5	5,019
1065,9	2,133
1066,3	-0,381
1066,7	-6,267
1067,1	-4,295
1067,6	-3,467
1068	-6,295
1068,4	-2,838
1068,8	-1,067
1069,2	-0,695
1069,6	2,505
1070	6,248
1070,4	7,019
1070,9	5,99
1071,3	4,019
1071,7	-1,095
1072,1	-1,524
1072,5	-2,267
1072,9	-3,667
1073,3	-3,81
1073,7	-0,41
1074,2	2,019
1074,6	5,619
1075	4,333
1075,4	7,19
1075,8	10,962
1076,2	7,733
1076,6	8,105
1077	7,819
1077,5	12,248
1077,9	11,848
1078,3	11,705
1078,7	8,219
1079,1	8,505
1079,5	8,79
1079,9	9,933
1080,3	5,448
1080,7	8,505
1081,2	14,648
1081,6	13,419
1082	10,905
1082,4	15,362
1082,8	16,105
1083,2	13,19
1083,6	11,39
1084	3,39
1084,5	7,448
1084,9	9,533
1085,3	-0,41
1085,7	-1,495
1086,1	1,648
1086,5	-0,752
1086,9	6,762
1087,3	4,905
1087,7	5,733
1088,2	8,819
1088,6	3,333
1089	2,419
1089,4	4,676
1089,8	0,076
1090,2	-0,924
1090,6	-0,581
1091	2,39
1091,4	8,276
1091,9	9,99
1092,3	10,448
1092,7	8,848
1093,1	12,762
1093,5	11,99
1093,9	13,048
1094,3	18,019
1094,7	14,248
1095,1	19,476
1095,5	19,533
1096	15,848
1096,4	14,248
1096,8	13,733
1097,2	6,876
1097,6	12,533
1098	8,762
1098,4	11,476
1098,8	10,819
1099,2	20,19
1099,6	18,248
1100,1	19,733
1100,5	14,248
1100,9	10,019
1101,3	8,876
1101,7	10,476
1102,1	2,105
1102,5	4,305
1102,9	4,476
1103,3	7,676
1103,7	10,99
1104,2	9,59
1104,6	10,419
1105	10,533
1105,4	8,19
1105,8	6,562
1106,2	4,933
1106,6	3,39
1107	2,905
1107,4	0,6
1107,8	0,533
1108,3	0,333
