Data from Subt2_262.txt Node
Date: Sat Aug 26 19:01:58 MSK 2023
User: vat
Spectrometer: MAYP114033
Trigger mode: 0
Integration Time (sec): 1,000000E0
Scans to average: 5
Electric dark correction enabled: true
Nonlinearity correction enabled: false
Boxcar width: 3
XAxis mode: Wavelengths
Number of Pixels in Spectrum: 2068
>>>>>Begin Spectral Data<<<<<
199,4	0,467
199,9	2,367
200,4	0,667
200,8	-1,233
201,3	-1,405
201,8	-1,319
202,2	-0,405
202,7	3,995
203,2	4,367
203,6	5,595
204,1	8,195
204,6	10,538
205	13,024
205,5	10,938
206	7,024
206,4	6,281
206,9	4,852
207,4	5,681
207,8	2,395
208,3	0,938
208,8	2,31
209,2	5,138
209,7	7,652
210,2	7,567
210,6	5,595
211,1	8,081
211,5	5,624
212	4,624
212,5	2,081
212,9	-2,433
213,4	0,252
213,9	-2,89
214,3	-1,548
214,8	4,567
215,3	5,51
215,7	6,51
216,2	8,367
216,7	8,824
217,1	11,224
217,6	11,767
218,1	8,452
218,5	7,538
219	0,91
219,5	2,624
219,9	1,51
220,4	8,395
220,9	7,452
221,3	9,367
221,8	9,738
222,3	15,767
222,7	14,995
223,2	16,338
223,6	10,681
224,1	10,11
224,6	6,052
225	0,881
225,5	0,424
226	-1,148
226,4	-1,576
226,9	-2,605
227,4	-2,119
227,8	-5,69
228,3	1,338
228,8	2,567
229,2	4,11
229,7	3,767
230,2	7,995
230,6	10,595
231,1	17,91
231,5	19,167
232	17,91
232,5	15,767
232,9	19,652
233,4	18,081
233,9	14,51
234,3	13,167
234,8	8,224
235,3	8,881
235,7	11,795
236,2	8,224
236,7	8,595
237,1	9,567
237,6	6,481
238,1	8,852
238,5	3,224
239	2,681
239,4	6,052
239,9	4,795
240,4	2,367
240,8	8,852
241,3	8,938
241,8	10,31
242,2	8,252
242,7	0,081
243,2	1,71
243,6	2,11
244,1	6,795
244,6	6,567
245	9,395
245,5	9,424
245,9	7,91
246,4	7,252
246,9	7,738
247,3	2,424
247,8	1,91
248,3	4,252
248,7	4,71
249,2	10,138
249,7	6,024
250,1	5,824
250,6	2,852
251	3,71
251,5	5,338
252	9,252
252,4	11,31
252,9	8,31
253,4	10,51
253,8	8,167
254,3	9,395
254,8	7,052
255,2	-1,233
255,7	-1,09
256,1	5,738
256,6	4,652
257,1	5,824
257,5	-1,748
258	-1,262
258,5	2,252
258,9	1,481
259,4	-1,062
259,9	1,967
260,3	1,052
260,8	4,138
261,2	2,824
261,7	6,424
262,2	-0,519
262,6	-0,833
263,1	-2,119
263,6	3,081
264	7,91
264,5	10,795
264,9	7,681
265,4	15,195
265,9	14,595
266,3	14,795
266,8	9,938
267,3	8,167
267,7	3,91
268,2	3,224
268,7	1,51
269,1	4,824
269,6	2,852
270	8,824
270,5	6,938
271	8,138
271,4	9,052
271,9	5,395
272,4	4,995
272,8	8,51
273,3	1,281
273,7	6,195
274,2	5,824
274,7	5,567
275,1	8,91
275,6	8,91
276,1	2,624
276,5	10,195
277	5,338
277,4	5,91
277,9	9,595
278,4	11,338
278,8	16,395
279,3	16,424
279,8	13,624
280,2	18,91
280,7	20,852
281,1	16,252
281,6	16,452
282,1	13,138
282,5	17,681
283	13,338
283,4	9,795
283,9	13,538
284,4	17,424
284,8	13,652
285,3	11,052
285,8	10,424
286,2	11,652
286,7	10,881
287,1	3,424
287,6	1,71
288,1	-1,462
288,5	0,424
289	-3,148
289,5	-1,09
289,9	0,624
290,4	8,395
290,8	9,024
291,3	10,995
291,8	8,71
292,2	9,481
292,7	12,567
293,1	9,367
293,6	7,91
294,1	4,567
294,5	9,71
295	11,681
295,5	11,052
295,9	5,081
296,4	5,367
296,8	2,967
297,3	9,767
297,8	7,195
298,2	2,452
298,7	7,338
299,1	11,224
299,6	8,395
300,1	10,538
300,5	7,195
301	9,795
301,5	18,167
301,9	16,995
302,4	10,881
302,8	14,795
303,3	12,052
303,8	8,424
304,2	5,024
304,7	1,224
305,1	-6,862
305,6	-1,005
306,1	9,081
306,5	9,624
307	14,71
307,4	18,224
307,9	16,767
308,4	22,024
308,8	15,767
309,3	7,652
309,8	6,252
310,2	7,195
310,7	1,252
311,1	1,995
311,6	5,081
312,1	9,338
312,5	10,995
313	10,452
313,4	8,424
313,9	10,481
314,4	10,738
314,8	4,881
315,3	4,024
315,7	-1,29
316,2	-2,605
316,7	-3,376
317,1	4,852
317,6	4,024
318	12,51
318,5	12,91
319	14,595
319,4	19,938
319,9	22,395
320,3	14,395
320,8	14,024
321,3	10,681
321,7	11,567
322,2	10,595
322,6	4,824
323,1	0,252
323,6	0,024
324	-0,433
324,5	-0,89
324,9	1,452
325,4	-1,033
325,9	4,595
326,3	9,252
326,8	14,395
327,2	13,538
327,7	12,481
328,2	9,91
328,6	15,281
329,1	10,852
329,5	5,452
330	1,624
330,5	3,881
330,9	7,195
331,4	8,11
331,8	5,91
332,3	10,31
332,8	16,138
333,2	15,252
333,7	17,452
334,1	15,395
334,6	12,938
335,1	10,567
335,5	7,481
336	2,995
336,4	5,652
336,9	7,881
337,4	9,167
337,8	10,652
338,3	17,367
338,7	20,624
339,2	19,052
339,7	22,738
340,1	18,081
340,6	16,31
341	14,11
341,5	11,652
342	6,538
342,4	6,481
342,9	-2,748
343,3	-1,748
343,8	-5,348
344,2	-5,519
344,7	-3,519
345,2	-2,176
345,6	-0,833
346,1	6,681
346,5	-0,262
347	-0,805
347,5	3,51
347,9	5,595
348,4	4,195
348,8	7,31
349,3	4,795
349,8	15,91
350,2	24,967
350,7	21,367
351,1	18,167
351,6	23,167
352	20,138
352,5	22,71
353	28,081
353,4	29,51
353,9	43,595
354,3	53,538
354,8	58,91
355,3	79,281
355,7	98,224
356,2	110,967
356,6	129,995
357,1	146,71
357,5	171,652
358	205,024
358,5	230,567
358,9	264,51
359,4	305,938
359,8	352,995
360,3	405,538
360,8	456,31
361,2	516,252
361,7	589,11
362,1	667,481
362,6	749,995
363	828,538
363,5	922,195
364	1026,081
364,4	1128,31
364,9	1227,91
365,3	1324,595
365,8	1412,938
366,3	1508,195
366,7	1585,795
367,2	1657,595
367,6	1707,681
368,1	1752,652
368,5	1777,452
369	1797,395
369,5	1801,481
369,9	1790,824
370,4	1759,91
370,8	1725,624
371,3	1674,052
371,7	1618,081
372,2	1547,31
372,7	1471,052
373,1	1391,081
373,6	1311,681
374	1233,424
374,5	1151,652
374,9	1070,967
375,4	992,852
375,9	916,11
376,3	842,024
376,8	768,567
377,2	706,852
377,7	646,338
378,2	590,395
378,6	544,767
379,1	497,424
379,5	458,852
380	427,995
380,4	388,367
380,9	356,367
381,4	327,081
381,8	304,652
382,3	286,452
382,7	266,424
383,2	245,738
383,6	229,967
384,1	213,052
384,6	200,881
385	182,452
385,5	170,281
385,9	155,024
386,4	145,71
386,8	136,681
387,3	130,595
387,7	123,281
388,2	117,795
388,7	110,852
389,1	109,624
389,6	101,967
390	96,652
390,5	91,681
390,9	88,481
391,4	81,081
391,9	72,795
392,3	68,452
392,8	59,367
393,2	51,452
393,7	47,824
394,1	43,395
394,6	39,681
395,1	39,824
395,5	34,938
396	40,024
396,4	41,052
396,9	38,967
397,3	41,424
397,8	41,31
398,2	40,11
398,7	41,31
399,2	37,252
399,6	39,024
400,1	36,652
400,5	25,538
401	25,224
401,4	18,281
401,9	17,738
402,4	21,081
402,8	17,138
403,3	23,052
403,7	24,424
404,2	27,967
404,6	32,795
405,1	33,138
405,5	29,452
406	29,395
406,5	22,681
406,9	27,767
407,4	28,195
407,8	28,052
408,3	28,11
408,7	28,538
409,2	34,652
409,6	41,595
410,1	43,338
410,6	45,481
411	54,11
411,5	55,195
411,9	57,91
412,4	55,424
412,8	57,338
413,3	58,681
413,7	55,224
414,2	52,795
414,7	57,481
415,1	62,024
415,6	69,481
416	67,881
416,5	67,452
416,9	68,481
417,4	71,024
417,8	75,681
418,3	77,252
418,8	75,595
419,2	79,252
419,7	80,395
420,1	86,795
420,6	88,567
421	85,852
421,5	91,252
421,9	94,538
422,4	94,195
422,8	97,795
423,3	94,052
423,8	92,538
424,2	92,938
424,7	89,91
425,1	86,138
425,6	85,881
426	85,424
426,5	87,11
426,9	86,681
427,4	83,11
427,9	75,681
428,3	75,51
428,8	76,424
429,2	71,31
429,7	67,595
430,1	67,281
430,6	66,481
431	72,167
431,5	75,824
431,9	75,052
432,4	78,224
432,8	82,595
433,3	83,852
433,8	86,995
434,2	90,252
434,7	90,595
435,1	92,052
435,6	92,995
436	93,052
436,5	94,452
436,9	93,881
437,4	93,195
437,8	94,452
438,3	97,624
438,8	97,538
439,2	103,681
439,7	110,51
440,1	119,652
440,6	129,795
441	127,195
441,5	132,824
441,9	143,052
442,4	145,195
442,8	149,424
443,3	153,995
443,7	154,195
444,2	166,338
444,7	172,567
445,1	180,11
445,6	188,881
446	194,052
446,5	196,881
446,9	199,881
447,4	208,624
447,8	217,424
448,3	226,167
448,7	233,367
449,2	242,995
449,6	258,538
450,1	270,31
450,6	283,824
451	294,71
451,5	305,024
451,9	319,995
452,4	336,795
452,8	343,51
453,3	362,767
453,7	369,767
454,2	383,138
454,6	396,052
455,1	408,881
455,5	416,595
456	435,024
456,4	437,424
456,9	455,767
457,3	468,052
457,8	477,738
458,3	492,367
458,7	508,424
459,2	518,252
459,6	536,338
460,1	549,938
460,5	562,51
461	586,11
461,4	602,138
461,9	611,852
462,3	632,71
462,8	651,51
463,2	668,538
463,7	691,167
464,1	710,824
464,6	727,881
465	753,567
465,5	771,538
466	790,424
466,4	807,395
466,9	831,167
467,3	844,481
467,8	867,567
468,2	888,795
468,7	907,767
469,1	933,652
469,6	962,11
470	977,024
470,5	1000,624
470,9	1017,052
471,4	1033,995
471,8	1055,281
472,3	1075,652
472,7	1088,652
473,2	1109,452
473,6	1122,652
474,1	1149,91
474,5	1173,824
475	1197,881
475,4	1217,824
475,9	1239,881
476,4	1263,367
476,8	1293,052
477,3	1306,452
477,7	1333,567
478,2	1354,452
478,6	1368,51
479,1	1389,652
479,5	1407,252
480	1424,224
480,4	1446,795
480,9	1459,424
481,3	1472,481
481,8	1498,938
482,2	1514,11
482,7	1531,538
483,1	1550,11
483,6	1563,052
484	1574,424
484,5	1590,595
484,9	1603,481
485,4	1624,681
485,8	1637,052
486,3	1649,138
486,7	1667,71
487,2	1683,938
487,6	1698,567
488,1	1707,824
488,5	1714,195
489	1734,51
489,4	1747,51
489,9	1750,195
490,4	1764,652
490,8	1776,652
491,3	1790,967
491,7	1801,795
492,2	1810,052
492,6	1820,824
493,1	1836,681
493,5	1843,481
494	1849,11
494,4	1855,91
494,9	1867,91
495,3	1872,538
495,8	1880,024
496,2	1893,224
496,7	1900,11
497,1	1909,795
497,6	1920,138
498	1927,11
498,5	1933,31
498,9	1936,538
499,4	1939,424
499,8	1950,11
500,3	1955,738
500,7	1956,595
501,2	1957,481
501,6	1963,538
502,1	1968,567
502,5	1976,024
503	1977,738
503,4	1985,252
503,9	1993,252
504,3	2005,938
504,8	2017,395
505,2	2024,738
505,7	2025,795
506,1	2037,281
506,6	2044,138
507	2045,881
507,5	2052,224
507,9	2055,995
508,4	2067,167
508,8	2071,081
509,3	2072,938
509,7	2080,081
510,2	2088,252
510,6	2087,71
511,1	2088,538
511,5	2090,738
512	2101,852
512,4	2108,424
512,9	2108,995
513,3	2117,567
513,8	2119,881
514,2	2131,31
514,7	2134,252
515,1	2140,795
515,6	2139,738
516	2140,824
516,5	2143,281
516,9	2153,624
517,4	2156,052
517,8	2162,024
518,3	2165,281
518,7	2171,424
519,2	2183,624
519,6	2187,852
520,1	2190,538
520,5	2190,51
521	2191,738
521,4	2197,452
521,9	2200,224
522,3	2204,338
522,8	2211,252
523,2	2219,481
523,7	2225,224
524,1	2238,395
524,6	2239,595
525	2249,624
525,5	2251,424
525,9	2262,252
526,4	2267,767
526,8	2275,052
527,3	2280,138
527,7	2287,938
528,2	2292,738
528,6	2296,51
529,1	2299,252
529,5	2304,281
530	2306,31
530,4	2311,167
530,9	2317,767
531,3	2328,338
531,8	2342,052
532,2	2352,995
532,6	2360,652
533,1	2376,281
533,5	2383,281
534	2390,967
534,4	2393,652
534,9	2396,567
535,3	2394,024
535,8	2398,824
536,2	2400,195
536,7	2409,424
537,1	2411,995
537,6	2425,252
538	2438,681
538,5	2453,138
538,9	2457,424
539,4	2471,424
539,8	2475,652
540,3	2493,338
540,7	2500,51
541,2	2503,595
541,6	2511,881
542,1	2523,395
542,5	2524,167
543	2528,51
543,4	2523,424
543,9	2527,252
544,3	2536,824
544,8	2536,567
545,2	2543,252
545,7	2553,024
546,1	2568,652
546,5	2587,71
547	2595,852
547,4	2598,424
547,9	2604,652
548,3	2613,424
548,8	2620,995
549,2	2622,138
549,7	2622,995
550,1	2631,11
550,6	2642,852
551	2654,424
551,5	2663,424
551,9	2667,538
552,4	2674,681
552,8	2683,595
553,3	2683,281
553,7	2685,995
554,2	2693,538
554,6	2698,738
555,1	2708,367
555,5	2715,452
555,9	2719,995
556,4	2727,167
556,8	2731,281
557,3	2739,795
557,7	2745,138
558,2	2750,31
558,6	2757,367
559,1	2759,31
559,5	2761,567
560	2766,395
560,4	2772,624
560,9	2777,538
561,3	2778,852
561,8	2783,138
562,2	2789,252
562,7	2798,91
563,1	2806,967
563,6	2799,767
564	2802,51
564,4	2808,51
564,9	2810,195
565,3	2815,052
565,8	2822,224
566,2	2830,452
566,7	2842,452
567,1	2842,767
567,6	2844,738
568	2848,11
568,5	2845,538
568,9	2844,967
569,4	2843,624
569,8	2841,452
570,3	2843,995
570,7	2843,652
571,1	2849,681
571,6	2859,11
572	2862,224
572,5	2860,852
572,9	2863,538
573,4	2863,452
573,8	2873,367
574,3	2868,481
574,7	2867,395
575,2	2863,71
575,6	2866,538
576,1	2870,138
576,5	2876,11
576,9	2864,081
577,4	2863,595
577,8	2861,938
578,3	2859,538
578,7	2859,681
579,2	2856,538
579,6	2851,881
580,1	2851,91
580,5	2854,538
581	2852,824
581,4	2853,281
581,9	2847,681
582,3	2843,167
582,7	2839,481
583,2	2839,824
583,6	2830,252
584,1	2832,052
584,5	2831,167
585	2830,195
585,4	2825,967
585,9	2821,338
586,3	2820,824
586,8	2821,567
587,2	2813,967
587,6	2812,281
588,1	2805,31
588,5	2802,424
589	2799,995
589,4	2792,367
589,9	2787,538
590,3	2777,738
590,8	2768,938
591,2	2763,281
591,7	2762,281
592,1	2760,824
592,5	2759,71
593	2749,738
593,4	2747,652
593,9	2742,71
594,3	2738,681
594,8	2727,967
595,2	2721,567
595,7	2712,595
596,1	2714,367
596,6	2708,538
597	2707,11
597,4	2704,452
597,9	2700,938
598,3	2700,224
598,8	2693,395
599,2	2686,995
599,7	2682,281
600,1	2671,281
600,6	2664,567
601	2659,738
601,4	2653,738
601,9	2654,681
602,3	2647,881
602,8	2641,795
603,2	2638,71
603,7	2635,481
604,1	2628,995
604,6	2621,795
605	2610,91
605,4	2602,167
605,9	2593,338
606,3	2583,367
606,8	2574,995
607,2	2566,395
607,7	2553,852
608,1	2549,367
608,6	2542,452
609	2544,367
609,4	2541,11
609,9	2532,367
610,3	2525,138
610,8	2521,367
611,2	2511,167
611,7	2506,081
612,1	2490,967
612,6	2485,11
613	2479,567
613,4	2471,967
613,9	2457,338
614,3	2450,624
614,8	2446,652
615,2	2437,081
615,7	2426,452
616,1	2415,595
616,6	2406,31
617	2397,852
617,4	2385,538
617,9	2369,795
618,3	2362,624
618,8	2357,224
619,2	2345,367
619,7	2336,91
620,1	2329,538
620,5	2325,367
621	2316,995
621,4	2310,081
621,9	2293,481
622,3	2286,824
622,8	2274,024
623,2	2258,081
623,6	2243,652
624,1	2232,138
624,5	2215,11
625	2207,624
625,4	2195,367
625,9	2188,538
626,3	2185,767
626,8	2172,824
627,2	2162,824
627,6	2153,452
628,1	2137,31
628,5	2132,624
629	2114,652
629,4	2104,71
629,9	2094,995
630,3	2078,51
630,7	2063,767
631,2	2061,081
631,6	2047,652
632,1	2045,767
632,5	2035,138
633	2028,738
633,4	2023,795
633,8	2017,395
634,3	2003,767
634,7	1990,252
635,2	1976,71
635,6	1966,081
636,1	1954,881
636,5	1943,71
636,9	1936,995
637,4	1928,395
637,8	1914,51
638,3	1900,595
638,7	1889,252
639,2	1870,452
639,6	1856,167
640	1839,795
640,5	1827,71
640,9	1823,195
641,4	1816,452
641,8	1805,052
642,2	1805,024
642,7	1810,881
643,1	1809,795
643,6	1799,824
644	1792,795
644,5	1786,338
644,9	1777,252
645,3	1759,852
645,8	1736,167
646,2	1725,852
646,7	1715,767
647,1	1701,738
647,6	1695,51
648	1687,681
648,4	1682,71
648,9	1686,795
649,3	1676,338
649,8	1673,081
650,2	1662,281
650,6	1650,452
651,1	1638,681
651,5	1636,995
652	1622,195
652,4	1614,481
652,9	1603,938
653,3	1597,281
653,7	1587,081
654,2	1582,024
654,6	1562,595
655,1	1558,052
655,5	1551,31
655,9	1541,052
656,4	1535,881
656,8	1528,767
657,3	1522,281
657,7	1519,252
658,2	1502,595
658,6	1488,052
659	1476,138
659,5	1465,652
659,9	1451,71
660,4	1441,224
660,8	1433,824
661,2	1426,538
661,7	1421,481
662,1	1417,881
662,6	1408,11
663	1406,081
663,4	1394,452
663,9	1383,11
664,3	1369,367
664,8	1358,31
665,2	1344,252
665,6	1337,252
666,1	1328,31
666,5	1320,395
667	1312,081
667,4	1308,338
667,9	1298,567
668,3	1289,624
668,7	1273,538
669,2	1266,195
669,6	1259,795
670,1	1256,052
670,5	1244,024
670,9	1239,252
671,4	1235,567
671,8	1238,024
672,3	1231,024
672,7	1229,481
673,1	1212,681
673,6	1205,995
674	1198,338
674,5	1188,824
674,9	1172,338
675,3	1158,538
675,8	1144,367
676,2	1142,11
676,7	1131,395
677,1	1124,881
677,5	1116,767
678	1114,71
678,4	1108,481
678,9	1099,852
679,3	1090,167
679,7	1086,252
680,2	1072,281
680,6	1064,91
681,1	1057,795
681,5	1051,91
681,9	1047,967
682,4	1043,224
682,8	1043,967
683,3	1043,224
683,7	1039,481
684,1	1035,852
684,6	1026,881
685	1014,395
685,5	1006,995
685,9	991,738
686,3	984,395
686,8	977,11
687,2	970,081
687,7	962,881
688,1	960,767
688,5	953,052
689	950,138
689,4	945,481
689,9	936,567
690,3	922,995
690,7	921,767
691,2	914,338
691,6	912,51
692	906,395
692,5	897,595
692,9	888,31
693,4	882,938
693,8	878,852
694,2	873,681
694,7	862,71
695,1	854,881
695,6	851,824
696	853,167
696,4	848,024
696,9	834,567
697,3	826,081
697,8	820,452
698,2	813,224
698,6	806,767
699,1	796,052
699,5	792,167
699,9	790,395
700,4	784,824
700,8	785,852
701,3	781,281
701,7	770,738
702,1	765,167
702,6	759,338
703	757,395
703,5	754,91
703,9	744,11
704,3	742,224
704,8	739,967
705,2	737,452
705,6	733,738
706,1	723,481
706,5	715,395
707	714,595
707,4	712,31
707,8	705,995
708,3	703,052
708,7	696,367
709,2	690,567
709,6	681,538
710	677,681
710,5	668,252
710,9	662,967
711,3	654,91
711,8	652,71
712,2	649,824
712,7	651,395
713,1	645,795
713,5	645,167
714	643,938
714,4	639,624
714,8	632,738
715,3	627,11
715,7	623,338
716,2	614,338
716,6	611,567
717	602,738
717,5	600,167
717,9	598,71
718,3	596,338
718,8	590,367
719,2	583,567
719,7	573,538
720,1	571,281
720,5	569,538
721	562,31
721,4	557,081
721,8	557,252
722,3	553,452
722,7	554,624
723,2	548,224
723,6	538,624
724	533,995
724,5	530,138
724,9	523,738
725,3	523,652
725,8	517,024
726,2	519,138
726,7	520,624
727,1	519,424
727,5	514,852
728	508,624
728,4	505,824
728,8	499,167
729,3	491,795
729,7	484,652
730,1	479,995
730,6	477,367
731	477,024
731,5	471,367
731,9	470,395
732,3	470,938
732,8	468,624
733,2	468,452
733,6	463,024
734,1	461,824
734,5	460,595
734,9	461,652
735,4	459,595
735,8	447,824
736,3	448,452
736,7	448,481
737,1	444,824
737,6	443,881
738	438,395
738,4	432,652
738,9	440,338
739,3	434,71
739,7	429,395
740,2	424,767
740,6	425,938
741,1	422,538
741,5	413,681
741,9	411,567
742,4	409,595
742,8	410,938
743,2	408,624
743,7	396,567
744,1	388,281
744,5	387,567
745	378,167
745,4	374,624
745,8	368,967
746,3	365,51
746,7	366,51
747,2	367,995
747,6	374,652
748	377,595
748,5	379,567
748,9	377,967
749,3	373,852
749,8	372,395
750,2	369,881
750,6	360,91
751,1	360,681
751,5	353,852
751,9	357,338
752,4	358,624
752,8	356,11
753,3	351,995
753,7	354,424
754,1	349,824
754,6	342,538
755	332,938
755,4	327,652
755,9	325,138
756,3	324,51
756,7	318,452
757,2	317,91
757,6	319,967
758	320,338
758,5	320,138
758,9	315,51
759,3	319,452
759,8	316,852
760,2	313,11
760,6	309,824
761,1	308,338
761,5	306,052
761,9	305,395
762,4	297,71
762,8	298,452
763,3	292,138
763,7	291,11
764,1	291,052
764,6	290,452
765	288,395
765,4	288,167
765,9	283,567
766,3	286,595
766,7	278,195
767,2	269,624
767,6	267,252
768	264,852
768,5	259,652
768,9	258,51
769,3	255,91
769,8	256,167
770,2	259,595
770,6	256,71
771,1	263,024
771,5	266,024
771,9	266,852
772,4	267,824
772,8	267,367
773,2	265,881
773,7	257,824
774,1	250,195
774,5	240,11
775	235,167
775,4	232,024
775,8	232,624
776,3	231,167
776,7	235,081
777,1	230,795
777,6	236,395
778	241,052
778,4	238,595
778,9	240,452
779,3	235,767
779,7	236,538
780,2	237,395
780,6	236,767
781	230,367
781,5	224,681
781,9	220,224
782,3	217,795
782,8	216,31
783,2	209,71
783,6	210,052
784,1	208,681
784,5	206,795
784,9	202,024
785,4	204,252
785,8	206,995
786,2	209,338
786,7	204,995
787,1	203,71
787,5	207,71
788	207,167
788,4	208,481
788,8	198,995
789,3	197,024
789,7	192,681
790,1	189,995
790,6	186,824
791	183,395
791,4	179,395
791,9	180,681
792,3	177,052
792,7	181,395
793,2	175,938
793,6	174,167
794	178,824
794,5	174,252
794,9	176,738
795,3	182,252
795,8	179,481
796,2	183,938
796,6	184,852
797,1	180,338
797,5	176,767
797,9	169,395
798,4	161,824
798,8	157,51
799,2	151,024
799,7	153,081
800,1	151,281
800,5	154,681
801	156,31
801,4	159,167
801,8	158,852
802,2	159,652
802,7	149,795
803,1	145,967
803,5	142,681
804	140,395
804,4	141,738
804,8	143,338
805,3	148,195
805,7	149,367
806,1	150,738
806,6	153,967
807	150,938
807,4	144,71
807,9	137,281
808,3	134,252
808,7	135,795
809,2	140,795
809,6	138,11
810	140,567
810,4	139,91
810,9	141,338
811,3	140,681
811,7	135,71
812,2	133,652
812,6	131,31
813	130,452
813,5	130,367
813,9	128,252
814,3	124,51
814,8	126,91
815,2	122,081
815,6	120,652
816,1	122,367
816,5	123,167
816,9	124,452
817,3	123,824
817,8	125,567
818,2	124,738
818,6	120,738
819,1	117,881
819,5	111,538
819,9	113,395
820,4	112,538
820,8	107,824
821,2	103,338
821,7	106,052
822,1	105,795
822,5	115,081
822,9	108,995
823,4	109,767
823,8	110,424
824,2	114,024
824,7	111,624
825,1	106,024
825,5	97,767
826	96,138
826,4	95,367
826,8	92,71
827,3	92,967
827,7	88,252
828,1	88,881
828,5	87,91
829	88,938
829,4	87,938
829,8	85,738
830,3	88,452
830,7	89,91
831,1	91,052
831,6	90,652
832	91,595
832,4	88,652
832,8	92,938
833,3	83,738
833,7	82,595
834,1	80,224
834,6	77,138
835	77,652
835,4	82,395
835,8	75,852
836,3	78,767
836,7	83,624
837,1	82,224
837,6	87,224
838	84,395
838,4	78,91
838,9	80,538
839,3	78,881
839,7	77,795
840,1	74,91
840,6	74,167
841	75,795
841,4	75,281
841,9	77,281
842,3	78,567
842,7	80,138
843,1	82,795
843,6	85,938
844	83,91
844,4	84,252
844,9	84,167
845,3	82,795
845,7	77,481
846,2	74,652
846,6	69,452
847	72,595
847,4	74,995
847,9	75,281
848,3	75,167
848,7	75,195
849,2	79,224
849,6	74,224
850	74,052
850,4	71,738
850,9	72,91
851,3	71,938
851,7	70,081
852,2	65,424
852,6	71,195
853	69,967
853,4	69,195
853,9	62,51
854,3	63,938
854,7	69,652
855,2	70,11
855,6	68,052
856	63,11
856,4	62,91
856,9	65,452
857,3	63,252
857,7	59,824
858,2	65,338
858,6	63,738
859	68,395
859,4	65,995
859,9	64,767
860,3	64,367
860,7	64,452
861,1	61,71
861,6	58,338
862	53,452
862,4	55,338
862,9	57,052
863,3	55,452
863,7	52,681
864,1	51,081
864,6	51,738
865	49,31
865,4	42,538
865,9	41,967
866,3	37,91
866,7	37,224
867,1	35,595
867,6	36,224
868	39,595
868,4	44,967
868,8	42,338
869,3	47,538
869,7	54,395
870,1	50,71
870,6	50,852
871	35,767
871,4	39,167
871,8	38,281
872,3	39,824
872,7	34,738
873,1	37,824
873,5	39,71
874	52,967
874,4	48,967
874,8	46,795
875,3	47,395
875,7	42,567
876,1	44,138
876,5	43,367
877	42,024
877,4	38,481
877,8	42,824
878,2	42,138
878,7	47,024
879,1	44,738
879,5	42,424
879,9	46,624
880,4	45,281
880,8	44,938
881,2	38,367
881,7	34,938
882,1	34,424
882,5	34,71
882,9	30,281
883,4	29,91
883,8	29,767
884,2	31,71
884,6	30,11
885,1	29,595
885,5	27,967
885,9	27,252
886,3	32,567
886,8	28,052
887,2	25,91
887,6	28,824
888	27,452
888,5	32,652
888,9	32,338
889,3	26,652
889,8	24,852
890,2	26,081
890,6	23,024
891	24,624
891,5	20,31
891,9	21,652
892,3	25,91
892,7	30,11
893,2	31,681
893,6	37,224
894	38,881
894,4	37,967
894,9	37,824
895,3	37,395
895,7	37,852
896,1	34,452
896,6	27,995
897	28,224
897,4	34,338
897,8	32,967
898,3	30,652
898,7	27,995
899,1	34,795
899,5	36,538
900	32,31
900,4	27,852
900,8	25,795
901,2	24,938
901,7	25,281
902,1	24,424
902,5	28,138
902,9	28,138
903,4	25,967
903,8	31,824
904,2	28,167
904,6	25,938
905,1	20,624
905,5	18,024
905,9	19,967
906,3	22,224
906,8	21,167
907,2	27,995
907,6	31,281
908	32,138
908,5	29,938
908,9	27,138
909,3	26,995
909,7	24,338
910,2	22,452
910,6	24,452
911	23,71
911,4	26,081
911,9	27,081
912,3	24,652
912,7	27,081
913,1	26,881
913,6	20,91
914	22,624
914,4	22,167
914,8	21,995
915,3	21,452
915,7	17,938
916,1	17,567
916,5	22,138
916,9	20,795
917,4	20,138
917,8	21,338
918,2	21,91
918,6	22,367
919,1	22,367
919,5	22,538
919,9	26,51
920,3	25,824
920,8	23,624
921,2	23,281
921,6	20,481
922	19,338
922,5	18,424
922,9	15,481
923,3	13,167
923,7	14,795
924,2	13,624
924,6	16,024
925	21,024
925,4	18,881
925,8	18,31
926,3	19,538
926,7	17,71
927,1	19,652
927,5	21,567
928	14,252
928,4	14,395
928,8	15,024
929,2	12,71
929,7	14,167
930,1	14,51
930,5	10,681
930,9	16,881
931,3	17,167
931,8	16,938
932,2	17,767
932,6	16,367
933	10,367
933,5	14,395
933,9	13,252
934,3	16,052
934,7	12,31
935,2	11,51
935,6	13,595
936	19,91
936,4	15,252
936,8	15,681
937,3	15,538
937,7	18,852
938,1	22,567
938,5	15,852
939	12,595
939,4	13,795
939,8	11,252
940,2	5,452
940,6	6,995
941,1	4,795
941,5	12,824
941,9	12,224
942,3	13,052
942,8	14,252
943,2	16,967
943,6	11,424
944	13,71
944,4	15,138
944,9	14,681
945,3	16,252
945,7	12,395
946,1	7,824
946,6	10,852
947	9,738
947,4	7,395
947,8	7,024
948,2	6,138
948,7	6,51
949,1	10,11
949,5	12,31
949,9	10,652
950,3	8,424
950,8	10,024
951,2	7,967
951,6	7,252
952	7,481
952,5	2,967
952,9	4,51
953,3	6,681
953,7	4,538
954,1	10,052
954,6	13,281
955	19,081
955,4	18,538
955,8	18,967
956,2	15,281
956,7	15,51
957,1	9,71
957,5	9,767
957,9	7,595
958,3	10,538
958,8	15,852
959,2	20,081
959,6	28,11
960	27,31
960,5	28,11
960,9	27,024
961,3	24,481
961,7	18,052
962,1	12,195
962,6	9,595
963	11,967
963,4	4,367
963,8	3,224
964,2	6,51
964,7	9,081
965,1	15,967
965,5	11,995
965,9	10,481
966,3	17,024
966,8	15,367
967,2	16,71
967,6	14,252
968	9,11
968,4	7,424
968,9	9,481
969,3	13,367
969,7	15,824
970,1	14,224
970,5	12,91
971	20,395
971,4	23,738
971,8	22,338
972,2	20,452
972,6	16,967
973,1	16,167
973,5	20,567
973,9	13,367
974,3	12,052
974,7	17,167
975,2	19,938
975,6	19,138
976	21,967
976,4	18,195
976,8	19,11
977,3	18,91
977,7	11,51
978,1	7,824
978,5	11,881
978,9	8,967
979,4	8,281
979,8	8,538
980,2	6,967
980,6	4,395
981	5,967
981,5	6,967
981,9	6,052
982,3	5,852
982,7	9,452
983,1	9,767
983,6	13,71
984	11,31
984,4	7,795
984,8	6,452
985,2	4,852
985,6	-0,09
986,1	1,224
986,5	3,338
986,9	-2,862
987,3	0,767
987,7	2,052
988,2	4,767
988,6	11,138
989	12,681
989,4	8,738
989,8	15,481
990,3	11,824
990,7	12,967
991,1	16,595
991,5	15,624
991,9	18,167
992,3	20,481
992,8	19,395
993,2	18,452
993,6	21,967
994	18,424
994,4	16,338
994,9	12,081
995,3	13,995
995,7	15,424
996,1	14,881
996,5	11,995
996,9	9,51
997,4	11,224
997,8	9,938
998,2	5,824
998,6	-0,119
999	2,11
999,5	0,881
999,9	3,024
1000,3	-4,319
1000,7	-1,862
1001,1	0,424
1001,5	6,367
1002	7,995
1002,4	8,281
1002,8	10,281
1003,2	18,538
1003,6	19,138
1004	22,367
1004,5	15,538
1004,9	13,624
1005,3	12,224
1005,7	12,567
1006,1	6,167
1006,6	4,424
1007	4,081
1007,4	8,081
1007,8	8,395
1008,2	8,081
1008,6	9,138
1009,1	9,167
1009,5	11,738
1009,9	10,481
1010,3	9,538
1010,7	7,567
1011,1	6,167
1011,6	3,71
1012	8,967
1012,4	7,167
1012,8	4,281
1013,2	5,367
1013,6	8,51
1014,1	12,567
1014,5	17,881
1014,9	15,081
1015,3	14,195
1015,7	18,738
1016,1	15,91
1016,6	12,195
1017	10,195
1017,4	3,91
1017,8	3,71
1018,2	4,881
1018,6	-1,376
1019,1	2,938
1019,5	7,024
1019,9	1,967
1020,3	0,767
1020,7	1,51
1021,1	2,252
1021,6	4,138
1022	8,91
1022,4	8,395
1022,8	14,767
1023,2	13,595
1023,6	12,938
1024,1	15,51
1024,5	19,167
1024,9	11,11
1025,3	9,681
1025,7	8,424
1026,1	12,967
1026,6	9,938
1027	5,424
1027,4	1,824
1027,8	4,71
1028,2	2,681
1028,6	7,852
1029	5,567
1029,5	11,338
1029,9	8,852
1030,3	4,024
1030,7	4,824
1031,1	8,967
1031,5	4,252
1032	4,624
1032,4	1,481
1032,8	6,595
1033,2	13,338
1033,6	13,081
1034	12,481
1034,4	14,338
1034,9	14,452
1035,3	15,967
1035,7	15,195
1036,1	10,11
1036,5	7,081
1036,9	2,595
1037,4	5,967
1037,8	6,995
1038,2	4,824
1038,6	2,481
1039	10,767
1039,4	14,681
1039,8	13,938
1040,3	12,738
1040,7	12,824
1041,1	16,338
1041,5	18,31
1041,9	14,167
1042,3	14,595
1042,7	20,538
1043,2	16,395
1043,6	12,052
1044	6,681
1044,4	4,824
1044,8	5,424
1045,2	4,024
1045,6	-0,748
1046,1	-1,862
1046,5	0,595
1046,9	1,424
1047,3	4,024
1047,7	4,195
1048,1	2,595
1048,5	7,481
1049	13,11
1049,4	20,11
1049,8	21,938
1050,2	22,024
1050,6	22,71
1051	21,252
1051,4	21,881
1051,9	16,91
1052,3	17,767
1052,7	19,767
1053,1	16,71
1053,5	18,824
1053,9	21,338
1054,3	19,195
1054,8	23,538
1055,2	19,052
1055,6	21,252
1056	23,167
1056,4	16,967
1056,8	18,052
1057,2	17,51
1057,6	14,538
1058,1	10,395
1058,5	2,795
1058,9	4,738
1059,3	9,995
1059,7	5,681
1060,1	3,767
1060,5	3,338
1061	4,481
1061,4	8,91
1061,8	8,167
1062,2	5,452
1062,6	12,481
1063	15,338
1063,4	17,224
1063,8	18,538
1064,3	11,71
1064,7	9,51
1065,1	8,738
1065,5	-0,262
1065,9	-2,862
1066,3	-5,748
1066,7	-9,348
1067,1	-3,062
1067,6	0,538
1068	0,567
1068,4	3,224
1068,8	7,595
1069,2	9,881
1069,6	15,452
1070	21,51
1070,4	19,11
1070,9	18,195
1071,3	18,51
1071,7	13,824
1072,1	13,138
1072,5	9,71
1072,9	2,767
1073,3	2,338
1073,7	4,91
1074,2	4,024
1074,6	8,167
1075	5,395
1075,4	3,938
1075,8	7,224
1076,2	6,281
1076,6	6,71
1077	6,738
1077,5	6,167
1077,9	4,624
1078,3	6,081
1078,7	4,595
1079,1	7,167
1079,5	5,738
1079,9	9,824
1080,3	9,024
1080,7	13,195
1081,2	18,91
1081,6	14,31
1082	9,367
1082,4	12,338
1082,8	9,081
1083,2	9,281
1083,6	10,138
1084	1,167
1084,5	3,881
1084,9	6,367
1085,3	-2,719
1085,7	-0,09
1086,1	-1,719
1086,5	-1,519
1086,9	4,481
1087,3	2,738
1087,7	2,024
1088,2	6,738
1088,6	3,881
1089	5,395
1089,4	4,338
1089,8	4,31
1090,2	4,967
1090,6	4,31
1091	7,624
1091,4	10,681
1091,9	11,91
1092,3	12,31
1092,7	8,795
1093,1	12,681
1093,5	14,995
1093,9	10,852
1094,3	14,567
1094,7	14,738
1095,1	14,481
1095,5	17,738
1096	10,795
1096,4	14,852
1096,8	17,767
1097,2	14,138
1097,6	17,51
1098	15,595
1098,4	17,995
1098,8	21,852
1099,2	23,224
1099,6	21,71
1100,1	21,31
1100,5	14,624
1100,9	15,881
1101,3	13,538
1101,7	11,681
1102,1	8,195
1102,5	10,967
1102,9	12,224
1103,3	15,652
1103,7	16,452
1104,2	12,91
1104,6	15,795
1105	10,852
1105,4	9,452
1105,8	5,91
1106,2	1,967
1106,6	-0,262
1107	0,595
1107,4	-1,367
1107,8	1,167
1108,3	-0,683
