Data from Subt2_158.txt Node
Date: Sat Aug 26 18:33:13 MSK 2023
User: vat
Spectrometer: MAYP114033
Trigger mode: 0
Integration Time (sec): 1,000000E0
Scans to average: 5
Electric dark correction enabled: true
Nonlinearity correction enabled: false
Boxcar width: 3
XAxis mode: Wavelengths
Number of Pixels in Spectrum: 2068
>>>>>Begin Spectral Data<<<<<
199,4	-1,467
199,9	1,613
200,4	2,033
200,8	2,933
201,3	-1,295
201,8	-1,181
202,2	-3,352
202,7	0,733
203,2	-2,124
203,6	-1,324
204,1	-4,01
204,6	-0,467
205	0,533
205,5	3,99
206	2,105
206,4	3,448
206,9	-0,067
207,4	3,448
207,8	3,676
208,3	2,419
208,8	-0,01
209,2	-0,667
209,7	1,962
210,2	3,619
210,6	0,819
211,1	1,733
211,5	-2,381
212	1,962
212,5	0,705
212,9	-5,01
213,4	-7,038
213,9	-6,61
214,3	-5,41
214,8	-2,61
215,3	-6,41
215,7	-3,038
216,2	1,676
216,7	3,419
217,1	0,99
217,6	2,19
218,1	2,076
218,5	0,219
219	-8,352
219,5	-9,81
219,9	-14,695
220,4	-6,324
220,9	-11,895
221,3	-8,41
221,8	-5,352
222,3	2,219
222,7	1,019
223,2	5,562
223,6	-1,695
224,1	1,962
224,6	4,476
225	-0,295
225,5	-4,01
226	-3,238
226,4	0,876
226,9	3,476
227,4	1,505
227,8	-7,124
228,3	-2,41
228,8	-2,724
229,2	-2,552
229,7	-6,581
230,2	-6,61
230,6	-2,952
231,1	2,676
231,5	4,219
232	5,962
232,5	6,362
232,9	5,819
233,4	5,419
233,9	0,648
234,3	2,99
234,8	2,562
235,3	-0,61
235,7	-1,21
236,2	0,905
236,7	0,248
237,1	3,619
237,6	-0,124
238,1	0,876
238,5	-1,067
239	1,648
239,4	3,333
239,9	2,19
240,4	3,648
240,8	3,562
241,3	-4,238
241,8	-0,381
242,2	-4,895
242,7	-8,61
243,2	-5,867
243,6	-10,952
244,1	-8,752
244,6	-5,238
245	-4,581
245,5	-5,895
245,9	-8,524
246,4	-7,724
246,9	-4,552
247,3	-3,238
247,8	0,076
248,3	1,248
248,7	2,619
249,2	6,619
249,7	3,59
250,1	3,819
250,6	1,905
251	1,848
251,5	0,505
252	0,476
252,4	0,648
252,9	-1,381
253,4	-3,838
253,8	-7,867
254,3	-10,524
254,8	-10,61
255,2	-13,152
255,7	-13,695
256,1	-11,038
256,6	-9,924
257,1	-3,095
257,5	-6,781
258	-7,667
258,5	-4,638
258,9	-1,038
259,4	-2,895
259,9	-0,952
260,3	-8,01
260,8	-5,238
261,2	-0,495
261,7	2,019
262,2	-6,467
262,6	-6,267
263,1	-7,438
263,6	-6,181
264	-1,952
264,5	-1,381
264,9	-3,095
265,4	4,933
265,9	6,39
266,3	11,448
266,8	17,105
267,3	14,819
267,7	8,619
268,2	12,562
268,7	11,99
269,1	9,276
269,6	4,362
270	-0,095
270,5	-0,981
271	2,648
271,4	-3,552
271,9	-9,695
272,4	-4,067
272,8	-2,81
273,3	-6,352
273,7	-6,067
274,2	-7,238
274,7	-6,781
275,1	-3,124
275,6	-5,667
276,1	-5,895
276,5	-0,381
277	-1,152
277,4	-0,324
277,9	3,848
278,4	5,048
278,8	7,19
279,3	4,676
279,8	5,105
280,2	8,99
280,7	10,676
281,1	8,362
281,6	8,133
282,1	7,648
282,5	10,533
283	7,99
283,4	6,076
283,9	4,39
284,4	8,276
284,8	7,733
285,3	5,59
285,8	7,076
286,2	7,362
286,7	3,305
287,1	2,39
287,6	-1,61
288,1	-2,924
288,5	-4,21
289	-8,01
289,5	-5,924
289,9	-4,695
290,4	-1,181
290,8	-2,381
291,3	-3,524
291,8	-0,267
292,2	-0,61
292,7	2,333
293,1	2,19
293,6	-0,838
294,1	2,533
294,5	5,048
295	2,162
295,5	0,79
295,9	-4,438
296,4	-6,895
296,8	-7,181
297,3	-9,667
297,8	-15,581
298,2	-16,438
298,7	-12,095
299,1	-11,81
299,6	-9,324
300,1	-8,238
300,5	-5,21
301	-1,181
301,5	3,648
301,9	3,19
302,4	1,876
302,8	1,19
303,3	-5,01
303,8	-11,524
304,2	-13,752
304,7	-14,038
305,1	-15,038
305,6	-14,324
306,1	-6,981
306,5	-0,752
307	0,99
307,4	6,962
307,9	4,419
308,4	0,819
308,8	-3,781
309,3	-6,552
309,8	-8,067
310,2	-3,867
310,7	-10,467
311,1	-9,038
311,6	-6,838
312,1	-1,495
312,5	-0,295
313	-2,152
313,4	-4,552
313,9	-2,124
314,4	-1,81
314,8	-3,752
315,3	0,19
315,7	-4,381
316,2	-4,724
316,7	-3,524
317,1	1,276
317,6	2,448
318	7,133
318,5	-0,095
319	-0,238
319,4	1,219
319,9	3,762
320,3	3,19
320,8	-2,552
321,3	-0,981
321,7	5,162
322,2	4,533
322,6	9,705
323,1	9,105
323,6	7,248
324	12,162
324,5	6,762
324,9	1,276
325,4	0,762
325,9	-0,352
326,3	-0,924
326,8	1,533
327,2	-6,352
327,7	-5,21
328,2	-2,552
328,6	3,99
329,1	-5,695
329,5	-9,01
330	-11,895
330,5	-4,21
330,9	-1,438
331,4	1,99
331,8	-4,467
332,3	4,533
332,8	7,133
333,2	6,19
333,7	3,962
334,1	1,448
334,6	-2,267
335,1	-0,81
335,5	-1,267
336	-3,495
336,4	0,905
336,9	4,59
337,4	4,848
337,8	5,248
338,3	7,905
338,7	7,648
339,2	7,705
339,7	5,933
340,1	4,419
340,6	6,333
341	2,562
341,5	0,676
342	-3,981
342,4	-3,438
342,9	-2,41
343,3	-4,038
343,8	-5,267
344,2	0,219
344,7	5,019
345,2	8,333
345,6	9,019
346,1	9,476
346,5	8,419
347	7,619
347,5	3,562
347,9	2,619
348,4	3,162
348,8	5,019
349,3	5,419
349,8	6,619
350,2	10,733
350,7	9,848
351,1	8,619
351,6	9,99
352	10,39
352,5	11,876
353	20,362
353,4	20,219
353,9	29,848
354,3	40,219
354,8	49,39
355,3	67,419
355,7	83,762
356,2	100,219
356,6	121,019
357,1	144,133
357,5	164,276
358	192,962
358,5	214,276
358,9	244,39
359,4	280,762
359,8	324,333
360,3	374,59
360,8	428,333
361,2	488,876
361,7	562,648
362,1	645,39
362,6	729,733
363	819,076
363,5	907,019
364	1009,59
364,4	1110,105
364,9	1212,676
365,3	1310,276
365,8	1397,819
366,3	1484,562
366,7	1565,362
367,2	1636,333
367,6	1688,162
368,1	1733,476
368,5	1751,819
369	1766,848
369,5	1765,533
369,9	1754,505
370,4	1725,39
370,8	1687,876
371,3	1627,962
371,7	1566,905
372,2	1498,476
372,7	1427,819
373,1	1348,333
373,6	1266,79
374	1189,705
374,5	1110,505
374,9	1041,79
375,4	970,79
375,9	898,505
376,3	829,019
376,8	760,248
377,2	700,248
377,7	650,505
378,2	595,219
378,6	544,562
379,1	500,99
379,5	465,276
380	433,19
380,4	394,419
380,9	355,676
381,4	323,419
381,8	299,019
382,3	274,705
382,7	252,048
383,2	228,362
383,6	209,476
384,1	197,533
384,6	187,733
385	175,219
385,5	160,762
385,9	148,648
386,4	141,99
386,8	136,962
387,3	126,362
387,7	118,933
388,2	111,105
388,7	103,876
389,1	98,533
389,6	90,99
390	85,619
390,5	81,476
390,9	76,562
391,4	70,305
391,9	65,762
392,3	59,848
392,8	53,076
393,2	47,133
393,7	44,162
394,1	34,933
394,6	30,019
395,1	28,619
395,5	27,819
396	28,105
396,4	32,848
396,9	27,99
397,3	32,848
397,8	35,705
398,2	35,19
398,7	36,419
399,2	35,076
399,6	31,933
400,1	32,19
400,5	25,648
401	25,962
401,4	24,019
401,9	21,733
402,4	23,762
402,8	18,39
403,3	24,162
403,7	26,333
404,2	26,248
404,6	32,39
405,1	31,219
405,5	29,848
406	34,133
406,5	26,962
406,9	29,362
407,4	26,59
407,8	24,905
408,3	27,219
408,7	30,276
409,2	32,962
409,6	38,019
410,1	40,99
410,6	47,848
411	49,162
411,5	54,219
411,9	56,676
412,4	53,105
412,8	60,648
413,3	64,19
413,7	63,048
414,2	63,962
414,7	69,648
415,1	77,305
415,6	86,59
416	85,362
416,5	87,219
416,9	90,505
417,4	99,99
417,8	108,876
418,3	109,619
418,8	116,448
419,2	125,905
419,7	130,105
420,1	138,419
420,6	138,276
421	133,876
421,5	140,962
421,9	143,619
422,4	149,533
422,8	152,762
423,3	155,59
423,8	161,476
424,2	163,562
424,7	165,305
425,1	170,362
425,6	170,676
426	175,419
426,5	184,105
426,9	195,476
427,4	199,533
427,9	203,79
428,3	214,705
428,8	223,248
429,2	232,533
429,7	236,59
430,1	241,248
430,6	255,305
431	269,562
431,5	274,219
431,9	284,648
432,4	300,19
432,8	315,819
433,3	330,733
433,8	341,819
434,2	353,476
434,7	372,448
435,1	387,676
435,6	404,133
436	419,476
436,5	437,448
436,9	456,876
437,4	478,705
437,8	500,362
438,3	522,476
438,8	547,305
439,2	572,562
439,7	601,962
440,1	634,19
440,6	665,562
441	687,505
441,5	719,876
441,9	744,362
442,4	773,248
442,8	796,762
443,3	828,99
443,7	862,476
444,2	902,019
444,7	936,162
445,1	978,619
445,6	1021,019
446	1067,819
446,5	1103,048
446,9	1137,962
447,4	1178,305
447,8	1226,219
448,3	1270,99
448,7	1316,933
449,2	1365,019
449,6	1417,705
450,1	1466,876
450,6	1521,476
451	1571,562
451,5	1623,133
451,9	1678,848
452,4	1729,276
452,8	1783,648
453,3	1844,276
453,7	1898,99
454,2	1956,733
454,6	2019,648
455,1	2073,762
455,5	2129,133
456	2197,448
456,4	2252,705
456,9	2317,848
457,3	2379,705
457,8	2437,676
458,3	2513,705
458,7	2580,59
459,2	2643,219
459,6	2715,933
460,1	2784,619
460,5	2851,933
461	2926,048
461,4	2987,79
461,9	3057,019
462,3	3122,762
462,8	3191,362
463,2	3258,562
463,7	3333,648
464,1	3404,476
464,6	3480,705
465	3561,676
465,5	3635,248
466	3706,476
466,4	3781,19
466,9	3849,819
467,3	3914,276
467,8	3986,79
468,2	4052,019
468,7	4124,219
469,1	4200,705
469,6	4272,362
470	4340,533
470,5	4417,105
470,9	4479,448
471,4	4543,448
471,8	4604,848
472,3	4669,476
472,7	4724,448
473,2	4782,99
473,6	4838,562
474,1	4900,019
474,5	4960,762
475	5022,105
475,4	5075,876
475,9	5137,562
476,4	5200,562
476,8	5262,448
477,3	5309,048
477,7	5363,076
478,2	5408,99
478,6	5453,276
479,1	5499,448
479,5	5542,933
480	5579,219
480,4	5631,562
480,9	5665,19
481,3	5699,333
481,8	5732,648
482,2	5758,933
482,7	5784,905
483,1	5817,848
483,6	5840,905
484	5864,99
484,5	5895,99
484,9	5928,476
485,4	5957,79
485,8	5975,59
486,3	5983,019
486,7	5996,219
487,2	6015,99
487,6	6023,448
488,1	6029,019
488,5	6029,248
489	6041,733
489,4	6051,448
489,9	6045,076
490,4	6039,105
490,8	6037,848
491,3	6032,733
491,7	6029,648
492,2	6020,79
492,6	6013,076
493,1	6011,705
493,5	6000,019
494	5986,105
494,4	5973,419
494,9	5957,505
495,3	5941,676
495,8	5918,248
496,2	5897,762
496,7	5878,39
497,1	5863,333
497,6	5836,933
498	5812,733
498,5	5785,276
498,9	5754,848
499,4	5722,162
499,8	5700,362
500,3	5673,248
500,7	5642,848
501,2	5611,79
501,6	5575,305
502,1	5555,133
502,5	5525,819
503	5489,133
503,4	5454,333
503,9	5421,076
504,3	5390,533
504,8	5365,048
505,2	5327,333
505,7	5292,305
506,1	5260,362
506,6	5213,419
507	5171,105
507,5	5131,476
507,9	5088,762
508,4	5044,076
508,8	4999,476
509,3	4951,705
509,7	4917,076
510,2	4880,676
510,6	4829,59
511,1	4788,305
511,5	4758,848
512	4714,505
512,4	4676,848
512,9	4627,562
513,3	4586,248
513,8	4552,333
514,2	4504,162
514,7	4450,762
515,1	4406,305
515,6	4355,876
516	4309,39
516,5	4261,133
516,9	4209,705
517,4	4164,99
517,8	4122,59
518,3	4086,648
518,7	4042,79
519,2	3999,762
519,6	3954,533
520,1	3912,162
520,5	3873,133
521	3823,505
521,4	3774,733
521,9	3731,362
522,3	3687,733
522,8	3644,619
523,2	3609,219
523,7	3563,676
524,1	3523,648
524,6	3484,276
525	3447,219
525,5	3410,762
525,9	3374,19
526,4	3325,905
526,8	3286,019
527,3	3249,419
527,7	3215,819
528,2	3179,19
528,6	3137,133
529,1	3105,219
529,5	3073,962
530	3040,962
530,4	3004,248
530,9	2966,962
531,3	2932,39
531,8	2901,448
532,2	2862,333
532,6	2823,476
533,1	2787,59
533,5	2760,19
534	2722,419
534,4	2687,362
534,9	2660,99
535,3	2625,19
535,8	2600,019
536,2	2574,162
536,7	2545,305
537,1	2516,305
537,6	2489,19
538	2459,962
538,5	2442,648
538,9	2408,048
539,4	2377,933
539,8	2344,648
540,3	2324,905
540,7	2300,276
541,2	2267,99
541,6	2236,39
542,1	2219,133
542,5	2194,99
543	2170,533
543,4	2139,962
543,9	2113,533
544,3	2090,533
544,8	2067,619
545,2	2041,19
545,7	2023,962
546,1	2008,333
546,5	1991,162
547	1971,619
547,4	1954,448
547,9	1934,39
548,3	1916,562
548,8	1892,19
549,2	1868,448
549,7	1847,162
550,1	1830,848
550,6	1810,676
551	1792,162
551,5	1777,59
551,9	1757,105
552,4	1738,962
552,8	1721,962
553,3	1701,705
553,7	1679,933
554,2	1663,019
554,6	1643,905
555,1	1629,162
555,5	1607,133
555,9	1594,448
556,4	1578,39
556,8	1564,19
557,3	1553,048
557,7	1534,076
558,2	1517,848
558,6	1510,819
559,1	1484,99
559,5	1472,276
560	1460,248
560,4	1442,619
560,9	1432,248
561,3	1418,019
561,8	1396,819
562,2	1397,133
562,7	1380,733
563,1	1373,819
563,6	1360,162
564	1346,476
564,4	1335,048
564,9	1327,133
565,3	1309,533
565,8	1298,933
566,2	1283,248
566,7	1274,333
567,1	1266,533
567,6	1254,59
568	1243,39
568,5	1236,305
568,9	1226,676
569,4	1217,305
569,8	1207,448
570,3	1193,162
570,7	1181,248
571,1	1174,105
571,6	1164,448
572	1161,705
572,5	1157,705
572,9	1144,648
573,4	1141,562
573,8	1141,79
574,3	1133,705
574,7	1122,333
575,2	1104,248
575,6	1090,076
576,1	1087,39
576,5	1073,962
576,9	1056,733
577,4	1044,676
577,8	1037,933
578,3	1028,733
578,7	1022,99
579,2	1013,476
579,6	1007,476
580,1	1000,819
580,5	996,162
581	988,448
581,4	982,676
581,9	966,533
582,3	954,19
582,7	946,19
583,2	939,219
583,6	928,248
584,1	921,39
584,5	914,048
585	914,876
585,4	907,533
585,9	900,819
586,3	897,448
586,8	893,505
587,2	881,333
587,6	878,676
588,1	876,676
588,5	872,248
589	864,848
589,4	856,562
589,9	847,648
590,3	843,162
590,8	835,105
591,2	830,305
591,7	832,162
592,1	828,933
592,5	824,162
593	816,333
593,4	811,39
593,9	804,962
594,3	793,533
594,8	782,562
595,2	773,762
595,7	771,39
596,1	772,876
596,6	769,533
597	765,676
597,4	762,99
597,9	759,848
598,3	759,762
598,8	750,248
599,2	746,676
599,7	743,619
600,1	741,248
600,6	735,676
601	733,333
601,4	732,79
601,9	736,562
602,3	729,476
602,8	719,99
603,2	712,448
603,7	706,933
604,1	699,962
604,6	687,448
605	672,762
605,4	670,562
605,9	666,733
606,3	658,048
606,8	653,848
607,2	649,619
607,7	646,533
608,1	647,019
608,6	644,676
609	651,076
609,4	656,819
609,9	655,219
610,3	648,219
610,8	640,733
611,2	633,933
611,7	629,219
612,1	616,933
612,6	609,762
613	604,819
613,4	599,705
613,9	599,705
614,3	597,962
614,8	593,505
615,2	588,648
615,7	587,819
616,1	584,019
616,6	580,648
617	576,076
617,4	574,019
617,9	574,819
618,3	576,79
618,8	570,762
619,2	568,019
619,7	570,876
620,1	567,705
620,5	566,99
621	558,676
621,4	552,248
621,9	547,619
622,3	542,79
622,8	531,733
623,2	532,076
623,6	526,362
624,1	522,562
624,5	516,876
625	520,762
625,4	519,59
625,9	521,962
626,3	518,476
626,8	512,848
627,2	513,619
627,6	506,448
628,1	491,59
628,5	486,905
629	480,162
629,4	475,562
629,9	474,333
630,3	466,019
630,7	468,276
631,2	469,819
631,6	469,162
632,1	467,476
632,5	465,39
633	462,419
633,4	460,648
633,8	457,762
634,3	459,848
634,7	453,476
635,2	449,933
635,6	449,048
636,1	445,619
636,5	439,333
636,9	433,79
637,4	422,19
637,8	418,248
638,3	413,79
638,7	405,048
639,2	401,933
639,6	403,448
640	400,048
640,5	401,933
640,9	397,962
641,4	397,876
641,8	396,076
642,2	394,79
642,7	392,248
643,1	396,933
643,6	394,105
644	394,962
644,5	394,733
644,9	397,276
645,3	395,305
645,8	393,59
646,2	392,419
646,7	390,076
647,1	385,505
647,6	381,99
648	376,305
648,4	371,59
648,9	370,476
649,3	358,448
649,8	359,133
650,2	359,333
650,6	353,133
651,1	350,648
651,5	352,248
652	346,448
652,4	345,876
652,9	342,276
653,3	338,048
653,7	338,133
654,2	336,619
654,6	328,848
655,1	331,533
655,5	338,905
655,9	337,133
656,4	335,219
656,8	331,048
657,3	329,705
657,7	334,905
658,2	331,419
658,6	321,562
659	319,533
659,5	317,705
659,9	319,048
660,4	320,333
660,8	309,648
661,2	304,362
661,7	305,762
662,1	301,105
662,6	302,505
663	301,105
663,4	294,476
663,9	297,076
664,3	293,762
664,8	288,162
665,2	284,619
665,6	278,076
666,1	276,448
666,5	276,762
667	275,562
667,4	273,248
667,9	274,562
668,3	274,533
668,7	274,533
669,2	271,562
669,6	267,762
670,1	267,962
670,5	263,162
670,9	258,99
671,4	257,048
671,8	256,676
672,3	258,19
672,7	258,448
673,1	252,533
673,6	256,876
674	260,905
674,5	261,019
674,9	254,133
675,3	249,79
675,8	250,505
676,2	248,419
676,7	244,162
677,1	238,333
677,5	236,048
678	241,79
678,4	242,533
678,9	235,362
679,3	238,076
679,7	239,819
680,2	237,305
680,6	234,419
681,1	228,419
681,5	226,305
681,9	228,848
682,4	223,305
682,8	220,99
683,3	223,59
683,7	218,848
684,1	220,133
684,6	216,619
685	210,676
685,5	210,276
685,9	203,962
686,3	200,39
686,8	202,562
687,2	198,733
687,7	201,333
688,1	200,048
688,5	198,048
689	201,505
689,4	196,476
689,9	195,619
690,3	192,419
690,7	188,962
691,2	190,39
691,6	190,819
692	188,676
692,5	189,99
692,9	191,39
693,4	192,619
693,8	188,19
694,2	187,476
694,7	183,019
695,1	179,848
695,6	181,705
696	179,848
696,4	179,076
696,9	174,676
697,3	168,39
697,8	169,905
698,2	171,162
698,6	168,648
699,1	165,448
699,5	171,162
699,9	173,705
700,4	173,305
700,8	172,162
701,3	172,19
701,7	169,248
702,1	166,105
702,6	156,048
703	158,362
703,5	158,848
703,9	153,99
704,3	152,59
704,8	150,419
705,2	148,676
705,6	148,762
706,1	147,19
706,5	146,162
707	149,476
707,4	146,162
707,8	144,848
708,3	144,933
708,7	144,162
709,2	140,619
709,6	140,933
710	144,733
710,5	138,819
710,9	139,248
711,3	140,105
711,8	141,476
712,2	143,99
712,7	139,676
713,1	135,448
713,5	141,933
714	141,619
714,4	141,019
714,8	137,819
715,3	131,105
715,7	134,419
716,2	129,676
716,6	126,076
717	123,362
717,5	120,562
717,9	123,648
718,3	125,705
718,8	125,305
719,2	127,39
719,7	126,848
720,1	130,276
720,5	132,533
721	125,733
721,4	125,248
721,8	127,362
722,3	125,705
722,7	127,933
723,2	121,562
723,6	115,419
724	115,99
724,5	112,933
724,9	106,79
725,3	102,99
725,8	101,133
726,2	100,19
726,7	102,333
727,1	101,733
727,5	99,905
728	99,59
728,4	99,39
728,8	96,019
729,3	95,019
729,7	91,419
730,1	91,705
730,6	97,219
731	92,933
731,5	92,733
731,9	89,962
732,3	94,762
732,8	98,562
733,2	97,105
733,6	88,333
734,1	91,333
734,5	90,162
734,9	92,39
735,4	93,419
735,8	87,705
736,3	88,533
736,7	89,676
737,1	89,333
737,6	93,762
738	92,448
738,4	87,476
738,9	88,99
739,3	90,848
739,7	91,162
740,2	88,248
740,6	89,762
741,1	94,505
741,5	90,648
741,9	88,619
742,4	90,733
742,8	94,19
743,2	95,476
743,7	88,19
744,1	81,848
744,5	84,048
745	84,362
745,4	75,733
745,8	73,219
746,3	71,076
746,7	70,99
747,2	71,39
747,6	73,19
748	77,619
748,5	79,848
748,9	77,219
749,3	77,705
749,8	80,505
750,2	81,305
750,6	76,562
751,1	75,162
751,5	76,219
751,9	81,505
752,4	81,048
752,8	79,79
753,3	80,733
753,7	85,248
754,1	80,162
754,6	76,476
755	69,362
755,4	66,19
755,9	63,905
756,3	60,248
756,7	56,762
757,2	60,133
757,6	62,648
758	61,676
758,5	66,448
758,9	67,476
759,3	69,133
759,8	69,762
760,2	66,19
760,6	64,505
761,1	66,162
761,5	62,333
761,9	57,019
762,4	57,562
762,8	55,362
763,3	57,505
763,7	57,848
764,1	59,59
764,6	66,333
765	73,448
765,4	71,39
765,9	72,248
766,3	73,562
766,7	70,019
767,2	63,99
767,6	61,333
768	58,476
768,5	60,362
768,9	60,076
769,3	57,362
769,8	54,705
770,2	61,333
770,6	60,276
771,1	62,933
771,5	62,476
771,9	62,276
772,4	62,705
772,8	67,248
773,2	64,79
773,7	60,048
774,1	55,39
774,5	47,048
775	44,219
775,4	43,676
775,8	43,476
776,3	43,848
776,7	44,733
777,1	46,19
777,6	53,448
778	57,848
778,4	58,676
778,9	55,219
779,3	54,648
779,7	56,762
780,2	52,733
780,6	50,648
781	49,333
781,5	44,133
781,9	50,333
782,3	45,39
782,8	44,905
783,2	47,19
783,6	49,276
784,1	47,219
784,5	47,019
784,9	44,19
785,4	46,533
785,8	47,505
786,2	46,276
786,7	42,848
787,1	43,848
787,5	49,076
788	48,048
788,4	48,476
788,8	44,905
789,3	42,19
789,7	45,248
790,1	42,59
790,6	40,419
791	35,562
791,4	35,848
791,9	34,362
792,3	35,048
792,7	35,648
793,2	32,676
793,6	32,248
794	35,905
794,5	33,876
794,9	36,476
795,3	39,076
795,8	35,105
796,2	36,905
796,6	34,162
797,1	33,505
797,5	31,619
797,9	30,219
798,4	28,762
798,8	29,39
799,2	28,505
799,7	37,419
800,1	37,39
800,5	41,305
801	44,333
801,4	39,533
801,8	38,648
802,2	40,648
802,7	32,19
803,1	29,905
803,5	30,019
804	25,076
804,4	23,933
804,8	24,505
805,3	27,59
805,7	28,133
806,1	29,933
806,6	32,733
807	34,819
807,4	40,705
807,9	37,048
808,3	32,848
808,7	32,448
809,2	30,39
809,6	28,076
810	29,333
810,4	29,076
810,9	30,362
811,3	33,448
811,7	36,733
812,2	41,276
812,6	38,448
813	38,362
813,5	39,362
813,9	41,476
814,3	38,705
814,8	37,648
815,2	32,048
815,6	31,733
816,1	31,019
816,5	29,533
816,9	29,39
817,3	28,79
817,8	31,676
818,2	33,105
818,6	30,019
819,1	30,219
819,5	25,505
819,9	22,419
820,4	23,39
820,8	19,733
821,2	16,362
821,7	23,39
822,1	21,048
822,5	36,962
822,9	38,019
823,4	35,648
823,8	37,476
824,2	40,305
824,7	31,619
825,1	31,762
825,5	13,762
826	10,99
826,4	11,248
826,8	2,219
827,3	5,248
827,7	7,476
828,1	9,476
828,5	16,048
829	15,676
829,4	16,39
829,8	19,105
830,3	16,905
830,7	18,39
831,1	17,533
831,6	19,19
832	22,133
832,4	19,933
832,8	23,962
833,3	23,676
833,7	18,619
834,1	14,933
834,6	12,19
835	11,59
835,4	14,105
835,8	7,133
836,3	6,933
836,7	13,419
837,1	16,019
837,6	18,019
838	17,39
838,4	17,619
838,9	21,276
839,3	19,905
839,7	16,733
840,1	13,562
840,6	9,276
841	13,105
841,4	15,762
841,9	20,419
842,3	21,476
842,7	21,79
843,1	24,762
843,6	28,79
844	26,505
844,4	25,533
844,9	23,876
845,3	24,133
845,7	21,733
846,2	17,848
846,6	14,476
847	15,562
847,4	13,962
847,9	13,962
848,3	13,219
848,7	14,219
849,2	17,448
849,6	13,819
850	16,019
850,4	15,076
850,9	12,705
851,3	8,448
851,7	12,219
852,2	7,362
852,6	15,19
853	12,619
853,4	12,305
853,9	8,733
854,3	9,962
854,7	11,362
855,2	15,076
855,6	9,448
856	7,19
856,4	4,105
856,9	5,705
857,3	9,733
857,7	10,162
858,2	14,162
858,6	16,019
859	17,59
859,4	20,705
859,9	23,648
860,3	19,619
860,7	17,19
861,1	13,219
861,6	10,819
862	9,905
862,4	5,676
862,9	5,362
863,3	8,105
863,7	8,162
864,1	11,19
864,6	11,448
865	11,733
865,4	16,19
865,9	18,762
866,3	17,162
866,7	14,048
867,1	5,905
867,6	7,419
868	2,59
868,4	0,533
868,8	-1,381
869,3	-2,095
869,7	7,419
870,1	8,39
870,6	10,019
871	-43,238
871,4	-37,181
871,8	-40,124
872,3	-37,41
872,7	-43,01
873,1	-44,41
873,5	-47,695
874	9,819
874,4	4,162
874,8	6,533
875,3	7,19
875,7	4,505
876,1	11,733
876,5	12,333
877	10,619
877,4	7,59
877,8	8,733
878,2	11,79
878,7	14,162
879,1	13,79
879,5	17,419
879,9	22,19
880,4	27,105
880,8	26,162
881,2	21,676
881,7	20,39
882,1	19,648
882,5	13,676
882,9	8,762
883,4	4,505
883,8	2,848
884,2	1,99
884,6	-0,667
885,1	-3,724
885,5	-0,124
885,9	1,562
886,3	5,076
886,8	2,362
887,2	0,876
887,6	2,59
888	3,162
888,5	3,276
888,9	-0,895
889,3	-3,895
889,8	-1,01
890,2	1,39
890,6	-2,724
891	-2,352
891,5	-4,21
891,9	0,248
892,3	0,99
892,7	1,648
893,2	3,533
893,6	8,419
894	10,705
894,4	10,305
894,9	6,562
895,3	10,19
895,7	6,019
896,1	0,39
896,6	-1,324
897	-1,552
897,4	4,762
897,8	9,933
898,3	9,162
898,7	10,448
899,1	13,876
899,5	13,733
900	8,876
900,4	6,876
900,8	2,619
901,2	1,362
901,7	1,533
902,1	2,762
902,5	3,19
902,9	7,419
903,4	5,476
903,8	7,905
904,2	4,533
904,6	6,619
905,1	6,305
905,5	6,733
905,9	10,19
906,3	11,819
906,8	14,533
907,2	16,562
907,6	14,648
908	13,648
908,5	9,59
908,9	2,676
909,3	2,419
909,7	-1,41
910,2	-1,981
910,6	1,076
911	-0,438
911,4	4,79
911,9	5,362
912,3	3,562
912,7	7,362
913,1	12,562
913,6	8,39
914	11,676
914,4	11,933
914,8	15,648
915,3	10,476
915,7	6,219
916,1	2,905
916,5	6,305
916,9	1,562
917,4	-1,952
917,8	-2,581
918,2	-0,867
918,6	-2,724
919,1	-5,095
919,5	-3,381
919,9	-2,095
920,3	0,219
920,8	-3,295
921,2	1,448
921,6	1,305
922	0,219
922,5	-2,552
922,9	0,648
923,3	-3,867
923,7	-4,438
924,2	-8,838
924,6	-4,667
925	-1,181
925,4	-3,267
925,8	-6,495
926,3	-4,781
926,7	-2,61
927,1	-0,381
927,5	-3,552
928	-10,552
928,4	-11,638
928,8	-10,895
929,2	-8,438
929,7	-7,924
930,1	-6,867
930,5	-9,524
930,9	-1,695
931,3	0,162
931,8	2,648
932,2	3,533
932,6	0,905
933	-5,81
933,5	-0,381
933,9	1,39
934,3	4,048
934,7	0,533
935,2	-2,238
935,6	1,648
936	7,905
936,4	6,762
936,8	3,676
937,3	-0,667
937,7	-1,981
938,1	0,819
938,5	-5,81
939	-7,61
939,4	-8,581
939,8	-7,781
940,2	-3,667
940,6	2,533
941,1	2,79
941,5	9,276
941,9	10,419
942,3	10,79
942,8	10,79
943,2	7,79
943,6	1,619
944	0,048
944,4	-0,924
944,9	-0,781
945,3	0,533
945,7	-5,01
946,1	-4,895
946,6	-6,467
947	-5,895
947,4	-1,867
947,8	-1,667
948,2	-3,124
948,7	1,162
949,1	1,676
949,5	9,533
949,9	12,133
950,3	10,676
950,8	6,162
951,2	7,133
951,6	6,762
952	11,248
952,5	7,162
952,9	6,448
953,3	5,419
953,7	8,105
954,1	10,819
954,6	8,619
955	6,962
955,4	5,505
955,8	2,276
956,2	-2,095
956,7	-1,152
957,1	-8,095
957,5	-3,467
957,9	-3,324
958,3	-3,352
958,8	-4,267
959,2	3,476
959,6	7,362
960	7,848
960,5	7,933
960,9	9,505
961,3	11,419
961,7	14,733
962,1	8,076
962,6	2,39
963	8,019
963,4	0,362
963,8	-4,324
964,2	-3,781
964,7	-6,41
965,1	-1,638
965,5	1,076
965,9	-1,524
966,3	6,705
966,8	7,79
967,2	9,933
967,6	8,333
968	2,219
968,4	1,533
968,9	-1,267
969,3	1,705
969,7	0,019
970,1	-7,352
970,5	-5,41
971	0,848
971,4	-1,781
971,8	2,619
972,2	0,162
972,6	0,305
973,1	3,876
973,5	6,219
973,9	5,962
974,3	11,333
974,7	12,505
975,2	8,648
975,6	8,59
976	11,79
976,4	7,276
976,8	6,905
977,3	4,476
977,7	1,076
978,1	-0,781
978,5	-1,438
978,9	-6,21
979,4	-4,21
979,8	-8,267
980,2	-8,752
980,6	-8,41
981	-2,352
981,5	-2,667
981,9	-0,238
982,3	3,248
982,7	5,59
983,1	1,333
983,6	2,705
984	-1,267
984,4	1,105
984,8	-0,21
985,2	-3,267
985,6	-5,695
986,1	1,162
986,5	2,019
986,9	-1,095
987,3	0,448
987,7	4,133
988,2	3,162
988,6	3,248
989	0,505
989,4	0,333
989,8	4,362
990,3	1,533
990,7	-2,81
991,1	-1,352
991,5	1,676
991,9	5,705
992,3	1,133
992,8	2,333
993,2	3,648
993,6	5,19
994	10,476
994,4	8,848
994,9	5,79
995,3	6,648
995,7	1,133
996,1	-0,41
996,5	1,476
996,9	-6,524
997,4	-5,638
997,8	-7,981
998,2	-8,352
998,6	-9,295
999	-9,781
999,5	-11,638
999,9	-9,01
1000,3	-11,495
1000,7	-8,41
1001,1	-6,324
1001,5	0,048
1002	6,648
1002,4	8,019
1002,8	7,562
1003,2	13,79
1003,6	12,362
1004	15,105
1004,5	14,048
1004,9	11,79
1005,3	7,562
1005,7	8,733
1006,1	1,333
1006,6	0,876
1007	2,248
1007,4	-0,21
1007,8	-0,438
1008,2	-0,038
1008,6	-1,895
1009,1	0,133
1009,5	-1,438
1009,9	-3,667
1010,3	1,676
1010,7	-1,21
1011,1	0,076
1011,6	-0,181
1012	2,048
1012,4	2,276
1012,8	-3,181
1013,2	-3,295
1013,6	-4,095
1014,1	0,876
1014,5	0,819
1014,9	-0,924
1015,3	-4,267
1015,7	-0,638
1016,1	-6,41
1016,6	-2,467
1017	-6,781
1017,4	-7,438
1017,8	-6,067
1018,2	-0,324
1018,6	-0,238
1019,1	2,619
1019,5	1,676
1019,9	0,905
1020,3	5,362
1020,7	5,019
1021,1	0,876
1021,6	-1,095
1022	2,648
1022,4	1,619
1022,8	4,105
1023,2	2,79
1023,6	5,362
1024,1	12,648
1024,5	15,99
1024,9	10,79
1025,3	9,39
1025,7	10,876
1026,1	10,99
1026,6	6,333
1027	7,562
1027,4	5,39
1027,8	5,99
1028,2	8,133
1028,6	7,733
1029	1,305
1029,5	5,905
1029,9	-0,295
1030,3	-4,781
1030,7	-3,095
1031,1	-3,324
1031,5	-12,981
1032	-6,495
1032,4	-9,01
1032,8	-6,81
1033,2	0,219
1033,6	-3,181
1034	-2,238
1034,4	2,076
1034,9	1,105
1035,3	-0,438
1035,7	0,648
1036,1	-3,667
1036,5	-5,095
1036,9	-4,667
1037,4	3,933
1037,8	1,105
1038,2	2,79
1038,6	-4,495
1039	1,933
1039,4	6,79
1039,8	-0,838
1040,3	-5,895
1040,7	-4,21
1041,1	-6,895
1041,5	-2,181
1041,9	-5,467
1042,3	-6,781
1042,7	2,505
1043,2	1,19
1043,6	2,276
1044	7,419
1044,4	8,19
1044,8	8,648
1045,2	13,39
1045,6	11,819
1046,1	13,762
1046,5	12,676
1046,9	11,448
1047,3	10,876
1047,7	5,733
1048,1	0,219
1048,5	-3,724
1049	0,448
1049,4	2,905
1049,8	-2,524
1050,2	0,448
1050,6	7,59
1051	8,733
1051,4	8,476
1051,9	1,362
1052,3	6,219
1052,7	9,419
1053,1	3,019
1053,5	0,505
1053,9	-4,038
1054,3	-1,981
1054,8	4,619
1055,2	0,248
1055,6	6,133
1056	7,705
1056,4	5,705
1056,8	10,876
1057,2	10,762
1057,6	8,648
1058,1	1,79
1058,5	-8,895
1058,9	-3,124
1059,3	1,276
1059,7	-0,61
1060,1	-0,981
1060,5	-1,952
1061	1,819
1061,4	4,419
1061,8	1,876
1062,2	0,762
1062,6	2,362
1063	5,305
1063,4	4,59
1063,8	6,019
1064,3	0,962
1064,7	-0,467
1065,1	-1,61
1065,5	-5,781
1065,9	-6,838
1066,3	-8,924
1066,7	-9,495
1067,1	-3,867
1067,6	-2,638
1068	-5,352
1068,4	1,562
1068,8	0,39
1069,2	1,933
1069,6	1,876
1070	6,562
1070,4	6,819
1070,9	4,333
1071,3	1,076
1071,7	-0,41
1072,1	-2,01
1072,5	-4,895
1072,9	-10,495
1073,3	-7,01
1073,7	-4,095
1074,2	-0,838
1074,6	-1,267
1075	-4,295
1075,4	-2,152
1075,8	1,562
1076,2	-7,638
1076,6	-4,038
1077	-10,267
1077,5	-6,067
1077,9	-4,695
1078,3	-8,238
1078,7	-8,724
1079,1	-6,152
1079,5	-6,124
1079,9	-3,867
1080,3	-9,181
1080,7	-6,495
1081,2	-0,41
1081,6	-1,41
1082	-3,267
1082,4	-3,638
1082,8	-3,667
1083,2	0,448
1083,6	2,476
1084	-0,238
1084,5	-0,238
1084,9	-3,238
1085,3	-5,838
1085,7	-4,867
1086,1	-5,81
1086,5	-3,381
1086,9	-1,895
1087,3	-3,038
1087,7	4,562
1088,2	6,048
1088,6	7,048
1089	8,19
1089,4	2,219
1089,8	2,448
1090,2	7,133
1090,6	4,99
1091	4,219
1091,4	4,99
1091,9	0,733
1092,3	4,733
1092,7	2,505
1093,1	-0,838
1093,5	1,248
1093,9	0,39
1094,3	0,419
1094,7	3,19
1095,1	3,448
1095,5	8,219
1096	7,59
1096,4	7,133
1096,8	5,79
1097,2	3,162
1097,6	5,476
1098	3,19
1098,4	2,105
1098,8	3,248
1099,2	9,019
1099,6	9,619
1100,1	10,848
1100,5	7,133
1100,9	5,19
1101,3	1,362
1101,7	-0,095
1102,1	-4,495
1102,5	-0,667
1102,9	-0,952
1103,3	2,876
1103,7	6,648
1104,2	8,276
1104,6	10,733
1105	8,99
1105,4	5,733
1105,8	4,733
1106,2	2,133
1106,6	0,276
1107	0,248
1107,4	-1,667
1107,8	-1,867
1108,3	-0,217
