Data from Subt2_237.txt Node
Date: Sat Aug 26 18:55:28 MSK 2023
User: vat
Spectrometer: MAYP114033
Trigger mode: 0
Integration Time (sec): 1,000000E0
Scans to average: 5
Electric dark correction enabled: true
Nonlinearity correction enabled: false
Boxcar width: 3
XAxis mode: Wavelengths
Number of Pixels in Spectrum: 2068
>>>>>Begin Spectral Data<<<<<
199,4	-0,933
199,9	1,307
200,4	1,667
200,8	2,838
201,3	2,352
201,8	5,952
202,2	3,61
202,7	6,838
203,2	5,21
203,6	2,552
204,1	1,981
204,6	1,838
205	1,552
205,5	2,695
206	-0,276
206,4	0,81
206,9	3,838
207,4	4,067
207,8	6,838
208,3	4,238
208,8	7,895
209,2	10,495
209,7	12,581
210,2	11,81
210,6	10,352
211,1	9,467
211,5	6,695
212	2,038
212,5	2,352
212,9	-2,276
213,4	-1,305
213,9	-3,419
214,3	-3,648
214,8	0,724
215,3	1,952
215,7	3,552
216,2	7,324
216,7	10,61
217,1	13,638
217,6	15,752
218,1	16,867
218,5	15,81
219	8,181
219,5	7,467
219,9	0,238
220,4	6,981
220,9	4,41
221,3	0,438
221,8	4,495
222,3	6,981
222,7	5,867
223,2	9,038
223,6	1,067
224,1	2,352
224,6	5,752
225	2,781
225,5	4,924
226	2,952
226,4	2,81
226,9	4,438
227,4	3,952
227,8	-0,333
228,3	-0,476
228,8	-4,733
229,2	-0,962
229,7	-0,362
230,2	0,867
230,6	3,524
231,1	8,752
231,5	11,924
232	16,638
232,5	14,781
232,9	15,324
233,4	15,695
233,9	11,067
234,3	9,695
234,8	8,838
235,3	6,981
235,7	8,81
236,2	5,381
236,7	2,238
237,1	5,238
237,6	1,238
238,1	1,895
238,5	0,895
239	2,438
239,4	5,524
239,9	6,438
240,4	7,695
240,8	14,924
241,3	9,981
241,8	9,524
242,2	8,81
242,7	10,81
243,2	15,81
243,6	9,81
244,1	8,067
244,6	13,752
245	13,467
245,5	8,61
245,9	3,067
246,4	2,867
246,9	7,295
247,3	3,581
247,8	3,981
248,3	8,952
248,7	12,781
249,2	15,552
249,7	9,352
250,1	11,095
250,6	10,21
251	7,81
251,5	5,867
252	6,581
252,4	7,267
252,9	8,724
253,4	4,724
253,8	6,038
254,3	4,61
254,8	3,581
255,2	-1,333
255,7	-1,562
256,1	-2,39
256,6	1,438
257,1	5,467
257,5	2,924
258	-0,619
258,5	2,295
258,9	-0,019
259,4	1,838
259,9	2,752
260,3	-3,59
260,8	-1,79
261,2	2,324
261,7	5,495
262,2	4,438
262,6	2,552
263,1	2,438
263,6	6,667
264	8,581
264,5	12,038
264,9	9,724
265,4	11,924
265,9	12,695
266,3	10,41
266,8	11,695
267,3	11,981
267,7	7,267
268,2	9,838
268,7	9,067
269,1	9,695
269,6	7,295
270	7,867
270,5	2,067
271	3,895
271,4	4,438
271,9	5,495
272,4	8,838
272,8	10,724
273,3	7,781
273,7	13,867
274,2	16,438
274,7	15,352
275,1	16,238
275,6	10,924
276,1	11,21
276,5	17,61
277	15,81
277,4	12,952
277,9	14,038
278,4	15,552
278,8	21,724
279,3	22,095
279,8	18,695
280,2	21,324
280,7	23,81
281,1	22,21
281,6	21,838
282,1	17,038
282,5	15,41
283	14,524
283,4	12,724
283,9	13,724
284,4	16,438
284,8	16,667
285,3	17,867
285,8	19,895
286,2	17,467
286,7	16,438
287,1	9,867
287,6	2,438
288,1	-3,533
288,5	0,467
289	-3,219
289,5	-2,39
289,9	-4,905
290,4	1,781
290,8	4,895
291,3	8,038
291,8	7,038
292,2	9,752
292,7	12,981
293,1	14,381
293,6	10,895
294,1	11,438
294,5	10,524
295	10,61
295,5	7,41
295,9	2,267
296,4	2,867
296,8	1,895
297,3	6,324
297,8	3,467
298,2	-0,933
298,7	4,467
299,1	6,524
299,6	4,667
300,1	12,181
300,5	9,781
301	16,238
301,5	22,181
301,9	19,324
302,4	17,952
302,8	21,295
303,3	13,724
303,8	6,038
304,2	3,41
304,7	-1,248
305,1	-5,276
305,6	-3,162
306,1	0,781
306,5	4,01
307	13,038
307,4	14,781
307,9	14,324
308,4	14,124
308,8	8,952
309,3	5,095
309,8	-0,248
310,2	-1,99
310,7	-5,133
311,1	-3,705
311,6	1,552
312,1	6,924
312,5	9,752
313	10,724
313,4	9,667
313,9	10,838
314,4	7,638
314,8	4,495
315,3	2,01
315,7	-4,276
316,2	-2,333
316,7	-3,448
317,1	1,524
317,6	3,381
318	7,724
318,5	7,952
319	12,752
319,4	15,467
319,9	17,724
320,3	15,495
320,8	15,152
321,3	13,467
321,7	16,581
322,2	15,552
322,6	14,181
323,1	11,867
323,6	11,095
324	11,124
324,5	12,41
324,9	10,524
325,4	9,324
325,9	11,924
326,3	11,067
326,8	13,667
327,2	7,524
327,7	7,181
328,2	6,61
328,6	9,295
329,1	3,181
329,5	4,067
330	-1,876
330,5	8,438
330,9	10,324
331,4	14,21
331,8	10,952
332,3	14,324
332,8	19,524
333,2	20,324
333,7	19,295
334,1	15,324
334,6	7,067
335,1	3,267
335,5	5,667
336	-2,676
336,4	0,81
336,9	2,324
337,4	5,867
337,8	11,095
338,3	14,867
338,7	13,438
339,2	12,067
339,7	10,838
340,1	3,638
340,6	2,667
341	1,61
341,5	3,781
342	1,638
342,4	7,952
342,9	4,41
343,3	3,981
343,8	4,952
344,2	2,695
344,7	5,181
345,2	5,324
345,6	1,61
346,1	4,467
346,5	4,667
347	-1,562
347,5	-1,476
347,9	0,152
348,4	0,352
348,8	2,41
349,3	4,267
349,8	9,552
350,2	16,781
350,7	17,095
351,1	15,324
351,6	20,724
352	23,295
352,5	30,61
353	36,295
353,4	41,552
353,9	51,552
354,3	60,267
354,8	66,267
355,3	82,438
355,7	94,381
356,2	110,524
356,6	129,467
357,1	152,038
357,5	175,838
358	210,181
358,5	236,581
358,9	273,095
359,4	311,181
359,8	353,267
360,3	407,352
360,8	463,867
361,2	527,695
361,7	601,695
362,1	682,552
362,6	768,095
363	858,552
363,5	952,981
364	1059,638
364,4	1162,095
364,9	1266,038
365,3	1365,438
365,8	1464,124
366,3	1552,724
366,7	1634,324
367,2	1706,695
367,6	1761,581
368,1	1807,581
368,5	1835,867
369	1850,781
369,5	1855,124
369,9	1841,238
370,4	1807,81
370,8	1766,667
371,3	1714,467
371,7	1658,038
372,2	1589,495
372,7	1513,124
373,1	1429,81
373,6	1348,124
374	1268,21
374,5	1183,21
374,9	1095,695
375,4	1015,295
375,9	942,552
376,3	875,067
376,8	801,752
377,2	735,124
377,7	674,667
378,2	616,295
378,6	565,21
379,1	515,238
379,5	472,61
380	439,152
380,4	400,467
380,9	366,01
381,4	337,324
381,8	311,81
382,3	289,752
382,7	266,724
383,2	247,295
383,6	233,952
384,1	221,61
384,6	210,81
385	196,467
385,5	182,724
385,9	169,895
386,4	159,867
386,8	148,695
387,3	136,81
387,7	124,81
388,2	117,41
388,7	111,524
389,1	104,438
389,6	95,981
390	91,324
390,5	88,324
390,9	87,067
391,4	83,067
391,9	75,181
392,3	71,81
392,8	64,61
393,2	57,638
393,7	52,21
394,1	47,895
394,6	42,238
395,1	45,552
395,5	41,61
396	42,638
396,4	43,524
396,9	44,667
397,3	44,752
397,8	45,695
398,2	44,61
398,7	45,895
399,2	46,238
399,6	46,752
400,1	40,21
400,5	36,552
401	33,124
401,4	26,952
401,9	28,238
402,4	29,381
402,8	20,552
403,3	27,695
403,7	25,152
404,2	31,095
404,6	36,667
405,1	33,61
405,5	31,352
406	37,667
406,5	32,552
406,9	40,895
407,4	34,01
407,8	33,467
408,3	37,038
408,7	35,61
409,2	38,181
409,6	43,581
410,1	41,524
410,6	48,952
411	52,41
411,5	53,867
411,9	58,895
412,4	59,21
412,8	59,095
413,3	60,695
413,7	58,438
414,2	56,552
414,7	59,467
415,1	67,21
415,6	71,952
416	74,152
416,5	72,695
416,9	79,581
417,4	80,838
417,8	89,781
418,3	82,924
418,8	84,467
419,2	88,581
419,7	99,524
420,1	96,61
420,6	98,952
421	92,781
421,5	99,638
421,9	99,581
422,4	100,038
422,8	97,124
423,3	98,01
423,8	93,781
424,2	92,895
424,7	91,238
425,1	94,924
425,6	95,61
426	90,924
426,5	92,067
426,9	98,095
427,4	96,095
427,9	94,038
428,3	93,638
428,8	90,752
429,2	95,152
429,7	98,752
430,1	99,61
430,6	100,21
431	99,295
431,5	99,724
431,9	99,41
432,4	102,038
432,8	105,267
433,3	108,381
433,8	110,924
434,2	120,295
434,7	123,295
435,1	131,667
435,6	136,01
436	137,41
436,5	143,581
436,9	152,695
437,4	152,895
437,8	161,724
438,3	168,095
438,8	173,638
439,2	178,41
439,7	185,095
440,1	193,152
440,6	208,581
441	208,381
441,5	217,124
441,9	224,352
442,4	235,667
442,8	241,467
443,3	250,01
443,7	258,495
444,2	274,438
444,7	284,067
445,1	297,124
445,6	307,21
446	323,438
446,5	331,095
446,9	333,638
447,4	344,181
447,8	355,695
448,3	368,324
448,7	383,61
449,2	395,581
449,6	417,381
450,1	433,41
450,6	456,61
451	475,752
451,5	494,752
451,9	515,067
452,4	538,467
452,8	552,81
453,3	583,438
453,7	597,067
454,2	618,095
454,6	637,838
455,1	654,381
455,5	668,01
456	696,61
456,4	712,152
456,9	737,952
457,3	763,01
457,8	781,181
458,3	813,724
458,7	837,667
459,2	859,238
459,6	884,581
460,1	911,81
460,5	932,81
461	969,552
461,4	985,981
461,9	1017,181
462,3	1044,352
462,8	1078,467
463,2	1103,895
463,7	1134,124
464,1	1159,895
464,6	1204,724
465	1240,01
465,5	1268,724
466	1301,038
466,4	1335,324
466,9	1369,695
467,3	1404,467
467,8	1429,581
468,2	1456,61
468,7	1493,952
469,1	1526,638
469,6	1557,638
470	1594,924
470,5	1626,781
470,9	1660,581
471,4	1696,695
471,8	1729,781
472,3	1764,324
472,7	1798,095
473,2	1824,095
473,6	1856,438
474,1	1893,838
474,5	1927,495
475	1957,352
475,4	1992,867
475,9	2022,638
476,4	2060,124
476,8	2098,038
477,3	2132,352
477,7	2173,381
478,2	2211,467
478,6	2234,238
479,1	2270,238
479,5	2300,867
480	2324,81
480,4	2353,924
480,9	2375,01
481,3	2403,524
481,8	2434,752
482,2	2459,267
482,7	2492,352
483,1	2523,352
483,6	2543,981
484	2569,324
484,5	2600,752
484,9	2624,667
485,4	2653,124
485,8	2673,152
486,3	2696,981
486,7	2724,21
487,2	2750,924
487,6	2766,895
488,1	2791,324
488,5	2810,038
489	2828,467
489,4	2848,438
489,9	2862,095
490,4	2884,724
490,8	2905,495
491,3	2923,924
491,7	2944,61
492,2	2967,667
492,6	2984,238
493,1	3007,838
493,5	3011,495
494	3016,752
494,4	3033,752
494,9	3046,724
495,3	3066,352
495,8	3076,638
496,2	3087,067
496,7	3099,267
497,1	3118,067
497,6	3125,667
498	3139,638
498,5	3140,895
498,9	3155,067
499,4	3162,352
499,8	3187,695
500,3	3200,067
500,7	3208,867
501,2	3215,524
501,6	3223,152
502,1	3232,21
502,5	3247,552
503	3250,067
503,4	3257,752
503,9	3267,067
504,3	3280,152
504,8	3289,152
505,2	3297,552
505,7	3297,581
506,1	3302,295
506,6	3305,61
507	3318,838
507,5	3323,41
507,9	3326,752
508,4	3330,181
508,8	3338,724
509,3	3341,895
509,7	3350,21
510,2	3352,952
510,6	3357,724
511,1	3371,667
511,5	3377,924
512	3382,952
512,4	3389,667
512,9	3394,41
513,3	3402,638
513,8	3407,467
514,2	3407,924
514,7	3412,695
515,1	3420,524
515,6	3426,152
516	3426,61
516,5	3425,238
516,9	3430,152
517,4	3434,667
517,8	3439,552
518,3	3440,381
518,7	3448,867
519,2	3457,324
519,6	3458,352
520,1	3463,124
520,5	3469,152
521	3472,324
521,4	3475,552
521,9	3476,438
522,3	3480,41
522,8	3486,181
523,2	3492,095
523,7	3496,381
524,1	3503,01
524,6	3510,495
525	3519,267
525,5	3528,667
525,9	3542,352
526,4	3541,324
526,8	3547,781
527,3	3555,552
527,7	3565,695
528,2	3571,238
528,6	3572,324
529,1	3572,838
529,5	3584,838
530	3592,152
530,4	3598,724
530,9	3599,41
531,3	3606,152
531,8	3620,381
532,2	3635,324
532,6	3638,667
533,1	3644,41
533,5	3653,152
534	3662,095
534,4	3672,895
534,9	3678,695
535,3	3680,352
535,8	3690,867
536,2	3700,838
536,7	3713,581
537,1	3723,238
537,6	3721,61
538	3729,181
538,5	3747,038
538,9	3758,41
539,4	3771,038
539,8	3777,61
540,3	3791,895
540,7	3808,267
541,2	3809,781
541,6	3808,81
542,1	3816,124
542,5	3818,124
543	3823,724
543,4	3822,552
543,9	3827,41
544,3	3847,752
544,8	3852,952
545,2	3864,324
545,7	3873,952
546,1	3877,581
546,5	3893,61
547	3904,381
547,4	3906,838
547,9	3921,381
548,3	3927,21
548,8	3936,838
549,2	3945,381
549,7	3955,924
550,1	3967,438
550,6	3977,038
551	3985,952
551,5	3994,381
551,9	4000,438
552,4	4012,981
552,8	4014,524
553,3	4015,01
553,7	4018,438
554,2	4021,752
554,6	4023,21
555,1	4028,81
555,5	4031,638
555,9	4041,752
556,4	4048,981
556,8	4056,267
557,3	4062,924
557,7	4076,381
558,2	4080,981
558,6	4100,21
559,1	4104,781
559,5	4117,524
560	4122,495
560,4	4131,552
560,9	4137,324
561,3	4148,467
561,8	4144,867
562,2	4151,581
562,7	4148,095
563,1	4155,038
563,6	4156,181
564	4161,124
564,4	4165,552
564,9	4167,638
565,3	4171,267
565,8	4180,638
566,2	4184,752
566,7	4189,095
567,1	4186,21
567,6	4189,867
568	4193,467
568,5	4194,752
568,9	4197,067
569,4	4199,238
569,8	4200,238
570,3	4200,724
570,7	4202,267
571,1	4204,838
571,6	4202,324
572	4206,495
572,5	4211,267
572,9	4214,552
573,4	4218,324
573,8	4218,41
574,3	4214,181
574,7	4212,21
575,2	4206,895
575,6	4203,781
576,1	4207,038
576,5	4213,581
576,9	4208,867
577,4	4208,438
577,8	4206,267
578,3	4208,152
578,7	4207,781
579,2	4197,952
579,6	4183,467
580,1	4176,638
580,5	4176,295
581	4179,181
581,4	4172,295
581,9	4162,152
582,3	4161,495
582,7	4165,81
583,2	4166,095
583,6	4161,552
584,1	4154,524
584,5	4144,752
585	4143,324
585,4	4126,61
585,9	4109,895
586,3	4105,095
586,8	4095,952
587,2	4085,638
587,6	4089,152
588,1	4080,61
588,5	4084,152
589	4082,381
589,4	4071,61
589,9	4061,552
590,3	4058,152
590,8	4041,038
591,2	4039,638
591,7	4034,495
592,1	4028,581
592,5	4029,352
593	4031,01
593,4	4022,067
593,9	4018,895
594,3	4006,61
594,8	3993,61
595,2	3991,381
595,7	3981,238
596,1	3970,524
596,6	3970,438
597	3964,067
597,4	3961,352
597,9	3960,438
598,3	3955,124
598,8	3950,924
599,2	3942,838
599,7	3932,267
600,1	3920,952
600,6	3908,381
601	3898,21
601,4	3889,552
601,9	3882,581
602,3	3869,124
602,8	3861,381
603,2	3850,124
603,7	3842,524
604,1	3833,552
604,6	3824,267
605	3806,095
605,4	3801,295
605,9	3784,21
606,3	3775,352
606,8	3759,41
607,2	3747,267
607,7	3726,267
608,1	3716,41
608,6	3704,495
609	3697,295
609,4	3690,067
609,9	3680,267
610,3	3669,01
610,8	3664,295
611,2	3650,038
611,7	3642,61
612,1	3632,524
612,6	3622,838
613	3613,838
613,4	3598,067
613,9	3580,124
614,3	3569,981
614,8	3558,867
615,2	3543,067
615,7	3527,467
616,1	3516,61
616,6	3504,038
617	3492,21
617,4	3479,152
617,9	3463,924
618,3	3451,267
618,8	3442,495
619,2	3425,838
619,7	3419,667
620,1	3405,667
620,5	3392,981
621	3373,495
621,4	3363,81
621,9	3339,01
622,3	3322,495
622,8	3301,381
623,2	3288,61
623,6	3269,267
624,1	3262,838
624,5	3239,495
625	3238,21
625,4	3224,467
625,9	3208,867
626,3	3193,152
626,8	3181,352
627,2	3164,152
627,6	3155,924
628,1	3130,81
628,5	3124,781
629	3109,61
629,4	3098,524
629,9	3081,495
630,3	3065,952
630,7	3051,667
631,2	3036,467
631,6	3018,01
632,1	3000,924
632,5	2986,695
633	2975,695
633,4	2959,181
633,8	2938,438
634,3	2928,695
634,7	2914,067
635,2	2897,095
635,6	2878,724
636,1	2859,667
636,5	2840,01
636,9	2820,61
637,4	2803,981
637,8	2784,038
638,3	2770,724
638,7	2755,41
639,2	2737,667
639,6	2726,467
640	2715,924
640,5	2706,067
640,9	2693,952
641,4	2682,781
641,8	2666,61
642,2	2657,238
642,7	2649,181
643,1	2643,981
643,6	2625,21
644	2613,981
644,5	2604,981
644,9	2594,924
645,3	2580,61
645,8	2562,695
646,2	2545,295
646,7	2532,924
647,1	2511,267
647,6	2494,552
648	2481,61
648,4	2470,724
648,9	2456,41
649,3	2442,467
649,8	2436,038
650,2	2430,895
650,6	2420,895
651,1	2408,152
651,5	2401,21
652	2390,181
652,4	2378,61
652,9	2361,067
653,3	2344,924
653,7	2336,867
654,2	2325,724
654,6	2306,01
655,1	2293,838
655,5	2283,752
655,9	2269,41
656,4	2255,61
656,8	2237,524
657,3	2219,267
657,7	2207,038
658,2	2190,124
658,6	2171,095
659	2155,181
659,5	2137,781
659,9	2119,838
660,4	2108,381
660,8	2095,181
661,2	2083,038
661,7	2071,181
662,1	2058,695
662,6	2052,924
663	2043,581
663,4	2037,295
663,9	2025,352
664,3	2012,038
664,8	2000,067
665,2	1984,952
665,6	1970,695
666,1	1954,467
666,5	1934,781
667	1922,981
667,4	1909,981
667,9	1895,838
668,3	1884,152
668,7	1867,895
669,2	1860,867
669,6	1849,952
670,1	1835,152
670,5	1824,524
670,9	1813,181
671,4	1800,124
671,8	1794,438
672,3	1783,352
672,7	1772,21
673,1	1758,867
673,6	1747,067
674	1737,552
674,5	1728,21
674,9	1713,352
675,3	1701,21
675,8	1691,181
676,2	1684,495
676,7	1670,324
677,1	1659,267
677,5	1650,524
678	1640,724
678,4	1635,41
678,9	1622,095
679,3	1612,181
679,7	1601,238
680,2	1586,638
680,6	1574,895
681,1	1566,067
681,5	1552,495
681,9	1542,01
682,4	1529,838
682,8	1523,524
683,3	1519,238
683,7	1512,495
684,1	1498,067
684,6	1482,781
685	1470,924
685,5	1458,695
685,9	1444,152
686,3	1428,21
686,8	1415,381
687,2	1409,438
687,7	1398,41
688,1	1387,238
688,5	1381,238
689	1376,81
689,4	1371,695
689,9	1363,638
690,3	1349,124
690,7	1346,295
691,2	1345,095
691,6	1333,238
692	1323,952
692,5	1317,867
692,9	1310,867
693,4	1308,124
693,8	1293,867
694,2	1278,238
694,7	1273,124
695,1	1259,695
695,6	1251,61
696	1243,752
696,4	1235,895
696,9	1226,238
697,3	1220,095
697,8	1207,352
698,2	1200,467
698,6	1193,952
699,1	1185,467
699,5	1180,01
699,9	1173,095
700,4	1160,552
700,8	1156,152
701,3	1154,952
701,7	1140,038
702,1	1129,495
702,6	1120,924
703	1118,781
703,5	1113,924
703,9	1101,752
704,3	1092,267
704,8	1084,152
705,2	1077,552
705,6	1069,81
706,1	1061,924
706,5	1051,638
707	1046,495
707,4	1038,295
707,8	1030,152
708,3	1025,438
708,7	1014,981
709,2	1007,581
709,6	1005,01
710	1003,895
710,5	994,467
710,9	988,181
711,3	978,01
711,8	971,81
712,2	967,21
712,7	958,81
713,1	951,267
713,5	946,867
714	943,524
714,4	932,038
714,8	926,41
715,3	915,581
715,7	916,924
716,2	904,438
716,6	898,581
717	890,124
717,5	889,067
717,9	884,01
718,3	874,752
718,8	860,781
719,2	858,581
719,7	850,095
720,1	846,067
720,5	839,324
721	828,267
721,4	822,924
721,8	820,524
722,3	812,267
722,7	812,124
723,2	801,524
723,6	789,038
724	786,067
724,5	779,067
724,9	770,295
725,3	760,152
725,8	745,781
726,2	741,81
726,7	742,895
727,1	732,952
727,5	728,581
728	724,152
728,4	725,352
728,8	723,895
729,3	716,638
729,7	709,981
730,1	705,924
730,6	704,667
731	698,295
731,5	687,667
731,9	680,895
732,3	681,438
732,8	679,61
733,2	680,495
733,6	674,41
734,1	672,41
734,5	671,638
734,9	673,724
735,4	669,067
735,8	660,552
736,3	654,038
736,7	646,924
737,1	643,381
737,6	637,41
738	629,21
738,4	624,267
738,9	622,552
739,3	615,181
739,7	614,838
740,2	608,524
740,6	609,295
741,1	609,552
741,5	602,41
741,9	600,81
742,4	603,724
742,8	600,667
743,2	602,667
743,7	592,438
744,1	583,924
744,5	577,352
745	572,438
745,4	564,895
745,8	560,038
746,3	552,952
746,7	552,267
747,2	551,552
747,6	557,267
748	554,638
748,5	552,467
748,9	545,81
749,3	542,81
749,8	538,324
750,2	531,381
750,6	522,667
751,1	519,295
751,5	516,467
751,9	518,295
752,4	515,724
752,8	514,352
753,3	510,752
753,7	511,552
754,1	504,352
754,6	494,067
755	487,81
755,4	480,324
755,9	473,438
756,3	469,981
756,7	463,21
757,2	464,038
757,6	466,467
758	461,581
758,5	458,552
758,9	457,581
759,3	452,924
759,8	447,467
760,2	440,238
760,6	436,124
761,1	431,838
761,5	433,467
761,9	432,952
762,4	430,267
762,8	430,21
763,3	426,952
763,7	427,01
764,1	429,238
764,6	422,695
765	419,581
765,4	414,81
765,9	412,867
766,3	412,495
766,7	402,267
767,2	394,981
767,6	396,552
768	391,495
768,5	393,895
768,9	390,152
769,3	387,095
769,8	389,324
770,2	390,067
770,6	384,981
771,1	386,752
771,5	382,067
771,9	377,752
772,4	376,552
772,8	375,41
773,2	374,01
773,7	371,495
774,1	365,61
774,5	359,21
775	360,324
775,4	358,238
775,8	351,952
776,3	345,952
776,7	342,41
777,1	338,495
777,6	341,438
778	340,295
778,4	336,895
778,9	335,267
779,3	332,267
779,7	331,324
780,2	330,495
780,6	328,124
781	318,895
781,5	314,01
781,9	311,638
782,3	309,638
782,8	304,81
783,2	304,781
783,6	303,838
784,1	304,838
784,5	300,838
784,9	299,638
785,4	301,067
785,8	302,781
786,2	299,238
786,7	296,01
787,1	296,638
787,5	296,124
788	291,524
788,4	292,867
788,8	288,095
789,3	283,495
789,7	281,981
790,1	275,924
790,6	278,038
791	277,752
791,4	275,267
791,9	272,895
792,3	266,667
792,7	269,181
793,2	267,438
793,6	265,152
794	267,181
794,5	257,467
794,9	258,352
795,3	261,838
795,8	253,467
796,2	254,124
796,6	251,552
797,1	250,638
797,5	248,552
797,9	241,924
798,4	242,352
798,8	237,01
799,2	232,724
799,7	233,524
800,1	228,981
800,5	229,495
801	234,41
801,4	227,581
801,8	229,267
802,2	227,352
802,7	218,267
803,1	213,952
803,5	215,581
804	205,724
804,4	203,695
804,8	203,381
805,3	204,181
805,7	209,952
806,1	205,752
806,6	202,781
807	205,267
807,4	204,095
807,9	200,438
808,3	197,952
808,7	193,695
809,2	196,724
809,6	195,61
810	191,467
810,4	191,238
810,9	190,352
811,3	189,067
811,7	188,724
812,2	190,895
812,6	187,038
813	192,41
813,5	193,924
813,9	192,895
814,3	190,838
814,8	185,524
815,2	178,724
815,6	180,038
816,1	175,295
816,5	172,895
816,9	173,181
817,3	171,638
817,8	177,324
818,2	179,695
818,6	173,895
819,1	167,324
819,5	165,752
819,9	162,21
820,4	162,924
820,8	155,181
821,2	150,638
821,7	153,581
822,1	160,295
822,5	165,267
822,9	166,324
823,4	162,895
823,8	162,752
824,2	161,267
824,7	155,524
825,1	147,352
825,5	136,41
826	131,01
826,4	128,438
826,8	128,895
827,3	128,81
827,7	126,495
828,1	129,41
828,5	133,067
829	131,638
829,4	132,41
829,8	126,152
830,3	122,924
830,7	122,381
831,1	125,267
831,6	122,781
832	126,324
832,4	123,01
832,8	126,352
833,3	128,381
833,7	127,61
834,1	121,638
834,6	121,324
835	120,638
835,4	124,238
835,8	118,352
836,3	114,61
836,7	116,638
837,1	113,581
837,6	115,724
838	113,152
838,4	110,181
838,9	113,638
839,3	115,095
839,7	114,752
840,1	111,952
840,6	109,524
841	108,295
841,4	108,381
841,9	107,352
842,3	104,21
842,7	102,21
843,1	101,467
843,6	99,952
844	100,552
844,4	103,295
844,9	107,781
845,3	105,867
845,7	101,838
846,2	100,524
846,6	96,467
847	95,981
847,4	92,238
847,9	84,61
848,3	86,838
848,7	89,038
849,2	91,695
849,6	90,324
850	92,381
850,4	87,152
850,9	90,267
851,3	87,81
851,7	90,038
852,2	90,981
852,6	93,524
853	92,381
853,4	94,41
853,9	90,467
854,3	93,21
854,7	86,581
855,2	82,724
855,6	84,61
856	78,81
856,4	74,924
856,9	71,067
857,3	68,695
857,7	77,867
858,2	80,867
858,6	73,324
859	72,781
859,4	73,838
859,9	77,352
860,3	73,352
860,7	67,41
861,1	70,324
861,6	72,61
862	74,438
862,4	75,095
862,9	73,552
863,3	78,124
863,7	78,238
864,1	75,21
864,6	74,724
865	73,324
865,4	76,924
865,9	81,324
866,3	75,495
866,7	74,667
867,1	70,524
867,6	70,467
868	67,01
868,4	60,038
868,8	58,495
869,3	59,867
869,7	62,038
870,1	60,41
870,6	56,838
871	68,61
871,4	74,581
871,8	69,638
872,3	71,752
872,7	68,067
873,1	67,267
873,5	68,752
874	57,667
874,4	53,581
874,8	55,038
875,3	54,838
875,7	55,181
876,1	56,695
876,5	58,61
877	56,352
877,4	52,381
877,8	50,01
878,2	49,781
878,7	50,01
879,1	49,895
879,5	50,781
879,9	54,781
880,4	57,581
880,8	59,667
881,2	55,381
881,7	53,552
882,1	53,238
882,5	50,067
882,9	46,524
883,4	46,695
883,8	48,581
884,2	49,438
884,6	50,438
885,1	49,01
885,5	49,467
885,9	51,752
886,3	54,21
886,8	50,267
887,2	51,067
887,6	49,81
888	52,581
888,5	49,495
888,9	47,981
889,3	42,552
889,8	42,552
890,2	42,01
890,6	36,695
891	35,581
891,5	34,895
891,9	34,21
892,3	39,095
892,7	43,238
893,2	42,352
893,6	49,552
894	47,695
894,4	44,41
894,9	44,638
895,3	41,152
895,7	38,695
896,1	39,438
896,6	35,952
897	38,238
897,4	49,438
897,8	48,524
898,3	48,067
898,7	42,21
899,1	41,381
899,5	36,838
900	30,352
900,4	24,038
900,8	23,581
901,2	22,267
901,7	23,581
902,1	26,095
902,5	34,41
902,9	36,752
903,4	39,552
903,8	42,667
904,2	44,295
904,6	47,095
905,1	45,867
905,5	40,81
905,9	44,01
906,3	42,181
906,8	41,495
907,2	40,267
907,6	45,41
908	47,581
908,5	47,524
908,9	42,038
909,3	39,581
909,7	37,924
910,2	38,495
910,6	34,21
911	24,581
911,4	25,524
911,9	26,295
912,3	24,267
912,7	29,238
913,1	29,61
913,6	24,438
914	28,752
914,4	26,495
914,8	29,81
915,3	31,295
915,7	26,038
916,1	27,238
916,5	29,067
916,9	29,895
917,4	31,552
917,8	31,895
918,2	29,381
918,6	26,667
919,1	24,495
919,5	27,781
919,9	25,41
920,3	21,695
920,8	18,838
921,2	22,781
921,6	23,924
922	23,61
922,5	22,552
922,9	26,81
923,3	27,667
923,7	27,495
924,2	25,552
924,6	24,324
925	24,381
925,4	19,095
925,8	14,924
926,3	14,924
926,7	13,695
927,1	14,01
927,5	17,01
928	20,124
928,4	21,495
928,8	25,61
929,2	23,238
929,7	24,295
930,1	26,181
930,5	21,495
930,9	20,352
931,3	21,238
931,8	16,724
932,2	19,524
932,6	22,124
933	15,295
933,5	17,552
933,9	15,324
934,3	18,124
934,7	16,981
935,2	17,21
935,6	14,01
936	21,181
936,4	21,095
936,8	22,781
937,3	15,238
937,7	18,181
938,1	24,238
938,5	24,524
939	20,981
939,4	24,324
939,8	23,638
940,2	29,152
940,6	28,61
941,1	27,152
941,5	30,867
941,9	26,638
942,3	20,667
942,8	17,924
943,2	21,238
943,6	17,895
944	14,781
944,4	12,21
944,9	13,438
945,3	16,381
945,7	16,267
946,1	10,952
946,6	11,838
947	9,267
947,4	12,838
947,8	16,638
948,2	11,724
948,7	14,952
949,1	15,181
949,5	19,038
949,9	22,067
950,3	20,581
950,8	18,895
951,2	23,238
951,6	16,61
952	18,067
952,5	14,038
952,9	11,181
953,3	5,524
953,7	7,438
954,1	9,495
954,6	17,61
955	20,552
955,4	23,295
955,8	28,41
956,2	28,581
956,7	27,21
957,1	21,581
957,5	20,124
957,9	15,381
958,3	14,381
958,8	9,838
959,2	13,267
959,6	16,467
960	17,752
960,5	16,381
960,9	19,667
961,3	16,438
961,7	14,21
962,1	13,381
962,6	13,381
963	14,924
963,4	11,267
963,8	8,41
964,2	9,267
964,7	11,238
965,1	11,61
965,5	10,238
965,9	9,838
966,3	11,867
966,8	13,324
967,2	12,295
967,6	10,867
968	6,324
968,4	3,981
968,9	5,924
969,3	11,095
969,7	7,067
970,1	13,667
970,5	13,295
971	19,467
971,4	18,524
971,8	19,21
972,2	15,552
972,6	16,438
973,1	10,324
973,5	12,695
973,9	14,238
974,3	17,981
974,7	17,781
975,2	18,467
975,6	17,067
976	21,41
976,4	16,752
976,8	12,638
977,3	9,21
977,7	7,695
978,1	4,01
978,5	5,695
978,9	0,867
979,4	3,152
979,8	4,238
980,2	3,352
980,6	1,095
981	6,495
981,5	8,238
981,9	12,381
982,3	13,181
982,7	13,238
983,1	10,724
983,6	12,324
984	11,21
984,4	11,467
984,8	11,495
985,2	14,724
985,6	10,581
986,1	17,095
986,5	15,21
986,9	10,867
987,3	10,41
987,7	8,324
988,2	4,981
988,6	8,01
989	6,781
989,4	6,895
989,8	6,695
990,3	3,724
990,7	3,438
991,1	3,724
991,5	1,038
991,9	2,352
992,3	7,838
992,8	12,067
993,2	11,867
993,6	12,638
994	15,238
994,4	17,638
994,9	17,781
995,3	17,952
995,7	16,41
996,1	16,981
996,5	18,952
996,9	12,41
997,4	13,724
997,8	7,152
998,2	-0,019
998,6	-4,962
999	-3,362
999,5	-6,933
999,9	-4,762
1000,3	-7,076
1000,7	-2,648
1001,1	-2,99
1001,5	2,61
1002	4,267
1002,4	6,038
1002,8	6,61
1003,2	7,181
1003,6	5,438
1004	9,495
1004,5	2,495
1004,9	1,667
1005,3	1,095
1005,7	3,952
1006,1	2,724
1006,6	2,724
1007	4,467
1007,4	10,352
1007,8	9,61
1008,2	8,581
1008,6	10,667
1009,1	10,295
1009,5	10,981
1009,9	7,952
1010,3	6,267
1010,7	6,61
1011,1	8,81
1011,6	4,695
1012	7,067
1012,4	7,181
1012,8	8,352
1013,2	12,924
1013,6	11,867
1014,1	11,61
1014,5	10,895
1014,9	12,324
1015,3	10,067
1015,7	11,924
1016,1	10,61
1016,6	11,41
1017	14,61
1017,4	17,524
1017,8	14,81
1018,2	18,695
1018,6	11,952
1019,1	8,667
1019,5	11,867
1019,9	6,352
1020,3	2,238
1020,7	7,01
1021,1	5,095
1021,6	9,724
1022	13,895
1022,4	15,324
1022,8	17,867
1023,2	20,524
1023,6	19,552
1024,1	28,752
1024,5	31,124
1024,9	25,867
1025,3	21,21
1025,7	20,724
1026,1	20,41
1026,6	16,067
1027	8,41
1027,4	6,924
1027,8	10,495
1028,2	10,981
1028,6	14,581
1029	11,895
1029,5	15,01
1029,9	10,467
1030,3	3,41
1030,7	4,924
1031,1	6,638
1031,5	-0,105
1032	2,181
1032,4	-0,219
1032,8	2,924
1033,2	9,895
1033,6	8,552
1034	6,581
1034,4	7,495
1034,9	10,095
1035,3	8,667
1035,7	13,752
1036,1	11,924
1036,5	7,124
1036,9	7,895
1037,4	13,667
1037,8	10,295
1038,2	10,095
1038,6	4,838
1039	8,724
1039,4	18,895
1039,8	15,295
1040,3	12,41
1040,7	14,781
1041,1	17,724
1041,5	17,238
1041,9	11,981
1042,3	8,124
1042,7	15,181
1043,2	13,581
1043,6	10,095
1044	11,724
1044,4	12,495
1044,8	14,581
1045,2	9,552
1045,6	8,495
1046,1	9,552
1046,5	12,095
1046,9	6,752
1047,3	8,295
1047,7	6,952
1048,1	8,352
1048,5	3,638
1049	7,381
1049,4	12,21
1049,8	10,638
1050,2	15,238
1050,6	17,295
1051	19,552
1051,4	22,01
1051,9	21,61
1052,3	25,095
1052,7	30,838
1053,1	22,752
1053,5	24,981
1053,9	22,924
1054,3	22,01
1054,8	22,41
1055,2	14,667
1055,6	14,552
1056	19,524
1056,4	16,667
1056,8	17,952
1057,2	17,695
1057,6	6,752
1058,1	5,638
1058,5	6,752
1058,9	8,438
1059,3	7,352
1059,7	8,41
1060,1	10,01
1060,5	17,41
1061	20,438
1061,4	20,638
1061,8	20,267
1062,2	21,038
1062,6	18,467
1063	20,267
1063,4	16,295
1063,8	13,752
1064,3	9,895
1064,7	6,01
1065,1	5,181
1065,5	3,867
1065,9	0,267
1066,3	7,524
1066,7	5,095
1067,1	5,267
1067,6	7,752
1068	7,552
1068,4	9,895
1068,8	14,438
1069,2	13,895
1069,6	15,781
1070	18,667
1070,4	15,01
1070,9	15,895
1071,3	16,867
1071,7	10,867
1072,1	7,952
1072,5	7,181
1072,9	3,638
1073,3	9,038
1073,7	7,124
1074,2	7,01
1074,6	9,695
1075	10,067
1075,4	10,352
1075,8	13,552
1076,2	7,695
1076,6	9,267
1077	4,324
1077,5	2,495
1077,9	0,752
1078,3	1,467
1078,7	-0,476
1079,1	1,41
1079,5	1,238
1079,9	1,724
1080,3	5,581
1080,7	3,21
1081,2	6,152
1081,6	4,981
1082	2,01
1082,4	6,838
1082,8	12,724
1083,2	7,467
1083,6	13,638
1084	10,124
1084,5	18,238
1084,9	19,667
1085,3	10,638
1085,7	7,695
1086,1	9,61
1086,5	9,438
1086,9	14,952
1087,3	6,838
1087,7	6,981
1088,2	8,867
1088,6	11,695
1089	15,267
1089,4	13,352
1089,8	11,21
1090,2	10,752
1090,6	10,667
1091	14,238
1091,4	12,695
1091,9	9,038
1092,3	7,924
1092,7	5,267
1093,1	9,352
1093,5	7,638
1093,9	6,667
1094,3	8,667
1094,7	7,267
1095,1	9,295
1095,5	8,781
1096	5,067
1096,4	8,438
1096,8	9,295
1097,2	6,667
1097,6	11,81
1098	9,981
1098,4	13,181
1098,8	14,581
1099,2	23,81
1099,6	22,324
1100,1	18,838
1100,5	13,295
1100,9	12,238
1101,3	12,038
1101,7	12,267
1102,1	4,524
1102,5	7,81
1102,9	10,552
1103,3	13,41
1103,7	15,267
1104,2	12,581
1104,6	13,752
1105	11,667
1105,4	12,21
1105,8	10,381
1106,2	8,952
1106,6	7,324
1107	6,581
1107,4	5,333
1107,8	5,547
1108,3	0,017
