Data from Subt2_169.txt Node
Date: Sat Aug 26 18:35:38 MSK 2023
User: vat
Spectrometer: MAYP114033
Trigger mode: 0
Integration Time (sec): 1,000000E0
Scans to average: 5
Electric dark correction enabled: true
Nonlinearity correction enabled: false
Boxcar width: 3
XAxis mode: Wavelengths
Number of Pixels in Spectrum: 2068
>>>>>Begin Spectral Data<<<<<
199,4	0,167
199,9	0,607
200,4	-3,333
200,8	-1,805
201,3	-5,69
201,8	-2,49
202,2	-4,862
202,7	1,081
203,2	1,31
203,6	4,624
204,1	4,567
204,6	6,91
205	7,91
205,5	9,31
206	5,852
206,4	6,081
206,9	3,595
207,4	3,252
207,8	5,624
208,3	0,052
208,8	0,395
209,2	1,938
209,7	1,538
210,2	4,281
210,6	1,767
211,1	3,824
211,5	2,395
212	3,281
212,5	0,338
212,9	-1,89
213,4	-0,462
213,9	2,081
214,3	2,252
214,8	6,138
215,3	5,795
215,7	5,538
216,2	6,681
216,7	7,738
217,1	6,71
217,6	8,567
218,1	6,91
218,5	4,967
219	0,081
219,5	3,852
219,9	-3,376
220,4	2,595
220,9	-1,919
221,3	0,138
221,8	-1,805
222,3	2,624
222,7	1,167
223,2	3,995
223,6	-3,005
224,1	-4,119
224,6	-6,033
225	-7,205
225,5	-9,776
226	-10,233
226,4	-9,89
226,9	-5,976
227,4	-3,233
227,8	-5,748
228,3	-1,176
228,8	0,852
229,2	0,938
229,7	1,824
230,2	0,51
230,6	-0,033
231,1	7,681
231,5	6,824
232	9,338
232,5	6,452
232,9	10,224
233,4	8,795
233,9	4,024
234,3	0,852
234,8	0,795
235,3	-3,005
235,7	-0,148
236,2	-5,319
236,7	-5,09
237,1	-2,919
237,6	-6,948
238,1	-7,033
238,5	-11,119
239	-11,719
239,4	-9,633
239,9	-7,119
240,4	-2,319
240,8	0,481
241,3	-4,49
241,8	-0,719
242,2	-4,69
242,7	-8,062
243,2	-12,348
243,6	-18,805
244,1	-12,862
244,6	-4,433
245	-4,719
245,5	-1,233
245,9	-1,862
246,4	-0,605
246,9	5,395
247,3	-0,09
247,8	0,767
248,3	5,052
248,7	4,967
249,2	10,31
249,7	8,167
250,1	3,31
250,6	-0,948
251	-3,433
251,5	-6,548
252	-5,233
252,4	-2,748
252,9	-1,833
253,4	-1,09
253,8	-0,776
254,3	0,652
254,8	0,824
255,2	-1,062
255,7	-8,976
256,1	-7,233
256,6	-5,605
257,1	-0,376
257,5	-6,462
258	-7,319
258,5	-7,09
258,9	-6,833
259,4	-7,09
259,9	-4,376
260,3	-8,319
260,8	-6,633
261,2	-2,948
261,7	-4,376
262,2	-2,833
262,6	-5,462
263,1	-4,89
263,6	-2,662
264	1,681
264,5	-0,348
264,9	-1,89
265,4	-0,462
265,9	0,31
266,3	-2,548
266,8	-2,376
267,3	-4,948
267,7	-4,89
268,2	-4,948
268,7	-6,662
269,1	-0,005
269,6	-2,062
270	3,281
270,5	-1,405
271	-2,776
271,4	2,852
271,9	0,824
272,4	-2,89
272,8	-0,976
273,3	-5,576
273,7	-1,805
274,2	-0,433
274,7	-3,262
275,1	1,624
275,6	-0,748
276,1	-3,662
276,5	2,481
277	4,938
277,4	5,024
277,9	8,195
278,4	7,995
278,8	13,224
279,3	17,11
279,8	10,91
280,2	11,538
280,7	11,338
281,1	3,967
281,6	1,395
282,1	-1,719
282,5	-4,49
283	-7,405
283,4	-9,548
283,9	-8,748
284,4	0,195
284,8	2,824
285,3	-1,662
285,8	1,624
286,2	-0,633
286,7	0,424
287,1	-2,748
287,6	-5,948
288,1	-12,205
288,5	-7,633
289	-13,748
289,5	-6,519
289,9	-10,776
290,4	-6,576
290,8	-7,348
291,3	-3,205
291,8	-3,69
292,2	-0,119
292,7	-1,805
293,1	1,138
293,6	3,11
294,1	1,052
294,5	2,967
295	3,938
295,5	1,967
295,9	-1,005
296,4	-1,548
296,8	-4,548
297,3	-1,148
297,8	-6,89
298,2	-12,262
298,7	-9,719
299,1	-7,548
299,6	-10,605
300,1	-9,119
300,5	-9,405
301	0,624
301,5	11,024
301,9	8,681
302,4	4,738
302,8	10,452
303,3	4,852
303,8	3,71
304,2	-3,833
304,7	-10,576
305,1	-16,433
305,6	-11,005
306,1	-9,033
306,5	-4,662
307	-0,033
307,4	4,595
307,9	4,081
308,4	8,91
308,8	3,91
309,3	0,481
309,8	-2,976
310,2	-9,262
310,7	-12,833
311,1	-11,462
311,6	-10,233
312,1	-5,205
312,5	-2,319
313	2,052
313,4	5,567
313,9	7,338
314,4	5,881
314,8	7,281
315,3	4,224
315,7	-0,348
316,2	-4,862
316,7	-7,69
317,1	-0,776
317,6	0,481
318	2,052
318,5	1,338
319	4,51
319,4	7,681
319,9	10,367
320,3	6,938
320,8	4,452
321,3	4,224
321,7	2,567
322,2	0,538
322,6	1,224
323,1	0,367
323,6	-2,09
324	-0,919
324,5	-4,119
324,9	-1,176
325,4	-2,662
325,9	2,252
326,3	1,71
326,8	4,595
327,2	2,281
327,7	3,624
328,2	6,11
328,6	6,51
329,1	-3,719
329,5	-5,433
330	-11,09
330,5	-7,748
330,9	-5,548
331,4	-7,576
331,8	-7,748
332,3	-2,205
332,8	0,938
333,2	4,167
333,7	8,595
334,1	8,652
334,6	7,024
335,1	3,224
335,5	0,252
336	-3,69
336,4	-1,919
336,9	0,567
337,4	4,624
337,8	1,024
338,3	3,538
338,7	4,71
339,2	5,652
339,7	4,881
340,1	-4,433
340,6	-9,319
341	-5,09
341,5	-3,862
342	-5,005
342,4	-4,89
342,9	-8,862
343,3	-8,062
343,8	-9,148
344,2	-8,433
344,7	-2,176
345,2	1,31
345,6	2,081
346,1	2,652
346,5	1,767
347	0,052
347,5	0,624
347,9	-1,49
348,4	-5,033
348,8	-4,433
349,3	1,995
349,8	10,538
350,2	20,452
350,7	18,967
351,1	18,31
351,6	22,881
352	28,767
352,5	27,167
353	29,281
353,4	29,338
353,9	37,995
354,3	44,91
354,8	50,452
355,3	61,538
355,7	73,738
356,2	88,624
356,6	102,938
357,1	120,395
357,5	140,51
358	169,652
358,5	193,91
358,9	225,995
359,4	257,31
359,8	295,51
360,3	339,967
360,8	385,767
361,2	437,51
361,7	497,481
362,1	565,538
362,6	638,538
363	716,138
363,5	795,252
364	887,995
364,4	977,624
364,9	1068,538
365,3	1152,424
365,8	1230,938
366,3	1311,31
366,7	1388,681
367,2	1453,11
367,6	1500,738
368,1	1540,224
368,5	1568,338
369	1584,71
369,5	1588,281
369,9	1571,281
370,4	1543,224
370,8	1512,652
371,3	1463,538
371,7	1410,71
372,2	1353,224
372,7	1280,51
373,1	1213,738
373,6	1140,195
374	1067,91
374,5	997,252
374,9	926,081
375,4	860,71
375,9	799,738
376,3	736,995
376,8	681,881
377,2	626,31
377,7	572,281
378,2	525,995
378,6	475,538
379,1	437,395
379,5	403,052
380	373,795
380,4	341,281
380,9	315,852
381,4	285,452
381,8	267,481
382,3	249,91
382,7	233,738
383,2	212,624
383,6	197,795
384,1	186,281
384,6	179,595
385	166,967
385,5	148,795
385,9	130,652
386,4	123,224
386,8	117,167
387,3	105,967
387,7	99,995
388,2	91,91
388,7	85,538
389,1	83,995
389,6	75,51
390	68,852
390,5	68,424
390,9	62,91
391,4	58,195
391,9	55,967
392,3	55,024
392,8	47,852
393,2	40,481
393,7	37,938
394,1	31,138
394,6	29,052
395,1	28,31
395,5	22,538
396	26,995
396,4	27,338
396,9	25,281
397,3	30,081
397,8	30,481
398,2	31,795
398,7	30,024
399,2	30,71
399,6	33,252
400,1	28,395
400,5	20,367
401	19,995
401,4	13,852
401,9	17,081
402,4	16,91
402,8	14,195
403,3	19,052
403,7	21,995
404,2	24,024
404,6	27,195
405,1	27,11
405,5	21,795
406	20,567
406,5	16,31
406,9	17,91
407,4	13,881
407,8	13,167
408,3	10,852
408,7	11,652
409,2	18,338
409,6	24,738
410,1	25,481
410,6	30,481
411	32,795
411,5	37,51
411,9	43,795
412,4	47,824
412,8	51,224
413,3	56,452
413,7	60,995
414,2	61,71
414,7	66,852
415,1	73,281
415,6	73,967
416	73,795
416,5	73,881
416,9	72,71
417,4	80,138
417,8	87,367
418,3	88,252
418,8	95,138
419,2	101,852
419,7	103,681
420,1	105,595
420,6	107,31
421	100,995
421,5	108,081
421,9	106,538
422,4	102,538
422,8	106,367
423,3	108,452
423,8	109,938
424,2	112,252
424,7	107,738
425,1	109,138
425,6	113,252
426	114,51
426,5	119,11
426,9	121,652
427,4	121,71
427,9	122,11
428,3	127,481
428,8	126,424
429,2	125,138
429,7	125,995
430,1	128,052
430,6	134,795
431	140,395
431,5	143,681
431,9	147,424
432,4	157,252
432,8	164,024
433,3	168,567
433,8	169,652
434,2	176,252
434,7	181,881
435,1	190,595
435,6	196,252
436	203,824
436,5	210,852
436,9	220,624
437,4	224,052
437,8	228,424
438,3	238,567
438,8	245,852
439,2	258,452
439,7	269,881
440,1	281,852
440,6	299,738
441	308,538
441,5	319,538
441,9	335,652
442,4	341,767
442,8	354,11
443,3	370,338
443,7	380,681
444,2	403,938
444,7	419,195
445,1	436,51
445,6	453,852
446	474,538
446,5	490,91
446,9	504,138
447,4	519,938
447,8	544,795
448,3	565,652
448,7	588,995
449,2	608,51
449,6	632,424
450,1	654,51
450,6	678,452
451	701,11
451,5	721,51
451,9	748,567
452,4	777,538
452,8	799,081
453,3	833,224
453,7	856,624
454,2	881,31
454,6	911,652
455,1	933,624
455,5	953,624
456	987,967
456,4	1009,538
456,9	1040,138
457,3	1068,652
457,8	1089,967
458,3	1126,167
458,7	1161,081
459,2	1190,338
459,6	1221,624
460,1	1256,081
460,5	1286,167
461	1326,167
461,4	1353,052
461,9	1381,567
462,3	1413,51
462,8	1451,424
463,2	1483,138
463,7	1518,281
464,1	1552,852
464,6	1591,452
465	1633,681
465,5	1669,91
466	1704,51
466,4	1737,938
466,9	1776,967
467,3	1813,795
467,8	1853,567
468,2	1885,91
468,7	1916,738
469,1	1952,967
469,6	1988,624
470	2016,824
470,5	2041,11
470,9	2065,624
471,4	2093,338
471,8	2128,052
472,3	2157,167
472,7	2184,967
473,2	2214,538
473,6	2246,51
474,1	2276,824
474,5	2312,795
475	2339,624
475,4	2369,281
475,9	2402,967
476,4	2431,852
476,8	2462,11
477,3	2484,795
477,7	2511,595
478,2	2536,252
478,6	2557,281
479,1	2574,138
479,5	2598,452
480	2620,138
480,4	2643,567
480,9	2652,881
481,3	2670,024
481,8	2689,424
482,2	2702,024
482,7	2715,995
483,1	2730,795
483,6	2746,938
484	2766,395
484,5	2779,167
484,9	2791,081
485,4	2809,167
485,8	2817,881
486,3	2824,652
486,7	2832,681
487,2	2831,681
487,6	2841,11
488,1	2842,824
488,5	2843,024
489	2849,738
489,4	2856,252
489,9	2854,281
490,4	2861,395
490,8	2860,252
491,3	2864,795
491,7	2858,738
492,2	2856,767
492,6	2848,795
493,1	2845,281
493,5	2837,052
494	2827,738
494,4	2820,995
494,9	2814,138
495,3	2806,852
495,8	2799,167
496,2	2791,224
496,7	2779,224
497,1	2774,424
497,6	2758,91
498	2754,51
498,5	2741,224
498,9	2726,052
499,4	2713,195
499,8	2713,11
500,3	2699,967
500,7	2687,795
501,2	2675,538
501,6	2657,338
502,1	2645,51
502,5	2634,052
503	2607,967
503,4	2590,71
503,9	2577,11
504,3	2558,767
504,8	2547,938
505,2	2533,224
505,7	2511,567
506,1	2503,595
506,6	2481,281
507	2459,595
507,5	2441,738
507,9	2419,738
508,4	2396,624
508,8	2372,624
509,3	2340,71
509,7	2323,395
510,2	2305,338
510,6	2280,138
511,1	2256,795
511,5	2240,481
512	2220,224
512,4	2205,481
512,9	2182,567
513,3	2159,71
513,8	2140,224
514,2	2118,138
514,7	2092,11
515,1	2071,31
515,6	2048,367
516	2021,795
516,5	1999,624
516,9	1979,995
517,4	1958,938
517,8	1942,395
518,3	1929,481
518,7	1908,081
519,2	1890,481
519,6	1867,452
520,1	1848,595
520,5	1835,024
521	1810,252
521,4	1788,024
521,9	1767,167
522,3	1746,081
522,8	1726,367
523,2	1699,967
523,7	1672,224
524,1	1656,024
524,6	1635,652
525	1616,51
525,5	1597,052
525,9	1581,824
526,4	1561,624
526,8	1542,624
527,3	1520,652
527,7	1503,395
528,2	1489,852
528,6	1470,71
529,1	1448,281
529,5	1437,51
530	1418,681
530,4	1404,881
530,9	1388,51
531,3	1367,738
531,8	1353,567
532,2	1341,51
532,6	1324,595
533,1	1311,881
533,5	1297,024
534	1275,824
534,4	1262,624
534,9	1249,681
535,3	1226,224
535,8	1208,881
536,2	1193,338
536,7	1177,595
537,1	1163,367
537,6	1149,852
538	1135,995
538,5	1132,938
538,9	1116,824
539,4	1110,081
539,8	1098,595
540,3	1090,452
540,7	1075,91
541,2	1059,652
541,6	1046,11
542,1	1038,967
542,5	1023,91
543	1005,938
543,4	992,052
543,9	984,624
544,3	977,652
544,8	962,395
545,2	947,252
545,7	937,795
546,1	932,024
546,5	924,51
547	912,652
547,4	903,91
547,9	893,31
548,3	887,281
548,8	878,595
549,2	865,424
549,7	853,595
550,1	845,481
550,6	836,738
551	833,852
551,5	823,224
551,9	808,052
552,4	802,824
552,8	797,452
553,3	783,567
553,7	772,767
554,2	766,967
554,6	758,824
555,1	759,881
555,5	751,395
555,9	745,595
556,4	740,938
556,8	732,738
557,3	718,538
557,7	715,938
558,2	708,595
558,6	703,338
559,1	690,052
559,5	683,481
560	679,567
560,4	678,11
560,9	672,967
561,3	664,138
561,8	660,195
562,2	657,795
562,7	653,024
563,1	647,681
563,6	637,824
564	628,395
564,4	620,167
564,9	609,938
565,3	603,424
565,8	597,024
566,2	595,71
566,7	594,224
567,1	591,11
567,6	589,395
568	586,567
568,5	582,367
568,9	577,824
569,4	568,281
569,8	565,567
570,3	556,995
570,7	548,681
571,1	543,852
571,6	543,367
572	541,51
572,5	539,824
572,9	532,967
573,4	532,424
573,8	537,195
574,3	533,167
574,7	524,91
575,2	516,452
575,6	511,052
576,1	510,138
576,5	510,452
576,9	497,281
577,4	494,281
577,8	487,738
578,3	488,738
578,7	485,51
579,2	484,652
579,6	472,881
580,1	467,652
580,5	465,338
581	467,995
581,4	459,767
581,9	455,91
582,3	447,452
582,7	452,452
583,2	453,167
583,6	447,71
584,1	443,424
584,5	444,51
585	444,624
585,4	440,681
585,9	429,738
586,3	430,081
586,8	430,681
587,2	424,51
587,6	425,31
588,1	425,024
588,5	420,71
589	423,31
589,4	419,938
589,9	414,595
590,3	412,452
590,8	405,481
591,2	399,424
591,7	401,11
592,1	398,881
592,5	398,481
593	393,767
593,4	393,052
593,9	388,938
594,3	382,224
594,8	379,824
595,2	377,367
595,7	371,167
596,1	370,71
596,6	370,338
597	364,652
597,4	366,881
597,9	363,938
598,3	364,452
598,8	364,424
599,2	359,852
599,7	356,167
600,1	358,452
600,6	355,138
601	352,51
601,4	349,481
601,9	348,881
602,3	349,824
602,8	347,538
603,2	347,081
603,7	339,738
604,1	336,167
604,6	330,224
605	320,052
605,4	319,395
605,9	317,338
606,3	308,195
606,8	309,681
607,2	307,31
607,7	302,738
608,1	306,052
608,6	305,367
609	306,652
609,4	314,452
609,9	316,081
610,3	317,652
610,8	322,252
611,2	321,852
611,7	315,51
612,1	311,31
612,6	306,224
613	304,567
613,4	301,71
613,9	294,652
614,3	290,538
614,8	293,195
615,2	288,31
615,7	288,967
616,1	287,738
616,6	282,51
617	282,452
617,4	284,852
617,9	287,624
618,3	288,767
618,8	286,938
619,2	281,91
619,7	288,595
620,1	286,052
620,5	284,367
621	276,71
621,4	277,224
621,9	274,395
622,3	272,71
622,8	265,195
623,2	264,195
623,6	258,31
624,1	260,395
624,5	257,367
625	259,51
625,4	261,052
625,9	262,995
626,3	266,367
626,8	263,052
627,2	261,424
627,6	254,252
628,1	247,995
628,5	247,767
629	240,338
629,4	235,224
629,9	238,624
630,3	232,081
630,7	234,281
631,2	230,424
631,6	226,338
632,1	228,795
632,5	228,995
633	227,852
633,4	225,824
633,8	226,51
634,3	226,595
634,7	226,938
635,2	225,681
635,6	223,367
636,1	220,252
636,5	217,452
636,9	213,481
637,4	212,024
637,8	207,624
638,3	202,167
638,7	200,538
639,2	199,081
639,6	201,795
640	202,424
640,5	205,281
640,9	206,91
641,4	208,652
641,8	210,252
642,2	209,824
642,7	209,11
643,1	211,367
643,6	210,052
644	205,31
644,5	207,281
644,9	208,252
645,3	208,938
645,8	205,338
646,2	201,938
646,7	199,538
647,1	197,252
647,6	198,51
648	193,567
648,4	187,881
648,9	193,424
649,3	187,51
649,8	186,481
650,2	188,967
650,6	182,31
651,1	177,995
651,5	183,252
652	176,338
652,4	173,795
652,9	174,481
653,3	166,195
653,7	163,738
654,2	166,024
654,6	160,624
655,1	162,91
655,5	171,567
655,9	169,167
656,4	174,767
656,8	178,195
657,3	177,967
657,7	177,395
658,2	177,081
658,6	171,767
659	168,138
659,5	163,11
659,9	159,767
660,4	160,938
660,8	155,338
661,2	151,138
661,7	148,452
662,1	149,224
662,6	150,11
663	149,081
663,4	143,481
663,9	148,738
664,3	148,71
664,8	145,51
665,2	143,167
665,6	144,195
666,1	143,967
666,5	144,567
667	141,395
667,4	139,652
667,9	139,967
668,3	138,51
668,7	136,224
669,2	135,624
669,6	134,224
670,1	136,367
670,5	134,281
670,9	137,167
671,4	137,824
671,8	136,995
672,3	139,681
672,7	136,995
673,1	131,738
673,6	132,081
674	131,424
674,5	127,738
674,9	125,938
675,3	119,767
675,8	121,738
676,2	123,367
676,7	120,367
677,1	116,567
677,5	115,252
678	113,395
678,4	115,995
678,9	113,31
679,3	111,795
679,7	111,167
680,2	105,795
680,6	102,51
681,1	104,681
681,5	105,052
681,9	107,052
682,4	106,281
682,8	107,51
683,3	113,395
683,7	119,852
684,1	121,395
684,6	119,31
685	115,91
685,5	112,652
685,9	110,452
686,3	105,738
686,8	103,195
687,2	101,624
687,7	95,567
688,1	95,624
688,5	99,252
689	101,51
689,4	101,91
689,9	102,538
690,3	99,224
690,7	105,081
691,2	107,71
691,6	110,31
692	106,481
692,5	109,081
692,9	105,738
693,4	101,252
693,8	99,11
694,2	91,424
694,7	85,995
695,1	86,31
695,6	86,31
696	86,195
696,4	90,167
696,9	86,71
697,3	85,081
697,8	84,681
698,2	82,995
698,6	84,567
699,1	84,31
699,5	89,938
699,9	85,938
700,4	88,51
700,8	88,938
701,3	90,652
701,7	83,395
702,1	81,795
702,6	73,967
703	78,081
703,5	75,052
703,9	71,51
704,3	71,824
704,8	73,652
705,2	75,538
705,6	75,91
706,1	75,481
706,5	78,167
707	77,938
707,4	76,824
707,8	73,195
708,3	71,738
708,7	70,938
709,2	69,567
709,6	67,31
710	72,881
710,5	68,738
710,9	72,081
711,3	73,881
711,8	74,995
712,2	71,452
712,7	69,567
713,1	67,938
713,5	73,681
714	74,624
714,4	73,567
714,8	74,538
715,3	74,824
715,7	77,624
716,2	74,567
716,6	73,281
717	68,767
717,5	58,881
717,9	62,081
718,3	64,91
718,8	67,31
719,2	65,081
719,7	61,824
720,1	65,938
720,5	75,252
721	72,138
721,4	70,338
721,8	71,881
722,3	70,252
722,7	72,767
723,2	67,367
723,6	62,538
724	59,938
724,5	57,795
724,9	51,767
725,3	55,824
725,8	51,71
726,2	52,938
726,7	54,395
727,1	52,452
727,5	54,881
728	54,938
728,4	51,767
728,8	54,052
729,3	54,881
729,7	51,852
730,1	54,424
730,6	54,852
731	51,252
731,5	50,767
731,9	49,881
732,3	51,767
732,8	55,167
733,2	53,224
733,6	50,538
734,1	57,252
734,5	58,167
734,9	61,452
735,4	57,338
735,8	50,91
736,3	54,51
736,7	53,967
737,1	50,31
737,6	48,995
738	42,624
738,4	43,681
738,9	48,938
739,3	45,252
739,7	48,595
740,2	49,538
740,6	54,595
741,1	53,91
741,5	49,681
741,9	48,567
742,4	48,824
742,8	45,31
743,2	42,167
743,7	32,195
744,1	29,395
744,5	29,71
745	30,424
745,4	26,91
745,8	28,624
746,3	28,31
746,7	33,51
747,2	37,71
747,6	42,367
748	45,224
748,5	50,738
748,9	46,51
749,3	44,481
749,8	43,71
750,2	44,538
750,6	42,11
751,1	40,595
751,5	37,338
751,9	43,652
752,4	46,51
752,8	46,91
753,3	46,395
753,7	52,938
754,1	46,367
754,6	44,595
755	41,652
755,4	41,624
755,9	38,11
756,3	38,767
756,7	32,367
757,2	37,681
757,6	42,195
758	41,567
758,5	44,51
758,9	49,938
759,3	49,081
759,8	48,138
760,2	50,852
760,6	44,052
761,1	41,452
761,5	38,367
761,9	33,11
762,4	27,624
762,8	27,281
763,3	22,824
763,7	25,852
764,1	27,395
764,6	29,052
765	34,852
765,4	41,395
765,9	43,624
766,3	46,424
766,7	46,367
767,2	46,538
767,6	46,71
768	43,795
768,5	41,024
768,9	36,452
769,3	31,624
769,8	32,481
770,2	33,052
770,6	30,681
771,1	33,852
771,5	35,081
771,9	40,481
772,4	44,167
772,8	38,681
773,2	35,252
773,7	37,938
774,1	32,024
774,5	22,024
775	17,281
775,4	16,167
775,8	20,881
776,3	25,967
776,7	24,91
777,1	24,395
777,6	30,538
778	36,052
778,4	34,595
778,9	36,995
779,3	30,395
779,7	31,024
780,2	33,852
780,6	35,738
781	27,024
781,5	25,738
781,9	20,795
782,3	23,652
782,8	19,91
783,2	18,767
783,6	19,938
784,1	24,281
784,5	21,652
784,9	22,052
785,4	27,367
785,8	28,052
786,2	28,652
786,7	26,081
787,1	22,595
787,5	28,11
788	29,51
788,4	24,31
788,8	21,652
789,3	21,024
789,7	24,852
790,1	25,538
790,6	25,31
791	20,967
791,4	26,452
791,9	27,281
792,3	23,767
792,7	25,281
793,2	27,081
793,6	26,452
794	30,138
794,5	21,338
794,9	26,367
795,3	32,51
795,8	26,595
796,2	29,138
796,6	28,452
797,1	26,024
797,5	24,167
797,9	20,081
798,4	12,652
798,8	13,881
799,2	9,252
799,7	12,11
800,1	13,852
800,5	18,595
801	22,024
801,4	22,91
801,8	22,138
802,2	24,567
802,7	21,11
803,1	20,852
803,5	24,71
804	17,11
804,4	21,11
804,8	21,681
805,3	22,31
805,7	21,51
806,1	19,681
806,6	16,167
807	20,995
807,4	17,395
807,9	16,395
808,3	17,795
808,7	20,538
809,2	24,652
809,6	23,424
810	21,852
810,4	21,395
810,9	21,91
811,3	21,738
811,7	19,967
812,2	20,252
812,6	22,824
813	25,91
813,5	28,595
813,9	29,881
814,3	24,824
814,8	22,195
815,2	17,91
815,6	15,281
816,1	17,567
816,5	15,71
816,9	12,767
817,3	17,395
817,8	22,052
818,2	26,224
818,6	22,081
819,1	17,624
819,5	19,338
819,9	21,91
820,4	18,652
820,8	13,367
821,2	10,138
821,7	14,938
822,1	14,281
822,5	15,224
822,9	12,195
823,4	13,852
823,8	19,224
824,2	19,824
824,7	15,052
825,1	12,395
825,5	8,081
826	7,424
826,4	8,624
826,8	4,052
827,3	3,71
827,7	6,567
828,1	6,195
828,5	9,738
829	6,024
829,4	3,852
829,8	0,081
830,3	0,624
830,7	-0,719
831,1	1,395
831,6	1,538
832	7,71
832,4	7,881
832,8	14,71
833,3	14,595
833,7	14,252
834,1	13,081
834,6	7,767
835	9,195
835,4	9,024
835,8	2,71
836,3	-2,062
836,7	-2,062
837,1	0,167
837,6	5,31
838	-0,09
838,4	3,11
838,9	7,052
839,3	11,252
839,7	18,024
840,1	13,595
840,6	11,138
841	14,652
841,4	12,167
841,9	12,567
842,3	9,795
842,7	3,224
843,1	5,481
843,6	7,938
844	6,852
844,4	4,538
844,9	5,51
845,3	7,367
845,7	9,71
846,2	9,738
846,6	3,795
847	5,024
847,4	6,738
847,9	5,681
848,3	3,738
848,7	4,738
849,2	4,424
849,6	5,738
850	6,795
850,4	7,652
850,9	10,967
851,3	13,71
851,7	10,395
852,2	6,481
852,6	12,195
853	11,967
853,4	11,767
853,9	5,852
854,3	6,795
854,7	8,338
855,2	11,881
855,6	10,424
856	8,681
856,4	4,995
856,9	5,567
857,3	2,51
857,7	2,51
858,2	8,224
858,6	10,195
859	10,452
859,4	13,938
859,9	13,624
860,3	16,338
860,7	17,11
861,1	14,595
861,6	9,252
862	8,252
862,4	7,052
862,9	10,052
863,3	10,51
863,7	7,995
864,1	6,967
864,6	7,995
865	8,167
865,4	11,11
865,9	10,138
866,3	2,967
866,7	0,995
867,1	-2,29
867,6	-0,205
868	-0,805
868,4	-5,69
868,8	-8,033
869,3	-2,062
869,7	3,938
870,1	4,624
870,6	-0,548
871	-56,633
871,4	-52,862
871,8	-53,09
872,3	-54,348
872,7	-53,605
873,1	-51,719
873,5	-48,119
874	5,938
874,4	6,138
874,8	3,881
875,3	7,71
875,7	3,595
876,1	5,024
876,5	7,481
877	9,481
877,4	6,195
877,8	11,11
878,2	12,367
878,7	14,395
879,1	14,167
879,5	14,738
879,9	14,881
880,4	13,738
880,8	12,195
881,2	6,052
881,7	4,938
882,1	5,767
882,5	-2,633
882,9	-2,805
883,4	-4,833
883,8	-0,176
884,2	0,881
884,6	-3,748
885,1	-3,805
885,5	0,567
885,9	3,31
886,3	11,11
886,8	4,71
887,2	0,881
887,6	5,081
888	0,481
888,5	3,91
888,9	-0,719
889,3	-4,405
889,8	-6,719
890,2	-0,719
890,6	-1,633
891	4,481
891,5	1,595
891,9	5,652
892,3	7,024
892,7	14,71
893,2	14,995
893,6	16,538
894	13,795
894,4	11,424
894,9	12,224
895,3	12,395
895,7	8,938
896,1	7,595
896,6	8,252
897	7,367
897,4	12,51
897,8	13,738
898,3	15,738
898,7	13,652
899,1	12,567
899,5	10,338
900	5,624
900,4	2,452
900,8	-1,833
901,2	-7,148
901,7	-4,69
902,1	-4,176
902,5	-2,148
902,9	0,624
903,4	2,595
903,8	2,452
904,2	0,11
904,6	0,31
905,1	-0,233
905,5	-1,348
905,9	3,624
906,3	5,795
906,8	8,824
907,2	14,71
907,6	12,624
908	13,738
908,5	11,167
908,9	5,367
909,3	0,795
909,7	-0,09
910,2	-2,49
910,6	2,652
911	-1,405
911,4	2,624
911,9	1,51
912,3	3,595
912,7	3,595
913,1	2,367
913,6	-2,033
914	3,052
914,4	0,252
914,8	2,995
915,3	1,395
915,7	-0,119
916,1	0,71
916,5	-0,405
916,9	-5,205
917,4	-2,433
917,8	0,31
918,2	-1,29
918,6	-1,576
919,1	-1,833
919,5	0,167
919,9	3,681
920,3	1,652
920,8	-0,919
921,2	1,224
921,6	-0,748
922	1,081
922,5	1,824
922,9	-1,976
923,3	-1,405
923,7	-1,633
924,2	-5,09
924,6	-1,176
925	0,224
925,4	-0,605
925,8	3,424
926,3	0,595
926,7	-2,205
927,1	0,767
927,5	3,252
928	1,481
928,4	0,224
928,8	-0,205
929,2	0,424
929,7	3,081
930,1	2,338
930,5	-1,576
930,9	4,224
931,3	6,224
931,8	4,767
932,2	5,824
932,6	8,052
933	5,567
933,5	6,738
933,9	3,252
934,3	6,481
934,7	4,224
935,2	5,338
935,6	4,995
936	5,738
936,4	6,652
936,8	6,167
937,3	-2,376
937,7	3,595
938,1	6,967
938,5	0,452
939	6,795
939,4	6,967
939,8	5,338
940,2	7,167
940,6	4,795
941,1	4,167
941,5	12,31
941,9	4,881
942,3	3,51
942,8	4,052
943,2	8,424
943,6	7,081
944	2,367
944,4	2,195
944,9	1,51
945,3	-0,405
945,7	-7,89
946,1	-12,605
946,6	-13,633
947	-12,89
947,4	-14,833
947,8	-12,062
948,2	-12,319
948,7	-8,519
949,1	-7,548
949,5	-0,462
949,9	-0,29
950,3	2,281
950,8	1,795
951,2	3,052
951,6	5,681
952	9,424
952,5	-0,576
952,9	2,652
953,3	-1,176
953,7	0,538
954,1	2,91
954,6	3,538
955	4,367
955,4	4,51
955,8	3,252
956,2	4,681
956,7	4,11
957,1	0,51
957,5	1,967
957,9	-4,919
958,3	-2,376
958,8	-2,376
959,2	0,338
959,6	2,795
960	2,281
960,5	4,681
960,9	13,738
961,3	15,538
961,7	11,224
962,1	9,424
962,6	10,681
963	11,224
963,4	5,024
963,8	4,281
964,2	6,995
964,7	10,738
965,1	9,395
965,5	5,91
965,9	5,138
966,3	5,738
966,8	1,91
967,2	-0,948
967,6	-0,89
968	-4,605
968,4	-4,69
968,9	-1,376
969,3	2,938
969,7	-2,49
970,1	-3,119
970,5	-3,948
971	2,967
971,4	4,052
971,8	2,881
972,2	-0,662
972,6	3,052
973,1	4,567
973,5	4,538
973,9	4,224
974,3	2,595
974,7	4,995
975,2	5,91
975,6	3,852
976	4,195
976,4	3,367
976,8	2,967
977,3	3,367
977,7	-1,176
978,1	0,738
978,5	3,31
978,9	-0,233
979,4	2,91
979,8	-0,405
980,2	1,91
980,6	-0,262
981	-0,062
981,5	3,538
981,9	1,395
982,3	0,938
982,7	3,567
983,1	-0,948
983,6	5,11
984	5,11
984,4	3,538
984,8	6,738
985,2	6,481
985,6	1,795
986,1	4,138
986,5	2,881
986,9	-2,233
987,3	0,367
987,7	-0,405
988,2	-3,862
988,6	-0,262
989	-0,919
989,4	-3,805
989,8	-1,576
990,3	-7,805
990,7	-6,605
991,1	-5,748
991,5	-6,805
991,9	-3,205
992,3	0,938
992,8	0,024
993,2	1,852
993,6	1,367
994	8,367
994,4	10,138
994,9	6,681
995,3	4,967
995,7	4,11
996,1	4,595
996,5	-0,319
996,9	-4,348
997,4	-2,09
997,8	-3,69
998,2	-6,49
998,6	-5,519
999	-8,005
999,5	-3,776
999,9	-5,005
1000,3	-7,976
1000,7	-5,262
1001,1	-3,976
1001,5	-3,405
1002	4,452
1002,4	6,995
1002,8	3,252
1003,2	9,538
1003,6	8,538
1004	12,795
1004,5	11,138
1004,9	7,652
1005,3	3,652
1005,7	6,567
1006,1	-0,948
1006,6	-0,633
1007	-1,662
1007,4	-2,576
1007,8	-4,948
1008,2	-8,776
1008,6	-6,805
1009,1	-8,176
1009,5	-8,833
1009,9	-8,89
1010,3	-5,748
1010,7	-3,29
1011,1	-0,005
1011,6	0,252
1012	5,138
1012,4	7,167
1012,8	4,081
1013,2	7,824
1013,6	6,195
1014,1	11,967
1014,5	10,967
1014,9	8,024
1015,3	5,51
1015,7	4,995
1016,1	0,681
1016,6	-0,519
1017	-2,262
1017,4	-4,205
1017,8	-5,062
1018,2	-0,062
1018,6	-2,833
1019,1	-2,462
1019,5	-2,69
1019,9	-7,976
1020,3	-6,205
1020,7	-6,405
1021,1	-14,205
1021,6	-10,405
1022	-7,605
1022,4	-3,348
1022,8	0,795
1023,2	-0,148
1023,6	-0,748
1024,1	6,281
1024,5	6,681
1024,9	1,681
1025,3	2,481
1025,7	2,881
1026,1	3,452
1026,6	7,995
1027	2,052
1027,4	4,338
1027,8	2,595
1028,2	-3,576
1028,6	-1,433
1029	-3,119
1029,5	-2,119
1029,9	-2,548
1030,3	-6,805
1030,7	-4,233
1031,1	-3,776
1031,5	-8,69
1032	-7,833
1032,4	-11,862
1032,8	-5,348
1033,2	-4,633
1033,6	-4,205
1034	-2,233
1034,4	2,081
1034,9	5,738
1035,3	2,938
1035,7	3,11
1036,1	2,938
1036,5	2,824
1036,9	1,31
1037,4	-1,433
1037,8	-11,576
1038,2	-11,148
1038,6	-11,662
1039	-7,805
1039,4	-3,519
1039,8	-7,062
1040,3	-2,405
1040,7	4,824
1041,1	9,395
1041,5	8,967
1041,9	4,224
1042,3	1,167
1042,7	5,71
1043,2	4,024
1043,6	-1,748
1044	-4,148
1044,4	-3,833
1044,8	-5,233
1045,2	-6,548
1045,6	-6,548
1046,1	-10,148
1046,5	-4,576
1046,9	-6,233
1047,3	-7,262
1047,7	-4,776
1048,1	-4,348
1048,5	-3,205
1049	2,167
1049,4	5,452
1049,8	10,138
1050,2	8,481
1050,6	13,995
1051	14,995
1051,4	15,31
1051,9	10,338
1052,3	13,31
1052,7	9,71
1053,1	7,195
1053,5	3,338
1053,9	4,367
1054,3	2,31
1054,8	8,138
1055,2	5,395
1055,6	7,138
1056	12,738
1056,4	14,395
1056,8	11,252
1057,2	12,452
1057,6	4,081
1058,1	1,31
1058,5	-4,176
1058,9	-4,805
1059,3	-6,29
1059,7	-5,633
1060,1	-4,748
1060,5	-0,862
1061	1,252
1061,4	4,595
1061,8	3,852
1062,2	5,567
1062,6	6,167
1063	6,967
1063,4	7,938
1063,8	5,11
1064,3	4,881
1064,7	4,91
1065,1	3,624
1065,5	2,681
1065,9	1,938
1066,3	1,452
1066,7	-0,49
1067,1	-0,405
1067,6	0,538
1068	-3,29
1068,4	-1,005
1068,8	-0,148
1069,2	0,652
1069,6	1,481
1070	7,995
1070,4	4,767
1070,9	3,395
1071,3	0,31
1071,7	-2,005
1072,1	-0,319
1072,5	-0,519
1072,9	-4,719
1073,3	-1,948
1073,7	0,595
1074,2	5,252
1074,6	7,024
1075	4,881
1075,4	5,281
1075,8	5,91
1076,2	3,195
1076,6	6,881
1077	3,424
1077,5	6,338
1077,9	2,652
1078,3	3,224
1078,7	1,481
1079,1	3,252
1079,5	1,852
1079,9	1,167
1080,3	-3,033
1080,7	0,624
1081,2	1,167
1081,6	0,252
1082	-2,662
1082,4	-2,805
1082,8	-0,405
1083,2	1,967
1083,6	3,595
1084	1,91
1084,5	1,138
1084,9	2,824
1085,3	-0,233
1085,7	0,395
1086,1	0,081
1086,5	-0,548
1086,9	1,424
1087,3	2,567
1087,7	2,595
1088,2	5,624
1088,6	2,452
1089	0,71
1089,4	-1,319
1089,8	0,738
1090,2	1,081
1090,6	-0,919
1091	4,624
1091,4	8,738
1091,9	7,138
1092,3	8,11
1092,7	6,081
1093,1	6,31
1093,5	10,424
1093,9	2,995
1094,3	4,395
1094,7	1,738
1095,1	4,452
1095,5	5,367
1096	3,338
1096,4	2,424
1096,8	3,624
1097,2	0,51
1097,6	4,481
1098	4,767
1098,4	4,452
1098,8	9,567
1099,2	15,252
1099,6	13,452
1100,1	9,481
1100,5	6,91
1100,9	3,595
1101,3	3,281
1101,7	-0,462
1102,1	-7,49
1102,5	-6,062
1102,9	-0,49
1103,3	4,795
1103,7	5,424
1104,2	3,338
1104,6	4,481
1105	3,51
1105,4	7,052
1105,8	4,481
1106,2	1,424
1106,6	0,281
1107	1,71
1107,4	1,3
1107,8	3,807
1108,3	-0,433
