Data from Subt2_299.txt Node
Date: Sat Aug 26 19:12:13 MSK 2023
User: vat
Spectrometer: MAYP114033
Trigger mode: 0
Integration Time (sec): 1,000000E0
Scans to average: 5
Electric dark correction enabled: true
Nonlinearity correction enabled: false
Boxcar width: 3
XAxis mode: Wavelengths
Number of Pixels in Spectrum: 2068
>>>>>Begin Spectral Data<<<<<
199,4	-0,767
199,9	-0,407
200,4	1,1
200,8	3,633
201,3	2,148
201,8	6,176
202,2	5,519
202,7	10,462
203,2	10,49
203,6	10,033
204,1	7,29
204,6	7,862
205	5,462
205,5	5,433
206	3,69
206,4	5,005
206,9	4,148
207,4	4,605
207,8	7,662
208,3	7,576
208,8	10,976
209,2	10,376
209,7	11,49
210,2	15,433
210,6	16,233
211,1	14,405
211,5	16,119
212	11,49
212,5	9,948
212,9	8,548
213,4	4,662
213,9	3,948
214,3	5,49
214,8	5,776
215,3	6,833
215,7	10,033
216,2	12,433
216,7	11,662
217,1	11,662
217,6	14,662
218,1	10,205
218,5	12,548
219	5,405
219,5	4,49
219,9	2,519
220,4	8,49
220,9	3,062
221,3	5,605
221,8	7,948
222,3	13,548
222,7	14,805
223,2	15,948
223,6	11,319
224,1	11,719
224,6	12,976
225	8,776
225,5	6,262
226	4,976
226,4	7,633
226,9	6,976
227,4	12,405
227,8	6,919
228,3	8,576
228,8	9,405
229,2	9,205
229,7	11,919
230,2	13,348
230,6	14,262
231,1	21,462
231,5	21,462
232	26,262
232,5	22,519
232,9	23,033
233,4	23,148
233,9	19,262
234,3	16,89
234,8	15,319
235,3	10,748
235,7	15,09
236,2	14,919
236,7	13,033
237,1	13,29
237,6	9,605
238,1	9,29
238,5	3,319
239	-0,395
239,4	3,433
239,9	3,319
240,4	0,805
240,8	9,548
241,3	7,376
241,8	11,348
242,2	9,519
242,7	1,633
243,2	-0,052
243,6	0,433
244,1	-2,795
244,6	1,09
245	2,548
245,5	10,548
245,9	8,89
246,4	10,633
246,9	15,719
247,3	16,005
247,8	15,976
248,3	17,633
248,7	15,119
249,2	19,805
249,7	20,633
250,1	19,233
250,6	17,176
251	20,719
251,5	16,748
252	17,462
252,4	16,633
252,9	14,233
253,4	9,976
253,8	9,519
254,3	5,319
254,8	11,633
255,2	7,748
255,7	7,89
256,1	10,148
256,6	13,262
257,1	13,89
257,5	9,119
258	6,119
258,5	6,462
258,9	4,948
259,4	2,405
259,9	1,576
260,3	-2,738
260,8	0,805
261,2	1,319
261,7	3,719
262,2	-0,481
262,6	-0,338
263,1	2,405
263,6	6,776
264	13,119
264,5	14,833
264,9	14,319
265,4	19,262
265,9	18,576
266,3	15,919
266,8	17,233
267,3	11,405
267,7	7,805
268,2	7,262
268,7	7,09
269,1	8,833
269,6	8,69
270	10,462
270,5	6,862
271	6,833
271,4	6,49
271,9	1,776
272,4	4,519
272,8	4,69
273,3	1,719
273,7	8,519
274,2	8,833
274,7	6,005
275,1	11,119
275,6	9,548
276,1	9,89
276,5	9,405
277	8,09
277,4	7,776
277,9	11,89
278,4	10,376
278,8	12,148
279,3	14,005
279,8	13,748
280,2	14,148
280,7	17,29
281,1	14,89
281,6	13,576
282,1	13,719
282,5	10,833
283	10,09
283,4	10,462
283,9	11,148
284,4	15,519
284,8	20,233
285,3	13,976
285,8	15,519
286,2	17,205
286,7	14,49
287,1	8,89
287,6	6,148
288,1	1,319
288,5	8,748
289	7,49
289,5	8,09
289,9	8,433
290,4	11,948
290,8	12,376
291,3	15,519
291,8	15,348
292,2	12,776
292,7	14,833
293,1	14,805
293,6	17,119
294,1	16,919
294,5	14,948
295	12,833
295,5	13,433
295,9	10,205
296,4	11,49
296,8	9,348
297,3	9,033
297,8	4,09
298,2	2,662
298,7	7,548
299,1	8,29
299,6	5,005
300,1	6,89
300,5	7,948
301	12,176
301,5	14,976
301,9	12,833
302,4	14,262
302,8	16,748
303,3	14,719
303,8	11,662
304,2	11,176
304,7	10,662
305,1	8,948
305,6	6,062
306,1	13,976
306,5	14,976
307	19,719
307,4	23,462
307,9	19,662
308,4	18,89
308,8	14,548
309,3	5,319
309,8	3,805
310,2	4,948
310,7	2,376
311,1	7,09
311,6	9,605
312,1	15,433
312,5	21,176
313	21,69
313,4	16,005
313,9	16,09
314,4	12,119
314,8	10,233
315,3	8,519
315,7	1,49
316,2	-3,224
316,7	-1,481
317,1	4,148
317,6	5,462
318	6,633
318,5	7,719
319	7,948
319,4	14,29
319,9	20,69
320,3	17,376
320,8	13,49
321,3	15,948
321,7	14,519
322,2	15,176
322,6	17,262
323,1	11,633
323,6	7,719
324	14,09
324,5	9,605
324,9	10,89
325,4	7,576
325,9	8,205
326,3	9,262
326,8	16,833
327,2	14,519
327,7	15,233
328,2	12,348
328,6	19,005
329,1	10,833
329,5	12,605
330	6,576
330,5	7,119
330,9	8,062
331,4	12,833
331,8	8,748
332,3	11,576
332,8	8,862
333,2	10,09
333,7	10,29
334,1	15,176
334,6	10,205
335,1	10,576
335,5	12,49
336	9,805
336,4	14,033
336,9	20,748
337,4	17,719
337,8	18,205
338,3	19,319
338,7	18,948
339,2	20,062
339,7	18,062
340,1	9,376
340,6	5,748
341	6,69
341,5	6,148
342	4,148
342,4	4,748
342,9	1,319
343,3	4,062
343,8	6,69
344,2	6,233
344,7	11,919
345,2	15,062
345,6	15,005
346,1	17,976
346,5	13,376
347	11,29
347,5	12,262
347,9	16,748
348,4	15,033
348,8	14,919
349,3	11,205
349,8	17,405
350,2	26,633
350,7	23,919
351,1	20,062
351,6	23,748
352	24,776
352,5	34,319
353	39,633
353,4	38,805
353,9	52,376
354,3	61,376
354,8	69,976
355,3	87,462
355,7	103,033
356,2	118,376
356,6	142,062
357,1	164,148
357,5	188,576
358	223,776
358,5	255,919
358,9	295,862
359,4	344,519
359,8	389,09
360,3	448,862
360,8	507,148
361,2	570,376
361,7	647,862
362,1	734,348
362,6	822,09
363	923,89
363,5	1022,519
364	1141,376
364,4	1258,748
364,9	1375,376
365,3	1480,433
365,8	1585,633
366,3	1680,976
366,7	1775,719
367,2	1850,548
367,6	1906,89
368,1	1957,633
368,5	1990,748
369	2008,805
369,5	2013,919
369,9	1998,205
370,4	1969,49
370,8	1931,776
371,3	1871,519
371,7	1807,233
372,2	1731,605
372,7	1650,662
373,1	1561,176
373,6	1471,462
374	1377,605
374,5	1289,69
374,9	1200,69
375,4	1115,376
375,9	1034,462
376,3	959,948
376,8	881,062
377,2	819,319
377,7	746,719
378,2	687,576
378,6	633,09
379,1	578,662
379,5	533,69
380	495,605
380,4	453,919
380,9	423,319
381,4	388,376
381,8	358,062
382,3	337,548
382,7	313,748
383,2	293,262
383,6	272,576
384,1	255,805
384,6	244,09
385	225,319
385,5	205,205
385,9	187,262
386,4	175,49
386,8	166,605
387,3	155,805
387,7	145,748
388,2	142,948
388,7	132,948
389,1	125,862
389,6	118,576
390	109,976
390,5	102,948
390,9	96,433
391,4	92,69
391,9	90,348
392,3	90,462
392,8	82,548
393,2	77,348
393,7	76,119
394,1	66,548
394,6	59,633
395,1	62,805
395,5	55,976
396	55,748
396,4	56,833
396,9	56,319
397,3	64,662
397,8	65,376
398,2	64,148
398,7	66,405
399,2	63,319
399,6	62,776
400,1	54,919
400,5	45,348
401	43,519
401,4	33,005
401,9	36,548
402,4	39,462
402,8	32,862
403,3	42,033
403,7	43,776
404,2	46,633
404,6	55,262
405,1	48,462
405,5	42,633
406	46,805
406,5	39,748
406,9	42,233
407,4	41,005
407,8	37,033
408,3	40,833
408,7	43,348
409,2	46,205
409,6	51,233
410,1	51,976
410,6	55,776
411	59,633
411,5	57,633
411,9	62,29
412,4	63,976
412,8	64,433
413,3	65,69
413,7	61,262
414,2	61,89
414,7	70,519
415,1	74,148
415,6	74,005
416	75,233
416,5	79,319
416,9	82,862
417,4	83,776
417,8	90,519
418,3	93,233
418,8	98,205
419,2	101,348
419,7	102,119
420,1	105,319
420,6	108,062
421	98,748
421,5	100,033
421,9	100,805
422,4	103,348
422,8	103,176
423,3	106,062
423,8	103,033
424,2	103,148
424,7	102,262
425,1	98,49
425,6	101,262
426	99,69
426,5	100,919
426,9	106,062
427,4	105,233
427,9	98,833
428,3	103,548
428,8	100,49
429,2	100,776
429,7	95,29
430,1	97,176
430,6	99,833
431	105,805
431,5	107,433
431,9	101,148
432,4	105,405
432,8	110,919
433,3	113,519
433,8	111,919
434,2	111,69
434,7	110,205
435,1	117,548
435,6	121,062
436	122,433
436,5	123,89
436,9	125,69
437,4	129,776
437,8	134,662
438,3	141,29
438,8	142,69
439,2	145,376
439,7	150,005
440,1	160,662
440,6	171,433
441	173,262
441,5	179,462
441,9	189,205
442,4	192,319
442,8	193,862
443,3	202,576
443,7	208,919
444,2	220,148
444,7	227,319
445,1	237,69
445,6	248,948
446	262,033
446,5	265,433
446,9	266,976
447,4	278,862
447,8	291,176
448,3	296,976
448,7	312,662
449,2	325,348
449,6	344,09
450,1	356,948
450,6	370,405
451	379,833
451,5	394,805
451,9	408,062
452,4	425,862
452,8	437,748
453,3	462,376
453,7	473,805
454,2	493,205
454,6	510,462
455,1	528,09
455,5	541,29
456	565,062
456,4	578,29
456,9	597,948
457,3	612,805
457,8	624,519
458,3	644,862
458,7	665,49
459,2	680,49
459,6	702,862
460,1	730,348
460,5	749,662
461	783,205
461,4	801,062
461,9	820,605
462,3	840,833
462,8	862,919
463,2	879,776
463,7	907,605
464,1	928,919
464,6	958,062
465	986,119
465,5	1018,005
466	1042,89
466,4	1068,519
466,9	1103,348
467,3	1131,119
467,8	1156,919
468,2	1185,433
468,7	1205,919
469,1	1238,462
469,6	1268,205
470	1290,976
470,5	1316,462
470,9	1346,49
471,4	1370,719
471,8	1403,462
472,3	1433,633
472,7	1461,805
473,2	1486,29
473,6	1514,005
474,1	1542,948
474,5	1576,29
475	1606,033
475,4	1630,605
475,9	1659,062
476,4	1686,919
476,8	1720,148
477,3	1748,662
477,7	1773,805
478,2	1798,033
478,6	1820,89
479,1	1846,062
479,5	1873,233
480	1896,548
480,4	1920,519
480,9	1941,633
481,3	1962,405
481,8	1986,262
482,2	2002,119
482,7	2025,29
483,1	2046,833
483,6	2068,69
484	2093,69
484,5	2121,948
484,9	2138,005
485,4	2169,576
485,8	2191,833
486,3	2207,748
486,7	2218,633
487,2	2234,233
487,6	2247,405
488,1	2270,976
488,5	2280,405
489	2294,09
489,4	2309,548
489,9	2323,776
490,4	2339,062
490,8	2354,89
491,3	2367,548
491,7	2382,49
492,2	2391,319
492,6	2404,376
493,1	2418,319
493,5	2425,919
494	2428,805
494,4	2432,69
494,9	2434,976
495,3	2445,405
495,8	2449,29
496,2	2453,776
496,7	2454,605
497,1	2462,805
497,6	2470,433
498	2481,69
498,5	2484,148
498,9	2483,462
499,4	2488,29
499,8	2499,519
500,3	2506,576
500,7	2505,833
501,2	2502,148
501,6	2502,29
502,1	2508,576
502,5	2509,89
503	2509,69
503,4	2502,89
503,9	2503,633
504,3	2507,662
504,8	2512,519
505,2	2513,548
505,7	2518,205
506,1	2518,233
506,6	2517,662
507	2519,633
507,5	2521,348
507,9	2516,148
508,4	2515,719
508,8	2516,09
509,3	2515,09
509,7	2519,976
510,2	2522,519
510,6	2517,176
511,1	2520,462
511,5	2519,89
512	2513,776
512,4	2516,233
512,9	2510,748
513,3	2510,519
513,8	2514,033
514,2	2512,719
514,7	2512,405
515,1	2514,719
515,6	2505,862
516	2500,948
516,5	2500,176
516,9	2498,69
517,4	2498,662
517,8	2494,519
518,3	2487,119
518,7	2486,89
519,2	2492,862
519,6	2489,89
520,1	2488,633
520,5	2482,89
521	2473,262
521,4	2479,719
521,9	2481,09
522,3	2478,29
522,8	2469,49
523,2	2466,919
523,7	2463,233
524,1	2472,633
524,6	2467,09
525	2466,719
525,5	2466,462
525,9	2476,462
526,4	2469,233
526,8	2473,548
527,3	2473,262
527,7	2471,49
528,2	2473,948
528,6	2476,348
529,1	2478,29
529,5	2486,176
530	2486,005
530,4	2487,462
530,9	2493,748
531,3	2488,805
531,8	2493,09
532,2	2492,176
532,6	2490,833
533,1	2489,833
533,5	2488,348
534	2486,148
534,4	2490,005
534,9	2487,462
535,3	2482,805
535,8	2483,29
536,2	2490,148
536,7	2496,205
537,1	2500,033
537,6	2503,205
538	2507,09
538,5	2515,948
538,9	2517,862
539,4	2516,633
539,8	2516,805
540,3	2516,948
540,7	2520,119
541,2	2518,205
541,6	2520,09
542,1	2531,462
542,5	2537,919
543	2542,433
543,4	2540,433
543,9	2547,548
544,3	2552,148
544,8	2550,833
545,2	2549,405
545,7	2550,205
546,1	2551,69
546,5	2558,633
547	2558,69
547,4	2558,405
547,9	2560,833
548,3	2564,176
548,8	2570,148
549,2	2572,233
549,7	2580,405
550,1	2584,233
550,6	2587,605
551	2591,89
551,5	2592,148
551,9	2590,148
552,4	2596,519
552,8	2598,833
553,3	2598,576
553,7	2604,148
554,2	2612,69
554,6	2619,69
555,1	2629,262
555,5	2626,548
555,9	2630,919
556,4	2633,662
556,8	2635,519
557,3	2634,805
557,7	2634,748
558,2	2630,29
558,6	2639,548
559,1	2637,49
559,5	2645,605
560	2649,548
560,4	2647,976
560,9	2652,148
561,3	2655,262
561,8	2654,833
562,2	2658,633
562,7	2655,176
563,1	2666,176
563,6	2668,662
564	2669,233
564,4	2670,519
564,9	2673,862
565,3	2670,605
565,8	2671,833
566,2	2662,148
566,7	2666,69
567,1	2668,005
567,6	2669,319
568	2663,462
568,5	2665,862
568,9	2666,319
569,4	2669,405
569,8	2667,976
570,3	2665,633
570,7	2662,376
571,1	2666,833
571,6	2672,519
572	2681,319
572,5	2680,29
572,9	2677,062
573,4	2680,805
573,8	2683,976
574,3	2679,376
574,7	2674,376
575,2	2664,69
575,6	2665,262
576,1	2665,519
576,5	2666,605
576,9	2659,376
577,4	2659,948
577,8	2655,119
578,3	2653,49
578,7	2648,176
579,2	2650,719
579,6	2645,433
580,1	2646,205
580,5	2649,605
581	2648,576
581,4	2648,119
581,9	2642,805
582,3	2636,576
582,7	2628,548
583,2	2626,976
583,6	2623,719
584,1	2622,319
584,5	2613,119
585	2612,633
585,4	2606,09
585,9	2606,433
586,3	2604,862
586,8	2599,719
587,2	2597,005
587,6	2603,376
588,1	2605,976
588,5	2601,833
589	2598,548
589,4	2592,805
589,9	2586,89
590,3	2581,233
590,8	2570,519
591,2	2560,576
591,7	2564,69
592,1	2559,376
592,5	2558,719
593	2556,605
593,4	2550,833
593,9	2545,176
594,3	2541,49
594,8	2529,433
595,2	2522,062
595,7	2519,633
596,1	2514,49
596,6	2509,29
597	2504,49
597,4	2499,062
597,9	2502,405
598,3	2508,662
598,8	2501,119
599,2	2494,005
599,7	2493,548
600,1	2492,29
600,6	2485,89
601	2477,09
601,4	2470,233
601,9	2470,519
602,3	2462,405
602,8	2456,833
603,2	2446,662
603,7	2446,405
604,1	2437,348
604,6	2429,062
605	2415,748
605,4	2413,062
605,9	2404,662
606,3	2396,719
606,8	2385,062
607,2	2376,862
607,7	2363,49
608,1	2356,576
608,6	2351,119
609	2351,462
609,4	2351,29
609,9	2346,09
610,3	2344,89
610,8	2342,633
611,2	2335,233
611,7	2327,148
612,1	2316,548
612,6	2310,348
613	2304,033
613,4	2292,49
613,9	2283,148
614,3	2275,462
614,8	2268,748
615,2	2256,462
615,7	2243,776
616,1	2234,119
616,6	2220,462
617	2212,462
617,4	2210,176
617,9	2202,462
618,3	2200,376
618,8	2200,862
619,2	2192,633
619,7	2196,748
620,1	2189,633
620,5	2181,119
621	2170,233
621,4	2159,49
621,9	2141,748
622,3	2136,033
622,8	2117,89
623,2	2109,119
623,6	2092,605
624,1	2086,605
624,5	2080,005
625	2081,176
625,4	2070,776
625,9	2069,49
626,3	2057,233
626,8	2053,348
627,2	2048,633
627,6	2031,148
628,1	2012,69
628,5	2005,405
629	1992,576
629,4	1985,148
629,9	1979,605
630,3	1967,29
630,7	1961,233
631,2	1957,062
631,6	1948,376
632,1	1941,262
632,5	1932,376
633	1917,205
633,4	1901,833
633,8	1895,976
634,3	1881,605
634,7	1872,69
635,2	1859,633
635,6	1848,09
636,1	1843,805
636,5	1830,462
636,9	1813,89
637,4	1807,89
637,8	1792,776
638,3	1784,862
638,7	1778,805
639,2	1766,348
639,6	1761,576
640	1757,319
640,5	1747,119
640,9	1745,433
641,4	1741,262
641,8	1736,433
642,2	1729,319
642,7	1726,262
643,1	1721,519
643,6	1714,605
644	1703,348
644,5	1698,319
644,9	1685,748
645,3	1678,119
645,8	1666,29
646,2	1659,348
646,7	1650,348
647,1	1641,033
647,6	1632,176
648	1627,719
648,4	1613,548
648,9	1611,462
649,3	1598,919
649,8	1591,348
650,2	1585,805
650,6	1575,576
651,1	1565,433
651,5	1567,633
652	1558,976
652,4	1553,119
652,9	1549,405
653,3	1539,49
653,7	1536,062
654,2	1526,976
654,6	1517,919
655,1	1506,576
655,5	1503,062
655,9	1490,576
656,4	1489,519
656,8	1475,462
657,3	1471,233
657,7	1458,348
658,2	1450,548
658,6	1439,776
659	1435,49
659,5	1421,062
659,9	1412,719
660,4	1407,576
660,8	1399,833
661,2	1394,405
661,7	1383,376
662,1	1373,548
662,6	1365,605
663	1360,233
663,4	1350,376
663,9	1344,976
664,3	1331,29
664,8	1318,548
665,2	1304,548
665,6	1299,805
666,1	1293,605
666,5	1283,862
667	1276,748
667,4	1268,119
667,9	1261,09
668,3	1259,09
668,7	1246,119
669,2	1235,69
669,6	1229,576
670,1	1222,833
670,5	1221,462
670,9	1220,233
671,4	1209,69
671,8	1211,776
672,3	1206,348
672,7	1198,148
673,1	1185,919
673,6	1179,833
674	1176,119
674,5	1172,605
674,9	1154,805
675,3	1142,462
675,8	1137,976
676,2	1129,376
676,7	1118,062
677,1	1106,805
677,5	1098,033
678	1096,976
678,4	1096,833
678,9	1087,862
679,3	1087,405
679,7	1081,005
680,2	1070,576
680,6	1065,433
681,1	1058,433
681,5	1045,576
681,9	1040,748
682,4	1035,748
682,8	1034,919
683,3	1036,176
683,7	1030,948
684,1	1022,148
684,6	1018,662
685	1008,833
685,5	997,862
685,9	983,719
686,3	973,89
686,8	968,148
687,2	966,148
687,7	958,062
688,1	948,233
688,5	940,09
689	940,519
689,4	933,148
689,9	924,576
690,3	911,576
690,7	907,119
691,2	908,776
691,6	909,29
692	902,548
692,5	898,233
692,9	892,719
693,4	892,89
693,8	890,033
694,2	882,605
694,7	873,148
695,1	863,919
695,6	862,776
696	860,062
696,4	849,119
696,9	836,919
697,3	828,09
697,8	825,348
698,2	819,462
698,6	809,519
699,1	805,176
699,5	805,862
699,9	802,233
700,4	798,862
700,8	792,319
701,3	790,919
701,7	783,462
702,1	777,433
702,6	771,69
703	770,09
703,5	765,748
703,9	760,662
704,3	756,748
704,8	755,976
705,2	750,319
705,6	744,005
706,1	738,605
706,5	734,519
707	729,262
707,4	725,805
707,8	716,119
708,3	711,748
708,7	708,405
709,2	704,576
709,6	702,69
710	703,176
710,5	696,062
710,9	696,29
711,3	691,176
711,8	687,719
712,2	683,348
712,7	673,948
713,1	668,805
713,5	668,033
714	665,319
714,4	657,348
714,8	652,605
715,3	648,633
715,7	650,29
716,2	646,948
716,6	637,433
717	628,719
717,5	625,748
717,9	624,433
718,3	617,433
718,8	609,262
719,2	600,662
719,7	596,833
720,1	597,576
720,5	598,805
721	590,605
721,4	588,833
721,8	587,719
722,3	583,376
722,7	583,176
723,2	571,376
723,6	561,148
724	556,29
724,5	551,062
724,9	545,633
725,3	538,376
725,8	530,948
726,2	530,748
726,7	530,29
727,1	531,09
727,5	527,176
728	523,719
728,4	523,462
728,8	518,29
729,3	515,09
729,7	510,233
730,1	504,062
730,6	501,548
731	493,805
731,5	490,433
731,9	488,319
732,3	485,576
732,8	485,976
733,2	482,29
733,6	477,69
734,1	481,776
734,5	478,09
734,9	480,233
735,4	480,062
735,8	474,005
736,3	475,062
736,7	472,776
737,1	468,49
737,6	466,29
738	458,376
738,4	453,233
738,9	450,69
739,3	443,176
739,7	445,462
740,2	437,433
740,6	443,376
741,1	444,148
741,5	440,119
741,9	436,205
742,4	444,748
742,8	438,776
743,2	440,176
743,7	427,833
744,1	418,405
744,5	417,805
745	415,805
745,4	403,548
745,8	403,805
746,3	398,348
746,7	396,319
747,2	398,405
747,6	399,976
748	402,348
748,5	404,205
748,9	396,862
749,3	398,519
749,8	401,49
750,2	400,833
750,6	392,405
751,1	393,433
751,5	386,033
751,9	384,748
752,4	381,633
752,8	377,919
753,3	376,176
753,7	379,662
754,1	373,862
754,6	372,005
755	370,519
755,4	364,748
755,9	358,005
756,3	351,748
756,7	346,348
757,2	342,49
757,6	343,233
758	342,548
758,5	345,69
758,9	343,605
759,3	350,519
759,8	348,548
760,2	340,919
760,6	337,748
761,1	336,948
761,5	333,633
761,9	332,919
762,4	323,319
762,8	320,976
763,3	323,348
763,7	322,89
764,1	318,033
764,6	316,805
765	319,662
765,4	320,805
765,9	319,176
766,3	323,119
766,7	318,548
767,2	323,576
767,6	321,519
768	317,005
768,5	310,233
768,9	309,805
769,3	303,262
769,8	303,062
770,2	296,662
770,6	294,09
771,1	296,919
771,5	302,519
771,9	301,319
772,4	298,805
772,8	297,405
773,2	293,319
773,7	288,805
774,1	278,919
774,5	269,576
775	263,005
775,4	262,233
775,8	256,119
776,3	258,605
776,7	259,176
777,1	259,862
777,6	261,948
778	268,29
778,4	264,919
778,9	266,376
779,3	260,176
779,7	258,09
780,2	259,833
780,6	255,605
781	247,69
781,5	246,148
781,9	246,033
782,3	243,29
782,8	243,319
783,2	238,062
783,6	239,776
784,1	239,062
784,5	236,548
784,9	232,89
785,4	238,29
785,8	235,776
786,2	235,89
786,7	233,548
787,1	230,376
787,5	231,605
788	229,462
788,4	222,633
788,8	217,605
789,3	213,319
789,7	213,033
790,1	210,205
790,6	207,605
791	203,805
791,4	203,376
791,9	203,462
792,3	198,633
792,7	198,319
793,2	194,348
793,6	193,748
794	198,233
794,5	195,748
794,9	194,662
795,3	200,09
795,8	197,69
796,2	203,89
796,6	201,89
797,1	199,49
797,5	194,719
797,9	189,719
798,4	185,262
798,8	180,233
799,2	175,005
799,7	175,033
800,1	168,805
800,5	176,376
801	181,433
801,4	178,948
801,8	179,319
802,2	179,805
802,7	176,519
803,1	176,89
803,5	171,29
804	164,462
804,4	164,205
804,8	162,948
805,3	161,376
805,7	160,062
806,1	159,233
806,6	159,233
807	162,09
807,4	158,948
807,9	154,319
808,3	154,148
808,7	152,976
809,2	158,119
809,6	156,605
810	153,89
810,4	155,09
810,9	156,919
811,3	157,405
811,7	155,976
812,2	152,919
812,6	150,233
813	154,033
813,5	155,833
813,9	155,205
814,3	149,948
814,8	148,662
815,2	143,776
815,6	141,805
816,1	140,662
816,5	137,205
816,9	135,005
817,3	138,49
817,8	143,148
818,2	143,062
818,6	144,262
819,1	141,29
819,5	138,433
819,9	144,09
820,4	138,862
820,8	136,576
821,2	128,462
821,7	128,005
822,1	128,033
822,5	133,262
822,9	125,348
823,4	124,948
823,8	124,033
824,2	131,833
824,7	128,862
825,1	123,719
825,5	119,176
826	114,376
826,4	114,919
826,8	108,89
827,3	106,205
827,7	104,976
828,1	107,119
828,5	104,033
829	101,319
829,4	97,119
829,8	96,005
830,3	93,062
830,7	91,033
831,1	88,29
831,6	87,976
832	91,319
832,4	92,662
832,8	96,748
833,3	96,176
833,7	96,205
834,1	97,433
834,6	96,576
835	101,519
835,4	101,09
835,8	94,262
836,3	92,433
836,7	94,948
837,1	92,49
837,6	95,09
838	93,69
838,4	95,376
838,9	98,633
839,3	96,976
839,7	95,805
840,1	95,062
840,6	92,09
841	88,833
841,4	88,062
841,9	86,605
842,3	86,69
842,7	82,119
843,1	78,833
843,6	79,862
844	78,262
844,4	77,348
844,9	78,776
845,3	79,605
845,7	79,89
846,2	76,748
846,6	74,862
847	76,805
847,4	78,319
847,9	74,119
848,3	75,519
848,7	77,348
849,2	82,576
849,6	78,776
850	84,719
850,4	77,805
850,9	82,005
851,3	83,519
851,7	84,519
852,2	83,49
852,6	89,09
853	81,862
853,4	87,148
853,9	82,805
854,3	82,605
854,7	79,576
855,2	79,205
855,6	78,633
856	77,233
856,4	69,662
856,9	68,719
857,3	67,976
857,7	70,233
858,2	75,348
858,6	71,576
859	71,576
859,4	72,262
859,9	71,548
860,3	67,862
860,7	62,576
861,1	58,948
861,6	58,89
862	58,89
862,4	61,005
862,9	62,519
863,3	61,462
863,7	67,119
864,1	63,833
864,6	63,605
865	61,576
865,4	63,376
865,9	61,805
866,3	62,29
866,7	59,348
867,1	58,119
867,6	59,719
868	56,29
868,4	55,176
868,8	56,433
869,3	53,976
869,7	54,005
870,1	52,69
870,6	50,69
871	-21,024
871,4	-18,938
871,8	-24,024
872,3	-20,881
872,7	-22,481
873,1	-21,624
873,5	-20,624
874	52,862
874,4	47,205
874,8	48,319
875,3	48,148
875,7	47,205
876,1	50,748
876,5	48,033
877	50,033
877,4	48,176
877,8	51,976
878,2	50,89
878,7	53,319
879,1	51,262
879,5	54,348
879,9	51,519
880,4	52,805
880,8	47,033
881,2	47,662
881,7	43,062
882,1	41,833
882,5	35,405
882,9	36,719
883,4	37,148
883,8	42,405
884,2	42,376
884,6	41,776
885,1	42,633
885,5	44,862
885,9	44,176
886,3	43,176
886,8	39,576
887,2	39,405
887,6	40,433
888	40,433
888,5	41,519
888,9	41,262
889,3	41,776
889,8	42,005
890,2	40,405
890,6	39,205
891	40,49
891,5	42,033
891,9	39,605
892,3	40,29
892,7	41,805
893,2	38,433
893,6	40,262
894	38,633
894,4	33,862
894,9	33,405
895,3	33,462
895,7	32,348
896,1	33,69
896,6	32,519
897	31,148
897,4	37,89
897,8	41,948
898,3	41,919
898,7	37,69
899,1	37,862
899,5	35,176
900	30,89
900,4	25,062
900,8	19,69
901,2	16,119
901,7	19,662
902,1	19,89
902,5	25,862
902,9	29,976
903,4	33,69
903,8	36,919
904,2	33,805
904,6	33,976
905,1	39,833
905,5	36,462
905,9	42,176
906,3	40,405
906,8	41,033
907,2	43,719
907,6	40,119
908	36,748
908,5	33,462
908,9	22,233
909,3	18,49
909,7	21,262
910,2	23,633
910,6	30,776
911	24,833
911,4	28,262
911,9	30,433
912,3	32,519
912,7	32,148
913,1	34,005
913,6	28,948
914	32,09
914,4	32,176
914,8	35,148
915,3	33,376
915,7	32,005
916,1	30,148
916,5	32,119
916,9	27,433
917,4	27,062
917,8	25,062
918,2	22,919
918,6	18,405
919,1	16,633
919,5	14,805
919,9	19,29
920,3	17,919
920,8	18,776
921,2	21,605
921,6	22,576
922	23,062
922,5	27,605
922,9	29,805
923,3	31,376
923,7	30,49
924,2	29,862
924,6	30,29
925	32,262
925,4	26,062
925,8	23,576
926,3	20,433
926,7	19,09
927,1	18,976
927,5	22,09
928	18,462
928,4	15,976
928,8	19,719
929,2	19,119
929,7	23,948
930,1	25,376
930,5	24,519
930,9	30,548
931,3	34,548
931,8	28,176
932,2	29,662
932,6	26,576
933	19,233
933,5	18,976
933,9	15,176
934,3	15,605
934,7	17,005
935,2	17,862
935,6	18,776
936	25,348
936,4	24,662
936,8	25,576
937,3	23,405
937,7	25,29
938,1	27,462
938,5	20,433
939	19,576
939,4	17,748
939,8	17,776
940,2	17,005
940,6	16,519
941,1	11,005
941,5	21,119
941,9	22,262
942,3	24,119
942,8	24,89
943,2	26,833
943,6	24,69
944	28,405
944,4	23,119
944,9	22,233
945,3	19,976
945,7	16,09
946,1	13,233
946,6	13,519
947	15,519
947,4	18,519
947,8	19,062
948,2	21,605
948,7	21,405
949,1	22,662
949,5	25,662
949,9	25,262
950,3	24,033
950,8	21,805
951,2	20,119
951,6	20,89
952	22,49
952,5	18,519
952,9	15,262
953,3	13,148
953,7	13,605
954,1	14,348
954,6	15,29
955	20,119
955,4	20,233
955,8	22,205
956,2	24,633
956,7	24,976
957,1	20,548
957,5	23,662
957,9	17,348
958,3	17,033
958,8	17,805
959,2	16,348
959,6	18,148
960	22,233
960,5	20,69
960,9	20,89
961,3	20,633
961,7	18,833
962,1	19,662
962,6	17,748
963	16,833
963,4	12,005
963,8	13,662
964,2	15,805
964,7	15,862
965,1	19,033
965,5	16,948
965,9	15,89
966,3	21,062
966,8	19,49
967,2	17,862
967,6	17,748
968	11,662
968,4	17,948
968,9	21,805
969,3	21,205
969,7	17,405
970,1	21,09
970,5	19,719
971	22,89
971,4	17,233
971,8	14,205
972,2	12,662
972,6	14,862
973,1	15,348
973,5	17,748
973,9	17,89
974,3	18,862
974,7	20,776
975,2	22,376
975,6	22,662
976	20,748
976,4	18,433
976,8	15,633
977,3	16,69
977,7	13,405
978,1	12,862
978,5	9,805
978,9	6,948
979,4	4,548
979,8	4,176
980,2	2,348
980,6	2,89
981	5,69
981,5	10,919
981,9	13,49
982,3	17,405
982,7	18,519
983,1	12,29
983,6	11,805
984	8,519
984,4	6,776
984,8	4,319
985,2	4,69
985,6	4,576
986,1	10,29
986,5	12,062
986,9	10,405
987,3	10,976
987,7	13,805
988,2	13,233
988,6	12,662
989	13,605
989,4	14,233
989,8	15,462
990,3	11,148
990,7	10,519
991,1	9,976
991,5	14,662
991,9	20,548
992,3	21,119
992,8	21,119
993,2	26,262
993,6	24,948
994	27,633
994,4	25,205
994,9	20,948
995,3	19,776
995,7	18,405
996,1	17,09
996,5	20,205
996,9	13,519
997,4	12,148
997,8	9,576
998,2	7,662
998,6	1,833
999	-0,767
999,5	-1,852
999,9	-2,567
1000,3	-4,224
1000,7	-4,424
1001,1	-5,281
1001,5	1,176
1002	10,29
1002,4	5,976
1002,8	8,948
1003,2	14,062
1003,6	16,919
1004	22,89
1004,5	19,976
1004,9	17,348
1005,3	17,433
1005,7	19,919
1006,1	15,519
1006,6	15,576
1007	12,033
1007,4	16,348
1007,8	13,462
1008,2	14,919
1008,6	18,49
1009,1	19,348
1009,5	18,548
1009,9	18,976
1010,3	19,433
1010,7	19,576
1011,1	21,319
1011,6	17,062
1012	18,89
1012,4	15,119
1012,8	15,719
1013,2	15,033
1013,6	16,69
1014,1	15,576
1014,5	12,69
1014,9	12,49
1015,3	14,576
1015,7	15,89
1016,1	13,519
1016,6	11,833
1017	8,605
1017,4	13,205
1017,8	13,948
1018,2	16,09
1018,6	12,148
1019,1	12,319
1019,5	8,948
1019,9	9,348
1020,3	7,719
1020,7	5,69
1021,1	4,662
1021,6	4,519
1022	10,576
1022,4	14,719
1022,8	19,805
1023,2	19,519
1023,6	18,433
1024,1	21,862
1024,5	23,748
1024,9	16,633
1025,3	16,833
1025,7	15,233
1026,1	15,49
1026,6	15,605
1027	14,862
1027,4	15,862
1027,8	12,805
1028,2	10,062
1028,6	13,948
1029	15,49
1029,5	20,29
1029,9	17,462
1030,3	12,319
1030,7	17,576
1031,1	20,605
1031,5	12,29
1032	9,89
1032,4	6,662
1032,8	12,062
1033,2	20,805
1033,6	19,862
1034	17,433
1034,4	20,033
1034,9	21,805
1035,3	17,833
1035,7	14,748
1036,1	5,748
1036,5	4,062
1036,9	3,662
1037,4	9,605
1037,8	6,205
1038,2	9,148
1038,6	8,89
1039	15,519
1039,4	19,948
1039,8	16,433
1040,3	12,348
1040,7	13,119
1041,1	12,862
1041,5	10,948
1041,9	9,262
1042,3	9,976
1042,7	17,805
1043,2	17,69
1043,6	19,062
1044	20,919
1044,4	26,605
1044,8	27,233
1045,2	26,605
1045,6	24,205
1046,1	22,805
1046,5	21,548
1046,9	17,919
1047,3	10,805
1047,7	5,633
1048,1	3,976
1048,5	2,948
1049	4,69
1049,4	13,719
1049,8	17,89
1050,2	20,776
1050,6	27,262
1051	27,49
1051,4	30,319
1051,9	31,433
1052,3	31,176
1052,7	29,862
1053,1	26,262
1053,5	24,405
1053,9	27,033
1054,3	26,833
1054,8	34,319
1055,2	28,148
1055,6	33,405
1056	35,148
1056,4	33,719
1056,8	29,148
1057,2	24,833
1057,6	12,348
1058,1	10,262
1058,5	3,319
1058,9	5,748
1059,3	1,462
1059,7	3,233
1060,1	5,348
1060,5	9,148
1061	11,148
1061,4	14,262
1061,8	13,89
1062,2	21,005
1062,6	21,919
1063	23,69
1063,4	20,862
1063,8	18,176
1064,3	12,348
1064,7	13,919
1065,1	9,09
1065,5	5,319
1065,9	2,89
1066,3	3,005
1066,7	3,233
1067,1	0,319
1067,6	1,005
1068	-1,224
1068,4	-0,538
1068,8	0,462
1069,2	2,205
1069,6	3,376
1070	11,233
1070,4	6,348
1070,9	6,119
1071,3	9,69
1071,7	9,976
1072,1	10,062
1072,5	7,49
1072,9	5,548
1073,3	8,576
1073,7	8,833
1074,2	7,319
1074,6	6,948
1075	7,776
1075,4	7,462
1075,8	11,176
1076,2	10,033
1076,6	18,205
1077	15,605
1077,5	20,376
1077,9	18,376
1078,3	19,462
1078,7	20,233
1079,1	17,976
1079,5	14,348
1079,9	17,976
1080,3	12,662
1080,7	13,519
1081,2	21,405
1081,6	16,833
1082	15,49
1082,4	17,605
1082,8	15,262
1083,2	15,862
1083,6	16,719
1084	9,376
1084,5	12,862
1084,9	12,576
1085,3	5,462
1085,7	10,119
1086,1	10,148
1086,5	11,319
1086,9	16,062
1087,3	10,29
1087,7	13,805
1088,2	16,205
1088,6	10,519
1089	14,09
1089,4	14,976
1089,8	11,89
1090,2	15,319
1090,6	14,633
1091	21,062
1091,4	25,805
1091,9	22,319
1092,3	19,519
1092,7	18,662
1093,1	19,948
1093,5	20,09
1093,9	14,748
1094,3	14,548
1094,7	13,576
1095,1	8,633
1095,5	7,176
1096	-0,138
1096,4	1,348
1096,8	3,919
1097,2	0,405
1097,6	3,576
1098	9,462
1098,4	10,405
1098,8	16,748
1099,2	21,233
1099,6	19,405
1100,1	17,919
1100,5	10,719
1100,9	10,776
1101,3	9,49
1101,7	7,09
1102,1	1,919
1102,5	3,748
1102,9	9,719
1103,3	14,233
1103,7	14,89
1104,2	14,262
1104,6	14,519
1105	11,519
1105,4	9,89
1105,8	4,319
1106,2	2,748
1106,6	-0,167
1107	0,719
1107,4	0,067
1107,8	1,513
1108,3	-0,567
