Data from Subt2_289.txt Node
Date: Sat Aug 26 19:09:33 MSK 2023
User: vat
Spectrometer: MAYP114033
Trigger mode: 0
Integration Time (sec): 1,000000E0
Scans to average: 5
Electric dark correction enabled: true
Nonlinearity correction enabled: false
Boxcar width: 3
XAxis mode: Wavelengths
Number of Pixels in Spectrum: 2068
>>>>>Begin Spectral Data<<<<<
199,4	-0,067
199,9	3,693
200,4	5,1
200,8	5,076
201,3	2,99
201,8	1,933
202,2	0,39
202,7	7,133
203,2	6,333
203,6	5,476
204,1	2,562
204,6	5,333
205	9,933
205,5	8,219
206	2,333
206,4	-1,524
206,9	-2,867
207,4	3,362
207,8	0,419
208,3	-2,238
208,8	3,705
209,2	6,533
209,7	9,619
210,2	11,419
210,6	9,79
211,1	14,219
211,5	16,533
212	16,962
212,5	15,819
212,9	13,59
213,4	16,848
213,9	14,819
214,3	16,962
214,8	16,848
215,3	12,619
215,7	14,19
216,2	18,962
216,7	16,762
217,1	16,019
217,6	10,019
218,1	7,79
218,5	10,219
219	5,59
219,5	4,105
219,9	-0,667
220,4	4,79
220,9	7,419
221,3	7,505
221,8	6,076
222,3	8,276
222,7	10,962
223,2	15,705
223,6	10,962
224,1	8,762
224,6	8,333
225	4,762
225,5	3,333
226	1,133
226,4	0,19
226,9	1,79
227,4	5,676
227,8	7,362
228,3	11,733
228,8	11,333
229,2	15,362
229,7	15,733
230,2	17,333
230,6	20,305
231,1	25,39
231,5	25,505
232	27,048
232,5	22,362
232,9	19,448
233,4	21,105
233,9	20,219
234,3	15,219
234,8	16,076
235,3	15,705
235,7	17,333
236,2	20,476
236,7	18,448
237,1	16,219
237,6	11,848
238,1	11,39
238,5	9,133
239	8,048
239,4	10,19
239,9	9,505
240,4	7,505
240,8	12,105
241,3	6,676
241,8	8,105
242,2	7,819
242,7	3,476
243,2	7,162
243,6	6,505
244,1	11,248
244,6	16,448
245	14,962
245,5	12,733
245,9	8,962
246,4	2,305
246,9	5,076
247,3	-0,381
247,8	0,448
248,3	5,076
248,7	9,219
249,2	15,99
249,7	18,962
250,1	19,019
250,6	19,105
251	18,562
251,5	20,333
252	16,533
252,4	18,79
252,9	14,333
253,4	10,248
253,8	4,362
254,3	5,733
254,8	3,733
255,2	2,819
255,7	1,99
256,1	6,59
256,6	10,648
257,1	16,648
257,5	13,676
258	9,59
258,5	11,333
258,9	6,162
259,4	2,333
259,9	0,848
260,3	-2,438
260,8	-5,667
261,2	-5,352
261,7	-2,21
262,2	-1,752
262,6	-0,467
263,1	1,533
263,6	6,762
264	14,619
264,5	16,762
264,9	15,819
265,4	19,533
265,9	17,848
266,3	17,733
266,8	18,505
267,3	13,048
267,7	14,419
268,2	13,105
268,7	12,648
269,1	16,276
269,6	9,333
270	9,676
270,5	9,933
271	8,248
271,4	8,59
271,9	7,705
272,4	11,619
272,8	16,848
273,3	12,905
273,7	15,505
274,2	11,562
274,7	7,305
275,1	6,59
275,6	1,333
276,1	0,333
276,5	5,162
277	3,819
277,4	6,133
277,9	11,305
278,4	10,705
278,8	16,705
279,3	18,105
279,8	15,762
280,2	17,362
280,7	20,99
281,1	16,305
281,6	19,505
282,1	16,276
282,5	16,705
283	14,219
283,4	16,162
283,9	16,105
284,4	24,533
284,8	24,162
285,3	21,219
285,8	20,762
286,2	23,848
286,7	20,933
287,1	21,019
287,6	13,505
288,1	8,648
288,5	10,162
289	11,276
289,5	9,476
289,9	9,105
290,4	5,19
290,8	6,562
291,3	9,305
291,8	9,676
292,2	7,305
292,7	9,276
293,1	6,762
293,6	13,19
294,1	14,333
294,5	12,648
295	11,333
295,5	11,362
295,9	5,876
296,4	3,105
296,8	-3,61
297,3	-5,981
297,8	-10,267
298,2	-12,352
298,7	-8,667
299,1	-5,21
299,6	-2,695
300,1	0,533
300,5	4,219
301	12,19
301,5	17,79
301,9	14,819
302,4	11,19
302,8	12,648
303,3	10,333
303,8	4,848
304,2	-0,324
304,7	-3,038
305,1	-6,21
305,6	-1,638
306,1	5,648
306,5	8,333
307	13,562
307,4	19,848
307,9	19,59
308,4	19,79
308,8	17,705
309,3	12,762
309,8	11,019
310,2	8,476
310,7	3,905
311,1	1,819
311,6	5,99
312,1	6,676
312,5	9,819
313	10,876
313,4	10,448
313,9	14,848
314,4	15,648
314,8	12,819
315,3	11,333
315,7	3,505
316,2	1,705
316,7	0,048
317,1	3,962
317,6	4,105
318	10,99
318,5	8,59
319	11,076
319,4	11,505
319,9	18,448
320,3	10,876
320,8	13,562
321,3	8,99
321,7	17,076
322,2	16,59
322,6	17,876
323,1	11,248
323,6	8,619
324	6,79
324,5	6,076
324,9	0,819
325,4	0,333
325,9	1,733
326,3	5,362
326,8	10,276
327,2	5,619
327,7	6,733
328,2	9,162
328,6	10,533
329,1	4,333
329,5	3,59
330	1,619
330,5	8,219
330,9	12,448
331,4	11,562
331,8	11,248
332,3	15,362
332,8	17,248
333,2	17,219
333,7	14,79
334,1	10,333
334,6	9,933
335,1	10,105
335,5	12,648
336	5,705
336,4	6,305
336,9	12,133
337,4	16,19
337,8	18,819
338,3	23,762
338,7	23,533
339,2	27,019
339,7	31,105
340,1	23,019
340,6	17,876
341	11,448
341,5	9,448
342	7,162
342,4	6,99
342,9	2,248
343,3	7,333
343,8	10,619
344,2	15,905
344,7	20,333
345,2	16,448
345,6	19,533
346,1	21,105
346,5	14,448
347	8,962
347,5	6,276
347,9	2,305
348,4	6,848
348,8	4,819
349,3	10,448
349,8	15,505
350,2	23,333
350,7	21,333
351,1	21,648
351,6	24,448
352	32,533
352,5	29,59
353	38,248
353,4	43,848
353,9	57,99
354,3	67,448
354,8	79,476
355,3	97,076
355,7	119,619
356,2	141,362
356,6	167,219
357,1	200,876
357,5	236,505
358	276,933
358,5	316,533
358,9	369,819
359,4	428,362
359,8	493,476
360,3	563,819
360,8	640,362
361,2	730,419
361,7	829,819
362,1	941,419
362,6	1060,505
363	1178,876
363,5	1315,219
364	1464,562
364,4	1608,876
364,9	1759,219
365,3	1898,476
365,8	2035,762
366,3	2172,505
366,7	2287,819
367,2	2387,99
367,6	2471,276
368,1	2537,419
368,5	2582,99
369	2601,105
369,5	2596,905
369,9	2584,562
370,4	2541,648
370,8	2488,19
371,3	2412,219
371,7	2321,305
372,2	2224,619
372,7	2122,219
373,1	2004,733
373,6	1888,333
374	1773,133
374,5	1652,648
374,9	1542,448
375,4	1430,933
375,9	1329,533
376,3	1226,105
376,8	1130,848
377,2	1040,133
377,7	956,362
378,2	873,733
378,6	805,162
379,1	737,076
379,5	677,362
380	629,162
380,4	577,676
380,9	534,162
381,4	491,162
381,8	455,333
382,3	425,219
382,7	394,076
383,2	361,505
383,6	333,162
384,1	313,819
384,6	298,419
385	277,219
385,5	253,019
385,9	233,105
386,4	217,476
386,8	206,705
387,3	187,333
387,7	176,305
388,2	163,39
388,7	154,305
389,1	145,276
389,6	139,619
390	130,848
390,5	127,905
390,9	118,619
391,4	114,476
391,9	106,962
392,3	106,762
392,8	100,619
393,2	95,562
393,7	89,219
394,1	84,562
394,6	81,019
395,1	83,619
395,5	75,248
396	71,819
396,4	70,133
396,9	67,105
397,3	70,676
397,8	68,419
398,2	61,276
398,7	63,448
399,2	61,733
399,6	63,076
400,1	62,362
400,5	52,676
401	49,419
401,4	48,562
401,9	47,676
402,4	49,362
402,8	43,333
403,3	47,676
403,7	50,19
404,2	50,105
404,6	54,305
405,1	50,619
405,5	46,99
406	49,19
406,5	47,133
406,9	48,99
407,4	49,219
407,8	47,79
408,3	51,419
408,7	49,162
409,2	50,162
409,6	52,562
410,1	52,105
410,6	56,248
411	57,676
411,5	57,848
411,9	62,733
412,4	64,105
412,8	66,448
413,3	67,705
413,7	68,419
414,2	69,219
414,7	75,248
415,1	81,219
415,6	88,533
416	85,562
416,5	88,876
416,9	88,676
417,4	91,133
417,8	96,419
418,3	98,905
418,8	97,705
419,2	102,219
419,7	104,533
420,1	111,276
420,6	113,705
421	107,819
421,5	110,962
421,9	112,505
422,4	113,362
422,8	111,448
423,3	107,705
423,8	105,419
424,2	105,876
424,7	103,305
425,1	102,876
425,6	103,476
426	104,819
426,5	105,362
426,9	109,733
427,4	112,219
427,9	105,105
428,3	103,276
428,8	102,162
429,2	98,276
429,7	96,676
430,1	93,705
430,6	92,99
431	96,905
431,5	98,133
431,9	95,99
432,4	103,619
432,8	108,133
433,3	111,99
433,8	117,048
434,2	123,448
434,7	127,505
435,1	132,505
435,6	132,219
436	133,276
436,5	138,276
436,9	135,419
437,4	136,562
437,8	140,305
438,3	146,362
438,8	155,076
439,2	164,733
439,7	167,762
440,1	179,905
440,6	191,076
441	194,219
441,5	197,905
441,9	205,962
442,4	209,533
442,8	216,076
443,3	220,562
443,7	227,819
444,2	239,19
444,7	252,648
445,1	260,362
445,6	272,962
446	285,333
446,5	293,99
446,9	301,419
447,4	309,533
447,8	321,162
448,3	337,305
448,7	346,933
449,2	362,762
449,6	380,79
450,1	395,076
450,6	416,99
451	430,305
451,5	441,848
451,9	459,99
452,4	473,476
452,8	485,019
453,3	505,276
453,7	516,362
454,2	536,076
454,6	553,076
455,1	572,848
455,5	591,248
456	619,819
456,4	633,448
456,9	656,19
457,3	676,39
457,8	695,333
458,3	716,533
458,7	735,733
459,2	753,476
459,6	780,019
460,1	806,933
460,5	828,933
461	858,419
461,4	883,133
461,9	908,133
462,3	932,533
462,8	960,733
463,2	979,905
463,7	1005,048
464,1	1035,276
464,6	1063,79
465	1097,733
465,5	1124,333
466	1152,048
466,4	1184,619
466,9	1217,933
467,3	1238,79
467,8	1271,448
468,2	1298,476
468,7	1333,019
469,1	1368,162
469,6	1398,59
470	1431,105
470,5	1466,79
470,9	1492,333
471,4	1521,219
471,8	1554,248
472,3	1583,962
472,7	1619,419
473,2	1645,933
473,6	1675,705
474,1	1711,162
474,5	1748,648
475	1782,219
475,4	1813,819
475,9	1843,59
476,4	1875,305
476,8	1909,048
477,3	1937,562
477,7	1970,419
478,2	1997,19
478,6	2018,133
479,1	2043,333
479,5	2075,362
480	2099,162
480,4	2132,676
480,9	2150,105
481,3	2172,276
481,8	2204,105
482,2	2228,419
482,7	2253,762
483,1	2282,905
483,6	2301,133
484	2327,733
484,5	2353,933
484,9	2380,048
485,4	2407,39
485,8	2425,162
486,3	2440,705
486,7	2459,733
487,2	2484,105
487,6	2503,705
488,1	2515,59
488,5	2530,362
489	2549,305
489,4	2570,419
489,9	2583,733
490,4	2591,219
490,8	2603,933
491,3	2625,533
491,7	2633,476
492,2	2643,333
492,6	2655,562
493,1	2669,333
493,5	2678,105
494	2686,248
494,4	2688,905
494,9	2702,876
495,3	2715,562
495,8	2719,676
496,2	2727,448
496,7	2734,448
497,1	2746,133
497,6	2753,39
498	2761,59
498,5	2769,048
498,9	2774,876
499,4	2781,133
499,8	2797,762
500,3	2805,362
500,7	2808,362
501,2	2801,362
501,6	2799,305
502,1	2804,419
502,5	2813,619
503	2807,848
503,4	2799,276
503,9	2805,162
504,3	2817,162
504,8	2824,105
505,2	2826,676
505,7	2818,048
506,1	2825,419
506,6	2828,819
507	2826,533
507,5	2827,819
507,9	2823,99
508,4	2819,619
508,8	2818,505
509,3	2813,133
509,7	2817,333
510,2	2811,99
510,6	2802,876
511,1	2800,048
511,5	2801,019
512	2801,219
512,4	2805,933
512,9	2802,19
513,3	2802,59
513,8	2810,39
514,2	2809,733
514,7	2808,219
515,1	2809,59
515,6	2799,676
516	2794,362
516,5	2797,819
516,9	2792,762
517,4	2793,99
517,8	2795,505
518,3	2787,676
518,7	2788,39
519,2	2793,019
519,6	2792,162
520,1	2788,876
520,5	2786,048
521	2776,933
521,4	2786,933
521,9	2789,448
522,3	2786,076
522,8	2783,105
523,2	2784,505
523,7	2785,076
524,1	2791,79
524,6	2787,019
525	2781,505
525,5	2784,076
525,9	2786,848
526,4	2785,333
526,8	2785,79
527,3	2785,648
527,7	2784,276
528,2	2787,362
528,6	2780,019
529,1	2778,133
529,5	2780,59
530	2776,048
530,4	2775,019
530,9	2778,962
531,3	2774,79
531,8	2781,476
532,2	2781,962
532,6	2784,19
533,1	2787,276
533,5	2792,562
534	2789,305
534,4	2791,362
534,9	2790,533
535,3	2790,276
535,8	2794,048
536,2	2798,162
536,7	2799,619
537,1	2803,019
537,6	2812,59
538	2819,79
538,5	2819,533
538,9	2815,419
539,4	2814,133
539,8	2809,248
540,3	2810,876
540,7	2809,39
541,2	2808,762
541,6	2812,362
542,1	2822,076
542,5	2828,133
543	2830,162
543,4	2838,99
543,9	2843,933
544,3	2849,248
544,8	2854,59
545,2	2850,448
545,7	2854,419
546,1	2863,019
546,5	2863,79
547	2859,819
547,4	2859,562
547,9	2863,676
548,3	2874,819
548,8	2876,019
549,2	2874,133
549,7	2871,219
550,1	2883,305
550,6	2889,933
551	2891,99
551,5	2894,876
551,9	2896,019
552,4	2902,676
552,8	2907,448
553,3	2906,733
553,7	2907,305
554,2	2907,219
554,6	2907,562
555,1	2916,133
555,5	2915,248
555,9	2927,962
556,4	2926,648
556,8	2926,59
557,3	2935,933
557,7	2940,162
558,2	2945,733
558,6	2957,276
559,1	2948,762
559,5	2952,705
560	2955,448
560,4	2955,676
560,9	2951,076
561,3	2948,648
561,8	2949,133
562,2	2954,333
562,7	2956,333
563,1	2961,448
563,6	2960,762
564	2969,019
564,4	2967,248
564,9	2969,505
565,3	2971,333
565,8	2979,648
566,2	2978,305
566,7	2978,219
567,1	2977,676
567,6	2978,848
568	2980,105
568,5	2981,99
568,9	2975,048
569,4	2978,276
569,8	2983,876
570,3	2982,762
570,7	2982,962
571,1	2987,733
571,6	2986,676
572	2993,219
572,5	2990,39
572,9	2987,19
573,4	2990,219
573,8	2994,99
574,3	2982,39
574,7	2981,933
575,2	2977,59
575,6	2975,105
576,1	2979,19
576,5	2975,905
576,9	2968,562
577,4	2967,133
577,8	2961,19
578,3	2955,562
578,7	2955,133
579,2	2952,733
579,6	2949,476
580,1	2946,848
580,5	2949,705
581	2952,39
581,4	2951,448
581,9	2944,562
582,3	2941,733
582,7	2937,819
583,2	2936,733
583,6	2925,419
584,1	2920,019
584,5	2920,276
585	2922,648
585,4	2909,333
585,9	2901,333
586,3	2899,933
586,8	2900,676
587,2	2896,733
587,6	2896,276
588,1	2892,305
588,5	2891,133
589	2892,39
589,4	2881,619
589,9	2877,533
590,3	2874,276
590,8	2865,733
591,2	2858,362
591,7	2854,305
592,1	2846,419
592,5	2847,705
593	2843,905
593,4	2839,962
593,9	2832,448
594,3	2827,762
594,8	2821,248
595,2	2820,676
595,7	2815,076
596,1	2811,39
596,6	2804,133
597	2797,19
597,4	2795,762
597,9	2800,305
598,3	2798,733
598,8	2793,99
599,2	2787,019
599,7	2786,705
600,1	2782,362
600,6	2777,305
601	2763,419
601,4	2760,533
601,9	2759,933
602,3	2758,076
602,8	2751,276
603,2	2748,333
603,7	2740,733
604,1	2738,133
604,6	2724,79
605	2706,505
605,4	2705,162
605,9	2693,676
606,3	2684,048
606,8	2673,819
607,2	2665,533
607,7	2658,362
608,1	2656,276
608,6	2635,105
609	2629,39
609,4	2624,648
609,9	2616,848
610,3	2612,276
610,8	2602,619
611,2	2593,533
611,7	2589,448
612,1	2579,933
612,6	2570,619
613	2564,762
613,4	2553,99
613,9	2549,819
614,3	2544,648
614,8	2534,219
615,2	2520,79
615,7	2512,905
616,1	2506,648
616,6	2491,105
617	2476,133
617,4	2472,819
617,9	2473,79
618,3	2478,219
618,8	2476,276
619,2	2463,876
619,7	2461,619
620,1	2451,933
620,5	2434,905
621	2421,019
621,4	2406,79
621,9	2390,762
622,3	2381,248
622,8	2368,476
623,2	2360,562
623,6	2350,533
624,1	2342,219
624,5	2330,876
625	2323,905
625,4	2318,619
625,9	2312,562
626,3	2301,305
626,8	2289,762
627,2	2279,076
627,6	2263,476
628,1	2249,562
628,5	2244,162
629	2231,648
629,4	2224,905
629,9	2215,733
630,3	2200,905
630,7	2193,133
631,2	2185,248
631,6	2167,762
632,1	2155,99
632,5	2144,19
633	2134,219
633,4	2127,133
633,8	2116,762
634,3	2106,99
634,7	2096,219
635,2	2088,819
635,6	2080,019
636,1	2074,048
636,5	2055,933
636,9	2043,162
637,4	2031,99
637,8	2016,876
638,3	2000,648
638,7	1990,362
639,2	1973,419
639,6	1974,962
640	1969,962
640,5	1960,305
640,9	1955,59
641,4	1948,733
641,8	1939,705
642,2	1937,076
642,7	1925,162
643,1	1920,562
643,6	1911,448
644	1900,333
644,5	1895,79
644,9	1889,219
645,3	1882,99
645,8	1871,476
646,2	1858,019
646,7	1852,848
647,1	1848,19
647,6	1839,905
648	1829,962
648,4	1813,733
648,9	1807,448
649,3	1795,276
649,8	1784,162
650,2	1775,933
650,6	1766,105
651,1	1754,133
651,5	1755,762
652	1743,79
652,4	1735,762
652,9	1728,219
653,3	1716,448
653,7	1709,59
654,2	1707,276
654,6	1688,648
655,1	1681,362
655,5	1682,019
655,9	1670,39
656,4	1664,419
656,8	1655,819
657,3	1647,505
657,7	1644,362
658,2	1636,933
658,6	1622,39
659	1616,733
659,5	1602,048
659,9	1588,819
660,4	1577,562
660,8	1562,619
661,2	1554,276
661,7	1549,219
662,1	1535,019
662,6	1527,448
663	1524,905
663,4	1515,133
663,9	1510,59
664,3	1501,762
664,8	1488,648
665,2	1478,39
665,6	1472,648
666,1	1460,79
666,5	1452,562
667	1442,933
667,4	1430,162
667,9	1423,133
668,3	1419,276
668,7	1406,562
669,2	1402,505
669,6	1395,99
670,1	1386,933
670,5	1376,333
670,9	1367,619
671,4	1353,676
671,8	1350,048
672,3	1340,276
672,7	1329,648
673,1	1318,762
673,6	1313,333
674	1304,819
674,5	1303,848
674,9	1290,905
675,3	1279,162
675,8	1274,99
676,2	1272,876
676,7	1264,219
677,1	1255,076
677,5	1243,905
678	1239,99
678,4	1237,219
678,9	1222,59
679,3	1215,448
679,7	1209,048
680,2	1199,39
680,6	1191,133
681,1	1184,79
681,5	1175,933
681,9	1169,733
682,4	1161,133
682,8	1156,419
683,3	1159,162
683,7	1154,39
684,1	1149,79
684,6	1141,933
685	1134,076
685,5	1126,59
685,9	1115,848
686,3	1102,819
686,8	1094,733
687,2	1086,248
687,7	1074,676
688,1	1068,648
688,5	1062,305
689	1059,848
689,4	1054,448
689,9	1048,962
690,3	1041,362
690,7	1038,248
691,2	1036,019
691,6	1028,933
692	1022,133
692,5	1018,305
692,9	1010,876
693,4	1007,933
693,8	999,448
694,2	992,705
694,7	983,305
695,1	975,19
695,6	972,305
696	967,419
696,4	958,648
696,9	950,819
697,3	939,219
697,8	936,162
698,2	926,362
698,6	915,162
699,1	911,219
699,5	906,305
699,9	903,505
700,4	899,048
700,8	891,105
701,3	893,99
701,7	886,619
702,1	881,762
702,6	876,305
703	869,276
703,5	864,362
703,9	860,019
704,3	854,448
704,8	844,505
705,2	838,248
705,6	830,076
706,1	826,562
706,5	822,819
707	820,79
707,4	815,648
707,8	813,676
708,3	809,105
708,7	805,248
709,2	801,133
709,6	795,648
710	793,848
710,5	783,105
710,9	779,962
711,3	775,533
711,8	775,076
712,2	768,99
712,7	766,076
713,1	756,905
713,5	753,505
714	748,962
714,4	736,248
714,8	730,648
715,3	723,505
715,7	721,733
716,2	714,79
716,6	712,79
717	702,533
717,5	701,448
717,9	696,305
718,3	693,705
718,8	686,419
719,2	681,819
719,7	676,248
720,1	681,39
720,5	680,219
721	670,019
721,4	668,848
721,8	670,59
722,3	664,19
722,7	660,019
723,2	646,39
723,6	636,705
724	633,933
724,5	625,133
724,9	614,305
725,3	612,019
725,8	604,533
726,2	604,933
726,7	607,905
727,1	600,505
727,5	599,705
728	597,476
728,4	595,705
728,8	594,876
729,3	585,733
729,7	577,276
730,1	576,533
730,6	572,219
731	562,133
731,5	557,105
731,9	555,848
732,3	562,362
732,8	564,333
733,2	562,105
733,6	557,105
734,1	555,19
734,5	552,305
734,9	550,876
735,4	543,905
735,8	530,048
736,3	531,59
736,7	529,305
737,1	530,133
737,6	527,105
738	519,819
738,4	514,076
738,9	515,048
739,3	510,476
739,7	511,476
740,2	505,733
740,6	510,962
741,1	510,848
741,5	504,933
741,9	506,99
742,4	504,59
742,8	498,133
743,2	496,962
743,7	484,99
744,1	475,505
744,5	473,533
745	468,276
745,4	463,419
745,8	462,076
746,3	460,99
746,7	459,19
747,2	460,819
747,6	463,762
748	464,79
748,5	465,819
748,9	457,19
749,3	453,362
749,8	454,848
750,2	451,619
750,6	447,448
751,1	442,19
751,5	433,105
751,9	438,819
752,4	436,476
752,8	429,248
753,3	425,048
753,7	420,619
754,1	415,505
754,6	415,619
755	405,076
755,4	402,562
755,9	399,848
756,3	398,333
756,7	396,476
757,2	392,248
757,6	390,448
758	389,705
758,5	388,19
758,9	386,105
759,3	381,676
759,8	375,562
760,2	375,819
760,6	371,562
761,1	367,99
761,5	362,533
761,9	358,276
762,4	357,476
762,8	356,59
763,3	350,59
763,7	348,848
764,1	349,476
764,6	352,362
765	352,905
765,4	350,733
765,9	351,019
766,3	354,533
766,7	350,248
767,2	347,448
767,6	340,848
768	336,533
768,5	335,219
768,9	332,933
769,3	329,276
769,8	326,876
770,2	325,705
770,6	319,762
771,1	323,219
771,5	323,419
771,9	325,476
772,4	325,19
772,8	323,59
773,2	323,562
773,7	323,419
774,1	315,505
774,5	307,076
775	302,705
775,4	301,076
775,8	302,019
776,3	302,962
776,7	304,105
777,1	302,705
777,6	304,848
778	305,276
778,4	300,905
778,9	296,562
779,3	291,648
779,7	288,876
780,2	292,219
780,6	291,619
781	284,819
781,5	281,076
781,9	278,648
782,3	274,762
782,8	276,248
783,2	269,305
783,6	270,476
784,1	270,448
784,5	267,219
784,9	264,99
785,4	264,219
785,8	261,305
786,2	263,419
786,7	257,019
787,1	254,162
787,5	255,305
788	255,248
788,4	254,619
788,8	248,733
789,3	243,048
789,7	247,333
790,1	247,248
790,6	247,162
791	245,19
791,4	242,105
791,9	240,819
792,3	238,048
792,7	233,333
793,2	227,276
793,6	224,048
794	225,048
794,5	220,362
794,9	221,962
795,3	221,59
795,8	218,733
796,2	226,733
796,6	225,762
797,1	221,305
797,5	217,448
797,9	211,505
798,4	209,048
798,8	205,876
799,2	195,619
799,7	196,962
800,1	193,362
800,5	198,133
801	199,648
801,4	197,105
801,8	196,162
802,2	194,162
802,7	187,59
803,1	188,619
803,5	186,705
804	182,905
804,4	186,99
804,8	188,19
805,3	190,933
805,7	193,19
806,1	192,219
806,6	193,59
807	192,905
807,4	187,733
807,9	181,619
808,3	178,905
808,7	179,476
809,2	180,848
809,6	179,105
810	178,819
810,4	182,19
810,9	183,248
811,3	182,076
811,7	176,762
812,2	177,733
812,6	173,219
813	174,848
813,5	169,19
813,9	167,905
814,3	167,705
814,8	168,562
815,2	164,848
815,6	161,848
816,1	161,848
816,5	158,533
816,9	156,562
817,3	155,562
817,8	160,562
818,2	157,99
818,6	155,219
819,1	151,333
819,5	156,105
819,9	157,276
820,4	154,505
820,8	146,133
821,2	138,419
821,7	142,705
822,1	145,162
822,5	143,133
822,9	138,019
823,4	137,562
823,8	140,762
824,2	145,676
824,7	140,419
825,1	131,019
825,5	126,505
826	124,819
826,4	127,362
826,8	120,248
827,3	121,848
827,7	120,419
828,1	123,619
828,5	124,048
829	121,762
829,4	116,619
829,8	111,105
830,3	106,705
830,7	108,419
831,1	107,905
831,6	106,933
832	110,962
832,4	110,733
832,8	116,362
833,3	110,733
833,7	107,39
834,1	103,648
834,6	102,933
835	99,533
835,4	103,819
835,8	100,79
836,3	103,962
836,7	106,162
837,1	108,39
837,6	109,79
838	108,676
838,4	104,505
838,9	104,562
839,3	103,79
839,7	101,019
840,1	97,733
840,6	95,505
841	99,59
841,4	99,248
841,9	102,59
842,3	104,162
842,7	105,476
843,1	105,448
843,6	106,79
844	103,162
844,4	103,276
844,9	102,105
845,3	98,705
845,7	97,419
846,2	96,848
846,6	92,762
847	95,819
847,4	94,905
847,9	92,133
848,3	92,562
848,7	90,562
849,2	86,762
849,6	84,933
850	85,933
850,4	82,333
850,9	84,219
851,3	86,819
851,7	90,048
852,2	89,019
852,6	94,562
853	90,59
853,4	91,505
853,9	86,59
854,3	83,676
854,7	77,648
855,2	80,133
855,6	77,276
856	74,39
856,4	71,733
856,9	70,59
857,3	70,019
857,7	76,648
858,2	83,962
858,6	80,79
859	81,419
859,4	80,99
859,9	83,619
860,3	78,305
860,7	73,19
861,1	66,19
861,6	64,762
862	62,59
862,4	62,133
862,9	62,048
863,3	65,448
863,7	67,876
864,1	68,933
864,6	69,019
865	68,848
865,4	66,819
865,9	64,933
866,3	59,819
866,7	56,39
867,1	52,933
867,6	53,79
868	53,248
868,4	53,562
868,8	51,533
869,3	55,105
869,7	57,39
870,1	54,419
870,6	51,905
871	-2,581
871,4	3,476
871,8	3,076
872,3	7,276
872,7	4,505
873,1	7,562
873,5	11,448
874	63,876
874,4	58,819
874,8	56,305
875,3	53,505
875,7	52,933
876,1	56,533
876,5	54,933
877	57,533
877,4	55,962
877,8	57,99
878,2	62,276
878,7	59,476
879,1	55,219
879,5	53,39
879,9	52,305
880,4	54,676
880,8	55,79
881,2	50,962
881,7	51,048
882,1	54,019
882,5	53,305
882,9	53,619
883,4	50,076
883,8	49,562
884,2	47,905
884,6	47,39
885,1	45,048
885,5	47,248
885,9	45,133
886,3	49,733
886,8	45,076
887,2	41,048
887,6	43,448
888	40,705
888,5	36,933
888,9	37,476
889,3	33,362
889,8	37,39
890,2	39,876
890,6	35,705
891	42,048
891,5	41,048
891,9	40,848
892,3	40,505
892,7	41,762
893,2	39,59
893,6	41,105
894	35,476
894,4	34,39
894,9	32,362
895,3	31,105
895,7	32,448
896,1	36,933
896,6	39,276
897	40,933
897,4	47,533
897,8	50,276
898,3	51,562
898,7	45,562
899,1	43,505
899,5	42,276
900	38,905
900,4	36,505
900,8	32,962
901,2	29,048
901,7	31,705
902,1	33,248
902,5	35,676
902,9	36,305
903,4	35,476
903,8	37,362
904,2	36,305
904,6	33,619
905,1	31,448
905,5	30,19
905,9	30,248
906,3	31,79
906,8	33,448
907,2	37,048
907,6	40,59
908	46,533
908,5	42,59
908,9	42,933
909,3	40,305
909,7	38,076
910,2	36,905
910,6	39,048
911	31,99
911,4	35,19
911,9	33,905
912,3	33,79
912,7	38,048
913,1	39,333
913,6	36,905
914	37,533
914,4	34,505
914,8	36,762
915,3	34,733
915,7	30,562
916,1	29,162
916,5	29,248
916,9	28,705
917,4	30,905
917,8	29,276
918,2	26,019
918,6	22,962
919,1	26,362
919,5	27,162
919,9	26,648
920,3	22,905
920,8	21,333
921,2	23,79
921,6	22,162
922	19,248
922,5	15,19
922,9	17,876
923,3	18,333
923,7	19,59
924,2	17,819
924,6	21,962
925	22,99
925,4	18,105
925,8	15,648
926,3	16,99
926,7	15,448
927,1	20,79
927,5	22,276
928	22,19
928,4	24,619
928,8	25,848
929,2	25,419
929,7	26,362
930,1	26,819
930,5	25,19
930,9	27,305
931,3	30,305
931,8	31,276
932,2	33,048
932,6	31,705
933	24,962
933,5	23,933
933,9	22,448
934,3	22,019
934,7	16,076
935,2	14,905
935,6	19,79
936	22,19
936,4	22,105
936,8	21,562
937,3	19,648
937,7	26,333
938,1	29,133
938,5	20,933
939	22,419
939,4	21,019
939,8	15,019
940,2	19,648
940,6	19,962
941,1	17,505
941,5	23,933
941,9	20,933
942,3	21,962
942,8	25,905
943,2	26,705
943,6	21,533
944	20,962
944,4	18,533
944,9	19,819
945,3	19,648
945,7	17,676
946,1	10,219
946,6	10,762
947	8,676
947,4	13,333
947,8	13,476
948,2	10,076
948,7	12,133
949,1	13,762
949,5	17,448
949,9	19,219
950,3	14,59
950,8	15,076
951,2	17,819
951,6	12,105
952	15,476
952,5	9,248
952,9	8,162
953,3	8,048
953,7	7,276
954,1	9,848
954,6	17,962
955	19,562
955,4	23,019
955,8	28,59
956,2	27,705
956,7	28,533
957,1	24,162
957,5	20,933
957,9	18,362
958,3	16,219
958,8	13,448
959,2	15,419
959,6	16,19
960	17,99
960,5	22,619
960,9	26,019
961,3	23,648
961,7	20,048
962,1	16,048
962,6	17,59
963	19,333
963,4	13,248
963,8	9,562
964,2	12,362
964,7	14,619
965,1	21,362
965,5	18,876
965,9	15,762
966,3	17,733
966,8	18,162
967,2	17,676
967,6	16,876
968	10,305
968,4	12,619
968,9	13,162
969,3	14,562
969,7	8,39
970,1	10,676
970,5	8,048
971	12,305
971,4	9,619
971,8	10,676
972,2	14,505
972,6	20,619
973,1	16,048
973,5	20,848
973,9	23,248
974,3	22,733
974,7	27,619
975,2	25,733
975,6	24,105
976	26,819
976,4	24,448
976,8	21,219
977,3	22,162
977,7	17,305
978,1	14,505
978,5	13,333
978,9	11,276
979,4	11,905
979,8	9,99
980,2	7,876
980,6	5,505
981	5,362
981,5	8,219
981,9	11,105
982,3	11,276
982,7	13,648
983,1	14,133
983,6	19,19
984	20,676
984,4	16,962
984,8	16,762
985,2	13,305
985,6	11,505
986,1	13,276
986,5	11,933
986,9	2,876
987,3	5,276
987,7	4,905
988,2	3,305
988,6	3,933
989	2,533
989,4	1,19
989,8	8,905
990,3	8,705
990,7	8,619
991,1	11,105
991,5	9,79
991,9	14,676
992,3	14,305
992,8	15,876
993,2	14,762
993,6	14,362
994	13,99
994,4	15,162
994,9	12,819
995,3	7,848
995,7	1,19
996,1	-0,781
996,5	-0,61
996,9	0,333
997,4	-1,524
997,8	-7,124
998,2	-5,524
998,6	-4,81
999	-1,895
999,5	-2,238
999,9	-2,724
1000,3	-2,124
1000,7	-0,095
1001,1	1,562
1001,5	7,762
1002	10,619
1002,4	14,019
1002,8	14,933
1003,2	14,962
1003,6	19,505
1004	20,105
1004,5	12,79
1004,9	14,733
1005,3	10,762
1005,7	14,59
1006,1	16,505
1006,6	15,162
1007	17,162
1007,4	17,705
1007,8	9,105
1008,2	8,876
1008,6	6,276
1009,1	4,848
1009,5	4,848
1009,9	6,676
1010,3	11,933
1010,7	17,333
1011,1	17,619
1011,6	19,705
1012	26,219
1012,4	23,19
1012,8	20,362
1013,2	23,705
1013,6	24,733
1014,1	26,476
1014,5	21,362
1014,9	15,733
1015,3	16,448
1015,7	14,99
1016,1	8,362
1016,6	4,448
1017	3,19
1017,4	5,59
1017,8	7,105
1018,2	10,019
1018,6	9,019
1019,1	12,476
1019,5	18,133
1019,9	16,019
1020,3	17,505
1020,7	18,848
1021,1	13,962
1021,6	17,648
1022	15,076
1022,4	14,505
1022,8	18,048
1023,2	14,048
1023,6	14,162
1024,1	22,533
1024,5	21,39
1024,9	22,562
1025,3	21,419
1025,7	21,362
1026,1	26,105
1026,6	22,762
1027	17,59
1027,4	23,733
1027,8	24,933
1028,2	21,79
1028,6	26,276
1029	21,105
1029,5	21,876
1029,9	21,705
1030,3	15,276
1030,7	15,733
1031,1	18,362
1031,5	7,562
1032	10,105
1032,4	8,219
1032,8	8,362
1033,2	9,419
1033,6	6,933
1034	2,99
1034,4	6,762
1034,9	6,648
1035,3	5,59
1035,7	6,476
1036,1	5,562
1036,5	5,848
1036,9	9,333
1037,4	11,362
1037,8	8,648
1038,2	6,848
1038,6	5,448
1039	14,476
1039,4	19,848
1039,8	14,448
1040,3	16,219
1040,7	18,419
1041,1	21,476
1041,5	21,533
1041,9	12,99
1042,3	7,39
1042,7	10,762
1043,2	9,048
1043,6	5,562
1044	6,648
1044,4	8,448
1044,8	10,505
1045,2	7,648
1045,6	9,076
1046,1	7,219
1046,5	12,448
1046,9	9,248
1047,3	8,79
1047,7	8,848
1048,1	10,048
1048,5	9,133
1049	14,105
1049,4	16,848
1049,8	17,848
1050,2	17,619
1050,6	17,133
1051	20,419
1051,4	20,276
1051,9	16,448
1052,3	20,39
1052,7	21,905
1053,1	21,276
1053,5	24,219
1053,9	23,962
1054,3	17,505
1054,8	18,905
1055,2	12,419
1055,6	13,305
1056	8,99
1056,4	6,476
1056,8	6,248
1057,2	10,162
1057,6	5,076
1058,1	1,819
1058,5	-1,352
1058,9	4,876
1059,3	-0,295
1059,7	-0,267
1060,1	4,333
1060,5	11,762
1061	16,333
1061,4	16,276
1061,8	12,676
1062,2	21,79
1062,6	25,133
1063	26,105
1063,4	23,533
1063,8	19,162
1064,3	18,962
1064,7	21,419
1065,1	16,99
1065,5	9,933
1065,9	6,79
1066,3	7,019
1066,7	7,505
1067,1	6,648
1067,6	8,448
1068	3,648
1068,4	8,619
1068,8	10,99
1069,2	9,648
1069,6	11,276
1070	18,648
1070,4	16,076
1070,9	16,648
1071,3	13,276
1071,7	9,276
1072,1	11,562
1072,5	10,076
1072,9	5,048
1073,3	6,705
1073,7	8,962
1074,2	7,019
1074,6	9,076
1075	3,705
1075,4	4,619
1075,8	6,619
1076,2	1,762
1076,6	3,019
1077	8,505
1077,5	14,276
1077,9	16,076
1078,3	13,219
1078,7	13,99
1079,1	16,876
1079,5	17,962
1079,9	17,276
1080,3	12,019
1080,7	14,705
1081,2	22,648
1081,6	21,105
1082	19,105
1082,4	20,619
1082,8	18,076
1083,2	16,505
1083,6	16,533
1084	11,619
1084,5	12,476
1084,9	11,076
1085,3	1,162
1085,7	2,733
1086,1	6,448
1086,5	8,676
1086,9	10,19
1087,3	9,505
1087,7	11,819
1088,2	18,048
1088,6	17,219
1089	13,133
1089,4	10,762
1089,8	11,533
1090,2	9,39
1090,6	9,019
1091	13,505
1091,4	17,848
1091,9	18,505
1092,3	18,39
1092,7	14,933
1093,1	18,905
1093,5	19,076
1093,9	15,619
1094,3	14,733
1094,7	17,705
1095,1	17,819
1095,5	24,076
1096	20,819
1096,4	20,705
1096,8	19,362
1097,2	17,419
1097,6	18,876
1098	19,848
1098,4	17,105
1098,8	20,048
1099,2	26,676
1099,6	23,562
1100,1	21,905
1100,5	16,619
1100,9	15,819
1101,3	13,848
1101,7	10,933
1102,1	4,962
1102,5	10,133
1102,9	8,619
1103,3	13,105
1103,7	13,962
1104,2	14,848
1104,6	15,905
1105	14,276
1105,4	13,419
1105,8	13,476
1106,2	8,79
1106,6	4,848
1107	2,619
1107,4	1,367
1107,8	2,853
1108,3	-0,967
