Data from Subt2_223.txt Node
Date: Sat Aug 26 18:50:38 MSK 2023
User: vat
Spectrometer: MAYP114033
Trigger mode: 0
Integration Time (sec): 1,000000E0
Scans to average: 5
Electric dark correction enabled: true
Nonlinearity correction enabled: false
Boxcar width: 3
XAxis mode: Wavelengths
Number of Pixels in Spectrum: 2068
>>>>>Begin Spectral Data<<<<<
199,4	-0,317
199,9	0,273
200,4	-2,433
200,8	-2,167
201,3	-3,738
201,8	-2,052
202,2	-5,424
202,7	0,262
203,2	1,233
203,6	1,49
204,1	2,805
204,6	3,69
205	2,862
205,5	6,833
206	1,833
206,4	1,919
206,9	5,519
207,4	3,919
207,8	4,033
208,3	3,062
208,8	3,462
209,2	4,748
209,7	2,605
210,2	1,09
210,6	-0,252
211,1	0,519
211,5	-0,681
212	0,49
212,5	0,605
212,9	0,205
213,4	1,633
213,9	1,319
214,3	3,662
214,8	4,633
215,3	2,748
215,7	1,49
216,2	1,633
216,7	0,09
217,1	2,49
217,6	0,719
218,1	2,919
218,5	0,633
219	-6,567
219,5	-0,824
219,9	-4,195
220,4	4,976
220,9	4,205
221,3	4,233
221,8	6,09
222,3	15,29
222,7	12,262
223,2	14,119
223,6	4,319
224,1	2,519
224,6	2,148
225	-0,967
225,5	0,005
226	2,919
226,4	5,805
226,9	5,862
227,4	10,69
227,8	6,862
228,3	12,119
228,8	10,548
229,2	6,89
229,7	4,862
230,2	7,205
230,6	8,69
231,1	17,462
231,5	17,69
232	17,919
232,5	16,576
232,9	19,89
233,4	19,405
233,9	15,119
234,3	6,433
234,8	6,29
235,3	0,062
235,7	2,376
236,2	-2,224
236,7	-6,767
237,1	-5,052
237,6	-3,081
238,1	-10,31
238,5	-10,224
239	-10,167
239,4	-7,167
239,9	-6,081
240,4	-7,052
240,8	-3,652
241,3	-0,252
241,8	0,919
242,2	0,376
242,7	0,405
243,2	2,776
243,6	0,405
244,1	-1,11
244,6	0,119
245	3,605
245,5	5,119
245,9	3,976
246,4	5,376
246,9	8,033
247,3	9,833
247,8	11,005
248,3	12,29
248,7	11,69
249,2	12,348
249,7	12,005
250,1	10,719
250,6	7,633
251	9,176
251,5	8,376
252	7,919
252,4	9,948
252,9	8,033
253,4	5,376
253,8	5,119
254,3	0,176
254,8	-0,31
255,2	-3,452
255,7	-6,881
256,1	-5,024
256,6	0,205
257,1	-1,538
257,5	0,148
258	-1,338
258,5	2,462
258,9	1,348
259,4	-0,052
259,9	-5,195
260,3	-5,367
260,8	-2,795
261,2	-2,052
261,7	-1,11
262,2	0,605
262,6	-0,71
263,1	4,29
263,6	8,148
264	10,09
264,5	13,89
264,9	9,919
265,4	13,005
265,9	11,633
266,3	13,719
266,8	13,576
267,3	10,719
267,7	5,148
268,2	8,633
268,7	8,605
269,1	11,09
269,6	6,976
270	10,89
270,5	8,776
271	10,633
271,4	8,433
271,9	4,233
272,4	9,633
272,8	9,519
273,3	0,662
273,7	2,49
274,2	2,319
274,7	1,233
275,1	5,862
275,6	0,462
276,1	-1,51
276,5	2,29
277	-0,538
277,4	0,119
277,9	2,119
278,4	-0,995
278,8	1,748
279,3	7,005
279,8	7,033
280,2	14,005
280,7	15,49
281,1	12,719
281,6	14,662
282,1	13,348
282,5	10,09
283	10,119
283,4	3,519
283,9	4,348
284,4	9,376
284,8	9,233
285,3	9,662
285,8	8,262
286,2	7,69
286,7	6,69
287,1	7,348
287,6	2,548
288,1	-2,024
288,5	-1,852
289	1,348
289,5	1,862
289,9	5,662
290,4	9,205
290,8	13,062
291,3	16,319
291,8	19,033
292,2	14,433
292,7	18,09
293,1	18,605
293,6	11,462
294,1	10,462
294,5	12,033
295	8,833
295,5	12,576
295,9	13,862
296,4	8,862
296,8	12,119
297,3	8,033
297,8	2,976
298,2	5,49
298,7	7,748
299,1	3,205
299,6	5,805
300,1	3,548
300,5	8,748
301	13,69
301,5	13,748
301,9	7,719
302,4	4,348
302,8	3,205
303,3	3,119
303,8	-0,395
304,2	-3,852
304,7	-7,052
305,1	-8,167
305,6	0,405
306,1	9,576
306,5	11,748
307	15,976
307,4	19,519
307,9	20,176
308,4	19,976
308,8	11,69
309,3	7,062
309,8	5,89
310,2	5,119
310,7	0,776
311,1	1,605
311,6	4,376
312,1	7,119
312,5	5,033
313	5,319
313,4	3,719
313,9	4,319
314,4	-0,252
314,8	-0,681
315,3	0,262
315,7	-3,138
316,2	-6,652
316,7	-6,624
317,1	-1,995
317,6	-2,052
318	2,29
318,5	1,005
319	1,376
319,4	3,09
319,9	7,262
320,3	6,005
320,8	7,376
321,3	4,148
321,7	5,376
322,2	7,433
322,6	9,69
323,1	5,033
323,6	3,262
324	0,119
324,5	0,919
324,9	4,005
325,4	6,29
325,9	6,662
326,3	8,605
326,8	10,862
327,2	12,462
327,7	10,176
328,2	7,919
328,6	6,69
329,1	2,833
329,5	2,319
330	-1,624
330,5	3,49
330,9	10,062
331,4	10,148
331,8	8,69
332,3	13,69
332,8	13,176
333,2	16,948
333,7	15,176
334,1	13,148
334,6	10,233
335,1	8,005
335,5	4,519
336	3,462
336,4	3,89
336,9	8,405
337,4	6,033
337,8	5,176
338,3	8,862
338,7	10,805
339,2	11,748
339,7	10,833
340,1	6,433
340,6	6,433
341	6,119
341,5	4,805
342	0,433
342,4	0,29
342,9	2,29
343,3	4,005
343,8	5,605
344,2	9,348
344,7	13,976
345,2	14,29
345,6	14,69
346,1	12,719
346,5	6,148
347	3,919
347,5	1,348
347,9	1,376
348,4	3,519
348,8	4,633
349,3	7,005
349,8	10,776
350,2	16,062
350,7	16,605
351,1	16,862
351,6	23,89
352	25,89
352,5	33,119
353	44,005
353,4	50,233
353,9	62,919
354,3	75,69
354,8	84,748
355,3	108,576
355,7	124,005
356,2	147,633
356,6	173,976
357,1	207,376
357,5	239,805
358	280,405
358,5	318,519
358,9	366,89
359,4	420,862
359,8	486,49
360,3	557,176
360,8	633,862
361,2	720,433
361,7	819,805
362,1	926,519
362,6	1043,833
363	1163,348
363,5	1297,119
364	1442,433
364,4	1586,89
364,9	1731,176
365,3	1876,976
365,8	2009,376
366,3	2143,69
366,7	2251,405
367,2	2347,862
367,6	2432,633
368,1	2497,062
368,5	2543,205
369	2569,776
369,5	2569,748
369,9	2560,919
370,4	2525,205
370,8	2470,948
371,3	2399,29
371,7	2310,29
372,2	2213,433
372,7	2109,405
373,1	1994,862
373,6	1881,376
374	1767,748
374,5	1647,89
374,9	1537,49
375,4	1424,119
375,9	1318,176
376,3	1211,862
376,8	1115,433
377,2	1023,833
377,7	940,662
378,2	861,29
378,6	790,233
379,1	720,805
379,5	665,233
380	614,033
380,4	562,433
380,9	515,176
381,4	470,948
381,8	435,119
382,3	407,119
382,7	376,919
383,2	346,29
383,6	321,719
384,1	304,062
384,6	285,405
385	266,09
385,5	244,405
385,9	224,919
386,4	207,948
386,8	194,633
387,3	178,605
387,7	167,319
388,2	156,405
388,7	146,405
389,1	138,49
389,6	129,433
390	121,29
390,5	115,462
390,9	110,433
391,4	107,462
391,9	98,576
392,3	96,176
392,8	87,862
393,2	76,662
393,7	70,633
394,1	59,348
394,6	54,119
395,1	51,662
395,5	44,262
396	45,462
396,4	45,748
396,9	45,576
397,3	47,062
397,8	45,633
398,2	46,376
398,7	47,205
399,2	46,805
399,6	49,576
400,1	44,176
400,5	39,262
401	37,462
401,4	32,062
401,9	33,576
402,4	32,348
402,8	25,862
403,3	31,976
403,7	30,576
404,2	33,948
404,6	40,976
405,1	38,405
405,5	33,748
406	35,662
406,5	31,09
406,9	36,405
407,4	29,862
407,8	27,376
408,3	29,633
408,7	31,148
409,2	35,033
409,6	38,862
410,1	37,633
410,6	46,176
411	45,719
411,5	47,09
411,9	53,148
412,4	59,49
412,8	61,062
413,3	66,062
413,7	64,462
414,2	66,69
414,7	68,719
415,1	72,748
415,6	69,29
416	71,719
416,5	74,748
416,9	72,119
417,4	73,319
417,8	80,005
418,3	82,633
418,8	89,948
419,2	90,176
419,7	90,919
420,1	96,405
420,6	100,89
421	97,005
421,5	98,748
421,9	95,262
422,4	95,69
422,8	96,005
423,3	94,548
423,8	93,148
424,2	92,519
424,7	90,433
425,1	93,462
425,6	98,462
426	98,176
426,5	101,662
426,9	102,033
427,4	100,262
427,9	94,462
428,3	87,605
428,8	84,176
429,2	79,576
429,7	78,748
430,1	79,348
430,6	81,433
431	84,49
431,5	90,148
431,9	90,948
432,4	97,833
432,8	98,49
433,3	100,833
433,8	99,348
434,2	101,605
434,7	103,49
435,1	101,433
435,6	102,376
436	105,176
436,5	108,233
436,9	111,976
437,4	113,862
437,8	116,205
438,3	121,69
438,8	121,633
439,2	123,49
439,7	126,633
440,1	130,348
440,6	139,348
441	136,862
441,5	143,262
441,9	150,89
442,4	157,262
442,8	160,662
443,3	168,976
443,7	173,748
444,2	184,462
444,7	191,319
445,1	200,262
445,6	206,29
446	215,062
446,5	218,233
446,9	221,433
447,4	227,29
447,8	228,719
448,3	237,776
448,7	243,29
449,2	248,833
449,6	259,948
450,1	261,605
450,6	275,233
451	285,862
451,5	294,776
451,9	311,748
452,4	324,69
452,8	332,09
453,3	354,233
453,7	362,348
454,2	373,005
454,6	379,976
455,1	386,805
455,5	392,462
456	408,433
456,4	409,29
456,9	417,976
457,3	431,376
457,8	439,976
458,3	453,005
458,7	466,405
459,2	473,948
459,6	491,148
460,1	506,462
460,5	515,462
461	537,919
461,4	546,776
461,9	560,862
462,3	575,69
462,8	590,405
463,2	602,119
463,7	618,148
464,1	626,576
464,6	642,119
465	658,576
465,5	675,919
466	691,376
466,4	704,348
466,9	721,976
467,3	734,548
467,8	753,405
468,2	768,205
468,7	779,233
469,1	795,205
469,6	814,519
470	824,576
470,5	840,49
470,9	848,833
471,4	857,405
471,8	871,919
472,3	886,319
472,7	894,319
473,2	908,862
473,6	917,29
474,1	934,033
474,5	949,376
475	964,548
475,4	974,376
475,9	992,948
476,4	1007,976
476,8	1024,548
477,3	1035,919
477,7	1048,89
478,2	1060,862
478,6	1070,433
479,1	1074,748
479,5	1083,29
480	1090,69
480,4	1101,205
480,9	1108,262
481,3	1114,176
481,8	1123,69
482,2	1133,805
482,7	1145,662
483,1	1157,49
483,6	1159,09
484	1163,805
484,5	1172,748
484,9	1173,119
485,4	1173,29
485,8	1175,833
486,3	1179,29
486,7	1188,49
487,2	1198,605
487,6	1198,805
488,1	1200,948
488,5	1202,719
489	1203,176
489,4	1203,948
489,9	1200,405
490,4	1195,833
490,8	1196,719
491,3	1204,405
491,7	1201,776
492,2	1206,062
492,6	1204,948
493,1	1204,605
493,5	1202,748
494	1194,462
494,4	1186,233
494,9	1188,89
495,3	1182,519
495,8	1174,348
496,2	1169,09
496,7	1157,605
497,1	1157,976
497,6	1158,576
498	1158,49
498,5	1150,805
498,9	1146,948
499,4	1141,805
499,8	1148,319
500,3	1147,233
500,7	1137,29
501,2	1121,776
501,6	1114,29
502,1	1109,319
502,5	1104,49
503	1090,919
503,4	1077,262
503,9	1072,433
504,3	1069,262
504,8	1059,633
505,2	1046,833
505,7	1035,805
506,1	1033,519
506,6	1022,862
507	1010,69
507,5	1005,69
507,9	996,433
508,4	989,776
508,8	978,119
509,3	965,29
509,7	959,005
510,2	949,805
510,6	935,662
511,1	925,748
511,5	919,262
512	910,348
512,4	902,805
512,9	892,976
513,3	885,748
513,8	877,548
514,2	870,29
514,7	859,148
515,1	850,09
515,6	835,69
516	821,119
516,5	811,519
516,9	800,148
517,4	789,519
517,8	781,433
518,3	772,976
518,7	765,805
519,2	760,69
519,6	750,233
520,1	744,119
520,5	734,519
521	719,605
521,4	714,176
521,9	705,376
522,3	696,319
522,8	683,376
523,2	674,09
523,7	667,69
524,1	661,69
524,6	649,348
525	638,976
525,5	627,69
525,9	624,519
526,4	610,148
526,8	603,605
527,3	595,433
527,7	589,29
528,2	584,49
528,6	576,662
529,1	566,776
529,5	564,89
530	553,348
530,4	546,89
530,9	538,805
531,3	527,919
531,8	527,776
532,2	521,29
532,6	514,605
533,1	507,233
533,5	503,719
534	498,148
534,4	496,376
534,9	488,89
535,3	479,919
535,8	476,205
536,2	474,09
536,7	468,633
537,1	462,348
537,6	450,376
538	443,633
538,5	443,033
538,9	433,205
539,4	431,633
539,8	422,919
540,3	417,033
540,7	414,262
541,2	407,033
541,6	404,576
542,1	402,119
542,5	389,605
543	384,29
543,4	380,576
543,9	378,348
544,3	382,148
544,8	372,433
545,2	368,176
545,7	371,119
546,1	373,862
546,5	373,719
547	373,062
547,4	364,919
547,9	364,033
548,3	362,776
548,8	356,833
549,2	349,719
549,7	345,69
550,1	339,69
550,6	337,433
551	332,205
551,5	326,176
551,9	320,29
552,4	314,09
552,8	311,319
553,3	308,833
553,7	300,576
554,2	300,748
554,6	296,119
555,1	299,462
555,5	296,033
555,9	294,005
556,4	288,919
556,8	286,862
557,3	286,119
557,7	288,69
558,2	280,633
558,6	283,89
559,1	277,29
559,5	274,662
560	271,862
560,4	267,062
560,9	260,605
561,3	256,862
561,8	253,633
562,2	258,09
562,7	261,119
563,1	265,29
563,6	262,69
564	264,262
564,4	265,948
564,9	262,719
565,3	255,548
565,8	251,662
566,2	249,833
566,7	249,033
567,1	248,148
567,6	247,462
568	245,205
568,5	243,462
568,9	240,148
569,4	234,519
569,8	233,29
570,3	227,262
570,7	223,319
571,1	224,148
571,6	225,605
572	230,433
572,5	229,69
572,9	225,719
573,4	227,262
573,8	228,319
574,3	221,948
574,7	217,605
575,2	214,462
575,6	212,748
576,1	217,205
576,5	220,976
576,9	214,319
577,4	214,69
577,8	212,976
578,3	209,148
578,7	205,662
579,2	203,948
579,6	196,719
580,1	196,69
580,5	198,633
581	198,862
581,4	198,29
581,9	200,09
582,3	197,719
582,7	197,719
583,2	196,205
583,6	192,576
584,1	190,176
584,5	187,605
585	184,662
585,4	177,262
585,9	174,548
586,3	175,319
586,8	177,805
587,2	178,548
587,6	182,662
588,1	185,405
588,5	189,976
589	192,376
589,4	191,519
589,9	189,576
590,3	187,862
590,8	181,519
591,2	180,633
591,7	180,376
592,1	178,376
592,5	182,862
593	176,405
593,4	177,148
593,9	171,833
594,3	167,262
594,8	164,319
595,2	161,176
595,7	155,919
596,1	158,348
596,6	154,548
597	161,976
597,4	167,29
597,9	167,89
598,3	170,748
598,8	172,09
599,2	170,919
599,7	168,748
600,1	161,805
600,6	155,405
601	154,576
601,4	160,89
601,9	157,405
602,3	154,29
602,8	157,376
603,2	161,805
603,7	161,976
604,1	162,833
604,6	155,548
605	153,805
605,4	161,833
605,9	156,976
606,3	148,605
606,8	146,833
607,2	139,376
607,7	133,976
608,1	137,49
608,6	135,719
609	141,348
609,4	145,548
609,9	143,948
610,3	144,605
610,8	148,49
611,2	144,662
611,7	141,833
612,1	136,919
612,6	136,348
613	138,919
613,4	139,376
613,9	136,548
614,3	135,062
614,8	135,576
615,2	135,062
615,7	134,233
616,1	131,548
616,6	130,633
617	126,576
617,4	124,376
617,9	126,376
618,3	127,233
618,8	129,548
619,2	128,519
619,7	133,233
620,1	133,719
620,5	141,29
621	138,119
621,4	138,719
621,9	136,005
622,3	138,519
622,8	130,319
623,2	129,433
623,6	124,862
624,1	125,605
624,5	124,233
625	128,433
625,4	128,233
625,9	130,69
626,3	132,005
626,8	128,462
627,2	125,49
627,6	123,005
628,1	113,462
628,5	110,948
629	110,405
629,4	108,633
629,9	109,319
630,3	106,69
630,7	102,49
631,2	105,348
631,6	104,205
632,1	105,748
632,5	105,49
633	111,805
633,4	110,776
633,8	114,433
634,3	113,148
634,7	115,062
635,2	108,862
635,6	112,262
636,1	105,033
636,5	102,805
636,9	101,576
637,4	98,633
637,8	95,719
638,3	96,548
638,7	90,49
639,2	87,662
639,6	88,69
640	89,433
640,5	96,262
640,9	98,205
641,4	101,233
641,8	103,348
642,2	105,119
642,7	110,662
643,1	110,033
643,6	104,205
644	105,576
644,5	106,262
644,9	105,805
645,3	105,033
645,8	99,919
646,2	102,462
646,7	106,49
647,1	99,976
647,6	98,148
648	100,576
648,4	98,29
648,9	98,233
649,3	93,119
649,8	91,233
650,2	93,49
650,6	90,576
651,1	87,319
651,5	94,405
652	93,148
652,4	92,748
652,9	90,262
653,3	91,09
653,7	93,005
654,2	91,662
654,6	86,262
655,1	88,262
655,5	95,919
655,9	94,948
656,4	94,519
656,8	93,319
657,3	97,376
657,7	97,605
658,2	95,89
658,6	88,376
659	91,062
659,5	89,433
659,9	92,519
660,4	90,148
660,8	89,948
661,2	88,405
661,7	87,262
662,1	86,548
662,6	81,29
663	78,719
663,4	76,205
663,9	75,376
664,3	77,005
664,8	74,919
665,2	69,662
665,6	72,062
666,1	74,776
666,5	76,205
667	75,49
667,4	72,462
667,9	76,29
668,3	76,548
668,7	78,09
669,2	76,29
669,6	79,862
670,1	84,748
670,5	80,29
670,9	76,976
671,4	80,148
671,8	80,862
672,3	81,576
672,7	76,976
673,1	70,262
673,6	72,319
674	77,605
674,5	74,605
674,9	68,205
675,3	63,576
675,8	62,633
676,2	62,548
676,7	64,662
677,1	60,805
677,5	58,49
678	64,776
678,4	66,148
678,9	65,462
679,3	66,49
679,7	65,976
680,2	63,519
680,6	66,433
681,1	62,005
681,5	62,719
681,9	65,319
682,4	65,948
682,8	66,833
683,3	68,748
683,7	68,976
684,1	73,576
684,6	71,205
685	68,576
685,5	63,176
685,9	58,205
686,3	57,29
686,8	55,719
687,2	51,433
687,7	49,062
688,1	44,833
688,5	46,776
689	46,433
689,4	44,662
689,9	44,576
690,3	41,148
690,7	42,805
691,2	48,833
691,6	48,348
692	50,148
692,5	50,119
692,9	48,29
693,4	49,462
693,8	47,862
694,2	45,176
694,7	46,805
695,1	48,462
695,6	49,662
696	52,09
696,4	54,262
696,9	55,405
697,3	53,033
697,8	55,862
698,2	53,548
698,6	52,062
699,1	50,348
699,5	52,776
699,9	49,833
700,4	45,69
700,8	39,89
701,3	42,89
701,7	39,69
702,1	39,805
702,6	36,376
703	41,348
703,5	45,976
703,9	47,033
704,3	47,119
704,8	48,233
705,2	47,719
705,6	45,148
706,1	45,033
706,5	41,976
707	44,405
707,4	43,519
707,8	42,576
708,3	42,262
708,7	41,919
709,2	39,462
709,6	42,862
710	44,29
710,5	41,633
710,9	44,633
711,3	45,205
711,8	48,833
712,2	49,719
712,7	45,29
713,1	39,719
713,5	41,176
714	39,462
714,4	39,148
714,8	37,119
715,3	32,348
715,7	36,576
716,2	37,319
716,6	36,376
717	34,405
717,5	34,205
717,9	39,348
718,3	38,176
718,8	35,519
719,2	38,633
719,7	40,376
720,1	44,919
720,5	47,976
721	41,405
721,4	45,833
721,8	48,29
722,3	45,205
722,7	47,148
723,2	41,948
723,6	34,605
724	33,862
724,5	29,976
724,9	27,776
725,3	29,033
725,8	26,176
726,2	29,005
726,7	32,233
727,1	33,976
727,5	36,605
728	32,948
728,4	31,005
728,8	26,748
729,3	25,119
729,7	25,29
730,1	26,205
730,6	27,719
731	31,89
731,5	31,776
731,9	34,976
732,3	36,948
732,8	41,862
733,2	38,748
733,6	39,233
734,1	35,662
734,5	34,633
734,9	35,633
735,4	33,119
735,8	26,69
736,3	32,89
736,7	28,89
737,1	30,976
737,6	32,69
738	34,319
738,4	34,576
738,9	34,833
739,3	31,005
739,7	37,605
740,2	36,69
740,6	41,976
741,1	41,005
741,5	37,919
741,9	38,605
742,4	41,262
742,8	33,976
743,2	35,862
743,7	25,976
744,1	18,633
744,5	18,176
745	14,548
745,4	8,09
745,8	10,948
746,3	9,976
746,7	13,519
747,2	20,976
747,6	27,89
748	35,176
748,5	40,805
748,9	39,748
749,3	40,433
749,8	42,376
750,2	36,662
750,6	31,948
751,1	30,148
751,5	28,233
751,9	28,519
752,4	30,748
752,8	29,576
753,3	31,805
753,7	37,205
754,1	35,862
754,6	33,262
755	33,605
755,4	26,348
755,9	26,033
756,3	26,176
756,7	22,033
757,2	22,776
757,6	24,776
758	21,805
758,5	26,89
758,9	26,948
759,3	26,376
759,8	30,833
760,2	31,805
760,6	34,005
761,1	35,119
761,5	33,748
761,9	29,776
762,4	29,033
762,8	22,005
763,3	19,09
763,7	19,29
764,1	20,748
764,6	19,233
765	24,09
765,4	23,919
765,9	25,576
766,3	24,748
766,7	18,976
767,2	17,548
767,6	21,748
768	17,033
768,5	17,405
768,9	19,948
769,3	22,919
769,8	24,119
770,2	22,719
770,6	20,748
771,1	23,148
771,5	25,29
771,9	23,976
772,4	23,09
772,8	24,005
773,2	29,29
773,7	30,662
774,1	32,29
774,5	25,576
775	26,262
775,4	22,633
775,8	21,719
776,3	19,748
776,7	17,919
777,1	18,176
777,6	21,976
778	23,605
778,4	25,89
778,9	28,805
779,3	25,29
779,7	28,919
780,2	28,148
780,6	27,005
781	22,576
781,5	19,262
781,9	16,576
782,3	16,29
782,8	12,833
783,2	8,633
783,6	10,89
784,1	13,605
784,5	15,805
784,9	17,776
785,4	25,09
785,8	29,319
786,2	30,519
786,7	32,919
787,1	29,576
787,5	29,148
788	29,319
788,4	20,748
788,8	12,205
789,3	13,719
789,7	10,748
790,1	14,776
790,6	17,919
791	13,176
791,4	19,576
791,9	21,776
792,3	19,748
792,7	21,862
793,2	18,319
793,6	13,605
794	17,176
794,5	11,433
794,9	13,948
795,3	16,748
795,8	14,119
796,2	13,976
796,6	18,29
797,1	15,919
797,5	17,948
797,9	12,89
798,4	11,005
798,8	12,062
799,2	10,062
799,7	10,748
800,1	10,548
800,5	10,633
801	19,119
801,4	18,062
801,8	18,205
802,2	19,605
802,7	14,062
803,1	14,433
803,5	16,119
804	11,005
804,4	12,833
804,8	10,919
805,3	16,662
805,7	18,662
806,1	19,348
806,6	19,29
807	17,662
807,4	16,062
807,9	14,519
808,3	11,833
808,7	12,519
809,2	14,719
809,6	17,433
810	18,576
810,4	18,862
810,9	22,976
811,3	21,976
811,7	24,49
812,2	27,119
812,6	20,719
813	25,433
813,5	28,033
813,9	23,89
814,3	22,319
814,8	15,69
815,2	12,405
815,6	13,205
816,1	10,348
816,5	7,833
816,9	9,405
817,3	12,948
817,8	22,976
818,2	23,49
818,6	22,833
819,1	22,548
819,5	20,948
819,9	23,262
820,4	23,662
820,8	15,633
821,2	11,662
821,7	15,948
822,1	18,405
822,5	25,719
822,9	22,605
823,4	20,405
823,8	22,433
824,2	25,176
824,7	18,062
825,1	12,062
825,5	4,319
826	2,376
826,4	-0,91
826,8	-2,595
827,3	-1,881
827,7	0,319
828,1	3,948
828,5	4,233
829	1,433
829,4	6,262
829,8	1,376
830,3	0,776
830,7	-1,281
831,1	-0,938
831,6	2,262
832	6,433
832,4	4,919
832,8	10,462
833,3	9,605
833,7	10,148
834,1	6,462
834,6	2,462
835	5,89
835,4	1,062
835,8	-0,252
836,3	0,605
836,7	1,919
837,1	3,319
837,6	7,89
838	4,319
838,4	6,948
838,9	7,376
839,3	6,433
839,7	8,69
840,1	4,633
840,6	6,348
841	10,748
841,4	8,748
841,9	12,205
842,3	8,833
842,7	6,319
843,1	9,29
843,6	10,633
844	9,29
844,4	13,776
844,9	13,348
845,3	17,433
845,7	19,948
846,2	19,862
846,6	16,005
847	14,29
847,4	14,005
847,9	15,805
848,3	12,69
848,7	11,948
849,2	9,805
849,6	6,233
850	9,205
850,4	5,148
850,9	4,576
851,3	3,262
851,7	2,948
852,2	4,348
852,6	10,948
853	8,49
853,4	11,376
853,9	5,119
854,3	11,976
854,7	14,89
855,2	17,49
855,6	14,605
856	12,719
856,4	12,205
856,9	8,919
857,3	6,633
857,7	6,433
858,2	8,062
858,6	6,748
859	7,633
859,4	5,662
859,9	9,919
860,3	2,176
860,7	-0,881
861,1	0,576
861,6	-0,424
862	-0,567
862,4	-1,852
862,9	2,119
863,3	6,748
863,7	8,776
864,1	9,319
864,6	8,862
865	11,662
865,4	19,062
865,9	17,805
866,3	18,605
866,7	14,719
867,1	6,605
867,6	7,519
868	1,262
868,4	-4,567
868,8	-4,481
869,3	-2,881
869,7	2,748
870,1	4,319
870,6	3,862
871	-11,881
871,4	-4,281
871,8	-7,195
872,3	-6,138
872,7	-7,11
873,1	-5,795
873,5	-4,767
874	14,176
874,4	10,176
874,8	11,919
875,3	10,519
875,7	5,433
876,1	6,348
876,5	8,662
877	8,748
877,4	5,233
877,8	6,662
878,2	9,576
878,7	12,462
879,1	10,776
879,5	10,805
879,9	12,233
880,4	11,776
880,8	9,09
881,2	5,119
881,7	5,69
882,1	5,462
882,5	4,376
882,9	0,548
883,4	-2,452
883,8	0,119
884,2	0,205
884,6	-2,481
885,1	-1,224
885,5	-2,824
885,9	-1,281
886,3	5,205
886,8	1,948
887,2	2,833
887,6	3,09
888	3,548
888,5	4,748
888,9	6,348
889,3	2,233
889,8	2,433
890,2	0,833
890,6	-1,852
891	-0,681
891,5	-5,652
891,9	-6,681
892,3	-6,424
892,7	-2,938
893,2	-0,224
893,6	4,319
894	5,776
894,4	6,376
894,9	5,319
895,3	8,005
895,7	9,005
896,1	7,348
896,6	7,29
897	7,09
897,4	12,09
897,8	18,119
898,3	17,519
898,7	17,69
899,1	18,605
899,5	20,09
900	14,805
900,4	16,062
900,8	11,862
901,2	7,805
901,7	4,89
902,1	4,605
902,5	5,319
902,9	10,919
903,4	8,319
903,8	9,948
904,2	13,205
904,6	9,919
905,1	10,633
905,5	8,176
905,9	10,433
906,3	15,29
906,8	17,69
907,2	19,433
907,6	22,862
908	27,376
908,5	24,605
908,9	17,09
909,3	8,262
909,7	5,405
910,2	0,833
910,6	3,633
911	-1,31
911,4	4,833
911,9	8,005
912,3	12,005
912,7	15,948
913,1	21,09
913,6	14,833
914	12,662
914,4	6,776
914,8	8,405
915,3	2,433
915,7	-1,481
916,1	-2,595
916,5	2,09
916,9	3,719
917,4	4,148
917,8	1,69
918,2	0,719
918,6	-2,995
919,1	-3,195
919,5	-0,138
919,9	0,576
920,3	1,462
920,8	-1,138
921,2	3,662
921,6	8,29
922	6,233
922,5	-1,11
922,9	-1,367
923,3	-2,395
923,7	2,519
924,2	3,405
924,6	1,748
925	3,776
925,4	3,405
925,8	2,49
926,3	2,748
926,7	-1,224
927,1	-1,51
927,5	0,176
928	-3,081
928,4	-1,195
928,8	1,062
929,2	-0,567
929,7	2,09
930,1	5,548
930,5	2,662
930,9	6,89
931,3	7,662
931,8	7,633
932,2	8,033
932,6	2,719
933	-2,338
933,5	-2,91
933,9	-4,224
934,3	-3,252
934,7	-8,252
935,2	-2,967
935,6	3,09
936	10,348
936,4	13,148
936,8	16,776
937,3	17,49
937,7	21,862
938,1	22,748
938,5	16,119
939	11,662
939,4	9,348
939,8	4,719
940,2	5,548
940,6	6,233
941,1	3,433
941,5	10,69
941,9	10,49
942,3	11,405
942,8	11,233
943,2	11,405
943,6	7,29
944	10,633
944,4	6,719
944,9	6,319
945,3	8,062
945,7	7,633
946,1	4,633
946,6	5,519
947	-0,138
947,4	3,633
947,8	5,09
948,2	1,776
948,7	3,033
949,1	1,005
949,5	7,29
949,9	11,862
950,3	11,776
950,8	10,748
951,2	8,833
951,6	6,176
952	11,576
952,5	6,919
952,9	3,862
953,3	0,719
953,7	-1,081
954,1	3,176
954,6	5,462
955	1,576
955,4	1,033
955,8	4,376
956,2	7,605
956,7	7,49
957,1	4,033
957,5	7,062
957,9	10,805
958,3	9,033
958,8	7,605
959,2	7,69
959,6	11,176
960	12,376
960,5	12,805
960,9	10,748
961,3	11,719
961,7	12,205
962,1	8,662
962,6	8,833
963	10,776
963,4	8,262
963,8	8,748
964,2	8,719
964,7	7,376
965,1	11,576
965,5	9,633
965,9	10,519
966,3	9,89
966,8	7,805
967,2	8,719
967,6	10,176
968	5,09
968,4	4,633
968,9	4,719
969,3	6,662
969,7	9,319
970,1	11,49
970,5	7,433
971	13,09
971,4	13,748
971,8	10,919
972,2	9,148
972,6	8,948
973,1	3,719
973,5	4,262
973,9	3,89
974,3	2,605
974,7	7,833
975,2	10,919
975,6	8,005
976	13,29
976,4	12,062
976,8	9,748
977,3	10,462
977,7	3,662
978,1	2,262
978,5	0,462
978,9	-1,795
979,4	1,49
979,8	-1,538
980,2	0,205
980,6	2,348
981	3,233
981,5	9,119
981,9	9,862
982,3	10,148
982,7	16,976
983,1	11,833
983,6	12,776
984	12,09
984,4	7,519
984,8	7,805
985,2	7,233
985,6	-0,281
986,1	4,633
986,5	5,29
986,9	1,605
987,3	5,29
987,7	4,69
988,2	-1,052
988,6	4,005
989	1,662
989,4	-0,167
989,8	3,319
990,3	1,033
990,7	0,919
991,1	3,919
991,5	0,433
991,9	5,062
992,3	8,89
992,8	5,862
993,2	4,062
993,6	4,205
994	11,033
994,4	16,376
994,9	13,376
995,3	9,862
995,7	14,29
996,1	16,976
996,5	14,005
996,9	3,633
997,4	5,548
997,8	1,519
998,2	0,119
998,6	-8,424
999	-11,424
999,5	-12,052
999,9	-7,681
1000,3	-12,738
1000,7	-10,567
1001,1	-8,567
1001,5	-3,595
1002	1,833
1002,4	5,319
1002,8	6,805
1003,2	10,833
1003,6	10,833
1004	13,719
1004,5	12,433
1004,9	11,519
1005,3	7,948
1005,7	6,062
1006,1	-0,195
1006,6	2,405
1007	-0,281
1007,4	-0,624
1007,8	-0,167
1008,2	-2,024
1008,6	3,69
1009,1	5,862
1009,5	5,033
1009,9	8,062
1010,3	12,519
1010,7	9,633
1011,1	13,948
1011,6	5,376
1012	7,633
1012,4	2,348
1012,8	-2,281
1013,2	-2,081
1013,6	-2,995
1014,1	-2,081
1014,5	3,119
1014,9	1,576
1015,3	3,605
1015,7	4,262
1016,1	2,662
1016,6	1,662
1017	2,262
1017,4	1,348
1017,8	-1,881
1018,2	0,319
1018,6	-0,71
1019,1	-5,338
1019,5	-0,91
1019,9	-5,91
1020,3	-6,224
1020,7	-4,51
1021,1	-5,224
1021,6	-4,395
1022	-1,224
1022,4	-3,624
1022,8	-2,11
1023,2	-2,224
1023,6	-0,367
1024,1	5,205
1024,5	9,319
1024,9	10,433
1025,3	11,576
1025,7	12,119
1026,1	12,062
1026,6	11,205
1027	6,605
1027,4	5,348
1027,8	4,348
1028,2	3,376
1028,6	7,49
1029	8,662
1029,5	12,69
1029,9	12,176
1030,3	6,262
1030,7	8,662
1031,1	9,519
1031,5	6,29
1032	6,89
1032,4	5,89
1032,8	7,433
1033,2	11,348
1033,6	11,033
1034	9,433
1034,4	13,862
1034,9	14,262
1035,3	9,405
1035,7	13,833
1036,1	15,176
1036,5	11,605
1036,9	14,405
1037,4	12,862
1037,8	7,719
1038,2	8,776
1038,6	2,29
1039	3,319
1039,4	8,405
1039,8	4,662
1040,3	5,833
1040,7	8,89
1041,1	8,976
1041,5	10,462
1041,9	7,033
1042,3	4,948
1042,7	5,919
1043,2	0,976
1043,6	-0,795
1044	-3,824
1044,4	-4,31
1044,8	-4,138
1045,2	-4,681
1045,6	-2,052
1046,1	-1,538
1046,5	1,748
1046,9	2,29
1047,3	2,262
1047,7	1,919
1048,1	1,919
1048,5	-1,024
1049	5,348
1049,4	9,462
1049,8	12,719
1050,2	11,776
1050,6	15,833
1051	18,262
1051,4	18,376
1051,9	16,605
1052,3	20,748
1052,7	20,405
1053,1	17,09
1053,5	18,776
1053,9	15,976
1054,3	16,605
1054,8	20,605
1055,2	12,862
1055,6	15,519
1056	22,405
1056,4	16,319
1056,8	14,748
1057,2	14,948
1057,6	5,09
1058,1	0,405
1058,5	-4,024
1058,9	-3,167
1059,3	-1,71
1059,7	-1,024
1060,1	-0,138
1060,5	1,319
1061	6,348
1061,4	8,576
1061,8	7,576
1062,2	7,119
1062,6	5,833
1063	8,033
1063,4	6,49
1063,8	7,576
1064,3	1,776
1064,7	1,176
1065,1	2,148
1065,5	3,405
1065,9	0,462
1066,3	3,319
1066,7	2,148
1067,1	4,89
1067,6	7,062
1068	3,176
1068,4	5,49
1068,8	7,262
1069,2	10,405
1069,6	10,633
1070	13,776
1070,4	9,833
1070,9	12,062
1071,3	8,633
1071,7	4,69
1072,1	6,862
1072,5	2,69
1072,9	2,69
1073,3	3,748
1073,7	4,662
1074,2	5,119
1074,6	10,09
1075	3,205
1075,4	4,605
1075,8	10,319
1076,2	9,119
1076,6	7,033
1077	9,605
1077,5	10,176
1077,9	8,976
1078,3	8,148
1078,7	2,29
1079,1	2,776
1079,5	5,576
1079,9	3,89
1080,3	1,433
1080,7	2,205
1081,2	10,005
1081,6	10,062
1082	10,319
1082,4	12,548
1082,8	13,348
1083,2	12,719
1083,6	11,576
1084	8,119
1084,5	6,033
1084,9	4,776
1085,3	-1,852
1085,7	-1,652
1086,1	-0,967
1086,5	3,319
1086,9	4,49
1087,3	6,69
1087,7	5,376
1088,2	7,719
1088,6	7,862
1089	7,662
1089,4	6,005
1089,8	2,376
1090,2	-0,138
1090,6	-1,367
1091	-0,31
1091,4	-0,338
1091,9	0,348
1092,3	2,548
1092,7	0,262
1093,1	2,605
1093,5	6,862
1093,9	5,719
1094,3	9,548
1094,7	11,919
1095,1	11,09
1095,5	11,805
1096	7,348
1096,4	4,005
1096,8	4,576
1097,2	1,033
1097,6	0,919
1098	2,119
1098,4	3,49
1098,8	8,376
1099,2	14,462
1099,6	15,49
1100,1	15,205
1100,5	13,233
1100,9	11,605
1101,3	11,119
1101,7	8,433
1102,1	5,605
1102,5	4,919
1102,9	6,49
1103,3	6,348
1103,7	5,09
1104,2	3,919
1104,6	6,176
1105	2,119
1105,4	2,605
1105,8	-0,31
1106,2	-2,024
1106,6	-1,995
1107	-0,767
1107,4	-3
1107,8	0,273
1108,3	-0,417
