Data from Subt2_232.txt Node
Date: Sat Aug 26 18:54:18 MSK 2023
User: vat
Spectrometer: MAYP114033
Trigger mode: 0
Integration Time (sec): 1,000000E0
Scans to average: 5
Electric dark correction enabled: true
Nonlinearity correction enabled: false
Boxcar width: 3
XAxis mode: Wavelengths
Number of Pixels in Spectrum: 2068
>>>>>Begin Spectral Data<<<<<
199,4	-0,95
199,9	0,88
200,4	-0,367
200,8	1,714
201,3	2,629
201,8	2,943
202,2	0,714
202,7	3,743
203,2	4,171
203,6	3,686
204,1	1,571
204,6	1,657
205	4,4
205,5	8,057
206	5,4
206,4	6,343
206,9	8,486
207,4	8,743
207,8	8,629
208,3	5,914
208,8	8,114
209,2	11,143
209,7	9,314
210,2	10,343
210,6	8,257
211,1	8,943
211,5	7,657
212	5,857
212,5	2,886
212,9	0,971
213,4	0,571
213,9	-0,286
214,3	-0,943
214,8	-0,257
215,3	-3
215,7	0,143
216,2	3,314
216,7	2,657
217,1	7,143
217,6	8,171
218,1	9,086
218,5	9,629
219	3,743
219,5	3,029
219,9	0,629
220,4	3,771
220,9	1,714
221,3	3,6
221,8	6,143
222,3	12,629
222,7	13,2
223,2	13,771
223,6	10
224,1	8,686
224,6	9,457
225	6,486
225,5	4,457
226	3,343
226,4	6
226,9	7,229
227,4	9,943
227,8	3,6
228,3	3,686
228,8	0,543
229,2	2,4
229,7	1,229
230,2	0,6
230,6	4,229
231,1	14,343
231,5	19,686
232	22,2
232,5	18,486
232,9	19,886
233,4	20,8
233,9	18,8
234,3	11,314
234,8	8,171
235,3	8,229
235,7	13,314
236,2	15,029
236,7	12,829
237,1	13,114
237,6	10,114
238,1	4,6
238,5	-3,314
239	-9,114
239,4	-8,4
239,9	-9,114
240,4	-9,257
240,8	-2,486
241,3	2,257
241,8	8,143
242,2	9,914
242,7	5,029
243,2	6,029
243,6	2,543
244,1	3,886
244,6	3,314
245	3,6
245,5	7,629
245,9	6,343
246,4	6,171
246,9	8,6
247,3	7,086
247,8	8,686
248,3	12,314
248,7	12,086
249,2	15,371
249,7	13,657
250,1	16,6
250,6	13,743
251	17,514
251,5	14,457
252	9,857
252,4	7,6
252,9	10,029
253,4	2,6
253,8	1,6
254,3	0,943
254,8	2
255,2	2,971
255,7	4,457
256,1	5
256,6	9,229
257,1	12,571
257,5	0,629
258	0,657
258,5	3,629
258,9	5,143
259,4	1,286
259,9	3
260,3	-1,371
260,8	6,486
261,2	6,171
261,7	5,886
262,2	4,2
262,6	6,857
263,1	7,743
263,6	11,8
264	14,257
264,5	15,314
264,9	10,371
265,4	12
265,9	10,4
266,3	11,514
266,8	11,114
267,3	8
267,7	6,314
268,2	14,314
268,7	13,657
269,1	16,057
269,6	10,629
270	11,6
270,5	11,429
271	13,514
271,4	8,343
271,9	6,2
272,4	9,486
272,8	12,6
273,3	9,743
273,7	12,114
274,2	11,771
274,7	9,4
275,1	12,743
275,6	11,171
276,1	6,829
276,5	11,629
277	9,657
277,4	7,743
277,9	12,686
278,4	13,486
278,8	16,086
279,3	22,057
279,8	19,143
280,2	21,657
280,7	25,714
281,1	20,914
281,6	18,171
282,1	13,629
282,5	9,714
283	12,229
283,4	11,114
283,9	9,171
284,4	15,171
284,8	17
285,3	18,8
285,8	20
286,2	15,371
286,7	11,771
287,1	7,771
287,6	6,629
288,1	-0,629
288,5	-1,4
289	-3,829
289,5	-1,229
289,9	0,714
290,4	8
290,8	7,686
291,3	10,971
291,8	10,429
292,2	11,171
292,7	13
293,1	14,2
293,6	13,743
294,1	13,457
294,5	13,029
295	14,571
295,5	13,457
295,9	11,714
296,4	7,571
296,8	3,514
297,3	2,743
297,8	2,257
298,2	0,4
298,7	5,171
299,1	5,571
299,6	6,6
300,1	11,314
300,5	13,229
301	19,143
301,5	24,943
301,9	21,743
302,4	19
302,8	19,8
303,3	14,971
303,8	9,771
304,2	3,886
304,7	-4,4
305,1	-4,371
305,6	-2,971
306,1	5,4
306,5	8,114
307	15,343
307,4	23,686
307,9	26,543
308,4	25,286
308,8	20,057
309,3	13,657
309,8	11,914
310,2	11,229
310,7	3,457
311,1	4,257
311,6	4,886
312,1	12,114
312,5	17,943
313	18,743
313,4	14,714
313,9	17,029
314,4	13,343
314,8	11,086
315,3	5,6
315,7	-4,714
316,2	-8,371
316,7	-8,571
317,1	-7,943
317,6	-2,629
318	3,086
318,5	5,143
319	9,829
319,4	13,343
319,9	17,2
320,3	20,457
320,8	16,8
321,3	16,829
321,7	17,514
322,2	17,514
322,6	19,257
323,1	13,171
323,6	9,829
324	8,6
324,5	2,943
324,9	2,343
325,4	1,8
325,9	0,371
326,3	3,286
326,8	2,771
327,2	-0,714
327,7	1,6
328,2	0,486
328,6	2,829
329,1	-4,086
329,5	-5,771
330	-3,514
330,5	4,829
330,9	5,029
331,4	8,629
331,8	6,057
332,3	12
332,8	11,943
333,2	8,343
333,7	7,743
334,1	8,8
334,6	6,429
335,1	0,514
335,5	1,571
336	-0,314
336,4	5,914
336,9	12,314
337,4	15,4
337,8	17,371
338,3	22,714
338,7	21,829
339,2	23,171
339,7	20,857
340,1	11,543
340,6	8,829
341	6,543
341,5	7,943
342	2,429
342,4	3,743
342,9	-0,371
343,3	0,886
343,8	-0,143
344,2	2,571
344,7	2,714
345,2	6,886
345,6	5,743
346,1	12,257
346,5	12,343
347	10,771
347,5	11,229
347,9	17,2
348,4	17,943
348,8	22,543
349,3	22,886
349,8	26,543
350,2	33,514
350,7	28,771
351,1	23,514
351,6	30,029
352	29,971
352,5	30,571
353	35,086
353,4	37,029
353,9	48,914
354,3	60,514
354,8	63,057
355,3	78,343
355,7	95,4
356,2	109,171
356,6	128,714
357,1	153,771
357,5	174,686
358	206,257
358,5	237,771
358,9	269,629
359,4	310,229
359,8	356,2
360,3	412,371
360,8	469,886
361,2	538,429
361,7	612,057
362,1	695,886
362,6	786,4
363	881,429
363,5	973,2
364	1089,114
364,4	1195
364,9	1300
365,3	1406,429
365,8	1504,829
366,3	1590,743
366,7	1676,343
367,2	1743,886
367,6	1803,514
368,1	1850,457
368,5	1880,486
369	1896,371
369,5	1904,857
369,9	1892,086
370,4	1861,371
370,8	1822,2
371,3	1767,143
371,7	1702,057
372,2	1626,457
372,7	1545,4
373,1	1459,943
373,6	1375,2
374	1291,886
374,5	1207,8
374,9	1123,229
375,4	1046,686
375,9	973,314
376,3	896,2
376,8	827,857
377,2	758,6
377,7	695,086
378,2	633,914
378,6	581,143
379,1	530,714
379,5	490,257
380	448,629
380,4	408,314
380,9	373,886
381,4	347,829
381,8	324,086
382,3	300,486
382,7	281,8
383,2	261,971
383,6	245,886
384,1	231,514
384,6	218,429
385	199,371
385,5	186,829
385,9	168,914
386,4	155,543
386,8	145,971
387,3	133,429
387,7	125,4
388,2	121,343
388,7	109,029
389,1	107,6
389,6	103,629
390	95,657
390,5	95,2
390,9	86,371
391,4	76,514
391,9	73,8
392,3	69,286
392,8	62,686
393,2	59
393,7	54,343
394,1	53,486
394,6	51,314
395,1	50,4
395,5	43,829
396	46,714
396,4	43,914
396,9	38,6
397,3	40,2
397,8	40,286
398,2	41,086
398,7	44,171
399,2	41,571
399,6	46
400,1	45,714
400,5	38,143
401	37,971
401,4	33,257
401,9	32,829
402,4	32,257
402,8	25,086
403,3	31,971
403,7	32,6
404,2	33,857
404,6	37,086
405,1	33,914
405,5	33,371
406	34,857
406,5	32,971
406,9	35,143
407,4	35,514
407,8	37,886
408,3	40,914
408,7	38,914
409,2	46,4
409,6	47,029
410,1	51,571
410,6	56,857
411	55,943
411,5	54,686
411,9	57,6
412,4	55,686
412,8	60,029
413,3	57,714
413,7	51
414,2	50,629
414,7	55,771
415,1	65,686
415,6	71,457
416	72,171
416,5	77,114
416,9	83,714
417,4	92,686
417,8	99,829
418,3	99,057
418,8	97
419,2	97,171
419,7	100,629
420,1	105,171
420,6	106,057
421	100,029
421,5	103,514
421,9	109,029
422,4	111,457
422,8	111,2
423,3	108,371
423,8	108,657
424,2	109,971
424,7	105,143
425,1	103,714
425,6	105,971
426	107,057
426,5	111,171
426,9	110,6
427,4	110,914
427,9	107,743
428,3	106,714
428,8	108,829
429,2	106,229
429,7	102,686
430,1	100,114
430,6	101,114
431	105,2
431,5	107,686
431,9	102,171
432,4	107,2
432,8	111,371
433,3	114,371
433,8	119,114
434,2	122,057
434,7	126,971
435,1	132,143
435,6	132,571
436	133,171
436,5	141,971
436,9	146,343
437,4	153,143
437,8	159,571
438,3	166,971
438,8	171,229
439,2	181,657
439,7	186,429
440,1	198,6
440,6	211,771
441	213,171
441,5	220
441,9	233,114
442,4	236,971
442,8	246
443,3	253,343
443,7	259,029
444,2	277,457
444,7	288,2
445,1	302,686
445,6	320,086
446	334,771
446,5	346,4
446,9	354,571
447,4	361,2
447,8	376,829
448,3	388,943
448,7	400
449,2	418,314
449,6	434,743
450,1	453,8
450,6	477,571
451	493,543
451,5	510,029
451,9	534,143
452,4	550,771
452,8	568,8
453,3	591,657
453,7	607,486
454,2	635,8
454,6	657,771
455,1	677,886
455,5	698,429
456	725,543
456,4	744,8
456,9	773,943
457,3	795,571
457,8	817,457
458,3	847,4
458,7	877,086
459,2	898,657
459,6	927,143
460,1	953,6
460,5	977,457
461	1011,286
461,4	1032,6
461,9	1060,2
462,3	1090,657
462,8	1125,2
463,2	1150,8
463,7	1183,571
464,1	1217,2
464,6	1254,771
465	1286,143
465,5	1321,771
466	1352,429
466,4	1384,886
466,9	1419,657
467,3	1447,914
467,8	1479,371
468,2	1511,486
468,7	1544,8
469,1	1583,2
469,6	1625,257
470	1661,571
470,5	1696,914
470,9	1729,686
471,4	1762,486
471,8	1795,914
472,3	1829,771
472,7	1862,314
473,2	1897,257
473,6	1932,829
474,1	1975,371
474,5	2019,743
475	2062,057
475,4	2095,629
475,9	2130,943
476,4	2164,171
476,8	2201,686
477,3	2233,371
477,7	2265,2
478,2	2299,429
478,6	2329,343
479,1	2362,086
479,5	2395,714
480	2430,057
480,4	2461,314
480,9	2487,229
481,3	2509
481,8	2545,171
482,2	2572,257
482,7	2599,886
483,1	2626,971
483,6	2655,343
484	2683,314
484,5	2709,714
484,9	2730,257
485,4	2760,971
485,8	2784,2
486,3	2806,886
486,7	2830,314
487,2	2859,314
487,6	2886,886
488,1	2910,343
488,5	2923,486
489	2947,314
489,4	2974,771
489,9	3002,457
490,4	3015,257
490,8	3030,2
491,3	3050,857
491,7	3072,371
492,2	3101,543
492,6	3114,029
493,1	3120,343
493,5	3135,886
494	3150,543
494,4	3166,429
494,9	3180,829
495,3	3183,314
495,8	3191,886
496,2	3209,371
496,7	3220,971
497,1	3240,886
497,6	3255,829
498	3274,543
498,5	3289,514
498,9	3300,743
499,4	3307,714
499,8	3330,114
500,3	3341,8
500,7	3346,314
501,2	3349,886
501,6	3353,171
502,1	3364,314
502,5	3375,057
503	3377,571
503,4	3381,657
503,9	3387,971
504,3	3400,543
504,8	3418,371
505,2	3428,8
505,7	3433,6
506,1	3445,686
506,6	3447,657
507	3459,971
507,5	3467,429
507,9	3466,486
508,4	3473,4
508,8	3485,914
509,3	3487,229
509,7	3500,057
510,2	3505,971
510,6	3506,2
511,1	3508,857
511,5	3509,629
512	3507,914
512,4	3517,171
512,9	3521,714
513,3	3524,229
513,8	3531,457
514,2	3543,143
514,7	3552,571
515,1	3563,057
515,6	3564,086
516	3560,343
516,5	3571,914
516,9	3574,943
517,4	3578,486
517,8	3583,971
518,3	3587,571
518,7	3594,514
519,2	3609,057
519,6	3606,114
520,1	3614,171
520,5	3622,571
521	3620,771
521,4	3627,4
521,9	3631,171
522,3	3635,4
522,8	3639,686
523,2	3649,257
523,7	3653,086
524,1	3669,114
524,6	3674,457
525	3683,429
525,5	3685,857
525,9	3697,343
526,4	3696,971
526,8	3703,629
527,3	3706,029
527,7	3718,914
528,2	3722,171
528,6	3729,086
529,1	3741,429
529,5	3752,114
530	3756,657
530,4	3768,371
530,9	3766,829
531,3	3779,6
531,8	3789,514
532,2	3791,371
532,6	3796,714
533,1	3809,943
533,5	3810,314
534	3822,857
534,4	3826,571
534,9	3834,829
535,3	3844,657
535,8	3853,343
536,2	3858,429
536,7	3869,171
537,1	3872,543
537,6	3883,6
538	3891,457
538,5	3899,171
538,9	3895,371
539,4	3899,886
539,8	3910,829
540,3	3924,886
540,7	3928,714
541,2	3937,114
541,6	3943,2
542,1	3959,714
542,5	3967,371
543	3972,2
543,4	3973,086
543,9	3977,686
544,3	3989,057
544,8	3998,714
545,2	4008,257
545,7	4018
546,1	4030,257
546,5	4044,171
547	4060,486
547,4	4066,314
547,9	4071,743
548,3	4080,657
548,8	4094,257
549,2	4097,229
549,7	4100,486
550,1	4106,143
550,6	4117,771
551	4129,543
551,5	4136,886
551,9	4133,343
552,4	4147,114
552,8	4159,057
553,3	4166,571
553,7	4163,2
554,2	4165,657
554,6	4173,314
555,1	4192,371
555,5	4188,657
555,9	4191,629
556,4	4199,286
556,8	4206,543
557,3	4217,886
557,7	4230,657
558,2	4230,686
558,6	4248,714
559,1	4255,314
559,5	4257,2
560	4270,457
560,4	4276,686
560,9	4274,571
561,3	4284,6
561,8	4278,457
562,2	4292,286
562,7	4296,6
563,1	4304,686
563,6	4305,943
564	4311,314
564,4	4315,314
564,9	4320,8
565,3	4318,6
565,8	4326,714
566,2	4325,029
566,7	4324,714
567,1	4331,943
567,6	4333,286
568	4339,314
568,5	4340,429
568,9	4337,029
569,4	4340,314
569,8	4344,371
570,3	4345,914
570,7	4341,971
571,1	4350,143
571,6	4354,086
572	4367,714
572,5	4370,543
572,9	4372,429
573,4	4369,457
573,8	4378,143
574,3	4370,457
574,7	4370,886
575,2	4360,057
575,6	4363,229
576,1	4368,6
576,5	4377,4
576,9	4369,514
577,4	4365,2
577,8	4359,257
578,3	4356,086
578,7	4351,686
579,2	4343,2
579,6	4335,8
580,1	4327,629
580,5	4331,714
581	4323,914
581,4	4321,286
581,9	4307,829
582,3	4301,943
582,7	4297,771
583,2	4296,8
583,6	4288,2
584,1	4289,4
584,5	4283,457
585	4279,686
585,4	4265,943
585,9	4250,829
586,3	4244,8
586,8	4241,943
587,2	4233,143
587,6	4228,029
588,1	4227,143
588,5	4227,657
589	4228,657
589,4	4220
589,9	4211,029
590,3	4205,171
590,8	4198,4
591,2	4192,314
591,7	4190,286
592,1	4179,057
592,5	4178,171
593	4170,343
593,4	4162,029
593,9	4152,686
594,3	4143,771
594,8	4134,714
595,2	4122,914
595,7	4120,743
596,1	4112,429
596,6	4106,171
597	4100,114
597,4	4091,114
597,9	4086
598,3	4087,943
598,8	4076,371
599,2	4073,743
599,7	4062,4
600,1	4050
600,6	4040,2
601	4029,714
601,4	4023,886
601,9	4013,4
602,3	4002,943
602,8	3995,8
603,2	3992,714
603,7	3985,914
604,1	3977,571
604,6	3957,886
605	3944,943
605,4	3936,943
605,9	3924,943
606,3	3905,343
606,8	3894,886
607,2	3881,286
607,7	3868,657
608,1	3856,914
608,6	3840,029
609	3832,571
609,4	3826,943
609,9	3819,029
610,3	3806,343
610,8	3795,343
611,2	3786,229
611,7	3772,743
612,1	3758,943
612,6	3745,143
613	3726,6
613,4	3714,629
613,9	3702,743
614,3	3691,4
614,8	3680,286
615,2	3663,771
615,7	3658,029
616,1	3643,029
616,6	3628,629
617	3616,8
617,4	3597,686
617,9	3587,257
618,3	3579,371
618,8	3563,343
619,2	3549,343
619,7	3534,543
620,1	3517,286
620,5	3512,057
621	3493,914
621,4	3480,571
621,9	3461,543
622,3	3447,229
622,8	3431,229
623,2	3414,971
623,6	3394,429
624,1	3377,4
624,5	3357,257
625	3348,457
625,4	3334,257
625,9	3318,571
626,3	3307,686
626,8	3292,543
627,2	3278,629
627,6	3256,257
628,1	3236,086
628,5	3220,514
629	3208,029
629,4	3196,514
629,9	3182,343
630,3	3163,571
630,7	3158,086
631,2	3144,343
631,6	3129
632,1	3112,029
632,5	3092,886
633	3073,286
633,4	3057,086
633,8	3039,371
634,3	3024,629
634,7	3007,371
635,2	2993,314
635,6	2975,514
636,1	2962,486
636,5	2948,743
636,9	2931,971
637,4	2910,486
637,8	2892,057
638,3	2874,943
638,7	2860,286
639,2	2845,771
639,6	2837,371
640	2823,086
640,5	2817,171
640,9	2808,286
641,4	2792,857
641,8	2777,2
642,2	2761,629
642,7	2746,6
643,1	2735,371
643,6	2719,343
644	2708,829
644,5	2699,143
644,9	2689,371
645,3	2672,457
645,8	2651,343
646,2	2637,457
646,7	2621,629
647,1	2603,429
647,6	2590,286
648	2575,286
648,4	2562,257
648,9	2553,771
649,3	2537,771
649,8	2527,057
650,2	2514,429
650,6	2502,686
651,1	2488,657
651,5	2483,2
652	2466,971
652,4	2449,629
652,9	2432,829
653,3	2423,029
653,7	2403,457
654,2	2389,2
654,6	2368,343
655,1	2358,486
655,5	2354,743
655,9	2340,4
656,4	2322,857
656,8	2313,2
657,3	2303,8
657,7	2294,514
658,2	2278,657
658,6	2260,371
659	2245,8
659,5	2233,771
659,9	2215,029
660,4	2201,457
660,8	2183,714
661,2	2169,4
661,7	2160,686
662,1	2144,314
662,6	2129,886
663	2120,743
663,4	2102
663,9	2089,743
664,3	2078,686
664,8	2058,143
665,2	2048,714
665,6	2033,314
666,1	2018,143
666,5	2012,829
667	2001,857
667,4	1987,486
667,9	1976,857
668,3	1963,571
668,7	1949,457
669,2	1944,029
669,6	1928,914
670,1	1916,2
670,5	1903,686
670,9	1891,743
671,4	1874,429
671,8	1865,343
672,3	1850,8
672,7	1842,457
673,1	1824,171
673,6	1811,257
674	1802,543
674,5	1795,2
674,9	1782,457
675,3	1767,114
675,8	1750,943
676,2	1741,514
676,7	1726,257
677,1	1711,486
677,5	1700,714
678	1692,4
678,4	1684,2
678,9	1669,771
679,3	1663,343
679,7	1659,057
680,2	1645,6
680,6	1630,771
681,1	1620,171
681,5	1609,714
681,9	1605,914
682,4	1593,771
682,8	1581,657
683,3	1573,8
683,7	1570,143
684,1	1560,829
684,6	1553,114
685	1538,6
685,5	1531,086
685,9	1518,143
686,3	1505,171
686,8	1496,343
687,2	1486,771
687,7	1470,686
688,1	1459,571
688,5	1448
689	1441,857
689,4	1434,057
689,9	1417,914
690,3	1402,314
690,7	1398,143
691,2	1395,886
691,6	1384,543
692	1374,857
692,5	1366,029
692,9	1359,143
693,4	1348,657
693,8	1336,286
694,2	1321,771
694,7	1314,686
695,1	1308,229
695,6	1302,029
696	1296,543
696,4	1291,943
696,9	1278,171
697,3	1267,429
697,8	1252,029
698,2	1240,543
698,6	1232,029
699,1	1224,457
699,5	1223,886
699,9	1221,086
700,4	1211,8
700,8	1209,771
701,3	1204,886
701,7	1192
702,1	1179,143
702,6	1163,486
703	1153,629
703,5	1144,143
703,9	1136,514
704,3	1130,314
704,8	1119,943
705,2	1117,829
705,6	1113,029
706,1	1104,771
706,5	1100,6
707	1093,229
707,4	1083,514
707,8	1079,457
708,3	1067,114
708,7	1060,114
709,2	1050,886
709,6	1045,371
710	1043,114
710,5	1031,6
710,9	1027,314
711,3	1022,543
711,8	1013,171
712,2	1010,171
712,7	1000,714
713,1	987,743
713,5	986,8
714	978,543
714,4	968,114
714,8	963,257
715,3	957,486
715,7	954,943
716,2	946,286
716,6	941,057
717	929,971
717,5	925,743
717,9	917,771
718,3	908,457
718,8	902,114
719,2	896,829
719,7	882,914
720,1	886,571
720,5	883,829
721	873,514
721,4	864,4
721,8	857,2
722,3	849,571
722,7	846,629
723,2	828
723,6	809,114
724	804,029
724,5	797,629
724,9	786,143
725,3	781,6
725,8	774,057
726,2	773,143
726,7	771,286
727,1	766,314
727,5	765
728	763,514
728,4	757,2
728,8	752
729,3	744,314
729,7	744,314
730,1	736,343
730,6	729,143
731	721,971
731,5	719,314
731,9	716,8
732,3	713,914
732,8	710,714
733,2	711
733,6	704,971
734,1	700,143
734,5	695,829
734,9	692,143
735,4	689,743
735,8	678,486
736,3	674,857
736,7	670,4
737,1	667,314
737,6	663,686
738	656,914
738,4	653
738,9	655,914
739,3	647,143
739,7	645,543
740,2	640,029
740,6	639,314
741,1	638,286
741,5	629,571
741,9	623,543
742,4	623,486
742,8	619,686
743,2	623,543
743,7	611,2
744,1	598,857
744,5	598,029
745	590,743
745,4	585,543
745,8	585
746,3	577,8
746,7	575,943
747,2	581,486
747,6	583,429
748	584,714
748,5	582,857
748,9	576,714
749,3	570,086
749,8	568,571
750,2	562,829
750,6	550,2
751,1	549,514
751,5	539,8
751,9	534,571
752,4	532,771
752,8	528,886
753,3	521,829
753,7	523,429
754,1	508,543
754,6	507,686
755	504,029
755,4	496,114
755,9	489,8
756,3	488,686
756,7	486,8
757,2	491,171
757,6	492,8
758	487,257
758,5	485,6
758,9	482,114
759,3	480,743
759,8	476,343
760,2	469,771
760,6	459,657
761,1	454,657
761,5	451,743
761,9	450,486
762,4	440,743
762,8	438,229
763,3	435,171
763,7	433,343
764,1	435,8
764,6	431,371
765	430,771
765,4	431,286
765,9	426,857
766,3	430,2
766,7	427,4
767,2	418,743
767,6	419,943
768	412,571
768,5	410,171
768,9	410,629
769,3	404,371
769,8	402,429
770,2	407,371
770,6	403,143
771,1	407,314
771,5	403,914
771,9	400,143
772,4	400,686
772,8	399,429
773,2	394,686
773,7	389,057
774,1	382,857
774,5	381,029
775	375,571
775,4	371,057
775,8	366,029
776,3	366,114
776,7	367,257
777,1	367,943
777,6	364,057
778	365,971
778,4	362,771
778,9	360,371
779,3	353,743
779,7	350,771
780,2	343,543
780,6	342,343
781	333,743
781,5	325,629
781,9	321,486
782,3	318,6
782,8	314,429
783,2	311,086
783,6	311,343
784,1	308,2
784,5	308,371
784,9	307,486
785,4	308,971
785,8	307,457
786,2	307,829
786,7	301,743
787,1	299,6
787,5	297,714
788	297,457
788,4	294,743
788,8	294,257
789,3	290,743
789,7	289,543
790,1	290,486
790,6	292,114
791	286,514
791,4	285,629
791,9	283,057
792,3	276,514
792,7	279,686
793,2	276,686
793,6	275
794	278,543
794,5	269,857
794,9	271,486
795,3	273,914
795,8	268,4
796,2	268,429
796,6	264,686
797,1	260,114
797,5	259,486
797,9	252,514
798,4	249,029
798,8	245,4
799,2	241,114
799,7	240,629
800,1	236,8
800,5	234,543
801	235,143
801,4	236,229
801,8	234,429
802,2	233,114
802,7	228,486
803,1	228,829
803,5	230,857
804	225,371
804,4	225,714
804,8	223,429
805,3	225,171
805,7	227,943
806,1	223,4
806,6	223,114
807	225
807,4	221,371
807,9	215,257
808,3	211,657
808,7	205,429
809,2	211,514
809,6	210,543
810	208,829
810,4	205,6
810,9	209,629
811,3	209
811,7	211,229
812,2	206,771
812,6	202,286
813	203,943
813,5	203,629
813,9	200,029
814,3	194,943
814,8	186,771
815,2	181,686
815,6	178,229
816,1	175,171
816,5	174,4
816,9	175,543
817,3	175,457
817,8	181,514
818,2	181,429
818,6	179,143
819,1	177,257
819,5	176,286
819,9	175,771
820,4	173,971
820,8	171,857
821,2	168,314
821,7	168,714
822,1	166,343
822,5	169,629
822,9	167,057
823,4	167
823,8	166,171
824,2	169,143
824,7	165,686
825,1	161,743
825,5	150,086
826	143,571
826,4	140,314
826,8	131,829
827,3	132,771
827,7	130,714
828,1	128,886
828,5	129,886
829	129,6
829,4	130,543
829,8	126,6
830,3	122,286
830,7	123,143
831,1	126,371
831,6	128,714
832	130,114
832,4	130,629
832,8	135,8
833,3	130,571
833,7	130
834,1	122,514
834,6	119,629
835	122,829
835,4	121,371
835,8	115
836,3	116,029
836,7	118,686
837,1	117,457
837,6	121,429
838	116,4
838,4	113,514
838,9	119,086
839,3	116,886
839,7	112,543
840,1	112,771
840,6	107
841	110,314
841,4	109,114
841,9	108,029
842,3	110,571
842,7	111,514
843,1	113,429
843,6	114,686
844	110,371
844,4	113,4
844,9	115
845,3	114,857
845,7	110,314
846,2	110,286
846,6	106,343
847	105,6
847,4	100,486
847,9	99,314
848,3	96,057
848,7	100,143
849,2	98,543
849,6	94,657
850	98,429
850,4	100
850,9	96,2
851,3	99,257
851,7	95,714
852,2	91,343
852,6	99,029
853	97,6
853,4	96,457
853,9	94,571
854,3	91,886
854,7	94,429
855,2	98,857
855,6	93,371
856	88,629
856,4	84,571
856,9	84,657
857,3	85,114
857,7	82,971
858,2	83
858,6	84,486
859	84,229
859,4	83,171
859,9	81,914
860,3	76,371
860,7	79,914
861,1	80,857
861,6	78,371
862	77,714
862,4	79,257
862,9	79,457
863,3	84,514
863,7	77,4
864,1	75,514
864,6	72,857
865	72,914
865,4	74,114
865,9	76,514
866,3	73,229
866,7	72,686
867,1	69,457
867,6	69,8
868	66,771
868,4	67,143
868,8	65,086
869,3	64,829
869,7	70,314
870,1	66,343
870,6	69,943
871	19,371
871,4	20,686
871,8	19,857
872,3	21,657
872,7	21,257
873,1	24,743
873,5	22,657
874	74,286
874,4	73,257
874,8	71,6
875,3	73,6
875,7	68,571
876,1	65,143
876,5	64,286
877	60,886
877,4	55,686
877,8	58,4
878,2	52,829
878,7	55,314
879,1	58,286
879,5	63,6
879,9	69
880,4	68,429
880,8	65,629
881,2	65,686
881,7	61,657
882,1	63,171
882,5	54,8
882,9	51,657
883,4	55,4
883,8	56,057
884,2	54,229
884,6	50,771
885,1	48,229
885,5	47,657
885,9	50
886,3	49,743
886,8	48,086
887,2	45,486
887,6	46,943
888	45,314
888,5	47,629
888,9	42,286
889,3	35,771
889,8	32,571
890,2	37,286
890,6	35,2
891	33,657
891,5	32,486
891,9	36,629
892,3	38,286
892,7	42,086
893,2	39,857
893,6	44,486
894	48,829
894,4	46,686
894,9	42,714
895,3	43,971
895,7	42,743
896,1	42,229
896,6	41,257
897	40,857
897,4	49,457
897,8	52,857
898,3	53,543
898,7	52,543
899,1	55,229
899,5	54,857
900	48,971
900,4	40,943
900,8	34,286
901,2	32,714
901,7	33
902,1	33,314
902,5	33,314
902,9	33,714
903,4	34,4
903,8	39,286
904,2	38,886
904,6	36,6
905,1	31,086
905,5	32,657
905,9	37,714
906,3	38,571
906,8	40,886
907,2	40,743
907,6	41,143
908	46,171
908,5	41,714
908,9	36,2
909,3	33,2
909,7	29,914
910,2	30,143
910,6	37,657
911	31,743
911,4	36,914
911,9	35,743
912,3	36,829
912,7	38,629
913,1	39,114
913,6	30,886
914	33,143
914,4	25,629
914,8	31,743
915,3	26,829
915,7	22,714
916,1	20,257
916,5	21,914
916,9	21,4
917,4	25,057
917,8	25,171
918,2	25,143
918,6	24,771
919,1	25,229
919,5	30,2
919,9	32
920,3	31,029
920,8	23,971
921,2	26,371
921,6	25,6
922	24
922,5	18,629
922,9	17,829
923,3	18,171
923,7	24,4
924,2	19,971
924,6	21,829
925	25,743
925,4	22,457
925,8	20,857
926,3	19,314
926,7	14,771
927,1	21,429
927,5	25,2
928	19,029
928,4	17,143
928,8	18,543
929,2	17,886
929,7	22,029
930,1	23,229
930,5	20,743
930,9	25,2
931,3	31,886
931,8	30,971
932,2	31,6
932,6	26,657
933	21,514
933,5	18,914
933,9	18,714
934,3	18,2
934,7	13,543
935,2	14,686
935,6	12,4
936	16,857
936,4	18,057
936,8	20,343
937,3	15,886
937,7	19,943
938,1	24,514
938,5	25
939	23,971
939,4	25,057
939,8	22,171
940,2	23,743
940,6	27,057
941,1	22,343
941,5	29,057
941,9	23,771
942,3	18,886
942,8	21,829
943,2	24,314
943,6	18,743
944	16,771
944,4	12,086
944,9	10,514
945,3	13,486
945,7	9,143
946,1	7,743
946,6	6,429
947	10,143
947,4	12,914
947,8	17,429
948,2	16,286
948,7	16,143
949,1	19,429
949,5	27,971
949,9	24,857
950,3	23,086
950,8	24,4
951,2	24,143
951,6	25,343
952	21,429
952,5	14,229
952,9	16,429
953,3	16,543
953,7	16,086
954,1	17,286
954,6	20,029
955	21,686
955,4	20,286
955,8	20,914
956,2	19,171
956,7	20,714
957,1	20,686
957,5	18,343
957,9	16,6
958,3	18,314
958,8	18,114
959,2	20,171
959,6	21,457
960	17,914
960,5	19,743
960,9	22,086
961,3	19,629
961,7	17,486
962,1	15,857
962,6	14,857
963	19,371
963,4	10,029
963,8	7,2
964,2	13,857
964,7	15
965,1	18,457
965,5	17,343
965,9	15
966,3	24
966,8	25
967,2	20,771
967,6	19,514
968	14,714
968,4	12,743
968,9	17,2
969,3	18,543
969,7	15,514
970,1	16,657
970,5	14,4
971	18,686
971,4	20,029
971,8	15,943
972,2	12,143
972,6	12,257
973,1	11,114
973,5	13,971
973,9	14,371
974,3	15,6
974,7	17,571
975,2	19,343
975,6	16,686
976	17,886
976,4	13,714
976,8	12,343
977,3	5,6
977,7	6,029
978,1	4,629
978,5	5,686
978,9	2,086
979,4	5,057
979,8	2,4
980,2	6,6
980,6	2,829
981	3,029
981,5	5,4
981,9	8,971
982,3	9,286
982,7	11,829
983,1	9,2
983,6	11,629
984	9,829
984,4	10,143
984,8	8,6
985,2	11,2
985,6	8,457
986,1	11,457
986,5	13,857
986,9	9,714
987,3	10,486
987,7	11,4
988,2	9,257
988,6	9,371
989	9,4
989,4	5,314
989,8	8,629
990,3	7
990,7	6,457
991,1	4,943
991,5	7,371
991,9	8
992,3	9,629
992,8	8,886
993,2	10,286
993,6	14,543
994	17,829
994,4	16,543
994,9	16,771
995,3	17,771
995,7	17,2
996,1	15,6
996,5	13,086
996,9	7,114
997,4	7,829
997,8	3,143
998,2	-2,543
998,6	-4,286
999	-3,486
999,5	-6,8
999,9	-4,057
1000,3	-10,143
1000,7	-4,4
1001,1	-2,914
1001,5	1,6
1002	8,057
1002,4	11,286
1002,8	10,886
1003,2	20,971
1003,6	20,486
1004	24,829
1004,5	21,629
1004,9	17,143
1005,3	12,314
1005,7	13,657
1006,1	9,971
1006,6	5,257
1007	2,686
1007,4	4,857
1007,8	4,114
1008,2	4,686
1008,6	6,657
1009,1	6,171
1009,5	10,486
1009,9	11,314
1010,3	12,029
1010,7	10,914
1011,1	13,2
1011,6	13,714
1012	17
1012,4	14,743
1012,8	10,686
1013,2	13,343
1013,6	16,657
1014,1	12,686
1014,5	10,2
1014,9	6,429
1015,3	6,171
1015,7	12,343
1016,1	11,571
1016,6	8,714
1017	14,2
1017,4	13
1017,8	14,343
1018,2	17,257
1018,6	14,057
1019,1	13,743
1019,5	13,8
1019,9	7,943
1020,3	8,857
1020,7	4,457
1021,1	3,086
1021,6	2,857
1022	6,829
1022,4	9,257
1022,8	13,829
1023,2	12,171
1023,6	15,771
1024,1	19,714
1024,5	23,057
1024,9	17,229
1025,3	14,829
1025,7	12,714
1026,1	17,486
1026,6	20,171
1027	16,914
1027,4	16,6
1027,8	15,514
1028,2	12,314
1028,6	17,914
1029	13,171
1029,5	16,6
1029,9	14,486
1030,3	10,371
1030,7	13,771
1031,1	20,171
1031,5	15,514
1032	18,029
1032,4	12,771
1032,8	16,229
1033,2	17,629
1033,6	13,857
1034	9,686
1034,4	7,029
1034,9	8
1035,3	4,543
1035,7	5,771
1036,1	2,6
1036,5	2,286
1036,9	2,657
1037,4	10,629
1037,8	6,971
1038,2	10,314
1038,6	6,886
1039	10,257
1039,4	15,4
1039,8	10,086
1040,3	7,114
1040,7	8,114
1041,1	8,829
1041,5	9,343
1041,9	7,486
1042,3	7,8
1042,7	17,4
1043,2	15,514
1043,6	11,829
1044	10,429
1044,4	9,514
1044,8	12,143
1045,2	4,114
1045,6	-0,029
1046,1	1,343
1046,5	2,314
1046,9	-1,8
1047,3	0,114
1047,7	-3,457
1048,1	-2,086
1048,5	-1,343
1049	-0,457
1049,4	2,857
1049,8	3,343
1050,2	2,914
1050,6	12,8
1051	17,829
1051,4	19,086
1051,9	18,314
1052,3	24,914
1052,7	26,943
1053,1	26,229
1053,5	20,571
1053,9	19,657
1054,3	18
1054,8	20,6
1055,2	14,6
1055,6	17,4
1056	17,914
1056,4	17,857
1056,8	14,886
1057,2	16,371
1057,6	7,2
1058,1	7,2
1058,5	1,657
1058,9	3,514
1059,3	3,4
1059,7	8,714
1060,1	8,914
1060,5	16,257
1061	15,629
1061,4	19,286
1061,8	17,029
1062,2	16,686
1062,6	12,6
1063	14,486
1063,4	15,686
1063,8	14,629
1064,3	13,086
1064,7	13,943
1065,1	13,629
1065,5	11,857
1065,9	10,8
1066,3	5,314
1066,7	1,229
1067,1	2,457
1067,6	5,571
1068	1,486
1068,4	5,6
1068,8	5,029
1069,2	4,143
1069,6	10,514
1070	14,714
1070,4	12,4
1070,9	16,629
1071,3	18,257
1071,7	16,829
1072,1	19,943
1072,5	19,314
1072,9	12,857
1073,3	11,914
1073,7	10,629
1074,2	9,486
1074,6	10,371
1075	7,286
1075,4	7,629
1075,8	8,571
1076,2	11,171
1076,6	11,514
1077	7,743
1077,5	7,4
1077,9	10,886
1078,3	7,171
1078,7	7,657
1079,1	5,171
1079,5	9,286
1079,9	9,486
1080,3	10,343
1080,7	11,086
1081,2	16,6
1081,6	16,457
1082	14,6
1082,4	13,143
1082,8	16,086
1083,2	15,514
1083,6	16,143
1084	14,657
1084,5	16,343
1084,9	16,714
1085,3	11,886
1085,7	10,4
1086,1	10,429
1086,5	11,829
1086,9	11,657
1087,3	13,686
1087,7	13,943
1088,2	16,4
1088,6	12,8
1089	11,629
1089,4	10,971
1089,8	10,257
1090,2	7,8
1090,6	7,6
1091	11,429
1091,4	17,857
1091,9	16,286
1092,3	15,114
1092,7	12,514
1093,1	14,343
1093,5	10,457
1093,9	6,8
1094,3	8,171
1094,7	9,229
1095,1	10,171
1095,5	12,029
1096	7,829
1096,4	13,857
1096,8	13,486
1097,2	10,571
1097,6	18,143
1098	18,2
1098,4	21,714
1098,8	23,543
1099,2	27,543
1099,6	28,686
1100,1	25,886
1100,5	15,829
1100,9	14,2
1101,3	13,029
1101,7	12,743
1102,1	5,943
1102,5	6,114
1102,9	9,543
1103,3	15,314
1103,7	18,343
1104,2	15,629
1104,6	17,657
1105	17,686
1105,4	15,543
1105,8	12,457
1106,2	8,771
1106,6	4,257
1107	3,571
1107,4	0,667
1107,8	0,68
1108,3	0,25
