Data from Subt2_197.txt Node
Date: Sat Aug 26 18:44:28 MSK 2023
User: vat
Spectrometer: MAYP114033
Trigger mode: 0
Integration Time (sec): 1,000000E0
Scans to average: 5
Electric dark correction enabled: true
Nonlinearity correction enabled: false
Boxcar width: 3
XAxis mode: Wavelengths
Number of Pixels in Spectrum: 2068
>>>>>Begin Spectral Data<<<<<
199,4	-1,1
199,9	0,9
200,4	-0,133
200,8	2,1
201,3	1,271
201,8	3,186
202,2	-0,1
202,7	5,586
203,2	3,071
203,6	3,843
204,1	-0,386
204,6	0,3
205	1,043
205,5	2,357
206	-4,014
206,4	-1,614
206,9	-1,214
207,4	5,157
207,8	5,243
208,3	0,529
208,8	3,929
209,2	6,729
209,7	6,414
210,2	5,9
210,6	1,186
211,1	3,443
211,5	4,7
212	3,214
212,5	4,186
212,9	3,1
213,4	3,5
213,9	2,671
214,3	0,3
214,8	0,786
215,3	-3,329
215,7	-2,157
216,2	-0,843
216,7	0,757
217,1	0,357
217,6	6,7
218,1	5,814
218,5	9,614
219	1,043
219,5	4,1
219,9	1,757
220,4	9,157
220,9	2,671
221,3	5,7
221,8	6,671
222,3	9,814
222,7	10,386
223,2	8,414
223,6	4,186
224,1	3,957
224,6	5,529
225	1,986
225,5	3,614
226	-1,529
226,4	3,071
226,9	3,329
227,4	4,386
227,8	-0,871
228,3	0,9
228,8	1,014
229,2	5,1
229,7	2,843
230,2	3,786
230,6	10,757
231,1	15,557
231,5	17,071
232	16,243
232,5	11,071
232,9	11,014
233,4	8,129
233,9	-0,7
234,3	0,643
234,8	-0,986
235,3	0,5
235,7	1,871
236,2	4,3
236,7	7,3
237,1	12,186
237,6	8,786
238,1	9,443
238,5	5,5
239	8,414
239,4	9,786
239,9	3,414
240,4	2,129
240,8	4,9
241,3	1,7
241,8	3,957
242,2	-0,443
242,7	-7,329
243,2	-3,5
243,6	-3,1
244,1	-1,414
244,6	2,329
245	5,671
245,5	8,1
245,9	6,614
246,4	8,386
246,9	8,443
247,3	3,157
247,8	6,757
248,3	6,386
248,7	5,643
249,2	9,471
249,7	9,5
250,1	9,471
250,6	11,357
251	14,643
251,5	6,471
252	7,671
252,4	11,186
252,9	9,186
253,4	5,843
253,8	4,957
254,3	-0,471
254,8	5,129
255,2	3,643
255,7	-0,214
256,1	1,929
256,6	1,243
257,1	3,443
257,5	-0,043
258	-0,729
258,5	-0,5
258,9	-3,757
259,4	-5,814
259,9	-1,529
260,3	-6,9
260,8	-9,386
261,2	-9,786
261,7	-9,214
262,2	-8,814
262,6	-7,957
263,1	-6,157
263,6	-2,271
264	2,614
264,5	5,843
264,9	5,786
265,4	10,386
265,9	8,186
266,3	7,329
266,8	9,357
267,3	8,443
267,7	4,043
268,2	5,614
268,7	6,214
269,1	7,557
269,6	3,329
270	3,729
270,5	4,129
271	8,3
271,4	4,043
271,9	-4,529
272,4	-1,729
272,8	-1,586
273,3	-9,386
273,7	-8,443
274,2	-8,814
274,7	-8,9
275,1	-2,929
275,6	-4,586
276,1	-4,129
276,5	2,871
277	2,014
277,4	1,271
277,9	6,329
278,4	10,557
278,8	11,929
279,3	14,871
279,8	11,043
280,2	11,586
280,7	14,357
281,1	13,129
281,6	9,757
282,1	5,214
282,5	-0,5
283	2,157
283,4	-1,443
283,9	-0,614
284,4	2,357
284,8	0,214
285,3	2,014
285,8	8,614
286,2	3,557
286,7	7,929
287,1	3,129
287,6	2,957
288,1	3,043
288,5	5,929
289	-0,957
289,5	4,157
289,9	1,5
290,4	6,671
290,8	1,7
291,3	4,929
291,8	6,729
292,2	7,757
292,7	8,214
293,1	9,5
293,6	8,129
294,1	8,471
294,5	9,129
295	5,329
295,5	4,986
295,9	6,357
296,4	1,5
296,8	-0,186
297,3	0,129
297,8	-5,243
298,2	-6,386
298,7	-0,329
299,1	-1,186
299,6	0,871
300,1	1,729
300,5	4,243
301	11,414
301,5	13,471
301,9	9,557
302,4	9,786
302,8	8,329
303,3	4,671
303,8	0,929
304,2	-1,9
304,7	0,043
305,1	-2,871
305,6	-4,186
306,1	4,329
306,5	9,986
307	11,643
307,4	14,357
307,9	10,814
308,4	12,929
308,8	5,614
309,3	2,129
309,8	-1,929
310,2	0,586
310,7	-5,9
311,1	-5,986
311,6	-1,214
312,1	5,786
312,5	10,043
313	13,814
313,4	8,814
313,9	12,214
314,4	11,5
314,8	4,5
315,3	3,043
315,7	-3,757
316,2	-8,9
316,7	-10,271
317,1	-6,071
317,6	-3,929
318	0,843
318,5	1,871
319	1,443
319,4	2,557
319,9	12,043
320,3	12,586
320,8	10,786
321,3	11,614
321,7	12,671
322,2	12,414
322,6	17,9
323,1	10,7
323,6	5,5
324	7,471
324,5	6,157
324,9	6,557
325,4	6,071
325,9	5,1
326,3	9,557
326,8	10,757
327,2	2,786
327,7	0,9
328,2	0,243
328,6	5,929
329,1	0,957
329,5	0,357
330	-1,929
330,5	4,586
330,9	6,757
331,4	8,9
331,8	5,843
332,3	8,329
332,8	7,3
333,2	9,929
333,7	13,386
334,1	15,443
334,6	10,957
335,1	4,843
335,5	4,586
336	0,814
336,4	2,9
336,9	5,9
337,4	3,557
337,8	1,414
338,3	7,643
338,7	9,529
339,2	11,243
339,7	12,9
340,1	4,614
340,6	5,414
341	5,757
341,5	5,471
342	2,243
342,4	1,3
342,9	-5,014
343,3	-2,357
343,8	-3,214
344,2	0,386
344,7	4,614
345,2	3,014
345,6	4,643
346,1	3,386
346,5	2,757
347	0,214
347,5	-0,929
347,9	-0,157
348,4	5,214
348,8	8,357
349,3	16,129
349,8	18,614
350,2	29,586
350,7	29,9
351,1	28,3
351,6	31,586
352	33,729
352,5	36,557
353	45,271
353,4	45,243
353,9	56,786
354,3	65,071
354,8	74,014
355,3	92,329
355,7	111,5
356,2	131,329
356,6	154,3
357,1	182,9
357,5	216,757
358	256,157
358,5	293,243
358,9	338,986
359,4	388,871
359,8	449,186
360,3	511,014
360,8	579,586
361,2	659,5
361,7	744,5
362,1	846,557
362,6	957,271
363	1070,529
363,5	1197,786
364	1337,614
364,4	1469,557
364,9	1609,871
365,3	1741,5
365,8	1862,1
366,3	1982,3
366,7	2085,471
367,2	2171,814
367,6	2245,014
368,1	2307,243
368,5	2345,157
369	2368,929
369,5	2371,557
369,9	2351,929
370,4	2318,043
370,8	2271,329
371,3	2197,129
371,7	2117,871
372,2	2026,929
372,7	1931,243
373,1	1834,271
373,6	1730,614
374	1623,9
374,5	1522,214
374,9	1417,986
375,4	1319,643
375,9	1217,443
376,3	1121,7
376,8	1028,186
377,2	945,671
377,7	864,671
378,2	790,386
378,6	723,3
379,1	663,386
379,5	611,443
380	565,529
380,4	516,271
380,9	475,071
381,4	435,443
381,8	402,729
382,3	376,557
382,7	352,357
383,2	328,871
383,6	304,1
384,1	283,871
384,6	268,786
385	247,757
385,5	228,9
385,9	205,9
386,4	186,643
386,8	176,786
387,3	163,186
387,7	149,243
388,2	139,071
388,7	131,557
389,1	122,414
389,6	116,014
390	111,386
390,5	107,986
390,9	105,157
391,4	103,643
391,9	95,243
392,3	96,1
392,8	88,7
393,2	80,843
393,7	72,5
394,1	62,786
394,6	55,043
395,1	52,957
395,5	46,586
396	45,5
396,4	42,014
396,9	43,671
397,3	47,443
397,8	46,5
398,2	43,471
398,7	42,614
399,2	42,129
399,6	42,614
400,1	39,929
400,5	32,729
401	30,871
401,4	29,757
401,9	28,729
402,4	30,843
402,8	25,786
403,3	30,557
403,7	30,729
404,2	33,957
404,6	35,3
405,1	38,986
405,5	35,557
406	43,157
406,5	39,614
406,9	44,271
407,4	47,586
407,8	53,957
408,3	56,3
408,7	62,929
409,2	66,614
409,6	73,186
410,1	76,843
410,6	80,3
411	82,957
411,5	86,129
411,9	89,814
412,4	93,3
412,8	96,786
413,3	104,957
413,7	106,929
414,2	109,386
414,7	118,786
415,1	129,3
415,6	138,729
416	146,871
416,5	150,5
416,9	160,014
417,4	168,786
417,8	178,929
418,3	187,614
418,8	196,786
419,2	207,443
419,7	219,757
420,1	226,1
420,6	241,729
421	246,9
421,5	255,757
421,9	266,671
422,4	276,729
422,8	290,043
423,3	308,329
423,8	315,586
424,2	328,986
424,7	342,129
425,1	359,071
425,6	376,929
426	394,414
426,5	411,586
426,9	434,729
427,4	451,586
427,9	468,9
428,3	488,557
428,8	505,843
429,2	524,129
429,7	545,471
430,1	564,557
430,6	592,157
431	618,014
431,5	642,214
431,9	671,214
432,4	706,329
432,8	739,7
433,3	772,814
433,8	804,814
434,2	842,7
434,7	885,529
435,1	926,014
435,6	962,786
436	1005,843
436,5	1056,757
436,9	1103,329
437,4	1155,1
437,8	1205,214
438,3	1259,786
438,8	1320,729
439,2	1376,5
439,7	1437,5
440,1	1508,071
440,6	1576,043
441	1642,329
441,5	1715,529
441,9	1781,9
442,4	1850,443
442,8	1917,157
443,3	1993,643
443,7	2069,586
444,2	2148,414
444,7	2228,271
445,1	2319,729
445,6	2413,957
446	2506,186
446,5	2593,643
446,9	2684,386
447,4	2784,443
447,8	2886,814
448,3	2986,1
448,7	3091,871
449,2	3209,329
449,6	3320,586
450,1	3429,471
450,6	3544,7
451	3660,471
451,5	3780,386
451,9	3905,014
452,4	4025,957
452,8	4152,3
453,3	4288,071
453,7	4415,529
454,2	4543,671
454,6	4670,386
455,1	4797,557
455,5	4918,786
456	5056,3
456,4	5188,214
456,9	5329,386
457,3	5470,5
457,8	5613,557
458,3	5758,9
458,7	5912,9
459,2	6060,471
459,6	6214,3
460,1	6362,871
460,5	6515,614
461	6673,443
461,4	6827,957
461,9	6977,557
462,3	7134,271
462,8	7290,1
463,2	7443,529
463,7	7607,071
464,1	7766,929
464,6	7918,871
465	8082,214
465,5	8241,1
466	8398,186
466,4	8556,386
466,9	8708,5
467,3	8852,329
467,8	9008,014
468,2	9155,957
468,7	9302,5
469,1	9449,871
469,6	9597,9
470	9739,271
470,5	9886,7
470,9	10026,957
471,4	10167,643
471,8	10303,443
472,3	10442,614
472,7	10574,586
473,2	10704,071
473,6	10837,014
474,1	10977,5
474,5	11110,671
475	11241,443
475,4	11370,443
475,9	11485,786
476,4	11603,557
476,8	11718,214
477,3	11829,814
477,7	11937,271
478,2	12037,471
478,6	12123,329
479,1	12223,929
479,5	12316,671
480	12401,814
480,4	12481,871
480,9	12558,471
481,3	12634,071
481,8	12711,157
482,2	12783,443
482,7	12847,3
483,1	12911,786
483,6	12962,271
484	13009,929
484,5	13066,157
484,9	13111,7
485,4	13143,7
485,8	13181,443
486,3	13206,9
486,7	13236,9
487,2	13266,757
487,6	13279,986
488,1	13281,186
488,5	13291,643
489	13305,014
489,4	13308,929
489,9	13304,271
490,4	13292,671
490,8	13286,043
491,3	13290,643
491,7	13278,043
492,2	13256,443
492,6	13237,729
493,1	13207,386
493,5	13165,986
494	13114,9
494,4	13064,129
494,9	13026,386
495,3	12964,329
495,8	12913,529
496,2	12863,557
496,7	12810,529
497,1	12777,586
497,6	12732,014
498	12675,586
498,5	12640,529
498,9	12580,186
499,4	12520,357
499,8	12478,1
500,3	12404,3
500,7	12340,9
501,2	12263,186
501,6	12182,643
502,1	12107,729
502,5	12040,586
503	11962,957
503,4	11877,129
503,9	11784,614
504,3	11707,786
504,8	11632,786
505,2	11545,186
505,7	11457,757
506,1	11372,014
506,6	11288,957
507	11206,7
507,5	11112,329
507,9	11014,386
508,4	10927,957
508,8	10830,643
509,3	10730,243
509,7	10642,043
510,2	10553,3
510,6	10462,071
511,1	10366,271
511,5	10274,443
512	10174,786
512,4	10080,043
512,9	9983,757
513,3	9883,671
513,8	9786,529
514,2	9680,557
514,7	9581,5
515,1	9488,1
515,6	9392,414
516	9282,529
516,5	9183,843
516,9	9089,986
517,4	9007,7
517,8	8917,357
518,3	8831,757
518,7	8741,9
519,2	8653,414
519,6	8553,214
520,1	8460,3
520,5	8359,129
521	8249,729
521,4	8146,214
521,9	8048,843
522,3	7955,071
522,8	7873,014
523,2	7779,186
523,7	7696,157
524,1	7624,243
524,6	7538,986
525	7454,929
525,5	7368,929
525,9	7291,729
526,4	7208,614
526,8	7126,214
527,3	7039,643
527,7	6968,529
528,2	6887,329
528,6	6813,729
529,1	6737,243
529,5	6670,3
530	6591,557
530,4	6519,5
530,9	6437,129
531,3	6361,529
531,8	6288,3
532,2	6204,729
532,6	6121,386
533,1	6054,271
533,5	5977,043
534	5911,186
534,4	5846,729
534,9	5784,757
535,3	5717,986
535,8	5656,329
536,2	5592,471
536,7	5538,643
537,1	5478,729
537,6	5416,7
538	5352,871
538,5	5300,157
538,9	5238,729
539,4	5180,557
539,8	5125,386
540,3	5067,643
540,7	5010,414
541,2	4954,7
541,6	4895,014
542,1	4856,986
542,5	4807,014
543	4750,386
543,4	4696,157
543,9	4653,557
544,3	4609,614
544,8	4563,957
545,2	4508,5
545,7	4460,014
546,1	4420,329
546,5	4382,414
547	4333,529
547,4	4285,043
547,9	4239,386
548,3	4198,3
548,8	4157,3
549,2	4108,9
549,7	4065,357
550,1	4034,129
550,6	3996,071
551	3962,7
551,5	3924,586
551,9	3887,671
552,4	3857,986
552,8	3821,757
553,3	3778,729
553,7	3750,529
554,2	3715,986
554,6	3682,7
555,1	3648,471
555,5	3608,529
555,9	3582,386
556,4	3548,3
556,8	3512,271
557,3	3484,7
557,7	3453,843
558,2	3424,014
558,6	3400,7
559,1	3366,357
559,5	3343,557
560	3316,5
560,4	3291,7
560,9	3265,529
561,3	3233,529
561,8	3198,757
562,2	3173,071
562,7	3145,071
563,1	3118,3
563,6	3080,243
564	3052,214
564,4	3033,214
564,9	3009,157
565,3	2984,129
565,8	2959,3
566,2	2934,271
566,7	2915,529
567,1	2895,614
567,6	2873,671
568	2857,357
568,5	2835,557
568,9	2812,243
569,4	2795,386
569,8	2779,671
570,3	2757,414
570,7	2732,614
571,1	2710,814
571,6	2690,414
572	2670,7
572,5	2648,729
572,9	2625,043
573,4	2604,957
573,8	2591,729
574,3	2573,1
574,7	2552,671
575,2	2534,243
575,6	2517,843
576,1	2498,986
576,5	2487,186
576,9	2467,643
577,4	2446,729
577,8	2427,386
578,3	2413,986
578,7	2394,957
579,2	2379,214
579,6	2353,1
580,1	2331,586
580,5	2322,3
581	2315,386
581,4	2295,071
581,9	2275,929
582,3	2261,3
582,7	2248,3
583,2	2235,3
583,6	2217,9
584,1	2198,186
584,5	2185,357
585	2167,814
585,4	2145,414
585,9	2126,071
586,3	2115,614
586,8	2100,043
587,2	2083,414
587,6	2073,7
588,1	2067,243
588,5	2061,1
589	2055,9
589,4	2036,586
589,9	2025,7
590,3	2010,843
590,8	1994,9
591,2	1982,014
591,7	1974,186
592,1	1961,671
592,5	1955,414
593	1939,329
593,4	1927,929
593,9	1912,529
594,3	1897,729
594,8	1878,729
595,2	1867,471
595,7	1857,471
596,1	1848,3
596,6	1838,729
597	1830,814
597,4	1825,414
597,9	1816,443
598,3	1803,5
598,8	1790,414
599,2	1778,071
599,7	1773,214
600,1	1757,729
600,6	1744,871
601	1738,271
601,4	1736,271
601,9	1729,9
602,3	1722,957
602,8	1715,529
603,2	1708,471
603,7	1697,671
604,1	1687,786
604,6	1668,243
605	1650,757
605,4	1641,729
605,9	1626,157
606,3	1611,586
606,8	1602,614
607,2	1590,5
607,7	1581,157
608,1	1575,9
608,6	1566,014
609	1560,386
609,4	1560,443
609,9	1547,129
610,3	1538,329
610,8	1533,043
611,2	1521,5
611,7	1510,214
612,1	1498,157
612,6	1486,271
613	1481,871
613,4	1473,3
613,9	1460,643
614,3	1449,957
614,8	1447,814
615,2	1437,786
615,7	1431,186
616,1	1424,614
616,6	1412,7
617	1407,643
617,4	1405,3
617,9	1394,9
618,3	1387,929
618,8	1380,414
619,2	1369,671
619,7	1367,729
620,1	1358,271
620,5	1350,986
621	1338,814
621,4	1333,929
621,9	1323,186
622,3	1317,7
622,8	1305,443
623,2	1299,357
623,6	1289,386
624,1	1285,529
624,5	1276,586
625	1272,1
625,4	1265,9
625,9	1262,129
626,3	1253,3
626,8	1245,443
627,2	1237,014
627,6	1222,7
628,1	1211,043
628,5	1203,414
629	1189,014
629,4	1181,9
629,9	1172,671
630,3	1161,814
630,7	1156,357
631,2	1150,271
631,6	1139,871
632,1	1134,871
632,5	1129,329
633	1122,529
633,4	1113,929
633,8	1109,443
634,3	1102,671
634,7	1095,871
635,2	1086,214
635,6	1077,586
636,1	1067,843
636,5	1056,871
636,9	1047,9
637,4	1038,329
637,8	1026,3
638,3	1019,443
638,7	1008,471
639,2	1001,671
639,6	1003,929
640	995,471
640,5	992,786
640,9	989,329
641,4	982,471
641,8	979,214
642,2	975,471
642,7	973,414
643,1	974,186
643,6	967,929
644	965,529
644,5	962,529
644,9	958,586
645,3	953,757
645,8	939,957
646,2	934,5
646,7	927,443
647,1	916,729
647,6	916,529
648	910,671
648,4	899,1
648,9	899,871
649,3	889,5
649,8	886,386
650,2	888,014
650,6	877,614
651,1	871,043
651,5	871,529
652	863,643
652,4	857,957
652,9	849,986
653,3	837,214
653,7	830,557
654,2	824,529
654,6	812,986
655,1	807,3
655,5	808,986
655,9	807,957
656,4	810,386
656,8	804,243
657,3	802,929
657,7	806,586
658,2	802,414
658,6	791,329
659	783,271
659,5	773,7
659,9	772,814
660,4	766,814
660,8	755,186
661,2	745,929
661,7	743,014
662,1	735,529
662,6	730,071
663	726,557
663,4	717,157
663,9	716,986
664,3	710,329
664,8	699,757
665,2	694,614
665,6	686,586
666,1	679,757
666,5	675,9
667	666,957
667,4	667,5
667,9	667,957
668,3	659,557
668,7	655,186
669,2	653,386
669,6	649,157
670,1	646,843
670,5	635,643
670,9	629,1
671,4	632,614
671,8	634,557
672,3	629,871
672,7	627,443
673,1	621,871
673,6	618,271
674	616,843
674,5	609,329
674,9	599,757
675,3	591,557
675,8	586,757
676,2	585,157
676,7	581,214
677,1	575,271
677,5	568,843
678	570,529
678,4	569,786
678,9	566,043
679,3	556,729
679,7	557,214
680,2	547,7
680,6	544,929
681,1	535,7
681,5	530,557
681,9	525,9
682,4	525,414
682,8	522,414
683,3	523,614
683,7	524,957
684,1	523,9
684,6	520,043
685	518,3
685,5	512,929
685,9	502,729
686,3	494,386
686,8	490,414
687,2	488,986
687,7	482,243
688,1	473,957
688,5	475,329
689	481,414
689,4	483,614
689,9	474,471
690,3	467,014
690,7	468,443
691,2	474,671
691,6	465,643
692	457,814
692,5	451,729
692,9	452,557
693,4	448,386
693,8	442,671
694,2	431,614
694,7	426,957
695,1	419,843
695,6	423,729
696	422,157
696,4	418,614
696,9	414,871
697,3	407,929
697,8	407,386
698,2	406,986
698,6	402,814
699,1	398,9
699,5	401,357
699,9	396,5
700,4	395,929
700,8	395,5
701,3	398,586
701,7	391,7
702,1	387,671
702,6	383,443
703	385,529
703,5	382,957
703,9	377,757
704,3	374,271
704,8	372,786
705,2	370,271
705,6	367,357
706,1	362,9
706,5	363,157
707	364,243
707,4	359,529
707,8	353,843
708,3	354,671
708,7	352,1
709,2	347,271
709,6	341,729
710	341,957
710,5	333,957
710,9	331,557
711,3	323,786
711,8	323,071
712,2	320,5
712,7	319,7
713,1	316,757
713,5	316,7
714	318,557
714,4	313,671
714,8	308,443
715,3	306,586
715,7	308,529
716,2	298,929
716,6	295,643
717	291,1
717,5	292,443
717,9	292,614
718,3	287,129
718,8	279,557
719,2	280,129
719,7	280,443
720,1	282,9
720,5	284,471
721	278,986
721,4	281,643
721,8	286,757
722,3	284,671
722,7	282,814
723,2	272,557
723,6	261,329
724	260,271
724,5	258,3
724,9	252,3
725,3	251,071
725,8	248,986
726,2	249,986
726,7	252,414
727,1	250,129
727,5	248,443
728	244,3
728,4	241,671
728,8	241,586
729,3	241,929
729,7	239,671
730,1	238,129
730,6	233,957
731	230,671
731,5	228,214
731,9	226,357
732,3	227,071
732,8	229,757
733,2	230,214
733,6	228,9
734,1	230,129
734,5	232,071
734,9	229,986
735,4	223,786
735,8	216,014
736,3	214,5
736,7	215,357
737,1	214,214
737,6	212,614
738	210,529
738,4	209,729
738,9	214,443
739,3	210,243
739,7	207,7
740,2	205,186
740,6	210,614
741,1	211,443
741,5	208,5
741,9	205,271
742,4	209,357
742,8	209,471
743,2	210,186
743,7	199,414
744,1	192,386
744,5	190,414
745	189,043
745,4	182,329
745,8	179,043
746,3	174,529
746,7	175,986
747,2	179,186
747,6	183,786
748	183,643
748,5	185,7
748,9	184,071
749,3	185,471
749,8	181,1
750,2	178,986
750,6	176,7
751,1	177,986
751,5	175,7
751,9	179,957
752,4	180,357
752,8	181,043
753,3	177,957
753,7	178,071
754,1	170,671
754,6	166,957
755	163,243
755,4	159,757
755,9	159,986
756,3	160,386
756,7	156,214
757,2	160,071
757,6	163,271
758	159,157
758,5	159,3
758,9	157,9
759,3	159,071
759,8	161,757
760,2	159,871
760,6	158,529
761,1	158,443
761,5	157,243
761,9	154,186
762,4	150,043
762,8	143,043
763,3	143,443
763,7	143,214
764,1	142,7
764,6	142,3
765	144,386
765,4	147,871
765,9	151,5
766,3	148,357
766,7	143,957
767,2	143,671
767,6	142,671
768	141,786
768,5	135,586
768,9	134,186
769,3	137,071
769,8	138,643
770,2	138,614
770,6	137,3
771,1	133,871
771,5	135,414
771,9	137,671
772,4	131,414
772,8	129,3
773,2	130,043
773,7	129,529
774,1	131,614
774,5	127,843
775	121,757
775,4	121,729
775,8	119,9
776,3	121,329
776,7	123,357
777,1	121,614
777,6	123,9
778	129,329
778,4	127,7
778,9	128,7
779,3	124,214
779,7	122,071
780,2	121,243
780,6	120,871
781	111,557
781,5	110,671
781,9	112,329
782,3	109,929
782,8	108,957
783,2	107,1
783,6	108,243
784,1	114,386
784,5	112,5
784,9	107,7
785,4	112,786
785,8	111,5
786,2	111,5
786,7	108,357
787,1	104,471
787,5	105,7
788	104,614
788,4	98,529
788,8	99,357
789,3	97,843
789,7	99,757
790,1	96,7
790,6	101,357
791	105,214
791,4	108,043
791,9	102,071
792,3	99,329
792,7	102,243
793,2	98,814
793,6	95,729
794	91,986
794,5	86,7
794,9	91,729
795,3	96,586
795,8	92,814
796,2	98,929
796,6	96,129
797,1	99,414
797,5	97,529
797,9	92,357
798,4	88,214
798,8	85,471
799,2	79,271
799,7	81,1
800,1	75,614
800,5	76,586
801	79,529
801,4	78,814
801,8	76,529
802,2	78,929
802,7	77,757
803,1	78,7
803,5	81,643
804	80,9
804,4	82,243
804,8	80,843
805,3	84,957
805,7	85,557
806,1	82,814
806,6	80,643
807	79,357
807,4	77,271
807,9	75,443
808,3	73,329
808,7	73,186
809,2	75,986
809,6	77,329
810	75,957
810,4	75,414
810,9	77,014
811,3	75,186
811,7	72,414
812,2	76,014
812,6	75,157
813	74,643
813,5	76,214
813,9	77,529
814,3	74,386
814,8	73,671
815,2	68,414
815,6	63,529
816,1	66,929
816,5	64,529
816,9	64,014
817,3	64,986
817,8	70,3
818,2	73,386
818,6	75,1
819,1	74,043
819,5	72,186
819,9	73,443
820,4	73,186
820,8	66,729
821,2	60,929
821,7	63,3
822,1	60,557
822,5	65,986
822,9	62,214
823,4	60,614
823,8	65,157
824,2	67,329
824,7	62,643
825,1	61,729
825,5	53,586
826	48,386
826,4	49,757
826,8	45,957
827,3	47,414
827,7	47,471
828,1	44,157
828,5	49,014
829	49,643
829,4	48,9
829,8	43,671
830,3	39,614
830,7	39,386
831,1	41,929
831,6	41,443
832	46,414
832,4	42,929
832,8	44,557
833,3	44,729
833,7	44,129
834,1	40,986
834,6	38,157
835	40,786
835,4	43,443
835,8	42,357
836,3	38,929
836,7	45,157
837,1	45,671
837,6	48,329
838	43,957
838,4	43,614
838,9	41,786
839,3	42,071
839,7	39,1
840,1	37,7
840,6	36,329
841	38,271
841,4	39,586
841,9	44,843
842,3	47,786
842,7	43,129
843,1	45,1
843,6	48,071
844	48,129
844,4	49,5
844,9	50,557
845,3	50,1
845,7	51,7
846,2	48,471
846,6	44,557
847	45,643
847,4	43,414
847,9	42,443
848,3	40,386
848,7	37,7
849,2	43,243
849,6	42,643
850	42,014
850,4	40,671
850,9	39,243
851,3	42,7
851,7	47,957
852,2	43,729
852,6	45,271
853	44,757
853,4	43,043
853,9	39,871
854,3	39,929
854,7	36,414
855,2	35,814
855,6	36,757
856	33,871
856,4	35,329
856,9	32,443
857,3	26,7
857,7	25,729
858,2	31,929
858,6	28,3
859	29,729
859,4	28,014
859,9	30,014
860,3	28,9
860,7	31,414
861,1	28,786
861,6	28,129
862	29,614
862,4	28,757
862,9	34,043
863,3	39,043
863,7	37,529
864,1	34,586
864,6	34,871
865	31,357
865,4	33,157
865,9	31,786
866,3	29,357
866,7	26,443
867,1	25,414
867,6	20,214
868	21,1
868,4	21,186
868,8	21,1
869,3	22,243
869,7	28,957
870,1	27,443
870,6	29,271
871	15,614
871,4	18,871
871,8	15,271
872,3	10,157
872,7	8,957
873,1	7,357
873,5	11,214
874	24,814
874,4	20,843
874,8	17,986
875,3	20,214
875,7	17,614
876,1	22,529
876,5	20,014
877	18,271
877,4	16,643
877,8	22,929
878,2	25,957
878,7	28,071
879,1	24,386
879,5	23,643
879,9	25,1
880,4	25,671
880,8	25,243
881,2	24,929
881,7	19,1
882,1	21,5
882,5	23,729
882,9	21,814
883,4	18,414
883,8	17,614
884,2	13,214
884,6	15,471
885,1	15,757
885,5	15,3
885,9	14,129
886,3	21,986
886,8	18,814
887,2	20,929
887,6	19,529
888	19,357
888,5	17,614
888,9	21,471
889,3	14,043
889,8	14,843
890,2	13,471
890,6	10,471
891	7,986
891,5	7,614
891,9	3,3
892,3	3,3
892,7	1,614
893,2	2,014
893,6	5,5
894	9,643
894,4	6,471
894,9	7,786
895,3	9,271
895,7	10,5
896,1	12,3
896,6	15,214
897	12,214
897,4	18,757
897,8	17,9
898,3	20,243
898,7	19,414
899,1	20,443
899,5	18,014
900	11,671
900,4	11,129
900,8	10,071
901,2	9,071
901,7	9,214
902,1	6,643
902,5	9,071
902,9	15,5
903,4	14,814
903,8	18,071
904,2	18,071
904,6	16,129
905,1	15,671
905,5	11,786
905,9	11,214
906,3	14,814
906,8	14,529
907,2	13,929
907,6	19,014
908	21,757
908,5	21,386
908,9	19,7
909,3	18,786
909,7	16,671
910,2	16,957
910,6	18,1
911	13,814
911,4	14,586
911,9	17,357
912,3	14,357
912,7	19,3
913,1	18,929
913,6	13,214
914	15,871
914,4	11,957
914,8	11,1
915,3	5,157
915,7	-0,014
916,1	-1,7
916,5	0,414
916,9	-2,357
917,4	-0,1
917,8	2,5
918,2	1,329
918,6	-1,986
919,1	0,9
919,5	3,3
919,9	5,014
920,3	3,071
920,8	1,7
921,2	5,957
921,6	7,9
922	6,643
922,5	2,414
922,9	4,3
923,3	7,929
923,7	6,214
924,2	7,614
924,6	8,586
925	10,786
925,4	10,529
925,8	8,957
926,3	8,529
926,7	10,129
927,1	9,586
927,5	12,014
928	7,214
928,4	7,786
928,8	9,843
929,2	9,157
929,7	7,786
930,1	9,586
930,5	5,614
930,9	8,929
931,3	8,643
931,8	5,357
932,2	5,643
932,6	3,757
933	-4,871
933,5	-2,3
933,9	-2,271
934,3	-0,014
934,7	-2,814
935,2	-2,957
935,6	-5,386
936	-1,843
936,4	-4,471
936,8	-6,329
937,3	-9,414
937,7	-5,129
938,1	-4,129
938,5	-5,414
939	-2,329
939,4	-0,614
939,8	2,529
940,2	2,757
940,6	3,214
941,1	1,071
941,5	10,1
941,9	9,643
942,3	10,557
942,8	8,443
943,2	11,9
943,6	11,3
944	12,614
944,4	10,671
944,9	8,186
945,3	6,9
945,7	0,671
946,1	-5,3
946,6	-10,357
947	-10,386
947,4	-11,157
947,8	-6,471
948,2	-6,414
948,7	1,9
949,1	3,529
949,5	8,757
949,9	12,3
950,3	13,614
950,8	10,814
951,2	11,843
951,6	7,757
952	15,129
952,5	12,071
952,9	12,586
953,3	7,557
953,7	7,443
954,1	8,814
954,6	10,186
955	6,529
955,4	6,214
955,8	6,1
956,2	8,529
956,7	9,5
957,1	5,357
957,5	10,3
957,9	9,271
958,3	9,9
958,8	9,386
959,2	14,757
959,6	18,757
960	18,871
960,5	19,014
960,9	19,243
961,3	18,214
961,7	14,7
962,1	7,043
962,6	2,471
963	4,129
963,4	-1,443
963,8	-0,5
964,2	5,129
964,7	5,271
965,1	10,529
965,5	11,471
965,9	9,786
966,3	11,843
966,8	7,5
967,2	4,929
967,6	3,5
968	-2,671
968,4	-2,557
968,9	-2,443
969,3	-3,014
969,7	-3,529
970,1	-4,243
970,5	-3,9
971	-0,786
971,4	-0,557
971,8	2,3
972,2	3,014
972,6	5,043
973,1	5,757
973,5	8,871
973,9	13,386
974,3	12,929
974,7	14,643
975,2	15,929
975,6	13,786
976	17,986
976,4	13,471
976,8	11,329
977,3	9,329
977,7	4,757
978,1	4,814
978,5	4,471
978,9	0,786
979,4	1,729
979,8	1,129
980,2	6,357
980,6	5,214
981	5,414
981,5	8,471
981,9	6,186
982,3	8,357
982,7	8,071
983,1	0,957
983,6	7,929
984	5,014
984,4	5,986
984,8	7,586
985,2	4,7
985,6	0,271
986,1	2,386
986,5	-1,7
986,9	-4,329
987,3	-3,157
987,7	-3,5
988,2	-0,243
988,6	4,414
989	9,643
989,4	10,443
989,8	8,9
990,3	4,643
990,7	1,5
991,1	-2,157
991,5	0,1
991,9	0,814
992,3	1,071
992,8	8,729
993,2	13,614
993,6	19,471
994	24,157
994,4	23,786
994,9	17,557
995,3	15,443
995,7	8,843
996,1	5,586
996,5	3,043
996,9	1,386
997,4	-1,214
997,8	-2,586
998,2	-2,929
998,6	-5,786
999	-6,671
999,5	-6,986
999,9	-8,414
1000,3	-11,243
1000,7	-6,929
1001,1	-5,071
1001,5	3,414
1002	8,443
1002,4	7,929
1002,8	4,643
1003,2	6,157
1003,6	6,129
1004	9,043
1004,5	4,843
1004,9	-0,186
1005,3	-3,129
1005,7	1,671
1006,1	-1,871
1006,6	-5,329
1007	-2,243
1007,4	-1,414
1007,8	4,329
1008,2	3,243
1008,6	5,871
1009,1	9,729
1009,5	13,386
1009,9	8,814
1010,3	10,843
1010,7	4,957
1011,1	7,243
1011,6	2,814
1012	8,214
1012,4	4,271
1012,8	2,243
1013,2	2,157
1013,6	2,986
1014,1	4,614
1014,5	6,986
1014,9	1,614
1015,3	3,129
1015,7	4,643
1016,1	-0,414
1016,6	-2,071
1017	4,414
1017,4	3,9
1017,8	6,129
1018,2	4,757
1018,6	-1,157
1019,1	2,129
1019,5	3,614
1019,9	-6,957
1020,3	-6,214
1020,7	-7,129
1021,1	-6,7
1021,6	-2,443
1022	1,529
1022,4	2,871
1022,8	6,014
1023,2	4,243
1023,6	3,586
1024,1	6,871
1024,5	10,614
1024,9	10,329
1025,3	8,357
1025,7	5,071
1026,1	7,329
1026,6	5,986
1027	4,243
1027,4	5,557
1027,8	0,671
1028,2	-1,014
1028,6	5,014
1029	4,186
1029,5	7,014
1029,9	4,814
1030,3	-2,129
1030,7	1,643
1031,1	6,243
1031,5	2,871
1032	1,929
1032,4	0,5
1032,8	5,643
1033,2	8,729
1033,6	3,729
1034	2,9
1034,4	5,243
1034,9	6,329
1035,3	2,157
1035,7	3,357
1036,1	0,586
1036,5	0,1
1036,9	-2,243
1037,4	-0,357
1037,8	-3,786
1038,2	-2,386
1038,6	-5,471
1039	-1,3
1039,4	7,786
1039,8	7,586
1040,3	6,271
1040,7	6,271
1041,1	10,3
1041,5	11,729
1041,9	6,729
1042,3	2,357
1042,7	8,471
1043,2	7,9
1043,6	6,071
1044	4,243
1044,4	1,557
1044,8	1,7
1045,2	-1,843
1045,6	-5,957
1046,1	-7,671
1046,5	-6,471
1046,9	-9,729
1047,3	-6,757
1047,7	-6,843
1048,1	-4,214
1048,5	-1,9
1049	1,843
1049,4	6,929
1049,8	12,443
1050,2	11,071
1050,6	15,643
1051	17,729
1051,4	11,014
1051,9	6,129
1052,3	7,586
1052,7	5,729
1053,1	2,557
1053,5	0,271
1053,9	-1,929
1054,3	-0,3
1054,8	6,329
1055,2	2,957
1055,6	3,957
1056	5,157
1056,4	4,957
1056,8	5,329
1057,2	6,386
1057,6	-1,3
1058,1	-3,671
1058,5	-10,129
1058,9	-7,986
1059,3	-4,814
1059,7	-4,9
1060,1	-1,671
1060,5	3,157
1061	3,7
1061,4	10,671
1061,8	14,814
1062,2	10,614
1062,6	11,471
1063	12,729
1063,4	11,243
1063,8	13,329
1064,3	10,414
1064,7	5,529
1065,1	6,643
1065,5	0,329
1065,9	-0,729
1066,3	-6,586
1066,7	-10,757
1067,1	-12,1
1067,6	-8,729
1068	-11,843
1068,4	-6,814
1068,8	-8,214
1069,2	-1,986
1069,6	3,071
1070	1,871
1070,4	-2,014
1070,9	-4,243
1071,3	-4,129
1071,7	-6,729
1072,1	-6,5
1072,5	-12,414
1072,9	-8,557
1073,3	-9,271
1073,7	-9,757
1074,2	-8,986
1074,6	-3,186
1075	-7,5
1075,4	-4,129
1075,8	-5,757
1076,2	-4,671
1076,6	1,814
1077	1,414
1077,5	-1,643
1077,9	-0,271
1078,3	-2,471
1078,7	-0,3
1079,1	-1,9
1079,5	-0,786
1079,9	-5,7
1080,3	-8,129
1080,7	-2,643
1081,2	3,814
1081,6	3,986
1082	-0,129
1082,4	1,814
1082,8	5,586
1083,2	8,014
1083,6	3,757
1084	1,443
1084,5	0,529
1084,9	2,043
1085,3	-7,814
1085,7	-6,529
1086,1	-7,043
1086,5	-4,529
1086,9	-2,814
1087,3	-2,986
1087,7	-0,014
1088,2	5,129
1088,6	3,243
1089	5,586
1089,4	4,7
1089,8	4,357
1090,2	3,014
1090,6	3,671
1091	7,957
1091,4	11,186
1091,9	9,1
1092,3	9,157
1092,7	4,729
1093,1	9,014
1093,5	9,843
1093,9	6,9
1094,3	5,786
1094,7	5,043
1095,1	6,414
1095,5	7,443
1096	4,071
1096,4	5,843
1096,8	2,9
1097,2	1,014
1097,6	4,643
1098	1,843
1098,4	5,043
1098,8	9,3
1099,2	11,243
1099,6	12,786
1100,1	12,443
1100,5	7,643
1100,9	6,043
1101,3	5,129
1101,7	-0,214
1102,1	-3,1
1102,5	-0,9
1102,9	0,014
1103,3	8,157
1103,7	11,043
1104,2	9,157
1104,6	10,929
1105	7,329
1105,4	7,986
1105,8	7,386
1106,2	0,614
1106,6	0,186
1107	0,614
1107,4	0,067
1107,8	2,82
1108,3	-0,15
