Data from Subt2_094.txt Node
Date: Sat Aug 26 16:43:19 MSK 2023
User: vat
Spectrometer: MAYP114033
Trigger mode: 0
Integration Time (sec): 1,000000E0
Scans to average: 5
Electric dark correction enabled: true
Nonlinearity correction enabled: false
Boxcar width: 3
XAxis mode: Wavelengths
Number of Pixels in Spectrum: 2068
>>>>>Begin Spectral Data<<<<<
199,4	-0,333
199,9	1,547
200,4	-1,6
200,8	-1,705
201,3	1,324
201,8	2,181
202,2	2,838
202,7	8,181
203,2	6,21
203,6	8,838
204,1	12,552
204,6	11,81
205	13,038
205,5	12,01
206	8,552
206,4	10,21
206,9	9,552
207,4	9,867
207,8	7,067
208,3	5,067
208,8	6,81
209,2	7,952
209,7	12,067
210,2	17,41
210,6	15,295
211,1	15,952
211,5	15,895
212	11,438
212,5	6,495
212,9	3,181
213,4	-0,79
213,9	-3,819
214,3	0,038
214,8	2,295
215,3	5,895
215,7	6,895
216,2	11,41
216,7	7,667
217,1	9,61
217,6	11,124
218,1	10,495
218,5	10,581
219	21,095
219,5	16,41
219,9	21,667
220,4	19,895
220,9	15,124
221,3	15,952
221,8	14,41
222,3	6,467
222,7	6,21
223,2	10,895
223,6	13,667
224,1	13,695
224,6	15,467
225	13,781
225,5	18,095
226	18,095
226,4	14,324
226,9	12,638
227,4	16,724
227,8	16,352
228,3	22,124
228,8	18,838
229,2	18,752
229,7	16,438
230,2	21,181
230,6	16,038
231,1	17,324
231,5	17,267
232	23,067
232,5	23,638
232,9	24,095
233,4	19,41
233,9	23,295
234,3	19,81
234,8	19,524
235,3	17,067
235,7	20,381
236,2	21,695
236,7	23,752
237,1	21,867
237,6	21,124
238,1	22,467
238,5	18,895
239	16,638
239,4	14,41
239,9	14,952
240,4	15,667
240,8	21,181
241,3	12,781
241,8	12,924
242,2	9,41
242,7	12,467
243,2	10,324
243,6	11,124
244,1	5,895
244,6	9,467
245	7,41
245,5	9,924
245,9	7,01
246,4	6,581
246,9	5,495
247,3	6,438
247,8	7,81
248,3	10,152
248,7	12,781
249,2	9,81
249,7	12,238
250,1	9,295
250,6	6,924
251	4,752
251,5	-0,305
252	0,01
252,4	4,81
252,9	4,41
253,4	7,038
253,8	7,295
254,3	10,238
254,8	14,438
255,2	9,324
255,7	11,895
256,1	9,01
256,6	12,524
257,1	15,695
257,5	18,495
258	18,324
258,5	17,952
258,9	14,124
259,4	17,352
259,9	18,238
260,3	12,381
260,8	11,724
261,2	14,952
261,7	20,524
262,2	21,781
262,6	18,238
263,1	10,981
263,6	14,067
264	10,524
264,5	10,867
264,9	7,867
265,4	6,724
265,9	10,695
266,3	17,21
266,8	17,21
267,3	20,61
267,7	16,238
268,2	13,324
268,7	17,124
269,1	15,781
269,6	15,638
270	19,838
270,5	19,695
271	19,924
271,4	17,724
271,9	14,638
272,4	15,495
272,8	7,038
273,3	0,295
273,7	-3,562
274,2	-3,876
274,7	-2,59
275,1	-5,276
275,6	-3,733
276,1	3,295
276,5	9,21
277	13,067
277,4	15,638
277,9	15,61
278,4	20,352
278,8	20,524
279,3	16,267
279,8	15,695
280,2	11,61
280,7	10,695
281,1	17,467
281,6	17,324
282,1	17,381
282,5	20,495
283	20,752
283,4	22,752
283,9	20,838
284,4	21,181
284,8	18,781
285,3	14,381
285,8	13,01
286,2	9,381
286,7	8,267
287,1	7,581
287,6	4,552
288,1	4,21
288,5	8,495
289	10,638
289,5	10,038
289,9	9,695
290,4	10,324
290,8	13,438
291,3	13,381
291,8	10,81
292,2	10,924
292,7	13,61
293,1	15,81
293,6	18,61
294,1	11,238
294,5	16,152
295	14,438
295,5	14,981
295,9	17,61
296,4	15,181
296,8	11,952
297,3	16,324
297,8	13,352
298,2	14,838
298,7	12,038
299,1	12,924
299,6	12,838
300,1	16,581
300,5	21,295
301	20,495
301,5	23,238
301,9	26,352
302,4	22,667
302,8	24,41
303,3	22,295
303,8	13,152
304,2	13,952
304,7	9,524
305,1	9,552
305,6	4,867
306,1	4,381
306,5	2,381
307	5,867
307,4	-1,648
307,9	1,724
308,4	-2,076
308,8	7,838
309,3	7,467
309,8	11,324
310,2	6,61
310,7	19,238
311,1	15,21
311,6	15,581
312,1	14,41
312,5	16,638
313	14,124
313,4	17,552
313,9	16,524
314,4	16,952
314,8	21,01
315,3	15,181
315,7	13,295
316,2	13,495
316,7	17,467
317,1	11,438
317,6	12,867
318	12,038
318,5	16,552
319	18,324
319,4	17,352
319,9	13,838
320,3	15,238
320,8	15,638
321,3	12,124
321,7	10,295
322,2	12,895
322,6	13,438
323,1	14,667
323,6	13,21
324	13,867
324,5	14,181
324,9	12,324
325,4	10,838
325,9	16,21
326,3	18,724
326,8	22,381
327,2	20,895
327,7	24,324
328,2	27,581
328,6	29,41
329,1	22,552
329,5	22,695
330	23,752
330,5	23,352
330,9	22,381
331,4	17,495
331,8	14,352
332,3	19,867
332,8	17,095
333,2	14,295
333,7	15,324
334,1	15,895
334,6	20,038
335,1	18,01
335,5	20,038
336	16,038
336,4	14,295
336,9	17,61
337,4	15,667
337,8	15,495
338,3	18,724
338,7	13,924
339,2	22,981
339,7	24,61
340,1	22,752
340,6	20,981
341	24,838
341,5	25,981
342	29,41
342,4	21,095
342,9	18,41
343,3	21,667
343,8	23,838
344,2	26,324
344,7	25,952
345,2	19,61
345,6	25,381
346,1	26,838
346,5	26,067
347	31,41
347,5	20,61
347,9	18,867
348,4	23,81
348,8	21,352
349,3	22,524
349,8	22,124
350,2	19,152
350,7	25,752
351,1	24,952
351,6	27,524
352	43,238
352,5	50,152
353	64,152
353,4	76,781
353,9	92,724
354,3	113,352
354,8	133,41
355,3	151,952
355,7	182,295
356,2	212,981
356,6	255,838
357,1	302,01
357,5	358,21
358	420,067
358,5	490,41
358,9	566,552
359,4	658,152
359,8	752,095
360,3	864,467
360,8	987,152
361,2	1126,295
361,7	1281,752
362,1	1459,152
362,6	1644,381
363	1849,181
363,5	2062,781
364	2285,867
364,4	2515,581
364,9	2739,752
365,3	2966,752
365,8	3180,667
366,3	3382,552
366,7	3570,838
367,2	3735,21
367,6	3873,524
368,1	3984,181
368,5	4053,295
369	4094,381
369,5	4103,438
369,9	4066,981
370,4	4004,581
370,8	3919,638
371,3	3802,467
371,7	3662,324
372,2	3510,295
372,7	3334,181
373,1	3166,752
373,6	2983,352
374	2791,724
374,5	2607,724
374,9	2427,181
375,4	2253,267
375,9	2089,552
376,3	1924,21
376,8	1773,924
377,2	1638,067
377,7	1503,495
378,2	1384,352
378,6	1261,467
379,1	1156,524
379,5	1062,095
380	979,638
380,4	894,524
380,9	823,781
381,4	760,724
381,8	709,524
382,3	654,61
382,7	599,352
383,2	547,41
383,6	506,438
384,1	471,438
384,6	429,695
385	396,61
385,5	371,095
385,9	348,295
386,4	329,41
386,8	311,01
387,3	288,438
387,7	277,381
388,2	259,181
388,7	240,467
389,1	225,21
389,6	210,038
390	193,438
390,5	181,238
390,9	171,095
391,4	161,667
391,9	152,638
392,3	140,152
392,8	130,41
393,2	119,438
393,7	116,781
394,1	107,695
394,6	97,41
395,1	94,352
395,5	97,181
396	96,667
396,4	99,295
396,9	95,467
397,3	89,495
397,8	88,438
398,2	82,21
398,7	74,495
399,2	65,352
399,6	62,667
400,1	53,038
400,5	53,124
401	51,838
401,4	50,524
401,9	49,667
402,4	54,095
402,8	50,438
403,3	52,124
403,7	49,781
404,2	52,524
404,6	50,552
405,1	45,638
405,5	36,895
406	34,324
406,5	34,981
406,9	34,781
407,4	29,724
407,8	29,867
408,3	29,895
408,7	40,01
409,2	42,152
409,6	42,495
410,1	48,181
410,6	47,438
411	55,495
411,5	61,238
411,9	58,61
412,4	59,524
412,8	62,181
413,3	60,581
413,7	67,124
414,2	64,238
414,7	72,181
415,1	71,238
415,6	76,067
416	81,495
416,5	84,067
416,9	86,467
417,4	87,581
417,8	85,781
418,3	97,152
418,8	96,61
419,2	97,524
419,7	102,095
420,1	103,81
420,6	108,238
421	110,524
421,5	106,867
421,9	112,01
422,4	112,695
422,8	109,352
423,3	111,067
423,8	112,952
424,2	111,41
424,7	112,695
425,1	112,638
425,6	113,952
426	117,181
426,5	117,095
426,9	117,838
427,4	120,438
427,9	116,724
428,3	115,667
428,8	116,01
429,2	113,352
429,7	112,41
430,1	111,095
430,6	109,238
431	111,667
431,5	112,324
431,9	110,981
432,4	114,781
432,8	118,781
433,3	119,238
433,8	124,152
434,2	129,381
434,7	129,838
435,1	133,81
435,6	143,124
436	143,438
436,5	152,61
436,9	155,095
437,4	158,781
437,8	166,067
438,3	174,095
438,8	171,181
439,2	178,038
439,7	176,981
440,1	186,067
440,6	195,267
441	199,152
441,5	207,095
441,9	217,667
442,4	229,724
442,8	243,61
443,3	252,552
443,7	257,067
444,2	273,81
444,7	285,467
445,1	295,495
445,6	304,981
446	315,438
446,5	330,438
446,9	350,295
447,4	364,095
447,8	375,295
448,3	389,21
448,7	404,295
449,2	419,181
449,6	430,667
450,1	449,067
450,6	465,495
451	476,152
451,5	496,01
451,9	515,752
452,4	537,495
452,8	559,838
453,3	571,838
453,7	590,924
454,2	618,124
454,6	640,781
455,1	655,152
455,5	677,695
456	698,638
456,4	724,695
456,9	745,81
457,3	771,381
457,8	792,524
458,3	823,267
458,7	851,895
459,2	876,324
459,6	902,095
460,1	927,352
460,5	950,21
461	973,581
461,4	999,581
461,9	1021,438
462,3	1051,01
462,8	1077,41
463,2	1112,038
463,7	1144,41
464,1	1179,981
464,6	1211,21
465	1247,324
465,5	1283,381
466	1316,981
466,4	1347,552
466,9	1380,695
467,3	1413,438
467,8	1455,352
468,2	1480,895
468,7	1514,352
469,1	1547,781
469,6	1582,01
470	1616,238
470,5	1650,552
470,9	1674,952
471,4	1714,838
471,8	1739,067
472,3	1769,352
472,7	1806,181
473,2	1837,724
473,6	1874,438
474,1	1910,724
474,5	1938,21
475	1982,067
475,4	2017,781
475,9	2058,41
476,4	2094,667
476,8	2124,295
477,3	2160,524
477,7	2199,752
478,2	2229,352
478,6	2265,724
479,1	2290,724
479,5	2326,067
480	2364,695
480,4	2390,381
480,9	2425,295
481,3	2447,467
481,8	2478,667
482,2	2506,61
482,7	2536,524
483,1	2562,638
483,6	2582,295
484	2601,067
484,5	2635,095
484,9	2658,124
485,4	2685,781
485,8	2697,181
486,3	2720,952
486,7	2752,238
487,2	2780,638
487,6	2802,267
488,1	2821,152
488,5	2837,238
489	2863,638
489,4	2878,581
489,9	2898,01
490,4	2915,21
490,8	2934,867
491,3	2959,01
491,7	2972,895
492,2	2998,667
492,6	3018,752
493,1	3036,838
493,5	3048,095
494	3066,238
494,4	3075,181
494,9	3091,81
495,3	3100,781
495,8	3116,438
496,2	3128,552
496,7	3140,381
497,1	3146,438
497,6	3163,552
498	3174,524
498,5	3188,81
498,9	3194,41
499,4	3214,01
499,8	3227,781
500,3	3245,981
500,7	3252,295
501,2	3263,01
501,6	3267,21
502,1	3285,095
502,5	3284,838
503	3294,352
503,4	3295,724
503,9	3306,352
504,3	3315,381
504,8	3322,524
505,2	3320,838
505,7	3329,981
506,1	3333,267
506,6	3335,952
507	3342,524
507,5	3348,981
507,9	3354,067
508,4	3363,067
508,8	3372,552
509,3	3385,41
509,7	3394,495
510,2	3397,695
510,6	3402,267
511,1	3412,924
511,5	3416,724
512	3418,524
512,4	3421,295
512,9	3428,038
513,3	3433,867
513,8	3436,781
514,2	3438,61
514,7	3446,381
515,1	3454,295
515,6	3457,41
516	3465,238
516,5	3470,867
516,9	3477,752
517,4	3484,324
517,8	3487,267
518,3	3487,41
518,7	3489,981
519,2	3486,124
519,6	3489,067
520,1	3496,895
520,5	3500,781
521	3506,238
521,4	3512,352
521,9	3523,467
522,3	3533,924
522,8	3542,095
523,2	3544,467
523,7	3549,21
524,1	3551,324
524,6	3553,438
525	3560,981
525,5	3566,038
525,9	3572,724
526,4	3575,01
526,8	3579,752
527,3	3589,981
527,7	3599,495
528,2	3601,095
528,6	3609,495
529,1	3610,581
529,5	3616,695
530	3624,61
530,4	3633,381
530,9	3639,152
531,3	3641,895
531,8	3652,638
532,2	3665,295
532,6	3676,095
533,1	3680,695
533,5	3687,352
534	3695,038
534,4	3710,495
534,9	3716,01
535,3	3717,867
535,8	3724,61
536,2	3740,981
536,7	3745,438
537,1	3752,781
537,6	3753,381
538	3763,295
538,5	3775,124
538,9	3786,752
539,4	3791,695
539,8	3796,438
540,3	3806,781
540,7	3816,181
541,2	3817,952
541,6	3829,467
542,1	3838,152
542,5	3842,324
543	3853,238
543,4	3866,952
543,9	3872,781
544,3	3881,952
544,8	3887,152
545,2	3891,752
545,7	3908,267
546,1	3916,924
546,5	3921,152
547	3937,724
547,4	3951,01
547,9	3966,81
548,3	3972,438
548,8	3972,095
549,2	3980,152
549,7	3987,81
550,1	4004,695
550,6	4004,667
551	4011,41
551,5	4023,295
551,9	4036,324
552,4	4042,181
552,8	4043,038
553,3	4043,667
553,7	4055,152
554,2	4052,981
554,6	4060,552
555,1	4062,067
555,5	4074,524
555,9	4090,638
556,4	4094,61
556,8	4103,867
557,3	4113,038
557,7	4124,038
558,2	4132,181
558,6	4136,781
559,1	4143,61
559,5	4148,781
560	4152,61
560,4	4161,095
560,9	4166,438
561,3	4173,01
561,8	4182,495
562,2	4186,21
562,7	4191,352
563,1	4196,81
563,6	4200,895
564	4200,81
564,4	4208,41
564,9	4208,124
565,3	4211,352
565,8	4218,01
566,2	4219,21
566,7	4223,524
567,1	4232,695
567,6	4236,181
568	4243,152
568,5	4244,838
568,9	4244,124
569,4	4250,524
569,8	4250,895
570,3	4251,724
570,7	4249,638
571,1	4249,695
571,6	4248,067
572	4248,495
572,5	4246,095
572,9	4250,438
573,4	4247,038
573,8	4245,267
574,3	4244,095
574,7	4251,867
575,2	4251,552
575,6	4253,952
576,1	4248,267
576,5	4240,267
576,9	4242,581
577,4	4239,638
577,8	4231,867
578,3	4222,781
578,7	4215,267
579,2	4209,238
579,6	4211,181
580,1	4211,61
580,5	4207,81
581	4204,352
581,4	4206,295
581,9	4210,267
582,3	4208,81
582,7	4207,867
583,2	4196,724
583,6	4191,238
584,1	4181,295
584,5	4178,267
585	4173,495
585,4	4163,352
585,9	4158,638
586,3	4150,295
586,8	4139,238
587,2	4134,095
587,6	4118,981
588,1	4108,324
588,5	4107,238
589	4096,924
589,4	4090,524
589,9	4087,867
590,3	4083,981
590,8	4084,01
591,2	4077,552
591,7	4071,438
592,1	4065,695
592,5	4059,952
593	4049,952
593,4	4037,867
593,9	4026,924
594,3	4013,381
594,8	4003,41
595,2	3994,295
595,7	3987,295
596,1	3986,324
596,6	3988,752
597	3983,381
597,4	3979,21
597,9	3966,81
598,3	3961,067
598,8	3956,124
599,2	3945,952
599,7	3933,867
600,1	3925,124
600,6	3911,238
601	3906,238
601,4	3898,752
601,9	3887,695
602,3	3880,895
602,8	3877,181
603,2	3873,124
603,7	3869,581
604,1	3863,41
604,6	3847,81
605	3840,581
605,4	3831,152
605,9	3815,324
606,3	3803,038
606,8	3793,238
607,2	3783,667
607,7	3784,552
608,1	3781,867
608,6	3767,524
609	3755,21
609,4	3739,867
609,9	3729,895
610,3	3719,61
610,8	3700,638
611,2	3676,724
611,7	3664,952
612,1	3649,838
612,6	3635,695
613	3618,695
613,4	3602,781
613,9	3589,467
614,3	3579,981
614,8	3564,781
615,2	3551,267
615,7	3544,238
616,1	3536,61
616,6	3520,038
617	3508,095
617,4	3494,095
617,9	3490,781
618,3	3485,895
618,8	3468,781
619,2	3457,867
619,7	3450,324
620,1	3436,838
620,5	3420,81
621	3393,21
621,4	3373,781
621,9	3359,381
622,3	3337,724
622,8	3320,924
623,2	3305,152
623,6	3288,838
624,1	3283,267
624,5	3270,438
625	3255,038
625,4	3241,552
625,9	3222,152
626,3	3208,695
626,8	3200,038
627,2	3184,152
627,6	3168,038
628,1	3154,152
628,5	3137,41
629	3127,838
629,4	3113,295
629,9	3091,667
630,3	3076,895
630,7	3065,752
631,2	3054,667
631,6	3039,524
632,1	3021,952
632,5	3004,467
633	2986,638
633,4	2966,752
633,8	2942,267
634,3	2919,324
634,7	2909,238
635,2	2895,267
635,6	2880,038
636,1	2870,695
636,5	2859,61
636,9	2851,381
637,4	2838,095
637,8	2816,867
638,3	2803,838
638,7	2792,295
639,2	2775,495
639,6	2759,781
640	2742,61
640,5	2732,752
640,9	2723,01
641,4	2706,924
641,8	2688,752
642,2	2676,152
642,7	2661,152
643,1	2656,124
643,6	2641,01
644	2627,61
644,5	2615,552
644,9	2604,467
645,3	2585,438
645,8	2571,295
646,2	2552,324
646,7	2539,01
647,1	2529,838
647,6	2513,695
648	2496,41
648,4	2487,81
648,9	2473,295
649,3	2457,038
649,8	2447,267
650,2	2430,552
650,6	2420,038
651,1	2413,981
651,5	2400,638
652	2397,21
652,4	2381,124
652,9	2372,067
653,3	2360,438
653,7	2345,581
654,2	2330,352
654,6	2316,295
655,1	2293,181
655,5	2285,381
655,9	2263,61
656,4	2250,895
656,8	2237,124
657,3	2219,981
657,7	2205,981
658,2	2196,352
658,6	2182,095
659	2169,352
659,5	2155,924
659,9	2145,381
660,4	2133,41
660,8	2126,352
661,2	2111,067
661,7	2095,838
662,1	2084,238
662,6	2070,152
663	2059,924
663,4	2048,381
663,9	2036,324
664,3	2029,352
664,8	2024,581
665,2	2013,895
665,6	2000,267
666,1	1982,095
666,5	1967,524
667	1946,81
667,4	1932,181
667,9	1909,981
668,3	1894,41
668,7	1884,267
669,2	1874,952
669,6	1865,352
670,1	1858,01
670,5	1842,524
670,9	1835,295
671,4	1826,124
671,8	1812,781
672,3	1804,667
672,7	1790,924
673,1	1777,952
673,6	1767,381
674	1753,838
674,5	1743,895
674,9	1730,724
675,3	1712,124
675,8	1703,381
676,2	1693,438
676,7	1682,21
677,1	1676,981
677,5	1662,867
678	1653,267
678,4	1645,181
678,9	1635,867
679,3	1628,095
679,7	1617,124
680,2	1606,01
680,6	1591,01
681,1	1577,295
681,5	1567,095
681,9	1550,181
682,4	1539,467
682,8	1528,095
683,3	1512,81
683,7	1504,981
684,1	1496,952
684,6	1486,981
685	1480,952
685,5	1467,924
685,9	1458,838
686,3	1449,467
686,8	1440,238
687,2	1432,638
687,7	1424,695
688,1	1417,638
688,5	1409,438
689	1400,895
689,4	1397,781
689,9	1388,924
690,3	1382,267
690,7	1368,438
691,2	1356,924
691,6	1350,038
692	1338,695
692,5	1323,067
692,9	1315,924
693,4	1307,752
693,8	1299,952
694,2	1287,324
694,7	1280,267
695,1	1272,667
695,6	1265,01
696	1255,01
696,4	1243,638
696,9	1238,924
697,3	1232,981
697,8	1219,524
698,2	1210,667
698,6	1205,867
699,1	1195,695
699,5	1183,552
699,9	1172,067
700,4	1165,038
700,8	1158,695
701,3	1150,552
701,7	1135,21
702,1	1131,152
702,6	1128,667
703	1117,067
703,5	1111,895
703,9	1101,667
704,3	1093,381
704,8	1092,752
705,2	1085,41
705,6	1068,21
706,1	1070,21
706,5	1061,524
707	1056,181
707,4	1054,095
707,8	1045,41
708,3	1037,724
708,7	1040,81
709,2	1027,867
709,6	1022,638
710	1013,495
710,5	1009,981
710,9	998,752
711,3	989,695
711,8	982,21
712,2	978,81
712,7	970,752
713,1	967,095
713,5	949,752
714	946,21
714,4	940,838
714,8	932,152
715,3	925,324
715,7	916,067
716,2	903,295
716,6	903,495
717	899,524
717,5	892,352
717,9	882,267
718,3	876,695
718,8	870,81
719,2	867,638
719,7	859,152
720,1	842,581
720,5	836,524
721	831,867
721,4	824,952
721,8	821,067
722,3	814,467
722,7	807,095
723,2	807,952
723,6	801,495
724	798,381
724,5	788,095
724,9	775,238
725,3	764,552
725,8	758,581
726,2	753,095
726,7	747,495
727,1	742,552
727,5	739,638
728	740,695
728,4	746,438
728,8	745,867
729,3	738,781
729,7	733,495
730,1	723,695
730,6	722,21
731	717,752
731,5	710,724
731,9	706,524
732,3	703,867
732,8	699,41
733,2	698,867
733,6	689,41
734,1	684,495
734,5	671,638
734,9	664,495
735,4	660,41
735,8	658,181
736,3	650,952
736,7	648,524
737,1	646,781
737,6	646,895
738	639,238
738,4	636,352
738,9	635,838
739,3	631,638
739,7	630,181
740,2	623,952
740,6	622,924
741,1	618,324
741,5	614,981
741,9	605,752
742,4	605,781
742,8	601,867
743,2	599,695
743,7	594,067
744,1	592,152
744,5	590,21
745	586,238
745,4	578,781
745,8	573,124
746,3	567,552
746,7	562,724
747,2	560,667
747,6	557,867
748	551,952
748,5	548,352
748,9	539,381
749,3	539,981
749,8	535,181
750,2	531,438
750,6	523,838
751,1	527,01
751,5	522,752
751,9	524,524
752,4	514,438
752,8	511,638
753,3	506,752
753,7	504,667
754,1	499,524
754,6	491,61
755	489,552
755,4	485,952
755,9	484,438
756,3	479,924
756,7	470,495
757,2	463,581
757,6	464,381
758	455,01
758,5	453,895
758,9	448,438
759,3	446,21
759,8	453,067
760,2	451,324
760,6	450,867
761,1	446,01
761,5	445,524
761,9	441,181
762,4	437,552
762,8	433,038
763,3	426,695
763,7	423,724
764,1	423,924
764,6	419,01
765	419,21
765,4	418,267
765,9	408,495
766,3	404,781
766,7	399,867
767,2	401,838
767,6	394,752
768	390,838
768,5	384,238
768,9	382,381
769,3	383,81
769,8	383,495
770,2	381,581
770,6	381,238
771,1	386,552
771,5	387,038
771,9	386,724
772,4	387,124
772,8	382,295
773,2	378,01
773,7	375,295
774,1	370,095
774,5	369,238
775	364,581
775,4	359,152
775,8	359,41
776,3	353,524
776,7	352,181
777,1	350,638
777,6	347,21
778	348,724
778,4	342,695
778,9	337,552
779,3	338,41
779,7	335,752
780,2	329,038
780,6	328,724
781	322,638
781,5	325,752
781,9	325,038
782,3	322,61
782,8	318,61
783,2	315,181
783,6	308,581
784,1	309,495
784,5	308,495
784,9	304,924
785,4	303,952
785,8	301,524
786,2	298,81
786,7	299,41
787,1	295,695
787,5	292,038
788	289,61
788,4	283,038
788,8	280,067
789,3	278,324
789,7	276,438
790,1	275,01
790,6	278,695
791	278,21
791,4	276,152
791,9	277,524
792,3	272,067
792,7	273,124
793,2	267,181
793,6	262,895
794	260,21
794,5	264,01
794,9	263,01
795,3	266,41
795,8	262,552
796,2	263,867
796,6	252,467
797,1	253,21
797,5	246,952
797,9	241,467
798,4	239,181
798,8	233,067
799,2	230,838
799,7	235,581
800,1	231,867
800,5	230,724
801	231,21
801,4	227,438
801,8	230,61
802,2	230,981
802,7	227,838
803,1	223,752
803,5	224,267
804	222,724
804,4	222,295
804,8	218,581
805,3	213,867
805,7	215,752
806,1	219,724
806,6	216,924
807	218,752
807,4	215,438
807,9	215,495
808,3	214,21
808,7	206,867
809,2	203,895
809,6	200,981
810	194,295
810,4	196,21
810,9	190,21
811,3	193,095
811,7	193,095
812,2	191,124
812,6	189,124
813	191,781
813,5	186,61
813,9	186,295
814,3	178,924
814,8	179,924
815,2	172,867
815,6	171,467
816,1	167,61
816,5	167,752
816,9	171,095
817,3	171,61
817,8	177,667
818,2	174,267
818,6	175,924
819,1	175,924
819,5	178,724
819,9	170,781
820,4	171,667
820,8	159,667
821,2	167,61
821,7	164,924
822,1	163,295
822,5	159,724
822,9	164,152
823,4	158,81
823,8	160,81
824,2	156,981
824,7	158,724
825,1	159,038
825,5	162,067
826	160,181
826,4	162,838
826,8	161,324
827,3	158,695
827,7	156,838
828,1	152,981
828,5	147,924
829	142,638
829,4	147,524
829,8	143,267
830,3	143,038
830,7	137,867
831,1	135,467
831,6	134,781
832	130,352
832,4	122,895
832,8	124,952
833,3	121,324
833,7	126,438
834,1	129,267
834,6	125,352
835	130,724
835,4	134,638
835,8	133,095
836,3	131,638
836,7	123,381
837,1	120,552
837,6	116,781
838	111,152
838,4	104,81
838,9	110,381
839,3	115,467
839,7	117,61
840,1	117,067
840,6	119,467
841	119,981
841,4	117,41
841,9	110,295
842,3	107,124
842,7	107,352
843,1	108,295
843,6	111,238
844	114,41
844,4	117,381
844,9	114,924
845,3	110,41
845,7	111,01
846,2	107,21
846,6	104,295
847	98,838
847,4	97,124
847,9	96,381
848,3	97,981
848,7	97,895
849,2	99,524
849,6	101,838
850	101,981
850,4	102,381
850,9	103,695
851,3	101,495
851,7	101,924
852,2	90,695
852,6	90,61
853	93,895
853,4	97,238
853,9	93,924
854,3	95,552
854,7	87,067
855,2	94,067
855,6	86,267
856	80,438
856,4	73,095
856,9	71,552
857,3	71,124
857,7	77,124
858,2	75,724
858,6	81,124
859	79,381
859,4	83,438
859,9	85,667
860,3	84,352
860,7	81,552
861,1	82,81
861,6	77,238
862	81,095
862,4	78,095
862,9	74,41
863,3	71,21
863,7	68,524
864,1	67,438
864,6	68,438
865	65,695
865,4	59,867
865,9	56,41
866,3	61,467
866,7	66,895
867,1	72,981
867,6	72,495
868	71,695
868,4	73,067
868,8	80,724
869,3	77,81
869,7	67,781
870,1	67,81
870,6	66,038
871	120,781
871,4	119,981
871,8	116,352
872,3	116,752
872,7	119,152
873,1	114,61
873,5	113,981
874	58,152
874,4	57,781
874,8	56,381
875,3	52,181
875,7	52,81
876,1	49,295
876,5	55,838
877	59,267
877,4	62,181
877,8	65,21
878,2	67,21
878,7	68,467
879,1	70,895
879,5	65,952
879,9	64,438
880,4	60,752
880,8	58,724
881,2	60,21
881,7	63,495
882,1	63,267
882,5	60,238
882,9	58,838
883,4	60,267
883,8	59,952
884,2	57,495
884,6	57,295
885,1	55,781
885,5	59,838
885,9	65,238
886,3	64,667
886,8	60,524
887,2	58,21
887,6	53,581
888	51,21
888,5	51,552
888,9	48,038
889,3	45,01
889,8	47,952
890,2	50,724
890,6	49,524
891	49,095
891,5	50,238
891,9	48,981
892,3	50,238
892,7	47,695
893,2	45,638
893,6	47,352
894	45,867
894,4	44,838
894,9	43,238
895,3	43,067
895,7	44,781
896,1	42,41
896,6	38,695
897	41,667
897,4	33,095
897,8	33,324
898,3	34,238
898,7	32,495
899,1	36,181
899,5	35,524
900	34,352
900,4	35,41
900,8	36,324
901,2	36,952
901,7	35,352
902,1	37,152
902,5	35,524
902,9	35,038
903,4	40,81
903,8	38,095
904,2	40,952
904,6	38,695
905,1	34,552
905,5	36,895
905,9	37,01
906,3	31,581
906,8	34,152
907,2	27,067
907,6	33,638
908	34,838
908,5	34,667
908,9	34,295
909,3	33,781
909,7	35,01
910,2	38,867
910,6	36,981
911	39,067
911,4	38,01
911,9	37,752
912,3	39,124
912,7	37,01
913,1	32,524
913,6	32,21
914	29,324
914,4	28,581
914,8	28,095
915,3	27,895
915,7	25,61
916,1	28,61
916,5	26,552
916,9	24,61
917,4	26,867
917,8	28,838
918,2	24,752
918,6	26,438
919,1	24,695
919,5	28,695
919,9	29,324
920,3	26,295
920,8	24,781
921,2	32,124
921,6	31,695
922	28,552
922,5	26,638
922,9	26,781
923,3	29,495
923,7	24,61
924,2	23,067
924,6	23,867
925	25,924
925,4	23,924
925,8	20,667
926,3	22,495
926,7	27,152
927,1	26,524
927,5	23,552
928	22,238
928,4	22,381
928,8	26,752
929,2	23,438
929,7	20,952
930,1	17,41
930,5	17,495
930,9	20,81
931,3	22,924
931,8	21,667
932,2	18,695
932,6	20,124
933	19,524
933,5	15,61
933,9	16,924
934,3	13,752
934,7	16,038
935,2	19,152
935,6	17,667
936	16,181
936,4	23,181
936,8	20,724
937,3	25,095
937,7	21,21
938,1	17,724
938,5	20,067
939	26,124
939,4	24,581
939,8	24,324
940,2	23,581
940,6	22,667
941,1	28,381
941,5	31,838
941,9	27,724
942,3	22,124
942,8	23,467
943,2	15,867
943,6	20,524
944	18,81
944,4	13,667
944,9	14,095
945,3	21,838
945,7	21,01
946,1	26,038
946,6	22,952
947	24,324
947,4	24,638
947,8	29,781
948,2	26,238
948,7	27,295
949,1	26,667
949,5	29,638
949,9	27,581
950,3	26,524
950,8	21,895
951,2	19,067
951,6	19,095
952	18,352
952,5	14,095
952,9	12,781
953,3	11,81
953,7	11,552
954,1	12,838
954,6	12,41
955	15,067
955,4	13,295
955,8	16,581
956,2	15,638
956,7	17,667
957,1	19,038
957,5	17,495
957,9	14,81
958,3	17,152
958,8	17,21
959,2	18,581
959,6	19,352
960	18,524
960,5	15,267
960,9	14,038
961,3	14,638
961,7	10,467
962,1	6,352
962,6	3,21
963	1,238
963,4	6,181
963,8	9,238
964,2	10,81
964,7	9,41
965,1	16,752
965,5	16,638
965,9	21,295
966,3	18,095
966,8	17,267
967,2	18,181
967,6	23,324
968	22,152
968,4	23,01
968,9	27,952
969,3	27,524
969,7	25,352
970,1	26,038
970,5	25,124
971	20,267
971,4	20,552
971,8	18,352
972,2	23,01
972,6	26,552
973,1	24,438
973,5	21,781
973,9	21,667
974,3	17,181
974,7	10,552
975,2	6,324
975,6	0,124
976	0,695
976,4	3,21
976,8	8,152
977,3	10,467
977,7	10,924
978,1	11,952
978,5	18,781
978,9	16,61
979,4	13,867
979,8	12,124
980,2	11,238
980,6	14,495
981	19,895
981,5	19,152
981,9	19,324
982,3	17,152
982,7	21,781
983,1	22,81
983,6	19,638
984	16,295
984,4	14,095
984,8	13,81
985,2	16,867
985,6	12,867
986,1	16,638
986,5	11,21
986,9	10,695
987,3	9,381
987,7	10,695
988,2	12,81
988,6	16,095
989	15,124
989,4	27,01
989,8	24,524
990,3	24,981
990,7	20,81
991,1	19,152
991,5	12,838
991,9	17,038
992,3	12,552
992,8	17,695
993,2	21,438
993,6	25,724
994	24,981
994,4	25,295
994,9	21,095
995,3	19,495
995,7	14,267
996,1	12,667
996,5	10,038
996,9	12,267
997,4	14,552
997,8	11,238
998,2	15,01
998,6	15,238
999	15,752
999,5	16,981
999,9	15,067
1000,3	17,41
1000,7	18,381
1001,1	13,352
1001,5	9,981
1002	4,81
1002,4	5,181
1002,8	8,267
1003,2	6,295
1003,6	8,752
1004	10,81
1004,5	12,895
1004,9	15,181
1005,3	11,552
1005,7	9,124
1006,1	5,295
1006,6	6,381
1007	5,867
1007,4	6,695
1007,8	6,352
1008,2	8,838
1008,6	3,552
1009,1	3,838
1009,5	7,81
1009,9	10,752
1010,3	13,724
1010,7	17,952
1011,1	20,981
1011,6	25,267
1012	26,524
1012,4	23,952
1012,8	15,324
1013,2	12,981
1013,6	12,867
1014,1	12,095
1014,5	11,924
1014,9	14,667
1015,3	11,638
1015,7	16,924
1016,1	19,381
1016,6	21,124
1017	22,895
1017,4	21,81
1017,8	17,295
1018,2	12,495
1018,6	13,524
1019,1	10,524
1019,5	6,095
1019,9	8,095
1020,3	8,124
1020,7	12,495
1021,1	17,067
1021,6	15,038
1022	9,638
1022,4	10,581
1022,8	6,981
1023,2	7,581
1023,6	2,895
1024,1	4,352
1024,5	4,124
1024,9	13,924
1025,3	14,981
1025,7	13,724
1026,1	15,381
1026,6	22,61
1027	22,667
1027,4	24,924
1027,8	18,81
1028,2	13,295
1028,6	16,381
1029	9,724
1029,5	7,695
1029,9	6,152
1030,3	8,467
1030,7	10,124
1031,1	10,381
1031,5	5,095
1032	14,381
1032,4	11,552
1032,8	8,267
1033,2	6,01
1033,6	9,61
1034	11,124
1034,4	20,038
1034,9	13,924
1035,3	19,067
1035,7	22,895
1036,1	22,867
1036,5	16,81
1036,9	16,724
1037,4	13,095
1037,8	15,952
1038,2	8,095
1038,6	7,524
1039	0,667
1039,4	3,295
1039,8	0,524
1040,3	0,095
1040,7	-2,705
1041,1	0,467
1041,5	-4,162
1041,9	3,695
1042,3	6,724
1042,7	13,438
1043,2	12,324
1043,6	18,895
1044	19,81
1044,4	20,21
1044,8	17,295
1045,2	15,581
1045,6	15,581
1046,1	18,152
1046,5	16,695
1046,9	19,324
1047,3	25,238
1047,7	25,724
1048,1	24,41
1048,5	22,467
1049	22,524
1049,4	18,952
1049,8	18,238
1050,2	13,81
1050,6	16,124
1051	21,724
1051,4	21,438
1051,9	23,495
1052,3	23,324
1052,7	22,895
1053,1	27,324
1053,5	27,667
1053,9	23,981
1054,3	19,952
1054,8	19,552
1055,2	22,41
1055,6	19,095
1056	19,267
1056,4	17,381
1056,8	19,81
1057,2	24,781
1057,6	17,124
1058,1	16,324
1058,5	20,181
1058,9	17,724
1059,3	20,981
1059,7	13,81
1060,1	14,41
1060,5	13,552
1061	12,324
1061,4	14,21
1061,8	11,61
1062,2	9,21
1062,6	9,438
1063	6,838
1063,4	9,352
1063,8	6,295
1064,3	0,638
1064,7	-2,248
1065,1	0,181
1065,5	5,238
1065,9	3,924
1066,3	3,095
1066,7	6,667
1067,1	10,952
1067,6	17,324
1068	13,238
1068,4	14,752
1068,8	17,295
1069,2	17,095
1069,6	21,895
1070	21,181
1070,4	19,381
1070,9	21,152
1071,3	17,638
1071,7	21,695
1072,1	24,41
1072,5	21,181
1072,9	21,038
1073,3	22,124
1073,7	23,381
1074,2	27,752
1074,6	25,467
1075	24,752
1075,4	24,81
1075,8	26,41
1076,2	26,152
1076,6	23,752
1077	19,238
1077,5	15,952
1077,9	18,41
1078,3	17,438
1078,7	16,038
1079,1	20,01
1079,5	20,781
1079,9	25,981
1080,3	31,238
1080,7	30,895
1081,2	29,724
1081,6	30,01
1082	27,695
1082,4	26,495
1082,8	18,552
1083,2	14,495
1083,6	10,867
1084	11,781
1084,5	6,01
1084,9	3,124
1085,3	2,124
1085,7	3,152
1086,1	1,238
1086,5	4,381
1086,9	4,638
1087,3	7,781
1087,7	10,181
1088,2	7,867
1088,6	8,21
1089	7,952
1089,4	6,181
1089,8	9,495
1090,2	8,467
1090,6	5,067
1091	11,867
1091,4	16,781
1091,9	20,01
1092,3	20,695
1092,7	16,867
1093,1	15,324
1093,5	13,895
1093,9	14,667
1094,3	14,724
1094,7	15,067
1095,1	8,267
1095,5	8,181
1096	5,267
1096,4	12,524
1096,8	5,124
1097,2	3,324
1097,6	-1,533
1098	4,467
1098,4	6,124
1098,8	11,695
1099,2	7,752
1099,6	11,924
1100,1	10,667
1100,5	14,667
1100,9	13,924
1101,3	12,952
1101,7	16,124
1102,1	13,981
1102,5	13,352
1102,9	10,952
1103,3	7,524
1103,7	6,095
1104,2	4,867
1104,6	3,924
1105	4,924
1105,4	3,895
1105,8	5,038
1106,2	6,552
1106,6	5,581
1107	4,41
1107,4	0,567
1107,8	0,347
1108,3	-0,033
