Data from Subt2_010.txt Node
Date: Sat Aug 26 16:12:09 MSK 2023
User: vat
Spectrometer: MAYP114033
Trigger mode: 0
Integration Time (sec): 1,000000E0
Scans to average: 5
Electric dark correction enabled: true
Nonlinearity correction enabled: false
Boxcar width: 3
XAxis mode: Wavelengths
Number of Pixels in Spectrum: 2068
>>>>>Begin Spectral Data<<<<<
199,4	-1,117
199,9	-0,487
200,4	-4,9
200,8	-4,424
201,3	-4,938
201,8	-4,852
202,2	-2,395
202,7	-1,481
203,2	-2,852
203,6	3,519
204,1	3,976
204,6	6,748
205	5,948
205,5	4,548
206	1,976
206,4	3,833
206,9	3,405
207,4	2,262
207,8	0,948
208,3	0,49
208,8	5,69
209,2	6,005
209,7	3,919
210,2	1,833
210,6	2,633
211,1	5,205
211,5	5,262
212	-1,824
212,5	-1,51
212,9	5,776
213,4	3,69
213,9	2,09
214,3	-4,31
214,8	0,233
215,3	2,833
215,7	4,262
216,2	0,348
216,7	3,719
217,1	6,719
217,6	8,748
218,1	9,548
218,5	7,233
219	1,09
219,5	2,633
219,9	3,005
220,4	7,005
220,9	4,605
221,3	2,148
221,8	1,519
222,3	7,148
222,7	6,433
223,2	7,605
223,6	8,005
224,1	11,862
224,6	9,662
225	13,89
225,5	15,69
226	16,948
226,4	17,519
226,9	12,376
227,4	15,805
227,8	18,29
228,3	16,319
228,8	17,576
229,2	16,376
229,7	13,462
230,2	15,633
230,6	10,748
231,1	12,805
231,5	11,89
232	10,49
232,5	8,405
232,9	8,719
233,4	6,633
233,9	6,719
234,3	-1,024
234,8	-1,11
235,3	2,976
235,7	-1,595
236,2	-2,31
236,7	-2,624
237,1	-4,252
237,6	1,862
238,1	2,833
238,5	-1,395
239	3,233
239,4	5,862
239,9	1,776
240,4	4,976
240,8	0,148
241,3	1,262
241,8	2,662
242,2	2,576
242,7	3,462
243,2	3,605
243,6	4,69
244,1	6,976
244,6	2,033
245	-2,052
245,5	-0,195
245,9	-0,481
246,4	7,833
246,9	6,833
247,3	9,376
247,8	14,205
248,3	13,319
248,7	13,833
249,2	10,633
249,7	7,033
250,1	8,805
250,6	3,662
251	-3,824
251,5	-0,195
252	2,605
252,4	5,519
252,9	-0,91
253,4	-1,338
253,8	5,205
254,3	11,462
254,8	10,662
255,2	3,605
255,7	1,233
256,1	8,862
256,6	5,233
257,1	1,862
257,5	2,09
258	5,005
258,5	6,548
258,9	6,062
259,4	3,605
259,9	3,719
260,3	3,919
260,8	4,033
261,2	0,376
261,7	-4,11
262,2	-3,967
262,6	-5,538
263,1	-3,624
263,6	-3,71
264	-2,481
264,5	1,348
264,9	6,805
265,4	8,09
265,9	9,976
266,3	9,348
266,8	9,148
267,3	6,833
267,7	4,805
268,2	1,776
268,7	3,29
269,1	1,319
269,6	-3,31
270	-4,938
270,5	-4,11
271	-7,11
271,4	-8,481
271,9	-7,052
272,4	-6,252
272,8	0,433
273,3	2,405
273,7	4,29
274,2	3,376
274,7	10,748
275,1	7,89
275,6	9,919
276,1	12,005
276,5	10,748
277	4,119
277,4	6,09
277,9	0,548
278,4	4,519
278,8	1,948
279,3	0,376
279,8	3,805
280,2	11,69
280,7	13,205
281,1	8,09
281,6	2,976
282,1	3,948
282,5	-0,938
283	-1,367
283,4	-8,567
283,9	-11,538
284,4	-6,91
284,8	-5,138
285,3	-5,824
285,8	-3,452
286,2	-8,31
286,7	-5,995
287,1	0,233
287,6	4,776
288,1	2,662
288,5	4,548
289	7,519
289,5	12,805
289,9	13,176
290,4	6,376
290,8	5,405
291,3	7,29
291,8	5,89
292,2	4,348
292,7	-2,081
293,1	-2,167
293,6	0,605
294,1	-1,51
294,5	-4,71
295	0,29
295,5	0,89
295,9	3,548
296,4	5,69
296,8	8,119
297,3	6,233
297,8	8,919
298,2	5,948
298,7	4,005
299,1	8,976
299,6	9,69
300,1	11,148
300,5	16,405
301	14,576
301,5	15,033
301,9	20,176
302,4	14,919
302,8	15,748
303,3	11,319
303,8	7,662
304,2	6,805
304,7	10,033
305,1	2,976
305,6	5,776
306,1	1,262
306,5	-0,167
307	-0,395
307,4	0,548
307,9	-0,424
308,4	-1,595
308,8	2,062
309,3	4,148
309,8	9,319
310,2	10,062
310,7	10,376
311,1	6,319
311,6	8,49
312,1	5,433
312,5	8,062
313	5,29
313,4	6,919
313,9	5,262
314,4	9,862
314,8	15,09
315,3	10,948
315,7	9,605
316,2	9,233
316,7	3,605
317,1	8,748
317,6	3,719
318	-2,024
318,5	0,319
319	-1,281
319,4	-4,938
319,9	-7,224
320,3	-6,024
320,8	-3,852
321,3	-1,224
321,7	-3,167
322,2	-4,595
322,6	0,919
323,1	9,148
323,6	7,49
324	8,319
324,5	12,633
324,9	13,405
325,4	18,919
325,9	16,776
326,3	16,433
326,8	11,862
327,2	10,719
327,7	3,519
328,2	3,29
328,6	-1,91
329,1	-3,367
329,5	-2,481
330	-0,71
330,5	-4,138
330,9	-1,681
331,4	-1,424
331,8	2,662
332,3	5,605
332,8	3,49
333,2	0,633
333,7	8,576
334,1	9,748
334,6	14,89
335,1	12,748
335,5	12,119
336	11,176
336,4	15,776
336,9	5,348
337,4	6,919
337,8	3,776
338,3	3,49
338,7	6,519
339,2	9,405
339,7	9,519
340,1	17,862
340,6	10,519
341	11,348
341,5	12,348
342	14,119
342,4	18,519
342,9	20,433
343,3	16,176
343,8	21,89
344,2	22,433
344,7	23,805
345,2	21,348
345,6	12,633
346,1	13,662
346,5	17,348
347	19,405
347,5	18,89
347,9	24,005
348,4	23,262
348,8	30,176
349,3	30,462
349,8	31,976
350,2	33,09
350,7	42,09
351,1	41,833
351,6	51,576
352	59,319
352,5	69,776
353	83,262
353,4	97,862
353,9	111,205
354,3	138,833
354,8	164,119
355,3	197,348
355,7	233,005
356,2	279,262
356,6	334,233
357,1	396,633
357,5	462,405
358	537,719
358,5	628,976
358,9	741,062
359,4	857,748
359,8	991,776
360,3	1145,262
360,8	1314,548
361,2	1505,805
361,7	1711,719
362,1	1934,348
362,6	2183,89
363	2451,148
363,5	2726,376
364	3023,205
364,4	3320,148
364,9	3619,033
365,3	3919,119
365,8	4198,833
366,3	4455,919
366,7	4698,033
367,2	4890,319
367,6	5055,205
368,1	5188,033
368,5	5262,09
369	5300,833
369,5	5293,49
369,9	5244,89
370,4	5165,233
370,8	5046,89
371,3	4889,033
371,7	4706,719
372,2	4502,29
372,7	4284,319
373,1	4045,805
373,6	3811,205
374	3565,548
374,5	3326,69
374,9	3098,776
375,4	2880,805
375,9	2668,919
376,3	2468,719
376,8	2269,548
377,2	2093,662
377,7	1923,319
378,2	1768,976
378,6	1617,205
379,1	1477,833
379,5	1353,376
380	1240,176
380,4	1133,433
380,9	1038,062
381,4	945,719
381,8	865,119
382,3	792,69
382,7	732,462
383,2	681,833
383,6	635,776
384,1	592,119
384,6	549,176
385	513,176
385,5	487,09
385,9	451,148
386,4	416,69
386,8	382,862
387,3	356,005
387,7	331,176
388,2	302,519
388,7	273,948
389,1	256,862
389,6	235,919
390	223,719
390,5	202,662
390,9	188,833
391,4	181,748
391,9	172,262
392,3	156,919
392,8	149,348
393,2	132,176
393,7	124,233
394,1	119,633
394,6	110,548
395,1	102,633
395,5	98,462
396	93,862
396,4	93,89
396,9	90,576
397,3	87,119
397,8	85,69
398,2	82,319
398,7	77,719
399,2	73,748
399,6	67,005
400,1	65,49
400,5	57,09
401	51,948
401,4	52,633
401,9	52,348
402,4	51,719
402,8	58,262
403,3	59,719
403,7	60,919
404,2	64,376
404,6	62,29
405,1	61,919
405,5	59,29
406	55,719
406,5	58,119
406,9	62,119
407,4	57,976
407,8	64,348
408,3	65,319
408,7	69,376
409,2	76,033
409,6	79,976
410,1	86,062
410,6	95,233
411	98,376
411,5	109,89
411,9	119,262
412,4	126,09
412,8	129,805
413,3	132,89
413,7	140,09
414,2	149,462
414,7	154,176
415,1	156,176
415,6	165,919
416	173,519
416,5	186,09
416,9	196,148
417,4	199,29
417,8	205,576
418,3	221,719
418,8	234,176
419,2	250,776
419,7	258,548
420,1	270,176
420,6	294,233
421	306,205
421,5	318,662
421,9	330,348
422,4	341,062
422,8	361,148
423,3	380,005
423,8	395,062
424,2	419,719
424,7	440,462
425,1	461,005
425,6	479,062
426	501,005
426,5	525,862
426,9	544,519
427,4	573,576
427,9	598,376
428,3	632,09
428,8	669,833
429,2	701,548
429,7	738,405
430,1	782,405
430,6	816,233
431	859,119
431,5	895,348
431,9	937,033
432,4	985,348
432,8	1025,119
433,3	1069,29
433,8	1118,776
434,2	1169,148
434,7	1225,633
435,1	1283,976
435,6	1338,376
436	1401,29
436,5	1462,69
436,9	1534,348
437,4	1603,433
437,8	1676,719
438,3	1752,233
438,8	1832,205
439,2	1922,633
439,7	2010,519
440,1	2098,376
440,6	2188,919
441	2288,719
441,5	2388,776
441,9	2489,576
442,4	2589,69
442,8	2698,49
443,3	2811,119
443,7	2937,376
444,2	3049,462
444,7	3170,605
445,1	3302,89
445,6	3434,205
446	3567,005
446,5	3697,348
446,9	3837,176
447,4	3985,805
447,8	4133,319
448,3	4283,548
448,7	4427,662
449,2	4585,405
449,6	4756,319
450,1	4916,119
450,6	5083,548
451	5249,09
451,5	5421,462
451,9	5609,548
452,4	5792,405
452,8	5977,119
453,3	6168,719
453,7	6356,919
454,2	6564,719
454,6	6771,776
455,1	6966,833
455,5	7170,262
456	7369,49
456,4	7581,005
456,9	7805,49
457,3	8017,405
457,8	8224,462
458,3	8445,662
458,7	8672,262
459,2	8906,976
459,6	9131,462
460,1	9355,719
460,5	9586,519
461	9828,89
461,4	10063,576
461,9	10301,976
462,3	10532,805
462,8	10768,09
463,2	10996,662
463,7	11230,148
464,1	11462,576
464,6	11701,062
465	11932,176
465,5	12173,119
466	12412,233
466,4	12650,319
466,9	12899,462
467,3	13138,033
467,8	13378,833
468,2	13618,748
468,7	13848,233
469,1	14082,376
469,6	14326,09
470	14541,519
470,5	14766,148
470,9	14989,576
471,4	15206,033
471,8	15429,519
472,3	15636,89
472,7	15844,976
473,2	16054,205
473,6	16261,148
474,1	16464,29
474,5	16665,519
475	16861,548
475,4	17057,005
475,9	17244,605
476,4	17428,976
476,8	17602,176
477,3	17778,433
477,7	17952,348
478,2	18107,262
478,6	18273,462
479,1	18427,119
479,5	18574,29
480	18723,519
480,4	18847,862
480,9	18968,033
481,3	19087,976
481,8	19197,662
482,2	19302,49
482,7	19410,719
483,1	19494,462
483,6	19591,976
484	19684,49
484,5	19783,005
484,9	19869,919
485,4	19951,548
485,8	20011,69
486,3	20072,262
486,7	20125,662
487,2	20166,49
487,6	20189,719
488,1	20203,376
488,5	20219,919
489	20234,348
489,4	20243,719
489,9	20245,548
490,4	20242,005
490,8	20236,919
491,3	20232,062
491,7	20202,005
492,2	20179,576
492,6	20156,69
493,1	20120,719
493,5	20073,319
494	20035,662
494,4	19964,148
494,9	19910,633
495,3	19846,176
495,8	19771,462
496,2	19711,948
496,7	19647,748
497,1	19575,548
497,6	19502,69
498	19417,662
498,5	19337,176
498,9	19263,062
499,4	19158,748
499,8	19059,205
500,3	18947,576
500,7	18857,605
501,2	18758,148
501,6	18655,49
502,1	18547,719
502,5	18441,176
503	18347,433
503,4	18237,433
503,9	18128,576
504,3	18014,376
504,8	17889,09
505,2	17763,576
505,7	17639,405
506,1	17507,205
506,6	17376,833
507	17240,348
507,5	17107,576
507,9	16974,433
508,4	16829,519
508,8	16694,633
509,3	16557,148
509,7	16416,519
510,2	16271,348
510,6	16124,405
511,1	15984,833
511,5	15846,005
512	15708,433
512,4	15554,033
512,9	15409,29
513,3	15270,576
513,8	15129,262
514,2	14973,348
514,7	14836,662
515,1	14687,29
515,6	14543,976
516	14396,548
516,5	14248,805
516,9	14104,633
517,4	13967,205
517,8	13810,605
518,3	13667,148
518,7	13511,148
519,2	13378,462
519,6	13233,948
520,1	13089,605
520,5	12950,633
521	12814,348
521,4	12665,719
521,9	12536,69
522,3	12394,205
522,8	12254,805
523,2	12125,948
523,7	11991,748
524,1	11853,719
524,6	11726,176
525	11594,948
525,5	11461,319
525,9	11341,919
526,4	11203,29
526,8	11082,005
527,3	10965,062
527,7	10844,205
528,2	10730,919
528,6	10616,148
529,1	10484,348
529,5	10367,605
530	10248,662
530,4	10135,748
530,9	10033,319
531,3	9921,319
531,8	9812,548
532,2	9716,69
532,6	9620,148
533,1	9509,633
533,5	9403,633
534	9287,09
534,4	9180,033
534,9	9076,49
535,3	8979,719
535,8	8880,976
536,2	8788,748
536,7	8698,405
537,1	8607,49
537,6	8514,148
538	8423,89
538,5	8324,319
538,9	8226,805
539,4	8137,319
539,8	8046,719
540,3	7961,176
540,7	7873,976
541,2	7795,319
541,6	7716,376
542,1	7636,405
542,5	7555,605
543	7476,633
543,4	7402,89
543,9	7333,748
544,3	7247,833
544,8	7174,29
545,2	7103,233
545,7	7038,69
546,1	6967,033
546,5	6897,519
547	6830,662
547,4	6769,805
547,9	6704,776
548,3	6642,09
548,8	6570,49
549,2	6514,976
549,7	6453,69
550,1	6394,69
550,6	6336,69
551	6273,719
551,5	6220,148
551,9	6171,833
552,4	6111,348
552,8	6047,89
553,3	5982,319
553,7	5934,405
554,2	5889,205
554,6	5837,433
555,1	5775,633
555,5	5724,776
555,9	5678,548
556,4	5632,862
556,8	5579,576
557,3	5526,976
557,7	5480,348
558,2	5447,005
558,6	5403,319
559,1	5365,69
559,5	5331,062
560	5290,69
560,4	5245,205
560,9	5207,376
561,3	5154,462
561,8	5110,49
562,2	5062,719
562,7	5017,233
563,1	4974,719
563,6	4946,89
564	4906,433
564,4	4875,119
564,9	4842,519
565,3	4808,519
565,8	4774,948
566,2	4739,519
566,7	4695,205
567,1	4654,262
567,6	4619,29
568	4577,976
568,5	4542,633
568,9	4509,662
569,4	4480,433
569,8	4447,262
570,3	4417,433
570,7	4383,633
571,1	4364,176
571,6	4334,89
572	4295,548
572,5	4259,776
572,9	4237,719
573,4	4197,919
573,8	4169,89
574,3	4132,89
574,7	4100,405
575,2	4078,348
575,6	4049,948
576,1	4019,433
576,5	4000,176
576,9	3970,833
577,4	3945,376
577,8	3920,49
578,3	3894,833
578,7	3863,976
579,2	3831,462
579,6	3805,29
580,1	3780,205
580,5	3752,376
581	3725,462
581,4	3696,49
581,9	3669,69
582,3	3647,376
582,7	3618,862
583,2	3591,662
583,6	3567,548
584,1	3541,062
584,5	3519,062
585	3501,29
585,4	3478,633
585,9	3453,119
586,3	3432,576
586,8	3414,433
587,2	3395,319
587,6	3372,319
588,1	3351,29
588,5	3328,233
589	3307,319
589,4	3287,319
589,9	3264,919
590,3	3246,462
590,8	3219,748
591,2	3194,205
591,7	3173,348
592,1	3162,205
592,5	3145,348
593	3124,862
593,4	3105,376
593,9	3092,576
594,3	3077,919
594,8	3060,89
595,2	3043,405
595,7	3025,033
596,1	3004,776
596,6	2987,805
597	2972,776
597,4	2958,319
597,9	2942,49
598,3	2926,176
598,8	2901,776
599,2	2894,89
599,7	2884,033
600,1	2863,948
600,6	2851,462
601	2842,49
601,4	2828,662
601,9	2825,005
602,3	2802,662
602,8	2784,148
603,2	2776,919
603,7	2761,519
604,1	2741,776
604,6	2727,119
605	2710,262
605,4	2693,119
605,9	2677,433
606,3	2665,89
606,8	2650,69
607,2	2636,148
607,7	2618,405
608,1	2602,805
608,6	2590,348
609	2574,662
609,4	2549,919
609,9	2539,662
610,3	2525,348
610,8	2513,033
611,2	2496,262
611,7	2478,719
612,1	2462,319
612,6	2451,633
613	2430,748
613,4	2417,519
613,9	2401,29
614,3	2386,005
614,8	2377,462
615,2	2369,148
615,7	2360,89
616,1	2340,605
616,6	2322,262
617	2305,376
617,4	2286,69
617,9	2272,29
618,3	2251,776
618,8	2238,148
619,2	2231,119
619,7	2220,748
620,1	2208,148
620,5	2199,662
621	2183,233
621,4	2174,948
621,9	2161,376
622,3	2146,633
622,8	2131,262
623,2	2120,09
623,6	2111,605
624,1	2098,09
624,5	2080,976
625	2063,833
625,4	2049,09
625,9	2037,576
626,3	2022,376
626,8	2013,09
627,2	2002,205
627,6	1994,519
628,1	1978,948
628,5	1966,805
629	1956,405
629,4	1943,233
629,9	1925,433
630,3	1913,09
630,7	1896,748
631,2	1882,833
631,6	1866,148
632,1	1852,519
632,5	1840,205
633	1826,29
633,4	1815,062
633,8	1807,433
634,3	1793,005
634,7	1789,005
635,2	1773,948
635,6	1762,433
636,1	1746,919
636,5	1729,033
636,9	1710,89
637,4	1705,262
637,8	1686,633
638,3	1677,662
638,7	1670,062
639,2	1659,69
639,6	1651,605
640	1648,376
640,5	1636,748
640,9	1638,462
641,4	1626,948
641,8	1614,005
642,2	1606,319
642,7	1601,976
643,1	1588,09
643,6	1585,49
644	1569,919
644,5	1562,89
644,9	1554,262
645,3	1546,948
645,8	1533,119
646,2	1526,433
646,7	1507,348
647,1	1494,548
647,6	1481,605
648	1472,119
648,4	1459,205
648,9	1456,376
649,3	1444,919
649,8	1439,548
650,2	1438,919
650,6	1427,833
651,1	1423,433
651,5	1417,405
652	1406,233
652,4	1395,633
652,9	1387,919
653,3	1375,205
653,7	1368,69
654,2	1355,233
654,6	1344,833
655,1	1331,919
655,5	1322,205
655,9	1312,176
656,4	1302,548
656,8	1296,033
657,3	1288,69
657,7	1282,148
658,2	1274,805
658,6	1267,519
659	1256,176
659,5	1241,776
659,9	1239,062
660,4	1232,633
660,8	1222,233
661,2	1216,748
661,7	1207,262
662,1	1201,976
662,6	1198,376
663	1183,49
663,4	1172,29
663,9	1165,148
664,3	1156,862
664,8	1150,319
665,2	1141,205
665,6	1132,519
666,1	1128,348
666,5	1123,29
667	1115,205
667,4	1102,576
667,9	1091,833
668,3	1085,748
668,7	1079,919
669,2	1072,805
669,6	1064,462
670,1	1055,062
670,5	1041,033
670,9	1039,919
671,4	1035,405
671,8	1026,376
672,3	1011,948
672,7	1002,09
673,1	996,633
673,6	996,176
674	982,49
674,5	971,805
674,9	968,148
675,3	967,319
675,8	964,576
676,2	956,805
676,7	952,519
677,1	943,29
677,5	935,49
678	928,576
678,4	921,09
678,9	912,662
679,3	906,719
679,7	899,89
680,2	900,233
680,6	895,433
681,1	890,919
681,5	878,833
681,9	870,005
682,4	866,69
682,8	860,376
683,3	850,719
683,7	845,262
684,1	833,49
684,6	830,633
685	826,862
685,5	819,09
685,9	813,776
686,3	811,605
686,8	802,719
687,2	801,519
687,7	797,376
688,1	790,376
688,5	782,805
689	771,519
689,4	765,148
689,9	760,805
690,3	751,062
690,7	745,948
691,2	737,376
691,6	733,062
692	733,976
692,5	727,005
692,9	715,919
693,4	711,262
693,8	701,719
694,2	699,262
694,7	692,89
695,1	683,433
695,6	679,49
696	678,833
696,4	674,348
696,9	673,576
697,3	660,348
697,8	660,719
698,2	655,633
698,6	655,633
699,1	657,405
699,5	651,376
699,9	643,69
700,4	646,433
700,8	636,233
701,3	637,205
701,7	628,89
702,1	621,148
702,6	619,776
703	616,005
703,5	612,833
703,9	610,519
704,3	603,49
704,8	596,033
705,2	589,29
705,6	584,976
706,1	581,405
706,5	577,576
707	572,576
707,4	565,862
707,8	563,033
708,3	557,919
708,7	550,719
709,2	544,633
709,6	538,948
710	535,29
710,5	537,605
710,9	534,176
711,3	528,49
711,8	528,576
712,2	530,376
712,7	527,462
713,1	522,633
713,5	513,833
714	513,49
714,4	509,69
714,8	501,033
715,3	496,119
715,7	490,405
716,2	487,033
716,6	485,748
717	476,662
717,5	471,748
717,9	473,49
718,3	466,519
718,8	471,033
719,2	466,69
719,7	464,662
720,1	459,862
720,5	459,29
721	449,662
721,4	448,348
721,8	436,205
722,3	433,005
722,7	430,919
723,2	429,605
723,6	423,548
724	421,662
724,5	414,319
724,9	412,176
725,3	407,719
725,8	396,405
726,2	394,176
726,7	396,462
727,1	392,748
727,5	388,348
728	384,89
728,4	381,833
728,8	378,176
729,3	373,548
729,7	365,633
730,1	369,29
730,6	371,433
731	367,69
731,5	368,119
731,9	368,69
732,3	364,09
732,8	364,005
733,2	355,205
733,6	353,433
734,1	354,862
734,5	348,89
734,9	349,033
735,4	347,205
735,8	345,205
736,3	346,433
736,7	343,976
737,1	343,148
737,6	342,69
738	338,005
738,4	341,148
738,9	342,233
739,3	336,776
739,7	338,29
740,2	335,805
740,6	336,348
741,1	336,005
741,5	328,205
741,9	318,919
742,4	316,148
742,8	309,605
743,2	302,833
743,7	298,376
744,1	296,49
744,5	296,119
745	301,919
745,4	300,319
745,8	297,09
746,3	294,519
746,7	294,605
747,2	291,69
747,6	292,405
748	284,319
748,5	284,205
748,9	284,119
749,3	287,719
749,8	288,576
750,2	285,548
750,6	285,262
751,1	282,69
751,5	283,176
751,9	283,376
752,4	279,89
752,8	271,348
753,3	271,205
753,7	267,976
754,1	267,348
754,6	260,633
755	255,576
755,4	248,976
755,9	250,205
756,3	247,319
756,7	243,462
757,2	243,319
757,6	245,033
758	242,748
758,5	247,719
758,9	246,176
759,3	247,148
759,8	247,148
760,2	244,976
760,6	239,548
761,1	234,576
761,5	237,776
761,9	236,005
762,4	233,833
762,8	235,662
763,3	235,633
763,7	228,719
764,1	229,776
764,6	221,09
765	219,205
765,4	211,176
765,9	203,548
766,3	201,433
766,7	210,205
767,2	211,062
767,6	214,89
768	215,376
768,5	217,69
768,9	212,033
769,3	213,719
769,8	212,548
770,2	207,233
770,6	198,119
771,1	191,948
771,5	188,405
771,9	195,233
772,4	190,319
772,8	182,09
773,2	185,119
773,7	186,662
774,1	189,576
774,5	189,633
775	187,262
775,4	189,062
775,8	195,148
776,3	194,519
776,7	193,262
777,1	192,29
777,6	192,319
778	191,005
778,4	183,319
778,9	176,662
779,3	173,405
779,7	173,405
780,2	168,005
780,6	167,376
781	165,548
781,5	167,033
781,9	170,633
782,3	175,005
782,8	173,833
783,2	181,348
783,6	186,319
784,1	183,519
784,5	179,976
784,9	173,919
785,4	167,919
785,8	167,662
786,2	162,805
786,7	153,319
787,1	156,805
787,5	160,119
788	163,262
788,4	159,576
788,8	156,719
789,3	156,29
789,7	164,233
790,1	158,462
790,6	156,176
791	154,462
791,4	149,748
791,9	148,776
792,3	146,748
792,7	146,262
793,2	142,719
793,6	145,576
794	145,89
794,5	150,948
794,9	152,176
795,3	147,662
795,8	143,69
796,2	146,262
796,6	141,805
797,1	143,433
797,5	138,805
797,9	135,548
798,4	137,205
798,8	136,176
799,2	139,976
799,7	142,49
800,1	136,348
800,5	137,119
801	131,862
801,4	129,548
801,8	128,948
802,2	126,833
802,7	125,805
803,1	129,09
803,5	127,862
804	134,462
804,4	135,805
804,8	133,776
805,3	131,89
805,7	126,119
806,1	120,319
806,6	122,062
807	119,433
807,4	118,69
807,9	115,233
808,3	112,433
808,7	108,719
809,2	110,119
809,6	108,519
810	108,062
810,4	101,433
810,9	101,376
811,3	99,662
811,7	104,919
812,2	106,262
812,6	101,719
813	95,433
813,5	99,319
813,9	99,89
814,3	100,89
814,8	99,405
815,2	96,662
815,6	100,29
816,1	103,605
816,5	102,833
816,9	95,148
817,3	93,462
817,8	94,948
818,2	93,119
818,6	91,89
819,1	93,033
819,5	91,119
819,9	96,805
820,4	97,776
820,8	95,062
821,2	94,548
821,7	93,805
822,1	90,862
822,5	91,976
822,9	89,576
823,4	86,033
823,8	85,062
824,2	80,833
824,7	80,033
825,1	80,948
825,5	78,69
826	77,548
826,4	81,119
826,8	78,09
827,3	80,948
827,7	79,776
828,1	77,805
828,5	80,062
829	79,062
829,4	78,548
829,8	82,919
830,3	83,376
830,7	83,462
831,1	82,348
831,6	77,719
832	77,148
832,4	70,805
832,8	70,033
833,3	70,033
833,7	69,062
834,1	69,862
834,6	71,033
835	72,805
835,4	81,405
835,8	77,262
836,3	71,462
836,7	70,405
837,1	66,976
837,6	66,262
838	63,519
838,4	54,405
838,9	55,748
839,3	57,633
839,7	55,262
840,1	55,833
840,6	56,633
841	58,09
841,4	58,376
841,9	57,176
842,3	63,605
842,7	66,748
843,1	68,633
843,6	69,29
844	71,719
844,4	71,833
844,9	72,176
845,3	67,29
845,7	68,005
846,2	63,633
846,6	58,89
847	55,776
847,4	53,833
847,9	52,89
848,3	48,205
848,7	43,605
849,2	46,576
849,6	46,119
850	44,919
850,4	46,833
850,9	42,805
851,3	43,948
851,7	45,205
852,2	39,176
852,6	40,833
853	41,119
853,4	38,548
853,9	46,348
854,3	49,262
854,7	48,49
855,2	48,89
855,6	46,748
856	46,176
856,4	49,233
856,9	42,89
857,3	43,748
857,7	41,005
858,2	40,176
858,6	41,233
859	38,748
859,4	37,262
859,9	37,833
860,3	34,805
860,7	38,89
861,1	46,29
861,6	46,719
862	51,29
862,4	53,69
862,9	50,976
863,3	50,376
863,7	48,633
864,1	42,519
864,6	46,176
865	41,605
865,4	35,49
865,9	39,919
866,3	41,262
866,7	38,205
867,1	40,69
867,6	31,976
868	32,605
868,4	36,176
868,8	30,719
869,3	33,862
869,7	36,262
870,1	30,576
870,6	35,833
871	25,205
871,4	26,976
871,8	31,49
872,3	24,119
872,7	23,433
873,1	25,548
873,5	21,319
874	34,205
874,4	29,09
874,8	24,662
875,3	27,062
875,7	25,033
876,1	24,89
876,5	26,09
877	19,976
877,4	22,69
877,8	21,376
878,2	19,405
878,7	25,033
879,1	29,262
879,5	31,605
879,9	30,49
880,4	29,49
880,8	30,005
881,2	29,09
881,7	26,49
882,1	26,748
882,5	26,376
882,9	28,862
883,4	28,719
883,8	24,233
884,2	32,119
884,6	33,348
885,1	27,09
885,5	25,548
885,9	28,69
886,3	25,033
886,8	31,033
887,2	23,233
887,6	18,205
888	25,033
888,5	23,89
888,9	22,69
889,3	27,805
889,8	31,062
890,2	31,348
890,6	31,862
891	31,776
891,5	26,376
891,9	21,119
892,3	17,033
892,7	15,262
893,2	15,776
893,6	13,862
894	7,319
894,4	12,89
894,9	14,319
895,3	12,948
895,7	10,205
896,1	4,005
896,6	6,462
897	8,69
897,4	5,633
897,8	10,09
898,3	13,376
898,7	8,776
899,1	13,233
899,5	11,433
900	9,948
900,4	13,233
900,8	9,976
901,2	8,948
901,7	13,29
902,1	17,548
902,5	21,205
902,9	21,033
903,4	14,662
903,8	15,033
904,2	12,605
904,6	11,29
905,1	4,376
905,5	2,376
905,9	1,348
906,3	2,119
906,8	-0,824
907,2	0,748
907,6	2,405
908	3,69
908,5	8,205
908,9	7,005
909,3	16,605
909,7	19,89
910,2	19,49
910,6	22,833
911	27,205
911,4	21,948
911,9	22,576
912,3	16,919
912,7	17,862
913,1	18,49
913,6	18,519
914	13,89
914,4	15,49
914,8	15,948
915,3	17,976
915,7	12,605
916,1	14,548
916,5	10,433
916,9	15,033
917,4	14,148
917,8	16,033
918,2	15,462
918,6	21,576
919,1	16,862
919,5	16,062
919,9	12,89
920,3	15,005
920,8	18,09
921,2	15,862
921,6	16,119
922	20,176
922,5	19,805
922,9	24,405
923,3	25,233
923,7	23,805
924,2	25,348
924,6	22,033
925	24,09
925,4	23,09
925,8	13,976
926,3	10,148
926,7	9,833
927,1	6,405
927,5	6,662
928	5,776
928,4	7,176
928,8	12,29
929,2	15,748
929,7	13,948
930,1	14,519
930,5	15,862
930,9	13,233
931,3	12,748
931,8	10,548
932,2	8,576
932,6	9,148
933	7,548
933,5	3,89
933,9	1,719
934,3	-0,881
934,7	-1,595
935,2	-4,11
935,6	-4,167
936	5,548
936,4	3,605
936,8	6,919
937,3	6,633
937,7	9,29
938,1	9,662
938,5	6,919
939	-2,31
939,4	2,948
939,8	3,376
940,2	7,119
940,6	7,576
941,1	5,519
941,5	7,833
941,9	11,519
942,3	7,233
942,8	2,805
943,2	2,376
943,6	1,89
944	1,205
944,4	-0,852
944,9	-2,51
945,3	0,662
945,7	3,433
946,1	1,605
946,6	2,576
947	2,89
947,4	0,205
947,8	-0,195
948,2	1,576
948,7	0,29
949,1	1,748
949,5	-0,767
949,9	3,348
950,3	4,605
950,8	2,776
951,2	2,09
951,6	4,376
952	3,919
952,5	1,748
952,9	-1,538
953,3	-0,31
953,7	2,548
954,1	1,033
954,6	-2,195
955	-0,31
955,4	1,719
955,8	2,462
956,2	1,119
956,7	2,462
957,1	-0,738
957,5	-2,481
957,9	-5,11
958,3	-4,167
958,8	-3,71
959,2	-0,795
959,6	-1,595
960	6,748
960,5	7,119
960,9	10,119
961,3	11,719
961,7	10,462
962,1	8,405
962,6	7,49
963	3,348
963,4	5,376
963,8	3,205
964,2	2,09
964,7	3,633
965,1	5,805
965,5	3,433
965,9	-0,881
966,3	2,033
966,8	3,119
967,2	2,433
967,6	2,976
968	1,748
968,4	3,262
968,9	5,49
969,3	2,405
969,7	-0,824
970,1	-0,738
970,5	0,205
971	-1,652
971,4	-0,595
971,8	-0,852
972,2	0,005
972,6	1,348
973,1	2,719
973,5	-0,71
973,9	0,233
974,3	0,119
974,7	3,662
975,2	1,719
975,6	4,205
976	-1,024
976,4	-1,538
976,8	3,976
977,3	4,176
977,7	-1,081
978,1	-2,91
978,5	-1,738
978,9	-2,595
979,4	0,348
979,8	-4,51
980,2	-5,052
980,6	-3,881
981	2,49
981,5	-3,195
981,9	-0,195
982,3	2,433
982,7	-1,938
983,1	-2,224
983,6	-0,424
984	-8,91
984,4	-4,024
984,8	-1,738
985,2	-7,51
985,6	-7,91
986,1	-10,081
986,5	-8,795
986,9	-5,71
987,3	-4,024
987,7	-7,91
988,2	-5,452
988,6	0,148
989	3,033
989,4	0,062
989,8	1,776
990,3	1,09
990,7	7,205
991,1	3,29
991,5	7,433
991,9	5,919
992,3	8,462
992,8	7,148
993,2	0,519
993,6	-5,452
994	-0,081
994,4	-4,767
994,9	-5,31
995,3	-2,624
995,7	1,69
996,1	4,262
996,5	5,719
996,9	8,262
997,4	10,919
997,8	13,776
998,2	7,833
998,6	6,062
999	5,833
999,5	5,576
999,9	5,005
1000,3	0,09
1000,7	0,433
1001,1	1,433
1001,5	-1,11
1002	-0,995
1002,4	-2,024
1002,8	-3,195
1003,2	-1,195
1003,6	-3,31
1004	-3,795
1004,5	-1,195
1004,9	3,49
1005,3	5,148
1005,7	5,776
1006,1	5,319
1006,6	6,49
1007	5,033
1007,4	5,519
1007,8	2,205
1008,2	4,69
1008,6	3,205
1009,1	6,376
1009,5	6,205
1009,9	8,548
1010,3	6,205
1010,7	8,662
1011,1	6,033
1011,6	9,376
1012	6,89
1012,4	5,605
1012,8	9,748
1013,2	9,29
1013,6	11,862
1014,1	9,148
1014,5	4,376
1014,9	6,405
1015,3	7,433
1015,7	7,319
1016,1	8,833
1016,6	3,262
1017	8,005
1017,4	8,033
1017,8	9,69
1018,2	4,862
1018,6	2,09
1019,1	-1,367
1019,5	3,69
1019,9	0,205
1020,3	-0,195
1020,7	-8,31
1021,1	-5,338
1021,6	-3,652
1022	-1,595
1022,4	-6,624
1022,8	-5,338
1023,2	0,005
1023,6	4,262
1024,1	9,405
1024,5	2,89
1024,9	6,233
1025,3	6,49
1025,7	7,29
1026,1	4,262
1026,6	3,805
1027	2,119
1027,4	2,748
1027,8	4,776
1028,2	5,69
1028,6	6,976
1029	3,119
1029,5	0,119
1029,9	-3,138
1030,3	-2,881
1030,7	-5,138
1031,1	-2,024
1031,5	-8,367
1032	-7,681
1032,4	-2,452
1032,8	-4,052
1033,2	-0,138
1033,6	0,662
1034	-2,424
1034,4	2,948
1034,9	5,033
1035,3	5,405
1035,7	10,462
1036,1	13,919
1036,5	10,833
1036,9	15,319
1037,4	19,176
1037,8	20,833
1038,2	21,49
1038,6	17,662
1039	14,433
1039,4	15,262
1039,8	14,233
1040,3	12,519
1040,7	8,576
1041,1	4,948
1041,5	7,29
1041,9	6,005
1042,3	4,348
1042,7	2,833
1043,2	4,776
1043,6	1,376
1044	4,862
1044,4	1,948
1044,8	1,605
1045,2	0,833
1045,6	-3,738
1046,1	-6,995
1046,5	1,09
1046,9	0,062
1047,3	0,348
1047,7	0,09
1048,1	5,519
1048,5	7,662
1049	9,862
1049,4	5,89
1049,8	2,376
1050,2	2,033
1050,6	2,976
1051	6,005
1051,4	3,576
1051,9	-3,852
1052,3	-1,795
1052,7	-2,138
1053,1	4,09
1053,5	1,433
1053,9	-3,938
1054,3	-3,367
1054,8	5,776
1055,2	3,519
1055,6	6,576
1056	0,29
1056,4	7,148
1056,8	10,148
1057,2	9,49
1057,6	2,09
1058,1	1,89
1058,5	-0,652
1058,9	8,69
1059,3	7,262
1059,7	6,005
1060,1	8,233
1060,5	10,062
1061	10,548
1061,4	9,633
1061,8	2,719
1062,2	0,405
1062,6	-8,281
1063	-9,652
1063,4	-6,367
1063,8	-5,795
1064,3	-1,195
1064,7	1,605
1065,1	1,548
1065,5	6,09
1065,9	6,919
1066,3	4,862
1066,7	7,033
1067,1	8,776
1067,6	7,833
1068	5,062
1068,4	5,29
1068,8	3,233
1069,2	2,262
1069,6	-1,51
1070	-6,881
1070,4	-10,567
1070,9	-9,052
1071,3	-4,252
1071,7	-1,395
1072,1	3,262
1072,5	3,348
1072,9	7,605
1073,3	5,462
1073,7	5,262
1074,2	2,833
1074,6	0,09
1075	-3,967
1075,4	1,633
1075,8	-2,481
1076,2	2,262
1076,6	1,662
1077	-1,11
1077,5	6,576
1077,9	6,633
1078,3	2,09
1078,7	3,005
1079,1	0,919
1079,5	1,405
1079,9	2,148
1080,3	-5,081
1080,7	-3,681
1081,2	-6,51
1081,6	-4,395
1082	-6,024
1082,4	-3,424
1082,8	-0,681
1083,2	2,205
1083,6	-3,824
1084	2,976
1084,5	0,862
1084,9	0,862
1085,3	-2,852
1085,7	-4,51
1086,1	-2,595
1086,5	-3,567
1086,9	-4,481
1087,3	-2,052
1087,7	0,062
1088,2	0,833
1088,6	3,148
1089	-1,367
1089,4	2,09
1089,8	1,833
1090,2	-2,224
1090,6	0,29
1091	3,605
1091,4	-0,91
1091,9	3,805
1092,3	10,09
1092,7	4,405
1093,1	13,548
1093,5	12,005
1093,9	9,776
1094,3	12,919
1094,7	14,376
1095,1	12,69
1095,5	17,862
1096	14,29
1096,4	16,405
1096,8	19,205
1097,2	20,662
1097,6	16,033
1098	15,119
1098,4	12,005
1098,8	5,262
1099,2	-1,881
1099,6	-5,167
1100,1	-6,824
1100,5	-6,224
1100,9	-9,681
1101,3	-10,538
1101,7	-5,138
1102,1	1,49
1102,5	1,405
1102,9	3,462
1103,3	0,948
1103,7	5,69
1104,2	9,176
1104,6	6,49
1105	6,348
1105,4	6,548
1105,8	3,605
1106,2	6,319
1106,6	2,89
1107	2,062
1107,4	2,8
1107,8	0,353
1108,3	0,633
