Data from Subt2_325.txt Node
Date: Sat Aug 26 19:18:18 MSK 2023
User: vat
Spectrometer: MAYP114033
Trigger mode: 0
Integration Time (sec): 1,000000E0
Scans to average: 5
Electric dark correction enabled: true
Nonlinearity correction enabled: false
Boxcar width: 3
XAxis mode: Wavelengths
Number of Pixels in Spectrum: 2068
>>>>>Begin Spectral Data<<<<<
199,4	-1,317
199,9	-0,167
200,4	2,333
200,8	2,148
201,3	0,976
201,8	-0,71
202,2	-0,824
202,7	5,862
203,2	5,833
203,6	5,005
204,1	5,005
204,6	6,633
205	11,719
205,5	14,29
206	10,662
206,4	10,176
206,9	10,719
207,4	11,833
207,8	13,348
208,3	9,633
208,8	7,89
209,2	11,176
209,7	14,776
210,2	17,119
210,6	16,348
211,1	16,005
211,5	9,862
212	9,719
212,5	5,348
212,9	1,405
213,4	0,605
213,9	-0,681
214,3	-0,224
214,8	7,633
215,3	6,548
215,7	9,662
216,2	12,662
216,7	11,319
217,1	15,29
217,6	16,776
218,1	12,548
218,5	12,005
219	5,376
219,5	6,062
219,9	3,976
220,4	9,348
220,9	9,662
221,3	13,376
221,8	13,976
222,3	15,748
222,7	14,605
223,2	18,09
223,6	15,148
224,1	15,976
224,6	17,176
225	17,233
225,5	17,833
226	19,833
226,4	20,776
226,9	17,09
227,4	14,405
227,8	8,862
228,3	9,833
228,8	10,662
229,2	8,09
229,7	3,376
230,2	3,805
230,6	6,776
231,1	15,919
231,5	17,576
232	18,176
232,5	18,119
232,9	19,233
233,4	19,205
233,9	14,29
234,3	9,262
234,8	6,776
235,3	4,062
235,7	4,262
236,2	6,005
236,7	6,319
237,1	13,319
237,6	13,148
238,1	11,976
238,5	11,148
239	13,033
239,4	17,29
239,9	15,119
240,4	11,433
240,8	15,462
241,3	12,376
241,8	11,462
242,2	8,09
242,7	1,662
243,2	3,433
243,6	0,548
244,1	3,148
244,6	10,176
245	13,69
245,5	14,033
245,9	10,005
246,4	7,262
246,9	11,176
247,3	6,176
247,8	8,433
248,3	8,433
248,7	12,433
249,2	17,29
249,7	19,548
250,1	17,29
250,6	17,89
251	15,633
251,5	17,519
252	14,148
252,4	16,062
252,9	15,462
253,4	16,062
253,8	14,833
254,3	13,662
254,8	14,519
255,2	9,319
255,7	7,462
256,1	7,576
256,6	9,519
257,1	11,919
257,5	10,89
258	8,319
258,5	12,719
258,9	12,69
259,4	9,433
259,9	9,69
260,3	3,205
260,8	1,719
261,2	3,262
261,7	7,519
262,2	6,919
262,6	9,919
263,1	7,433
263,6	11,348
264	15,919
264,5	15,433
264,9	11,348
265,4	15,519
265,9	16,405
266,3	18,376
266,8	22,09
267,3	17,776
267,7	17,29
268,2	16,69
268,7	16,119
269,1	18,033
269,6	14,119
270	11,89
270,5	11,262
271	11,062
271,4	13,948
271,9	8,405
272,4	7,148
272,8	10,748
273,3	8,148
273,7	9,148
274,2	8,319
274,7	8,69
275,1	14,176
275,6	12,976
276,1	8,576
276,5	12,49
277	13,833
277,4	12,49
277,9	13,233
278,4	10,405
278,8	12,319
279,3	15,262
279,8	14,09
280,2	13,519
280,7	18,376
281,1	12,119
281,6	13,005
282,1	12,405
282,5	10,919
283	8,919
283,4	8,576
283,9	5,119
284,4	11,519
284,8	11,519
285,3	6,748
285,8	7,576
286,2	6,462
286,7	6,548
287,1	3,062
287,6	1,805
288,1	-1,967
288,5	4,633
289	4,319
289,5	8,348
289,9	8,176
290,4	16,205
290,8	13,948
291,3	17,09
291,8	18,29
292,2	14,176
292,7	15,348
293,1	12,833
293,6	11,062
294,1	10,29
294,5	11,662
295	9,862
295,5	14,262
295,9	11,176
296,4	10,462
296,8	8,862
297,3	8,776
297,8	2,919
298,2	-3,195
298,7	0,833
299,1	0,119
299,6	1,09
300,1	3,062
300,5	7,519
301	15,262
301,5	24,719
301,9	19,348
302,4	13,633
302,8	16,719
303,3	13,748
303,8	6,376
304,2	2,49
304,7	-2,252
305,1	-5,252
305,6	1,262
306,1	5,29
306,5	8,376
307	16,662
307,4	19,09
307,9	19,09
308,4	20,662
308,8	15,719
309,3	15,005
309,8	9,862
310,2	7,119
310,7	-0,71
311,1	-1,167
311,6	6,148
312,1	9,948
312,5	8,805
313	14,719
313,4	14,776
313,9	20,776
314,4	19,633
314,8	10,776
315,3	13,948
315,7	9,005
316,2	3,576
316,7	2,233
317,1	3,205
317,6	4,833
318	15,719
318,5	14,348
319	16,862
319,4	18,062
319,9	19,89
320,3	19,09
320,8	19,576
321,3	15,405
321,7	18,89
322,2	16,862
322,6	20,576
323,1	17,89
323,6	14,633
324	15,605
324,5	14,633
324,9	11,776
325,4	17,176
325,9	18,976
326,3	23,205
326,8	27,233
327,2	23,662
327,7	17,662
328,2	18,919
328,6	24,205
329,1	15,233
329,5	10,49
330	10,433
330,5	13,805
330,9	21,633
331,4	21,09
331,8	11,776
332,3	20,776
332,8	25,09
333,2	22,948
333,7	22,805
334,1	18,862
334,6	14,033
335,1	11,89
335,5	7,119
336	5,119
336,4	8,462
336,9	11,148
337,4	14,49
337,8	15,233
338,3	18,719
338,7	21,376
339,2	22,29
339,7	21,69
340,1	18,119
340,6	15,862
341	16,719
341,5	12,405
342	8,519
342,4	5,176
342,9	0,776
343,3	3,119
343,8	3,09
344,2	3,862
344,7	9,862
345,2	12,548
345,6	17,09
346,1	20,49
346,5	14,69
347	10,548
347,5	7,005
347,9	10,948
348,4	10,748
348,8	6,49
349,3	10,09
349,8	16,948
350,2	26,748
350,7	27,348
351,1	27,233
351,6	29,348
352	33,29
352,5	37,776
353	44,919
353,4	46,49
353,9	64,062
354,3	74,233
354,8	86,09
355,3	109,89
355,7	125,776
356,2	141,948
356,6	166,005
357,1	190,805
357,5	219,462
358	260,519
358,5	295,662
358,9	342,148
359,4	396,405
359,8	451,548
360,3	519,462
360,8	590,49
361,2	670,833
361,7	761,176
362,1	861,262
362,6	964,69
363	1084,576
363,5	1201,748
364	1330,776
364,4	1458,776
364,9	1589,205
365,3	1717,662
365,8	1842,919
366,3	1961,405
366,7	2066,119
367,2	2159,976
367,6	2234,348
368,1	2298,776
368,5	2337,033
369	2357,519
369,5	2354,233
369,9	2340,919
370,4	2311,005
370,8	2265,862
371,3	2195,519
371,7	2121,262
372,2	2033,748
372,7	1936,376
373,1	1835,09
373,6	1720,576
374	1612,662
374,5	1506,29
374,9	1401,576
375,4	1301,633
375,9	1207,919
376,3	1115,462
376,8	1031,719
377,2	951,09
377,7	873,205
378,2	801,148
378,6	733,719
379,1	674,433
379,5	621,976
380	575,348
380,4	525,576
380,9	481,748
381,4	439,948
381,8	408,262
382,3	381,633
382,7	353,576
383,2	328,262
383,6	308,405
384,1	290,433
384,6	279,633
385	260,748
385,5	243,09
385,9	225,662
386,4	211,119
386,8	199,976
387,3	186,148
387,7	170,719
388,2	161,376
388,7	148,262
389,1	137,976
389,6	128,119
390	116,576
390,5	115,919
390,9	112,205
391,4	109,348
391,9	106,49
392,3	102,948
392,8	94,29
393,2	89,29
393,7	82,976
394,1	76,319
394,6	70,776
395,1	66,433
395,5	58,233
396	58,148
396,4	56,748
396,9	54,405
397,3	56,948
397,8	56,89
398,2	57,605
398,7	64,405
399,2	63,319
399,6	64,976
400,1	63,29
400,5	56,376
401	51,062
401,4	46,262
401,9	43,919
402,4	46,519
402,8	40,176
403,3	39,205
403,7	38,919
404,2	44,805
404,6	48,176
405,1	47,033
405,5	42,862
406	43,976
406,5	40,862
406,9	45,348
407,4	40,205
407,8	39,605
408,3	41,576
408,7	43,405
409,2	47,662
409,6	53,976
410,1	49,29
410,6	57,319
411	58,49
411,5	57,233
411,9	59,233
412,4	59,662
412,8	64,405
413,3	67,548
413,7	64,948
414,2	63,69
414,7	70,119
415,1	78,09
415,6	81,976
416	80,805
416,5	86,662
416,9	87,09
417,4	93,776
417,8	96,29
418,3	93,462
418,8	95,833
419,2	91,948
419,7	92,605
420,1	96,005
420,6	94,919
421	88,29
421,5	88,633
421,9	86,033
422,4	93,833
422,8	92,919
423,3	91,519
423,8	89,948
424,2	91,005
424,7	91,005
425,1	91,862
425,6	88,633
426	83,29
426,5	81,49
426,9	83,262
427,4	82,49
427,9	78,233
428,3	78,862
428,8	74,319
429,2	73,719
429,7	75,833
430,1	70,862
430,6	71,09
431	73,262
431,5	73,262
431,9	70,748
432,4	72,405
432,8	69,405
433,3	74,719
433,8	73,233
434,2	75,09
434,7	77,062
435,1	83,919
435,6	91,119
436	96,005
436,5	96,805
436,9	96,89
437,4	98,062
437,8	97,576
438,3	98,119
438,8	93,605
439,2	92,69
439,7	98,633
440,1	103,319
440,6	107,89
441	106,748
441,5	111,919
441,9	118,862
442,4	116,805
442,8	112,576
443,3	117,69
443,7	119,576
444,2	123,919
444,7	126,462
445,1	127,719
445,6	135,348
446	143,776
446,5	145,576
446,9	146,233
447,4	153,405
447,8	156,69
448,3	167,49
448,7	176,976
449,2	183,576
449,6	195,519
450,1	202,776
450,6	211,748
451	222,519
451,5	224,405
451,9	230,948
452,4	240,519
452,8	243,833
453,3	258,148
453,7	261,862
454,2	270,976
454,6	283,862
455,1	292,148
455,5	295,662
456	310,205
456,4	312,319
456,9	327,776
457,3	335,233
457,8	335,548
458,3	350,405
458,7	361,29
459,2	369,148
459,6	381,805
460,1	389,433
460,5	396,176
461	418,69
461,4	422,576
461,9	432,462
462,3	445,519
462,8	462,948
463,2	475,462
463,7	490,433
464,1	504,576
464,6	521,205
465	539,319
465,5	551,033
466	561,948
466,4	573,319
466,9	594,748
467,3	603,348
467,8	621,662
468,2	636,519
468,7	655,605
469,1	673,49
469,6	695,605
470	708,033
470,5	723,49
470,9	732,405
471,4	745,29
471,8	761,776
472,3	775,319
472,7	786,776
473,2	799,176
473,6	812,89
474,1	834,919
474,5	855,748
475	865,662
475,4	881,919
475,9	896,548
476,4	909,89
476,8	930,005
477,3	941,348
477,7	951,262
478,2	967,405
478,6	978,862
479,1	991,09
479,5	1006,662
480	1015,548
480,4	1032,462
480,9	1041,719
481,3	1052,49
481,8	1066,176
482,2	1074,433
482,7	1086,376
483,1	1097,062
483,6	1100,29
484	1114,89
484,5	1127,976
484,9	1135,776
485,4	1154,662
485,8	1161,605
486,3	1172,29
486,7	1186,548
487,2	1196,519
487,6	1205,548
488,1	1208,805
488,5	1212,548
489	1226,262
489,4	1235,633
489,9	1239,89
490,4	1244,776
490,8	1247,862
491,3	1262,262
491,7	1264,519
492,2	1269,948
492,6	1273,548
493,1	1282,033
493,5	1285,033
494	1289,548
494,4	1296,176
494,9	1304,062
495,3	1309,69
495,8	1312,719
496,2	1313,462
496,7	1312,748
497,1	1323,348
497,6	1325,69
498	1330,919
498,5	1330,348
498,9	1333,776
499,4	1336,776
499,8	1349,433
500,3	1344,833
500,7	1341,348
501,2	1332,519
501,6	1330,576
502,1	1337,233
502,5	1338,119
503	1333,148
503,4	1335,49
503,9	1336,233
504,3	1345,376
504,8	1347,376
505,2	1344,69
505,7	1346,119
506,1	1353,205
506,6	1349,319
507	1350,319
507,5	1351,919
507,9	1353,719
508,4	1349,005
508,8	1348,776
509,3	1341,605
509,7	1344,662
510,2	1345,376
510,6	1343,49
511,1	1339,948
511,5	1341,919
512	1341,033
512,4	1346,719
512,9	1347,462
513,3	1347,776
513,8	1345,805
514,2	1347,862
514,7	1348,948
515,1	1346,576
515,6	1341,89
516	1334,748
516,5	1335,919
516,9	1338,233
517,4	1341,033
517,8	1347,119
518,3	1349,49
518,7	1352,748
519,2	1357,719
519,6	1358,69
520,1	1359,805
520,5	1358,462
521	1349,633
521,4	1350,69
521,9	1350,405
522,3	1352,062
522,8	1344,833
523,2	1345,348
523,7	1345,548
524,1	1348,348
524,6	1347,976
525	1351,89
525,5	1351,176
525,9	1357,69
526,4	1354,262
526,8	1356,262
527,3	1356,49
527,7	1362,919
528,2	1359,605
528,6	1363,519
529,1	1361,548
529,5	1371,09
530	1367,862
530,4	1373,748
530,9	1368,119
531,3	1370,119
531,8	1370,976
532,2	1375,376
532,6	1371,033
533,1	1375,233
533,5	1379,433
534	1382,548
534,4	1384,405
534,9	1385,148
535,3	1384,748
535,8	1384,69
536,2	1392,033
536,7	1390,862
537,1	1395,862
537,6	1398,805
538	1400,548
538,5	1408,062
538,9	1411,976
539,4	1411,605
539,8	1413,748
540,3	1418,519
540,7	1418,89
541,2	1418,148
541,6	1418,89
542,1	1423,633
542,5	1424,69
543	1424,033
543,4	1422,919
543,9	1434,719
544,3	1443,29
544,8	1445,662
545,2	1446,748
545,7	1457,548
546,1	1466,919
546,5	1474,205
547	1472,033
547,4	1477,748
547,9	1480,833
548,3	1490,548
548,8	1489,633
549,2	1486,633
549,7	1485,262
550,1	1485,49
550,6	1487,033
551	1491,919
551,5	1488,348
551,9	1484,69
552,4	1488,462
552,8	1495,319
553,3	1496,233
553,7	1495,776
554,2	1497,433
554,6	1504,776
555,1	1512,662
555,5	1512,919
555,9	1516,262
556,4	1520,919
556,8	1520,262
557,3	1526,748
557,7	1525,233
558,2	1523,89
558,6	1530,033
559,1	1524,519
559,5	1526,462
560	1532,833
560,4	1534,033
560,9	1533,548
561,3	1535,862
561,8	1538,348
562,2	1543,148
562,7	1542,576
563,1	1544,033
563,6	1542,805
564	1551,719
564,4	1552,948
564,9	1555,033
565,3	1555,176
565,8	1557,29
566,2	1562,405
566,7	1564,09
567,1	1563,462
567,6	1567,319
568	1566,605
568,5	1571,062
568,9	1571,576
569,4	1566,148
569,8	1568,005
570,3	1563,062
570,7	1560,205
571,1	1562,233
571,6	1563,005
572	1569,633
572,5	1576,976
572,9	1576,09
573,4	1581,862
573,8	1589,49
574,3	1588,376
574,7	1588,805
575,2	1585,29
575,6	1579,233
576,1	1583,29
576,5	1580,09
576,9	1569,805
577,4	1570,776
577,8	1566,633
578,3	1562,748
578,7	1562,062
579,2	1563,49
579,6	1563,176
580,1	1560,262
580,5	1558,433
581	1559,576
581,4	1562,833
581,9	1560,862
582,3	1553,49
582,7	1553,433
583,2	1554,976
583,6	1556,062
584,1	1555,919
584,5	1553,433
585	1556,433
585,4	1546,976
585,9	1540,462
586,3	1544,462
586,8	1542,89
587,2	1535,576
587,6	1535,833
588,1	1538,576
588,5	1544,233
589	1549,205
589,4	1540,433
589,9	1530,148
590,3	1531,205
590,8	1528,176
591,2	1523,29
591,7	1520,976
592,1	1519,49
592,5	1525,576
593	1522,462
593,4	1521,919
593,9	1515,29
594,3	1505,176
594,8	1498,976
595,2	1494,89
595,7	1490,633
596,1	1488,462
596,6	1482,433
597	1481,233
597,4	1480,976
597,9	1484,005
598,3	1480,976
598,8	1479,69
599,2	1477,862
599,7	1475,776
600,1	1473,062
600,6	1470,062
601	1462,748
601,4	1465,662
601,9	1460,09
602,3	1457,262
602,8	1452,805
603,2	1453,376
603,7	1449,69
604,1	1448,833
604,6	1438,805
605	1432,205
605,4	1435,519
605,9	1432,405
606,3	1419,49
606,8	1415,09
607,2	1409,262
607,7	1400,433
608,1	1396,748
608,6	1388,348
609	1388,948
609,4	1391,948
609,9	1386,519
610,3	1388,605
610,8	1388,262
611,2	1384,605
611,7	1381,29
612,1	1373,633
612,6	1370,49
613	1371,462
613,4	1363,976
613,9	1356,833
614,3	1352,233
614,8	1350,005
615,2	1343,262
615,7	1336,605
616,1	1332,062
616,6	1321,205
617	1317,69
617,4	1316,462
617,9	1311,319
618,3	1312,976
618,8	1313,748
619,2	1306,748
619,7	1307,348
620,1	1300,319
620,5	1297,805
621	1293,519
621,4	1284,633
621,9	1275,233
622,3	1270,633
622,8	1260,633
623,2	1257,005
623,6	1245,805
624,1	1243,205
624,5	1240,29
625	1241,49
625,4	1241,033
625,9	1234,805
626,3	1230,205
626,8	1226,605
627,2	1215,862
627,6	1203,69
628,1	1192,89
628,5	1184,576
629	1179,719
629,4	1172,69
629,9	1166,148
630,3	1159,033
630,7	1155,89
631,2	1151,119
631,6	1143,805
632,1	1141,633
632,5	1136,89
633	1133,148
633,4	1127,833
633,8	1124,376
634,3	1117,833
634,7	1111,062
635,2	1102,833
635,6	1098,776
636,1	1094,205
636,5	1085,719
636,9	1078,462
637,4	1071,662
637,8	1063,005
638,3	1055,033
638,7	1048,605
639,2	1037,69
639,6	1038,948
640	1030,462
640,5	1028,462
640,9	1024,005
641,4	1024,662
641,8	1020,805
642,2	1019,805
642,7	1017,148
643,1	1022,862
643,6	1015,005
644	1016,576
644,5	1014,033
644,9	1010,948
645,3	1005,776
645,8	994,062
646,2	985,49
646,7	982,748
647,1	972,748
647,6	969,748
648	968,033
648,4	960,148
648,9	960,919
649,3	952,433
649,8	946,09
650,2	942,319
650,6	936,89
651,1	931,776
651,5	933,433
652	926,662
652,4	921,805
652,9	918,833
653,3	913,69
653,7	905,748
654,2	899,862
654,6	889,976
655,1	885,433
655,5	887,719
655,9	883,062
656,4	883,176
656,8	879,576
657,3	875,69
657,7	875,662
658,2	869,719
658,6	863,69
659	856,205
659,5	845,319
659,9	837,833
660,4	832,605
660,8	821,919
661,2	816,805
661,7	811,948
662,1	809,519
662,6	808,662
663	804,09
663,4	796,69
663,9	798,148
664,3	797,348
664,8	787,576
665,2	779,719
665,6	773,919
666,1	768,633
666,5	763,89
667	757,205
667,4	749,376
667,9	748,805
668,3	743,662
668,7	738,233
669,2	740,405
669,6	736,205
670,1	730,776
670,5	726,262
670,9	714,776
671,4	708,748
671,8	706,29
672,3	700,605
672,7	698,348
673,1	690,519
673,6	684,89
674	689,976
674,5	688,548
674,9	679,519
675,3	671,662
675,8	667,005
676,2	664,719
676,7	660,69
677,1	655,005
677,5	650,49
678	654,262
678,4	651,062
678,9	645,976
679,3	641,919
679,7	637,89
680,2	627,89
680,6	623,348
681,1	616,633
681,5	614,633
681,9	611,119
682,4	610,719
682,8	612,062
683,3	617,033
683,7	617,519
684,1	613,548
684,6	606,462
685	603,005
685,5	598,119
685,9	587,405
686,3	579,433
686,8	572,719
687,2	570,148
687,7	566,319
688,1	560,319
688,5	556,348
689	556,576
689,4	550,119
689,9	547,862
690,3	539,062
690,7	535,233
691,2	533,348
691,6	531,033
692	528,29
692,5	528,862
692,9	523,919
693,4	522,776
693,8	523,69
694,2	518,69
694,7	512,605
695,1	504,09
695,6	503,348
696	505,233
696,4	501,29
696,9	494,205
697,3	489,148
697,8	486,29
698,2	486,976
698,6	484,462
699,1	475,776
699,5	478,119
699,9	477,776
700,4	477,776
700,8	475,462
701,3	475,49
701,7	465,319
702,1	463,205
702,6	454,348
703	452,776
703,5	448,519
703,9	443,633
704,3	442,176
704,8	441,948
705,2	442,176
705,6	440,319
706,1	433,89
706,5	432,319
707	429,976
707,4	425,405
707,8	419,833
708,3	418,062
708,7	416,376
709,2	415,319
709,6	412,376
710	419,976
710,5	413,176
710,9	412,005
711,3	406,519
711,8	406,719
712,2	408,662
712,7	405,005
713,1	395,662
713,5	396,748
714	396,033
714,4	394,833
714,8	390,119
715,3	380,148
715,7	379,633
716,2	374,262
716,6	373,376
717	369,033
717,5	365,662
717,9	370,405
718,3	368,548
718,8	368,005
719,2	369,748
719,7	365,776
720,1	367,833
720,5	371,519
721	363,576
721,4	363,348
721,8	364,348
722,3	359,719
722,7	362,976
723,2	354,919
723,6	340,062
724	337,49
724,5	333,948
724,9	327,148
725,3	325,405
725,8	314,49
726,2	312,776
726,7	314,49
727,1	315,576
727,5	317,462
728	312,862
728,4	312,69
728,8	315,233
729,3	313,576
729,7	311,662
730,1	303,719
730,6	296,69
731	296,605
731,5	288,29
731,9	283,433
732,3	286,462
732,8	287,976
733,2	286,09
733,6	287,148
734,1	283,719
734,5	287,862
734,9	291,919
735,4	286,548
735,8	280,348
736,3	284,548
736,7	286,062
737,1	289,833
737,6	284,948
738	279,89
738,4	280,205
738,9	282,376
739,3	280,833
739,7	277,49
740,2	270,405
740,6	275,148
741,1	276,633
741,5	269,233
741,9	266,69
742,4	261,976
742,8	259,348
743,2	258,376
743,7	253,862
744,1	247,29
744,5	249,119
745	247,89
745,4	245,719
745,8	244,176
746,3	242,976
746,7	239,748
747,2	241,262
747,6	243,919
748	241,29
748,5	243,69
748,9	241,148
749,3	240,776
749,8	243,805
750,2	240,776
750,6	232,833
751,1	235,776
751,5	230,748
751,9	231,148
752,4	232,29
752,8	229,69
753,3	223,776
753,7	225,976
754,1	221,405
754,6	218,462
755	215,576
755,4	210,205
755,9	205,69
756,3	208,833
756,7	206,919
757,2	207,462
757,6	210,176
758	211,09
758,5	209,462
758,9	208,319
759,3	209,262
759,8	207,69
760,2	205,09
760,6	201,262
761,1	198,433
761,5	200,148
761,9	201,005
762,4	193,548
762,8	190,605
763,3	185,89
763,7	185,976
764,1	184,69
764,6	186,862
765	184,548
765,4	187,519
765,9	188,005
766,3	192,49
766,7	187,176
767,2	186,89
767,6	182,69
768	179,976
768,5	177,948
768,9	180,29
769,3	179,948
769,8	181,233
770,2	181,833
770,6	180,062
771,1	181,519
771,5	181,748
771,9	183,433
772,4	182,49
772,8	184,69
773,2	185,376
773,7	186,319
774,1	186,462
774,5	180,262
775	174,462
775,4	171,719
775,8	167,776
776,3	165,862
776,7	163,633
777,1	163,719
777,6	168,89
778	170,433
778,4	168,89
778,9	173,976
779,3	166,69
779,7	164,119
780,2	163,776
780,6	159,605
781	156,89
781,5	152,748
781,9	144,605
782,3	145,519
782,8	143,89
783,2	142,519
783,6	145,948
784,1	143,062
784,5	146,433
784,9	149,605
785,4	151,948
785,8	154,548
786,2	151,09
786,7	148,262
787,1	146,376
787,5	142,805
788	138,576
788,4	136,433
788,8	133,776
789,3	131,748
789,7	132,033
790,1	132,576
790,6	133,833
791	130,748
791,4	130,376
791,9	127,69
792,3	124,348
792,7	123,69
793,2	123,176
793,6	123,605
794	130,262
794,5	127,69
794,9	130,976
795,3	133,348
795,8	130,605
796,2	129,976
796,6	126,062
797,1	121,405
797,5	118,376
797,9	114,433
798,4	109,833
798,8	107,633
799,2	109,662
799,7	115,005
800,1	113,233
800,5	116,519
801	118,919
801,4	120,805
801,8	119,605
802,2	116,919
802,7	109,89
803,1	109,662
803,5	109,89
804	106,405
804,4	107,09
804,8	106,976
805,3	108,433
805,7	111,548
806,1	109,862
806,6	110,833
807	110,005
807,4	106,29
807,9	101,433
808,3	99,376
808,7	96,062
809,2	96,576
809,6	94,633
810	92,89
810,4	95,033
810,9	98,862
811,3	101,405
811,7	102,948
812,2	106,119
812,6	102,119
813	107,233
813,5	106,69
813,9	105,748
814,3	98,69
814,8	94,405
815,2	93,605
815,6	92,633
816,1	90,376
816,5	91,548
816,9	89,976
817,3	92,433
817,8	97,605
818,2	95,948
818,6	93,119
819,1	89,319
819,5	88,633
819,9	90,633
820,4	90,862
820,8	87,005
821,2	84,776
821,7	92,519
822,1	94,576
822,5	93,176
822,9	90,233
823,4	89,29
823,8	88,062
824,2	86,89
824,7	82,148
825,1	77,376
825,5	73,376
826	71,89
826,4	70,862
826,8	72,862
827,3	74,519
827,7	72,719
828,1	72,148
828,5	73,862
829	72,462
829,4	71,919
829,8	66,89
830,3	63,233
830,7	62,433
831,1	65,405
831,6	66,576
832	69,262
832,4	66,176
832,8	69,662
833,3	69,576
833,7	67,348
834,1	64,405
834,6	58,89
835	56,09
835,4	59,576
835,8	55,462
836,3	56,205
836,7	60,662
837,1	59,776
837,6	67,262
838	68,519
838,4	64,319
838,9	65,005
839,3	58,319
839,7	57,233
840,1	53,348
840,6	46,49
841	47,576
841,4	49,233
841,9	51,605
842,3	55,09
842,7	54,49
843,1	56,605
843,6	56,148
844	53,09
844,4	56,805
844,9	55,948
845,3	59,205
845,7	56,548
846,2	56,605
846,6	58,776
847	63,062
847,4	59,462
847,9	58,89
848,3	56,119
848,7	56,976
849,2	59,776
849,6	58,119
850	60,519
850,4	59,519
850,9	59,662
851,3	63,49
851,7	63,576
852,2	65,89
852,6	68,348
853	61,69
853,4	61,405
853,9	58,29
854,3	55,233
854,7	54,005
855,2	50,776
855,6	47,205
856	47,976
856,4	45,662
856,9	44,09
857,3	47,833
857,7	49,633
858,2	48,548
858,6	49,805
859	50,176
859,4	52,29
859,9	53,576
860,3	49,633
860,7	49,09
861,1	50,262
861,6	49,005
862	50,033
862,4	49,319
862,9	47,548
863,3	48,09
863,7	47,948
864,1	47,119
864,6	47,605
865	44,748
865,4	45,862
865,9	49,005
866,3	43,433
866,7	38,348
867,1	37,348
867,6	36,548
868	38,062
868,4	34,548
868,8	31,548
869,3	30,262
869,7	39,548
870,1	37,205
870,6	34,976
871	17,719
871,4	21,148
871,8	20,033
872,3	27,833
872,7	24,005
873,1	26,605
873,5	28,176
874	43,233
874,4	40,376
874,8	38,062
875,3	34,119
875,7	31,605
876,1	33,548
876,5	33,719
877	32,319
877,4	28,49
877,8	32,805
878,2	35,176
878,7	34,633
879,1	34,433
879,5	33,176
879,9	36,433
880,4	38,148
880,8	36,148
881,2	32,862
881,7	30,433
882,1	31,176
882,5	33,433
882,9	29,176
883,4	28,976
883,8	31,548
884,2	31,976
884,6	31,662
885,1	27,919
885,5	26,405
885,9	26,033
886,3	31,205
886,8	27,805
887,2	26,148
887,6	26,548
888	25,49
888,5	29,233
888,9	30,776
889,3	26,262
889,8	28,233
890,2	28,062
890,6	29,319
891	29,605
891,5	25,519
891,9	28,319
892,3	30,49
892,7	32,405
893,2	36,405
893,6	36,919
894	34,976
894,4	32,262
894,9	31,005
895,3	29,919
895,7	29,662
896,1	30,262
896,6	29,576
897	32,605
897,4	37,29
897,8	36,805
898,3	34,09
898,7	31,262
899,1	27,948
899,5	25,69
900	20,119
900,4	18,433
900,8	15,89
901,2	14,433
901,7	14,548
902,1	15,29
902,5	19,833
902,9	22,976
903,4	23,776
903,8	25,805
904,2	26,69
904,6	26,033
905,1	27,976
905,5	22,462
905,9	25,005
906,3	20,948
906,8	22,89
907,2	25,69
907,6	25,89
908	27,033
908,5	28,119
908,9	24,919
909,3	24,748
909,7	24,205
910,2	22,348
910,6	26,605
911	21,605
911,4	25,633
911,9	27,976
912,3	28,376
912,7	29,776
913,1	30,062
913,6	25,576
914	29,548
914,4	24,233
914,8	22,462
915,3	20,719
915,7	15,833
916,1	15,805
916,5	15,062
916,9	13,805
917,4	14,605
917,8	18,148
918,2	18,033
918,6	15,719
919,1	17,119
919,5	20,89
919,9	17,233
920,3	17,719
920,8	10,89
921,2	16,833
921,6	21,205
922	22,662
922,5	20,005
922,9	21,405
923,3	20,033
923,7	23,805
924,2	15,719
924,6	15,005
925	11,462
925,4	11,776
925,8	12,862
926,3	14,49
926,7	10,605
927,1	16,948
927,5	16,805
928	16,09
928,4	13,376
928,8	15,119
929,2	12,976
929,7	18,376
930,1	18,719
930,5	18,29
930,9	21,919
931,3	23,433
931,8	23,49
932,2	25,462
932,6	24,433
933	18,69
933,5	20,833
933,9	17,462
934,3	23,976
934,7	16,862
935,2	20,262
935,6	18,976
936	23,405
936,4	22,09
936,8	27,89
937,3	19,348
937,7	24,176
938,1	23,319
938,5	19,09
939	17,805
939,4	16,948
939,8	11,176
940,2	14,262
940,6	15,576
941,1	14,805
941,5	21,29
941,9	20,033
942,3	21,748
942,8	24,833
943,2	23,89
943,6	18,433
944	17,605
944,4	12,49
944,9	9,405
945,3	7,89
945,7	-0,024
946,1	-5,081
946,6	-2,995
947	-2,681
947,4	4,119
947,8	5,948
948,2	2,033
948,7	11,29
949,1	17,69
949,5	21,262
949,9	21,605
950,3	17,633
950,8	18,948
951,2	19,919
951,6	14,348
952	15,233
952,5	8,233
952,9	6,919
953,3	10,348
953,7	10,405
954,1	18,719
954,6	22,233
955	21,405
955,4	21,862
955,8	24,205
956,2	20,233
956,7	23,062
957,1	18,09
957,5	18,976
957,9	19,119
958,3	22,062
958,8	21,719
959,2	24,348
959,6	28,548
960	24,205
960,5	29,605
960,9	31,833
961,3	31,976
961,7	30,948
962,1	29,119
962,6	25,233
963	28,719
963,4	18,205
963,8	16,862
964,2	17,233
964,7	15,319
965,1	20,005
965,5	19,176
965,9	19,948
966,3	23,09
966,8	22,033
967,2	24,462
967,6	27,69
968	21,29
968,4	19,89
968,9	21,205
969,3	23,605
969,7	21,005
970,1	16,233
970,5	12,748
971	16,976
971,4	17,09
971,8	16,948
972,2	14,576
972,6	14,919
973,1	17,719
973,5	18,69
973,9	17,919
974,3	17,548
974,7	17,49
975,2	22,29
975,6	20,433
976	21,462
976,4	18,148
976,8	15,233
977,3	17,09
977,7	16,09
978,1	9,862
978,5	10,148
978,9	7,633
979,4	8,748
979,8	11,576
980,2	7,662
980,6	1,376
981	7,405
981,5	4,919
981,9	5,89
982,3	5,348
982,7	4,262
983,1	7,205
983,6	9,49
984	5,376
984,4	9,319
984,8	12,405
985,2	13,29
985,6	6,948
986,1	5,376
986,5	7,862
986,9	3,833
987,3	6,548
987,7	3,69
988,2	3,062
988,6	7,519
989	7,548
989,4	6,519
989,8	7,348
990,3	4,005
990,7	1,49
991,1	2,919
991,5	4,976
991,9	7,633
992,3	13,548
992,8	14,262
993,2	14,376
993,6	16,119
994	17,319
994,4	16,89
994,9	16,862
995,3	11,633
995,7	12,319
996,1	13,69
996,5	13,033
996,9	10,748
997,4	14,033
997,8	7,662
998,2	7,262
998,6	5,262
999	5,519
999,5	6,862
999,9	9,605
1000,3	6,69
1000,7	10,519
1001,1	9,919
1001,5	14,09
1002	14,89
1002,4	15,948
1002,8	14,405
1003,2	19,49
1003,6	21,376
1004	24,633
1004,5	21,976
1004,9	21,119
1005,3	16,433
1005,7	19,376
1006,1	11,548
1006,6	9,319
1007	8,89
1007,4	8,919
1007,8	7,662
1008,2	10,748
1008,6	12,119
1009,1	12,719
1009,5	14,519
1009,9	15,862
1010,3	22,062
1010,7	22,805
1011,1	20,462
1011,6	18,948
1012	24,29
1012,4	24,148
1012,8	20,805
1013,2	17,462
1013,6	19,976
1014,1	24,69
1014,5	23,119
1014,9	18,548
1015,3	15,033
1015,7	18,033
1016,1	17,09
1016,6	17,033
1017	12,833
1017,4	14,519
1017,8	13,69
1018,2	17,776
1018,6	15,662
1019,1	12,548
1019,5	11,748
1019,9	11,176
1020,3	12,519
1020,7	14,976
1021,1	15,49
1021,6	15,262
1022	19,119
1022,4	17,49
1022,8	21,405
1023,2	17,376
1023,6	18,348
1024,1	20,719
1024,5	19,49
1024,9	17,519
1025,3	17,09
1025,7	14,119
1026,1	15,605
1026,6	13,433
1027	9,348
1027,4	13,605
1027,8	16,976
1028,2	15,233
1028,6	20,976
1029	19,776
1029,5	24,776
1029,9	21,605
1030,3	17,833
1030,7	13,976
1031,1	20,69
1031,5	12,205
1032	11,062
1032,4	5,148
1032,8	9,233
1033,2	9,948
1033,6	8,548
1034	1,833
1034,4	2,433
1034,9	3,605
1035,3	7,576
1035,7	8,348
1036,1	7,69
1036,5	10,805
1036,9	13,776
1037,4	22,948
1037,8	23,519
1038,2	20,405
1038,6	19,662
1039	22,833
1039,4	25,948
1039,8	21,033
1040,3	20,348
1040,7	20,462
1041,1	20,776
1041,5	21,462
1041,9	21,548
1042,3	18,205
1042,7	25,576
1043,2	20,348
1043,6	19,176
1044	18,176
1044,4	19,433
1044,8	18,49
1045,2	20,319
1045,6	18,719
1046,1	16,976
1046,5	16,919
1046,9	14,776
1047,3	12,605
1047,7	11,69
1048,1	5,033
1048,5	6,548
1049	9,433
1049,4	13,948
1049,8	16,89
1050,2	18,548
1050,6	24,119
1051	29,205
1051,4	30,633
1051,9	31,233
1052,3	36,319
1052,7	34,405
1053,1	30,919
1053,5	23,748
1053,9	23,976
1054,3	20,605
1054,8	21,548
1055,2	14,69
1055,6	21,405
1056	24,005
1056,4	24,148
1056,8	24,29
1057,2	21,005
1057,6	15,119
1058,1	8,376
1058,5	3,633
1058,9	1,576
1059,3	3,548
1059,7	2,805
1060,1	9,09
1060,5	17,748
1061	22,69
1061,4	20,433
1061,8	22,519
1062,2	20,205
1062,6	22,348
1063	22,976
1063,4	16,405
1063,8	16,833
1064,3	15,748
1064,7	14,005
1065,1	11,462
1065,5	9,09
1065,9	5,462
1066,3	2,09
1066,7	-1,567
1067,1	-2,081
1067,6	1,633
1068	2,976
1068,4	6,119
1068,8	8,433
1069,2	15,919
1069,6	16,405
1070	24,119
1070,4	23,09
1070,9	24,262
1071,3	19,233
1071,7	16,919
1072,1	17,69
1072,5	18,976
1072,9	13,062
1073,3	13,29
1073,7	12,49
1074,2	14,633
1074,6	16,919
1075	11,005
1075,4	12,805
1075,8	15,805
1076,2	12,69
1076,6	16,319
1077	15,29
1077,5	15,29
1077,9	19,205
1078,3	16,462
1078,7	16,605
1079,1	20,748
1079,5	19,262
1079,9	23,119
1080,3	18,948
1080,7	16,919
1081,2	23,462
1081,6	22,233
1082	17,376
1082,4	23,033
1082,8	21,833
1083,2	27,576
1083,6	31,548
1084	27,576
1084,5	29,49
1084,9	30,376
1085,3	20,405
1085,7	17,519
1086,1	13,29
1086,5	12,148
1086,9	13,205
1087,3	10,948
1087,7	11,948
1088,2	15,262
1088,6	14,662
1089	15,033
1089,4	12,148
1089,8	12,433
1090,2	10,405
1090,6	10,205
1091	14,519
1091,4	19,405
1091,9	17,462
1092,3	17,948
1092,7	15,776
1093,1	19,376
1093,5	20,233
1093,9	14,89
1094,3	14,29
1094,7	14,776
1095,1	13,605
1095,5	17,29
1096	12,348
1096,4	13,262
1096,8	11,719
1097,2	10,833
1097,6	13,29
1098	14,748
1098,4	13,29
1098,8	16,376
1099,2	17,519
1099,6	17,948
1100,1	13,29
1100,5	10,119
1100,9	10,719
1101,3	8,033
1101,7	8,662
1102,1	5,89
1102,5	7,348
1102,9	10,433
1103,3	11,29
1103,7	7,976
1104,2	9,319
1104,6	7,49
1105	3,405
1105,4	4,49
1105,8	2,005
1106,2	0,433
1106,6	1,433
1107	-0,395
1107,4	-0,7
1107,8	2,273
1108,3	0,283
