Data from Subt2_127.txt Node
Date: Sat Aug 26 18:25:28 MSK 2023
User: vat
Spectrometer: MAYP114033
Trigger mode: 0
Integration Time (sec): 1,000000E0
Scans to average: 5
Electric dark correction enabled: true
Nonlinearity correction enabled: false
Boxcar width: 3
XAxis mode: Wavelengths
Number of Pixels in Spectrum: 2068
>>>>>Begin Spectral Data<<<<<
199,4	-0,067
199,9	0,433
200,4	-0,1
200,8	2,119
201,3	0,176
201,8	2,519
202,2	0,405
202,7	2,376
203,2	2,005
203,6	-0,281
204,1	-3,738
204,6	-2,31
205	-3,338
205,5	-2,081
206	-2,395
206,4	-1,795
206,9	2,205
207,4	2,69
207,8	2,005
208,3	-1,052
208,8	-0,681
209,2	2,719
209,7	4,89
210,2	4,319
210,6	4,662
211,1	12,119
211,5	12,005
212	10,29
212,5	5,576
212,9	0,605
213,4	-0,595
213,9	1,005
214,3	-4,224
214,8	-2,424
215,3	-2,081
215,7	-0,167
216,2	2,919
216,7	6,605
217,1	6,033
217,6	6,719
218,1	5,29
218,5	3,233
219	-1,995
219,5	-3,652
219,9	-9,852
220,4	-6,881
220,9	-7,795
221,3	-0,938
221,8	0,376
222,3	6,233
222,7	9,833
223,2	12,462
223,6	4,948
224,1	2,119
224,6	1,576
225	2,262
225,5	0,519
226	-2,452
226,4	-4,51
226,9	-1,31
227,4	4,29
227,8	-4,624
228,3	-0,767
228,8	-0,71
229,2	2,033
229,7	3,605
230,2	4,29
230,6	4,633
231,1	10,976
231,5	11,633
232	9,633
232,5	8,148
232,9	12,09
233,4	12,119
233,9	5,119
234,3	4,862
234,8	2,405
235,3	0,29
235,7	-2,367
236,2	-3,51
236,7	-6,738
237,1	-1,281
237,6	-5,252
238,1	-9,081
238,5	-14,11
239	-12,824
239,4	-8,11
239,9	-7,624
240,4	-10,395
240,8	-7,595
241,3	-6,31
241,8	-1,738
242,2	0,519
242,7	-6,195
243,2	-2,852
243,6	-3,938
244,1	-1,595
244,6	2,605
245	3,748
245,5	3,605
245,9	-0,624
246,4	-1,91
246,9	-0,91
247,3	-4,71
247,8	-7,795
248,3	-4,852
248,7	-5,91
249,2	2,462
249,7	2,605
250,1	-0,167
250,6	0,605
251	4,862
251,5	6,09
252	3,576
252,4	3,29
252,9	0,748
253,4	0,319
253,8	-3,681
254,3	-3,624
254,8	-5,938
255,2	-7,538
255,7	-12,881
256,1	-10,11
256,6	-6,91
257,1	-5,052
257,5	-11,481
258	-11,681
258,5	-10,31
258,9	-8,967
259,4	-10,938
259,9	-8,567
260,3	-8,395
260,8	-8,195
261,2	-7,824
261,7	-6,224
262,2	-7,767
262,6	-6,567
263,1	-3,681
263,6	0,805
264	7,119
264,5	8,033
264,9	9,548
265,4	10,633
265,9	9,062
266,3	7,49
266,8	6,548
267,3	4,033
267,7	3,805
268,2	4,405
268,7	2,348
269,1	2,776
269,6	-1,081
270	1,033
270,5	-0,91
271	-3,052
271,4	-3,595
271,9	-3,367
272,4	3,176
272,8	0,89
273,3	-5,31
273,7	-3,395
274,2	-1,51
274,7	-4,652
275,1	-1,338
275,6	-5,31
276,1	-2,91
276,5	4,062
277	1,633
277,4	2,29
277,9	7,033
278,4	8,948
278,8	11,205
279,3	16,29
279,8	14,405
280,2	17,89
280,7	20,005
281,1	12,462
281,6	9,576
282,1	5,748
282,5	1,976
283	-1,31
283,4	-2,052
283,9	-0,081
284,4	6,348
284,8	8,033
285,3	7,89
285,8	11,376
286,2	9,948
286,7	8,205
287,1	-0,824
287,6	-1,51
288,1	-6,738
288,5	-4,052
289	-11,024
289,5	-10,652
289,9	-14,452
290,4	-9,424
290,8	-10,852
291,3	-2,938
291,8	-2,252
292,2	-1,595
292,7	4,89
293,1	8,919
293,6	10,462
294,1	9,719
294,5	4,89
295	3,262
295,5	5,862
295,9	3,29
296,4	2,033
296,8	1,119
297,3	3,776
297,8	-1,167
298,2	-2,281
298,7	-0,452
299,1	-2,91
299,6	-0,652
300,1	-1,11
300,5	1,748
301	4,462
301,5	9,519
301,9	7,005
302,4	4,233
302,8	2,719
303,3	2,633
303,8	-8,024
304,2	-3,652
304,7	-8,11
305,1	-9,767
305,6	-8,395
306,1	-1,652
306,5	-1,138
307	6,548
307,4	5,89
307,9	7,548
308,4	6,89
308,8	3,719
309,3	-3,967
309,8	-6,252
310,2	-5,91
310,7	-6,481
311,1	-6,024
311,6	-5,252
312,1	-0,881
312,5	0,633
313	4,576
313,4	2,719
313,9	2,805
314,4	3,033
314,8	1,062
315,3	-0,11
315,7	-0,452
316,2	-4,51
316,7	-3,881
317,1	-1,281
317,6	-3,167
318	3,719
318,5	1,69
319	2,862
319,4	3,89
319,9	5,49
320,3	3,176
320,8	-0,91
321,3	-1,567
321,7	0,176
322,2	-1,967
322,6	0,29
323,1	0,805
323,6	1,233
324	5,405
324,5	1,605
324,9	6,748
325,4	5,662
325,9	4,462
326,3	4,776
326,8	7,033
327,2	4,033
327,7	4,433
328,2	-0,567
328,6	1,633
329,1	-2,595
329,5	-5,595
330	-7,281
330,5	-2,081
330,9	0,748
331,4	-0,11
331,8	0,462
332,3	4,576
332,8	6,519
333,2	3,89
333,7	4,262
334,1	3,833
334,6	6,319
335,1	3,919
335,5	4,576
336	0,976
336,4	0,548
336,9	2,776
337,4	2,119
337,8	3,119
338,3	6,862
338,7	7,062
339,2	7,062
339,7	11,576
340,1	3,605
340,6	4,576
341	-0,938
341,5	-6,138
342	-9,252
342,4	-8,681
342,9	-15,452
343,3	-13,224
343,8	-14,452
344,2	-10,995
344,7	-3,795
345,2	-3,91
345,6	-2,624
346,1	4,776
346,5	-1,424
347	-2,567
347,5	-2,11
347,9	-1,881
348,4	0,405
348,8	1,976
349,3	0,548
349,8	10,805
350,2	19,833
350,7	21,433
351,1	20,519
351,6	20,633
352	24,033
352,5	29,719
353	35,605
353,4	38,519
353,9	49,605
354,3	58,69
354,8	69,205
355,3	86,319
355,7	101,748
356,2	117,319
356,6	134,69
357,1	156,862
357,5	184,948
358	220,519
358,5	251,719
358,9	292,948
359,4	339,548
359,8	391,119
360,3	452,119
360,8	518,005
361,2	592,576
361,7	673,119
362,1	765,919
362,6	867,005
363	972,719
363,5	1087,49
364	1215,348
364,4	1340,748
364,9	1472,919
365,3	1596,662
365,8	1709,576
366,3	1825,862
366,7	1926,605
367,2	2011,29
367,6	2083,719
368,1	2143,576
368,5	2184,862
369	2216,49
369,5	2225,376
369,9	2214,69
370,4	2179,833
370,8	2139,548
371,3	2072,833
371,7	2001,719
372,2	1911,405
372,7	1819,09
373,1	1719,862
373,6	1620,062
374	1515,776
374,5	1412,405
374,9	1310,148
375,4	1218,148
375,9	1125,205
376,3	1036,662
376,8	957,062
377,2	879,376
377,7	810,376
378,2	744,262
378,6	681,433
379,1	623,862
379,5	575,148
380	532,862
380,4	489,919
380,9	450,062
381,4	407,605
381,8	377,348
382,3	347,919
382,7	320,033
383,2	292,462
383,6	269,09
384,1	250,376
384,6	239,09
385	221,49
385,5	210,919
385,9	195,862
386,4	183,748
386,8	171,633
387,3	161,519
387,7	147,433
388,2	138,205
388,7	121,719
389,1	114,462
389,6	107,09
390	101,576
390,5	93,262
390,9	87,89
391,4	84,519
391,9	78,233
392,3	78,148
392,8	67,005
393,2	57,348
393,7	54,09
394,1	46,462
394,6	43,662
395,1	44,148
395,5	37,633
396	38,519
396,4	43,49
396,9	40,919
397,3	44,205
397,8	43,462
398,2	42,462
398,7	44,548
399,2	45,033
399,6	45,176
400,1	44,519
400,5	40,233
401	38,662
401,4	38,519
401,9	34,605
402,4	36,862
402,8	29,69
403,3	37,519
403,7	37,833
404,2	40,233
404,6	43,49
405,1	41,205
405,5	39,433
406	44,033
406,5	39,233
406,9	47,033
407,4	47,319
407,8	47,576
408,3	51,148
408,7	55,433
409,2	60,976
409,6	67,605
410,1	74,29
410,6	81,605
411	88,09
411,5	95,805
411,9	103,776
412,4	110,948
412,8	118,348
413,3	122,719
413,7	127,662
414,2	132,948
414,7	144,148
415,1	154,662
415,6	165,776
416	172,805
416,5	180,862
416,9	188,776
417,4	203,176
417,8	218,319
418,3	226,576
418,8	241,205
419,2	252,405
419,7	266,233
420,1	282,633
420,6	298,348
421	308,462
421,5	329,605
421,9	338,548
422,4	359,319
422,8	378,262
423,3	392,89
423,8	407,833
424,2	429,205
424,7	447,348
425,1	475,005
425,6	501,605
426	526,176
426,5	556,662
426,9	588,376
427,4	619,319
427,9	644,519
428,3	675,576
428,8	707,49
429,2	743,005
429,7	778,519
430,1	815,348
430,6	854,519
431	900,719
431,5	949,833
431,9	992,348
432,4	1037,662
432,8	1094,319
433,3	1148,605
433,8	1204,062
434,2	1262,005
434,7	1323,062
435,1	1390,69
435,6	1463,805
436	1532,976
436,5	1611,033
436,9	1688,89
437,4	1774,119
437,8	1856,862
438,3	1942,719
438,8	2032,405
439,2	2128,262
439,7	2225,29
440,1	2326,919
440,6	2434,348
441	2539,119
441,5	2653,348
441,9	2770,976
442,4	2881,262
442,8	2998,805
443,3	3131,462
443,7	3257,633
444,2	3396,948
444,7	3535,376
445,1	3679,433
445,6	3834,462
446	3985,29
446,5	4136,548
446,9	4292,805
447,4	4452,976
447,8	4618,662
448,3	4789,348
448,7	4963,548
449,2	5149,205
449,6	5324,776
450,1	5511,548
450,6	5696,833
451	5890,948
451,5	6077,776
451,9	6282,633
452,4	6487,376
452,8	6696,49
453,3	6911,062
453,7	7123,033
454,2	7342,833
454,6	7574,205
455,1	7793,348
455,5	8014,148
456	8249,119
456,4	8473,233
456,9	8714,119
457,3	8947,005
457,8	9179,833
458,3	9428,748
458,7	9678,433
459,2	9927,433
459,6	10178,148
460,1	10431,148
460,5	10681,348
461	10943,119
461,4	11181,69
461,9	11427,919
462,3	11670,548
462,8	11937,119
463,2	12183,233
463,7	12451,433
464,1	12693,719
464,6	12953,605
465	13207,748
465,5	13462,462
466	13703,119
466,4	13947,433
466,9	14186,633
467,3	14451,062
467,8	14706,576
468,2	14950,576
468,7	15203,919
469,1	15453,576
469,6	15700,919
470	15943,776
470,5	16170,805
470,9	16400,519
471,4	16636,005
471,8	16865,576
472,3	17089,89
472,7	17313,833
473,2	17518,005
473,6	17717,148
474,1	17917,033
474,5	18121,319
475	18310,605
475,4	18496,748
475,9	18685,976
476,4	18875,176
476,8	19062,29
477,3	19236,119
477,7	19404,033
478,2	19563,948
478,6	19731,69
479,1	19873,948
479,5	20028,462
480	20164,519
480,4	20305,948
480,9	20422,119
481,3	20557,262
481,8	20672,148
482,2	20789,89
482,7	20887,776
483,1	20998,776
483,6	21082,062
484	21176,719
484,5	21243,719
484,9	21308,805
485,4	21378,948
485,8	21429,976
486,3	21474,976
486,7	21513,976
487,2	21552,148
487,6	21590,805
488,1	21609,548
488,5	21613,976
489	21641,919
489,4	21663,29
489,9	21658,89
490,4	21650,919
490,8	21646,862
491,3	21638,433
491,7	21609,09
492,2	21566,09
492,6	21510,605
493,1	21479,49
493,5	21428,09
494	21353,89
494,4	21295,976
494,9	21251,148
495,3	21192,29
495,8	21131,519
496,2	21070,348
496,7	21004,233
497,1	20925,376
497,6	20844,919
498	20765,519
498,5	20683,605
498,9	20597,49
499,4	20499,833
499,8	20405,205
500,3	20321,862
500,7	20226,633
501,2	20116,719
501,6	20005,89
502,1	19895,548
502,5	19781,233
503	19672,662
503,4	19556,862
503,9	19442,033
504,3	19331,719
504,8	19210,119
505,2	19078,119
505,7	18955,69
506,1	18815,919
506,6	18679,748
507	18535,919
507,5	18390,948
507,9	18241,176
508,4	18103,348
508,8	17954,548
509,3	17806,976
509,7	17662,119
510,2	17510,148
510,6	17358,09
511,1	17221,319
511,5	17069,205
512	16920,433
512,4	16769,776
512,9	16619,833
513,3	16471,49
513,8	16320,119
514,2	16158,462
514,7	16004,405
515,1	15843,605
515,6	15685,062
516	15515,519
516,5	15359,862
516,9	15202,09
517,4	15054,919
517,8	14902,233
518,3	14758,348
518,7	14617,29
519,2	14470,948
519,6	14307,862
520,1	14157,519
520,5	13999,748
521	13841,262
521,4	13679,262
521,9	13525,919
522,3	13384,776
522,8	13242,319
523,2	13097,976
523,7	12957,862
524,1	12810,319
524,6	12670,662
525	12521,005
525,5	12372,348
525,9	12244,605
526,4	12100,919
526,8	11960,205
527,3	11833,605
527,7	11705,948
528,2	11577,576
528,6	11450,033
529,1	11310,005
529,5	11186,833
530	11062,862
530,4	10943,69
530,9	10814,348
531,3	10688,919
531,8	10566,519
532,2	10446,033
532,6	10326,605
533,1	10197,776
533,5	10076,262
534	9961,605
534,4	9850,176
534,9	9742,462
535,3	9624,719
535,8	9513,348
536,2	9413,462
536,7	9309,233
537,1	9201,69
537,6	9099,005
538	8990,09
538,5	8901,776
538,9	8792,69
539,4	8688,348
539,8	8585,776
540,3	8490,862
540,7	8391,462
541,2	8299,376
541,6	8197,005
542,1	8115,548
542,5	8033,576
543	7946,805
543,4	7854,205
543,9	7768,976
544,3	7679,89
544,8	7596,919
545,2	7514,833
545,7	7435,176
546,1	7354,719
546,5	7283,633
547	7206,233
547,4	7129,976
547,9	7053,833
548,3	6981,176
548,8	6901,976
549,2	6830,29
549,7	6755,69
550,1	6692,09
550,6	6623,605
551	6556,633
551,5	6485,89
551,9	6416,29
552,4	6345,09
552,8	6284,205
553,3	6215,405
553,7	6146,09
554,2	6092,633
554,6	6030,519
555,1	5973,776
555,5	5916,833
555,9	5855,833
556,4	5796,462
556,8	5746,148
557,3	5682,376
557,7	5628,69
558,2	5569,548
558,6	5519,862
559,1	5467,176
559,5	5411,69
560	5362,319
560,4	5320,205
560,9	5268,776
561,3	5216,433
561,8	5161,576
562,2	5112,29
562,7	5069,776
563,1	5023,519
563,6	4970,433
564	4921,633
564,4	4879,376
564,9	4835,805
565,3	4796,09
565,8	4750,605
566,2	4707,319
566,7	4662,719
567,1	4625,948
567,6	4584,519
568	4543,462
568,5	4501,033
568,9	4457,09
569,4	4413,319
569,8	4370,005
570,3	4325,119
570,7	4287,605
571,1	4252,548
571,6	4213,29
572	4184,148
572,5	4152,433
572,9	4118,348
573,4	4090,976
573,8	4057,576
574,3	4020,69
574,7	3986,262
575,2	3947,176
575,6	3907,69
576,1	3879,805
576,5	3846,719
576,9	3810,89
577,4	3774,862
577,8	3738,119
578,3	3703,633
578,7	3673,462
579,2	3643,405
579,6	3609,605
580,1	3581,49
580,5	3555,805
581	3534,348
581,4	3510,376
581,9	3483,405
582,3	3454,262
582,7	3424,29
583,2	3395,776
583,6	3364,548
584,1	3335,205
584,5	3308,919
585	3283,605
585,4	3248,89
585,9	3223,519
586,3	3198,205
586,8	3179,233
587,2	3147,605
587,6	3125,862
588,1	3102,805
588,5	3081,348
589	3052,919
589,4	3025,662
589,9	2996,319
590,3	2976,576
590,8	2950,576
591,2	2927,062
591,7	2909,205
592,1	2893,719
592,5	2878,148
593	2858,833
593,4	2836,348
593,9	2813,948
594,3	2788,833
594,8	2758,605
595,2	2739,348
595,7	2720,805
596,1	2701,148
596,6	2687,49
597	2664,576
597,4	2655,062
597,9	2648,376
598,3	2631,69
598,8	2616,633
599,2	2598,833
599,7	2583,09
600,1	2569,833
600,6	2544,948
601	2523,89
601,4	2507,148
601,9	2485,919
602,3	2469,405
602,8	2448,319
603,2	2433,69
603,7	2420,605
604,1	2410,433
604,6	2390,319
605	2365,633
605,4	2354,405
605,9	2336,919
606,3	2312,976
606,8	2294,205
607,2	2272,033
607,7	2255,005
608,1	2249,49
608,6	2235,319
609	2223,319
609,4	2212,348
609,9	2198,833
610,3	2186,09
610,8	2171,719
611,2	2155,576
611,7	2133,662
612,1	2118,062
612,6	2109,748
613	2094,805
613,4	2078,776
613,9	2065,462
614,3	2046,519
614,8	2036,719
615,2	2021,576
615,7	2004,433
616,1	1990,748
616,6	1974,005
617	1956,919
617,4	1947,005
617,9	1935,69
618,3	1925,776
618,8	1917,119
619,2	1906,462
619,7	1901,062
620,1	1889,348
620,5	1879,376
621	1863,776
621,4	1848,862
621,9	1828,576
622,3	1815,09
622,8	1795,576
623,2	1787,748
623,6	1774,776
624,1	1765,319
624,5	1757,319
625	1750,319
625,4	1741,976
625,9	1728,833
626,3	1713,319
626,8	1700,948
627,2	1689,233
627,6	1667,319
628,1	1650,748
628,5	1639,89
629	1629,348
629,4	1622,833
629,9	1610,776
630,3	1590,633
630,7	1581,09
631,2	1573,576
631,6	1556,148
632,1	1548,405
632,5	1531,776
633	1521,748
633,4	1515,633
633,8	1506,605
634,3	1493,09
634,7	1483,005
635,2	1470,376
635,6	1465,233
636,1	1451,919
636,5	1437,033
636,9	1426,548
637,4	1418,69
637,8	1406,89
638,3	1392,405
638,7	1373,405
639,2	1358,948
639,6	1349,662
640	1338,776
640,5	1329,062
640,9	1318,89
641,4	1315,233
641,8	1312,233
642,2	1306,776
642,7	1308,49
643,1	1304,033
643,6	1293,433
644	1286,376
644,5	1275,805
644,9	1265,033
645,3	1261,148
645,8	1243,005
646,2	1236,605
646,7	1229,776
647,1	1219,576
647,6	1215,976
648	1210,462
648,4	1196,376
648,9	1193,176
649,3	1179,119
649,8	1177,119
650,2	1175,576
650,6	1170,89
651,1	1158,719
651,5	1155,376
652	1147,462
652,4	1141,519
652,9	1131,69
653,3	1119,262
653,7	1101,976
654,2	1101,719
654,6	1090,205
655,1	1082,319
655,5	1081,348
655,9	1068,576
656,4	1061,033
656,8	1057,662
657,3	1047,033
657,7	1042,119
658,2	1033,919
658,6	1019,205
659	1015,462
659,5	1005,033
659,9	1001,262
660,4	995,662
660,8	985,862
661,2	983,062
661,7	979,29
662,1	972,348
662,6	968,89
663	957,748
663,4	947,805
663,9	942,319
664,3	933,69
664,8	923,805
665,2	914,005
665,6	902,49
666,1	899,548
666,5	892,719
667	887,719
667,4	878,49
667,9	874,605
668,3	867,005
668,7	864,662
669,2	859,748
669,6	854,376
670,1	849,005
670,5	841,462
670,9	833,005
671,4	830,348
671,8	825,09
672,3	817,033
672,7	811,119
673,1	801,405
673,6	797,376
674	796,89
674,5	789,119
674,9	778,148
675,3	770,976
675,8	766,376
676,2	762,033
676,7	751,433
677,1	739,805
677,5	734,69
678	736,433
678,4	737,148
678,9	733,462
679,3	727,89
679,7	728,348
680,2	720,433
680,6	711,805
681,1	703,519
681,5	698,119
681,9	692,148
682,4	690,519
682,8	687,119
683,3	689,919
683,7	685,833
684,1	684,805
684,6	674,462
685	666,976
685,5	661,976
685,9	652,719
686,3	641,062
686,8	640,662
687,2	635,005
687,7	628,119
688,1	626,205
688,5	621,148
689	617,948
689,4	619,205
689,9	611,948
690,3	603,976
690,7	602,948
691,2	599,148
691,6	591,633
692	587,833
692,5	580,69
692,9	578,405
693,4	575,319
693,8	567,033
694,2	561,033
694,7	557,633
695,1	552,519
695,6	552,148
696	548,519
696,4	544,748
696,9	539,833
697,3	533,176
697,8	531,205
698,2	528,062
698,6	525,176
699,1	520,776
699,5	521,719
699,9	522,033
700,4	516,69
700,8	511,948
701,3	510,062
701,7	502,862
702,1	500,062
702,6	494,748
703	490,833
703,5	491,405
703,9	486,919
704,3	481,033
704,8	478,776
705,2	471,662
705,6	466,233
706,1	460,405
706,5	454,548
707	455,233
707,4	452,348
707,8	441,262
708,3	443,005
708,7	441,176
709,2	440,033
709,6	433,09
710	432,69
710,5	428,119
710,9	431,862
711,3	424,576
711,8	421,119
712,2	421,005
712,7	420,09
713,1	412,948
713,5	415,433
714	412,176
714,4	410,948
714,8	406,548
715,3	401,29
715,7	399,433
716,2	394,376
716,6	391,176
717	383,462
717,5	377,919
717,9	377,09
718,3	366,748
718,8	365,176
719,2	366,719
719,7	360,719
720,1	366,205
720,5	369,319
721	365,49
721,4	372,719
721,8	373,176
722,3	365,548
722,7	364,605
723,2	353,89
723,6	343,862
724	341,119
724,5	333,805
724,9	327,89
725,3	326,576
725,8	321,862
726,2	324,262
726,7	328,176
727,1	323,805
727,5	322,548
728	320,119
728,4	317,976
728,8	314,205
729,3	310,262
729,7	304,633
730,1	305,262
730,6	302,09
731	299,148
731,5	296,348
731,9	292,976
732,3	293,633
732,8	294,948
733,2	291,519
733,6	291,262
734,1	289,148
734,5	285,805
734,9	288,519
735,4	285,405
735,8	272,69
736,3	276,462
736,7	274,262
737,1	272,69
737,6	274,605
738	271,119
738,4	265,948
738,9	269,719
739,3	261,176
739,7	258,719
740,2	256,09
740,6	255,205
741,1	257,148
741,5	256,148
741,9	257,576
742,4	260,89
742,8	257,462
743,2	259,605
743,7	253,433
744,1	246,433
744,5	243,948
745	237,69
745,4	231,319
745,8	233,605
746,3	231,233
746,7	233,262
747,2	236,119
747,6	241,033
748	242,976
748,5	245,862
748,9	241,062
749,3	242,09
749,8	239,262
750,2	235,833
750,6	226,576
751,1	232,319
751,5	230,033
751,9	230,205
752,4	226,69
752,8	225,205
753,3	224,176
753,7	233,09
754,1	223,033
754,6	217,862
755	213,462
755,4	207,805
755,9	206,805
756,3	203,633
756,7	198,319
757,2	197,605
757,6	201,376
758	201,205
758,5	202,89
758,9	199,89
759,3	199,662
759,8	195,062
760,2	193,719
760,6	188,69
761,1	185,233
761,5	183,319
761,9	182,605
762,4	178,09
762,8	178,148
763,3	177,119
763,7	176,89
764,1	181,119
764,6	179,833
765	180,948
765,4	184,548
765,9	181,348
766,3	187,205
766,7	183,205
767,2	177,319
767,6	176,29
768	169,233
768,5	165,176
768,9	163,919
769,3	157,633
769,8	158,833
770,2	160,548
770,6	160,29
771,1	166,148
771,5	165,176
771,9	169,662
772,4	169,262
772,8	162,748
773,2	163,405
773,7	160,205
774,1	157,176
774,5	153,805
775	147,348
775,4	147,148
775,8	152,033
776,3	149,519
776,7	148,376
777,1	148,205
777,6	151,919
778	156,462
778,4	156,348
778,9	157,062
779,3	154,576
779,7	154,862
780,2	154,433
780,6	150,348
781	142,719
781,5	136,719
781,9	133,948
782,3	130,205
782,8	131,919
783,2	125,405
783,6	125,29
784,1	127,348
784,5	128,148
784,9	123,976
785,4	129,119
785,8	131,833
786,2	136,119
786,7	135,262
787,1	135,576
787,5	137,576
788	137,29
788,4	136,005
788,8	129,176
789,3	124,49
789,7	124,919
790,1	122,119
790,6	121,462
791	117,548
791,4	118,976
791,9	116,29
792,3	116,119
792,7	119,89
793,2	116,233
793,6	112,348
794	120,119
794,5	110,548
794,9	111,405
795,3	111,49
795,8	106,148
796,2	111,405
796,6	115,69
797,1	112,376
797,5	111,805
797,9	110,09
798,4	109,49
798,8	107,948
799,2	103,062
799,7	101,89
800,1	100,033
800,5	105,948
801	108,719
801,4	105,205
801,8	103,148
802,2	101,919
802,7	95,205
803,1	95,862
803,5	93,776
804	88,605
804,4	91,576
804,8	93,919
805,3	97,662
805,7	97,833
806,1	94,176
806,6	95,348
807	98,719
807,4	93,976
807,9	85,662
808,3	83,576
808,7	82,49
809,2	86,719
809,6	87,062
810	84,662
810,4	89,862
810,9	93,719
811,3	93,89
811,7	95,833
812,2	95,605
812,6	90,719
813	92,719
813,5	90,948
813,9	91,062
814,3	90,719
814,8	91,233
815,2	87,148
815,6	87,148
816,1	85,919
816,5	84,776
816,9	86,748
817,3	84,833
817,8	86,862
818,2	89,948
818,6	88,833
819,1	88,176
819,5	86,376
819,9	87,805
820,4	87,776
820,8	81,833
821,2	73,948
821,7	78,605
822,1	81,976
822,5	82,833
822,9	78,69
823,4	77,833
823,8	80,576
824,2	83,948
824,7	75,89
825,1	67,233
825,5	62,833
826	57,748
826,4	56,49
826,8	54,49
827,3	54,89
827,7	55,605
828,1	59,376
828,5	60,805
829	61,29
829,4	59,69
829,8	53,633
830,3	49,033
830,7	47,919
831,1	47,605
831,6	49,576
832	51,09
832,4	49,748
832,8	54,719
833,3	55,748
833,7	55,605
834,1	49,576
834,6	46,348
835	48,948
835,4	52,748
835,8	45,148
836,3	46,005
836,7	48,576
837,1	51,862
837,6	54,948
838	50,148
838,4	45,205
838,9	49,29
839,3	48,005
839,7	47,119
840,1	42,29
840,6	38,805
841	39,405
841,4	42,976
841,9	43,233
842,3	43,233
842,7	44,633
843,1	44,433
843,6	48,376
844	51,319
844,4	54,605
844,9	55,29
845,3	55,833
845,7	53,062
846,2	53,69
846,6	52,033
847	49,29
847,4	44,376
847,9	42,233
848,3	41,262
848,7	40,033
849,2	40,405
849,6	35,576
850	39,233
850,4	38,605
850,9	44,405
851,3	45,29
851,7	47,833
852,2	48,033
852,6	51,376
853	50,976
853,4	49,776
853,9	43,719
854,3	44,376
854,7	44,89
855,2	44,69
855,6	45,205
856	42,919
856,4	41,948
856,9	42,376
857,3	41,719
857,7	40,633
858,2	43,405
858,6	40,548
859	38,205
859,4	35,319
859,9	31,89
860,3	26,29
860,7	26,605
861,1	27,376
861,6	24,948
862	24,176
862,4	23,833
862,9	24,719
863,3	25,833
863,7	23,519
864,1	22,262
864,6	24,633
865	25,49
865,4	30,719
865,9	32,776
866,3	33,662
866,7	28,833
867,1	27,319
867,6	25,262
868	24,405
868,4	19,776
868,8	17,405
869,3	15,09
869,7	22,09
870,1	18,433
870,6	17,405
871	-3,51
871,4	3,09
871,8	3,119
872,3	7,29
872,7	6,519
873,1	9,89
873,5	11,319
874	29,776
874,4	28,09
874,8	27,062
875,3	26,776
875,7	23,462
876,1	24,09
876,5	26,719
877	26,005
877,4	20,462
877,8	21,605
878,2	26,576
878,7	28,148
879,1	28,033
879,5	25,833
879,9	29,833
880,4	30,976
880,8	31,748
881,2	27,919
881,7	25,605
882,1	24,519
882,5	23,948
882,9	22,433
883,4	19,376
883,8	22,29
884,2	18,89
884,6	18,748
885,1	18,262
885,5	15,29
885,9	15,319
886,3	21,148
886,8	15,062
887,2	14,719
887,6	16,262
888	17,376
888,5	17,548
888,9	16,462
889,3	11,605
889,8	13,29
890,2	13,862
890,6	8,433
891	5,348
891,5	5,576
891,9	5,176
892,3	6,062
892,7	5,49
893,2	5,69
893,6	10,148
894	11,205
894,4	10,605
894,9	11,062
895,3	12,262
895,7	16,376
896,1	17,69
896,6	18,805
897	21,548
897,4	26,262
897,8	29,29
898,3	29,662
898,7	25,862
899,1	25,09
899,5	23,748
900	15,119
900,4	13,662
900,8	13,29
901,2	9,233
901,7	6,205
902,1	3,605
902,5	1,348
902,9	5,662
903,4	8,319
903,8	7,605
904,2	7,119
904,6	11,29
905,1	14,29
905,5	15,976
905,9	19,062
906,3	18,319
906,8	16,09
907,2	19,805
907,6	21,605
908	21,348
908,5	19,49
908,9	17,433
909,3	13,776
909,7	13,148
910,2	16,433
910,6	18,348
911	15,119
911,4	15,576
911,9	12,462
912,3	12,519
912,7	14,633
913,1	13,033
913,6	9,49
914	14,176
914,4	11,09
914,8	13,805
915,3	12,148
915,7	11,176
916,1	6,148
916,5	3,09
916,9	-0,624
917,4	0,833
917,8	1,49
918,2	-1,624
918,6	-7,881
919,1	-2,224
919,5	2,176
919,9	4,005
920,3	5,262
920,8	3,919
921,2	7,748
921,6	11,548
922	9,948
922,5	5,862
922,9	5,205
923,3	5,405
923,7	5,49
924,2	5,062
924,6	7,719
925	6,633
925,4	9,833
925,8	8,119
926,3	7,89
926,7	8,49
927,1	9,805
927,5	11,548
928	11,148
928,4	3,405
928,8	4,148
929,2	4,062
929,7	5,69
930,1	5,376
930,5	0,976
930,9	3,662
931,3	11,405
931,8	10,633
932,2	9,262
932,6	4,69
933	-1,852
933,5	-2,652
933,9	-4,51
934,3	-5,767
934,7	-7,452
935,2	-7,138
935,6	-4,624
936	-2,31
936,4	4,319
936,8	6,176
937,3	6,748
937,7	9,919
938,1	13,433
938,5	8,633
939	13,69
939,4	9,49
939,8	6,262
940,2	5,519
940,6	5,633
941,1	4,09
941,5	10,005
941,9	6,519
942,3	7,262
942,8	8,148
943,2	5,005
943,6	-0,281
944	-2,881
944,4	-4,024
944,9	-5,824
945,3	-4,281
945,7	-8,481
946,1	-5,938
946,6	-3,338
947	-1,938
947,4	1,462
947,8	4,548
948,2	-1,024
948,7	2,748
949,1	1,519
949,5	8,605
949,9	7,176
950,3	5,319
950,8	4,433
951,2	6,233
951,6	2,633
952	3,205
952,5	-8,224
952,9	-5,224
953,3	-7,338
953,7	-6,11
954,1	-3,652
954,6	1,776
955	1,176
955,4	3,462
955,8	6,062
956,2	5,719
956,7	4,062
957,1	1,319
957,5	2,433
957,9	3,519
958,3	4,976
958,8	2,776
959,2	7,033
959,6	10,033
960	10,176
960,5	9,576
960,9	11,633
961,3	9,49
961,7	8,862
962,1	9,548
962,6	9,119
963	9,005
963,4	2,29
963,8	-0,31
964,2	3,405
964,7	2,605
965,1	0,119
965,5	0,205
965,9	-2,167
966,3	2,748
966,8	-1,11
967,2	-0,881
967,6	-4,367
968	-6,395
968,4	-7,938
968,9	-4,51
969,3	-4,081
969,7	-3,967
970,1	-5,167
970,5	-2,052
971	0,69
971,4	2,462
971,8	2,748
972,2	1,49
972,6	6,719
973,1	7,833
973,5	9,233
973,9	9,29
974,3	8,033
974,7	12,148
975,2	12,119
975,6	8,833
976	7,719
976,4	5,662
976,8	2,233
977,3	-2,395
977,7	-6,938
978,1	-5,652
978,5	-7,195
978,9	-12,167
979,4	-13,367
979,8	-10,852
980,2	-5,424
980,6	-9,052
981	-12,024
981,5	-10,138
981,9	-7,824
982,3	-6,052
982,7	-4,91
983,1	-10,052
983,6	-7,31
984	-3,938
984,4	-1,681
984,8	1,033
985,2	1,205
985,6	-5,91
986,1	0,176
986,5	4,576
986,9	1,148
987,3	0,919
987,7	0,976
988,2	2,462
988,6	7,319
989	5,433
989,4	1,605
989,8	2,062
990,3	3,89
990,7	6,348
991,1	5,605
991,5	8,833
991,9	8,005
992,3	6,89
992,8	8,776
993,2	4,976
993,6	0,176
994	1,09
994,4	0,29
994,9	1,319
995,3	-0,967
995,7	-3,11
996,1	2,262
996,5	2,776
996,9	-3,681
997,4	-3,138
997,8	-8,824
998,2	-5,881
998,6	-8,767
999	-13,852
999,5	-13,452
999,9	-9,852
1000,3	-16,51
1000,7	-10,738
1001,1	-12,395
1001,5	-6,91
1002	-2,31
1002,4	-3,138
1002,8	-5,11
1003,2	0,033
1003,6	-1,652
1004	-3,138
1004,5	-7,538
1004,9	-7,71
1005,3	-6,824
1005,7	-5,624
1006,1	-9,795
1006,6	-10,367
1007	-4,767
1007,4	-3,138
1007,8	-2,91
1008,2	-4,967
1008,6	-2,367
1009,1	-2,024
1009,5	2,633
1009,9	1,776
1010,3	6,09
1010,7	4,233
1011,1	5,119
1011,6	3,719
1012	7,519
1012,4	2,919
1012,8	-3,767
1013,2	-2,424
1013,6	-4,367
1014,1	-1,081
1014,5	-1,824
1014,9	-5,824
1015,3	-4,881
1015,7	0,033
1016,1	-5,024
1016,6	-6,252
1017	-4,71
1017,4	0,233
1017,8	0,519
1018,2	1,09
1018,6	1,919
1019,1	-0,252
1019,5	1,233
1019,9	-1,738
1020,3	-0,338
1020,7	2,348
1021,1	-0,31
1021,6	-1,624
1022	4,09
1022,4	2,319
1022,8	3,519
1023,2	-1,51
1023,6	-2,024
1024,1	5,862
1024,5	8,919
1024,9	1,205
1025,3	4,519
1025,7	4,719
1026,1	5,719
1026,6	5,29
1027	-0,738
1027,4	1,29
1027,8	2,433
1028,2	0,49
1028,6	3,662
1029	-3,71
1029,5	-1,452
1029,9	1,862
1030,3	-4,424
1030,7	1,462
1031,1	6,69
1031,5	-0,024
1032	7,176
1032,4	4,633
1032,8	4,776
1033,2	3,662
1033,6	4,062
1034	-3,481
1034,4	-2,424
1034,9	-3,624
1035,3	-0,567
1035,7	-3,481
1036,1	-0,224
1036,5	-4,71
1036,9	-0,167
1037,4	3,433
1037,8	0,776
1038,2	-4,138
1038,6	-3,767
1039	0,776
1039,4	8,776
1039,8	4,833
1040,3	2,462
1040,7	7,205
1041,1	11,319
1041,5	14,29
1041,9	6,833
1042,3	3,719
1042,7	3,405
1043,2	0,89
1043,6	-2,967
1044	-3,91
1044,4	-6,11
1044,8	-1,995
1045,2	-6,852
1045,6	0,148
1046,1	-0,252
1046,5	1,462
1046,9	0,462
1047,3	0,033
1047,7	-2,195
1048,1	-0,424
1048,5	-0,052
1049	3,376
1049,4	7,862
1049,8	7,319
1050,2	9,062
1050,6	12,805
1051	12,776
1051,4	7,262
1051,9	3,805
1052,3	8,919
1052,7	12,662
1053,1	10,576
1053,5	11,633
1053,9	7,49
1054,3	6,719
1054,8	14,976
1055,2	3,976
1055,6	4,405
1056	4,205
1056,4	-0,081
1056,8	6,462
1057,2	6,262
1057,6	2,433
1058,1	2,005
1058,5	-3,31
1058,9	-2,852
1059,3	-1,338
1059,7	-3,167
1060,1	1,176
1060,5	-2,595
1061	2,605
1061,4	1,748
1061,8	2,262
1062,2	-0,738
1062,6	-0,395
1063	-3,681
1063,4	-0,91
1063,8	-4,567
1064,3	-3,624
1064,7	-2,681
1065,1	-1,052
1065,5	-3,481
1065,9	-3,795
1066,3	-6,881
1066,7	-6,681
1067,1	-9,395
1067,6	-7,51
1068	-12,795
1068,4	-10,738
1068,8	-8,167
1069,2	-5,31
1069,6	-2,338
1070	3,805
1070,4	2,29
1070,9	3,433
1071,3	4,948
1071,7	1,005
1072,1	0,89
1072,5	-3,024
1072,9	-5,252
1073,3	-5,024
1073,7	-6,452
1074,2	-5,967
1074,6	-1,367
1075	-2,424
1075,4	-2,138
1075,8	-0,224
1076,2	-1,252
1076,6	6,376
1077	1,062
1077,5	4,233
1077,9	0,69
1078,3	1,833
1078,7	1,205
1079,1	-2,938
1079,5	-2,538
1079,9	-0,738
1080,3	-10,938
1080,7	-5,224
1081,2	-1,652
1081,6	-3,967
1082	-1,338
1082,4	-0,167
1082,8	1,433
1083,2	6,548
1083,6	7,976
1084	1,862
1084,5	3,205
1084,9	0,119
1085,3	-7,967
1085,7	-6,538
1086,1	-4,367
1086,5	-7,338
1086,9	-3,652
1087,3	-3,938
1087,7	-1,567
1088,2	3,69
1088,6	1,176
1089	-1,738
1089,4	-2,71
1089,8	-5,252
1090,2	-7,195
1090,6	-8,338
1091	-5,681
1091,4	-4,081
1091,9	-3,195
1092,3	-2,738
1092,7	-1,91
1093,1	1,433
1093,5	3,833
1093,9	1,748
1094,3	6,205
1094,7	2,633
1095,1	6,29
1095,5	7,062
1096	1,09
1096,4	2,033
1096,8	-0,195
1097,2	-6,31
1097,6	-2,367
1098	-5,624
1098,4	-2,652
1098,8	2,033
1099,2	3,919
1099,6	2,576
1100,1	2,776
1100,5	0,233
1100,9	3,119
1101,3	1,319
1101,7	1,976
1102,1	0,433
1102,5	4,348
1102,9	4,633
1103,3	8,49
1103,7	8,433
1104,2	6,662
1104,6	7,405
1105	5,805
1105,4	5,205
1105,8	4,948
1106,2	2,662
1106,6	0,776
1107	1,805
1107,4	0,367
1107,8	1,433
1108,3	-0,067
