Data from Subt2_048.txt Node
Date: Sat Aug 26 16:26:44 MSK 2023
User: vat
Spectrometer: MAYP114033
Trigger mode: 0
Integration Time (sec): 1,000000E0
Scans to average: 5
Electric dark correction enabled: true
Nonlinearity correction enabled: false
Boxcar width: 3
XAxis mode: Wavelengths
Number of Pixels in Spectrum: 2068
>>>>>Begin Spectral Data<<<<<
199,4	-1,133
199,9	-1,773
200,4	-4,833
200,8	-5,248
201,3	-3,619
201,8	-2,362
202,2	-2,019
202,7	0,01
203,2	-1,219
203,6	0,152
204,1	2,124
204,6	2,867
205	3,038
205,5	2,124
206	0,524
206,4	2,581
206,9	3,352
207,4	7,695
207,8	5,495
208,3	5,581
208,8	6,038
209,2	8,352
209,7	10,21
210,2	13,952
210,6	9,867
211,1	6,838
211,5	5,495
212	0,152
212,5	-3,076
212,9	-4,076
213,4	-4,733
213,9	-7,248
214,3	-2,848
214,8	-1,676
215,3	3,838
215,7	-0,362
216,2	0,895
216,7	-1,848
217,1	-0,648
217,6	-1,39
218,1	-0,162
218,5	-0,362
219	11,724
219,5	8,724
219,9	7,667
220,4	8,467
220,9	6,067
221,3	6,724
221,8	4,01
222,3	-4,105
222,7	-6,105
223,2	-2,619
223,6	-4,39
224,1	-2,562
224,6	-6,133
225	-5,276
225,5	2,867
226	5,267
226,4	5,467
226,9	7,238
227,4	7,267
227,8	11,867
228,3	15,152
228,8	6,352
229,2	5,895
229,7	-0,562
230,2	2,638
230,6	2,295
231,1	-1,105
231,5	1,124
232	9,61
232,5	9,61
232,9	13,581
233,4	14,095
233,9	15,581
234,3	20,41
234,8	18,324
235,3	16,61
235,7	22,695
236,2	26,295
236,7	20,81
237,1	19,295
237,6	15,381
238,1	12,581
238,5	10,867
239	2,895
239,4	2,152
239,9	1,467
240,4	1,324
240,8	-1,533
241,3	-1,476
241,8	-4,762
242,2	-6,476
242,7	-7,448
243,2	-2,076
243,6	-1,619
244,1	-0,19
244,6	-0,362
245	-0,905
245,5	1,524
245,9	1,667
246,4	-1,048
246,9	-0,819
247,3	-2,905
247,8	1,895
248,3	4,838
248,7	11,695
249,2	5,295
249,7	4,61
250,1	2,41
250,6	4,952
251	-0,019
251,5	-1,819
252	-8,162
252,4	-2,048
252,9	-3,705
253,4	-0,962
253,8	-1,705
254,3	2,924
254,8	5,467
255,2	9,152
255,7	11,295
256,1	12,752
256,6	11,01
257,1	15,61
257,5	15,124
258	11,952
258,5	9,867
258,9	8,867
259,4	11,895
259,9	15,295
260,3	11,667
260,8	8,381
261,2	12,524
261,7	11,695
262,2	7,41
262,6	4,581
263,1	0,381
263,6	4,267
264	5,695
264,5	2,981
264,9	3,981
265,4	4,581
265,9	6,038
266,3	8,667
266,8	4,981
267,3	7,724
267,7	8,81
268,2	10,295
268,7	11,838
269,1	13,61
269,6	16,667
270	16,438
270,5	15,467
271	14,867
271,4	8,552
271,9	7,381
272,4	5,038
272,8	-1,648
273,3	-4,99
273,7	-7,876
274,2	-8,39
274,7	-0,648
275,1	-3,676
275,6	-3,076
276,1	3,067
276,5	8,524
277	11,581
277,4	15,752
277,9	7,21
278,4	9,895
278,8	12,267
279,3	7,867
279,8	6,095
280,2	3,552
280,7	-3,419
281,1	7,038
281,6	9,41
282,1	7,467
282,5	11,895
283	10,867
283,4	12,61
283,9	11,381
284,4	9,438
284,8	8,524
285,3	5,381
285,8	0,781
286,2	0,21
286,7	0,324
287,1	-0,019
287,6	-0,533
288,1	3,381
288,5	8,695
289	10,438
289,5	11,21
289,9	10,067
290,4	11,038
290,8	10,467
291,3	7,752
291,8	5,067
292,2	6,152
292,7	7,752
293,1	8,152
293,6	12,752
294,1	11,895
294,5	15,952
295	14,067
295,5	15,495
295,9	18,752
296,4	18,895
296,8	17,01
297,3	16,124
297,8	8,838
298,2	7,524
298,7	3,667
299,1	-0,505
299,6	-1,705
300,1	-2,733
300,5	-0,905
301	4,438
301,5	7,124
301,9	5,581
302,4	5,524
302,8	5,724
303,3	5,667
303,8	3,495
304,2	-1,762
304,7	-5,305
305,1	-2,819
305,6	-3,648
306,1	-2,448
306,5	-2,362
307	-2,676
307,4	-0,79
307,9	1,324
308,4	0,924
308,8	5,981
309,3	3,152
309,8	5,81
310,2	5,695
310,7	8,467
311,1	5,152
311,6	4,352
312,1	-0,076
312,5	2,267
313	-2,219
313,4	-0,733
313,9	0,924
314,4	0,981
314,8	2,352
315,3	4,581
315,7	6,238
316,2	8,038
316,7	8,438
317,1	7,581
317,6	11,752
318	13,038
318,5	14,952
319	18,324
319,4	22,21
319,9	19,124
320,3	17,524
320,8	15,21
321,3	16,61
321,7	12,238
322,2	5,61
322,6	0,038
323,1	4,524
323,6	4,267
324	6,038
324,5	-0,648
324,9	0,267
325,4	1,81
325,9	7,895
326,3	8,867
326,8	9,124
327,2	12,152
327,7	19,238
328,2	21,781
328,6	23,61
329,1	18,01
329,5	14,638
330	14,352
330,5	11,667
330,9	9,524
331,4	8,981
331,8	12,667
332,3	14,61
332,8	11,638
333,2	9,438
333,7	9,381
334,1	12,067
334,6	11,781
335,1	7,867
335,5	10,267
336	9,181
336,4	11,552
336,9	13,267
337,4	9,552
337,8	8,124
338,3	5,981
338,7	4,981
339,2	10,152
339,7	12,095
340,1	8,181
340,6	3,295
341	5,667
341,5	9,324
342	10,067
342,4	11,467
342,9	7,381
343,3	12,581
343,8	18,524
344,2	17,695
344,7	16,267
345,2	10,352
345,6	9,095
346,1	12,352
346,5	15,067
347	19,352
347,5	16,952
347,9	15,981
348,4	20,81
348,8	22,324
349,3	19,695
349,8	16,781
350,2	7,695
350,7	13,895
351,1	15,638
351,6	20,952
352	28,552
352,5	36,352
353	46,581
353,4	60,095
353,9	70,924
354,3	86,61
354,8	94,667
355,3	107,21
355,7	125,21
356,2	144,495
356,6	170,667
357,1	198,924
357,5	227,752
358	277,181
358,5	321,638
358,9	371,952
359,4	433,81
359,8	501,01
360,3	569,038
360,8	654,838
361,2	742,667
361,7	844,41
362,1	960,295
362,6	1082,267
363	1212,352
363,5	1358,381
364	1504,095
364,4	1650,21
364,9	1799,895
365,3	1945,038
365,8	2081,21
366,3	2215,895
366,7	2335,41
367,2	2439,067
367,6	2531,952
368,1	2597,867
368,5	2646,61
369	2670,324
369,5	2672,238
369,9	2653,295
370,4	2609,895
370,8	2549,295
371,3	2479,295
371,7	2385,781
372,2	2287,152
372,7	2173,295
373,1	2057,781
373,6	1943,638
374	1817,124
374,5	1695,61
374,9	1576,524
375,4	1467,352
375,9	1357,01
376,3	1250,181
376,8	1152,01
377,2	1068,838
377,7	982,981
378,2	905,324
378,6	825,781
379,1	756,667
379,5	693,467
380	638,295
380,4	579,61
380,9	531,181
381,4	487,752
381,8	447,667
382,3	412,752
382,7	377,124
383,2	343,81
383,6	318,381
384,1	295,067
384,6	271,552
385	255,124
385,5	239,695
385,9	228,552
386,4	214,724
386,8	201,838
387,3	183,695
387,7	172,295
388,2	157,667
388,7	143,781
389,1	131,838
389,6	118,352
390	109,352
390,5	102,524
390,9	100,381
391,4	95,838
391,9	91,524
392,3	81,838
392,8	79,524
393,2	72,41
393,7	71,724
394,1	65,752
394,6	59,01
395,1	59,238
395,5	58,438
396	56,324
396,4	54,067
396,9	52,524
397,3	45,781
397,8	44,181
398,2	37,638
398,7	36,295
399,2	31,381
399,6	34,438
400,1	25,067
400,5	27,724
401	29,181
401,4	29,781
401,9	28,667
402,4	27,924
402,8	22,067
403,3	25,067
403,7	19,924
404,2	20,695
404,6	20,524
405,1	17,81
405,5	19,124
406	21,952
406,5	22,295
406,9	22,324
407,4	22,495
407,8	28,152
408,3	33,01
408,7	35,81
409,2	35,181
409,6	36,124
410,1	45,01
410,6	43,61
411	41,781
411,5	41,552
411,9	44,381
412,4	49,438
412,8	55,01
413,3	55,095
413,7	59,324
414,2	64,295
414,7	71,267
415,1	72,581
415,6	78,638
416	79,867
416,5	83,952
416,9	84,467
417,4	85,61
417,8	84,095
418,3	87,495
418,8	80,781
419,2	86,381
419,7	89,038
420,1	87,61
420,6	87,724
421	90,152
421,5	91,095
421,9	103,152
422,4	101,752
422,8	100,381
423,3	107,61
423,8	111,552
424,2	113,838
424,7	115,581
425,1	109,181
425,6	114,238
426	114,352
426,5	110,981
426,9	112,867
427,4	114,01
427,9	111,067
428,3	114,267
428,8	113,152
429,2	115,895
429,7	119,781
430,1	119,352
430,6	120,838
431	124,752
431,5	124,638
431,9	125,81
432,4	128,867
432,8	131,867
433,3	134,781
433,8	140,781
434,2	145,924
434,7	151,01
435,1	156,81
435,6	162,724
436	170,038
436,5	178,667
436,9	184,21
437,4	193,581
437,8	201,495
438,3	209,838
438,8	211,352
439,2	217,21
439,7	223,352
440,1	229,01
440,6	239,867
441	246,01
441,5	254,581
441,9	271,867
442,4	289,181
442,8	297,695
443,3	311,067
443,7	315,095
444,2	328,467
444,7	338,038
445,1	349,438
445,6	355,638
446	373,381
446,5	387,01
446,9	408,21
447,4	425,295
447,8	446,495
448,3	463,267
448,7	480,552
449,2	493,667
449,6	508,81
450,1	528,81
450,6	546,01
451	559,438
451,5	577,21
451,9	595,952
452,4	621,495
452,8	643,752
453,3	655,181
453,7	673,381
454,2	695,381
454,6	720,752
455,1	740,152
455,5	759,267
456	781,067
456,4	811,381
456,9	836,324
457,3	865,124
457,8	887,924
458,3	919,895
458,7	946,41
459,2	970,352
459,6	995,324
460,1	1025,867
460,5	1048,952
461	1069,724
461,4	1093,752
461,9	1122,01
462,3	1152,067
462,8	1175,81
463,2	1202,867
463,7	1231,867
464,1	1266,038
464,6	1296,038
465	1321,981
465,5	1356,524
466	1385,01
466,4	1410,152
466,9	1434,524
467,3	1463,924
467,8	1499,124
468,2	1525,724
468,7	1548,552
469,1	1576,267
469,6	1608,324
470	1643,752
470,5	1672,924
470,9	1693,124
471,4	1725,067
471,8	1749,81
472,3	1770,695
472,7	1798,181
473,2	1814,381
473,6	1830,781
474,1	1848,981
474,5	1869,61
475	1900,924
475,4	1931,41
475,9	1957,495
476,4	1981,952
476,8	2010,095
477,3	2044,552
477,7	2071,638
478,2	2086,095
478,6	2107,838
479,1	2124,752
479,5	2145,981
480	2167,438
480,4	2175,124
480,9	2190,467
481,3	2203,695
481,8	2224,724
482,2	2236,438
482,7	2255,067
483,1	2270,352
483,6	2281,981
484	2287,21
484,5	2304,581
484,9	2307,981
485,4	2321,324
485,8	2327,838
486,3	2331,124
486,7	2349,467
487,2	2361,61
487,6	2366,41
488,1	2375,124
488,5	2376,838
489	2378,981
489,4	2381,495
489,9	2378,438
490,4	2381,895
490,8	2379,152
491,3	2379,238
491,7	2371,038
492,2	2368,895
492,6	2363,638
493,1	2358,981
493,5	2350,895
494	2347,581
494,4	2341,952
494,9	2342,152
495,3	2341,724
495,8	2339,238
496,2	2335,924
496,7	2324,867
497,1	2319,838
497,6	2302,638
498	2293,152
498,5	2276,381
498,9	2264,867
499,4	2255,067
499,8	2247,495
500,3	2239,838
500,7	2237,752
501,2	2225,038
501,6	2219,695
502,1	2208,981
502,5	2188,781
503	2177,552
503,4	2157,638
503,9	2142,381
504,3	2126,724
504,8	2110,924
505,2	2092,352
505,7	2077,352
506,1	2061,867
506,6	2048,267
507	2030,067
507,5	2016,838
507,9	1998,438
508,4	1989,81
508,8	1975,467
509,3	1959,21
509,7	1937,01
510,2	1917,952
510,6	1900,095
511,1	1881,924
511,5	1855,638
512	1842,324
512,4	1820,095
512,9	1803,524
513,3	1793,01
513,8	1778,267
514,2	1762,667
514,7	1746,952
515,1	1724,781
515,6	1707,581
516	1689,61
516,5	1670,181
516,9	1649,552
517,4	1626,895
517,8	1607,21
518,3	1590,21
518,7	1570,381
519,2	1556,295
519,6	1537,238
520,1	1518,867
520,5	1504,267
521	1485,638
521,4	1465,41
521,9	1457,267
522,3	1437,381
522,8	1424,238
523,2	1407,152
523,7	1390,838
524,1	1378,41
524,6	1363,867
525	1345,238
525,5	1330,124
525,9	1308,838
526,4	1292,61
526,8	1274,752
527,3	1256,981
527,7	1241,638
528,2	1219,724
528,6	1211,724
529,1	1193,867
529,5	1175,752
530	1161,238
530,4	1150,238
530,9	1140,61
531,3	1131,695
531,8	1117,752
532,2	1107,01
532,6	1099,295
533,1	1082,895
533,5	1071,952
534	1054,952
534,4	1038,867
534,9	1021,41
535,3	1012,41
535,8	997,41
536,2	990,467
536,7	974,067
537,1	964,067
537,6	960,552
538	950,524
538,5	937,752
538,9	932,667
539,4	924,924
539,8	914,495
540,3	899,038
540,7	883,495
541,2	872,038
541,6	864,667
542,1	852,467
542,5	840,095
543	830,924
543,4	830,981
543,9	816,295
544,3	809,552
544,8	796,467
545,2	789,695
545,7	781,01
546,1	775,81
546,5	763,067
547	763,01
547,4	750,01
547,9	744,952
548,3	731,667
548,8	720,267
549,2	708,152
549,7	697,61
550,1	689,695
550,6	685,067
551	676,267
551,5	668,924
551,9	667,295
552,4	663,524
552,8	653,638
553,3	647,467
553,7	640,695
554,2	633,124
554,6	630,724
555,1	625,152
555,5	618,638
555,9	617,438
556,4	607,781
556,8	600,61
557,3	595,724
557,7	587,467
558,2	578,152
558,6	573,752
559,1	567,067
559,5	562,352
560	559,41
560,4	553,952
560,9	551,638
561,3	548,181
561,8	545,81
562,2	543,152
562,7	542,324
563,1	536,181
563,6	533,581
564	530,895
564,4	530,638
564,9	519,495
565,3	517,381
565,8	515,01
566,2	510,295
566,7	502,695
567,1	499,61
567,6	496,381
568	497,581
568,5	490,181
568,9	482,181
569,4	479,381
569,8	477,038
570,3	470,21
570,7	456,867
571,1	448,838
571,6	448,267
572	448,495
572,5	446,21
572,9	448,952
573,4	448,438
573,8	452,095
574,3	452,267
574,7	445,038
575,2	440,352
575,6	438,01
576,1	430,352
576,5	424,352
576,9	418,524
577,4	416,867
577,8	418,781
578,3	409,01
578,7	405,467
579,2	408,095
579,6	412,61
580,1	414,724
580,5	408,324
581	405,867
581,4	405,838
581,9	404,695
582,3	396,724
582,7	389,324
583,2	380,467
583,6	374,01
584,1	368,781
584,5	370,152
585	367,267
585,4	366,324
585,9	363,124
586,3	363,838
586,8	366,81
587,2	365,895
587,6	361,524
588,1	362,038
588,5	356,524
589	355,467
589,4	353,381
589,9	353,752
590,3	347,981
590,8	347,495
591,2	341,381
591,7	343,524
592,1	338,124
592,5	334,838
593	328,238
593,4	330,267
593,9	324,895
594,3	318,752
594,8	315,724
595,2	318,295
595,7	319,41
596,1	317,752
596,6	316,095
597	321,352
597,4	323,838
597,9	320,01
598,3	317,381
598,8	313,124
599,2	311,438
599,7	309,295
600,1	301,01
600,6	300,381
601	298,695
601,4	292,638
601,9	289,067
602,3	290,552
602,8	285,124
603,2	283,467
603,7	279,324
604,1	279,81
604,6	275,695
605	274,61
605,4	273,181
605,9	271,495
606,3	269,781
606,8	268,095
607,2	266,124
607,7	269,381
608,1	267,752
608,6	264,752
609	266,867
609,4	265,124
609,9	265,038
610,3	262,838
610,8	262,781
611,2	265,867
611,7	262,638
612,1	259,638
612,6	264,781
613	269,238
613,4	269,295
613,9	267,41
614,3	262,867
614,8	261,952
615,2	262,324
615,7	260,381
616,1	253,352
616,6	248,752
617	245,095
617,4	246,124
617,9	243,838
618,3	246,038
618,8	238,638
619,2	240,181
619,7	241,381
620,1	235,81
620,5	231,381
621	231,124
621,4	223,61
621,9	225,467
622,3	221,752
622,8	215,838
623,2	217,267
623,6	216,01
624,1	215,924
624,5	218,124
625	210,21
625,4	211,067
625,9	212,324
626,3	213,21
626,8	213,61
627,2	213,552
627,6	212,181
628,1	214,552
628,5	210,495
629	215,667
629,4	213,095
629,9	214,495
630,3	214,438
630,7	214,381
631,2	216,352
631,6	217,438
632,1	209,695
632,5	214,81
633	206,838
633,4	205,61
633,8	201,124
634,3	198,695
634,7	197,038
635,2	196,352
635,6	189,724
636,1	194,667
636,5	190,41
636,9	188,181
637,4	188,152
637,8	184,295
638,3	183,124
638,7	188,495
639,2	187,867
639,6	186,61
640	187,352
640,5	183,495
640,9	187,524
641,4	185,41
641,8	178,524
642,2	176,781
642,7	176,467
643,1	181,524
643,6	181,295
644	177,324
644,5	178,438
644,9	177,495
645,3	178,01
645,8	179,781
646,2	175,895
646,7	175,981
647,1	174,81
647,6	169,41
648	164,41
648,4	160,61
648,9	160,695
649,3	157,01
649,8	155,838
650,2	154,295
650,6	158,552
651,1	165,61
651,5	166,724
652	163,695
652,4	162,895
652,9	165,752
653,3	163,724
653,7	163,667
654,2	162,381
654,6	157,495
655,1	152,952
655,5	150,524
655,9	144,952
656,4	146,495
656,8	142,752
657,3	137,724
657,7	136,752
658,2	138,867
658,6	135,724
659	133,638
659,5	131,61
659,9	133,638
660,4	133,438
660,8	138,124
661,2	133,41
661,7	132,924
662,1	131,41
662,6	133,295
663	134,781
663,4	136,295
663,9	128,524
664,3	132,038
664,8	134,61
665,2	137,895
665,6	134,295
666,1	132,067
666,5	128,781
667	127,324
667,4	126,838
667,9	120,752
668,3	119,81
668,7	121,552
669,2	119,381
669,6	119,467
670,1	124,552
670,5	117,724
670,9	124,981
671,4	124,038
671,8	122,438
672,3	124,324
672,7	121,667
673,1	118,152
673,6	123,038
674	118,524
674,5	118,867
674,9	118,467
675,3	112,838
675,8	112,295
676,2	114,21
676,7	115,124
677,1	116,952
677,5	113,438
678	111,581
678,4	108,895
678,9	109,838
679,3	105,81
679,7	99,867
680,2	100,467
680,6	100,381
681,1	96,21
681,5	100,752
681,9	102,152
682,4	109,981
682,8	113,924
683,3	107,981
683,7	107,181
684,1	109,181
684,6	111,267
685	110,267
685,5	101,924
685,9	97,552
686,3	103,867
686,8	104,352
687,2	107,81
687,7	103,838
688,1	105,324
688,5	105,781
689	106,667
689,4	105,667
689,9	107,352
690,3	108,267
690,7	105,467
691,2	104,067
691,6	104,924
692	105,638
692,5	101,41
692,9	95,924
693,4	91,61
693,8	94,524
694,2	91,352
694,7	88,467
695,1	88,895
695,6	86,124
696	87,267
696,4	84,295
696,9	80,752
697,3	79,981
697,8	78,952
698,2	79,238
698,6	82,867
699,1	82,381
699,5	81,581
699,9	82,467
700,4	80,952
700,8	83,924
701,3	78,781
701,7	76,21
702,1	79,381
702,6	81,124
703	78,038
703,5	77,638
703,9	72,467
704,3	73,552
704,8	71,838
705,2	69,21
705,6	63,895
706,1	68,267
706,5	70,867
707	74,01
707,4	72,838
707,8	78,038
708,3	75,524
708,7	82,552
709,2	79,238
709,6	75,581
710	73,067
710,5	73,581
710,9	70,581
711,3	71,495
711,8	69,381
712,2	68,095
712,7	73,438
713,1	75,124
713,5	73,295
714	73,095
714,4	72,61
714,8	72,267
715,3	74,21
715,7	63,61
716,2	59,41
716,6	61,181
717	58,181
717,5	60,438
717,9	60,952
718,3	58,067
718,8	62,781
719,2	66,952
719,7	67,324
720,1	62,952
720,5	62,638
721	59,124
721,4	60,781
721,8	61,495
722,3	55,552
722,7	52,895
723,2	57,267
723,6	52,324
724	55,295
724,5	51,324
724,9	50,724
725,3	52,838
725,8	53,895
726,2	52,838
726,7	55,495
727,1	50,381
727,5	54,552
728	52,581
728,4	51,238
728,8	52,21
729,3	50,552
729,7	51,867
730,1	52,638
730,6	50,838
731	53,295
731,5	54,781
731,9	53,581
732,3	57,495
732,8	56,095
733,2	54,895
733,6	54,495
734,1	55,838
734,5	52,924
734,9	52,752
735,4	52,61
735,8	48,895
736,3	50,381
736,7	51,81
737,1	45,41
737,6	48,095
738	47,352
738,4	46,895
738,9	50,038
739,3	48,238
739,7	42,152
740,2	45,867
740,6	45,838
741,1	45,324
741,5	44,352
741,9	38,181
742,4	40,61
742,8	47,81
743,2	47,438
743,7	45,467
744,1	40,324
744,5	39,067
745	39,695
745,4	40,552
745,8	37,838
746,3	40,895
746,7	41,752
747,2	49,524
747,6	50,524
748	56,238
748,5	52,638
748,9	49,952
749,3	51,267
749,8	50,667
750,2	48,781
750,6	47,638
751,1	45,238
751,5	44,01
751,9	44,124
752,4	38,295
752,8	38,895
753,3	36,381
753,7	34,124
754,1	34,638
754,6	34,895
755	32,495
755,4	32,467
755,9	31,495
756,3	29,438
756,7	28,381
757,2	28,867
757,6	31,352
758	31,81
758,5	29,524
758,9	29,181
759,3	29,038
759,8	36,152
760,2	36,867
760,6	38,124
761,1	41,067
761,5	45,295
761,9	42,495
762,4	47,152
762,8	39,895
763,3	36,067
763,7	31,581
764,1	26,724
764,6	25,952
765	25,067
765,4	22,581
765,9	20,295
766,3	19,781
766,7	20,238
767,2	24,495
767,6	18,724
768	21,352
768,5	16,867
768,9	19,838
769,3	19,467
769,8	19,952
770,2	21,438
770,6	22,238
771,1	22,667
771,5	25,381
771,9	23,41
772,4	29,867
772,8	30,838
773,2	32,41
773,7	37,838
774,1	39,324
774,5	40,581
775	41,524
775,4	38,581
775,8	37,524
776,3	31,381
776,7	29,924
777,1	28,01
777,6	26,667
778	26,41
778,4	23,81
778,9	23,181
779,3	28,181
779,7	27,752
780,2	23,924
780,6	26,352
781	30,495
781,5	33,552
781,9	36,381
782,3	34,381
782,8	31,352
783,2	34,61
783,6	30,667
784,1	30,752
784,5	28,838
784,9	26,838
785,4	24,381
785,8	28,095
786,2	28,61
786,7	28,524
787,1	25,895
787,5	22,267
788	20,952
788,4	21,095
788,8	17,895
789,3	20,924
789,7	20,467
790,1	19,81
790,6	22,41
791	28,124
791,4	28,867
791,9	28,438
792,3	25,981
792,7	28,867
793,2	27,21
793,6	26,524
794	18,581
794,5	18,781
794,9	23,438
795,3	22,381
795,8	23,21
796,2	25,381
796,6	24,038
797,1	24,61
797,5	24,552
797,9	20,038
798,4	18,41
798,8	13,781
799,2	11,952
799,7	12,752
800,1	14,781
800,5	15,124
801	16,61
801,4	14,724
801,8	17,524
802,2	19,81
802,7	21,924
803,1	19,124
803,5	19,21
804	18,495
804,4	20,81
804,8	24,324
805,3	22,61
805,7	19,61
806,1	23,124
806,6	24,667
807	24,638
807,4	23,581
807,9	19,581
808,3	19,41
808,7	20,752
809,2	19,752
809,6	16,552
810	13,152
810,4	12,838
810,9	10,21
811,3	9,095
811,7	7,924
812,2	12,295
812,6	12,324
813	15,867
813,5	17,067
813,9	19,21
814,3	16,981
814,8	20,352
815,2	12,181
815,6	9,295
816,1	6,581
816,5	6,21
816,9	9,095
817,3	13,438
817,8	18,838
818,2	18,467
818,6	23,21
819,1	25,21
819,5	27,524
819,9	23,21
820,4	21,467
820,8	10,81
821,2	15,067
821,7	15,038
822,1	11,152
822,5	6,381
822,9	13,095
823,4	13,324
823,8	15,038
824,2	18,324
824,7	18,81
825,1	20,981
825,5	24,867
826	20,895
826,4	22,295
826,8	23,638
827,3	24,867
827,7	22,152
828,1	25,638
828,5	25,467
829	21,781
829,4	24,81
829,8	20,838
830,3	17,01
830,7	18,81
831,1	17,038
831,6	12,781
832	11,61
832,4	9,752
832,8	12,267
833,3	7,41
833,7	8,581
834,1	7,867
834,6	8,61
835	17,238
835,4	17,924
835,8	19,381
836,3	20,267
836,7	15,61
837,1	16,181
837,6	18,552
838	9,924
838,4	4,695
838,9	6,552
839,3	12,181
839,7	13,038
840,1	9,01
840,6	12,095
841	15,81
841,4	16,067
841,9	13,724
842,3	12,638
842,7	9,267
843,1	16,295
843,6	18,381
844	19,524
844,4	24,838
844,9	25,467
845,3	20,552
845,7	25,552
846,2	22,21
846,6	16,467
847	14,21
847,4	8,467
847,9	4,038
848,3	10,781
848,7	6,695
849,2	6,724
849,6	9,495
850	6,667
850,4	7,324
850,9	12,61
851,3	6,924
851,7	12,695
852,2	8,21
852,6	4,152
853	8,952
853,4	16,267
853,9	11,61
854,3	11,467
854,7	5,095
855,2	8,81
855,6	8,124
856	0,895
856,4	-4,476
856,9	-2,333
857,3	-3,448
857,7	2,895
858,2	3,438
858,6	9,267
859	8,724
859,4	7,61
859,9	8,067
860,3	12,038
860,7	10,41
861,1	10,524
861,6	8,324
862	15,724
862,4	20,238
862,9	18,095
863,3	13,61
863,7	7,295
864,1	6,867
864,6	3,638
865	1,495
865,4	-5,59
865,9	-6,762
866,3	-1,476
866,7	4,152
867,1	6,41
867,6	9,238
868	10,495
868,4	10,467
868,8	13,067
869,3	9,61
869,7	4,952
870,1	3,924
870,6	2,124
871	52,124
871,4	52,81
871,8	53,924
872,3	57,41
872,7	62,324
873,1	63,81
873,5	68,095
874	18,21
874,4	19,667
874,8	15,981
875,3	10,695
875,7	9,781
876,1	9,181
876,5	10,01
877	7,895
877,4	8,01
877,8	10,867
878,2	13,81
878,7	17,381
879,1	15,781
879,5	11,895
879,9	12,552
880,4	6,952
880,8	4,41
881,2	6,552
881,7	8,152
882,1	9,01
882,5	6,61
882,9	6,352
883,4	11,695
883,8	15,638
884,2	14,667
884,6	8,495
885,1	8,181
885,5	10,838
885,9	15,41
886,3	16,41
886,8	13,467
887,2	9,981
887,6	7,781
888	3,724
888,5	3,41
888,9	-0,133
889,3	-5,59
889,8	-4,505
890,2	-5,019
890,6	-2,876
891	1,667
891,5	1,981
891,9	4,61
892,3	4,838
892,7	6,552
893,2	10,324
893,6	11,124
894	9,981
894,4	8,867
894,9	5,438
895,3	10,267
895,7	8,924
896,1	4,181
896,6	3,524
897	6,067
897,4	2,581
897,8	3,352
898,3	9,895
898,7	9,924
899,1	16,41
899,5	13,638
900	8,181
900,4	11,752
900,8	13,752
901,2	5,495
901,7	3,124
902,1	3,181
902,5	6,21
902,9	11,952
903,4	14,981
903,8	7,61
904,2	11,781
904,6	8,61
905,1	7,381
905,5	4,41
905,9	-0,276
906,3	-3,99
906,8	3,695
907,2	1,638
907,6	8,352
908	5,952
908,5	8,838
908,9	9,152
909,3	5,981
909,7	2,638
910,2	1,638
910,6	-0,819
911	0,038
911,4	1,895
911,9	1,667
912,3	6,267
912,7	7,21
913,1	2,867
913,6	2,467
914	2,781
914,4	1,495
914,8	2,581
915,3	1,752
915,7	-2,076
916,1	3,181
916,5	2,467
916,9	0,952
917,4	0,467
917,8	-1,076
918,2	-2,305
918,6	1,267
919,1	-2,362
919,5	3,267
919,9	3,324
920,3	3,295
920,8	3,752
921,2	9,067
921,6	9,181
922	8,581
922,5	7,552
922,9	4,181
923,3	5,524
923,7	4,067
924,2	-2,59
924,6	-3,048
925	-2,362
925,4	-7,019
925,8	-2,733
926,3	0,181
926,7	2,781
927,1	3,895
927,5	3,838
928	5,924
928,4	9,467
928,8	13,695
929,2	11,238
929,7	6,152
930,1	9,181
930,5	6,01
930,9	4,238
931,3	8,295
931,8	1,981
932,2	-0,848
932,6	4,095
933	0,352
933,5	3,61
933,9	8,352
934,3	3,61
934,7	7,467
935,2	10,324
935,6	11,981
936	12,152
936,4	14,124
936,8	11,295
937,3	10,81
937,7	5,924
938,1	1,352
938,5	-3,048
939	-0,076
939,4	0,067
939,8	-1,362
940,2	-2,048
940,6	-0,905
941,1	4,81
941,5	8,695
941,9	8,352
942,3	1,895
942,8	7,267
943,2	5,124
943,6	11,295
944	9,181
944,4	3,695
944,9	2,324
945,3	10,724
945,7	7,81
946,1	9,895
946,6	5,324
947	3,838
947,4	3,924
947,8	5,667
948,2	-0,962
948,7	-4,619
949,1	-7,248
949,5	-10,419
949,9	-5,762
950,3	2,01
950,8	4,867
951,2	7,095
951,6	10,524
952	12,524
952,5	14,238
952,9	6,352
953,3	-2,648
953,7	-3,762
954,1	-4,133
954,6	-3,248
955	-1,076
955,4	0,352
955,8	6,181
956,2	8,81
956,7	6,752
957,1	9,495
957,5	9,695
957,9	5,181
958,3	4,21
958,8	4,381
959,2	8,238
959,6	4,067
960	-1,219
960,5	-6,248
960,9	-1,562
961,3	0,267
961,7	-5,562
962,1	-9,133
962,6	-7,876
963	-3,333
963,4	-0,505
963,8	-0,848
964,2	-3,305
964,7	-0,076
965,1	5,21
965,5	10,067
965,9	9,724
966,3	8,952
966,8	6,295
967,2	8,324
967,6	6,867
968	2,724
968,4	0,781
968,9	5,867
969,3	5,667
969,7	6,752
970,1	4,81
970,5	9,238
971	5,781
971,4	7,181
971,8	5,152
972,2	8,152
972,6	7,524
973,1	10,581
973,5	10,467
973,9	13,952
974,3	9,495
974,7	0,21
975,2	-2,962
975,6	-4,676
976	-4,19
976,4	-6,676
976,8	-6,019
977,3	-3,19
977,7	3,438
978,1	0,152
978,5	4,495
978,9	0,41
979,4	0,238
979,8	2,61
980,2	-3,419
980,6	-2,619
981	1,724
981,5	0,438
981,9	3,038
982,3	5,295
982,7	0,21
983,1	5,067
983,6	7,038
984	10,867
984,4	11,21
984,8	13,552
985,2	13,438
985,6	13,695
986,1	16,067
986,5	8,495
986,9	6,61
987,3	3,495
987,7	1,61
988,2	1,295
988,6	4,124
989	5,095
989,4	7,552
989,8	3,01
990,3	6,038
990,7	4,752
991,1	0,867
991,5	2,21
991,9	0,21
992,3	0,61
992,8	7,295
993,2	7,324
993,6	6,095
994	8,152
994,4	5,952
994,9	5,467
995,3	9,552
995,7	4,41
996,1	-0,962
996,5	-1,105
996,9	-3,162
997,4	-2,476
997,8	-2,819
998,2	-7,133
998,6	-3,79
999	-1,362
999,5	-0,333
999,9	1,267
1000,3	3,552
1000,7	2,781
1001,1	1,981
1001,5	-3,219
1002	-1,105
1002,4	-1,19
1002,8	0,667
1003,2	-3,705
1003,6	0,295
1004	2,867
1004,5	5,152
1004,9	1,467
1005,3	-1,39
1005,7	-2,562
1006,1	-1,99
1006,6	-3,276
1007	-6,562
1007,4	-5,019
1007,8	-2,79
1008,2	1,267
1008,6	0,895
1009,1	-4,276
1009,5	-0,533
1009,9	5,181
1010,3	3,238
1010,7	7,295
1011,1	8,495
1011,6	5,952
1012	10,381
1012,4	5,524
1012,8	-0,733
1013,2	0,581
1013,6	-2,305
1014,1	-4,79
1014,5	-1,819
1014,9	-0,59
1015,3	-1,99
1015,7	1,981
1016,1	1,495
1016,6	4,867
1017	6,124
1017,4	0,324
1017,8	-0,076
1018,2	-1,676
1018,6	2,41
1019,1	0,381
1019,5	-0,99
1019,9	6,867
1020,3	9,267
1020,7	11,095
1021,1	16,752
1021,6	6,981
1022	8,724
1022,4	10,552
1022,8	3,01
1023,2	4,095
1023,6	4,724
1024,1	4,695
1024,5	8,467
1024,9	13,638
1025,3	9,067
1025,7	10,524
1026,1	16,181
1026,6	16,752
1027	11,552
1027,4	12,381
1027,8	6,324
1028,2	8,381
1028,6	10,41
1029	7,381
1029,5	7,724
1029,9	9,467
1030,3	13,21
1030,7	15,61
1031,1	10,638
1031,5	2,495
1032	1,695
1032,4	-2,448
1032,8	-2,19
1033,2	-6,19
1033,6	-3,105
1034	-0,476
1034,4	5,952
1034,9	2,41
1035,3	9,381
1035,7	11,238
1036,1	8,895
1036,5	1,067
1036,9	2,952
1037,4	0,867
1037,8	5,495
1038,2	-4,933
1038,6	-8,133
1039	-5,762
1039,4	0,667
1039,8	-2,333
1040,3	-6,105
1040,7	-7,876
1041,1	-0,533
1041,5	-0,59
1041,9	-4,676
1042,3	-10,619
1042,7	-9,076
1043,2	-5,419
1043,6	-3,133
1044	-6,79
1044,4	-8,619
1044,8	-7,476
1045,2	-4,305
1045,6	-2,762
1046,1	0,952
1046,5	3,81
1046,9	3,324
1047,3	5,181
1047,7	7,095
1048,1	5,752
1048,5	5,638
1049	4,067
1049,4	-1,19
1049,8	1,667
1050,2	1,238
1050,6	5,438
1051	8,638
1051,4	6,438
1051,9	5,667
1052,3	4,067
1052,7	4,581
1053,1	8,952
1053,5	5,581
1053,9	3,695
1054,3	1,867
1054,8	5,724
1055,2	8,124
1055,6	6,867
1056	5,01
1056,4	6,581
1056,8	8,724
1057,2	14,381
1057,6	7,067
1058,1	9,295
1058,5	8,867
1058,9	9,324
1059,3	13,352
1059,7	8,838
1060,1	6,324
1060,5	4,724
1061	1,524
1061,4	7,238
1061,8	2,638
1062,2	-3,705
1062,6	-2,162
1063	-3,248
1063,4	1,467
1063,8	3,124
1064,3	-5,048
1064,7	-2,733
1065,1	-1,476
1065,5	-0,733
1065,9	0,924
1066,3	-2,59
1066,7	-3,133
1067,1	1,952
1067,6	2,495
1068	4,495
1068,4	4,524
1068,8	5,438
1069,2	8,781
1069,6	10,867
1070	11,467
1070,4	12,324
1070,9	11,152
1071,3	11,038
1071,7	14,152
1072,1	14,524
1072,5	14,095
1072,9	15,895
1073,3	15,01
1073,7	12,267
1074,2	15,181
1074,6	9,638
1075	9,638
1075,4	8,667
1075,8	8,495
1076,2	7,152
1076,6	9,267
1077	2,781
1077,5	5,724
1077,9	4,41
1078,3	3,01
1078,7	1,638
1079,1	2,81
1079,5	-0,819
1079,9	7,01
1080,3	5,067
1080,7	9,524
1081,2	10,038
1081,6	9,152
1082	9,067
1082,4	12,781
1082,8	10,895
1083,2	8,324
1083,6	3,952
1084	-1,419
1084,5	-4,248
1084,9	-5,162
1085,3	-5,733
1085,7	-10,933
1086,1	-11,505
1086,5	-10,076
1086,9	-5,762
1087,3	-3,105
1087,7	2,867
1088,2	1,267
1088,6	1,267
1089	2,667
1089,4	3,152
1089,8	5,238
1090,2	6,638
1090,6	-0,076
1091	3,324
1091,4	8,352
1091,9	12,124
1092,3	8,695
1092,7	7,924
1093,1	3,524
1093,5	3,352
1093,9	5,295
1094,3	2,124
1094,7	1,581
1095,1	2,295
1095,5	3,581
1096	0,438
1096,4	4,952
1096,8	-0,305
1097,2	3,267
1097,6	1,552
1098	0,952
1098,4	-0,076
1098,8	4,695
1099,2	1,267
1099,6	4,981
1100,1	8,01
1100,5	9,124
1100,9	7,81
1101,3	5,667
1101,7	6,524
1102,1	6,952
1102,5	5,581
1102,9	-0,448
1103,3	-4,048
1103,7	-1,733
1104,2	1,724
1104,6	2,61
1105	4,524
1105,4	2,238
1105,8	3,438
1106,2	6,124
1106,6	5,181
1107	3,152
1107,4	0,4
1107,8	-1,493
1108,3	0,567
