Data from Subt2_268.txt Node
Date: Sat Aug 26 19:03:18 MSK 2023
User: vat
Spectrometer: MAYP114033
Trigger mode: 0
Integration Time (sec): 1,000000E0
Scans to average: 5
Electric dark correction enabled: true
Nonlinearity correction enabled: false
Boxcar width: 3
XAxis mode: Wavelengths
Number of Pixels in Spectrum: 2068
>>>>>Begin Spectral Data<<<<<
199,4	-1,133
199,9	0,847
200,4	-1,4
200,8	-1,948
201,3	-2,29
201,8	1,424
202,2	-0,519
202,7	6,338
203,2	3,91
203,6	4,167
204,1	5,338
204,6	5,91
205	4,681
205,5	5,081
206	2,281
206,4	6,024
206,9	9,995
207,4	11,538
207,8	9,624
208,3	6,51
208,8	8,224
209,2	9,281
209,7	9,252
210,2	4,338
210,6	4,052
211,1	5,881
211,5	5,367
212	4,452
212,5	1,538
212,9	-3,005
213,4	1,024
213,9	0,167
214,3	-1,005
214,8	2,281
215,3	3,767
215,7	4,31
216,2	9,567
216,7	9,052
217,1	5,824
217,6	13,338
218,1	9,252
218,5	4,738
219	2,967
219,5	1,367
219,9	-1,662
220,4	9,938
220,9	8,052
221,3	9,138
221,8	15,395
222,3	17,767
222,7	19,167
223,2	20,481
223,6	13,71
224,1	8,71
224,6	14,081
225	7,91
225,5	1,167
226	0,367
226,4	1,51
226,9	0,567
227,4	2,938
227,8	-6,576
228,3	-2,49
228,8	-1,205
229,2	-0,919
229,7	-1,319
230,2	-1,776
230,6	0,252
231,1	12,881
231,5	14,395
232	18,538
232,5	15,652
232,9	15,995
233,4	18,052
233,9	15,481
234,3	9,538
234,8	6,738
235,3	10,567
235,7	16,538
236,2	16,967
236,7	15,481
237,1	18,281
237,6	15,767
238,1	16,51
238,5	7,852
239	2,224
239,4	4,31
239,9	2,081
240,4	-2,262
240,8	2,252
241,3	-5,519
241,8	-2,576
242,2	-3,319
242,7	-8,262
243,2	-7,49
243,6	-10,376
244,1	-9,405
244,6	-1,262
245	-4,576
245,5	-2,69
245,9	-4,29
246,4	0,795
246,9	6,567
247,3	5,824
247,8	5,395
248,3	15,652
248,7	15,424
249,2	21,538
249,7	15,881
250,1	18,567
250,6	14,338
251	16,738
251,5	9,595
252	8,824
252,4	9,395
252,9	8,195
253,4	5,052
253,8	4,852
254,3	4,681
254,8	8,424
255,2	6,938
255,7	3,195
256,1	7,938
256,6	8,938
257,1	10,367
257,5	6,224
258	2,71
258,5	6,224
258,9	5,252
259,4	1,081
259,9	1,767
260,3	-1,919
260,8	-2,948
261,2	-0,433
261,7	-0,062
262,2	0,195
262,6	1,624
263,1	-1,805
263,6	2,367
264	7,395
264,5	9,538
264,9	5,852
265,4	8,31
265,9	7,795
266,3	11,91
266,8	9,738
267,3	10,681
267,7	6,224
268,2	7,938
268,7	7,995
269,1	7,995
269,6	4,91
270	9,881
270,5	3,31
271	3,595
271,4	6,51
271,9	0,481
272,4	3,452
272,8	3,681
273,3	2,424
273,7	6,452
274,2	6,624
274,7	6,167
275,1	14,71
275,6	9,167
276,1	6,824
276,5	9,252
277	6,738
277,4	6,795
277,9	5,31
278,4	3,938
278,8	10,852
279,3	15,281
279,8	12,652
280,2	14,395
280,7	14,452
281,1	10,938
281,6	12,967
282,1	8,452
282,5	3,281
283	2,452
283,4	2,624
283,9	5,738
284,4	11,652
284,8	7,71
285,3	4,938
285,8	8,852
286,2	6,624
286,7	7,11
287,1	2,595
287,6	1,681
288,1	-0,348
288,5	5,138
289	5,681
289,5	7,881
289,9	6,824
290,4	10,224
290,8	9,824
291,3	15,452
291,8	16,51
292,2	14,595
292,7	19,252
293,1	19,224
293,6	18,338
294,1	17,481
294,5	16,024
295	14,795
295,5	12,938
295,9	6,338
296,4	5,881
296,8	4,795
297,3	5,938
297,8	-0,233
298,2	-6,833
298,7	-3,633
299,1	0,11
299,6	-1,976
300,1	0,395
300,5	-2,719
301	3,138
301,5	8,424
301,9	5,938
302,4	-1,062
302,8	2,081
303,3	-2,462
303,8	-3,919
304,2	-6,176
304,7	-5,833
305,1	-9,433
305,6	-3,319
306,1	2,167
306,5	4,367
307	10,252
307,4	12,738
307,9	11,624
308,4	16,167
308,8	10,738
309,3	4,567
309,8	6,224
310,2	7,252
310,7	6,71
311,1	6,567
311,6	6,71
312,1	14,795
312,5	20,138
313	16,395
313,4	10,395
313,9	10,481
314,4	11,938
314,8	8,681
315,3	4,595
315,7	0,367
316,2	2,281
316,7	4,024
317,1	7,338
317,6	5,652
318	8,567
318,5	8,795
319	9,538
319,4	12,452
319,9	18,167
320,3	17,624
320,8	18,71
321,3	20,51
321,7	20,795
322,2	19,395
322,6	18,624
323,1	12,652
323,6	6,31
324	4,538
324,5	-0,833
324,9	2,795
325,4	0,995
325,9	2,138
326,3	2,567
326,8	6,738
327,2	5,795
327,7	6,052
328,2	3,224
328,6	7,652
329,1	-0,348
329,5	-0,09
330	-2,49
330,5	3,281
330,9	7,938
331,4	3,91
331,8	-0,119
332,3	7,167
332,8	9,767
333,2	11,31
333,7	12,31
334,1	9,338
334,6	8,795
335,1	6,167
335,5	7,281
336	4,881
336,4	4,91
336,9	4,081
337,4	7,224
337,8	8,91
338,3	13,51
338,7	13,338
339,2	13,71
339,7	17,967
340,1	15,824
340,6	11,767
341	11,738
341,5	11,995
342	9,624
342,4	5,538
342,9	-3,548
343,3	-3,233
343,8	-0,376
344,2	3,281
344,7	8,081
345,2	6,767
345,6	11,967
346,1	20,367
346,5	17,91
347	16,395
347,5	16,195
347,9	13,652
348,4	16,338
348,8	12,081
349,3	5,71
349,8	8,738
350,2	14,281
350,7	11,281
351,1	12,31
351,6	13,738
352	21,538
352,5	30,367
353	34,338
353,4	37,138
353,9	46,224
354,3	48,567
354,8	56,338
355,3	71,31
355,7	85,681
356,2	103,024
356,6	120,195
357,1	142,595
357,5	170,938
358	199,91
358,5	224,195
358,9	253,852
359,4	291,452
359,8	329,481
360,3	380,71
360,8	428,052
361,2	484,252
361,7	549,481
362,1	621,995
362,6	697,71
363	782,51
363,5	866,052
364	970,281
364,4	1064,424
364,9	1160,138
365,3	1252,252
365,8	1339,71
366,3	1422,538
366,7	1494,452
367,2	1557,738
367,6	1614,11
368,1	1654,938
368,5	1683,452
369	1697,281
369,5	1704,11
369,9	1694,31
370,4	1670,224
370,8	1635,252
371,3	1587,452
371,7	1530,338
372,2	1467,795
372,7	1393,452
373,1	1317,481
373,6	1232,567
374	1152,481
374,5	1070,938
374,9	998,138
375,4	926,081
375,9	858,51
376,3	792,51
376,8	732,567
377,2	677,224
377,7	627,138
378,2	575,11
378,6	526,595
379,1	480,938
379,5	443,938
380	409,795
380,4	372,624
380,9	340,138
381,4	311,681
381,8	286,91
382,3	270,967
382,7	252,51
383,2	234,938
383,6	216,652
384,1	204,824
384,6	189,738
385	178,824
385,5	165,624
385,9	151,081
386,4	138,881
386,8	133,281
387,3	120,452
387,7	115,424
388,2	110,024
388,7	99,51
389,1	97,624
389,6	93,967
390	87,367
390,5	88,367
390,9	87,252
391,4	81,338
391,9	78,91
392,3	71,624
392,8	62,71
393,2	60,11
393,7	56,624
394,1	50,738
394,6	44,024
395,1	43,91
395,5	41,481
396	41,995
396,4	39,967
396,9	35,967
397,3	37,852
397,8	45,51
398,2	43,338
398,7	44,138
399,2	45,081
399,6	45,624
400,1	42,71
400,5	36,167
401	28,281
401,4	25,11
401,9	27,881
402,4	28,71
402,8	21,481
403,3	27,767
403,7	28,252
404,2	37,51
404,6	40,738
405,1	36,024
405,5	33,31
406	38,681
406,5	36,567
406,9	40,852
407,4	33,424
407,8	35,395
408,3	38,624
408,7	39,567
409,2	45,224
409,6	45,795
410,1	44,538
410,6	49,138
411	50,681
411,5	51,31
411,9	51,967
412,4	52,795
412,8	54,538
413,3	57,767
413,7	61,024
414,2	58,595
414,7	62,71
415,1	73,367
415,6	72,595
416	75,024
416,5	73,91
416,9	71,081
417,4	76,881
417,8	80,91
418,3	78,081
418,8	79,824
419,2	83,567
419,7	87,081
420,1	93,852
420,6	93,938
421	92,024
421,5	93,91
421,9	95,995
422,4	95,424
422,8	97,481
423,3	93,595
423,8	88,51
424,2	85,024
424,7	85,995
425,1	85,681
425,6	83,452
426	77,995
426,5	79,767
426,9	83,881
427,4	85,624
427,9	79,024
428,3	81,11
428,8	80,852
429,2	79,824
429,7	78,281
430,1	78,224
430,6	76,881
431	77,138
431,5	74,995
431,9	70,395
432,4	74,052
432,8	76,967
433,3	79,881
433,8	80,224
434,2	81,624
434,7	82,195
435,1	89,052
435,6	91,424
436	88,967
436,5	93,71
436,9	94,852
437,4	98,024
437,8	103,195
438,3	102,881
438,8	104,652
439,2	111,224
439,7	112,967
440,1	120,767
440,6	129,424
441	127,224
441,5	135,881
441,9	140,91
442,4	140,595
442,8	141,538
443,3	144,081
443,7	149,681
444,2	160,31
444,7	165,624
445,1	173,138
445,6	182,138
446	188,538
446,5	192,452
446,9	190,395
447,4	195,767
447,8	201,424
448,3	209,195
448,7	214,652
449,2	220,567
449,6	230,367
450,1	238,852
450,6	252,481
451	257,252
451,5	262,138
451,9	276,567
452,4	291,367
452,8	299,567
453,3	315,652
453,7	319,538
454,2	334,881
454,6	347,024
455,1	352,595
455,5	356,967
456	375,738
456,4	380,338
456,9	391,138
457,3	404,081
457,8	415,91
458,3	431,938
458,7	447,51
459,2	457,881
459,6	471,881
460,1	487,452
460,5	495,967
461	513,252
461,4	523,195
461,9	536,31
462,3	551,824
462,8	572,138
463,2	587,081
463,7	606,738
464,1	626,138
464,6	646,31
465	669,395
465,5	685,195
466	704,052
466,4	719,424
466,9	737,024
467,3	750,967
467,8	769,995
468,2	783,91
468,7	801,938
469,1	819,71
469,6	838,481
470	852,167
470,5	871,481
470,9	888,681
471,4	905,938
471,8	927,652
472,3	943,081
472,7	965,452
473,2	983,224
473,6	998,167
474,1	1016,538
474,5	1036,652
475	1054,71
475,4	1075,91
475,9	1096,367
476,4	1118,224
476,8	1140,31
477,3	1159,024
477,7	1181,538
478,2	1196,624
478,6	1210,31
479,1	1220,595
479,5	1239,338
480	1256,195
480,4	1279,081
480,9	1293,338
481,3	1308,91
481,8	1328,938
482,2	1340,195
482,7	1354,995
483,1	1369,51
483,6	1376,395
484	1386,367
484,5	1399,338
484,9	1407,452
485,4	1426,795
485,8	1439,224
486,3	1453,11
486,7	1464,881
487,2	1479,252
487,6	1494,138
488,1	1503,595
488,5	1518,167
489	1530,595
489,4	1541,11
489,9	1550,624
490,4	1562,138
490,8	1569,024
491,3	1584,31
491,7	1589,767
492,2	1603,424
492,6	1611,881
493,1	1623,681
493,5	1627,11
494	1627,738
494,4	1639,538
494,9	1648,852
495,3	1651,681
495,8	1652,624
496,2	1667,424
496,7	1672,195
497,1	1690,052
497,6	1693,167
498	1703,795
498,5	1713,424
498,9	1724,71
499,4	1723,71
499,8	1738,224
500,3	1748,51
500,7	1755,567
501,2	1754,71
501,6	1755,31
502,1	1760,652
502,5	1767,052
503	1772,252
503,4	1772,024
503,9	1773,538
504,3	1785,681
504,8	1790,138
505,2	1794,567
505,7	1795,481
506,1	1801,224
506,6	1801,11
507	1812,081
507,5	1812,795
507,9	1816,795
508,4	1819,481
508,8	1826,452
509,3	1825,738
509,7	1836,11
510,2	1835,081
510,6	1833,367
511,1	1840,595
511,5	1847,91
512	1853,424
512,4	1863,938
512,9	1869,081
513,3	1879,081
513,8	1888,167
514,2	1891,738
514,7	1894,367
515,1	1898,595
515,6	1895,51
516	1900,252
516,5	1900,967
516,9	1906,624
517,4	1914,31
517,8	1919,995
518,3	1924,767
518,7	1929,71
519,2	1928,595
519,6	1933,795
520,1	1939,938
520,5	1940,767
521	1943,538
521,4	1952,452
521,9	1962,767
522,3	1969,395
522,8	1970,881
523,2	1976,567
523,7	1986,424
524,1	1989,938
524,6	1990,367
525	1992,024
525,5	1996,824
525,9	2007,681
526,4	2008,481
526,8	2011,995
527,3	2025,281
527,7	2036,052
528,2	2047,967
528,6	2050,367
529,1	2056,881
529,5	2073,424
530	2082,767
530,4	2083,195
530,9	2088,852
531,3	2091,824
531,8	2105,767
532,2	2116,424
532,6	2117,252
533,1	2122,967
533,5	2135,538
534	2142,195
534,4	2148,824
534,9	2155,452
535,3	2155,195
535,8	2162,824
536,2	2169,795
536,7	2179,881
537,1	2184,738
537,6	2189,481
538	2196,852
538,5	2209,167
538,9	2215,31
539,4	2219,252
539,8	2219,91
540,3	2230,395
540,7	2239,195
541,2	2249,795
541,6	2253,138
542,1	2263,824
542,5	2273,738
543	2283,367
543,4	2283,195
543,9	2293,938
544,3	2302,881
544,8	2310,081
545,2	2311,481
545,7	2315,938
546,1	2326,252
546,5	2335,795
547	2342,538
547,4	2344,081
547,9	2347,395
548,3	2356,167
548,8	2364,824
549,2	2367,71
549,7	2377,481
550,1	2383,252
550,6	2387,167
551	2395,967
551,5	2403,767
551,9	2408,224
552,4	2412,452
552,8	2421,395
553,3	2422,91
553,7	2429,624
554,2	2442,967
554,6	2449,224
555,1	2463,567
555,5	2466,767
555,9	2467,138
556,4	2473,91
556,8	2485,167
557,3	2488,624
557,7	2494,51
558,2	2491,852
558,6	2504,938
559,1	2511,624
559,5	2519,767
560	2519,767
560,4	2522,567
560,9	2523,852
561,3	2529,652
561,8	2529,824
562,2	2536,967
562,7	2541,481
563,1	2546,51
563,6	2544,624
564	2548,681
564,4	2554,224
564,9	2554,738
565,3	2550,281
565,8	2554,538
566,2	2558,138
566,7	2568,138
567,1	2573,395
567,6	2573,252
568	2575,138
568,5	2579,081
568,9	2575,31
569,4	2574,338
569,8	2578,367
570,3	2574,024
570,7	2569,938
571,1	2578,081
571,6	2584,167
572	2596,31
572,5	2599,995
572,9	2597,824
573,4	2604,081
573,8	2613,452
574,3	2608,995
574,7	2605,31
575,2	2599,995
575,6	2599,852
576,1	2598,081
576,5	2600,138
576,9	2594,652
577,4	2596,938
577,8	2595,967
578,3	2591,767
578,7	2590,681
579,2	2591,452
579,6	2586,195
580,1	2587,738
580,5	2584,767
581	2589,938
581,4	2585,824
581,9	2581,281
582,3	2579,395
582,7	2578,91
583,2	2575,024
583,6	2567,824
584,1	2559,138
584,5	2559,052
585	2555,795
585,4	2547,11
585,9	2546,567
586,3	2550,852
586,8	2548,824
587,2	2546,881
587,6	2547,967
588,1	2552,967
588,5	2551,31
589	2548,967
589,4	2533,167
589,9	2533,938
590,3	2530,167
590,8	2520,024
591,2	2516,71
591,7	2516,795
592,1	2501,967
592,5	2508,138
593	2499,052
593,4	2488,367
593,9	2486,052
594,3	2477,538
594,8	2465,595
595,2	2469,138
595,7	2462,652
596,1	2459,681
596,6	2464,052
597	2460,11
597,4	2451,852
597,9	2453,681
598,3	2450,281
598,8	2444,795
599,2	2450,11
599,7	2444,624
600,1	2436,224
600,6	2436,338
601	2436,31
601,4	2437,424
601,9	2435,624
602,3	2421,795
602,8	2415,167
603,2	2416,624
603,7	2410,195
604,1	2395,852
604,6	2378,681
605	2366,595
605,4	2364,052
605,9	2352,624
606,3	2341,281
606,8	2328,138
607,2	2318,938
607,7	2311,11
608,1	2311,852
608,6	2308,652
609	2308,795
609,4	2305,538
609,9	2305,51
610,3	2303,11
610,8	2302,767
611,2	2290,852
611,7	2280,91
612,1	2272,652
612,6	2266,795
613	2259,11
613,4	2249,195
613,9	2240,795
614,3	2227,624
614,8	2219,824
615,2	2209,567
615,7	2198,967
616,1	2187,338
616,6	2178,995
617	2164,252
617,4	2159,852
617,9	2153,224
618,3	2146,595
618,8	2144,595
619,2	2140,367
619,7	2136,052
620,1	2132,167
620,5	2125,052
621	2111,652
621,4	2108,281
621,9	2096,738
622,3	2084,595
622,8	2074,167
623,2	2064,71
623,6	2054,138
624,1	2042,424
624,5	2028,71
625	2020,967
625,4	2015,338
625,9	2004,738
626,3	1996,652
626,8	1985,424
627,2	1983,567
627,6	1964,281
628,1	1949,138
628,5	1935,738
629	1926,967
629,4	1916,967
629,9	1911,195
630,3	1895,91
630,7	1890,852
631,2	1878,538
631,6	1868,681
632,1	1860,852
632,5	1848,91
633	1836,681
633,4	1830,995
633,8	1826,91
634,3	1818,452
634,7	1808,367
635,2	1792,252
635,6	1786,624
636,1	1779,738
636,5	1768,252
636,9	1757,738
637,4	1752,652
637,8	1740,024
638,3	1733,567
638,7	1717,852
639,2	1704,738
639,6	1699,424
640	1688,281
640,5	1677,852
640,9	1670,481
641,4	1663,595
641,8	1658,31
642,2	1651,052
642,7	1646,281
643,1	1641,081
643,6	1633,91
644	1626,824
644,5	1623,081
644,9	1619,852
645,3	1617,51
645,8	1600,081
646,2	1594,224
646,7	1584,824
647,1	1576,881
647,6	1562,595
648	1552,624
648,4	1537,824
648,9	1533,538
649,3	1519,052
649,8	1512,538
650,2	1504,481
650,6	1502,31
651,1	1495,338
651,5	1493,138
652	1484,252
652,4	1475,424
652,9	1464,652
653,3	1455,967
653,7	1443,052
654,2	1434,624
654,6	1420,395
655,1	1414,052
655,5	1413,681
655,9	1405,395
656,4	1401,395
656,8	1395,024
657,3	1383,51
657,7	1382,252
658,2	1379,452
658,6	1364,824
659	1355,938
659,5	1343,338
659,9	1335,424
660,4	1329,138
660,8	1315,71
661,2	1300,052
661,7	1294,881
662,1	1292,31
662,6	1288,681
663	1276,767
663,4	1267,652
663,9	1261,967
664,3	1250,738
664,8	1237,624
665,2	1224,281
665,6	1213,167
666,1	1212,367
666,5	1202,681
667	1189,681
667,4	1185,51
667,9	1181,11
668,3	1175,767
668,7	1169,224
669,2	1161,481
669,6	1159,767
670,1	1159,024
670,5	1145,91
670,9	1138,795
671,4	1128,71
671,8	1122,338
672,3	1113,852
672,7	1103,424
673,1	1089,252
673,6	1085,081
674	1083,281
674,5	1078,652
674,9	1063,767
675,3	1053,824
675,8	1046,738
676,2	1043,567
676,7	1037,424
677,1	1027,995
677,5	1019,138
678	1019,852
678,4	1014,338
678,9	1004,252
679,3	999,081
679,7	991,995
680,2	974,881
680,6	965,395
681,1	957,967
681,5	952,481
681,9	947,852
682,4	940,395
682,8	938,31
683,3	940,652
683,7	941,052
684,1	932,481
684,6	923,652
685	919,995
685,5	917,767
685,9	906,024
686,3	896,31
686,8	887,567
687,2	885,681
687,7	876,052
688,1	868,024
688,5	860,367
689	857,567
689,4	853,652
689,9	842,281
690,3	830,567
690,7	832,224
691,2	831,138
691,6	823,452
692	815,852
692,5	814,11
692,9	812,452
693,4	810,11
693,8	802,881
694,2	791,938
694,7	785,51
695,1	779,624
695,6	773,795
696	770,767
696,4	765,795
696,9	753,795
697,3	749,024
697,8	744,167
698,2	738,824
698,6	731,71
699,1	728,538
699,5	728,71
699,9	727,424
700,4	722,367
700,8	718,138
701,3	715,938
701,7	707,481
702,1	702,195
702,6	693,91
703	690,452
703,5	685,252
703,9	680,795
704,3	676,51
704,8	675,31
705,2	666,995
705,6	662,767
706,1	659,91
706,5	655,995
707	655,91
707,4	654,824
707,8	650,138
708,3	643,281
708,7	636,995
709,2	632,024
709,6	625,424
710	622,567
710,5	610,767
710,9	605,71
711,3	605,024
711,8	604,795
712,2	599,252
712,7	593,652
713,1	585,252
713,5	585,967
714	585,481
714,4	583,681
714,8	577,281
715,3	575,11
715,7	577,195
716,2	567,852
716,6	563,338
717	553,91
717,5	547,852
717,9	544,652
718,3	535,824
718,8	530,51
719,2	527,824
719,7	523,252
720,1	518,967
720,5	515,252
721	508,395
721,4	506,824
721,8	510,195
722,3	503,681
722,7	503,795
723,2	500,052
723,6	488,938
724	486,71
724,5	481,252
724,9	469,224
725,3	467,538
725,8	454,767
726,2	452,738
726,7	458,995
727,1	458,824
727,5	459,652
728	456,624
728,4	457,481
728,8	458,767
729,3	453,795
729,7	445,71
730,1	440,11
730,6	437,624
731	432,824
731,5	429,052
731,9	427,624
732,3	429,652
732,8	430,51
733,2	424,138
733,6	417,795
734,1	419,052
734,5	417,081
734,9	416,481
735,4	413,338
735,8	409,052
736,3	412,252
736,7	410,024
737,1	406,595
737,6	404,052
738	399,167
738,4	392,395
738,9	393,31
739,3	391,481
739,7	394,138
740,2	389,338
740,6	388,51
741,1	388,538
741,5	386,567
741,9	384,138
742,4	381,624
742,8	378,167
743,2	376,567
743,7	370,052
744,1	361,281
744,5	357,395
745	352,224
745,4	342,767
745,8	338,052
746,3	332,567
746,7	333,024
747,2	332,11
747,6	335,595
748	338,281
748,5	342,11
748,9	336,11
749,3	335,167
749,8	330,538
750,2	328,081
750,6	325,767
751,1	320,938
751,5	317,338
751,9	321,052
752,4	325,424
752,8	326,538
753,3	323,567
753,7	323,252
754,1	315,624
754,6	312,281
755	304,281
755,4	295,195
755,9	291,938
756,3	294,795
756,7	292,024
757,2	291,595
757,6	292,281
758	293,195
758,5	291,624
758,9	289,481
759,3	286,11
759,8	280,052
760,2	279,624
760,6	271,91
761,1	269,652
761,5	268,395
761,9	265,11
762,4	260,71
762,8	258,51
763,3	256,852
763,7	260,167
764,1	262,081
764,6	262,281
765	260,824
765,4	260,252
765,9	260,967
766,3	260,281
766,7	257,052
767,2	251,395
767,6	252,481
768	252,938
768,5	251,681
768,9	249,281
769,3	247,224
769,8	248,481
770,2	253,052
770,6	249,11
771,1	245,71
771,5	246,824
771,9	249,338
772,4	246,31
772,8	240,452
773,2	237,995
773,7	235,51
774,1	234,91
774,5	223,852
775	218,624
775,4	221,224
775,8	216,71
776,3	215,024
776,7	214,624
777,1	210,367
777,6	216,71
778	219,481
778,4	212,91
778,9	216,167
779,3	209,967
779,7	205,567
780,2	208,795
780,6	207,252
781	201,91
781,5	201,71
781,9	199,452
782,3	197,31
782,8	199,51
783,2	193,71
783,6	194,081
784,1	189,852
784,5	187,252
784,9	185,367
785,4	186,281
785,8	186,367
786,2	187,367
786,7	184,567
787,1	185,824
787,5	185,767
788	186,11
788,4	187,852
788,8	182,795
789,3	179,938
789,7	181,367
790,1	180,624
790,6	182,338
791	174,995
791,4	172,681
791,9	170,881
792,3	165,424
792,7	164,452
793,2	157,795
793,6	156,795
794	161,224
794,5	157,338
794,9	159,852
795,3	166,967
795,8	162,852
796,2	168,081
796,6	167,31
797,1	166,824
797,5	163,481
797,9	161,224
798,4	158,281
798,8	156,338
799,2	156,338
799,7	154,624
800,1	150,481
800,5	154,424
801	154,652
801,4	150,167
801,8	145,624
802,2	139,081
802,7	134,624
803,1	135,595
803,5	134,024
804	129,31
804,4	131,052
804,8	135,367
805,3	137,91
805,7	138,538
806,1	135,338
806,6	134,538
807	138,281
807,4	137,167
807,9	131,795
808,3	126,824
808,7	125,367
809,2	127,167
809,6	130,91
810	122,738
810,4	118,595
810,9	118,252
811,3	123,91
811,7	123,595
812,2	124,995
812,6	116,452
813	119,852
813,5	125,652
813,9	124,424
814,3	119,338
814,8	116,281
815,2	108,824
815,6	110,367
816,1	110,281
816,5	106,681
816,9	107,481
817,3	104,195
817,8	105,767
818,2	109,624
818,6	107,224
819,1	106,71
819,5	103,167
819,9	104,71
820,4	110,567
820,8	105,967
821,2	102,681
821,7	104,452
822,1	107,681
822,5	113,138
822,9	109,452
823,4	106,081
823,8	109,081
824,2	113,024
824,7	110,538
825,1	102,052
825,5	93,681
826	90,395
826,4	86,252
826,8	83,052
827,3	82,052
827,7	78,138
828,1	82,881
828,5	81,11
829	80,252
829,4	85,881
829,8	78,281
830,3	76,538
830,7	74,052
831,1	73,795
831,6	78,11
832	81,081
832,4	74,652
832,8	82,624
833,3	80,452
833,7	82,138
834,1	79,767
834,6	80,567
835	78,852
835,4	82,51
835,8	77,538
836,3	74,938
836,7	75,595
837,1	70,938
837,6	70,767
838	70,91
838,4	66,652
838,9	69,795
839,3	70,138
839,7	68,424
840,1	63,738
840,6	61,652
841	61,824
841,4	64,824
841,9	66,081
842,3	66,795
842,7	68,852
843,1	75,51
843,6	76,567
844	75,795
844,4	75,195
844,9	73,424
845,3	72,567
845,7	71,11
846,2	68,081
846,6	60,795
847	64,052
847,4	64,624
847,9	66,767
848,3	65,681
848,7	64,138
849,2	67,281
849,6	67,567
850	66,481
850,4	61,452
850,9	59,767
851,3	60,281
851,7	62,252
852,2	59,967
852,6	64,024
853	63,252
853,4	64,824
853,9	61,824
854,3	61,51
854,7	61,167
855,2	58,967
855,6	57,31
856	50,31
856,4	47,195
856,9	46,795
857,3	47,281
857,7	48,881
858,2	53,938
858,6	54,967
859	57,91
859,4	60,481
859,9	62,452
860,3	60,281
860,7	58,652
861,1	52,824
861,6	51,652
862	53,852
862,4	50,51
862,9	48,995
863,3	48,91
863,7	47,281
864,1	52,195
864,6	50,624
865	50,195
865,4	53,138
865,9	56,052
866,3	50,367
866,7	48,852
867,1	43,252
867,6	43,567
868	39,052
868,4	39,595
868,8	36,195
869,3	42,424
869,7	48,824
870,1	43,824
870,6	42,224
871	44,367
871,4	44,767
871,8	41,881
872,3	39,481
872,7	36,738
873,1	45,481
873,5	44,795
874	40,824
874,4	37,567
874,8	38,052
875,3	40,081
875,7	37,538
876,1	35,395
876,5	35,252
877	36,024
877,4	33,11
877,8	35,338
878,2	37,51
878,7	37,167
879,1	37,681
879,5	40,31
879,9	41,052
880,4	41,852
880,8	41,452
881,2	36,481
881,7	34,71
882,1	31,195
882,5	27,195
882,9	29,738
883,4	33,024
883,8	32,167
884,2	32,167
884,6	29,967
885,1	33,881
885,5	38,424
885,9	34,452
886,3	34,281
886,8	33,424
887,2	29,367
887,6	31,11
888	28,281
888,5	23,31
888,9	21,91
889,3	16,852
889,8	19,167
890,2	23,224
890,6	17,995
891	18,31
891,5	19,824
891,9	22,395
892,3	25,11
892,7	21,795
893,2	22,51
893,6	28,252
894	30,967
894,4	27,395
894,9	32,224
895,3	35,138
895,7	36,51
896,1	32,738
896,6	33,338
897	32,424
897,4	41,31
897,8	34,567
898,3	30,938
898,7	30,31
899,1	33,452
899,5	31,938
900	26,281
900,4	23,452
900,8	24,767
901,2	25,452
901,7	21,11
902,1	22,281
902,5	23,195
902,9	25,681
903,4	22,424
903,8	22,081
904,2	19,681
904,6	26,138
905,1	25,167
905,5	26,538
905,9	26,424
906,3	29,567
906,8	31,852
907,2	34,31
907,6	32,024
908	35,595
908,5	29,452
908,9	27,852
909,3	23,195
909,7	17,367
910,2	21,367
910,6	23,195
911	18,881
911,4	25,138
911,9	25,852
912,3	31,51
912,7	39,795
913,1	35,71
913,6	29,538
914	29,652
914,4	25,938
914,8	30,824
915,3	22,31
915,7	19,395
916,1	15,167
916,5	20,452
916,9	19,138
917,4	18,824
917,8	16,738
918,2	14,052
918,6	5,938
919,1	6,967
919,5	7,624
919,9	8,31
920,3	5,11
920,8	0,652
921,2	8,024
921,6	13,738
922	17,91
922,5	13,881
922,9	15,31
923,3	16,624
923,7	20,081
924,2	17,91
924,6	18,967
925	18,738
925,4	20,681
925,8	16,767
926,3	17,024
926,7	13,252
927,1	14,824
927,5	19,024
928	13,252
928,4	11,395
928,8	16,224
929,2	15,452
929,7	20,281
930,1	16,567
930,5	13,51
930,9	20,595
931,3	22,738
931,8	21,91
932,2	25,024
932,6	22,338
933	20,624
933,5	17,852
933,9	14,452
934,3	15,881
934,7	12,195
935,2	9,367
935,6	8,367
936	12,281
936,4	15,424
936,8	17,31
937,3	14,424
937,7	20,024
938,1	21,567
938,5	18,995
939	19,338
939,4	19,338
939,8	16,538
940,2	18,51
940,6	16,052
941,1	14,881
941,5	22,138
941,9	21,195
942,3	16,652
942,8	19,052
943,2	19,681
943,6	16,995
944	19,338
944,4	17,452
944,9	14,71
945,3	16,395
945,7	9,91
946,1	3,852
946,6	1,91
947	2,852
947,4	5,081
947,8	6,824
948,2	6,224
948,7	8,881
949,1	8,31
949,5	15,338
949,9	11,681
950,3	8,395
950,8	10,71
951,2	11,167
951,6	11,367
952	17,481
952,5	12,824
952,9	14,91
953,3	12,91
953,7	12,281
954,1	15,595
954,6	19,138
955	20,738
955,4	20,424
955,8	23,567
956,2	22,481
956,7	24,652
957,1	17,71
957,5	22,338
957,9	20,395
958,3	19,367
958,8	17,824
959,2	24,252
959,6	25,31
960	29,452
960,5	25,681
960,9	24,367
961,3	21,795
961,7	17,452
962,1	12,795
962,6	12,167
963	7,338
963,4	4,224
963,8	4,538
964,2	9,795
964,7	11,967
965,1	15,452
965,5	16,824
965,9	20,595
966,3	23,424
966,8	23,024
967,2	21,367
967,6	20,252
968	15,424
968,4	10,481
968,9	11,424
969,3	14,681
969,7	11,424
970,1	10,681
970,5	10,624
971	13,995
971,4	13,024
971,8	12,881
972,2	6,367
972,6	10,424
973,1	9,481
973,5	11,367
973,9	12,224
974,3	12,624
974,7	13,824
975,2	16,452
975,6	14,481
976	18,681
976,4	12,281
976,8	12,138
977,3	10,252
977,7	7,081
978,1	8,11
978,5	8,452
978,9	3,167
979,4	5,71
979,8	4,481
980,2	7,995
980,6	8,452
981	11,024
981,5	10,624
981,9	10,624
982,3	12,652
982,7	10,738
983,1	7,91
983,6	9,195
984	4,338
984,4	2,395
984,8	8,881
985,2	9,938
985,6	7,795
986,1	11,652
986,5	14,31
986,9	12,938
987,3	13,71
987,7	8,538
988,2	9,11
988,6	10,767
989	7,424
989,4	1,338
989,8	0,11
990,3	2,11
990,7	2,481
991,1	4,395
991,5	7,081
991,9	11,995
992,3	16,938
992,8	18,824
993,2	18,938
993,6	20,881
994	22,224
994,4	21,567
994,9	19,91
995,3	19,767
995,7	21,395
996,1	20,052
996,5	16,881
996,9	9,795
997,4	6,252
997,8	-1,49
998,2	-6,633
998,6	-16,662
999	-18,005
999,5	-15,833
999,9	-15,176
1000,3	-10,49
1000,7	-4,176
1001,1	-2,176
1001,5	6,31
1002	12,338
1002,4	14,452
1002,8	20,024
1003,2	17,11
1003,6	19,624
1004	26,081
1004,5	24,738
1004,9	21,252
1005,3	17,652
1005,7	15,452
1006,1	11,881
1006,6	11,024
1007	8,567
1007,4	8,224
1007,8	8,51
1008,2	7,767
1008,6	9,081
1009,1	11,624
1009,5	8,881
1009,9	7,11
1010,3	10,995
1010,7	12,281
1011,1	14,224
1011,6	12,795
1012	18,852
1012,4	18,538
1012,8	16,224
1013,2	15,91
1013,6	16,51
1014,1	19,024
1014,5	15,91
1014,9	12,338
1015,3	12,195
1015,7	16,138
1016,1	13,395
1016,6	12,624
1017	12,538
1017,4	15,938
1017,8	16,938
1018,2	20,481
1018,6	15,395
1019,1	15,881
1019,5	14,538
1019,9	6,252
1020,3	8,452
1020,7	3,824
1021,1	0,967
1021,6	1,767
1022	1,367
1022,4	1,195
1022,8	7,51
1023,2	2,881
1023,6	8,824
1024,1	12,938
1024,5	14,738
1024,9	11,367
1025,3	11,881
1025,7	9,31
1026,1	11,767
1026,6	12,51
1027	4,681
1027,4	8,795
1027,8	12,967
1028,2	8,995
1028,6	13,852
1029	14,995
1029,5	16,224
1029,9	17,652
1030,3	9,652
1030,7	11,367
1031,1	13,938
1031,5	11,938
1032	6,652
1032,4	4,052
1032,8	10,795
1033,2	14,767
1033,6	7,881
1034	9,252
1034,4	7,481
1034,9	9,252
1035,3	5,538
1035,7	4,767
1036,1	3,91
1036,5	8,281
1036,9	7,91
1037,4	10,452
1037,8	6,138
1038,2	8,452
1038,6	5,224
1039	7,767
1039,4	11,11
1039,8	5,338
1040,3	3,71
1040,7	10,367
1041,1	9,595
1041,5	11,767
1041,9	10,967
1042,3	8,681
1042,7	17,195
1043,2	15,595
1043,6	9,252
1044	9,538
1044,4	8,424
1044,8	7,738
1045,2	5,624
1045,6	3,852
1046,1	4,738
1046,5	6,452
1046,9	6,795
1047,3	8,081
1047,7	6,195
1048,1	6,31
1048,5	5,367
1049	9,824
1049,4	15,91
1049,8	14,738
1050,2	14,138
1050,6	18,71
1051	18,995
1051,4	16,167
1051,9	9,767
1052,3	15,167
1052,7	18,995
1053,1	13,167
1053,5	16,567
1053,9	20,138
1054,3	25,395
1054,8	31,567
1055,2	24,995
1055,6	25,452
1056	27,481
1056,4	19,281
1056,8	19,081
1057,2	12,538
1057,6	7,681
1058,1	4,624
1058,5	-2,862
1058,9	0,024
1059,3	2,652
1059,7	-2,548
1060,1	-2,805
1060,5	-1,005
1061	2,795
1061,4	1,567
1061,8	1,11
1062,2	-2,005
1062,6	1,995
1063	5,424
1063,4	7,795
1063,8	3,938
1064,3	5,538
1064,7	7,481
1065,1	8,967
1065,5	7,224
1065,9	7,595
1066,3	4,395
1066,7	0,195
1067,1	-1,833
1067,6	0,195
1068	-4,862
1068,4	-6,09
1068,8	-5,776
1069,2	-6,805
1069,6	-0,348
1070	7,481
1070,4	2,652
1070,9	4,995
1071,3	9,195
1071,7	7,681
1072,1	8,167
1072,5	6,024
1072,9	4,51
1073,3	6,367
1073,7	4,281
1074,2	3,367
1074,6	5,595
1075	5,681
1075,4	6,224
1075,8	5,024
1076,2	6,052
1076,6	10,367
1077	8,11
1077,5	10,967
1077,9	7,881
1078,3	7,367
1078,7	7,11
1079,1	8,395
1079,5	8,481
1079,9	5,795
1080,3	3,938
1080,7	6,51
1081,2	11,281
1081,6	7,567
1082	0,938
1082,4	4,367
1082,8	9,31
1083,2	6,452
1083,6	9,967
1084	3,91
1084,5	7,824
1084,9	8,338
1085,3	3,252
1085,7	1,624
1086,1	4,167
1086,5	4,91
1086,9	9,567
1087,3	7,51
1087,7	10,938
1088,2	12,195
1088,6	9,852
1089	11,395
1089,4	7,51
1089,8	7,624
1090,2	6,824
1090,6	7,767
1091	13,595
1091,4	19,195
1091,9	13,995
1092,3	15,538
1092,7	10,167
1093,1	13,367
1093,5	11,424
1093,9	5,395
1094,3	6,595
1094,7	6,11
1095,1	9,138
1095,5	13,481
1096	8,881
1096,4	9,424
1096,8	12,195
1097,2	8,824
1097,6	14,224
1098	12,11
1098,4	13,224
1098,8	16,167
1099,2	21,167
1099,6	20,31
1100,1	17,824
1100,5	16,738
1100,9	14,595
1101,3	12,252
1101,7	13,338
1102,1	6,938
1102,5	8,938
1102,9	11,224
1103,3	10,71
1103,7	11,31
1104,2	11,881
1104,6	10,624
1105	10,938
1105,4	7,367
1105,8	4,881
1106,2	2,252
1106,6	1,338
1107	0,052
1107,4	0,067
1107,8	0,007
1108,3	-0,133
