Data from Subt2_261.txt Node
Date: Sat Aug 26 19:01:53 MSK 2023
User: vat
Spectrometer: MAYP114033
Trigger mode: 0
Integration Time (sec): 1,000000E0
Scans to average: 5
Electric dark correction enabled: true
Nonlinearity correction enabled: false
Boxcar width: 3
XAxis mode: Wavelengths
Number of Pixels in Spectrum: 2068
>>>>>Begin Spectral Data<<<<<
199,4	-0,117
199,9	1,533
200,4	1,9
200,8	2,79
201,3	3,248
201,8	5,305
202,2	3,733
202,7	7,19
203,2	5,762
203,6	4,876
204,1	2,99
204,6	3,476
205	3,79
205,5	3,619
206	0,362
206,4	1,59
206,9	2,448
207,4	3,39
207,8	2,305
208,3	1,733
208,8	5,848
209,2	6,648
209,7	5,819
210,2	4,733
210,6	5,419
211,1	9,505
211,5	3,019
212	-0,438
212,5	0,162
212,9	-0,724
213,4	3,219
213,9	3,419
214,3	-0,724
214,8	6,362
215,3	4,333
215,7	6,733
216,2	7,362
216,7	5,533
217,1	5,562
217,6	8,59
218,1	4,076
218,5	5,819
219	-1,838
219,5	-1,552
219,9	-5,552
220,4	-0,01
220,9	-3,524
221,3	-2,095
221,8	0,476
222,3	6,105
222,7	10,076
223,2	9,248
223,6	4,39
224,1	9,105
224,6	11,962
225	8,362
225,5	6,133
226	3,533
226,4	8,962
226,9	8,59
227,4	8,819
227,8	1,705
228,3	3,533
228,8	3,648
229,2	5,933
229,7	4,933
230,2	3,962
230,6	5,019
231,1	17,162
231,5	16,505
232	21,333
232,5	17,448
232,9	19,648
233,4	22,99
233,9	15,476
234,3	9,448
234,8	10,933
235,3	6,819
235,7	11,362
236,2	8,505
236,7	6,819
237,1	13,162
237,6	10,962
238,1	10,276
238,5	6,048
239	3,905
239,4	9,905
239,9	8,105
240,4	7,79
240,8	12,59
241,3	12,105
241,8	13,79
242,2	14,362
242,7	7,448
243,2	11,362
243,6	7,019
244,1	7,533
244,6	9,819
245	11,305
245,5	11,619
245,9	9,533
246,4	3,419
246,9	7,362
247,3	1,79
247,8	1,762
248,3	4,533
248,7	5,705
249,2	10,705
249,7	12,562
250,1	12,162
250,6	12,276
251	16,733
251,5	18,19
252	14,276
252,4	17,019
252,9	16,19
253,4	12,505
253,8	14,476
254,3	11,648
254,8	9,848
255,2	8,733
255,7	5,162
256,1	7,505
256,6	14,248
257,1	17,333
257,5	12,876
258	10,39
258,5	10,676
258,9	8,819
259,4	5,105
259,9	2,362
260,3	-5,61
260,8	-7,181
261,2	-6,324
261,7	-1,895
262,2	-3,352
262,6	-0,895
263,1	-0,552
263,6	3,762
264	9,59
264,5	10,79
264,9	6,219
265,4	8,619
265,9	9,362
266,3	9,305
266,8	14,105
267,3	11,305
267,7	10,39
268,2	8,79
268,7	11,19
269,1	14,876
269,6	10,676
270	13,905
270,5	12,448
271	13,905
271,4	20,505
271,9	16,076
272,4	17,019
272,8	21,562
273,3	14,619
273,7	13,676
274,2	10,448
274,7	5,219
275,1	8,105
275,6	3,305
276,1	-1,21
276,5	0,59
277	1,648
277,4	5,162
277,9	7,905
278,4	8,762
278,8	14,848
279,3	20,448
279,8	20,962
280,2	23,705
280,7	25,419
281,1	21,562
281,6	21,733
282,1	16,448
282,5	10,933
283	9,048
283,4	7,648
283,9	6,962
284,4	13,419
284,8	11,99
285,3	9,219
285,8	13,048
286,2	12,419
286,7	14,476
287,1	12,905
287,6	8,19
288,1	5,533
288,5	8,733
289	6,105
289,5	6,876
289,9	4,448
290,4	4,733
290,8	5,476
291,3	6,076
291,8	6,533
292,2	8,476
292,7	8,448
293,1	6,59
293,6	6,533
294,1	4,905
294,5	7,333
295	7,59
295,5	4,305
295,9	5,476
296,4	5,733
296,8	0,533
297,3	6,162
297,8	2,705
298,2	-0,752
298,7	4,676
299,1	3,419
299,6	5,648
300,1	14,933
300,5	12,533
301	14,933
301,5	21,419
301,9	17,505
302,4	16,105
302,8	16,39
303,3	12,248
303,8	4,99
304,2	6,076
304,7	1,419
305,1	0,219
305,6	0,562
306,1	3,505
306,5	4,79
307	14,819
307,4	15,762
307,9	15,619
308,4	14,905
308,8	11,79
309,3	8,79
309,8	9,19
310,2	7,162
310,7	3,79
311,1	6,762
311,6	11,99
312,1	13,562
312,5	16,39
313	19,162
313,4	20,105
313,9	21,476
314,4	18,99
314,8	13,276
315,3	18,762
315,7	12,733
316,2	5,819
316,7	1,962
317,1	3,819
317,6	6,248
318	12,133
318,5	7,733
319	7,59
319,4	13,676
319,9	21,362
320,3	21,476
320,8	14,105
321,3	12,905
321,7	17,505
322,2	20,248
322,6	17,648
323,1	10,99
323,6	8,133
324	9,076
324,5	5,39
324,9	6,276
325,4	5,59
325,9	6,733
326,3	9,59
326,8	12,419
327,2	11,762
327,7	12,133
328,2	6,676
328,6	8,848
329,1	5,305
329,5	1,219
330	1,562
330,5	3,019
330,9	5,733
331,4	7,476
331,8	2,19
332,3	4,962
332,8	11,219
333,2	8,105
333,7	11,305
334,1	10,59
334,6	9,019
335,1	9,048
335,5	9,762
336	6,133
336,4	6,333
336,9	13,933
337,4	15,333
337,8	14,162
338,3	21,019
338,7	19,048
339,2	12,619
339,7	15,562
340,1	7,476
340,6	5,962
341	4,79
341,5	2,505
342	3,219
342,4	4,648
342,9	1,962
343,3	3,476
343,8	2,848
344,2	4,648
344,7	5,876
345,2	3,219
345,6	7,305
346,1	8,762
346,5	4,619
347	4,076
347,5	3,333
347,9	5,362
348,4	8,019
348,8	9,048
349,3	8,79
349,8	16,048
350,2	25,162
350,7	21,19
351,1	20,019
351,6	25,39
352	27,562
352,5	34,048
353	38,905
353,4	36,219
353,9	51,848
354,3	62,648
354,8	71,305
355,3	85,876
355,7	101,162
356,2	114,105
356,6	139,59
357,1	164,505
357,5	192,333
358	222,333
358,5	253,848
358,9	292,076
359,4	342,419
359,8	391,59
360,3	450,019
360,8	512,076
361,2	585,676
361,7	671,59
362,1	763,305
362,6	856,276
363	955,019
363,5	1056,619
364	1170,219
364,4	1286,733
364,9	1400,305
365,3	1511,762
365,8	1617,419
366,3	1723,619
366,7	1818,419
367,2	1898,333
367,6	1957,905
368,1	2007,105
368,5	2037,219
369	2056,39
369,5	2057,962
369,9	2041,219
370,4	2010,505
370,8	1965,419
371,3	1906,39
371,7	1836,905
372,2	1757,362
372,7	1672,476
373,1	1582,076
373,6	1490,276
374	1399,048
374,5	1304,333
374,9	1219,048
375,4	1137,819
375,9	1053,248
376,3	975,133
376,8	897,333
377,2	830,676
377,7	766,448
378,2	702,39
378,6	641,876
379,1	587,248
379,5	542,505
380	498,99
380,4	456,905
380,9	421,219
381,4	385,105
381,8	352,962
382,3	330,219
382,7	305,048
383,2	283,476
383,6	262,248
384,1	241,562
384,6	225,762
385	208,305
385,5	190,762
385,9	176,762
386,4	165,248
386,8	152,762
387,3	140,39
387,7	132,962
388,2	127,276
388,7	116,933
389,1	106,162
389,6	98,79
390	92,819
390,5	90,305
390,9	86,733
391,4	80,99
391,9	78,076
392,3	79,076
392,8	73,362
393,2	69,619
393,7	65,59
394,1	60,619
394,6	58,248
395,1	55,248
395,5	49,276
396	49,076
396,4	49,276
396,9	45,676
397,3	48,848
397,8	47,362
398,2	46,019
398,7	43,076
399,2	44,619
399,6	42,648
400,1	43,305
400,5	34,419
401	37,219
401,4	34,99
401,9	39,819
402,4	37,648
402,8	35,619
403,3	42,476
403,7	45,79
404,2	46,019
404,6	48,133
405,1	47,476
405,5	43,876
406	43,248
406,5	35,676
406,9	38,333
407,4	34,105
407,8	32,276
408,3	32,105
408,7	32,019
409,2	37,933
409,6	40,933
410,1	37,848
410,6	43,99
411	47,362
411,5	48,448
411,9	47,705
412,4	47,619
412,8	48,076
413,3	54,476
413,7	49,505
414,2	48,305
414,7	51,533
415,1	62,076
415,6	59,505
416	64,162
416,5	63,848
416,9	66,448
417,4	73,219
417,8	76,819
418,3	78,048
418,8	85,848
419,2	88,362
419,7	89,476
420,1	96,048
420,6	96,533
421	92,219
421,5	94,219
421,9	91,962
422,4	92,705
422,8	93,933
423,3	92,505
423,8	87,39
424,2	88,905
424,7	87,333
425,1	83,962
425,6	83,419
426	76,819
426,5	75,905
426,9	78,39
427,4	77,933
427,9	74,705
428,3	79,79
428,8	78,305
429,2	79,962
429,7	76,419
430,1	78,476
430,6	78,105
431	77,162
431,5	76,248
431,9	71,733
432,4	75,619
432,8	81,876
433,3	82,476
433,8	81,762
434,2	83,476
434,7	87,076
435,1	92,076
435,6	94,362
436	92,333
436,5	95,762
436,9	95,762
437,4	98,533
437,8	100,419
438,3	104,162
438,8	104,505
439,2	106,962
439,7	112,848
440,1	124,219
440,6	136,79
441	136,505
441,5	140,505
441,9	148,933
442,4	152,105
442,8	153,19
443,3	157,848
443,7	155,876
444,2	164,533
444,7	174,819
445,1	183,819
445,6	195,019
446	203,848
446,5	203,076
446,9	207,219
447,4	214,19
447,8	217,819
448,3	226,562
448,7	234,419
449,2	239,705
449,6	256,562
450,1	268,819
450,6	282,819
451	294,19
451,5	297,619
451,9	312,048
452,4	326,819
452,8	338,219
453,3	349,705
453,7	358,076
454,2	376,048
454,6	394,162
455,1	407,048
455,5	416,448
456	430,448
456,4	443,619
456,9	459,79
457,3	470,962
457,8	475,762
458,3	490,305
458,7	505,705
459,2	520,076
459,6	534,419
460,1	551,048
460,5	562,676
461	592,962
461,4	602,876
461,9	620,705
462,3	645,048
462,8	666,105
463,2	679,19
463,7	699,476
464,1	713,305
464,6	736,819
465	759,962
465,5	771,79
466	794,762
466,4	814,876
466,9	838,705
467,3	857,533
467,8	883,333
468,2	902,505
468,7	924,076
469,1	940,819
469,6	964,99
470	987,39
470,5	1004,619
470,9	1020,076
471,4	1037,162
471,8	1059,248
472,3	1085,048
472,7	1109,562
473,2	1120,105
473,6	1141,476
474,1	1169,076
474,5	1195,448
475	1215,133
475,4	1231,248
475,9	1247,99
476,4	1273,848
476,8	1301,676
477,3	1315,905
477,7	1336,448
478,2	1361,276
478,6	1379,876
479,1	1395,533
479,5	1416,848
480	1430,219
480,4	1448,219
480,9	1464,933
481,3	1476,305
481,8	1498,333
482,2	1515,019
482,7	1532,705
483,1	1553,819
483,6	1569,448
484	1584,162
484,5	1604,562
484,9	1622,133
485,4	1644,476
485,8	1658,819
486,3	1673,076
486,7	1693,105
487,2	1705,99
487,6	1715,59
488,1	1723,59
488,5	1731,19
489	1746,219
489,4	1759,876
489,9	1761,276
490,4	1779,448
490,8	1793,39
491,3	1808,962
491,7	1825,076
492,2	1834,476
492,6	1841,619
493,1	1860,962
493,5	1862,99
494	1870,19
494,4	1876,105
494,9	1882,133
495,3	1893,905
495,8	1904,79
496,2	1916,59
496,7	1926,362
497,1	1937,962
497,6	1948,648
498	1960,676
498,5	1968,305
498,9	1971,819
499,4	1975,819
499,8	1991,419
500,3	1998,676
500,7	2006,133
501,2	2010,019
501,6	2009,248
502,1	2018,105
502,5	2017,019
503	2018,762
503,4	2019,448
503,9	2020,733
504,3	2026,848
504,8	2038,019
505,2	2044,162
505,7	2051,876
506,1	2056,705
506,6	2060,39
507	2064,448
507,5	2070,505
507,9	2075,019
508,4	2080,076
508,8	2086,133
509,3	2084,248
509,7	2096,219
510,2	2101,019
510,6	2096,705
511,1	2093,619
511,5	2100,419
512	2104,019
512,4	2114,362
512,9	2113,705
513,3	2117,905
513,8	2124,362
514,2	2139,362
514,7	2142,105
515,1	2150,076
515,6	2155,933
516	2159,848
516,5	2171,762
516,9	2183,533
517,4	2183,848
517,8	2191,533
518,3	2194,648
518,7	2198,648
519,2	2208,676
519,6	2208,305
520,1	2208,476
520,5	2215,79
521	2215,019
521,4	2221,59
521,9	2228,562
522,3	2231,676
522,8	2233,762
523,2	2242,133
523,7	2240,676
524,1	2248,105
524,6	2254,39
525	2257,99
525,5	2261,99
525,9	2275,39
526,4	2278,19
526,8	2291,39
527,3	2300,562
527,7	2305,39
528,2	2311,533
528,6	2314,276
529,1	2318,476
529,5	2330,362
530	2335,99
530,4	2340,133
530,9	2348,819
531,3	2358,048
531,8	2371,019
532,2	2381,79
532,6	2382,876
533,1	2391,648
533,5	2403,819
534	2408,876
534,4	2415,276
534,9	2422,905
535,3	2422,59
535,8	2435,133
536,2	2436,733
536,7	2439,705
537,1	2449,59
537,6	2454,048
538	2466,048
538,5	2480,219
538,9	2484,819
539,4	2494,876
539,8	2505,133
540,3	2511,476
540,7	2522,848
541,2	2525,705
541,6	2528,59
542,1	2539,762
542,5	2551,19
543	2552,105
543,4	2558,105
543,9	2568,276
544,3	2583,933
544,8	2591,79
545,2	2597,562
545,7	2601,162
546,1	2614,848
546,5	2620,533
547	2624,133
547,4	2621,276
547,9	2628,533
548,3	2637,533
548,8	2648,962
549,2	2643,019
549,7	2652,362
550,1	2661,448
550,6	2669,276
551	2678,619
551,5	2682,99
551,9	2682,619
552,4	2699,305
552,8	2705,019
553,3	2711,476
553,7	2716,562
554,2	2723,019
554,6	2732,219
555,1	2743,219
555,5	2749,105
555,9	2754,248
556,4	2755,162
556,8	2761,705
557,3	2766,162
557,7	2772,648
558,2	2773,39
558,6	2783,248
559,1	2791,39
559,5	2802,533
560	2811,105
560,4	2819,076
560,9	2817,276
561,3	2820,705
561,8	2824,248
562,2	2832,162
562,7	2824,105
563,1	2830,219
563,6	2831,533
564	2841,305
564,4	2851,105
564,9	2850,59
565,3	2850,219
565,8	2860,848
566,2	2865,048
566,7	2870,848
567,1	2873,933
567,6	2875,876
568	2881,79
568,5	2881,762
568,9	2884,505
569,4	2883,79
569,8	2884,276
570,3	2884,619
570,7	2882,419
571,1	2881,59
571,6	2885,505
572	2890,219
572,5	2893,362
572,9	2892,105
573,4	2896,362
573,8	2895,819
574,3	2892,533
574,7	2897,39
575,2	2892,076
575,6	2890,39
576,1	2893,419
576,5	2892,219
576,9	2893,619
577,4	2895,419
577,8	2887,333
578,3	2885,39
578,7	2878,848
579,2	2875,419
579,6	2865,648
580,1	2863,533
580,5	2862,705
581	2867,962
581,4	2866,305
581,9	2865,933
582,3	2862,905
582,7	2865,676
583,2	2863,419
583,6	2857,333
584,1	2854,905
584,5	2854,448
585	2853,19
585,4	2844,933
585,9	2836,048
586,3	2832,819
586,8	2834,848
587,2	2823,819
587,6	2823,648
588,1	2825,39
588,5	2829,362
589	2829,933
589,4	2829,162
589,9	2822,362
590,3	2823,733
590,8	2816,848
591,2	2805,733
591,7	2803,048
592,1	2803,533
592,5	2802,276
593	2796,162
593,4	2791,505
593,9	2788,59
594,3	2779,419
594,8	2768,333
595,2	2761,533
595,7	2752,876
596,1	2747,019
596,6	2741,162
597	2732,362
597,4	2734,533
597,9	2733,733
598,3	2728,619
598,8	2721,048
599,2	2716,762
599,7	2710,876
600,1	2703,59
600,6	2694,219
601	2687,962
601,4	2690,19
601,9	2690,39
602,3	2685,276
602,8	2685,162
603,2	2677,162
603,7	2672,533
604,1	2665,876
604,6	2653,362
605	2640,076
605,4	2634,59
605,9	2618,39
606,3	2610,933
606,8	2603,219
607,2	2589,905
607,7	2577,362
608,1	2571,848
608,6	2570,248
609	2566,333
609,4	2564,219
609,9	2557,533
610,3	2553,59
610,8	2537,99
611,2	2533,819
611,7	2520,248
612,1	2503,648
612,6	2495,819
613	2486,362
613,4	2478,733
613,9	2478,648
614,3	2465,19
614,8	2460,933
615,2	2456,533
615,7	2447,362
616,1	2440,362
616,6	2430,248
617	2418,676
617,4	2413,476
617,9	2397,248
618,3	2393,105
618,8	2382,162
619,2	2371,619
619,7	2358,533
620,1	2351,419
620,5	2337,848
621	2330,305
621,4	2320,648
621,9	2311,562
622,3	2295,905
622,8	2285,39
623,2	2278,162
623,6	2269,562
624,1	2259,933
624,5	2247,39
625	2241,476
625,4	2234,533
625,9	2225,562
626,3	2209,848
626,8	2201,362
627,2	2193,905
627,6	2179,876
628,1	2166,076
628,5	2162,39
629	2150,048
629,4	2140,876
629,9	2127,762
630,3	2111,39
630,7	2094,619
631,2	2086,79
631,6	2070,448
632,1	2067,19
632,5	2056,533
633	2044,648
633,4	2037,162
633,8	2031,162
634,3	2014,276
634,7	2006,048
635,2	1991,105
635,6	1983,248
636,1	1972,048
636,5	1959,848
636,9	1952,905
637,4	1944,448
637,8	1932,419
638,3	1914,705
638,7	1898,39
639,2	1887,505
639,6	1875,219
640	1865,448
640,5	1852,133
640,9	1838,933
641,4	1836,219
641,8	1831,105
642,2	1820,448
642,7	1816,476
643,1	1809,648
643,6	1806,448
644	1804,619
644,5	1797,248
644,9	1791,505
645,3	1784,019
645,8	1771,676
646,2	1761,476
646,7	1751,533
647,1	1736,219
647,6	1725,448
648	1717,162
648,4	1702,962
648,9	1694,333
649,3	1685,276
649,8	1676,448
650,2	1672,39
650,6	1667,59
651,1	1652,476
651,5	1656,762
652	1647,676
652,4	1632,848
652,9	1627,448
653,3	1612,876
653,7	1601,076
654,2	1596,362
654,6	1575,962
655,1	1568,39
655,5	1568,819
655,9	1557,048
656,4	1550,79
656,8	1541,076
657,3	1532,048
657,7	1530,562
658,2	1518,248
658,6	1501,619
659	1492,733
659,5	1484,533
659,9	1478,305
660,4	1464,105
660,8	1454,19
661,2	1446,876
661,7	1441,39
662,1	1428,676
662,6	1414,933
663	1406,419
663,4	1399,819
663,9	1388,99
664,3	1383,019
664,8	1370,162
665,2	1359,162
665,6	1352,276
666,1	1341,962
666,5	1335,505
667	1323,99
667,4	1310,733
667,9	1302,99
668,3	1298,048
668,7	1287,876
669,2	1281,533
669,6	1274,962
670,1	1273,505
670,5	1261,733
670,9	1249,505
671,4	1238,99
671,8	1236,505
672,3	1227,876
672,7	1220,39
673,1	1205,448
673,6	1200,99
674	1202,162
674,5	1196,59
674,9	1178,648
675,3	1168,619
675,8	1159,076
676,2	1157,905
676,7	1149,133
677,1	1137,362
677,5	1132,076
678	1131,19
678,4	1128,362
678,9	1118,162
679,3	1103,333
679,7	1097,962
680,2	1087,076
680,6	1077,962
681,1	1071,362
681,5	1061,019
681,9	1054,762
682,4	1056,305
682,8	1051,048
683,3	1049,505
683,7	1047,905
684,1	1040,533
684,6	1033,248
685	1025,79
685,5	1011,39
685,9	999,162
686,3	993,448
686,8	980,819
687,2	973,819
687,7	964,762
688,1	952,648
688,5	948,79
689	944,59
689,4	934,619
689,9	929,419
690,3	923,676
690,7	919,819
691,2	923,848
691,6	917,248
692	911,048
692,5	906,305
692,9	896,59
693,4	892,619
693,8	882,505
694,2	873,533
694,7	866,19
695,1	860,048
695,6	856,648
696	851,019
696,4	843,276
696,9	839,905
697,3	828,762
697,8	823,333
698,2	820,476
698,6	815,219
699,1	813,019
699,5	808,419
699,9	800,59
700,4	798,133
700,8	797,876
701,3	791,305
701,7	782,762
702,1	773,219
702,6	767,619
703	769,248
703,5	763,99
703,9	752,848
704,3	748,905
704,8	743,619
705,2	741,076
705,6	740,19
706,1	731,59
706,5	722,733
707	724,19
707,4	720,905
707,8	712,219
708,3	711,39
708,7	703,39
709,2	696,59
709,6	697,39
710	692,333
710,5	684,333
710,9	683,59
711,3	676,676
711,8	672,448
712,2	670,848
712,7	663,648
713,1	656,219
713,5	653,333
714	652,848
714,4	644,905
714,8	641,076
715,3	632,562
715,7	631,533
716,2	626,848
716,6	621,39
717	608,305
717,5	607,19
717,9	603,59
718,3	599,019
718,8	592,048
719,2	589,333
719,7	586,019
720,1	588,762
720,5	588,876
721	579,79
721,4	577,333
721,8	576,762
722,3	565,162
722,7	563,305
723,2	555,048
723,6	539,819
724	536,276
724,5	533,962
724,9	526,105
725,3	523,79
725,8	515,505
726,2	511,619
726,7	508,133
727,1	505,99
727,5	498,79
728	494,876
728,4	493,99
728,8	490,39
729,3	489,248
729,7	489,905
730,1	485,876
730,6	487,162
731	484,419
731,5	483,533
731,9	480,876
732,3	478,619
732,8	480,39
733,2	477,962
733,6	473,333
734,1	470,248
734,5	463,562
734,9	464,848
735,4	462,333
735,8	452,476
736,3	451,676
736,7	446,048
737,1	444,276
737,6	444,048
738	433,676
738,4	424,705
738,9	425,533
739,3	422,819
739,7	425,819
740,2	420,962
740,6	420,762
741,1	425,219
741,5	422,705
741,9	421,79
742,4	424,133
742,8	414,648
743,2	415,705
743,7	407,162
744,1	399,419
744,5	396,648
745	389,076
745,4	377,705
745,8	380,419
746,3	377,876
746,7	376,476
747,2	375,248
747,6	379,676
748	383,762
748,5	386,848
748,9	379,762
749,3	370,876
749,8	372,276
750,2	368,133
750,6	366,248
751,1	363,162
751,5	360,105
751,9	363,019
752,4	364,99
752,8	361,905
753,3	362,133
753,7	358,562
754,1	352,533
754,6	340,419
755	336,39
755,4	335,333
755,9	330,848
756,3	330,419
756,7	324,933
757,2	324,848
757,6	329,276
758	324,676
758,5	319,59
758,9	320,619
759,3	315,333
759,8	312,305
760,2	310,019
760,6	306,905
761,1	306,076
761,5	303,762
761,9	299,619
762,4	295,876
762,8	297,848
763,3	291,762
763,7	290,962
764,1	287,248
764,6	283,876
765	283,733
765,4	284,905
765,9	282,733
766,3	284,59
766,7	280,133
767,2	280,448
767,6	284,248
768	281,419
768,5	278,962
768,9	276,819
769,3	271,505
769,8	269,505
770,2	267,362
770,6	258,676
771,1	257,848
771,5	257,048
771,9	257,619
772,4	258,362
772,8	258,419
773,2	257,419
773,7	262,848
774,1	259,876
774,5	251,448
775	246,619
775,4	243,276
775,8	239,276
776,3	240,476
776,7	235,162
777,1	231,048
777,6	238,276
778	240,333
778,4	237,048
778,9	236,99
779,3	230,619
779,7	230,648
780,2	228,276
780,6	222,076
781	214,733
781,5	212,79
781,9	211,448
782,3	207,905
782,8	205,105
783,2	205,59
783,6	208,419
784,1	207,448
784,5	203,048
784,9	197,533
785,4	201,648
785,8	199,19
786,2	199,962
786,7	198,019
787,1	196,59
787,5	201,505
788	204,733
788,4	201,933
788,8	201,533
789,3	199,933
789,7	199,533
790,1	198,476
790,6	199,876
791	195,733
791,4	196,133
791,9	192,448
792,3	185,362
792,7	183,59
793,2	182,39
793,6	178,248
794	179,248
794,5	173,676
794,9	176,705
795,3	183,848
795,8	179,019
796,2	178,219
796,6	175,333
797,1	175,39
797,5	170,819
797,9	166,819
798,4	157,848
798,8	157,619
799,2	156,533
799,7	158,362
800,1	152,619
800,5	160,562
801	162,99
801,4	165,505
801,8	161,333
802,2	162,133
802,7	158,305
803,1	160,562
803,5	157,562
804	153,219
804,4	149,99
804,8	153,162
805,3	146,99
805,7	146,276
806,1	143,733
806,6	142,705
807	142,79
807,4	141,39
807,9	139,248
808,3	141,419
808,7	145,105
809,2	148,99
809,6	147,133
810	143,505
810,4	145,705
810,9	143,305
811,3	145,79
811,7	141,448
812,2	141,276
812,6	139,048
813	142,448
813,5	139,133
813,9	139,248
814,3	132,648
814,8	127,533
815,2	121,962
815,6	120,762
816,1	121,562
816,5	122,619
816,9	119,705
817,3	120,476
817,8	128,162
818,2	129,048
818,6	124,733
819,1	121,333
819,5	115,876
819,9	117,133
820,4	118,762
820,8	113,448
821,2	110,562
821,7	114,79
822,1	118,905
822,5	128,619
822,9	124,648
823,4	121,248
823,8	119,848
824,2	124,533
824,7	119,933
825,1	111,79
825,5	102,59
826	101,848
826,4	102,105
826,8	96,905
827,3	96,076
827,7	96,39
828,1	97,19
828,5	97,562
829	95,448
829,4	95,19
829,8	96,619
830,3	90,933
830,7	88,733
831,1	87,19
831,6	86,333
832	89,533
832,4	84,733
832,8	85,619
833,3	86,933
833,7	84,362
834,1	83,133
834,6	81,448
835	81,648
835,4	83,476
835,8	82,505
836,3	78,876
836,7	84,048
837,1	81,162
837,6	86,419
838	85,248
838,4	86,733
838,9	84,819
839,3	83,762
839,7	83,219
840,1	80,476
840,6	75,305
841	74,79
841,4	71,705
841,9	73,362
842,3	75,419
842,7	69,219
843,1	74,419
843,6	75,39
844	73,676
844,4	79,876
844,9	79,762
845,3	75,79
845,7	79,562
846,2	72,105
846,6	69,79
847	70,79
847,4	67,19
847,9	67,619
848,3	70,333
848,7	69,476
849,2	73,419
849,6	72,819
850	74,59
850,4	70,39
850,9	64,39
851,3	62,848
851,7	61,133
852,2	61,305
852,6	62,448
853	56,019
853,4	56,962
853,9	59,905
854,3	60,248
854,7	61,79
855,2	62,648
855,6	64,105
856	66,276
856,4	64,819
856,9	63,848
857,3	63,105
857,7	61,705
858,2	62,533
858,6	59,133
859	57,733
859,4	57,705
859,9	55,19
860,3	53,362
860,7	53,419
861,1	54,448
861,6	49,505
862	51,533
862,4	47,648
862,9	49,505
863,3	53,105
863,7	52,676
864,1	49,933
864,6	53,305
865	50,248
865,4	54,99
865,9	58,076
866,3	51,333
866,7	51,676
867,1	46,248
867,6	44,848
868	44,819
868,4	39,762
868,8	33,019
869,3	36,733
869,7	39,876
870,1	38,848
870,6	35,162
871	-28,495
871,4	-19,438
871,8	-16,581
872,3	-16,467
872,7	-20,495
873,1	-16,352
873,5	-11,381
874	54,248
874,4	46,333
874,8	44,619
875,3	45,419
875,7	45,876
876,1	45,562
876,5	41,962
877	39,676
877,4	35,562
877,8	37,876
878,2	36,762
878,7	35,419
879,1	31,99
879,5	35,933
879,9	37,248
880,4	38,276
880,8	34,619
881,2	34,19
881,7	30,848
882,1	36,705
882,5	35,648
882,9	32,019
883,4	32,048
883,8	36,39
884,2	33,733
884,6	35,533
885,1	33,848
885,5	33,476
885,9	31,533
886,3	35,219
886,8	29,762
887,2	28,705
887,6	30,705
888	30,99
888,5	32,99
888,9	36,933
889,3	33,448
889,8	33,819
890,2	37,476
890,6	30,133
891	28,048
891,5	25,276
891,9	23,276
892,3	23,476
892,7	25,933
893,2	26,648
893,6	31,648
894	34,419
894,4	33,876
894,9	33,762
895,3	34,39
895,7	33,705
896,1	29,419
896,6	29,505
897	29,819
897,4	36,876
897,8	40,733
898,3	43,79
898,7	41,019
899,1	40,133
899,5	36,905
900	30,076
900,4	21,048
900,8	19,133
901,2	12,705
901,7	13,019
902,1	18,876
902,5	21,019
902,9	22,248
903,4	24,305
903,8	25,19
904,2	25,19
904,6	25,476
905,1	24,276
905,5	25,019
905,9	28,819
906,3	33,619
906,8	32,362
907,2	34,933
907,6	34,505
908	33,648
908,5	32,105
908,9	24,905
909,3	17,076
909,7	16,076
910,2	20,219
910,6	26,648
911	21,019
911,4	23,105
911,9	26,162
912,3	29,705
912,7	36,476
913,1	34,105
913,6	26,99
914	31,362
914,4	28,219
914,8	29,048
915,3	25,305
915,7	21,333
916,1	20,648
916,5	24,848
916,9	23,762
917,4	25,933
917,8	24,248
918,2	22,905
918,6	13,076
919,1	12,076
919,5	8,219
919,9	6,819
920,3	3,962
920,8	7,162
921,2	10,619
921,6	18,933
922	17,99
922,5	20,619
922,9	18,619
923,3	18,562
923,7	18,733
924,2	14,762
924,6	13,562
925	18,648
925,4	16,79
925,8	20,705
926,3	19,676
926,7	17,648
927,1	20,305
927,5	21,019
928	15,39
928,4	16,219
928,8	16,048
929,2	18,648
929,7	20,019
930,1	23,305
930,5	18,905
930,9	21,133
931,3	21,219
931,8	21,048
932,2	22,505
932,6	20,476
933	11,19
933,5	12,19
933,9	13,819
934,3	12,876
934,7	8,619
935,2	7,362
935,6	8,476
936	15,305
936,4	17,79
936,8	18,105
937,3	18,019
937,7	23,533
938,1	27,219
938,5	22,933
939	23,219
939,4	21,105
939,8	19,99
940,2	15,933
940,6	13,933
941,1	14,162
941,5	19,562
941,9	14,048
942,3	15,962
942,8	17,219
943,2	23,076
943,6	21,705
944	18,619
944,4	17,676
944,9	19,762
945,3	18,648
945,7	14,876
946,1	11,59
946,6	10,676
947	9,848
947,4	10,533
947,8	12,962
948,2	8,448
948,7	8,848
949,1	4,276
949,5	10,676
949,9	13,39
950,3	10,162
950,8	10,362
951,2	12,162
951,6	10,933
952	22,905
952,5	14,619
952,9	13,39
953,3	15,762
953,7	14,248
954,1	20,676
954,6	25,39
955	20,59
955,4	22,248
955,8	28,133
956,2	25,476
956,7	24,133
957,1	18,448
957,5	18,19
957,9	22,762
958,3	22,419
958,8	16,362
959,2	18,79
959,6	23,448
960	24,705
960,5	23,419
960,9	18,133
961,3	18,933
961,7	18,905
962,1	15,276
962,6	14,933
963	15,076
963,4	10,305
963,8	8,705
964,2	9,19
964,7	6,248
965,1	11,505
965,5	9,105
965,9	11,105
966,3	12,819
966,8	14,048
967,2	15,448
967,6	16,876
968	12,876
968,4	10,133
968,9	7,733
969,3	11,305
969,7	10,562
970,1	10,962
970,5	11,276
971	14,19
971,4	17,848
971,8	17,962
972,2	15,99
972,6	13,99
973,1	11,648
973,5	13,276
973,9	13,533
974,3	10,419
974,7	10,762
975,2	10,105
975,6	11,733
976	13,819
976,4	6,848
976,8	8,333
977,3	10,248
977,7	7,848
978,1	9,19
978,5	9,048
978,9	6,133
979,4	6,79
979,8	2,276
980,2	1,676
980,6	-2,81
981	-0,295
981,5	-2,324
981,9	0,39
982,3	2,762
982,7	5,305
983,1	1,905
983,6	10,105
984	8,39
984,4	11,562
984,8	8,619
985,2	12,076
985,6	7,362
986,1	12,305
986,5	11,162
986,9	5,905
987,3	8,762
987,7	7,819
988,2	6,105
988,6	12,476
989	12,533
989,4	10,848
989,8	13,705
990,3	10,248
990,7	13,762
991,1	14,933
991,5	10,19
991,9	11,933
992,3	15,619
992,8	16,705
993,2	14,305
993,6	15,362
994	14,876
994,4	18,619
994,9	15,99
995,3	13,59
995,7	8,648
996,1	9,876
996,5	9,048
996,9	8,105
997,4	5,619
997,8	0,448
998,2	-2,067
998,6	-4,61
999	-2,238
999,5	-4,752
999,9	-3,867
1000,3	-2,895
1000,7	2,676
1001,1	3,59
1001,5	10,448
1002	15,133
1002,4	14,476
1002,8	11,305
1003,2	13,39
1003,6	13,162
1004	17,648
1004,5	13,476
1004,9	7,048
1005,3	7,162
1005,7	10,762
1006,1	6,076
1006,6	6,248
1007	5,99
1007,4	10,476
1007,8	10,705
1008,2	10,162
1008,6	13,476
1009,1	16,162
1009,5	19,533
1009,9	16,848
1010,3	18,248
1010,7	17,19
1011,1	15,933
1011,6	13,39
1012	11,99
1012,4	9,962
1012,8	6,676
1013,2	6,533
1013,6	9,733
1014,1	16,219
1014,5	11,733
1014,9	11,619
1015,3	7,448
1015,7	9,876
1016,1	7,648
1016,6	8,19
1017	4,619
1017,4	5,59
1017,8	6,333
1018,2	10,19
1018,6	3,59
1019,1	4,533
1019,5	0,648
1019,9	-4,61
1020,3	-4,267
1020,7	-3,152
1021,1	-8,667
1021,6	-1,581
1022	-1,581
1022,4	-1,41
1022,8	6,79
1023,2	11,076
1023,6	10,333
1024,1	20,79
1024,5	22,219
1024,9	17,819
1025,3	17,762
1025,7	11,99
1026,1	10,676
1026,6	11,59
1027	2,533
1027,4	4,562
1027,8	8,562
1028,2	6,962
1028,6	10,305
1029	9,305
1029,5	9,819
1029,9	10,705
1030,3	5,333
1030,7	4,962
1031,1	13,019
1031,5	6,562
1032	5,962
1032,4	7,99
1032,8	10,048
1033,2	14,848
1033,6	12,99
1034	9,505
1034,4	11,762
1034,9	10,819
1035,3	8,276
1035,7	9,848
1036,1	2,705
1036,5	4,505
1036,9	4,276
1037,4	9,933
1037,8	8,19
1038,2	6,876
1038,6	7,99
1039	18,276
1039,4	22,819
1039,8	15,819
1040,3	12,305
1040,7	14,476
1041,1	17,733
1041,5	14,505
1041,9	8,619
1042,3	3,076
1042,7	8,59
1043,2	10,333
1043,6	11,333
1044	7,19
1044,4	7,219
1044,8	7,562
1045,2	10,99
1045,6	11,705
1046,1	10,619
1046,5	7,819
1046,9	6,248
1047,3	8,79
1047,7	8,39
1048,1	3,619
1048,5	1,419
1049	6,076
1049,4	16,305
1049,8	16,533
1050,2	15,733
1050,6	22,019
1051	24,219
1051,4	24,99
1051,9	24,533
1052,3	21,99
1052,7	21,905
1053,1	15,99
1053,5	9,533
1053,9	10,305
1054,3	9,248
1054,8	5,676
1055,2	0,705
1055,6	1,99
1056	-0,752
1056,4	-0,895
1056,8	-2,21
1057,2	-2,781
1057,6	-1,381
1058,1	-5,01
1058,5	-4,124
1058,9	3,676
1059,3	8,019
1059,7	8,048
1060,1	9,819
1060,5	9,619
1061	13,59
1061,4	14,648
1061,8	16,448
1062,2	11,162
1062,6	10,819
1063	13,419
1063,4	13,705
1063,8	11,419
1064,3	6,276
1064,7	4,276
1065,1	3,505
1065,5	2,533
1065,9	-1,952
1066,3	-5,552
1066,7	-5,381
1067,1	-4,324
1067,6	-0,695
1068	-1,952
1068,4	-1,41
1068,8	3,733
1069,2	5,333
1069,6	6,162
1070	13,333
1070,4	9,219
1070,9	12,162
1071,3	14,019
1071,7	9,533
1072,1	11,076
1072,5	7,562
1072,9	2,162
1073,3	3,905
1073,7	2,648
1074,2	3,276
1074,6	4,99
1075	4,819
1075,4	8,619
1075,8	8,933
1076,2	5,762
1076,6	9,876
1077	7,105
1077,5	9,305
1077,9	5,619
1078,3	2,819
1078,7	3,019
1079,1	3,133
1079,5	1,105
1079,9	1,562
1080,3	0,648
1080,7	3,733
1081,2	9,39
1081,6	9,448
1082	8,333
1082,4	11,248
1082,8	11,733
1083,2	10,19
1083,6	15,619
1084	14,419
1084,5	16,133
1084,9	18,219
1085,3	8,99
1085,7	10,533
1086,1	13,733
1086,5	8,619
1086,9	13,105
1087,3	10,876
1087,7	11,048
1088,2	14,476
1088,6	8,276
1089	9,448
1089,4	9,876
1089,8	2,762
1090,2	2,248
1090,6	4,419
1091	8,876
1091,4	15,59
1091,9	11,248
1092,3	11,248
1092,7	13,562
1093,1	17,848
1093,5	15,505
1093,9	12,962
1094,3	17,305
1094,7	15,762
1095,1	16,276
1095,5	14,048
1096	8,619
1096,4	8,59
1096,8	8,905
1097,2	1,648
1097,6	7,362
1098	6,962
1098,4	9,248
1098,8	13,276
1099,2	17,39
1099,6	17,362
1100,1	19,762
1100,5	15,276
1100,9	12,905
1101,3	12,019
1101,7	9,19
1102,1	4,676
1102,5	6,133
1102,9	6,276
1103,3	7,99
1103,7	11,705
1104,2	8,162
1104,6	9,019
1105	9,448
1105,4	6,476
1105,8	3,962
1106,2	1,762
1106,6	-1,41
1107	0,276
1107,4	-0,2
1107,8	-1,027
1108,3	-0,417
