Data from Subt2_270.txt Node
Date: Sat Aug 26 19:03:28 MSK 2023
User: vat
Spectrometer: MAYP114033
Trigger mode: 0
Integration Time (sec): 1,000000E0
Scans to average: 5
Electric dark correction enabled: true
Nonlinearity correction enabled: false
Boxcar width: 3
XAxis mode: Wavelengths
Number of Pixels in Spectrum: 2068
>>>>>Begin Spectral Data<<<<<
199,4	-0,467
199,9	0,813
200,4	3,1
200,8	3,419
201,3	0,362
201,8	0,39
202,2	-0,981
202,7	1,133
203,2	-0,01
203,6	-0,867
204,1	-2,638
204,6	-0,638
205	1,819
205,5	3,505
206	3,505
206,4	2,79
206,9	-0,495
207,4	4,19
207,8	4,419
208,3	-0,981
208,8	-1,552
209,2	-1,038
209,7	2,162
210,2	8,562
210,6	6,162
211,1	11,448
211,5	13,419
212	16,19
212,5	15,419
212,9	8,705
213,4	7,39
213,9	2,733
214,3	-0,181
214,8	2,476
215,3	2,648
215,7	5,819
216,2	12,362
216,7	13,048
217,1	18,762
217,6	22,705
218,1	23,162
218,5	16,105
219	6,048
219,5	7,562
219,9	0,905
220,4	7,133
220,9	1,619
221,3	0,733
221,8	4,676
222,3	11,419
222,7	10,705
223,2	14,533
223,6	7,648
224,1	9,905
224,6	15,476
225	13,19
225,5	13,276
226	9,733
226,4	10,105
226,9	8,619
227,4	8,59
227,8	-1,267
228,3	2,876
228,8	0,79
229,2	1,39
229,7	1,305
230,2	-0,381
230,6	1,476
231,1	7,39
231,5	5,705
232	7,305
232,5	10,276
232,9	12,448
233,4	14,133
233,9	10,933
234,3	7,59
234,8	8,533
235,3	8,362
235,7	6,076
236,2	2,305
236,7	8,076
237,1	11,533
237,6	9,048
238,1	7,448
238,5	5,533
239	6,676
239,4	11,819
239,9	4,762
240,4	1,362
240,8	6,533
241,3	3,962
241,8	2,676
242,2	0,448
242,7	-4,581
243,2	-5,81
243,6	-8,352
244,1	-11,467
244,6	-3,381
245	-1,438
245,5	0,248
245,9	-2,524
246,4	-0,524
246,9	4,819
247,3	6,848
247,8	6,79
248,3	5,933
248,7	6,876
249,2	11,762
249,7	11,476
250,1	10,048
250,6	9,105
251	5,848
251,5	11,848
252	10,476
252,4	13,019
252,9	11,962
253,4	7,962
253,8	8,248
254,3	11,219
254,8	10,105
255,2	9,476
255,7	6,448
256,1	8,733
256,6	12,219
257,1	14,019
257,5	7,905
258	5,476
258,5	5,676
258,9	3,876
259,4	0,876
259,9	2,762
260,3	-1,61
260,8	-1,495
261,2	-2,038
261,7	-0,552
262,2	-3,952
262,6	-4,581
263,1	-5,238
263,6	-0,81
264	5,448
264,5	8,848
264,9	9,876
265,4	17,219
265,9	17,676
266,3	20,305
266,8	21,99
267,3	17,133
267,7	12,648
268,2	10,048
268,7	10,419
269,1	16,905
269,6	10,076
270	10,876
270,5	10,962
271	13,905
271,4	14,276
271,9	5,562
272,4	5,819
272,8	9,819
273,3	4,019
273,7	7,648
274,2	6,962
274,7	7,019
275,1	15,59
275,6	12,533
276,1	9,19
276,5	13,219
277	9,59
277,4	8,105
277,9	9,876
278,4	11,848
278,8	12,59
279,3	17,705
279,8	18,876
280,2	19,848
280,7	21,076
281,1	17,19
281,6	11,048
282,1	11,419
282,5	6,133
283	6,305
283,4	4,59
283,9	5,505
284,4	10,876
284,8	9,076
285,3	4,619
285,8	10,448
286,2	5,305
286,7	7,533
287,1	4,276
287,6	2,276
288,1	3,762
288,5	7,59
289	5,219
289,5	6,648
289,9	3,276
290,4	9,162
290,8	7,362
291,3	10,133
291,8	11,019
292,2	8,305
292,7	13,819
293,1	16,333
293,6	14,848
294,1	17,876
294,5	15,59
295	15,933
295,5	15,105
295,9	12,619
296,4	9,905
296,8	5,39
297,3	1,219
297,8	1,333
298,2	-2,381
298,7	3,533
299,1	1,533
299,6	2,362
300,1	4,762
300,5	6,59
301	9,048
301,5	12,99
301,9	9,505
302,4	5,448
302,8	5,819
303,3	4,133
303,8	-1,467
304,2	-3,267
304,7	-4,41
305,1	-8,61
305,6	-6,695
306,1	3,848
306,5	5,448
307	15,705
307,4	17,305
307,9	16,905
308,4	20,19
308,8	15,648
309,3	6,305
309,8	5,848
310,2	0,333
310,7	-3,067
311,1	-1,067
311,6	0,505
312,1	3,162
312,5	8,133
313	6,362
313,4	6,19
313,9	6,59
314,4	5,362
314,8	-0,61
315,3	2,648
315,7	-2,295
316,2	0,362
316,7	0,876
317,1	7,105
317,6	5,448
318	15,448
318,5	14,133
319	15,876
319,4	17,362
319,9	22,248
320,3	18,19
320,8	18,133
321,3	15,276
321,7	20,276
322,2	18,448
322,6	16,505
323,1	13,162
323,6	11,99
324	10,305
324,5	6,362
324,9	5,99
325,4	5,448
325,9	9,676
326,3	10,448
326,8	12,619
327,2	9,933
327,7	11,762
328,2	7,105
328,6	8,162
329,1	-1,838
329,5	-3,01
330	-3,981
330,5	2,533
330,9	5,933
331,4	7,962
331,8	5,99
332,3	12,99
332,8	15,676
333,2	15,733
333,7	16,248
334,1	12,905
334,6	11,105
335,1	8,933
335,5	10,19
336	7,819
336,4	7,733
336,9	9,533
337,4	11,533
337,8	11,676
338,3	16,962
338,7	14,733
339,2	12,648
339,7	13,79
340,1	8,39
340,6	7,105
341	6,933
341,5	7,705
342	8,019
342,4	6,448
342,9	7,105
343,3	10,79
343,8	8,076
344,2	8,905
344,7	12,048
345,2	10,133
345,6	12,676
346,1	12,305
346,5	5,219
347	7,39
347,5	8,79
347,9	6,905
348,4	6,676
348,8	7,705
349,3	7,048
349,8	11,933
350,2	16,076
350,7	10,619
351,1	15,162
351,6	19,39
352	23,019
352,5	27,162
353	36,076
353,4	37,848
353,9	49,276
354,3	53,019
354,8	58,133
355,3	73,905
355,7	85,219
356,2	97,448
356,6	112,99
357,1	133,876
357,5	155,19
358	181,733
358,5	202,648
358,9	232,562
359,4	263,676
359,8	306,676
360,3	355,505
360,8	401,876
361,2	459,476
361,7	520,305
362,1	591,619
362,6	667,79
363	744,619
363,5	821,505
364	915,79
364,4	1002,933
364,9	1093,533
365,3	1180,676
365,8	1263,533
366,3	1338,362
366,7	1410,533
367,2	1471,933
367,6	1521,619
368,1	1570,162
368,5	1596,219
369	1612,162
369,5	1620,848
369,9	1608,79
370,4	1580,59
370,8	1551,305
371,3	1503,362
371,7	1450,19
372,2	1386,219
372,7	1321,305
373,1	1251,162
373,6	1180,219
374	1109,819
374,5	1031,476
374,9	962,79
375,4	896,248
375,9	823,848
376,3	762,276
376,8	699,19
377,2	641,648
377,7	587,676
378,2	534,419
378,6	491,962
379,1	450,79
379,5	412,419
380	384,133
380,4	349,562
380,9	322,39
381,4	295,819
381,8	274,619
382,3	258,819
382,7	241,19
383,2	223,505
383,6	208,933
384,1	195,79
384,6	188,733
385	172,39
385,5	157,705
385,9	147,248
386,4	134,562
386,8	127,362
387,3	116,019
387,7	105,676
388,2	100,962
388,7	96,19
389,1	90,448
389,6	85,133
390	77,819
390,5	78,305
390,9	73,99
391,4	70,019
391,9	64,79
392,3	63,59
392,8	61,505
393,2	54,276
393,7	49,733
394,1	44,505
394,6	40,39
395,1	38,39
395,5	32,733
396	30,933
396,4	33,276
396,9	30,219
397,3	33,39
397,8	33,648
398,2	30,019
398,7	32,276
399,2	33,048
399,6	30,39
400,1	31,219
400,5	27,876
401	28,79
401,4	26,962
401,9	28,39
402,4	28,39
402,8	28,019
403,3	29,562
403,7	28,362
404,2	26,819
404,6	33,362
405,1	32,19
405,5	28,448
406	31,619
406,5	28,476
406,9	32,676
407,4	30,962
407,8	31,133
408,3	33,362
408,7	32,248
409,2	37,448
409,6	39,705
410,1	38,562
410,6	45,562
411	46,99
411,5	47,333
411,9	55,105
412,4	53,733
412,8	59,762
413,3	60,848
413,7	58,619
414,2	58,162
414,7	60,848
415,1	66,562
415,6	67,133
416	69,048
416,5	72,19
416,9	75,676
417,4	76,762
417,8	82,305
418,3	78,219
418,8	83,962
419,2	87,448
419,7	90,476
420,1	88,133
420,6	90,562
421	85,648
421,5	89,248
421,9	86,648
422,4	84,533
422,8	83,076
423,3	88,39
423,8	85,99
424,2	84,448
424,7	81,933
425,1	88,162
425,6	90,99
426	92,305
426,5	94,819
426,9	97,419
427,4	95,705
427,9	91,476
428,3	85,819
428,8	80,876
429,2	78,59
429,7	72,276
430,1	70,648
430,6	75,362
431	78,762
431,5	82,562
431,9	78,048
432,4	82,048
432,8	86,105
433,3	88,619
433,8	83,648
434,2	86,705
434,7	86,305
435,1	90,848
435,6	92,505
436	92,905
436,5	99,505
436,9	100,562
437,4	100,933
437,8	103,076
438,3	110,419
438,8	112,676
439,2	114,476
439,7	114,048
440,1	123,848
440,6	132,676
441	132,705
441,5	134,848
441,9	136,905
442,4	138,305
442,8	142,962
443,3	146,305
443,7	146,048
444,2	156,276
444,7	162,162
445,1	168,019
445,6	173,819
446	181,105
446,5	187,019
446,9	191,419
447,4	192,248
447,8	198,79
448,3	207,905
448,7	216,362
449,2	226,048
449,6	238,019
450,1	245,819
450,6	259,705
451	267,933
451,5	271,819
451,9	283,705
452,4	292,362
452,8	295,59
453,3	311,648
453,7	313,505
454,2	327,79
454,6	342,99
455,1	349,619
455,5	357,248
456	376,562
456,4	383,419
456,9	399,448
457,3	409,59
457,8	419,79
458,3	437,048
458,7	451,848
459,2	461,79
459,6	475,333
460,1	493,219
460,5	502,248
461	519,39
461,4	533,076
461,9	544,305
462,3	559,448
462,8	576,733
463,2	585,39
463,7	600,876
464,1	617,276
464,6	634,333
465	651,905
465,5	666,276
466	682,619
466,4	706,19
466,9	727,19
467,3	744,762
467,8	759,476
468,2	775,419
468,7	791,419
469,1	816,505
469,6	834,505
470	850,305
470,5	868,048
470,9	885,076
471,4	903,305
471,8	925,476
472,3	937,248
472,7	953,99
473,2	969,79
473,6	986,619
474,1	1013,162
474,5	1030,219
475	1044,39
475,4	1062,048
475,9	1078,99
476,4	1098,276
476,8	1117,276
477,3	1133,019
477,7	1154,505
478,2	1173,533
478,6	1190,133
479,1	1206,39
479,5	1227,505
480	1239,705
480,4	1254,876
480,9	1273,019
481,3	1290,105
481,8	1306,819
482,2	1319,333
482,7	1332,762
483,1	1353,162
483,6	1364,79
484	1377,019
484,5	1391,305
484,9	1399,848
485,4	1417,219
485,8	1432,048
486,3	1443,105
486,7	1453,562
487,2	1462,476
487,6	1474,448
488,1	1484,362
488,5	1492,848
489	1500,19
489,4	1511,505
489,9	1521,076
490,4	1533,848
490,8	1541,848
491,3	1557,705
491,7	1565,133
492,2	1579,762
492,6	1584,705
493,1	1597,505
493,5	1600,362
494	1610,419
494,4	1618,419
494,9	1629,019
495,3	1636,305
495,8	1643,562
496,2	1651,476
496,7	1662,048
497,1	1672,533
497,6	1681,762
498	1694,019
498,5	1698,362
498,9	1705,648
499,4	1714,848
499,8	1725,648
500,3	1728,733
500,7	1730,219
501,2	1726,276
501,6	1725,39
502,1	1728,505
502,5	1730,876
503	1729,933
503,4	1735,876
503,9	1741,505
504,3	1754,562
504,8	1758,619
505,2	1768,648
505,7	1768,648
506,1	1778,219
506,6	1775,362
507	1779,562
507,5	1780,676
507,9	1787,676
508,4	1790,562
508,8	1799,648
509,3	1799,876
509,7	1811,99
510,2	1813,476
510,6	1811,048
511,1	1820,248
511,5	1826,762
512	1827,476
512,4	1835,819
512,9	1838,362
513,3	1848,648
513,8	1857,533
514,2	1859,105
514,7	1861,076
515,1	1870,619
515,6	1872,333
516	1874,476
516,5	1878,962
516,9	1884,819
517,4	1890,219
517,8	1897,619
518,3	1901,276
518,7	1907,419
519,2	1909,676
519,6	1911,076
520,1	1914,476
520,5	1921,619
521	1921,562
521,4	1928,933
521,9	1934,619
522,3	1948,505
522,8	1956,276
523,2	1965,076
523,7	1967,333
524,1	1978,733
524,6	1979,133
525	1983,105
525,5	1986,79
525,9	1994,876
526,4	2000,533
526,8	2006,162
527,3	2009,933
527,7	2016,762
528,2	2023,99
528,6	2024,305
529,1	2028,362
529,5	2032,105
530	2038,048
530,4	2041,076
530,9	2047,276
531,3	2054,333
531,8	2065,19
532,2	2075,276
532,6	2083,162
533,1	2099,248
533,5	2109,99
534	2113,933
534,4	2119,733
534,9	2125,333
535,3	2128,19
535,8	2136,905
536,2	2140,705
536,7	2144,705
537,1	2154,276
537,6	2160,562
538	2168,705
538,5	2176,305
538,9	2181,333
539,4	2186,476
539,8	2193,248
540,3	2205,333
540,7	2210,505
541,2	2211,076
541,6	2220,962
542,1	2231,905
542,5	2237,076
543	2253,162
543,4	2254,962
543,9	2273,048
544,3	2285,648
544,8	2289,162
545,2	2295,676
545,7	2305,133
546,1	2309,619
546,5	2321,819
547	2320,362
547,4	2326,276
547,9	2333,648
548,3	2338,362
548,8	2343,505
549,2	2342,562
549,7	2348,448
550,1	2359,333
550,6	2364,933
551	2370,333
551,5	2371,305
551,9	2379,39
552,4	2388,733
552,8	2394,019
553,3	2393,962
553,7	2400,819
554,2	2407,305
554,6	2418,99
555,1	2424,505
555,5	2430,505
555,9	2440,105
556,4	2445,99
556,8	2455,733
557,3	2459,99
557,7	2467,019
558,2	2470,362
558,6	2477,219
559,1	2473,562
559,5	2481,933
560	2483,819
560,4	2490,076
560,9	2485,19
561,3	2490,876
561,8	2494,705
562,2	2503,419
562,7	2502,676
563,1	2506,248
563,6	2510,276
564	2521,248
564,4	2521,876
564,9	2520,019
565,3	2518,305
565,8	2523,733
566,2	2530,476
566,7	2538,562
567,1	2541,533
567,6	2543,762
568	2548,133
568,5	2554,962
568,9	2555,533
569,4	2556,048
569,8	2555,562
570,3	2555,362
570,7	2558,962
571,1	2567,59
571,6	2571,162
572	2576,162
572,5	2578,848
572,9	2577,39
573,4	2580,819
573,8	2585,533
574,3	2579,876
574,7	2575,705
575,2	2574,162
575,6	2570,305
576,1	2574,733
576,5	2576,076
576,9	2570,248
577,4	2571,019
577,8	2571,133
578,3	2573,133
578,7	2572,819
579,2	2570,59
579,6	2569,333
580,1	2565,962
580,5	2562,19
581	2564,448
581,4	2562,762
581,9	2558,133
582,3	2548,619
582,7	2547,019
583,2	2545,619
583,6	2542,19
584,1	2538,933
584,5	2535,533
585	2537,276
585,4	2529,905
585,9	2526,819
586,3	2520,905
586,8	2520,219
587,2	2514,105
587,6	2517,333
588,1	2516,619
588,5	2521,476
589	2514,876
589,4	2513,848
589,9	2508,648
590,3	2501,162
590,8	2491,59
591,2	2485,962
591,7	2485,133
592,1	2481,59
592,5	2482,733
593	2480,905
593,4	2478,476
593,9	2471,162
594,3	2461,39
594,8	2452,248
595,2	2447,162
595,7	2443,505
596,1	2439,019
596,6	2432,219
597	2430,876
597,4	2431,705
597,9	2431,219
598,3	2432,276
598,8	2422,562
599,2	2418,076
599,7	2416,276
600,1	2409,848
600,6	2399,762
601	2385,733
601,4	2389,619
601,9	2390,333
602,3	2383,019
602,8	2380,876
603,2	2375,162
603,7	2373,905
604,1	2379,619
604,6	2356,79
605	2344,619
605,4	2343,619
605,9	2334,762
606,3	2323,305
606,8	2314,476
607,2	2298,562
607,7	2290,305
608,1	2284,733
608,6	2275,219
609	2277,59
609,4	2273,99
609,9	2269,362
610,3	2268,048
610,8	2263,305
611,2	2257,476
611,7	2251,105
612,1	2234,305
612,6	2231,39
613	2222,276
613,4	2211,762
613,9	2209,676
614,3	2201,476
614,8	2197,048
615,2	2192,162
615,7	2181,905
616,1	2171,762
616,6	2163,333
617	2152,076
617,4	2143,562
617,9	2137,619
618,3	2130,362
618,8	2125,162
619,2	2117,105
619,7	2110,276
620,1	2103,876
620,5	2101,848
621	2085,305
621,4	2075,762
621,9	2061,305
622,3	2053,362
622,8	2042,219
623,2	2027,848
623,6	2016,333
624,1	2010,362
624,5	2003,905
625	2001,99
625,4	1996,248
625,9	1988,533
626,3	1981,962
626,8	1965,79
627,2	1956,962
627,6	1936,676
628,1	1921,79
628,5	1916,476
629	1909,162
629,4	1903,876
629,9	1899,219
630,3	1883,219
630,7	1878,362
631,2	1870,019
631,6	1850,419
632,1	1838,162
632,5	1824,848
633	1815,019
633,4	1808,133
633,8	1799,819
634,3	1792,676
634,7	1789,99
635,2	1776,019
635,6	1766,248
636,1	1757,762
636,5	1744,39
636,9	1730,762
637,4	1717,105
637,8	1699,933
638,3	1696,362
638,7	1686,133
639,2	1667,219
639,6	1663,705
640	1656,819
640,5	1650,648
640,9	1645,819
641,4	1635,162
641,8	1632,219
642,2	1630,59
642,7	1626,219
643,1	1626,648
643,6	1615,676
644	1608,848
644,5	1605,476
644,9	1594,562
645,3	1590,99
645,8	1574,59
646,2	1559,933
646,7	1554,762
647,1	1545,39
647,6	1535,933
648	1532,562
648,4	1519,219
648,9	1513,362
649,3	1505,048
649,8	1499,39
650,2	1492,705
650,6	1484,676
651,1	1466,619
651,5	1467,848
652	1462,19
652,4	1453,933
652,9	1445,79
653,3	1437,248
653,7	1427,105
654,2	1420,476
654,6	1406,105
655,1	1401,819
655,5	1399,762
655,9	1387,048
656,4	1376,962
656,8	1371,648
657,3	1367,876
657,7	1361,076
658,2	1349,076
658,6	1333,476
659	1333,076
659,5	1321,305
659,9	1313,933
660,4	1309,419
660,8	1300,676
661,2	1293,762
661,7	1293,648
662,1	1278,333
662,6	1271,733
663	1262,162
663,4	1251,848
663,9	1241,019
664,3	1230,476
664,8	1214,505
665,2	1206,905
665,6	1203,19
666,1	1192,905
666,5	1182,448
667	1180,99
667,4	1178,59
667,9	1172,905
668,3	1169,133
668,7	1159,619
669,2	1158,848
669,6	1149,876
670,1	1138,219
670,5	1121,019
670,9	1117,105
671,4	1108,448
671,8	1099,333
672,3	1091,59
672,7	1088,905
673,1	1079,362
673,6	1080,19
674	1076,305
674,5	1067,705
674,9	1061,619
675,3	1048,59
675,8	1039,105
676,2	1031,933
676,7	1020,705
677,1	1008,848
677,5	1004,076
678	1001,276
678,4	1002,419
678,9	996,933
679,3	993,619
679,7	990,933
680,2	984,59
680,6	974,619
681,1	969,99
681,5	964,79
681,9	961,048
682,4	954,39
682,8	949,848
683,3	943,762
683,7	941,019
684,1	931,905
684,6	918,962
685	913,933
685,5	906,305
685,9	893,076
686,3	888,962
686,8	882,648
687,2	876,99
687,7	865,533
688,1	853,619
688,5	851,305
689	852,105
689,4	843,562
689,9	835,505
690,3	827,648
690,7	827,562
691,2	825,448
691,6	817,562
692	809,219
692,5	806,876
692,9	804,019
693,4	801,762
693,8	798,562
694,2	790,705
694,7	785,248
695,1	777,962
695,6	770,619
696	767,79
696,4	760,876
696,9	753,99
697,3	746,933
697,8	742,619
698,2	738,619
698,6	734,076
699,1	726,619
699,5	721,248
699,9	715,133
700,4	707,533
700,8	702,19
701,3	700,619
701,7	693,619
702,1	684,819
702,6	683,79
703	679,476
703,5	677,505
703,9	671,419
704,3	667,533
704,8	664,762
705,2	664,419
705,6	656,733
706,1	651,848
706,5	646,79
707	644,076
707,4	638,79
707,8	635,362
708,3	631,819
708,7	630,448
709,2	626,333
709,6	625,333
710	621,676
710,5	613,248
710,9	607,619
711,3	602,39
711,8	595,676
712,2	592,162
712,7	586,276
713,1	582,533
713,5	581,276
714	580,105
714,4	575,733
714,8	572,876
715,3	570,59
715,7	567,333
716,2	561,59
716,6	560,39
717	552,676
717,5	547,048
717,9	546,533
718,3	537,733
718,8	534,819
719,2	528,476
719,7	519,876
720,1	517,819
720,5	518,476
721	506,219
721,4	507,733
721,8	507,105
722,3	502,59
722,7	504,476
723,2	496,39
723,6	483,99
724	483,419
724,5	475,79
724,9	468,248
725,3	467,476
725,8	459,505
726,2	458,048
726,7	456,333
727,1	456,362
727,5	458,648
728	457,533
728,4	455,362
728,8	452,59
729,3	449,448
729,7	449,848
730,1	443,305
730,6	438,733
731	432,448
731,5	428,876
731,9	425,99
732,3	420,962
732,8	419,648
733,2	418,276
733,6	412,276
734,1	412,619
734,5	407,076
734,9	407,333
735,4	406,476
735,8	400,99
736,3	402,076
736,7	403,219
737,1	398,076
737,6	399,819
738	392,333
738,4	391,448
738,9	393,962
739,3	387,076
739,7	385,933
740,2	384,705
740,6	386,019
741,1	391,39
741,5	384,476
741,9	378,705
742,4	383,362
742,8	376,105
743,2	371,048
743,7	361,305
744,1	353,505
744,5	353,933
745	349,019
745,4	337,362
745,8	338,219
746,3	338,076
746,7	338,048
747,2	338,448
747,6	339,619
748	341,99
748,5	345,848
748,9	338,219
749,3	336,305
749,8	334,448
750,2	329,276
750,6	326,533
751,1	324,333
751,5	318,933
751,9	320,79
752,4	319,105
752,8	316,419
753,3	315,248
753,7	312,848
754,1	308,076
754,6	302,962
755	297,305
755,4	294,933
755,9	290,762
756,3	287,962
756,7	285,105
757,2	285,276
757,6	286,705
758	285,276
758,5	281,99
758,9	283,505
759,3	284,533
759,8	281,762
760,2	273,248
760,6	270,819
761,1	270,705
761,5	270,305
761,9	265,333
762,4	259,333
762,8	257,248
763,3	258,133
763,7	257,876
764,1	258,619
764,6	258,419
765	260,276
765,4	258,79
765,9	260,933
766,3	263,848
766,7	259,305
767,2	252,99
767,6	249,962
768	247,362
768,5	248,133
768,9	243,819
769,3	242,962
769,8	241,105
770,2	242,562
770,6	239,79
771,1	242,419
771,5	238,619
771,9	237,962
772,4	234,762
772,8	234,019
773,2	231,39
773,7	228,333
774,1	221,476
774,5	215,333
775	213,419
775,4	215,162
775,8	211,248
776,3	211,762
776,7	211,505
777,1	211,476
777,6	217,59
778	215,905
778,4	207,705
778,9	210,59
779,3	208,276
779,7	210,533
780,2	207,305
780,6	204,333
781	201,419
781,5	196,39
781,9	191,39
782,3	187,133
782,8	182,133
783,2	182,133
783,6	182,448
784,1	180,219
784,5	179,39
784,9	180,333
785,4	187,762
785,8	190,962
786,2	190,619
786,7	190,619
787,1	188,333
787,5	193,419
788	193,076
788,4	185,162
788,8	179,705
789,3	177,619
789,7	173,733
790,1	174,876
790,6	173,562
791	168,99
791,4	171,99
791,9	171,333
792,3	166,105
792,7	168,762
793,2	164,705
793,6	164,733
794	168,562
794,5	160,162
794,9	160,305
795,3	162,448
795,8	158,648
796,2	162,676
796,6	161,019
797,1	158,248
797,5	160,933
797,9	156,19
798,4	155,162
798,8	150,333
799,2	145,333
799,7	142,962
800,1	138,533
800,5	136,705
801	141,133
801,4	136,276
801,8	135,905
802,2	136,619
802,7	127,762
803,1	132,476
803,5	129,476
804	120,99
804,4	121,533
804,8	123,762
805,3	122,733
805,7	130,362
806,1	124,962
806,6	129,59
807	133,533
807,4	135,505
807,9	129,99
808,3	128,99
808,7	128,905
809,2	133,219
809,6	132,933
810	127,448
810,4	128,362
810,9	129,533
811,3	130,333
811,7	125,648
812,2	128,476
812,6	122,333
813	127,676
813,5	124,448
813,9	123,705
814,3	116,248
814,8	116,705
815,2	109,505
815,6	107,59
816,1	107,105
816,5	106,762
816,9	106,648
817,3	109,39
817,8	112,276
818,2	109,219
818,6	109,79
819,1	106,59
819,5	102,39
819,9	102,876
820,4	104,133
820,8	101,933
821,2	98,733
821,7	103,59
822,1	106,105
822,5	109,19
822,9	108,533
823,4	109,019
823,8	109,248
824,2	114,162
824,7	106,448
825,1	101,762
825,5	96,848
826	92,99
826,4	92,39
826,8	90,076
827,3	89,762
827,7	87,19
828,1	91,448
828,5	92,476
829	90,79
829,4	88,648
829,8	79,933
830,3	75,562
830,7	75,419
831,1	71,79
831,6	73,448
832	77,448
832,4	74,705
832,8	80,333
833,3	78,99
833,7	80,733
834,1	76,619
834,6	74,362
835	77,733
835,4	79,676
835,8	77,733
836,3	77,19
836,7	78,705
837,1	79,076
837,6	84,505
838	74,933
838,4	74,705
838,9	74,905
839,3	75,59
839,7	75,762
840,1	73,819
840,6	71,019
841	74,133
841,4	69,705
841,9	69,076
842,3	71,505
842,7	68,848
843,1	70,819
843,6	69,448
844	67,448
844,4	72,676
844,9	75,848
845,3	73,876
845,7	77,59
846,2	75,333
846,6	72,362
847	73,019
847,4	69,476
847,9	66,419
848,3	63,648
848,7	62,705
849,2	60,419
849,6	57,019
850	57,333
850,4	56,076
850,9	57,762
851,3	59,248
851,7	53,362
852,2	57,333
852,6	61,933
853	64,076
853,4	65,419
853,9	60,933
854,3	62,276
854,7	63,562
855,2	61,819
855,6	60,733
856	57,848
856,4	54,305
856,9	54,59
857,3	52,59
857,7	54,59
858,2	57,448
858,6	56,962
859	58,276
859,4	63,162
859,9	61,076
860,3	56,19
860,7	56,619
861,1	56,476
861,6	55,533
862	50,505
862,4	40,705
862,9	43,39
863,3	47,905
863,7	45,362
864,1	44,905
864,6	43,476
865	45,876
865,4	54,762
865,9	55,505
866,3	52,505
866,7	51,305
867,1	45,848
867,6	46,762
868	46,562
868,4	43,105
868,8	42,648
869,3	46,305
869,7	49,39
870,1	51,705
870,6	49,962
871	30,19
871,4	35,676
871,8	30,733
872,3	31,076
872,7	27,533
873,1	24,276
873,5	24,276
874	41,019
874,4	37,305
874,8	39,362
875,3	37,533
875,7	35,648
876,1	38,133
876,5	41,448
877	41,333
877,4	35,19
877,8	36,819
878,2	38,162
878,7	40,79
879,1	39,905
879,5	35,962
879,9	36,876
880,4	41,905
880,8	40,99
881,2	35,219
881,7	35,419
882,1	41,39
882,5	39,733
882,9	39,476
883,4	35,933
883,8	34,962
884,2	35,59
884,6	33,962
885,1	27,276
885,5	28,905
885,9	29,733
886,3	32,705
886,8	31,39
887,2	27,533
887,6	32,133
888	34,705
888,5	33,133
888,9	29,476
889,3	24,162
889,8	26,59
890,2	33,905
890,6	24,476
891	24,876
891,5	23,276
891,9	25,648
892,3	31,105
892,7	30,676
893,2	28,819
893,6	33,648
894	31,819
894,4	28,933
894,9	27,505
895,3	27,59
895,7	27,79
896,1	28,59
896,6	27,619
897	27,819
897,4	33,819
897,8	33,276
898,3	31,876
898,7	29,39
899,1	28,505
899,5	27,762
900	20,962
900,4	21,962
900,8	21,562
901,2	20,133
901,7	17,448
902,1	15,19
902,5	18,19
902,9	20,905
903,4	21,505
903,8	22,362
904,2	19,019
904,6	18,933
905,1	20,419
905,5	18,248
905,9	21,533
906,3	20,162
906,8	25,19
907,2	27,533
907,6	31,305
908	31,019
908,5	27,362
908,9	23,648
909,3	21,562
909,7	17,105
910,2	15,048
910,6	15,248
911	13,362
911,4	17,848
911,9	18,676
912,3	17,79
912,7	19,905
913,1	22,733
913,6	20,105
914	23,133
914,4	18,619
914,8	19,019
915,3	14,248
915,7	12,619
916,1	14,333
916,5	18,962
916,9	17,276
917,4	23,905
917,8	24,848
918,2	26,305
918,6	21,648
919,1	21,362
919,5	18,305
919,9	17,39
920,3	9,733
920,8	10,619
921,2	12,276
921,6	13,133
922	12,476
922,5	10,276
922,9	10,162
923,3	9,305
923,7	6,762
924,2	6,933
924,6	10,248
925	9,048
925,4	8,848
925,8	7,59
926,3	12,19
926,7	10,248
927,1	15,705
927,5	12,648
928	12,448
928,4	14,619
928,8	15,619
929,2	16,448
929,7	20,59
930,1	18,59
930,5	20,048
930,9	23,133
931,3	21,876
931,8	25,19
932,2	20,476
932,6	18,448
933	10,048
933,5	10,333
933,9	9,962
934,3	9,99
934,7	5,705
935,2	9,676
935,6	8,076
936	12,705
936,4	13,476
936,8	12,733
937,3	14,162
937,7	15,333
938,1	20,162
938,5	17,876
939	21,505
939,4	20,59
939,8	16,876
940,2	16,448
940,6	20,076
941,1	14,59
941,5	22,39
941,9	19,962
942,3	19,133
942,8	21,676
943,2	23,448
943,6	16,219
944	19,076
944,4	17,619
944,9	15,848
945,3	14,79
945,7	11,99
946,1	6,019
946,6	6,99
947	0,905
947,4	2,362
947,8	3,933
948,2	1,562
948,7	5,933
949,1	7,362
949,5	14,305
949,9	14,419
950,3	10,733
950,8	8,362
951,2	10,733
951,6	6,562
952	5,448
952,5	-4,124
952,9	-1,924
953,3	-6,952
953,7	-4,952
954,1	-1,724
954,6	-0,524
955	2,905
955,4	5,476
955,8	7,905
956,2	12,619
956,7	13,533
957,1	7,305
957,5	8,105
957,9	7,276
958,3	9,533
958,8	10,733
959,2	13,962
959,6	16,019
960	18,076
960,5	20,99
960,9	24,448
961,3	21,39
961,7	14,648
962,1	13,19
962,6	11,648
963	12,562
963,4	6,933
963,8	3,79
964,2	6,39
964,7	9,419
965,1	10,733
965,5	8,048
965,9	4,962
966,3	8,562
966,8	10,648
967,2	11,162
967,6	8,762
968	4,105
968,4	6,619
968,9	11,133
969,3	12,676
969,7	8,19
970,1	7,39
970,5	7,048
971	9,99
971,4	11,733
971,8	13,333
972,2	12,79
972,6	14,19
973,1	16,362
973,5	17,448
973,9	18,419
974,3	15,105
974,7	17,962
975,2	19,648
975,6	19,876
976	18,676
976,4	20,676
976,8	17,619
977,3	16,648
977,7	8,562
978,1	5,619
978,5	3,99
978,9	-1,238
979,4	-6,152
979,8	-5,067
980,2	0,533
980,6	1,676
981	-0,038
981,5	3,448
981,9	8,619
982,3	13,619
982,7	13,733
983,1	8,162
983,6	10,79
984	12,305
984,4	12,619
984,8	12,505
985,2	12,99
985,6	8,99
986,1	10,848
986,5	9,762
986,9	6,305
987,3	5,705
987,7	4,562
988,2	0,79
988,6	6,562
989	3,448
989,4	1,162
989,8	2,562
990,3	0,105
990,7	2,848
991,1	4,933
991,5	1,076
991,9	6,476
992,3	8,048
992,8	8,705
993,2	8,848
993,6	11,105
994	12,562
994,4	17,305
994,9	14,876
995,3	14,905
995,7	14,676
996,1	12,162
996,5	5,133
996,9	3,219
997,4	1,39
997,8	-2,695
998,2	-3,381
998,6	-4,752
999	1,619
999,5	3,819
999,9	3,676
1000,3	5,619
1000,7	7,619
1001,1	9,362
1001,5	13,676
1002	12,419
1002,4	13,619
1002,8	12,448
1003,2	7,876
1003,6	12,505
1004	16,076
1004,5	10,533
1004,9	12,248
1005,3	8,19
1005,7	8,39
1006,1	9,619
1006,6	3,876
1007	1,676
1007,4	4,305
1007,8	0,905
1008,2	-0,724
1008,6	4,19
1009,1	5,619
1009,5	9,248
1009,9	8,362
1010,3	6,848
1010,7	7,562
1011,1	10,905
1011,6	7,019
1012	10,476
1012,4	8,505
1012,8	6,562
1013,2	10,276
1013,6	7,505
1014,1	9,905
1014,5	9,333
1014,9	4,362
1015,3	2,133
1015,7	4,162
1016,1	3,705
1016,6	5,39
1017	2,733
1017,4	3,505
1017,8	6,133
1018,2	10,733
1018,6	6,79
1019,1	4,676
1019,5	5,905
1019,9	4,99
1020,3	3,562
1020,7	-1,552
1021,1	-5,067
1021,6	-2,295
1022	2,333
1022,4	0,648
1022,8	3,219
1023,2	4,733
1023,6	5,705
1024,1	11,933
1024,5	14,019
1024,9	5,105
1025,3	7,848
1025,7	12,219
1026,1	15,105
1026,6	18,905
1027	18,905
1027,4	19,219
1027,8	24,905
1028,2	20,248
1028,6	20,305
1029	16,048
1029,5	18,305
1029,9	11,419
1030,3	8,39
1030,7	9,39
1031,1	14,962
1031,5	11,59
1032	15,848
1032,4	14,162
1032,8	16,562
1033,2	20,848
1033,6	17,962
1034	17,019
1034,4	16,076
1034,9	14,676
1035,3	11,39
1035,7	16,676
1036,1	8,733
1036,5	8,79
1036,9	6,99
1037,4	8,305
1037,8	5,305
1038,2	6,705
1038,6	3,676
1039	13,305
1039,4	20,248
1039,8	15,676
1040,3	17,276
1040,7	19,048
1041,1	22,562
1041,5	21,848
1041,9	13,876
1042,3	9,705
1042,7	14,676
1043,2	11,79
1043,6	8,848
1044	5,562
1044,4	1,733
1044,8	5,076
1045,2	3,733
1045,6	6,619
1046,1	3,99
1046,5	5,162
1046,9	3,562
1047,3	3,505
1047,7	6,076
1048,1	7,19
1048,5	2,476
1049	7,562
1049,4	12,819
1049,8	14,219
1050,2	18,676
1050,6	18,019
1051	14,219
1051,4	15,676
1051,9	14,562
1052,3	13,962
1052,7	14,105
1053,1	12,59
1053,5	11,476
1053,9	12,933
1054,3	13,248
1054,8	20,133
1055,2	22,705
1055,6	29,333
1056	30,333
1056,4	28,905
1056,8	30,505
1057,2	27,733
1057,6	19,448
1058,1	11,705
1058,5	0,762
1058,9	1,705
1059,3	3,048
1059,7	1,505
1060,1	7,333
1060,5	6,79
1061	11,019
1061,4	13,505
1061,8	14,305
1062,2	12,705
1062,6	16,39
1063	15,248
1063,4	14,962
1063,8	14,876
1064,3	12,276
1064,7	11,105
1065,1	10,99
1065,5	5,39
1065,9	-1,267
1066,3	1,505
1066,7	-2,067
1067,1	-1,81
1067,6	-1,495
1068	-1,41
1068,4	6,076
1068,8	12,276
1069,2	10,133
1069,6	9,59
1070	15,133
1070,4	13,733
1070,9	13,305
1071,3	8,276
1071,7	5,562
1072,1	8,019
1072,5	5,162
1072,9	2,962
1073,3	5,19
1073,7	3,99
1074,2	5,333
1074,6	10,076
1075	8,905
1075,4	13,419
1075,8	15,19
1076,2	12,676
1076,6	15,533
1077	10,305
1077,5	7,676
1077,9	3,648
1078,3	3,162
1078,7	1,048
1079,1	1,533
1079,5	-2,21
1079,9	1,162
1080,3	-0,01
1080,7	2,19
1081,2	6,476
1081,6	4,619
1082	4,219
1082,4	8,362
1082,8	9,248
1083,2	11,79
1083,6	13,019
1084	10,705
1084,5	16,333
1084,9	12,733
1085,3	8,333
1085,7	6,562
1086,1	2,99
1086,5	3,476
1086,9	8,448
1087,3	4,533
1087,7	8,19
1088,2	11,533
1088,6	12,676
1089	13,448
1089,4	12,048
1089,8	4,905
1090,2	8,733
1090,6	5,219
1091	9,076
1091,4	9,19
1091,9	9,676
1092,3	11,733
1092,7	13,276
1093,1	11,705
1093,5	13,933
1093,9	7,533
1094,3	13,248
1094,7	15,505
1095,1	19,162
1095,5	19,333
1096	17,619
1096,4	18,162
1096,8	18,076
1097,2	16,219
1097,6	18,162
1098	13,39
1098,4	17,162
1098,8	17,19
1099,2	23,19
1099,6	24,962
1100,1	20,705
1100,5	15,876
1100,9	14,533
1101,3	12,876
1101,7	11,619
1102,1	5,762
1102,5	5,705
1102,9	8,619
1103,3	13,333
1103,7	14,819
1104,2	13,248
1104,6	12,733
1105	10,848
1105,4	12,705
1105,8	9,39
1106,2	3,848
1106,6	1,933
1107	0,562
1107,4	0,967
1107,8	3,013
1108,3	-0,117
