Data from Subt2_055.txt Node
Date: Sat Aug 26 16:29:39 MSK 2023
User: vat
Spectrometer: MAYP114033
Trigger mode: 0
Integration Time (sec): 1,000000E0
Scans to average: 5
Electric dark correction enabled: true
Nonlinearity correction enabled: false
Boxcar width: 3
XAxis mode: Wavelengths
Number of Pixels in Spectrum: 2068
>>>>>Begin Spectral Data<<<<<
199,4	-1
199,9	2,74
200,4	0,267
200,8	1,671
201,3	3,5
201,8	4,843
202,2	5,614
202,7	7,471
203,2	5,471
203,6	9,014
204,1	10,5
204,6	13,871
205	15,471
205,5	15,529
206	15,157
206,4	15,186
206,9	11,957
207,4	11,357
207,8	5,157
208,3	2,586
208,8	0,986
209,2	5,129
209,7	6,157
210,2	11,871
210,6	6,929
211,1	9,757
211,5	5,157
212	5,329
212,5	-1,014
212,9	-4,7
213,4	-4,786
213,9	-1,957
214,3	-2,071
214,8	5,271
215,3	3,129
215,7	3,529
216,2	9,071
216,7	3,757
217,1	4,671
217,6	5,643
218,1	0,757
218,5	8,271
219	15,414
219,5	13,386
219,9	16,557
220,4	17,386
220,9	15,271
221,3	17,757
221,8	11,157
222,3	3,014
222,7	0,014
223,2	-1,443
223,6	-4,357
224,1	-4,414
224,6	-4,843
225	-5,071
225,5	0,586
226	0,243
226,4	0,843
226,9	0,586
227,4	5,614
227,8	7,671
228,3	13,586
228,8	9,671
229,2	12,757
229,7	11,043
230,2	16,586
230,6	12,014
231,1	8,814
231,5	4,786
232	10,643
232,5	11,957
232,9	10,843
233,4	8,186
233,9	8,157
234,3	7,614
234,8	10,786
235,3	7,757
235,7	9,3
236,2	12,871
236,7	11,471
237,1	12,929
237,6	15,129
238,1	17,729
238,5	16,129
239	14,443
239,4	12,271
239,9	10,843
240,4	10,071
240,8	10,871
241,3	0,214
241,8	-1,129
242,2	-4,957
242,7	-3,386
243,2	0,1
243,6	2,986
244,1	2,9
244,6	6,814
245	7,414
245,5	8,386
245,9	8,214
246,4	4,729
246,9	1,5
247,3	-0,786
247,8	1,557
248,3	6,586
248,7	12,757
249,2	10,386
249,7	13,386
250,1	12,129
250,6	13,729
251	16,957
251,5	10,157
252	5,443
252,4	8,043
252,9	6,357
253,4	7,786
253,8	2,9
254,3	1,071
254,8	5,557
255,2	4,729
255,7	5,957
256,1	3,529
256,6	1,529
257,1	6,929
257,5	5,757
258	5,643
258,5	8,814
258,9	6,7
259,4	13,729
259,9	19,014
260,3	15,957
260,8	17,329
261,2	18,843
261,7	17,929
262,2	14,557
262,6	7,3
263,1	3,529
263,6	5,386
264	2,5
264,5	2,529
264,9	0,043
265,4	6,043
265,9	12,129
266,3	14,271
266,8	14,157
267,3	15,443
267,7	8,929
268,2	10,7
268,7	7,071
269,1	0,643
269,6	2,614
270	6,357
270,5	12,129
271	18,643
271,4	11,586
271,9	11,643
272,4	14,614
272,8	8,271
273,3	3,386
273,7	-1,557
274,2	-5,757
274,7	2,414
275,1	-0,671
275,6	2,557
276,1	7,786
276,5	11,443
277	13,871
277,4	17,529
277,9	12,357
278,4	17,929
278,8	19,786
279,3	13,5
279,8	14,443
280,2	8,471
280,7	3,7
281,1	11,414
281,6	9,871
282,1	6,586
282,5	13,129
283	8,271
283,4	11,757
283,9	12,471
284,4	5,786
284,8	4,814
285,3	0,671
285,8	-6,043
286,2	-6,614
286,7	-9,814
287,1	-13,186
287,6	-9,071
288,1	-5,157
288,5	-0,443
289	0,986
289,5	2,1
289,9	-0,443
290,4	3,014
290,8	5,071
291,3	-1,243
291,8	-4,014
292,2	0,214
292,7	0,929
293,1	7,814
293,6	6,014
294,1	1,243
294,5	10,129
295	11,386
295,5	11,471
295,9	12,271
296,4	8,871
296,8	13,329
297,3	13,929
297,8	13,329
298,2	12,186
298,7	8,929
299,1	9,671
299,6	12,929
300,1	11,9
300,5	14,157
301	12,529
301,5	13,986
301,9	15,5
302,4	15,729
302,8	12,786
303,3	11,957
303,8	4,271
304,2	-1,3
304,7	-3,357
305,1	-7,614
305,6	-9,071
306,1	-9,243
306,5	-11,386
307	-7,529
307,4	-6,729
307,9	-4,043
308,4	-3,071
308,8	0,729
309,3	1,957
309,8	11,071
310,2	11,557
310,7	17,386
311,1	13,386
311,6	18,7
312,1	15,271
312,5	14,843
313	5,7
313,4	4,957
313,9	3,271
314,4	6,1
314,8	3,871
315,3	5,786
315,7	8,586
316,2	8,729
316,7	11,529
317,1	7,3
317,6	6,214
318	7,243
318,5	7,243
319	3,814
319,4	6,1
319,9	4,529
320,3	6,471
320,8	4,357
321,3	2,3
321,7	2,071
322,2	3,3
322,6	0,671
323,1	1,3
323,6	4,071
324	10,586
324,5	8,757
324,9	8,414
325,4	5,471
325,9	10,7
326,3	14,443
326,8	15,757
327,2	12,9
327,7	14,814
328,2	16,271
328,6	19,557
329,1	17,1
329,5	16,157
330	13,329
330,5	10,957
330,9	13,843
331,4	8,443
331,8	8,671
332,3	9,043
332,8	6,071
333,2	5,357
333,7	5,957
334,1	6,9
334,6	11,443
335,1	14,243
335,5	15,757
336	15,557
336,4	17,671
336,9	21,214
337,4	17,7
337,8	16,329
338,3	15,586
338,7	13,3
339,2	14,271
339,7	12,186
340,1	10,671
340,6	9,443
341	11,814
341,5	11,3
342	13,557
342,4	13,243
342,9	9,871
343,3	9,186
343,8	10,386
344,2	11,243
344,7	9,957
345,2	5,3
345,6	6,929
346,1	11,7
346,5	16,014
347	20,757
347,5	17,786
347,9	15,929
348,4	20,843
348,8	19,5
349,3	17,271
349,8	12,957
350,2	11,043
350,7	13,3
351,1	14,243
351,6	15,157
352	26,129
352,5	32,014
353	39,814
353,4	43,871
353,9	53,843
354,3	70,443
354,8	85,3
355,3	96,414
355,7	116,443
356,2	138,3
356,6	166,729
357,1	193,529
357,5	228,443
358	266,471
358,5	311,271
358,9	359,5
359,4	417,386
359,8	477,843
360,3	549,129
360,8	619,443
361,2	707,871
361,7	797,1
362,1	906,329
362,6	1022,471
363	1150,443
363,5	1283,386
364	1422,3
364,4	1559,7
364,9	1702,386
365,3	1831,986
365,8	1961,729
366,3	2082,3
366,7	2189,757
367,2	2288,814
367,6	2369,814
368,1	2431,071
368,5	2473,443
369	2495,986
369,5	2497,271
369,9	2480,243
370,4	2443,814
370,8	2385,814
371,3	2317,329
371,7	2234,614
372,2	2138,986
372,7	2034,443
373,1	1930,043
373,6	1813,643
374	1698,271
374,5	1585,471
374,9	1472,843
375,4	1366,986
375,9	1266,7
376,3	1164,357
376,8	1074,9
377,2	993,643
377,7	907,557
378,2	837,986
378,6	765,157
379,1	701,614
379,5	646,871
380	596,243
380,4	547,043
380,9	510,014
381,4	472,157
381,8	440,129
382,3	408,614
382,7	376,729
383,2	346,757
383,6	321,071
384,1	298,614
384,6	275,443
385	253,871
385,5	233,386
385,9	221,7
386,4	210,414
386,8	201,957
387,3	188,414
387,7	179,729
388,2	168,614
388,7	160,786
389,1	149,443
389,6	136,957
390	127,357
390,5	118,271
390,9	114,986
391,4	112,386
391,9	107,643
392,3	98,729
392,8	93,5
393,2	83,214
393,7	84,129
394,1	78,386
394,6	66,957
395,1	62,157
395,5	61,1
396	61,557
396,4	65,043
396,9	62,443
397,3	58,157
397,8	60,986
398,2	59,043
398,7	55,757
399,2	50,271
399,6	47,5
400,1	36,757
400,5	33,871
401	38,357
401,4	39,3
401,9	41,786
402,4	44,529
402,8	43,957
403,3	51,557
403,7	57,014
404,2	52,329
404,6	49,129
405,1	46,529
405,5	41,443
406	42,871
406,5	38,929
406,9	32,871
407,4	30,471
407,8	32,729
408,3	34,729
408,7	42,243
409,2	40,557
409,6	40,786
410,1	45,043
410,6	47,871
411	46,329
411,5	44,871
411,9	42,471
412,4	47,357
412,8	52,414
413,3	52,757
413,7	55,014
414,2	61,586
414,7	69,386
415,1	70,986
415,6	79,557
416	85,443
416,5	88,843
416,9	93,557
417,4	95,5
417,8	97,643
418,3	103,329
418,8	94,071
419,2	95,586
419,7	97,3
420,1	92,129
420,6	93,957
421	90,357
421,5	91,9
421,9	98,1
422,4	98,643
422,8	98,014
423,3	103,071
423,8	103,929
424,2	107,5
424,7	109,014
425,1	108,214
425,6	109,957
426	110,5
426,5	111,986
426,9	109,5
427,4	107,071
427,9	103,9
428,3	102,214
428,8	99,9
429,2	96,443
429,7	95,043
430,1	98,443
430,6	102,014
431	100,129
431,5	101,329
431,9	99,243
432,4	105,386
432,8	112,929
433,3	111,786
433,8	113,9
434,2	117,957
434,7	118,071
435,1	123,7
435,6	127,386
436	129,529
436,5	137,243
436,9	140,9
437,4	147,871
437,8	154,929
438,3	164,757
438,8	168,5
439,2	171,843
439,7	174,557
440,1	179,243
440,6	190,643
441	196,214
441,5	197,357
441,9	208,957
442,4	217,471
442,8	229,614
443,3	237,9
443,7	239,357
444,2	254,414
444,7	268,586
445,1	271,729
445,6	277,557
446	290,414
446,5	304,729
446,9	319,5
447,4	331,014
447,8	341,671
448,3	361,214
448,7	374,557
449,2	381,1
449,6	391,329
450,1	410,5
450,6	423,186
451	436,071
451,5	450,271
451,9	470,043
452,4	493,786
452,8	516,243
453,3	529,814
453,7	547,214
454,2	568,414
454,6	588,671
455,1	612,014
455,5	631,014
456	650,014
456,4	670,471
456,9	690,329
457,3	717,557
457,8	738,614
458,3	765,643
458,7	792,643
459,2	817,529
459,6	844,957
460,1	875,386
460,5	904,9
461	931,929
461,4	955,957
461,9	979,529
462,3	1008,786
462,8	1036,1
463,2	1070,671
463,7	1094,729
464,1	1127,186
464,6	1158,7
465	1193,471
465,5	1227,7
466	1260,671
466,4	1284,471
466,9	1317,843
467,3	1349,043
467,8	1387,157
468,2	1418,3
468,7	1451,129
469,1	1481,671
469,6	1518,586
470	1555,843
470,5	1591,586
470,9	1617,014
471,4	1654,557
471,8	1685,329
472,3	1718,957
472,7	1754,671
473,2	1779,157
473,6	1814,386
474,1	1844,5
474,5	1872,386
475	1909,786
475,4	1943,3
475,9	1978,786
476,4	2012,329
476,8	2042,329
477,3	2079,586
477,7	2118,014
478,2	2148,471
478,6	2181,957
479,1	2208,814
479,5	2248,1
480	2277,414
480,4	2311,729
480,9	2340,9
481,3	2368,614
481,8	2401,786
482,2	2435,243
482,7	2461,3
483,1	2492,929
483,6	2513,3
484	2536,471
484,5	2560,014
484,9	2584,9
485,4	2607,557
485,8	2624,843
486,3	2650,071
486,7	2681,157
487,2	2704,643
487,6	2729,586
488,1	2742,3
488,5	2755,529
489	2772,243
489,4	2783,243
489,9	2792,586
490,4	2806,443
490,8	2816,3
491,3	2835,329
491,7	2845,814
492,2	2869,129
492,6	2881,614
493,1	2894,357
493,5	2903,529
494	2917,871
494,4	2929,214
494,9	2951,357
495,3	2957,757
495,8	2970,671
496,2	2981,443
496,7	2987,557
497,1	2990,957
497,6	2998,643
498	2998,043
498,5	3004,529
498,9	3006,986
499,4	3011,557
499,8	3017,243
500,3	3026,386
500,7	3030,357
501,2	3038,1
501,6	3039,929
502,1	3052,3
502,5	3051,3
503	3060,414
503,4	3062,329
503,9	3060,643
504,3	3057,957
504,8	3069,043
505,2	3063,014
505,7	3071,3
506,1	3070,186
506,6	3069,3
507	3073,643
507,5	3078,9
507,9	3073,786
508,4	3076,071
508,8	3075,014
509,3	3077,671
509,7	3078,329
510,2	3079,5
510,6	3077,357
511,1	3077,043
511,5	3075,1
512	3077,129
512,4	3071,186
512,9	3068,071
513,3	3072,757
513,8	3071,786
514,2	3071,729
514,7	3074,729
515,1	3071,157
515,6	3070,7
516	3077,929
516,5	3074,329
516,9	3066,871
517,4	3064,129
517,8	3056,1
518,3	3053,471
518,7	3047,071
519,2	3038,986
519,6	3029,7
520,1	3035,443
520,5	3029,757
521	3029,186
521,4	3030,643
521,9	3035,9
522,3	3039,986
522,8	3045,843
523,2	3046,5
523,7	3046,214
524,1	3052,3
524,6	3043,071
525	3042,414
525,5	3046,129
525,9	3046,357
526,4	3043,7
526,8	3043,929
527,3	3039,929
527,7	3046,414
528,2	3046,871
528,6	3042,186
529,1	3037,214
529,5	3037,243
530	3039,871
530,4	3040,271
530,9	3038,129
531,3	3037,3
531,8	3034,986
532,2	3037,443
532,6	3036,557
533,1	3034,014
533,5	3031,671
534	3038,986
534,4	3045,7
534,9	3058,729
535,3	3062,271
535,8	3066,643
536,2	3072,957
536,7	3076,357
537,1	3067,957
537,6	3071,957
538	3063,014
538,5	3062,157
538,9	3065,471
539,4	3061,443
539,8	3067,214
540,3	3073,557
540,7	3069,271
541,2	3071,814
541,6	3083,443
542,1	3089,071
542,5	3089,557
543	3094,586
543,4	3104,529
543,9	3104,414
544,3	3109,586
544,8	3107,929
545,2	3110,7
545,7	3122,557
546,1	3123,843
546,5	3122,3
547	3133,214
547,4	3133,929
547,9	3134,729
548,3	3135,729
548,8	3136,7
549,2	3143,186
549,7	3147,757
550,1	3149,386
550,6	3155,871
551	3163,5
551,5	3161,5
551,9	3169,043
552,4	3170,557
552,8	3172,586
553,3	3173,614
553,7	3174,1
554,2	3170,9
554,6	3176,814
555,1	3177,271
555,5	3174,271
555,9	3178,157
556,4	3182,157
556,8	3191,129
557,3	3193,957
557,7	3192,814
558,2	3195,471
558,6	3205,614
559,1	3208,357
559,5	3210,3
560	3209,529
560,4	3212,643
560,9	3220,957
561,3	3227,157
561,8	3231,929
562,2	3230,443
562,7	3231,729
563,1	3232,1
563,6	3234,414
564	3238,986
564,4	3240,186
564,9	3232,186
565,3	3236,671
565,8	3242,071
566,2	3239,671
566,7	3243,5
567,1	3242,7
567,6	3239,014
568	3251,386
568,5	3251,7
568,9	3251,7
569,4	3255,671
569,8	3257,786
570,3	3255,3
570,7	3253,814
571,1	3243,814
571,6	3245,157
572	3248,729
572,5	3250,643
572,9	3255,671
573,4	3257,643
573,8	3262,929
574,3	3264,643
574,7	3266,129
575,2	3262,614
575,6	3263,957
576,1	3254,357
576,5	3252,271
576,9	3250,014
577,4	3246,329
577,8	3241,671
578,3	3235,671
578,7	3229,757
579,2	3227,843
579,6	3231,329
580,1	3234,3
580,5	3233,957
581	3232,3
581,4	3230,7
581,9	3228,7
582,3	3223,414
582,7	3214,357
583,2	3197,529
583,6	3192,1
584,1	3185,214
584,5	3179,586
585	3174,5
585,4	3174,414
585,9	3173,243
586,3	3172,7
586,8	3165,671
587,2	3160,3
587,6	3155,929
588,1	3151,9
588,5	3147,671
589	3136,871
589,4	3132,757
589,9	3137,757
590,3	3136,786
590,8	3133,929
591,2	3124,671
591,7	3113,329
592,1	3109,671
592,5	3104,757
593	3088,586
593,4	3086,814
593,9	3075,157
594,3	3068,071
594,8	3064,214
595,2	3059,843
595,7	3054,243
596,1	3053,214
596,6	3048,014
597	3053,386
597,4	3054,843
597,9	3053,529
598,3	3049,529
598,8	3045,871
599,2	3039,357
599,7	3020,357
600,1	3011,129
600,6	3003,329
601	2995,871
601,4	2993,586
601,9	2984,729
602,3	2983,1
602,8	2985,586
603,2	2979,1
603,7	2977,614
604,1	2971,9
604,6	2957,1
605	2954,471
605,4	2945,529
605,9	2942,329
606,3	2932,871
606,8	2918,414
607,2	2909,614
607,7	2904,443
608,1	2892,814
608,6	2884,814
609	2872,186
609,4	2860,1
609,9	2860,3
610,3	2853,014
610,8	2849,5
611,2	2840,757
611,7	2828,671
612,1	2815,5
612,6	2809,929
613	2801,929
613,4	2789,871
613,9	2778,986
614,3	2772,157
614,8	2765,586
615,2	2764,243
615,7	2760,643
616,1	2743,529
616,6	2731,986
617	2718,871
617,4	2705,414
617,9	2698,071
618,3	2689,614
618,8	2678,871
619,2	2670,071
619,7	2665,929
620,1	2658,1
620,5	2649,757
621	2635,814
621,4	2623,214
621,9	2613,129
622,3	2605,5
622,8	2589,871
623,2	2583,957
623,6	2569,929
624,1	2565,929
624,5	2553,214
625	2538,471
625,4	2524,157
625,9	2517,986
626,3	2503,071
626,8	2498,414
627,2	2485,071
627,6	2473,386
628,1	2461,729
628,5	2448,871
629	2435,871
629,4	2419,071
629,9	2408,271
630,3	2390,986
630,7	2377,729
631,2	2362,471
631,6	2358,329
632,1	2345,871
632,5	2340,671
633	2321,129
633,4	2312,671
633,8	2295,214
634,3	2285,557
634,7	2271,157
635,2	2264,014
635,6	2253,1
636,1	2253,129
636,5	2244,586
636,9	2243,957
637,4	2234,043
637,8	2221,329
638,3	2204,3
638,7	2194,929
639,2	2179,357
639,6	2166,014
640	2153,1
640,5	2142,643
640,9	2134,471
641,4	2127,329
641,8	2115,9
642,2	2108,614
642,7	2098,729
643,1	2092,357
643,6	2080,157
644	2072,3
644,5	2064,214
644,9	2056,957
645,3	2046,329
645,8	2040,7
646,2	2029,443
646,7	2023,643
647,1	2012,614
647,6	1998,271
648	1982,843
648,4	1970,586
648,9	1961,557
649,3	1950,357
649,8	1946,557
650,2	1933,757
650,6	1928,214
651,1	1923,843
651,5	1921,186
652	1910,3
652,4	1899,129
652,9	1888,243
653,3	1882,5
653,7	1876,643
654,2	1865,243
654,6	1847,786
655,1	1838,557
655,5	1835,129
655,9	1821,043
656,4	1813,729
656,8	1799,557
657,3	1789,614
657,7	1782,7
658,2	1770,843
658,6	1753,186
659	1740,986
659,5	1727,7
659,9	1719,329
660,4	1711,071
660,8	1705,786
661,2	1697,586
661,7	1691,9
662,1	1686,529
662,6	1673,5
663	1664,186
663,4	1652,586
663,9	1634,329
664,3	1622,671
664,8	1612,471
665,2	1602,529
665,6	1597,757
666,1	1585,043
666,5	1579,014
667	1573,271
667,4	1566,814
667,9	1556,643
668,3	1546,1
668,7	1539,071
669,2	1531,843
669,6	1525,643
670,1	1522,129
670,5	1508,843
670,9	1506,329
671,4	1500,7
671,8	1487,957
672,3	1481,729
672,7	1469,957
673,1	1454,9
673,6	1445,757
674	1431,043
674,5	1421,186
674,9	1411,071
675,3	1398,271
675,8	1388,014
676,2	1383,357
676,7	1377,357
677,1	1374,7
677,5	1363,243
678	1355,271
678,4	1350,1
678,9	1340,071
679,3	1328,157
679,7	1322,5
680,2	1312,443
680,6	1301,786
681,1	1294,014
681,5	1283,729
681,9	1275,157
682,4	1269,186
682,8	1260,271
683,3	1251,043
683,7	1251,243
684,1	1246,671
684,6	1242,614
685	1238,5
685,5	1229,214
685,9	1219,729
686,3	1217,843
686,8	1208,643
687,2	1201,871
687,7	1194,071
688,1	1188,529
688,5	1182,986
689	1173,786
689,4	1164,786
689,9	1158,386
690,3	1153,786
690,7	1143,871
691,2	1135,329
691,6	1129,614
692	1123,757
692,5	1108,414
692,9	1097,729
693,4	1088,5
693,8	1084,271
694,2	1070,157
694,7	1066,757
695,1	1060,471
695,6	1055,871
696	1051,1
696,4	1042,1
696,9	1035,471
697,3	1030,814
697,8	1017,7
698,2	1012,843
698,6	1007,557
699,1	996,5
699,5	989,443
699,9	983,671
700,4	980,3
700,8	978,3
701,3	971,443
701,7	964,9
702,1	961,186
702,6	958,929
703	949,671
703,5	946,786
703,9	937,014
704,3	932,929
704,8	932,329
705,2	927,9
705,6	918,214
706,1	919,871
706,5	912,586
707	906,014
707,4	904,243
707,8	895,243
708,3	887,729
708,7	886,5
709,2	873,529
709,6	869,443
710	866,214
710,5	859,9
710,9	854,7
711,3	850,7
711,8	841,871
712,2	840,014
712,7	833,271
713,1	826,786
713,5	820,1
714	815,957
714,4	813,843
714,8	809,357
715,3	806,471
715,7	798,957
716,2	793,986
716,6	790,386
717	782,014
717,5	777,071
717,9	769,443
718,3	761,329
718,8	755,9
719,2	751,071
719,7	740,614
720,1	736,157
720,5	729,471
721	727,071
721,4	723,557
721,8	719,357
722,3	714,071
722,7	704,7
723,2	698,5
723,6	693,157
724	684,586
724,5	674,671
724,9	665,729
725,3	660,671
725,8	659,7
726,2	656,7
726,7	650,043
727,1	643,729
727,5	644,871
728	647,386
728,4	639,871
728,8	636,357
729,3	630,929
729,7	627,357
730,1	627,7
730,6	621,7
731	617,9
731,5	617,757
731,9	617,957
732,3	617,529
732,8	619,471
733,2	617,871
733,6	612,929
734,1	607,243
734,5	602,871
734,9	593,729
735,4	589,957
735,8	580,471
736,3	572,5
736,7	569,9
737,1	570,814
737,6	569,329
738	569,729
738,4	565,729
738,9	568,557
739,3	566,214
739,7	562,957
740,2	555,843
740,6	554,557
741,1	547,786
741,5	546,5
741,9	537,071
742,4	536,414
742,8	534,243
743,2	529,386
743,7	526,071
744,1	524,471
744,5	520,357
745	516,129
745,4	512,3
745,8	510,186
746,3	511,643
746,7	505,814
747,2	506,557
747,6	497,3
748	496,786
748,5	491,957
748,9	481,757
749,3	478,471
749,8	471,471
750,2	465,443
750,6	472,671
751,1	470,7
751,5	467,471
751,9	471,957
752,4	464,386
752,8	463,357
753,3	461,186
753,7	455,5
754,1	451,243
754,6	448,957
755	445,386
755,4	446,643
755,9	446,586
756,3	439,757
756,7	431,214
757,2	428,757
757,6	425,043
758	421,729
758,5	414,443
758,9	408,643
759,3	405,329
759,8	407,329
760,2	405,5
760,6	406,3
761,1	401,957
761,5	402,929
761,9	404,214
762,4	404,871
762,8	401,957
763,3	397,729
763,7	393,157
764,1	391,414
764,6	387,986
765	380,7
765,4	382,529
765,9	378,529
766,3	376,243
766,7	375,157
767,2	373,786
767,6	365,843
768	369,043
768,5	359,1
768,9	355,357
769,3	354,9
769,8	354,071
770,2	351,043
770,6	353,157
771,1	348,729
771,5	351,243
771,9	347,786
772,4	350,1
772,8	346,3
773,2	342,871
773,7	341,814
774,1	343,157
774,5	343,871
775	342,3
775,4	335,129
775,8	332,986
776,3	329,214
776,7	327,814
777,1	323,386
777,6	315,7
778	316,129
778,4	310,643
778,9	306,243
779,3	307,643
779,7	308,414
780,2	303,957
780,6	305,129
781	305,357
781,5	302,986
781,9	302,443
782,3	302,386
782,8	294,643
783,2	289,929
783,6	277,814
784,1	277,014
784,5	277,243
784,9	275,414
785,4	271,214
785,8	267,214
786,2	267,614
786,7	273,5
787,1	267,729
787,5	269,929
788	270,014
788,4	263,929
788,8	263,071
789,3	262,557
789,7	260,614
790,1	263,843
790,6	259,471
791	257,957
791,4	259,043
791,9	259,271
792,3	256,271
792,7	258,614
793,2	249,471
793,6	247,014
794	243,614
794,5	242,157
794,9	240,3
795,3	241,671
795,8	236,414
796,2	237,186
796,6	234,529
797,1	225,7
797,5	222,814
797,9	219,986
798,4	213,671
798,8	208,843
799,2	209,614
799,7	215,129
800,1	221,243
800,5	222,186
801	222,7
801,4	224,243
801,8	226,214
802,2	222,586
802,7	214,386
803,1	211,557
803,5	210,014
804	207,357
804,4	204,471
804,8	205,786
805,3	201,9
805,7	200,014
806,1	201,814
806,6	201,186
807	200,5
807,4	197,414
807,9	193,329
808,3	193,243
808,7	195,529
809,2	190,014
809,6	187,7
810	184,757
810,4	186,471
810,9	184,243
811,3	186,729
811,7	182,986
812,2	183,129
812,6	179,871
813	180,014
813,5	180,557
813,9	178,786
814,3	171,443
814,8	170,471
815,2	166,071
815,6	162,9
816,1	161,7
816,5	157,1
816,9	154,214
817,3	157,129
817,8	158,7
818,2	155,071
818,6	157,1
819,1	157,386
819,5	159,243
819,9	157,871
820,4	152,557
820,8	145,786
821,2	150,957
821,7	150,929
822,1	144,1
822,5	140,871
822,9	144,957
823,4	149,357
823,8	149,614
824,2	144,986
824,7	144,614
825,1	147,586
825,5	147,929
826	146,357
826,4	142,329
826,8	144,271
827,3	149,586
827,7	148,671
828,1	148,757
828,5	151,386
829	144,186
829,4	146,957
829,8	141,014
830,3	138,329
830,7	135,043
831,1	127,729
831,6	116,471
832	116,757
832,4	110,271
832,8	112,557
833,3	105,357
833,7	106,271
834,1	111,471
834,6	116,243
835	118,129
835,4	121,129
835,8	116,786
836,3	119,671
836,7	113,9
837,1	110,786
837,6	105,043
838	104,871
838,4	100,214
838,9	105,529
839,3	108,814
839,7	109,757
840,1	108,843
840,6	109,157
841	105,129
841,4	106,357
841,9	101,643
842,3	97,471
842,7	97,557
843,1	97,9
843,6	103,757
844	103,414
844,4	100,7
844,9	101,043
845,3	97,614
845,7	97,586
846,2	96,043
846,6	90,129
847	91,443
847,4	93,071
847,9	89,386
848,3	92,071
848,7	89,471
849,2	90,329
849,6	90,757
850	85,614
850,4	85,471
850,9	89,271
851,3	83,643
851,7	84,071
852,2	79,786
852,6	79,157
853	84,329
853,4	87,786
853,9	83,986
854,3	87,529
854,7	85,7
855,2	85,471
855,6	80,929
856	73,129
856,4	70,329
856,9	70,729
857,3	66,529
857,7	69,157
858,2	70,471
858,6	76,9
859	80,529
859,4	77,671
859,9	80,443
860,3	82,1
860,7	80,214
861,1	81,586
861,6	78,043
862	78,757
862,4	77,3
862,9	76,014
863,3	76,614
863,7	71,214
864,1	67,614
864,6	67,586
865	66,557
865,4	65,871
865,9	61,614
866,3	60,471
866,7	66,357
867,1	70,329
867,6	70,9
868	69,443
868,4	68,9
868,8	72,671
869,3	71,186
869,7	65,471
870,1	63,271
870,6	59,071
871	106,529
871,4	101,214
871,8	97,957
872,3	98,5
872,7	100,386
873,1	101,414
873,5	103,529
874	55,929
874,4	59,814
874,8	59,1
875,3	55,757
875,7	51,243
876,1	51,5
876,5	52,3
877	53,786
877,4	54,1
877,8	58,014
878,2	62,729
878,7	70,043
879,1	66,557
879,5	66,243
879,9	60,957
880,4	54,614
880,8	47,757
881,2	44,129
881,7	40,843
882,1	39,614
882,5	35,7
882,9	38,014
883,4	41,9
883,8	41,5
884,2	41,271
884,6	40,643
885,1	41,557
885,5	46,271
885,9	52,357
886,3	52,5
886,8	51,071
887,2	48,271
887,6	45,043
888	42,843
888,5	42,5
888,9	37,7
889,3	34,186
889,8	37,243
890,2	35,757
890,6	37,986
891	38,329
891,5	36,786
891,9	35,357
892,3	38,443
892,7	40,271
893,2	41,786
893,6	37,786
894	33,843
894,4	32,529
894,9	32,5
895,3	32,357
895,7	27,529
896,1	28,186
896,6	34,7
897	36,357
897,4	32,786
897,8	32,1
898,3	39,129
898,7	39,557
899,1	35,014
899,5	32,357
900	33,929
900,4	35,414
900,8	35,843
901,2	28,871
901,7	27,529
902,1	33,329
902,5	32,9
902,9	34,957
903,4	34,586
903,8	29,214
904,2	33,043
904,6	31,157
905,1	33,186
905,5	31,986
905,9	28,471
906,3	28,871
906,8	32,357
907,2	25,071
907,6	29,986
908	25,214
908,5	26,357
908,9	25,529
909,3	22,471
909,7	21,871
910,2	23,786
910,6	24,071
911	27,357
911,4	24,614
911,9	25,786
912,3	26,986
912,7	27,529
913,1	25,529
913,6	26,643
914	27,671
914,4	29,5
914,8	27,814
915,3	29,957
915,7	27,814
916,1	29,786
916,5	26,157
916,9	23,614
917,4	18,929
917,8	17,814
918,2	13,643
918,6	13,386
919,1	12,557
919,5	16,9
919,9	16,129
920,3	18,957
920,8	19,7
921,2	26,614
921,6	27,243
922	24,3
922,5	20,329
922,9	15,986
923,3	18,529
923,7	19,986
924,2	11,414
924,6	11,414
925	12,9
925,4	15,757
925,8	17,929
926,3	16,957
926,7	13,529
927,1	17,014
927,5	16,643
928	18,471
928,4	15,843
928,8	21,671
929,2	21,157
929,7	21,186
930,1	21,871
930,5	21,814
930,9	22,643
931,3	21,586
931,8	12,614
932,2	12,271
932,6	18,157
933	14,757
933,5	11,957
933,9	14,357
934,3	13,957
934,7	20,414
935,2	21,9
935,6	17,129
936	18,671
936,4	22,929
936,8	16,186
937,3	18,071
937,7	17,5
938,1	11,386
938,5	12,814
939	12,586
939,4	10,986
939,8	13,243
940,2	8,929
940,6	4,9
941,1	11,643
941,5	11,071
941,9	13,443
942,3	13,414
942,8	14,157
943,2	12,786
943,6	12,729
944	10,7
944,4	10,529
944,9	10,357
945,3	12,157
945,7	11,243
946,1	14,814
946,6	16,557
947	18,9
947,4	18,586
947,8	17,586
948,2	11,9
948,7	10,871
949,1	9,814
949,5	13,557
949,9	9,929
950,3	9,7
950,8	10,357
951,2	16,729
951,6	21,5
952	21,757
952,5	12,729
952,9	14,271
953,3	15,671
953,7	17,557
954,1	18,5
954,6	16,186
955	17,414
955,4	22,043
955,8	21,786
956,2	21,214
956,7	18,443
957,1	18,271
957,5	17,929
957,9	15,643
958,3	13,614
958,8	10,043
959,2	11,786
959,6	12,586
960	10,614
960,5	6,671
960,9	9,786
961,3	14,471
961,7	15,957
962,1	11,071
962,6	7,586
963	8,014
963,4	12,7
963,8	9,357
964,2	6,529
964,7	6,843
965,1	7,929
965,5	9,129
965,9	6,7
966,3	6,014
966,8	8,443
967,2	11,9
967,6	14,243
968	14,7
968,4	17,671
968,9	23,729
969,3	22,557
969,7	19,529
970,1	18,614
970,5	16,957
971	14,014
971,4	17,5
971,8	12,129
972,2	14,386
972,6	15,757
973,1	14,814
973,5	15,671
973,9	16,243
974,3	10,471
974,7	6,843
975,2	1,871
975,6	-1,443
976	-1,643
976,4	-2,129
976,8	-1,843
977,3	-2,1
977,7	-3,1
978,1	-3,357
978,5	0,157
978,9	-3,043
979,4	-7,757
979,8	-5,443
980,2	-6,329
980,6	-3,014
981	2,214
981,5	0,671
981,9	1,557
982,3	4,557
982,7	7,414
983,1	11,7
983,6	14,7
984	13,471
984,4	13,7
984,8	15,014
985,2	17,443
985,6	18,471
986,1	16,871
986,5	11,7
986,9	10,186
987,3	10,414
987,7	8,443
988,2	10,186
988,6	3,757
989	3,871
989,4	7,671
989,8	7,129
990,3	8,357
990,7	8,643
991,1	2,386
991,5	3,214
991,9	5,614
992,3	2,043
992,8	6,5
993,2	5,671
993,6	5,471
994	8,443
994,4	9,586
994,9	7,557
995,3	8,9
995,7	6,843
996,1	7,986
996,5	9,357
996,9	11,129
997,4	11,129
997,8	7,557
998,2	12,043
998,6	12,414
999	9,471
999,5	11,043
999,9	12,071
1000,3	17,271
1000,7	17,129
1001,1	14,157
1001,5	11,7
1002	12,814
1002,4	11,5
1002,8	13,271
1003,2	9,757
1003,6	13,157
1004	13,3
1004,5	9,871
1004,9	10,043
1005,3	7,471
1005,7	5,471
1006,1	5,614
1006,6	4,1
1007	0,729
1007,4	5,157
1007,8	7,5
1008,2	7,329
1008,6	0,214
1009,1	-8,471
1009,5	0,471
1009,9	5,786
1010,3	9,7
1010,7	12,1
1011,1	18,671
1011,6	20,671
1012	27,614
1012,4	21,414
1012,8	16,1
1013,2	13,871
1013,6	12,871
1014,1	11,043
1014,5	10,729
1014,9	12,214
1015,3	6,871
1015,7	9,757
1016,1	6,471
1016,6	5,814
1017	3,243
1017,4	5,043
1017,8	4,014
1018,2	4,843
1018,6	8,443
1019,1	4,814
1019,5	6,186
1019,9	9,586
1020,3	7,071
1020,7	5,186
1021,1	10,271
1021,6	3,9
1022	5,1
1022,4	7,071
1022,8	2,043
1023,2	8,786
1023,6	8,529
1024,1	10,271
1024,5	14,271
1024,9	20,5
1025,3	15,357
1025,7	19,786
1026,1	20,271
1026,6	24,3
1027	15,386
1027,4	13,986
1027,8	12,3
1028,2	14,071
1028,6	17,043
1029	11,671
1029,5	13,414
1029,9	16,871
1030,3	23,843
1030,7	20,157
1031,1	13,529
1031,5	4,786
1032	5,814
1032,4	-1,129
1032,8	-3,757
1033,2	-9,043
1033,6	-3,157
1034	1,614
1034,4	7,329
1034,9	4,586
1035,3	12,214
1035,7	18,243
1036,1	18,071
1036,5	9,729
1036,9	9,729
1037,4	10,243
1037,8	13,843
1038,2	4,557
1038,6	-1,729
1039	-5,814
1039,4	-3,386
1039,8	-8,3
1040,3	-5,557
1040,7	-11,643
1041,1	-7,986
1041,5	-6,186
1041,9	-7,1
1042,3	-3,014
1042,7	2,557
1043,2	-0,557
1043,6	9,643
1044	12,014
1044,4	8,214
1044,8	9,386
1045,2	6,043
1045,6	5,614
1046,1	8,014
1046,5	4,529
1046,9	5,843
1047,3	9,729
1047,7	10,9
1048,1	8,357
1048,5	10,529
1049	7,1
1049,4	4,757
1049,8	0,9
1050,2	4,586
1050,6	4,786
1051	10,614
1051,4	7,5
1051,9	8,386
1052,3	5,957
1052,7	12,843
1053,1	12,386
1053,5	14,043
1053,9	11,243
1054,3	10,671
1054,8	13,757
1055,2	16,471
1055,6	9,414
1056	8,5
1056,4	10,071
1056,8	10,929
1057,2	15,271
1057,6	7,814
1058,1	8,271
1058,5	7,586
1058,9	8,386
1059,3	10,243
1059,7	7,671
1060,1	2,271
1060,5	0,9
1061	2,614
1061,4	6,957
1061,8	1,786
1062,2	-0,814
1062,6	4,814
1063	9,729
1063,4	13,929
1063,8	13,814
1064,3	11,3
1064,7	14,5
1065,1	11,614
1065,5	10,414
1065,9	7,7
1066,3	5,043
1066,7	3,414
1067,1	5,014
1067,6	5,271
1068	7,243
1068,4	4,471
1068,8	3,443
1069,2	7,614
1069,6	9,5
1070	10,071
1070,4	11,471
1070,9	9,3
1071,3	9,729
1071,7	12,871
1072,1	14,586
1072,5	12,757
1072,9	14,786
1073,3	11,014
1073,7	9,529
1074,2	14,214
1074,6	9,843
1075	7,557
1075,4	6,186
1075,8	2,7
1076,2	4,757
1076,6	10,157
1077	4,986
1077,5	3,843
1077,9	4,414
1078,3	2,843
1078,7	0,414
1079,1	2,243
1079,5	-3,529
1079,9	-1,157
1080,3	2,329
1080,7	0,443
1081,2	6,614
1081,6	9,671
1082	10,1
1082,4	14,9
1082,8	10,129
1083,2	6,586
1083,6	7,071
1084	-0,443
1084,5	-1,957
1084,9	-5,186
1085,3	-6,3
1085,7	-3,586
1086,1	-0,871
1086,5	2,129
1086,9	3,071
1087,3	6,814
1087,7	8,929
1088,2	8,271
1088,6	10,1
1089	11,243
1089,4	8,729
1089,8	15,186
1090,2	11,871
1090,6	13,757
1091	16,243
1091,4	17,071
1091,9	18,357
1092,3	14,986
1092,7	7,014
1093,1	5,071
1093,5	-1,614
1093,9	-2,529
1094,3	-1,843
1094,7	-5,186
1095,1	-6,929
1095,5	-4,071
1096	-6,871
1096,4	-1,3
1096,8	-6,9
1097,2	-7,786
1097,6	-8,3
1098	-4,814
1098,4	-1,814
1098,8	4,529
1099,2	0,643
1099,6	4,243
1100,1	4,586
1100,5	7,443
1100,9	7,757
1101,3	7,757
1101,7	9,157
1102,1	9,414
1102,5	8,214
1102,9	4,214
1103,3	0,443
1103,7	-2,814
1104,2	-2,414
1104,6	-4,643
1105	-2,129
1105,4	-0,929
1105,8	0,729
1106,2	3,186
1106,6	5,3
1107	2,986
1107,4	1,767
1107,8	-0,06
1108,3	0,5
