Data from Subt2_135.txt Node
Date: Sat Aug 26 18:26:58 MSK 2023
User: vat
Spectrometer: MAYP114033
Trigger mode: 0
Integration Time (sec): 1,000000E0
Scans to average: 5
Electric dark correction enabled: true
Nonlinearity correction enabled: false
Boxcar width: 3
XAxis mode: Wavelengths
Number of Pixels in Spectrum: 2068
>>>>>Begin Spectral Data<<<<<
199,4	-0,9
199,9	-4,7
200,4	-4,267
200,8	-3,786
201,3	-6,157
201,8	-3,3
202,2	-8,557
202,7	-5,014
203,2	-3,557
203,6	-6,014
204,1	-6,957
204,6	-4,814
205	-5,329
205,5	2,529
206	-1,043
206,4	1,7
206,9	4,929
207,4	7,986
207,8	8,557
208,3	5,814
208,8	4,1
209,2	3,957
209,7	5,871
210,2	4,814
210,6	3,243
211,1	4,129
211,5	1,929
212	-0,271
212,5	-0,386
212,9	-6,3
213,4	-5,043
213,9	-6,814
214,3	-5,071
214,8	0,129
215,3	1,729
215,7	4,871
216,2	9,471
216,7	9,529
217,1	10,671
217,6	10,214
218,1	7,843
218,5	3,271
219	-3,757
219,5	-4,986
219,9	-5,1
220,4	0,414
220,9	-2,871
221,3	-2,443
221,8	3,986
222,3	6,643
222,7	8,214
223,2	7,414
223,6	0,643
224,1	0,1
224,6	3,014
225	-2,5
225,5	-2,471
226	-5,5
226,4	-1,871
226,9	1,9
227,4	1,529
227,8	-5,471
228,3	-4,157
228,8	-0,329
229,2	0,871
229,7	0,157
230,2	-3,214
230,6	6,329
231,1	14,043
231,5	16,471
232	14,186
232,5	12,1
232,9	11,957
233,4	14,471
233,9	7,386
234,3	4,871
234,8	3,243
235,3	1,386
235,7	3,243
236,2	1,014
236,7	0,414
237,1	1,986
237,6	-2,586
238,1	-3,957
238,5	-4,214
239	-1,271
239,4	2,214
239,9	1,271
240,4	-0,329
240,8	6,414
241,3	4,386
241,8	4,671
242,2	-1,129
242,7	-7,214
243,2	-6,386
243,6	-10,929
244,1	-11,957
244,6	-7,814
245	-5,471
245,5	-4,357
245,9	-2,386
246,4	-2,643
246,9	1,186
247,3	-1,043
247,8	4,214
248,3	6,843
248,7	6,471
249,2	9,757
249,7	7,471
250,1	4,986
250,6	0,3
251	-2,843
251,5	-5,986
252	-6,043
252,4	-7,129
252,9	-4,014
253,4	-0,043
253,8	5,671
254,3	4,7
254,8	4,871
255,2	5,043
255,7	3,957
256,1	5,214
256,6	5,671
257,1	4,871
257,5	1,843
258	0,814
258,5	0,671
258,9	-1,729
259,4	-6,129
259,9	-4,7
260,3	-8,043
260,8	-7,7
261,2	-8,929
261,7	-3,671
262,2	-2,757
262,6	-4,529
263,1	-5,329
263,6	-2,243
264	-1,529
264,5	4,643
264,9	-0,186
265,4	0,386
265,9	-1,5
266,3	-0,786
266,8	1,1
267,3	-2,9
267,7	-6,986
268,2	-6,5
268,7	-9,214
269,1	-4,557
269,6	-7,9
270	-10,129
270,5	-6,186
271	-7,157
271,4	-7,014
271,9	-6,843
272,4	0,7
272,8	-0,271
273,3	-2,529
273,7	3,071
274,2	7,243
274,7	7,3
275,1	8,929
275,6	3,643
276,1	3,529
276,5	6,929
277	1,843
277,4	-1,7
277,9	2,586
278,4	5,329
278,8	6,9
279,3	10,986
279,8	10,214
280,2	11,414
280,7	12,157
281,1	6,357
281,6	6,071
282,1	2,671
282,5	-0,186
283	-0,157
283,4	-2,3
283,9	-1,957
284,4	3,043
284,8	2,3
285,3	-1,271
285,8	-1,386
286,2	-2,014
286,7	-3,5
287,1	-5,586
287,6	-8,643
288,1	-12,986
288,5	-7,9
289	-6,929
289,5	-4,271
289,9	-5,614
290,4	-4,014
290,8	-2,871
291,3	1,014
291,8	4,014
292,2	4,243
292,7	5,529
293,1	8,471
293,6	8,3
294,1	7,243
294,5	6,529
295	3,471
295,5	0,614
295,9	-1,157
296,4	-0,271
296,8	-3,043
297,3	-1,614
297,8	-8,414
298,2	-11,3
298,7	-8,186
299,1	-9,929
299,6	-10,986
300,1	-6,1
300,5	-8,843
301	1,243
301,5	11,1
301,9	10,186
302,4	10,1
302,8	10,9
303,3	9,443
303,8	10,3
304,2	8,443
304,7	3,129
305,1	-0,1
305,6	-0,071
306,1	8,157
306,5	4,786
307	9,986
307,4	10,5
307,9	10,786
308,4	10,071
308,8	5,443
309,3	-3,957
309,8	-0,071
310,2	-3,043
310,7	-5,471
311,1	-9,214
311,6	-6,586
312,1	2,014
312,5	6,186
313	5,414
313,4	5,329
313,9	3,071
314,4	1,957
314,8	-0,7
315,3	-8,786
315,7	-15,186
316,2	-16,986
316,7	-18,986
317,1	-10,3
317,6	-6,929
318	-0,443
318,5	3,929
319	7,243
319,4	7,586
319,9	13,1
320,3	6,129
320,8	2,786
321,3	1,7
321,7	2,129
322,2	4,014
322,6	1,757
323,1	-2,5
323,6	-0,957
324	-1,5
324,5	-6,3
324,9	-5,214
325,4	-5,643
325,9	-1,329
326,3	-2,186
326,8	-2,243
327,2	-6,814
327,7	-0,757
328,2	0,186
328,6	1,643
329,1	-6,243
329,5	-7,729
330	-6,729
330,5	3,614
330,9	6,071
331,4	4,414
331,8	0,986
332,3	10,471
332,8	14,1
333,2	13,329
333,7	9,9
334,1	5,5
334,6	1,157
335,1	-1,157
335,5	-3,357
336	-7,443
336,4	-6,271
336,9	-1,157
337,4	-0,471
337,8	2,557
338,3	4,271
338,7	6,043
339,2	9,043
339,7	11,757
340,1	6,929
340,6	2,443
341	1,671
341,5	4,186
342	-3,157
342,4	-4,757
342,9	-9,271
343,3	-8,157
343,8	-6,214
344,2	-3,243
344,7	-1,614
345,2	5,443
345,6	6,529
346,1	12,157
346,5	7,986
347	5,271
347,5	4,271
347,9	2,3
348,4	0,443
348,8	3,671
349,3	-0,557
349,8	4,671
350,2	16,329
350,7	16,271
351,1	19,529
351,6	24,014
352	23,929
352,5	30,043
353	38,5
353,4	39,814
353,9	54,1
354,3	65,443
354,8	77,471
355,3	99,186
355,7	117,1
356,2	134,129
356,6	157,414
357,1	180,157
357,5	209,7
358	246,871
358,5	280,957
358,9	324,586
359,4	373,9
359,8	431,271
360,3	500,757
360,8	573,7
361,2	655,757
361,7	748,871
362,1	853,443
362,6	965,786
363	1085,957
363,5	1210,243
364	1343,671
364,4	1479,271
364,9	1616,557
365,3	1746,357
365,8	1875,3
366,3	1992,071
366,7	2095,443
367,2	2193,529
367,6	2271,414
368,1	2330,986
368,5	2371,271
369	2388,414
369,5	2390,9
369,9	2371,129
370,4	2333,071
370,8	2281,9
371,3	2214,386
371,7	2135,614
372,2	2048,1
372,7	1952,443
373,1	1851,614
373,6	1738,1
374	1621,443
374,5	1511,157
374,9	1408,214
375,4	1308,529
375,9	1208,157
376,3	1117,671
376,8	1028,557
377,2	951,529
377,7	873,186
378,2	796,243
378,6	727,443
379,1	668,957
379,5	615,786
380	567,729
380,4	514,9
380,9	472,9
381,4	436,443
381,8	401,786
382,3	368,5
382,7	336,957
383,2	317,014
383,6	299,471
384,1	280,757
384,6	259,9
385	240,071
385,5	226,186
385,9	206,157
386,4	188,3
386,8	175,671
387,3	162,157
387,7	152,843
388,2	143,957
388,7	135,3
389,1	130,957
389,6	120,243
390	108,986
390,5	102,9
390,9	96,186
391,4	87,957
391,9	77,986
392,3	70,671
392,8	64,871
393,2	60,757
393,7	54,757
394,1	47,071
394,6	43,157
395,1	41,243
395,5	34,9
396	33,3
396,4	33,357
396,9	30,471
397,3	36,9
397,8	40,814
398,2	39,414
398,7	48,643
399,2	53,129
399,6	51,986
400,1	54,5
400,5	48,129
401	43,786
401,4	38,957
401,9	38,643
402,4	37,7
402,8	33,7
403,3	38,157
403,7	38,3
404,2	41,957
404,6	50,843
405,1	44,557
405,5	41,9
406	48,214
406,5	43,1
406,9	49,443
407,4	48,271
407,8	47,814
408,3	56,986
408,7	60,557
409,2	65,271
409,6	70,957
410,1	72,671
410,6	81,014
411	86,586
411,5	89,5
411,9	96,529
412,4	101,9
412,8	109,471
413,3	115,414
413,7	122,586
414,2	127,329
414,7	138,1
415,1	150,386
415,6	162,014
416	168,357
416,5	177,529
416,9	182,871
417,4	194,586
417,8	208,871
418,3	219,586
418,8	228,986
419,2	240,386
419,7	250,271
420,1	269,214
420,6	280,157
421	285,843
421,5	299,614
421,9	313,414
422,4	331,986
422,8	351,843
423,3	364,843
423,8	382,243
424,2	399,729
424,7	418,329
425,1	440,386
425,6	459,471
426	480,814
426,5	508,357
426,9	540,271
427,4	561,614
427,9	581,529
428,3	611,871
428,8	643,243
429,2	674,414
429,7	702,557
430,1	728,271
430,6	770,414
431	814,357
431,5	851,557
431,9	890,471
432,4	935,843
432,8	986,5
433,3	1038,786
433,8	1088,129
434,2	1144,843
434,7	1199,986
435,1	1257,929
435,6	1318,186
436	1377,557
436,5	1443,843
436,9	1512,671
437,4	1585,1
437,8	1663,1
438,3	1743,643
438,8	1827,386
439,2	1916,5
439,7	2008,271
440,1	2099,186
440,6	2192,929
441	2285,329
441,5	2389,329
441,9	2493,757
442,4	2596,643
442,8	2705,071
443,3	2820,186
443,7	2932,043
444,2	3051,414
444,7	3172,214
445,1	3298,3
445,6	3430,786
446	3568,729
446,5	3705,271
446,9	3842,329
447,4	3985,471
447,8	4138,729
448,3	4295,729
448,7	4446,843
449,2	4603,957
449,6	4770,157
450,1	4940,529
450,6	5119,929
451	5288,757
451,5	5470,071
451,9	5663,7
452,4	5850,043
452,8	6035,071
453,3	6233,186
453,7	6416,614
454,2	6616,671
454,6	6806,1
455,1	6993,5
455,5	7191,7
456	7402,643
456,4	7599,186
456,9	7813,5
457,3	8030,014
457,8	8247,471
458,3	8475,557
458,7	8698,9
459,2	8925,843
459,6	9157,271
460,1	9382,271
460,5	9603,986
461	9835,529
461,4	10058,5
461,9	10282,386
462,3	10513,757
462,8	10742,214
463,2	10982,557
463,7	11219,329
464,1	11451,729
464,6	11682,214
465	11913,529
465,5	12129,471
466	12367,214
466,4	12588,186
466,9	12811,843
467,3	13027,729
467,8	13253,557
468,2	13484,1
468,7	13717,1
469,1	13929,271
469,6	14148,5
470	14355,643
470,5	14575,871
470,9	14784,671
471,4	14988,671
471,8	15180,129
472,3	15379,586
472,7	15575,5
473,2	15773,7
473,6	15950,986
474,1	16148,586
474,5	16330,614
475	16518,157
475,4	16700,329
475,9	16870,929
476,4	17040,014
476,8	17219,5
477,3	17373,814
477,7	17530,214
478,2	17674,986
478,6	17812,671
479,1	17946,9
479,5	18070,786
480	18182,9
480,4	18302,957
480,9	18416,557
481,3	18531,957
481,8	18644,929
482,2	18749,729
482,7	18853,957
483,1	18951,757
483,6	19032,9
484	19105,729
484,5	19167,586
484,9	19230,129
485,4	19289,529
485,8	19339,3
486,3	19389,1
486,7	19418,1
487,2	19457,043
487,6	19490,843
488,1	19506,814
488,5	19534,129
489	19553,929
489,4	19559,386
489,9	19574,386
490,4	19571,071
490,8	19565,157
491,3	19557,3
491,7	19523,814
492,2	19493,986
492,6	19464,243
493,1	19416,729
493,5	19361,729
494	19305,986
494,4	19245,157
494,9	19189,586
495,3	19137,529
495,8	19065,357
496,2	19002,414
496,7	18928,243
497,1	18864,357
497,6	18799,843
498	18734,329
498,5	18645,643
498,9	18563,757
499,4	18484,529
499,8	18424,271
500,3	18346,671
500,7	18254,614
501,2	18150,757
501,6	18049,614
502,1	17954,586
502,5	17855,5
503	17742,043
503,4	17631,5
503,9	17525,7
504,3	17428,929
504,8	17321,7
505,2	17211,386
505,7	17093,1
506,1	16985,3
506,6	16856,3
507	16717,957
507,5	16588,757
507,9	16464,814
508,4	16329,014
508,8	16198,243
509,3	16058,3
509,7	15917,643
510,2	15800,129
510,6	15661,214
511,1	15528,186
511,5	15388,586
512	15245,186
512,4	15116,443
512,9	14975,414
513,3	14833,643
513,8	14697,929
514,2	14551,414
514,7	14420,357
515,1	14284,729
515,6	14129,357
516	13992,386
516,5	13855,386
516,9	13706,929
517,4	13565,3
517,8	13430,557
518,3	13300,929
518,7	13161,071
519,2	13032,071
519,6	12884,7
520,1	12744,586
520,5	12614,986
521	12462,7
521,4	12321,071
521,9	12188,071
522,3	12049,529
522,8	11917,014
523,2	11797,043
523,7	11667,186
524,1	11549,271
524,6	11406,529
525	11286,329
525,5	11165,071
525,9	11033,443
526,4	10898,186
526,8	10774,129
527,3	10654,471
527,7	10547,557
528,2	10427,414
528,6	10298,357
529,1	10193,129
529,5	10087,871
530	9967,1
530,4	9853,271
530,9	9741,586
531,3	9630,529
531,8	9528,129
532,2	9412,757
532,6	9302,214
533,1	9193,329
533,5	9087,729
534	8986,843
534,4	8887,129
534,9	8792,9
535,3	8698,214
535,8	8594,843
536,2	8503,1
536,7	8406,843
537,1	8304,186
537,6	8204,586
538	8107,214
538,5	8022,929
538,9	7929,929
539,4	7840,614
539,8	7747,471
540,3	7668,271
540,7	7587,643
541,2	7498,814
541,6	7406,986
542,1	7329,729
542,5	7250,471
543	7168,871
543,4	7085,214
543,9	7005,186
544,3	6934,443
544,8	6861,586
545,2	6784,157
545,7	6710,243
546,1	6650,786
546,5	6580,671
547	6509,957
547,4	6431,786
547,9	6357,7
548,3	6290,643
548,8	6221,957
549,2	6142,214
549,7	6075,986
550,1	6013,729
550,6	5958,329
551	5895,1
551,5	5835,757
551,9	5773,557
552,4	5719,871
552,8	5663,957
553,3	5600,414
553,7	5536,5
554,2	5484,129
554,6	5430,186
555,1	5382,471
555,5	5327,414
555,9	5271,7
556,4	5225,729
556,8	5178,729
557,3	5128,9
557,7	5075,729
558,2	5020,843
558,6	4976,357
559,1	4929,129
559,5	4881,243
560	4835,071
560,4	4789,043
560,9	4738,871
561,3	4695,843
561,8	4649,214
562,2	4613,986
562,7	4573,671
563,1	4534,529
563,6	4495,186
564	4461,729
564,4	4418,586
564,9	4380,929
565,3	4329,129
565,8	4281,529
566,2	4243,443
566,7	4211,186
567,1	4172,729
567,6	4131,671
568	4091,529
568,5	4060,729
568,9	4024,5
569,4	3988,5
569,8	3943,814
570,3	3908,5
570,7	3872,814
571,1	3840,814
571,6	3807,729
572	3780,957
572,5	3752,214
572,9	3720,386
573,4	3689,557
573,8	3672,529
574,3	3635,871
574,7	3606,071
575,2	3566,014
575,6	3532,071
576,1	3503,3
576,5	3474,671
576,9	3432,186
577,4	3404,414
577,8	3373,357
578,3	3355,157
578,7	3324,957
579,2	3302,357
579,6	3270,986
580,1	3245,986
580,5	3225,3
581	3204,014
581,4	3173,614
581,9	3143,157
582,3	3112,071
582,7	3087,929
583,2	3063,271
583,6	3036,157
584,1	3007,043
584,5	2981,557
585	2959,843
585,4	2926,671
585,9	2904,643
586,3	2885,414
586,8	2858,929
587,2	2838,557
587,6	2822,443
588,1	2806,014
588,5	2794,871
589	2771,271
589,4	2744,814
589,9	2721,786
590,3	2695,071
590,8	2672,843
591,2	2649,671
591,7	2635,814
592,1	2619,986
592,5	2612,043
593	2598,9
593,4	2583,186
593,9	2560,929
594,3	2542,557
594,8	2517,129
595,2	2495,214
595,7	2466,729
596,1	2448,1
596,6	2430,929
597	2417,214
597,4	2401,186
597,9	2383,929
598,3	2370,214
598,8	2358,471
599,2	2343,329
599,7	2324,3
600,1	2302,757
600,6	2285,729
601	2273,243
601,4	2264,271
601,9	2250,986
602,3	2234,757
602,8	2222,5
603,2	2207,9
603,7	2191,814
604,1	2173,443
604,6	2154,586
605	2135,986
605,4	2124,671
605,9	2108,443
606,3	2093,814
606,8	2077,529
607,2	2064,929
607,7	2042,614
608,1	2031,729
608,6	2022,557
609	2014,1
609,4	2007,129
609,9	2001,271
610,3	1987,214
610,8	1980,843
611,2	1966,529
611,7	1945,786
612,1	1931,586
612,6	1915,471
613	1900,729
613,4	1887,1
613,9	1877,071
614,3	1861,729
614,8	1856,443
615,2	1845,1
615,7	1835,157
616,1	1823,871
616,6	1806,986
617	1790,1
617,4	1779,586
617,9	1765,671
618,3	1755,471
618,8	1744,157
619,2	1728,014
619,7	1720,843
620,1	1712,271
620,5	1703,1
621	1689,814
621,4	1675,643
621,9	1658,986
622,3	1653,186
622,8	1643,186
623,2	1629,671
623,6	1613,729
624,1	1601,329
624,5	1586,871
625	1581,443
625,4	1565,9
625,9	1558,986
626,3	1546,7
626,8	1540,786
627,2	1528,729
627,6	1517,1
628,1	1501,243
628,5	1497,386
629	1481,186
629,4	1470,5
629,9	1458,814
630,3	1442,814
630,7	1432,3
631,2	1428,043
631,6	1412,471
632,1	1401,671
632,5	1392,357
633	1385,586
633,4	1382,471
633,8	1379,357
634,3	1363,043
634,7	1355,871
635,2	1347,271
635,6	1340,043
636,1	1326,129
636,5	1314,129
636,9	1296,786
637,4	1286,186
637,8	1269,786
638,3	1256,757
638,7	1241,957
639,2	1230,7
639,6	1220,757
640	1212,729
640,5	1211,957
640,9	1205,786
641,4	1204,1
641,8	1201,1
642,2	1198,929
642,7	1197,957
643,1	1195,586
643,6	1184,386
644	1180,786
644,5	1173,814
644,9	1165,3
645,3	1157,5
645,8	1141,929
646,2	1134,957
646,7	1126,986
647,1	1118,986
647,6	1114,443
648	1106,871
648,4	1095,043
648,9	1092,357
649,3	1081,786
649,8	1079,986
650,2	1068,443
650,6	1059,643
651,1	1053,157
651,5	1054,414
652	1041,871
652,4	1032,214
652,9	1022,271
653,3	1016,929
653,7	1004,529
654,2	1000,157
654,6	988,757
655,1	986,071
655,5	986,5
655,9	978,129
656,4	971,386
656,8	967,243
657,3	957,986
657,7	957,643
658,2	950,1
658,6	940,643
659	937,843
659,5	934,386
659,9	928,014
660,4	921,157
660,8	903,871
661,2	897,757
661,7	895,071
662,1	883,414
662,6	875,643
663	868,271
663,4	859,443
663,9	857,843
664,3	851,757
664,8	835,786
665,2	828,814
665,6	821,043
666,1	815,929
666,5	813,471
667	806,414
667,4	802,871
667,9	801,557
668,3	795,129
668,7	789,671
669,2	786,843
669,6	780,071
670,1	776,7
670,5	769,9
670,9	764,5
671,4	760,557
671,8	759,443
672,3	753,243
672,7	748,1
673,1	737,3
673,6	731,214
674	729,929
674,5	723,643
674,9	710,957
675,3	700,471
675,8	694,443
676,2	690,757
676,7	683,357
677,1	674,786
677,5	668,814
678	669,214
678,4	668,871
678,9	665,414
679,3	662,843
679,7	661,414
680,2	652,871
680,6	650,357
681,1	645,071
681,5	642,643
681,9	641,186
682,4	635,843
682,8	631,014
683,3	631,014
683,7	628,9
684,1	620,586
684,6	613,129
685	603,871
685,5	598,271
685,9	592,786
686,3	584,757
686,8	582,729
687,2	576,843
687,7	568,814
688,1	561,329
688,5	557,929
689	552,671
689,4	552,643
689,9	545,414
690,3	542,871
690,7	543,271
691,2	545,614
691,6	543,557
692	540,014
692,5	536,3
692,9	532,7
693,4	529,614
693,8	524,814
694,2	516,014
694,7	506,557
695,1	504,586
695,6	499,443
696	496,671
696,4	496,3
696,9	489,5
697,3	482,443
697,8	480,414
698,2	471,986
698,6	469,386
699,1	466,157
699,5	462,557
699,9	459,129
700,4	459,529
700,8	459,129
701,3	460,957
701,7	455,1
702,1	445,757
702,6	442,329
703	441,014
703,5	439,929
703,9	434,1
704,3	431,157
704,8	427,043
705,2	428,643
705,6	423,471
706,1	418,643
706,5	414,5
707	413,586
707,4	410,329
707,8	405,329
708,3	406,157
708,7	401,5
709,2	401,5
709,6	402,586
710	402,071
710,5	397,614
710,9	397,271
711,3	390,529
711,8	389,014
712,2	387,071
712,7	381,386
713,1	379,843
713,5	378,414
714	377,557
714,4	370,071
714,8	369,929
715,3	363,786
715,7	362,729
716,2	355,986
716,6	352,529
717	346,1
717,5	345,386
717,9	346,7
718,3	343,7
718,8	339,586
719,2	336,557
719,7	333,7
720,1	333,471
720,5	336,614
721	327,471
721,4	327,843
721,8	331,671
722,3	325,957
722,7	328,586
723,2	323,814
723,6	310,529
724	308,3
724,5	301,414
724,9	293,271
725,3	294,1
725,8	284,757
726,2	286,986
726,7	288,786
727,1	286,357
727,5	288,929
728	283,757
728,4	281,329
728,8	279,643
729,3	271,071
729,7	269,843
730,1	268,614
730,6	267,443
731	266,271
731,5	266,957
731,9	265,729
732,3	265,9
732,8	267,557
733,2	267,471
733,6	262,9
734,1	261,1
734,5	257,214
734,9	258,471
735,4	258,014
735,8	249,157
736,3	248,643
736,7	245,443
737,1	244,3
737,6	244,786
738	242,843
738,4	242,1
738,9	246,786
739,3	242,671
739,7	244,957
740,2	241,614
740,6	242,186
741,1	241,529
741,5	239,071
741,9	238,9
742,4	242,843
742,8	243,071
743,2	244,014
743,7	235,243
744,1	229,3
744,5	227,729
745	224,5
745,4	216,1
745,8	211,671
746,3	209,443
746,7	207,357
747,2	209,329
747,6	211,986
748	210,586
748,5	213,986
748,9	211,3
749,3	211,814
749,8	215,643
750,2	213,929
750,6	208,871
751,1	212,129
751,5	209,9
751,9	212,129
752,4	207,929
752,8	206,157
753,3	207,529
753,7	209,529
754,1	201,786
754,6	197,414
755	189,443
755,4	193,5
755,9	193,843
756,3	188,386
756,7	183,757
757,2	185,157
757,6	185,671
758	190,271
758,5	185,729
758,9	183,557
759,3	181,729
759,8	183,471
760,2	181,757
760,6	179,671
761,1	177,214
761,5	172,5
761,9	168,357
762,4	167,757
762,8	163,614
763,3	156,557
763,7	156,9
764,1	157,1
764,6	159,814
765	163,271
765,4	162,329
765,9	159,614
766,3	168,243
766,7	165,129
767,2	160,7
767,6	161,329
768	159,757
768,5	159,443
768,9	159,071
769,3	156,157
769,8	153,357
770,2	155,671
770,6	152,614
771,1	149,271
771,5	151,071
771,9	153,357
772,4	155,671
772,8	157,129
773,2	156,271
773,7	153,243
774,1	151,986
774,5	146,414
775	142,129
775,4	138,671
775,8	136,643
776,3	137,986
776,7	140,043
777,1	140,3
777,6	139,186
778	142,329
778,4	137,643
778,9	140,386
779,3	136,871
779,7	134,5
780,2	136,1
780,6	138,214
781	135,186
781,5	131,414
781,9	130,9
782,3	127,329
782,8	127,529
783,2	125,757
783,6	127,786
784,1	123,214
784,5	122,271
784,9	116,786
785,4	117,357
785,8	118,1
786,2	114,7
786,7	110,3
787,1	110,614
787,5	110,614
788	112,071
788,4	114,843
788,8	112,614
789,3	111,529
789,7	114,9
790,1	118,643
790,6	122,014
791	119,1
791,4	117,843
791,9	117,1
792,3	113,243
792,7	110,843
793,2	108,814
793,6	107,1
794	107,586
794,5	104,586
794,9	105,557
795,3	108,557
795,8	102,586
796,2	101,129
796,6	100,786
797,1	102,843
797,5	99,5
797,9	95,671
798,4	96,957
798,8	96,7
799,2	94,1
799,7	94,186
800,1	91,557
800,5	93,614
801	96,014
801,4	90,7
801,8	91,414
802,2	94,671
802,7	89,929
803,1	93,1
803,5	93,557
804	88,186
804,4	92,043
804,8	94,443
805,3	92,471
805,7	95,786
806,1	90,243
806,6	89,757
807	91,043
807,4	89,871
807,9	83,071
808,3	79,186
808,7	78,643
809,2	81,871
809,6	80,614
810	79,414
810,4	77,871
810,9	80,671
811,3	83,957
811,7	81,643
812,2	82,614
812,6	82,129
813	83,7
813,5	84,443
813,9	82,414
814,3	81,5
814,8	81,271
815,2	76,329
815,6	74,1
816,1	75,929
816,5	71,471
816,9	73,814
817,3	73,414
817,8	77,957
818,2	77,757
818,6	73,986
819,1	72,471
819,5	74,529
819,9	75,157
820,4	77,557
820,8	71,043
821,2	65,271
821,7	70,786
822,1	70,929
822,5	74,5
822,9	69,071
823,4	64,443
823,8	64,557
824,2	70,9
824,7	64,986
825,1	60,243
825,5	52,414
826	49,843
826,4	50,614
826,8	48,957
827,3	49,014
827,7	46,843
828,1	52,671
828,5	54,786
829	58,329
829,4	55,186
829,8	51,443
830,3	47,9
830,7	49,643
831,1	47,3
831,6	45,843
832	46,043
832,4	46,614
832,8	50,757
833,3	51,386
833,7	50,957
834,1	47,557
834,6	47,1
835	49,243
835,4	50,5
835,8	48,329
836,3	46,586
836,7	49,529
837,1	49,3
837,6	50,643
838	44,986
838,4	43,1
838,9	45,986
839,3	45,614
839,7	47,7
840,1	44,3
840,6	44,243
841	52,1
841,4	51,243
841,9	49,9
842,3	47,786
842,7	43,871
843,1	44,643
843,6	43,1
844	37,414
844,4	39,557
844,9	40,1
845,3	43,386
845,7	42,443
846,2	44,529
846,6	45,814
847	43,357
847,4	41,586
847,9	38,729
848,3	40,329
848,7	37,929
849,2	37,1
849,6	32,5
850	37,871
850,4	38,157
850,9	44,186
851,3	41,871
851,7	46,443
852,2	44,329
852,6	46,7
853	42,729
853,4	42,3
853,9	36,986
854,3	35,557
854,7	31,357
855,2	32,471
855,6	33,386
856	31,729
856,4	28,986
856,9	26,986
857,3	29,871
857,7	34,014
858,2	31,529
858,6	29,386
859	29,614
859,4	32,014
859,9	32,871
860,3	24,357
860,7	23,071
861,1	27,5
861,6	23,557
862	24,414
862,4	23,014
862,9	22,157
863,3	26,243
863,7	22,757
864,1	22,129
864,6	25,471
865	24,757
865,4	27,471
865,9	31,3
866,3	29,5
866,7	32,043
867,1	28,471
867,6	29,843
868	31,357
868,4	29,243
868,8	25,129
869,3	28,357
869,7	28,5
870,1	25,929
870,6	27,243
871	-51,1
871,4	-44,214
871,8	-43,957
872,3	-45,871
872,7	-44,129
873,1	-43,071
873,5	-45,271
874	30,643
874,4	24,7
874,8	21,9
875,3	20,871
875,7	14,814
876,1	15,871
876,5	13,786
877	12,614
877,4	9,129
877,8	14,129
878,2	17,157
878,7	19,014
879,1	19,7
879,5	20,814
879,9	23,729
880,4	25,7
880,8	23,271
881,2	22,843
881,7	19,814
882,1	15,7
882,5	16,7
882,9	13,271
883,4	13,014
883,8	11,843
884,2	10,614
884,6	10,843
885,1	16,214
885,5	13,043
885,9	13,586
886,3	12,929
886,8	9,757
887,2	6,043
887,6	6,871
888	4,443
888,5	8,5
888,9	4,729
889,3	3,157
889,8	7,214
890,2	9,129
890,6	9,671
891	11,5
891,5	6,471
891,9	9,957
892,3	12,386
892,7	10,014
893,2	12,3
893,6	12,871
894	11,843
894,4	11,1
894,9	9,7
895,3	9,414
895,7	9,471
896,1	5,214
896,6	1,5
897	1,586
897,4	9,157
897,8	13,386
898,3	12,471
898,7	13,871
899,1	18,043
899,5	22,986
900	18,929
900,4	16,129
900,8	9,557
901,2	7,186
901,7	4,471
902,1	4,814
902,5	4,957
902,9	8,214
903,4	10,186
903,8	17,643
904,2	17,557
904,6	20,071
905,1	22,386
905,5	20,129
905,9	20,357
906,3	19,014
906,8	16,786
907,2	19,557
907,6	24,043
908	19,9
908,5	17,586
908,9	13,871
909,3	9,557
909,7	7,7
910,2	6,243
910,6	7,729
911	2,614
911,4	9,1
911,9	13,214
912,3	15,243
912,7	18,414
913,1	20,843
913,6	14,9
914	18,1
914,4	14,243
914,8	14,557
915,3	13,643
915,7	11,014
916,1	10,329
916,5	8,357
916,9	10,929
917,4	10,443
917,8	7,614
918,2	3,757
918,6	0,071
919,1	0,471
919,5	3,986
919,9	2,443
920,3	1,814
920,8	0,1
921,2	1,357
921,6	5,5
922	4,271
922,5	1,671
922,9	1,529
923,3	-1,871
923,7	0,129
924,2	2,014
924,6	0,843
925	-1,214
925,4	-0,129
925,8	-0,186
926,3	1,386
926,7	1,071
927,1	2,557
927,5	3,357
928	3,243
928,4	0,843
928,8	3,071
929,2	3,9
929,7	4,471
930,1	3,1
930,5	-0,5
930,9	5,243
931,3	11,071
931,8	9,414
932,2	7,414
932,6	6,243
933	-0,129
933,5	2,586
933,9	-0,757
934,3	-3,843
934,7	-5,843
935,2	-1,814
935,6	-1,7
936	1,1
936,4	2,671
936,8	2,157
937,3	0,043
937,7	2,014
938,1	2,214
938,5	0,586
939	4,7
939,4	4,3
939,8	2,871
940,2	3,814
940,6	5,443
941,1	5,014
941,5	11,671
941,9	10,5
942,3	10,1
942,8	13,671
943,2	13,329
943,6	9,871
944	8,614
944,4	7,3
944,9	2,443
945,3	0,271
945,7	-3,729
946,1	-5,5
946,6	-7,471
947	-9,129
947,4	-12,1
947,8	-7,071
948,2	-9,071
948,7	-4,929
949,1	-6,529
949,5	1,643
949,9	3,357
950,3	4,9
950,8	5,243
951,2	4,986
951,6	0,386
952	6,186
952,5	0,329
952,9	0,957
953,3	-3,329
953,7	-2,014
954,1	4,386
954,6	7,186
955	7,614
955,4	7,014
955,8	9,5
956,2	14,214
956,7	13,129
957,1	9,929
957,5	8,529
957,9	8,5
958,3	8,871
958,8	5,357
959,2	9,071
959,6	10,671
960	9,5
960,5	13,157
960,9	8,586
961,3	7,557
961,7	5,843
962,1	-0,586
962,6	-2,3
963	-4,014
963,4	-9,329
963,8	-8,557
964,2	-6,929
964,7	-4,671
965,1	0,786
965,5	1,729
965,9	3,843
966,3	10,043
966,8	12,843
967,2	12,557
967,6	12,986
968	8,357
968,4	7,843
968,9	7,214
969,3	8,614
969,7	7,329
970,1	5,614
970,5	4,129
971	5,414
971,4	3,7
971,8	4,157
972,2	0,757
972,6	1,786
973,1	2,329
973,5	2,7
973,9	3,643
974,3	3,871
974,7	7,443
975,2	6,614
975,6	5,3
976	8,529
976,4	8,729
976,8	9,3
977,3	11,329
977,7	7,129
978,1	7,014
978,5	4,757
978,9	0,329
979,4	-3,443
979,8	-4,443
980,2	-8,1
980,6	-9,1
981	-8,014
981,5	-6,957
981,9	-6,014
982,3	-1,871
982,7	-1,671
983,1	-4,529
983,6	-1,471
984	-1,671
984,4	2,071
984,8	4,3
985,2	6,386
985,6	2,586
986,1	7,814
986,5	7,5
986,9	2,043
987,3	1,529
987,7	-1,043
988,2	-5,414
988,6	-4,271
989	-3,786
989,4	-5,186
989,8	-1,871
990,3	-4,843
990,7	-2,271
991,1	-1,729
991,5	0,5
991,9	-0,157
992,3	4,014
992,8	3,643
993,2	2,957
993,6	3,814
994	5,357
994,4	7,529
994,9	8,386
995,3	4,671
995,7	4,614
996,1	2,471
996,5	1,814
996,9	1,014
997,4	1,643
997,8	-2,129
998,2	-4,043
998,6	-11,957
999	-9,614
999,5	-12,871
999,9	-11,7
1000,3	-18,643
1000,7	-18,443
1001,1	-17,3
1001,5	-9,986
1002	-4,9
1002,4	0,329
1002,8	-1,5
1003,2	0,671
1003,6	4,186
1004	7,957
1004,5	7,929
1004,9	5,843
1005,3	-2,214
1005,7	-0,3
1006,1	0,471
1006,6	-1,614
1007	-3,3
1007,4	-5,671
1007,8	-10,243
1008,2	-5,929
1008,6	-5,757
1009,1	-6,586
1009,5	-4,357
1009,9	-2,843
1010,3	0,529
1010,7	1,1
1011,1	-2,014
1011,6	-2,986
1012	1,157
1012,4	-0,529
1012,8	-4,814
1013,2	-0,529
1013,6	2,586
1014,1	6,014
1014,5	7,529
1014,9	1,614
1015,3	-1,271
1015,7	0,214
1016,1	-5,529
1016,6	-8,071
1017	-3,529
1017,4	-1,414
1017,8	-0,386
1018,2	4,3
1018,6	1,757
1019,1	2,814
1019,5	0,5
1019,9	-8,671
1020,3	-10,157
1020,7	-5,186
1021,1	-7,357
1021,6	-5,871
1022	-2,529
1022,4	2,814
1022,8	9,414
1023,2	5,843
1023,6	1,357
1024,1	7,814
1024,5	6,814
1024,9	-0,529
1025,3	1,729
1025,7	-0,243
1026,1	1,986
1026,6	5,5
1027	0,814
1027,4	2,157
1027,8	5,643
1028,2	1,271
1028,6	5,129
1029	4,586
1029,5	9,043
1029,9	8,214
1030,3	1,471
1030,7	0,214
1031,1	2,929
1031,5	-4,729
1032	-8,3
1032,4	-16,5
1032,8	-13,3
1033,2	-2,071
1033,6	-0,557
1034	-1,786
1034,4	-0,5
1034,9	2,929
1035,3	4,043
1035,7	2,329
1036,1	-10,014
1036,5	-14,1
1036,9	-11,614
1037,4	-5,957
1037,8	-8,729
1038,2	-9,186
1038,6	-9,529
1039	6,043
1039,4	12,814
1039,8	6,843
1040,3	5,443
1040,7	6,357
1041,1	8,5
1041,5	7,357
1041,9	-3,1
1042,3	-4,557
1042,7	-0,157
1043,2	-1,529
1043,6	-1,357
1044	-3,043
1044,4	-1,729
1044,8	1,929
1045,2	-1,586
1045,6	-1,471
1046,1	-2,757
1046,5	-2,157
1046,9	-3,386
1047,3	-6,414
1047,7	-7,786
1048,1	-5,586
1048,5	-9,3
1049	-4,871
1049,4	-1,271
1049,8	0,386
1050,2	0,871
1050,6	4,786
1051	6,614
1051,4	8,043
1051,9	2,614
1052,3	9,871
1052,7	14,043
1053,1	11,071
1053,5	11,957
1053,9	8,871
1054,3	6,071
1054,8	11,071
1055,2	8,357
1055,6	3,986
1056	7,843
1056,4	6,243
1056,8	7,1
1057,2	7,443
1057,6	1,071
1058,1	-6,871
1058,5	-9,843
1058,9	-8,471
1059,3	-10,529
1059,7	-8,014
1060,1	-3,757
1060,5	-0,157
1061	0,5
1061,4	1,443
1061,8	-1,5
1062,2	-0,786
1062,6	-1,9
1063	-2,271
1063,4	-1,843
1063,8	-1,243
1064,3	-3,271
1064,7	-3,129
1065,1	-2,243
1065,5	-1,729
1065,9	-4,014
1066,3	-3,757
1066,7	-3,271
1067,1	-3,3
1067,6	0,5
1068	-6,471
1068,4	-10,243
1068,8	-7,243
1069,2	-4,357
1069,6	-5,357
1070	2,529
1070,4	0,329
1070,9	5,043
1071,3	6,529
1071,7	5,557
1072,1	-1,843
1072,5	-4,157
1072,9	-7,271
1073,3	-6,157
1073,7	-5,414
1074,2	-3,214
1074,6	-5,357
1075	-2,271
1075,4	-0,757
1075,8	4,786
1076,2	5,9
1076,6	6,614
1077	4,043
1077,5	7,1
1077,9	8,814
1078,3	8,357
1078,7	2,643
1079,1	0,214
1079,5	0,3
1079,9	1,957
1080,3	-0,729
1080,7	-3,014
1081,2	-0,443
1081,6	0,786
1082	-3,3
1082,4	-3,414
1082,8	-2,214
1083,2	-2,043
1083,6	0,614
1084	-3,529
1084,5	-3,614
1084,9	-3,3
1085,3	-10,7
1085,7	-10,443
1086,1	-9,586
1086,5	-9,843
1086,9	-7,3
1087,3	-8,071
1087,7	-7,643
1088,2	1,329
1088,6	-1,557
1089	-0,586
1089,4	-4,214
1089,8	1,671
1090,2	3,986
1090,6	5,329
1091	6,1
1091,4	10,357
1091,9	9,757
1092,3	15,643
1092,7	10,043
1093,1	10,157
1093,5	11,957
1093,9	8,957
1094,3	10,329
1094,7	6,557
1095,1	2,786
1095,5	4,757
1096	-1,329
1096,4	-0,186
1096,8	-3,271
1097,2	-7,471
1097,6	-1,843
1098	-2,986
1098,4	-1,329
1098,8	-0,1
1099,2	5,557
1099,6	5,614
1100,1	4,9
1100,5	1,1
1100,9	4,414
1101,3	4,671
1101,7	3,557
1102,1	0,414
1102,5	3,871
1102,9	7,7
1103,3	14,043
1103,7	15,871
1104,2	10,214
1104,6	12,357
1105	10,357
1105,4	9,786
1105,8	5,986
1106,2	1,271
1106,6	-2,5
1107	0,186
1107,4	0,8
1107,8	-0,1
1108,3	-0,6
