Data from Subt2_215.txt Node
Date: Sat Aug 26 18:48:28 MSK 2023
User: vat
Spectrometer: MAYP114033
Trigger mode: 0
Integration Time (sec): 1,000000E0
Scans to average: 5
Electric dark correction enabled: true
Nonlinearity correction enabled: false
Boxcar width: 3
XAxis mode: Wavelengths
Number of Pixels in Spectrum: 2068
>>>>>Begin Spectral Data<<<<<
199,4	-0,65
199,9	3,36
200,4	1,7
200,8	2,114
201,3	0,886
201,8	1,829
202,2	-0,914
202,7	3,971
203,2	0,486
203,6	2,057
204,1	-0,886
204,6	-0,914
205	0,857
205,5	0,971
206	-0,6
206,4	0,886
206,9	0,286
207,4	3,657
207,8	3,971
208,3	1,114
208,8	5,286
209,2	4,286
209,7	5,286
210,2	10,171
210,6	7,057
211,1	10,943
211,5	6,914
212	6,543
212,5	3,229
212,9	-2
213,4	-4,657
213,9	-4
214,3	-5,886
214,8	1,714
215,3	-0,743
215,7	5,629
216,2	13,657
216,7	13,886
217,1	15,8
217,6	16,486
218,1	10,057
218,5	10,086
219	0,629
219,5	-1,943
219,9	-7,457
220,4	-4,714
220,9	-5,114
221,3	-3,286
221,8	-2,286
222,3	3,057
222,7	2,371
223,2	3,371
223,6	-0,257
224,1	-2,514
224,6	1,086
225	-0,771
225,5	-1,486
226	-1,029
226,4	4,086
226,9	6,086
227,4	4,914
227,8	-0,714
228,3	1,6
228,8	3,571
229,2	2,914
229,7	0,114
230,2	-4,714
230,6	-1,429
231,1	6,371
231,5	4,829
232	4,971
232,5	5,486
232,9	6,143
233,4	13,943
233,9	13,857
234,3	8,714
234,8	10,314
235,3	8,086
235,7	7,429
236,2	6,714
236,7	3,229
237,1	1,314
237,6	2,114
238,1	4,571
238,5	0,571
239	0
239,4	1,429
239,9	-0,286
240,4	0,4
240,8	1,857
241,3	1,629
241,8	6,571
242,2	4,971
242,7	0,971
243,2	3,171
243,6	3,086
244,1	6,771
244,6	3,6
245	-0,257
245,5	1,514
245,9	-0,4
246,4	-2,057
246,9	-1,029
247,3	-6,629
247,8	-0,343
248,3	5,543
248,7	4,286
249,2	12,686
249,7	12,571
250,1	15,114
250,6	17,686
251	12,371
251,5	12,171
252	13,286
252,4	10,429
252,9	9,971
253,4	6,886
253,8	5,829
254,3	6,429
254,8	5,229
255,2	2,257
255,7	1,257
256,1	4,057
256,6	7,086
257,1	9,914
257,5	7,771
258	8,229
258,5	8,686
258,9	6,743
259,4	5,971
259,9	4,029
260,3	0,514
260,8	0,229
261,2	-1,143
261,7	2,371
262,2	3,429
262,6	1,2
263,1	2,257
263,6	4,6
264	5,086
264,5	8,314
264,9	7,029
265,4	6,829
265,9	5,686
266,3	8,314
266,8	10,514
267,3	8,8
267,7	-0,343
268,2	0,543
268,7	0,057
269,1	5,371
269,6	-2,314
270	-4,771
270,5	-1,886
271	4,114
271,4	4,257
271,9	-1,057
272,4	-1
272,8	6,286
273,3	1,886
273,7	5,343
274,2	8,114
274,7	8,2
275,1	18,371
275,6	11,4
276,1	5,971
276,5	11,286
277	7,2
277,4	0,571
277,9	5,114
278,4	2,4
278,8	6,314
279,3	7,771
279,8	6,4
280,2	13,4
280,7	19,114
281,1	10,114
281,6	8,4
282,1	6,171
282,5	4,743
283	4
283,4	-0,943
283,9	-1,4
284,4	4,457
284,8	5,743
285,3	7,114
285,8	7,229
286,2	3,686
286,7	5,6
287,1	4,543
287,6	2,429
288,1	-1,114
288,5	4,571
289	3,629
289,5	8,743
289,9	4,2
290,4	9,314
290,8	9,486
291,3	12,486
291,8	10
292,2	8,114
292,7	10,857
293,1	9,771
293,6	8
294,1	7,457
294,5	10
295	8,257
295,5	12,143
295,9	9,771
296,4	12,629
296,8	9,629
297,3	11,971
297,8	4,771
298,2	2,857
298,7	4,971
299,1	4,629
299,6	2,4
300,1	2,229
300,5	1,457
301	9,514
301,5	15,057
301,9	15,457
302,4	10,829
302,8	11,886
303,3	9,829
303,8	7,057
304,2	5,429
304,7	2,971
305,1	-3,2
305,6	2,029
306,1	4,971
306,5	9,857
307	13,571
307,4	15,4
307,9	12,914
308,4	15,314
308,8	8,457
309,3	7,371
309,8	3,457
310,2	0,257
310,7	-3,971
311,1	-3,6
311,6	-4,114
312,1	0,6
312,5	3,629
313	7,686
313,4	7,857
313,9	10,629
314,4	8,229
314,8	4,657
315,3	4,8
315,7	-2,771
316,2	-8,743
316,7	-7,829
317,1	-2,857
317,6	0,486
318	9,657
318,5	10,143
319	10,514
319,4	13,686
319,9	20,914
320,3	17,829
320,8	16,886
321,3	18,6
321,7	20,143
322,2	23,057
322,6	25,743
323,1	19,057
323,6	15,886
324	15,543
324,5	5,486
324,9	4,571
325,4	4,257
325,9	6,457
326,3	6,114
326,8	4,914
327,2	1,2
327,7	6,543
328,2	2,8
328,6	5,029
329,1	-2,2
329,5	-2,086
330	-2,943
330,5	3,8
330,9	5,686
331,4	9,314
331,8	10,743
332,3	13,743
332,8	16,657
333,2	17,057
333,7	15,486
334,1	14,543
334,6	12,629
335,1	7,771
335,5	9
336	6,829
336,4	11,057
336,9	21,514
337,4	20,914
337,8	21,829
338,3	24,829
338,7	22,629
339,2	22,943
339,7	22,829
340,1	10,943
340,6	11,714
341	10,086
341,5	8,371
342	6,943
342,4	4,2
342,9	2,771
343,3	3,343
343,8	1,343
344,2	3,314
344,7	7,914
345,2	9,8
345,6	9,971
346,1	11,086
346,5	8,6
347	6,771
347,5	4,143
347,9	2,429
348,4	2,229
348,8	4,371
349,3	5,286
349,8	9,8
350,2	20,514
350,7	21,6
351,1	22,429
351,6	26,857
352	33,971
352,5	37,629
353	50,6
353,4	52,571
353,9	68,314
354,3	84,086
354,8	97
355,3	117,629
355,7	142,714
356,2	161,314
356,6	189,771
357,1	223,971
357,5	257,086
358	303,686
358,5	344,8
358,9	395,6
359,4	462,486
359,8	532,971
360,3	610,943
360,8	698,943
361,2	800,457
361,7	915,314
362,1	1039,2
362,6	1170,371
363	1312,4
363,5	1462,286
364	1627,6
364,4	1785,486
364,9	1944,6
365,3	2110,114
365,8	2260,4
366,3	2402,029
366,7	2531,543
367,2	2646,086
367,6	2736,714
368,1	2813,486
368,5	2856,8
369	2881,657
369,5	2887,629
369,9	2862,971
370,4	2816,771
370,8	2758,114
371,3	2672,657
371,7	2581,029
372,2	2471,286
372,7	2353,8
373,1	2234,486
373,6	2098,829
374	1969,143
374,5	1839,286
374,9	1709,171
375,4	1589,8
375,9	1470,171
376,3	1353,486
376,8	1247,571
377,2	1150,8
377,7	1057,6
378,2	965,029
378,6	884,029
379,1	807,829
379,5	747,829
380	694,286
380,4	633,943
380,9	582,629
381,4	538,429
381,8	498,8
382,3	468,457
382,7	432,4
383,2	399,457
383,6	370,886
384,1	347,257
384,6	325,971
385	299,771
385,5	274,086
385,9	249,943
386,4	230,771
386,8	215,914
387,3	200,2
387,7	189,314
388,2	178,829
388,7	169,114
389,1	159,829
389,6	149,343
390	136,429
390,5	130,429
390,9	120,914
391,4	112,657
391,9	103,086
392,3	99,543
392,8	91,086
393,2	90,171
393,7	83,629
394,1	74,486
394,6	66,286
395,1	64,943
395,5	56,486
396	58
396,4	52,971
396,9	50,143
397,3	56,114
397,8	62,571
398,2	59,286
398,7	60,257
399,2	57,543
399,6	55,943
400,1	58,029
400,5	48,829
401	45,714
401,4	41,114
401,9	43,914
402,4	44,743
402,8	41,629
403,3	42,543
403,7	42,486
404,2	41,257
404,6	46,371
405,1	43,2
405,5	41,829
406	44,686
406,5	40,114
406,9	42,657
407,4	44,6
407,8	45,171
408,3	46
408,7	45,314
409,2	49,857
409,6	54,6
410,1	56,4
410,6	61,314
411	65,8
411,5	69,6
411,9	77,857
412,4	79,143
412,8	83,686
413,3	90,371
413,7	90,514
414,2	89,686
414,7	97,743
415,1	103,229
415,6	111,6
416	115,086
416,5	116,686
416,9	119,371
417,4	132,143
417,8	137,943
418,3	145,8
418,8	149,6
419,2	155,057
419,7	161,743
420,1	171,8
420,6	173,743
421	176,343
421,5	181,343
421,9	188,114
422,4	198,371
422,8	208,743
423,3	215,286
423,8	218,886
424,2	227,6
424,7	231,571
425,1	237,629
425,6	248,514
426	251,914
426,5	262,171
426,9	276,4
427,4	284,914
427,9	294,229
428,3	311,714
428,8	317,371
429,2	327,971
429,7	337,629
430,1	350,914
430,6	364,8
431	377,343
431,5	390,657
431,9	405,086
432,4	423,543
432,8	443,6
433,3	460,829
433,8	478,657
434,2	501,914
434,7	519,057
435,1	539,2
435,6	563,457
436	584,2
436,5	613,229
436,9	638,314
437,4	664,114
437,8	697,286
438,3	729,8
438,8	761,971
439,2	797,086
439,7	830,629
440,1	865,086
440,6	902,914
441	929,2
441,5	964,257
441,9	1003,8
442,4	1039,543
442,8	1074,857
443,3	1120,914
443,7	1163,686
444,2	1212,8
444,7	1259,571
445,1	1306,457
445,6	1355,229
446	1407,229
446,5	1455,343
446,9	1499,886
447,4	1553,8
447,8	1608,486
448,3	1662,886
448,7	1718,714
449,2	1780
449,6	1841,571
450,1	1902,6
450,6	1967,857
451	2033,714
451,5	2101
451,9	2169,943
452,4	2232,457
452,8	2294,343
453,3	2366,457
453,7	2428,771
454,2	2491,743
454,6	2561,771
455,1	2631,771
455,5	2702,829
456	2784,514
456,4	2853,686
456,9	2933,514
457,3	3014,743
457,8	3085,429
458,3	3169,743
458,7	3244,314
459,2	3318,429
459,6	3402,029
460,1	3484,943
460,5	3564,886
461	3653,343
461,4	3729,486
461,9	3816,171
462,3	3904,857
462,8	3996,257
463,2	4074,829
463,7	4163
464,1	4250,571
464,6	4331,743
465	4420,171
465,5	4502,171
466	4580,657
466,4	4664,029
466,9	4754,086
467,3	4831,2
467,8	4914,343
468,2	4999,6
468,7	5077
469,1	5165,971
469,6	5248,971
470	5321,629
470,5	5403,6
470,9	5492,286
471,4	5565,429
471,8	5649,914
472,3	5723,057
472,7	5800,657
473,2	5870,371
473,6	5945,2
474,1	6018,543
474,5	6092,914
475	6162,114
475,4	6231,943
475,9	6300,743
476,4	6369,229
476,8	6429,343
477,3	6480,229
477,7	6536,657
478,2	6593,343
478,6	6637,114
479,1	6680,771
479,5	6724,857
480	6771,8
480,4	6826,943
480,9	6863,886
481,3	6896,771
481,8	6945,943
482,2	6980,514
482,7	7023,257
483,1	7055,971
483,6	7075,629
484	7109,2
484,5	7144,143
484,9	7157,771
485,4	7187,657
485,8	7207
486,3	7232,114
486,7	7248,4
487,2	7263,286
487,6	7270,114
488,1	7281,886
488,5	7283,743
489	7285,429
489,4	7283,057
489,9	7283,914
490,4	7281,086
490,8	7278,029
491,3	7279,229
491,7	7276,2
492,2	7269,743
492,6	7257,429
493,1	7243,571
493,5	7218,114
494	7186,371
494,4	7159,171
494,9	7130,829
495,3	7102,029
495,8	7079,171
496,2	7060,743
496,7	7033,457
497,1	7020,8
497,6	6987,2
498	6954,286
498,5	6920,143
498,9	6875,429
499,4	6830,971
499,8	6804,057
500,3	6763,114
500,7	6730,086
501,2	6693,286
501,6	6655,486
502,1	6617,143
502,5	6576,743
503	6526,514
503,4	6475,914
503,9	6428,286
504,3	6384,143
504,8	6335,543
505,2	6293,543
505,7	6241,886
506,1	6199,257
506,6	6145,029
507	6089,143
507,5	6038,4
507,9	5983,743
508,4	5923,429
508,8	5868,171
509,3	5810,714
509,7	5767,714
510,2	5721,943
510,6	5663,029
511,1	5618,114
511,5	5565,257
512	5511,457
512,4	5463,171
512,9	5406,657
513,3	5355,743
513,8	5307,8
514,2	5252,943
514,7	5203
515,1	5156,314
515,6	5103,029
516	5037,4
516,5	4986,143
516,9	4930,857
517,4	4873,029
517,8	4821,686
518,3	4770,029
518,7	4710,4
519,2	4670,171
519,6	4609,8
520,1	4561,343
520,5	4501,8
521	4436,229
521,4	4383,514
521,9	4332,257
522,3	4275,714
522,8	4226,543
523,2	4172,314
523,7	4129,543
524,1	4086,571
524,6	4032,314
525	3980,886
525,5	3936,686
525,9	3894,743
526,4	3849,371
526,8	3799,286
527,3	3758,543
527,7	3717,829
528,2	3681,143
528,6	3634,543
529,1	3588,657
529,5	3548,886
530	3514,543
530,4	3472,257
530,9	3432,086
531,3	3392,771
531,8	3354,486
532,2	3321
532,6	3282,057
533,1	3237,829
533,5	3204,114
534	3159,371
534,4	3121,4
534,9	3092,229
535,3	3047,629
535,8	3008,543
536,2	2980,429
536,7	2946,886
537,1	2920,571
537,6	2889,086
538	2849,6
538,5	2822,514
538,9	2782,886
539,4	2752,829
539,8	2718,086
540,3	2691,429
540,7	2654,086
541,2	2625,771
541,6	2592,571
542,1	2570,2
542,5	2538,886
543	2511,771
543,4	2476,4
543,9	2454,6
544,3	2435,229
544,8	2413,571
545,2	2389,171
545,7	2367,629
546,1	2347,457
546,5	2328,2
547	2305,057
547,4	2279,057
547,9	2249,971
548,3	2233,2
548,8	2209,657
549,2	2180,914
549,7	2162,657
550,1	2143,2
550,6	2121,4
551	2106,371
551,5	2082,486
551,9	2061,543
552,4	2050,8
552,8	2027,486
553,3	2004,829
553,7	1984,029
554,2	1964,4
554,6	1947,657
555,1	1931,114
555,5	1904,343
555,9	1892,771
556,4	1871,371
556,8	1855,829
557,3	1837,4
557,7	1822,171
558,2	1801,543
558,6	1787,971
559,1	1768,371
559,5	1759,6
560	1744,029
560,4	1732,829
560,9	1712,971
561,3	1698,257
561,8	1684,629
562,2	1670,257
562,7	1647,857
563,1	1638,914
563,6	1621,371
564	1609,6
564,4	1599,714
564,9	1590,943
565,3	1581,8
565,8	1579,571
566,2	1566,229
566,7	1561,829
567,1	1552,086
567,6	1541,457
568	1525,657
568,5	1509,086
568,9	1493,686
569,4	1479,743
569,8	1460,571
570,3	1452,971
570,7	1435,714
571,1	1426,914
571,6	1415,086
572	1411,143
572,5	1404,286
572,9	1395,457
573,4	1383,543
573,8	1380,771
574,3	1369,743
574,7	1362,543
575,2	1348,657
575,6	1335,343
576,1	1331,714
576,5	1325,029
576,9	1312,571
577,4	1303,029
577,8	1289,429
578,3	1277,429
578,7	1268,886
579,2	1259,429
579,6	1243,8
580,1	1232,857
580,5	1220,8
581	1216,086
581,4	1211,286
581,9	1200,457
582,3	1184,743
582,7	1181,429
583,2	1176,914
583,6	1169,943
584,1	1164,457
584,5	1155,857
585	1154,457
585,4	1141,629
585,9	1128,971
586,3	1122,257
586,8	1117,257
587,2	1109,114
587,6	1106,171
588,1	1101,2
588,5	1104,571
589	1099,457
589,4	1091,6
589,9	1086,686
590,3	1081,971
590,8	1071,2
591,2	1060,629
591,7	1054,629
592,1	1051,029
592,5	1045,029
593	1035,514
593,4	1023,629
593,9	1013,514
594,3	1005,857
594,8	995,229
595,2	986,886
595,7	982,4
596,1	979,943
596,6	976,143
597	971,943
597,4	967,6
597,9	965,4
598,3	968,029
598,8	964,143
599,2	958,771
599,7	955,743
600,1	949,971
600,6	940,114
601	933,8
601,4	929,629
601,9	923,943
602,3	919,171
602,8	913,829
603,2	909,229
603,7	909,886
604,1	903,114
604,6	891,229
605	879,543
605,4	877,543
605,9	868,486
606,3	858,657
606,8	848,829
607,2	844,371
607,7	834,771
608,1	835,943
608,6	833,286
609	835,229
609,4	836,714
609,9	831,486
610,3	827,743
610,8	827,286
611,2	823,371
611,7	810,029
612,1	804,914
612,6	802
613	804,571
613,4	798,571
613,9	792,286
614,3	786,371
614,8	786,371
615,2	778,914
615,7	773,114
616,1	763,943
616,6	758,086
617	750,257
617,4	746,543
617,9	745,371
618,3	739,486
618,8	740,314
619,2	735,857
619,7	734,714
620,1	733,629
620,5	726,257
621	718,943
621,4	715,114
621,9	707,057
622,3	702,229
622,8	696
623,2	693,829
623,6	691,857
624,1	689,257
624,5	690,143
625	690,943
625,4	691,343
625,9	690,914
626,3	681,971
626,8	677,657
627,2	673,286
627,6	659,6
628,1	647,886
628,5	644,914
629	633,629
629,4	634,943
629,9	629,171
630,3	619,286
630,7	624,057
631,2	621,543
631,6	615,8
632,1	616,314
632,5	612,457
633	607,714
633,4	609,057
633,8	599,457
634,3	597,686
634,7	592,829
635,2	584,486
635,6	579,8
636,1	576,686
636,5	569,543
636,9	563,029
637,4	553,543
637,8	543,2
638,3	544,743
638,7	539,286
639,2	533,857
639,6	531,314
640	532,886
640,5	535,2
640,9	538,829
641,4	534,257
641,8	533,714
642,2	532,457
642,7	532,286
643,1	531,486
643,6	525,686
644	524,771
644,5	526,286
644,9	525,057
645,3	523,657
645,8	517,886
646,2	518,486
646,7	514,8
647,1	513,114
647,6	511
648	506,943
648,4	500,657
648,9	496,771
649,3	487,714
649,8	490,314
650,2	485,914
650,6	478,371
651,1	469,229
651,5	472,6
652	472,086
652,4	467,571
652,9	467,571
653,3	464,371
653,7	463,486
654,2	466,086
654,6	458,2
655,1	459,314
655,5	464,829
655,9	458,086
656,4	453,486
656,8	451,257
657,3	444,486
657,7	448,971
658,2	442,886
658,6	435,829
659	433,486
659,5	428,829
659,9	421,971
660,4	425,257
660,8	416,029
661,2	410,371
661,7	407,657
662,1	401,486
662,6	399,057
663	398,257
663,4	393,943
663,9	395,257
664,3	391,543
664,8	383,914
665,2	378,829
665,6	376,857
666,1	375,029
666,5	370,657
667	365,086
667,4	362,914
667,9	363,2
668,3	360,057
668,7	353,429
669,2	355,171
669,6	353,943
670,1	355,743
670,5	354,171
670,9	350,286
671,4	348,457
671,8	349,171
672,3	346,086
672,7	346,829
673,1	337,571
673,6	334,714
674	336,886
674,5	336,314
674,9	330,629
675,3	322,543
675,8	315,343
676,2	315,4
676,7	312,571
677,1	309
677,5	306,229
678	310,171
678,4	313,171
678,9	313,457
679,3	315
679,7	310,371
680,2	304,057
680,6	300,286
681,1	297,714
681,5	294,743
681,9	294,057
682,4	291,457
682,8	294,629
683,3	299,229
683,7	300,971
684,1	298,571
684,6	291,971
685	288,943
685,5	287
685,9	280,457
686,3	275,943
686,8	272,971
687,2	275
687,7	274,886
688,1	265,657
688,5	262,971
689	266,8
689,4	262,371
689,9	263,743
690,3	256,686
690,7	257,629
691,2	265,114
691,6	262,8
692	258,6
692,5	260,886
692,9	258,857
693,4	256,086
693,8	255,686
694,2	249,657
694,7	246,8
695,1	243,629
695,6	242,943
696	240,229
696,4	240,914
696,9	233,857
697,3	234,686
697,8	232,914
698,2	230,429
698,6	227,029
699,1	226,371
699,5	224,6
699,9	227,2
700,4	221,057
700,8	221,771
701,3	223,257
701,7	219,171
702,1	212,886
702,6	209,029
703	205,857
703,5	204,629
703,9	199,857
704,3	199,8
704,8	200,971
705,2	201,743
705,6	202,429
706,1	201,971
706,5	202
707	204,857
707,4	200,657
707,8	198,114
708,3	200,457
708,7	198,943
709,2	197,457
709,6	197,057
710	196,886
710,5	193,886
710,9	191,143
711,3	187,486
711,8	187,657
712,2	186,2
712,7	182,371
713,1	178,171
713,5	180,743
714	182,829
714,4	179,743
714,8	174,143
715,3	171,771
715,7	172,257
716,2	168,743
716,6	167,857
717	164,771
717,5	165,514
717,9	171,943
718,3	168,029
718,8	168,371
719,2	167,143
719,7	163,457
720,1	163,886
720,5	165,257
721	159,257
721,4	160,829
721,8	163,114
722,3	159,371
722,7	159,857
723,2	154,686
723,6	145,229
724	144,486
724,5	142,886
724,9	139,714
725,3	144,743
725,8	144,486
726,2	146,429
726,7	148,371
727,1	147,771
727,5	151,829
728	147,171
728,4	146,857
728,8	143,086
729,3	140,6
729,7	137,057
730,1	134,086
730,6	129,943
731	128,714
731,5	125,029
731,9	126,657
732,3	127,4
732,8	133,4
733,2	132,686
733,6	130,4
734,1	131,429
734,5	127,571
734,9	131,543
735,4	131,714
735,8	123,857
736,3	126,629
736,7	125,257
737,1	123,486
737,6	126,114
738	122,2
738,4	117,657
738,9	123,143
739,3	119,886
739,7	119,943
740,2	122,2
740,6	123,686
741,1	124,2
741,5	122,229
741,9	120,114
742,4	123,886
742,8	125,6
743,2	123,8
743,7	119,286
744,1	111,657
744,5	112,971
745	111,914
745,4	107,029
745,8	107,114
746,3	105,514
746,7	106,057
747,2	105,543
747,6	107,314
748	110,714
748,5	111,486
748,9	105,743
749,3	102,886
749,8	103,629
750,2	105,686
750,6	102,657
751,1	102,343
751,5	101,057
751,9	101,057
752,4	105,057
752,8	102,657
753,3	103,171
753,7	104,771
754,1	100,143
754,6	94,343
755	93,571
755,4	91,657
755,9	94,8
756,3	92,114
756,7	91,771
757,2	94,714
757,6	103,4
758	106,057
758,5	105,429
758,9	103,429
759,3	106,857
759,8	107,171
760,2	103,6
760,6	97,371
761,1	92,6
761,5	90,2
761,9	84,771
762,4	79,657
762,8	76,086
763,3	75,429
763,7	77,086
764,1	78,6
764,6	80,2
765	86,486
765,4	89,029
765,9	89,514
766,3	90,429
766,7	88,171
767,2	84,943
767,6	84,771
768	79,571
768,5	78,286
768,9	79,886
769,3	79,286
769,8	78,686
770,2	81,457
770,6	77,086
771,1	82,086
771,5	82,571
771,9	83,686
772,4	83,914
772,8	85,971
773,2	86,886
773,7	87,743
774,1	82,371
774,5	77,286
775	72,114
775,4	72,371
775,8	68,457
776,3	68,314
776,7	70,314
777,1	68,514
777,6	72,629
778	75,486
778,4	68,343
778,9	68,714
779,3	66,771
779,7	68,571
780,2	71,943
780,6	73,057
781	69,714
781,5	72,629
781,9	72,771
782,3	68,857
782,8	63,229
783,2	60,971
783,6	58,257
784,1	59,314
784,5	59,771
784,9	59,143
785,4	66,286
785,8	76,8
786,2	76,971
786,7	77,829
787,1	75,429
787,5	75,943
788	78,514
788,4	77,457
788,8	70,486
789,3	70,029
789,7	69,914
790,1	70,257
790,6	71,171
791	65,657
791,4	66,686
791,9	63
792,3	56,6
792,7	61,971
793,2	59,057
793,6	58,857
794	61
794,5	52,143
794,9	54,429
795,3	62,114
795,8	56,486
796,2	56,914
796,6	53,486
797,1	53,6
797,5	56,257
797,9	52,543
798,4	46,143
798,8	44,343
799,2	45,371
799,7	47,971
800,1	48,829
800,5	50,486
801	54,171
801,4	55,086
801,8	51,829
802,2	51,829
802,7	43,371
803,1	42,771
803,5	40,4
804	36,314
804,4	39,743
804,8	44,086
805,3	45,914
805,7	51,029
806,1	48,6
806,6	52,4
807	54,029
807,4	50,743
807,9	43,971
808,3	46,057
808,7	45,943
809,2	47,429
809,6	46,771
810	48,743
810,4	48,971
810,9	53,343
811,3	51,286
811,7	52,371
812,2	57,257
812,6	55,429
813	57,571
813,5	61,4
813,9	61,086
814,3	57,886
814,8	56,171
815,2	49,714
815,6	48,143
816,1	47,114
816,5	40,657
816,9	39,771
817,3	42,514
817,8	48,286
818,2	50,4
818,6	47
819,1	44,914
819,5	49,057
819,9	49,829
820,4	49,114
820,8	39,4
821,2	33,4
821,7	37,571
822,1	41,457
822,5	45,886
822,9	46,257
823,4	44,543
823,8	51,4
824,2	56,257
824,7	53,629
825,1	44,686
825,5	34,371
826	28,457
826,4	28,971
826,8	24
827,3	23,086
827,7	21,286
828,1	23,514
828,5	28,114
829	30,457
829,4	26,114
829,8	24,257
830,3	22,714
830,7	24,743
831,1	23,057
831,6	21,457
832	21,029
832,4	21,971
832,8	28,857
833,3	31,486
833,7	30,086
834,1	29,171
834,6	28,714
835	30,771
835,4	32,971
835,8	23,914
836,3	24,286
836,7	25,086
837,1	23,914
837,6	29,343
838	24,486
838,4	23,971
838,9	25,229
839,3	19,714
839,7	23,229
840,1	21,314
840,6	15,743
841	21,457
841,4	23,4
841,9	25,457
842,3	29,486
842,7	26,743
843,1	31,714
843,6	35,029
844	33,914
844,4	32,8
844,9	37,829
845,3	35,2
845,7	34,314
846,2	32,771
846,6	28,857
847	31,886
847,4	32,714
847,9	27,514
848,3	28,314
848,7	30,4
849,2	28,543
849,6	24,143
850	22,429
850,4	20,771
850,9	23,314
851,3	24
851,7	21,686
852,2	21,171
852,6	26,743
853	27,343
853,4	23,686
853,9	20,486
854,3	17,971
854,7	15,714
855,2	19,8
855,6	19,571
856	17,4
856,4	16,914
856,9	17,2
857,3	19,543
857,7	21,771
858,2	19,371
858,6	19,686
859	17,371
859,4	21
859,9	19,857
860,3	17,086
860,7	20,371
861,1	24,143
861,6	22,943
862	24,286
862,4	21,143
862,9	22,571
863,3	22
863,7	21,057
864,1	16,143
864,6	14,086
865	11,314
865,4	14,571
865,9	16,686
866,3	14,286
866,7	11,686
867,1	10,829
867,6	13,714
868	16,229
868,4	14,486
868,8	11,771
869,3	16,857
869,7	18,6
870,1	18,829
870,6	17,771
871	0,743
871,4	4,657
871,8	1,629
872,3	3,657
872,7	5,029
873,1	7,029
873,5	8,857
874	24,171
874,4	20,8
874,8	21,771
875,3	22,543
875,7	18,4
876,1	19,886
876,5	18,686
877	20,2
877,4	15,143
877,8	18,629
878,2	20,829
878,7	22,857
879,1	24,514
879,5	23,257
879,9	21,543
880,4	25,4
880,8	25,714
881,2	16,714
881,7	14,029
882,1	10,743
882,5	12,4
882,9	17,114
883,4	17,543
883,8	17,4
884,2	19,543
884,6	18,057
885,1	16,543
885,5	15,257
885,9	10,657
886,3	13,143
886,8	9,286
887,2	7,914
887,6	10,314
888	14,714
888,5	16,4
888,9	13,486
889,3	8,571
889,8	10,343
890,2	13,143
890,6	7,8
891	6,629
891,5	1,943
891,9	7,143
892,3	14,286
892,7	14,886
893,2	16
893,6	20,543
894	19,543
894,4	21,429
894,9	20,6
895,3	12,829
895,7	15
896,1	10,343
896,6	12,857
897	14,314
897,4	21,029
897,8	22,714
898,3	27,657
898,7	26,314
899,1	29,371
899,5	25,857
900	19,429
900,4	10,829
900,8	8,371
901,2	3,829
901,7	0,343
902,1	1,4
902,5	6,143
902,9	9,086
903,4	12,8
903,8	14,886
904,2	15,514
904,6	16,371
905,1	15,171
905,5	14,457
905,9	19,629
906,3	17,514
906,8	19,686
907,2	22,514
907,6	21,086
908	23,143
908,5	18,143
908,9	12,343
909,3	14,171
909,7	9,171
910,2	8,514
910,6	14,743
911	11,886
911,4	17,2
911,9	17,286
912,3	16,829
912,7	19,257
913,1	17,486
913,6	12,543
914	10,371
914,4	6,914
914,8	7,6
915,3	4,286
915,7	0,257
916,1	2,143
916,5	3,314
916,9	4,371
917,4	5,229
917,8	7,629
918,2	4,257
918,6	2,686
919,1	2,571
919,5	5,457
919,9	9,143
920,3	7,543
920,8	5,886
921,2	12,2
921,6	11,686
922	9
922,5	6,914
922,9	3,6
923,3	2,314
923,7	3,657
924,2	1,771
924,6	8,457
925	12,914
925,4	9,686
925,8	8,686
926,3	11,314
926,7	5,686
927,1	5,743
927,5	0,943
928	-4,429
928,4	-3,971
928,8	-0,343
929,2	-2,457
929,7	2,829
930,1	4,829
930,5	3,857
930,9	8,629
931,3	10,543
931,8	6,486
932,2	8,8
932,6	2,657
933	-0,971
933,5	0,514
933,9	-0,914
934,3	1
934,7	1,629
935,2	-0,371
935,6	2,057
936	2,771
936,4	4,657
936,8	7,571
937,3	6,057
937,7	12
938,1	16,914
938,5	15,371
939	16,657
939,4	15,371
939,8	12,114
940,2	12,829
940,6	13,4
941,1	13,543
941,5	21
941,9	23,2
942,3	21,286
942,8	23,571
943,2	24,657
943,6	15,743
944	16,371
944,4	15,229
944,9	12,286
945,3	12,429
945,7	8,857
946,1	2
946,6	3,886
947	1,2
947,4	0,314
947,8	2,229
948,2	2,714
948,7	5,057
949,1	7,543
949,5	12,543
949,9	13,057
950,3	12,771
950,8	13,286
951,2	14,914
951,6	9,771
952	15,114
952,5	13,171
952,9	10,229
953,3	8,371
953,7	4,686
954,1	9,143
954,6	14,4
955	12,771
955,4	10,686
955,8	16,229
956,2	15,714
956,7	19,314
957,1	12,486
957,5	11,429
957,9	9,343
958,3	10,257
958,8	6,657
959,2	13,543
959,6	16,257
960	19,429
960,5	19,8
960,9	17,943
961,3	15,857
961,7	14,629
962,1	8,714
962,6	6,571
963	6,829
963,4	2,143
963,8	5,286
964,2	9,514
964,7	9,143
965,1	8
965,5	8,371
965,9	6,2
966,3	11,886
966,8	12
967,2	10,914
967,6	10,486
968	6,543
968,4	4,029
968,9	6,314
969,3	9,914
969,7	5,171
970,1	3,886
970,5	0,743
971	8,743
971,4	9,714
971,8	9,829
972,2	5,6
972,6	8
973,1	7,914
973,5	11,229
973,9	11,486
974,3	10,914
974,7	13,629
975,2	12,771
975,6	11,571
976	10,686
976,4	10,629
976,8	4,829
977,3	5,343
977,7	-1,514
978,1	-0,486
978,5	-1,286
978,9	-2,314
979,4	-2,714
979,8	-3,571
980,2	-0,971
980,6	-1,514
981	0,943
981,5	1,286
981,9	0,629
982,3	2,543
982,7	7,057
983,1	1,743
983,6	4,514
984	1,914
984,4	4,971
984,8	3,829
985,2	5,486
985,6	3,657
986,1	4,543
986,5	7,114
986,9	0,2
987,3	2
987,7	9,171
988,2	5,114
988,6	2,743
989	3,086
989,4	1,057
989,8	8,486
990,3	2,857
990,7	-1,2
991,1	1,457
991,5	7,114
991,9	13,2
992,3	14,543
992,8	13,857
993,2	15,514
993,6	16,714
994	16,771
994,4	21,229
994,9	18,486
995,3	14,971
995,7	13,457
996,1	14,943
996,5	10,571
996,9	7,286
997,4	4,886
997,8	-1,686
998,2	0,914
998,6	-4,257
999	-3,086
999,5	-0,714
999,9	1,914
1000,3	-6,171
1000,7	-0,486
1001,1	-1
1001,5	6,514
1002	8,057
1002,4	11,286
1002,8	13,486
1003,2	20,514
1003,6	20,657
1004	24,857
1004,5	20,657
1004,9	20,2
1005,3	12,971
1005,7	11,257
1006,1	3,229
1006,6	-2,486
1007	-8,629
1007,4	-8,971
1007,8	-11,486
1008,2	-7,2
1008,6	-8,314
1009,1	-5,086
1009,5	-2,6
1009,9	0,286
1010,3	6,543
1010,7	7,8
1011,1	8,657
1011,6	7,886
1012	11,943
1012,4	12,314
1012,8	8,4
1013,2	12,057
1013,6	10,571
1014,1	9,457
1014,5	10,171
1014,9	7,543
1015,3	7,371
1015,7	8,514
1016,1	3,543
1016,6	6,429
1017	6,286
1017,4	4,8
1017,8	2,429
1018,2	4,714
1018,6	5,057
1019,1	1,029
1019,5	-4,771
1019,9	-6,2
1020,3	-1,4
1020,7	1,686
1021,1	1,743
1021,6	0,086
1022	4
1022,4	9,514
1022,8	10,457
1023,2	6,429
1023,6	5,343
1024,1	7,857
1024,5	13,857
1024,9	7,971
1025,3	7,6
1025,7	6,829
1026,1	9,6
1026,6	13,514
1027	8,943
1027,4	9,971
1027,8	13,514
1028,2	11,6
1028,6	16,514
1029	13,2
1029,5	11,314
1029,9	11,886
1030,3	6,371
1030,7	6,943
1031,1	7,829
1031,5	2,514
1032	3,8
1032,4	4,229
1032,8	3,114
1033,2	5,657
1033,6	3,2
1034	5,2
1034,4	6,914
1034,9	7,286
1035,3	2,4
1035,7	6,629
1036,1	6,629
1036,5	3,286
1036,9	1,914
1037,4	3,4
1037,8	0,857
1038,2	0,514
1038,6	-1,2
1039	0,257
1039,4	5,257
1039,8	-2,514
1040,3	-1,829
1040,7	-1,486
1041,1	3,914
1041,5	2,229
1041,9	-2,971
1042,3	-6,2
1042,7	3,429
1043,2	0,914
1043,6	-1,029
1044	-6,143
1044,4	-7,429
1044,8	-2,314
1045,2	0,286
1045,6	-6,943
1046,1	-4,286
1046,5	-2,343
1046,9	-2,171
1047,3	-2,914
1047,7	-5,343
1048,1	-4,743
1048,5	0,371
1049	0,143
1049,4	6,486
1049,8	6,857
1050,2	12,429
1050,6	15,771
1051	16,429
1051,4	13,543
1051,9	12,629
1052,3	11,114
1052,7	15,571
1053,1	12,886
1053,5	11,829
1053,9	13
1054,3	13,914
1054,8	19,429
1055,2	14,714
1055,6	14,457
1056	10,371
1056,4	9,886
1056,8	6,457
1057,2	5,286
1057,6	-3,2
1058,1	-6,429
1058,5	-11,657
1058,9	-6,543
1059,3	-5,486
1059,7	-2,171
1060,1	2,514
1060,5	10,2
1061	15,686
1061,4	17,714
1061,8	18,857
1062,2	15,857
1062,6	17,029
1063	13,714
1063,4	8,943
1063,8	10,857
1064,3	9,114
1064,7	6,657
1065,1	6,343
1065,5	2,171
1065,9	-0,943
1066,3	-3,229
1066,7	-7,171
1067,1	-5,714
1067,6	-2,057
1068	-6,457
1068,4	-6,029
1068,8	1,486
1069,2	6,857
1069,6	8,829
1070	7,286
1070,4	1
1070,9	3,457
1071,3	1,686
1071,7	-3,086
1072,1	-6,543
1072,5	-13,229
1072,9	-10,457
1073,3	-4,686
1073,7	-4,714
1074,2	-4,457
1074,6	-1
1075	-0,8
1075,4	5,943
1075,8	7,4
1076,2	3,857
1076,6	8,657
1077	9,771
1077,5	7,543
1077,9	2,286
1078,3	1,429
1078,7	-1
1079,1	-1,2
1079,5	-5,2
1079,9	-3,286
1080,3	-1,8
1080,7	3,886
1081,2	8,086
1081,6	6,029
1082	4,286
1082,4	8,8
1082,8	7,229
1083,2	7,743
1083,6	7,343
1084	3,429
1084,5	6,371
1084,9	6,857
1085,3	2
1085,7	4,886
1086,1	0,914
1086,5	0,829
1086,9	4,771
1087,3	7
1087,7	7,429
1088,2	6,371
1088,6	7,371
1089	11,8
1089,4	10,971
1089,8	8,571
1090,2	3,457
1090,6	5,029
1091	7,829
1091,4	8,8
1091,9	5,6
1092,3	8,6
1092,7	7,571
1093,1	13,2
1093,5	13,571
1093,9	13,6
1094,3	14,8
1094,7	12,771
1095,1	11,057
1095,5	12,029
1096	7,457
1096,4	4,343
1096,8	4,571
1097,2	-1,257
1097,6	7,171
1098	8,057
1098,4	10,2
1098,8	11,714
1099,2	19,629
1099,6	17,686
1100,1	15,829
1100,5	8,429
1100,9	9,286
1101,3	5,686
1101,7	5,857
1102,1	-0,514
1102,5	2,943
1102,9	7,429
1103,3	11,057
1103,7	6,771
1104,2	8,286
1104,6	10,457
1105	6,971
1105,4	7,714
1105,8	4,943
1106,2	2,457
1106,6	3,943
1107	1,686
1107,4	-1,3
1107,8	4,32
1108,3	0,2
