Data from Subt2_309.txt Node
Date: Sat Aug 26 19:14:38 MSK 2023
User: vat
Spectrometer: MAYP114033
Trigger mode: 0
Integration Time (sec): 1,000000E0
Scans to average: 5
Electric dark correction enabled: true
Nonlinearity correction enabled: false
Boxcar width: 3
XAxis mode: Wavelengths
Number of Pixels in Spectrum: 2068
>>>>>Begin Spectral Data<<<<<
199,4	-1,033
199,9	2,027
200,4	1,633
200,8	3,152
201,3	0,152
201,8	3,01
202,2	2,924
202,7	6,124
203,2	5,924
203,6	6,695
204,1	3,581
204,6	7,467
205	6,667
205,5	7,152
206	5,467
206,4	3,381
206,9	3,524
207,4	5,267
207,8	5,267
208,3	6,152
208,8	5,781
209,2	6,924
209,7	8,81
210,2	11,238
210,6	9,81
211,1	13,124
211,5	10,695
212	11,838
212,5	6,81
212,9	5,238
213,4	3,524
213,9	0,952
214,3	0,524
214,8	7,01
215,3	7,181
215,7	14,61
216,2	16,038
216,7	16,895
217,1	17,952
217,6	18,038
218,1	13,295
218,5	9,552
219	4,01
219,5	5,067
219,9	1,752
220,4	13,238
220,9	10,695
221,3	9,267
221,8	14,81
222,3	17,895
222,7	17,495
223,2	21,124
223,6	11,867
224,1	9,352
224,6	9,667
225	2,124
225,5	-1,305
226	0,238
226,4	-0,848
226,9	-1,133
227,4	2,524
227,8	0,867
228,3	9,381
228,8	9,781
229,2	7,267
229,7	6,038
230,2	8,438
230,6	8,867
231,1	9,238
231,5	7,324
232	4,21
232,5	5,781
232,9	6,295
233,4	10,724
233,9	5,752
234,3	7,752
234,8	6,952
235,3	13,324
235,7	13,124
236,2	15,067
236,7	9,41
237,1	18,924
237,6	17,067
238,1	16,152
238,5	9,581
239	10,724
239,4	11,695
239,9	9,495
240,4	5,238
240,8	12,124
241,3	9,952
241,8	13,095
242,2	10,924
242,7	3,724
243,2	9,295
243,6	0,267
244,1	1,181
244,6	0,895
245	3,152
245,5	2,495
245,9	3,952
246,4	-0,962
246,9	9,438
247,3	5,581
247,8	10,095
248,3	12,495
248,7	15,495
249,2	17,181
249,7	19,438
250,1	16,838
250,6	13,095
251	12,81
251,5	10,41
252	9,238
252,4	8,467
252,9	8,724
253,4	5,895
253,8	4,781
254,3	6,295
254,8	5,581
255,2	4,667
255,7	10,752
256,1	8,581
256,6	12,181
257,1	18,438
257,5	12,324
258	7,895
258,5	9,667
258,9	2,724
259,4	1,838
259,9	5,152
260,3	-0,59
260,8	0,495
261,2	6,838
261,7	8,352
262,2	8,095
262,6	10,324
263,1	8,467
263,6	9,324
264	14,667
264,5	15,238
264,9	12,838
265,4	15,81
265,9	12,895
266,3	16,21
266,8	19,924
267,3	18,038
267,7	11,495
268,2	11,01
268,7	12,781
269,1	14,352
269,6	9,01
270	12,267
270,5	7,724
271	15,152
271,4	14,095
271,9	6,81
272,4	11,438
272,8	13,324
273,3	3,61
273,7	10,067
274,2	6,352
274,7	7,41
275,1	11,81
275,6	9,695
276,1	5,838
276,5	16,181
277	11,981
277,4	16,21
277,9	16,324
278,4	18,695
278,8	19,438
279,3	22,61
279,8	16,581
280,2	21,81
280,7	22,295
281,1	21,638
281,6	23,381
282,1	23,724
282,5	19,752
283	19,295
283,4	16,21
283,9	14,467
284,4	16,095
284,8	12,181
285,3	10,81
285,8	15,867
286,2	14,781
286,7	14,752
287,1	10,238
287,6	7,752
288,1	2,61
288,5	4,067
289	2,838
289,5	7,895
289,9	5,495
290,4	10,752
290,8	9,267
291,3	14,781
291,8	15,352
292,2	14,838
292,7	15,038
293,1	17,181
293,6	16,61
294,1	21,267
294,5	24,752
295	22,01
295,5	21,581
295,9	19,324
296,4	16,552
296,8	16,095
297,3	15,324
297,8	11,295
298,2	9,752
298,7	10,238
299,1	6,667
299,6	5,067
300,1	6,552
300,5	4,581
301	10,724
301,5	16,41
301,9	12,895
302,4	13,81
302,8	17,238
303,3	13,267
303,8	11,667
304,2	6,81
304,7	3,895
305,1	3,41
305,6	5,21
306,1	11,781
306,5	12,01
307	14,267
307,4	16,21
307,9	16,067
308,4	16,695
308,8	10,81
309,3	5,152
309,8	4,695
310,2	5,038
310,7	2,695
311,1	1,981
311,6	4,724
312,1	10,152
312,5	11,781
313	15,552
313,4	16,895
313,9	18,781
314,4	18,01
314,8	13,981
315,3	13,181
315,7	7,267
316,2	3,667
316,7	2,724
317,1	3,381
317,6	4,181
318	11,952
318,5	13,038
319	16,838
319,4	22,981
319,9	27,667
320,3	28,924
320,8	25,924
321,3	23,695
321,7	24,01
322,2	24,267
322,6	21,181
323,1	15,095
323,6	7,895
324	10,81
324,5	6,581
324,9	4,067
325,4	1,352
325,9	0,895
326,3	3,038
326,8	12,124
327,2	9,295
327,7	12,124
328,2	10,81
328,6	13,524
329,1	11,438
329,5	8,152
330	1,267
330,5	9,867
330,9	10,524
331,4	15,238
331,8	15,152
332,3	18,181
332,8	22,695
333,2	24,524
333,7	22,152
334,1	22,067
334,6	20,667
335,1	17,21
335,5	17,552
336	12,41
336,4	13,724
336,9	20,295
337,4	22,381
337,8	20,038
338,3	22,895
338,7	22,724
339,2	23,152
339,7	25,181
340,1	12,81
340,6	11,781
341	13,381
341,5	11,352
342	3,581
342,4	2,495
342,9	-1,876
343,3	1,667
343,8	-2,219
344,2	-4,162
344,7	3,867
345,2	7,21
345,6	11,895
346,1	15,295
346,5	12,238
347	9,524
347,5	8,724
347,9	8,01
348,4	9,267
348,8	8,295
349,3	6,867
349,8	9,067
350,2	20,067
350,7	21,381
351,1	22,495
351,6	28,124
352	31,838
352,5	37,581
353	50,867
353,4	48,981
353,9	65,181
354,3	76,667
354,8	87,467
355,3	106,124
355,7	124,438
356,2	137,981
356,6	162,41
357,1	184,695
357,5	212,467
358	251,495
358,5	286,781
358,9	330,495
359,4	384,638
359,8	446,267
360,3	515,552
360,8	585,752
361,2	662,352
361,7	755,038
362,1	856,295
362,6	964,838
363	1079,667
363,5	1202,867
364	1341,267
364,4	1473,581
364,9	1609,924
365,3	1741,381
365,8	1863,781
366,3	1977,352
366,7	2081,324
367,2	2167,181
367,6	2238,867
368,1	2294,352
368,5	2326,638
369	2344,695
369,5	2349,895
369,9	2328,638
370,4	2286,695
370,8	2241,181
371,3	2177,324
371,7	2100,381
372,2	2009,867
372,7	1912,152
373,1	1808,067
373,6	1703,752
374	1596,81
374,5	1486,638
374,9	1388,038
375,4	1292,038
375,9	1197,638
376,3	1105,267
376,8	1021,295
377,2	938,981
377,7	859,238
378,2	784,038
378,6	716,381
379,1	654,667
379,5	606,895
380	559,21
380,4	513,981
380,9	473,981
381,4	439,952
381,8	409,352
382,3	383,295
382,7	355,724
383,2	334,267
383,6	310,438
384,1	291,152
384,6	270,952
385	252,581
385,5	231,152
385,9	214,552
386,4	196,152
386,8	185,238
387,3	173,81
387,7	163,724
388,2	155,724
388,7	150,81
389,1	141,01
389,6	134,181
390	124,01
390,5	117,695
390,9	113,981
391,4	106,838
391,9	99,438
392,3	96,61
392,8	88,067
393,2	82,381
393,7	76,61
394,1	65,21
394,6	58,352
395,1	53,524
395,5	45,867
396	48,324
396,4	49,581
396,9	48,781
397,3	53,724
397,8	58,21
398,2	59,581
398,7	61,838
399,2	57,638
399,6	58,724
400,1	55,638
400,5	48,181
401	45,552
401,4	39,352
401,9	42,295
402,4	46,324
402,8	41,924
403,3	47,952
403,7	50,838
404,2	53,781
404,6	59,381
405,1	55,638
405,5	54,124
406	54,781
406,5	49,352
406,9	49,752
407,4	42,238
407,8	38,952
408,3	42,495
408,7	36,838
409,2	42,124
409,6	48,095
410,1	50,152
410,6	59,21
411	62,838
411,5	60,238
411,9	67,267
412,4	65,838
412,8	65,324
413,3	69,381
413,7	68,81
414,2	68,21
414,7	75,181
415,1	78,838
415,6	79,895
416	80,638
416,5	77,21
416,9	76,01
417,4	79,41
417,8	84,581
418,3	86,867
418,8	92,295
419,2	92,038
419,7	100,267
420,1	101,695
420,6	101,295
421	95,181
421,5	95,438
421,9	92,467
422,4	98,124
422,8	93,667
423,3	96,067
423,8	99,152
424,2	97,724
424,7	95,724
425,1	98,667
425,6	101,381
426	102,01
426,5	100,952
426,9	100,667
427,4	99,324
427,9	94,667
428,3	94,838
428,8	90,038
429,2	89,524
429,7	87,524
430,1	83,724
430,6	90,352
431	93,295
431,5	90,581
431,9	88,867
432,4	89,381
432,8	90,638
433,3	92,81
433,8	86,295
434,2	87,724
434,7	92,638
435,1	96,238
435,6	97,438
436	101,924
436,5	108,038
436,9	111,495
437,4	112,524
437,8	117,01
438,3	120,295
438,8	128,438
439,2	130,067
439,7	136,295
440,1	145,724
440,6	159,952
441	162,095
441,5	169,724
441,9	175,095
442,4	180,752
442,8	180,181
443,3	185,295
443,7	189,124
444,2	196,781
444,7	202,667
445,1	211,21
445,6	217,838
446	228,952
446,5	235,467
446,9	239,952
447,4	247,152
447,8	257,81
448,3	268,324
448,7	279,067
449,2	291,495
449,6	305,038
450,1	314,781
450,6	333,124
451	343,495
451,5	354,695
451,9	373,695
452,4	393,067
452,8	404,238
453,3	425,467
453,7	429,238
454,2	446,724
454,6	457,952
455,1	470,838
455,5	478,981
456	501,552
456,4	509,124
456,9	531,781
457,3	544,295
457,8	557,524
458,3	576,981
458,7	595,352
459,2	609,981
459,6	630,124
460,1	649,981
460,5	667,867
461	694,724
461,4	709,838
461,9	728,21
462,3	752,581
462,8	775,895
463,2	795,438
463,7	821,267
464,1	844,21
464,6	871,667
465	899,067
465,5	915,695
466	939,238
466,4	961,552
466,9	981,924
467,3	1006,381
467,8	1029,438
468,2	1049,21
468,7	1077,124
469,1	1102,667
469,6	1129,124
470	1156,038
470,5	1184,438
470,9	1205,724
471,4	1230,467
471,8	1252,552
472,3	1283,01
472,7	1308,895
473,2	1332,61
473,6	1348,838
474,1	1379,638
474,5	1404,552
475	1428,381
475,4	1448,524
475,9	1472,352
476,4	1495,952
476,8	1525,21
477,3	1544,61
477,7	1573,381
478,2	1601,01
478,6	1618,41
479,1	1640,324
479,5	1670,381
480	1688,924
480,4	1718,381
480,9	1735,181
481,3	1754,267
481,8	1778,152
482,2	1794,181
482,7	1807,238
483,1	1827,552
483,6	1839,667
484	1858,41
484,5	1879,41
484,9	1899,61
485,4	1921,41
485,8	1938,695
486,3	1953,581
486,7	1970,467
487,2	1989,095
487,6	1999,724
488,1	2004,638
488,5	2011,038
489	2025,981
489,4	2044,695
489,9	2052,952
490,4	2065,095
490,8	2077,181
491,3	2095,21
491,7	2111,838
492,2	2117,61
492,6	2121,724
493,1	2132,01
493,5	2130,695
494	2129,438
494,4	2133,324
494,9	2138,724
495,3	2149,21
495,8	2156,067
496,2	2162,638
496,7	2165,838
497,1	2179,695
497,6	2186,552
498	2194,01
498,5	2196,838
498,9	2199,467
499,4	2206,581
499,8	2218,495
500,3	2223,81
500,7	2225,038
501,2	2219,838
501,6	2218,181
502,1	2224,267
502,5	2219,038
503	2215,838
503,4	2214,552
503,9	2209,638
504,3	2219,238
504,8	2220,895
505,2	2215,438
505,7	2215,038
506,1	2225,467
506,6	2227,524
507	2232,067
507,5	2232,01
507,9	2232,038
508,4	2232,381
508,8	2231,41
509,3	2220,238
509,7	2216,981
510,2	2220,61
510,6	2208,61
511,1	2207,295
511,5	2206,838
512	2207,467
512,4	2207,152
512,9	2207,724
513,3	2208,067
513,8	2213,838
514,2	2213,067
514,7	2212,41
515,1	2214,267
515,6	2215,724
516	2206,038
516,5	2201,01
516,9	2200,267
517,4	2202,467
517,8	2200,667
518,3	2197,638
518,7	2197,952
519,2	2199,324
519,6	2196,695
520,1	2195,438
520,5	2193,61
521	2190,867
521,4	2187,181
521,9	2189,981
522,3	2190,552
522,8	2187,924
523,2	2187,381
523,7	2186,352
524,1	2183,952
524,6	2184,781
525	2174,61
525,5	2176,152
525,9	2187,152
526,4	2185,324
526,8	2185,324
527,3	2193,381
527,7	2195,352
528,2	2201,981
528,6	2205,438
529,1	2202,952
529,5	2205,01
530	2205,324
530,4	2199,438
530,9	2199,067
531,3	2198,01
531,8	2193,781
532,2	2194,438
532,6	2193,552
533,1	2191,381
533,5	2197,152
534	2197,01
534,4	2197,952
534,9	2201,924
535,3	2196,352
535,8	2200,124
536,2	2202,324
536,7	2204,352
537,1	2211,295
537,6	2210,181
538	2211,038
538,5	2218,781
538,9	2214,124
539,4	2220,952
539,8	2221,495
540,3	2224,238
540,7	2234,381
541,2	2236,381
541,6	2238,352
542,1	2248,095
542,5	2249,495
543	2250,21
543,4	2245,21
543,9	2250,324
544,3	2259,695
544,8	2258,952
545,2	2264,467
545,7	2268,381
546,1	2273,981
546,5	2285,381
547	2286,924
547,4	2286,838
547,9	2296,067
548,3	2296,552
548,8	2301,781
549,2	2300,381
549,7	2301,038
550,1	2299,295
550,6	2300,838
551	2294,295
551,5	2297,352
551,9	2295,01
552,4	2304,638
552,8	2307,867
553,3	2311,781
553,7	2311,667
554,2	2319,381
554,6	2324,352
555,1	2329,238
555,5	2325,724
555,9	2326,067
556,4	2329,524
556,8	2334,01
557,3	2339,638
557,7	2342,295
558,2	2343,495
558,6	2351,952
559,1	2358,952
559,5	2355,667
560	2361,152
560,4	2362,667
560,9	2361,952
561,3	2366,381
561,8	2367,781
562,2	2370,61
562,7	2380,638
563,1	2383,295
563,6	2381,724
564	2382,981
564,4	2385,21
564,9	2386,867
565,3	2381,781
565,8	2375,838
566,2	2372,267
566,7	2378,21
567,1	2380,667
567,6	2381,295
568	2382,695
568,5	2383,524
568,9	2385,41
569,4	2390,724
569,8	2389,695
570,3	2391,638
570,7	2383,124
571,1	2380,21
571,6	2384,01
572	2393,952
572,5	2391,467
572,9	2388,295
573,4	2382,495
573,8	2390,381
574,3	2385,895
574,7	2379,924
575,2	2371,467
575,6	2367,352
576,1	2372,381
576,5	2378,695
576,9	2376,524
577,4	2375,238
577,8	2372,095
578,3	2370,038
578,7	2366,267
579,2	2366,381
579,6	2357,124
580,1	2350,21
580,5	2352,581
581	2361,295
581,4	2354,152
581,9	2359,667
582,3	2346,495
582,7	2346,524
583,2	2346,41
583,6	2344,724
584,1	2341,895
584,5	2343,638
585	2335,695
585,4	2331,467
585,9	2328,152
586,3	2328,267
586,8	2323,495
587,2	2310,381
587,6	2314,781
588,1	2312,981
588,5	2310,981
589	2306,381
589,4	2304,21
589,9	2305,467
590,3	2305,81
590,8	2294,952
591,2	2296,324
591,7	2300,838
592,1	2296,438
592,5	2294,295
593	2284,438
593,4	2279,381
593,9	2277,067
594,3	2268,695
594,8	2256,981
595,2	2255,981
595,7	2251,295
596,1	2246,01
596,6	2247,152
597	2240,41
597,4	2241,638
597,9	2240,495
598,3	2240,21
598,8	2231,295
599,2	2231,638
599,7	2222,752
600,1	2218,638
600,6	2208,924
601	2208,638
601,4	2206,267
601,9	2206,952
602,3	2199,952
602,8	2197,667
603,2	2193,552
603,7	2186,581
604,1	2182,752
604,6	2171,41
605	2160,552
605,4	2159,324
605,9	2146,438
606,3	2137,41
606,8	2131,124
607,2	2121,381
607,7	2111,552
608,1	2109,924
608,6	2099,638
609	2101,21
609,4	2102,352
609,9	2096,467
610,3	2087,438
610,8	2085,552
611,2	2076,467
611,7	2070,267
612,1	2059,781
612,6	2053,524
613	2051,21
613,4	2043,124
613,9	2035,81
614,3	2026,752
614,8	2020,895
615,2	2014,495
615,7	2007,524
616,1	1999,381
616,6	1994,724
617	1989,295
617,4	1981,724
617,9	1973,495
618,3	1968,895
618,8	1959,924
619,2	1949,895
619,7	1944,181
620,1	1933,838
620,5	1935,895
621	1929,924
621,4	1921,41
621,9	1913,981
622,3	1911,324
622,8	1901,381
623,2	1894,21
623,6	1878,067
624,1	1868,695
624,5	1858,895
625	1851,895
625,4	1844,01
625,9	1840,552
626,3	1830,41
626,8	1823,695
627,2	1821,781
627,6	1812,124
628,1	1801,724
628,5	1791,867
629	1778,495
629,4	1772,895
629,9	1764,01
630,3	1744,352
630,7	1735,495
631,2	1730,638
631,6	1720,667
632,1	1713,81
632,5	1705,067
633	1700,324
633,4	1701,467
633,8	1697,924
634,3	1689,667
634,7	1684,467
635,2	1672,467
635,6	1665,181
636,1	1654,695
636,5	1640,238
636,9	1625,552
637,4	1613,41
637,8	1600,695
638,3	1592,695
638,7	1582,438
639,2	1573,638
639,6	1567,695
640	1563,467
640,5	1558,181
640,9	1554,895
641,4	1546,495
641,8	1542,01
642,2	1532,695
642,7	1531,695
643,1	1531,381
643,6	1520,324
644	1511,924
644,5	1514,067
644,9	1505,238
645,3	1500,581
645,8	1486,152
646,2	1477,295
646,7	1469,695
647,1	1458,638
647,6	1450,781
648	1442,81
648,4	1434,495
648,9	1429,667
649,3	1418,067
649,8	1417,981
650,2	1416,324
650,6	1408,952
651,1	1403,352
651,5	1401,61
652	1391,038
652,4	1381,324
652,9	1369,581
653,3	1363,038
653,7	1350,41
654,2	1341,467
654,6	1323,61
655,1	1319,41
655,5	1322,324
655,9	1313,381
656,4	1304,495
656,8	1300,581
657,3	1294,895
657,7	1294,724
658,2	1285,867
658,6	1271,638
659	1267,324
659,5	1258,324
659,9	1251,152
660,4	1246,21
660,8	1235,81
661,2	1228,067
661,7	1219,581
662,1	1211,695
662,6	1207,581
663	1201,667
663,4	1195,81
663,9	1192,21
664,3	1183,895
664,8	1178,038
665,2	1169,152
665,6	1158,667
666,1	1150,152
666,5	1142,152
667	1134,381
667,4	1131,267
667,9	1122,238
668,3	1116,01
668,7	1110,295
669,2	1109,267
669,6	1104,267
670,1	1099,181
670,5	1091,238
670,9	1085,838
671,4	1080,352
671,8	1074,181
672,3	1068,895
672,7	1061,324
673,1	1050,467
673,6	1039,324
674	1039,21
674,5	1032,095
674,9	1023,295
675,3	1010,381
675,8	1004,581
676,2	1002,038
676,7	995,667
677,1	987,867
677,5	981,724
678	977,895
678,4	974,495
678,9	968,924
679,3	963,181
679,7	961,495
680,2	949,438
680,6	941,61
681,1	931,152
681,5	925,238
681,9	918,895
682,4	914,495
682,8	911,038
683,3	911,524
683,7	911,495
684,1	911,61
684,6	902,81
685	895,124
685,5	883,61
685,9	873,581
686,3	866,181
686,8	856,867
687,2	850,667
687,7	845,524
688,1	835,81
688,5	832,81
689	833,467
689,4	829,581
689,9	822,381
690,3	812,352
690,7	808,495
691,2	810,952
691,6	804,781
692	797,667
692,5	789,324
692,9	788,152
693,4	787,01
693,8	779,781
694,2	771,21
694,7	771,01
695,1	762,667
695,6	761,181
696	757,21
696,4	752,524
696,9	746,181
697,3	739,724
697,8	732,61
698,2	730,581
698,6	726,781
699,1	723,438
699,5	721,838
699,9	717,381
700,4	717,01
700,8	716,581
701,3	714,181
701,7	704,752
702,1	698,352
702,6	691,295
703	687,324
703,5	681,981
703,9	671,267
704,3	668,81
704,8	666,238
705,2	659,467
705,6	656,781
706,1	656,038
706,5	649,981
707	651,838
707,4	648,752
707,8	640,038
708,3	639,324
708,7	633,81
709,2	630,438
709,6	625,352
710	623,324
710,5	610,924
710,9	613,124
711,3	607,381
711,8	605,838
712,2	601,867
712,7	600,352
713,1	597,295
713,5	597,638
714	594,352
714,4	590,924
714,8	587,495
715,3	579,724
715,7	576,524
716,2	566,01
716,6	565,124
717	559,295
717,5	555,267
717,9	555,267
718,3	553,152
718,8	547,638
719,2	541,638
719,7	535,267
720,1	533,924
720,5	533,381
721	521,324
721,4	517,524
721,8	519,324
722,3	517,41
722,7	517,524
723,2	510,438
723,6	497,324
724	495,038
724,5	492,495
724,9	484,638
725,3	481,467
725,8	471,038
726,2	468,524
726,7	469,352
727,1	465,352
727,5	461,952
728	456,095
728,4	455,552
728,8	455,181
729,3	452,724
729,7	448,695
730,1	447,41
730,6	444,638
731	444,238
731,5	439,752
731,9	435,552
732,3	432,695
732,8	436,895
733,2	433,381
733,6	434,21
734,1	435,467
734,5	434,324
734,9	437,752
735,4	439,181
735,8	429,667
736,3	433,838
736,7	426,01
737,1	422,438
737,6	417,952
738	414,952
738,4	407,381
738,9	409,267
739,3	405,095
739,7	407,181
740,2	399,552
740,6	403,181
741,1	402,81
741,5	399,381
741,9	395,61
742,4	393,238
742,8	387,152
743,2	386,695
743,7	376,724
744,1	369,924
744,5	365,21
745	362,724
745,4	353,667
745,8	356,495
746,3	356,124
746,7	357,067
747,2	356,695
747,6	362,724
748	367,61
748,5	373,981
748,9	367,924
749,3	359,21
749,8	359,41
750,2	355,695
750,6	350,638
751,1	345,438
751,5	340,124
751,9	338,152
752,4	342,752
752,8	338,267
753,3	336,095
753,7	337,81
754,1	326,581
754,6	320,524
755	316,41
755,4	314,21
755,9	315,038
756,3	312,981
756,7	309,152
757,2	315,524
757,6	316,295
758	318,952
758,5	316,495
758,9	310,638
759,3	305,352
759,8	300,152
760,2	295,267
760,6	289,552
761,1	282,724
761,5	280,895
761,9	277,324
762,4	273,752
762,8	273,981
763,3	271,981
763,7	272,924
764,1	274,067
764,6	272,124
765	274,81
765,4	276,352
765,9	276,267
766,3	278,067
766,7	276,781
767,2	275,124
767,6	276,067
768	273,495
768,5	274,038
768,9	271,981
769,3	270,381
769,8	267,01
770,2	267,467
770,6	266,21
771,1	265,267
771,5	266,267
771,9	263,238
772,4	257,21
772,8	258,724
773,2	253,324
773,7	247,152
774,1	247,067
774,5	237,267
775	235,781
775,4	236,581
775,8	229,838
776,3	234,41
776,7	235,324
777,1	229,095
777,6	234,381
778	237,552
778,4	238,124
778,9	242,038
779,3	233,781
779,7	234,381
780,2	236,467
780,6	231,667
781	227,924
781,5	224,41
781,9	221,524
782,3	216,81
782,8	212,21
783,2	209,838
783,6	214,295
784,1	209,695
784,5	207,524
784,9	208,581
785,4	216,781
785,8	221,41
786,2	217,924
786,7	215,467
787,1	215,038
787,5	215,781
788	215,41
788,4	210,067
788,8	202,067
789,3	200,952
789,7	197,152
790,1	197,638
790,6	195,752
791	189,01
791,4	190,638
791,9	189,552
792,3	188,924
792,7	189,838
793,2	187,21
793,6	186,781
794	188,81
794,5	182,067
794,9	183,667
795,3	185,467
795,8	180,267
796,2	178,724
796,6	178,695
797,1	175,181
797,5	172,667
797,9	168,41
798,4	164,124
798,8	163,295
799,2	161,41
799,7	157,867
800,1	156,152
800,5	157,724
801	157,181
801,4	160,524
801,8	157,867
802,2	153,124
802,7	149,61
803,1	150,81
803,5	151,095
804	148,781
804,4	143,038
804,8	145,981
805,3	152,667
805,7	156,924
806,1	152,838
806,6	154,581
807	154,895
807,4	149,952
807,9	143,267
808,3	142,638
808,7	135,695
809,2	137,81
809,6	140,324
810	138,924
810,4	139,067
810,9	143,038
811,3	141,838
811,7	143,638
812,2	147,01
812,6	139,095
813	141,838
813,5	146,838
813,9	142,495
814,3	139,667
814,8	137,067
815,2	131,267
815,6	131,552
816,1	129,01
816,5	126,352
816,9	125,752
817,3	122,524
817,8	124,352
818,2	122,495
818,6	119,152
819,1	117,181
819,5	112,981
819,9	111,21
820,4	113,838
820,8	111,067
821,2	105,838
821,7	108,667
822,1	112,067
822,5	116,267
822,9	114,752
823,4	112,438
823,8	116,552
824,2	121,181
824,7	117,638
825,1	108,838
825,5	103,21
826	101,61
826,4	101,295
826,8	96,724
827,3	97,552
827,7	93,381
828,1	96,638
828,5	98,295
829	97,467
829,4	92,752
829,8	83,752
830,3	84,867
830,7	88,838
831,1	87,924
831,6	87,438
832	90,552
832,4	94,124
832,8	103,467
833,3	100,295
833,7	96,552
834,1	92,552
834,6	88,01
835	87,981
835,4	85,067
835,8	78,324
836,3	73,895
836,7	74,895
837,1	76,21
837,6	80,067
838	78,41
838,4	79,21
838,9	83,324
839,3	84,952
839,7	84,638
840,1	81,61
840,6	80,838
841	81,61
841,4	81,381
841,9	79,867
842,3	78,067
842,7	75,524
843,1	77,267
843,6	80,838
844	80,495
844,4	79,41
844,9	79,295
845,3	80,667
845,7	79,638
846,2	81,181
846,6	73,438
847	72,124
847,4	72,295
847,9	72,867
848,3	72,21
848,7	74,152
849,2	72,495
849,6	71,181
850	77,438
850,4	74,067
850,9	76,552
851,3	75,381
851,7	74,267
852,2	73,981
852,6	80,01
853	74,467
853,4	73,124
853,9	65,067
854,3	66,81
854,7	69,524
855,2	68,61
855,6	65,781
856	62,381
856,4	59,724
856,9	58,667
857,3	59,21
857,7	57,61
858,2	61,267
858,6	58,152
859	59,41
859,4	65,038
859,9	63,924
860,3	58,238
860,7	59,524
861,1	59,41
861,6	59,781
862	58,924
862,4	53,038
862,9	59,838
863,3	61,467
863,7	60,124
864,1	58,41
864,6	57,952
865	57,81
865,4	62,952
865,9	63,467
866,3	60,067
866,7	56,895
867,1	52,381
867,6	51,695
868	51,552
868,4	50,324
868,8	46,095
869,3	46,067
869,7	49,324
870,1	46,467
870,6	45,238
871	-6,39
871,4	-1,333
871,8	-2,248
872,3	1,21
872,7	-0,876
873,1	0,067
873,5	2,467
874	51,924
874,4	45,867
874,8	47,61
875,3	49,667
875,7	47,61
876,1	49,81
876,5	49,381
877	47,381
877,4	43,695
877,8	45,124
878,2	44,924
878,7	50,838
879,1	50,467
879,5	50,381
879,9	52,495
880,4	55,61
880,8	50,352
881,2	47,838
881,7	40,238
882,1	41,181
882,5	36,638
882,9	33,752
883,4	30,067
883,8	35,01
884,2	33,467
884,6	35,21
885,1	35,895
885,5	38,752
885,9	42,352
886,3	48,667
886,8	40,067
887,2	41,467
887,6	37,952
888	35,724
888,5	36,067
888,9	32,295
889,3	25,41
889,8	27,238
890,2	25,838
890,6	27,695
891	26,124
891,5	28,695
891,9	31,838
892,3	33,838
892,7	37,152
893,2	36,324
893,6	37,267
894	39,924
894,4	36,524
894,9	36,895
895,3	40,752
895,7	41,781
896,1	44,152
896,6	43,21
897	43,695
897,4	48,01
897,8	47,152
898,3	48,352
898,7	47,01
899,1	42,267
899,5	41,838
900	34,524
900,4	29,781
900,8	23,724
901,2	17,181
901,7	18,352
902,1	22,552
902,5	28,695
902,9	30,01
903,4	30,01
903,8	35,41
904,2	32,467
904,6	28,038
905,1	27,752
905,5	25,981
905,9	31,381
906,3	32,838
906,8	34,124
907,2	37,895
907,6	41,667
908	41,381
908,5	35,124
908,9	31,581
909,3	26,524
909,7	23,438
910,2	22,41
910,6	25,01
911	22,381
911,4	26,695
911,9	25,752
912,3	29,581
912,7	29,952
913,1	32,095
913,6	27,552
914	25,752
914,4	21,21
914,8	24,895
915,3	24,324
915,7	28,152
916,1	27,381
916,5	28,524
916,9	30,724
917,4	32,895
917,8	29,01
918,2	25,381
918,6	18,152
919,1	19,324
919,5	19,238
919,9	21,724
920,3	23,181
920,8	24,495
921,2	25,21
921,6	27,495
922	28,867
922,5	29,381
922,9	25,924
923,3	22,924
923,7	25,352
924,2	24,495
924,6	25,724
925	25,838
925,4	24,038
925,8	23,067
926,3	22,467
926,7	19,01
927,1	21,638
927,5	21,61
928	14,752
928,4	11,695
928,8	14,21
929,2	12,524
929,7	16,895
930,1	18,895
930,5	17,895
930,9	25,038
931,3	27,781
931,8	29,295
932,2	32,267
932,6	27,867
933	19,324
933,5	18,524
933,9	13,581
934,3	15,495
934,7	10,238
935,2	4,552
935,6	3,238
936	7,524
936,4	9,352
936,8	12,724
937,3	5,867
937,7	11,924
938,1	20,267
938,5	20,295
939	18,467
939,4	17,467
939,8	17,067
940,2	20,267
940,6	17,581
941,1	13,324
941,5	16,895
941,9	18,41
942,3	16,552
942,8	16,552
943,2	18,352
943,6	14,61
944	16,238
944,4	17,238
944,9	16,838
945,3	18,981
945,7	16,295
946,1	14,21
946,6	12,324
947	12,81
947,4	9,952
947,8	10,438
948,2	8,667
948,7	7,438
949,1	9,467
949,5	15,838
949,9	21,524
950,3	23,667
950,8	24,324
951,2	26,152
951,6	27,038
952	29,067
952,5	26,152
952,9	17,467
953,3	13,438
953,7	14,61
954,1	14,524
954,6	16,152
955	13,695
955,4	10,724
955,8	12,238
956,2	15,352
956,7	15,295
957,1	11,924
957,5	13,124
957,9	14,067
958,3	14,895
958,8	16,981
959,2	19,152
959,6	20,552
960	24,724
960,5	25,095
960,9	26,295
961,3	27,267
961,7	23,41
962,1	20,81
962,6	19,324
963	17,952
963,4	12,124
963,8	8,724
964,2	7,695
964,7	7,438
965,1	5,867
965,5	4,495
965,9	1,124
966,3	6,124
966,8	7,752
967,2	12,095
967,6	14,552
968	12,095
968,4	12,581
968,9	15,495
969,3	15,581
969,7	13,124
970,1	12,381
970,5	10,638
971	14,495
971,4	14,695
971,8	16,124
972,2	16,61
972,6	18,61
973,1	15,981
973,5	20,924
973,9	19,238
974,3	18,695
974,7	20,695
975,2	22,41
975,6	21,667
976	23,352
976,4	14,867
976,8	17,638
977,3	16,981
977,7	10,752
978,1	7,381
978,5	5,524
978,9	0,838
979,4	1,924
979,8	1,781
980,2	3,21
980,6	3,124
981	6,524
981,5	8,152
981,9	10,267
982,3	17,295
982,7	16,952
983,1	15,467
983,6	17,181
984	14,61
984,4	21,638
984,8	23,752
985,2	17,667
985,6	13,867
986,1	16,724
986,5	21,038
986,9	17,495
987,3	13,752
987,7	14,438
988,2	15,752
988,6	16,381
989	14,095
989,4	10,667
989,8	12,267
990,3	9,381
990,7	11,781
991,1	13,895
991,5	18,895
991,9	18,867
992,3	20,867
992,8	21,324
993,2	21,895
993,6	19,095
994	19,467
994,4	17,324
994,9	21,01
995,3	21,124
995,7	18,552
996,1	17,495
996,5	19,81
996,9	17,495
997,4	13,695
997,8	6,81
998,2	2,181
998,6	-0,99
999	-0,248
999,5	-2,219
999,9	-1,162
1000,3	0,324
1000,7	3,724
1001,1	6,095
1001,5	13,867
1002	15,552
1002,4	16,581
1002,8	13,324
1003,2	14,895
1003,6	16,295
1004	19,924
1004,5	15,724
1004,9	17,238
1005,3	12,781
1005,7	14,867
1006,1	14,552
1006,6	12,352
1007	11,095
1007,4	10,324
1007,8	7,067
1008,2	7,41
1008,6	10,667
1009,1	10,152
1009,5	15,21
1009,9	14,667
1010,3	22,01
1010,7	23,781
1011,1	25,067
1011,6	21,781
1012	23,667
1012,4	20,438
1012,8	18,095
1013,2	21,095
1013,6	20,095
1014,1	22,867
1014,5	22,152
1014,9	21,552
1015,3	17,924
1015,7	22,095
1016,1	13,038
1016,6	9,638
1017	10,41
1017,4	10,952
1017,8	9,181
1018,2	12,981
1018,6	8,667
1019,1	9,524
1019,5	11,41
1019,9	5,781
1020,3	9,41
1020,7	10,238
1021,1	8,267
1021,6	10,752
1022	15,324
1022,4	18,095
1022,8	22,124
1023,2	18,695
1023,6	16,352
1024,1	23,667
1024,5	19,895
1024,9	11,295
1025,3	7,781
1025,7	7,238
1026,1	11,581
1026,6	10,581
1027	5,41
1027,4	12,867
1027,8	17,152
1028,2	17,752
1028,6	20,724
1029	19,781
1029,5	24,581
1029,9	20,81
1030,3	10,267
1030,7	12,467
1031,1	18,438
1031,5	14,695
1032	12,924
1032,4	12,181
1032,8	17,295
1033,2	24,467
1033,6	19,524
1034	15,295
1034,4	14,238
1034,9	16,524
1035,3	17,095
1035,7	22,895
1036,1	23,867
1036,5	29,724
1036,9	28,61
1037,4	31,581
1037,8	24,152
1038,2	22,295
1038,6	13,895
1039	15,124
1039,4	15,41
1039,8	11,067
1040,3	9,924
1040,7	17,095
1041,1	18,238
1041,5	19,267
1041,9	14,81
1042,3	10,295
1042,7	13,895
1043,2	11,781
1043,6	4,01
1044	5,695
1044,4	9,067
1044,8	10,495
1045,2	11,41
1045,6	14,381
1046,1	17,838
1046,5	20,095
1046,9	18,067
1047,3	12,095
1047,7	9,552
1048,1	8,867
1048,5	5,467
1049	4,324
1049,4	11,581
1049,8	13,667
1050,2	14,01
1050,6	21,838
1051	21,638
1051,4	26,067
1051,9	25,552
1052,3	29,295
1052,7	28,638
1053,1	30,295
1053,5	26,152
1053,9	27,81
1054,3	22,524
1054,8	25,981
1055,2	22,781
1055,6	22,438
1056	21,238
1056,4	15,524
1056,8	17,381
1057,2	16,981
1057,6	14,21
1058,1	6,952
1058,5	0,352
1058,9	4,895
1059,3	12,867
1059,7	10,524
1060,1	15,667
1060,5	17,295
1061	20,124
1061,4	26,124
1061,8	25,581
1062,2	23,495
1062,6	27,552
1063	25,495
1063,4	24,01
1063,8	24,238
1064,3	18,581
1064,7	14,238
1065,1	9,381
1065,5	4,552
1065,9	5,895
1066,3	3,552
1066,7	-0,448
1067,1	5,438
1067,6	11,924
1068	9,81
1068,4	7,467
1068,8	8,21
1069,2	11,61
1069,6	16,41
1070	13,438
1070,4	4,924
1070,9	8,152
1071,3	13,21
1071,7	9,695
1072,1	7,695
1072,5	3,638
1072,9	5,61
1073,3	11,21
1073,7	12,61
1074,2	10,667
1074,6	14,238
1075	13,524
1075,4	15,381
1075,8	18,695
1076,2	19,238
1076,6	22,038
1077	22,181
1077,5	20,352
1077,9	21,267
1078,3	19,981
1078,7	14,324
1079,1	11,495
1079,5	11,952
1079,9	12,067
1080,3	12,638
1080,7	10,81
1081,2	15,01
1081,6	13,838
1082	13,81
1082,4	17,324
1082,8	19,152
1083,2	17,267
1083,6	15,81
1084	13,981
1084,5	18,495
1084,9	17,724
1085,3	10,267
1085,7	6,695
1086,1	5,095
1086,5	12,095
1086,9	14,552
1087,3	13,838
1087,7	13,667
1088,2	11,61
1088,6	14,724
1089	15,21
1089,4	10,552
1089,8	9,467
1090,2	4,295
1090,6	3,352
1091	10,295
1091,4	9,495
1091,9	9,638
1092,3	11,895
1092,7	9,238
1093,1	14,21
1093,5	15,21
1093,9	9,495
1094,3	9,867
1094,7	12,152
1095,1	9,667
1095,5	13,181
1096	7,324
1096,4	9,667
1096,8	9,638
1097,2	9,695
1097,6	11,324
1098	13,952
1098,4	10,81
1098,8	17,295
1099,2	18,781
1099,6	18,867
1100,1	16,41
1100,5	10,324
1100,9	10,381
1101,3	12,867
1101,7	11,095
1102,1	10,781
1102,5	12,781
1102,9	14,01
1103,3	18,61
1103,7	14,181
1104,2	14,952
1104,6	16,952
1105	13,21
1105,4	13,152
1105,8	10,924
1106,2	7,952
1106,6	8,924
1107	5,067
1107,4	2,367
1107,8	2,547
1108,3	0,117
