Data from Subt2_063.txt Node
Date: Sat Aug 26 16:32:29 MSK 2023
User: vat
Spectrometer: MAYP114033
Trigger mode: 0
Integration Time (sec): 1,000000E0
Scans to average: 5
Electric dark correction enabled: true
Nonlinearity correction enabled: false
Boxcar width: 3
XAxis mode: Wavelengths
Number of Pixels in Spectrum: 2068
>>>>>Begin Spectral Data<<<<<
199,4	-0,483
199,9	-4,813
200,4	-5,267
200,8	-5,733
201,3	-3,905
201,8	-4,476
202,2	-2,533
202,7	-1,505
203,2	2,638
203,6	2,581
204,1	5,752
204,6	5,324
205	9,295
205,5	6,724
206	6,495
206,4	13,038
206,9	10,581
207,4	14,095
207,8	10,552
208,3	7,952
208,8	7,81
209,2	7,61
209,7	2,067
210,2	12,695
210,6	6,095
211,1	10,01
211,5	6,181
212	3,295
212,5	1,724
212,9	-2,019
213,4	-6,362
213,9	-4,533
214,3	-3,019
214,8	3,038
215,3	3,695
215,7	4,495
216,2	11,095
216,7	9,067
217,1	6,781
217,6	1,895
218,1	-2,048
218,5	5,267
219	10,381
219,5	6,952
219,9	5,324
220,4	4,81
220,9	8,238
221,3	7,038
221,8	-0,133
222,3	-5,505
222,7	-8,676
223,2	-4,19
223,6	-4,876
224,1	-7,362
224,6	-7,076
225	-4,276
225,5	0,238
226	1,952
226,4	0,61
226,9	2,181
227,4	3,152
227,8	6,352
228,3	8,381
228,8	4,467
229,2	8,41
229,7	4,867
230,2	9,124
230,6	9,124
231,1	13,067
231,5	14,495
232	18,295
232,5	14,724
232,9	17,181
233,4	15,267
233,9	18,467
234,3	14,552
234,8	13,695
235,3	12,238
235,7	15,895
236,2	14,381
236,7	12,838
237,1	11,352
237,6	12,238
238,1	11,21
238,5	8,295
239	5,181
239,4	5,295
239,9	8,038
240,4	7,667
240,8	11,267
241,3	8,067
241,8	8,838
242,2	8,067
242,7	10,438
243,2	7,81
243,6	6,752
244,1	-0,162
244,6	-0,105
245	2,438
245,5	2,981
245,9	3,324
246,4	4,981
246,9	8,095
247,3	7,524
247,8	7,238
248,3	7,381
248,7	12,695
249,2	8,552
249,7	6,181
250,1	3,181
250,6	4,61
251	9,038
251,5	5,324
252	-0,505
252,4	2,295
252,9	4,352
253,4	0,752
253,8	0,181
254,3	1,295
254,8	2,638
255,2	4,067
255,7	7,267
256,1	7,438
256,6	13,781
257,1	16,41
257,5	13,324
258	13,981
258,5	12,895
258,9	10,324
259,4	12,838
259,9	12,495
260,3	11,067
260,8	11,381
261,2	15,267
261,7	16,952
262,2	16,067
262,6	12,438
263,1	9,467
263,6	10,638
264	11,552
264,5	10,152
264,9	8,581
265,4	9,41
265,9	11,867
266,3	12,238
266,8	10,152
267,3	11,581
267,7	8,895
268,2	5,581
268,7	2,352
269,1	-1,848
269,6	1,495
270	8,238
270,5	10,838
271	12,838
271,4	9,352
271,9	12,181
272,4	16,895
272,8	10,495
273,3	0,61
273,7	-6,19
274,2	-6,99
274,7	-0,505
275,1	-2,705
275,6	-1,219
276,1	5,038
276,5	12,152
277	13,552
277,4	16,267
277,9	16,295
278,4	21,638
278,8	20,038
279,3	12,552
279,8	15,638
280,2	12,21
280,7	7,124
281,1	10,181
281,6	6,067
282,1	4,952
282,5	11,838
283	8,381
283,4	13,581
283,9	14,495
284,4	10,352
284,8	10,61
285,3	9,41
285,8	7,581
286,2	1,038
286,7	-1,248
287,1	-2,533
287,6	3,495
288,1	5,295
288,5	11,867
289	14,067
289,5	16,495
289,9	16,381
290,4	17,438
290,8	16,724
291,3	15,752
291,8	9,181
292,2	8,781
292,7	10,295
293,1	13,981
293,6	13,324
294,1	5,924
294,5	7,381
295	10,781
295,5	11,381
295,9	13,01
296,4	8,895
296,8	12,381
297,3	20,752
297,8	17,695
298,2	16,381
298,7	10,981
299,1	11,124
299,6	11,552
300,1	10,552
300,5	7,124
301	10,81
301,5	12,238
301,9	14,324
302,4	14,238
302,8	15,41
303,3	13,181
303,8	10,41
304,2	4,21
304,7	-0,505
305,1	1,895
305,6	-3,59
306,1	-4,448
306,5	-3,533
307	-2,19
307,4	0,524
307,9	0,581
308,4	-0,248
308,8	8,752
309,3	8,752
309,8	13,495
310,2	11,781
310,7	19,695
311,1	17,467
311,6	17,695
312,1	18,038
312,5	19,524
313	11,667
313,4	14,638
313,9	15,467
314,4	15,038
314,8	16,181
315,3	11,038
315,7	8,552
316,2	9,61
316,7	7,295
317,1	2,295
317,6	8,01
318	6,438
318,5	9,467
319	12,295
319,4	11,724
319,9	9,324
320,3	10,295
320,8	7,867
321,3	7,81
321,7	5,352
322,2	5,21
322,6	5,695
323,1	6,924
323,6	0,695
324	4,067
324,5	4,667
324,9	7,752
325,4	7,095
325,9	10,781
326,3	15,438
326,8	22,238
327,2	21,124
327,7	21,61
328,2	18,895
328,6	21,01
329,1	19,667
329,5	20,724
330	16,038
330,5	14,181
330,9	14,667
331,4	14,067
331,8	15,352
332,3	19,724
332,8	14,867
333,2	14,895
333,7	17,695
334,1	18,838
334,6	19,181
335,1	16,752
335,5	15,067
336	11,352
336,4	12,038
336,9	14,581
337,4	13,41
337,8	12,41
338,3	12,781
338,7	10,352
339,2	15,552
339,7	17,067
340,1	9,867
340,6	6,21
341	11,352
341,5	13,01
342	15,352
342,4	13,124
342,9	7,695
343,3	11,867
343,8	15,21
344,2	14,724
344,7	11,295
345,2	8,667
345,6	11,01
346,1	15,552
346,5	15,124
347	14,524
347,5	7,752
347,9	8,038
348,4	8,581
348,8	11,495
349,3	10,838
349,8	9,495
350,2	8,61
350,7	13,124
351,1	13,467
351,6	16,152
352	21,267
352,5	23,267
353	29,61
353,4	35,267
353,9	46,324
354,3	56,352
354,8	62,467
355,3	75,61
355,7	94,038
356,2	109,352
356,6	131,467
357,1	152,352
357,5	182,438
358	221,495
358,5	256,438
358,9	297,41
359,4	348,81
359,8	399,067
360,3	459,724
360,8	524,924
361,2	597,238
361,7	674,381
362,1	764,01
362,6	857,552
363	960,752
363,5	1075,152
364	1188,61
364,4	1299,524
364,9	1413,467
365,3	1528,324
365,8	1637,981
366,3	1742,552
366,7	1826,295
367,2	1909,867
367,6	1984,667
368,1	2037,295
368,5	2066,981
369	2080,267
369,5	2084,295
369,9	2068,924
370,4	2034,552
370,8	1982,381
371,3	1924,581
371,7	1859,695
372,2	1785,352
372,7	1692,895
373,1	1603,552
373,6	1507,21
374	1410,095
374,5	1318,552
374,9	1224,238
375,4	1139,81
375,9	1060,21
376,3	980,01
376,8	903,21
377,2	838,152
377,7	770,038
378,2	708,267
378,6	649,61
379,1	595,724
379,5	549,924
380	510,781
380,4	469,638
380,9	435,21
381,4	405,524
381,8	373,981
382,3	343,324
382,7	314,295
383,2	287,724
383,6	264,467
384,1	246,552
384,6	225,981
385	212,781
385,5	199,438
385,9	191,552
386,4	183,552
386,8	175,724
387,3	161,324
387,7	154,724
388,2	143,438
388,7	139,01
389,1	128,124
389,6	117,724
390	110,867
390,5	104,667
390,9	99,295
391,4	99,381
391,9	90,524
392,3	80,01
392,8	77,867
393,2	68,524
393,7	70,695
394,1	69,895
394,6	61,581
395,1	65,095
395,5	71,438
396	70,981
396,4	74,981
396,9	70,981
397,3	64,467
397,8	62,438
398,2	54,381
398,7	46,21
399,2	41,267
399,6	41,61
400,1	34,524
400,5	35,21
401	33,352
401,4	36,352
401,9	39,495
402,4	42,324
402,8	38,181
403,3	40,324
403,7	42,895
404,2	47,238
404,6	43,838
405,1	40,495
405,5	37,038
406	37,324
406,5	40,41
406,9	35,324
407,4	33,981
407,8	35,095
408,3	36,352
408,7	39,01
409,2	44,095
409,6	46,81
410,1	52,238
410,6	52,81
411	56,552
411,5	59,467
411,9	61,381
412,4	63,21
412,8	60,524
413,3	56,61
413,7	58,124
414,2	62,238
414,7	67,752
415,1	67,038
415,6	72,324
416	78,638
416,5	84,381
416,9	86,238
417,4	87,838
417,8	90,752
418,3	97,695
418,8	91,838
419,2	89,21
419,7	98,867
420,1	102,752
420,6	103,838
421	99,01
421,5	96,981
421,9	101,21
422,4	106,61
422,8	100,152
423,3	98,695
423,8	101,952
424,2	108,781
424,7	109,838
425,1	108,924
425,6	109,238
426	110,81
426,5	112,552
426,9	111,495
427,4	114,267
427,9	108,695
428,3	111,095
428,8	111,438
429,2	108,581
429,7	105,181
430,1	104,581
430,6	100,495
431	104,181
431,5	103,152
431,9	103,895
432,4	103,61
432,8	104,981
433,3	105,238
433,8	113,21
434,2	116,867
434,7	118,238
435,1	122,81
435,6	134,038
436	143,038
436,5	148,552
436,9	148,752
437,4	155,781
437,8	159,781
438,3	165,495
438,8	164,81
439,2	167,238
439,7	171,152
440,1	176,952
440,6	185,695
441	193,952
441,5	198,952
441,9	212,324
442,4	224,238
442,8	239,01
443,3	249,467
443,7	252,695
444,2	262,438
444,7	275,324
445,1	285,981
445,6	291,324
446	296,181
446,5	308,867
446,9	327,267
447,4	339,981
447,8	351,838
448,3	364,581
448,7	381,267
449,2	395,352
449,6	405,352
450,1	419,924
450,6	438,724
451	448,038
451,5	462,695
451,9	481,095
452,4	501,067
452,8	519,581
453,3	534,038
453,7	548,981
454,2	573,838
454,6	594,924
455,1	611,238
455,5	630,524
456	650,552
456,4	675,495
456,9	692,467
457,3	716,724
457,8	739,695
458,3	765,81
458,7	794,295
459,2	820,924
459,6	847,095
460,1	884,295
460,5	910,438
461	931,752
461,4	959,01
461,9	984,524
462,3	1015,752
462,8	1043,152
463,2	1070,01
463,7	1098,152
464,1	1135,152
464,6	1164,524
465	1198,095
465,5	1231,467
466	1262,41
466,4	1296,267
466,9	1328,695
467,3	1355,238
467,8	1399,238
468,2	1435,61
468,7	1469,867
469,1	1506,152
469,6	1535,667
470	1574,495
470,5	1612,238
470,9	1641,352
471,4	1674,552
471,8	1707,181
472,3	1737,667
472,7	1775,724
473,2	1802,981
473,6	1838,181
474,1	1865,038
474,5	1889,781
475	1924,81
475,4	1958,295
475,9	1993,781
476,4	2028,867
476,8	2061,352
477,3	2104,267
477,7	2144,495
478,2	2176,695
478,6	2213,695
479,1	2241,21
479,5	2275,924
480	2310,924
480,4	2335,924
480,9	2368,467
481,3	2393,952
481,8	2426,295
482,2	2457,267
482,7	2481,41
483,1	2508,524
483,6	2529,838
484	2553,781
484,5	2580,438
484,9	2601,267
485,4	2623,067
485,8	2649,552
486,3	2672,181
486,7	2704,181
487,2	2723,695
487,6	2741,981
488,1	2762,638
488,5	2782,381
489	2797,152
489,4	2815,781
489,9	2836,124
490,4	2858,181
490,8	2870,667
491,3	2880,152
491,7	2892,752
492,2	2913,381
492,6	2923,352
493,1	2926,067
493,5	2925,038
494	2945,552
494,4	2960,838
494,9	2975,324
495,3	2977,552
495,8	2990,495
496,2	3007,238
496,7	3022,21
497,1	3027,838
497,6	3037,752
498	3042,581
498,5	3054,295
498,9	3052,781
499,4	3053,324
499,8	3059,467
500,3	3065,01
500,7	3062,152
501,2	3071,467
501,6	3077,267
502,1	3086,581
502,5	3088,41
503	3092,267
503,4	3095,238
503,9	3109,181
504,3	3106,381
504,8	3104,181
505,2	3108,781
505,7	3116,067
506,1	3117,438
506,6	3118,352
507	3113,152
507,5	3112,124
507,9	3118,267
508,4	3116,552
508,8	3111,295
509,3	3115,552
509,7	3111,724
510,2	3113,438
510,6	3113,781
511,1	3115,381
511,5	3116,238
512	3117,638
512,4	3114,295
512,9	3114,152
513,3	3121,667
513,8	3124,41
514,2	3122,524
514,7	3121,21
515,1	3123,181
515,6	3117,324
516	3113,724
516,5	3107,781
516,9	3099,867
517,4	3100,61
517,8	3094,41
518,3	3093,524
518,7	3094,952
519,2	3098,238
519,6	3091,81
520,1	3088,867
520,5	3081,895
521	3079,495
521,4	3070,067
521,9	3070,552
522,3	3069,467
522,8	3074,41
523,2	3082,781
523,7	3079,124
524,1	3080,838
524,6	3079,21
525	3082,095
525,5	3084,038
525,9	3078,038
526,4	3075,867
526,8	3078,495
527,3	3083,838
527,7	3090,267
528,2	3080,981
528,6	3078,924
529,1	3082,81
529,5	3080,267
530	3080,581
530,4	3074,295
530,9	3071,524
531,3	3076,467
531,8	3082,495
532,2	3079,752
532,6	3082,667
533,1	3086,01
533,5	3093,838
534	3099,01
534,4	3101,381
534,9	3101,238
535,3	3105,295
535,8	3103,21
536,2	3105,552
536,7	3097,352
537,1	3098,124
537,6	3101,552
538	3100,181
538,5	3098,552
538,9	3106,867
539,4	3104,895
539,8	3112,981
540,3	3115,495
540,7	3110,352
541,2	3111,438
541,6	3114,924
542,1	3115,695
542,5	3123,067
543	3123,181
543,4	3129,838
543,9	3135,124
544,3	3138,838
544,8	3145,381
545,2	3149,724
545,7	3149,038
546,1	3152,21
546,5	3153,952
547	3162,867
547,4	3167,924
547,9	3170,095
548,3	3176,552
548,8	3184,695
549,2	3191,667
549,7	3198,981
550,1	3203,781
550,6	3207,981
551	3217,695
551,5	3217,924
551,9	3221,981
552,4	3226,581
552,8	3229,524
553,3	3232,381
553,7	3232,124
554,2	3232,952
554,6	3234,781
555,1	3234,581
555,5	3238,324
555,9	3236,495
556,4	3241,895
556,8	3247,467
557,3	3250,467
557,7	3251,867
558,2	3254,467
558,6	3262,81
559,1	3263,41
559,5	3259,467
560	3260,781
560,4	3254,895
560,9	3264,238
561,3	3269,895
561,8	3266,495
562,2	3273,638
562,7	3281,638
563,1	3284,924
563,6	3290,524
564	3295,724
564,4	3296,838
564,9	3296,695
565,3	3293,552
565,8	3298,152
566,2	3302,324
566,7	3304,095
567,1	3303,81
567,6	3307,952
568	3312,695
568,5	3313,638
568,9	3306,867
569,4	3307,41
569,8	3309,638
570,3	3309,752
570,7	3300,867
571,1	3295,895
571,6	3296,238
572	3299,552
572,5	3294,267
572,9	3298,324
573,4	3292,295
573,8	3294,638
574,3	3297,01
574,7	3296,495
575,2	3296,838
575,6	3300,124
576,1	3295,495
576,5	3295,295
576,9	3293,267
577,4	3289,41
577,8	3293,981
578,3	3281,095
578,7	3274,638
579,2	3272,467
579,6	3272,667
580,1	3273,01
580,5	3270,752
581	3267,638
581,4	3271,781
581,9	3271,067
582,3	3264,581
582,7	3259,352
583,2	3252,267
583,6	3248,01
584,1	3238,581
584,5	3236,324
585	3235,324
585,4	3231,438
585,9	3227,838
586,3	3224,495
586,8	3220,667
587,2	3216,324
587,6	3211,067
588,1	3207,21
588,5	3200,352
589	3191,438
589,4	3185,467
589,9	3180,267
590,3	3171,724
590,8	3169,61
591,2	3156,638
591,7	3152,467
592,1	3146,181
592,5	3141,21
593	3139,61
593,4	3139,924
593,9	3129,752
594,3	3126,267
594,8	3125,067
595,2	3118,095
595,7	3114,41
596,1	3107,352
596,6	3108,895
597	3106,267
597,4	3103,295
597,9	3096,81
598,3	3095,752
598,8	3089,724
599,2	3087,21
599,7	3074,552
600,1	3066,267
600,6	3061,038
601	3048,781
601,4	3049,981
601,9	3039,695
602,3	3033,581
602,8	3026,181
603,2	3026,695
603,7	3018,724
604,1	3016,838
604,6	2997,01
605	2994,752
605,4	2984,724
605,9	2976,467
606,3	2965,038
606,8	2954,295
607,2	2943,638
607,7	2943,238
608,1	2938,838
608,6	2932,41
609	2930,61
609,4	2922,01
609,9	2921,038
610,3	2915,267
610,8	2910,838
611,2	2893,81
611,7	2881,067
612,1	2860,21
612,6	2846,01
613	2833,695
613,4	2827,41
613,9	2814,438
614,3	2811,524
614,8	2797,352
615,2	2797,267
615,7	2795,524
616,1	2783,552
616,6	2769,895
617	2757,152
617,4	2744,381
617,9	2739,124
618,3	2729,667
618,8	2716,181
619,2	2712,781
619,7	2701,495
620,1	2690,152
620,5	2677,695
621	2670,838
621,4	2653,981
621,9	2648,01
622,3	2636,667
622,8	2624,295
623,2	2615,667
623,6	2607,21
624,1	2595,038
624,5	2588,438
625	2566,895
625,4	2552,752
625,9	2543,01
626,3	2530,895
626,8	2526,267
627,2	2509,495
627,6	2502,067
628,1	2496,81
628,5	2483,952
629	2473,524
629,4	2457,752
629,9	2438,667
630,3	2433,638
630,7	2422,381
631,2	2406,181
631,6	2400,381
632,1	2387,524
632,5	2388,581
633	2375,924
633,4	2362,095
633,8	2343,41
634,3	2330,81
634,7	2315,495
635,2	2308,238
635,6	2289,41
636,1	2284,981
636,5	2273,924
636,9	2269,638
637,4	2263,295
637,8	2257,095
638,3	2245,552
638,7	2237,61
639,2	2224,038
639,6	2214,752
640	2196,752
640,5	2187,095
640,9	2167,524
641,4	2157,381
641,8	2140,552
642,2	2134,124
642,7	2127,638
643,1	2125,695
643,6	2114,61
644	2111,867
644,5	2105,695
644,9	2098,695
645,3	2087,638
645,8	2074,267
646,2	2061,695
646,7	2052,981
647,1	2043,581
647,6	2030,924
648	2018,781
648,4	2006,524
648,9	1996,524
649,3	1986,124
649,8	1976,895
650,2	1962,838
650,6	1953,924
651,1	1951,638
651,5	1942,752
652	1933,81
652,4	1920,181
652,9	1914,752
653,3	1905,981
653,7	1894,867
654,2	1884,667
654,6	1875,095
655,1	1862,524
655,5	1857,695
655,9	1842,581
656,4	1839,01
656,8	1826,667
657,3	1816,095
657,7	1808,352
658,2	1802,81
658,6	1788,381
659	1777,267
659,5	1760,61
659,9	1755,41
660,4	1740,295
660,8	1730,124
661,2	1710,667
661,7	1704,61
662,1	1700,352
662,6	1689,267
663	1682,038
663,4	1672,467
663,9	1660,352
664,3	1656,41
664,8	1649,524
665,2	1638,41
665,6	1631,867
666,1	1614,438
666,5	1606,467
667	1593,438
667,4	1585,924
667,9	1568,438
668,3	1556,324
668,7	1546,667
669,2	1537,581
669,6	1533,438
670,1	1530,381
670,5	1517,324
670,9	1512,952
671,4	1504,638
671,8	1495,724
672,3	1492,152
672,7	1481,924
673,1	1470,438
673,6	1461,381
674	1452,295
674,5	1443,524
674,9	1431,438
675,3	1421,667
675,8	1409,495
676,2	1406,924
676,7	1403,61
677,1	1396,752
677,5	1388,152
678	1386,124
678,4	1377,667
678,9	1367,781
679,3	1352,495
679,7	1340,61
680,2	1333,095
680,6	1325,01
681,1	1313,438
681,5	1306,067
681,9	1299,41
682,4	1296,524
682,8	1289,095
683,3	1278,01
683,7	1268,524
684,1	1263,581
684,6	1254,324
685	1246,467
685,5	1233,352
685,9	1229,467
686,3	1227,01
686,8	1219,81
687,2	1212,781
687,7	1206,467
688,1	1201,895
688,5	1193,267
689	1187,838
689,4	1181,41
689,9	1177,724
690,3	1170,352
690,7	1160,981
691,2	1152,067
691,6	1149,61
692	1140,724
692,5	1127,152
692,9	1116,352
693,4	1107,01
693,8	1102,781
694,2	1096,01
694,7	1087,267
695,1	1080,124
695,6	1076,067
696	1072,467
696,4	1063,61
696,9	1058,067
697,3	1055,152
697,8	1047,638
698,2	1037,667
698,6	1034,638
699,1	1026,41
699,5	1022,895
699,9	1015,467
700,4	1006,552
700,8	1008,295
701,3	1002,295
701,7	992,695
702,1	987,41
702,6	979,21
703	971,238
703,5	963,895
703,9	952,124
704,3	946,238
704,8	940,095
705,2	931,524
705,6	924,038
706,1	923,924
706,5	919,667
707	909,81
707,4	910,838
707,8	907,581
708,3	903,552
708,7	906,552
709,2	895,467
709,6	892,667
710	891,667
710,5	886,667
710,9	880,895
711,3	873,724
711,8	865,781
712,2	864,324
712,7	862,981
713,1	851,867
713,5	840,124
714	833,324
714,4	827,895
714,8	820,41
715,3	814,238
715,7	799,124
716,2	794,438
716,6	792,324
717	782,81
717,5	777,324
717,9	768,838
718,3	762,581
718,8	758,867
719,2	755,781
719,7	753,381
720,1	748,638
720,5	746,895
721	744,352
721,4	738,324
721,8	734,895
722,3	731,124
722,7	721,524
723,2	718,924
723,6	710,295
724	702,581
724,5	694,41
724,9	683,21
725,3	677,41
725,8	668,095
726,2	662,067
726,7	657,638
727,1	654,124
727,5	655,21
728	657,181
728,4	656,952
728,8	658,952
729,3	655,581
729,7	657,238
730,1	650,981
730,6	644,81
731	642,095
731,5	633,581
731,9	629,667
732,3	624,952
732,8	621,352
733,2	621,638
733,6	615,124
734,1	611,581
734,5	607,552
734,9	603,381
735,4	605,21
735,8	596,124
736,3	596,267
736,7	596,781
737,1	593,324
737,6	592,467
738	587,552
738,4	580,61
738,9	579,781
739,3	573,067
739,7	568,752
740,2	564,21
740,6	564,067
741,1	561,324
741,5	557,067
741,9	546,867
742,4	544,095
742,8	544,438
743,2	543,438
743,7	535,781
744,1	529,124
744,5	528,867
745	532,352
745,4	529,952
745,8	523,181
746,3	519,067
746,7	519,667
747,2	523,124
747,6	519,324
748	515,695
748,5	507,752
748,9	501,695
749,3	502,124
749,8	491,752
750,2	486,924
750,6	484,781
751,1	482,152
751,5	477,124
751,9	473,695
752,4	468,267
752,8	465,924
753,3	461,781
753,7	459,181
754,1	456,81
754,6	456,952
755	455,438
755,4	449,581
755,9	445,41
756,3	438,524
756,7	431,581
757,2	426,895
757,6	426,667
758	422,952
758,5	421,781
758,9	426,181
759,3	419,838
759,8	425,095
760,2	428,324
760,6	428,41
761,1	424,924
761,5	420,638
761,9	415,352
762,4	418,667
762,8	412,381
763,3	403,895
763,7	395,181
764,1	393,895
764,6	391,381
765	386,552
765,4	383,524
765,9	373,781
766,3	372,352
766,7	371,295
767,2	372,152
767,6	365,952
768	364,21
768,5	361,781
768,9	357,838
769,3	357,152
769,8	356,467
770,2	354,038
770,6	354,038
771,1	359,924
771,5	360,695
771,9	364,352
772,4	368,21
772,8	363,438
773,2	361,552
773,7	363,552
774,1	358,181
774,5	354,41
775	349,467
775,4	339,324
775,8	338,295
776,3	335,981
776,7	333,981
777,1	330,724
777,6	327,752
778	332,152
778,4	329,924
778,9	327,01
779,3	321,981
779,7	317,467
780,2	314,295
780,6	314,524
781	307,81
781,5	305,61
781,9	302,01
782,3	302,267
782,8	302,21
783,2	297,781
783,6	290,181
784,1	289,895
784,5	289,352
784,9	292,61
785,4	289,524
785,8	283,238
786,2	282,21
786,7	283,095
787,1	280,038
787,5	279,781
788	277,067
788,4	274,81
788,8	272,61
789,3	272,21
789,7	273,21
790,1	275,152
790,6	271,667
791	268,124
791,4	266,295
791,9	267,952
792,3	262,81
792,7	264,352
793,2	255,152
793,6	255,61
794	254,152
794,5	251,524
794,9	252,867
795,3	257,724
795,8	250,524
796,2	252,981
796,6	244,952
797,1	239,552
797,5	241,324
797,9	232,038
798,4	226,981
798,8	223,467
799,2	218,695
799,7	223,924
800,1	225,695
800,5	219,152
801	222,095
801,4	218,124
801,8	219,295
802,2	219,352
802,7	217,067
803,1	211,124
803,5	211,295
804	206,724
804,4	203,295
804,8	202,152
805,3	196,067
805,7	191,695
806,1	198,352
806,6	198,524
807	197,724
807,4	197,21
807,9	195,667
808,3	194,067
808,7	191,124
809,2	184,895
809,6	182,41
810	182,952
810,4	185,581
810,9	178,838
811,3	181,324
811,7	184,867
812,2	187,324
812,6	185,152
813	180,267
813,5	174,524
813,9	178,552
814,3	174,495
814,8	173,524
815,2	167,924
815,6	164,752
816,1	167,181
816,5	166,895
816,9	164,438
817,3	167,267
817,8	165,152
818,2	161,667
818,6	162,238
819,1	162,552
819,5	161,867
819,9	159,781
820,4	158,981
820,8	150,095
821,2	155,124
821,7	158,038
822,1	152,438
822,5	150,067
822,9	154,695
823,4	152,095
823,8	154,552
824,2	149,381
824,7	147,01
825,1	147,095
825,5	150,495
826	145,781
826,4	148,895
826,8	149,152
827,3	148,181
827,7	147,124
828,1	149,524
828,5	148,381
829	144,238
829,4	147,724
829,8	141,81
830,3	142,238
830,7	137,781
831,1	134,152
831,6	127,438
832	125,695
832,4	116,581
832,8	121,01
833,3	116,695
833,7	118,638
834,1	118,038
834,6	117,438
835	121,867
835,4	122,981
835,8	116,41
836,3	114,295
836,7	109,038
837,1	105,924
837,6	106,752
838	98,867
838,4	95,181
838,9	102,695
839,3	107,667
839,7	110,238
840,1	105,867
840,6	108,667
841	109,667
841,4	109,038
841,9	104,038
842,3	102,724
842,7	101,238
843,1	106,61
843,6	103,295
844	102,238
844,4	102,181
844,9	103,667
845,3	98,21
845,7	99,21
846,2	98,581
846,6	94,695
847	93,924
847,4	92,038
847,9	91,238
848,3	95,381
848,7	91,981
849,2	92,952
849,6	96,324
850	94,238
850,4	95,495
850,9	95,21
851,3	91,752
851,7	96,21
852,2	89,21
852,6	88,295
853	89,924
853,4	92,81
853,9	87,352
854,3	87,21
854,7	80,81
855,2	80,724
855,6	78,095
856	77,952
856,4	74,267
856,9	73,81
857,3	70,667
857,7	74,495
858,2	76,895
858,6	80,952
859	80,552
859,4	82,495
859,9	83,095
860,3	87,895
860,7	87,781
861,1	91,981
861,6	84,152
862	82,524
862,4	81,924
862,9	83,81
863,3	81,41
863,7	76,552
864,1	70,724
864,6	73,81
865	75,81
865,4	69,181
865,9	64,81
866,3	61,438
866,7	62,752
867,1	66,781
867,6	64,695
868	63,752
868,4	63,181
868,8	68,552
869,3	70,41
869,7	67,067
870,1	63,467
870,6	60,352
871	74,267
871,4	75,838
871,8	73,695
872,3	73,295
872,7	71,095
873,1	69,867
873,5	74,352
874	59,752
874,4	57,81
874,8	57,067
875,3	59,581
875,7	58,838
876,1	54,41
876,5	53,724
877	51,695
877,4	54,238
877,8	56,324
878,2	52,552
878,7	61,695
879,1	65,41
879,5	66,895
879,9	69,581
880,4	67,267
880,8	63,781
881,2	64,467
881,7	60,324
882,1	60,41
882,5	54,267
882,9	47,724
883,4	51,124
883,8	51,067
884,2	49,41
884,6	46,324
885,1	50,152
885,5	58,667
885,9	65,324
886,3	61,581
886,8	56,581
887,2	51,695
887,6	50,324
888	39,981
888,5	34,952
888,9	34,21
889,3	31,352
889,8	35,895
890,2	39,81
890,6	43,124
891	47,524
891,5	46,695
891,9	46,324
892,3	46,438
892,7	46,238
893,2	48,181
893,6	44,924
894	46,181
894,4	45,295
894,9	41,01
895,3	44,324
895,7	44,724
896,1	41,552
896,6	42,067
897	44,21
897,4	42,324
897,8	42,21
898,3	42,895
898,7	36,152
899,1	37,61
899,5	34,981
900	30,095
900,4	31,038
900,8	34,352
901,2	32,867
901,7	32,695
902,1	35,924
902,5	37,552
902,9	38,267
903,4	40,381
903,8	32,381
904,2	32,238
904,6	34,21
905,1	33,467
905,5	31,295
905,9	31,952
906,3	29,01
906,8	34,495
907,2	30,438
907,6	34,781
908	32,581
908,5	34,41
908,9	34,924
909,3	32,41
909,7	30,495
910,2	30,838
910,6	28,095
911	25,467
911,4	23,552
911,9	22,695
912,3	23,552
912,7	22,324
913,1	18,381
913,6	20,752
914	20,838
914,4	20,038
914,8	20,524
915,3	20,695
915,7	21,724
916,1	28,124
916,5	26,638
916,9	23,438
917,4	25,467
917,8	21,752
918,2	20,41
918,6	20,724
919,1	21,067
919,5	21,724
919,9	24,467
920,3	25,21
920,8	30,152
921,2	36,724
921,6	34,724
922	29,21
922,5	26,552
922,9	23,238
923,3	22,124
923,7	17,152
924,2	9,381
924,6	9,152
925	13,695
925,4	16,41
925,8	20,324
926,3	22,638
926,7	22,01
927,1	28,095
927,5	29,152
928	26,01
928,4	20,924
928,8	23,41
929,2	24,181
929,7	21,838
930,1	19,181
930,5	15,895
930,9	21,981
931,3	24,552
931,8	18,181
932,2	16,895
932,6	20,667
933	17,61
933,5	20,352
933,9	16,295
934,3	12,467
934,7	19,381
935,2	19,838
935,6	17,438
936	14,267
936,4	18,724
936,8	16,61
937,3	17,467
937,7	12,981
938,1	4,895
938,5	6,581
939	14,495
939,4	9,438
939,8	9,924
940,2	14,752
940,6	14,295
941,1	23,867
941,5	27,381
941,9	23,752
942,3	24,267
942,8	22,924
943,2	19,038
943,6	17,695
944	13,638
944,4	6,495
944,9	5,952
945,3	7,838
945,7	12,095
946,1	10,524
946,6	13,01
947	12,124
947,4	13,924
947,8	17,267
948,2	12,695
948,7	9,667
949,1	12,124
949,5	12,467
949,9	13,467
950,3	16,295
950,8	14,495
951,2	19,952
951,6	24,067
952	22,524
952,5	19,952
952,9	16,295
953,3	11,152
953,7	13,438
954,1	8,124
954,6	4,952
955	9,267
955,4	8,981
955,8	16,295
956,2	18,295
956,7	15,724
957,1	19,152
957,5	19,61
957,9	14,181
958,3	16,552
958,8	13,01
959,2	14,21
959,6	20,095
960	16,781
960,5	14,838
960,9	17,581
961,3	15,638
961,7	12,01
962,1	9,638
962,6	3,01
963	5,438
963,4	8,981
963,8	8,752
964,2	5,038
964,7	10,124
965,1	15,695
965,5	14,552
965,9	15,238
966,3	12,095
966,8	12,952
967,2	18,952
967,6	13,81
968	13,095
968,4	20,324
968,9	21,21
969,3	19,124
969,7	10,067
970,1	7,524
970,5	15,867
971	12,924
971,4	12,438
971,8	12,838
972,2	18,352
972,6	27,381
973,1	28,981
973,5	21,695
973,9	22,152
974,3	12,695
974,7	9,752
975,2	7,01
975,6	-0,648
976	4,067
976,4	3,324
976,8	3,495
977,3	5,352
977,7	4,067
978,1	1,381
978,5	8,067
978,9	1,438
979,4	6,124
979,8	6,124
980,2	7,095
980,6	7,81
981	13,238
981,5	12,724
981,9	11,381
982,3	6,21
982,7	5,552
983,1	7,324
983,6	11,038
984	9,381
984,4	9,695
984,8	12,438
985,2	16,752
985,6	20,01
986,1	19,524
986,5	13,61
986,9	11,038
987,3	9,81
987,7	11,267
988,2	11,781
988,6	6,467
989	6,295
989,4	9,181
989,8	9,067
990,3	8,981
990,7	6,695
991,1	1,381
991,5	4,467
991,9	7,61
992,3	7,295
992,8	12,21
993,2	13,238
993,6	17,495
994	19,981
994,4	15,21
994,9	11,038
995,3	14,152
995,7	8,81
996,1	10,41
996,5	6,724
996,9	5,981
997,4	9,352
997,8	10,352
998,2	9,01
998,6	12,495
999	10,752
999,5	10,495
999,9	13,324
1000,3	16,952
1000,7	16,752
1001,1	18,438
1001,5	13,467
1002	14,81
1002,4	15,724
1002,8	14,21
1003,2	12,495
1003,6	16,781
1004	14,267
1004,5	16,495
1004,9	11,524
1005,3	7,952
1005,7	8,124
1006,1	4,838
1006,6	0,867
1007	2,095
1007,4	1,981
1007,8	0,181
1008,2	0,952
1008,6	-1,648
1009,1	-5,19
1009,5	-1,619
1009,9	1,638
1010,3	-0,048
1010,7	9,01
1011,1	12,038
1011,6	11,181
1012	16,324
1012,4	14,438
1012,8	6,038
1013,2	10,095
1013,6	6,438
1014,1	8,124
1014,5	11,924
1014,9	13,952
1015,3	13,981
1015,7	14,695
1016,1	12,238
1016,6	12,838
1017	8,267
1017,4	7,495
1017,8	5,381
1018,2	-0,99
1018,6	3,524
1019,1	4,867
1019,5	5,524
1019,9	10,267
1020,3	10,295
1020,7	9,838
1021,1	14,438
1021,6	7,81
1022	6,124
1022,4	7,724
1022,8	6,124
1023,2	7,01
1023,6	4,667
1024,1	9,695
1024,5	17,21
1024,9	21,924
1025,3	18,581
1025,7	18,61
1026,1	20,41
1026,6	24,238
1027	17,781
1027,4	16,752
1027,8	12,524
1028,2	14,724
1028,6	12,81
1029	11,667
1029,5	12,238
1029,9	11,01
1030,3	13,924
1030,7	13,638
1031,1	9,752
1031,5	8,552
1032	6,695
1032,4	5,781
1032,8	5,667
1033,2	2,924
1033,6	4,495
1034	9,438
1034,4	15,695
1034,9	10,838
1035,3	16,41
1035,7	20,695
1036,1	21,695
1036,5	19,41
1036,9	12,238
1037,4	9,552
1037,8	12,41
1038,2	2,381
1038,6	-0,476
1039	-4,648
1039,4	0,61
1039,8	2,752
1040,3	-1,305
1040,7	-1,962
1041,1	3,61
1041,5	4,038
1041,9	0,21
1042,3	0,781
1042,7	1,21
1043,2	5,295
1043,6	8,752
1044	-0,076
1044,4	-0,276
1044,8	3,81
1045,2	1,867
1045,6	4,724
1046,1	5,581
1046,5	4,381
1046,9	15,038
1047,3	19,352
1047,7	18,267
1048,1	14,867
1048,5	13,324
1049	14,038
1049,4	12,981
1049,8	11,01
1050,2	10,295
1050,6	18,095
1051	24,095
1051,4	23,01
1051,9	23,495
1052,3	22,238
1052,7	21,724
1053,1	17,41
1053,5	11,752
1053,9	5,581
1054,3	5,838
1054,8	6,095
1055,2	11,238
1055,6	12,067
1056	14,067
1056,4	11,181
1056,8	12,352
1057,2	16,752
1057,6	11,352
1058,1	9,752
1058,5	6,81
1058,9	10,324
1059,3	17,352
1059,7	14,781
1060,1	13,581
1060,5	11,381
1061	9,181
1061,4	16,952
1061,8	9,467
1062,2	6,438
1062,6	4,895
1063	2,41
1063,4	7,838
1063,8	9,81
1064,3	3,095
1064,7	5,438
1065,1	5,21
1065,5	10,524
1065,9	10,495
1066,3	6,038
1066,7	3,552
1067,1	1,867
1067,6	7,238
1068	3,181
1068,4	6,267
1068,8	4,952
1069,2	6,41
1069,6	9,638
1070	11,038
1070,4	4,095
1070,9	4,981
1071,3	3,867
1071,7	5,638
1072,1	10,124
1072,5	14,124
1072,9	17,095
1073,3	18,695
1073,7	21,152
1074,2	20,81
1074,6	18,752
1075	14,638
1075,4	9,01
1075,8	9,467
1076,2	12,438
1076,6	10,952
1077	10,581
1077,5	13,01
1077,9	12,581
1078,3	13,124
1078,7	10,41
1079,1	10,524
1079,5	6,781
1079,9	7,152
1080,3	6,267
1080,7	10,952
1081,2	9,638
1081,6	10,352
1082	6,867
1082,4	8,952
1082,8	3,724
1083,2	0,695
1083,6	-0,562
1084	-0,733
1084,5	-2,99
1084,9	-3,562
1085,3	0,01
1085,7	1,838
1086,1	2,981
1086,5	6,038
1086,9	6,524
1087,3	8,495
1087,7	14,095
1088,2	11,21
1088,6	11,495
1089	10,324
1089,4	5,695
1089,8	6,724
1090,2	6,81
1090,6	5,924
1091	11,552
1091,4	14,067
1091,9	19,095
1092,3	20,638
1092,7	20,181
1093,1	16,952
1093,5	11,61
1093,9	12,724
1094,3	11,352
1094,7	8,238
1095,1	3,438
1095,5	2,352
1096	2,81
1096,4	7,524
1096,8	1,095
1097,2	3,038
1097,6	2,352
1098	5,438
1098,4	8,381
1098,8	10,152
1099,2	7,41
1099,6	9,61
1100,1	9,01
1100,5	10,067
1100,9	7,981
1101,3	5,867
1101,7	7,695
1102,1	8,552
1102,5	6,867
1102,9	1,667
1103,3	1,152
1103,7	4,41
1104,2	8,124
1104,6	7,838
1105	7,438
1105,4	7,124
1105,8	9,438
1106,2	10,152
1106,6	7,124
1107	2,438
1107,4	-0,233
1107,8	-1,293
1108,3	-0,083
