Data from Subt2_025.txt Node
Date: Sat Aug 26 16:17:19 MSK 2023
User: vat
Spectrometer: MAYP114033
Trigger mode: 0
Integration Time (sec): 1,000000E0
Scans to average: 5
Electric dark correction enabled: true
Nonlinearity correction enabled: false
Boxcar width: 3
XAxis mode: Wavelengths
Number of Pixels in Spectrum: 2068
>>>>>Begin Spectral Data<<<<<
199,4	-0,4
199,9	4,22
200,4	4,033
200,8	4,329
201,3	3,014
201,8	4,957
202,2	4,643
202,7	3,414
203,2	-1,129
203,6	1,329
204,1	3,614
204,6	5,814
205	4,7
205,5	11,043
206	10,5
206,4	8,214
206,9	7,443
207,4	3,643
207,8	7,414
208,3	5,471
208,8	1,671
209,2	5,3
209,7	13,3
210,2	9,271
210,6	8,329
211,1	10,3
211,5	13,3
212	12,329
212,5	12,7
212,9	10,5
213,4	8,1
213,9	9,329
214,3	5,329
214,8	2,871
215,3	2,614
215,7	2,186
216,2	1,871
216,7	4,186
217,1	3,129
217,6	0,414
218,1	0,271
218,5	-2,329
219	-8,671
219,5	-4,071
219,9	-2,729
220,4	1,757
220,9	-0,614
221,3	4,643
221,8	7,7
222,3	14,986
222,7	9,614
223,2	15,186
223,6	16,043
224,1	19,329
224,6	9,929
225	12,671
225,5	9,9
226	9,643
226,4	4,929
226,9	4,671
227,4	6,243
227,8	17,129
228,3	13,271
228,8	18,643
229,2	17,529
229,7	14,271
230,2	14,043
230,6	12,557
231,1	11,043
231,5	18,414
232	12,957
232,5	13,786
232,9	18,729
233,4	19,586
233,9	18,557
234,3	11,386
234,8	5,7
235,3	8,043
235,7	9,3
236,2	5,957
236,7	3,414
237,1	0,586
237,6	3,557
238,1	0,043
238,5	-1,129
239	-1,271
239,4	2,586
239,9	-3,071
240,4	2,871
240,8	3,843
241,3	9,471
241,8	8,014
242,2	7,471
242,7	7,814
243,2	11,614
243,6	12,5
244,1	10,186
244,6	5,586
245	6,3
245,5	4,329
245,9	7,329
246,4	10,729
246,9	6,271
247,3	7,643
247,8	10,157
248,3	6,671
248,7	12,157
249,2	7,3
249,7	6,786
250,1	8,729
250,6	8,729
251	6,186
251,5	12,014
252	11,671
252,4	11,1
252,9	2,329
253,4	3,557
253,8	2,214
254,3	4,329
254,8	0,929
255,2	-0,271
255,7	1,014
256,1	8,843
256,6	5,9
257,1	10,529
257,5	9,7
258	8,071
258,5	3,986
258,9	4,129
259,4	-2,643
259,9	-1,871
260,3	-5,643
260,8	-4,386
261,2	-1,471
261,7	-1,586
262,2	0,786
262,6	5,1
263,1	8,729
263,6	7,671
264	7,557
264,5	7,614
264,9	8,5
265,4	2,186
265,9	3,471
266,3	-4,129
266,8	-5,414
267,3	-9,043
267,7	-7,986
268,2	-6,3
268,7	-4,529
269,1	-4,414
269,6	-4,243
270	-1,471
270,5	2,5
271	-1,7
271,4	-4,186
271,9	-2,843
272,4	-2,157
272,8	3,386
273,3	3,214
273,7	2,643
274,2	3,271
274,7	6,643
275,1	6,986
275,6	5,929
276,1	6,729
276,5	6,014
277	1,5
277,4	1,586
277,9	1,557
278,4	0,186
278,8	0,071
279,3	-2,014
279,8	0,614
280,2	6,043
280,7	10,186
281,1	7,557
281,6	6,414
282,1	5,871
282,5	2,814
283	5,271
283,4	-1,443
283,9	-4,643
284,4	-11,357
284,8	-6,1
285,3	-8,786
285,8	-6,071
286,2	-10,414
286,7	-7,671
287,1	-2,586
287,6	2,843
288,1	2,129
288,5	6,3
289	8,671
289,5	9,157
289,9	11,614
290,4	5,443
290,8	14,871
291,3	13,329
291,8	11,814
292,2	12,957
292,7	14,243
293,1	15,729
293,6	21,329
294,1	12,271
294,5	11,529
295	12,186
295,5	4,757
295,9	3,929
296,4	-0,614
296,8	-1,871
297,3	3,071
297,8	-0,643
298,2	4,729
298,7	9,243
299,1	10,586
299,6	14,986
300,1	18,757
300,5	16,957
301	22,671
301,5	16,757
301,9	21,386
302,4	19,471
302,8	19,271
303,3	12,214
303,8	8,271
304,2	4,214
304,7	6,7
305,1	0,357
305,6	-2,3
306,1	-5,243
306,5	-8,357
307	-10,243
307,4	-12,071
307,9	-14,871
308,4	-15,5
308,8	-8,357
309,3	-4,271
309,8	1,243
310,2	6,871
310,7	9,814
311,1	9,843
311,6	11,243
312,1	6,357
312,5	2,186
313	-1,329
313,4	-0,1
313,9	-3,3
314,4	-0,614
314,8	3,9
315,3	2,957
315,7	6,786
316,2	10,586
316,7	6,043
317,1	10,157
317,6	8,643
318	4,357
318,5	4,586
319	1,614
319,4	-3,986
319,9	-4,271
320,3	-6,214
320,8	-4,5
321,3	-5,871
321,7	-3,471
322,2	-2,986
322,6	5,186
323,1	6,414
323,6	9,071
324	8,043
324,5	10,843
324,9	7,1
325,4	12,1
325,9	6,186
326,3	4,386
326,8	3,471
327,2	2,643
327,7	-0,529
328,2	3,3
328,6	-3,014
329,1	-0,557
329,5	2,7
330	-0,186
330,5	2,214
330,9	3,014
331,4	-2,271
331,8	-2,1
332,3	-0,957
332,8	1,1
333,2	3,243
333,7	6,414
334,1	9,214
334,6	13,843
335,1	13,529
335,5	13,271
336	9,786
336,4	14,3
336,9	8,7
337,4	8,586
337,8	8,529
338,3	9,5
338,7	10,757
339,2	14,186
339,7	8,129
340,1	9,1
340,6	3,786
341	2,586
341,5	5,386
342	4,043
342,4	7,757
342,9	16,843
343,3	16,129
343,8	21,414
344,2	18,443
344,7	16,986
345,2	21,814
345,6	18,414
346,1	7,786
346,5	12,529
347	13,414
347,5	18,843
347,9	22,871
348,4	16,814
348,8	17,243
349,3	22,529
349,8	21,243
350,2	21,586
350,7	26,1
351,1	27,729
351,6	35,214
352	39,757
352,5	48,157
353	57,329
353,4	67,3
353,9	75,586
354,3	89,357
354,8	106,614
355,3	127,243
355,7	150,814
356,2	180,443
356,6	219,986
357,1	263,243
357,5	311,3
358	361,557
358,5	429,1
358,9	507,7
359,4	589,414
359,8	677,386
360,3	783,186
360,8	899,557
361,2	1032,557
361,7	1168,071
362,1	1314,529
362,6	1478,014
363	1662,129
363,5	1850,929
364	2052,529
364,4	2258,786
364,9	2470,214
365,3	2686,071
365,8	2886,186
366,3	3065,929
366,7	3237,129
367,2	3377,471
367,6	3496,1
368,1	3584,586
368,5	3641,471
369	3674,329
369,5	3681,071
369,9	3648,129
370,4	3592,786
370,8	3511,671
371,3	3409,214
371,7	3280,9
372,2	3142,671
372,7	2987,414
373,1	2829,129
373,6	2667,5
374	2500,071
374,5	2335,814
374,9	2178,157
375,4	2023,071
375,9	1873,071
376,3	1728,414
376,8	1587,757
377,2	1462,529
377,7	1340,586
378,2	1232,414
378,6	1129,071
379,1	1035,129
379,5	948,586
380	872,471
380,4	801,243
380,9	739,186
381,4	676,729
381,8	618,071
382,3	569,7
382,7	528,414
383,2	492,929
383,6	455,414
384,1	424,586
384,6	391,357
385	366,329
385,5	340,757
385,9	314,5
386,4	291,443
386,8	271,3
387,3	249,3
387,7	234,243
388,2	217,071
388,7	199,471
389,1	184,957
389,6	170,814
390	161,386
390,5	147,557
390,9	133,271
391,4	125,557
391,9	119,329
392,3	110,414
392,8	101,871
393,2	90,186
393,7	84,386
394,1	85,5
394,6	81,357
395,1	74,3
395,5	74,929
396	70,214
396,4	65,843
396,9	64,557
397,3	61,329
397,8	57,129
398,2	60,014
398,7	55,414
399,2	57,186
399,6	54,586
400,1	56,986
400,5	48,786
401	39,729
401,4	35,7
401,9	35,929
402,4	31,957
402,8	36,1
403,3	32,671
403,7	35,129
404,2	45,871
404,6	41,357
405,1	35,357
405,5	36,357
406	31,557
406,5	32,014
406,9	34,071
407,4	28,386
407,8	35,5
408,3	39,243
408,7	38,843
409,2	47,214
409,6	54,329
410,1	59,357
410,6	68,243
411	69,814
411,5	74,671
411,9	84,529
412,4	87,357
412,8	88,757
413,3	90,957
413,7	91,586
414,2	100,929
414,7	106,471
415,1	103,329
415,6	107,929
416	111,014
416,5	116,357
416,9	123,5
417,4	122,614
417,8	126,5
418,3	138,214
418,8	145,386
419,2	150,586
419,7	153,786
420,1	162,357
420,6	173,814
421	177,557
421,5	181,7
421,9	183,929
422,4	187,9
422,8	193,729
423,3	195,386
423,8	200,243
424,2	208,814
424,7	218,414
425,1	227,414
425,6	237,129
426	245,786
426,5	252,843
426,9	259,586
427,4	273,871
427,9	279,7
428,3	291,986
428,8	302,757
429,2	319,929
429,7	335,586
430,1	349,157
430,6	360,671
431	374,843
431,5	391,843
431,9	409,129
432,4	419,529
432,8	437,043
433,3	452,329
433,8	467,9
434,2	487,329
434,7	505,243
435,1	529,214
435,6	549,9
436	575,929
436,5	604,671
436,9	629,129
437,4	654,843
437,8	686,157
438,3	712,957
438,8	744,329
439,2	775,929
439,7	806,043
440,1	845,014
440,6	881,071
441	911,586
441,5	948,671
441,9	988,557
442,4	1024,1
442,8	1064,929
443,3	1106,671
443,7	1151,9
444,2	1188,757
444,7	1231,843
445,1	1277,814
445,6	1325,557
446	1371,643
446,5	1417,9
446,9	1466,729
447,4	1527,214
447,8	1585,529
448,3	1638,357
448,7	1691,3
449,2	1750,643
449,6	1811,214
450,1	1870,243
450,6	1928,614
451	1983,043
451,5	2049,3
451,9	2120,557
452,4	2186,014
452,8	2257,1
453,3	2328,871
453,7	2403,357
454,2	2478,557
454,6	2551,071
455,1	2621,329
455,5	2697,443
456	2767,529
456,4	2845,9
456,9	2924,014
457,3	3005,1
457,8	3084,557
458,3	3161,529
458,7	3239,586
459,2	3326,757
459,6	3397,243
460,1	3477,843
460,5	3560,786
461	3646,014
461,4	3734,786
461,9	3820,329
462,3	3889,814
462,8	3975,7
463,2	4056,357
463,7	4139,671
464,1	4215,186
464,6	4295,814
465	4380,871
465,5	4470,271
466	4559,357
466,4	4645,643
466,9	4729,957
467,3	4820,386
467,8	4909,129
468,2	4991,357
468,7	5085,871
469,1	5172,414
469,6	5261,5
470	5340,643
470,5	5419,614
470,9	5502,871
471,4	5585,729
471,8	5654,614
472,3	5727,043
472,7	5795,414
473,2	5862,929
473,6	5939,186
474,1	5999,786
474,5	6070,9
475	6145,729
475,4	6225,871
475,9	6291,814
476,4	6366,614
476,8	6430,557
477,3	6492,757
477,7	6547,186
478,2	6597,157
478,6	6643,729
479,1	6702,071
479,5	6751,9
480	6791,443
480,4	6844,986
480,9	6887,271
481,3	6935,671
481,8	6977,3
482,2	7002,871
482,7	7036,386
483,1	7078,671
483,6	7100,414
484	7134,214
484,5	7165,557
484,9	7189,757
485,4	7219,814
485,8	7240,357
486,3	7254,386
486,7	7277,386
487,2	7284,471
487,6	7279,529
488,1	7291,014
488,5	7295,814
489	7290,7
489,4	7293,9
489,9	7287,471
490,4	7292,071
490,8	7294,643
491,3	7280,757
491,7	7264,843
492,2	7261,643
492,6	7251,843
493,1	7238,729
493,5	7211,357
494	7192,729
494,4	7170,643
494,9	7157,843
495,3	7133,614
495,8	7104,3
496,2	7076,929
496,7	7049,529
497,1	7023,871
497,6	6989,9
498	6955,843
498,5	6918,929
498,9	6876,843
499,4	6839,5
499,8	6807,414
500,3	6764,071
500,7	6729,243
501,2	6686,071
501,6	6653,329
502,1	6613,1
502,5	6578,9
503	6545,014
503,4	6505,071
503,9	6463,643
504,3	6420,157
504,8	6368,386
505,2	6326,757
505,7	6270,843
506,1	6209,843
506,6	6155,786
507	6101,643
507,5	6054,586
507,9	6006,7
508,4	5953,357
508,8	5901,643
509,3	5854,1
509,7	5806,7
510,2	5752,357
510,6	5698,529
511,1	5638,729
511,5	5586,7
512	5531,471
512,4	5473,329
512,9	5412,043
513,3	5354,671
513,8	5297,929
514,2	5249,586
514,7	5199,357
515,1	5148,986
515,6	5092,357
516	5038,586
516,5	4990,5
516,9	4930,614
517,4	4873,729
517,8	4813,471
518,3	4756,671
518,7	4699,071
519,2	4652,671
519,6	4600,243
520,1	4553,9
520,5	4501,3
521	4447,843
521,4	4399,1
521,9	4359,957
522,3	4306,3
522,8	4258,443
523,2	4206,014
523,7	4161,786
524,1	4118,7
524,6	4063,014
525	4009,157
525,5	3962,557
525,9	3911,957
526,4	3866,529
526,8	3818,186
527,3	3765,357
527,7	3727,071
528,2	3682,271
528,6	3641,614
529,1	3596,3
529,5	3558,5
530	3520,329
530,4	3484,157
530,9	3439,871
531,3	3403,986
531,8	3363,271
532,2	3328,243
532,6	3285,557
533,1	3241,243
533,5	3203,3
534	3171,5
534,4	3134,529
534,9	3098,5
535,3	3065,443
535,8	3035,786
536,2	3002,614
536,7	2970,671
537,1	2936,243
537,6	2904,243
538	2866,329
538,5	2830,071
538,9	2788,5
539,4	2752,929
539,8	2723,157
540,3	2692,814
540,7	2659,3
541,2	2634,071
541,6	2603,071
542,1	2583,271
542,5	2559,814
543	2526,9
543,4	2499,614
543,9	2476,414
544,3	2451,043
544,8	2429,643
545,2	2400,986
545,7	2378,414
546,1	2359,043
546,5	2330,471
547	2306,3
547,4	2280,471
547,9	2251,929
548,3	2229,014
548,8	2200,1
549,2	2175,871
549,7	2163,271
550,1	2145,814
550,6	2126,271
551	2107,214
551,5	2084,243
551,9	2061,586
552,4	2038,043
552,8	2012,986
553,3	1985,557
553,7	1965,9
554,2	1951,986
554,6	1937,1
555,1	1920,757
555,5	1910,671
555,9	1895,157
556,4	1884,786
556,8	1869,414
557,3	1844,071
557,7	1828,814
558,2	1820,329
558,6	1800,186
559,1	1785,929
559,5	1771,357
560	1749,843
560,4	1744,214
560,9	1732,271
561,3	1712,986
561,8	1699,814
562,2	1679,357
562,7	1659,614
563,1	1647,586
563,6	1635,3
564	1623,157
564,4	1613,071
564,9	1600,786
565,3	1593,3
565,8	1586,986
566,2	1582,414
566,7	1564,157
567,1	1543,529
567,6	1524,414
568	1511,814
568,5	1496,7
568,9	1483,814
569,4	1465,786
569,8	1454,386
570,3	1446,986
570,7	1445,586
571,1	1436,643
571,6	1426,9
572	1408,5
572,5	1401,529
572,9	1390,243
573,4	1374,243
573,8	1361,671
574,3	1351,071
574,7	1342,586
575,2	1338,871
575,6	1325,929
576,1	1317,729
576,5	1315,986
576,9	1303,214
577,4	1296,729
577,8	1289,529
578,3	1281,1
578,7	1272,671
579,2	1262,529
579,6	1255,614
580,1	1253,043
580,5	1242,214
581	1233,671
581,4	1228,986
581,9	1218,814
582,3	1213,186
582,7	1199,5
583,2	1188,214
583,6	1176,557
584,1	1169,529
584,5	1156,529
585	1154,586
585,4	1148,329
585,9	1137,614
586,3	1130,557
586,8	1126,814
587,2	1116,129
587,6	1104,729
588,1	1097,7
588,5	1088,5
589	1087,1
589,4	1080,386
589,9	1071,443
590,3	1069,557
590,8	1062,214
591,2	1054,3
591,7	1044,214
592,1	1036,1
592,5	1027,071
593	1018,643
593,4	1011,471
593,9	1007,986
594,3	997,157
594,8	996,671
595,2	993,329
595,7	992,357
596,1	986,671
596,6	978,157
597	973,329
597,4	970,529
597,9	966,729
598,3	959,443
598,8	952,614
599,2	954,043
599,7	951,043
600,1	944,271
600,6	938,329
601	929,929
601,4	930,3
601,9	927,9
602,3	917,186
602,8	909,843
603,2	909,1
603,7	908,557
604,1	905,643
604,6	897,271
605	889,5
605,4	887,643
605,9	887,1
606,3	883,243
606,8	873,5
607,2	867,386
607,7	861,1
608,1	851,5
608,6	851,414
609	843,814
609,4	834,671
609,9	833,757
610,3	826,643
610,8	822,014
611,2	818,386
611,7	801,329
612,1	796,529
612,6	795,986
613	789,129
613,4	783,357
613,9	775,443
614,3	771,157
614,8	773,614
615,2	768,043
615,7	758,614
616,1	755,271
616,6	756,786
617	751,871
617,4	749,757
617,9	744,014
618,3	736,757
618,8	736,757
619,2	732,214
619,7	725,386
620,1	727,443
620,5	723,7
621	725,129
621,4	725,757
621,9	720,5
622,3	714,1
622,8	706,929
623,2	700,957
623,6	695,157
624,1	678,443
624,5	673,671
625	670,7
625,4	665,729
625,9	663,129
626,3	658,357
626,8	657,243
627,2	664,157
627,6	656,529
628,1	650,7
628,5	650,414
629	651,014
629,4	648,271
629,9	641,386
630,3	634,3
630,7	628,529
631,2	623,129
631,6	619,071
632,1	614,3
632,5	612,5
633	608,671
633,4	608,386
633,8	608,357
634,3	602,357
634,7	599,157
635,2	593,414
635,6	586,214
636,1	583,071
636,5	574,271
636,9	567,414
637,4	565,243
637,8	557,814
638,3	551,9
638,7	545,586
639,2	541,671
639,6	539,357
640	542,129
640,5	539,529
640,9	541,414
641,4	540,5
641,8	537,643
642,2	533,386
642,7	533,443
643,1	529,414
643,6	529,129
644	526,243
644,5	523,214
644,9	525,043
645,3	527,271
645,8	520,414
646,2	513,929
646,7	509,871
647,1	503,529
647,6	496,729
648	489,871
648,4	480,843
648,9	482,529
649,3	480,3
649,8	479,557
650,2	481,386
650,6	480,014
651,1	481,043
651,5	478,386
652	472,643
652,4	468,729
652,9	467,214
653,3	457,814
653,7	456,271
654,2	451,814
654,6	451,1
655,1	443,1
655,5	439,9
655,9	430,386
656,4	434,271
656,8	435,329
657,3	431,157
657,7	427,271
658,2	428,814
658,6	431,5
659	435,043
659,5	424,443
659,9	423,214
660,4	421,186
660,8	421,357
661,2	418,129
661,7	411,929
662,1	406,529
662,6	407,814
663	401,557
663,4	399,271
663,9	398,3
664,3	398,5
664,8	396,929
665,2	394,671
665,6	392,814
666,1	387,957
666,5	383,129
667	378,614
667,4	374,014
667,9	367,957
668,3	366,7
668,7	359,757
669,2	359,329
669,6	361,5
670,1	358,357
670,5	350,729
670,9	348,586
671,4	347,529
671,8	347,671
672,3	342,043
672,7	337,1
673,1	329,471
673,6	331,214
674	331,014
674,5	325,786
674,9	323,986
675,3	321,843
675,8	320,786
676,2	321,671
676,7	322,529
677,1	320,271
677,5	313,271
678	310,3
678,4	311,329
678,9	310,129
679,3	309,243
679,7	305,557
680,2	304,157
680,6	307,357
681,1	306,529
681,5	304,529
681,9	300,129
682,4	299,814
682,8	298,271
683,3	293,814
683,7	293,986
684,1	292,386
684,6	288,157
685	290,243
685,5	285,643
685,9	281,243
686,3	282,129
686,8	275,929
687,2	272,529
687,7	269,557
688,1	264,1
688,5	261,614
689	262,9
689,4	258,929
689,9	261,071
690,3	260,5
690,7	263,986
691,2	263,271
691,6	260,557
692	258,043
692,5	259,957
692,9	253,214
693,4	251,586
693,8	243,871
694,2	241,557
694,7	244,243
695,1	241,357
695,6	237,357
696	235,386
696,4	232,329
696,9	238,814
697,3	233,643
697,8	236,986
698,2	231,586
698,6	234,071
699,1	237,471
699,5	233,5
699,9	227,814
700,4	228,986
700,8	221,671
701,3	224,557
701,7	220,214
702,1	216,3
702,6	217,014
703	213,129
703,5	211,129
703,9	209,557
704,3	208,357
704,8	203,471
705,2	202,986
705,6	201,814
706,1	204,243
706,5	200,3
707	200,7
707,4	199,243
707,8	200,586
708,3	199,871
708,7	197,814
709,2	190,271
709,6	192,357
710	190,614
710,5	188,929
710,9	185,9
711,3	183,243
711,8	186,071
712,2	191,186
712,7	191,757
713,1	188,3
713,5	186,9
714	189,271
714,4	187,671
714,8	182,129
715,3	183,1
715,7	176,386
716,2	174,271
716,6	176,3
717	169,557
717,5	169,386
717,9	169,671
718,3	163,929
718,8	166,271
719,2	161,1
719,7	155,814
720,1	156,557
720,5	155,671
721	153,3
721,4	151,157
721,8	148,157
722,3	147,214
722,7	143,871
723,2	142,614
723,6	137,9
724	138,929
724,5	135,9
724,9	135,614
725,3	140,414
725,8	140,014
726,2	139,214
726,7	139,614
727,1	136,5
727,5	134,186
728	131,9
728,4	128,043
728,8	125,329
729,3	128,986
729,7	125,214
730,1	127,043
730,6	127,186
731	126,043
731,5	129,271
731,9	133,586
732,3	129,157
732,8	135,414
733,2	131,986
733,6	133,757
734,1	135,157
734,5	130,071
734,9	128,014
735,4	127,671
735,8	122,243
736,3	121,1
736,7	121,986
737,1	122,271
737,6	123,729
738	125,329
738,4	124,786
738,9	131,529
739,3	130,671
739,7	132,5
740,2	133,471
740,6	133,957
741,1	127,414
741,5	123,271
741,9	115,014
742,4	118,929
742,8	112,3
743,2	106,843
743,7	103,071
744,1	110,757
744,5	112,014
745	116,014
745,4	111,214
745,8	116,7
746,3	116,271
746,7	119,129
747,2	111,386
747,6	110,471
748	103,729
748,5	105,529
748,9	101,271
749,3	102,443
749,8	104,014
750,2	103,757
750,6	107,271
751,1	109,957
751,5	111,5
751,9	109,786
752,4	107,014
752,8	102,014
753,3	103,071
753,7	100,214
754,1	95,1
754,6	91,9
755	89,271
755,4	86,643
755,9	88,157
756,3	86,757
756,7	84,043
757,2	88,729
757,6	86,3
758	88,043
758,5	92,186
758,9	90,5
759,3	92,129
759,8	91,5
760,2	89,986
760,6	91,7
761,1	88,5
761,5	89,1
761,9	87,1
762,4	84,3
762,8	85,014
763,3	85,957
763,7	77,614
764,1	79,329
764,6	73,7
765	76,643
765,4	75,643
765,9	75,014
766,3	72,729
766,7	78,9
767,2	81,357
767,6	87,7
768	87,957
768,5	91,7
768,9	88,9
769,3	90,529
769,8	92,357
770,2	86,757
770,6	79,9
771,1	75,3
771,5	68,986
771,9	73,3
772,4	70,014
772,8	67,586
773,2	71,786
773,7	76,129
774,1	72,729
774,5	78,329
775	76,986
775,4	77,729
775,8	78,243
776,3	78,757
776,7	71,814
777,1	75,643
777,6	69,871
778	68,729
778,4	63,129
778,9	61,643
779,3	57,843
779,7	60,529
780,2	58,586
780,6	62,471
781	62,129
781,5	67,586
781,9	67,386
782,3	70,7
782,8	72,3
783,2	74,757
783,6	78,214
784,1	73,7
784,5	68,329
784,9	66,957
785,4	59,014
785,8	60,414
786,2	60,871
786,7	56,5
787,1	60,7
787,5	61,929
788	66,386
788,4	68,5
788,8	66,557
789,3	63,9
789,7	66,243
790,1	65,1
790,6	63,386
791	59,929
791,4	57,586
791,9	58,814
792,3	58,729
792,7	56,271
793,2	58,357
793,6	59,671
794	61,186
794,5	70,614
794,9	67,586
795,3	66,586
795,8	64,386
796,2	59,5
796,6	60,7
797,1	62,786
797,5	57,614
797,9	56,7
798,4	54,957
798,8	57,871
799,2	63,271
799,7	61,7
800,1	54,814
800,5	52,243
801	51,014
801,4	54,843
801,8	51,814
802,2	48,929
802,7	51,671
803,1	48,329
803,5	48,1
804	56,271
804,4	52,814
804,8	52,957
805,3	53,671
805,7	48,986
806,1	50,129
806,6	50,814
807	45,186
807,4	45,929
807,9	47,1
808,3	41,529
808,7	40,671
809,2	46,9
809,6	42,443
810	42,586
810,4	40,386
810,9	38,529
811,3	36,729
811,7	39,043
812,2	35,529
812,6	35,814
813	32,471
813,5	32,329
813,9	31,9
814,3	35,529
814,8	38,357
815,2	36,1
815,6	39,1
816,1	37,7
816,5	39,186
816,9	33,871
817,3	35,129
817,8	32,814
818,2	36,729
818,6	33,386
819,1	38,614
819,5	40,129
819,9	47,043
820,4	44,843
820,8	47,614
821,2	43,557
821,7	47,643
822,1	43,414
822,5	40,871
822,9	40,214
823,4	38,5
823,8	35,329
824,2	34,929
824,7	34,329
825,1	34,043
825,5	35,1
826	34,043
826,4	40,786
826,8	36,529
827,3	32,871
827,7	34,9
828,1	37,443
828,5	37,1
829	34,957
829,4	32,529
829,8	34,7
830,3	37,357
830,7	28,9
831,1	31,157
831,6	27,186
832	26,157
832,4	22,957
832,8	26,7
833,3	29,1
833,7	34,757
834,1	29,929
834,6	34,786
835	38,471
835,4	45,5
835,8	42,929
836,3	40,214
836,7	37,786
837,1	33,529
837,6	28,729
838	27,014
838,4	20,557
838,9	18,243
839,3	24,786
839,7	26,9
840,1	33,929
840,6	35,7
841	31,214
841,4	29,014
841,9	30,014
842,3	24,1
842,7	24,586
843,1	22,671
843,6	26,786
844	32,9
844,4	33,071
844,9	32,129
845,3	32,671
845,7	33,043
846,2	30,157
846,6	25,1
847	22,614
847,4	21,071
847,9	22,214
848,3	20,957
848,7	22,243
849,2	26,414
849,6	26,814
850	26,243
850,4	30,357
850,9	30,786
851,3	30,3
851,7	29,129
852,2	23,7
852,6	23,357
853	22,043
853,4	16,586
853,9	18,957
854,3	19,614
854,7	16,929
855,2	18,414
855,6	17,7
856	21,043
856,4	25,443
856,9	24,129
857,3	23,871
857,7	23,071
858,2	23,357
858,6	20,986
859	17,129
859,4	16,557
859,9	13,957
860,3	17,214
860,7	18,471
861,1	20,986
861,6	20,643
862	22,843
862,4	24,071
862,9	23,929
863,3	21,357
863,7	22,929
864,1	21,129
864,6	25,643
865	25,643
865,4	24,957
865,9	26,329
866,3	26,986
866,7	21,5
867,1	20,1
867,6	15,414
868	10,986
868,4	8,1
868,8	9,557
869,3	10,071
869,7	14,757
870,1	13,986
870,6	17,986
871	-33,071
871,4	-29,9
871,8	-32,529
872,3	-34,843
872,7	-40,786
873,1	-39,186
873,5	-36,843
874	15,1
874,4	9,043
874,8	8,529
875,3	10,157
875,7	12,3
876,1	13,214
876,5	10,871
877	11,214
877,4	14,786
877,8	16,471
878,2	13,643
878,7	18,471
879,1	17,014
879,5	15,443
879,9	10,643
880,4	10,357
880,8	7,529
881,2	10,929
881,7	6,643
882,1	10,071
882,5	11,471
882,9	15,843
883,4	15,757
883,8	11,814
884,2	10,986
884,6	13,529
885,1	6,443
885,5	5,3
885,9	8,129
886,3	3,243
886,8	8,757
887,2	6,986
887,6	0,757
888	7,871
888,5	8,271
888,9	3,1
889,3	12,671
889,8	10,871
890,2	11,7
890,6	14,5
891	14,7
891,5	12,5
891,9	12,957
892,3	8,443
892,7	9,7
893,2	12,614
893,6	11,243
894	3,871
894,4	8,586
894,9	6,7
895,3	5,271
895,7	5,529
896,1	-0,586
896,6	0,386
897	-0,014
897,4	-4,186
897,8	0,986
898,3	0,043
898,7	-1,929
899,1	-0,414
899,5	2,3
900	4,329
900,4	6,014
900,8	6,929
901,2	9,643
901,7	12,643
902,1	18,5
902,5	19,5
902,9	20,786
903,4	20,043
903,8	16,243
904,2	12,814
904,6	11,986
905,1	5,986
905,5	1,271
905,9	6,129
906,3	2,986
906,8	4,443
907,2	2,529
907,6	0,071
908	1,9
908,5	5,843
908,9	-2,757
909,3	-1,186
909,7	-0,186
910,2	8,214
910,6	13,614
911	14,957
911,4	11,871
911,9	14,786
912,3	17,614
912,7	16,329
913,1	10,9
913,6	7,043
914	4,443
914,4	5,014
914,8	4,157
915,3	5,814
915,7	6,157
916,1	12,157
916,5	9,671
916,9	11,129
917,4	9,671
917,8	11,014
918,2	6,814
918,6	7,729
919,1	3,757
919,5	5,957
919,9	4,786
920,3	10,929
920,8	13,386
921,2	15,043
921,6	13,557
922	15,1
922,5	15,5
922,9	15,843
923,3	14,843
923,7	10,871
924,2	8,357
924,6	8,443
925	9,043
925,4	8,786
925,8	6,386
926,3	6,186
926,7	8,043
927,1	11,357
927,5	15,5
928	15,243
928,4	14,214
928,8	14,214
929,2	14,214
929,7	12,871
930,1	10,214
930,5	11,5
930,9	8,1
931,3	11,157
931,8	12,3
932,2	12,129
932,6	16,7
933	18,214
933,5	12,9
933,9	11,757
934,3	9,071
934,7	7,357
935,2	4,214
935,6	0,671
936	1,7
936,4	-2,614
936,8	0,071
937,3	1,729
937,7	2,529
938,1	1,814
938,5	0,443
939	-1,986
939,4	7,986
939,8	7,186
940,2	5,214
940,6	5,243
941,1	3,557
941,5	4,443
941,9	4,7
942,3	0,186
942,8	1,214
943,2	1,786
943,6	4,386
944	1,186
944,4	-2,871
944,9	-2,129
945,3	-2,243
945,7	-3,271
946,1	-6,9
946,6	-7,814
947	-2,757
947,4	1,757
947,8	1,643
948,2	0,214
948,7	0,271
949,1	4,129
949,5	8,5
949,9	11,9
950,3	12,043
950,8	10,157
951,2	9,871
951,6	8,1
952	9,786
952,5	6,129
952,9	4,1
953,3	1,329
953,7	2,7
954,1	6,186
954,6	8,929
955	6,471
955,4	7,9
955,8	6,729
956,2	10,729
956,7	12,414
957,1	9,271
957,5	7,471
957,9	11,186
958,3	9,643
958,8	8,5
959,2	4,729
959,6	4,529
960	10,757
960,5	9,414
960,9	7,214
961,3	7,557
961,7	5,843
962,1	7,786
962,6	7,129
963	0,7
963,4	5,871
963,8	3,329
964,2	-0,129
964,7	1,157
965,1	3,757
965,5	0,186
965,9	1,786
966,3	0,557
966,8	4,871
967,2	4,7
967,6	10,129
968	6,529
968,4	11,757
968,9	11,186
969,3	8,814
969,7	7,329
970,1	7,129
970,5	6,3
971	5,043
971,4	1,129
971,8	-3,043
972,2	-3,586
972,6	-7,757
973,1	-5,214
973,5	-7,014
973,9	-7,643
974,3	-7,643
974,7	-5,786
975,2	-6,786
975,6	-2,443
976	-4,757
976,4	-9,271
976,8	-2,186
977,3	-1,271
977,7	0,186
978,1	1,7
978,5	2,957
978,9	3,357
979,4	3,729
979,8	-5,271
980,2	-3,786
980,6	-3,529
981	-2,814
981,5	-10,329
981,9	-6,357
982,3	-0,471
982,7	0,986
983,1	0,014
983,6	0,929
984	-3,3
984,4	5,986
984,8	3,1
985,2	2,7
985,6	5,614
986,1	1,071
986,5	0,357
986,9	0,814
987,3	-1,043
987,7	-1,586
988,2	-3,786
988,6	0,986
989	6,5
989,4	7,386
989,8	5,9
990,3	4,814
990,7	5,186
991,1	0,643
991,5	1,214
991,9	1,243
992,3	4,329
992,8	7,614
993,2	4,814
993,6	2,986
994	8,443
994,4	3,414
994,9	5,757
995,3	3,643
995,7	8,614
996,1	4,729
996,5	5,386
996,9	1,386
997,4	-1,357
997,8	-2,871
998,2	-7,729
998,6	-15,986
999	-13,786
999,5	-12,814
999,9	-7,586
1000,3	-7,1
1000,7	-8,843
1001,1	-4,414
1001,5	-0,586
1002	-0,614
1002,4	2,157
1002,8	-1,329
1003,2	1,729
1003,6	2,586
1004	5,1
1004,5	6,5
1004,9	9,214
1005,3	7,643
1005,7	8,386
1006,1	6,386
1006,6	4,243
1007	0,271
1007,4	2,1
1007,8	1,929
1008,2	4,071
1008,6	7,014
1009,1	10,786
1009,5	13,9
1009,9	12,443
1010,3	3,5
1010,7	4,529
1011,1	3,329
1011,6	5,386
1012	4,443
1012,4	3,7
1012,8	4,871
1013,2	9,271
1013,6	9,414
1014,1	5,071
1014,5	-2,471
1014,9	-3,586
1015,3	-6,1
1015,7	-5,5
1016,1	-4,643
1016,6	-6,471
1017	-2,357
1017,4	0,214
1017,8	0,5
1018,2	-0,243
1018,6	1,7
1019,1	1,3
1019,5	2,014
1019,9	-1,3
1020,3	0,129
1020,7	-5,529
1021,1	-5,557
1021,6	-6,643
1022	-2,7
1022,4	-2,471
1022,8	-0,357
1023,2	2,5
1023,6	8,186
1024,1	10,843
1024,5	11,043
1024,9	6,586
1025,3	5,3
1025,7	2,557
1026,1	0,929
1026,6	-4,9
1027	-5,443
1027,4	-9,157
1027,8	-6,386
1028,2	-4,329
1028,6	0,3
1029	-3,414
1029,5	-0,614
1029,9	-3,614
1030,3	-3,471
1030,7	-4,329
1031,1	-6,614
1031,5	-9,814
1032	-9,129
1032,4	-5,7
1032,8	-0,957
1033,2	2,243
1033,6	6,129
1034	8,186
1034,4	7,9
1034,9	12,1
1035,3	13,5
1035,7	14,329
1036,1	14,557
1036,5	9,586
1036,9	9,757
1037,4	13,643
1037,8	13,3
1038,2	13,3
1038,6	10,414
1039	6,3
1039,4	8,614
1039,8	12,443
1040,3	11,643
1040,7	15,071
1041,1	14,557
1041,5	14,1
1041,9	21,414
1042,3	20,986
1042,7	16,529
1043,2	20,014
1043,6	11,157
1044	8,786
1044,4	16,614
1044,8	12,557
1045,2	12,186
1045,6	14,157
1046,1	11,214
1046,5	15,443
1046,9	14,071
1047,3	5,471
1047,7	6,014
1048,1	4,443
1048,5	2,614
1049	6,271
1049,4	5,786
1049,8	2,3
1050,2	3,443
1050,6	4,129
1051	9,729
1051,4	6,5
1051,9	-4,643
1052,3	-4,643
1052,7	3,1
1053,1	6,014
1053,5	3,443
1053,9	0,557
1054,3	6,957
1054,8	13,329
1055,2	15,729
1055,6	12,843
1056	10,357
1056,4	12,557
1056,8	11,243
1057,2	8,9
1057,6	3,271
1058,1	2,671
1058,5	0,786
1058,9	4,129
1059,3	7,786
1059,7	10,929
1060,1	17,929
1060,5	26,014
1061	23,929
1061,4	21,214
1061,8	19,557
1062,2	14,357
1062,6	9,9
1063	3,271
1063,4	-0,271
1063,8	-2,357
1064,3	3,386
1064,7	2,271
1065,1	3,957
1065,5	8,1
1065,9	4,414
1066,3	5,843
1066,7	7,243
1067,1	6,7
1067,6	8,357
1068	7,757
1068,4	2,671
1068,8	3,329
1069,2	2,9
1069,6	3,843
1070	6,3
1070,4	5,329
1070,9	0,414
1071,3	3,214
1071,7	8,014
1072,1	10,186
1072,5	9,186
1072,9	8,9
1073,3	6,129
1073,7	11,757
1074,2	9,529
1074,6	2,5
1075	1,043
1075,4	1,414
1075,8	-6,414
1076,2	-2,5
1076,6	-0,729
1077	4,043
1077,5	10,471
1077,9	7,957
1078,3	5,414
1078,7	13,186
1079,1	10,957
1079,5	8,757
1079,9	4,843
1080,3	3,871
1080,7	4,814
1081,2	4,014
1081,6	2,186
1082	1,471
1082,4	-0,3
1082,8	1,729
1083,2	1,9
1083,6	-0,129
1084	5,614
1084,5	9,529
1084,9	8,443
1085,3	6,643
1085,7	6,786
1086,1	3,129
1086,5	0,729
1086,9	-1,729
1087,3	-6,729
1087,7	-10,814
1088,2	-6,071
1088,6	-4,043
1089	-0,5
1089,4	3,986
1089,8	2,929
1090,2	-0,986
1090,6	3,757
1091	2,129
1091,4	-2,157
1091,9	-4,243
1092,3	-1,529
1092,7	-0,9
1093,1	8,3
1093,5	7,871
1093,9	7,5
1094,3	10,414
1094,7	8,643
1095,1	9,929
1095,5	12,357
1096	10,071
1096,4	12,386
1096,8	14,129
1097,2	14,386
1097,6	18,586
1098	15,186
1098,4	10,014
1098,8	4,386
1099,2	-0,786
1099,6	-4,243
1100,1	-6,214
1100,5	-9,3
1100,9	-12,129
1101,3	-10,043
1101,7	-6,814
1102,1	-0,443
1102,5	1,214
1102,9	4,1
1103,3	1,3
1103,7	5,329
1104,2	7,814
1104,6	7,129
1105	7,529
1105,4	8,129
1105,8	4,443
1106,2	8,586
1106,6	6,243
1107	4,643
1107,4	5,367
1107,8	1,74
1108,3	0,15
