Data from Subt2_109.txt Node
Date: Sat Aug 26 18:20:18 MSK 2023
User: vat
Spectrometer: MAYP114033
Trigger mode: 0
Integration Time (sec): 1,000000E0
Scans to average: 5
Electric dark correction enabled: true
Nonlinearity correction enabled: false
Boxcar width: 3
XAxis mode: Wavelengths
Number of Pixels in Spectrum: 2068
>>>>>Begin Spectral Data<<<<<
199,4	-0,217
199,9	0,473
200,4	-1,467
200,8	-0,424
201,3	-2,138
201,8	0,462
202,2	-3,081
202,7	1,205
203,2	2,376
203,6	1,176
204,1	-2,852
204,6	-1,195
205	-1,71
205,5	2,148
206	0,062
206,4	-3,138
206,9	1,205
207,4	4,69
207,8	5,233
208,3	2,805
208,8	1,576
209,2	1,89
209,7	5,662
210,2	3,719
210,6	5,319
211,1	3,948
211,5	1,033
212	1,205
212,5	0,405
212,9	-3,995
213,4	-4,31
213,9	-5,167
214,3	-5,024
214,8	-0,252
215,3	0,005
215,7	1,605
216,2	6,176
216,7	7,405
217,1	5,662
217,6	6,176
218,1	4,862
218,5	4,433
219	-2,424
219,5	-2,138
219,9	-8,138
220,4	-3,481
220,9	-1,167
221,3	0,205
221,8	-0,624
222,3	4,576
222,7	3,633
223,2	11,662
223,6	7,262
224,1	6,376
224,6	4,605
225	2,233
225,5	1,548
226	-1,481
226,4	-2,138
226,9	-0,738
227,4	-4,338
227,8	-11,052
228,3	-8,995
228,8	-9,881
229,2	-6,795
229,7	-8,91
230,2	-7,995
230,6	-0,395
231,1	7,49
231,5	8,69
232	7,833
232,5	7,49
232,9	6,119
233,4	8,005
233,9	1,576
234,3	-0,71
234,8	-0,424
235,3	-2,424
235,7	-0,652
236,2	2,462
236,7	-1,652
237,1	0,033
237,6	-1,11
238,1	-0,281
238,5	1,348
239	0,176
239,4	5,748
239,9	7,662
240,4	5,519
240,8	9,462
241,3	8,462
241,8	7,89
242,2	3,805
242,7	-3,395
243,2	-0,595
243,6	2,576
244,1	2,862
244,6	2,548
245	6,176
245,5	5,119
245,9	5,119
246,4	3,748
246,9	1,919
247,3	3,519
247,8	7,662
248,3	7,262
248,7	12,29
249,2	13,719
249,7	11,719
250,1	15,662
250,6	7,776
251	3,89
251,5	2,29
252	1,233
252,4	3,348
252,9	1,69
253,4	-5,652
253,8	-3,081
254,3	-0,738
254,8	-0,452
255,2	-6,081
255,7	-10,738
256,1	-7,481
256,6	-0,881
257,1	4,176
257,5	0,29
258	-1,91
258,5	2,119
258,9	-0,424
259,4	-3,738
259,9	-3,452
260,3	-8,195
260,8	-7,995
261,2	-6,395
261,7	-7,881
262,2	-9,052
262,6	-8,881
263,1	-11,824
263,6	-8,938
264	-4,424
264,5	-0,938
264,9	2,49
265,4	7,319
265,9	4,919
266,3	8,29
266,8	10,948
267,3	8,519
267,7	5,09
268,2	5,776
268,7	6,776
269,1	7,405
269,6	3,69
270	1,262
270,5	-1,652
271	-2,567
271,4	-5,738
271,9	-9,052
272,4	-3,424
272,8	-3,224
273,3	-5,51
273,7	-1,281
274,2	0,49
274,7	3,033
275,1	8,033
275,6	4,862
276,1	2,605
276,5	0,662
277	-2,71
277,4	-2,91
277,9	-3,052
278,4	-4,967
278,8	-0,938
279,3	1,262
279,8	6,29
280,2	10,548
280,7	13,148
281,1	11,976
281,6	9,348
282,1	3,576
282,5	2,205
283	2,205
283,4	0,005
283,9	-0,195
284,4	0,576
284,8	3,433
285,3	2,376
285,8	4,148
286,2	4,176
286,7	3,948
287,1	0,805
287,6	1,948
288,1	-4,138
288,5	1,605
289	0,29
289,5	-3,11
289,9	-3,624
290,4	-1,281
290,8	-3,11
291,3	4,148
291,8	5,89
292,2	7,805
292,7	12,319
293,1	9,948
293,6	8,805
294,1	13,033
294,5	11,919
295	8,433
295,5	4,833
295,9	-0,11
296,4	2,805
296,8	4,033
297,3	3,233
297,8	-1,738
298,2	-3,51
298,7	-0,138
299,1	2,748
299,6	1,405
300,1	1,205
300,5	2,176
301	8,948
301,5	10,348
301,9	11,633
302,4	10,605
302,8	11,833
303,3	9,433
303,8	1,405
304,2	-1,795
304,7	0,29
305,1	-4,681
305,6	-2,881
306,1	1,662
306,5	6,805
307	16,033
307,4	18,748
307,9	15,833
308,4	15,89
308,8	12,062
309,3	8,976
309,8	5,348
310,2	1,29
310,7	-0,195
311,1	-0,424
311,6	4,433
312,1	9,805
312,5	10,033
313	12,633
313,4	14,433
313,9	14,49
314,4	17,09
314,8	13,776
315,3	8,319
315,7	3,119
316,2	0,348
316,7	-2,167
317,1	3,062
317,6	3,948
318	10,462
318,5	14,548
319	17,862
319,4	13,862
319,9	16,948
320,3	13,462
320,8	7,462
321,3	5,633
321,7	6,748
322,2	4,433
322,6	10,233
323,1	6,233
323,6	2,833
324	3,833
324,5	-2,11
324,9	-4,795
325,4	-3,224
325,9	-3,252
326,3	-1,452
326,8	1,205
327,2	1,376
327,7	4,205
328,2	2,033
328,6	4,833
329,1	2,033
329,5	-1,252
330	-0,938
330,5	1,633
330,9	5,005
331,4	6,433
331,8	2,976
332,3	3,062
332,8	5,348
333,2	4,433
333,7	5,29
334,1	0,976
334,6	1,805
335,1	0,919
335,5	1,49
336	-1,224
336,4	-0,595
336,9	6,662
337,4	11,662
337,8	10,776
338,3	13,833
338,7	18,29
339,2	18,805
339,7	17,748
340,1	8,833
340,6	4,176
341	-0,081
341,5	-2,852
342	-10,195
342,4	-7,081
342,9	-11,51
343,3	-8,767
343,8	-8,252
344,2	-3,738
344,7	0,776
345,2	-0,938
345,6	-2,281
346,1	4,805
346,5	-3,367
347	-2,424
347,5	-4,195
347,9	-1,052
348,4	8,69
348,8	9,29
349,3	6,09
349,8	11,033
350,2	17,262
350,7	20,89
351,1	16,119
351,6	16,376
352	24,348
352,5	27,29
353	35,69
353,4	40,348
353,9	47,033
354,3	63,862
354,8	76,376
355,3	92,148
355,7	115,376
356,2	135,576
356,6	154,89
357,1	182,833
357,5	204,719
358	238,348
358,5	271,548
358,9	313,29
359,4	365,148
359,8	419,519
360,3	483,033
360,8	553,833
361,2	630,805
361,7	720,405
362,1	816,862
362,6	916,89
363	1028,062
363,5	1146,033
364	1274,09
364,4	1402,948
364,9	1531,49
365,3	1653,119
365,8	1772,576
366,3	1886,29
366,7	1988,09
367,2	2074,69
367,6	2142,29
368,1	2189,29
368,5	2230,662
369	2246,862
369,5	2250,176
369,9	2227,005
370,4	2190,748
370,8	2140,09
371,3	2080,49
371,7	2002,89
372,2	1920,233
372,7	1822,776
373,1	1732,376
373,6	1634,405
374	1534,319
374,5	1433,605
374,9	1334,176
375,4	1236,09
375,9	1147,605
376,3	1055,319
376,8	970,805
377,2	893,119
377,7	819,205
378,2	748,976
378,6	689,919
379,1	628,176
379,5	581,233
380	536,405
380,4	491,148
380,9	448,005
381,4	411,233
381,8	380,205
382,3	356,005
382,7	325,462
383,2	299,633
383,6	279,633
384,1	264,205
384,6	251,49
385	228,948
385,5	211,176
385,9	193,89
386,4	176,948
386,8	165,148
387,3	152,748
387,7	143,176
388,2	137,633
388,7	125,09
389,1	117,805
389,6	112,233
390	106,748
390,5	100,49
390,9	94,833
391,4	85,376
391,9	85,376
392,3	85,033
392,8	76,89
393,2	70,405
393,7	66,319
394,1	57,548
394,6	58,005
395,1	51,919
395,5	47,719
396	50,462
396,4	50,776
396,9	47,976
397,3	49,662
397,8	46,862
398,2	52,262
398,7	54,605
399,2	54,833
399,6	56,49
400,1	53,719
400,5	47,29
401	50,319
401,4	43,805
401,9	39,976
402,4	40,405
402,8	35,29
403,3	43,605
403,7	45,005
404,2	46,948
404,6	52,29
405,1	52,348
405,5	51,576
406	52,29
406,5	52,405
406,9	63,29
407,4	62,262
407,8	63,919
408,3	71,033
408,7	75,033
409,2	87,719
409,6	92,062
410,1	92,776
410,6	103,948
411	109,49
411,5	115,662
411,9	125,662
412,4	130,748
412,8	139,976
413,3	149,605
413,7	155,776
414,2	163,29
414,7	175,919
415,1	190,262
415,6	199,262
416	210,948
416,5	224,633
416,9	230,262
417,4	243,49
417,8	259,405
418,3	275,033
418,8	292,433
419,2	307,376
419,7	323,433
420,1	346,576
420,6	372,833
421	386,719
421,5	404,862
421,9	425,662
422,4	446,89
422,8	467,976
423,3	489,348
423,8	506,948
424,2	533,462
424,7	557,233
425,1	588,776
425,6	624,205
426	657,69
426,5	699,062
426,9	742,662
427,4	779,405
427,9	818,176
428,3	862,233
428,8	903,348
429,2	948,548
429,7	996,148
430,1	1043,262
430,6	1096,89
431	1155,919
431,5	1211,576
431,9	1269,805
432,4	1335,348
432,8	1404,233
433,3	1474,205
433,8	1546,919
434,2	1622,605
434,7	1702,776
435,1	1789,89
435,6	1880,948
436	1968,433
436,5	2069,405
436,9	2174,262
437,4	2282,176
437,8	2390,89
438,3	2508,633
438,8	2625,519
439,2	2751,405
439,7	2880,948
440,1	3012,148
440,6	3155,005
441	3296,89
441,5	3440,348
441,9	3594,662
442,4	3744,49
442,8	3905,748
443,3	4077,748
443,7	4241,405
444,2	4423,433
444,7	4605,405
445,1	4792,805
445,6	4984,862
446	5180,348
446,5	5372,376
446,9	5571,49
447,4	5776,462
447,8	5992,519
448,3	6209,776
448,7	6436,09
449,2	6663,49
449,6	6903,919
450,1	7151,833
450,6	7400,233
451	7644,833
451,5	7906,005
451,9	8177,033
452,4	8450,719
452,8	8715,919
453,3	8993,49
453,7	9268,319
454,2	9561,89
454,6	9843,262
455,1	10129,748
455,5	10409,205
456	10706,805
456,4	11000,033
456,9	11317,376
457,3	11619,862
457,8	11930,833
458,3	12254,948
458,7	12578,605
459,2	12908,205
459,6	13236,605
460,1	13555,833
460,5	13880,148
461	14211,719
461,4	14524,176
461,9	14853,548
462,3	15180,405
462,8	15519,433
463,2	15844,633
463,7	16170,976
464,1	16493,748
464,6	16836,49
465	17159,662
465,5	17482,29
466	17791,776
466,4	18108,405
466,9	18437,262
467,3	18754,719
467,8	19072,405
468,2	19395,605
468,7	19720,062
469,1	20033,948
469,6	20350,805
470	20654,319
470,5	20949,948
470,9	21233,433
471,4	21525,719
471,8	21804,033
472,3	22091,805
472,7	22370,605
473,2	22642,89
473,6	22923,262
474,1	23192,205
474,5	23450,405
475	23716,176
475,4	23956,919
475,9	24198,519
476,4	24429,033
476,8	24648,09
477,3	24867,005
477,7	25093,319
478,2	25283,662
478,6	25488,976
479,1	25685,862
479,5	25886,862
480	26068,719
480,4	26244,29
480,9	26398,09
481,3	26567,976
481,8	26717,205
482,2	26851,49
482,7	26966,633
483,1	27097,633
483,6	27211,548
484	27317,976
484,5	27405,119
484,9	27496,49
485,4	27584,262
485,8	27668,462
486,3	27728,748
486,7	27782,605
487,2	27826,576
487,6	27866,005
488,1	27885,89
488,5	27891,548
489	27904,433
489,4	27914,69
489,9	27910,319
490,4	27902,776
490,8	27900,319
491,3	27881,862
491,7	27858,119
492,2	27819,462
492,6	27765,176
493,1	27700,033
493,5	27628,548
494	27544,662
494,4	27477,548
494,9	27399,205
495,3	27327,233
495,8	27235,148
496,2	27164,062
496,7	27068,576
497,1	26981,233
497,6	26872,062
498	26765,176
498,5	26634,033
498,9	26516,176
499,4	26387,433
499,8	26270,89
500,3	26152,405
500,7	26032,89
501,2	25908,062
501,6	25772,09
502,1	25641,976
502,5	25505,062
503	25363,776
503,4	25209,633
503,9	25048,919
504,3	24885,09
504,8	24736,205
505,2	24581,89
505,7	24406,119
506,1	24241,833
506,6	24045,662
507	23866,862
507,5	23684,319
507,9	23501,976
508,4	23317,89
508,8	23133,719
509,3	22936,119
509,7	22770,176
510,2	22577,29
510,6	22390,948
511,1	22203,033
511,5	22000,776
512	21810,005
512,4	21616,862
512,9	21409,29
513,3	21223,405
513,8	21031,976
514,2	20837,376
514,7	20645,405
515,1	20448,49
515,6	20247,833
516	20044,519
516,5	19836,233
516,9	19626,576
517,4	19418,09
517,8	19223,662
518,3	19028,605
518,7	18834,376
519,2	18637,862
519,6	18443,348
520,1	18253,148
520,5	18050,262
521	17847,119
521,4	17653,119
521,9	17455,405
522,3	17264,519
522,8	17076,005
523,2	16884,005
523,7	16709,148
524,1	16520,376
524,6	16334,119
525	16158,376
525,5	15987,919
525,9	15814,833
526,4	15643,519
526,8	15460,776
527,3	15297,319
527,7	15128,976
528,2	14953,719
528,6	14772,405
529,1	14600,062
529,5	14431,862
530	14272,69
530,4	14100,776
530,9	13939,89
531,3	13781,805
531,8	13633,576
532,2	13481,119
532,6	13317,919
533,1	13160,148
533,5	13009,119
534	12858,09
534,4	12707,262
534,9	12568,319
535,3	12426,09
535,8	12296,262
536,2	12159,119
536,7	12023,319
537,1	11891,005
537,6	11759,262
538	11629,633
538,5	11504,605
538,9	11370,89
539,4	11235,405
539,8	11107,862
540,3	10983,948
540,7	10862,719
541,2	10726,09
541,6	10597,319
542,1	10473,319
542,5	10364,576
543	10256,719
543,4	10142,976
543,9	10026,776
544,3	9927,633
544,8	9826,376
545,2	9723,09
545,7	9619,719
546,1	9504,976
546,5	9396,633
547	9297,805
547,4	9189,69
547,9	9075,519
548,3	8981,519
548,8	8882,548
549,2	8793,748
549,7	8704,919
550,1	8617,119
550,6	8528,719
551	8443,319
551,5	8359,576
551,9	8269,405
552,4	8188,519
552,8	8105,519
553,3	8020,748
553,7	7935,748
554,2	7858,262
554,6	7775,833
555,1	7700,09
555,5	7620,662
555,9	7539,605
556,4	7463,633
556,8	7384,09
557,3	7308,319
557,7	7235,605
558,2	7166,033
558,6	7102,148
559,1	7033,033
559,5	6972,976
560	6912,719
560,4	6854,005
560,9	6789,005
561,3	6728,233
561,8	6654,976
562,2	6588,205
562,7	6512,662
563,1	6452,719
563,6	6389,576
564	6333,633
564,4	6266,948
564,9	6216,433
565,3	6160,376
565,8	6111,062
566,2	6053,548
566,7	5994,233
567,1	5939,69
567,6	5888,89
568	5833,433
568,5	5778,433
568,9	5722,348
569,4	5670,719
569,8	5624,633
570,3	5563,29
570,7	5509,976
571,1	5462,976
571,6	5423,89
572	5383,205
572,5	5333,148
572,9	5279,319
573,4	5239,805
573,8	5197,919
574,3	5151,833
574,7	5104,862
575,2	5057,976
575,6	5014,148
576,1	4973,148
576,5	4933,548
576,9	4893,405
577,4	4848,205
577,8	4799,519
578,3	4756,376
578,7	4719,062
579,2	4688,633
579,6	4636,662
580,1	4591,662
580,5	4550,262
581	4524,919
581,4	4485,319
581,9	4449,29
582,3	4405,148
582,7	4372,633
583,2	4334,776
583,6	4296,548
584,1	4246,348
584,5	4214,548
585	4177,948
585,4	4133,519
585,9	4100,919
586,3	4074,233
586,8	4048,633
587,2	4020,319
587,6	3988,605
588,1	3959,119
588,5	3932,519
589	3905,805
589,4	3866,548
589,9	3826,176
590,3	3800,033
590,8	3771,29
591,2	3743,919
591,7	3728,005
592,1	3697,319
592,5	3680,519
593	3656,348
593,4	3627,776
593,9	3598,662
594,3	3567,719
594,8	3531,519
595,2	3507,005
595,7	3479,805
596,1	3457,319
596,6	3436,319
597	3409,633
597,4	3387,348
597,9	3363,062
598,3	3342,748
598,8	3315,09
599,2	3292,119
599,7	3270,119
600,1	3249,119
600,6	3225,433
601	3204,89
601,4	3186,833
601,9	3165,633
602,3	3140,576
602,8	3119,148
603,2	3094,805
603,7	3080,662
604,1	3058,805
604,6	3030,919
605	3007,976
605,4	2989,662
605,9	2958,319
606,3	2932,605
606,8	2900,89
607,2	2877,233
607,7	2852,205
608,1	2834,833
608,6	2817,633
609	2807,805
609,4	2796,405
609,9	2778,89
610,3	2760,205
610,8	2745,005
611,2	2726,662
611,7	2713,748
612,1	2682,633
612,6	2663,433
613	2647,148
613,4	2632,033
613,9	2612,29
614,3	2594,433
614,8	2570,919
615,2	2552,49
615,7	2536,09
616,1	2520,662
616,6	2498,69
617	2482,348
617,4	2464,49
617,9	2452,233
618,3	2442,89
618,8	2428,148
619,2	2404,776
619,7	2392,062
620,1	2368,49
620,5	2351,919
621	2326,805
621,4	2309,576
621,9	2287,033
622,3	2274,976
622,8	2262,576
623,2	2253,805
623,6	2235,833
624,1	2225,633
624,5	2216,062
625	2208,205
625,4	2191,805
625,9	2167,776
626,3	2151,205
626,8	2139,376
627,2	2118,148
627,6	2097,433
628,1	2076,148
628,5	2068,662
629	2056,862
629,4	2040,89
629,9	2019,805
630,3	2003,433
630,7	1984,662
631,2	1975,148
631,6	1953,948
632,1	1941,976
632,5	1931,405
633	1922,862
633,4	1912,776
633,8	1903,833
634,3	1886,433
634,7	1871,519
635,2	1852,262
635,6	1835,233
636,1	1818,748
636,5	1802,805
636,9	1785,148
637,4	1770,519
637,8	1751,005
638,3	1734,062
638,7	1722,519
639,2	1706,29
639,6	1696,49
640	1683,49
640,5	1674,176
640,9	1669,09
641,4	1667,633
641,8	1657,462
642,2	1652,376
642,7	1644,805
643,1	1642,576
643,6	1631,805
644	1625,29
644,5	1612,576
644,9	1599,89
645,3	1584,176
645,8	1562,69
646,2	1548,605
646,7	1537,89
647,1	1521,148
647,6	1508,548
648	1496,805
648,4	1488,89
648,9	1485,633
649,3	1468,319
649,8	1455,633
650,2	1452,719
650,6	1448,519
651,1	1439,976
651,5	1432,948
652	1419,633
652,4	1413,49
652,9	1406,576
653,3	1389,033
653,7	1375,805
654,2	1367,376
654,6	1354,348
655,1	1350,262
655,5	1348,462
655,9	1339,233
656,4	1333,376
656,8	1323,176
657,3	1312,176
657,7	1309,519
658,2	1297,29
658,6	1285,49
659	1276,319
659,5	1262,862
659,9	1252,948
660,4	1243,976
660,8	1228,833
661,2	1224,662
661,7	1218,348
662,1	1209,09
662,6	1203,233
663	1197,862
663,4	1188,176
663,9	1179,576
664,3	1167,262
664,8	1154,948
665,2	1139,576
665,6	1131,033
666,1	1127,233
666,5	1121,119
667	1113,833
667,4	1106,605
667,9	1095,69
668,3	1093,719
668,7	1085,319
669,2	1071,89
669,6	1064,948
670,1	1058,49
670,5	1044,919
670,9	1039,033
671,4	1029,976
671,8	1024,062
672,3	1017,748
672,7	1007,833
673,1	996,719
673,6	992,262
674	984,005
674,5	975,776
674,9	963,605
675,3	954,748
675,8	948,862
676,2	944,262
676,7	938,319
677,1	934,576
677,5	928,062
678	927,376
678,4	922,09
678,9	919,49
679,3	913,262
679,7	909,776
680,2	897,919
680,6	893,233
681,1	883,919
681,5	876,89
681,9	866,49
682,4	858,976
682,8	846,89
683,3	847,519
683,7	842,176
684,1	837,033
684,6	830,49
685	824,148
685,5	818,433
685,9	809,462
686,3	797,948
686,8	790,205
687,2	788,662
687,7	781,69
688,1	774,576
688,5	769,633
689	774,062
689,4	768,976
689,9	762,49
690,3	751,319
690,7	747,633
691,2	742,662
691,6	737,719
692	726,948
692,5	725,633
692,9	725,433
693,4	722,148
693,8	716,405
694,2	712,205
694,7	706,462
695,1	703,29
695,6	696,862
696	686,662
696,4	680,89
696,9	670,576
697,3	660,405
697,8	657,919
698,2	652,376
698,6	649,919
699,1	646,548
699,5	645,576
699,9	644,948
700,4	640,948
700,8	634,09
701,3	630,776
701,7	619,376
702,1	612,948
702,6	606,576
703	602,348
703,5	597,948
703,9	590,09
704,3	589,49
704,8	586,148
705,2	586,548
705,6	579,119
706,1	576,348
706,5	574,49
707	573,433
707,4	565,005
707,8	556,948
708,3	552,005
708,7	549,89
709,2	544,576
709,6	543,005
710	544,89
710,5	539,633
710,9	543,262
711,3	536,776
711,8	533,862
712,2	530,29
712,7	521,805
713,1	513,89
713,5	511,205
714	506,919
714,4	503,348
714,8	499,976
715,3	493,29
715,7	494,976
716,2	489,976
716,6	487,662
717	483,433
717,5	479,805
717,9	477,319
718,3	476,062
718,8	468,633
719,2	465,233
719,7	459,519
720,1	459,005
720,5	459,433
721	448,405
721,4	446,205
721,8	448,69
722,3	443,776
722,7	442,49
723,2	430,433
723,6	416,233
724	414,948
724,5	409,09
724,9	402,519
725,3	395,89
725,8	389,49
726,2	390,262
726,7	390,462
727,1	388,576
727,5	388,519
728	382,976
728,4	383,805
728,8	383,519
729,3	378,519
729,7	377,176
730,1	373,119
730,6	366,948
731	365,233
731,5	359,548
731,9	356,29
732,3	360,005
732,8	361,233
733,2	364,348
733,6	363,376
734,1	360,748
734,5	360,719
734,9	357,89
735,4	354,376
735,8	347,205
736,3	345,462
736,7	343,148
737,1	344,119
737,6	338,405
738	334,862
738,4	330,633
738,9	332,748
739,3	326,348
739,7	326,462
740,2	322,548
740,6	326,462
741,1	328,862
741,5	321,519
741,9	320,805
742,4	323,748
742,8	323,576
743,2	317,662
743,7	313,833
744,1	308,205
744,5	308,462
745	304,005
745,4	296,29
745,8	290,433
746,3	292,948
746,7	291,09
747,2	291,005
747,6	295,205
748	298,605
748,5	302,433
748,9	297,433
749,3	294,89
749,8	293,519
750,2	290,719
750,6	286,062
751,1	282,805
751,5	278,833
751,9	279,519
752,4	279,633
752,8	278,062
753,3	279,376
753,7	277,233
754,1	267,833
754,6	262,89
755	260,69
755,4	257,319
755,9	254,605
756,3	249,29
756,7	247,605
757,2	250,033
757,6	251,833
758	250,005
758,5	248,548
758,9	247,519
759,3	247,662
759,8	248,49
760,2	245,748
760,6	239,69
761,1	237,976
761,5	235,776
761,9	235,405
762,4	231,433
762,8	226,862
763,3	224,919
763,7	228,29
764,1	229,548
764,6	228,262
765	226,205
765,4	228,205
765,9	224,805
766,3	226,148
766,7	221,548
767,2	219,919
767,6	221,548
768	219,148
768,5	212,89
768,9	213,862
769,3	211,948
769,8	211,662
770,2	208,948
770,6	203,89
771,1	204,205
771,5	204,376
771,9	203,148
772,4	202,662
772,8	202,319
773,2	203,605
773,7	203,262
774,1	199,919
774,5	195,833
775	193,662
775,4	191,176
775,8	184,948
776,3	181,919
776,7	177,919
777,1	176,176
777,6	179,119
778	180,233
778,4	175,119
778,9	177,576
779,3	176,148
779,7	178,548
780,2	179,176
780,6	176,719
781	171,233
781,5	167,09
781,9	166,005
782,3	160,233
782,8	159,776
783,2	162,719
783,6	163,89
784,1	163,376
784,5	168,119
784,9	165,005
785,4	173,719
785,8	172,948
786,2	168,319
786,7	167,148
787,1	169,976
787,5	168,205
788	168,176
788,4	161,948
788,8	161,69
789,3	156,69
789,7	155,69
790,1	153,89
790,6	152,833
791	149,376
791,4	151,605
791,9	146,776
792,3	144,976
792,7	148,49
793,2	146,205
793,6	143,89
794	147,119
794,5	141,576
794,9	142,062
795,3	147,633
795,8	139,005
796,2	140,176
796,6	144,433
797,1	141,919
797,5	143,605
797,9	137,805
798,4	134,462
798,8	134,719
799,2	132,005
799,7	131,805
800,1	128,662
800,5	127,376
801	135,976
801,4	133,605
801,8	131,319
802,2	130,919
802,7	124,376
803,1	125,633
803,5	123,262
804	118,948
804,4	118,519
804,8	118,605
805,3	117,09
805,7	118,805
806,1	117,233
806,6	119,119
807	118,148
807,4	114,833
807,9	110,748
808,3	108,348
808,7	105,833
809,2	109,033
809,6	107,148
810	102,005
810,4	103,69
810,9	107,719
811,3	109,919
811,7	108,633
812,2	105,376
812,6	103,148
813	107,062
813,5	108,033
813,9	102,805
814,3	103,09
814,8	106,89
815,2	103,662
815,6	102,29
816,1	101,519
816,5	97,633
816,9	103,405
817,3	100,605
817,8	103,919
818,2	105,89
818,6	103,405
819,1	103,205
819,5	103,033
819,9	99,005
820,4	99,833
820,8	93,69
821,2	91,49
821,7	97,348
822,1	99,233
822,5	100,033
822,9	97,49
823,4	94,776
823,8	98,233
824,2	101,433
824,7	95,176
825,1	86,262
825,5	84,376
826	81,719
826,4	81,69
826,8	74,833
827,3	71,633
827,7	69,348
828,1	69,519
828,5	70,719
829	72,09
829,4	69,719
829,8	65,319
830,3	65,519
830,7	67,462
831,1	73,176
831,6	73,919
832	74,205
832,4	73,633
832,8	80,262
833,3	78,376
833,7	74,205
834,1	69,405
834,6	68,005
835	72,862
835,4	74,576
835,8	68,005
836,3	68,919
836,7	71,176
837,1	71,805
837,6	69,576
838	65,919
838,4	62,433
838,9	61,833
839,3	57,09
839,7	60,805
840,1	56,576
840,6	53,205
841	48,948
841,4	50,405
841,9	54,233
842,3	56,148
842,7	54,062
843,1	56,948
843,6	60,119
844	61,548
844,4	62,548
844,9	63,862
845,3	63,462
845,7	63,662
846,2	58,633
846,6	54,576
847	56,119
847,4	56,119
847,9	55,548
848,3	58,005
848,7	58,49
849,2	62,062
849,6	63,633
850	61,948
850,4	59,148
850,9	56,633
851,3	53,233
851,7	50,462
852,2	47,548
852,6	50,405
853	52,633
853,4	53,662
853,9	51,976
854,3	52,862
854,7	53,948
855,2	59,376
855,6	60,29
856	54,748
856,4	48,376
856,9	46,09
857,3	44,433
857,7	41,948
858,2	41,176
858,6	36,148
859	37,348
859,4	42,262
859,9	44,205
860,3	44,719
860,7	43,119
861,1	41,119
861,6	40,205
862	42,919
862,4	39,005
862,9	39,576
863,3	41,89
863,7	43,005
864,1	45,205
864,6	41,89
865	38,148
865,4	39,576
865,9	37,005
866,3	32,805
866,7	29,405
867,1	23,29
867,6	29,576
868	28,862
868,4	31,176
868,8	32,976
869,3	34,033
869,7	39,89
870,1	41,805
870,6	39,348
871	22,662
871,4	25,919
871,8	23,976
872,3	25,405
872,7	23,005
873,1	20,89
873,5	23,033
874	39,348
874,4	39,262
874,8	35,89
875,3	35,633
875,7	34,69
876,1	37,862
876,5	37,148
877	35,89
877,4	28,29
877,8	34,862
878,2	35,605
878,7	38,748
879,1	36,862
879,5	35,89
879,9	36,862
880,4	38,576
880,8	35,862
881,2	33,862
881,7	30,348
882,1	29,462
882,5	25,348
882,9	27,49
883,4	27,719
883,8	31,062
884,2	28,205
884,6	25,119
885,1	26,748
885,5	28,319
885,9	23,976
886,3	26,376
886,8	19,319
887,2	18,776
887,6	18,89
888	19,776
888,5	21,09
888,9	22,062
889,3	15,062
889,8	15,976
890,2	16,948
890,6	10,748
891	11,319
891,5	9,148
891,9	8,719
892,3	11,062
892,7	14,005
893,2	14,119
893,6	23,148
894	21,376
894,4	22,29
894,9	25,233
895,3	27,119
895,7	28,348
896,1	28,519
896,6	26,605
897	25,948
897,4	27,748
897,8	27,548
898,3	28,776
898,7	25,262
899,1	23,519
899,5	20,805
900	12,09
900,4	9,833
900,8	8,69
901,2	6,29
901,7	5,062
902,1	4,805
902,5	11,805
902,9	20,319
903,4	21,776
903,8	21,119
904,2	19,862
904,6	24,205
905,1	23,405
905,5	20,976
905,9	19,348
906,3	23,519
906,8	27,919
907,2	28,376
907,6	24,662
908	25,662
908,5	20,776
908,9	15,348
909,3	9,948
909,7	4,748
910,2	5,119
910,6	9,062
911	7,433
911,4	13,605
911,9	14,805
912,3	12,89
912,7	18,433
913,1	23,862
913,6	20,033
914	22,89
914,4	19,348
914,8	23,862
915,3	24,833
915,7	18,519
916,1	12,548
916,5	14,148
916,9	15,719
917,4	17,262
917,8	18,176
918,2	13,776
918,6	11,633
919,1	14,462
919,5	14,176
919,9	10,948
920,3	8,662
920,8	5,205
921,2	9,205
921,6	13,833
922	14,09
922,5	11,233
922,9	13,29
923,3	9,462
923,7	13,119
924,2	10,719
924,6	10,576
925	9,148
925,4	12,519
925,8	11,662
926,3	14,519
926,7	7,748
927,1	9,948
927,5	8,205
928	6,148
928,4	0,519
928,8	0,548
929,2	-2,11
929,7	3,776
930,1	5,405
930,5	4,576
930,9	8,405
931,3	13,605
931,8	14,062
932,2	17,062
932,6	15,748
933	9,862
933,5	11,519
933,9	8,633
934,3	8,548
934,7	3,49
935,2	2,805
935,6	2,576
936	9,548
936,4	12,176
936,8	11,633
937,3	10,176
937,7	17,205
938,1	22,09
938,5	16,29
939	13,09
939,4	6,433
939,8	6,062
940,2	2,862
940,6	1,119
941,1	-3,224
941,5	0,49
941,9	-2,31
942,3	-0,138
942,8	5,576
943,2	10,176
943,6	5,233
944	6,376
944,4	5,433
944,9	7,319
945,3	7,862
945,7	-1,652
946,1	-6,824
946,6	-6,681
947	-8,795
947,4	0,576
947,8	2,319
948,2	-0,024
948,7	6,148
949,1	9,833
949,5	18,548
949,9	19,862
950,3	13,29
950,8	10,776
951,2	10,833
951,6	5,662
952	6,89
952,5	-2,224
952,9	-3,281
953,3	-5,538
953,7	-6,595
954,1	-4,281
954,6	0,09
955	2,205
955,4	4,49
955,8	6,405
956,2	5,119
956,7	6,262
957,1	6,376
957,5	5,633
957,9	4,89
958,3	4,576
958,8	4,662
959,2	9,919
959,6	13,833
960	12,89
960,5	15,776
960,9	13,405
961,3	13,548
961,7	12,005
962,1	7,633
962,6	6,433
963	8,833
963,4	1,69
963,8	3,119
964,2	5,176
964,7	3,119
965,1	11,519
965,5	8,948
965,9	9,519
966,3	15,119
966,8	12,348
967,2	10,176
967,6	12,776
968	2,148
968,4	0,748
968,9	0,833
969,3	-1,538
969,7	-1,852
970,1	-1,938
970,5	-2,567
971	6,462
971,4	8,805
971,8	6,548
972,2	6,09
972,6	5,805
973,1	5,719
973,5	2,948
973,9	-1,852
974,3	-2,195
974,7	-0,624
975,2	2,833
975,6	0,548
976	3,405
976,4	2,605
976,8	3,719
977,3	4,319
977,7	1,405
978,1	-0,167
978,5	-0,424
978,9	-3,795
979,4	-3,224
979,8	-6,938
980,2	-7,567
980,6	-12,138
981	-10,281
981,5	-6,538
981,9	-7,052
982,3	-3,31
982,7	-1,967
983,1	-6,31
983,6	0,805
984	-0,738
984,4	0,462
984,8	0,748
985,2	-0,824
985,6	1,662
986,1	5,69
986,5	2,662
986,9	-2,138
987,3	-4,967
987,7	-5,195
988,2	-6,567
988,6	-5,595
989	-4,481
989,4	-2,167
989,8	-4,395
990,3	-2,881
990,7	-7,995
991,1	-6,795
991,5	-7,652
991,9	-5,11
992,3	-2,852
992,8	2,148
993,2	-0,567
993,6	8,519
994	13,605
994,4	14,319
994,9	9,519
995,3	5,633
995,7	3,548
996,1	2,805
996,5	-0,281
996,9	-7,195
997,4	-6,881
997,8	-7,71
998,2	-6,281
998,6	-7,538
999	-4,481
999,5	-3,081
999,9	-1,052
1000,3	-4,852
1000,7	-4,395
1001,1	-6,024
1001,5	1,633
1002	3,662
1002,4	3,862
1002,8	3,719
1003,2	8,29
1003,6	14,062
1004	17,09
1004,5	8,776
1004,9	7,233
1005,3	0,176
1005,7	1,519
1006,1	-1,281
1006,6	-4,681
1007	-5,367
1007,4	-1,652
1007,8	-1,967
1008,2	2,148
1008,6	1,319
1009,1	-0,224
1009,5	-2,195
1009,9	-0,538
1010,3	-0,424
1010,7	-1,081
1011,1	-0,91
1011,6	1,748
1012	3,233
1012,4	2,605
1012,8	2,719
1013,2	6,09
1013,6	8,833
1014,1	7,148
1014,5	6,062
1014,9	5,548
1015,3	5,176
1015,7	1,462
1016,1	-2,71
1016,6	-4,11
1017	0,919
1017,4	0,062
1017,8	1,519
1018,2	4,462
1018,6	1,519
1019,1	4,833
1019,5	2,376
1019,9	-2,167
1020,3	0,033
1020,7	1,776
1021,1	0,748
1021,6	3,148
1022	5,89
1022,4	5,49
1022,8	10,09
1023,2	4,776
1023,6	4,405
1024,1	11,176
1024,5	12,119
1024,9	4,49
1025,3	8,262
1025,7	5,548
1026,1	10,148
1026,6	5,433
1027	-1,395
1027,4	0,919
1027,8	2,833
1028,2	0,976
1028,6	7,262
1029	5,519
1029,5	10,719
1029,9	9,719
1030,3	5,976
1030,7	5,519
1031,1	7,405
1031,5	-1,481
1032	-3,252
1032,4	-5,138
1032,8	-2,481
1033,2	2,405
1033,6	1,948
1034	1,89
1034,4	4,005
1034,9	7,033
1035,3	1,519
1035,7	3,89
1036,1	-0,595
1036,5	-0,91
1036,9	-0,681
1037,4	5,348
1037,8	1,062
1038,2	2,376
1038,6	0,662
1039	2,319
1039,4	8,862
1039,8	0,633
1040,3	-1,852
1040,7	-1,31
1041,1	1,69
1041,5	-1,338
1041,9	-6,481
1042,3	-9,452
1042,7	-2,738
1043,2	-6,167
1043,6	-6,967
1044	-9,338
1044,4	-8,252
1044,8	-5,71
1045,2	-3,71
1045,6	-3,938
1046,1	-8,024
1046,5	-4,252
1046,9	-2,967
1047,3	-5,652
1047,7	-3,595
1048,1	-7,452
1048,5	-8,424
1049	-0,338
1049,4	4,433
1049,8	3,062
1050,2	8,29
1050,6	11,548
1051	7,776
1051,4	7,805
1051,9	0,862
1052,3	0,69
1052,7	0,69
1053,1	-4,595
1053,5	-6,281
1053,9	-3,624
1054,3	-0,738
1054,8	10,833
1055,2	8,233
1055,6	14,719
1056	20,09
1056,4	14,805
1056,8	16,405
1057,2	10,09
1057,6	1,262
1058,1	-1,567
1058,5	-9,338
1058,9	-8,767
1059,3	-2,681
1059,7	-2,481
1060,1	1,89
1060,5	4,719
1061	9,205
1061,4	14,205
1061,8	15,405
1062,2	10,605
1062,6	13,776
1063	13,976
1063,4	10,662
1063,8	6,348
1064,3	0,062
1064,7	-3,538
1065,1	-2,452
1065,5	-10,538
1065,9	-14,681
1066,3	-15,424
1066,7	-17,51
1067,1	-16,31
1067,6	-13,395
1068	-14,281
1068,4	-9,081
1068,8	-2,624
1069,2	0,948
1069,6	5,49
1070	9,748
1070,4	8,805
1070,9	8,233
1071,3	5,519
1071,7	2,29
1072,1	0,805
1072,5	-0,081
1072,9	-2,452
1073,3	-3,938
1073,7	-3,795
1074,2	-1,395
1074,6	-1,252
1075	-2,11
1075,4	-2,795
1075,8	-1,91
1076,2	-2,195
1076,6	1,29
1077	3,319
1077,5	4,405
1077,9	1,005
1078,3	1,405
1078,7	0,062
1079,1	-0,338
1079,5	2,833
1079,9	4,662
1080,3	3,433
1080,7	11,119
1081,2	13,376
1081,6	12,862
1082	10,748
1082,4	9,262
1082,8	7,062
1083,2	11,033
1083,6	12,776
1084	10,633
1084,5	14,662
1084,9	16,633
1085,3	10,605
1085,7	13,005
1086,1	6,976
1086,5	3,776
1086,9	2,89
1087,3	1,319
1087,7	0,348
1088,2	3,633
1088,6	1,49
1089	8,49
1089,4	10,319
1089,8	16,49
1090,2	14,833
1090,6	14,548
1091	20,719
1091,4	21,49
1091,9	16,233
1092,3	15,205
1092,7	7,433
1093,1	14,233
1093,5	14,776
1093,9	7,376
1094,3	7,69
1094,7	5,633
1095,1	6,519
1095,5	9,605
1096	1,776
1096,4	0,862
1096,8	2,233
1097,2	-3,281
1097,6	3,205
1098	0,748
1098,4	-2,052
1098,8	2,262
1099,2	10,376
1099,6	7,776
1100,1	7,633
1100,5	4,49
1100,9	4,176
1101,3	4,719
1101,7	3,89
1102,1	-4,224
1102,5	0,776
1102,9	4,862
1103,3	6,948
1103,7	6,033
1104,2	3,605
1104,6	4,119
1105	6,119
1105,4	2,119
1105,8	0,062
1106,2	-3,167
1106,6	-2,738
1107	0,519
1107,4	-1,1
1107,8	-1,647
1108,3	0,383
