Data from Subt2_204.txt Node
Date: Sat Aug 26 18:45:48 MSK 2023
User: vat
Spectrometer: MAYP114033
Trigger mode: 0
Integration Time (sec): 1,000000E0
Scans to average: 5
Electric dark correction enabled: true
Nonlinearity correction enabled: false
Boxcar width: 3
XAxis mode: Wavelengths
Number of Pixels in Spectrum: 2068
>>>>>Begin Spectral Data<<<<<
199,4	-1,033
199,9	0,447
200,4	0,6
200,8	1,081
201,3	-0,062
201,8	1,024
202,2	-1,462
202,7	1,281
203,2	1,195
203,6	-0,119
204,1	-3,633
204,6	-2,005
205	1,624
205,5	2,567
206	0,852
206,4	1,31
206,9	1,624
207,4	4,224
207,8	2,795
208,3	-2,548
208,8	-0,605
209,2	-0,119
209,7	0,338
210,2	1,224
210,6	0,824
211,1	3,395
211,5	1,595
212	1,767
212,5	-0,005
212,9	-7,376
213,4	-5,776
213,9	-3,319
214,3	-2,262
214,8	0,538
215,3	-1,205
215,7	3,11
216,2	9,852
216,7	9,967
217,1	6,852
217,6	4,71
218,1	3,024
218,5	2,052
219	-4,976
219,5	-2,49
219,9	-10,205
220,4	-3,948
220,9	-4,176
221,3	-2,119
221,8	1,51
222,3	6,252
222,7	3,881
223,2	8,281
223,6	4,31
224,1	3,538
224,6	6,167
225	0,338
225,5	-2,005
226	-2,005
226,4	2,652
226,9	5,395
227,4	7,652
227,8	4,681
228,3	8,424
228,8	9,367
229,2	13,852
229,7	7,995
230,2	6,081
230,6	8,624
231,1	10,281
231,5	12,167
232	12,081
232,5	7,167
232,9	11,31
233,4	15,338
233,9	10,567
234,3	11,452
234,8	10,481
235,3	10,738
235,7	12,938
236,2	9,738
236,7	5,11
237,1	9,995
237,6	4,538
238,1	4,881
238,5	-0,49
239	-2,462
239,4	2,281
239,9	1,281
240,4	1,31
240,8	3,424
241,3	-2,262
241,8	1,767
242,2	1,624
242,7	-2,319
243,2	-2,205
243,6	-8,462
244,1	-5,033
244,6	1,195
245	3,167
245,5	6,081
245,9	3,481
246,4	4,938
246,9	6,652
247,3	8,395
247,8	10,424
248,3	11,11
248,7	8,852
249,2	13,624
249,7	13,738
250,1	14,967
250,6	12,424
251	8,338
251,5	5,538
252	3,31
252,4	2,538
252,9	-3,09
253,4	-4,319
253,8	-5,176
254,3	-2,576
254,8	1,081
255,2	-1,662
255,7	-0,605
256,1	4,567
256,6	5,024
257,1	3,71
257,5	-1,519
258	-6,862
258,5	-2,49
258,9	-6,233
259,4	-8,833
259,9	-9,805
260,3	-8,948
260,8	-9,348
261,2	-5,862
261,7	-7,233
262,2	-4,748
262,6	-1,062
263,1	2,91
263,6	4,624
264	9,538
264,5	14,452
264,9	13,452
265,4	14,71
265,9	7,71
266,3	4,595
266,8	3,852
267,3	6,538
267,7	1,595
268,2	4,052
268,7	4,652
269,1	12,31
269,6	14,481
270	19,367
270,5	13,938
271	12,967
271,4	13,481
271,9	8,338
272,4	7,767
272,8	6,195
273,3	0,338
273,7	5,11
274,2	6,738
274,7	7,881
275,1	13,31
275,6	14,081
276,1	13,424
276,5	19,595
277	14,91
277,4	13,595
277,9	13,91
278,4	11,567
278,8	12,195
279,3	14,567
279,8	9,881
280,2	14,11
280,7	18,424
281,1	11,995
281,6	14,681
282,1	10,452
282,5	8,967
283	6,624
283,4	2,395
283,9	0,91
284,4	5,024
284,8	3,852
285,3	4,967
285,8	4,31
286,2	4,138
286,7	6,624
287,1	4,71
287,6	4,395
288,1	-1,119
288,5	-0,548
289	3,195
289,5	5,91
289,9	2,481
290,4	0,795
290,8	0,995
291,3	7,367
291,8	9,281
292,2	4,91
292,7	4,881
293,1	5,195
293,6	9,481
294,1	12,481
294,5	12,252
295	10,51
295,5	10,824
295,9	13,424
296,4	12,91
296,8	9,367
297,3	6,281
297,8	0,338
298,2	-2,862
298,7	1,395
299,1	-0,948
299,6	2,11
300,1	6,538
300,5	7,881
301	15,281
301,5	22,138
301,9	15,424
302,4	7,081
302,8	7,081
303,3	1,538
303,8	-4,262
304,2	-8,89
304,7	-15,29
305,1	-14,719
305,6	-8,09
306,1	-0,833
306,5	4,824
307	9,852
307,4	13,195
307,9	13,224
308,4	12,881
308,8	10,824
309,3	1,967
309,8	-1,919
310,2	-2,319
310,7	-6,605
311,1	-4,462
311,6	-1,29
312,1	1,595
312,5	5,367
313	6,395
313,4	4,567
313,9	7,567
314,4	7,881
314,8	4,167
315,3	2,424
315,7	-3,09
316,2	-3,976
316,7	-3,205
317,1	-1,576
317,6	0,824
318	9,367
318,5	9,338
319	10,052
319,4	12,652
319,9	15,195
320,3	15,252
320,8	10,91
321,3	12,252
321,7	14,367
322,2	15,967
322,6	13,281
323,1	12,167
323,6	11,681
324	11,91
324,5	4,767
324,9	3,938
325,4	7,138
325,9	9,338
326,3	10,052
326,8	12,195
327,2	8,795
327,7	8,938
328,2	5,338
328,6	5,167
329,1	-2,89
329,5	-5,605
330	-9,062
330,5	-3,69
330,9	-0,119
331,4	5,824
331,8	3,195
332,3	12,51
332,8	17,138
333,2	17,11
333,7	17,052
334,1	14,967
334,6	7,767
335,1	7,395
335,5	6,481
336	4,681
336,4	4,052
336,9	12,338
337,4	11,852
337,8	13,767
338,3	16,852
338,7	16,138
339,2	13,024
339,7	18,567
340,1	7,538
340,6	7,052
341	8,681
341,5	8,224
342	5,167
342,4	4,681
342,9	0,138
343,3	1,252
343,8	-0,976
344,2	2,567
344,7	4,852
345,2	2,252
345,6	1,967
346,1	5,081
346,5	6,138
347	5,252
347,5	3,395
347,9	3,338
348,4	6,938
348,8	9,31
349,3	9,252
349,8	10,624
350,2	19,624
350,7	19,395
351,1	14,281
351,6	20,138
352	24,595
352,5	28,167
353	35,538
353,4	36,624
353,9	49,367
354,3	62,624
354,8	70,938
355,3	89,881
355,7	110,395
356,2	129,995
356,6	158,481
357,1	183,167
357,5	213,081
358	253,652
358,5	289,538
358,9	331,224
359,4	381,395
359,8	433,91
360,3	496,824
360,8	570,138
361,2	646,824
361,7	731,824
362,1	827,71
362,6	932,138
363	1044,938
363,5	1167,138
364	1294,252
364,4	1422,91
364,9	1557,138
365,3	1689,424
365,8	1808,51
366,3	1924,652
366,7	2025,567
367,2	2118,424
367,6	2192,738
368,1	2251,624
368,5	2286,681
369	2307,538
369,5	2315,624
369,9	2302,567
370,4	2267,481
370,8	2220,567
371,3	2150,852
371,7	2073,71
372,2	1987,91
372,7	1888,938
373,1	1789,795
373,6	1684,538
374	1580,967
374,5	1481,881
374,9	1381,738
375,4	1283,424
375,9	1187,081
376,3	1094,367
376,8	1009,995
377,2	924,624
377,7	846,31
378,2	772,995
378,6	709,11
379,1	645,138
379,5	591,652
380	546,567
380,4	499,824
380,9	457,281
381,4	417,71
381,8	387,995
382,3	363,567
382,7	335,738
383,2	305,995
383,6	286,967
384,1	270,91
384,6	254,538
385	235,51
385,5	217,138
385,9	204,995
386,4	187,567
386,8	173,767
387,3	158,767
387,7	149,91
388,2	141,681
388,7	132,51
389,1	118,195
389,6	113,481
390	109,081
390,5	104,881
390,9	102,881
391,4	95,081
391,9	89,424
392,3	90,91
392,8	82,767
393,2	70,91
393,7	67,367
394,1	57,281
394,6	53,31
395,1	50,538
395,5	40,824
396	44,052
396,4	46,338
396,9	43,51
397,3	45,71
397,8	46,252
398,2	42,51
398,7	45,595
399,2	43,481
399,6	42,51
400,1	36,91
400,5	29,795
401	28,538
401,4	28,452
401,9	31,395
402,4	32,738
402,8	30,938
403,3	41,938
403,7	41,338
404,2	40,024
404,6	44,452
405,1	40,824
405,5	34,538
406	34,91
406,5	28,081
406,9	36,367
407,4	37,424
407,8	38,51
408,3	39,767
408,7	41,681
409,2	48,995
409,6	55,481
410,1	57,738
410,6	65,767
411	69,51
411,5	74,91
411,9	83,881
412,4	89,024
412,8	95,081
413,3	96,052
413,7	100,052
414,2	102,967
414,7	110,024
415,1	121,681
415,6	126,224
416	129,31
416,5	141,167
416,9	145,652
417,4	157,138
417,8	169,967
418,3	174,881
418,8	185,081
419,2	193,138
419,7	201,024
420,1	211,738
420,6	222,538
421	222,91
421,5	231,138
421,9	240,252
422,4	250,195
422,8	257,481
423,3	267,395
423,8	273,395
424,2	286,881
424,7	295,538
425,1	310,567
425,6	325,052
426	339,31
426,5	352,538
426,9	370,138
427,4	382,567
427,9	398,567
428,3	414,167
428,8	430,795
429,2	447,795
429,7	468,138
430,1	482,567
430,6	500,967
431	521,71
431,5	543,995
431,9	563,338
432,4	587,738
432,8	615,51
433,3	649,51
433,8	683,995
434,2	716,71
434,7	747,51
435,1	788,424
435,6	830,852
436	863,567
436,5	901,252
436,9	932,224
437,4	969,624
437,8	1008,281
438,3	1046,852
438,8	1085,024
439,2	1134,281
439,7	1180,767
440,1	1239,024
440,6	1297,681
441	1349,824
441,5	1408,052
441,9	1468,452
442,4	1521,795
442,8	1582,967
443,3	1650,367
443,7	1709,138
444,2	1785,824
444,7	1850,424
445,1	1920,481
445,6	1992,995
446	2067,338
446,5	2135,367
446,9	2212,367
447,4	2284,767
447,8	2367,824
448,3	2449,738
448,7	2536,338
449,2	2624,595
449,6	2717,424
450,1	2808,681
450,6	2905,51
451	2999,51
451,5	3098,195
451,9	3202,995
452,4	3303,338
452,8	3403,567
453,3	3513,938
453,7	3612,395
454,2	3720,452
454,6	3831,452
455,1	3931,595
455,5	4037,024
456	4149,31
456,4	4255,452
456,9	4375,852
457,3	4492,452
457,8	4605,51
458,3	4730,224
458,7	4852,481
459,2	4973,481
459,6	5100,967
460,1	5217,852
460,5	5335,024
461	5454,052
461,4	5578,51
461,9	5699,167
462,3	5823,852
462,8	5947,824
463,2	6077,681
463,7	6204,224
464,1	6334,338
464,6	6463,452
465	6598,224
465,5	6716,71
466	6844,995
466,4	6961,595
466,9	7093,081
467,3	7209,538
467,8	7334,51
468,2	7449,538
468,7	7580,738
469,1	7700,195
469,6	7832,995
470	7957,452
470,5	8083,338
470,9	8190,024
471,4	8306,938
471,8	8417,795
472,3	8521,395
472,7	8626,852
473,2	8724,281
473,6	8826,824
474,1	8935,595
474,5	9035,424
475	9135,224
475,4	9237,138
475,9	9333,11
476,4	9426,11
476,8	9515,795
477,3	9609,71
477,7	9702,452
478,2	9790,167
478,6	9876,424
479,1	9949,995
479,5	10019,195
480	10092,224
480,4	10151,51
480,9	10210,224
481,3	10265,71
481,8	10316,595
482,2	10363,395
482,7	10423,424
483,1	10471,738
483,6	10514,024
484	10547,91
484,5	10587,967
484,9	10625,795
485,4	10673,452
485,8	10696,11
486,3	10723,367
486,7	10740,11
487,2	10765,71
487,6	10779,138
488,1	10783,824
488,5	10785,195
489	10796,424
489,4	10800,652
489,9	10812,538
490,4	10811,281
490,8	10806,995
491,3	10802,767
491,7	10779,795
492,2	10756,338
492,6	10729,71
493,1	10695,881
493,5	10655,195
494	10618,71
494,4	10586,452
494,9	10560,71
495,3	10528,138
495,8	10491,967
496,2	10451,195
496,7	10409,367
497,1	10379,138
497,6	10333,195
498	10284,481
498,5	10239,995
498,9	10185,481
499,4	10135,395
499,8	10098,795
500,3	10035,252
500,7	9974,367
501,2	9914,538
501,6	9850,795
502,1	9798,024
502,5	9745,738
503	9678,481
503,4	9618,052
503,9	9557,452
504,3	9491,395
504,8	9415,967
505,2	9337,338
505,7	9253,138
506,1	9186,738
506,6	9104,338
507	9033,224
507,5	8959,224
507,9	8893,252
508,4	8824,31
508,8	8764,481
509,3	8686,881
509,7	8612,424
510,2	8531,024
510,6	8454,024
511,1	8370,51
511,5	8287,91
512	8208,424
512,4	8128,91
512,9	8050,138
513,3	7975,852
513,8	7905,51
514,2	7830,11
514,7	7746,595
515,1	7660,71
515,6	7579,138
516	7501,367
516,5	7416,881
516,9	7327,652
517,4	7249,024
517,8	7177,71
518,3	7098,138
518,7	7019,167
519,2	6948,052
519,6	6869,624
520,1	6789,624
520,5	6710,424
521	6624,452
521,4	6552,795
521,9	6479,31
522,3	6391,024
522,8	6316,681
523,2	6247,824
523,7	6175,338
524,1	6106,538
524,6	6028,138
525	5950,138
525,5	5888,652
525,9	5823,31
526,4	5759,795
526,8	5699,424
527,3	5636,11
527,7	5580,167
528,2	5520,967
528,6	5449,252
529,1	5382,681
529,5	5316,424
530	5255,138
530,4	5201,71
530,9	5133,31
531,3	5073,71
531,8	5023,71
532,2	4975,052
532,6	4923,252
533,1	4861,367
533,5	4802,024
534	4753,767
534,4	4692,481
534,9	4642,681
535,3	4578,852
535,8	4526,31
536,2	4478,252
536,7	4430,71
537,1	4376,167
537,6	4336,167
538	4286,31
538,5	4245,738
538,9	4188,11
539,4	4143,624
539,8	4097,767
540,3	4053,081
540,7	4001,881
541,2	3951,481
541,6	3908,081
542,1	3869,31
542,5	3828,681
543	3782,195
543,4	3744,91
543,9	3714,852
544,3	3680,738
544,8	3640,767
545,2	3605,195
545,7	3570,138
546,1	3541,967
546,5	3504,538
547	3468,167
547,4	3435,852
547,9	3403,767
548,3	3372,195
548,8	3334,91
549,2	3295,967
549,7	3258,595
550,1	3225,795
550,6	3193,538
551	3160,138
551,5	3123,71
551,9	3089,052
552,4	3066,11
552,8	3039,395
553,3	3006,481
553,7	2974,081
554,2	2947,281
554,6	2926,31
555,1	2904,338
555,5	2872,281
555,9	2846,567
556,4	2822,767
556,8	2799,995
557,3	2770,281
557,7	2742,738
558,2	2714,795
558,6	2689,424
559,1	2664,967
559,5	2637,967
560	2616,024
560,4	2602,681
560,9	2581,624
561,3	2558,224
561,8	2537,595
562,2	2519,738
562,7	2502,852
563,1	2481,795
563,6	2454,767
564	2433,252
564,4	2417,881
564,9	2398,51
565,3	2380,967
565,8	2359,567
566,2	2336,967
566,7	2324,224
567,1	2307,595
567,6	2285,424
568	2269,738
568,5	2248,967
568,9	2235,824
569,4	2221,138
569,8	2200,652
570,3	2185,195
570,7	2165,652
571,1	2152,138
571,6	2141,852
572	2129,995
572,5	2114,395
572,9	2098,995
573,4	2085,081
573,8	2079,852
574,3	2056,624
574,7	2033,967
575,2	2009,567
575,6	1993,738
576,1	1985,11
576,5	1969,91
576,9	1951,995
577,4	1938,224
577,8	1923,995
578,3	1915,052
578,7	1899,367
579,2	1878,881
579,6	1858,281
580,1	1843,252
580,5	1835,967
581	1824,538
581,4	1812,567
581,9	1802,11
582,3	1787,081
582,7	1782,081
583,2	1772,91
583,6	1755,881
584,1	1748,738
584,5	1733,281
585	1722,452
585,4	1708,252
585,9	1693,224
586,3	1679,024
586,8	1671,338
587,2	1652,481
587,6	1649,024
588,1	1635,567
588,5	1630,338
589	1621,624
589,4	1610,881
589,9	1601,595
590,3	1592,452
590,8	1576,424
591,2	1566,338
591,7	1556,967
592,1	1545,91
592,5	1539,938
593	1524,081
593,4	1519,624
593,9	1506,938
594,3	1499,424
594,8	1485,681
595,2	1479,652
595,7	1470,395
596,1	1463,681
596,6	1453,024
597	1449,567
597,4	1444,767
597,9	1439,338
598,3	1435,024
598,8	1427,452
599,2	1426,795
599,7	1420,11
600,1	1409,738
600,6	1401,938
601	1395,938
601,4	1387,681
601,9	1376,738
602,3	1362,795
602,8	1355,138
603,2	1341,767
603,7	1329,738
604,1	1325,595
604,6	1312,11
605	1303,767
605,4	1296,281
605,9	1285,424
606,3	1282,081
606,8	1280,452
607,2	1264,252
607,7	1254,71
608,1	1250,367
608,6	1245,767
609	1246,881
609,4	1242,595
609,9	1230,995
610,3	1229,395
610,8	1223,567
611,2	1214,795
611,7	1205,767
612,1	1193,395
612,6	1188,995
613	1186,081
613,4	1175,481
613,9	1175,31
614,3	1163,795
614,8	1157,538
615,2	1147,138
615,7	1139,224
616,1	1131,995
616,6	1124,824
617	1112,881
617,4	1109,881
617,9	1108,795
618,3	1107,395
618,8	1100,681
619,2	1094,395
619,7	1092,452
620,1	1088,51
620,5	1084,767
621	1067,824
621,4	1058,224
621,9	1049,195
622,3	1042,795
622,8	1032,767
623,2	1020,738
623,6	1013,51
624,1	1015,71
624,5	1011,252
625	1010,138
625,4	1000,624
625,9	997,167
626,3	992,452
626,8	984,081
627,2	979,567
627,6	967,852
628,1	959,252
628,5	954,681
629	950,052
629,4	943,138
629,9	941,195
630,3	927,881
630,7	927,481
631,2	922,252
631,6	913,852
632,1	905,652
632,5	904,51
633	894,31
633,4	890,138
633,8	881,795
634,3	872,652
634,7	869,681
635,2	861,395
635,6	851,91
636,1	849,681
636,5	840,652
636,9	831,51
637,4	827,481
637,8	816,71
638,3	809,51
638,7	805,567
639,2	794,395
639,6	788,91
640	788,167
640,5	783,995
640,9	776,51
641,4	778,195
641,8	773,281
642,2	771,452
642,7	774,71
643,1	774,51
643,6	765,338
644	769,31
644,5	767,367
644,9	763,681
645,3	761,424
645,8	750,31
646,2	747,224
646,7	746,51
647,1	738,424
647,6	728,795
648	724,624
648,4	717,252
648,9	714,738
649,3	702,967
649,8	696,31
650,2	691,367
650,6	690,167
651,1	680,367
651,5	683,681
652	681,738
652,4	680,11
652,9	675,795
653,3	676,081
653,7	663,967
654,2	664,652
654,6	650,624
655,1	648,567
655,5	646,224
655,9	643,281
656,4	634,31
656,8	634,224
657,3	631,424
657,7	634,652
658,2	632,567
658,6	627,224
659	624,338
659,5	621,452
659,9	623,481
660,4	620,138
660,8	605,538
661,2	595,938
661,7	595,195
662,1	591,31
662,6	587,881
663	583,395
663,4	579,567
663,9	582,281
664,3	575,652
664,8	567,138
665,2	558,624
665,6	555,11
666,1	546,881
666,5	542,481
667	537,51
667,4	534,538
667,9	531,052
668,3	530,767
668,7	521,452
669,2	520,652
669,6	516,967
670,1	516,195
670,5	512,91
670,9	510,624
671,4	506,281
671,8	506,681
672,3	503,367
672,7	502,081
673,1	500,224
673,6	500,624
674	499,31
674,5	496,738
674,9	492,995
675,3	487,11
675,8	480,795
676,2	474,824
676,7	464,967
677,1	457,395
677,5	453,795
678	449,995
678,4	448,71
678,9	445,595
679,3	444,167
679,7	446,281
680,2	435,081
680,6	433,224
681,1	429,567
681,5	426,681
681,9	425,538
682,4	421,91
682,8	417,567
683,3	419,938
683,7	418,338
684,1	418,652
684,6	411,081
685	406,338
685,5	399,567
685,9	396,567
686,3	392,595
686,8	390,024
687,2	390,281
687,7	388,624
688,1	382,91
688,5	381,91
689	379,938
689,4	382,881
689,9	374,681
690,3	367,424
690,7	365,452
691,2	367,138
691,6	364,681
692	361,11
692,5	358,024
692,9	357,967
693,4	355,481
693,8	353,91
694,2	345,852
694,7	341,567
695,1	339,081
695,6	336,767
696	338,538
696,4	339,11
696,9	335,681
697,3	336,424
697,8	335,51
698,2	330,424
698,6	332,881
699,1	328,424
699,5	325,024
699,9	321,567
700,4	318,281
700,8	319,11
701,3	321,224
701,7	312,567
702,1	308,852
702,6	303,11
703	301,195
703,5	298,138
703,9	294,91
704,3	294,71
704,8	290,881
705,2	286,167
705,6	286,11
706,1	285,995
706,5	287,881
707	284,224
707,4	280,938
707,8	280,195
708,3	281,395
708,7	282,31
709,2	282,738
709,6	279,31
710	282,967
710,5	277,081
710,9	278,51
711,3	277,081
711,8	273,424
712,2	268,024
712,7	266,024
713,1	263,252
713,5	265,195
714	259,71
714,4	254,252
714,8	252,938
715,3	250,138
715,7	243,252
716,2	235,167
716,6	233,824
717	232,71
717,5	233,595
717,9	232,252
718,3	228,938
718,8	236,281
719,2	235,081
719,7	233,738
720,1	232,738
720,5	235,252
721	229,567
721,4	235,738
721,8	231,281
722,3	230,91
722,7	227,652
723,2	221,024
723,6	209,91
724	210,11
724,5	201,852
724,9	200,31
725,3	195,224
725,8	196,767
726,2	201,367
726,7	205,967
727,1	204,452
727,5	205,395
728	204,31
728,4	206,31
728,8	202,195
729,3	199,91
729,7	195,481
730,1	195,538
730,6	195,367
731	189,252
731,5	191,024
731,9	188,281
732,3	185,338
732,8	189,652
733,2	187,567
733,6	185,967
734,1	186,652
734,5	182,595
734,9	181,51
735,4	181,538
735,8	171,452
736,3	174,338
736,7	171,538
737,1	169,881
737,6	168,567
738	170,51
738,4	168,367
738,9	174,738
739,3	170,452
739,7	169,281
740,2	167,995
740,6	170,624
741,1	171,052
741,5	168,224
741,9	170,052
742,4	172,938
742,8	172,624
743,2	171,881
743,7	165,081
744,1	160,395
744,5	158,91
745	149,938
745,4	143,51
745,8	143,795
746,3	145,681
746,7	146,024
747,2	146,338
747,6	152,367
748	157,11
748,5	159,367
748,9	154,081
749,3	152,538
749,8	155,51
750,2	156,252
750,6	149,452
751,1	147,681
751,5	145,995
751,9	151,538
752,4	151,338
752,8	146,881
753,3	143,71
753,7	146,91
754,1	144,138
754,6	139,195
755	132,967
755,4	130,681
755,9	135,51
756,3	132,11
756,7	130,31
757,2	131,138
757,6	134,624
758	136,624
758,5	136,595
758,9	129,91
759,3	130,852
759,8	132,481
760,2	130,795
760,6	129,51
761,1	126,51
761,5	121,167
761,9	125,138
762,4	124,081
762,8	120,795
763,3	120,31
763,7	117,71
764,1	123,538
764,6	126,281
765	124,252
765,4	125,31
765,9	127,338
766,3	128,795
766,7	126,252
767,2	118,681
767,6	119,881
768	117,281
768,5	113,938
768,9	111,167
769,3	104,938
769,8	108,624
770,2	111,395
770,6	110,367
771,1	109,824
771,5	109,995
771,9	112,624
772,4	114,881
772,8	114,31
773,2	110,738
773,7	106,367
774,1	106,11
774,5	101,081
775	98,31
775,4	98,938
775,8	95,967
776,3	98,281
776,7	99,91
777,1	95,31
777,6	99,938
778	101,91
778,4	97,31
778,9	97,91
779,3	96,252
779,7	97,452
780,2	103,024
780,6	100,224
781	92,967
781,5	88,91
781,9	88,681
782,3	84,367
782,8	81,995
783,2	77,795
783,6	79,595
784,1	78,995
784,5	84,795
784,9	80,081
785,4	85,224
785,8	88,681
786,2	93,567
786,7	94,824
787,1	93,71
787,5	92,595
788	96,138
788,4	94,852
788,8	90,224
789,3	84,31
789,7	82,424
790,1	81,681
790,6	81,824
791	79,11
791,4	80,767
791,9	76,852
792,3	71,024
792,7	72,595
793,2	74,395
793,6	71,681
794	72,681
794,5	63,452
794,9	70,081
795,3	74,195
795,8	73,538
796,2	76,138
796,6	78,367
797,1	76,938
797,5	79,681
797,9	75,395
798,4	71,767
798,8	69,967
799,2	64,967
799,7	66,224
800,1	64,652
800,5	66,824
801	70,852
801,4	71,395
801,8	68,195
802,2	66,338
802,7	59,424
803,1	60,252
803,5	61,481
804	57,452
804,4	61,338
804,8	63,624
805,3	68,367
805,7	74,567
806,1	76,567
806,6	76,852
807	74,081
807,4	72,624
807,9	66,167
808,3	65,681
808,7	62,281
809,2	65,567
809,6	63,795
810	64,624
810,4	64,881
810,9	69,167
811,3	67,881
811,7	67,081
812,2	64,481
812,6	58,995
813	63,738
813,5	65,224
813,9	64,852
814,3	64,938
814,8	64,938
815,2	59,081
815,6	60,252
816,1	56,138
816,5	55,852
816,9	55,252
817,3	53,138
817,8	58,424
818,2	61,881
818,6	64,138
819,1	66,91
819,5	64,367
819,9	67,281
820,4	67,681
820,8	60,852
821,2	55,995
821,7	55,538
822,1	55,795
822,5	61,824
822,9	58,595
823,4	57,652
823,8	62,224
824,2	64,052
824,7	59,052
825,1	50,824
825,5	42,395
826	39,795
826,4	39,167
826,8	34,31
827,3	35,395
827,7	37,281
828,1	40,595
828,5	38,652
829	38,367
829,4	37,624
829,8	33,738
830,3	30,938
830,7	30,767
831,1	35,481
831,6	36,567
832	36,881
832,4	38,824
832,8	43,024
833,3	43,995
833,7	40,795
834,1	35,995
834,6	35,795
835	36,424
835,4	36,224
835,8	32,767
836,3	31,71
836,7	35,395
837,1	35,024
837,6	37,052
838	34,595
838,4	31,595
838,9	35,395
839,3	34,452
839,7	36,967
840,1	31,881
840,6	31,567
841	34,595
841,4	39,195
841,9	38,024
842,3	40,338
842,7	35,738
843,1	40,938
843,6	44,595
844	44,11
844,4	42,024
844,9	43,481
845,3	42,452
845,7	42,338
846,2	40,11
846,6	32,91
847	34,738
847,4	33,252
847,9	31,767
848,3	32,51
848,7	31,995
849,2	31,452
849,6	30,938
850	28,395
850,4	27,738
850,9	28,595
851,3	28,967
851,7	32,71
852,2	32,938
852,6	36,452
853	38,481
853,4	37,31
853,9	35,91
854,3	33,824
854,7	33,11
855,2	30,338
855,6	27,252
856	23,995
856,4	23,767
856,9	22,51
857,3	23,052
857,7	24,252
858,2	30,538
858,6	29,795
859	28,024
859,4	30,995
859,9	29,31
860,3	27,567
860,7	23,624
861,1	22,138
861,6	23,71
862	26,824
862,4	21,081
862,9	24,424
863,3	25,281
863,7	24,367
864,1	26,881
864,6	22,795
865	25,795
865,4	31,11
865,9	31,567
866,3	26,081
866,7	27,852
867,1	18,252
867,6	21,11
868	18,167
868,4	15,338
868,8	12,881
869,3	16,852
869,7	21,824
870,1	24,595
870,6	23,252
871	-54,69
871,4	-49,576
871,8	-52,519
872,3	-48,662
872,7	-54,005
873,1	-52,605
873,5	-50,233
874	27,681
874,4	23,11
874,8	22,967
875,3	24,481
875,7	25,11
876,1	24,167
876,5	26,081
877	22,567
877,4	20,967
877,8	22,624
878,2	25,338
878,7	24,91
879,1	23,424
879,5	23,595
879,9	25,367
880,4	26,138
880,8	23,652
881,2	16,681
881,7	15,252
882,1	18,538
882,5	11,624
882,9	12,138
883,4	10,395
883,8	15,881
884,2	18,681
884,6	15,824
885,1	12,138
885,5	18,024
885,9	17,652
886,3	22,995
886,8	21,081
887,2	15,052
887,6	17,138
888	19,252
888,5	17,967
888,9	15,024
889,3	7,881
889,8	6,224
890,2	9,167
890,6	7,081
891	5,11
891,5	2,367
891,9	1,71
892,3	4,738
892,7	7,652
893,2	5,338
893,6	8,91
894	14,138
894,4	14,395
894,9	16,824
895,3	17,395
895,7	18,51
896,1	18,567
896,6	17,881
897	13,424
897,4	18,595
897,8	17,852
898,3	16,824
898,7	12,338
899,1	13,538
899,5	12,595
900	8,71
900,4	5,481
900,8	3,224
901,2	-1,09
901,7	-0,176
902,1	4,51
902,5	6,967
902,9	9,452
903,4	8,852
903,8	13,452
904,2	17,51
904,6	18,595
905,1	12,652
905,5	14,024
905,9	14,31
906,3	17,652
906,8	18,51
907,2	17,138
907,6	18,681
908	21,595
908,5	14,424
908,9	14,11
909,3	8,852
909,7	8,824
910,2	11,138
910,6	14,167
911	6,881
911,4	11,795
911,9	13,481
912,3	13,224
912,7	11,538
913,1	12,738
913,6	2,367
914	7,738
914,4	3,967
914,8	4,252
915,3	3,567
915,7	0,281
916,1	-2,319
916,5	3,681
916,9	3,738
917,4	4,595
917,8	8,224
918,2	8,081
918,6	8,481
919,1	9,252
919,5	10,195
919,9	11,652
920,3	10,281
920,8	7,281
921,2	6,481
921,6	8,452
922	7,995
922,5	6,538
922,9	4,795
923,3	5,51
923,7	5,31
924,2	5,91
924,6	6,538
925	7,538
925,4	7,167
925,8	2,167
926,3	1,081
926,7	-2,119
927,1	0,881
927,5	4,167
928	1,11
928,4	-2,748
928,8	2,224
929,2	1,938
929,7	3,967
930,1	3,938
930,5	-2,719
930,9	1,938
931,3	5,252
931,8	5,995
932,2	9,195
932,6	9,052
933	2,595
933,5	3,367
933,9	-0,833
934,3	0,024
934,7	0,995
935,2	1,052
935,6	1,738
936	9,367
936,4	15,624
936,8	20,224
937,3	19,71
937,7	20,852
938,1	21,11
938,5	18,938
939	14,51
939,4	8,452
939,8	5,052
940,2	3,195
940,6	3,681
941,1	5,252
941,5	8,538
941,9	8,567
942,3	10,138
942,8	11,024
943,2	12,681
943,6	7,967
944	4,91
944,4	5,338
944,9	4,738
945,3	2,852
945,7	-1,833
946,1	-2,69
946,6	-0,805
947	-0,805
947,4	0,538
947,8	3,31
948,2	2,881
948,7	9,081
949,1	6,938
949,5	8,338
949,9	11,138
950,3	11,081
950,8	8,424
951,2	4,252
951,6	0,51
952	7,91
952,5	4,51
952,9	5,681
953,3	5,452
953,7	6,567
954,1	15,11
954,6	15,938
955	13,938
955,4	14,452
955,8	13,91
956,2	11,538
956,7	12,31
957,1	6,395
957,5	9,395
957,9	6,167
958,3	8,481
958,8	7,252
959,2	4,795
959,6	7,338
960	8,252
960,5	7,281
960,9	8,852
961,3	3,452
961,7	1,424
962,1	4,51
962,6	3,652
963	4,795
963,4	0,11
963,8	0,081
964,2	5,081
964,7	6,538
965,1	5,71
965,5	5,224
965,9	4,595
966,3	8,881
966,8	6,595
967,2	3,167
967,6	0,767
968	-2,09
968,4	-0,776
968,9	1,167
969,3	6,51
969,7	7,195
970,1	7,424
970,5	6,595
971	12,51
971,4	8,767
971,8	8,367
972,2	6,424
972,6	5,081
973,1	6,024
973,5	8,91
973,9	7,71
974,3	11,995
974,7	15,595
975,2	15,624
975,6	13,138
976	15,681
976,4	13,424
976,8	10,538
977,3	8,681
977,7	2,881
978,1	0,51
978,5	-0,69
978,9	-4,348
979,4	-3,662
979,8	-3,319
980,2	-2,49
980,6	-5,805
981	-1,805
981,5	3,738
981,9	7,71
982,3	6,881
982,7	10,652
983,1	2,938
983,6	8,452
984	2,995
984,4	4,538
984,8	0,995
985,2	1,938
985,6	-2,605
986,1	5,652
986,5	7,11
986,9	1,624
987,3	2,452
987,7	2,424
988,2	3,224
988,6	2,824
989	1,538
989,4	-0,119
989,8	5,367
990,3	4,367
990,7	3,881
991,1	3,338
991,5	7,395
991,9	9,767
992,3	12,767
992,8	11,767
993,2	6,795
993,6	11,452
994	17,481
994,4	14,795
994,9	10,081
995,3	6,138
995,7	3,938
996,1	6,652
996,5	6,967
996,9	-4,119
997,4	0,767
997,8	3,452
998,2	2,31
998,6	-0,89
999	-4,033
999,5	-5,719
999,9	-2,662
1000,3	-6,405
1000,7	-6,89
1001,1	-3,662
1001,5	1,11
1002	6,024
1002,4	3,681
1002,8	4,452
1003,2	4,795
1003,6	2,138
1004	2,367
1004,5	3,195
1004,9	3,395
1005,3	1,31
1005,7	8,624
1006,1	6,567
1006,6	6,595
1007	7,281
1007,4	4,767
1007,8	1,167
1008,2	-2,548
1008,6	-6,405
1009,1	-7,119
1009,5	-6,919
1009,9	-8,49
1010,3	-6,148
1010,7	-7,462
1011,1	-1,976
1011,6	-2,29
1012	2,367
1012,4	4,367
1012,8	2,595
1013,2	8,51
1013,6	13,224
1014,1	12,224
1014,5	10,024
1014,9	6,967
1015,3	7,995
1015,7	9,51
1016,1	3,538
1016,6	2,11
1017	4,795
1017,4	5,424
1017,8	5,395
1018,2	6,852
1018,6	2,881
1019,1	6,538
1019,5	2,624
1019,9	-0,548
1020,3	3,452
1020,7	3,224
1021,1	-1,176
1021,6	2,424
1022	0,281
1022,4	6,881
1022,8	12,195
1023,2	5,395
1023,6	4,195
1024,1	10,967
1024,5	11,538
1024,9	10,395
1025,3	10,71
1025,7	5,624
1026,1	8,195
1026,6	9,71
1027	1,995
1027,4	4,195
1027,8	1,624
1028,2	-2,69
1028,6	2,91
1029	1,881
1029,5	2,995
1029,9	6,452
1030,3	1,224
1030,7	2,252
1031,1	4,195
1031,5	-3,462
1032	-0,348
1032,4	-2,776
1032,8	0,71
1033,2	3,71
1033,6	6,995
1034	5,652
1034,4	9,052
1034,9	11,338
1035,3	10,538
1035,7	6,31
1036,1	5,395
1036,5	1,11
1036,9	4,738
1037,4	10,167
1037,8	3,967
1038,2	4,824
1038,6	6,995
1039	11,11
1039,4	20,281
1039,8	13,452
1040,3	10,138
1040,7	10,424
1041,1	12,71
1041,5	10,481
1041,9	5,795
1042,3	1,681
1042,7	6,738
1043,2	5,852
1043,6	8,395
1044	6,71
1044,4	10,11
1044,8	11,367
1045,2	5,024
1045,6	7,71
1046,1	6,967
1046,5	3,252
1046,9	2,052
1047,3	-1,605
1047,7	-1,29
1048,1	-1,348
1048,5	-3,948
1049	-0,605
1049,4	8,567
1049,8	11,138
1050,2	14,795
1050,6	18,138
1051	19,538
1051,4	14,71
1051,9	11,824
1052,3	11,795
1052,7	9,795
1053,1	3,081
1053,5	1,881
1053,9	3,424
1054,3	4,767
1054,8	8,681
1055,2	4,767
1055,6	6,452
1056	9,767
1056,4	10,281
1056,8	10,852
1057,2	10,195
1057,6	2,595
1058,1	-1,405
1058,5	-4,29
1058,9	-1,148
1059,3	-3,376
1059,7	-4,862
1060,1	-1,205
1060,5	1,538
1061	6,652
1061,4	8,11
1061,8	5,424
1062,2	6,195
1062,6	9,195
1063	10,71
1063,4	13,652
1063,8	11,795
1064,3	9,538
1064,7	10,795
1065,1	8,995
1065,5	7,138
1065,9	3,052
1066,3	2,652
1066,7	-4,519
1067,1	-5,833
1067,6	-5,148
1068	-9,319
1068,4	-7,948
1068,8	-4,262
1069,2	-5,69
1069,6	-0,576
1070	5,538
1070,4	2,738
1070,9	4,367
1071,3	7,624
1071,7	5,795
1072,1	6,652
1072,5	6,281
1072,9	4,938
1073,3	8,824
1073,7	9,824
1074,2	5,281
1074,6	5,824
1075	0,167
1075,4	0,138
1075,8	-0,633
1076,2	-0,519
1076,6	-1,49
1077	-0,433
1077,5	3,224
1077,9	5,11
1078,3	6,452
1078,7	5,652
1079,1	2,11
1079,5	3,91
1079,9	5,795
1080,3	-1,748
1080,7	2,481
1081,2	4,31
1081,6	7,538
1082	5,91
1082,4	9,652
1082,8	9,595
1083,2	11,681
1083,6	10,424
1084	9,367
1084,5	6,081
1084,9	6,738
1085,3	0,567
1085,7	-1,948
1086,1	0,395
1086,5	0,024
1086,9	1,995
1087,3	2,424
1087,7	5,681
1088,2	9,024
1088,6	7,652
1089	4,31
1089,4	3,938
1089,8	3,767
1090,2	-0,062
1090,6	-2,69
1091	0,852
1091,4	4,281
1091,9	5,681
1092,3	6,71
1092,7	4,71
1093,1	7,681
1093,5	9,481
1093,9	6,395
1094,3	8,567
1094,7	6,052
1095,1	9,767
1095,5	6,424
1096	5,338
1096,4	4,967
1096,8	4,367
1097,2	0,052
1097,6	8,795
1098	4,138
1098,4	10,652
1098,8	14,052
1099,2	14,995
1099,6	13,538
1100,1	12,795
1100,5	6,938
1100,9	6,738
1101,3	3,224
1101,7	1,681
1102,1	0,824
1102,5	4,824
1102,9	5,967
1103,3	12,281
1103,7	15,138
1104,2	14,938
1104,6	13,281
1105	9,195
1105,4	8,224
1105,8	7,452
1106,2	0,795
1106,6	-1,89
1107	-2,49
1107,4	-0,7
1107,8	3,087
1108,3	-0,033
