Data from Subt2_114.txt Node
Date: Sat Aug 26 18:21:33 MSK 2023
User: vat
Spectrometer: MAYP114033
Trigger mode: 0
Integration Time (sec): 1,000000E0
Scans to average: 5
Electric dark correction enabled: true
Nonlinearity correction enabled: false
Boxcar width: 3
XAxis mode: Wavelengths
Number of Pixels in Spectrum: 2068
>>>>>Begin Spectral Data<<<<<
199,4	-0,467
199,9	-0,027
200,4	0,967
200,8	-0,61
201,3	-4,038
201,8	-0,61
202,2	-2,838
202,7	0,848
203,2	0,762
203,6	0,333
204,1	-0,152
204,6	2,476
205	-1,552
205,5	3,648
206	0,048
206,4	-0,924
206,9	-0,21
207,4	2,619
207,8	1,305
208,3	1,105
208,8	0,448
209,2	2,876
209,7	4,219
210,2	4,876
210,6	3,933
211,1	11,162
211,5	8,248
212	3,533
212,5	4,19
212,9	0,648
213,4	-2,01
213,9	-2,781
214,3	-7,724
214,8	-5,581
215,3	-5,124
215,7	-7,324
216,2	-2,067
216,7	0,105
217,1	-0,695
217,6	-0,581
218,1	0,79
218,5	0,105
219	-4,61
219,5	-4,095
219,9	-9,181
220,4	-0,524
220,9	-0,838
221,3	1,733
221,8	4,248
222,3	12,076
222,7	10,162
223,2	11,962
223,6	6,362
224,1	6,162
224,6	6,533
225	5,219
225,5	-0,267
226	-1,267
226,4	0,705
226,9	0,505
227,4	-0,238
227,8	-8,01
228,3	-7,781
228,8	-6,095
229,2	-4,667
229,7	-5,895
230,2	-6,724
230,6	-1,867
231,1	5,39
231,5	10,076
232	9,419
232,5	6,905
232,9	9,762
233,4	9,962
233,9	4,333
234,3	2,819
234,8	2,048
235,3	1,219
235,7	5,59
236,2	2,476
236,7	2,648
237,1	6,562
237,6	2,733
238,1	0,419
238,5	-0,952
239	-0,495
239,4	1,905
239,9	-0,267
240,4	-1,867
240,8	3,562
241,3	2,048
241,8	4,79
242,2	3,59
242,7	2,048
243,2	2,048
243,6	-0,124
244,1	1,076
244,6	1,133
245	3,219
245,5	3,676
245,9	4,019
246,4	8,162
246,9	14,19
247,3	9,533
247,8	12,962
248,3	8,448
248,7	5,962
249,2	6,276
249,7	3,99
250,1	2,219
250,6	4,248
251	3,419
251,5	5,905
252	6,905
252,4	10,333
252,9	8,705
253,4	2,676
253,8	-0,781
254,3	-4,038
254,8	-4,867
255,2	-7,838
255,7	-11,924
256,1	-9,724
256,6	-7,067
257,1	-2,267
257,5	-4,552
258	-8,981
258,5	-8,524
258,9	-8,81
259,4	-11,21
259,9	-10,952
260,3	-15,067
260,8	-14,981
261,2	-8,924
261,7	-9,61
262,2	-13,095
262,6	-13,981
263,1	-7,467
263,6	-5,638
264	-0,552
264,5	1,533
264,9	3,019
265,4	8,848
265,9	12,105
266,3	10,99
266,8	13,733
267,3	9,762
267,7	6,276
268,2	9,333
268,7	8,219
269,1	3,762
269,6	-0,295
270	4,819
270,5	7,676
271	9,333
271,4	6,048
271,9	1,79
272,4	8,048
272,8	6,248
273,3	-2,067
273,7	-0,724
274,2	-0,21
274,7	0,705
275,1	5,933
275,6	4,505
276,1	5,59
276,5	12,705
277	14,19
277,4	16,219
277,9	17,362
278,4	17,105
278,8	16,99
279,3	14,905
279,8	10,676
280,2	8,705
280,7	3,562
281,1	0,533
281,6	-1,124
282,1	0,248
282,5	1,762
283	-0,781
283,4	-4,267
283,9	-1,895
284,4	3,476
284,8	3,476
285,3	0,019
285,8	1,248
286,2	-0,981
286,7	2,562
287,1	-2,781
287,6	-7,752
288,1	-7,81
288,5	-6,067
289	-9,61
289,5	-6,152
289,9	-8,895
290,4	-2,552
290,8	0,676
291,3	1,019
291,8	2,876
292,2	7,99
292,7	11,076
293,1	9,848
293,6	10,448
294,1	8,99
294,5	8,648
295	8,905
295,5	5,962
295,9	2,048
296,4	4,962
296,8	1,733
297,3	2,533
297,8	-4,152
298,2	-7,21
298,7	-3,152
299,1	0,248
299,6	-2,695
300,1	2,019
300,5	0,819
301	7,876
301,5	13,333
301,9	8,133
302,4	1,362
302,8	3,705
303,3	-1,781
303,8	-5,724
304,2	-4,41
304,7	-9,352
305,1	-12,238
305,6	-8,924
306,1	-4,295
306,5	-2,667
307	4,362
307,4	6,99
307,9	8,505
308,4	12,219
308,8	9,59
309,3	2,962
309,8	0,962
310,2	-2,295
310,7	-6,41
311,1	-6,467
311,6	-3,752
312,1	0,133
312,5	2,933
313	7,248
313,4	7,619
313,9	8,362
314,4	4,219
314,8	-0,581
315,3	-1,21
315,7	-6,124
316,2	-10,324
316,7	-10,667
317,1	-6,61
317,6	-3,61
318	3,876
318,5	4,562
319	10,59
319,4	13,705
319,9	18,248
320,3	14,305
320,8	15,219
321,3	14,105
321,7	13,562
322,2	12,076
322,6	15,105
323,1	9,19
323,6	11,505
324	10,076
324,5	2,848
324,9	5,39
325,4	4,59
325,9	5,676
326,3	7,648
326,8	4,562
327,2	0,39
327,7	1,733
328,2	-2,667
328,6	0,99
329,1	-9,038
329,5	-7,838
330	-9,981
330,5	-7,381
330,9	-3,038
331,4	-3,181
331,8	-9,21
332,3	-2,01
332,8	-3,124
333,2	1,533
333,7	6,276
334,1	1,876
334,6	1,362
335,1	-0,267
335,5	1,505
336	-2,981
336,4	-3,467
336,9	-0,038
337,4	6,39
337,8	7,962
338,3	13,99
338,7	10,448
339,2	13,848
339,7	15,79
340,1	9,876
340,6	8,733
341	6,905
341,5	4,562
342	0,762
342,4	-1,295
342,9	-6,667
343,3	-8,01
343,8	-10,552
344,2	-7,581
344,7	-0,867
345,2	2,476
345,6	6,705
346,1	9,19
346,5	5,876
347	5,419
347,5	0,133
347,9	0,248
348,4	-0,895
348,8	-1,895
349,3	-1,467
349,8	7,19
350,2	14,219
350,7	16,819
351,1	13,19
351,6	18,733
352	22,876
352,5	28,762
353	31,362
353,4	32,133
353,9	40,105
354,3	44,476
354,8	48,876
355,3	56,762
355,7	66,676
356,2	79,59
356,6	94,933
357,1	116,219
357,5	140,19
358	163,962
358,5	191,362
358,9	220,962
359,4	251,99
359,8	289,533
360,3	330,105
360,8	369,562
361,2	421,99
361,7	481,076
362,1	545,39
362,6	618,362
363	687,79
363,5	768,562
364	862,133
364,4	944,676
364,9	1026,276
365,3	1110,248
365,8	1183,19
366,3	1260,162
366,7	1321,533
367,2	1376,076
367,6	1424,848
368,1	1466,305
368,5	1487,248
369	1504,99
369,5	1511,305
369,9	1506,105
370,4	1481,848
370,8	1450,305
371,3	1401,705
371,7	1353,248
372,2	1291,99
372,7	1224,762
373,1	1157,448
373,6	1085,848
374	1020,105
374,5	956,105
374,9	889,562
375,4	827,248
375,9	765,248
376,3	701,933
376,8	649,79
377,2	595,133
377,7	541,819
378,2	493,99
378,6	448,819
379,1	412,905
379,5	386,048
380	357,59
380,4	330,448
380,9	304,876
381,4	281,362
381,8	264,505
382,3	248,505
382,7	228,705
383,2	211,876
383,6	194,962
384,1	183,876
384,6	175,133
385	161,333
385,5	145,848
385,9	132,962
386,4	122,333
386,8	120,276
387,3	110,448
387,7	101,562
388,2	96,448
388,7	88,476
389,1	83,419
389,6	79,876
390	72,676
390,5	72,105
390,9	70,19
391,4	66,562
391,9	63,962
392,3	62,79
392,8	58,39
393,2	51,419
393,7	45,476
394,1	40,162
394,6	39,705
395,1	39,819
395,5	35,448
396	37,333
396,4	37,819
396,9	39,048
397,3	41,762
397,8	40,99
398,2	41,533
398,7	42,933
399,2	44,533
399,6	44,705
400,1	45,848
400,5	40,905
401	41,219
401,4	37,248
401,9	38,248
402,4	37,933
402,8	38,076
403,3	43,819
403,7	45,762
404,2	49,962
404,6	53,762
405,1	53,505
405,5	49,333
406	50,562
406,5	46,333
406,9	54,99
407,4	53,59
407,8	56,248
408,3	60,648
408,7	60,848
409,2	65,048
409,6	75,619
410,1	74,276
410,6	85,962
411	91,733
411,5	96,562
411,9	109,962
412,4	116,048
412,8	119,162
413,3	132,733
413,7	134,962
414,2	142,933
414,7	154,933
415,1	167,105
415,6	181,848
416	188,905
416,5	196,79
416,9	210,248
417,4	224,905
417,8	242,619
418,3	259,219
418,8	273,99
419,2	292,676
419,7	309,048
420,1	327,476
420,6	346,705
421	360,762
421,5	377,533
421,9	399,448
422,4	427,876
422,8	448,305
423,3	470,448
423,8	487,933
424,2	513,476
424,7	545,248
425,1	573,39
425,6	604,848
426	634,533
426,5	669,562
426,9	714,505
427,4	749,676
427,9	776,876
428,3	818,162
428,8	850,819
429,2	897,99
429,7	943,876
430,1	991,333
430,6	1045,39
431	1106,733
431,5	1162,819
431,9	1221,248
432,4	1287,905
432,8	1352,219
433,3	1421,705
433,8	1494,248
434,2	1568,219
434,7	1646,219
435,1	1732,676
435,6	1818,133
436	1908,562
436,5	1999,162
436,9	2095,019
437,4	2195,562
437,8	2296,076
438,3	2406,39
438,8	2510,105
439,2	2622,848
439,7	2751,39
440,1	2881,676
440,6	3014,333
441	3148,79
441,5	3288,533
441,9	3441,676
442,4	3585,733
442,8	3732,648
443,3	3892,362
443,7	4055,39
444,2	4231,562
444,7	4407,39
445,1	4583,819
445,6	4778,848
446	4975,019
446,5	5160,876
446,9	5348,076
447,4	5546,076
447,8	5750,276
448,3	5966,59
448,7	6187,562
449,2	6409,705
449,6	6634,133
450,1	6865,19
450,6	7108,505
451	7346,648
451,5	7596,648
451,9	7847,162
452,4	8098,819
452,8	8358,39
453,3	8633,562
453,7	8898,276
454,2	9172,305
454,6	9438,133
455,1	9710,419
455,5	9982,705
456	10273,99
456,4	10554,276
456,9	10845,533
457,3	11143,419
457,8	11428,59
458,3	11737,219
458,7	12043,419
459,2	12342,933
459,6	12662,076
460,1	12970,705
460,5	13260,848
461	13589,162
461,4	13891,533
461,9	14207,848
462,3	14525,562
462,8	14831,562
463,2	15136,676
463,7	15473,019
464,1	15791,19
464,6	16111,105
465	16426,362
465,5	16744,305
466	17065,733
466,4	17380,619
466,9	17680,562
467,3	17983,362
467,8	18291,39
468,2	18582,99
468,7	18873,076
469,1	19166,619
469,6	19461,59
470	19751,333
470,5	20038,362
470,9	20310,133
471,4	20600,39
471,8	20877,162
472,3	21148,933
472,7	21413,733
473,2	21679,648
473,6	21931,505
474,1	22188,219
474,5	22427,333
475	22680,333
475,4	22913,162
475,9	23152,305
476,4	23386,362
476,8	23612,19
477,3	23832,39
477,7	24050,133
478,2	24246,762
478,6	24437,933
479,1	24617,619
479,5	24786,59
480	24951,476
480,4	25112,648
480,9	25260,305
481,3	25406,705
481,8	25556,162
482,2	25677,448
482,7	25788,048
483,1	25905,219
483,6	26006,962
484	26110,476
484,5	26198,448
484,9	26258,648
485,4	26344,305
485,8	26424,676
486,3	26500,676
486,7	26552,133
487,2	26596,533
487,6	26633,19
488,1	26684,362
488,5	26698,533
489	26721,505
489,4	26720,848
489,9	26713,533
490,4	26712,39
490,8	26693,448
491,3	26671,676
491,7	26651,505
492,2	26610,619
492,6	26562,648
493,1	26512,848
493,5	26437,476
494	26357,962
494,4	26280,276
494,9	26208,133
495,3	26127,219
495,8	26049,733
496,2	25962,705
496,7	25870,133
497,1	25801,676
497,6	25699,105
498	25593,762
498,5	25488,733
498,9	25368,819
499,4	25261,819
499,8	25160,762
500,3	25031,333
500,7	24907,476
501,2	24760,219
501,6	24624,333
502,1	24497,705
502,5	24352,105
503	24210,076
503,4	24078,419
503,9	23926,619
504,3	23806,876
504,8	23647,676
505,2	23480,019
505,7	23322,133
506,1	23168,705
506,6	22977,933
507	22820,505
507,5	22645,505
507,9	22489,248
508,4	22315,505
508,8	22143,248
509,3	21949,762
509,7	21785,962
510,2	21607,99
510,6	21421,933
511,1	21235,476
511,5	21060,876
512	20878,248
512,4	20691,305
512,9	20500,676
513,3	20307,99
513,8	20119,962
514,2	19920,505
514,7	19718,59
515,1	19528,905
515,6	19341,419
516	19146,076
516,5	18953,362
516,9	18763,248
517,4	18581,933
517,8	18401,333
518,3	18214,448
518,7	18026,105
519,2	17845,019
519,6	17656,048
520,1	17469,962
520,5	17275,476
521	17072,248
521,4	16880,076
521,9	16699,848
522,3	16523,276
522,8	16339,733
523,2	16162,619
523,7	15984,79
524,1	15819,933
524,6	15645,733
525	15471,362
525,5	15299,848
525,9	15136,019
526,4	14960,79
526,8	14795,419
527,3	14634,39
527,7	14473,448
528,2	14305,648
528,6	14138,133
529,1	13973,99
529,5	13826,305
530	13669,162
530,4	13514,048
530,9	13351,476
531,3	13196,533
531,8	13048,276
532,2	12904,933
532,6	12744,39
533,1	12598,733
533,5	12453,333
534	12315,676
534,4	12181,105
534,9	12036,362
535,3	11894,219
535,8	11767,048
536,2	11631,133
536,7	11495,733
537,1	11366,362
537,6	11225,533
538	11100,676
538,5	10984,162
538,9	10846,333
539,4	10734,533
539,8	10611,105
540,3	10497,905
540,7	10386,419
541,2	10268,19
541,6	10150,876
542,1	10038,19
542,5	9918,705
543	9808,562
543,4	9693,305
543,9	9588,762
544,3	9490,305
544,8	9375,219
545,2	9275,762
545,7	9177,819
546,1	9082,048
546,5	8980,848
547	8888,19
547,4	8787,019
547,9	8691,39
548,3	8603,276
548,8	8509,305
549,2	8413,19
549,7	8324,848
550,1	8231,733
550,6	8146,162
551	8065,133
551,5	7980,705
551,9	7890,79
552,4	7813,076
552,8	7736,819
553,3	7649,876
553,7	7567,99
554,2	7491,762
554,6	7416,19
555,1	7346,79
555,5	7272,848
555,9	7199,248
556,4	7137,105
556,8	7071,019
557,3	7005,905
557,7	6934,333
558,2	6870,162
558,6	6803,533
559,1	6733,848
559,5	6665,705
560	6600,248
560,4	6531,305
560,9	6464,819
561,3	6403,048
561,8	6336,705
562,2	6282,105
562,7	6226,419
563,1	6170,733
563,6	6114,276
564	6062,619
564,4	6006,19
564,9	5955,533
565,3	5895,562
565,8	5837,619
566,2	5782,648
566,7	5729,333
567,1	5674,505
567,6	5615,162
568	5564,648
568,5	5515,019
568,9	5464,162
569,4	5410,076
569,8	5363,019
570,3	5312,933
570,7	5269,19
571,1	5216,619
571,6	5177,219
572	5143,733
572,5	5101,476
572,9	5055,448
573,4	5010,99
573,8	4971,619
574,3	4938,505
574,7	4886,133
575,2	4836,733
575,6	4794,048
576,1	4754,476
576,5	4716,162
576,9	4666,762
577,4	4615,676
577,8	4577,19
578,3	4534,162
578,7	4489,99
579,2	4451,733
579,6	4411,848
580,1	4373,105
580,5	4343,105
581	4309,905
581,4	4274,619
581,9	4246,848
582,3	4205,133
582,7	4173,048
583,2	4137,762
583,6	4104,848
584,1	4067,19
584,5	4037,105
585	4001,933
585,4	3964,048
585,9	3927,505
586,3	3901,448
586,8	3864,876
587,2	3833,705
587,6	3803,933
588,1	3772,705
588,5	3748,79
589	3716,619
589,4	3685,448
589,9	3661,676
590,3	3634,848
590,8	3599,933
591,2	3578,305
591,7	3556,162
592,1	3537,162
592,5	3516,419
593	3487,762
593,4	3463,533
593,9	3435,448
594,3	3403,276
594,8	3370,105
595,2	3342,419
595,7	3316,419
596,1	3292,505
596,6	3267,448
597	3248,048
597,4	3229,79
597,9	3213,648
598,3	3192,448
598,8	3168,276
599,2	3145,762
599,7	3123,133
600,1	3095,305
600,6	3072,019
601	3048,219
601,4	3030,762
601,9	3013,962
602,3	2991,59
602,8	2977,533
603,2	2962,933
603,7	2941,619
604,1	2925,362
604,6	2901,79
605	2871,876
605,4	2854,99
605,9	2827,248
606,3	2805,076
606,8	2783,362
607,2	2761,39
607,7	2738,248
608,1	2725,19
608,6	2705,705
609	2690,448
609,4	2675,419
609,9	2656,076
610,3	2636,076
610,8	2619,59
611,2	2604,876
611,7	2588,533
612,1	2569,448
612,6	2553,962
613	2539,362
613,4	2519,562
613,9	2504,419
614,3	2479,219
614,8	2462,962
615,2	2441,276
615,7	2416,562
616,1	2398,419
616,6	2381,505
617	2362,619
617,4	2352,333
617,9	2335,676
618,3	2327,562
618,8	2320,362
619,2	2307,105
619,7	2294,276
620,1	2277,019
620,5	2262,733
621	2241,019
621,4	2222,933
621,9	2198,848
622,3	2181,362
622,8	2163,562
623,2	2147,219
623,6	2129,105
624,1	2119,105
624,5	2104,333
625	2097,848
625,4	2083,819
625,9	2070,819
626,3	2058,933
626,8	2042,076
627,2	2023,762
627,6	2000,705
628,1	1979,762
628,5	1967,733
629	1952,505
629,4	1938,533
629,9	1927,133
630,3	1909,762
630,7	1899,848
631,2	1891,219
631,6	1865,39
632,1	1852,39
632,5	1841,59
633	1824,39
633,4	1813,248
633,8	1800,848
634,3	1785,933
634,7	1780,905
635,2	1762,99
635,6	1748,705
636,1	1737,905
636,5	1725,39
636,9	1708,619
637,4	1694,019
637,8	1677,933
638,3	1665,733
638,7	1649,448
639,2	1632,333
639,6	1626,933
640	1621,705
640,5	1608,876
640,9	1600,905
641,4	1594,133
641,8	1586,676
642,2	1581,105
642,7	1570,448
643,1	1561,962
643,6	1551,333
644	1539,533
644,5	1530,333
644,9	1521,248
645,3	1510,705
645,8	1492,733
646,2	1481,276
646,7	1474,933
647,1	1465,333
647,6	1457,476
648	1445,39
648,4	1431,819
648,9	1428,105
649,3	1414,333
649,8	1404,705
650,2	1396,362
650,6	1386,59
651,1	1375,533
651,5	1371,705
652	1358,533
652,4	1353,962
652,9	1346,619
653,3	1335,848
653,7	1326,448
654,2	1319,676
654,6	1306,533
655,1	1302,105
655,5	1295,59
655,9	1284,076
656,4	1277,562
656,8	1265,39
657,3	1254,505
657,7	1250,19
658,2	1236,333
658,6	1223,305
659	1217,305
659,5	1204,19
659,9	1198,562
660,4	1192,048
660,8	1180,876
661,2	1175,362
661,7	1169,733
662,1	1156,476
662,6	1146,59
663	1140,19
663,4	1129,648
663,9	1122,676
664,3	1112,105
664,8	1095,962
665,2	1087,619
665,6	1079,99
666,1	1067,59
666,5	1063,476
667	1053,019
667,4	1047,762
667,9	1040,819
668,3	1033,276
668,7	1029,505
669,2	1025,733
669,6	1019,905
670,1	1016,248
670,5	1001,762
670,9	1000,99
671,4	991,619
671,8	988,105
672,3	983,448
672,7	977,448
673,1	965,162
673,6	964,105
674	955,162
674,5	947,79
674,9	931,448
675,3	921,048
675,8	912,533
676,2	906,219
676,7	896,133
677,1	890,648
677,5	885,019
678	885,933
678,4	881,619
678,9	874,105
679,3	868,276
679,7	864,819
680,2	853,99
680,6	846,505
681,1	836,933
681,5	830,848
681,9	822,733
682,4	817,676
682,8	813,076
683,3	811,019
683,7	811,505
684,1	804,762
684,6	794,333
685	787,476
685,5	782,219
685,9	768,19
686,3	757,876
686,8	749,762
687,2	746,676
687,7	740,476
688,1	733,705
688,5	730,933
689	734,705
689,4	731,248
689,9	722,848
690,3	714,933
690,7	715,505
691,2	713,676
691,6	704,19
692	698,248
692,5	697,39
692,9	697,19
693,4	691,819
693,8	683,733
694,2	672,019
694,7	666,676
695,1	659,505
695,6	652,219
696	645,133
696,4	642,648
696,9	635,219
697,3	632,648
697,8	632,79
698,2	625,962
698,6	622,048
699,1	620,19
699,5	617,39
699,9	615,619
700,4	612,619
700,8	604,962
701,3	602,848
701,7	594,133
702,1	584,848
702,6	579,705
703	575,962
703,5	572,476
703,9	568,648
704,3	567,79
704,8	564,619
705,2	561,676
705,6	556,676
706,1	549,333
706,5	546,876
707	544,019
707,4	537,705
707,8	535,048
708,3	534,533
708,7	528,819
709,2	526,305
709,6	516,933
710	515,048
710,5	509,933
710,9	509,276
711,3	504,79
711,8	505,819
712,2	502,276
712,7	500,048
713,1	498,79
713,5	498,676
714	496,419
714,4	487,162
714,8	478,562
715,3	475,962
715,7	476,648
716,2	465,619
716,6	461,505
717	454,99
717,5	453,362
717,9	455,219
718,3	449,848
718,8	444,848
719,2	443,648
719,7	438,933
720,1	437,962
720,5	436,962
721	429,962
721,4	431,019
721,8	432,905
722,3	431,305
722,7	430,305
723,2	421,048
723,6	412,133
724	408,133
724,5	401,133
724,9	387,59
725,3	383,562
725,8	377,362
726,2	376,99
726,7	377,705
727,1	374,276
727,5	369,933
728	372,19
728,4	366,333
728,8	361,876
729,3	352,048
729,7	350,19
730,1	350,619
730,6	353,505
731	350,476
731,5	348,762
731,9	346,276
732,3	353,848
732,8	353,962
733,2	351,819
733,6	342,39
734,1	343,762
734,5	341,505
734,9	343,79
735,4	343,619
735,8	332,676
736,3	328,276
736,7	331,219
737,1	327,505
737,6	325,619
738	321,105
738,4	311,076
738,9	316,99
739,3	315,133
739,7	316,476
740,2	311,762
740,6	316,19
741,1	319,076
741,5	315,619
741,9	316,448
742,4	312,705
742,8	306,19
743,2	305,619
743,7	294,905
744,1	286,219
744,5	287,476
745	282,448
745,4	281,676
745,8	281,419
746,3	279,79
746,7	280,219
747,2	279,505
747,6	284,962
748	284,048
748,5	285,819
748,9	279,876
749,3	278,876
749,8	278,819
750,2	276,819
750,6	268,333
751,1	265,333
751,5	262,248
751,9	266,362
752,4	265,419
752,8	262,99
753,3	263,048
753,7	262,79
754,1	257,248
754,6	252,99
755	246,39
755,4	237,019
755,9	233,219
756,3	229,648
756,7	225,362
757,2	230,076
757,6	228,79
758	229,362
758,5	233,476
758,9	234,933
759,3	235,362
759,8	236,876
760,2	230,476
760,6	227,819
761,1	222,076
761,5	220,933
761,9	219,962
762,4	214,59
762,8	214,933
763,3	212,533
763,7	214,533
764,1	218,648
764,6	215,619
765	216,219
765,4	217,305
765,9	216,39
766,3	220,99
766,7	214,076
767,2	208,876
767,6	213,076
768	209,19
768,5	204,048
768,9	202,305
769,3	199,533
769,8	201,676
770,2	203,59
770,6	198,79
771,1	199,905
771,5	203,533
771,9	204,562
772,4	205,419
772,8	203,219
773,2	203,419
773,7	202,076
774,1	200,848
774,5	195,533
775	189,99
775,4	188,333
775,8	188,476
776,3	186,362
776,7	183,905
777,1	181,876
777,6	185,533
778	190,105
778,4	188,733
778,9	190,076
779,3	183,762
779,7	183,705
780,2	180,362
780,6	177,333
781	170,162
781,5	164,99
781,9	162,705
782,3	165,362
782,8	166,905
783,2	165,505
783,6	165,448
784,1	167,019
784,5	167,505
784,9	166,105
785,4	166,848
785,8	164,305
786,2	165,505
786,7	161,905
787,1	159,276
787,5	155,705
788	152,276
788,4	148,019
788,8	144,876
789,3	141,076
789,7	143,219
790,1	138,705
790,6	137,248
791	134,962
791,4	138,619
791,9	132,59
792,3	129,505
792,7	129,99
793,2	131,105
793,6	135,076
794	134,162
794,5	130,476
794,9	136,99
795,3	137,476
795,8	132,848
796,2	132,19
796,6	131,419
797,1	133,848
797,5	129,219
797,9	123,676
798,4	126,733
798,8	126,819
799,2	127,762
799,7	127,876
800,1	125,305
800,5	126,79
801	132,248
801,4	127,133
801,8	123,39
802,2	123,362
802,7	117,048
803,1	118,876
803,5	120,819
804	114,219
804,4	115,562
804,8	120,876
805,3	121,819
805,7	123,305
806,1	120,39
806,6	118,419
807	117,733
807,4	114,248
807,9	106,848
808,3	97,048
808,7	93,362
809,2	92,533
809,6	95,648
810	93,248
810,4	93,99
810,9	96,876
811,3	101,79
811,7	101,39
812,2	106,19
812,6	103,533
813	111,362
813,5	112,305
813,9	110,762
814,3	106,905
814,8	107,59
815,2	101,533
815,6	94,305
816,1	93,419
816,5	92,305
816,9	93,048
817,3	96,19
817,8	103,019
818,2	101,562
818,6	103,905
819,1	100,333
819,5	97,59
819,9	99,933
820,4	95,933
820,8	87,733
821,2	85,59
821,7	84,962
822,1	85,533
822,5	88,362
822,9	80,905
823,4	82,362
823,8	84,39
824,2	89,562
824,7	86,276
825,1	80,305
825,5	74,562
826	71,59
826,4	68,848
826,8	64,19
827,3	61,562
827,7	62,219
828,1	65,048
828,5	67,619
829	68,048
829,4	68,619
829,8	68,362
830,3	65,762
830,7	64,876
831,1	63,79
831,6	60,448
832	66,076
832,4	64,933
832,8	67,076
833,3	69,362
833,7	64,162
834,1	58,99
834,6	59,933
835	57,39
835,4	61,305
835,8	55,562
836,3	49,505
836,7	52,505
837,1	54,362
837,6	56,99
838	53,448
838,4	48,876
838,9	52,59
839,3	51,048
839,7	52,105
840,1	50,419
840,6	50,962
841	53,905
841,4	56,448
841,9	57,162
842,3	60,448
842,7	62,905
843,1	65,048
843,6	61,733
844	58,533
844,4	61,248
844,9	62,19
845,3	63,505
845,7	62,048
846,2	58,333
846,6	57,59
847	66,048
847,4	60,162
847,9	56,962
848,3	53,848
848,7	55,648
849,2	61,733
849,6	57,648
850	53,362
850,4	53,448
850,9	56,648
851,3	58,79
851,7	57,876
852,2	51,59
852,6	57,562
853	56,362
853,4	54,076
853,9	47,333
854,3	48,219
854,7	49,248
855,2	52,048
855,6	48,676
856	45,448
856,4	41,476
856,9	43,819
857,3	43,705
857,7	43,276
858,2	45,819
858,6	48,048
859	49,533
859,4	56,276
859,9	57,762
860,3	52,048
860,7	49,276
861,1	50,819
861,6	47,305
862	44,076
862,4	41,162
862,9	39,019
863,3	43,905
863,7	43,905
864,1	41,019
864,6	38,133
865	40,59
865,4	41,19
865,9	43,362
866,3	37,19
866,7	32,848
867,1	29,762
867,6	32,476
868	31,105
868,4	27,219
868,8	25,419
869,3	26,39
869,7	33,733
870,1	31,733
870,6	29,819
871	13,105
871,4	20,133
871,8	17,848
872,3	21,619
872,7	17,562
873,1	16,933
873,5	18,133
874	31,59
874,4	28,448
874,8	27,019
875,3	27,619
875,7	25,39
876,1	26,905
876,5	27,619
877	28,019
877,4	21,619
877,8	24,619
878,2	28,133
878,7	30,276
879,1	30,933
879,5	33,476
879,9	34,133
880,4	36,619
880,8	40,848
881,2	33,59
881,7	32,248
882,1	32,076
882,5	27,276
882,9	27,848
883,4	25,59
883,8	21,733
884,2	24,105
884,6	22,905
885,1	23,448
885,5	25,133
885,9	27,333
886,3	30,876
886,8	29,533
887,2	26,648
887,6	29,933
888	27,476
888,5	30,533
888,9	26,39
889,3	25,248
889,8	23,448
890,2	22,219
890,6	18,448
891	21,305
891,5	16,905
891,9	16,276
892,3	19,105
892,7	19,962
893,2	21,762
893,6	19,505
894	17,762
894,4	15,333
894,9	16,219
895,3	17,905
895,7	18,019
896,1	19,362
896,6	22,676
897	22,476
897,4	29,248
897,8	31,505
898,3	30,905
898,7	31,419
899,1	29,648
899,5	27,219
900	22,99
900,4	18,676
900,8	14,619
901,2	7,305
901,7	6,162
902,1	6,162
902,5	9,648
902,9	8,733
903,4	10,248
903,8	11,705
904,2	12,419
904,6	14,105
905,1	13,762
905,5	11,819
905,9	17,876
906,3	18,79
906,8	21,705
907,2	25,448
907,6	21,676
908	24,705
908,5	22,619
908,9	17,762
909,3	13,333
909,7	12,476
910,2	11,905
910,6	14,619
911	7,962
911,4	6,848
911,9	9,048
912,3	10,048
912,7	12,619
913,1	14,733
913,6	12,79
914	12,305
914,4	10,762
914,8	11,105
915,3	11,133
915,7	9,219
916,1	8,962
916,5	8,276
916,9	10,619
917,4	14,99
917,8	13,99
918,2	9,448
918,6	3,762
919,1	1,362
919,5	4,962
919,9	5,648
920,3	-0,381
920,8	-0,238
921,2	3,162
921,6	5,248
922	5,476
922,5	5,705
922,9	7,076
923,3	10,076
923,7	10,076
924,2	7,619
924,6	11,962
925	13,59
925,4	9,848
925,8	10,762
926,3	10,876
926,7	8,905
927,1	9,305
927,5	7,048
928	0,962
928,4	-0,124
928,8	1,133
929,2	0,276
929,7	1,762
930,1	6,848
930,5	7,162
930,9	13,562
931,3	15,076
931,8	12,933
932,2	15,19
932,6	16,305
933	8,048
933,5	4,99
933,9	6,305
934,3	7,276
934,7	1,876
935,2	3,619
935,6	0,476
936	4,105
936,4	9,59
936,8	6,076
937,3	4,848
937,7	9,219
938,1	10,248
938,5	8,705
939	10,276
939,4	6,476
939,8	6,305
940,2	6,762
940,6	6,99
941,1	4,505
941,5	9,676
941,9	5,048
942,3	3,276
942,8	4,619
943,2	5,219
943,6	-0,238
944	-1,724
944,4	-5,695
944,9	-5,924
945,3	-5,381
945,7	-11,781
946,1	-17,695
946,6	-13,181
947	-12,152
947,4	-6,038
947,8	1,648
948,2	2,105
948,7	8,876
949,1	13,505
949,5	17,305
949,9	19,705
950,3	15,419
950,8	8,019
951,2	12,733
951,6	5,933
952	9,962
952,5	2,648
952,9	0,19
953,3	0,762
953,7	3,048
954,1	-0,067
954,6	5,562
955	1,848
955,4	1,905
955,8	5,59
956,2	6,333
956,7	14,162
957,1	11,505
957,5	10,705
957,9	13,476
958,3	16,419
958,8	13,733
959,2	16,59
959,6	13,962
960	14,048
960,5	14,99
960,9	16,333
961,3	14,59
961,7	11,133
962,1	7,79
962,6	5,419
963	4,876
963,4	0,676
963,8	-5,695
964,2	-2,181
964,7	-1,752
965,1	0,076
965,5	-1,067
965,9	-3,21
966,3	2,276
966,8	4,019
967,2	3,39
967,6	7,133
968	4,362
968,4	5,705
968,9	12,39
969,3	13,676
969,7	13,705
970,1	15,905
970,5	12,39
971	15,705
971,4	15,276
971,8	13,248
972,2	12,076
972,6	11,933
973,1	6,362
973,5	8,648
973,9	11,876
974,3	13,162
974,7	15,533
975,2	17,276
975,6	13,619
976	20,705
976,4	17,248
976,8	9,562
977,3	4,533
977,7	0,762
978,1	-2,267
978,5	-2,124
978,9	-8,867
979,4	-9,324
979,8	-8,324
980,2	-5,581
980,6	-7,524
981	-4,695
981,5	-0,61
981,9	-1,552
982,3	3,448
982,7	4,162
983,1	1,448
983,6	-0,295
984	-4,438
984,4	-5,752
984,8	-4,381
985,2	-6,01
985,6	-10,381
986,1	-7,41
986,5	-4,781
986,9	-6,552
987,3	0,819
987,7	1,476
988,2	-0,524
988,6	5,048
989	0,59
989,4	1,562
989,8	2,848
990,3	-4,381
990,7	-3,124
991,1	-3,381
991,5	-3,01
991,9	1,733
992,3	3,848
992,8	4,448
993,2	5,076
993,6	8,248
994	9,162
994,4	10,876
994,9	11,305
995,3	8,105
995,7	2,076
996,1	0,219
996,5	-0,552
996,9	-1,21
997,4	0,476
997,8	-4,924
998,2	-7,495
998,6	-6,695
999	-6,352
999,5	-6,381
999,9	-8,552
1000,3	-10,552
1000,7	-3,581
1001,1	-1,41
1001,5	3,619
1002	10,362
1002,4	8,219
1002,8	11,333
1003,2	13,19
1003,6	13,276
1004	15,276
1004,5	11,619
1004,9	8,162
1005,3	5,905
1005,7	3,39
1006,1	-1,324
1006,6	-3,61
1007	-1,667
1007,4	0,562
1007,8	-0,695
1008,2	-0,295
1008,6	5,848
1009,1	4,019
1009,5	7,476
1009,9	5,59
1010,3	8,933
1010,7	7,533
1011,1	6,219
1011,6	5,762
1012	8,905
1012,4	2,762
1012,8	0,819
1013,2	2,733
1013,6	3,533
1014,1	6,419
1014,5	1,248
1014,9	1,962
1015,3	4,048
1015,7	7,105
1016,1	1,59
1016,6	-2,438
1017	-2,467
1017,4	2,876
1017,8	-3,238
1018,2	-2,981
1018,6	-8,124
1019,1	-9,667
1019,5	-6,41
1019,9	-9,581
1020,3	-13,552
1020,7	-11,495
1021,1	-15,981
1021,6	-14,724
1022	-10,981
1022,4	-9,324
1022,8	-6,095
1023,2	-7,838
1023,6	-4,838
1024,1	1,305
1024,5	6,333
1024,9	5,333
1025,3	6,533
1025,7	2,762
1026,1	9,533
1026,6	11,59
1027	8,448
1027,4	7,99
1027,8	6,99
1028,2	3,99
1028,6	11,076
1029	7,733
1029,5	10,819
1029,9	12,076
1030,3	9,276
1030,7	10,333
1031,1	13,99
1031,5	11,19
1032	7,648
1032,4	0,648
1032,8	3,819
1033,2	5,076
1033,6	3,219
1034	2,019
1034,4	-0,038
1034,9	3,933
1035,3	0,305
1035,7	0,533
1036,1	-4,552
1036,5	-6,067
1036,9	-3,638
1037,4	1,19
1037,8	-7,21
1038,2	-0,952
1038,6	-2,41
1039	5,59
1039,4	15,19
1039,8	4,076
1040,3	1,562
1040,7	6,562
1041,1	3,676
1041,5	2,562
1041,9	-4,524
1042,3	-10,838
1042,7	-3,838
1043,2	-3,724
1043,6	-5,495
1044	-3,038
1044,4	-3,724
1044,8	-1,381
1045,2	-5,01
1045,6	-3,638
1046,1	-2,438
1046,5	-0,867
1046,9	-6,695
1047,3	-6,895
1047,7	-3,752
1048,1	-1,61
1048,5	-3,724
1049	-4,095
1049,4	1,733
1049,8	7,362
1050,2	9,59
1050,6	10,333
1051	11,819
1051,4	16,562
1051,9	12,933
1052,3	12,79
1052,7	14,305
1053,1	11,733
1053,5	11,076
1053,9	8,048
1054,3	4,533
1054,8	11,99
1055,2	9,362
1055,6	7,933
1056	11,162
1056,4	5,619
1056,8	7,733
1057,2	5,105
1057,6	-2,61
1058,1	-3,095
1058,5	-7,381
1058,9	-7,01
1059,3	0,219
1059,7	2,676
1060,1	3,99
1060,5	8,305
1061	11,962
1061,4	9,448
1061,8	11,105
1062,2	8,133
1062,6	7,933
1063	8,99
1063,4	6,705
1063,8	5,848
1064,3	6,019
1064,7	-0,01
1065,1	-2,581
1065,5	-6,581
1065,9	-7,21
1066,3	-5,524
1066,7	-10,467
1067,1	-7,981
1067,6	-2,867
1068	-3,295
1068,4	0,619
1068,8	3,305
1069,2	-0,381
1069,6	0,505
1070	6,99
1070,4	4,876
1070,9	-1,038
1071,3	-1,295
1071,7	-4,438
1072,1	-0,61
1072,5	-0,181
1072,9	-4,124
1073,3	-4,638
1073,7	0,848
1074,2	0,676
1074,6	4,819
1075	-1,267
1075,4	-2,181
1075,8	-0,61
1076,2	-0,781
1076,6	1,59
1077	1,276
1077,5	2,562
1077,9	5,362
1078,3	9,305
1078,7	7,162
1079,1	7,705
1079,5	8,362
1079,9	5,962
1080,3	1,162
1080,7	1,19
1081,2	4,39
1081,6	1,676
1082	-1,838
1082,4	3,248
1082,8	6,39
1083,2	8,533
1083,6	11,019
1084	5,419
1084,5	11,219
1084,9	9,305
1085,3	2,019
1085,7	0,648
1086,1	-2,524
1086,5	0,133
1086,9	1,419
1087,3	0,133
1087,7	1,705
1088,2	5,048
1088,6	4,619
1089	4,676
1089,4	1,59
1089,8	-1,467
1090,2	-7,152
1090,6	-2,752
1091	-0,524
1091,4	0,819
1091,9	6,505
1092,3	5,248
1092,7	6,848
1093,1	12,762
1093,5	11,019
1093,9	5,619
1094,3	9,419
1094,7	2,648
1095,1	4,419
1095,5	6,933
1096	2,419
1096,4	-0,952
1096,8	1,648
1097,2	0,933
1097,6	8,762
1098	8,162
1098,4	9,362
1098,8	11,79
1099,2	21,048
1099,6	20,305
1100,1	14,79
1100,5	8,619
1100,9	5,648
1101,3	3,019
1101,7	5,105
1102,1	-1,01
1102,5	0,762
1102,9	2,933
1103,3	7,133
1103,7	11,276
1104,2	8,533
1104,6	6,876
1105	7,276
1105,4	5,476
1105,8	4,419
1106,2	0,962
1106,6	-1,267
1107	0,762
1107,4	0,867
1107,8	0,693
1108,3	-0,117
