Data from Subt2_179.txt Node
Date: Sat Aug 26 18:39:28 MSK 2023
User: vat
Spectrometer: MAYP114033
Trigger mode: 0
Integration Time (sec): 1,000000E0
Scans to average: 5
Electric dark correction enabled: true
Nonlinearity correction enabled: false
Boxcar width: 3
XAxis mode: Wavelengths
Number of Pixels in Spectrum: 2068
>>>>>Begin Spectral Data<<<<<
199,4	0,083
199,9	-0,807
200,4	-1,767
200,8	0,376
201,3	-1,338
201,8	2,433
202,2	-1,567
202,7	3,748
203,2	4,748
203,6	3,605
204,1	1,462
204,6	0,805
205	-2,367
205,5	1,319
206	-1,424
206,4	-4,624
206,9	-1,567
207,4	0,719
207,8	2,548
208,3	4,49
208,8	6,948
209,2	5,69
209,7	9,776
210,2	10,119
210,6	7,748
211,1	7,576
211,5	0,976
212	-5,624
212,5	-5,481
212,9	-9,281
213,4	-9,195
213,9	-6,767
214,3	-7,367
214,8	1,405
215,3	3,605
215,7	4,605
216,2	8,919
216,7	8,633
217,1	5,262
217,6	8,49
218,1	1,976
218,5	2,005
219	-3,367
219,5	-2,024
219,9	-5,995
220,4	2,919
220,9	2,462
221,3	3,462
221,8	8,062
222,3	11,919
222,7	12,719
223,2	14,719
223,6	5,119
224,1	5,262
224,6	8,919
225	2,205
225,5	3,548
226	-2,281
226,4	-1,452
226,9	3,09
227,4	6,005
227,8	3,119
228,3	1,262
228,8	-0,938
229,2	1,605
229,7	0,233
230,2	-0,624
230,6	-2,567
231,1	1,462
231,5	9,862
232	12,005
232,5	9,69
232,9	15,033
233,4	15,548
233,9	11,662
234,3	11,148
234,8	8,148
235,3	5,148
235,7	9,005
236,2	3,062
236,7	4,633
237,1	5,748
237,6	-0,681
238,1	-2,338
238,5	-4,852
239	-5,452
239,4	-0,881
239,9	-6,052
240,4	-4,824
240,8	0,776
241,3	-1,624
241,8	2,405
242,2	-0,852
242,7	-7,795
243,2	-4,224
243,6	-8,252
244,1	-13,395
244,6	-7,681
245	-10,195
245,5	-6,081
245,9	-3,71
246,4	-7,395
246,9	-2,195
247,3	0,948
247,8	2,005
248,3	5,633
248,7	4,09
249,2	10,348
249,7	10,005
250,1	10,633
250,6	7,176
251	6,49
251,5	7,49
252	7,319
252,4	3,29
252,9	3,233
253,4	-2,51
253,8	2,49
254,3	5,462
254,8	1,119
255,2	-1,538
255,7	-1,052
256,1	1,976
256,6	7,233
257,1	7,576
257,5	-0,938
258	-2,167
258,5	-2,995
258,9	-5,995
259,4	-4,652
259,9	-7,824
260,3	-11,595
260,8	-8,795
261,2	-7,995
261,7	-3,824
262,2	-3,424
262,6	-7,567
263,1	-4,252
263,6	-2,852
264	0,519
264,5	3,262
264,9	2,119
265,4	3,29
265,9	-0,367
266,3	-0,252
266,8	1,262
267,3	-1,938
267,7	-5,367
268,2	-3,681
268,7	-2,11
269,1	0,433
269,6	-2,281
270	2,319
270,5	0,033
271	2,548
271,4	0,976
271,9	-3,967
272,4	4,519
272,8	5,29
273,3	-0,367
273,7	5,09
274,2	3,833
274,7	4,748
275,1	6,205
275,6	2,519
276,1	1,89
276,5	1,262
277	-1,595
277,4	1,519
277,9	3,748
278,4	5,948
278,8	5,748
279,3	5,948
279,8	9,062
280,2	11,033
280,7	9,805
281,1	4,776
281,6	5,833
282,1	3,69
282,5	2,348
283	0,548
283,4	-2,595
283,9	0,748
284,4	7,976
284,8	5,49
285,3	4,148
285,8	8,148
286,2	5,062
286,7	4,576
287,1	3,69
287,6	-1,881
288,1	-2,338
288,5	1,148
289	-5,624
289,5	-1,738
289,9	-0,452
290,4	-0,367
290,8	0,405
291,3	1,662
291,8	2,519
292,2	5,119
292,7	9,233
293,1	10,119
293,6	9,462
294,1	8,405
294,5	10,719
295	8,662
295,5	10,519
295,9	4,433
296,4	2,29
296,8	-2,11
297,3	-0,967
297,8	-4,167
298,2	-5,795
298,7	-2,138
299,1	0,548
299,6	0,862
300,1	6,89
300,5	10,09
301	15,319
301,5	21,719
301,9	15,348
302,4	12,319
302,8	13,548
303,3	9,205
303,8	1,29
304,2	-1,824
304,7	-4,367
305,1	-5,91
305,6	-7,624
306,1	1,833
306,5	4,09
307	11,805
307,4	14,776
307,9	10,776
308,4	12,29
308,8	13,29
309,3	3,005
309,8	0,319
310,2	-3,595
310,7	-7,652
311,1	-7,681
311,6	-3,51
312,1	-0,052
312,5	3,119
313	4,29
313,4	4,148
313,9	6,776
314,4	5,319
314,8	3,29
315,3	0,919
315,7	-3,738
316,2	-5,252
316,7	-3,481
317,1	-0,252
317,6	4,09
318	6,462
318,5	9,433
319	9,69
319,4	11,662
319,9	13,633
320,3	6,862
320,8	2,148
321,3	4,09
321,7	0,29
322,2	1,205
322,6	1,576
323,1	-2,052
323,6	0,462
324	3,062
324,5	-3,052
324,9	-0,167
325,4	1,548
325,9	2,49
326,3	2,776
326,8	4,719
327,2	1,776
327,7	6,548
328,2	3,662
328,6	3,405
329,1	-3,481
329,5	0,233
330	0,205
330,5	5,519
330,9	4,119
331,4	5,862
331,8	3,776
332,3	12,29
332,8	10,69
333,2	10,376
333,7	10,519
334,1	10,49
334,6	6,376
335,1	2,919
335,5	1,605
336	-0,024
336,4	-0,138
336,9	5,262
337,4	6,662
337,8	9,033
338,3	14,605
338,7	14,833
339,2	12,148
339,7	14,09
340,1	6,319
340,6	1,833
341	0,462
341,5	-0,738
342	-1,738
342,4	-1,052
342,9	-4,338
343,3	-1,538
343,8	2,319
344,2	4,605
344,7	7,09
345,2	7,576
345,6	8,119
346,1	6,776
346,5	1,462
347	-3,881
347,5	-6,567
347,9	-5,424
348,4	-5,595
348,8	-2,91
349,3	-1,538
349,8	3,29
350,2	12,862
350,7	12,376
351,1	15,348
351,6	22,005
352	29,205
352,5	34,576
353	45,119
353,4	50,519
353,9	68,69
354,3	79,633
354,8	87,633
355,3	102,29
355,7	127,405
356,2	148,005
356,6	173,233
357,1	200,748
357,5	235,376
358	280,576
358,5	326,805
358,9	373,576
359,4	435,29
359,8	501,633
360,3	579,605
360,8	664,748
361,2	760,719
361,7	865,119
362,1	986,348
362,6	1112,205
363	1249,49
363,5	1391,119
364	1551,433
364,4	1709,29
364,9	1873,148
365,3	2033,605
365,8	2187,405
366,3	2336,576
366,7	2469,348
367,2	2587,519
367,6	2681,49
368,1	2762,233
368,5	2816,948
369	2847,348
369,5	2855,29
369,9	2843,948
370,4	2801,233
370,8	2746,776
371,3	2667,633
371,7	2571,262
372,2	2463,062
372,7	2351,519
373,1	2233,119
373,6	2104,433
374	1974,919
374,5	1844,976
374,9	1724,805
375,4	1609,205
375,9	1489,462
376,3	1377,233
376,8	1274,433
377,2	1177,262
377,7	1081,805
378,2	989,062
378,6	903,033
379,1	826,433
379,5	757,548
380	696,119
380,4	637,205
380,9	581,433
381,4	531,49
381,8	493,376
382,3	456,805
382,7	422,148
383,2	390,433
383,6	361,062
384,1	343,519
384,6	325,262
385	300,576
385,5	279,319
385,9	255,862
386,4	235,462
386,8	223,376
387,3	199,976
387,7	183,519
388,2	169,576
388,7	155,319
389,1	146,29
389,6	134,662
390	123,69
390,5	119,805
390,9	113,833
391,4	108,805
391,9	99,005
392,3	95,89
392,8	88,833
393,2	78,748
393,7	74,805
394,1	70,605
394,6	66,062
395,1	67,29
395,5	60,205
396	60,748
396,4	60,319
396,9	59,576
397,3	61,833
397,8	61,376
398,2	60,948
398,7	60,548
399,2	59,033
399,6	57,89
400,1	53,719
400,5	41,233
401	40,69
401,4	31,605
401,9	34,948
402,4	34,348
402,8	33,319
403,3	37,776
403,7	43,148
404,2	42,205
404,6	49,033
405,1	45,89
405,5	44,605
406	43,976
406,5	42,09
406,9	45,262
407,4	47,576
407,8	49,633
408,3	53,033
408,7	57,805
409,2	66,348
409,6	72,633
410,1	76,005
410,6	83,433
411	91,776
411,5	97,148
411,9	101,633
412,4	105,433
412,8	108,348
413,3	114,833
413,7	115,776
414,2	120,09
414,7	131,919
415,1	145,005
415,6	151,662
416	162,148
416,5	172,005
416,9	182,262
417,4	193,205
417,8	205,176
418,3	214,719
418,8	231,148
419,2	242,348
419,7	257,833
420,1	272,262
420,6	285,376
421	292,776
421,5	308,005
421,9	319,719
422,4	335,176
422,8	350,233
423,3	367,319
423,8	378,776
424,2	395,348
424,7	412,748
425,1	428,862
425,6	448,862
426	464,262
426,5	488,462
426,9	517,262
427,4	538,09
427,9	555,519
428,3	585,519
428,8	610,348
429,2	640,833
429,7	662,948
430,1	688,376
430,6	722,405
431	761,919
431,5	796,919
431,9	827,919
432,4	867,605
432,8	914,49
433,3	961,89
433,8	1007,633
434,2	1055,919
434,7	1107,89
435,1	1167,062
435,6	1222,948
436	1277,376
436,5	1336,862
436,9	1399,633
437,4	1462,176
437,8	1528,948
438,3	1594,633
438,8	1660,89
439,2	1731,833
439,7	1804,148
440,1	1881,148
440,6	1965,49
441	2044,833
441,5	2138,548
441,9	2234,805
442,4	2328,062
442,8	2429,205
443,3	2534,805
443,7	2640,29
444,2	2753,348
444,7	2860,748
445,1	2971,148
445,6	3090,033
446	3208,662
446,5	3323,005
446,9	3436,719
447,4	3563,205
447,8	3685,405
448,3	3819,69
448,7	3956,862
449,2	4096,262
449,6	4249,862
450,1	4398,69
450,6	4547,633
451	4706,833
451,5	4864,605
451,9	5029,662
452,4	5191,033
452,8	5342,948
453,3	5517,062
453,7	5681,033
454,2	5861,833
454,6	6041,062
455,1	6212,205
455,5	6390,405
456	6576,519
456,4	6760,348
456,9	6949,69
457,3	7133,976
457,8	7312,062
458,3	7511,948
458,7	7699,576
459,2	7905,062
459,6	8098,519
460,1	8305,433
460,5	8500,405
461	8712,576
461,4	8901,919
461,9	9118,948
462,3	9316,833
462,8	9523,062
463,2	9729,262
463,7	9947,148
464,1	10158,919
464,6	10380,405
465	10581,405
465,5	10790,69
466	11002,09
466,4	11201,376
466,9	11405,662
467,3	11603,29
467,8	11808,605
468,2	12015,176
468,7	12217,662
469,1	12426,519
469,6	12629,919
470	12826,205
470,5	13020,805
470,9	13210,033
471,4	13408,633
471,8	13595,776
472,3	13783,033
472,7	13971,833
473,2	14140,519
473,6	14319,69
474,1	14485,119
474,5	14649,633
475	14824,09
475,4	14986,89
475,9	15139,49
476,4	15309,176
476,8	15464,376
477,3	15623,948
477,7	15768,976
478,2	15910,948
478,6	16032,319
479,1	16168,519
479,5	16298,119
480	16411,376
480,4	16523,433
480,9	16630,176
481,3	16720,519
481,8	16821,176
482,2	16900,062
482,7	16983,348
483,1	17074,719
483,6	17156,176
484	17230,005
484,5	17295,805
484,9	17364,148
485,4	17433,976
485,8	17480,348
486,3	17516,233
486,7	17554,919
487,2	17594,205
487,6	17625,548
488,1	17641,519
488,5	17658,605
489	17678,605
489,4	17695,719
489,9	17693,548
490,4	17687,462
490,8	17696,09
491,3	17698,548
491,7	17677,433
492,2	17657,919
492,6	17629,005
493,1	17588,948
493,5	17541,69
494	17485,576
494,4	17433,405
494,9	17387,605
495,3	17332,033
495,8	17270,519
496,2	17224,462
496,7	17169,062
497,1	17116,948
497,6	17044,605
498	16973,805
498,5	16884,748
498,9	16801,005
499,4	16719,948
499,8	16644,948
500,3	16558,605
500,7	16465,805
501,2	16366,833
501,6	16284,033
502,1	16193,233
502,5	16090,833
503	15990,776
503,4	15887,89
503,9	15793,519
504,3	15696,319
504,8	15593,748
505,2	15490,976
505,7	15379,405
506,1	15268,833
506,6	15149,205
507	15019,605
507,5	14896,748
507,9	14779,748
508,4	14661,005
508,8	14548,748
509,3	14415,433
509,7	14290,633
510,2	14178,148
510,6	14054,376
511,1	13926,605
511,5	13797,89
512	13667,062
512,4	13548,833
512,9	13424,662
513,3	13299,176
513,8	13171,005
514,2	13034,49
514,7	12902,69
515,1	12778,405
515,6	12652,576
516	12525,376
516,5	12393,69
516,9	12278,49
517,4	12166,205
517,8	12047,776
518,3	11924,062
518,7	11803,748
519,2	11678,519
519,6	11553,89
520,1	11426,233
520,5	11284,148
521	11150,233
521,4	11025,319
521,9	10894,548
522,3	10769,319
522,8	10646,748
523,2	10524,119
523,7	10419,89
524,1	10311,605
524,6	10191,005
525	10080,405
525,5	9966,605
525,9	9862,376
526,4	9748,519
526,8	9637,548
527,3	9528,176
527,7	9431,148
528,2	9319,719
528,6	9221,176
529,1	9112,262
529,5	9018,262
530	8915,605
530,4	8827,09
530,9	8723,148
531,3	8631,576
531,8	8534,148
532,2	8446,205
532,6	8349,033
533,1	8255,262
533,5	8155,605
534	8059,462
534,4	7965,776
534,9	7878,033
535,3	7793,205
535,8	7703,805
536,2	7621,29
536,7	7543,433
537,1	7458,433
537,6	7374,719
538	7297,662
538,5	7220,948
538,9	7138,776
539,4	7063,805
539,8	6983,09
540,3	6919,433
540,7	6850,319
541,2	6771,462
541,6	6695,262
542,1	6631,176
542,5	6558,919
543	6489,605
543,4	6417,29
543,9	6349,519
544,3	6299,49
544,8	6233,976
545,2	6169,376
545,7	6120,948
546,1	6062,148
546,5	6006,29
547	5956,748
547,4	5888,49
547,9	5824,919
548,3	5773,49
548,8	5713,119
549,2	5658,233
549,7	5604,89
550,1	5548,205
550,6	5490,319
551	5443,576
551,5	5388,719
551,9	5336,862
552,4	5285,919
552,8	5234,033
553,3	5184,948
553,7	5134,576
554,2	5093,605
554,6	5048,062
555,1	5002,748
555,5	4956,976
555,9	4915,605
556,4	4871,748
556,8	4835,319
557,3	4791,948
557,7	4758,148
558,2	4715,862
558,6	4680,919
559,1	4636,462
559,5	4598,748
560	4562,662
560,4	4521,548
560,9	4481,348
561,3	4444,09
561,8	4407,119
562,2	4376,776
562,7	4339,49
563,1	4305,576
563,6	4269,948
564	4238,062
564,4	4199,233
564,9	4164,005
565,3	4130,89
565,8	4095,433
566,2	4068,805
566,7	4043,49
567,1	4013,29
567,6	3988,405
568	3959,033
568,5	3929,233
568,9	3905,348
569,4	3872,119
569,8	3840,005
570,3	3806,719
570,7	3773,776
571,1	3749,348
571,6	3720,205
572	3693,49
572,5	3667,69
572,9	3639,49
573,4	3611,262
573,8	3592,348
574,3	3563,033
574,7	3538,633
575,2	3517,348
575,6	3483,919
576,1	3462,633
576,5	3444,633
576,9	3411,805
577,4	3389,148
577,8	3365,233
578,3	3335,862
578,7	3317,662
579,2	3296,805
579,6	3268,89
580,1	3244,862
580,5	3223,062
581	3198,205
581,4	3174,919
581,9	3156,519
582,3	3131,09
582,7	3112,033
583,2	3087,062
583,6	3065,69
584,1	3047,633
584,5	3028,176
585	3007,519
585,4	2983,205
585,9	2966,748
586,3	2957,976
586,8	2941,433
587,2	2919,205
587,6	2904,233
588,1	2886,09
588,5	2874,205
589	2852,519
589,4	2831,433
589,9	2809,862
590,3	2796,405
590,8	2774,519
591,2	2755,49
591,7	2737,433
592,1	2721,433
592,5	2706,776
593	2686,433
593,4	2671,462
593,9	2654,576
594,3	2641,119
594,8	2626,748
595,2	2610,519
595,7	2593,005
596,1	2585,49
596,6	2570,49
597	2559,976
597,4	2544,405
597,9	2527,919
598,3	2513,633
598,8	2503,862
599,2	2487,976
599,7	2475,405
600,1	2462,662
600,6	2448,005
601	2432,719
601,4	2424,062
601,9	2406,433
602,3	2386,919
602,8	2370,233
603,2	2352,662
603,7	2336,062
604,1	2328,062
604,6	2310,062
605	2294,576
605,4	2284,433
605,9	2269,09
606,3	2248,348
606,8	2240,29
607,2	2226,862
607,7	2210,148
608,1	2203,376
608,6	2195,205
609	2187,176
609,4	2184,919
609,9	2174,462
610,3	2161,262
610,8	2149,233
611,2	2133,233
611,7	2120,919
612,1	2105,862
612,6	2090,29
613	2077,376
613,4	2064,69
613,9	2056,69
614,3	2044,548
614,8	2032,348
615,2	2016,748
615,7	2009,433
616,1	1991,662
616,6	1977,433
617	1963,748
617,4	1955,405
617,9	1949,633
618,3	1942,319
618,8	1932,462
619,2	1922,176
619,7	1917,205
620,1	1906,205
620,5	1897,862
621	1873,576
621,4	1865,29
621,9	1851,005
622,3	1842,348
622,8	1821,033
623,2	1807,576
623,6	1791,49
624,1	1782,29
624,5	1771,462
625	1760,49
625,4	1753,062
625,9	1745,633
626,3	1737,233
626,8	1723,262
627,2	1719,062
627,6	1699,919
628,1	1680,405
628,5	1668,576
629	1656,548
629,4	1645,376
629,9	1635,205
630,3	1621,433
630,7	1611,033
631,2	1611,262
631,6	1597,548
632,1	1590,176
632,5	1578,976
633	1573,29
633,4	1559,89
633,8	1550,69
634,3	1534,519
634,7	1523,719
635,2	1507,062
635,6	1496,548
636,1	1486,262
636,5	1475,576
636,9	1464,719
637,4	1456,233
637,8	1442,633
638,3	1433,205
638,7	1424,376
639,2	1411,29
639,6	1401,948
640	1393,89
640,5	1386,205
640,9	1381,519
641,4	1373,005
641,8	1368,662
642,2	1362,176
642,7	1358,176
643,1	1351,576
643,6	1342,862
644	1332,719
644,5	1332,005
644,9	1321,433
645,3	1314,348
645,8	1304,033
646,2	1298,719
646,7	1289,948
647,1	1278,805
647,6	1265,805
648	1261,119
648,4	1247,89
648,9	1241,348
649,3	1228,776
649,8	1224,433
650,2	1224,662
650,6	1217,948
651,1	1204,548
651,5	1203,805
652	1196,09
652,4	1191,033
652,9	1181,433
653,3	1170,519
653,7	1162,548
654,2	1153,862
654,6	1136,89
655,1	1131,976
655,5	1128,948
655,9	1121,176
656,4	1114,062
656,8	1106,233
657,3	1101,519
657,7	1099,519
658,2	1093,833
658,6	1081,833
659	1073,005
659,5	1064,805
659,9	1060,462
660,4	1053,262
660,8	1044,319
661,2	1031,833
661,7	1028,576
662,1	1022,976
662,6	1015,719
663	1010,633
663,4	1003,633
663,9	1000,148
664,3	995,176
664,8	985,69
665,2	977,662
665,6	968,805
666,1	959,633
666,5	956,89
667	952,319
667,4	943,433
667,9	940,719
668,3	933,176
668,7	930,29
669,2	926,49
669,6	915,319
670,1	908,319
670,5	899,919
670,9	885,462
671,4	883,719
671,8	875,233
672,3	869,948
672,7	864,548
673,1	851,605
673,6	848,29
674	849,09
674,5	839,719
674,9	831,519
675,3	825,29
675,8	822,662
676,2	822,69
676,7	813,205
677,1	806,262
677,5	798,405
678	798,233
678,4	792,319
678,9	783,576
679,3	776,205
679,7	770,719
680,2	760,633
680,6	759,833
681,1	748,348
681,5	740,605
681,9	733,176
682,4	729,748
682,8	728,976
683,3	731,176
683,7	725,376
684,1	725,376
684,6	719,862
685	717,262
685,5	709,69
685,9	700,576
686,3	689,433
686,8	679,748
687,2	676,605
687,7	667,148
688,1	654,319
688,5	649,948
689	648,948
689,4	645,405
689,9	641,233
690,3	634,319
690,7	635,005
691,2	639,376
691,6	636,405
692	632,748
692,5	630,233
692,9	628,919
693,4	619,49
693,8	612,49
694,2	605,49
694,7	600,033
695,1	590,348
695,6	587,09
696	581,49
696,4	578,862
696,9	575,233
697,3	569,262
697,8	566,948
698,2	566,233
698,6	563,033
699,1	557,148
699,5	557,033
699,9	550,719
700,4	547,69
700,8	544,033
701,3	542,919
701,7	534,833
702,1	532,833
702,6	527,69
703	531,548
703,5	526,348
703,9	519,405
704,3	511,776
704,8	504,49
705,2	502,405
705,6	496,462
706,1	489,519
706,5	492,662
707	491,89
707,4	492,548
707,8	489,776
708,3	484,776
708,7	479,519
709,2	475,805
709,6	467,148
710	465,976
710,5	452,262
710,9	454,462
711,3	451,376
711,8	455,576
712,2	449,69
712,7	447,862
713,1	442,09
713,5	448,433
714	443,176
714,4	437,519
714,8	430,976
715,3	431,09
715,7	428,719
716,2	420,919
716,6	415,805
717	408,748
717,5	408,319
717,9	408,433
718,3	401,148
718,8	397,119
719,2	397,433
719,7	398,433
720,1	399,433
720,5	398,805
721	389,405
721,4	385,776
721,8	384,405
722,3	383,576
722,7	380,348
723,2	372,033
723,6	360,119
724	360,119
724,5	357,29
724,9	351,69
725,3	346,319
725,8	339,148
726,2	337,89
726,7	339,576
727,1	334,29
727,5	333,89
728	329,433
728,4	323,833
728,8	321,862
729,3	320,633
729,7	314,262
730,1	312,69
730,6	310,719
731	307,89
731,5	309,719
731,9	308,033
732,3	310,376
732,8	315,319
733,2	316,29
733,6	312,462
734,1	312,405
734,5	310,89
734,9	308,719
735,4	306,69
735,8	302,119
736,3	302,433
736,7	301,776
737,1	299,976
737,6	296,233
738	291,833
738,4	287,376
738,9	288,262
739,3	284,948
739,7	280,605
740,2	280,062
740,6	281,062
741,1	284,748
741,5	277,605
741,9	276,862
742,4	276,919
742,8	278,605
743,2	277,433
743,7	270,09
744,1	260,89
744,5	259,462
745	254,176
745,4	247,376
745,8	244,662
746,3	242,548
746,7	240,862
747,2	243,033
747,6	248,033
748	247,119
748,5	247,833
748,9	243,062
749,3	241,776
749,8	243,548
750,2	240,033
750,6	233,519
751,1	232,433
751,5	229,948
751,9	232,776
752,4	232,833
752,8	231,69
753,3	231,462
753,7	237,462
754,1	232,005
754,6	231,376
755	222,548
755,4	214,976
755,9	212,062
756,3	208,719
756,7	201,348
757,2	203,776
757,6	204,69
758	208,862
758,5	210,005
758,9	210,148
759,3	209,776
759,8	209,405
760,2	210,09
760,6	204,033
761,1	202,376
761,5	202,433
761,9	197,519
762,4	197,033
762,8	199,462
763,3	191,033
763,7	191,376
764,1	189,548
764,6	186,205
765	186,805
765,4	187,748
765,9	180,919
766,3	187,49
766,7	186,948
767,2	186,005
767,6	190,405
768	191,148
768,5	186,948
768,9	192,576
769,3	185,69
769,8	179,748
770,2	177,976
770,6	171,005
771,1	171,119
771,5	173,662
771,9	173,348
772,4	175,662
772,8	180,49
773,2	183,69
773,7	181,948
774,1	179,49
774,5	173,062
775	167,519
775,4	164,776
775,8	160,49
776,3	159,519
776,7	163,148
777,1	159,233
777,6	162,833
778	164,548
778,4	161,89
778,9	163,29
779,3	162,348
779,7	162,548
780,2	166,462
780,6	162,919
781	159,29
781,5	159,805
781,9	156,662
782,3	149,862
782,8	144,862
783,2	142,205
783,6	143,519
784,1	140,319
784,5	140,662
784,9	140,748
785,4	144,919
785,8	149,405
786,2	148,376
786,7	144,919
787,1	144,605
787,5	144,148
788	145,433
788,4	144,862
788,8	140,862
789,3	137,148
789,7	139,433
790,1	137,833
790,6	136,262
791	130,576
791,4	130,405
791,9	126,89
792,3	125,033
792,7	128,062
793,2	125,948
793,6	128,462
794	133,776
794,5	124,748
794,9	127,148
795,3	127,433
795,8	120,976
796,2	125,319
796,6	122,89
797,1	115,433
797,5	116,262
797,9	112,319
798,4	111,633
798,8	111,948
799,2	110,29
799,7	107,833
800,1	107,348
800,5	109,548
801	112,205
801,4	110,376
801,8	106,919
802,2	104,69
802,7	103,49
803,1	104,205
803,5	104,948
804	100,976
804,4	106,49
804,8	107,948
805,3	111,09
805,7	113,833
806,1	112,119
806,6	112,348
807	114,319
807,4	110,176
807,9	106,348
808,3	99,748
808,7	95,519
809,2	98,89
809,6	98,062
810	94,833
810,4	91,662
810,9	93,376
811,3	94,376
811,7	94,176
812,2	94,548
812,6	92,919
813	93,805
813,5	98,862
813,9	96,462
814,3	99,548
814,8	98,348
815,2	94,005
815,6	92,519
816,1	94,319
816,5	94,148
816,9	92,033
817,3	90,09
817,8	96,148
818,2	96,49
818,6	91,29
819,1	85,633
819,5	78,862
819,9	83,033
820,4	80,29
820,8	73,433
821,2	65,805
821,7	72,49
822,1	76,433
822,5	82,205
822,9	80,662
823,4	80,519
823,8	81,205
824,2	91,005
824,7	83,89
825,1	78,919
825,5	71,833
826	71,319
826,4	68,519
826,8	67,262
827,3	64,405
827,7	63,062
828,1	64,776
828,5	65,833
829	62,862
829,4	65,319
829,8	62,633
830,3	63,376
830,7	65,148
831,1	65,633
831,6	67,348
832	68,948
832,4	68,49
832,8	72,433
833,3	65,776
833,7	66,576
834,1	64,29
834,6	61,662
835	62,976
835,4	60,405
835,8	53,233
836,3	54,576
836,7	58,69
837,1	56,976
837,6	57,548
838	56,748
838,4	58,633
838,9	58,519
839,3	57,519
839,7	53,719
840,1	49,919
840,6	47,605
841	46,433
841,4	45,748
841,9	48,719
842,3	49,89
842,7	49,462
843,1	53,919
843,6	58,69
844	57,09
844,4	57,862
844,9	60,548
845,3	58,233
845,7	58,948
846,2	55,29
846,6	49,233
847	53,29
847,4	52,633
847,9	47,862
848,3	51,376
848,7	49,576
849,2	51,49
849,6	48,09
850	46,748
850,4	44,833
850,9	51,548
851,3	50,319
851,7	50,89
852,2	48,662
852,6	56,233
853	55,719
853,4	54,176
853,9	47,233
854,3	48,262
854,7	50,405
855,2	57,633
855,6	55,89
856	48,748
856,4	48,119
856,9	48,519
857,3	43,462
857,7	42,662
858,2	40,09
858,6	38,119
859	42,919
859,4	43,776
859,9	39,062
860,3	37,805
860,7	35,319
861,1	32,576
861,6	31,29
862	25,948
862,4	24,548
862,9	25,262
863,3	27,005
863,7	29,348
864,1	30,976
864,6	31,033
865	33,89
865,4	34,662
865,9	41,776
866,3	37,862
866,7	32,462
867,1	27,976
867,6	31,833
868	30,976
868,4	26,605
868,8	21,233
869,3	27,948
869,7	32,776
870,1	33,148
870,6	28,662
871	-44,51
871,4	-36,224
871,8	-39,281
872,3	-38,11
872,7	-41,795
873,1	-40,624
873,5	-41,081
874	31,433
874,4	29,519
874,8	31,805
875,3	31,862
875,7	31,319
876,1	36,119
876,5	39,462
877	39,09
877,4	36,605
877,8	40,148
878,2	39,119
878,7	42,462
879,1	37,148
879,5	37,576
879,9	38,548
880,4	38,148
880,8	36,862
881,2	31,205
881,7	26,49
882,1	27,919
882,5	24,548
882,9	24,833
883,4	21,319
883,8	19,719
884,2	21,49
884,6	23,862
885,1	21,776
885,5	24,776
885,9	22,433
886,3	24,805
886,8	24,89
887,2	23,976
887,6	20,633
888	20,576
888,5	16,776
888,9	15,062
889,3	15,633
889,8	16,576
890,2	18,433
890,6	17,205
891	13,805
891,5	13,919
891,9	14,29
892,3	14,519
892,7	13,462
893,2	10,805
893,6	14,805
894	16,576
894,4	15,719
894,9	18,548
895,3	17,948
895,7	18,348
896,1	20,233
896,6	17,605
897	19,89
897,4	24,176
897,8	22,519
898,3	22,776
898,7	21,262
899,1	22,005
899,5	20,176
900	12,233
900,4	10,148
900,8	6,719
901,2	3,89
901,7	0,548
902,1	-1,767
902,5	-1,224
902,9	1,462
903,4	3,233
903,8	8,148
904,2	6,548
904,6	10,348
905,1	12,976
905,5	16,09
905,9	22,89
906,3	20,69
906,8	22,148
907,2	24,09
907,6	21,29
908	20,805
908,5	19,376
908,9	15,833
909,3	10,719
909,7	7,919
910,2	10,719
910,6	17,776
911	12,09
911,4	11,605
911,9	8,462
912,3	10,719
912,7	13,719
913,1	13,062
913,6	8,69
914	11,319
914,4	10,49
914,8	16,033
915,3	15,662
915,7	14,376
916,1	10,948
916,5	10,062
916,9	11,09
917,4	12,005
917,8	11,49
918,2	9,862
918,6	3,29
919,1	7,662
919,5	10,319
919,9	10,29
920,3	8,69
920,8	8,262
921,2	12,29
921,6	17,09
922	15,833
922,5	14,319
922,9	13,633
923,3	11,89
923,7	9,29
924,2	6,833
924,6	5,69
925	5,919
925,4	1,633
925,8	1,548
926,3	4,548
926,7	4,89
927,1	7,519
927,5	10,29
928	5,89
928,4	10,548
928,8	12,119
929,2	9,69
929,7	8,862
930,1	8,262
930,5	3,919
930,9	9,89
931,3	8,576
931,8	10,462
932,2	11,148
932,6	11,976
933	6,348
933,5	9,09
933,9	8,719
934,3	8,805
934,7	4,948
935,2	7,176
935,6	10,09
936	16,805
936,4	14,576
936,8	15,09
937,3	10,433
937,7	10,662
938,1	12,805
938,5	8,69
939	6,062
939,4	5,49
939,8	2,376
940,2	5,119
940,6	10,719
941,1	8,576
941,5	17,09
941,9	17,062
942,3	21,29
942,8	20,576
943,2	27,176
943,6	21,033
944	22,519
944,4	15,633
944,9	12,405
945,3	7,462
945,7	7,005
946,1	-1,081
946,6	-4,595
947	-10,567
947,4	-10,31
947,8	-7,681
948,2	-6,081
948,7	-3,195
949,1	-1,338
949,5	8,49
949,9	11,376
950,3	13,29
950,8	11,005
951,2	9,748
951,6	6,433
952	11,319
952,5	8,262
952,9	9,719
953,3	6,29
953,7	6,405
954,1	12,319
954,6	14,119
955	11,49
955,4	6,719
955,8	11,005
956,2	11,233
956,7	15,462
957,1	12,148
957,5	12,462
957,9	14,005
958,3	14,69
958,8	12,748
959,2	14,89
959,6	13,748
960	10,09
960,5	14,205
960,9	13,605
961,3	13,205
961,7	9,433
962,1	6,719
962,6	9,662
963	13,29
963,4	3,233
963,8	2,348
964,2	3,576
964,7	5,833
965,1	9,976
965,5	4,833
965,9	4,462
966,3	11,205
966,8	9,719
967,2	10,976
967,6	7,919
968	2,348
968,4	2,719
968,9	1,69
969,3	2,205
969,7	0,519
970,1	4,033
970,5	3,376
971	8,776
971,4	7,862
971,8	6,862
972,2	7,805
972,6	7,948
973,1	1,919
973,5	5,176
973,9	5,262
974,3	4,348
974,7	8,719
975,2	6,833
975,6	7,233
976	8,376
976,4	4,176
976,8	3,919
977,3	5,462
977,7	2,119
978,1	4,205
978,5	0,833
978,9	-2,195
979,4	0,09
979,8	-1,91
980,2	-0,824
980,6	-3,595
981	-4,167
981,5	1,748
981,9	1,462
982,3	1,548
982,7	2,148
983,1	-0,795
983,6	3,033
984	2,776
984,4	1,262
984,8	2,576
985,2	4,348
985,6	-1,024
986,1	4,49
986,5	4,948
986,9	-3,424
987,3	-3,51
987,7	-0,338
988,2	-4,024
988,6	1,548
989	-3,11
989,4	-3,91
989,8	-1,338
990,3	-0,138
990,7	-0,167
991,1	2,89
991,5	2,176
991,9	7,005
992,3	8,319
992,8	9,976
993,2	8,862
993,6	6,748
994	7,09
994,4	8,376
994,9	6,319
995,3	2,519
995,7	1,948
996,1	-0,224
996,5	0,89
996,9	-1,795
997,4	0,405
997,8	-5,367
998,2	-4,995
998,6	-8,138
999	-5,538
999,5	-4,881
999,9	-4,11
1000,3	-11,681
1000,7	-7,452
1001,1	-6,424
1001,5	-4,052
1002	0,09
1002,4	2,205
1002,8	5,319
1003,2	11,633
1003,6	15,548
1004	22,462
1004,5	23,919
1004,9	20,862
1005,3	13,119
1005,7	9,033
1006,1	5,09
1006,6	1,519
1007	-4,052
1007,4	-5,424
1007,8	-4,281
1008,2	-3,538
1008,6	-2,538
1009,1	1,319
1009,5	3,49
1009,9	0,948
1010,3	2,776
1010,7	-0,738
1011,1	4,119
1011,6	4,519
1012	2,005
1012,4	0,633
1012,8	3,576
1013,2	6,548
1013,6	8,719
1014,1	9,862
1014,5	10,548
1014,9	11,69
1015,3	11,576
1015,7	13,662
1016,1	7,262
1016,6	3,348
1017	3,062
1017,4	4,119
1017,8	3,405
1018,2	4,976
1018,6	-1,424
1019,1	2,005
1019,5	3,09
1019,9	2,148
1020,3	-0,681
1020,7	1,719
1021,1	-1,938
1021,6	0,776
1022	6,29
1022,4	9,062
1022,8	9,633
1023,2	9,062
1023,6	7,433
1024,1	11,833
1024,5	14,005
1024,9	5,576
1025,3	1,119
1025,7	0,49
1026,1	3,29
1026,6	2,948
1027	-0,281
1027,4	-1,995
1027,8	0,805
1028,2	0,348
1028,6	3,205
1029	3,262
1029,5	3,205
1029,9	0,948
1030,3	0,09
1030,7	3,233
1031,1	5,548
1031,5	-0,881
1032	-5,967
1032,4	-5,91
1032,8	-1,538
1033,2	3,519
1033,6	0,605
1034	2,805
1034,4	3,805
1034,9	11,176
1035,3	5,49
1035,7	3,862
1036,1	-0,795
1036,5	-3,224
1036,9	-4,824
1037,4	1,29
1037,8	-5,567
1038,2	-0,91
1038,6	-0,11
1039	6,09
1039,4	11,919
1039,8	13,89
1040,3	11,033
1040,7	13,719
1041,1	15,119
1041,5	15,148
1041,9	8,119
1042,3	3,548
1042,7	6,633
1043,2	4,776
1043,6	2,148
1044	0,576
1044,4	2,89
1044,8	3,748
1045,2	4,662
1045,6	-0,052
1046,1	2,805
1046,5	8,576
1046,9	4,462
1047,3	0,576
1047,7	1,748
1048,1	0,09
1048,5	0,405
1049	-1,595
1049,4	1,976
1049,8	6,376
1050,2	5,519
1050,6	8,748
1051	11,062
1051,4	9,862
1051,9	10,462
1052,3	11,69
1052,7	12,605
1053,1	13,519
1053,5	12,29
1053,9	9,862
1054,3	13,319
1054,8	15,976
1055,2	10,919
1055,6	12,605
1056	14,862
1056,4	13,49
1056,8	16,005
1057,2	11,633
1057,6	4,69
1058,1	3,348
1058,5	-3,481
1058,9	-3,395
1059,3	-2,681
1059,7	0,519
1060,1	2,462
1060,5	9,405
1061	11,462
1061,4	11,69
1061,8	15,519
1062,2	11,433
1062,6	9,719
1063	9,748
1063,4	6,833
1063,8	-0,91
1064,3	-1,081
1064,7	-7,452
1065,1	-6,567
1065,5	-12,481
1065,9	-15,452
1066,3	-20,424
1066,7	-20,081
1067,1	-17,567
1067,6	-11,167
1068	-13,538
1068,4	-7,024
1068,8	-0,938
1069,2	6,119
1069,6	9,805
1070	12,033
1070,4	7,148
1070,9	7,005
1071,3	6,548
1071,7	-0,995
1072,1	-4,31
1072,5	-6,424
1072,9	-7,938
1073,3	-5,824
1073,7	-4,852
1074,2	-6,338
1074,6	0,376
1075	-0,767
1075,4	2,005
1075,8	3,948
1076,2	2,005
1076,6	6,033
1077	4,633
1077,5	5,633
1077,9	6,662
1078,3	7,119
1078,7	5,805
1079,1	4,805
1079,5	4,548
1079,9	4,948
1080,3	2,605
1080,7	4,148
1081,2	7,348
1081,6	7,376
1082	7,319
1082,4	12,205
1082,8	12,462
1083,2	12,376
1083,6	14,348
1084	11,319
1084,5	12,748
1084,9	13,633
1085,3	3,462
1085,7	5,919
1086,1	5,49
1086,5	4,005
1086,9	8,005
1087,3	5,262
1087,7	0,633
1088,2	6,833
1088,6	4,148
1089	1,519
1089,4	0,633
1089,8	-2,167
1090,2	1,119
1090,6	5,49
1091	4,719
1091,4	7,862
1091,9	8,433
1092,3	10,605
1092,7	7,176
1093,1	9,633
1093,5	10,748
1093,9	10,719
1094,3	12,576
1094,7	16,005
1095,1	15,605
1095,5	17,948
1096	12,662
1096,4	14,119
1096,8	10,576
1097,2	10,005
1097,6	12,433
1098	11,976
1098,4	13,005
1098,8	12,176
1099,2	13,519
1099,6	16,776
1100,1	15,062
1100,5	11,062
1100,9	11,348
1101,3	9,89
1101,7	10,662
1102,1	8,49
1102,5	10,776
1102,9	11,976
1103,3	11,262
1103,7	12,69
1104,2	10,748
1104,6	9,49
1105	6,49
1105,4	1,576
1105,8	-2,167
1106,2	-2,538
1106,6	-6,281
1107	-4,195
1107,4	-3,4
1107,8	-2,447
1108,3	-0,567
