Data from Absorbance_00001.txt Node
Date: Fri Jul 14 16:01:15 MSK 2023
User: vat
Spectrometer: MAYP114033
Trigger mode: 0
Integration Time (sec): 8,000000E-3
Scans to average: 20
Electric dark correction enabled: true
Nonlinearity correction enabled: false
Boxcar width: 3
XAxis mode: Wavelengths
Number of Pixels in Spectrum: 2068
>>>>>Begin Spectral Data<<<<<
199,4	-0
199,9	-0,314
200,4	-0,091
200,8	-0,02
201,3	0,008
201,8	0,011
202,2	-0,01
202,7	0,004
203,2	-0,002
203,6	0,004
204,1	-0,008
204,6	-0,018
205	-0,022
205,5	-0,006
206	-0,006
206,4	-0,006
206,9	-0,012
207,4	-0,004
207,8	0,013
208,3	0,006
208,8	-0
209,2	-0,003
209,7	-0,004
210,2	-0,012
210,6	-0,01
211,1	-0,025
211,5	0,001
212	0,007
212,5	-0,005
212,9	0,003
213,4	0,008
213,9	0,006
214,3	0,031
214,8	0,029
215,3	0,018
215,7	0,033
216,2	0,015
216,7	0,022
217,1	0,021
217,6	0,01
218,1	0,005
218,5	0,015
219	0,019
219,5	0,022
219,9	0,029
220,4	0,024
220,9	0,025
221,3	0,025
221,8	0,021
222,3	0,024
222,7	0,017
223,2	0,011
223,6	0,015
224,1	0,008
224,6	0,018
225	0,018
225,5	0,029
226	0,045
226,4	0,057
226,9	0,047
227,4	0,038
227,8	0,02
228,3	0,018
228,8	0,001
229,2	0,016
229,7	0,006
230,2	0,011
230,6	0,031
231,1	0,033
231,5	0,044
232	0,041
232,5	0,028
232,9	0,022
233,4	0,027
233,9	0,027
234,3	0,032
234,8	0,019
235,3	0,002
235,7	0,008
236,2	0,02
236,7	0,025
237,1	0,024
237,6	0,021
238,1	0,033
238,5	0,051
239	0,054
239,4	0,052
239,9	0,04
240,4	0,035
240,8	0,026
241,3	0,029
241,8	0,039
242,2	0,037
242,7	0,03
243,2	0,056
243,6	0,066
244,1	0,073
244,6	0,074
245	0,089
245,5	0,086
245,9	0,084
246,4	0,088
246,9	0,079
247,3	0,091
247,8	0,084
248,3	0,074
248,7	0,078
249,2	0,08
249,7	0,081
250,1	0,094
250,6	0,086
251	0,105
251,5	0,12
252	0,162
252,4	0,197
252,9	0,228
253,4	0,259
253,8	0,296
254,3	0,331
254,8	0,363
255,2	0,368
255,7	0,379
256,1	0,387
256,6	0,386
257,1	0,375
257,5	0,361
258	0,343
258,5	0,328
258,9	0,307
259,4	0,283
259,9	0,262
260,3	0,242
260,8	0,219
261,2	0,197
261,7	0,177
262,2	0,157
262,6	0,141
263,1	0,124
263,6	0,11
264	0,098
264,5	0,088
264,9	0,078
265,4	0,071
265,9	0,063
266,3	0,059
266,8	0,054
267,3	0,049
267,7	0,046
268,2	0,043
268,7	0,04
269,1	0,04
269,6	0,038
270	0,037
270,5	0,036
271	0,035
271,4	0,034
271,9	0,034
272,4	0,033
272,8	0,034
273,3	0,034
273,7	0,035
274,2	0,035
274,7	0,034
275,1	0,034
275,6	0,034
276,1	0,034
276,5	0,035
277	0,035
277,4	0,035
277,9	0,036
278,4	0,037
278,8	0,038
279,3	0,039
279,8	0,039
280,2	0,039
280,7	0,039
281,1	0,04
281,6	0,041
282,1	0,041
282,5	0,041
283	0,041
283,4	0,041
283,9	0,042
284,4	0,042
284,8	0,042
285,3	0,043
285,8	0,044
286,2	0,045
286,7	0,046
287,1	0,047
287,6	0,049
288,1	0,05
288,5	0,051
289	0,052
289,5	0,053
289,9	0,053
290,4	0,054
290,8	0,055
291,3	0,055
291,8	0,056
292,2	0,057
292,7	0,059
293,1	0,061
293,6	0,062
294,1	0,063
294,5	0,065
295	0,067
295,5	0,068
295,9	0,069
296,4	0,069
296,8	0,07
297,3	0,072
297,8	0,073
298,2	0,074
298,7	0,076
299,1	0,078
299,6	0,079
300,1	0,08
300,5	0,081
301	0,082
301,5	0,084
301,9	0,085
302,4	0,087
302,8	0,089
303,3	0,09
303,8	0,092
304,2	0,094
304,7	0,095
305,1	0,097
305,6	0,098
306,1	0,099
306,5	0,101
307	0,102
307,4	0,103
307,9	0,104
308,4	0,106
308,8	0,107
309,3	0,108
309,8	0,109
310,2	0,11
310,7	0,111
311,1	0,112
311,6	0,113
312,1	0,114
312,5	0,115
313	0,116
313,4	0,117
313,9	0,118
314,4	0,119
314,8	0,12
315,3	0,12
315,7	0,121
316,2	0,121
316,7	0,121
317,1	0,121
317,6	0,122
318	0,122
318,5	0,122
319	0,121
319,4	0,121
319,9	0,121
320,3	0,121
320,8	0,121
321,3	0,12
321,7	0,119
322,2	0,119
322,6	0,118
323,1	0,118
323,6	0,117
324	0,116
324,5	0,116
324,9	0,116
325,4	0,115
325,9	0,114
326,3	0,114
326,8	0,114
327,2	0,114
327,7	0,115
328,2	0,114
328,6	0,115
329,1	0,115
329,5	0,116
330	0,117
330,5	0,118
330,9	0,118
331,4	0,119
331,8	0,12
332,3	0,121
332,8	0,122
333,2	0,123
333,7	0,124
334,1	0,126
334,6	0,127
335,1	0,128
335,5	0,13
336	0,131
336,4	0,132
336,9	0,132
337,4	0,133
337,8	0,134
338,3	0,135
338,7	0,136
339,2	0,137
339,7	0,138
340,1	0,138
340,6	0,139
341	0,14
341,5	0,141
342	0,141
342,4	0,142
342,9	0,143
343,3	0,144
343,8	0,145
344,2	0,146
344,7	0,146
345,2	0,146
345,6	0,146
346,1	0,146
346,5	0,146
347	0,146
347,5	0,146
347,9	0,146
348,4	0,146
348,8	0,146
349,3	0,146
349,8	0,146
350,2	0,146
350,7	0,146
351,1	0,146
351,6	0,145
352	0,144
352,5	0,143
353	0,142
353,4	0,142
353,9	0,14
354,3	0,139
354,8	0,138
355,3	0,138
355,7	0,137
356,2	0,135
356,6	0,133
357,1	0,133
357,5	0,131
358	0,13
358,5	0,128
358,9	0,126
359,4	0,124
359,8	0,123
360,3	0,121
360,8	0,119
361,2	0,117
361,7	0,115
362,1	0,114
362,6	0,112
363	0,11
363,5	0,108
364	0,105
364,4	0,103
364,9	0,101
365,3	0,099
365,8	0,097
366,3	0,094
366,7	0,092
367,2	0,09
367,6	0,087
368,1	0,085
368,5	0,083
369	0,081
369,5	0,079
369,9	0,077
370,4	0,075
370,8	0,073
371,3	0,071
371,7	0,068
372,2	0,066
372,7	0,064
373,1	0,061
373,6	0,059
374	0,057
374,5	0,055
374,9	0,054
375,4	0,052
375,9	0,05
376,3	0,049
376,8	0,047
377,2	0,045
377,7	0,043
378,2	0,042
378,6	0,04
379,1	0,039
379,5	0,037
380	0,036
380,4	0,034
380,9	0,033
381,4	0,031
381,8	0,03
382,3	0,029
382,7	0,027
383,2	0,026
383,6	0,025
384,1	0,024
384,6	0,023
385	0,022
385,5	0,021
385,9	0,021
386,4	0,019
386,8	0,018
387,3	0,018
387,7	0,017
388,2	0,017
388,7	0,016
389,1	0,016
389,6	0,015
390	0,014
390,5	0,014
390,9	0,013
391,4	0,013
391,9	0,013
392,3	0,012
392,8	0,011
393,2	0,011
393,7	0,011
394,1	0,01
394,6	0,01
395,1	0,009
395,5	0,009
396	0,009
396,4	0,009
396,9	0,008
397,3	0,007
397,8	0,007
398,2	0,008
398,7	0,008
399,2	0,007
399,6	0,008
400,1	0,008
400,5	0,008
401	0,007
401,4	0,007
401,9	0,006
402,4	0,007
402,8	0,006
403,3	0,006
403,7	0,006
404,2	0,006
404,6	0,006
405,1	0,006
405,5	0,005
406	0,006
406,5	0,005
406,9	0,004
407,4	0,005
407,8	0,005
408,3	0,005
408,7	0,004
409,2	0,004
409,6	0,004
410,1	0,004
410,6	0,004
411	0,004
411,5	0,004
411,9	0,003
412,4	0,003
412,8	0,003
413,3	0,003
413,7	0,003
414,2	0,003
414,7	0,003
415,1	0,003
415,6	0,004
416	0,003
416,5	0,003
416,9	0,003
417,4	0,003
417,8	0,003
418,3	0,003
418,8	0,003
419,2	0,004
419,7	0,004
420,1	0,004
420,6	0,004
421	0,004
421,5	0,004
421,9	0,004
422,4	0,004
422,8	0,004
423,3	0,004
423,8	0,004
424,2	0,004
424,7	0,003
425,1	0,004
425,6	0,004
426	0,004
426,5	0,004
426,9	0,003
427,4	0,003
427,9	0,004
428,3	0,004
428,8	0,004
429,2	0,004
429,7	0,004
430,1	0,005
430,6	0,005
431	0,005
431,5	0,004
431,9	0,004
432,4	0,004
432,8	0,004
433,3	0,004
433,8	0,003
434,2	0,003
434,7	0,003
435,1	0,003
435,6	0,003
436	0,003
436,5	0,003
436,9	0,003
437,4	0,003
437,8	0,003
438,3	0,003
438,8	0,004
439,2	0,004
439,7	0,004
440,1	0,004
440,6	0,004
441	0,004
441,5	0,004
441,9	0,004
442,4	0,004
442,8	0,003
443,3	0,004
443,7	0,004
444,2	0,004
444,7	0,004
445,1	0,004
445,6	0,004
446	0,004
446,5	0,004
446,9	0,003
447,4	0,003
447,8	0,003
448,3	0,003
448,7	0,003
449,2	0,004
449,6	0,004
450,1	0,004
450,6	0,004
451	0,004
451,5	0,004
451,9	0,004
452,4	0,004
452,8	0,004
453,3	0,003
453,7	0,003
454,2	0,003
454,6	0,003
455,1	0,003
455,5	0,003
456	0,003
456,4	0,004
456,9	0,004
457,3	0,003
457,8	0,004
458,3	0,003
458,7	0,003
459,2	0,003
459,6	0,002
460,1	0,003
460,5	0,003
461	0,003
461,4	0,003
461,9	0,003
462,3	0,003
462,8	0,003
463,2	0,003
463,7	0,003
464,1	0,003
464,6	0,003
465	0,004
465,5	0,004
466	0,004
466,4	0,004
466,9	0,004
467,3	0,004
467,8	0,004
468,2	0,003
468,7	0,003
469,1	0,004
469,6	0,004
470	0,004
470,5	0,003
470,9	0,003
471,4	0,004
471,8	0,004
472,3	0,004
472,7	0,004
473,2	0,003
473,6	0,003
474,1	0,003
474,5	0,003
475	0,003
475,4	0,003
475,9	0,003
476,4	0,003
476,8	0,002
477,3	0,002
477,7	0,002
478,2	0,003
478,6	0,003
479,1	0,003
479,5	0,003
480	0,003
480,4	0,003
480,9	0,004
481,3	0,003
481,8	0,003
482,2	0,003
482,7	0,003
483,1	0,004
483,6	0,003
484	0,003
484,5	0,003
484,9	0,003
485,4	0,003
485,8	0,003
486,3	0,004
486,7	0,004
487,2	0,004
487,6	0,004
488,1	0,004
488,5	0,004
489	0,004
489,4	0,003
489,9	0,003
490,4	0,003
490,8	0,004
491,3	0,003
491,7	0,003
492,2	0,003
492,6	0,003
493,1	0,003
493,5	0,003
494	0,003
494,4	0,003
494,9	0,003
495,3	0,003
495,8	0,002
496,2	0,002
496,7	0,002
497,1	0,002
497,6	0,003
498	0,003
498,5	0,003
498,9	0,004
499,4	0,004
499,8	0,003
500,3	0,003
500,7	0,003
501,2	0,003
501,6	0,003
502,1	0,003
502,5	0,004
503	0,003
503,4	0,003
503,9	0,003
504,3	0,003
504,8	0,003
505,2	0,003
505,7	0,003
506,1	0,003
506,6	0,003
507	0,004
507,5	0,003
507,9	0,003
508,4	0,004
508,8	0,004
509,3	0,004
509,7	0,004
510,2	0,004
510,6	0,004
511,1	0,005
511,5	0,004
512	0,004
512,4	0,004
512,9	0,003
513,3	0,003
513,8	0,003
514,2	0,002
514,7	0,003
515,1	0,002
515,6	0,003
516	0,003
516,5	0,004
516,9	0,004
517,4	0,004
517,8	0,004
518,3	0,003
518,7	0,003
519,2	0,003
519,6	0,003
520,1	0,002
520,5	0,002
521	0,002
521,4	0,003
521,9	0,002
522,3	0,002
522,8	0,003
523,2	0,004
523,7	0,004
524,1	0,004
524,6	0,004
525	0,004
525,5	0,004
525,9	0,004
526,4	0,004
526,8	0,004
527,3	0,004
527,7	0,003
528,2	0,003
528,6	0,003
529,1	0,003
529,5	0,003
530	0,003
530,4	0,002
530,9	0,002
531,3	0,003
531,8	0,003
532,2	0,003
532,6	0,003
533,1	0,003
533,5	0,003
534	0,004
534,4	0,004
534,9	0,003
535,3	0,003
535,8	0,003
536,2	0,003
536,7	0,003
537,1	0,003
537,6	0,003
538	0,003
538,5	0,003
538,9	0,003
539,4	0,003
539,8	0,003
540,3	0,003
540,7	0,003
541,2	0,003
541,6	0,003
542,1	0,003
542,5	0,003
543	0,003
543,4	0,003
543,9	0,003
544,3	0,003
544,8	0,004
545,2	0,004
545,7	0,004
546,1	0,004
546,5	0,004
547	0,004
547,4	0,004
547,9	0,003
548,3	0,003
548,8	0,004
549,2	0,004
549,7	0,004
550,1	0,004
550,6	0,003
551	0,004
551,5	0,003
551,9	0,003
552,4	0,003
552,8	0,003
553,3	0,003
553,7	0,003
554,2	0,003
554,6	0,003
555,1	0,003
555,5	0,003
555,9	0,003
556,4	0,003
556,8	0,002
557,3	0,003
557,7	0,003
558,2	0,002
558,6	0,002
559,1	0,002
559,5	0,002
560	0,002
560,4	0,002
560,9	0,002
561,3	0,002
561,8	0,002
562,2	0,002
562,7	0,003
563,1	0,003
563,6	0,002
564	0,003
564,4	0,002
564,9	0,002
565,3	0,002
565,8	0,003
566,2	0,002
566,7	0,003
567,1	0,003
567,6	0,003
568	0,003
568,5	0,003
568,9	0,003
569,4	0,003
569,8	0,003
570,3	0,002
570,7	0,002
571,1	0,002
571,6	0,003
572	0,003
572,5	0,003
572,9	0,003
573,4	0,003
573,8	0,003
574,3	0,003
574,7	0,003
575,2	0,003
575,6	0,003
576,1	0,003
576,5	0,003
576,9	0,004
577,4	0,003
577,8	0,003
578,3	0,003
578,7	0,003
579,2	0,003
579,6	0,003
580,1	0,003
580,5	0,003
581	0,003
581,4	0,003
581,9	0,003
582,3	0,003
582,7	0,003
583,2	0,003
583,6	0,003
584,1	0,003
584,5	0,003
585	0,003
585,4	0,003
585,9	0,003
586,3	0,003
586,8	0,003
587,2	0,003
587,6	0,002
588,1	0,003
588,5	0,003
589	0,003
589,4	0,003
589,9	0,003
590,3	0,003
590,8	0,003
591,2	0,003
591,7	0,003
592,1	0,002
592,5	0,003
593	0,003
593,4	0,003
593,9	0,003
594,3	0,003
594,8	0,003
595,2	0,003
595,7	0,003
596,1	0,003
596,6	0,003
597	0,003
597,4	0,003
597,9	0,002
598,3	0,002
598,8	0,002
599,2	0,002
599,7	0,002
600,1	0,002
600,6	0,003
601	0,003
601,4	0,003
601,9	0,003
602,3	0,003
602,8	0,003
603,2	0,003
603,7	0,003
604,1	0,003
604,6	0,003
605	0,003
605,4	0,003
605,9	0,003
606,3	0,003
606,8	0,003
607,2	0,003
607,7	0,003
608,1	0,003
608,6	0,003
609	0,003
609,4	0,003
609,9	0,003
610,3	0,003
610,8	0,003
611,2	0,003
611,7	0,003
612,1	0,003
612,6	0,003
613	0,003
613,4	0,003
613,9	0,003
614,3	0,003
614,8	0,003
615,2	0,003
615,7	0,003
616,1	0,003
616,6	0,003
617	0,003
617,4	0,003
617,9	0,003
618,3	0,003
618,8	0,003
619,2	0,003
619,7	0,003
620,1	0,003
620,5	0,003
621	0,003
621,4	0,003
621,9	0,003
622,3	0,003
622,8	0,002
623,2	0,002
623,6	0,002
624,1	0,002
624,5	0,002
625	0,002
625,4	0,002
625,9	0,003
626,3	0,003
626,8	0,003
627,2	0,003
627,6	0,003
628,1	0,004
628,5	0,003
629	0,003
629,4	0,003
629,9	0,003
630,3	0,003
630,7	0,003
631,2	0,003
631,6	0,003
632,1	0,003
632,5	0,003
633	0,003
633,4	0,003
633,8	0,003
634,3	0,003
634,7	0,003
635,2	0,003
635,6	0,003
636,1	0,002
636,5	0,002
636,9	0,002
637,4	0,002
637,8	0,002
638,3	0,002
638,7	0,002
639,2	0,002
639,6	0,002
640	0,002
640,5	0,002
640,9	0,002
641,4	0,002
641,8	0,002
642,2	0,002
642,7	0,002
643,1	0,002
643,6	0,002
644	0,002
644,5	0,002
644,9	0,002
645,3	0,002
645,8	0,002
646,2	0,003
646,7	0,003
647,1	0,003
647,6	0,002
648	0,002
648,4	0,002
648,9	0,002
649,3	0,002
649,8	0,002
650,2	0,002
650,6	0,002
651,1	0,002
651,5	0,002
652	0,002
652,4	0,002
652,9	0,002
653,3	0,002
653,7	0,002
654,2	0,002
654,6	0,001
655,1	0,002
655,5	0,001
655,9	0,001
656,4	0,001
656,8	0
657,3	0,001
657,7	0,001
658,2	0,001
658,6	0,001
659	0,001
659,5	0,002
659,9	0,004
660,4	0,004
660,8	0,004
661,2	0,004
661,7	0,004
662,1	0,003
662,6	0,004
663	0,003
663,4	0,003
663,9	0,003
664,3	0,003
664,8	0,003
665,2	0,002
665,6	0,002
666,1	0,002
666,5	0,002
667	0,002
667,4	0,002
667,9	0,002
668,3	0,002
668,7	0,003
669,2	0,003
669,6	0,003
670,1	0,003
670,5	0,003
670,9	0,003
671,4	0,002
671,8	0,002
672,3	0,002
672,7	0,003
673,1	0,003
673,6	0,003
674	0,003
674,5	0,003
674,9	0,003
675,3	0,003
675,8	0,004
676,2	0,003
676,7	0,004
677,1	0,004
677,5	0,004
678	0,004
678,4	0,004
678,9	0,004
679,3	0,004
679,7	0,004
680,2	0,004
680,6	0,003
681,1	0,004
681,5	0,003
681,9	0,003
682,4	0,003
682,8	0,003
683,3	0,003
683,7	0,003
684,1	0,003
684,6	0,003
685	0,003
685,5	0,003
685,9	0,003
686,3	0,003
686,8	0,003
687,2	0,003
687,7	0,003
688,1	0,003
688,5	0,003
689	0,003
689,4	0,003
689,9	0,003
690,3	0,003
690,7	0,003
691,2	0,003
691,6	0,003
692	0,003
692,5	0,003
692,9	0,003
693,4	0,003
693,8	0,003
694,2	0,003
694,7	0,003
695,1	0,003
695,6	0,003
696	0,003
696,4	0,003
696,9	0,002
697,3	0,002
697,8	0,002
698,2	0,002
698,6	0,002
699,1	0,002
699,5	0,002
699,9	0,002
700,4	0,002
700,8	0,002
701,3	0,002
701,7	0,003
702,1	0,003
702,6	0,003
703	0,003
703,5	0,003
703,9	0,003
704,3	0,003
704,8	0,003
705,2	0,003
705,6	0,003
706,1	0,003
706,5	0,002
707	0,003
707,4	0,003
707,8	0,003
708,3	0,003
708,7	0,003
709,2	0,003
709,6	0,004
710	0,003
710,5	0,003
710,9	0,004
711,3	0,004
711,8	0,003
712,2	0,003
712,7	0,003
713,1	0,003
713,5	0,003
714	0,003
714,4	0,003
714,8	0,003
715,3	0,003
715,7	0,003
716,2	0,003
716,6	0,004
717	0,004
717,5	0,004
717,9	0,004
718,3	0,004
718,8	0,004
719,2	0,004
719,7	0,003
720,1	0,003
720,5	0,003
721	0,003
721,4	0,003
721,8	0,003
722,3	0,003
722,7	0,003
723,2	0,003
723,6	0,003
724	0,003
724,5	0,003
724,9	0,003
725,3	0,003
725,8	0,003
726,2	0,003
726,7	0,002
727,1	0,002
727,5	0,002
728	0,002
728,4	0,002
728,8	0,002
729,3	0,002
729,7	0,002
730,1	0,002
730,6	0,002
731	0,002
731,5	0,003
731,9	0,002
732,3	0,002
732,8	0,003
733,2	0,003
733,6	0,002
734,1	0,002
734,5	0,002
734,9	0,002
735,4	0,003
735,8	0,003
736,3	0,003
736,7	0,003
737,1	0,004
737,6	0,003
738	0,004
738,4	0,003
738,9	0,003
739,3	0,003
739,7	0,003
740,2	0,003
740,6	0,003
741,1	0,002
741,5	0,002
741,9	0,002
742,4	0,002
742,8	0,002
743,2	0,003
743,7	0,003
744,1	0,003
744,5	0,003
745	0,003
745,4	0,003
745,8	0,002
746,3	0,003
746,7	0,003
747,2	0,003
747,6	0,003
748	0,002
748,5	0,002
748,9	0,003
749,3	0,003
749,8	0,002
750,2	0,003
750,6	0,003
751,1	0,003
751,5	0,003
751,9	0,003
752,4	0,003
752,8	0,003
753,3	0,003
753,7	0,003
754,1	0,003
754,6	0,003
755	0,002
755,4	0,002
755,9	0,002
756,3	0,003
756,7	0,002
757,2	0,003
757,6	0,003
758	0,003
758,5	0,002
758,9	0,003
759,3	0,003
759,8	0,003
760,2	0,003
760,6	0,003
761,1	0,003
761,5	0,003
761,9	0,003
762,4	0,003
762,8	0,003
763,3	0,003
763,7	0,003
764,1	0,003
764,6	0,003
765	0,003
765,4	0,003
765,9	0,003
766,3	0,002
766,7	0,002
767,2	0,003
767,6	0,003
768	0,003
768,5	0,003
768,9	0,003
769,3	0,003
769,8	0,003
770,2	0,003
770,6	0,003
771,1	0,003
771,5	0,003
771,9	0,003
772,4	0,003
772,8	0,003
773,2	0,003
773,7	0,003
774,1	0,004
774,5	0,004
775	0,004
775,4	0,004
775,8	0,004
776,3	0,004
776,7	0,004
777,1	0,004
777,6	0,004
778	0,004
778,4	0,004
778,9	0,004
779,3	0,004
779,7	0,004
780,2	0,004
780,6	0,004
781	0,004
781,5	0,003
781,9	0,003
782,3	0,003
782,8	0,003
783,2	0,002
783,6	0,003
784,1	0,003
784,5	0,003
784,9	0,003
785,4	0,003
785,8	0,003
786,2	0,004
786,7	0,004
787,1	0,004
787,5	0,004
788	0,004
788,4	0,004
788,8	0,004
789,3	0,004
789,7	0,004
790,1	0,004
790,6	0,004
791	0,004
791,4	0,003
791,9	0,003
792,3	0,003
792,7	0,003
793,2	0,003
793,6	0,003
794	0,003
794,5	0,003
794,9	0,003
795,3	0,003
795,8	0,002
796,2	0,002
796,6	0,002
797,1	0,002
797,5	0,002
797,9	0,002
798,4	0,002
798,8	0,002
799,2	0,002
799,7	0,002
800,1	0,002
800,5	0,002
801	0,002
801,4	0,001
801,8	0,001
802,2	0,001
802,7	0,001
803,1	0,002
803,5	0,002
804	0,002
804,4	0,003
804,8	0,003
805,3	0,003
805,7	0,003
806,1	0,004
806,6	0,004
807	0,004
807,4	0,004
807,9	0,004
808,3	0,004
808,7	0,004
809,2	0,004
809,6	0,004
810	0,004
810,4	0,004
810,9	0,004
811,3	0,004
811,7	0,004
812,2	0,004
812,6	0,004
813	0,004
813,5	0,004
813,9	0,003
814,3	0,003
814,8	0,003
815,2	0,003
815,6	0,004
816,1	0,004
816,5	0,004
816,9	0,004
817,3	0,003
817,8	0,003
818,2	0,003
818,6	0,003
819,1	0,003
819,5	0,003
819,9	0,003
820,4	0,004
820,8	0,003
821,2	0,003
821,7	0,003
822,1	0,003
822,5	0,002
822,9	0,002
823,4	0,002
823,8	0,002
824,2	0,002
824,7	0,002
825,1	0,002
825,5	0,002
826	0,002
826,4	0,003
826,8	0,003
827,3	0,004
827,7	0,004
828,1	0,004
828,5	0,004
829	0,004
829,4	0,003
829,8	0,003
830,3	0,003
830,7	0,003
831,1	0,003
831,6	0,003
832	0,003
832,4	0,003
832,8	0,003
833,3	0,003
833,7	0,003
834,1	0,003
834,6	0,003
835	0,004
835,4	0,003
835,8	0,003
836,3	0,003
836,7	0,003
837,1	0,003
837,6	0,003
838	0,003
838,4	0,003
838,9	0,003
839,3	0,003
839,7	0,003
840,1	0,003
840,6	0,003
841	0,003
841,4	0,004
841,9	0,004
842,3	0,004
842,7	0,004
843,1	0,004
843,6	0,004
844	0,003
844,4	0,003
844,9	0,003
845,3	0,003
845,7	0,003
846,2	0,003
846,6	0,003
847	0,003
847,4	0,002
847,9	0,002
848,3	0,002
848,7	0,002
849,2	0,002
849,6	0,002
850	0,002
850,4	0,002
850,9	0,002
851,3	0,002
851,7	0,002
852,2	0,002
852,6	0,002
853	0,002
853,4	0,003
853,9	0,003
854,3	0,003
854,7	0,004
855,2	0,004
855,6	0,004
856	0,004
856,4	0,004
856,9	0,004
857,3	0,004
857,7	0,004
858,2	0,003
858,6	0,003
859	0,003
859,4	0,003
859,9	0,002
860,3	0,002
860,7	0,002
861,1	0,003
861,6	0,003
862	0,003
862,4	0,003
862,9	0,004
863,3	0,004
863,7	0,005
864,1	0,005
864,6	0,005
865	0,006
865,4	0,006
865,9	0,006
866,3	0,005
866,7	0,005
867,1	0,005
867,6	0,004
868	0,004
868,4	0,003
868,8	0,003
869,3	0,003
869,7	0,003
870,1	0,002
870,6	0,002
871	0,002
871,4	0,002
871,8	0,002
872,3	0,002
872,7	0,002
873,1	0,002
873,5	0,002
874	0,002
874,4	0,002
874,8	0,002
875,3	0,002
875,7	0,002
876,1	0,002
876,5	0,002
877	0,002
877,4	0,002
877,8	0,002
878,2	0,002
878,7	0,002
879,1	0,002
879,5	0,002
879,9	0,002
880,4	0,002
880,8	0,002
881,2	0,002
881,7	0,002
882,1	0,002
882,5	0,002
882,9	0,002
883,4	0,002
883,8	0,002
884,2	0,002
884,6	0,002
885,1	0,002
885,5	0,002
885,9	0,002
886,3	0,002
886,8	0,002
887,2	0,002
887,6	0,002
888	0,002
888,5	0,002
888,9	0,002
889,3	0,002
889,8	0,002
890,2	0,001
890,6	0,001
891	0,001
891,5	0,002
891,9	0,002
892,3	0,002
892,7	0,002
893,2	0,002
893,6	0,002
894	0,002
894,4	0,002
894,9	0,002
895,3	0,003
895,7	0,003
896,1	0,003
896,6	0,003
897	0,003
897,4	0,004
897,8	0,003
898,3	0,003
898,7	0,003
899,1	0,002
899,5	0,002
900	0,002
900,4	0,002
900,8	0,002
901,2	0,001
901,7	0,001
902,1	0,002
902,5	0,002
902,9	0,002
903,4	0,002
903,8	0,003
904,2	0,003
904,6	0,003
905,1	0,004
905,5	0,003
905,9	0,003
906,3	0,003
906,8	0,004
907,2	0,004
907,6	0,004
908	0,005
908,5	0,005
908,9	0,005
909,3	0,005
909,7	0,005
910,2	0,005
910,6	0,004
911	0,004
911,4	0,004
911,9	0,004
912,3	0,004
912,7	0,004
913,1	0,003
913,6	0,003
914	0,003
914,4	0,002
914,8	0,002
915,3	0,002
915,7	0,002
916,1	0,002
916,5	0,002
916,9	0,002
917,4	0,002
917,8	0,002
918,2	0,002
918,6	0,002
919,1	0,002
919,5	0,002
919,9	0,002
920,3	0,003
920,8	0,002
921,2	0,003
921,6	0,003
922	0,003
922,5	0,003
922,9	0,004
923,3	0,004
923,7	0,004
924,2	0,004
924,6	0,004
925	0,004
925,4	0,003
925,8	0,003
926,3	0,003
926,7	0,003
927,1	0,003
927,5	0,002
928	0,002
928,4	0,003
928,8	0,002
929,2	0,002
929,7	0,002
930,1	0,002
930,5	0,002
930,9	0,001
931,3	0,001
931,8	0,001
932,2	0,001
932,6	0,002
933	0,002
933,5	0,002
933,9	0,002
934,3	0,002
934,7	0,002
935,2	0,002
935,6	0,002
936	0,002
936,4	0,001
936,8	0,001
937,3	0
937,7	0,001
938,1	0
938,5	0
939	-0
939,4	-0
939,8	0
940,2	0,001
940,6	0,001
941,1	0,001
941,5	0,001
941,9	0,002
942,3	0,002
942,8	0,002
943,2	0,002
943,6	0,002
944	0,002
944,4	0,002
944,9	0,002
945,3	0,002
945,7	0,001
946,1	0,002
946,6	0,001
947	0,001
947,4	0,001
947,8	0,001
948,2	0,001
948,7	0,001
949,1	0,001
949,5	0,002
949,9	0,001
950,3	0,001
950,8	0,002
951,2	0,002
951,6	0,001
952	0,001
952,5	0,001
952,9	0,001
953,3	0,001
953,7	0
954,1	0
954,6	0
955	-0
955,4	-0,001
955,8	-0
956,2	-0
956,7	-0
957,1	-0
957,5	-0
957,9	0
958,3	0,001
958,8	0,001
959,2	0,001
959,6	0,001
960	0,001
960,5	0,001
960,9	0,001
961,3	0
961,7	0,001
962,1	0,001
962,6	0
963	0
963,4	-0
963,8	0
964,2	0
964,7	0,001
965,1	0,001
965,5	0,001
965,9	0,001
966,3	0,001
966,8	0,001
967,2	0,001
967,6	0,001
968	0,001
968,4	0,001
968,9	0,001
969,3	0,001
969,7	0,001
970,1	0,002
970,5	0,002
971	0,002
971,4	0,003
971,8	0,003
972,2	0,002
972,6	0,002
973,1	0,002
973,5	0,002
973,9	0,002
974,3	0,001
974,7	0,001
975,2	0,001
975,6	0,002
976	0,001
976,4	0,001
976,8	0,001
977,3	0,001
977,7	0,001
978,1	0,001
978,5	0,001
978,9	0,001
979,4	0,001
979,8	0,001
980,2	0,001
980,6	0,001
981	0,001
981,5	0,001
981,9	0,001
982,3	0,001
982,7	0,001
983,1	0,001
983,6	0,001
984	0,001
984,4	0,001
984,8	0,001
985,2	0,001
985,6	0,001
986,1	0,001
986,5	0,001
986,9	0,002
987,3	0,002
987,7	0,002
988,2	0,002
988,6	0,002
989	0,002
989,4	0,002
989,8	0,002
990,3	0,002
990,7	0,003
991,1	0,002
991,5	0,002
991,9	0,002
992,3	0,002
992,8	0,002
993,2	0,002
993,6	0,001
994	0,001
994,4	0,001
994,9	0
995,3	0
995,7	0
996,1	0,001
996,5	0,001
996,9	0,001
997,4	0,001
997,8	0,001
998,2	0,001
998,6	0,001
999	0,001
999,5	0,001
999,9	0,001
1000,3	0,001
1000,7	0,001
1001,1	0,001
1001,5	0,001
1002	0,001
1002,4	0,001
1002,8	0,001
1003,2	0,001
1003,6	0,001
1004	0,002
1004,5	0,002
1004,9	0,002
1005,3	0,001
1005,7	0,002
1006,1	0,002
1006,6	0,002
1007	0,002
1007,4	0,002
1007,8	0,002
1008,2	0,001
1008,6	0,001
1009,1	0,001
1009,5	0,001
1009,9	0,001
1010,3	0,001
1010,7	0,001
1011,1	0,002
1011,6	0,002
1012	0,002
1012,4	0,002
1012,8	0,002
1013,2	0,002
1013,6	0,002
1014,1	0,001
1014,5	0,001
1014,9	0,001
1015,3	0,001
1015,7	0,002
1016,1	0,001
1016,6	0,001
1017	0,001
1017,4	0,001
1017,8	0,001
1018,2	0,001
1018,6	0,001
1019,1	0,002
1019,5	0,001
1019,9	0,002
1020,3	0,003
1020,7	0,003
1021,1	0,003
1021,6	0,003
1022	0,003
1022,4	0,003
1022,8	0,003
1023,2	0,003
1023,6	0,003
1024,1	0,003
1024,5	0,004
1024,9	0,004
1025,3	0,004
1025,7	0,004
1026,1	0,003
1026,6	0,003
1027	0,004
1027,4	0,004
1027,8	0,004
1028,2	0,004
1028,6	0,004
1029	0,005
1029,5	0,005
1029,9	0,004
1030,3	0,004
1030,7	0,004
1031,1	0,003
1031,5	0,003
1032	0,004
1032,4	0,004
1032,8	0,004
1033,2	0,004
1033,6	0,004
1034	0,005
1034,4	0,005
1034,9	0,004
1035,3	0,004
1035,7	0,004
1036,1	0,004
1036,5	0,004
1036,9	0,003
1037,4	0,003
1037,8	0,003
1038,2	0,003
1038,6	0,004
1039	0,003
1039,4	0,003
1039,8	0,004
1040,3	0,004
1040,7	0,004
1041,1	0,004
1041,5	0,004
1041,9	0,004
1042,3	0,004
1042,7	0,004
1043,2	0,003
1043,6	0,002
1044	0,002
1044,4	0,002
1044,8	0,002
1045,2	0,003
1045,6	0,003
1046,1	0,003
1046,5	0,003
1046,9	0,003
1047,3	0,004
1047,7	0,004
1048,1	0,003
1048,5	0,003
1049	0,002
1049,4	0,002
1049,8	0,002
1050,2	0,001
1050,6	0,001
1051	0,001
1051,4	0,002
1051,9	0,003
1052,3	0,003
1052,7	0,003
1053,1	0,003
1053,5	0,003
1053,9	0,003
1054,3	0,003
1054,8	0,002
1055,2	0,002
1055,6	0,002
1056	0,002
1056,4	0,002
1056,8	0,003
1057,2	0,003
1057,6	0,003
1058,1	0,003
1058,5	0,003
1058,9	0,003
1059,3	0,004
1059,7	0,003
1060,1	0,003
1060,5	0,003
1061	0,002
1061,4	0,003
1061,8	0,002
1062,2	0,002
1062,6	0,001
1063	0,002
1063,4	0,002
1063,8	0,002
1064,3	0,002
1064,7	0,003
1065,1	0,002
1065,5	0,003
1065,9	0,002
1066,3	0,003
1066,7	0,003
1067,1	0,002
1067,6	0,002
1068	0,003
1068,4	0,004
1068,8	0,004
1069,2	0,004
1069,6	0,004
1070	0,004
1070,4	0,003
1070,9	0,002
1071,3	0,002
1071,7	0,002
1072,1	0,001
1072,5	0,002
1072,9	0,002
1073,3	0,004
1073,7	0,003
1074,2	0,003
1074,6	0,003
1075	0,003
1075,4	0,003
1075,8	0,003
1076,2	0,002
1076,6	0,002
1077	0,001
1077,5	0
1077,9	0
1078,3	-0
1078,7	-0,001
1079,1	-0
1079,5	-0
1079,9	0,001
1080,3	0,001
1080,7	0,002
1081,2	0,002
1081,6	0,002
1082	0,002
1082,4	0,002
1082,8	0,002
1083,2	0,002
1083,6	0,001
1084	0,002
1084,5	0,002
1084,9	0,001
1085,3	0,003
1085,7	0,003
1086,1	0,003
1086,5	0,004
1086,9	0,004
1087,3	0,003
1087,7	0,002
1088,2	0,001
1088,6	0
1089	0,002
1089,4	0,002
1089,8	-0
1090,2	0
1090,6	0,002
1091	0,002
1091,4	0,004
1091,9	0,001
1092,3	0,002
1092,7	0,004
1093,1	0,007
1093,5	0,003
1093,9	0,002
1094,3	0
1094,7	0,001
1095,1	0
1095,5	0,001
1096	-0
1096,4	0,005
1096,8	0,007
1097,2	0,006
1097,6	0,007
1098	0,006
1098,4	0,003
1098,8	0,003
1099,2	-0,005
1099,6	-0,007
1100,1	-0,006
1100,5	-0,003
1100,9	-0,004
1101,3	-0,004
1101,7	-0,007
1102,1	-0,007
1102,5	-0,003
1102,9	-0,001
1103,3	-0,006
1103,7	-0,007
1104,2	0,005
1104,6	0,008
1105	0,013
1105,4	0,009
1105,8	0,017
1106,2	0,034
1106,6	0,043
1107	0,009
1107,4	0,001
1107,8	0,034
1108,3	-0,862
