Data from Absorbance_00003.txt Node
Date: Fri Jul 14 16:17:19 MSK 2023
User: vat
Spectrometer: MAYP114033
Trigger mode: 0
Integration Time (sec): 8,000000E-3
Scans to average: 20
Electric dark correction enabled: true
Nonlinearity correction enabled: false
Boxcar width: 3
XAxis mode: Wavelengths
Number of Pixels in Spectrum: 2068
>>>>>Begin Spectral Data<<<<<
199,4	0,75
199,9	-0
200,4	-0,416
200,8	-0,214
201,3	-0,075
201,8	-0,076
202,2	-0,06
202,7	-0,051
203,2	-0,029
203,6	-0,014
204,1	-0,013
204,6	-0,009
205	0,001
205,5	-0,014
206	-0,027
206,4	-0,034
206,9	-0,047
207,4	-0,056
207,8	-0,054
208,3	-0,038
208,8	-0,023
209,2	-0,027
209,7	-0,044
210,2	-0,046
210,6	-0,057
211,1	-0,057
211,5	-0,081
212	-0,097
212,5	-0,079
212,9	-0,074
213,4	-0,068
213,9	-0,064
214,3	-0,057
214,8	-0,041
215,3	-0,037
215,7	-0,052
216,2	-0,032
216,7	-0,028
217,1	-0,025
217,6	-0,034
218,1	-0,059
218,5	-0,058
219	-0,039
219,5	-0,042
219,9	-0,058
220,4	-0,041
220,9	-0,03
221,3	-0,008
221,8	0,003
222,3	-0,003
222,7	-0,01
223,2	0,011
223,6	0,008
224,1	0,008
224,6	-0,011
225	-0,001
225,5	0,022
226	0,021
226,4	0,017
226,9	0,025
227,4	0,014
227,8	0,009
228,3	0,003
228,8	-0,025
229,2	-0,04
229,7	-0,047
230,2	-0,041
230,6	-0,046
231,1	-0,021
231,5	-0,026
232	-0,032
232,5	-0,023
232,9	-0,019
233,4	-0,02
233,9	-0,009
234,3	-0,019
234,8	-0,007
235,3	0,004
235,7	0,017
236,2	0,01
236,7	0,007
237,1	0,012
237,6	0,019
238,1	0,019
238,5	0,04
239	0,041
239,4	0,06
239,9	0,053
240,4	0,066
240,8	0,058
241,3	0,057
241,8	0,036
242,2	0,042
242,7	0,049
243,2	0,066
243,6	0,042
244,1	0,073
244,6	0,091
245	0,112
245,5	0,125
245,9	0,144
246,4	0,159
246,9	0,184
247,3	0,205
247,8	0,224
248,3	0,245
248,7	0,291
249,2	0,271
249,7	0,284
250,1	0,324
250,6	0,349
251	0,374
251,5	0,397
252	0,418
252,4	0,498
252,9	0,567
253,4	0,637
253,8	0,7
254,3	0,759
254,8	0,837
255,2	0,906
255,7	0,974
256,1	1,049
256,6	1,106
257,1	1,165
257,5	1,242
258	1,284
258,5	1,33
258,9	1,385
259,4	1,424
259,9	1,448
260,3	1,469
260,8	1,489
261,2	1,521
261,7	1,535
262,2	1,552
262,6	1,561
263,1	1,58
263,6	1,604
264	1,631
264,5	1,642
264,9	1,669
265,4	1,682
265,9	1,72
266,3	1,747
266,8	1,744
267,3	1,755
267,7	1,785
268,2	1,783
268,7	1,803
269,1	1,805
269,6	1,803
270	1,829
270,5	1,84
271	1,841
271,4	1,863
271,9	1,882
272,4	1,876
272,8	1,893
273,3	1,896
273,7	1,895
274,2	1,909
274,7	1,908
275,1	1,912
275,6	1,923
276,1	1,912
276,5	1,916
277	1,921
277,4	1,904
277,9	1,904
278,4	1,871
278,8	1,854
279,3	1,841
279,8	1,821
280,2	1,784
280,7	1,746
281,1	1,7
281,6	1,65
282,1	1,594
282,5	1,535
283	1,47
283,4	1,407
283,9	1,349
284,4	1,291
284,8	1,235
285,3	1,181
285,8	1,131
286,2	1,087
286,7	1,046
287,1	1,01
287,6	0,977
288,1	0,947
288,5	0,924
289	0,902
289,5	0,883
289,9	0,868
290,4	0,854
290,8	0,844
291,3	0,835
291,8	0,825
292,2	0,82
292,7	0,814
293,1	0,807
293,6	0,803
294,1	0,798
294,5	0,794
295	0,791
295,5	0,786
295,9	0,783
296,4	0,78
296,8	0,777
297,3	0,773
297,8	0,77
298,2	0,767
298,7	0,765
299,1	0,762
299,6	0,761
300,1	0,758
300,5	0,755
301	0,75
301,5	0,747
301,9	0,744
302,4	0,74
302,8	0,736
303,3	0,732
303,8	0,727
304,2	0,725
304,7	0,721
305,1	0,717
305,6	0,713
306,1	0,708
306,5	0,705
307	0,701
307,4	0,697
307,9	0,693
308,4	0,688
308,8	0,684
309,3	0,679
309,8	0,674
310,2	0,669
310,7	0,664
311,1	0,659
311,6	0,653
312,1	0,647
312,5	0,642
313	0,637
313,4	0,63
313,9	0,625
314,4	0,619
314,8	0,614
315,3	0,607
315,7	0,601
316,2	0,594
316,7	0,589
317,1	0,582
317,6	0,576
318	0,571
318,5	0,565
319	0,559
319,4	0,553
319,9	0,548
320,3	0,541
320,8	0,535
321,3	0,529
321,7	0,523
322,2	0,517
322,6	0,51
323,1	0,503
323,6	0,497
324	0,491
324,5	0,485
324,9	0,479
325,4	0,473
325,9	0,468
326,3	0,462
326,8	0,456
327,2	0,45
327,7	0,444
328,2	0,438
328,6	0,431
329,1	0,425
329,5	0,419
330	0,413
330,5	0,407
330,9	0,402
331,4	0,396
331,8	0,391
332,3	0,385
332,8	0,38
333,2	0,374
333,7	0,368
334,1	0,363
334,6	0,356
335,1	0,351
335,5	0,346
336	0,341
336,4	0,335
336,9	0,329
337,4	0,324
337,8	0,32
338,3	0,314
338,7	0,309
339,2	0,304
339,7	0,299
340,1	0,294
340,6	0,289
341	0,283
341,5	0,279
342	0,274
342,4	0,27
342,9	0,266
343,3	0,261
343,8	0,257
344,2	0,253
344,7	0,249
345,2	0,244
345,6	0,24
346,1	0,236
346,5	0,232
347	0,228
347,5	0,224
347,9	0,221
348,4	0,217
348,8	0,213
349,3	0,21
349,8	0,206
350,2	0,202
350,7	0,199
351,1	0,195
351,6	0,192
352	0,188
352,5	0,185
353	0,181
353,4	0,178
353,9	0,175
354,3	0,172
354,8	0,169
355,3	0,166
355,7	0,163
356,2	0,16
356,6	0,157
357,1	0,155
357,5	0,152
358	0,149
358,5	0,146
358,9	0,143
359,4	0,141
359,8	0,139
360,3	0,137
360,8	0,134
361,2	0,131
361,7	0,129
362,1	0,127
362,6	0,124
363	0,122
363,5	0,119
364	0,118
364,4	0,116
364,9	0,114
365,3	0,112
365,8	0,111
366,3	0,109
366,7	0,107
367,2	0,105
367,6	0,103
368,1	0,102
368,5	0,101
369	0,099
369,5	0,097
369,9	0,096
370,4	0,094
370,8	0,092
371,3	0,09
371,7	0,089
372,2	0,087
372,7	0,086
373,1	0,084
373,6	0,083
374	0,082
374,5	0,081
374,9	0,079
375,4	0,078
375,9	0,077
376,3	0,076
376,8	0,075
377,2	0,073
377,7	0,071
378,2	0,071
378,6	0,07
379,1	0,069
379,5	0,067
380	0,066
380,4	0,065
380,9	0,065
381,4	0,063
381,8	0,062
382,3	0,06
382,7	0,06
383,2	0,058
383,6	0,057
384,1	0,056
384,6	0,056
385	0,055
385,5	0,055
385,9	0,054
386,4	0,053
386,8	0,053
387,3	0,052
387,7	0,051
388,2	0,05
388,7	0,049
389,1	0,048
389,6	0,047
390	0,047
390,5	0,046
390,9	0,045
391,4	0,044
391,9	0,044
392,3	0,043
392,8	0,042
393,2	0,041
393,7	0,04
394,1	0,039
394,6	0,038
395,1	0,037
395,5	0,037
396	0,036
396,4	0,035
396,9	0,035
397,3	0,034
397,8	0,034
398,2	0,033
398,7	0,032
399,2	0,032
399,6	0,031
400,1	0,031
400,5	0,031
401	0,03
401,4	0,029
401,9	0,029
402,4	0,029
402,8	0,028
403,3	0,028
403,7	0,027
404,2	0,028
404,6	0,027
405,1	0,026
405,5	0,026
406	0,025
406,5	0,025
406,9	0,025
407,4	0,024
407,8	0,023
408,3	0,023
408,7	0,022
409,2	0,022
409,6	0,022
410,1	0,021
410,6	0,021
411	0,02
411,5	0,02
411,9	0,02
412,4	0,02
412,8	0,019
413,3	0,019
413,7	0,019
414,2	0,019
414,7	0,018
415,1	0,017
415,6	0,017
416	0,017
416,5	0,016
416,9	0,015
417,4	0,015
417,8	0,016
418,3	0,016
418,8	0,015
419,2	0,015
419,7	0,014
420,1	0,014
420,6	0,013
421	0,013
421,5	0,011
421,9	0,011
422,4	0,011
422,8	0,011
423,3	0,011
423,8	0,01
424,2	0,01
424,7	0,01
425,1	0,01
425,6	0,01
426	0,01
426,5	0,009
426,9	0,008
427,4	0,008
427,9	0,007
428,3	0,007
428,8	0,007
429,2	0,007
429,7	0,007
430,1	0,007
430,6	0,007
431	0,007
431,5	0,006
431,9	0,005
432,4	0,005
432,8	0,004
433,3	0,004
433,8	0,004
434,2	0,004
434,7	0,004
435,1	0,003
435,6	0,003
436	0,004
436,5	0,004
436,9	0,003
437,4	0,003
437,8	0,003
438,3	0,003
438,8	0,003
439,2	0,003
439,7	0,003
440,1	0,003
440,6	0,003
441	0,002
441,5	0,002
441,9	0,002
442,4	0,001
442,8	0,001
443,3	0,001
443,7	0
444,2	0
444,7	0
445,1	0
445,6	0,001
446	0
446,5	0
446,9	0
447,4	0,001
447,8	0
448,3	0,001
448,7	0
449,2	0
449,6	0
450,1	0
450,6	-0
451	-0
451,5	-0,001
451,9	-0,001
452,4	-0,001
452,8	-0,001
453,3	-0,001
453,7	-0,001
454,2	-0,002
454,6	-0,002
455,1	-0,002
455,5	-0,001
456	-0,002
456,4	-0,002
456,9	-0,002
457,3	-0,002
457,8	-0,003
458,3	-0,003
458,7	-0,003
459,2	-0,003
459,6	-0,003
460,1	-0,002
460,5	-0,002
461	-0,002
461,4	-0,003
461,9	-0,003
462,3	-0,003
462,8	-0,003
463,2	-0,003
463,7	-0,004
464,1	-0,004
464,6	-0,003
465	-0,003
465,5	-0,003
466	-0,003
466,4	-0,003
466,9	-0,002
467,3	-0,003
467,8	-0,003
468,2	-0,003
468,7	-0,003
469,1	-0,003
469,6	-0,003
470	-0,003
470,5	-0,002
470,9	-0,002
471,4	-0,002
471,8	-0,003
472,3	-0,003
472,7	-0,003
473,2	-0,003
473,6	-0,003
474,1	-0,004
474,5	-0,004
475	-0,004
475,4	-0,005
475,9	-0,005
476,4	-0,004
476,8	-0,004
477,3	-0,004
477,7	-0,004
478,2	-0,003
478,6	-0,003
479,1	-0,003
479,5	-0,004
480	-0,004
480,4	-0,004
480,9	-0,004
481,3	-0,004
481,8	-0,004
482,2	-0,004
482,7	-0,004
483,1	-0,004
483,6	-0,004
484	-0,004
484,5	-0,005
484,9	-0,005
485,4	-0,005
485,8	-0,006
486,3	-0,004
486,7	-0,004
487,2	-0,004
487,6	-0,004
488,1	-0,003
488,5	-0,003
489	-0,002
489,4	-0,003
489,9	-0,004
490,4	-0,004
490,8	-0,003
491,3	-0,004
491,7	-0,004
492,2	-0,004
492,6	-0,004
493,1	-0,004
493,5	-0,005
494	-0,005
494,4	-0,005
494,9	-0,005
495,3	-0,005
495,8	-0,005
496,2	-0,005
496,7	-0,005
497,1	-0,005
497,6	-0,005
498	-0,005
498,5	-0,005
498,9	-0,005
499,4	-0,006
499,8	-0,005
500,3	-0,005
500,7	-0,005
501,2	-0,005
501,6	-0,004
502,1	-0,004
502,5	-0,004
503	-0,004
503,4	-0,004
503,9	-0,004
504,3	-0,004
504,8	-0,004
505,2	-0,004
505,7	-0,004
506,1	-0,004
506,6	-0,004
507	-0,004
507,5	-0,004
507,9	-0,004
508,4	-0,004
508,8	-0,004
509,3	-0,004
509,7	-0,004
510,2	-0,004
510,6	-0,004
511,1	-0,005
511,5	-0,005
512	-0,004
512,4	-0,005
512,9	-0,005
513,3	-0,005
513,8	-0,006
514,2	-0,006
514,7	-0,005
515,1	-0,006
515,6	-0,005
516	-0,005
516,5	-0,005
516,9	-0,005
517,4	-0,005
517,8	-0,004
518,3	-0,005
518,7	-0,005
519,2	-0,005
519,6	-0,004
520,1	-0,004
520,5	-0,005
521	-0,005
521,4	-0,005
521,9	-0,004
522,3	-0,004
522,8	-0,004
523,2	-0,004
523,7	-0,004
524,1	-0,004
524,6	-0,004
525	-0,005
525,5	-0,006
525,9	-0,006
526,4	-0,007
526,8	-0,007
527,3	-0,007
527,7	-0,006
528,2	-0,006
528,6	-0,006
529,1	-0,006
529,5	-0,006
530	-0,006
530,4	-0,005
530,9	-0,005
531,3	-0,005
531,8	-0,005
532,2	-0,004
532,6	-0,005
533,1	-0,005
533,5	-0,005
534	-0,005
534,4	-0,005
534,9	-0,005
535,3	-0,005
535,8	-0,005
536,2	-0,004
536,7	-0,004
537,1	-0,004
537,6	-0,004
538	-0,004
538,5	-0,004
538,9	-0,004
539,4	-0,004
539,8	-0,004
540,3	-0,005
540,7	-0,005
541,2	-0,005
541,6	-0,005
542,1	-0,005
542,5	-0,005
543	-0,005
543,4	-0,005
543,9	-0,005
544,3	-0,005
544,8	-0,005
545,2	-0,005
545,7	-0,005
546,1	-0,005
546,5	-0,005
547	-0,005
547,4	-0,006
547,9	-0,005
548,3	-0,005
548,8	-0,005
549,2	-0,004
549,7	-0,004
550,1	-0,004
550,6	-0,004
551	-0,004
551,5	-0,004
551,9	-0,004
552,4	-0,005
552,8	-0,005
553,3	-0,005
553,7	-0,005
554,2	-0,005
554,6	-0,005
555,1	-0,005
555,5	-0,005
555,9	-0,004
556,4	-0,004
556,8	-0,004
557,3	-0,004
557,7	-0,004
558,2	-0,005
558,6	-0,005
559,1	-0,005
559,5	-0,005
560	-0,004
560,4	-0,004
560,9	-0,003
561,3	-0,003
561,8	-0,003
562,2	-0,003
562,7	-0,003
563,1	-0,003
563,6	-0,004
564	-0,004
564,4	-0,004
564,9	-0,004
565,3	-0,004
565,8	-0,004
566,2	-0,005
566,7	-0,005
567,1	-0,005
567,6	-0,006
568	-0,006
568,5	-0,006
568,9	-0,006
569,4	-0,006
569,8	-0,005
570,3	-0,005
570,7	-0,005
571,1	-0,005
571,6	-0,004
572	-0,004
572,5	-0,004
572,9	-0,004
573,4	-0,005
573,8	-0,005
574,3	-0,005
574,7	-0,005
575,2	-0,005
575,6	-0,005
576,1	-0,005
576,5	-0,004
576,9	-0,004
577,4	-0,005
577,8	-0,005
578,3	-0,005
578,7	-0,004
579,2	-0,004
579,6	-0,004
580,1	-0,004
580,5	-0,004
581	-0,005
581,4	-0,005
581,9	-0,005
582,3	-0,005
582,7	-0,005
583,2	-0,005
583,6	-0,004
584,1	-0,004
584,5	-0,004
585	-0,004
585,4	-0,004
585,9	-0,004
586,3	-0,004
586,8	-0,004
587,2	-0,004
587,6	-0,004
588,1	-0,004
588,5	-0,004
589	-0,004
589,4	-0,004
589,9	-0,003
590,3	-0,003
590,8	-0,003
591,2	-0,004
591,7	-0,004
592,1	-0,004
592,5	-0,004
593	-0,005
593,4	-0,004
593,9	-0,005
594,3	-0,004
594,8	-0,005
595,2	-0,005
595,7	-0,004
596,1	-0,004
596,6	-0,005
597	-0,005
597,4	-0,005
597,9	-0,005
598,3	-0,005
598,8	-0,005
599,2	-0,005
599,7	-0,005
600,1	-0,005
600,6	-0,004
601	-0,004
601,4	-0,004
601,9	-0,004
602,3	-0,004
602,8	-0,004
603,2	-0,004
603,7	-0,004
604,1	-0,004
604,6	-0,004
605	-0,005
605,4	-0,004
605,9	-0,004
606,3	-0,004
606,8	-0,004
607,2	-0,004
607,7	-0,005
608,1	-0,004
608,6	-0,004
609	-0,005
609,4	-0,005
609,9	-0,005
610,3	-0,005
610,8	-0,004
611,2	-0,005
611,7	-0,005
612,1	-0,004
612,6	-0,004
613	-0,004
613,4	-0,004
613,9	-0,004
614,3	-0,004
614,8	-0,004
615,2	-0,004
615,7	-0,004
616,1	-0,004
616,6	-0,004
617	-0,004
617,4	-0,004
617,9	-0,004
618,3	-0,004
618,8	-0,004
619,2	-0,004
619,7	-0,004
620,1	-0,005
620,5	-0,005
621	-0,005
621,4	-0,005
621,9	-0,005
622,3	-0,005
622,8	-0,005
623,2	-0,005
623,6	-0,005
624,1	-0,004
624,5	-0,004
625	-0,004
625,4	-0,004
625,9	-0,004
626,3	-0,004
626,8	-0,004
627,2	-0,004
627,6	-0,004
628,1	-0,004
628,5	-0,005
629	-0,005
629,4	-0,004
629,9	-0,004
630,3	-0,004
630,7	-0,004
631,2	-0,004
631,6	-0,004
632,1	-0,004
632,5	-0,004
633	-0,004
633,4	-0,004
633,8	-0,004
634,3	-0,004
634,7	-0,004
635,2	-0,004
635,6	-0,004
636,1	-0,005
636,5	-0,005
636,9	-0,005
637,4	-0,005
637,8	-0,005
638,3	-0,005
638,7	-0,004
639,2	-0,004
639,6	-0,004
640	-0,004
640,5	-0,004
640,9	-0,005
641,4	-0,005
641,8	-0,005
642,2	-0,005
642,7	-0,005
643,1	-0,005
643,6	-0,005
644	-0,005
644,5	-0,005
644,9	-0,005
645,3	-0,005
645,8	-0,006
646,2	-0,006
646,7	-0,006
647,1	-0,006
647,6	-0,006
648	-0,006
648,4	-0,006
648,9	-0,006
649,3	-0,006
649,8	-0,006
650,2	-0,006
650,6	-0,005
651,1	-0,005
651,5	-0,005
652	-0,005
652,4	-0,005
652,9	-0,005
653,3	-0,005
653,7	-0,006
654,2	-0,006
654,6	-0,007
655,1	-0,009
655,5	-0,012
655,9	-0,007
656,4	-0,005
656,8	-0,003
657,3	-0,003
657,7	-0,002
658,2	-0,001
658,6	0,001
659	0,001
659,5	0,001
659,9	0,001
660,4	-0,002
660,8	-0,003
661,2	-0,003
661,7	-0,004
662,1	-0,005
662,6	-0,005
663	-0,005
663,4	-0,005
663,9	-0,006
664,3	-0,005
664,8	-0,005
665,2	-0,005
665,6	-0,005
666,1	-0,004
666,5	-0,004
667	-0,004
667,4	-0,004
667,9	-0,005
668,3	-0,005
668,7	-0,005
669,2	-0,005
669,6	-0,005
670,1	-0,005
670,5	-0,005
670,9	-0,005
671,4	-0,005
671,8	-0,005
672,3	-0,005
672,7	-0,005
673,1	-0,005
673,6	-0,005
674	-0,005
674,5	-0,005
674,9	-0,005
675,3	-0,005
675,8	-0,005
676,2	-0,005
676,7	-0,005
677,1	-0,005
677,5	-0,005
678	-0,005
678,4	-0,005
678,9	-0,005
679,3	-0,005
679,7	-0,005
680,2	-0,006
680,6	-0,006
681,1	-0,005
681,5	-0,005
681,9	-0,005
682,4	-0,005
682,8	-0,005
683,3	-0,004
683,7	-0,004
684,1	-0,004
684,6	-0,004
685	-0,004
685,5	-0,005
685,9	-0,005
686,3	-0,005
686,8	-0,005
687,2	-0,005
687,7	-0,005
688,1	-0,005
688,5	-0,005
689	-0,005
689,4	-0,005
689,9	-0,005
690,3	-0,005
690,7	-0,005
691,2	-0,004
691,6	-0,004
692	-0,003
692,5	-0,004
692,9	-0,003
693,4	-0,004
693,8	-0,003
694,2	-0,004
694,7	-0,004
695,1	-0,004
695,6	-0,004
696	-0,004
696,4	-0,004
696,9	-0,004
697,3	-0,004
697,8	-0,004
698,2	-0,004
698,6	-0,005
699,1	-0,005
699,5	-0,005
699,9	-0,005
700,4	-0,005
700,8	-0,005
701,3	-0,005
701,7	-0,005
702,1	-0,005
702,6	-0,005
703	-0,005
703,5	-0,005
703,9	-0,005
704,3	-0,005
704,8	-0,005
705,2	-0,005
705,6	-0,005
706,1	-0,004
706,5	-0,005
707	-0,005
707,4	-0,004
707,8	-0,005
708,3	-0,005
708,7	-0,005
709,2	-0,005
709,6	-0,004
710	-0,004
710,5	-0,005
710,9	-0,005
711,3	-0,004
711,8	-0,004
712,2	-0,004
712,7	-0,004
713,1	-0,005
713,5	-0,005
714	-0,005
714,4	-0,006
714,8	-0,006
715,3	-0,006
715,7	-0,006
716,2	-0,006
716,6	-0,005
717	-0,005
717,5	-0,005
717,9	-0,005
718,3	-0,005
718,8	-0,005
719,2	-0,004
719,7	-0,004
720,1	-0,005
720,5	-0,005
721	-0,005
721,4	-0,005
721,8	-0,005
722,3	-0,005
722,7	-0,005
723,2	-0,005
723,6	-0,005
724	-0,005
724,5	-0,005
724,9	-0,005
725,3	-0,005
725,8	-0,005
726,2	-0,005
726,7	-0,005
727,1	-0,005
727,5	-0,005
728	-0,005
728,4	-0,005
728,8	-0,005
729,3	-0,005
729,7	-0,005
730,1	-0,005
730,6	-0,005
731	-0,005
731,5	-0,005
731,9	-0,005
732,3	-0,005
732,8	-0,004
733,2	-0,004
733,6	-0,004
734,1	-0,004
734,5	-0,004
734,9	-0,004
735,4	-0,004
735,8	-0,004
736,3	-0,004
736,7	-0,005
737,1	-0,005
737,6	-0,005
738	-0,005
738,4	-0,005
738,9	-0,005
739,3	-0,005
739,7	-0,005
740,2	-0,005
740,6	-0,004
741,1	-0,004
741,5	-0,004
741,9	-0,004
742,4	-0,004
742,8	-0,004
743,2	-0,004
743,7	-0,004
744,1	-0,004
744,5	-0,004
745	-0,004
745,4	-0,005
745,8	-0,004
746,3	-0,005
746,7	-0,005
747,2	-0,005
747,6	-0,005
748	-0,005
748,5	-0,005
748,9	-0,005
749,3	-0,005
749,8	-0,005
750,2	-0,005
750,6	-0,005
751,1	-0,004
751,5	-0,004
751,9	-0,004
752,4	-0,004
752,8	-0,004
753,3	-0,005
753,7	-0,004
754,1	-0,005
754,6	-0,004
755	-0,004
755,4	-0,004
755,9	-0,004
756,3	-0,004
756,7	-0,004
757,2	-0,004
757,6	-0,004
758	-0,004
758,5	-0,004
758,9	-0,004
759,3	-0,004
759,8	-0,004
760,2	-0,004
760,6	-0,004
761,1	-0,004
761,5	-0,004
761,9	-0,004
762,4	-0,004
762,8	-0,004
763,3	-0,004
763,7	-0,004
764,1	-0,004
764,6	-0,004
765	-0,005
765,4	-0,005
765,9	-0,005
766,3	-0,005
766,7	-0,005
767,2	-0,005
767,6	-0,005
768	-0,006
768,5	-0,005
768,9	-0,006
769,3	-0,005
769,8	-0,005
770,2	-0,005
770,6	-0,004
771,1	-0,004
771,5	-0,004
771,9	-0,004
772,4	-0,004
772,8	-0,004
773,2	-0,004
773,7	-0,004
774,1	-0,004
774,5	-0,004
775	-0,004
775,4	-0,004
775,8	-0,004
776,3	-0,004
776,7	-0,004
777,1	-0,004
777,6	-0,004
778	-0,004
778,4	-0,004
778,9	-0,005
779,3	-0,005
779,7	-0,005
780,2	-0,005
780,6	-0,005
781	-0,005
781,5	-0,005
781,9	-0,005
782,3	-0,005
782,8	-0,005
783,2	-0,005
783,6	-0,005
784,1	-0,005
784,5	-0,005
784,9	-0,005
785,4	-0,005
785,8	-0,005
786,2	-0,005
786,7	-0,004
787,1	-0,004
787,5	-0,004
788	-0,004
788,4	-0,004
788,8	-0,004
789,3	-0,004
789,7	-0,005
790,1	-0,005
790,6	-0,005
791	-0,005
791,4	-0,004
791,9	-0,004
792,3	-0,004
792,7	-0,004
793,2	-0,004
793,6	-0,004
794	-0,004
794,5	-0,004
794,9	-0,004
795,3	-0,004
795,8	-0,003
796,2	-0,003
796,6	-0,003
797,1	-0,003
797,5	-0,003
797,9	-0,003
798,4	-0,003
798,8	-0,003
799,2	-0,004
799,7	-0,004
800,1	-0,004
800,5	-0,004
801	-0,004
801,4	-0,004
801,8	-0,004
802,2	-0,004
802,7	-0,004
803,1	-0,004
803,5	-0,004
804	-0,004
804,4	-0,004
804,8	-0,004
805,3	-0,004
805,7	-0,004
806,1	-0,004
806,6	-0,004
807	-0,004
807,4	-0,004
807,9	-0,004
808,3	-0,004
808,7	-0,005
809,2	-0,005
809,6	-0,005
810	-0,004
810,4	-0,005
810,9	-0,005
811,3	-0,005
811,7	-0,005
812,2	-0,005
812,6	-0,005
813	-0,005
813,5	-0,005
813,9	-0,005
814,3	-0,006
814,8	-0,005
815,2	-0,006
815,6	-0,006
816,1	-0,006
816,5	-0,006
816,9	-0,006
817,3	-0,005
817,8	-0,006
818,2	-0,005
818,6	-0,005
819,1	-0,004
819,5	-0,004
819,9	-0,004
820,4	-0,004
820,8	-0,004
821,2	-0,005
821,7	-0,005
822,1	-0,005
822,5	-0,005
822,9	-0,005
823,4	-0,005
823,8	-0,005
824,2	-0,005
824,7	-0,005
825,1	-0,005
825,5	-0,005
826	-0,005
826,4	-0,005
826,8	-0,005
827,3	-0,005
827,7	-0,005
828,1	-0,006
828,5	-0,006
829	-0,006
829,4	-0,006
829,8	-0,006
830,3	-0,006
830,7	-0,006
831,1	-0,005
831,6	-0,005
832	-0,005
832,4	-0,005
832,8	-0,005
833,3	-0,005
833,7	-0,005
834,1	-0,005
834,6	-0,005
835	-0,004
835,4	-0,004
835,8	-0,004
836,3	-0,004
836,7	-0,004
837,1	-0,004
837,6	-0,004
838	-0,004
838,4	-0,004
838,9	-0,004
839,3	-0,004
839,7	-0,004
840,1	-0,004
840,6	-0,004
841	-0,004
841,4	-0,004
841,9	-0,004
842,3	-0,005
842,7	-0,005
843,1	-0,005
843,6	-0,004
844	-0,004
844,4	-0,004
844,9	-0,004
845,3	-0,004
845,7	-0,004
846,2	-0,004
846,6	-0,004
847	-0,004
847,4	-0,004
847,9	-0,004
848,3	-0,004
848,7	-0,004
849,2	-0,004
849,6	-0,005
850	-0,004
850,4	-0,004
850,9	-0,005
851,3	-0,005
851,7	-0,005
852,2	-0,004
852,6	-0,004
853	-0,004
853,4	-0,005
853,9	-0,005
854,3	-0,005
854,7	-0,005
855,2	-0,005
855,6	-0,005
856	-0,004
856,4	-0,004
856,9	-0,004
857,3	-0,004
857,7	-0,004
858,2	-0,004
858,6	-0,004
859	-0,004
859,4	-0,004
859,9	-0,004
860,3	-0,004
860,7	-0,004
861,1	-0,005
861,6	-0,005
862	-0,005
862,4	-0,005
862,9	-0,005
863,3	-0,005
863,7	-0,005
864,1	-0,005
864,6	-0,006
865	-0,006
865,4	-0,006
865,9	-0,006
866,3	-0,006
866,7	-0,006
867,1	-0,006
867,6	-0,006
868	-0,006
868,4	-0,006
868,8	-0,006
869,3	-0,006
869,7	-0,005
870,1	-0,005
870,6	-0,005
871	-0,005
871,4	-0,005
871,8	-0,005
872,3	-0,005
872,7	-0,005
873,1	-0,005
873,5	-0,005
874	-0,005
874,4	-0,005
874,8	-0,005
875,3	-0,006
875,7	-0,006
876,1	-0,006
876,5	-0,005
877	-0,005
877,4	-0,005
877,8	-0,005
878,2	-0,005
878,7	-0,005
879,1	-0,006
879,5	-0,006
879,9	-0,006
880,4	-0,006
880,8	-0,006
881,2	-0,006
881,7	-0,006
882,1	-0,006
882,5	-0,005
882,9	-0,005
883,4	-0,005
883,8	-0,005
884,2	-0,005
884,6	-0,005
885,1	-0,005
885,5	-0,006
885,9	-0,006
886,3	-0,006
886,8	-0,007
887,2	-0,007
887,6	-0,007
888	-0,007
888,5	-0,007
888,9	-0,007
889,3	-0,006
889,8	-0,006
890,2	-0,006
890,6	-0,006
891	-0,006
891,5	-0,006
891,9	-0,006
892,3	-0,006
892,7	-0,006
893,2	-0,005
893,6	-0,005
894	-0,005
894,4	-0,005
894,9	-0,004
895,3	-0,004
895,7	-0,004
896,1	-0,004
896,6	-0,004
897	-0,005
897,4	-0,004
897,8	-0,004
898,3	-0,005
898,7	-0,004
899,1	-0,004
899,5	-0,004
900	-0,004
900,4	-0,004
900,8	-0,004
901,2	-0,004
901,7	-0,004
902,1	-0,005
902,5	-0,005
902,9	-0,005
903,4	-0,005
903,8	-0,005
904,2	-0,005
904,6	-0,005
905,1	-0,005
905,5	-0,005
905,9	-0,005
906,3	-0,005
906,8	-0,005
907,2	-0,005
907,6	-0,005
908	-0,005
908,5	-0,005
908,9	-0,005
909,3	-0,005
909,7	-0,006
910,2	-0,006
910,6	-0,005
911	-0,005
911,4	-0,005
911,9	-0,006
912,3	-0,005
912,7	-0,005
913,1	-0,005
913,6	-0,005
914	-0,005
914,4	-0,005
914,8	-0,005
915,3	-0,005
915,7	-0,005
916,1	-0,005
916,5	-0,005
916,9	-0,005
917,4	-0,005
917,8	-0,004
918,2	-0,005
918,6	-0,005
919,1	-0,005
919,5	-0,005
919,9	-0,005
920,3	-0,005
920,8	-0,005
921,2	-0,005
921,6	-0,005
922	-0,005
922,5	-0,005
922,9	-0,005
923,3	-0,004
923,7	-0,004
924,2	-0,004
924,6	-0,004
925	-0,005
925,4	-0,005
925,8	-0,005
926,3	-0,005
926,7	-0,005
927,1	-0,005
927,5	-0,005
928	-0,005
928,4	-0,005
928,8	-0,005
929,2	-0,005
929,7	-0,005
930,1	-0,004
930,5	-0,005
930,9	-0,004
931,3	-0,004
931,8	-0,004
932,2	-0,004
932,6	-0,004
933	-0,003
933,5	-0,003
933,9	-0,003
934,3	-0,003
934,7	-0,003
935,2	-0,003
935,6	-0,004
936	-0,004
936,4	-0,004
936,8	-0,004
937,3	-0,004
937,7	-0,004
938,1	-0,005
938,5	-0,005
939	-0,005
939,4	-0,005
939,8	-0,006
940,2	-0,005
940,6	-0,005
941,1	-0,006
941,5	-0,006
941,9	-0,006
942,3	-0,006
942,8	-0,006
943,2	-0,006
943,6	-0,005
944	-0,006
944,4	-0,006
944,9	-0,006
945,3	-0,006
945,7	-0,006
946,1	-0,006
946,6	-0,006
947	-0,006
947,4	-0,005
947,8	-0,005
948,2	-0,005
948,7	-0,005
949,1	-0,005
949,5	-0,005
949,9	-0,005
950,3	-0,005
950,8	-0,006
951,2	-0,006
951,6	-0,006
952	-0,006
952,5	-0,006
952,9	-0,007
953,3	-0,007
953,7	-0,007
954,1	-0,007
954,6	-0,007
955	-0,007
955,4	-0,008
955,8	-0,007
956,2	-0,007
956,7	-0,007
957,1	-0,008
957,5	-0,007
957,9	-0,007
958,3	-0,007
958,8	-0,007
959,2	-0,007
959,6	-0,007
960	-0,006
960,5	-0,006
960,9	-0,007
961,3	-0,007
961,7	-0,007
962,1	-0,007
962,6	-0,007
963	-0,007
963,4	-0,007
963,8	-0,007
964,2	-0,007
964,7	-0,007
965,1	-0,007
965,5	-0,006
965,9	-0,006
966,3	-0,006
966,8	-0,006
967,2	-0,006
967,6	-0,006
968	-0,006
968,4	-0,006
968,9	-0,007
969,3	-0,007
969,7	-0,007
970,1	-0,007
970,5	-0,007
971	-0,007
971,4	-0,007
971,8	-0,007
972,2	-0,007
972,6	-0,008
973,1	-0,007
973,5	-0,008
973,9	-0,007
974,3	-0,007
974,7	-0,007
975,2	-0,006
975,6	-0,006
976	-0,006
976,4	-0,006
976,8	-0,006
977,3	-0,006
977,7	-0,006
978,1	-0,006
978,5	-0,007
978,9	-0,007
979,4	-0,007
979,8	-0,007
980,2	-0,007
980,6	-0,007
981	-0,008
981,5	-0,008
981,9	-0,008
982,3	-0,008
982,7	-0,008
983,1	-0,008
983,6	-0,008
984	-0,007
984,4	-0,007
984,8	-0,007
985,2	-0,006
985,6	-0,006
986,1	-0,006
986,5	-0,005
986,9	-0,005
987,3	-0,005
987,7	-0,005
988,2	-0,005
988,6	-0,005
989	-0,005
989,4	-0,005
989,8	-0,005
990,3	-0,005
990,7	-0,005
991,1	-0,005
991,5	-0,004
991,9	-0,004
992,3	-0,004
992,8	-0,004
993,2	-0,005
993,6	-0,005
994	-0,005
994,4	-0,006
994,9	-0,006
995,3	-0,005
995,7	-0,005
996,1	-0,005
996,5	-0,005
996,9	-0,005
997,4	-0,006
997,8	-0,006
998,2	-0,007
998,6	-0,007
999	-0,006
999,5	-0,006
999,9	-0,006
1000,3	-0,006
1000,7	-0,006
1001,1	-0,006
1001,5	-0,005
1002	-0,006
1002,4	-0,005
1002,8	-0,004
1003,2	-0,004
1003,6	-0,003
1004	-0,003
1004,5	-0,004
1004,9	-0,003
1005,3	-0,004
1005,7	-0,004
1006,1	-0,004
1006,6	-0,004
1007	-0,004
1007,4	-0,004
1007,8	-0,004
1008,2	-0,003
1008,6	-0,004
1009,1	-0,004
1009,5	-0,003
1009,9	-0,004
1010,3	-0,004
1010,7	-0,004
1011,1	-0,004
1011,6	-0,004
1012	-0,004
1012,4	-0,005
1012,8	-0,004
1013,2	-0,004
1013,6	-0,004
1014,1	-0,005
1014,5	-0,005
1014,9	-0,005
1015,3	-0,005
1015,7	-0,005
1016,1	-0,005
1016,6	-0,004
1017	-0,004
1017,4	-0,004
1017,8	-0,005
1018,2	-0,005
1018,6	-0,005
1019,1	-0,005
1019,5	-0,005
1019,9	-0,005
1020,3	-0,005
1020,7	-0,004
1021,1	-0,005
1021,6	-0,005
1022	-0,005
1022,4	-0,006
1022,8	-0,006
1023,2	-0,006
1023,6	-0,006
1024,1	-0,006
1024,5	-0,006
1024,9	-0,006
1025,3	-0,006
1025,7	-0,006
1026,1	-0,006
1026,6	-0,007
1027	-0,007
1027,4	-0,007
1027,8	-0,007
1028,2	-0,007
1028,6	-0,007
1029	-0,007
1029,5	-0,007
1029,9	-0,007
1030,3	-0,007
1030,7	-0,007
1031,1	-0,007
1031,5	-0,007
1032	-0,007
1032,4	-0,007
1032,8	-0,007
1033,2	-0,007
1033,6	-0,007
1034	-0,007
1034,4	-0,007
1034,9	-0,007
1035,3	-0,006
1035,7	-0,006
1036,1	-0,007
1036,5	-0,006
1036,9	-0,006
1037,4	-0,007
1037,8	-0,007
1038,2	-0,007
1038,6	-0,006
1039	-0,006
1039,4	-0,006
1039,8	-0,006
1040,3	-0,005
1040,7	-0,005
1041,1	-0,005
1041,5	-0,005
1041,9	-0,005
1042,3	-0,005
1042,7	-0,005
1043,2	-0,005
1043,6	-0,006
1044	-0,006
1044,4	-0,006
1044,8	-0,006
1045,2	-0,006
1045,6	-0,007
1046,1	-0,006
1046,5	-0,006
1046,9	-0,006
1047,3	-0,007
1047,7	-0,007
1048,1	-0,007
1048,5	-0,007
1049	-0,007
1049,4	-0,008
1049,8	-0,007
1050,2	-0,007
1050,6	-0,007
1051	-0,007
1051,4	-0,006
1051,9	-0,006
1052,3	-0,006
1052,7	-0,007
1053,1	-0,007
1053,5	-0,007
1053,9	-0,007
1054,3	-0,007
1054,8	-0,008
1055,2	-0,008
1055,6	-0,007
1056	-0,008
1056,4	-0,008
1056,8	-0,008
1057,2	-0,008
1057,6	-0,008
1058,1	-0,007
1058,5	-0,007
1058,9	-0,006
1059,3	-0,006
1059,7	-0,005
1060,1	-0,005
1060,5	-0,005
1061	-0,004
1061,4	-0,004
1061,8	-0,005
1062,2	-0,006
1062,6	-0,006
1063	-0,005
1063,4	-0,005
1063,8	-0,005
1064,3	-0,005
1064,7	-0,005
1065,1	-0,005
1065,5	-0,006
1065,9	-0,006
1066,3	-0,006
1066,7	-0,008
1067,1	-0,008
1067,6	-0,009
1068	-0,008
1068,4	-0,008
1068,8	-0,008
1069,2	-0,009
1069,6	-0,008
1070	-0,008
1070,4	-0,008
1070,9	-0,009
1071,3	-0,009
1071,7	-0,01
1072,1	-0,009
1072,5	-0,01
1072,9	-0,009
1073,3	-0,009
1073,7	-0,009
1074,2	-0,008
1074,6	-0,007
1075	-0,006
1075,4	-0,007
1075,8	-0,006
1076,2	-0,007
1076,6	-0,006
1077	-0,006
1077,5	-0,007
1077,9	-0,007
1078,3	-0,006
1078,7	-0,008
1079,1	-0,008
1079,5	-0,008
1079,9	-0,009
1080,3	-0,008
1080,7	-0,008
1081,2	-0,009
1081,6	-0,007
1082	-0,007
1082,4	-0,008
1082,8	-0,007
1083,2	-0,009
1083,6	-0,009
1084	-0,008
1084,5	-0,009
1084,9	-0,007
1085,3	-0,006
1085,7	-0,006
1086,1	-0,005
1086,5	-0,006
1086,9	-0,008
1087,3	-0,007
1087,7	-0,007
1088,2	-0,007
1088,6	-0,008
1089	-0,009
1089,4	-0,01
1089,8	-0,008
1090,2	-0,009
1090,6	-0,012
1091	-0,014
1091,4	-0,015
1091,9	-0,014
1092,3	-0,013
1092,7	-0,013
1093,1	-0,013
1093,5	-0,011
1093,9	-0,011
1094,3	-0,014
1094,7	-0,016
1095,1	-0,018
1095,5	-0,021
1096	-0,022
1096,4	-0,023
1096,8	-0,026
1097,2	-0,021
1097,6	-0,023
1098	-0,02
1098,4	-0,028
1098,8	-0,027
1099,2	-0,031
1099,6	-0,027
1100,1	-0,034
1100,5	-0,032
1100,9	-0,037
1101,3	-0,031
1101,7	-0,031
1102,1	-0,021
1102,5	-0,025
1102,9	-0,019
1103,3	-0,024
1103,7	-0,022
1104,2	-0,019
1104,6	-0,033
1105	-0,043
1105,4	-0,042
1105,8	-0,053
1106,2	-0,053
1106,6	-0,063
1107	-0,078
1107,4	-0,064
1107,8	-0,053
1108,3	0,014
