Data from Absorbance_00006.txt Node
Date: Fri Jul 14 16:20:29 MSK 2023
User: vat
Spectrometer: MAYP114033
Trigger mode: 0
Integration Time (sec): 8,000000E-3
Scans to average: 20
Electric dark correction enabled: true
Nonlinearity correction enabled: false
Boxcar width: 3
XAxis mode: Wavelengths
Number of Pixels in Spectrum: 2068
>>>>>Begin Spectral Data<<<<<
199,4	2,521
199,9	-0
200,4	-0,553
200,8	-0,296
201,3	-0,133
201,8	-0,148
202,2	-0,115
202,7	-0,113
203,2	-0,095
203,6	-0,07
204,1	-0,074
204,6	-0,062
205	-0,042
205,5	-0,051
206	-0,056
206,4	-0,066
206,9	-0,089
207,4	-0,09
207,8	-0,091
208,3	-0,073
208,8	-0,069
209,2	-0,063
209,7	-0,065
210,2	-0,048
210,6	-0,067
211,1	-0,068
211,5	-0,103
212	-0,115
212,5	-0,115
212,9	-0,109
213,4	-0,103
213,9	-0,078
214,3	-0,071
214,8	-0,044
215,3	-0,035
215,7	-0,036
216,2	-0,022
216,7	-0,031
217,1	-0,031
217,6	-0,058
218,1	-0,072
218,5	-0,065
219	-0,065
219,5	-0,081
219,9	-0,08
220,4	-0,074
220,9	-0,06
221,3	-0,049
221,8	-0,042
222,3	-0,03
222,7	-0,023
223,2	-0,024
223,6	-0,038
224,1	-0,037
224,6	-0,057
225	-0,057
225,5	-0,054
226	-0,046
226,4	-0,042
226,9	-0,031
227,4	-0,043
227,8	-0,043
228,3	-0,038
228,8	-0,046
229,2	-0,055
229,7	-0,064
230,2	-0,066
230,6	-0,052
231,1	-0,034
231,5	-0,039
232	-0,044
232,5	-0,051
232,9	-0,042
233,4	-0,04
233,9	-0,047
234,3	-0,036
234,8	-0,035
235,3	-0,024
235,7	-0,006
236,2	-0,013
236,7	-0,008
237,1	0
237,6	-0,018
238,1	-0,002
238,5	0,011
239	0,02
239,4	0,022
239,9	0,014
240,4	0,026
240,8	0,034
241,3	0,027
241,8	0,005
242,2	0,012
242,7	0,016
243,2	0,043
243,6	0,04
244,1	0,057
244,6	0,071
245	0,099
245,5	0,085
245,9	0,109
246,4	0,121
246,9	0,136
247,3	0,157
247,8	0,178
248,3	0,19
248,7	0,23
249,2	0,227
249,7	0,247
250,1	0,271
250,6	0,304
251	0,318
251,5	0,353
252	0,408
252,4	0,485
252,9	0,545
253,4	0,626
253,8	0,686
254,3	0,762
254,8	0,846
255,2	0,916
255,7	0,979
256,1	1,043
256,6	1,088
257,1	1,137
257,5	1,199
258	1,234
258,5	1,262
258,9	1,314
259,4	1,362
259,9	1,404
260,3	1,432
260,8	1,465
261,2	1,497
261,7	1,527
262,2	1,531
262,6	1,533
263,1	1,55
263,6	1,563
264	1,57
264,5	1,581
264,9	1,603
265,4	1,621
265,9	1,658
266,3	1,677
266,8	1,696
267,3	1,712
267,7	1,728
268,2	1,726
268,7	1,738
269,1	1,743
269,6	1,743
270	1,762
270,5	1,777
271	1,792
271,4	1,818
271,9	1,837
272,4	1,834
272,8	1,859
273,3	1,859
273,7	1,859
274,2	1,852
274,7	1,841
275,1	1,843
275,6	1,842
276,1	1,828
276,5	1,827
277	1,823
277,4	1,826
277,9	1,824
278,4	1,805
278,8	1,792
279,3	1,786
279,8	1,76
280,2	1,732
280,7	1,685
281,1	1,637
281,6	1,581
282,1	1,526
282,5	1,461
283	1,396
283,4	1,327
283,9	1,265
284,4	1,208
284,8	1,15
285,3	1,092
285,8	1,04
286,2	0,994
286,7	0,951
287,1	0,913
287,6	0,877
288,1	0,847
288,5	0,822
289	0,801
289,5	0,782
289,9	0,766
290,4	0,752
290,8	0,741
291,3	0,731
291,8	0,722
292,2	0,714
292,7	0,707
293,1	0,702
293,6	0,698
294,1	0,693
294,5	0,69
295	0,687
295,5	0,683
295,9	0,681
296,4	0,679
296,8	0,676
297,3	0,673
297,8	0,671
298,2	0,669
298,7	0,666
299,1	0,665
299,6	0,661
300,1	0,659
300,5	0,657
301	0,653
301,5	0,65
301,9	0,646
302,4	0,643
302,8	0,64
303,3	0,636
303,8	0,632
304,2	0,63
304,7	0,626
305,1	0,623
305,6	0,62
306,1	0,616
306,5	0,612
307	0,61
307,4	0,605
307,9	0,603
308,4	0,599
308,8	0,594
309,3	0,591
309,8	0,587
310,2	0,582
310,7	0,578
311,1	0,572
311,6	0,567
312,1	0,563
312,5	0,558
313	0,553
313,4	0,548
313,9	0,543
314,4	0,538
314,8	0,532
315,3	0,527
315,7	0,522
316,2	0,516
316,7	0,511
317,1	0,505
317,6	0,501
318	0,497
318,5	0,491
319	0,487
319,4	0,481
319,9	0,476
320,3	0,472
320,8	0,466
321,3	0,46
321,7	0,455
322,2	0,449
322,6	0,445
323,1	0,439
323,6	0,434
324	0,428
324,5	0,423
324,9	0,417
325,4	0,412
325,9	0,407
326,3	0,401
326,8	0,396
327,2	0,391
327,7	0,386
328,2	0,381
328,6	0,376
329,1	0,37
329,5	0,365
330	0,36
330,5	0,355
330,9	0,35
331,4	0,344
331,8	0,339
332,3	0,334
332,8	0,329
333,2	0,324
333,7	0,32
334,1	0,315
334,6	0,31
335,1	0,306
335,5	0,301
336	0,296
336,4	0,292
336,9	0,287
337,4	0,282
337,8	0,279
338,3	0,274
338,7	0,269
339,2	0,265
339,7	0,261
340,1	0,256
340,6	0,251
341	0,246
341,5	0,242
342	0,238
342,4	0,235
342,9	0,231
343,3	0,228
343,8	0,224
344,2	0,22
344,7	0,216
345,2	0,213
345,6	0,209
346,1	0,204
346,5	0,201
347	0,198
347,5	0,195
347,9	0,191
348,4	0,188
348,8	0,184
349,3	0,181
349,8	0,178
350,2	0,174
350,7	0,171
351,1	0,169
351,6	0,167
352	0,164
352,5	0,161
353	0,159
353,4	0,157
353,9	0,154
354,3	0,15
354,8	0,147
355,3	0,145
355,7	0,141
356,2	0,139
356,6	0,136
357,1	0,134
357,5	0,132
358	0,129
358,5	0,126
358,9	0,124
359,4	0,122
359,8	0,12
360,3	0,119
360,8	0,116
361,2	0,114
361,7	0,113
362,1	0,111
362,6	0,108
363	0,107
363,5	0,104
364	0,102
364,4	0,1
364,9	0,099
365,3	0,096
365,8	0,095
366,3	0,093
366,7	0,091
367,2	0,09
367,6	0,088
368,1	0,088
368,5	0,086
369	0,085
369,5	0,084
369,9	0,083
370,4	0,081
370,8	0,08
371,3	0,078
371,7	0,077
372,2	0,076
372,7	0,074
373,1	0,073
373,6	0,072
374	0,071
374,5	0,069
374,9	0,068
375,4	0,068
375,9	0,067
376,3	0,065
376,8	0,064
377,2	0,063
377,7	0,062
378,2	0,061
378,6	0,059
379,1	0,058
379,5	0,057
380	0,057
380,4	0,056
380,9	0,055
381,4	0,054
381,8	0,053
382,3	0,052
382,7	0,051
383,2	0,05
383,6	0,049
384,1	0,048
384,6	0,048
385	0,047
385,5	0,046
385,9	0,045
386,4	0,045
386,8	0,045
387,3	0,044
387,7	0,044
388,2	0,043
388,7	0,042
389,1	0,042
389,6	0,041
390	0,04
390,5	0,039
390,9	0,038
391,4	0,037
391,9	0,036
392,3	0,035
392,8	0,035
393,2	0,034
393,7	0,034
394,1	0,033
394,6	0,032
395,1	0,032
395,5	0,032
396	0,031
396,4	0,03
396,9	0,03
397,3	0,029
397,8	0,029
398,2	0,028
398,7	0,028
399,2	0,028
399,6	0,027
400,1	0,027
400,5	0,026
401	0,026
401,4	0,025
401,9	0,024
402,4	0,024
402,8	0,024
403,3	0,024
403,7	0,023
404,2	0,024
404,6	0,023
405,1	0,023
405,5	0,022
406	0,022
406,5	0,021
406,9	0,021
407,4	0,02
407,8	0,02
408,3	0,019
408,7	0,019
409,2	0,019
409,6	0,019
410,1	0,019
410,6	0,019
411	0,018
411,5	0,018
411,9	0,018
412,4	0,018
412,8	0,017
413,3	0,017
413,7	0,016
414,2	0,016
414,7	0,015
415,1	0,015
415,6	0,015
416	0,014
416,5	0,014
416,9	0,013
417,4	0,013
417,8	0,013
418,3	0,013
418,8	0,012
419,2	0,012
419,7	0,011
420,1	0,011
420,6	0,01
421	0,01
421,5	0,01
421,9	0,01
422,4	0,01
422,8	0,01
423,3	0,01
423,8	0,01
424,2	0,01
424,7	0,009
425,1	0,009
425,6	0,009
426	0,008
426,5	0,008
426,9	0,007
427,4	0,007
427,9	0,007
428,3	0,006
428,8	0,006
429,2	0,006
429,7	0,006
430,1	0,005
430,6	0,005
431	0,004
431,5	0,004
431,9	0,004
432,4	0,004
432,8	0,003
433,3	0,003
433,8	0,003
434,2	0,003
434,7	0,003
435,1	0,003
435,6	0,003
436	0,002
436,5	0,002
436,9	0,002
437,4	0,001
437,8	0,002
438,3	0,002
438,8	0,001
439,2	0,001
439,7	0,002
440,1	0,002
440,6	0,002
441	0,001
441,5	0,001
441,9	0
442,4	-0
442,8	-0
443,3	-0,001
443,7	-0
444,2	-0,001
444,7	-0,001
445,1	-0,001
445,6	-0
446	-0
446,5	-0,001
446,9	-0,001
447,4	-0
447,8	-0
448,3	-0
448,7	-0,001
449,2	-0,001
449,6	-0,001
450,1	-0
450,6	-0
451	-0
451,5	-0
451,9	-0,001
452,4	-0,001
452,8	-0,001
453,3	-0,001
453,7	-0,001
454,2	-0,002
454,6	-0,002
455,1	-0,002
455,5	-0,002
456	-0,002
456,4	-0,002
456,9	-0,003
457,3	-0,003
457,8	-0,003
458,3	-0,003
458,7	-0,003
459,2	-0,003
459,6	-0,003
460,1	-0,003
460,5	-0,003
461	-0,003
461,4	-0,003
461,9	-0,003
462,3	-0,003
462,8	-0,004
463,2	-0,004
463,7	-0,004
464,1	-0,004
464,6	-0,004
465	-0,004
465,5	-0,004
466	-0,004
466,4	-0,004
466,9	-0,003
467,3	-0,004
467,8	-0,004
468,2	-0,004
468,7	-0,003
469,1	-0,003
469,6	-0,003
470	-0,003
470,5	-0,003
470,9	-0,003
471,4	-0,003
471,8	-0,004
472,3	-0,004
472,7	-0,004
473,2	-0,005
473,6	-0,005
474,1	-0,004
474,5	-0,005
475	-0,005
475,4	-0,005
475,9	-0,005
476,4	-0,005
476,8	-0,005
477,3	-0,005
477,7	-0,005
478,2	-0,004
478,6	-0,004
479,1	-0,004
479,5	-0,004
480	-0,004
480,4	-0,004
480,9	-0,004
481,3	-0,004
481,8	-0,004
482,2	-0,004
482,7	-0,004
483,1	-0,004
483,6	-0,005
484	-0,005
484,5	-0,006
484,9	-0,006
485,4	-0,006
485,8	-0,007
486,3	-0,005
486,7	-0,004
487,2	-0,004
487,6	-0,004
488,1	-0,003
488,5	-0,003
489	-0,002
489,4	-0,003
489,9	-0,004
490,4	-0,004
490,8	-0,004
491,3	-0,004
491,7	-0,004
492,2	-0,004
492,6	-0,005
493,1	-0,005
493,5	-0,005
494	-0,005
494,4	-0,005
494,9	-0,006
495,3	-0,005
495,8	-0,005
496,2	-0,005
496,7	-0,005
497,1	-0,006
497,6	-0,006
498	-0,006
498,5	-0,006
498,9	-0,006
499,4	-0,005
499,8	-0,005
500,3	-0,005
500,7	-0,004
501,2	-0,004
501,6	-0,004
502,1	-0,004
502,5	-0,004
503	-0,005
503,4	-0,004
503,9	-0,005
504,3	-0,004
504,8	-0,004
505,2	-0,004
505,7	-0,004
506,1	-0,004
506,6	-0,004
507	-0,004
507,5	-0,004
507,9	-0,004
508,4	-0,004
508,8	-0,004
509,3	-0,005
509,7	-0,005
510,2	-0,005
510,6	-0,005
511,1	-0,005
511,5	-0,005
512	-0,005
512,4	-0,005
512,9	-0,004
513,3	-0,005
513,8	-0,005
514,2	-0,005
514,7	-0,005
515,1	-0,006
515,6	-0,006
516	-0,006
516,5	-0,006
516,9	-0,006
517,4	-0,006
517,8	-0,006
518,3	-0,005
518,7	-0,006
519,2	-0,005
519,6	-0,005
520,1	-0,005
520,5	-0,005
521	-0,006
521,4	-0,005
521,9	-0,005
522,3	-0,005
522,8	-0,005
523,2	-0,005
523,7	-0,005
524,1	-0,005
524,6	-0,006
525	-0,006
525,5	-0,006
525,9	-0,006
526,4	-0,007
526,8	-0,007
527,3	-0,007
527,7	-0,007
528,2	-0,007
528,6	-0,006
529,1	-0,006
529,5	-0,006
530	-0,006
530,4	-0,006
530,9	-0,005
531,3	-0,005
531,8	-0,005
532,2	-0,005
532,6	-0,005
533,1	-0,005
533,5	-0,006
534	-0,006
534,4	-0,005
534,9	-0,005
535,3	-0,005
535,8	-0,005
536,2	-0,005
536,7	-0,004
537,1	-0,005
537,6	-0,006
538	-0,005
538,5	-0,005
538,9	-0,005
539,4	-0,005
539,8	-0,005
540,3	-0,005
540,7	-0,005
541,2	-0,005
541,6	-0,005
542,1	-0,005
542,5	-0,005
543	-0,005
543,4	-0,005
543,9	-0,005
544,3	-0,005
544,8	-0,005
545,2	-0,005
545,7	-0,005
546,1	-0,006
546,5	-0,006
547	-0,006
547,4	-0,006
547,9	-0,006
548,3	-0,005
548,8	-0,005
549,2	-0,005
549,7	-0,004
550,1	-0,004
550,6	-0,004
551	-0,004
551,5	-0,005
551,9	-0,005
552,4	-0,005
552,8	-0,005
553,3	-0,005
553,7	-0,005
554,2	-0,005
554,6	-0,005
555,1	-0,005
555,5	-0,004
555,9	-0,004
556,4	-0,005
556,8	-0,005
557,3	-0,005
557,7	-0,005
558,2	-0,005
558,6	-0,005
559,1	-0,005
559,5	-0,005
560	-0,004
560,4	-0,004
560,9	-0,003
561,3	-0,003
561,8	-0,003
562,2	-0,004
562,7	-0,004
563,1	-0,005
563,6	-0,005
564	-0,006
564,4	-0,006
564,9	-0,006
565,3	-0,006
565,8	-0,005
566,2	-0,005
566,7	-0,005
567,1	-0,005
567,6	-0,006
568	-0,006
568,5	-0,005
568,9	-0,005
569,4	-0,006
569,8	-0,005
570,3	-0,005
570,7	-0,005
571,1	-0,005
571,6	-0,005
572	-0,005
572,5	-0,005
572,9	-0,005
573,4	-0,005
573,8	-0,005
574,3	-0,005
574,7	-0,005
575,2	-0,005
575,6	-0,005
576,1	-0,005
576,5	-0,005
576,9	-0,005
577,4	-0,005
577,8	-0,005
578,3	-0,005
578,7	-0,005
579,2	-0,005
579,6	-0,005
580,1	-0,005
580,5	-0,005
581	-0,006
581,4	-0,005
581,9	-0,005
582,3	-0,005
582,7	-0,005
583,2	-0,005
583,6	-0,005
584,1	-0,004
584,5	-0,005
585	-0,005
585,4	-0,005
585,9	-0,004
586,3	-0,005
586,8	-0,005
587,2	-0,005
587,6	-0,004
588,1	-0,005
588,5	-0,004
589	-0,004
589,4	-0,004
589,9	-0,004
590,3	-0,004
590,8	-0,004
591,2	-0,004
591,7	-0,004
592,1	-0,004
592,5	-0,005
593	-0,005
593,4	-0,005
593,9	-0,005
594,3	-0,005
594,8	-0,005
595,2	-0,005
595,7	-0,005
596,1	-0,005
596,6	-0,005
597	-0,005
597,4	-0,005
597,9	-0,005
598,3	-0,005
598,8	-0,005
599,2	-0,005
599,7	-0,005
600,1	-0,005
600,6	-0,005
601	-0,005
601,4	-0,005
601,9	-0,005
602,3	-0,005
602,8	-0,005
603,2	-0,005
603,7	-0,005
604,1	-0,005
604,6	-0,005
605	-0,005
605,4	-0,004
605,9	-0,004
606,3	-0,004
606,8	-0,005
607,2	-0,005
607,7	-0,005
608,1	-0,005
608,6	-0,005
609	-0,005
609,4	-0,005
609,9	-0,005
610,3	-0,005
610,8	-0,005
611,2	-0,005
611,7	-0,005
612,1	-0,004
612,6	-0,004
613	-0,004
613,4	-0,004
613,9	-0,004
614,3	-0,004
614,8	-0,005
615,2	-0,005
615,7	-0,004
616,1	-0,004
616,6	-0,004
617	-0,004
617,4	-0,004
617,9	-0,004
618,3	-0,004
618,8	-0,004
619,2	-0,004
619,7	-0,005
620,1	-0,005
620,5	-0,005
621	-0,005
621,4	-0,006
621,9	-0,006
622,3	-0,005
622,8	-0,005
623,2	-0,005
623,6	-0,004
624,1	-0,004
624,5	-0,004
625	-0,004
625,4	-0,004
625,9	-0,004
626,3	-0,004
626,8	-0,005
627,2	-0,005
627,6	-0,004
628,1	-0,004
628,5	-0,005
629	-0,005
629,4	-0,005
629,9	-0,004
630,3	-0,004
630,7	-0,004
631,2	-0,004
631,6	-0,004
632,1	-0,004
632,5	-0,004
633	-0,004
633,4	-0,005
633,8	-0,005
634,3	-0,005
634,7	-0,004
635,2	-0,004
635,6	-0,005
636,1	-0,005
636,5	-0,005
636,9	-0,005
637,4	-0,005
637,8	-0,005
638,3	-0,005
638,7	-0,005
639,2	-0,005
639,6	-0,005
640	-0,005
640,5	-0,005
640,9	-0,005
641,4	-0,005
641,8	-0,005
642,2	-0,005
642,7	-0,005
643,1	-0,005
643,6	-0,005
644	-0,005
644,5	-0,005
644,9	-0,005
645,3	-0,005
645,8	-0,005
646,2	-0,005
646,7	-0,005
647,1	-0,006
647,6	-0,006
648	-0,006
648,4	-0,006
648,9	-0,006
649,3	-0,007
649,8	-0,007
650,2	-0,006
650,6	-0,006
651,1	-0,006
651,5	-0,006
652	-0,006
652,4	-0,006
652,9	-0,006
653,3	-0,006
653,7	-0,006
654,2	-0,006
654,6	-0,007
655,1	-0,01
655,5	-0,014
655,9	-0,008
656,4	-0,005
656,8	-0,004
657,3	-0,003
657,7	-0,003
658,2	-0,002
658,6	0,001
659	0,001
659,5	0,001
659,9	0,002
660,4	-0,001
660,8	-0,003
661,2	-0,004
661,7	-0,004
662,1	-0,005
662,6	-0,005
663	-0,005
663,4	-0,005
663,9	-0,005
664,3	-0,005
664,8	-0,005
665,2	-0,005
665,6	-0,005
666,1	-0,005
666,5	-0,005
667	-0,005
667,4	-0,005
667,9	-0,005
668,3	-0,005
668,7	-0,005
669,2	-0,005
669,6	-0,005
670,1	-0,005
670,5	-0,005
670,9	-0,005
671,4	-0,006
671,8	-0,006
672,3	-0,006
672,7	-0,005
673,1	-0,005
673,6	-0,005
674	-0,005
674,5	-0,005
674,9	-0,005
675,3	-0,006
675,8	-0,006
676,2	-0,006
676,7	-0,005
677,1	-0,005
677,5	-0,005
678	-0,005
678,4	-0,005
678,9	-0,005
679,3	-0,006
679,7	-0,006
680,2	-0,006
680,6	-0,006
681,1	-0,006
681,5	-0,005
681,9	-0,005
682,4	-0,005
682,8	-0,005
683,3	-0,005
683,7	-0,005
684,1	-0,005
684,6	-0,005
685	-0,005
685,5	-0,005
685,9	-0,005
686,3	-0,005
686,8	-0,005
687,2	-0,005
687,7	-0,005
688,1	-0,005
688,5	-0,005
689	-0,005
689,4	-0,005
689,9	-0,005
690,3	-0,005
690,7	-0,005
691,2	-0,005
691,6	-0,004
692	-0,004
692,5	-0,005
692,9	-0,005
693,4	-0,005
693,8	-0,005
694,2	-0,004
694,7	-0,005
695,1	-0,005
695,6	-0,005
696	-0,005
696,4	-0,005
696,9	-0,005
697,3	-0,005
697,8	-0,005
698,2	-0,005
698,6	-0,005
699,1	-0,005
699,5	-0,005
699,9	-0,005
700,4	-0,005
700,8	-0,005
701,3	-0,005
701,7	-0,005
702,1	-0,005
702,6	-0,005
703	-0,005
703,5	-0,005
703,9	-0,005
704,3	-0,005
704,8	-0,005
705,2	-0,005
705,6	-0,005
706,1	-0,005
706,5	-0,005
707	-0,005
707,4	-0,004
707,8	-0,004
708,3	-0,004
708,7	-0,004
709,2	-0,004
709,6	-0,004
710	-0,004
710,5	-0,005
710,9	-0,004
711,3	-0,005
711,8	-0,004
712,2	-0,005
712,7	-0,005
713,1	-0,005
713,5	-0,005
714	-0,006
714,4	-0,005
714,8	-0,006
715,3	-0,006
715,7	-0,006
716,2	-0,006
716,6	-0,006
717	-0,006
717,5	-0,006
717,9	-0,005
718,3	-0,005
718,8	-0,005
719,2	-0,005
719,7	-0,005
720,1	-0,005
720,5	-0,005
721	-0,005
721,4	-0,005
721,8	-0,005
722,3	-0,005
722,7	-0,005
723,2	-0,005
723,6	-0,005
724	-0,005
724,5	-0,005
724,9	-0,005
725,3	-0,005
725,8	-0,005
726,2	-0,005
726,7	-0,005
727,1	-0,005
727,5	-0,005
728	-0,005
728,4	-0,005
728,8	-0,005
729,3	-0,005
729,7	-0,005
730,1	-0,005
730,6	-0,005
731	-0,005
731,5	-0,005
731,9	-0,005
732,3	-0,005
732,8	-0,004
733,2	-0,004
733,6	-0,005
734,1	-0,005
734,5	-0,004
734,9	-0,005
735,4	-0,005
735,8	-0,005
736,3	-0,005
736,7	-0,005
737,1	-0,005
737,6	-0,005
738	-0,005
738,4	-0,005
738,9	-0,005
739,3	-0,005
739,7	-0,005
740,2	-0,005
740,6	-0,005
741,1	-0,005
741,5	-0,005
741,9	-0,005
742,4	-0,005
742,8	-0,005
743,2	-0,004
743,7	-0,004
744,1	-0,004
744,5	-0,004
745	-0,004
745,4	-0,004
745,8	-0,004
746,3	-0,004
746,7	-0,004
747,2	-0,005
747,6	-0,005
748	-0,005
748,5	-0,006
748,9	-0,006
749,3	-0,006
749,8	-0,006
750,2	-0,006
750,6	-0,006
751,1	-0,005
751,5	-0,005
751,9	-0,005
752,4	-0,005
752,8	-0,005
753,3	-0,005
753,7	-0,005
754,1	-0,005
754,6	-0,005
755	-0,005
755,4	-0,005
755,9	-0,005
756,3	-0,005
756,7	-0,005
757,2	-0,005
757,6	-0,005
758	-0,005
758,5	-0,005
758,9	-0,005
759,3	-0,004
759,8	-0,004
760,2	-0,004
760,6	-0,004
761,1	-0,005
761,5	-0,005
761,9	-0,004
762,4	-0,004
762,8	-0,005
763,3	-0,005
763,7	-0,005
764,1	-0,005
764,6	-0,005
765	-0,005
765,4	-0,005
765,9	-0,005
766,3	-0,005
766,7	-0,005
767,2	-0,005
767,6	-0,006
768	-0,006
768,5	-0,006
768,9	-0,006
769,3	-0,006
769,8	-0,005
770,2	-0,005
770,6	-0,005
771,1	-0,005
771,5	-0,005
771,9	-0,005
772,4	-0,005
772,8	-0,005
773,2	-0,005
773,7	-0,005
774,1	-0,005
774,5	-0,004
775	-0,004
775,4	-0,004
775,8	-0,004
776,3	-0,004
776,7	-0,004
777,1	-0,004
777,6	-0,004
778	-0,004
778,4	-0,004
778,9	-0,004
779,3	-0,005
779,7	-0,005
780,2	-0,005
780,6	-0,005
781	-0,005
781,5	-0,005
781,9	-0,005
782,3	-0,005
782,8	-0,005
783,2	-0,005
783,6	-0,005
784,1	-0,005
784,5	-0,005
784,9	-0,005
785,4	-0,005
785,8	-0,005
786,2	-0,005
786,7	-0,005
787,1	-0,005
787,5	-0,004
788	-0,005
788,4	-0,004
788,8	-0,005
789,3	-0,005
789,7	-0,005
790,1	-0,005
790,6	-0,005
791	-0,005
791,4	-0,005
791,9	-0,005
792,3	-0,005
792,7	-0,004
793,2	-0,004
793,6	-0,004
794	-0,004
794,5	-0,004
794,9	-0,004
795,3	-0,004
795,8	-0,004
796,2	-0,004
796,6	-0,004
797,1	-0,004
797,5	-0,004
797,9	-0,004
798,4	-0,004
798,8	-0,004
799,2	-0,004
799,7	-0,004
800,1	-0,004
800,5	-0,004
801	-0,004
801,4	-0,004
801,8	-0,004
802,2	-0,004
802,7	-0,004
803,1	-0,004
803,5	-0,004
804	-0,004
804,4	-0,004
804,8	-0,004
805,3	-0,004
805,7	-0,004
806,1	-0,004
806,6	-0,004
807	-0,004
807,4	-0,004
807,9	-0,004
808,3	-0,004
808,7	-0,004
809,2	-0,004
809,6	-0,004
810	-0,004
810,4	-0,005
810,9	-0,005
811,3	-0,005
811,7	-0,005
812,2	-0,005
812,6	-0,005
813	-0,005
813,5	-0,005
813,9	-0,005
814,3	-0,005
814,8	-0,005
815,2	-0,006
815,6	-0,006
816,1	-0,006
816,5	-0,006
816,9	-0,006
817,3	-0,006
817,8	-0,006
818,2	-0,006
818,6	-0,005
819,1	-0,005
819,5	-0,005
819,9	-0,005
820,4	-0,005
820,8	-0,005
821,2	-0,005
821,7	-0,005
822,1	-0,005
822,5	-0,005
822,9	-0,005
823,4	-0,005
823,8	-0,005
824,2	-0,005
824,7	-0,005
825,1	-0,005
825,5	-0,005
826	-0,006
826,4	-0,006
826,8	-0,005
827,3	-0,005
827,7	-0,005
828,1	-0,006
828,5	-0,006
829	-0,006
829,4	-0,006
829,8	-0,006
830,3	-0,006
830,7	-0,006
831,1	-0,006
831,6	-0,005
832	-0,005
832,4	-0,005
832,8	-0,005
833,3	-0,005
833,7	-0,005
834,1	-0,005
834,6	-0,005
835	-0,005
835,4	-0,004
835,8	-0,004
836,3	-0,004
836,7	-0,005
837,1	-0,004
837,6	-0,004
838	-0,004
838,4	-0,004
838,9	-0,004
839,3	-0,004
839,7	-0,004
840,1	-0,004
840,6	-0,004
841	-0,004
841,4	-0,004
841,9	-0,004
842,3	-0,004
842,7	-0,004
843,1	-0,004
843,6	-0,004
844	-0,004
844,4	-0,004
844,9	-0,004
845,3	-0,004
845,7	-0,004
846,2	-0,004
846,6	-0,004
847	-0,004
847,4	-0,004
847,9	-0,004
848,3	-0,004
848,7	-0,004
849,2	-0,004
849,6	-0,004
850	-0,004
850,4	-0,004
850,9	-0,004
851,3	-0,004
851,7	-0,004
852,2	-0,005
852,6	-0,004
853	-0,004
853,4	-0,005
853,9	-0,005
854,3	-0,005
854,7	-0,005
855,2	-0,005
855,6	-0,005
856	-0,005
856,4	-0,005
856,9	-0,005
857,3	-0,005
857,7	-0,005
858,2	-0,005
858,6	-0,005
859	-0,005
859,4	-0,005
859,9	-0,005
860,3	-0,005
860,7	-0,005
861,1	-0,005
861,6	-0,005
862	-0,005
862,4	-0,005
862,9	-0,005
863,3	-0,005
863,7	-0,005
864,1	-0,005
864,6	-0,005
865	-0,005
865,4	-0,005
865,9	-0,006
866,3	-0,006
866,7	-0,006
867,1	-0,006
867,6	-0,006
868	-0,006
868,4	-0,006
868,8	-0,006
869,3	-0,005
869,7	-0,005
870,1	-0,005
870,6	-0,005
871	-0,005
871,4	-0,005
871,8	-0,005
872,3	-0,005
872,7	-0,005
873,1	-0,005
873,5	-0,005
874	-0,005
874,4	-0,005
874,8	-0,005
875,3	-0,006
875,7	-0,006
876,1	-0,006
876,5	-0,006
877	-0,006
877,4	-0,006
877,8	-0,006
878,2	-0,006
878,7	-0,006
879,1	-0,006
879,5	-0,006
879,9	-0,006
880,4	-0,006
880,8	-0,006
881,2	-0,006
881,7	-0,006
882,1	-0,006
882,5	-0,006
882,9	-0,006
883,4	-0,006
883,8	-0,006
884,2	-0,006
884,6	-0,005
885,1	-0,005
885,5	-0,005
885,9	-0,006
886,3	-0,006
886,8	-0,006
887,2	-0,006
887,6	-0,006
888	-0,007
888,5	-0,007
888,9	-0,007
889,3	-0,006
889,8	-0,007
890,2	-0,007
890,6	-0,007
891	-0,007
891,5	-0,006
891,9	-0,006
892,3	-0,006
892,7	-0,006
893,2	-0,006
893,6	-0,006
894	-0,005
894,4	-0,005
894,9	-0,005
895,3	-0,005
895,7	-0,005
896,1	-0,005
896,6	-0,005
897	-0,005
897,4	-0,005
897,8	-0,005
898,3	-0,005
898,7	-0,005
899,1	-0,004
899,5	-0,004
900	-0,004
900,4	-0,004
900,8	-0,004
901,2	-0,004
901,7	-0,004
902,1	-0,004
902,5	-0,005
902,9	-0,005
903,4	-0,005
903,8	-0,005
904,2	-0,005
904,6	-0,005
905,1	-0,005
905,5	-0,005
905,9	-0,005
906,3	-0,005
906,8	-0,006
907,2	-0,006
907,6	-0,006
908	-0,006
908,5	-0,006
908,9	-0,006
909,3	-0,006
909,7	-0,006
910,2	-0,006
910,6	-0,006
911	-0,006
911,4	-0,006
911,9	-0,006
912,3	-0,006
912,7	-0,006
913,1	-0,006
913,6	-0,006
914	-0,006
914,4	-0,006
914,8	-0,006
915,3	-0,006
915,7	-0,005
916,1	-0,005
916,5	-0,005
916,9	-0,005
917,4	-0,005
917,8	-0,005
918,2	-0,005
918,6	-0,005
919,1	-0,005
919,5	-0,005
919,9	-0,005
920,3	-0,005
920,8	-0,005
921,2	-0,005
921,6	-0,005
922	-0,005
922,5	-0,005
922,9	-0,005
923,3	-0,005
923,7	-0,005
924,2	-0,005
924,6	-0,005
925	-0,005
925,4	-0,005
925,8	-0,006
926,3	-0,006
926,7	-0,006
927,1	-0,006
927,5	-0,006
928	-0,006
928,4	-0,006
928,8	-0,006
929,2	-0,006
929,7	-0,006
930,1	-0,005
930,5	-0,005
930,9	-0,005
931,3	-0,005
931,8	-0,005
932,2	-0,004
932,6	-0,004
933	-0,004
933,5	-0,004
933,9	-0,004
934,3	-0,004
934,7	-0,004
935,2	-0,004
935,6	-0,004
936	-0,003
936,4	-0,004
936,8	-0,004
937,3	-0,004
937,7	-0,004
938,1	-0,004
938,5	-0,005
939	-0,006
939,4	-0,006
939,8	-0,006
940,2	-0,006
940,6	-0,006
941,1	-0,006
941,5	-0,006
941,9	-0,006
942,3	-0,006
942,8	-0,006
943,2	-0,006
943,6	-0,005
944	-0,005
944,4	-0,005
944,9	-0,006
945,3	-0,006
945,7	-0,006
946,1	-0,006
946,6	-0,007
947	-0,007
947,4	-0,007
947,8	-0,007
948,2	-0,006
948,7	-0,006
949,1	-0,006
949,5	-0,006
949,9	-0,005
950,3	-0,005
950,8	-0,006
951,2	-0,006
951,6	-0,006
952	-0,007
952,5	-0,007
952,9	-0,007
953,3	-0,007
953,7	-0,007
954,1	-0,007
954,6	-0,007
955	-0,008
955,4	-0,007
955,8	-0,007
956,2	-0,007
956,7	-0,007
957,1	-0,007
957,5	-0,007
957,9	-0,007
958,3	-0,008
958,8	-0,008
959,2	-0,008
959,6	-0,008
960	-0,008
960,5	-0,008
960,9	-0,008
961,3	-0,008
961,7	-0,008
962,1	-0,008
962,6	-0,008
963	-0,008
963,4	-0,008
963,8	-0,008
964,2	-0,008
964,7	-0,008
965,1	-0,007
965,5	-0,007
965,9	-0,007
966,3	-0,007
966,8	-0,007
967,2	-0,006
967,6	-0,006
968	-0,006
968,4	-0,007
968,9	-0,007
969,3	-0,007
969,7	-0,007
970,1	-0,008
970,5	-0,008
971	-0,008
971,4	-0,008
971,8	-0,008
972,2	-0,008
972,6	-0,008
973,1	-0,008
973,5	-0,008
973,9	-0,008
974,3	-0,008
974,7	-0,008
975,2	-0,007
975,6	-0,007
976	-0,007
976,4	-0,006
976,8	-0,006
977,3	-0,006
977,7	-0,007
978,1	-0,007
978,5	-0,007
978,9	-0,007
979,4	-0,007
979,8	-0,007
980,2	-0,007
980,6	-0,007
981	-0,007
981,5	-0,007
981,9	-0,007
982,3	-0,008
982,7	-0,007
983,1	-0,007
983,6	-0,007
984	-0,007
984,4	-0,007
984,8	-0,007
985,2	-0,006
985,6	-0,006
986,1	-0,006
986,5	-0,006
986,9	-0,006
987,3	-0,006
987,7	-0,006
988,2	-0,006
988,6	-0,006
989	-0,005
989,4	-0,005
989,8	-0,005
990,3	-0,006
990,7	-0,005
991,1	-0,005
991,5	-0,005
991,9	-0,006
992,3	-0,005
992,8	-0,005
993,2	-0,005
993,6	-0,005
994	-0,005
994,4	-0,005
994,9	-0,005
995,3	-0,005
995,7	-0,005
996,1	-0,005
996,5	-0,005
996,9	-0,005
997,4	-0,006
997,8	-0,007
998,2	-0,007
998,6	-0,007
999	-0,007
999,5	-0,007
999,9	-0,006
1000,3	-0,006
1000,7	-0,006
1001,1	-0,006
1001,5	-0,006
1002	-0,006
1002,4	-0,006
1002,8	-0,006
1003,2	-0,006
1003,6	-0,005
1004	-0,005
1004,5	-0,005
1004,9	-0,005
1005,3	-0,005
1005,7	-0,005
1006,1	-0,005
1006,6	-0,006
1007	-0,006
1007,4	-0,006
1007,8	-0,005
1008,2	-0,005
1008,6	-0,005
1009,1	-0,005
1009,5	-0,004
1009,9	-0,004
1010,3	-0,004
1010,7	-0,005
1011,1	-0,005
1011,6	-0,005
1012	-0,005
1012,4	-0,005
1012,8	-0,005
1013,2	-0,005
1013,6	-0,005
1014,1	-0,005
1014,5	-0,006
1014,9	-0,006
1015,3	-0,005
1015,7	-0,006
1016,1	-0,006
1016,6	-0,006
1017	-0,006
1017,4	-0,006
1017,8	-0,006
1018,2	-0,006
1018,6	-0,006
1019,1	-0,006
1019,5	-0,006
1019,9	-0,006
1020,3	-0,006
1020,7	-0,006
1021,1	-0,006
1021,6	-0,006
1022	-0,007
1022,4	-0,007
1022,8	-0,007
1023,2	-0,006
1023,6	-0,007
1024,1	-0,007
1024,5	-0,007
1024,9	-0,007
1025,3	-0,007
1025,7	-0,007
1026,1	-0,007
1026,6	-0,008
1027	-0,008
1027,4	-0,008
1027,8	-0,008
1028,2	-0,007
1028,6	-0,007
1029	-0,008
1029,5	-0,007
1029,9	-0,008
1030,3	-0,007
1030,7	-0,007
1031,1	-0,007
1031,5	-0,008
1032	-0,007
1032,4	-0,008
1032,8	-0,007
1033,2	-0,007
1033,6	-0,007
1034	-0,007
1034,4	-0,007
1034,9	-0,007
1035,3	-0,006
1035,7	-0,006
1036,1	-0,006
1036,5	-0,006
1036,9	-0,006
1037,4	-0,007
1037,8	-0,007
1038,2	-0,007
1038,6	-0,007
1039	-0,008
1039,4	-0,007
1039,8	-0,007
1040,3	-0,007
1040,7	-0,007
1041,1	-0,006
1041,5	-0,006
1041,9	-0,006
1042,3	-0,006
1042,7	-0,006
1043,2	-0,006
1043,6	-0,006
1044	-0,006
1044,4	-0,005
1044,8	-0,005
1045,2	-0,005
1045,6	-0,006
1046,1	-0,005
1046,5	-0,005
1046,9	-0,006
1047,3	-0,007
1047,7	-0,007
1048,1	-0,007
1048,5	-0,008
1049	-0,008
1049,4	-0,009
1049,8	-0,008
1050,2	-0,008
1050,6	-0,008
1051	-0,008
1051,4	-0,008
1051,9	-0,008
1052,3	-0,008
1052,7	-0,009
1053,1	-0,009
1053,5	-0,009
1053,9	-0,009
1054,3	-0,009
1054,8	-0,009
1055,2	-0,009
1055,6	-0,008
1056	-0,008
1056,4	-0,008
1056,8	-0,008
1057,2	-0,009
1057,6	-0,009
1058,1	-0,009
1058,5	-0,008
1058,9	-0,007
1059,3	-0,006
1059,7	-0,006
1060,1	-0,006
1060,5	-0,006
1061	-0,005
1061,4	-0,006
1061,8	-0,007
1062,2	-0,007
1062,6	-0,007
1063	-0,006
1063,4	-0,006
1063,8	-0,007
1064,3	-0,007
1064,7	-0,007
1065,1	-0,007
1065,5	-0,008
1065,9	-0,008
1066,3	-0,008
1066,7	-0,008
1067,1	-0,008
1067,6	-0,008
1068	-0,009
1068,4	-0,009
1068,8	-0,009
1069,2	-0,01
1069,6	-0,01
1070	-0,01
1070,4	-0,009
1070,9	-0,008
1071,3	-0,009
1071,7	-0,011
1072,1	-0,01
1072,5	-0,01
1072,9	-0,009
1073,3	-0,009
1073,7	-0,01
1074,2	-0,009
1074,6	-0,007
1075	-0,007
1075,4	-0,008
1075,8	-0,008
1076,2	-0,008
1076,6	-0,007
1077	-0,008
1077,5	-0,009
1077,9	-0,009
1078,3	-0,008
1078,7	-0,008
1079,1	-0,008
1079,5	-0,009
1079,9	-0,009
1080,3	-0,007
1080,7	-0,008
1081,2	-0,009
1081,6	-0,009
1082	-0,01
1082,4	-0,011
1082,8	-0,01
1083,2	-0,012
1083,6	-0,012
1084	-0,011
1084,5	-0,012
1084,9	-0,011
1085,3	-0,01
1085,7	-0,01
1086,1	-0,01
1086,5	-0,01
1086,9	-0,01
1087,3	-0,008
1087,7	-0,01
1088,2	-0,011
1088,6	-0,01
1089	-0,012
1089,4	-0,011
1089,8	-0,013
1090,2	-0,013
1090,6	-0,014
1091	-0,013
1091,4	-0,016
1091,9	-0,016
1092,3	-0,016
1092,7	-0,013
1093,1	-0,015
1093,5	-0,017
1093,9	-0,016
1094,3	-0,018
1094,7	-0,018
1095,1	-0,025
1095,5	-0,029
1096	-0,03
1096,4	-0,037
1096,8	-0,039
1097,2	-0,037
1097,6	-0,04
1098	-0,031
1098,4	-0,035
1098,8	-0,037
1099,2	-0,033
1099,6	-0,036
1100,1	-0,036
1100,5	-0,038
1100,9	-0,046
1101,3	-0,046
1101,7	-0,04
1102,1	-0,036
1102,5	-0,037
1102,9	-0,038
1103,3	-0,035
1103,7	-0,039
1104,2	-0,046
1104,6	-0,054
1105	-0,064
1105,4	-0,069
1105,8	-0,074
1106,2	-0,084
1106,6	-0,085
1107	-0,083
1107,4	-0,102
1107,8	-0,086
1108,3	0,202
