Data from Absorbance_00007.txt Node
Date: Fri Jul 14 16:21:37 MSK 2023
User: vat
Spectrometer: MAYP114033
Trigger mode: 0
Integration Time (sec): 8,000000E-3
Scans to average: 20
Electric dark correction enabled: true
Nonlinearity correction enabled: false
Boxcar width: 3
XAxis mode: Wavelengths
Number of Pixels in Spectrum: 2068
>>>>>Begin Spectral Data<<<<<
199,4	0,283
199,9	-0
200,4	-0,485
200,8	-0,285
201,3	-0,148
201,8	-0,116
202,2	-0,095
202,7	-0,116
203,2	-0,094
203,6	-0,074
204,1	-0,059
204,6	-0,037
205	-0,021
205,5	-0,043
206	-0,039
206,4	-0,03
206,9	-0,038
207,4	-0,051
207,8	-0,058
208,3	-0,066
208,8	-0,051
209,2	-0,055
209,7	-0,08
210,2	-0,088
210,6	-0,101
211,1	-0,115
211,5	-0,135
212	-0,137
212,5	-0,129
212,9	-0,126
213,4	-0,129
213,9	-0,105
214,3	-0,102
214,8	-0,08
215,3	-0,077
215,7	-0,074
216,2	-0,061
216,7	-0,045
217,1	-0,064
217,6	-0,062
218,1	-0,087
218,5	-0,084
219	-0,089
219,5	-0,101
219,9	-0,092
220,4	-0,082
220,9	-0,087
221,3	-0,068
221,8	-0,09
222,3	-0,077
222,7	-0,077
223,2	-0,082
223,6	-0,092
224,1	-0,084
224,6	-0,104
225	-0,076
225,5	-0,065
226	-0,043
226,4	-0,04
226,9	-0,025
227,4	-0,036
227,8	-0,048
228,3	-0,043
228,8	-0,062
229,2	-0,083
229,7	-0,092
230,2	-0,098
230,6	-0,086
231,1	-0,056
231,5	-0,063
232	-0,048
232,5	-0,053
232,9	-0,048
233,4	-0,035
233,9	-0,043
234,3	-0,039
234,8	-0,043
235,3	-0,033
235,7	-0,007
236,2	-0,002
236,7	0,001
237,1	0,002
237,6	-0,002
238,1	0,002
238,5	-0,016
239	-0,018
239,4	-0,01
239,9	-0,026
240,4	-0,003
240,8	0,002
241,3	-0,006
241,8	-0,012
242,2	-0,007
242,7	-0,009
243,2	0,015
243,6	0,005
244,1	0,016
244,6	0,049
245	0,074
245,5	0,067
245,9	0,093
246,4	0,1
246,9	0,115
247,3	0,13
247,8	0,141
248,3	0,153
248,7	0,195
249,2	0,197
249,7	0,23
250,1	0,254
250,6	0,285
251	0,31
251,5	0,334
252	0,374
252,4	0,428
252,9	0,49
253,4	0,57
253,8	0,646
254,3	0,719
254,8	0,8
255,2	0,874
255,7	0,944
256,1	1,005
256,6	1,074
257,1	1,127
257,5	1,189
258	1,249
258,5	1,29
258,9	1,337
259,4	1,388
259,9	1,419
260,3	1,445
260,8	1,479
261,2	1,51
261,7	1,521
262,2	1,549
262,6	1,544
263,1	1,555
263,6	1,569
264	1,584
264,5	1,594
264,9	1,628
265,4	1,638
265,9	1,672
266,3	1,679
266,8	1,696
267,3	1,701
267,7	1,711
268,2	1,707
268,7	1,719
269,1	1,739
269,6	1,76
270	1,779
270,5	1,802
271	1,823
271,4	1,846
271,9	1,857
272,4	1,857
272,8	1,852
273,3	1,851
273,7	1,845
274,2	1,843
274,7	1,845
275,1	1,859
275,6	1,865
276,1	1,871
276,5	1,873
277	1,874
277,4	1,878
277,9	1,873
278,4	1,856
278,8	1,834
279,3	1,813
279,8	1,794
280,2	1,757
280,7	1,71
281,1	1,668
281,6	1,613
282,1	1,56
282,5	1,501
283	1,438
283,4	1,378
283,9	1,319
284,4	1,259
284,8	1,204
285,3	1,147
285,8	1,099
286,2	1,056
286,7	1,016
287,1	0,98
287,6	0,949
288,1	0,921
288,5	0,898
289	0,875
289,5	0,855
289,9	0,838
290,4	0,824
290,8	0,812
291,3	0,801
291,8	0,794
292,2	0,788
292,7	0,781
293,1	0,776
293,6	0,772
294,1	0,768
294,5	0,764
295	0,76
295,5	0,755
295,9	0,752
296,4	0,75
296,8	0,747
297,3	0,743
297,8	0,741
298,2	0,739
298,7	0,736
299,1	0,734
299,6	0,731
300,1	0,728
300,5	0,727
301	0,724
301,5	0,722
301,9	0,719
302,4	0,716
302,8	0,713
303,3	0,709
303,8	0,705
304,2	0,701
304,7	0,696
305,1	0,692
305,6	0,688
306,1	0,684
306,5	0,681
307	0,677
307,4	0,673
307,9	0,669
308,4	0,665
308,8	0,66
309,3	0,656
309,8	0,651
310,2	0,646
310,7	0,641
311,1	0,635
311,6	0,629
312,1	0,625
312,5	0,619
313	0,615
313,4	0,609
313,9	0,603
314,4	0,598
314,8	0,593
315,3	0,587
315,7	0,581
316,2	0,575
316,7	0,57
317,1	0,565
317,6	0,559
318	0,553
318,5	0,546
319	0,54
319,4	0,535
319,9	0,529
320,3	0,524
320,8	0,519
321,3	0,514
321,7	0,509
322,2	0,503
322,6	0,497
323,1	0,491
323,6	0,485
324	0,479
324,5	0,473
324,9	0,467
325,4	0,461
325,9	0,455
326,3	0,449
326,8	0,443
327,2	0,437
327,7	0,431
328,2	0,425
328,6	0,419
329,1	0,413
329,5	0,408
330	0,402
330,5	0,397
330,9	0,391
331,4	0,386
331,8	0,38
332,3	0,374
332,8	0,37
333,2	0,364
333,7	0,359
334,1	0,354
334,6	0,348
335,1	0,343
335,5	0,338
336	0,333
336,4	0,328
336,9	0,322
337,4	0,318
337,8	0,313
338,3	0,308
338,7	0,303
339,2	0,298
339,7	0,293
340,1	0,289
340,6	0,283
341	0,279
341,5	0,274
342	0,269
342,4	0,265
342,9	0,261
343,3	0,256
343,8	0,251
344,2	0,247
344,7	0,244
345,2	0,24
345,6	0,236
346,1	0,232
346,5	0,228
347	0,224
347,5	0,221
347,9	0,217
348,4	0,214
348,8	0,21
349,3	0,206
349,8	0,203
350,2	0,199
350,7	0,195
351,1	0,192
351,6	0,189
352	0,185
352,5	0,182
353	0,179
353,4	0,176
353,9	0,174
354,3	0,17
354,8	0,167
355,3	0,165
355,7	0,161
356,2	0,158
356,6	0,155
357,1	0,153
357,5	0,151
358	0,149
358,5	0,146
358,9	0,145
359,4	0,143
359,8	0,14
360,3	0,138
360,8	0,136
361,2	0,133
361,7	0,131
362,1	0,128
362,6	0,125
363	0,124
363,5	0,121
364	0,119
364,4	0,117
364,9	0,115
365,3	0,114
365,8	0,112
366,3	0,11
366,7	0,108
367,2	0,106
367,6	0,105
368,1	0,103
368,5	0,101
369	0,1
369,5	0,098
369,9	0,098
370,4	0,096
370,8	0,094
371,3	0,093
371,7	0,091
372,2	0,09
372,7	0,088
373,1	0,087
373,6	0,086
374	0,085
374,5	0,083
374,9	0,082
375,4	0,081
375,9	0,079
376,3	0,078
376,8	0,076
377,2	0,075
377,7	0,074
378,2	0,073
378,6	0,073
379,1	0,072
379,5	0,07
380	0,07
380,4	0,068
380,9	0,067
381,4	0,066
381,8	0,065
382,3	0,064
382,7	0,063
383,2	0,061
383,6	0,061
384,1	0,06
384,6	0,06
385	0,059
385,5	0,058
385,9	0,058
386,4	0,057
386,8	0,056
387,3	0,055
387,7	0,054
388,2	0,053
388,7	0,052
389,1	0,052
389,6	0,051
390	0,05
390,5	0,049
390,9	0,049
391,4	0,048
391,9	0,048
392,3	0,047
392,8	0,046
393,2	0,046
393,7	0,045
394,1	0,044
394,6	0,043
395,1	0,042
395,5	0,042
396	0,041
396,4	0,04
396,9	0,04
397,3	0,039
397,8	0,039
398,2	0,038
398,7	0,038
399,2	0,038
399,6	0,038
400,1	0,037
400,5	0,037
401	0,035
401,4	0,035
401,9	0,034
402,4	0,033
402,8	0,033
403,3	0,033
403,7	0,032
404,2	0,033
404,6	0,033
405,1	0,032
405,5	0,032
406	0,031
406,5	0,03
406,9	0,03
407,4	0,029
407,8	0,029
408,3	0,029
408,7	0,029
409,2	0,028
409,6	0,028
410,1	0,028
410,6	0,028
411	0,027
411,5	0,027
411,9	0,027
412,4	0,026
412,8	0,025
413,3	0,025
413,7	0,024
414,2	0,024
414,7	0,024
415,1	0,023
415,6	0,023
416	0,023
416,5	0,022
416,9	0,022
417,4	0,021
417,8	0,021
418,3	0,021
418,8	0,021
419,2	0,02
419,7	0,02
420,1	0,02
420,6	0,019
421	0,019
421,5	0,018
421,9	0,018
422,4	0,018
422,8	0,018
423,3	0,017
423,8	0,017
424,2	0,017
424,7	0,018
425,1	0,017
425,6	0,017
426	0,016
426,5	0,016
426,9	0,015
427,4	0,015
427,9	0,014
428,3	0,014
428,8	0,013
429,2	0,013
429,7	0,013
430,1	0,013
430,6	0,012
431	0,013
431,5	0,012
431,9	0,012
432,4	0,012
432,8	0,012
433,3	0,011
433,8	0,011
434,2	0,011
434,7	0,01
435,1	0,01
435,6	0,01
436	0,01
436,5	0,01
436,9	0,01
437,4	0,009
437,8	0,009
438,3	0,009
438,8	0,008
439,2	0,009
439,7	0,009
440,1	0,008
440,6	0,008
441	0,008
441,5	0,008
441,9	0,008
442,4	0,008
442,8	0,007
443,3	0,007
443,7	0,007
444,2	0,007
444,7	0,007
445,1	0,006
445,6	0,007
446	0,007
446,5	0,006
446,9	0,006
447,4	0,007
447,8	0,007
448,3	0,007
448,7	0,006
449,2	0,007
449,6	0,006
450,1	0,006
450,6	0,006
451	0,006
451,5	0,006
451,9	0,006
452,4	0,006
452,8	0,006
453,3	0,006
453,7	0,006
454,2	0,006
454,6	0,006
455,1	0,006
455,5	0,006
456	0,005
456,4	0,005
456,9	0,005
457,3	0,004
457,8	0,004
458,3	0,003
458,7	0,003
459,2	0,003
459,6	0,002
460,1	0,002
460,5	0,003
461	0,003
461,4	0,003
461,9	0,003
462,3	0,003
462,8	0,003
463,2	0,003
463,7	0,003
464,1	0,003
464,6	0,003
465	0,003
465,5	0,003
466	0,003
466,4	0,003
466,9	0,003
467,3	0,003
467,8	0,003
468,2	0,003
468,7	0,003
469,1	0,004
469,6	0,004
470	0,004
470,5	0,005
470,9	0,005
471,4	0,004
471,8	0,004
472,3	0,004
472,7	0,004
473,2	0,003
473,6	0,003
474,1	0,003
474,5	0,002
475	0,002
475,4	0,001
475,9	0,002
476,4	0,002
476,8	0,001
477,3	0,001
477,7	0,001
478,2	0,002
478,6	0,003
479,1	0,002
479,5	0,003
480	0,003
480,4	0,003
480,9	0,003
481,3	0,003
481,8	0,002
482,2	0,002
482,7	0,002
483,1	0,002
483,6	0,002
484	0,002
484,5	0,001
484,9	0,001
485,4	0,001
485,8	-0
486,3	0,002
486,7	0,002
487,2	0,003
487,6	0,003
488,1	0,003
488,5	0,004
489	0,005
489,4	0,003
489,9	0,002
490,4	0,002
490,8	0,002
491,3	0,002
491,7	0,002
492,2	0,002
492,6	0,002
493,1	0,002
493,5	0,002
494	0,002
494,4	0,002
494,9	0,002
495,3	0,002
495,8	0,002
496,2	0,002
496,7	0,002
497,1	0,002
497,6	0,001
498	0,001
498,5	0,001
498,9	0,001
499,4	0,001
499,8	0,002
500,3	0,002
500,7	0,003
501,2	0,003
501,6	0,003
502,1	0,003
502,5	0,003
503	0,003
503,4	0,002
503,9	0,002
504,3	0,002
504,8	0,003
505,2	0,002
505,7	0,003
506,1	0,002
506,6	0,003
507	0,003
507,5	0,003
507,9	0,002
508,4	0,003
508,8	0,003
509,3	0,003
509,7	0,003
510,2	0,003
510,6	0,003
511,1	0,003
511,5	0,003
512	0,003
512,4	0,003
512,9	0,003
513,3	0,003
513,8	0,003
514,2	0,003
514,7	0,003
515,1	0,003
515,6	0,003
516	0,002
516,5	0,003
516,9	0,003
517,4	0,003
517,8	0,003
518,3	0,003
518,7	0,003
519,2	0,003
519,6	0,003
520,1	0,003
520,5	0,003
521	0,002
521,4	0,003
521,9	0,003
522,3	0,003
522,8	0,003
523,2	0,003
523,7	0,003
524,1	0,003
524,6	0,003
525	0,003
525,5	0,002
525,9	0,001
526,4	0,001
526,8	0,001
527,3	0,001
527,7	0,001
528,2	0,001
528,6	0,001
529,1	0,001
529,5	0,002
530	0,002
530,4	0,003
530,9	0,003
531,3	0,003
531,8	0,004
532,2	0,004
532,6	0,003
533,1	0,003
533,5	0,002
534	0,003
534,4	0,003
534,9	0,003
535,3	0,003
535,8	0,003
536,2	0,004
536,7	0,004
537,1	0,003
537,6	0,003
538	0,003
538,5	0,003
538,9	0,003
539,4	0,002
539,8	0,002
540,3	0,002
540,7	0,003
541,2	0,003
541,6	0,002
542,1	0,002
542,5	0,003
543	0,003
543,4	0,004
543,9	0,004
544,3	0,004
544,8	0,004
545,2	0,003
545,7	0,003
546,1	0,003
546,5	0,003
547	0,003
547,4	0,002
547,9	0,003
548,3	0,003
548,8	0,004
549,2	0,004
549,7	0,004
550,1	0,004
550,6	0,005
551	0,005
551,5	0,004
551,9	0,004
552,4	0,003
552,8	0,003
553,3	0,003
553,7	0,003
554,2	0,003
554,6	0,003
555,1	0,003
555,5	0,004
555,9	0,004
556,4	0,004
556,8	0,004
557,3	0,004
557,7	0,003
558,2	0,003
558,6	0,003
559,1	0,003
559,5	0,003
560	0,004
560,4	0,004
560,9	0,004
561,3	0,004
561,8	0,004
562,2	0,004
562,7	0,004
563,1	0,003
563,6	0,003
564	0,003
564,4	0,003
564,9	0,003
565,3	0,003
565,8	0,003
566,2	0,003
566,7	0,003
567,1	0,003
567,6	0,003
568	0,003
568,5	0,003
568,9	0,003
569,4	0,002
569,8	0,003
570,3	0,003
570,7	0,003
571,1	0,004
571,6	0,004
572	0,004
572,5	0,004
572,9	0,004
573,4	0,003
573,8	0,003
574,3	0,003
574,7	0,003
575,2	0,003
575,6	0,003
576,1	0,003
576,5	0,003
576,9	0,003
577,4	0,003
577,8	0,003
578,3	0,003
578,7	0,003
579,2	0,003
579,6	0,003
580,1	0,003
580,5	0,003
581	0,003
581,4	0,003
581,9	0,003
582,3	0,003
582,7	0,003
583,2	0,003
583,6	0,004
584,1	0,004
584,5	0,004
585	0,004
585,4	0,004
585,9	0,004
586,3	0,004
586,8	0,003
587,2	0,003
587,6	0,004
588,1	0,003
588,5	0,003
589	0,003
589,4	0,003
589,9	0,003
590,3	0,004
590,8	0,004
591,2	0,004
591,7	0,004
592,1	0,003
592,5	0,003
593	0,003
593,4	0,003
593,9	0,003
594,3	0,003
594,8	0,002
595,2	0,002
595,7	0,002
596,1	0,003
596,6	0,003
597	0,003
597,4	0,004
597,9	0,004
598,3	0,004
598,8	0,004
599,2	0,004
599,7	0,004
600,1	0,004
600,6	0,004
601	0,004
601,4	0,004
601,9	0,004
602,3	0,004
602,8	0,004
603,2	0,004
603,7	0,004
604,1	0,004
604,6	0,003
605	0,003
605,4	0,004
605,9	0,004
606,3	0,004
606,8	0,004
607,2	0,004
607,7	0,004
608,1	0,004
608,6	0,004
609	0,004
609,4	0,004
609,9	0,004
610,3	0,004
610,8	0,004
611,2	0,004
611,7	0,004
612,1	0,004
612,6	0,004
613	0,004
613,4	0,004
613,9	0,004
614,3	0,004
614,8	0,004
615,2	0,004
615,7	0,005
616,1	0,005
616,6	0,005
617	0,005
617,4	0,005
617,9	0,005
618,3	0,005
618,8	0,005
619,2	0,005
619,7	0,005
620,1	0,004
620,5	0,004
621	0,004
621,4	0,004
621,9	0,003
622,3	0,003
622,8	0,003
623,2	0,003
623,6	0,004
624,1	0,004
624,5	0,004
625	0,005
625,4	0,005
625,9	0,005
626,3	0,005
626,8	0,005
627,2	0,005
627,6	0,005
628,1	0,005
628,5	0,005
629	0,005
629,4	0,005
629,9	0,005
630,3	0,005
630,7	0,005
631,2	0,005
631,6	0,005
632,1	0,005
632,5	0,004
633	0,004
633,4	0,005
633,8	0,005
634,3	0,005
634,7	0,005
635,2	0,005
635,6	0,005
636,1	0,005
636,5	0,005
636,9	0,004
637,4	0,004
637,8	0,004
638,3	0,004
638,7	0,005
639,2	0,005
639,6	0,005
640	0,005
640,5	0,005
640,9	0,005
641,4	0,005
641,8	0,005
642,2	0,005
642,7	0,005
643,1	0,005
643,6	0,005
644	0,005
644,5	0,005
644,9	0,005
645,3	0,005
645,8	0,005
646,2	0,005
646,7	0,004
647,1	0,004
647,6	0,004
648	0,004
648,4	0,004
648,9	0,004
649,3	0,004
649,8	0,004
650,2	0,004
650,6	0,004
651,1	0,004
651,5	0,004
652	0,004
652,4	0,004
652,9	0,004
653,3	0,004
653,7	0,004
654,2	0,004
654,6	0,003
655,1	0,001
655,5	-0,004
655,9	-0,003
656,4	-0,002
656,8	-0,002
657,3	-0
657,7	0
658,2	0,001
658,6	0,003
659	0,004
659,5	0,006
659,9	0,011
660,4	0,009
660,8	0,007
661,2	0,007
661,7	0,006
662,1	0,006
662,6	0,005
663	0,005
663,4	0,005
663,9	0,005
664,3	0,005
664,8	0,005
665,2	0,005
665,6	0,005
666,1	0,006
666,5	0,005
667	0,005
667,4	0,005
667,9	0,005
668,3	0,005
668,7	0,005
669,2	0,005
669,6	0,005
670,1	0,005
670,5	0,004
670,9	0,004
671,4	0,004
671,8	0,004
672,3	0,004
672,7	0,004
673,1	0,004
673,6	0,004
674	0,004
674,5	0,004
674,9	0,004
675,3	0,004
675,8	0,004
676,2	0,004
676,7	0,005
677,1	0,005
677,5	0,005
678	0,005
678,4	0,005
678,9	0,005
679,3	0,005
679,7	0,005
680,2	0,005
680,6	0,005
681,1	0,005
681,5	0,005
681,9	0,005
682,4	0,006
682,8	0,005
683,3	0,006
683,7	0,006
684,1	0,005
684,6	0,005
685	0,005
685,5	0,005
685,9	0,005
686,3	0,005
686,8	0,005
687,2	0,005
687,7	0,004
688,1	0,004
688,5	0,004
689	0,004
689,4	0,004
689,9	0,004
690,3	0,004
690,7	0,004
691,2	0,004
691,6	0,005
692	0,005
692,5	0,005
692,9	0,005
693,4	0,005
693,8	0,005
694,2	0,005
694,7	0,005
695,1	0,005
695,6	0,005
696	0,005
696,4	0,005
696,9	0,005
697,3	0,005
697,8	0,005
698,2	0,005
698,6	0,005
699,1	0,005
699,5	0,005
699,9	0,005
700,4	0,005
700,8	0,005
701,3	0,004
701,7	0,004
702,1	0,004
702,6	0,004
703	0,005
703,5	0,005
703,9	0,005
704,3	0,005
704,8	0,005
705,2	0,005
705,6	0,005
706,1	0,005
706,5	0,005
707	0,005
707,4	0,005
707,8	0,005
708,3	0,005
708,7	0,005
709,2	0,005
709,6	0,005
710	0,005
710,5	0,005
710,9	0,005
711,3	0,005
711,8	0,005
712,2	0,005
712,7	0,005
713,1	0,005
713,5	0,005
714	0,004
714,4	0,004
714,8	0,004
715,3	0,004
715,7	0,004
716,2	0,004
716,6	0,004
717	0,004
717,5	0,004
717,9	0,004
718,3	0,004
718,8	0,004
719,2	0,005
719,7	0,005
720,1	0,005
720,5	0,005
721	0,005
721,4	0,005
721,8	0,005
722,3	0,005
722,7	0,004
723,2	0,004
723,6	0,005
724	0,005
724,5	0,005
724,9	0,005
725,3	0,005
725,8	0,005
726,2	0,005
726,7	0,005
727,1	0,005
727,5	0,005
728	0,005
728,4	0,005
728,8	0,005
729,3	0,005
729,7	0,005
730,1	0,005
730,6	0,005
731	0,005
731,5	0,005
731,9	0,005
732,3	0,005
732,8	0,005
733,2	0,005
733,6	0,005
734,1	0,005
734,5	0,005
734,9	0,005
735,4	0,005
735,8	0,005
736,3	0,005
736,7	0,004
737,1	0,005
737,6	0,005
738	0,004
738,4	0,004
738,9	0,004
739,3	0,004
739,7	0,004
740,2	0,004
740,6	0,004
741,1	0,005
741,5	0,005
741,9	0,005
742,4	0,005
742,8	0,005
743,2	0,006
743,7	0,005
744,1	0,005
744,5	0,005
745	0,005
745,4	0,005
745,8	0,005
746,3	0,005
746,7	0,005
747,2	0,005
747,6	0,005
748	0,005
748,5	0,005
748,9	0,005
749,3	0,005
749,8	0,005
750,2	0,005
750,6	0,005
751,1	0,005
751,5	0,005
751,9	0,005
752,4	0,005
752,8	0,004
753,3	0,004
753,7	0,004
754,1	0,004
754,6	0,005
755	0,005
755,4	0,005
755,9	0,005
756,3	0,005
756,7	0,005
757,2	0,005
757,6	0,005
758	0,005
758,5	0,005
758,9	0,005
759,3	0,005
759,8	0,005
760,2	0,005
760,6	0,006
761,1	0,005
761,5	0,005
761,9	0,006
762,4	0,005
762,8	0,005
763,3	0,005
763,7	0,005
764,1	0,005
764,6	0,005
765	0,005
765,4	0,005
765,9	0,005
766,3	0,005
766,7	0,005
767,2	0,005
767,6	0,005
768	0,005
768,5	0,005
768,9	0,005
769,3	0,006
769,8	0,006
770,2	0,006
770,6	0,006
771,1	0,005
771,5	0,005
771,9	0,005
772,4	0,005
772,8	0,005
773,2	0,004
773,7	0,004
774,1	0,005
774,5	0,005
775	0,005
775,4	0,005
775,8	0,005
776,3	0,005
776,7	0,006
777,1	0,006
777,6	0,006
778	0,006
778,4	0,006
778,9	0,006
779,3	0,006
779,7	0,005
780,2	0,005
780,6	0,005
781	0,004
781,5	0,004
781,9	0,004
782,3	0,004
782,8	0,005
783,2	0,005
783,6	0,005
784,1	0,005
784,5	0,005
784,9	0,005
785,4	0,005
785,8	0,005
786,2	0,005
786,7	0,005
787,1	0,005
787,5	0,005
788	0,005
788,4	0,005
788,8	0,005
789,3	0,005
789,7	0,005
790,1	0,005
790,6	0,005
791	0,005
791,4	0,005
791,9	0,005
792,3	0,005
792,7	0,005
793,2	0,005
793,6	0,006
794	0,005
794,5	0,005
794,9	0,005
795,3	0,006
795,8	0,006
796,2	0,006
796,6	0,006
797,1	0,006
797,5	0,006
797,9	0,007
798,4	0,006
798,8	0,006
799,2	0,006
799,7	0,006
800,1	0,006
800,5	0,006
801	0,006
801,4	0,005
801,8	0,006
802,2	0,006
802,7	0,006
803,1	0,006
803,5	0,006
804	0,006
804,4	0,006
804,8	0,006
805,3	0,005
805,7	0,005
806,1	0,005
806,6	0,005
807	0,005
807,4	0,005
807,9	0,005
808,3	0,005
808,7	0,005
809,2	0,005
809,6	0,005
810	0,005
810,4	0,005
810,9	0,005
811,3	0,005
811,7	0,005
812,2	0,005
812,6	0,005
813	0,005
813,5	0,005
813,9	0,005
814,3	0,005
814,8	0,005
815,2	0,004
815,6	0,004
816,1	0,004
816,5	0,004
816,9	0,004
817,3	0,004
817,8	0,004
818,2	0,004
818,6	0,004
819,1	0,004
819,5	0,004
819,9	0,004
820,4	0,004
820,8	0,004
821,2	0,004
821,7	0,004
822,1	0,004
822,5	0,005
822,9	0,005
823,4	0,005
823,8	0,005
824,2	0,005
824,7	0,005
825,1	0,005
825,5	0,005
826	0,005
826,4	0,005
826,8	0,006
827,3	0,006
827,7	0,006
828,1	0,006
828,5	0,005
829	0,005
829,4	0,005
829,8	0,005
830,3	0,005
830,7	0,005
831,1	0,005
831,6	0,005
832	0,006
832,4	0,005
832,8	0,005
833,3	0,005
833,7	0,005
834,1	0,005
834,6	0,005
835	0,005
835,4	0,006
835,8	0,006
836,3	0,006
836,7	0,005
837,1	0,005
837,6	0,006
838	0,006
838,4	0,006
838,9	0,006
839,3	0,006
839,7	0,006
840,1	0,006
840,6	0,006
841	0,006
841,4	0,006
841,9	0,006
842,3	0,006
842,7	0,006
843,1	0,006
843,6	0,006
844	0,006
844,4	0,007
844,9	0,007
845,3	0,007
845,7	0,007
846,2	0,007
846,6	0,007
847	0,007
847,4	0,007
847,9	0,007
848,3	0,007
848,7	0,007
849,2	0,006
849,6	0,006
850	0,006
850,4	0,006
850,9	0,005
851,3	0,005
851,7	0,005
852,2	0,005
852,6	0,005
853	0,005
853,4	0,005
853,9	0,006
854,3	0,006
854,7	0,006
855,2	0,006
855,6	0,006
856	0,006
856,4	0,006
856,9	0,006
857,3	0,006
857,7	0,006
858,2	0,006
858,6	0,006
859	0,006
859,4	0,006
859,9	0,006
860,3	0,006
860,7	0,006
861,1	0,006
861,6	0,006
862	0,006
862,4	0,005
862,9	0,005
863,3	0,005
863,7	0,004
864,1	0,004
864,6	0,004
865	0,004
865,4	0,004
865,9	0,004
866,3	0,004
866,7	0,004
867,1	0,004
867,6	0,004
868	0,004
868,4	0,004
868,8	0,004
869,3	0,004
869,7	0,004
870,1	0,004
870,6	0,004
871	0,005
871,4	0,005
871,8	0,005
872,3	0,005
872,7	0,005
873,1	0,005
873,5	0,005
874	0,004
874,4	0,004
874,8	0,004
875,3	0,004
875,7	0,003
876,1	0,003
876,5	0,003
877	0,003
877,4	0,003
877,8	0,004
878,2	0,004
878,7	0,004
879,1	0,004
879,5	0,004
879,9	0,004
880,4	0,004
880,8	0,004
881,2	0,004
881,7	0,004
882,1	0,004
882,5	0,004
882,9	0,004
883,4	0,004
883,8	0,004
884,2	0,004
884,6	0,004
885,1	0,004
885,5	0,004
885,9	0,003
886,3	0,003
886,8	0,003
887,2	0,003
887,6	0,003
888	0,003
888,5	0,003
888,9	0,003
889,3	0,003
889,8	0,003
890,2	0,003
890,6	0,004
891	0,004
891,5	0,004
891,9	0,004
892,3	0,005
892,7	0,005
893,2	0,005
893,6	0,006
894	0,006
894,4	0,006
894,9	0,006
895,3	0,006
895,7	0,006
896,1	0,006
896,6	0,005
897	0,005
897,4	0,005
897,8	0,005
898,3	0,005
898,7	0,005
899,1	0,005
899,5	0,005
900	0,005
900,4	0,005
900,8	0,005
901,2	0,005
901,7	0,005
902,1	0,005
902,5	0,004
902,9	0,004
903,4	0,004
903,8	0,004
904,2	0,005
904,6	0,004
905,1	0,005
905,5	0,005
905,9	0,005
906,3	0,005
906,8	0,004
907,2	0,004
907,6	0,004
908	0,004
908,5	0,004
908,9	0,004
909,3	0,004
909,7	0,004
910,2	0,004
910,6	0,004
911	0,004
911,4	0,004
911,9	0,004
912,3	0,003
912,7	0,003
913,1	0,003
913,6	0,003
914	0,003
914,4	0,003
914,8	0,003
915,3	0,003
915,7	0,004
916,1	0,004
916,5	0,004
916,9	0,004
917,4	0,005
917,8	0,005
918,2	0,005
918,6	0,005
919,1	0,005
919,5	0,004
919,9	0,004
920,3	0,004
920,8	0,004
921,2	0,004
921,6	0,004
922	0,004
922,5	0,004
922,9	0,005
923,3	0,004
923,7	0,005
924,2	0,005
924,6	0,005
925	0,005
925,4	0,005
925,8	0,004
926,3	0,004
926,7	0,004
927,1	0,004
927,5	0,004
928	0,003
928,4	0,003
928,8	0,003
929,2	0,003
929,7	0,003
930,1	0,003
930,5	0,003
930,9	0,004
931,3	0,004
931,8	0,003
932,2	0,004
932,6	0,003
933	0,003
933,5	0,004
933,9	0,003
934,3	0,003
934,7	0,004
935,2	0,004
935,6	0,004
936	0,004
936,4	0,004
936,8	0,004
937,3	0,004
937,7	0,004
938,1	0,005
938,5	0,004
939	0,004
939,4	0,004
939,8	0,004
940,2	0,004
940,6	0,004
941,1	0,004
941,5	0,004
941,9	0,003
942,3	0,003
942,8	0,003
943,2	0,003
943,6	0,004
944	0,003
944,4	0,003
944,9	0,003
945,3	0,003
945,7	0,003
946,1	0,002
946,6	0,002
947	0,002
947,4	0,002
947,8	0,002
948,2	0,002
948,7	0,003
949,1	0,003
949,5	0,003
949,9	0,003
950,3	0,004
950,8	0,004
951,2	0,004
951,6	0,003
952	0,003
952,5	0,004
952,9	0,003
953,3	0,003
953,7	0,003
954,1	0,003
954,6	0,003
955	0,002
955,4	0,002
955,8	0,002
956,2	0,002
956,7	0,002
957,1	0,002
957,5	0,002
957,9	0,003
958,3	0,002
958,8	0,002
959,2	0,002
959,6	0,002
960	0,002
960,5	0,002
960,9	0,002
961,3	0,002
961,7	0,002
962,1	0,002
962,6	0,002
963	0,002
963,4	0,002
963,8	0,002
964,2	0,002
964,7	0,002
965,1	0,002
965,5	0,002
965,9	0,002
966,3	0,002
966,8	0,002
967,2	0,002
967,6	0,002
968	0,002
968,4	0,001
968,9	0,002
969,3	0,001
969,7	0,001
970,1	0,001
970,5	0,001
971	0,001
971,4	0,001
971,8	0
972,2	0
972,6	-0
973,1	-0
973,5	-0,001
973,9	-0,001
974,3	-0
974,7	0
975,2	0,001
975,6	0,001
976	0,002
976,4	0,002
976,8	0,002
977,3	0,002
977,7	0,002
978,1	0,001
978,5	0,001
978,9	0,001
979,4	0,001
979,8	0,001
980,2	0,001
980,6	0,001
981	0,001
981,5	0
981,9	0,001
982,3	0
982,7	0,001
983,1	0,001
983,6	0,001
984	0,001
984,4	0,002
984,8	0,002
985,2	0,002
985,6	0,003
986,1	0,003
986,5	0,003
986,9	0,002
987,3	0,002
987,7	0,002
988,2	0,002
988,6	0,002
989	0,002
989,4	0,002
989,8	0,002
990,3	0,002
990,7	0,002
991,1	0,002
991,5	0,002
991,9	0,002
992,3	0,002
992,8	0,002
993,2	0,002
993,6	0,002
994	0,002
994,4	0,003
994,9	0,003
995,3	0,003
995,7	0,003
996,1	0,003
996,5	0,003
996,9	0,002
997,4	0,001
997,8	0,001
998,2	0,001
998,6	0,001
999	0
999,5	0
999,9	0
1000,3	0,001
1000,7	0,002
1001,1	0,002
1001,5	0,002
1002	0,002
1002,4	0,003
1002,8	0,003
1003,2	0,004
1003,6	0,004
1004	0,004
1004,5	0,004
1004,9	0,004
1005,3	0,004
1005,7	0,004
1006,1	0,004
1006,6	0,004
1007	0,003
1007,4	0,004
1007,8	0,004
1008,2	0,004
1008,6	0,005
1009,1	0,005
1009,5	0,005
1009,9	0,006
1010,3	0,006
1010,7	0,005
1011,1	0,005
1011,6	0,005
1012	0,005
1012,4	0,004
1012,8	0,004
1013,2	0,004
1013,6	0,005
1014,1	0,004
1014,5	0,004
1014,9	0,004
1015,3	0,004
1015,7	0,004
1016,1	0,004
1016,6	0,004
1017	0,004
1017,4	0,004
1017,8	0,003
1018,2	0,003
1018,6	0,003
1019,1	0,003
1019,5	0,003
1019,9	0,002
1020,3	0,002
1020,7	0,002
1021,1	0,002
1021,6	0,002
1022	0,002
1022,4	0,001
1022,8	0,002
1023,2	0,003
1023,6	0,003
1024,1	0,003
1024,5	0,002
1024,9	0,003
1025,3	0,003
1025,7	0,003
1026,1	0,003
1026,6	0,003
1027	0,003
1027,4	0,003
1027,8	0,002
1028,2	0,002
1028,6	0,002
1029	0,002
1029,5	0,001
1029,9	0,001
1030,3	0,001
1030,7	0,001
1031,1	0,001
1031,5	0,001
1032	0,002
1032,4	0,002
1032,8	0,003
1033,2	0,002
1033,6	0,002
1034	0,002
1034,4	0,002
1034,9	0,001
1035,3	0,002
1035,7	0,002
1036,1	0,002
1036,5	0,002
1036,9	0,002
1037,4	0,001
1037,8	0,001
1038,2	0,001
1038,6	0,001
1039	0,001
1039,4	0,001
1039,8	0,001
1040,3	0,002
1040,7	0,002
1041,1	0,002
1041,5	0,002
1041,9	0,002
1042,3	0,002
1042,7	0,002
1043,2	0,002
1043,6	0,001
1044	0,001
1044,4	0,002
1044,8	0,003
1045,2	0,003
1045,6	0,003
1046,1	0,003
1046,5	0,004
1046,9	0,004
1047,3	0,003
1047,7	0,003
1048,1	0,003
1048,5	0,002
1049	0,001
1049,4	0,001
1049,8	0,002
1050,2	0,003
1050,6	0,002
1051	0,002
1051,4	0,003
1051,9	0,003
1052,3	0,003
1052,7	0,001
1053,1	0,002
1053,5	0,001
1053,9	0,001
1054,3	0,001
1054,8	0
1055,2	-0
1055,6	0
1056	-0
1056,4	0,001
1056,8	0,001
1057,2	0,001
1057,6	0,001
1058,1	0,001
1058,5	0,002
1058,9	0,002
1059,3	0,001
1059,7	0,002
1060,1	0,001
1060,5	0,001
1061	0,002
1061,4	0,002
1061,8	0,001
1062,2	0,001
1062,6	0,001
1063	0,002
1063,4	0,001
1063,8	0,002
1064,3	0,001
1064,7	0,002
1065,1	0,002
1065,5	0,002
1065,9	0,001
1066,3	0,002
1066,7	0,002
1067,1	0,001
1067,6	-0
1068	0
1068,4	0
1068,8	0,001
1069,2	-0
1069,6	-0,001
1070	-0,001
1070,4	-0
1070,9	-0
1071,3	-0,001
1071,7	-0,002
1072,1	-0,001
1072,5	-0
1072,9	0
1073,3	0,001
1073,7	0,001
1074,2	0,001
1074,6	0,003
1075	0,003
1075,4	0,002
1075,8	0,002
1076,2	0,001
1076,6	0,001
1077	0,001
1077,5	-0
1077,9	-0,001
1078,3	-0,001
1078,7	-0,002
1079,1	-0,002
1079,5	-0,001
1079,9	-0,001
1080,3	-0,001
1080,7	-0,001
1081,2	-0,002
1081,6	-0,001
1082	-0,002
1082,4	-0,003
1082,8	-0,003
1083,2	-0,003
1083,6	-0,004
1084	-0,003
1084,5	-0,003
1084,9	-0,002
1085,3	-0,002
1085,7	-0,002
1086,1	-0,001
1086,5	-0
1086,9	-0,001
1087,3	-0,002
1087,7	-0,003
1088,2	-0,003
1088,6	-0,004
1089	-0,006
1089,4	-0,006
1089,8	-0,006
1090,2	-0,005
1090,6	-0,007
1091	-0,008
1091,4	-0,01
1091,9	-0,011
1092,3	-0,012
1092,7	-0,009
1093,1	-0,01
1093,5	-0,012
1093,9	-0,012
1094,3	-0,014
1094,7	-0,011
1095,1	-0,013
1095,5	-0,017
1096	-0,019
1096,4	-0,021
1096,8	-0,024
1097,2	-0,021
1097,6	-0,024
1098	-0,025
1098,4	-0,035
1098,8	-0,039
1099,2	-0,038
1099,6	-0,041
1100,1	-0,044
1100,5	-0,042
1100,9	-0,044
1101,3	-0,037
1101,7	-0,029
1102,1	-0,023
1102,5	-0,02
1102,9	-0,019
1103,3	-0,016
1103,7	-0,025
1104,2	-0,029
1104,6	-0,04
1105	-0,047
1105,4	-0,048
1105,8	-0,059
1106,2	-0,074
1106,6	-0,067
1107	-0,064
1107,4	-0,071
1107,8	-0,077
1108,3	-0,299
