Data from Absorbance_00013.txt Node
Date: Thu Aug 24 15:54:59 MSK 2023
User: vat
Spectrometer: MAYP114033
Trigger mode: 0
Integration Time (sec): 8,000000E-3
Scans to average: 10
Electric dark correction enabled: true
Nonlinearity correction enabled: false
Boxcar width: 3
XAxis mode: Wavelengths
Number of Pixels in Spectrum: 2068
>>>>>Begin Spectral Data<<<<<
199,4	-0
199,9	1,103
200,4	0,73
200,8	0,907
201,3	0,928
201,8	0,957
202,2	0,967
202,7	0,981
203,2	0,984
203,6	0,999
204,1	1,008
204,6	1,02
205	1,023
205,5	1,041
206	1,056
206,4	1,095
206,9	1,098
207,4	1,123
207,8	1,125
208,3	1,148
208,8	1,164
209,2	1,181
209,7	1,182
210,2	1,224
210,6	1,219
211,1	1,239
211,5	1,257
212	1,275
212,5	1,302
212,9	1,335
213,4	1,344
213,9	1,379
214,3	1,405
214,8	1,418
215,3	1,412
215,7	1,408
216,2	1,42
216,7	1,419
217,1	1,407
217,6	1,433
218,1	1,459
218,5	1,493
219	1,513
219,5	1,512
219,9	1,537
220,4	1,579
220,9	1,576
221,3	1,558
221,8	1,558
222,3	1,573
222,7	1,606
223,2	1,623
223,6	1,628
224,1	1,63
224,6	1,657
225	1,677
225,5	1,682
226	1,677
226,4	1,685
226,9	1,703
227,4	1,726
227,8	1,73
228,3	1,73
228,8	1,722
229,2	1,726
229,7	1,73
230,2	1,721
230,6	1,733
231,1	1,733
231,5	1,742
232	1,762
232,5	1,768
232,9	1,769
233,4	1,774
233,9	1,759
234,3	1,777
234,8	1,767
235,3	1,754
235,7	1,752
236,2	1,761
236,7	1,78
237,1	1,807
237,6	1,809
238,1	1,827
238,5	1,861
239	1,881
239,4	1,89
239,9	1,887
240,4	1,879
240,8	1,887
241,3	1,907
241,8	1,916
242,2	1,929
242,7	1,95
243,2	1,968
243,6	1,996
244,1	2,004
244,6	2,002
245	1,991
245,5	2,014
245,9	2,025
246,4	2,031
246,9	2,038
247,3	2,057
247,8	2,082
248,3	2,096
248,7	2,076
249,2	2,075
249,7	2,066
250,1	2,071
250,6	2,085
251	2,07
251,5	2,095
252	2,093
252,4	2,093
252,9	2,137
253,4	2,142
253,8	2,124
254,3	2,117
254,8	2,105
255,2	2,138
255,7	2,146
256,1	2,138
256,6	2,127
257,1	2,154
257,5	2,152
258	2,15
258,5	2,137
258,9	2,129
259,4	2,111
259,9	2,111
260,3	2,098
260,8	2,115
261,2	2,119
261,7	2,128
262,2	2,117
262,6	2,128
263,1	2,134
263,6	2,14
264	2,126
264,5	2,131
264,9	2,14
265,4	2,143
265,9	2,143
266,3	2,138
266,8	2,131
267,3	2,148
267,7	2,144
268,2	2,107
268,7	2,095
269,1	2,075
269,6	2,037
270	2,017
270,5	1,989
271	1,962
271,4	1,945
271,9	1,916
272,4	1,883
272,8	1,865
273,3	1,83
273,7	1,787
274,2	1,743
274,7	1,701
275,1	1,665
275,6	1,616
276,1	1,568
276,5	1,514
277	1,467
277,4	1,423
277,9	1,371
278,4	1,317
278,8	1,263
279,3	1,209
279,8	1,156
280,2	1,106
280,7	1,055
281,1	1,008
281,6	0,964
282,1	0,923
282,5	0,883
283	0,848
283,4	0,814
283,9	0,781
284,4	0,751
284,8	0,722
285,3	0,698
285,8	0,676
286,2	0,657
286,7	0,641
287,1	0,627
287,6	0,614
288,1	0,604
288,5	0,594
289	0,587
289,5	0,58
289,9	0,573
290,4	0,568
290,8	0,563
291,3	0,559
291,8	0,556
292,2	0,553
292,7	0,549
293,1	0,546
293,6	0,544
294,1	0,543
294,5	0,54
295	0,538
295,5	0,536
295,9	0,535
296,4	0,534
296,8	0,532
297,3	0,531
297,8	0,53
298,2	0,528
298,7	0,527
299,1	0,524
299,6	0,523
300,1	0,521
300,5	0,518
301	0,516
301,5	0,515
301,9	0,513
302,4	0,512
302,8	0,509
303,3	0,506
303,8	0,505
304,2	0,502
304,7	0,499
305,1	0,496
305,6	0,493
306,1	0,491
306,5	0,487
307	0,484
307,4	0,482
307,9	0,478
308,4	0,475
308,8	0,472
309,3	0,469
309,8	0,466
310,2	0,462
310,7	0,458
311,1	0,455
311,6	0,451
312,1	0,447
312,5	0,442
313	0,439
313,4	0,436
313,9	0,433
314,4	0,43
314,8	0,425
315,3	0,421
315,7	0,418
316,2	0,414
316,7	0,41
317,1	0,405
317,6	0,401
318	0,398
318,5	0,394
319	0,389
319,4	0,385
319,9	0,381
320,3	0,378
320,8	0,373
321,3	0,369
321,7	0,364
322,2	0,36
322,6	0,356
323,1	0,35
323,6	0,345
324	0,34
324,5	0,336
324,9	0,331
325,4	0,327
325,9	0,322
326,3	0,318
326,8	0,314
327,2	0,31
327,7	0,306
328,2	0,302
328,6	0,298
329,1	0,294
329,5	0,29
330	0,285
330,5	0,281
330,9	0,277
331,4	0,273
331,8	0,269
332,3	0,265
332,8	0,261
333,2	0,258
333,7	0,254
334,1	0,25
334,6	0,246
335,1	0,243
335,5	0,239
336	0,235
336,4	0,231
336,9	0,228
337,4	0,224
337,8	0,221
338,3	0,217
338,7	0,213
339,2	0,21
339,7	0,206
340,1	0,203
340,6	0,199
341	0,196
341,5	0,192
342	0,189
342,4	0,187
342,9	0,184
343,3	0,181
343,8	0,177
344,2	0,175
344,7	0,172
345,2	0,169
345,6	0,166
346,1	0,164
346,5	0,16
347	0,158
347,5	0,155
347,9	0,152
348,4	0,149
348,8	0,146
349,3	0,143
349,8	0,141
350,2	0,139
350,7	0,137
351,1	0,134
351,6	0,132
352	0,129
352,5	0,127
353	0,124
353,4	0,122
353,9	0,12
354,3	0,118
354,8	0,116
355,3	0,114
355,7	0,113
356,2	0,111
356,6	0,109
357,1	0,107
357,5	0,104
358	0,103
358,5	0,101
358,9	0,099
359,4	0,097
359,8	0,095
360,3	0,093
360,8	0,092
361,2	0,09
361,7	0,088
362,1	0,086
362,6	0,084
363	0,082
363,5	0,08
364	0,078
364,4	0,078
364,9	0,076
365,3	0,076
365,8	0,075
366,3	0,074
366,7	0,074
367,2	0,072
367,6	0,07
368,1	0,068
368,5	0,067
369	0,066
369,5	0,064
369,9	0,063
370,4	0,062
370,8	0,06
371,3	0,06
371,7	0,059
372,2	0,058
372,7	0,057
373,1	0,056
373,6	0,054
374	0,054
374,5	0,052
374,9	0,05
375,4	0,048
375,9	0,047
376,3	0,046
376,8	0,045
377,2	0,044
377,7	0,044
378,2	0,043
378,6	0,043
379,1	0,043
379,5	0,042
380	0,042
380,4	0,041
380,9	0,04
381,4	0,039
381,8	0,038
382,3	0,037
382,7	0,037
383,2	0,036
383,6	0,035
384,1	0,035
384,6	0,034
385	0,034
385,5	0,033
385,9	0,032
386,4	0,031
386,8	0,031
387,3	0,031
387,7	0,03
388,2	0,029
388,7	0,029
389,1	0,029
389,6	0,029
390	0,028
390,5	0,027
390,9	0,027
391,4	0,025
391,9	0,024
392,3	0,024
392,8	0,023
393,2	0,022
393,7	0,022
394,1	0,021
394,6	0,021
395,1	0,021
395,5	0,022
396	0,021
396,4	0,021
396,9	0,02
397,3	0,021
397,8	0,02
398,2	0,02
398,7	0,019
399,2	0,018
399,6	0,018
400,1	0,017
400,5	0,016
401	0,015
401,4	0,015
401,9	0,015
402,4	0,015
402,8	0,015
403,3	0,015
403,7	0,015
404,2	0,015
404,6	0,014
405,1	0,014
405,5	0,013
406	0,013
406,5	0,012
406,9	0,012
407,4	0,012
407,8	0,012
408,3	0,012
408,7	0,012
409,2	0,011
409,6	0,011
410,1	0,011
410,6	0,011
411	0,011
411,5	0,011
411,9	0,01
412,4	0,01
412,8	0,01
413,3	0,009
413,7	0,009
414,2	0,009
414,7	0,008
415,1	0,008
415,6	0,008
416	0,007
416,5	0,007
416,9	0,007
417,4	0,006
417,8	0,006
418,3	0,006
418,8	0,006
419,2	0,006
419,7	0,006
420,1	0,006
420,6	0,005
421	0,005
421,5	0,005
421,9	0,004
422,4	0,004
422,8	0,004
423,3	0,004
423,8	0,004
424,2	0,004
424,7	0,004
425,1	0,004
425,6	0,003
426	0,003
426,5	0,002
426,9	0,001
427,4	0,001
427,9	0,001
428,3	0,001
428,8	0,001
429,2	0
429,7	0
430,1	0,001
430,6	0
431	0
431,5	-0
431,9	-0,001
432,4	-0
432,8	-0
433,3	-0,001
433,8	-0,001
434,2	-0,002
434,7	-0,002
435,1	-0,002
435,6	-0,002
436	-0,002
436,5	-0,002
436,9	-0,002
437,4	-0,003
437,8	-0,003
438,3	-0,003
438,8	-0,004
439,2	-0,004
439,7	-0,004
440,1	-0,004
440,6	-0,004
441	-0,004
441,5	-0,004
441,9	-0,005
442,4	-0,005
442,8	-0,005
443,3	-0,005
443,7	-0,005
444,2	-0,005
444,7	-0,006
445,1	-0,006
445,6	-0,006
446	-0,006
446,5	-0,007
446,9	-0,007
447,4	-0,007
447,8	-0,006
448,3	-0,006
448,7	-0,005
449,2	-0,005
449,6	-0,005
450,1	-0,005
450,6	-0,006
451	-0,006
451,5	-0,006
451,9	-0,006
452,4	-0,007
452,8	-0,007
453,3	-0,007
453,7	-0,007
454,2	-0,007
454,6	-0,007
455,1	-0,007
455,5	-0,007
456	-0,007
456,4	-0,007
456,9	-0,007
457,3	-0,007
457,8	-0,007
458,3	-0,008
458,7	-0,007
459,2	-0,008
459,6	-0,008
460,1	-0,008
460,5	-0,008
461	-0,008
461,4	-0,007
461,9	-0,007
462,3	-0,006
462,8	-0,006
463,2	-0,006
463,7	-0,007
464,1	-0,007
464,6	-0,008
465	-0,009
465,5	-0,009
466	-0,009
466,4	-0,009
466,9	-0,009
467,3	-0,009
467,8	-0,008
468,2	-0,008
468,7	-0,008
469,1	-0,009
469,6	-0,009
470	-0,009
470,5	-0,009
470,9	-0,009
471,4	-0,009
471,8	-0,009
472,3	-0,009
472,7	-0,009
473,2	-0,009
473,6	-0,009
474,1	-0,009
474,5	-0,008
475	-0,009
475,4	-0,009
475,9	-0,009
476,4	-0,009
476,8	-0,009
477,3	-0,009
477,7	-0,01
478,2	-0,01
478,6	-0,01
479,1	-0,009
479,5	-0,009
480	-0,008
480,4	-0,008
480,9	-0,008
481,3	-0,008
481,8	-0,008
482,2	-0,009
482,7	-0,009
483,1	-0,009
483,6	-0,009
484	-0,009
484,5	-0,009
484,9	-0,009
485,4	-0,009
485,8	-0,008
486,3	-0,008
486,7	-0,008
487,2	-0,008
487,6	-0,009
488,1	-0,008
488,5	-0,008
489	-0,008
489,4	-0,008
489,9	-0,008
490,4	-0,009
490,8	-0,009
491,3	-0,009
491,7	-0,01
492,2	-0,01
492,6	-0,01
493,1	-0,01
493,5	-0,009
494	-0,009
494,4	-0,01
494,9	-0,01
495,3	-0,011
495,8	-0,01
496,2	-0,01
496,7	-0,01
497,1	-0,01
497,6	-0,01
498	-0,01
498,5	-0,01
498,9	-0,01
499,4	-0,01
499,8	-0,01
500,3	-0,011
500,7	-0,011
501,2	-0,01
501,6	-0,01
502,1	-0,01
502,5	-0,01
503	-0,01
503,4	-0,01
503,9	-0,01
504,3	-0,01
504,8	-0,009
505,2	-0,01
505,7	-0,01
506,1	-0,01
506,6	-0,01
507	-0,011
507,5	-0,011
507,9	-0,01
508,4	-0,01
508,8	-0,01
509,3	-0,009
509,7	-0,009
510,2	-0,009
510,6	-0,009
511,1	-0,009
511,5	-0,01
512	-0,01
512,4	-0,01
512,9	-0,01
513,3	-0,01
513,8	-0,01
514,2	-0,01
514,7	-0,009
515,1	-0,009
515,6	-0,01
516	-0,01
516,5	-0,01
516,9	-0,01
517,4	-0,011
517,8	-0,01
518,3	-0,01
518,7	-0,011
519,2	-0,011
519,6	-0,011
520,1	-0,011
520,5	-0,01
521	-0,01
521,4	-0,011
521,9	-0,01
522,3	-0,01
522,8	-0,01
523,2	-0,009
523,7	-0,01
524,1	-0,01
524,6	-0,01
525	-0,01
525,5	-0,01
525,9	-0,01
526,4	-0,01
526,8	-0,01
527,3	-0,009
527,7	-0,008
528,2	-0,008
528,6	-0,008
529,1	-0,008
529,5	-0,008
530	-0,008
530,4	-0,009
530,9	-0,008
531,3	-0,009
531,8	-0,009
532,2	-0,009
532,6	-0,009
533,1	-0,009
533,5	-0,009
534	-0,01
534,4	-0,009
534,9	-0,009
535,3	-0,009
535,8	-0,009
536,2	-0,009
536,7	-0,009
537,1	-0,009
537,6	-0,008
538	-0,009
538,5	-0,009
538,9	-0,009
539,4	-0,009
539,8	-0,009
540,3	-0,009
540,7	-0,009
541,2	-0,009
541,6	-0,009
542,1	-0,008
542,5	-0,009
543	-0,009
543,4	-0,009
543,9	-0,009
544,3	-0,009
544,8	-0,009
545,2	-0,01
545,7	-0,009
546,1	-0,009
546,5	-0,009
547	-0,009
547,4	-0,01
547,9	-0,009
548,3	-0,009
548,8	-0,009
549,2	-0,01
549,7	-0,01
550,1	-0,01
550,6	-0,01
551	-0,009
551,5	-0,009
551,9	-0,009
552,4	-0,008
552,8	-0,008
553,3	-0,009
553,7	-0,009
554,2	-0,009
554,6	-0,009
555,1	-0,01
555,5	-0,01
555,9	-0,01
556,4	-0,009
556,8	-0,009
557,3	-0,009
557,7	-0,009
558,2	-0,009
558,6	-0,008
559,1	-0,008
559,5	-0,009
560	-0,009
560,4	-0,009
560,9	-0,008
561,3	-0,008
561,8	-0,008
562,2	-0,009
562,7	-0,009
563,1	-0,009
563,6	-0,008
564	-0,009
564,4	-0,009
564,9	-0,01
565,3	-0,009
565,8	-0,009
566,2	-0,009
566,7	-0,009
567,1	-0,009
567,6	-0,009
568	-0,008
568,5	-0,008
568,9	-0,008
569,4	-0,008
569,8	-0,008
570,3	-0,008
570,7	-0,008
571,1	-0,009
571,6	-0,009
572	-0,009
572,5	-0,009
572,9	-0,009
573,4	-0,009
573,8	-0,009
574,3	-0,009
574,7	-0,008
575,2	-0,009
575,6	-0,009
576,1	-0,009
576,5	-0,009
576,9	-0,008
577,4	-0,008
577,8	-0,008
578,3	-0,008
578,7	-0,008
579,2	-0,008
579,6	-0,008
580,1	-0,008
580,5	-0,008
581	-0,008
581,4	-0,008
581,9	-0,008
582,3	-0,008
582,7	-0,008
583,2	-0,008
583,6	-0,008
584,1	-0,008
584,5	-0,008
585	-0,008
585,4	-0,008
585,9	-0,008
586,3	-0,008
586,8	-0,008
587,2	-0,008
587,6	-0,008
588,1	-0,008
588,5	-0,008
589	-0,008
589,4	-0,008
589,9	-0,008
590,3	-0,008
590,8	-0,007
591,2	-0,007
591,7	-0,007
592,1	-0,007
592,5	-0,008
593	-0,008
593,4	-0,008
593,9	-0,008
594,3	-0,008
594,8	-0,008
595,2	-0,008
595,7	-0,008
596,1	-0,008
596,6	-0,008
597	-0,008
597,4	-0,008
597,9	-0,008
598,3	-0,008
598,8	-0,008
599,2	-0,008
599,7	-0,008
600,1	-0,008
600,6	-0,009
601	-0,009
601,4	-0,009
601,9	-0,008
602,3	-0,008
602,8	-0,008
603,2	-0,008
603,7	-0,008
604,1	-0,008
604,6	-0,008
605	-0,007
605,4	-0,007
605,9	-0,007
606,3	-0,007
606,8	-0,007
607,2	-0,007
607,7	-0,007
608,1	-0,007
608,6	-0,008
609	-0,008
609,4	-0,008
609,9	-0,007
610,3	-0,007
610,8	-0,007
611,2	-0,007
611,7	-0,007
612,1	-0,007
612,6	-0,008
613	-0,008
613,4	-0,008
613,9	-0,008
614,3	-0,007
614,8	-0,008
615,2	-0,007
615,7	-0,007
616,1	-0,007
616,6	-0,007
617	-0,007
617,4	-0,007
617,9	-0,008
618,3	-0,008
618,8	-0,007
619,2	-0,008
619,7	-0,008
620,1	-0,008
620,5	-0,008
621	-0,008
621,4	-0,008
621,9	-0,008
622,3	-0,009
622,8	-0,009
623,2	-0,008
623,6	-0,009
624,1	-0,009
624,5	-0,008
625	-0,008
625,4	-0,008
625,9	-0,007
626,3	-0,007
626,8	-0,007
627,2	-0,007
627,6	-0,008
628,1	-0,007
628,5	-0,007
629	-0,007
629,4	-0,007
629,9	-0,007
630,3	-0,008
630,7	-0,007
631,2	-0,008
631,6	-0,008
632,1	-0,008
632,5	-0,008
633	-0,007
633,4	-0,007
633,8	-0,007
634,3	-0,007
634,7	-0,007
635,2	-0,007
635,6	-0,007
636,1	-0,007
636,5	-0,007
636,9	-0,007
637,4	-0,006
637,8	-0,007
638,3	-0,007
638,7	-0,007
639,2	-0,007
639,6	-0,007
640	-0,008
640,5	-0,008
640,9	-0,008
641,4	-0,008
641,8	-0,007
642,2	-0,007
642,7	-0,007
643,1	-0,007
643,6	-0,007
644	-0,007
644,5	-0,007
644,9	-0,007
645,3	-0,007
645,8	-0,007
646,2	-0,007
646,7	-0,007
647,1	-0,007
647,6	-0,007
648	-0,007
648,4	-0,007
648,9	-0,008
649,3	-0,008
649,8	-0,008
650,2	-0,008
650,6	-0,008
651,1	-0,008
651,5	-0,007
652	-0,007
652,4	-0,007
652,9	-0,007
653,3	-0,007
653,7	-0,007
654,2	-0,007
654,6	-0,007
655,1	-0,006
655,5	-0,003
655,9	-0,002
656,4	-0,001
656,8	-0,002
657,3	-0,002
657,7	-0,002
658,2	-0,001
658,6	-0,002
659	-0,003
659,5	-0,005
659,9	-0,006
660,4	-0,006
660,8	-0,007
661,2	-0,007
661,7	-0,007
662,1	-0,007
662,6	-0,007
663	-0,006
663,4	-0,007
663,9	-0,007
664,3	-0,007
664,8	-0,007
665,2	-0,007
665,6	-0,007
666,1	-0,008
666,5	-0,008
667	-0,007
667,4	-0,007
667,9	-0,007
668,3	-0,007
668,7	-0,008
669,2	-0,007
669,6	-0,007
670,1	-0,007
670,5	-0,007
670,9	-0,007
671,4	-0,006
671,8	-0,006
672,3	-0,006
672,7	-0,006
673,1	-0,006
673,6	-0,006
674	-0,006
674,5	-0,006
674,9	-0,006
675,3	-0,006
675,8	-0,006
676,2	-0,006
676,7	-0,005
677,1	-0,005
677,5	-0,005
678	-0,005
678,4	-0,005
678,9	-0,005
679,3	-0,006
679,7	-0,006
680,2	-0,006
680,6	-0,007
681,1	-0,007
681,5	-0,007
681,9	-0,007
682,4	-0,007
682,8	-0,007
683,3	-0,007
683,7	-0,007
684,1	-0,007
684,6	-0,007
685	-0,007
685,5	-0,007
685,9	-0,007
686,3	-0,007
686,8	-0,007
687,2	-0,007
687,7	-0,007
688,1	-0,007
688,5	-0,007
689	-0,006
689,4	-0,006
689,9	-0,007
690,3	-0,007
690,7	-0,007
691,2	-0,007
691,6	-0,007
692	-0,007
692,5	-0,007
692,9	-0,007
693,4	-0,007
693,8	-0,007
694,2	-0,007
694,7	-0,007
695,1	-0,007
695,6	-0,007
696	-0,007
696,4	-0,007
696,9	-0,007
697,3	-0,007
697,8	-0,007
698,2	-0,006
698,6	-0,006
699,1	-0,006
699,5	-0,006
699,9	-0,006
700,4	-0,006
700,8	-0,006
701,3	-0,006
701,7	-0,007
702,1	-0,006
702,6	-0,006
703	-0,006
703,5	-0,006
703,9	-0,006
704,3	-0,006
704,8	-0,006
705,2	-0,006
705,6	-0,006
706,1	-0,007
706,5	-0,007
707	-0,007
707,4	-0,007
707,8	-0,007
708,3	-0,007
708,7	-0,007
709,2	-0,007
709,6	-0,007
710	-0,007
710,5	-0,007
710,9	-0,007
711,3	-0,007
711,8	-0,007
712,2	-0,007
712,7	-0,007
713,1	-0,007
713,5	-0,007
714	-0,006
714,4	-0,006
714,8	-0,006
715,3	-0,006
715,7	-0,006
716,2	-0,006
716,6	-0,006
717	-0,006
717,5	-0,006
717,9	-0,007
718,3	-0,006
718,8	-0,006
719,2	-0,007
719,7	-0,007
720,1	-0,007
720,5	-0,007
721	-0,007
721,4	-0,007
721,8	-0,007
722,3	-0,007
722,7	-0,007
723,2	-0,007
723,6	-0,007
724	-0,006
724,5	-0,006
724,9	-0,006
725,3	-0,006
725,8	-0,006
726,2	-0,006
726,7	-0,006
727,1	-0,006
727,5	-0,006
728	-0,006
728,4	-0,006
728,8	-0,006
729,3	-0,007
729,7	-0,007
730,1	-0,006
730,6	-0,006
731	-0,006
731,5	-0,006
731,9	-0,006
732,3	-0,006
732,8	-0,006
733,2	-0,006
733,6	-0,006
734,1	-0,006
734,5	-0,006
734,9	-0,007
735,4	-0,007
735,8	-0,007
736,3	-0,007
736,7	-0,007
737,1	-0,007
737,6	-0,006
738	-0,006
738,4	-0,006
738,9	-0,006
739,3	-0,006
739,7	-0,006
740,2	-0,006
740,6	-0,006
741,1	-0,006
741,5	-0,006
741,9	-0,006
742,4	-0,006
742,8	-0,006
743,2	-0,006
743,7	-0,006
744,1	-0,006
744,5	-0,006
745	-0,006
745,4	-0,006
745,8	-0,007
746,3	-0,007
746,7	-0,006
747,2	-0,006
747,6	-0,007
748	-0,007
748,5	-0,007
748,9	-0,007
749,3	-0,006
749,8	-0,006
750,2	-0,006
750,6	-0,006
751,1	-0,006
751,5	-0,005
751,9	-0,005
752,4	-0,005
752,8	-0,005
753,3	-0,005
753,7	-0,006
754,1	-0,005
754,6	-0,005
755	-0,005
755,4	-0,005
755,9	-0,005
756,3	-0,005
756,7	-0,005
757,2	-0,005
757,6	-0,006
758	-0,006
758,5	-0,006
758,9	-0,006
759,3	-0,006
759,8	-0,006
760,2	-0,006
760,6	-0,005
761,1	-0,006
761,5	-0,006
761,9	-0,006
762,4	-0,006
762,8	-0,005
763,3	-0,006
763,7	-0,006
764,1	-0,005
764,6	-0,005
765	-0,005
765,4	-0,005
765,9	-0,006
766,3	-0,006
766,7	-0,006
767,2	-0,006
767,6	-0,006
768	-0,006
768,5	-0,007
768,9	-0,007
769,3	-0,006
769,8	-0,006
770,2	-0,006
770,6	-0,006
771,1	-0,006
771,5	-0,006
771,9	-0,005
772,4	-0,006
772,8	-0,006
773,2	-0,006
773,7	-0,006
774,1	-0,006
774,5	-0,006
775	-0,007
775,4	-0,007
775,8	-0,006
776,3	-0,007
776,7	-0,007
777,1	-0,007
777,6	-0,007
778	-0,007
778,4	-0,006
778,9	-0,006
779,3	-0,006
779,7	-0,006
780,2	-0,006
780,6	-0,006
781	-0,006
781,5	-0,006
781,9	-0,006
782,3	-0,006
782,8	-0,006
783,2	-0,006
783,6	-0,006
784,1	-0,006
784,5	-0,006
784,9	-0,006
785,4	-0,006
785,8	-0,006
786,2	-0,006
786,7	-0,006
787,1	-0,007
787,5	-0,007
788	-0,007
788,4	-0,007
788,8	-0,006
789,3	-0,006
789,7	-0,006
790,1	-0,006
790,6	-0,006
791	-0,006
791,4	-0,006
791,9	-0,006
792,3	-0,006
792,7	-0,007
793,2	-0,007
793,6	-0,006
794	-0,007
794,5	-0,007
794,9	-0,007
795,3	-0,006
795,8	-0,006
796,2	-0,006
796,6	-0,006
797,1	-0,006
797,5	-0,006
797,9	-0,006
798,4	-0,006
798,8	-0,007
799,2	-0,006
799,7	-0,006
800,1	-0,006
800,5	-0,006
801	-0,006
801,4	-0,006
801,8	-0,006
802,2	-0,006
802,7	-0,006
803,1	-0,006
803,5	-0,006
804	-0,006
804,4	-0,006
804,8	-0,007
805,3	-0,006
805,7	-0,006
806,1	-0,006
806,6	-0,006
807	-0,006
807,4	-0,006
807,9	-0,005
808,3	-0,005
808,7	-0,005
809,2	-0,005
809,6	-0,005
810	-0,005
810,4	-0,006
810,9	-0,006
811,3	-0,006
811,7	-0,006
812,2	-0,007
812,6	-0,006
813	-0,006
813,5	-0,007
813,9	-0,007
814,3	-0,007
814,8	-0,007
815,2	-0,006
815,6	-0,006
816,1	-0,007
816,5	-0,007
816,9	-0,006
817,3	-0,006
817,8	-0,006
818,2	-0,006
818,6	-0,006
819,1	-0,006
819,5	-0,006
819,9	-0,006
820,4	-0,006
820,8	-0,006
821,2	-0,006
821,7	-0,006
822,1	-0,006
822,5	-0,006
822,9	-0,006
823,4	-0,006
823,8	-0,006
824,2	-0,006
824,7	-0,006
825,1	-0,007
825,5	-0,007
826	-0,007
826,4	-0,007
826,8	-0,007
827,3	-0,007
827,7	-0,006
828,1	-0,006
828,5	-0,006
829	-0,006
829,4	-0,006
829,8	-0,005
830,3	-0,006
830,7	-0,006
831,1	-0,006
831,6	-0,006
832	-0,006
832,4	-0,006
832,8	-0,006
833,3	-0,006
833,7	-0,006
834,1	-0,006
834,6	-0,006
835	-0,006
835,4	-0,006
835,8	-0,005
836,3	-0,006
836,7	-0,005
837,1	-0,005
837,6	-0,005
838	-0,005
838,4	-0,005
838,9	-0,006
839,3	-0,005
839,7	-0,006
840,1	-0,005
840,6	-0,005
841	-0,005
841,4	-0,005
841,9	-0,005
842,3	-0,005
842,7	-0,005
843,1	-0,005
843,6	-0,005
844	-0,005
844,4	-0,005
844,9	-0,006
845,3	-0,006
845,7	-0,006
846,2	-0,006
846,6	-0,006
847	-0,006
847,4	-0,006
847,9	-0,006
848,3	-0,006
848,7	-0,006
849,2	-0,006
849,6	-0,005
850	-0,005
850,4	-0,005
850,9	-0,005
851,3	-0,005
851,7	-0,005
852,2	-0,005
852,6	-0,005
853	-0,005
853,4	-0,005
853,9	-0,005
854,3	-0,005
854,7	-0,005
855,2	-0,006
855,6	-0,006
856	-0,006
856,4	-0,006
856,9	-0,006
857,3	-0,006
857,7	-0,006
858,2	-0,006
858,6	-0,006
859	-0,006
859,4	-0,007
859,9	-0,007
860,3	-0,007
860,7	-0,007
861,1	-0,007
861,6	-0,006
862	-0,006
862,4	-0,006
862,9	-0,006
863,3	-0,006
863,7	-0,006
864,1	-0,006
864,6	-0,006
865	-0,006
865,4	-0,005
865,9	-0,005
866,3	-0,005
866,7	-0,005
867,1	-0,005
867,6	-0,005
868	-0,006
868,4	-0,006
868,8	-0,006
869,3	-0,005
869,7	-0,006
870,1	-0,005
870,6	-0,006
871	-0,005
871,4	-0,005
871,8	-0,006
872,3	-0,006
872,7	-0,006
873,1	-0,006
873,5	-0,006
874	-0,006
874,4	-0,007
874,8	-0,007
875,3	-0,006
875,7	-0,007
876,1	-0,006
876,5	-0,006
877	-0,006
877,4	-0,006
877,8	-0,006
878,2	-0,006
878,7	-0,005
879,1	-0,005
879,5	-0,005
879,9	-0,005
880,4	-0,005
880,8	-0,005
881,2	-0,006
881,7	-0,005
882,1	-0,005
882,5	-0,006
882,9	-0,006
883,4	-0,006
883,8	-0,006
884,2	-0,006
884,6	-0,006
885,1	-0,006
885,5	-0,005
885,9	-0,005
886,3	-0,005
886,8	-0,005
887,2	-0,005
887,6	-0,005
888	-0,006
888,5	-0,006
888,9	-0,006
889,3	-0,006
889,8	-0,006
890,2	-0,006
890,6	-0,006
891	-0,006
891,5	-0,006
891,9	-0,006
892,3	-0,006
892,7	-0,006
893,2	-0,007
893,6	-0,007
894	-0,007
894,4	-0,006
894,9	-0,006
895,3	-0,006
895,7	-0,006
896,1	-0,005
896,6	-0,005
897	-0,005
897,4	-0,005
897,8	-0,006
898,3	-0,006
898,7	-0,006
899,1	-0,006
899,5	-0,006
900	-0,006
900,4	-0,006
900,8	-0,006
901,2	-0,006
901,7	-0,005
902,1	-0,005
902,5	-0,005
902,9	-0,005
903,4	-0,005
903,8	-0,005
904,2	-0,005
904,6	-0,005
905,1	-0,005
905,5	-0,006
905,9	-0,006
906,3	-0,006
906,8	-0,006
907,2	-0,005
907,6	-0,005
908	-0,005
908,5	-0,005
908,9	-0,005
909,3	-0,005
909,7	-0,005
910,2	-0,005
910,6	-0,005
911	-0,005
911,4	-0,005
911,9	-0,005
912,3	-0,005
912,7	-0,005
913,1	-0,005
913,6	-0,006
914	-0,006
914,4	-0,006
914,8	-0,006
915,3	-0,006
915,7	-0,006
916,1	-0,006
916,5	-0,006
916,9	-0,006
917,4	-0,005
917,8	-0,005
918,2	-0,005
918,6	-0,005
919,1	-0,005
919,5	-0,005
919,9	-0,005
920,3	-0,005
920,8	-0,006
921,2	-0,007
921,6	-0,007
922	-0,006
922,5	-0,006
922,9	-0,006
923,3	-0,006
923,7	-0,006
924,2	-0,005
924,6	-0,005
925	-0,005
925,4	-0,005
925,8	-0,006
926,3	-0,005
926,7	-0,005
927,1	-0,006
927,5	-0,006
928	-0,006
928,4	-0,006
928,8	-0,006
929,2	-0,006
929,7	-0,006
930,1	-0,006
930,5	-0,006
930,9	-0,006
931,3	-0,006
931,8	-0,006
932,2	-0,006
932,6	-0,006
933	-0,006
933,5	-0,006
933,9	-0,005
934,3	-0,006
934,7	-0,005
935,2	-0,005
935,6	-0,005
936	-0,005
936,4	-0,005
936,8	-0,005
937,3	-0,006
937,7	-0,006
938,1	-0,006
938,5	-0,006
939	-0,006
939,4	-0,006
939,8	-0,005
940,2	-0,005
940,6	-0,005
941,1	-0,005
941,5	-0,005
941,9	-0,006
942,3	-0,006
942,8	-0,005
943,2	-0,005
943,6	-0,005
944	-0,005
944,4	-0,005
944,9	-0,005
945,3	-0,006
945,7	-0,006
946,1	-0,006
946,6	-0,006
947	-0,007
947,4	-0,007
947,8	-0,006
948,2	-0,006
948,7	-0,006
949,1	-0,006
949,5	-0,006
949,9	-0,006
950,3	-0,005
950,8	-0,006
951,2	-0,005
951,6	-0,006
952	-0,005
952,5	-0,005
952,9	-0,005
953,3	-0,005
953,7	-0,005
954,1	-0,005
954,6	-0,005
955	-0,005
955,4	-0,005
955,8	-0,005
956,2	-0,006
956,7	-0,006
957,1	-0,005
957,5	-0,005
957,9	-0,006
958,3	-0,006
958,8	-0,005
959,2	-0,004
959,6	-0,004
960	-0,004
960,5	-0,005
960,9	-0,004
961,3	-0,004
961,7	-0,004
962,1	-0,004
962,6	-0,004
963	-0,005
963,4	-0,005
963,8	-0,005
964,2	-0,005
964,7	-0,006
965,1	-0,006
965,5	-0,006
965,9	-0,006
966,3	-0,006
966,8	-0,006
967,2	-0,005
967,6	-0,005
968	-0,005
968,4	-0,006
968,9	-0,005
969,3	-0,005
969,7	-0,005
970,1	-0,005
970,5	-0,006
971	-0,005
971,4	-0,005
971,8	-0,005
972,2	-0,006
972,6	-0,006
973,1	-0,006
973,5	-0,005
973,9	-0,006
974,3	-0,006
974,7	-0,005
975,2	-0,005
975,6	-0,004
976	-0,004
976,4	-0,004
976,8	-0,004
977,3	-0,004
977,7	-0,004
978,1	-0,004
978,5	-0,004
978,9	-0,004
979,4	-0,004
979,8	-0,004
980,2	-0,004
980,6	-0,004
981	-0,004
981,5	-0,004
981,9	-0,004
982,3	-0,004
982,7	-0,005
983,1	-0,005
983,6	-0,005
984	-0,005
984,4	-0,005
984,8	-0,005
985,2	-0,005
985,6	-0,005
986,1	-0,005
986,5	-0,005
986,9	-0,005
987,3	-0,005
987,7	-0,004
988,2	-0,004
988,6	-0,004
989	-0,004
989,4	-0,005
989,8	-0,005
990,3	-0,006
990,7	-0,006
991,1	-0,006
991,5	-0,006
991,9	-0,006
992,3	-0,006
992,8	-0,006
993,2	-0,006
993,6	-0,006
994	-0,006
994,4	-0,006
994,9	-0,006
995,3	-0,005
995,7	-0,005
996,1	-0,004
996,5	-0,005
996,9	-0,004
997,4	-0,005
997,8	-0,005
998,2	-0,005
998,6	-0,005
999	-0,006
999,5	-0,006
999,9	-0,007
1000,3	-0,007
1000,7	-0,006
1001,1	-0,006
1001,5	-0,007
1002	-0,006
1002,4	-0,006
1002,8	-0,006
1003,2	-0,005
1003,6	-0,005
1004	-0,006
1004,5	-0,006
1004,9	-0,005
1005,3	-0,005
1005,7	-0,005
1006,1	-0,005
1006,6	-0,005
1007	-0,005
1007,4	-0,005
1007,8	-0,005
1008,2	-0,005
1008,6	-0,005
1009,1	-0,005
1009,5	-0,005
1009,9	-0,005
1010,3	-0,006
1010,7	-0,006
1011,1	-0,006
1011,6	-0,006
1012	-0,006
1012,4	-0,006
1012,8	-0,005
1013,2	-0,005
1013,6	-0,005
1014,1	-0,005
1014,5	-0,005
1014,9	-0,005
1015,3	-0,005
1015,7	-0,006
1016,1	-0,006
1016,6	-0,006
1017	-0,006
1017,4	-0,006
1017,8	-0,006
1018,2	-0,006
1018,6	-0,006
1019,1	-0,006
1019,5	-0,005
1019,9	-0,006
1020,3	-0,006
1020,7	-0,006
1021,1	-0,006
1021,6	-0,006
1022	-0,006
1022,4	-0,006
1022,8	-0,006
1023,2	-0,006
1023,6	-0,006
1024,1	-0,007
1024,5	-0,007
1024,9	-0,006
1025,3	-0,006
1025,7	-0,006
1026,1	-0,005
1026,6	-0,005
1027	-0,004
1027,4	-0,005
1027,8	-0,006
1028,2	-0,006
1028,6	-0,006
1029	-0,006
1029,5	-0,006
1029,9	-0,006
1030,3	-0,006
1030,7	-0,005
1031,1	-0,005
1031,5	-0,004
1032	-0,004
1032,4	-0,004
1032,8	-0,004
1033,2	-0,004
1033,6	-0,005
1034	-0,004
1034,4	-0,005
1034,9	-0,005
1035,3	-0,006
1035,7	-0,007
1036,1	-0,007
1036,5	-0,007
1036,9	-0,008
1037,4	-0,008
1037,8	-0,008
1038,2	-0,007
1038,6	-0,007
1039	-0,007
1039,4	-0,007
1039,8	-0,006
1040,3	-0,007
1040,7	-0,007
1041,1	-0,007
1041,5	-0,007
1041,9	-0,006
1042,3	-0,005
1042,7	-0,006
1043,2	-0,005
1043,6	-0,005
1044	-0,005
1044,4	-0,005
1044,8	-0,005
1045,2	-0,006
1045,6	-0,006
1046,1	-0,007
1046,5	-0,007
1046,9	-0,006
1047,3	-0,006
1047,7	-0,006
1048,1	-0,005
1048,5	-0,005
1049	-0,005
1049,4	-0,004
1049,8	-0,005
1050,2	-0,006
1050,6	-0,006
1051	-0,006
1051,4	-0,006
1051,9	-0,005
1052,3	-0,006
1052,7	-0,006
1053,1	-0,006
1053,5	-0,005
1053,9	-0,005
1054,3	-0,005
1054,8	-0,006
1055,2	-0,006
1055,6	-0,006
1056	-0,005
1056,4	-0,006
1056,8	-0,006
1057,2	-0,005
1057,6	-0,006
1058,1	-0,004
1058,5	-0,005
1058,9	-0,005
1059,3	-0,005
1059,7	-0,005
1060,1	-0,006
1060,5	-0,005
1061	-0,005
1061,4	-0,004
1061,8	-0,004
1062,2	-0,004
1062,6	-0,004
1063	-0,004
1063,4	-0,005
1063,8	-0,005
1064,3	-0,006
1064,7	-0,006
1065,1	-0,005
1065,5	-0,005
1065,9	-0,005
1066,3	-0,004
1066,7	-0,005
1067,1	-0,004
1067,6	-0,005
1068	-0,006
1068,4	-0,007
1068,8	-0,007
1069,2	-0,007
1069,6	-0,007
1070	-0,007
1070,4	-0,007
1070,9	-0,006
1071,3	-0,006
1071,7	-0,006
1072,1	-0,006
1072,5	-0,006
1072,9	-0,006
1073,3	-0,006
1073,7	-0,005
1074,2	-0,005
1074,6	-0,005
1075	-0,006
1075,4	-0,006
1075,8	-0,006
1076,2	-0,006
1076,6	-0,007
1077	-0,008
1077,5	-0,007
1077,9	-0,007
1078,3	-0,006
1078,7	-0,006
1079,1	-0,006
1079,5	-0,007
1079,9	-0,007
1080,3	-0,006
1080,7	-0,007
1081,2	-0,006
1081,6	-0,006
1082	-0,004
1082,4	-0,003
1082,8	-0,002
1083,2	-0,003
1083,6	-0
1084	-0
1084,5	-0,001
1084,9	-0,002
1085,3	-0,001
1085,7	-0,001
1086,1	-0,003
1086,5	-0,003
1086,9	-0,002
1087,3	-0,002
1087,7	-0,001
1088,2	-0,002
1088,6	-0,004
1089	-0,005
1089,4	-0,005
1089,8	-0,005
1090,2	-0,005
1090,6	-0,007
1091	-0,009
1091,4	-0,006
1091,9	-0,005
1092,3	-0,007
1092,7	-0,006
1093,1	-0,006
1093,5	-0,003
1093,9	-0,001
1094,3	-0,002
1094,7	-0,001
1095,1	-0,002
1095,5	-0,005
1096	-0,002
1096,4	-0,004
1096,8	-0,004
1097,2	-0,007
1097,6	-0,01
1098	-0,008
1098,4	-0,007
1098,8	-0,006
1099,2	-0,006
1099,6	-0,004
1100,1	0,001
1100,5	0,009
1100,9	0,006
1101,3	-0,003
1101,7	-0,008
1102,1	-0,008
1102,5	-0,006
1102,9	-0,003
1103,3	-0,006
1103,7	-0,006
1104,2	0
1104,6	0,006
1105	0,007
1105,4	0,002
1105,8	-0,004
1106,2	-0,014
1106,6	-0,011
1107	-0,017
1107,4	-0,036
1107,8	-0,122
1108,3	-0
