Data from Absorbance_00009.txt Node
Date: Thu Aug 24 15:50:36 MSK 2023
User: vat
Spectrometer: MAYP114033
Trigger mode: 0
Integration Time (sec): 8,000000E-3
Scans to average: 10
Electric dark correction enabled: true
Nonlinearity correction enabled: false
Boxcar width: 3
XAxis mode: Wavelengths
Number of Pixels in Spectrum: 2068
>>>>>Begin Spectral Data<<<<<
199,4	-0
199,9	0,752
200,4	0,432
200,8	0,668
201,3	0,698
201,8	0,731
202,2	0,751
202,7	0,772
203,2	0,783
203,6	0,805
204,1	0,805
204,6	0,819
205	0,826
205,5	0,832
206	0,834
206,4	0,843
206,9	0,847
207,4	0,847
207,8	0,837
208,3	0,833
208,8	0,826
209,2	0,818
209,7	0,812
210,2	0,798
210,6	0,789
211,1	0,782
211,5	0,77
212	0,756
212,5	0,746
212,9	0,728
213,4	0,715
213,9	0,705
214,3	0,691
214,8	0,674
215,3	0,654
215,7	0,633
216,2	0,614
216,7	0,592
217,1	0,569
217,6	0,542
218,1	0,516
218,5	0,493
219	0,469
219,5	0,446
219,9	0,422
220,4	0,398
220,9	0,376
221,3	0,357
221,8	0,338
222,3	0,319
222,7	0,3
223,2	0,285
223,6	0,268
224,1	0,255
224,6	0,241
225	0,228
225,5	0,217
226	0,209
226,4	0,2
226,9	0,192
227,4	0,183
227,8	0,177
228,3	0,172
228,8	0,167
229,2	0,161
229,7	0,157
230,2	0,155
230,6	0,153
231,1	0,151
231,5	0,149
232	0,146
232,5	0,145
232,9	0,142
233,4	0,139
233,9	0,138
234,3	0,136
234,8	0,136
235,3	0,137
235,7	0,138
236,2	0,139
236,7	0,142
237,1	0,142
237,6	0,144
238,1	0,146
238,5	0,147
239	0,149
239,4	0,151
239,9	0,153
240,4	0,156
240,8	0,159
241,3	0,162
241,8	0,166
242,2	0,17
242,7	0,174
243,2	0,179
243,6	0,183
244,1	0,188
244,6	0,192
245	0,197
245,5	0,202
245,9	0,207
246,4	0,212
246,9	0,217
247,3	0,222
247,8	0,228
248,3	0,234
248,7	0,238
249,2	0,245
249,7	0,25
250,1	0,255
250,6	0,26
251	0,263
251,5	0,269
252	0,274
252,4	0,278
252,9	0,284
253,4	0,288
253,8	0,293
254,3	0,298
254,8	0,302
255,2	0,305
255,7	0,308
256,1	0,312
256,6	0,315
257,1	0,317
257,5	0,32
258	0,32
258,5	0,322
258,9	0,324
259,4	0,324
259,9	0,324
260,3	0,324
260,8	0,323
261,2	0,322
261,7	0,321
262,2	0,32
262,6	0,318
263,1	0,316
263,6	0,314
264	0,311
264,5	0,308
264,9	0,304
265,4	0,3
265,9	0,295
266,3	0,29
266,8	0,283
267,3	0,277
267,7	0,27
268,2	0,263
268,7	0,254
269,1	0,246
269,6	0,237
270	0,23
270,5	0,221
271	0,212
271,4	0,204
271,9	0,195
272,4	0,187
272,8	0,177
273,3	0,169
273,7	0,16
274,2	0,152
274,7	0,144
275,1	0,135
275,6	0,129
276,1	0,122
276,5	0,114
277	0,107
277,4	0,101
277,9	0,095
278,4	0,09
278,8	0,082
279,3	0,077
279,8	0,071
280,2	0,067
280,7	0,062
281,1	0,057
281,6	0,052
282,1	0,048
282,5	0,045
283	0,042
283,4	0,039
283,9	0,036
284,4	0,033
284,8	0,03
285,3	0,028
285,8	0,026
286,2	0,025
286,7	0,023
287,1	0,022
287,6	0,02
288,1	0,019
288,5	0,019
289	0,018
289,5	0,017
289,9	0,017
290,4	0,017
290,8	0,017
291,3	0,017
291,8	0,017
292,2	0,017
292,7	0,017
293,1	0,016
293,6	0,016
294,1	0,015
294,5	0,015
295	0,016
295,5	0,015
295,9	0,015
296,4	0,015
296,8	0,015
297,3	0,016
297,8	0,016
298,2	0,015
298,7	0,016
299,1	0,015
299,6	0,015
300,1	0,015
300,5	0,015
301	0,015
301,5	0,016
301,9	0,015
302,4	0,015
302,8	0,014
303,3	0,014
303,8	0,014
304,2	0,014
304,7	0,014
305,1	0,014
305,6	0,014
306,1	0,014
306,5	0,014
307	0,013
307,4	0,013
307,9	0,013
308,4	0,012
308,8	0,012
309,3	0,012
309,8	0,011
310,2	0,011
310,7	0,011
311,1	0,011
311,6	0,011
312,1	0,011
312,5	0,011
313	0,011
313,4	0,011
313,9	0,011
314,4	0,01
314,8	0,009
315,3	0,009
315,7	0,009
316,2	0,009
316,7	0,009
317,1	0,008
317,6	0,008
318	0,009
318,5	0,009
319	0,008
319,4	0,008
319,9	0,008
320,3	0,008
320,8	0,008
321,3	0,007
321,7	0,007
322,2	0,007
322,6	0,006
323,1	0,005
323,6	0,005
324	0,004
324,5	0,004
324,9	0,003
325,4	0,003
325,9	0,002
326,3	0,002
326,8	0,002
327,2	0,002
327,7	0,002
328,2	0,002
328,6	0,001
329,1	0,001
329,5	0
330	-0
330,5	-0
330,9	-0,001
331,4	-0,001
331,8	-0,001
332,3	-0,001
332,8	-0,001
333,2	-0,001
333,7	-0,002
334,1	-0,002
334,6	-0,002
335,1	-0,002
335,5	-0,002
336	-0,002
336,4	-0,003
336,9	-0,002
337,4	-0,002
337,8	-0,002
338,3	-0,002
338,7	-0,003
339,2	-0,004
339,7	-0,004
340,1	-0,005
340,6	-0,005
341	-0,005
341,5	-0,006
342	-0,005
342,4	-0,005
342,9	-0,005
343,3	-0,005
343,8	-0,006
344,2	-0,006
344,7	-0,006
345,2	-0,006
345,6	-0,006
346,1	-0,006
346,5	-0,006
347	-0,006
347,5	-0,007
347,9	-0,007
348,4	-0,008
348,8	-0,008
349,3	-0,008
349,8	-0,009
350,2	-0,009
350,7	-0,008
351,1	-0,008
351,6	-0,009
352	-0,009
352,5	-0,01
353	-0,009
353,4	-0,009
353,9	-0,01
354,3	-0,01
354,8	-0,01
355,3	-0,01
355,7	-0,01
356,2	-0,01
356,6	-0,01
357,1	-0,01
357,5	-0,01
358	-0,01
358,5	-0,011
358,9	-0,011
359,4	-0,01
359,8	-0,011
360,3	-0,011
360,8	-0,011
361,2	-0,011
361,7	-0,011
362,1	-0,012
362,6	-0,012
363	-0,013
363,5	-0,012
364	-0,013
364,4	-0,012
364,9	-0,012
365,3	-0,011
365,8	-0,011
366,3	-0,011
366,7	-0,011
367,2	-0,011
367,6	-0,012
368,1	-0,012
368,5	-0,012
369	-0,012
369,5	-0,012
369,9	-0,012
370,4	-0,013
370,8	-0,013
371,3	-0,013
371,7	-0,013
372,2	-0,012
372,7	-0,013
373,1	-0,013
373,6	-0,013
374	-0,012
374,5	-0,012
374,9	-0,012
375,4	-0,013
375,9	-0,013
376,3	-0,013
376,8	-0,013
377,2	-0,014
377,7	-0,014
378,2	-0,014
378,6	-0,013
379,1	-0,013
379,5	-0,012
380	-0,012
380,4	-0,012
380,9	-0,012
381,4	-0,012
381,8	-0,013
382,3	-0,012
382,7	-0,013
383,2	-0,014
383,6	-0,015
384,1	-0,014
384,6	-0,014
385	-0,014
385,5	-0,015
385,9	-0,014
386,4	-0,014
386,8	-0,014
387,3	-0,014
387,7	-0,014
388,2	-0,013
388,7	-0,013
389,1	-0,013
389,6	-0,013
390	-0,013
390,5	-0,013
390,9	-0,013
391,4	-0,014
391,9	-0,014
392,3	-0,015
392,8	-0,015
393,2	-0,015
393,7	-0,015
394,1	-0,014
394,6	-0,014
395,1	-0,013
395,5	-0,013
396	-0,013
396,4	-0,013
396,9	-0,012
397,3	-0,013
397,8	-0,013
398,2	-0,013
398,7	-0,014
399,2	-0,014
399,6	-0,014
400,1	-0,014
400,5	-0,014
401	-0,014
401,4	-0,014
401,9	-0,014
402,4	-0,013
402,8	-0,014
403,3	-0,013
403,7	-0,013
404,2	-0,013
404,6	-0,013
405,1	-0,013
405,5	-0,013
406	-0,013
406,5	-0,013
406,9	-0,013
407,4	-0,013
407,8	-0,013
408,3	-0,013
408,7	-0,013
409,2	-0,013
409,6	-0,013
410,1	-0,013
410,6	-0,013
411	-0,014
411,5	-0,014
411,9	-0,014
412,4	-0,014
412,8	-0,014
413,3	-0,014
413,7	-0,014
414,2	-0,014
414,7	-0,014
415,1	-0,014
415,6	-0,014
416	-0,013
416,5	-0,013
416,9	-0,013
417,4	-0,013
417,8	-0,013
418,3	-0,013
418,8	-0,013
419,2	-0,013
419,7	-0,013
420,1	-0,013
420,6	-0,013
421	-0,013
421,5	-0,013
421,9	-0,013
422,4	-0,012
422,8	-0,012
423,3	-0,012
423,8	-0,011
424,2	-0,012
424,7	-0,012
425,1	-0,012
425,6	-0,012
426	-0,013
426,5	-0,013
426,9	-0,015
427,4	-0,014
427,9	-0,014
428,3	-0,014
428,8	-0,014
429,2	-0,013
429,7	-0,013
430,1	-0,013
430,6	-0,013
431	-0,012
431,5	-0,013
431,9	-0,012
432,4	-0,012
432,8	-0,012
433,3	-0,012
433,8	-0,012
434,2	-0,013
434,7	-0,012
435,1	-0,013
435,6	-0,013
436	-0,013
436,5	-0,013
436,9	-0,013
437,4	-0,013
437,8	-0,013
438,3	-0,013
438,8	-0,013
439,2	-0,013
439,7	-0,013
440,1	-0,013
440,6	-0,013
441	-0,013
441,5	-0,013
441,9	-0,013
442,4	-0,013
442,8	-0,013
443,3	-0,012
443,7	-0,012
444,2	-0,012
444,7	-0,013
445,1	-0,013
445,6	-0,013
446	-0,013
446,5	-0,014
446,9	-0,013
447,4	-0,013
447,8	-0,013
448,3	-0,013
448,7	-0,013
449,2	-0,013
449,6	-0,013
450,1	-0,013
450,6	-0,013
451	-0,012
451,5	-0,012
451,9	-0,012
452,4	-0,012
452,8	-0,012
453,3	-0,012
453,7	-0,012
454,2	-0,013
454,6	-0,013
455,1	-0,012
455,5	-0,013
456	-0,013
456,4	-0,013
456,9	-0,013
457,3	-0,013
457,8	-0,012
458,3	-0,013
458,7	-0,013
459,2	-0,013
459,6	-0,013
460,1	-0,013
460,5	-0,013
461	-0,013
461,4	-0,012
461,9	-0,012
462,3	-0,011
462,8	-0,011
463,2	-0,011
463,7	-0,012
464,1	-0,012
464,6	-0,012
465	-0,013
465,5	-0,013
466	-0,012
466,4	-0,013
466,9	-0,012
467,3	-0,012
467,8	-0,012
468,2	-0,012
468,7	-0,012
469,1	-0,013
469,6	-0,013
470	-0,013
470,5	-0,013
470,9	-0,013
471,4	-0,012
471,8	-0,012
472,3	-0,011
472,7	-0,012
473,2	-0,011
473,6	-0,011
474,1	-0,011
474,5	-0,012
475	-0,012
475,4	-0,012
475,9	-0,012
476,4	-0,012
476,8	-0,013
477,3	-0,013
477,7	-0,012
478,2	-0,012
478,6	-0,013
479,1	-0,013
479,5	-0,012
480	-0,012
480,4	-0,011
480,9	-0,012
481,3	-0,012
481,8	-0,011
482,2	-0,011
482,7	-0,011
483,1	-0,011
483,6	-0,011
484	-0,011
484,5	-0,011
484,9	-0,011
485,4	-0,011
485,8	-0,011
486,3	-0,011
486,7	-0,011
487,2	-0,011
487,6	-0,011
488,1	-0,011
488,5	-0,011
489	-0,011
489,4	-0,011
489,9	-0,011
490,4	-0,012
490,8	-0,011
491,3	-0,011
491,7	-0,011
492,2	-0,011
492,6	-0,011
493,1	-0,011
493,5	-0,01
494	-0,011
494,4	-0,011
494,9	-0,011
495,3	-0,011
495,8	-0,011
496,2	-0,011
496,7	-0,011
497,1	-0,011
497,6	-0,011
498	-0,011
498,5	-0,011
498,9	-0,012
499,4	-0,012
499,8	-0,012
500,3	-0,012
500,7	-0,012
501,2	-0,012
501,6	-0,012
502,1	-0,012
502,5	-0,012
503	-0,012
503,4	-0,012
503,9	-0,012
504,3	-0,012
504,8	-0,011
505,2	-0,011
505,7	-0,011
506,1	-0,012
506,6	-0,011
507	-0,011
507,5	-0,012
507,9	-0,012
508,4	-0,012
508,8	-0,012
509,3	-0,011
509,7	-0,011
510,2	-0,011
510,6	-0,01
511,1	-0,011
511,5	-0,011
512	-0,011
512,4	-0,011
512,9	-0,011
513,3	-0,011
513,8	-0,011
514,2	-0,01
514,7	-0,01
515,1	-0,01
515,6	-0,011
516	-0,011
516,5	-0,011
516,9	-0,011
517,4	-0,012
517,8	-0,011
518,3	-0,011
518,7	-0,011
519,2	-0,011
519,6	-0,011
520,1	-0,011
520,5	-0,011
521	-0,011
521,4	-0,012
521,9	-0,011
522,3	-0,011
522,8	-0,011
523,2	-0,011
523,7	-0,011
524,1	-0,011
524,6	-0,011
525	-0,011
525,5	-0,011
525,9	-0,011
526,4	-0,011
526,8	-0,011
527,3	-0,01
527,7	-0,01
528,2	-0,01
528,6	-0,009
529,1	-0,009
529,5	-0,009
530	-0,009
530,4	-0,01
530,9	-0,01
531,3	-0,01
531,8	-0,01
532,2	-0,011
532,6	-0,011
533,1	-0,011
533,5	-0,011
534	-0,012
534,4	-0,011
534,9	-0,011
535,3	-0,011
535,8	-0,01
536,2	-0,01
536,7	-0,011
537,1	-0,011
537,6	-0,01
538	-0,011
538,5	-0,011
538,9	-0,012
539,4	-0,011
539,8	-0,011
540,3	-0,011
540,7	-0,011
541,2	-0,011
541,6	-0,011
542,1	-0,011
542,5	-0,011
543	-0,011
543,4	-0,01
543,9	-0,01
544,3	-0,01
544,8	-0,01
545,2	-0,011
545,7	-0,011
546,1	-0,011
546,5	-0,011
547	-0,011
547,4	-0,012
547,9	-0,011
548,3	-0,011
548,8	-0,011
549,2	-0,011
549,7	-0,011
550,1	-0,011
550,6	-0,01
551	-0,01
551,5	-0,01
551,9	-0,01
552,4	-0,01
552,8	-0,011
553,3	-0,011
553,7	-0,011
554,2	-0,011
554,6	-0,011
555,1	-0,011
555,5	-0,011
555,9	-0,01
556,4	-0,01
556,8	-0,009
557,3	-0,01
557,7	-0,009
558,2	-0,009
558,6	-0,009
559,1	-0,009
559,5	-0,009
560	-0,009
560,4	-0,009
560,9	-0,009
561,3	-0,008
561,8	-0,009
562,2	-0,009
562,7	-0,009
563,1	-0,009
563,6	-0,009
564	-0,009
564,4	-0,009
564,9	-0,009
565,3	-0,009
565,8	-0,009
566,2	-0,01
566,7	-0,01
567,1	-0,011
567,6	-0,011
568	-0,01
568,5	-0,01
568,9	-0,01
569,4	-0,009
569,8	-0,009
570,3	-0,008
570,7	-0,009
571,1	-0,009
571,6	-0,009
572	-0,009
572,5	-0,009
572,9	-0,009
573,4	-0,009
573,8	-0,009
574,3	-0,009
574,7	-0,009
575,2	-0,009
575,6	-0,009
576,1	-0,009
576,5	-0,009
576,9	-0,009
577,4	-0,009
577,8	-0,009
578,3	-0,009
578,7	-0,009
579,2	-0,009
579,6	-0,009
580,1	-0,009
580,5	-0,009
581	-0,008
581,4	-0,008
581,9	-0,009
582,3	-0,009
582,7	-0,009
583,2	-0,01
583,6	-0,01
584,1	-0,009
584,5	-0,009
585	-0,009
585,4	-0,009
585,9	-0,009
586,3	-0,008
586,8	-0,008
587,2	-0,009
587,6	-0,009
588,1	-0,009
588,5	-0,009
589	-0,009
589,4	-0,009
589,9	-0,009
590,3	-0,009
590,8	-0,008
591,2	-0,008
591,7	-0,008
592,1	-0,008
592,5	-0,008
593	-0,008
593,4	-0,008
593,9	-0,008
594,3	-0,009
594,8	-0,009
595,2	-0,009
595,7	-0,008
596,1	-0,008
596,6	-0,008
597	-0,008
597,4	-0,008
597,9	-0,008
598,3	-0,008
598,8	-0,008
599,2	-0,009
599,7	-0,009
600,1	-0,009
600,6	-0,009
601	-0,009
601,4	-0,009
601,9	-0,009
602,3	-0,009
602,8	-0,009
603,2	-0,009
603,7	-0,009
604,1	-0,009
604,6	-0,008
605	-0,008
605,4	-0,008
605,9	-0,008
606,3	-0,008
606,8	-0,008
607,2	-0,008
607,7	-0,008
608,1	-0,008
608,6	-0,008
609	-0,008
609,4	-0,008
609,9	-0,008
610,3	-0,007
610,8	-0,008
611,2	-0,008
611,7	-0,008
612,1	-0,008
612,6	-0,008
613	-0,008
613,4	-0,008
613,9	-0,008
614,3	-0,008
614,8	-0,008
615,2	-0,007
615,7	-0,008
616,1	-0,007
616,6	-0,007
617	-0,007
617,4	-0,007
617,9	-0,007
618,3	-0,008
618,8	-0,008
619,2	-0,008
619,7	-0,008
620,1	-0,008
620,5	-0,008
621	-0,008
621,4	-0,009
621,9	-0,009
622,3	-0,009
622,8	-0,009
623,2	-0,009
623,6	-0,009
624,1	-0,009
624,5	-0,008
625	-0,008
625,4	-0,008
625,9	-0,008
626,3	-0,008
626,8	-0,008
627,2	-0,007
627,6	-0,008
628,1	-0,007
628,5	-0,007
629	-0,007
629,4	-0,008
629,9	-0,008
630,3	-0,008
630,7	-0,008
631,2	-0,008
631,6	-0,008
632,1	-0,007
632,5	-0,007
633	-0,007
633,4	-0,007
633,8	-0,008
634,3	-0,008
634,7	-0,008
635,2	-0,008
635,6	-0,008
636,1	-0,008
636,5	-0,008
636,9	-0,008
637,4	-0,007
637,8	-0,008
638,3	-0,008
638,7	-0,008
639,2	-0,008
639,6	-0,008
640	-0,008
640,5	-0,009
640,9	-0,008
641,4	-0,008
641,8	-0,008
642,2	-0,008
642,7	-0,008
643,1	-0,008
643,6	-0,008
644	-0,008
644,5	-0,008
644,9	-0,008
645,3	-0,009
645,8	-0,008
646,2	-0,008
646,7	-0,008
647,1	-0,008
647,6	-0,008
648	-0,008
648,4	-0,008
648,9	-0,008
649,3	-0,009
649,8	-0,009
650,2	-0,008
650,6	-0,008
651,1	-0,008
651,5	-0,008
652	-0,007
652,4	-0,007
652,9	-0,007
653,3	-0,007
653,7	-0,007
654,2	-0,007
654,6	-0,007
655,1	-0,007
655,5	-0,004
655,9	-0,003
656,4	-0,002
656,8	-0,002
657,3	-0,002
657,7	-0,002
658,2	-0,002
658,6	-0,003
659	-0,004
659,5	-0,006
659,9	-0,007
660,4	-0,007
660,8	-0,007
661,2	-0,007
661,7	-0,007
662,1	-0,007
662,6	-0,008
663	-0,007
663,4	-0,007
663,9	-0,008
664,3	-0,008
664,8	-0,008
665,2	-0,008
665,6	-0,008
666,1	-0,008
666,5	-0,008
667	-0,008
667,4	-0,008
667,9	-0,007
668,3	-0,008
668,7	-0,007
669,2	-0,008
669,6	-0,007
670,1	-0,007
670,5	-0,007
670,9	-0,007
671,4	-0,007
671,8	-0,006
672,3	-0,006
672,7	-0,006
673,1	-0,006
673,6	-0,006
674	-0,006
674,5	-0,006
674,9	-0,006
675,3	-0,006
675,8	-0,006
676,2	-0,006
676,7	-0,006
677,1	-0,006
677,5	-0,006
678	-0,006
678,4	-0,006
678,9	-0,006
679,3	-0,006
679,7	-0,006
680,2	-0,007
680,6	-0,007
681,1	-0,007
681,5	-0,007
681,9	-0,007
682,4	-0,007
682,8	-0,007
683,3	-0,007
683,7	-0,007
684,1	-0,007
684,6	-0,007
685	-0,007
685,5	-0,007
685,9	-0,008
686,3	-0,007
686,8	-0,007
687,2	-0,007
687,7	-0,007
688,1	-0,007
688,5	-0,007
689	-0,007
689,4	-0,007
689,9	-0,007
690,3	-0,007
690,7	-0,007
691,2	-0,007
691,6	-0,008
692	-0,008
692,5	-0,008
692,9	-0,008
693,4	-0,007
693,8	-0,007
694,2	-0,007
694,7	-0,007
695,1	-0,007
695,6	-0,007
696	-0,007
696,4	-0,007
696,9	-0,007
697,3	-0,007
697,8	-0,007
698,2	-0,007
698,6	-0,007
699,1	-0,007
699,5	-0,007
699,9	-0,007
700,4	-0,007
700,8	-0,007
701,3	-0,007
701,7	-0,007
702,1	-0,007
702,6	-0,007
703	-0,007
703,5	-0,006
703,9	-0,006
704,3	-0,006
704,8	-0,006
705,2	-0,006
705,6	-0,006
706,1	-0,006
706,5	-0,006
707	-0,007
707,4	-0,006
707,8	-0,006
708,3	-0,006
708,7	-0,006
709,2	-0,006
709,6	-0,007
710	-0,007
710,5	-0,007
710,9	-0,007
711,3	-0,007
711,8	-0,007
712,2	-0,006
712,7	-0,006
713,1	-0,006
713,5	-0,007
714	-0,006
714,4	-0,006
714,8	-0,006
715,3	-0,007
715,7	-0,007
716,2	-0,007
716,6	-0,007
717	-0,007
717,5	-0,007
717,9	-0,006
718,3	-0,006
718,8	-0,007
719,2	-0,007
719,7	-0,006
720,1	-0,007
720,5	-0,007
721	-0,007
721,4	-0,007
721,8	-0,007
722,3	-0,008
722,7	-0,008
723,2	-0,008
723,6	-0,008
724	-0,007
724,5	-0,006
724,9	-0,006
725,3	-0,006
725,8	-0,006
726,2	-0,006
726,7	-0,007
727,1	-0,007
727,5	-0,007
728	-0,007
728,4	-0,006
728,8	-0,007
729,3	-0,007
729,7	-0,006
730,1	-0,006
730,6	-0,006
731	-0,007
731,5	-0,007
731,9	-0,006
732,3	-0,006
732,8	-0,007
733,2	-0,007
733,6	-0,007
734,1	-0,006
734,5	-0,007
734,9	-0,007
735,4	-0,007
735,8	-0,007
736,3	-0,007
736,7	-0,007
737,1	-0,008
737,6	-0,007
738	-0,007
738,4	-0,007
738,9	-0,007
739,3	-0,007
739,7	-0,007
740,2	-0,007
740,6	-0,007
741,1	-0,007
741,5	-0,007
741,9	-0,007
742,4	-0,007
742,8	-0,007
743,2	-0,007
743,7	-0,007
744,1	-0,007
744,5	-0,007
745	-0,007
745,4	-0,007
745,8	-0,007
746,3	-0,007
746,7	-0,007
747,2	-0,007
747,6	-0,007
748	-0,007
748,5	-0,007
748,9	-0,007
749,3	-0,007
749,8	-0,007
750,2	-0,007
750,6	-0,007
751,1	-0,007
751,5	-0,006
751,9	-0,006
752,4	-0,007
752,8	-0,007
753,3	-0,006
753,7	-0,007
754,1	-0,007
754,6	-0,006
755	-0,006
755,4	-0,006
755,9	-0,006
756,3	-0,006
756,7	-0,006
757,2	-0,006
757,6	-0,006
758	-0,006
758,5	-0,006
758,9	-0,006
759,3	-0,006
759,8	-0,006
760,2	-0,006
760,6	-0,006
761,1	-0,005
761,5	-0,005
761,9	-0,005
762,4	-0,005
762,8	-0,005
763,3	-0,005
763,7	-0,005
764,1	-0,005
764,6	-0,005
765	-0,006
765,4	-0,006
765,9	-0,006
766,3	-0,006
766,7	-0,006
767,2	-0,006
767,6	-0,006
768	-0,006
768,5	-0,006
768,9	-0,006
769,3	-0,007
769,8	-0,006
770,2	-0,006
770,6	-0,006
771,1	-0,006
771,5	-0,006
771,9	-0,006
772,4	-0,006
772,8	-0,006
773,2	-0,006
773,7	-0,007
774,1	-0,006
774,5	-0,007
775	-0,007
775,4	-0,006
775,8	-0,007
776,3	-0,007
776,7	-0,007
777,1	-0,007
777,6	-0,007
778	-0,007
778,4	-0,007
778,9	-0,007
779,3	-0,006
779,7	-0,006
780,2	-0,006
780,6	-0,006
781	-0,007
781,5	-0,006
781,9	-0,006
782,3	-0,006
782,8	-0,006
783,2	-0,006
783,6	-0,006
784,1	-0,006
784,5	-0,006
784,9	-0,006
785,4	-0,006
785,8	-0,006
786,2	-0,006
786,7	-0,006
787,1	-0,006
787,5	-0,006
788	-0,006
788,4	-0,006
788,8	-0,006
789,3	-0,006
789,7	-0,006
790,1	-0,006
790,6	-0,006
791	-0,006
791,4	-0,007
791,9	-0,007
792,3	-0,007
792,7	-0,007
793,2	-0,007
793,6	-0,007
794	-0,007
794,5	-0,007
794,9	-0,007
795,3	-0,007
795,8	-0,006
796,2	-0,006
796,6	-0,006
797,1	-0,006
797,5	-0,006
797,9	-0,006
798,4	-0,006
798,8	-0,006
799,2	-0,006
799,7	-0,006
800,1	-0,006
800,5	-0,006
801	-0,006
801,4	-0,006
801,8	-0,006
802,2	-0,006
802,7	-0,006
803,1	-0,006
803,5	-0,006
804	-0,006
804,4	-0,006
804,8	-0,006
805,3	-0,006
805,7	-0,006
806,1	-0,006
806,6	-0,006
807	-0,006
807,4	-0,006
807,9	-0,006
808,3	-0,006
808,7	-0,006
809,2	-0,006
809,6	-0,006
810	-0,006
810,4	-0,006
810,9	-0,006
811,3	-0,006
811,7	-0,006
812,2	-0,006
812,6	-0,005
813	-0,005
813,5	-0,006
813,9	-0,006
814,3	-0,006
814,8	-0,006
815,2	-0,006
815,6	-0,006
816,1	-0,006
816,5	-0,006
816,9	-0,006
817,3	-0,006
817,8	-0,006
818,2	-0,006
818,6	-0,006
819,1	-0,006
819,5	-0,005
819,9	-0,006
820,4	-0,005
820,8	-0,006
821,2	-0,006
821,7	-0,006
822,1	-0,006
822,5	-0,007
822,9	-0,007
823,4	-0,007
823,8	-0,007
824,2	-0,007
824,7	-0,007
825,1	-0,007
825,5	-0,007
826	-0,006
826,4	-0,006
826,8	-0,006
827,3	-0,005
827,7	-0,005
828,1	-0,005
828,5	-0,005
829	-0,006
829,4	-0,005
829,8	-0,006
830,3	-0,006
830,7	-0,006
831,1	-0,006
831,6	-0,006
832	-0,006
832,4	-0,007
832,8	-0,006
833,3	-0,006
833,7	-0,006
834,1	-0,006
834,6	-0,006
835	-0,006
835,4	-0,005
835,8	-0,005
836,3	-0,006
836,7	-0,006
837,1	-0,006
837,6	-0,006
838	-0,006
838,4	-0,006
838,9	-0,005
839,3	-0,006
839,7	-0,005
840,1	-0,005
840,6	-0,005
841	-0,005
841,4	-0,006
841,9	-0,006
842,3	-0,006
842,7	-0,006
843,1	-0,006
843,6	-0,006
844	-0,006
844,4	-0,006
844,9	-0,006
845,3	-0,006
845,7	-0,006
846,2	-0,006
846,6	-0,006
847	-0,006
847,4	-0,006
847,9	-0,006
848,3	-0,006
848,7	-0,006
849,2	-0,006
849,6	-0,006
850	-0,006
850,4	-0,006
850,9	-0,006
851,3	-0,006
851,7	-0,006
852,2	-0,006
852,6	-0,006
853	-0,006
853,4	-0,006
853,9	-0,006
854,3	-0,006
854,7	-0,006
855,2	-0,006
855,6	-0,006
856	-0,006
856,4	-0,006
856,9	-0,006
857,3	-0,006
857,7	-0,006
858,2	-0,006
858,6	-0,006
859	-0,006
859,4	-0,006
859,9	-0,006
860,3	-0,006
860,7	-0,006
861,1	-0,006
861,6	-0,006
862	-0,006
862,4	-0,006
862,9	-0,005
863,3	-0,006
863,7	-0,005
864,1	-0,005
864,6	-0,005
865	-0,005
865,4	-0,005
865,9	-0,005
866,3	-0,005
866,7	-0,005
867,1	-0,005
867,6	-0,005
868	-0,006
868,4	-0,006
868,8	-0,006
869,3	-0,005
869,7	-0,006
870,1	-0,005
870,6	-0,006
871	-0,005
871,4	-0,005
871,8	-0,005
872,3	-0,006
872,7	-0,006
873,1	-0,006
873,5	-0,006
874	-0,006
874,4	-0,007
874,8	-0,007
875,3	-0,007
875,7	-0,007
876,1	-0,006
876,5	-0,006
877	-0,006
877,4	-0,006
877,8	-0,005
878,2	-0,005
878,7	-0,006
879,1	-0,006
879,5	-0,006
879,9	-0,006
880,4	-0,006
880,8	-0,006
881,2	-0,006
881,7	-0,006
882,1	-0,006
882,5	-0,006
882,9	-0,006
883,4	-0,007
883,8	-0,006
884,2	-0,006
884,6	-0,006
885,1	-0,006
885,5	-0,006
885,9	-0,006
886,3	-0,005
886,8	-0,006
887,2	-0,006
887,6	-0,006
888	-0,006
888,5	-0,006
888,9	-0,006
889,3	-0,006
889,8	-0,006
890,2	-0,006
890,6	-0,006
891	-0,006
891,5	-0,005
891,9	-0,006
892,3	-0,006
892,7	-0,006
893,2	-0,006
893,6	-0,006
894	-0,006
894,4	-0,006
894,9	-0,005
895,3	-0,005
895,7	-0,005
896,1	-0,005
896,6	-0,005
897	-0,005
897,4	-0,005
897,8	-0,005
898,3	-0,006
898,7	-0,006
899,1	-0,006
899,5	-0,006
900	-0,006
900,4	-0,006
900,8	-0,006
901,2	-0,005
901,7	-0,005
902,1	-0,005
902,5	-0,005
902,9	-0,005
903,4	-0,004
903,8	-0,004
904,2	-0,005
904,6	-0,005
905,1	-0,005
905,5	-0,005
905,9	-0,005
906,3	-0,005
906,8	-0,005
907,2	-0,005
907,6	-0,005
908	-0,005
908,5	-0,005
908,9	-0,005
909,3	-0,005
909,7	-0,005
910,2	-0,005
910,6	-0,005
911	-0,005
911,4	-0,005
911,9	-0,005
912,3	-0,005
912,7	-0,005
913,1	-0,006
913,6	-0,006
914	-0,006
914,4	-0,006
914,8	-0,006
915,3	-0,006
915,7	-0,006
916,1	-0,006
916,5	-0,006
916,9	-0,006
917,4	-0,006
917,8	-0,006
918,2	-0,006
918,6	-0,006
919,1	-0,006
919,5	-0,006
919,9	-0,006
920,3	-0,006
920,8	-0,006
921,2	-0,007
921,6	-0,006
922	-0,006
922,5	-0,006
922,9	-0,006
923,3	-0,006
923,7	-0,005
924,2	-0,005
924,6	-0,005
925	-0,005
925,4	-0,005
925,8	-0,005
926,3	-0,006
926,7	-0,005
927,1	-0,005
927,5	-0,006
928	-0,005
928,4	-0,006
928,8	-0,005
929,2	-0,006
929,7	-0,006
930,1	-0,006
930,5	-0,005
930,9	-0,006
931,3	-0,005
931,8	-0,005
932,2	-0,005
932,6	-0,005
933	-0,005
933,5	-0,005
933,9	-0,004
934,3	-0,005
934,7	-0,005
935,2	-0,005
935,6	-0,005
936	-0,004
936,4	-0,005
936,8	-0,005
937,3	-0,005
937,7	-0,005
938,1	-0,005
938,5	-0,005
939	-0,005
939,4	-0,005
939,8	-0,005
940,2	-0,005
940,6	-0,005
941,1	-0,005
941,5	-0,006
941,9	-0,006
942,3	-0,006
942,8	-0,006
943,2	-0,006
943,6	-0,006
944	-0,006
944,4	-0,006
944,9	-0,006
945,3	-0,006
945,7	-0,007
946,1	-0,007
946,6	-0,007
947	-0,007
947,4	-0,006
947,8	-0,006
948,2	-0,006
948,7	-0,005
949,1	-0,005
949,5	-0,005
949,9	-0,005
950,3	-0,005
950,8	-0,004
951,2	-0,005
951,6	-0,005
952	-0,005
952,5	-0,004
952,9	-0,004
953,3	-0,004
953,7	-0,004
954,1	-0,005
954,6	-0,005
955	-0,005
955,4	-0,006
955,8	-0,006
956,2	-0,006
956,7	-0,007
957,1	-0,006
957,5	-0,007
957,9	-0,006
958,3	-0,005
958,8	-0,006
959,2	-0,005
959,6	-0,004
960	-0,004
960,5	-0,004
960,9	-0,003
961,3	-0,003
961,7	-0,003
962,1	-0,004
962,6	-0,003
963	-0,004
963,4	-0,003
963,8	-0,004
964,2	-0,004
964,7	-0,004
965,1	-0,004
965,5	-0,004
965,9	-0,004
966,3	-0,005
966,8	-0,005
967,2	-0,005
967,6	-0,004
968	-0,005
968,4	-0,005
968,9	-0,005
969,3	-0,005
969,7	-0,005
970,1	-0,005
970,5	-0,005
971	-0,005
971,4	-0,004
971,8	-0,004
972,2	-0,005
972,6	-0,005
973,1	-0,005
973,5	-0,005
973,9	-0,006
974,3	-0,006
974,7	-0,006
975,2	-0,005
975,6	-0,005
976	-0,005
976,4	-0,005
976,8	-0,004
977,3	-0,004
977,7	-0,004
978,1	-0,004
978,5	-0,004
978,9	-0,004
979,4	-0,003
979,8	-0,003
980,2	-0,003
980,6	-0,003
981	-0,003
981,5	-0,004
981,9	-0,004
982,3	-0,005
982,7	-0,005
983,1	-0,005
983,6	-0,005
984	-0,005
984,4	-0,004
984,8	-0,004
985,2	-0,004
985,6	-0,004
986,1	-0,005
986,5	-0,005
986,9	-0,004
987,3	-0,004
987,7	-0,004
988,2	-0,004
988,6	-0,004
989	-0,004
989,4	-0,004
989,8	-0,004
990,3	-0,004
990,7	-0,004
991,1	-0,004
991,5	-0,005
991,9	-0,005
992,3	-0,005
992,8	-0,005
993,2	-0,005
993,6	-0,005
994	-0,005
994,4	-0,005
994,9	-0,005
995,3	-0,004
995,7	-0,004
996,1	-0,004
996,5	-0,004
996,9	-0,004
997,4	-0,005
997,8	-0,005
998,2	-0,005
998,6	-0,006
999	-0,006
999,5	-0,007
999,9	-0,006
1000,3	-0,006
1000,7	-0,006
1001,1	-0,005
1001,5	-0,005
1002	-0,006
1002,4	-0,005
1002,8	-0,005
1003,2	-0,005
1003,6	-0,006
1004	-0,006
1004,5	-0,005
1004,9	-0,005
1005,3	-0,005
1005,7	-0,005
1006,1	-0,005
1006,6	-0,004
1007	-0,003
1007,4	-0,004
1007,8	-0,004
1008,2	-0,004
1008,6	-0,003
1009,1	-0,004
1009,5	-0,004
1009,9	-0,005
1010,3	-0,005
1010,7	-0,005
1011,1	-0,005
1011,6	-0,005
1012	-0,005
1012,4	-0,005
1012,8	-0,005
1013,2	-0,005
1013,6	-0,005
1014,1	-0,005
1014,5	-0,004
1014,9	-0,004
1015,3	-0,004
1015,7	-0,005
1016,1	-0,005
1016,6	-0,005
1017	-0,005
1017,4	-0,005
1017,8	-0,005
1018,2	-0,006
1018,6	-0,005
1019,1	-0,005
1019,5	-0,005
1019,9	-0,005
1020,3	-0,005
1020,7	-0,006
1021,1	-0,005
1021,6	-0,006
1022	-0,006
1022,4	-0,006
1022,8	-0,006
1023,2	-0,006
1023,6	-0,005
1024,1	-0,005
1024,5	-0,005
1024,9	-0,005
1025,3	-0,005
1025,7	-0,005
1026,1	-0,005
1026,6	-0,005
1027	-0,005
1027,4	-0,004
1027,8	-0,005
1028,2	-0,005
1028,6	-0,005
1029	-0,005
1029,5	-0,005
1029,9	-0,004
1030,3	-0,004
1030,7	-0,004
1031,1	-0,004
1031,5	-0,004
1032	-0,004
1032,4	-0,004
1032,8	-0,005
1033,2	-0,005
1033,6	-0,005
1034	-0,005
1034,4	-0,005
1034,9	-0,005
1035,3	-0,006
1035,7	-0,007
1036,1	-0,007
1036,5	-0,007
1036,9	-0,008
1037,4	-0,008
1037,8	-0,008
1038,2	-0,008
1038,6	-0,007
1039	-0,007
1039,4	-0,007
1039,8	-0,007
1040,3	-0,007
1040,7	-0,007
1041,1	-0,008
1041,5	-0,007
1041,9	-0,007
1042,3	-0,006
1042,7	-0,006
1043,2	-0,006
1043,6	-0,005
1044	-0,005
1044,4	-0,006
1044,8	-0,006
1045,2	-0,006
1045,6	-0,006
1046,1	-0,006
1046,5	-0,005
1046,9	-0,006
1047,3	-0,005
1047,7	-0,005
1048,1	-0,005
1048,5	-0,006
1049	-0,005
1049,4	-0,005
1049,8	-0,005
1050,2	-0,006
1050,6	-0,006
1051	-0,006
1051,4	-0,006
1051,9	-0,006
1052,3	-0,007
1052,7	-0,006
1053,1	-0,006
1053,5	-0,007
1053,9	-0,007
1054,3	-0,006
1054,8	-0,006
1055,2	-0,006
1055,6	-0,006
1056	-0,005
1056,4	-0,004
1056,8	-0,004
1057,2	-0,005
1057,6	-0,005
1058,1	-0,004
1058,5	-0,006
1058,9	-0,006
1059,3	-0,006
1059,7	-0,007
1060,1	-0,006
1060,5	-0,006
1061	-0,005
1061,4	-0,004
1061,8	-0,004
1062,2	-0,004
1062,6	-0,005
1063	-0,005
1063,4	-0,006
1063,8	-0,007
1064,3	-0,008
1064,7	-0,009
1065,1	-0,008
1065,5	-0,007
1065,9	-0,007
1066,3	-0,006
1066,7	-0,007
1067,1	-0,006
1067,6	-0,007
1068	-0,007
1068,4	-0,008
1068,8	-0,008
1069,2	-0,008
1069,6	-0,008
1070	-0,008
1070,4	-0,007
1070,9	-0,007
1071,3	-0,006
1071,7	-0,006
1072,1	-0,006
1072,5	-0,006
1072,9	-0,006
1073,3	-0,007
1073,7	-0,005
1074,2	-0,005
1074,6	-0,005
1075	-0,006
1075,4	-0,005
1075,8	-0,004
1076,2	-0,005
1076,6	-0,006
1077	-0,007
1077,5	-0,006
1077,9	-0,006
1078,3	-0,007
1078,7	-0,008
1079,1	-0,009
1079,5	-0,009
1079,9	-0,008
1080,3	-0,007
1080,7	-0,007
1081,2	-0,006
1081,6	-0,005
1082	-0,003
1082,4	-0,003
1082,8	-0,004
1083,2	-0,004
1083,6	-0,004
1084	-0,004
1084,5	-0,005
1084,9	-0,006
1085,3	-0,005
1085,7	-0,004
1086,1	-0,005
1086,5	-0,004
1086,9	-0,004
1087,3	-0,005
1087,7	-0,004
1088,2	-0,005
1088,6	-0,006
1089	-0,007
1089,4	-0,006
1089,8	-0,005
1090,2	-0,006
1090,6	-0,007
1091	-0,008
1091,4	-0,007
1091,9	-0,008
1092,3	-0,006
1092,7	-0,006
1093,1	-0,007
1093,5	-0,005
1093,9	-0,004
1094,3	-0,006
1094,7	-0,003
1095,1	-0,006
1095,5	-0,008
1096	-0,004
1096,4	-0,005
1096,8	-0,005
1097,2	-0,006
1097,6	-0,008
1098	-0,007
1098,4	-0,002
1098,8	-0,004
1099,2	-0,003
1099,6	-0
1100,1	-0,002
1100,5	0,005
1100,9	-0,004
1101,3	-0,018
1101,7	-0,017
1102,1	-0,014
1102,5	-0,008
1102,9	-0,001
1103,3	-0,012
1103,7	-0,003
1104,2	0,008
1104,6	0,015
1105	0,011
1105,4	0,009
1105,8	0,004
1106,2	0,012
1106,6	0,013
1107	0,013
1107,4	-0,001
1107,8	-0,034
1108,3	1,03
