Data from Absorbance_00004.txt Node
Date: Thu Aug 24 15:43:27 MSK 2023
User: vat
Spectrometer: MAYP114033
Trigger mode: 0
Integration Time (sec): 8,000000E-3
Scans to average: 10
Electric dark correction enabled: true
Nonlinearity correction enabled: false
Boxcar width: 3
XAxis mode: Wavelengths
Number of Pixels in Spectrum: 2068
>>>>>Begin Spectral Data<<<<<
199,4	-0
199,9	0,227
200,4	0,526
200,8	0,808
201,3	0,89
201,8	0,94
202,2	0,949
202,7	0,991
203,2	1,021
203,6	1,025
204,1	1,027
204,6	1,04
205	1,038
205,5	1,07
206	1,07
206,4	1,097
206,9	1,092
207,4	1,123
207,8	1,12
208,3	1,159
208,8	1,166
209,2	1,191
209,7	1,183
210,2	1,22
210,6	1,223
211,1	1,236
211,5	1,228
212	1,23
212,5	1,245
212,9	1,273
213,4	1,288
213,9	1,306
214,3	1,343
214,8	1,358
215,3	1,368
215,7	1,383
216,2	1,402
216,7	1,394
217,1	1,394
217,6	1,396
218,1	1,426
218,5	1,447
219	1,465
219,5	1,491
219,9	1,526
220,4	1,567
220,9	1,587
221,3	1,585
221,8	1,605
222,3	1,607
222,7	1,617
223,2	1,636
223,6	1,645
224,1	1,648
224,6	1,674
225	1,682
225,5	1,693
226	1,706
226,4	1,72
226,9	1,735
227,4	1,762
227,8	1,765
228,3	1,772
228,8	1,775
229,2	1,774
229,7	1,781
230,2	1,79
230,6	1,805
231,1	1,824
231,5	1,844
232	1,87
232,5	1,893
232,9	1,914
233,4	1,944
233,9	1,933
234,3	1,935
234,8	1,934
235,3	1,928
235,7	1,93
236,2	1,941
236,7	1,938
237,1	1,956
237,6	1,961
238,1	1,987
238,5	2,003
239	2,016
239,4	1,999
239,9	2,017
240,4	2,02
240,8	2,029
241,3	2,026
241,8	2,023
242,2	2,014
242,7	2,031
243,2	2,015
243,6	2,012
244,1	2,014
244,6	2,017
245	2,027
245,5	2,038
245,9	2,042
246,4	2,056
246,9	2,063
247,3	2,068
247,8	2,076
248,3	2,082
248,7	2,091
249,2	2,087
249,7	2,075
250,1	2,077
250,6	2,085
251	2,084
251,5	2,096
252	2,093
252,4	2,094
252,9	2,109
253,4	2,133
253,8	2,116
254,3	2,105
254,8	2,095
255,2	2,117
255,7	2,133
256,1	2,122
256,6	2,109
257,1	2,131
257,5	2,136
258	2,137
258,5	2,135
258,9	2,139
259,4	2,13
259,9	2,125
260,3	2,12
260,8	2,129
261,2	2,135
261,7	2,118
262,2	2,109
262,6	2,127
263,1	2,135
263,6	2,143
264	2,148
264,5	2,138
264,9	2,132
265,4	2,127
265,9	2,126
266,3	2,129
266,8	2,104
267,3	2,104
267,7	2,115
268,2	2,11
268,7	2,116
269,1	2,107
269,6	2,095
270	2,115
270,5	2,111
271	2,097
271,4	2,105
271,9	2,082
272,4	2,081
272,8	2,07
273,3	2,056
273,7	2,054
274,2	2,06
274,7	2,055
275,1	2,073
275,6	2,078
276,1	2,074
276,5	2,052
277	2,031
277,4	2,023
277,9	2,006
278,4	1,978
278,8	1,961
279,3	1,957
279,8	1,945
280,2	1,924
280,7	1,886
281,1	1,869
281,6	1,842
282,1	1,798
282,5	1,745
283	1,694
283,4	1,635
283,9	1,563
284,4	1,476
284,8	1,388
285,3	1,299
285,8	1,213
286,2	1,127
286,7	1,046
287,1	0,971
287,6	0,903
288,1	0,841
288,5	0,783
289	0,731
289,5	0,685
289,9	0,644
290,4	0,607
290,8	0,575
291,3	0,546
291,8	0,522
292,2	0,5
292,7	0,479
293,1	0,461
293,6	0,447
294,1	0,434
294,5	0,424
295	0,414
295,5	0,405
295,9	0,399
296,4	0,393
296,8	0,386
297,3	0,381
297,8	0,376
298,2	0,371
298,7	0,368
299,1	0,364
299,6	0,36
300,1	0,358
300,5	0,354
301	0,352
301,5	0,348
301,9	0,346
302,4	0,344
302,8	0,342
303,3	0,339
303,8	0,337
304,2	0,335
304,7	0,333
305,1	0,331
305,6	0,328
306,1	0,326
306,5	0,323
307	0,321
307,4	0,318
307,9	0,316
308,4	0,313
308,8	0,311
309,3	0,308
309,8	0,306
310,2	0,303
310,7	0,3
311,1	0,297
311,6	0,295
312,1	0,293
312,5	0,29
313	0,288
313,4	0,286
313,9	0,285
314,4	0,282
314,8	0,279
315,3	0,276
315,7	0,275
316,2	0,272
316,7	0,269
317,1	0,266
317,6	0,263
318	0,261
318,5	0,258
319	0,255
319,4	0,252
319,9	0,249
320,3	0,247
320,8	0,243
321,3	0,241
321,7	0,238
322,2	0,236
322,6	0,234
323,1	0,231
323,6	0,228
324	0,226
324,5	0,223
324,9	0,22
325,4	0,217
325,9	0,214
326,3	0,212
326,8	0,21
327,2	0,208
327,7	0,206
328,2	0,203
328,6	0,201
329,1	0,198
329,5	0,195
330	0,192
330,5	0,189
330,9	0,186
331,4	0,184
331,8	0,182
332,3	0,18
332,8	0,177
333,2	0,174
333,7	0,172
334,1	0,169
334,6	0,166
335,1	0,163
335,5	0,161
336	0,158
336,4	0,156
336,9	0,154
337,4	0,152
337,8	0,149
338,3	0,147
338,7	0,143
339,2	0,141
339,7	0,138
340,1	0,135
340,6	0,133
341	0,131
341,5	0,128
342	0,126
342,4	0,125
342,9	0,123
343,3	0,121
343,8	0,118
344,2	0,116
344,7	0,114
345,2	0,112
345,6	0,11
346,1	0,108
346,5	0,105
347	0,103
347,5	0,101
347,9	0,099
348,4	0,097
348,8	0,095
349,3	0,093
349,8	0,091
350,2	0,09
350,7	0,088
351,1	0,086
351,6	0,085
352	0,083
352,5	0,081
353	0,079
353,4	0,078
353,9	0,076
354,3	0,075
354,8	0,073
355,3	0,072
355,7	0,071
356,2	0,069
356,6	0,067
357,1	0,066
357,5	0,064
358	0,063
358,5	0,062
358,9	0,06
359,4	0,06
359,8	0,058
360,3	0,056
360,8	0,055
361,2	0,054
361,7	0,052
362,1	0,051
362,6	0,049
363	0,047
363,5	0,047
364	0,046
364,4	0,046
364,9	0,045
365,3	0,044
365,8	0,044
366,3	0,043
366,7	0,042
367,2	0,041
367,6	0,039
368,1	0,038
368,5	0,038
369	0,037
369,5	0,036
369,9	0,035
370,4	0,034
370,8	0,033
371,3	0,032
371,7	0,032
372,2	0,031
372,7	0,03
373,1	0,029
373,6	0,028
374	0,028
374,5	0,027
374,9	0,026
375,4	0,025
375,9	0,024
376,3	0,024
376,8	0,024
377,2	0,023
377,7	0,023
378,2	0,023
378,6	0,022
379,1	0,022
379,5	0,022
380	0,022
380,4	0,021
380,9	0,021
381,4	0,02
381,8	0,02
382,3	0,02
382,7	0,019
383,2	0,017
383,6	0,016
384,1	0,016
384,6	0,016
385	0,016
385,5	0,015
385,9	0,015
386,4	0,015
386,8	0,015
387,3	0,015
387,7	0,014
388,2	0,014
388,7	0,013
389,1	0,013
389,6	0,012
390	0,012
390,5	0,011
390,9	0,011
391,4	0,01
391,9	0,009
392,3	0,009
392,8	0,009
393,2	0,008
393,7	0,009
394,1	0,009
394,6	0,009
395,1	0,009
395,5	0,009
396	0,009
396,4	0,009
396,9	0,009
397,3	0,008
397,8	0,008
398,2	0,007
398,7	0,007
399,2	0,007
399,6	0,006
400,1	0,006
400,5	0,005
401	0,005
401,4	0,005
401,9	0,005
402,4	0,004
402,8	0,004
403,3	0,004
403,7	0,004
404,2	0,004
404,6	0,003
405,1	0,003
405,5	0,003
406	0,002
406,5	0,002
406,9	0,002
407,4	0,002
407,8	0,002
408,3	0,002
408,7	0,002
409,2	0,002
409,6	0,003
410,1	0,002
410,6	0,002
411	0,002
411,5	0,002
411,9	0,001
412,4	0,001
412,8	0,001
413,3	0
413,7	-0
414,2	-0
414,7	-0,001
415,1	-0,001
415,6	-0
416	-0,001
416,5	-0,001
416,9	-0,001
417,4	-0,001
417,8	-0,001
418,3	-0,001
418,8	-0,002
419,2	-0,002
419,7	-0,002
420,1	-0,002
420,6	-0,002
421	-0,002
421,5	-0,002
421,9	-0,003
422,4	-0,003
422,8	-0,003
423,3	-0,002
423,8	-0,003
424,2	-0,003
424,7	-0,002
425,1	-0,002
425,6	-0,002
426	-0,003
426,5	-0,003
426,9	-0,004
427,4	-0,004
427,9	-0,004
428,3	-0,004
428,8	-0,004
429,2	-0,004
429,7	-0,004
430,1	-0,004
430,6	-0,005
431	-0,005
431,5	-0,005
431,9	-0,005
432,4	-0,005
432,8	-0,005
433,3	-0,005
433,8	-0,005
434,2	-0,006
434,7	-0,006
435,1	-0,006
435,6	-0,006
436	-0,005
436,5	-0,005
436,9	-0,005
437,4	-0,006
437,8	-0,006
438,3	-0,005
438,8	-0,006
439,2	-0,006
439,7	-0,007
440,1	-0,007
440,6	-0,006
441	-0,006
441,5	-0,006
441,9	-0,006
442,4	-0,007
442,8	-0,006
443,3	-0,006
443,7	-0,007
444,2	-0,007
444,7	-0,008
445,1	-0,008
445,6	-0,008
446	-0,008
446,5	-0,008
446,9	-0,007
447,4	-0,007
447,8	-0,006
448,3	-0,006
448,7	-0,006
449,2	-0,007
449,6	-0,007
450,1	-0,007
450,6	-0,007
451	-0,008
451,5	-0,007
451,9	-0,007
452,4	-0,008
452,8	-0,007
453,3	-0,007
453,7	-0,007
454,2	-0,007
454,6	-0,008
455,1	-0,008
455,5	-0,008
456	-0,008
456,4	-0,007
456,9	-0,007
457,3	-0,007
457,8	-0,007
458,3	-0,007
458,7	-0,007
459,2	-0,008
459,6	-0,008
460,1	-0,008
460,5	-0,008
461	-0,008
461,4	-0,006
461,9	-0,007
462,3	-0,006
462,8	-0,006
463,2	-0,006
463,7	-0,006
464,1	-0,007
464,6	-0,007
465	-0,007
465,5	-0,008
466	-0,007
466,4	-0,008
466,9	-0,008
467,3	-0,008
467,8	-0,008
468,2	-0,008
468,7	-0,008
469,1	-0,008
469,6	-0,008
470	-0,007
470,5	-0,007
470,9	-0,007
471,4	-0,007
471,8	-0,007
472,3	-0,007
472,7	-0,007
473,2	-0,007
473,6	-0,007
474,1	-0,007
474,5	-0,006
475	-0,006
475,4	-0,006
475,9	-0,006
476,4	-0,006
476,8	-0,006
477,3	-0,007
477,7	-0,007
478,2	-0,007
478,6	-0,008
479,1	-0,008
479,5	-0,007
480	-0,007
480,4	-0,006
480,9	-0,007
481,3	-0,007
481,8	-0,006
482,2	-0,006
482,7	-0,006
483,1	-0,007
483,6	-0,008
484	-0,007
484,5	-0,007
484,9	-0,007
485,4	-0,007
485,8	-0,007
486,3	-0,007
486,7	-0,007
487,2	-0,007
487,6	-0,007
488,1	-0,007
488,5	-0,007
489	-0,007
489,4	-0,007
489,9	-0,007
490,4	-0,007
490,8	-0,007
491,3	-0,007
491,7	-0,007
492,2	-0,007
492,6	-0,007
493,1	-0,007
493,5	-0,007
494	-0,008
494,4	-0,007
494,9	-0,008
495,3	-0,008
495,8	-0,007
496,2	-0,008
496,7	-0,008
497,1	-0,008
497,6	-0,007
498	-0,007
498,5	-0,007
498,9	-0,008
499,4	-0,007
499,8	-0,007
500,3	-0,007
500,7	-0,008
501,2	-0,008
501,6	-0,007
502,1	-0,007
502,5	-0,007
503	-0,007
503,4	-0,008
503,9	-0,008
504,3	-0,008
504,8	-0,007
505,2	-0,008
505,7	-0,007
506,1	-0,007
506,6	-0,007
507	-0,006
507,5	-0,006
507,9	-0,006
508,4	-0,006
508,8	-0,006
509,3	-0,006
509,7	-0,006
510,2	-0,006
510,6	-0,006
511,1	-0,006
511,5	-0,006
512	-0,006
512,4	-0,006
512,9	-0,006
513,3	-0,007
513,8	-0,007
514,2	-0,007
514,7	-0,007
515,1	-0,007
515,6	-0,007
516	-0,007
516,5	-0,007
516,9	-0,007
517,4	-0,007
517,8	-0,007
518,3	-0,007
518,7	-0,007
519,2	-0,007
519,6	-0,007
520,1	-0,007
520,5	-0,007
521	-0,007
521,4	-0,007
521,9	-0,007
522,3	-0,007
522,8	-0,006
523,2	-0,006
523,7	-0,006
524,1	-0,006
524,6	-0,006
525	-0,006
525,5	-0,007
525,9	-0,007
526,4	-0,007
526,8	-0,007
527,3	-0,006
527,7	-0,005
528,2	-0,005
528,6	-0,005
529,1	-0,005
529,5	-0,005
530	-0,005
530,4	-0,005
530,9	-0,006
531,3	-0,006
531,8	-0,006
532,2	-0,006
532,6	-0,006
533,1	-0,006
533,5	-0,006
534	-0,006
534,4	-0,006
534,9	-0,006
535,3	-0,006
535,8	-0,005
536,2	-0,006
536,7	-0,005
537,1	-0,006
537,6	-0,006
538	-0,006
538,5	-0,006
538,9	-0,006
539,4	-0,006
539,8	-0,006
540,3	-0,006
540,7	-0,006
541,2	-0,006
541,6	-0,006
542,1	-0,006
542,5	-0,006
543	-0,007
543,4	-0,006
543,9	-0,007
544,3	-0,006
544,8	-0,007
545,2	-0,007
545,7	-0,007
546,1	-0,006
546,5	-0,007
547	-0,006
547,4	-0,006
547,9	-0,006
548,3	-0,005
548,8	-0,006
549,2	-0,006
549,7	-0,006
550,1	-0,007
550,6	-0,007
551	-0,006
551,5	-0,006
551,9	-0,006
552,4	-0,006
552,8	-0,007
553,3	-0,007
553,7	-0,007
554,2	-0,007
554,6	-0,007
555,1	-0,007
555,5	-0,007
555,9	-0,006
556,4	-0,006
556,8	-0,005
557,3	-0,005
557,7	-0,004
558,2	-0,004
558,6	-0,004
559,1	-0,004
559,5	-0,005
560	-0,004
560,4	-0,005
560,9	-0,005
561,3	-0,005
561,8	-0,005
562,2	-0,005
562,7	-0,004
563,1	-0,005
563,6	-0,005
564	-0,004
564,4	-0,005
564,9	-0,005
565,3	-0,005
565,8	-0,006
566,2	-0,006
566,7	-0,005
567,1	-0,006
567,6	-0,006
568	-0,005
568,5	-0,005
568,9	-0,005
569,4	-0,005
569,8	-0,005
570,3	-0,005
570,7	-0,005
571,1	-0,005
571,6	-0,006
572	-0,005
572,5	-0,005
572,9	-0,005
573,4	-0,005
573,8	-0,005
574,3	-0,005
574,7	-0,005
575,2	-0,005
575,6	-0,005
576,1	-0,005
576,5	-0,005
576,9	-0,005
577,4	-0,005
577,8	-0,005
578,3	-0,005
578,7	-0,005
579,2	-0,005
579,6	-0,005
580,1	-0,005
580,5	-0,005
581	-0,005
581,4	-0,005
581,9	-0,005
582,3	-0,006
582,7	-0,006
583,2	-0,006
583,6	-0,006
584,1	-0,006
584,5	-0,006
585	-0,005
585,4	-0,005
585,9	-0,005
586,3	-0,005
586,8	-0,005
587,2	-0,005
587,6	-0,005
588,1	-0,005
588,5	-0,005
589	-0,005
589,4	-0,005
589,9	-0,005
590,3	-0,005
590,8	-0,005
591,2	-0,005
591,7	-0,005
592,1	-0,005
592,5	-0,005
593	-0,005
593,4	-0,005
593,9	-0,004
594,3	-0,004
594,8	-0,004
595,2	-0,004
595,7	-0,004
596,1	-0,004
596,6	-0,004
597	-0,004
597,4	-0,004
597,9	-0,004
598,3	-0,004
598,8	-0,004
599,2	-0,005
599,7	-0,005
600,1	-0,005
600,6	-0,005
601	-0,005
601,4	-0,005
601,9	-0,005
602,3	-0,005
602,8	-0,004
603,2	-0,005
603,7	-0,005
604,1	-0,005
604,6	-0,005
605	-0,004
605,4	-0,004
605,9	-0,004
606,3	-0,004
606,8	-0,004
607,2	-0,004
607,7	-0,004
608,1	-0,005
608,6	-0,005
609	-0,005
609,4	-0,005
609,9	-0,004
610,3	-0,004
610,8	-0,004
611,2	-0,004
611,7	-0,004
612,1	-0,004
612,6	-0,004
613	-0,004
613,4	-0,004
613,9	-0,004
614,3	-0,004
614,8	-0,004
615,2	-0,004
615,7	-0,004
616,1	-0,004
616,6	-0,004
617	-0,004
617,4	-0,004
617,9	-0,005
618,3	-0,005
618,8	-0,005
619,2	-0,005
619,7	-0,005
620,1	-0,005
620,5	-0,005
621	-0,005
621,4	-0,005
621,9	-0,005
622,3	-0,005
622,8	-0,005
623,2	-0,005
623,6	-0,005
624,1	-0,005
624,5	-0,004
625	-0,005
625,4	-0,005
625,9	-0,004
626,3	-0,004
626,8	-0,004
627,2	-0,004
627,6	-0,004
628,1	-0,004
628,5	-0,004
629	-0,004
629,4	-0,004
629,9	-0,005
630,3	-0,005
630,7	-0,005
631,2	-0,004
631,6	-0,005
632,1	-0,005
632,5	-0,005
633	-0,004
633,4	-0,004
633,8	-0,005
634,3	-0,005
634,7	-0,004
635,2	-0,004
635,6	-0,004
636,1	-0,004
636,5	-0,004
636,9	-0,004
637,4	-0,003
637,8	-0,004
638,3	-0,004
638,7	-0,004
639,2	-0,004
639,6	-0,004
640	-0,004
640,5	-0,005
640,9	-0,005
641,4	-0,005
641,8	-0,004
642,2	-0,004
642,7	-0,004
643,1	-0,004
643,6	-0,004
644	-0,003
644,5	-0,004
644,9	-0,003
645,3	-0,003
645,8	-0,003
646,2	-0,003
646,7	-0,004
647,1	-0,004
647,6	-0,004
648	-0,004
648,4	-0,004
648,9	-0,004
649,3	-0,004
649,8	-0,004
650,2	-0,004
650,6	-0,004
651,1	-0,004
651,5	-0,004
652	-0,004
652,4	-0,004
652,9	-0,004
653,3	-0,004
653,7	-0,004
654,2	-0,004
654,6	-0,004
655,1	-0,003
655,5	-0,002
655,9	-0,001
656,4	-0,001
656,8	-0,001
657,3	-0,001
657,7	-0,001
658,2	-0,001
658,6	-0,002
659	-0,003
659,5	-0,004
659,9	-0,004
660,4	-0,004
660,8	-0,004
661,2	-0,004
661,7	-0,004
662,1	-0,004
662,6	-0,004
663	-0,003
663,4	-0,003
663,9	-0,004
664,3	-0,004
664,8	-0,004
665,2	-0,004
665,6	-0,004
666,1	-0,004
666,5	-0,004
667	-0,004
667,4	-0,003
667,9	-0,004
668,3	-0,004
668,7	-0,004
669,2	-0,004
669,6	-0,004
670,1	-0,003
670,5	-0,004
670,9	-0,004
671,4	-0,003
671,8	-0,003
672,3	-0,003
672,7	-0,003
673,1	-0,003
673,6	-0,003
674	-0,004
674,5	-0,003
674,9	-0,003
675,3	-0,003
675,8	-0,003
676,2	-0,003
676,7	-0,002
677,1	-0,002
677,5	-0,002
678	-0,002
678,4	-0,002
678,9	-0,002
679,3	-0,003
679,7	-0,003
680,2	-0,003
680,6	-0,003
681,1	-0,004
681,5	-0,004
681,9	-0,004
682,4	-0,003
682,8	-0,004
683,3	-0,004
683,7	-0,004
684,1	-0,003
684,6	-0,003
685	-0,003
685,5	-0,003
685,9	-0,003
686,3	-0,003
686,8	-0,004
687,2	-0,003
687,7	-0,004
688,1	-0,004
688,5	-0,004
689	-0,004
689,4	-0,003
689,9	-0,003
690,3	-0,004
690,7	-0,004
691,2	-0,004
691,6	-0,004
692	-0,004
692,5	-0,004
692,9	-0,004
693,4	-0,004
693,8	-0,004
694,2	-0,004
694,7	-0,003
695,1	-0,003
695,6	-0,003
696	-0,004
696,4	-0,004
696,9	-0,003
697,3	-0,004
697,8	-0,004
698,2	-0,003
698,6	-0,003
699,1	-0,003
699,5	-0,003
699,9	-0,003
700,4	-0,003
700,8	-0,003
701,3	-0,003
701,7	-0,003
702,1	-0,003
702,6	-0,003
703	-0,003
703,5	-0,003
703,9	-0,003
704,3	-0,003
704,8	-0,003
705,2	-0,003
705,6	-0,003
706,1	-0,003
706,5	-0,003
707	-0,003
707,4	-0,003
707,8	-0,003
708,3	-0,002
708,7	-0,002
709,2	-0,002
709,6	-0,002
710	-0,002
710,5	-0,002
710,9	-0,003
711,3	-0,003
711,8	-0,003
712,2	-0,003
712,7	-0,003
713,1	-0,003
713,5	-0,003
714	-0,003
714,4	-0,003
714,8	-0,003
715,3	-0,003
715,7	-0,003
716,2	-0,003
716,6	-0,003
717	-0,003
717,5	-0,003
717,9	-0,003
718,3	-0,003
718,8	-0,002
719,2	-0,003
719,7	-0,003
720,1	-0,003
720,5	-0,003
721	-0,003
721,4	-0,003
721,8	-0,004
722,3	-0,004
722,7	-0,004
723,2	-0,004
723,6	-0,004
724	-0,004
724,5	-0,004
724,9	-0,003
725,3	-0,003
725,8	-0,004
726,2	-0,003
726,7	-0,004
727,1	-0,004
727,5	-0,004
728	-0,003
728,4	-0,003
728,8	-0,003
729,3	-0,003
729,7	-0,003
730,1	-0,003
730,6	-0,003
731	-0,003
731,5	-0,003
731,9	-0,003
732,3	-0,002
732,8	-0,003
733,2	-0,003
733,6	-0,003
734,1	-0,003
734,5	-0,003
734,9	-0,003
735,4	-0,003
735,8	-0,003
736,3	-0,004
736,7	-0,004
737,1	-0,003
737,6	-0,003
738	-0,003
738,4	-0,003
738,9	-0,003
739,3	-0,003
739,7	-0,003
740,2	-0,003
740,6	-0,003
741,1	-0,003
741,5	-0,003
741,9	-0,003
742,4	-0,003
742,8	-0,003
743,2	-0,003
743,7	-0,003
744,1	-0,004
744,5	-0,004
745	-0,004
745,4	-0,004
745,8	-0,004
746,3	-0,004
746,7	-0,004
747,2	-0,003
747,6	-0,003
748	-0,003
748,5	-0,003
748,9	-0,003
749,3	-0,003
749,8	-0,003
750,2	-0,003
750,6	-0,003
751,1	-0,003
751,5	-0,003
751,9	-0,003
752,4	-0,003
752,8	-0,003
753,3	-0,003
753,7	-0,003
754,1	-0,002
754,6	-0,002
755	-0,002
755,4	-0,002
755,9	-0,003
756,3	-0,003
756,7	-0,002
757,2	-0,003
757,6	-0,003
758	-0,003
758,5	-0,003
758,9	-0,003
759,3	-0,003
759,8	-0,003
760,2	-0,003
760,6	-0,002
761,1	-0,003
761,5	-0,002
761,9	-0,003
762,4	-0,002
762,8	-0,002
763,3	-0,003
763,7	-0,002
764,1	-0,002
764,6	-0,002
765	-0,002
765,4	-0,002
765,9	-0,002
766,3	-0,002
766,7	-0,002
767,2	-0,002
767,6	-0,002
768	-0,002
768,5	-0,002
768,9	-0,002
769,3	-0,002
769,8	-0,002
770,2	-0,002
770,6	-0,002
771,1	-0,002
771,5	-0,002
771,9	-0,003
772,4	-0,003
772,8	-0,003
773,2	-0,003
773,7	-0,003
774,1	-0,004
774,5	-0,004
775	-0,004
775,4	-0,003
775,8	-0,004
776,3	-0,004
776,7	-0,004
777,1	-0,004
777,6	-0,004
778	-0,004
778,4	-0,004
778,9	-0,004
779,3	-0,004
779,7	-0,003
780,2	-0,003
780,6	-0,003
781	-0,003
781,5	-0,003
781,9	-0,003
782,3	-0,003
782,8	-0,003
783,2	-0,003
783,6	-0,003
784,1	-0,002
784,5	-0,002
784,9	-0,002
785,4	-0,002
785,8	-0,002
786,2	-0,003
786,7	-0,002
787,1	-0,003
787,5	-0,003
788	-0,003
788,4	-0,003
788,8	-0,003
789,3	-0,003
789,7	-0,003
790,1	-0,003
790,6	-0,003
791	-0,003
791,4	-0,003
791,9	-0,003
792,3	-0,003
792,7	-0,003
793,2	-0,003
793,6	-0,004
794	-0,003
794,5	-0,003
794,9	-0,003
795,3	-0,003
795,8	-0,003
796,2	-0,003
796,6	-0,002
797,1	-0,003
797,5	-0,002
797,9	-0,003
798,4	-0,003
798,8	-0,003
799,2	-0,003
799,7	-0,003
800,1	-0,003
800,5	-0,003
801	-0,003
801,4	-0,003
801,8	-0,003
802,2	-0,002
802,7	-0,002
803,1	-0,002
803,5	-0,002
804	-0,002
804,4	-0,002
804,8	-0,002
805,3	-0,002
805,7	-0,003
806,1	-0,003
806,6	-0,003
807	-0,003
807,4	-0,003
807,9	-0,002
808,3	-0,002
808,7	-0,002
809,2	-0,002
809,6	-0,002
810	-0,002
810,4	-0,002
810,9	-0,002
811,3	-0,003
811,7	-0,003
812,2	-0,003
812,6	-0,002
813	-0,003
813,5	-0,003
813,9	-0,003
814,3	-0,002
814,8	-0,002
815,2	-0,002
815,6	-0,002
816,1	-0,002
816,5	-0,002
816,9	-0,002
817,3	-0,003
817,8	-0,003
818,2	-0,003
818,6	-0,003
819,1	-0,003
819,5	-0,003
819,9	-0,003
820,4	-0,003
820,8	-0,002
821,2	-0,003
821,7	-0,003
822,1	-0,003
822,5	-0,003
822,9	-0,003
823,4	-0,003
823,8	-0,003
824,2	-0,003
824,7	-0,003
825,1	-0,003
825,5	-0,003
826	-0,003
826,4	-0,003
826,8	-0,002
827,3	-0,002
827,7	-0,002
828,1	-0,002
828,5	-0,002
829	-0,002
829,4	-0,002
829,8	-0,002
830,3	-0,002
830,7	-0,003
831,1	-0,003
831,6	-0,003
832	-0,003
832,4	-0,003
832,8	-0,003
833,3	-0,003
833,7	-0,003
834,1	-0,003
834,6	-0,003
835	-0,003
835,4	-0,002
835,8	-0,002
836,3	-0,002
836,7	-0,002
837,1	-0,002
837,6	-0,002
838	-0,003
838,4	-0,003
838,9	-0,003
839,3	-0,002
839,7	-0,003
840,1	-0,003
840,6	-0,002
841	-0,002
841,4	-0,002
841,9	-0,002
842,3	-0,001
842,7	-0,002
843,1	-0,002
843,6	-0,002
844	-0,002
844,4	-0,002
844,9	-0,002
845,3	-0,003
845,7	-0,003
846,2	-0,003
846,6	-0,002
847	-0,003
847,4	-0,003
847,9	-0,003
848,3	-0,003
848,7	-0,003
849,2	-0,002
849,6	-0,002
850	-0,002
850,4	-0,002
850,9	-0,002
851,3	-0,001
851,7	-0,001
852,2	-0,001
852,6	-0,001
853	-0,001
853,4	-0,001
853,9	-0,001
854,3	-0,002
854,7	-0,002
855,2	-0,002
855,6	-0,002
856	-0,002
856,4	-0,002
856,9	-0,002
857,3	-0,002
857,7	-0,002
858,2	-0,002
858,6	-0,003
859	-0,003
859,4	-0,003
859,9	-0,003
860,3	-0,003
860,7	-0,003
861,1	-0,003
861,6	-0,003
862	-0,002
862,4	-0,002
862,9	-0,002
863,3	-0,002
863,7	-0,002
864,1	-0,002
864,6	-0,003
865	-0,002
865,4	-0,002
865,9	-0,002
866,3	-0,002
866,7	-0,002
867,1	-0,002
867,6	-0,003
868	-0,003
868,4	-0,003
868,8	-0,003
869,3	-0,002
869,7	-0,003
870,1	-0,003
870,6	-0,003
871	-0,003
871,4	-0,003
871,8	-0,003
872,3	-0,004
872,7	-0,004
873,1	-0,003
873,5	-0,003
874	-0,003
874,4	-0,003
874,8	-0,003
875,3	-0,003
875,7	-0,003
876,1	-0,003
876,5	-0,003
877	-0,003
877,4	-0,003
877,8	-0,003
878,2	-0,002
878,7	-0,002
879,1	-0,002
879,5	-0,002
879,9	-0,002
880,4	-0,002
880,8	-0,002
881,2	-0,003
881,7	-0,002
882,1	-0,002
882,5	-0,003
882,9	-0,003
883,4	-0,003
883,8	-0,003
884,2	-0,003
884,6	-0,003
885,1	-0,003
885,5	-0,003
885,9	-0,003
886,3	-0,003
886,8	-0,003
887,2	-0,003
887,6	-0,003
888	-0,002
888,5	-0,002
888,9	-0,002
889,3	-0,002
889,8	-0,002
890,2	-0,001
890,6	-0,001
891	-0,001
891,5	-0,001
891,9	-0,001
892,3	-0,002
892,7	-0,002
893,2	-0,002
893,6	-0,002
894	-0,002
894,4	-0,002
894,9	-0,002
895,3	-0,002
895,7	-0,002
896,1	-0,002
896,6	-0,002
897	-0,002
897,4	-0,002
897,8	-0,002
898,3	-0,002
898,7	-0,003
899,1	-0,002
899,5	-0,003
900	-0,003
900,4	-0,003
900,8	-0,003
901,2	-0,003
901,7	-0,002
902,1	-0,002
902,5	-0,002
902,9	-0,002
903,4	-0,002
903,8	-0,002
904,2	-0,003
904,6	-0,003
905,1	-0,003
905,5	-0,003
905,9	-0,003
906,3	-0,003
906,8	-0,003
907,2	-0,002
907,6	-0,002
908	-0,002
908,5	-0,002
908,9	-0,002
909,3	-0,002
909,7	-0,002
910,2	-0,002
910,6	-0,002
911	-0,002
911,4	-0,002
911,9	-0,002
912,3	-0,002
912,7	-0,002
913,1	-0,002
913,6	-0,002
914	-0,002
914,4	-0,002
914,8	-0,003
915,3	-0,003
915,7	-0,003
916,1	-0,003
916,5	-0,003
916,9	-0,002
917,4	-0,002
917,8	-0,002
918,2	-0,002
918,6	-0,002
919,1	-0,002
919,5	-0,002
919,9	-0,003
920,3	-0,002
920,8	-0,002
921,2	-0,003
921,6	-0,002
922	-0,002
922,5	-0,002
922,9	-0,002
923,3	-0,001
923,7	-0,001
924,2	-0,001
924,6	-0,002
925	-0,002
925,4	-0,002
925,8	-0,002
926,3	-0,002
926,7	-0,002
927,1	-0,002
927,5	-0,002
928	-0,002
928,4	-0,002
928,8	-0,002
929,2	-0,002
929,7	-0,003
930,1	-0,003
930,5	-0,003
930,9	-0,003
931,3	-0,003
931,8	-0,003
932,2	-0,002
932,6	-0,002
933	-0,002
933,5	-0,002
933,9	-0,002
934,3	-0,002
934,7	-0,002
935,2	-0,002
935,6	-0,002
936	-0,002
936,4	-0,002
936,8	-0,003
937,3	-0,003
937,7	-0,003
938,1	-0,003
938,5	-0,002
939	-0,003
939,4	-0,003
939,8	-0,002
940,2	-0,002
940,6	-0,002
941,1	-0,002
941,5	-0,002
941,9	-0,002
942,3	-0,002
942,8	-0,002
943,2	-0,002
943,6	-0,002
944	-0,002
944,4	-0,002
944,9	-0,002
945,3	-0,002
945,7	-0,002
946,1	-0,003
946,6	-0,002
947	-0,003
947,4	-0,003
947,8	-0,003
948,2	-0,002
948,7	-0,002
949,1	-0,001
949,5	-0,002
949,9	-0,002
950,3	-0,001
950,8	-0,002
951,2	-0,002
951,6	-0,002
952	-0,002
952,5	-0,002
952,9	-0,001
953,3	-0,001
953,7	-0,002
954,1	-0,001
954,6	-0,001
955	-0,002
955,4	-0,002
955,8	-0,002
956,2	-0,003
956,7	-0,003
957,1	-0,003
957,5	-0,003
957,9	-0,003
958,3	-0,003
958,8	-0,003
959,2	-0,002
959,6	-0,002
960	-0,002
960,5	-0,001
960,9	-0,001
961,3	-0,001
961,7	-0,002
962,1	-0,002
962,6	-0,002
963	-0,002
963,4	-0,002
963,8	-0,003
964,2	-0,004
964,7	-0,004
965,1	-0,004
965,5	-0,003
965,9	-0,003
966,3	-0,003
966,8	-0,002
967,2	-0,002
967,6	-0,001
968	-0,001
968,4	-0,002
968,9	-0,002
969,3	-0,002
969,7	-0,002
970,1	-0,002
970,5	-0,002
971	-0,002
971,4	-0,002
971,8	-0,002
972,2	-0,002
972,6	-0,002
973,1	-0,002
973,5	-0,001
973,9	-0,001
974,3	-0,002
974,7	-0,001
975,2	-0
975,6	-0
976	-0
976,4	-0,001
976,8	-0
977,3	-0,001
977,7	-0,001
978,1	-0,001
978,5	-0,001
978,9	-0,001
979,4	-0,001
979,8	-0,001
980,2	-0,001
980,6	-0
981	-0
981,5	-0,001
981,9	-0,001
982,3	-0,001
982,7	-0,002
983,1	-0,002
983,6	-0,003
984	-0,003
984,4	-0,003
984,8	-0,002
985,2	-0,002
985,6	-0,001
986,1	-0,002
986,5	-0,001
986,9	-0
987,3	-0
987,7	-0
988,2	0
988,6	-0
989	0
989,4	-0,001
989,8	-0,001
990,3	-0,001
990,7	-0,001
991,1	-0,001
991,5	-0,002
991,9	-0,002
992,3	-0,002
992,8	-0,002
993,2	-0,002
993,6	-0,002
994	-0,002
994,4	-0,002
994,9	-0,002
995,3	-0,001
995,7	-0
996,1	-0
996,5	-0
996,9	-0
997,4	-0,001
997,8	-0,001
998,2	-0,002
998,6	-0,003
999	-0,003
999,5	-0,003
999,9	-0,004
1000,3	-0,003
1000,7	-0,003
1001,1	-0,003
1001,5	-0,003
1002	-0,003
1002,4	-0,003
1002,8	-0,003
1003,2	-0,002
1003,6	-0,003
1004	-0,002
1004,5	-0,002
1004,9	-0,002
1005,3	-0,003
1005,7	-0,003
1006,1	-0,003
1006,6	-0,003
1007	-0,003
1007,4	-0,003
1007,8	-0,003
1008,2	-0,002
1008,6	-0,002
1009,1	-0,002
1009,5	-0,002
1009,9	-0,003
1010,3	-0,003
1010,7	-0,003
1011,1	-0,004
1011,6	-0,004
1012	-0,004
1012,4	-0,003
1012,8	-0,003
1013,2	-0,002
1013,6	-0,002
1014,1	-0,002
1014,5	-0,002
1014,9	-0,001
1015,3	-0,002
1015,7	-0,002
1016,1	-0,003
1016,6	-0,003
1017	-0,003
1017,4	-0,003
1017,8	-0,003
1018,2	-0,003
1018,6	-0,003
1019,1	-0,003
1019,5	-0,002
1019,9	-0,002
1020,3	-0,002
1020,7	-0,003
1021,1	-0,002
1021,6	-0,002
1022	-0,002
1022,4	-0,002
1022,8	-0,002
1023,2	-0,003
1023,6	-0,002
1024,1	-0,003
1024,5	-0,002
1024,9	-0,002
1025,3	-0,002
1025,7	-0,002
1026,1	-0,002
1026,6	-0,002
1027	-0,002
1027,4	-0,002
1027,8	-0,003
1028,2	-0,003
1028,6	-0,004
1029	-0,004
1029,5	-0,004
1029,9	-0,003
1030,3	-0,003
1030,7	-0,002
1031,1	-0,003
1031,5	-0,002
1032	-0,002
1032,4	-0,002
1032,8	-0,002
1033,2	-0,002
1033,6	-0,002
1034	-0,002
1034,4	-0,002
1034,9	-0,002
1035,3	-0,003
1035,7	-0,003
1036,1	-0,004
1036,5	-0,005
1036,9	-0,004
1037,4	-0,005
1037,8	-0,004
1038,2	-0,004
1038,6	-0,005
1039	-0,005
1039,4	-0,004
1039,8	-0,004
1040,3	-0,004
1040,7	-0,004
1041,1	-0,004
1041,5	-0,003
1041,9	-0,002
1042,3	-0,002
1042,7	-0,002
1043,2	-0,002
1043,6	-0,001
1044	-0,002
1044,4	-0,002
1044,8	-0,002
1045,2	-0,003
1045,6	-0,003
1046,1	-0,003
1046,5	-0,003
1046,9	-0,003
1047,3	-0,003
1047,7	-0,002
1048,1	-0,002
1048,5	-0,001
1049	-0,001
1049,4	-0
1049,8	-0,001
1050,2	-0,002
1050,6	-0,002
1051	-0,003
1051,4	-0,003
1051,9	-0,003
1052,3	-0,004
1052,7	-0,003
1053,1	-0,003
1053,5	-0,003
1053,9	-0,003
1054,3	-0,003
1054,8	-0,002
1055,2	-0,003
1055,6	-0,003
1056	-0,002
1056,4	-0,002
1056,8	-0,003
1057,2	-0,003
1057,6	-0,004
1058,1	-0,003
1058,5	-0,003
1058,9	-0,004
1059,3	-0,003
1059,7	-0,003
1060,1	-0,003
1060,5	-0,002
1061	-0,002
1061,4	-0,001
1061,8	-0,001
1062,2	-0,001
1062,6	-0,001
1063	-0,001
1063,4	-0,001
1063,8	-0,002
1064,3	-0,003
1064,7	-0,004
1065,1	-0,003
1065,5	-0,003
1065,9	-0,003
1066,3	-0,003
1066,7	-0,003
1067,1	-0,003
1067,6	-0,004
1068	-0,005
1068,4	-0,006
1068,8	-0,005
1069,2	-0,006
1069,6	-0,005
1070	-0,004
1070,4	-0,003
1070,9	-0,003
1071,3	-0,003
1071,7	-0,003
1072,1	-0,003
1072,5	-0,003
1072,9	-0,003
1073,3	-0,004
1073,7	-0,003
1074,2	-0,002
1074,6	-0,003
1075	-0,003
1075,4	-0,004
1075,8	-0,003
1076,2	-0,003
1076,6	-0,004
1077	-0,005
1077,5	-0,003
1077,9	-0,003
1078,3	-0,002
1078,7	-0,002
1079,1	-0,003
1079,5	-0,003
1079,9	-0,004
1080,3	-0,003
1080,7	-0,004
1081,2	-0,005
1081,6	-0,004
1082	-0,003
1082,4	-0,002
1082,8	-0,001
1083,2	-0,002
1083,6	-0
1084	-0,001
1084,5	-0,001
1084,9	-0,001
1085,3	0
1085,7	-0
1086,1	-0
1086,5	0
1086,9	0
1087,3	-0,002
1087,7	-0,005
1088,2	-0,004
1088,6	-0,005
1089	-0,006
1089,4	-0,007
1089,8	-0,007
1090,2	-0,006
1090,6	-0,003
1091	-0,005
1091,4	-0,004
1091,9	-0,002
1092,3	-0,002
1092,7	0,001
1093,1	0
1093,5	0
1093,9	0,002
1094,3	0,001
1094,7	-0,001
1095,1	-0,003
1095,5	-0,009
1096	-0,004
1096,4	-0,005
1096,8	-0,004
1097,2	-0,01
1097,6	-0,007
1098	-0,004
1098,4	0,002
1098,8	-0,001
1099,2	0,005
1099,6	0,006
1100,1	0,012
1100,5	0,006
1100,9	0,005
1101,3	-0,008
1101,7	-0,006
1102,1	-0,01
1102,5	-0,008
1102,9	-0,007
1103,3	-0,002
1103,7	-0,004
1104,2	0,003
1104,6	-0,001
1105	-0,009
1105,4	-0,017
1105,8	-0,026
1106,2	-0,025
1106,6	-0,033
1107	-0,042
1107,4	-0,059
1107,8	-0,09
1108,3	0,097
