Data from Absorbance_00005.txt Node
Date: Thu Aug 24 15:44:43 MSK 2023
User: vat
Spectrometer: MAYP114033
Trigger mode: 0
Integration Time (sec): 8,000000E-3
Scans to average: 10
Electric dark correction enabled: true
Nonlinearity correction enabled: false
Boxcar width: 3
XAxis mode: Wavelengths
Number of Pixels in Spectrum: 2068
>>>>>Begin Spectral Data<<<<<
199,4	-0
199,9	0,469
200,4	0,554
200,8	0,782
201,3	0,858
201,8	0,882
202,2	0,905
202,7	0,937
203,2	0,96
203,6	0,976
204,1	1,006
204,6	1,019
205	1,042
205,5	1,071
206	1,084
206,4	1,107
206,9	1,107
207,4	1,131
207,8	1,153
208,3	1,163
208,8	1,165
209,2	1,18
209,7	1,183
210,2	1,21
210,6	1,216
211,1	1,235
211,5	1,253
212	1,286
212,5	1,305
212,9	1,33
213,4	1,348
213,9	1,353
214,3	1,371
214,8	1,371
215,3	1,357
215,7	1,375
216,2	1,4
216,7	1,418
217,1	1,424
217,6	1,428
218,1	1,453
218,5	1,489
219	1,528
219,5	1,522
219,9	1,541
220,4	1,571
220,9	1,57
221,3	1,574
221,8	1,593
222,3	1,578
222,7	1,605
223,2	1,616
223,6	1,628
224,1	1,664
224,6	1,712
225	1,715
225,5	1,739
226	1,751
226,4	1,772
226,9	1,79
227,4	1,795
227,8	1,777
228,3	1,793
228,8	1,793
229,2	1,795
229,7	1,804
230,2	1,816
230,6	1,827
231,1	1,836
231,5	1,855
232	1,874
232,5	1,894
232,9	1,923
233,4	1,936
233,9	1,951
234,3	1,983
234,8	1,967
235,3	1,984
235,7	1,99
236,2	1,995
236,7	2
237,1	2,011
237,6	2,003
238,1	2,029
238,5	2,035
239	2,054
239,4	2,03
239,9	2,035
240,4	2,013
240,8	2,018
241,3	2,022
241,8	2,025
242,2	2,019
242,7	2,05
243,2	2,054
243,6	2,094
244,1	2,082
244,6	2,082
245	2,081
245,5	2,098
245,9	2,091
246,4	2,098
246,9	2,094
247,3	2,113
247,8	2,122
248,3	2,107
248,7	2,1
249,2	2,091
249,7	2,068
250,1	2,073
250,6	2,088
251	2,076
251,5	2,101
252	2,1
252,4	2,121
252,9	2,152
253,4	2,16
253,8	2,155
254,3	2,142
254,8	2,132
255,2	2,162
255,7	2,151
256,1	2,143
256,6	2,126
257,1	2,131
257,5	2,153
258	2,152
258,5	2,132
258,9	2,136
259,4	2,142
259,9	2,16
260,3	2,159
260,8	2,185
261,2	2,196
261,7	2,19
262,2	2,196
262,6	2,19
263,1	2,184
263,6	2,19
264	2,187
264,5	2,167
264,9	2,187
265,4	2,186
265,9	2,181
266,3	2,169
266,8	2,151
267,3	2,134
267,7	2,143
268,2	2,109
268,7	2,096
269,1	2,108
269,6	2,114
270	2,129
270,5	2,126
271	2,138
271,4	2,148
271,9	2,164
272,4	2,166
272,8	2,162
273,3	2,155
273,7	2,163
274,2	2,148
274,7	2,163
275,1	2,162
275,6	2,13
276,1	2,117
276,5	2,104
277	2,079
277,4	2,077
277,9	2,072
278,4	2,062
278,8	2,063
279,3	2,068
279,8	2,062
280,2	2,058
280,7	2,029
281,1	2,019
281,6	1,996
282,1	1,981
282,5	1,954
283	1,942
283,4	1,919
283,9	1,901
284,4	1,846
284,8	1,788
285,3	1,723
285,8	1,648
286,2	1,562
286,7	1,475
287,1	1,393
287,6	1,31
288,1	1,235
288,5	1,161
289	1,093
289,5	1,03
289,9	0,973
290,4	0,923
290,8	0,879
291,3	0,836
291,8	0,799
292,2	0,767
292,7	0,738
293,1	0,713
293,6	0,69
294,1	0,67
294,5	0,653
295	0,639
295,5	0,626
295,9	0,614
296,4	0,602
296,8	0,593
297,3	0,585
297,8	0,577
298,2	0,571
298,7	0,564
299,1	0,559
299,6	0,554
300,1	0,549
300,5	0,545
301	0,541
301,5	0,537
301,9	0,533
302,4	0,529
302,8	0,526
303,3	0,524
303,8	0,52
304,2	0,516
304,7	0,512
305,1	0,509
305,6	0,505
306,1	0,501
306,5	0,497
307	0,493
307,4	0,491
307,9	0,488
308,4	0,485
308,8	0,482
309,3	0,478
309,8	0,474
310,2	0,471
310,7	0,467
311,1	0,463
311,6	0,459
312,1	0,454
312,5	0,45
313	0,448
313,4	0,444
313,9	0,441
314,4	0,437
314,8	0,433
315,3	0,429
315,7	0,425
316,2	0,421
316,7	0,416
317,1	0,411
317,6	0,407
318	0,403
318,5	0,399
319	0,395
319,4	0,391
319,9	0,387
320,3	0,384
320,8	0,38
321,3	0,376
321,7	0,373
322,2	0,37
322,6	0,365
323,1	0,361
323,6	0,357
324	0,352
324,5	0,348
324,9	0,343
325,4	0,339
325,9	0,334
326,3	0,33
326,8	0,326
327,2	0,322
327,7	0,319
328,2	0,315
328,6	0,311
329,1	0,309
329,5	0,304
330	0,299
330,5	0,295
330,9	0,291
331,4	0,287
331,8	0,284
332,3	0,28
332,8	0,275
333,2	0,272
333,7	0,268
334,1	0,264
334,6	0,26
335,1	0,256
335,5	0,253
336	0,25
336,4	0,246
336,9	0,243
337,4	0,238
337,8	0,235
338,3	0,231
338,7	0,227
339,2	0,222
339,7	0,218
340,1	0,215
340,6	0,211
341	0,207
341,5	0,203
342	0,2
342,4	0,197
342,9	0,193
343,3	0,19
343,8	0,187
344,2	0,183
344,7	0,18
345,2	0,177
345,6	0,174
346,1	0,172
346,5	0,168
347	0,165
347,5	0,161
347,9	0,158
348,4	0,154
348,8	0,151
349,3	0,148
349,8	0,146
350,2	0,143
350,7	0,141
351,1	0,138
351,6	0,136
352	0,133
352,5	0,13
353	0,127
353,4	0,125
353,9	0,122
354,3	0,12
354,8	0,118
355,3	0,116
355,7	0,113
356,2	0,11
356,6	0,108
357,1	0,106
357,5	0,104
358	0,101
358,5	0,099
358,9	0,097
359,4	0,096
359,8	0,094
360,3	0,091
360,8	0,089
361,2	0,088
361,7	0,086
362,1	0,084
362,6	0,082
363	0,08
363,5	0,078
364	0,077
364,4	0,076
364,9	0,074
365,3	0,073
365,8	0,072
366,3	0,072
366,7	0,07
367,2	0,069
367,6	0,067
368,1	0,065
368,5	0,063
369	0,062
369,5	0,06
369,9	0,059
370,4	0,058
370,8	0,056
371,3	0,056
371,7	0,055
372,2	0,054
372,7	0,053
373,1	0,051
373,6	0,05
374	0,05
374,5	0,048
374,9	0,047
375,4	0,045
375,9	0,045
376,3	0,044
376,8	0,043
377,2	0,042
377,7	0,041
378,2	0,039
378,6	0,039
379,1	0,038
379,5	0,037
380	0,037
380,4	0,036
380,9	0,035
381,4	0,035
381,8	0,034
382,3	0,034
382,7	0,033
383,2	0,032
383,6	0,031
384,1	0,031
384,6	0,03
385	0,03
385,5	0,029
385,9	0,029
386,4	0,028
386,8	0,028
387,3	0,028
387,7	0,027
388,2	0,027
388,7	0,026
389,1	0,026
389,6	0,025
390	0,024
390,5	0,024
390,9	0,023
391,4	0,022
391,9	0,021
392,3	0,021
392,8	0,02
393,2	0,019
393,7	0,019
394,1	0,019
394,6	0,018
395,1	0,018
395,5	0,018
396	0,018
396,4	0,018
396,9	0,018
397,3	0,017
397,8	0,017
398,2	0,016
398,7	0,016
399,2	0,015
399,6	0,015
400,1	0,014
400,5	0,014
401	0,014
401,4	0,014
401,9	0,013
402,4	0,012
402,8	0,012
403,3	0,011
403,7	0,011
404,2	0,011
404,6	0,01
405,1	0,01
405,5	0,01
406	0,01
406,5	0,009
406,9	0,009
407,4	0,009
407,8	0,008
408,3	0,008
408,7	0,008
409,2	0,007
409,6	0,007
410,1	0,007
410,6	0,007
411	0,007
411,5	0,007
411,9	0,006
412,4	0,006
412,8	0,006
413,3	0,005
413,7	0,004
414,2	0,004
414,7	0,004
415,1	0,004
415,6	0,005
416	0,004
416,5	0,004
416,9	0,004
417,4	0,004
417,8	0,003
418,3	0,003
418,8	0,003
419,2	0,002
419,7	0,002
420,1	0,001
420,6	0,001
421	0,001
421,5	0,001
421,9	0
422,4	0
422,8	0
423,3	0,001
423,8	0,001
424,2	0
424,7	0,001
425,1	0
425,6	-0
426	-0,001
426,5	-0,001
426,9	-0,002
427,4	-0,002
427,9	-0,002
428,3	-0,002
428,8	-0,002
429,2	-0,003
429,7	-0,003
430,1	-0,003
430,6	-0,003
431	-0,003
431,5	-0,003
431,9	-0,004
432,4	-0,003
432,8	-0,003
433,3	-0,004
433,8	-0,004
434,2	-0,005
434,7	-0,005
435,1	-0,004
435,6	-0,005
436	-0,004
436,5	-0,004
436,9	-0,004
437,4	-0,004
437,8	-0,004
438,3	-0,004
438,8	-0,004
439,2	-0,005
439,7	-0,006
440,1	-0,005
440,6	-0,005
441	-0,005
441,5	-0,006
441,9	-0,006
442,4	-0,006
442,8	-0,005
443,3	-0,006
443,7	-0,006
444,2	-0,007
444,7	-0,006
445,1	-0,006
445,6	-0,007
446	-0,007
446,5	-0,007
446,9	-0,007
447,4	-0,007
447,8	-0,007
448,3	-0,007
448,7	-0,007
449,2	-0,006
449,6	-0,007
450,1	-0,007
450,6	-0,007
451	-0,007
451,5	-0,007
451,9	-0,006
452,4	-0,007
452,8	-0,007
453,3	-0,007
453,7	-0,007
454,2	-0,008
454,6	-0,008
455,1	-0,008
455,5	-0,009
456	-0,008
456,4	-0,008
456,9	-0,007
457,3	-0,007
457,8	-0,006
458,3	-0,007
458,7	-0,006
459,2	-0,007
459,6	-0,007
460,1	-0,007
460,5	-0,007
461	-0,007
461,4	-0,006
461,9	-0,006
462,3	-0,006
462,8	-0,006
463,2	-0,007
463,7	-0,007
464,1	-0,007
464,6	-0,008
465	-0,008
465,5	-0,008
466	-0,008
466,4	-0,008
466,9	-0,008
467,3	-0,008
467,8	-0,008
468,2	-0,008
468,7	-0,008
469,1	-0,008
469,6	-0,008
470	-0,008
470,5	-0,007
470,9	-0,007
471,4	-0,007
471,8	-0,007
472,3	-0,007
472,7	-0,008
473,2	-0,007
473,6	-0,007
474,1	-0,008
474,5	-0,007
475	-0,007
475,4	-0,007
475,9	-0,007
476,4	-0,007
476,8	-0,007
477,3	-0,007
477,7	-0,007
478,2	-0,007
478,6	-0,007
479,1	-0,007
479,5	-0,007
480	-0,006
480,4	-0,006
480,9	-0,006
481,3	-0,006
481,8	-0,006
482,2	-0,007
482,7	-0,007
483,1	-0,007
483,6	-0,007
484	-0,008
484,5	-0,007
484,9	-0,007
485,4	-0,007
485,8	-0,007
486,3	-0,007
486,7	-0,007
487,2	-0,007
487,6	-0,006
488,1	-0,007
488,5	-0,007
489	-0,007
489,4	-0,007
489,9	-0,007
490,4	-0,007
490,8	-0,008
491,3	-0,007
491,7	-0,007
492,2	-0,007
492,6	-0,007
493,1	-0,007
493,5	-0,007
494	-0,007
494,4	-0,008
494,9	-0,008
495,3	-0,008
495,8	-0,008
496,2	-0,008
496,7	-0,008
497,1	-0,008
497,6	-0,007
498	-0,007
498,5	-0,008
498,9	-0,008
499,4	-0,007
499,8	-0,008
500,3	-0,008
500,7	-0,008
501,2	-0,008
501,6	-0,008
502,1	-0,007
502,5	-0,007
503	-0,007
503,4	-0,008
503,9	-0,008
504,3	-0,008
504,8	-0,007
505,2	-0,008
505,7	-0,008
506,1	-0,008
506,6	-0,007
507	-0,007
507,5	-0,007
507,9	-0,007
508,4	-0,007
508,8	-0,007
509,3	-0,007
509,7	-0,006
510,2	-0,006
510,6	-0,006
511,1	-0,006
511,5	-0,006
512	-0,006
512,4	-0,006
512,9	-0,006
513,3	-0,007
513,8	-0,007
514,2	-0,007
514,7	-0,007
515,1	-0,007
515,6	-0,007
516	-0,007
516,5	-0,007
516,9	-0,007
517,4	-0,007
517,8	-0,007
518,3	-0,007
518,7	-0,007
519,2	-0,008
519,6	-0,008
520,1	-0,008
520,5	-0,007
521	-0,007
521,4	-0,007
521,9	-0,007
522,3	-0,007
522,8	-0,006
523,2	-0,006
523,7	-0,006
524,1	-0,006
524,6	-0,006
525	-0,006
525,5	-0,006
525,9	-0,006
526,4	-0,007
526,8	-0,007
527,3	-0,006
527,7	-0,006
528,2	-0,006
528,6	-0,006
529,1	-0,006
529,5	-0,006
530	-0,006
530,4	-0,007
530,9	-0,007
531,3	-0,006
531,8	-0,006
532,2	-0,006
532,6	-0,006
533,1	-0,006
533,5	-0,006
534	-0,006
534,4	-0,007
534,9	-0,007
535,3	-0,007
535,8	-0,006
536,2	-0,006
536,7	-0,006
537,1	-0,006
537,6	-0,006
538	-0,006
538,5	-0,005
538,9	-0,006
539,4	-0,006
539,8	-0,006
540,3	-0,006
540,7	-0,006
541,2	-0,006
541,6	-0,006
542,1	-0,006
542,5	-0,006
543	-0,006
543,4	-0,006
543,9	-0,006
544,3	-0,006
544,8	-0,006
545,2	-0,007
545,7	-0,007
546,1	-0,007
546,5	-0,007
547	-0,007
547,4	-0,008
547,9	-0,007
548,3	-0,007
548,8	-0,007
549,2	-0,007
549,7	-0,007
550,1	-0,007
550,6	-0,007
551	-0,007
551,5	-0,007
551,9	-0,007
552,4	-0,006
552,8	-0,006
553,3	-0,006
553,7	-0,007
554,2	-0,007
554,6	-0,007
555,1	-0,007
555,5	-0,008
555,9	-0,007
556,4	-0,007
556,8	-0,007
557,3	-0,006
557,7	-0,006
558,2	-0,006
558,6	-0,005
559,1	-0,006
559,5	-0,006
560	-0,005
560,4	-0,005
560,9	-0,005
561,3	-0,005
561,8	-0,006
562,2	-0,006
562,7	-0,006
563,1	-0,006
563,6	-0,006
564	-0,007
564,4	-0,007
564,9	-0,007
565,3	-0,007
565,8	-0,007
566,2	-0,007
566,7	-0,007
567,1	-0,007
567,6	-0,007
568	-0,006
568,5	-0,006
568,9	-0,006
569,4	-0,006
569,8	-0,006
570,3	-0,005
570,7	-0,006
571,1	-0,006
571,6	-0,006
572	-0,006
572,5	-0,005
572,9	-0,005
573,4	-0,005
573,8	-0,005
574,3	-0,005
574,7	-0,005
575,2	-0,006
575,6	-0,006
576,1	-0,006
576,5	-0,006
576,9	-0,007
577,4	-0,007
577,8	-0,007
578,3	-0,007
578,7	-0,007
579,2	-0,006
579,6	-0,006
580,1	-0,006
580,5	-0,006
581	-0,006
581,4	-0,006
581,9	-0,006
582,3	-0,006
582,7	-0,006
583,2	-0,007
583,6	-0,006
584,1	-0,006
584,5	-0,006
585	-0,005
585,4	-0,005
585,9	-0,005
586,3	-0,005
586,8	-0,005
587,2	-0,005
587,6	-0,005
588,1	-0,006
588,5	-0,006
589	-0,006
589,4	-0,006
589,9	-0,006
590,3	-0,006
590,8	-0,006
591,2	-0,005
591,7	-0,006
592,1	-0,005
592,5	-0,005
593	-0,005
593,4	-0,005
593,9	-0,005
594,3	-0,005
594,8	-0,005
595,2	-0,005
595,7	-0,005
596,1	-0,005
596,6	-0,005
597	-0,006
597,4	-0,005
597,9	-0,005
598,3	-0,005
598,8	-0,006
599,2	-0,006
599,7	-0,006
600,1	-0,006
600,6	-0,006
601	-0,006
601,4	-0,006
601,9	-0,006
602,3	-0,006
602,8	-0,006
603,2	-0,006
603,7	-0,005
604,1	-0,005
604,6	-0,005
605	-0,005
605,4	-0,005
605,9	-0,005
606,3	-0,004
606,8	-0,005
607,2	-0,004
607,7	-0,004
608,1	-0,004
608,6	-0,004
609	-0,005
609,4	-0,005
609,9	-0,005
610,3	-0,005
610,8	-0,005
611,2	-0,005
611,7	-0,005
612,1	-0,005
612,6	-0,005
613	-0,005
613,4	-0,005
613,9	-0,005
614,3	-0,005
614,8	-0,005
615,2	-0,005
615,7	-0,005
616,1	-0,005
616,6	-0,004
617	-0,005
617,4	-0,005
617,9	-0,005
618,3	-0,005
618,8	-0,005
619,2	-0,005
619,7	-0,006
620,1	-0,006
620,5	-0,006
621	-0,005
621,4	-0,006
621,9	-0,006
622,3	-0,006
622,8	-0,006
623,2	-0,006
623,6	-0,006
624,1	-0,006
624,5	-0,005
625	-0,005
625,4	-0,005
625,9	-0,005
626,3	-0,005
626,8	-0,005
627,2	-0,005
627,6	-0,005
628,1	-0,005
628,5	-0,005
629	-0,005
629,4	-0,005
629,9	-0,005
630,3	-0,006
630,7	-0,006
631,2	-0,006
631,6	-0,006
632,1	-0,006
632,5	-0,005
633	-0,005
633,4	-0,005
633,8	-0,005
634,3	-0,005
634,7	-0,005
635,2	-0,004
635,6	-0,004
636,1	-0,004
636,5	-0,004
636,9	-0,004
637,4	-0,004
637,8	-0,004
638,3	-0,004
638,7	-0,005
639,2	-0,005
639,6	-0,005
640	-0,005
640,5	-0,006
640,9	-0,006
641,4	-0,006
641,8	-0,005
642,2	-0,005
642,7	-0,004
643,1	-0,004
643,6	-0,004
644	-0,004
644,5	-0,004
644,9	-0,004
645,3	-0,005
645,8	-0,004
646,2	-0,004
646,7	-0,004
647,1	-0,004
647,6	-0,004
648	-0,004
648,4	-0,004
648,9	-0,005
649,3	-0,005
649,8	-0,005
650,2	-0,005
650,6	-0,005
651,1	-0,005
651,5	-0,005
652	-0,004
652,4	-0,004
652,9	-0,004
653,3	-0,005
653,7	-0,005
654,2	-0,005
654,6	-0,005
655,1	-0,004
655,5	-0,002
655,9	-0,002
656,4	-0,001
656,8	-0,002
657,3	-0,002
657,7	-0,002
658,2	-0,001
658,6	-0,002
659	-0,003
659,5	-0,005
659,9	-0,005
660,4	-0,005
660,8	-0,005
661,2	-0,005
661,7	-0,004
662,1	-0,004
662,6	-0,004
663	-0,004
663,4	-0,004
663,9	-0,004
664,3	-0,004
664,8	-0,004
665,2	-0,004
665,6	-0,004
666,1	-0,004
666,5	-0,005
667	-0,005
667,4	-0,005
667,9	-0,004
668,3	-0,005
668,7	-0,005
669,2	-0,005
669,6	-0,004
670,1	-0,004
670,5	-0,004
670,9	-0,004
671,4	-0,004
671,8	-0,004
672,3	-0,004
672,7	-0,004
673,1	-0,004
673,6	-0,004
674	-0,004
674,5	-0,004
674,9	-0,003
675,3	-0,003
675,8	-0,003
676,2	-0,003
676,7	-0,003
677,1	-0,003
677,5	-0,003
678	-0,003
678,4	-0,003
678,9	-0,004
679,3	-0,004
679,7	-0,004
680,2	-0,004
680,6	-0,004
681,1	-0,005
681,5	-0,005
681,9	-0,005
682,4	-0,005
682,8	-0,005
683,3	-0,005
683,7	-0,005
684,1	-0,005
684,6	-0,004
685	-0,004
685,5	-0,004
685,9	-0,004
686,3	-0,004
686,8	-0,004
687,2	-0,004
687,7	-0,004
688,1	-0,004
688,5	-0,004
689	-0,004
689,4	-0,004
689,9	-0,004
690,3	-0,004
690,7	-0,004
691,2	-0,004
691,6	-0,004
692	-0,004
692,5	-0,004
692,9	-0,004
693,4	-0,005
693,8	-0,005
694,2	-0,005
694,7	-0,005
695,1	-0,004
695,6	-0,004
696	-0,004
696,4	-0,004
696,9	-0,004
697,3	-0,004
697,8	-0,004
698,2	-0,004
698,6	-0,004
699,1	-0,004
699,5	-0,004
699,9	-0,004
700,4	-0,004
700,8	-0,004
701,3	-0,004
701,7	-0,004
702,1	-0,004
702,6	-0,004
703	-0,004
703,5	-0,004
703,9	-0,004
704,3	-0,004
704,8	-0,004
705,2	-0,004
705,6	-0,003
706,1	-0,004
706,5	-0,004
707	-0,004
707,4	-0,003
707,8	-0,003
708,3	-0,004
708,7	-0,004
709,2	-0,004
709,6	-0,004
710	-0,004
710,5	-0,004
710,9	-0,004
711,3	-0,004
711,8	-0,004
712,2	-0,004
712,7	-0,004
713,1	-0,003
713,5	-0,003
714	-0,003
714,4	-0,003
714,8	-0,004
715,3	-0,004
715,7	-0,004
716,2	-0,004
716,6	-0,004
717	-0,004
717,5	-0,004
717,9	-0,003
718,3	-0,003
718,8	-0,003
719,2	-0,004
719,7	-0,003
720,1	-0,004
720,5	-0,004
721	-0,004
721,4	-0,004
721,8	-0,004
722,3	-0,005
722,7	-0,005
723,2	-0,005
723,6	-0,005
724	-0,004
724,5	-0,004
724,9	-0,004
725,3	-0,004
725,8	-0,004
726,2	-0,005
726,7	-0,005
727,1	-0,004
727,5	-0,004
728	-0,004
728,4	-0,004
728,8	-0,004
729,3	-0,004
729,7	-0,004
730,1	-0,004
730,6	-0,004
731	-0,004
731,5	-0,003
731,9	-0,003
732,3	-0,003
732,8	-0,003
733,2	-0,004
733,6	-0,003
734,1	-0,004
734,5	-0,004
734,9	-0,004
735,4	-0,004
735,8	-0,004
736,3	-0,004
736,7	-0,004
737,1	-0,004
737,6	-0,004
738	-0,004
738,4	-0,004
738,9	-0,004
739,3	-0,003
739,7	-0,004
740,2	-0,004
740,6	-0,004
741,1	-0,004
741,5	-0,004
741,9	-0,004
742,4	-0,004
742,8	-0,004
743,2	-0,004
743,7	-0,004
744,1	-0,004
744,5	-0,004
745	-0,004
745,4	-0,004
745,8	-0,004
746,3	-0,004
746,7	-0,004
747,2	-0,004
747,6	-0,004
748	-0,003
748,5	-0,004
748,9	-0,004
749,3	-0,003
749,8	-0,003
750,2	-0,004
750,6	-0,004
751,1	-0,004
751,5	-0,004
751,9	-0,003
752,4	-0,003
752,8	-0,003
753,3	-0,003
753,7	-0,003
754,1	-0,003
754,6	-0,003
755	-0,003
755,4	-0,003
755,9	-0,003
756,3	-0,003
756,7	-0,003
757,2	-0,003
757,6	-0,003
758	-0,003
758,5	-0,003
758,9	-0,003
759,3	-0,003
759,8	-0,003
760,2	-0,003
760,6	-0,003
761,1	-0,003
761,5	-0,003
761,9	-0,003
762,4	-0,003
762,8	-0,003
763,3	-0,003
763,7	-0,003
764,1	-0,003
764,6	-0,003
765	-0,003
765,4	-0,003
765,9	-0,003
766,3	-0,004
766,7	-0,004
767,2	-0,004
767,6	-0,004
768	-0,004
768,5	-0,004
768,9	-0,004
769,3	-0,004
769,8	-0,004
770,2	-0,004
770,6	-0,003
771,1	-0,003
771,5	-0,003
771,9	-0,003
772,4	-0,003
772,8	-0,004
773,2	-0,004
773,7	-0,004
774,1	-0,004
774,5	-0,004
775	-0,004
775,4	-0,004
775,8	-0,005
776,3	-0,004
776,7	-0,005
777,1	-0,005
777,6	-0,005
778	-0,004
778,4	-0,004
778,9	-0,004
779,3	-0,004
779,7	-0,004
780,2	-0,003
780,6	-0,003
781	-0,003
781,5	-0,003
781,9	-0,004
782,3	-0,003
782,8	-0,003
783,2	-0,003
783,6	-0,003
784,1	-0,003
784,5	-0,003
784,9	-0,003
785,4	-0,003
785,8	-0,003
786,2	-0,003
786,7	-0,003
787,1	-0,003
787,5	-0,003
788	-0,003
788,4	-0,004
788,8	-0,004
789,3	-0,004
789,7	-0,004
790,1	-0,004
790,6	-0,004
791	-0,004
791,4	-0,005
791,9	-0,005
792,3	-0,005
792,7	-0,005
793,2	-0,005
793,6	-0,005
794	-0,005
794,5	-0,005
794,9	-0,005
795,3	-0,004
795,8	-0,004
796,2	-0,004
796,6	-0,004
797,1	-0,005
797,5	-0,004
797,9	-0,004
798,4	-0,005
798,8	-0,004
799,2	-0,004
799,7	-0,004
800,1	-0,004
800,5	-0,004
801	-0,003
801,4	-0,004
801,8	-0,003
802,2	-0,004
802,7	-0,004
803,1	-0,004
803,5	-0,004
804	-0,004
804,4	-0,004
804,8	-0,004
805,3	-0,004
805,7	-0,004
806,1	-0,004
806,6	-0,004
807	-0,004
807,4	-0,003
807,9	-0,003
808,3	-0,003
808,7	-0,003
809,2	-0,003
809,6	-0,003
810	-0,003
810,4	-0,003
810,9	-0,004
811,3	-0,004
811,7	-0,003
812,2	-0,003
812,6	-0,003
813	-0,003
813,5	-0,003
813,9	-0,003
814,3	-0,003
814,8	-0,003
815,2	-0,003
815,6	-0,004
816,1	-0,004
816,5	-0,004
816,9	-0,003
817,3	-0,004
817,8	-0,004
818,2	-0,004
818,6	-0,003
819,1	-0,003
819,5	-0,003
819,9	-0,003
820,4	-0,003
820,8	-0,003
821,2	-0,003
821,7	-0,003
822,1	-0,004
822,5	-0,004
822,9	-0,004
823,4	-0,004
823,8	-0,005
824,2	-0,004
824,7	-0,004
825,1	-0,004
825,5	-0,004
826	-0,004
826,4	-0,004
826,8	-0,004
827,3	-0,004
827,7	-0,004
828,1	-0,004
828,5	-0,004
829	-0,004
829,4	-0,004
829,8	-0,004
830,3	-0,004
830,7	-0,004
831,1	-0,004
831,6	-0,004
832	-0,004
832,4	-0,004
832,8	-0,004
833,3	-0,004
833,7	-0,004
834,1	-0,004
834,6	-0,004
835	-0,004
835,4	-0,004
835,8	-0,004
836,3	-0,004
836,7	-0,004
837,1	-0,004
837,6	-0,004
838	-0,004
838,4	-0,004
838,9	-0,003
839,3	-0,003
839,7	-0,003
840,1	-0,003
840,6	-0,003
841	-0,003
841,4	-0,003
841,9	-0,003
842,3	-0,003
842,7	-0,003
843,1	-0,003
843,6	-0,004
844	-0,004
844,4	-0,004
844,9	-0,004
845,3	-0,004
845,7	-0,004
846,2	-0,004
846,6	-0,004
847	-0,004
847,4	-0,004
847,9	-0,004
848,3	-0,004
848,7	-0,004
849,2	-0,004
849,6	-0,004
850	-0,003
850,4	-0,003
850,9	-0,003
851,3	-0,003
851,7	-0,002
852,2	-0,003
852,6	-0,003
853	-0,003
853,4	-0,003
853,9	-0,003
854,3	-0,003
854,7	-0,003
855,2	-0,003
855,6	-0,003
856	-0,003
856,4	-0,003
856,9	-0,003
857,3	-0,003
857,7	-0,003
858,2	-0,003
858,6	-0,004
859	-0,004
859,4	-0,004
859,9	-0,004
860,3	-0,004
860,7	-0,004
861,1	-0,004
861,6	-0,003
862	-0,003
862,4	-0,003
862,9	-0,003
863,3	-0,003
863,7	-0,003
864,1	-0,003
864,6	-0,003
865	-0,003
865,4	-0,003
865,9	-0,003
866,3	-0,003
866,7	-0,003
867,1	-0,004
867,6	-0,004
868	-0,004
868,4	-0,004
868,8	-0,004
869,3	-0,003
869,7	-0,003
870,1	-0,003
870,6	-0,004
871	-0,004
871,4	-0,004
871,8	-0,004
872,3	-0,004
872,7	-0,004
873,1	-0,003
873,5	-0,003
874	-0,003
874,4	-0,003
874,8	-0,004
875,3	-0,004
875,7	-0,004
876,1	-0,004
876,5	-0,004
877	-0,004
877,4	-0,004
877,8	-0,003
878,2	-0,003
878,7	-0,003
879,1	-0,004
879,5	-0,003
879,9	-0,003
880,4	-0,003
880,8	-0,004
881,2	-0,004
881,7	-0,004
882,1	-0,004
882,5	-0,004
882,9	-0,004
883,4	-0,004
883,8	-0,004
884,2	-0,004
884,6	-0,004
885,1	-0,004
885,5	-0,004
885,9	-0,003
886,3	-0,003
886,8	-0,003
887,2	-0,003
887,6	-0,003
888	-0,004
888,5	-0,003
888,9	-0,003
889,3	-0,003
889,8	-0,003
890,2	-0,003
890,6	-0,003
891	-0,003
891,5	-0,003
891,9	-0,003
892,3	-0,003
892,7	-0,003
893,2	-0,003
893,6	-0,003
894	-0,003
894,4	-0,003
894,9	-0,003
895,3	-0,003
895,7	-0,003
896,1	-0,003
896,6	-0,003
897	-0,003
897,4	-0,003
897,8	-0,003
898,3	-0,003
898,7	-0,004
899,1	-0,004
899,5	-0,004
900	-0,004
900,4	-0,004
900,8	-0,004
901,2	-0,004
901,7	-0,003
902,1	-0,003
902,5	-0,003
902,9	-0,003
903,4	-0,003
903,8	-0,003
904,2	-0,003
904,6	-0,003
905,1	-0,003
905,5	-0,003
905,9	-0,003
906,3	-0,003
906,8	-0,003
907,2	-0,003
907,6	-0,003
908	-0,003
908,5	-0,003
908,9	-0,003
909,3	-0,003
909,7	-0,003
910,2	-0,003
910,6	-0,003
911	-0,003
911,4	-0,003
911,9	-0,003
912,3	-0,003
912,7	-0,003
913,1	-0,003
913,6	-0,003
914	-0,004
914,4	-0,004
914,8	-0,004
915,3	-0,004
915,7	-0,004
916,1	-0,004
916,5	-0,004
916,9	-0,004
917,4	-0,004
917,8	-0,004
918,2	-0,003
918,6	-0,003
919,1	-0,003
919,5	-0,003
919,9	-0,003
920,3	-0,003
920,8	-0,003
921,2	-0,004
921,6	-0,004
922	-0,004
922,5	-0,004
922,9	-0,004
923,3	-0,004
923,7	-0,004
924,2	-0,003
924,6	-0,003
925	-0,003
925,4	-0,003
925,8	-0,004
926,3	-0,004
926,7	-0,004
927,1	-0,004
927,5	-0,004
928	-0,003
928,4	-0,004
928,8	-0,003
929,2	-0,004
929,7	-0,003
930,1	-0,003
930,5	-0,003
930,9	-0,004
931,3	-0,003
931,8	-0,004
932,2	-0,003
932,6	-0,004
933	-0,004
933,5	-0,003
933,9	-0,003
934,3	-0,003
934,7	-0,003
935,2	-0,003
935,6	-0,003
936	-0,003
936,4	-0,003
936,8	-0,003
937,3	-0,003
937,7	-0,003
938,1	-0,003
938,5	-0,003
939	-0,003
939,4	-0,003
939,8	-0,002
940,2	-0,002
940,6	-0,002
941,1	-0,003
941,5	-0,003
941,9	-0,003
942,3	-0,003
942,8	-0,003
943,2	-0,003
943,6	-0,003
944	-0,003
944,4	-0,003
944,9	-0,003
945,3	-0,003
945,7	-0,004
946,1	-0,004
946,6	-0,004
947	-0,004
947,4	-0,004
947,8	-0,004
948,2	-0,004
948,7	-0,004
949,1	-0,004
949,5	-0,004
949,9	-0,004
950,3	-0,004
950,8	-0,004
951,2	-0,004
951,6	-0,004
952	-0,003
952,5	-0,003
952,9	-0,002
953,3	-0,002
953,7	-0,002
954,1	-0,002
954,6	-0,002
955	-0,003
955,4	-0,003
955,8	-0,003
956,2	-0,003
956,7	-0,004
957,1	-0,003
957,5	-0,003
957,9	-0,003
958,3	-0,003
958,8	-0,003
959,2	-0,003
959,6	-0,003
960	-0,003
960,5	-0,002
960,9	-0,002
961,3	-0,002
961,7	-0,002
962,1	-0,002
962,6	-0,002
963	-0,002
963,4	-0,003
963,8	-0,003
964,2	-0,003
964,7	-0,003
965,1	-0,003
965,5	-0,003
965,9	-0,003
966,3	-0,003
966,8	-0,004
967,2	-0,004
967,6	-0,003
968	-0,003
968,4	-0,004
968,9	-0,003
969,3	-0,003
969,7	-0,003
970,1	-0,003
970,5	-0,003
971	-0,003
971,4	-0,003
971,8	-0,004
972,2	-0,004
972,6	-0,004
973,1	-0,004
973,5	-0,004
973,9	-0,005
974,3	-0,005
974,7	-0,004
975,2	-0,003
975,6	-0,003
976	-0,003
976,4	-0,002
976,8	-0,002
977,3	-0,002
977,7	-0,002
978,1	-0,002
978,5	-0,001
978,9	-0,002
979,4	-0,001
979,8	-0,001
980,2	-0,001
980,6	-0,001
981	-0,002
981,5	-0,002
981,9	-0,003
982,3	-0,003
982,7	-0,003
983,1	-0,003
983,6	-0,003
984	-0,003
984,4	-0,003
984,8	-0,003
985,2	-0,003
985,6	-0,002
986,1	-0,002
986,5	-0,002
986,9	-0,002
987,3	-0,002
987,7	-0,002
988,2	-0,002
988,6	-0,002
989	-0,002
989,4	-0,003
989,8	-0,003
990,3	-0,004
990,7	-0,003
991,1	-0,003
991,5	-0,004
991,9	-0,004
992,3	-0,004
992,8	-0,005
993,2	-0,004
993,6	-0,005
994	-0,005
994,4	-0,004
994,9	-0,004
995,3	-0,003
995,7	-0,002
996,1	-0,002
996,5	-0,002
996,9	-0,003
997,4	-0,003
997,8	-0,004
998,2	-0,004
998,6	-0,004
999	-0,005
999,5	-0,005
999,9	-0,004
1000,3	-0,004
1000,7	-0,003
1001,1	-0,004
1001,5	-0,004
1002	-0,004
1002,4	-0,004
1002,8	-0,004
1003,2	-0,004
1003,6	-0,004
1004	-0,004
1004,5	-0,003
1004,9	-0,003
1005,3	-0,003
1005,7	-0,003
1006,1	-0,003
1006,6	-0,003
1007	-0,003
1007,4	-0,003
1007,8	-0,003
1008,2	-0,003
1008,6	-0,003
1009,1	-0,003
1009,5	-0,004
1009,9	-0,004
1010,3	-0,005
1010,7	-0,004
1011,1	-0,004
1011,6	-0,004
1012	-0,005
1012,4	-0,004
1012,8	-0,004
1013,2	-0,003
1013,6	-0,003
1014,1	-0,003
1014,5	-0,003
1014,9	-0,003
1015,3	-0,003
1015,7	-0,003
1016,1	-0,003
1016,6	-0,004
1017	-0,004
1017,4	-0,004
1017,8	-0,003
1018,2	-0,004
1018,6	-0,004
1019,1	-0,004
1019,5	-0,004
1019,9	-0,004
1020,3	-0,004
1020,7	-0,004
1021,1	-0,003
1021,6	-0,004
1022	-0,003
1022,4	-0,004
1022,8	-0,004
1023,2	-0,004
1023,6	-0,004
1024,1	-0,005
1024,5	-0,005
1024,9	-0,004
1025,3	-0,004
1025,7	-0,004
1026,1	-0,004
1026,6	-0,004
1027	-0,004
1027,4	-0,004
1027,8	-0,005
1028,2	-0,005
1028,6	-0,005
1029	-0,005
1029,5	-0,005
1029,9	-0,005
1030,3	-0,004
1030,7	-0,004
1031,1	-0,004
1031,5	-0,003
1032	-0,003
1032,4	-0,003
1032,8	-0,003
1033,2	-0,004
1033,6	-0,004
1034	-0,004
1034,4	-0,004
1034,9	-0,004
1035,3	-0,006
1035,7	-0,006
1036,1	-0,006
1036,5	-0,006
1036,9	-0,007
1037,4	-0,007
1037,8	-0,006
1038,2	-0,005
1038,6	-0,005
1039	-0,004
1039,4	-0,004
1039,8	-0,003
1040,3	-0,003
1040,7	-0,003
1041,1	-0,004
1041,5	-0,004
1041,9	-0,003
1042,3	-0,003
1042,7	-0,003
1043,2	-0,003
1043,6	-0,004
1044	-0,003
1044,4	-0,003
1044,8	-0,004
1045,2	-0,004
1045,6	-0,005
1046,1	-0,004
1046,5	-0,004
1046,9	-0,005
1047,3	-0,004
1047,7	-0,004
1048,1	-0,004
1048,5	-0,004
1049	-0,004
1049,4	-0,004
1049,8	-0,004
1050,2	-0,005
1050,6	-0,005
1051	-0,005
1051,4	-0,005
1051,9	-0,004
1052,3	-0,005
1052,7	-0,004
1053,1	-0,005
1053,5	-0,004
1053,9	-0,004
1054,3	-0,004
1054,8	-0,005
1055,2	-0,005
1055,6	-0,005
1056	-0,005
1056,4	-0,004
1056,8	-0,004
1057,2	-0,005
1057,6	-0,005
1058,1	-0,004
1058,5	-0,005
1058,9	-0,004
1059,3	-0,004
1059,7	-0,003
1060,1	-0,003
1060,5	-0,002
1061	-0,002
1061,4	-0,001
1061,8	-0,002
1062,2	-0,002
1062,6	-0,003
1063	-0,003
1063,4	-0,004
1063,8	-0,005
1064,3	-0,006
1064,7	-0,006
1065,1	-0,005
1065,5	-0,005
1065,9	-0,005
1066,3	-0,004
1066,7	-0,004
1067,1	-0,004
1067,6	-0,005
1068	-0,005
1068,4	-0,006
1068,8	-0,007
1069,2	-0,007
1069,6	-0,007
1070	-0,007
1070,4	-0,007
1070,9	-0,006
1071,3	-0,005
1071,7	-0,004
1072,1	-0,004
1072,5	-0,004
1072,9	-0,003
1073,3	-0,003
1073,7	-0,003
1074,2	-0,002
1074,6	-0,003
1075	-0,004
1075,4	-0,004
1075,8	-0,005
1076,2	-0,004
1076,6	-0,005
1077	-0,006
1077,5	-0,004
1077,9	-0,004
1078,3	-0,003
1078,7	-0,003
1079,1	-0,003
1079,5	-0,004
1079,9	-0,003
1080,3	-0,003
1080,7	-0,002
1081,2	-0,004
1081,6	-0,003
1082	-0,003
1082,4	-0,002
1082,8	-0,003
1083,2	-0,004
1083,6	-0,004
1084	-0,003
1084,5	-0,005
1084,9	-0,003
1085,3	-0,003
1085,7	-0,001
1086,1	-0,001
1086,5	-0,001
1086,9	-0
1087,3	-0
1087,7	-0,003
1088,2	-0,004
1088,6	-0,004
1089	-0,005
1089,4	-0,006
1089,8	-0,006
1090,2	-0,007
1090,6	-0,005
1091	-0,008
1091,4	-0,007
1091,9	-0,007
1092,3	-0,006
1092,7	-0,006
1093,1	-0,006
1093,5	-0,005
1093,9	-0,004
1094,3	-0,008
1094,7	-0,008
1095,1	-0,009
1095,5	-0,01
1096	-0,007
1096,4	-0,01
1096,8	-0,009
1097,2	-0,01
1097,6	-0,005
1098	-0,004
1098,4	0,001
1098,8	0,004
1099,2	0,006
1099,6	0,009
1100,1	0,006
1100,5	0
1100,9	-0,002
1101,3	-0,015
1101,7	-0,024
1102,1	-0,023
1102,5	-0,026
1102,9	-0,016
1103,3	-0,011
1103,7	-0,01
1104,2	0,003
1104,6	0,016
1105	0,013
1105,4	0,012
1105,8	0,014
1106,2	0,013
1106,6	0,016
1107	0,002
1107,4	-0,03
1107,8	-0,068
1108,3	0,344
