Data from Absorbance_00007.txt Node
Date: Thu Aug 24 15:47:11 MSK 2023
User: vat
Spectrometer: MAYP114033
Trigger mode: 0
Integration Time (sec): 8,000000E-3
Scans to average: 10
Electric dark correction enabled: true
Nonlinearity correction enabled: false
Boxcar width: 3
XAxis mode: Wavelengths
Number of Pixels in Spectrum: 2068
>>>>>Begin Spectral Data<<<<<
199,4	-0
199,9	0,622
200,4	0,835
200,8	0,869
201,3	0,86
201,8	0,889
202,2	0,914
202,7	0,958
203,2	0,976
203,6	0,985
204,1	1,007
204,6	1,048
205	1,05
205,5	1,081
206	1,082
206,4	1,099
206,9	1,098
207,4	1,126
207,8	1,135
208,3	1,159
208,8	1,173
209,2	1,189
209,7	1,194
210,2	1,216
210,6	1,21
211,1	1,217
211,5	1,233
212	1,231
212,5	1,255
212,9	1,283
213,4	1,304
213,9	1,328
214,3	1,361
214,8	1,371
215,3	1,383
215,7	1,4
216,2	1,414
216,7	1,419
217,1	1,428
217,6	1,438
218,1	1,468
218,5	1,503
219	1,525
219,5	1,548
219,9	1,587
220,4	1,609
220,9	1,611
221,3	1,597
221,8	1,615
222,3	1,61
222,7	1,61
223,2	1,621
223,6	1,631
224,1	1,635
224,6	1,671
225	1,661
225,5	1,68
226	1,697
226,4	1,706
226,9	1,737
227,4	1,771
227,8	1,769
228,3	1,799
228,8	1,798
229,2	1,813
229,7	1,831
230,2	1,832
230,6	1,85
231,1	1,861
231,5	1,866
232	1,899
232,5	1,908
232,9	1,921
233,4	1,939
233,9	1,94
234,3	1,977
234,8	1,974
235,3	1,977
235,7	1,994
236,2	2,016
236,7	2,018
237,1	2,035
237,6	2,034
238,1	2,065
238,5	2,073
239	2,073
239,4	2,064
239,9	2,083
240,4	2,074
240,8	2,064
241,3	2,079
241,8	2,084
242,2	2,095
242,7	2,11
243,2	2,086
243,6	2,096
244,1	2,099
244,6	2,096
245	2,097
245,5	2,097
245,9	2,1
246,4	2,137
246,9	2,13
247,3	2,157
247,8	2,151
248,3	2,145
248,7	2,15
249,2	2,157
249,7	2,145
250,1	2,16
250,6	2,153
251	2,148
251,5	2,18
252	2,17
252,4	2,154
252,9	2,164
253,4	2,162
253,8	2,157
254,3	2,149
254,8	2,133
255,2	2,146
255,7	2,144
256,1	2,137
256,6	2,139
257,1	2,15
257,5	2,16
258	2,154
258,5	2,162
258,9	2,184
259,4	2,171
259,9	2,17
260,3	2,167
260,8	2,166
261,2	2,181
261,7	2,174
262,2	2,152
262,6	2,169
263,1	2,175
263,6	2,189
264	2,212
264,5	2,217
264,9	2,213
265,4	2,222
265,9	2,199
266,3	2,208
266,8	2,189
267,3	2,179
267,7	2,168
268,2	2,173
268,7	2,171
269,1	2,197
269,6	2,177
270	2,216
270,5	2,213
271	2,224
271,4	2,213
271,9	2,215
272,4	2,197
272,8	2,192
273,3	2,174
273,7	2,2
274,2	2,182
274,7	2,194
275,1	2,224
275,6	2,231
276,1	2,246
276,5	2,214
277	2,183
277,4	2,212
277,9	2,22
278,4	2,202
278,8	2,209
279,3	2,223
279,8	2,219
280,2	2,222
280,7	2,195
281,1	2,202
281,6	2,192
282,1	2,193
282,5	2,163
283	2,18
283,4	2,191
283,9	2,189
284,4	2,151
284,8	2,133
285,3	2,103
285,8	2,088
286,2	2,049
286,7	1,997
287,1	1,963
287,6	1,904
288,1	1,844
288,5	1,773
289	1,704
289,5	1,631
289,9	1,556
290,4	1,486
290,8	1,426
291,3	1,366
291,8	1,314
292,2	1,262
292,7	1,218
293,1	1,179
293,6	1,142
294,1	1,11
294,5	1,083
295	1,058
295,5	1,038
295,9	1,019
296,4	1,002
296,8	0,988
297,3	0,973
297,8	0,961
298,2	0,949
298,7	0,938
299,1	0,928
299,6	0,921
300,1	0,913
300,5	0,908
301	0,901
301,5	0,894
301,9	0,888
302,4	0,883
302,8	0,876
303,3	0,869
303,8	0,862
304,2	0,856
304,7	0,85
305,1	0,844
305,6	0,838
306,1	0,832
306,5	0,827
307	0,823
307,4	0,817
307,9	0,812
308,4	0,805
308,8	0,8
309,3	0,793
309,8	0,787
310,2	0,781
310,7	0,773
311,1	0,766
311,6	0,76
312,1	0,753
312,5	0,747
313	0,742
313,4	0,735
313,9	0,731
314,4	0,725
314,8	0,718
315,3	0,711
315,7	0,705
316,2	0,698
316,7	0,692
317,1	0,684
317,6	0,678
318	0,673
318,5	0,667
319	0,66
319,4	0,655
319,9	0,647
320,3	0,641
320,8	0,634
321,3	0,628
321,7	0,62
322,2	0,614
322,6	0,607
323,1	0,6
323,6	0,593
324	0,586
324,5	0,58
324,9	0,573
325,4	0,566
325,9	0,559
326,3	0,552
326,8	0,546
327,2	0,539
327,7	0,532
328,2	0,526
328,6	0,519
329,1	0,512
329,5	0,506
330	0,5
330,5	0,493
330,9	0,486
331,4	0,479
331,8	0,473
332,3	0,467
332,8	0,46
333,2	0,454
333,7	0,447
334,1	0,441
334,6	0,435
335,1	0,428
335,5	0,423
336	0,416
336,4	0,409
336,9	0,403
337,4	0,397
337,8	0,39
338,3	0,385
338,7	0,378
339,2	0,371
339,7	0,365
340,1	0,358
340,6	0,352
341	0,346
341,5	0,339
342	0,334
342,4	0,329
342,9	0,323
343,3	0,318
343,8	0,312
344,2	0,307
344,7	0,303
345,2	0,297
345,6	0,292
346,1	0,287
346,5	0,282
347	0,276
347,5	0,271
347,9	0,266
348,4	0,26
348,8	0,255
349,3	0,25
349,8	0,245
350,2	0,241
350,7	0,236
351,1	0,232
351,6	0,228
352	0,224
352,5	0,219
353	0,215
353,4	0,212
353,9	0,208
354,3	0,203
354,8	0,199
355,3	0,195
355,7	0,191
356,2	0,187
356,6	0,183
357,1	0,179
357,5	0,176
358	0,173
358,5	0,169
358,9	0,166
359,4	0,162
359,8	0,159
360,3	0,155
360,8	0,152
361,2	0,149
361,7	0,146
362,1	0,142
362,6	0,139
363	0,137
363,5	0,134
364	0,131
364,4	0,129
364,9	0,126
365,3	0,124
365,8	0,122
366,3	0,12
366,7	0,118
367,2	0,116
367,6	0,113
368,1	0,111
368,5	0,109
369	0,106
369,5	0,104
369,9	0,102
370,4	0,099
370,8	0,097
371,3	0,096
371,7	0,094
372,2	0,093
372,7	0,091
373,1	0,089
373,6	0,088
374	0,086
374,5	0,084
374,9	0,081
375,4	0,079
375,9	0,077
376,3	0,076
376,8	0,074
377,2	0,074
377,7	0,072
378,2	0,071
378,6	0,07
379,1	0,069
379,5	0,068
380	0,068
380,4	0,067
380,9	0,065
381,4	0,064
381,8	0,062
382,3	0,061
382,7	0,059
383,2	0,057
383,6	0,056
384,1	0,054
384,6	0,053
385	0,052
385,5	0,051
385,9	0,049
386,4	0,049
386,8	0,048
387,3	0,047
387,7	0,047
388,2	0,046
388,7	0,045
389,1	0,045
389,6	0,045
390	0,043
390,5	0,042
390,9	0,041
391,4	0,04
391,9	0,039
392,3	0,038
392,8	0,037
393,2	0,037
393,7	0,037
394,1	0,036
394,6	0,035
395,1	0,035
395,5	0,034
396	0,033
396,4	0,033
396,9	0,032
397,3	0,031
397,8	0,03
398,2	0,029
398,7	0,028
399,2	0,027
399,6	0,027
400,1	0,026
400,5	0,025
401	0,025
401,4	0,025
401,9	0,025
402,4	0,024
402,8	0,024
403,3	0,024
403,7	0,024
404,2	0,023
404,6	0,023
405,1	0,022
405,5	0,021
406	0,021
406,5	0,019
406,9	0,019
407,4	0,018
407,8	0,018
408,3	0,017
408,7	0,017
409,2	0,016
409,6	0,015
410,1	0,015
410,6	0,014
411	0,014
411,5	0,014
411,9	0,013
412,4	0,012
412,8	0,012
413,3	0,012
413,7	0,011
414,2	0,011
414,7	0,01
415,1	0,01
415,6	0,01
416	0,009
416,5	0,009
416,9	0,009
417,4	0,008
417,8	0,008
418,3	0,008
418,8	0,007
419,2	0,007
419,7	0,006
420,1	0,006
420,6	0,005
421	0,005
421,5	0,005
421,9	0,004
422,4	0,004
422,8	0,004
423,3	0,004
423,8	0,004
424,2	0,003
424,7	0,002
425,1	0,003
425,6	0,002
426	0,002
426,5	0,001
426,9	0
427,4	0
427,9	0
428,3	-0,001
428,8	-0,001
429,2	-0,001
429,7	-0,001
430,1	-0,001
430,6	-0,001
431	-0,002
431,5	-0,002
431,9	-0,002
432,4	-0,003
432,8	-0,003
433,3	-0,004
433,8	-0,004
434,2	-0,004
434,7	-0,004
435,1	-0,004
435,6	-0,005
436	-0,005
436,5	-0,005
436,9	-0,005
437,4	-0,005
437,8	-0,005
438,3	-0,005
438,8	-0,005
439,2	-0,005
439,7	-0,006
440,1	-0,006
440,6	-0,006
441	-0,006
441,5	-0,006
441,9	-0,005
442,4	-0,006
442,8	-0,006
443,3	-0,006
443,7	-0,007
444,2	-0,007
444,7	-0,008
445,1	-0,009
445,6	-0,009
446	-0,009
446,5	-0,009
446,9	-0,009
447,4	-0,008
447,8	-0,007
448,3	-0,007
448,7	-0,007
449,2	-0,007
449,6	-0,007
450,1	-0,008
450,6	-0,008
451	-0,008
451,5	-0,008
451,9	-0,009
452,4	-0,009
452,8	-0,009
453,3	-0,009
453,7	-0,009
454,2	-0,009
454,6	-0,01
455,1	-0,009
455,5	-0,009
456	-0,009
456,4	-0,009
456,9	-0,009
457,3	-0,009
457,8	-0,009
458,3	-0,009
458,7	-0,009
459,2	-0,01
459,6	-0,01
460,1	-0,01
460,5	-0,01
461	-0,01
461,4	-0,009
461,9	-0,009
462,3	-0,008
462,8	-0,009
463,2	-0,009
463,7	-0,009
464,1	-0,009
464,6	-0,009
465	-0,01
465,5	-0,01
466	-0,01
466,4	-0,01
466,9	-0,01
467,3	-0,011
467,8	-0,011
468,2	-0,011
468,7	-0,011
469,1	-0,011
469,6	-0,011
470	-0,011
470,5	-0,011
470,9	-0,01
471,4	-0,01
471,8	-0,01
472,3	-0,01
472,7	-0,01
473,2	-0,009
473,6	-0,009
474,1	-0,01
474,5	-0,01
475	-0,01
475,4	-0,01
475,9	-0,01
476,4	-0,011
476,8	-0,011
477,3	-0,011
477,7	-0,01
478,2	-0,01
478,6	-0,01
479,1	-0,01
479,5	-0,01
480	-0,009
480,4	-0,009
480,9	-0,01
481,3	-0,01
481,8	-0,01
482,2	-0,009
482,7	-0,01
483,1	-0,01
483,6	-0,01
484	-0,01
484,5	-0,01
484,9	-0,01
485,4	-0,01
485,8	-0,009
486,3	-0,009
486,7	-0,009
487,2	-0,009
487,6	-0,009
488,1	-0,009
488,5	-0,009
489	-0,009
489,4	-0,01
489,9	-0,009
490,4	-0,009
490,8	-0,009
491,3	-0,009
491,7	-0,009
492,2	-0,009
492,6	-0,009
493,1	-0,009
493,5	-0,009
494	-0,01
494,4	-0,01
494,9	-0,011
495,3	-0,011
495,8	-0,01
496,2	-0,01
496,7	-0,011
497,1	-0,01
497,6	-0,009
498	-0,009
498,5	-0,009
498,9	-0,01
499,4	-0,009
499,8	-0,009
500,3	-0,01
500,7	-0,01
501,2	-0,01
501,6	-0,01
502,1	-0,011
502,5	-0,011
503	-0,011
503,4	-0,011
503,9	-0,011
504,3	-0,011
504,8	-0,01
505,2	-0,01
505,7	-0,01
506,1	-0,01
506,6	-0,01
507	-0,01
507,5	-0,009
507,9	-0,01
508,4	-0,01
508,8	-0,01
509,3	-0,01
509,7	-0,009
510,2	-0,01
510,6	-0,01
511,1	-0,01
511,5	-0,01
512	-0,011
512,4	-0,01
512,9	-0,01
513,3	-0,01
513,8	-0,01
514,2	-0,01
514,7	-0,01
515,1	-0,009
515,6	-0,01
516	-0,009
516,5	-0,009
516,9	-0,009
517,4	-0,009
517,8	-0,008
518,3	-0,009
518,7	-0,009
519,2	-0,01
519,6	-0,01
520,1	-0,01
520,5	-0,01
521	-0,01
521,4	-0,01
521,9	-0,01
522,3	-0,01
522,8	-0,009
523,2	-0,009
523,7	-0,009
524,1	-0,008
524,6	-0,008
525	-0,009
525,5	-0,008
525,9	-0,008
526,4	-0,008
526,8	-0,008
527,3	-0,008
527,7	-0,007
528,2	-0,007
528,6	-0,006
529,1	-0,007
529,5	-0,008
530	-0,007
530,4	-0,008
530,9	-0,009
531,3	-0,009
531,8	-0,009
532,2	-0,009
532,6	-0,008
533,1	-0,009
533,5	-0,008
534	-0,008
534,4	-0,008
534,9	-0,009
535,3	-0,009
535,8	-0,009
536,2	-0,009
536,7	-0,009
537,1	-0,009
537,6	-0,009
538	-0,009
538,5	-0,009
538,9	-0,009
539,4	-0,009
539,8	-0,009
540,3	-0,009
540,7	-0,009
541,2	-0,009
541,6	-0,009
542,1	-0,008
542,5	-0,008
543	-0,008
543,4	-0,008
543,9	-0,008
544,3	-0,007
544,8	-0,008
545,2	-0,009
545,7	-0,009
546,1	-0,009
546,5	-0,009
547	-0,009
547,4	-0,009
547,9	-0,009
548,3	-0,009
548,8	-0,009
549,2	-0,009
549,7	-0,008
550,1	-0,009
550,6	-0,008
551	-0,008
551,5	-0,008
551,9	-0,007
552,4	-0,007
552,8	-0,008
553,3	-0,008
553,7	-0,008
554,2	-0,008
554,6	-0,008
555,1	-0,009
555,5	-0,009
555,9	-0,008
556,4	-0,008
556,8	-0,008
557,3	-0,008
557,7	-0,008
558,2	-0,008
558,6	-0,007
559,1	-0,007
559,5	-0,008
560	-0,008
560,4	-0,008
560,9	-0,008
561,3	-0,008
561,8	-0,008
562,2	-0,008
562,7	-0,007
563,1	-0,008
563,6	-0,007
564	-0,007
564,4	-0,008
564,9	-0,008
565,3	-0,008
565,8	-0,008
566,2	-0,008
566,7	-0,009
567,1	-0,009
567,6	-0,009
568	-0,008
568,5	-0,008
568,9	-0,008
569,4	-0,008
569,8	-0,008
570,3	-0,007
570,7	-0,008
571,1	-0,008
571,6	-0,008
572	-0,008
572,5	-0,007
572,9	-0,007
573,4	-0,007
573,8	-0,007
574,3	-0,007
574,7	-0,007
575,2	-0,008
575,6	-0,008
576,1	-0,008
576,5	-0,008
576,9	-0,007
577,4	-0,007
577,8	-0,007
578,3	-0,008
578,7	-0,008
579,2	-0,007
579,6	-0,007
580,1	-0,007
580,5	-0,007
581	-0,007
581,4	-0,007
581,9	-0,007
582,3	-0,007
582,7	-0,008
583,2	-0,008
583,6	-0,008
584,1	-0,007
584,5	-0,007
585	-0,007
585,4	-0,007
585,9	-0,007
586,3	-0,007
586,8	-0,007
587,2	-0,007
587,6	-0,007
588,1	-0,007
588,5	-0,007
589	-0,007
589,4	-0,007
589,9	-0,007
590,3	-0,007
590,8	-0,007
591,2	-0,007
591,7	-0,007
592,1	-0,007
592,5	-0,007
593	-0,007
593,4	-0,007
593,9	-0,007
594,3	-0,007
594,8	-0,007
595,2	-0,007
595,7	-0,007
596,1	-0,007
596,6	-0,006
597	-0,006
597,4	-0,006
597,9	-0,007
598,3	-0,007
598,8	-0,007
599,2	-0,007
599,7	-0,007
600,1	-0,008
600,6	-0,008
601	-0,008
601,4	-0,008
601,9	-0,007
602,3	-0,007
602,8	-0,007
603,2	-0,007
603,7	-0,007
604,1	-0,007
604,6	-0,007
605	-0,007
605,4	-0,007
605,9	-0,007
606,3	-0,007
606,8	-0,007
607,2	-0,006
607,7	-0,007
608,1	-0,007
608,6	-0,007
609	-0,007
609,4	-0,007
609,9	-0,007
610,3	-0,007
610,8	-0,007
611,2	-0,007
611,7	-0,006
612,1	-0,006
612,6	-0,006
613	-0,006
613,4	-0,006
613,9	-0,006
614,3	-0,006
614,8	-0,006
615,2	-0,006
615,7	-0,006
616,1	-0,006
616,6	-0,007
617	-0,006
617,4	-0,007
617,9	-0,007
618,3	-0,007
618,8	-0,007
619,2	-0,006
619,7	-0,007
620,1	-0,007
620,5	-0,007
621	-0,007
621,4	-0,007
621,9	-0,007
622,3	-0,007
622,8	-0,007
623,2	-0,007
623,6	-0,007
624,1	-0,007
624,5	-0,007
625	-0,007
625,4	-0,007
625,9	-0,007
626,3	-0,006
626,8	-0,006
627,2	-0,006
627,6	-0,006
628,1	-0,006
628,5	-0,006
629	-0,006
629,4	-0,007
629,9	-0,007
630,3	-0,007
630,7	-0,007
631,2	-0,008
631,6	-0,008
632,1	-0,007
632,5	-0,007
633	-0,007
633,4	-0,007
633,8	-0,007
634,3	-0,007
634,7	-0,007
635,2	-0,007
635,6	-0,007
636,1	-0,006
636,5	-0,006
636,9	-0,006
637,4	-0,006
637,8	-0,006
638,3	-0,006
638,7	-0,006
639,2	-0,006
639,6	-0,006
640	-0,006
640,5	-0,007
640,9	-0,006
641,4	-0,006
641,8	-0,006
642,2	-0,006
642,7	-0,006
643,1	-0,006
643,6	-0,006
644	-0,006
644,5	-0,006
644,9	-0,006
645,3	-0,007
645,8	-0,007
646,2	-0,007
646,7	-0,006
647,1	-0,006
647,6	-0,006
648	-0,006
648,4	-0,006
648,9	-0,006
649,3	-0,006
649,8	-0,006
650,2	-0,006
650,6	-0,006
651,1	-0,006
651,5	-0,006
652	-0,006
652,4	-0,006
652,9	-0,006
653,3	-0,006
653,7	-0,006
654,2	-0,007
654,6	-0,006
655,1	-0,006
655,5	-0,004
655,9	-0,002
656,4	-0,002
656,8	-0,002
657,3	-0,002
657,7	-0,002
658,2	-0,001
658,6	-0,002
659	-0,003
659,5	-0,006
659,9	-0,006
660,4	-0,006
660,8	-0,007
661,2	-0,006
661,7	-0,006
662,1	-0,006
662,6	-0,006
663	-0,006
663,4	-0,006
663,9	-0,006
664,3	-0,007
664,8	-0,007
665,2	-0,007
665,6	-0,006
666,1	-0,006
666,5	-0,006
667	-0,006
667,4	-0,006
667,9	-0,006
668,3	-0,006
668,7	-0,006
669,2	-0,006
669,6	-0,006
670,1	-0,006
670,5	-0,006
670,9	-0,006
671,4	-0,005
671,8	-0,006
672,3	-0,006
672,7	-0,006
673,1	-0,006
673,6	-0,006
674	-0,006
674,5	-0,006
674,9	-0,006
675,3	-0,005
675,8	-0,005
676,2	-0,005
676,7	-0,005
677,1	-0,005
677,5	-0,005
678	-0,005
678,4	-0,005
678,9	-0,005
679,3	-0,005
679,7	-0,005
680,2	-0,005
680,6	-0,005
681,1	-0,006
681,5	-0,006
681,9	-0,006
682,4	-0,006
682,8	-0,006
683,3	-0,006
683,7	-0,006
684,1	-0,006
684,6	-0,007
685	-0,007
685,5	-0,007
685,9	-0,007
686,3	-0,007
686,8	-0,007
687,2	-0,007
687,7	-0,007
688,1	-0,007
688,5	-0,006
689	-0,007
689,4	-0,006
689,9	-0,006
690,3	-0,006
690,7	-0,006
691,2	-0,006
691,6	-0,006
692	-0,006
692,5	-0,006
692,9	-0,006
693,4	-0,006
693,8	-0,006
694,2	-0,006
694,7	-0,006
695,1	-0,006
695,6	-0,006
696	-0,006
696,4	-0,006
696,9	-0,006
697,3	-0,006
697,8	-0,006
698,2	-0,005
698,6	-0,006
699,1	-0,006
699,5	-0,006
699,9	-0,006
700,4	-0,006
700,8	-0,006
701,3	-0,006
701,7	-0,007
702,1	-0,006
702,6	-0,006
703	-0,006
703,5	-0,006
703,9	-0,005
704,3	-0,005
704,8	-0,005
705,2	-0,005
705,6	-0,005
706,1	-0,005
706,5	-0,005
707	-0,005
707,4	-0,005
707,8	-0,005
708,3	-0,005
708,7	-0,005
709,2	-0,005
709,6	-0,005
710	-0,004
710,5	-0,004
710,9	-0,004
711,3	-0,004
711,8	-0,004
712,2	-0,004
712,7	-0,004
713,1	-0,005
713,5	-0,005
714	-0,004
714,4	-0,005
714,8	-0,005
715,3	-0,005
715,7	-0,005
716,2	-0,005
716,6	-0,005
717	-0,005
717,5	-0,005
717,9	-0,005
718,3	-0,006
718,8	-0,006
719,2	-0,006
719,7	-0,006
720,1	-0,007
720,5	-0,007
721	-0,007
721,4	-0,007
721,8	-0,007
722,3	-0,007
722,7	-0,007
723,2	-0,006
723,6	-0,006
724	-0,006
724,5	-0,006
724,9	-0,006
725,3	-0,006
725,8	-0,006
726,2	-0,006
726,7	-0,006
727,1	-0,006
727,5	-0,006
728	-0,006
728,4	-0,006
728,8	-0,006
729,3	-0,006
729,7	-0,006
730,1	-0,006
730,6	-0,006
731	-0,006
731,5	-0,006
731,9	-0,005
732,3	-0,005
732,8	-0,005
733,2	-0,005
733,6	-0,005
734,1	-0,006
734,5	-0,006
734,9	-0,006
735,4	-0,006
735,8	-0,006
736,3	-0,006
736,7	-0,006
737,1	-0,006
737,6	-0,006
738	-0,006
738,4	-0,006
738,9	-0,005
739,3	-0,006
739,7	-0,005
740,2	-0,006
740,6	-0,006
741,1	-0,006
741,5	-0,006
741,9	-0,005
742,4	-0,005
742,8	-0,005
743,2	-0,005
743,7	-0,005
744,1	-0,005
744,5	-0,005
745	-0,006
745,4	-0,005
745,8	-0,005
746,3	-0,005
746,7	-0,005
747,2	-0,005
747,6	-0,005
748	-0,005
748,5	-0,006
748,9	-0,006
749,3	-0,005
749,8	-0,006
750,2	-0,005
750,6	-0,005
751,1	-0,005
751,5	-0,005
751,9	-0,005
752,4	-0,005
752,8	-0,005
753,3	-0,005
753,7	-0,005
754,1	-0,005
754,6	-0,005
755	-0,005
755,4	-0,005
755,9	-0,005
756,3	-0,005
756,7	-0,004
757,2	-0,005
757,6	-0,005
758	-0,005
758,5	-0,005
758,9	-0,005
759,3	-0,006
759,8	-0,005
760,2	-0,005
760,6	-0,005
761,1	-0,005
761,5	-0,005
761,9	-0,005
762,4	-0,004
762,8	-0,004
763,3	-0,005
763,7	-0,005
764,1	-0,004
764,6	-0,005
765	-0,005
765,4	-0,005
765,9	-0,005
766,3	-0,005
766,7	-0,005
767,2	-0,005
767,6	-0,005
768	-0,005
768,5	-0,006
768,9	-0,005
769,3	-0,005
769,8	-0,006
770,2	-0,005
770,6	-0,005
771,1	-0,005
771,5	-0,005
771,9	-0,005
772,4	-0,005
772,8	-0,005
773,2	-0,005
773,7	-0,005
774,1	-0,006
774,5	-0,006
775	-0,006
775,4	-0,006
775,8	-0,006
776,3	-0,006
776,7	-0,006
777,1	-0,006
777,6	-0,006
778	-0,006
778,4	-0,006
778,9	-0,006
779,3	-0,006
779,7	-0,006
780,2	-0,005
780,6	-0,006
781	-0,006
781,5	-0,005
781,9	-0,005
782,3	-0,005
782,8	-0,005
783,2	-0,005
783,6	-0,005
784,1	-0,004
784,5	-0,004
784,9	-0,004
785,4	-0,004
785,8	-0,005
786,2	-0,005
786,7	-0,004
787,1	-0,005
787,5	-0,005
788	-0,005
788,4	-0,005
788,8	-0,005
789,3	-0,005
789,7	-0,005
790,1	-0,005
790,6	-0,005
791	-0,005
791,4	-0,006
791,9	-0,006
792,3	-0,006
792,7	-0,006
793,2	-0,006
793,6	-0,006
794	-0,006
794,5	-0,006
794,9	-0,005
795,3	-0,005
795,8	-0,005
796,2	-0,005
796,6	-0,005
797,1	-0,005
797,5	-0,005
797,9	-0,005
798,4	-0,005
798,8	-0,006
799,2	-0,006
799,7	-0,005
800,1	-0,006
800,5	-0,005
801	-0,005
801,4	-0,005
801,8	-0,005
802,2	-0,005
802,7	-0,005
803,1	-0,005
803,5	-0,005
804	-0,005
804,4	-0,005
804,8	-0,005
805,3	-0,006
805,7	-0,006
806,1	-0,005
806,6	-0,005
807	-0,005
807,4	-0,005
807,9	-0,005
808,3	-0,004
808,7	-0,004
809,2	-0,005
809,6	-0,005
810	-0,005
810,4	-0,005
810,9	-0,005
811,3	-0,005
811,7	-0,005
812,2	-0,005
812,6	-0,004
813	-0,004
813,5	-0,005
813,9	-0,005
814,3	-0,005
814,8	-0,005
815,2	-0,005
815,6	-0,005
816,1	-0,005
816,5	-0,005
816,9	-0,005
817,3	-0,005
817,8	-0,005
818,2	-0,005
818,6	-0,004
819,1	-0,004
819,5	-0,004
819,9	-0,004
820,4	-0,004
820,8	-0,004
821,2	-0,005
821,7	-0,005
822,1	-0,005
822,5	-0,005
822,9	-0,005
823,4	-0,006
823,8	-0,006
824,2	-0,005
824,7	-0,006
825,1	-0,006
825,5	-0,006
826	-0,005
826,4	-0,005
826,8	-0,005
827,3	-0,005
827,7	-0,005
828,1	-0,005
828,5	-0,004
829	-0,005
829,4	-0,004
829,8	-0,004
830,3	-0,005
830,7	-0,005
831,1	-0,005
831,6	-0,005
832	-0,005
832,4	-0,005
832,8	-0,005
833,3	-0,006
833,7	-0,005
834,1	-0,005
834,6	-0,005
835	-0,005
835,4	-0,005
835,8	-0,005
836,3	-0,004
836,7	-0,004
837,1	-0,004
837,6	-0,005
838	-0,005
838,4	-0,005
838,9	-0,005
839,3	-0,005
839,7	-0,005
840,1	-0,004
840,6	-0,004
841	-0,004
841,4	-0,004
841,9	-0,004
842,3	-0,004
842,7	-0,004
843,1	-0,005
843,6	-0,005
844	-0,005
844,4	-0,005
844,9	-0,005
845,3	-0,005
845,7	-0,005
846,2	-0,005
846,6	-0,005
847	-0,005
847,4	-0,005
847,9	-0,005
848,3	-0,005
848,7	-0,005
849,2	-0,005
849,6	-0,005
850	-0,004
850,4	-0,004
850,9	-0,004
851,3	-0,004
851,7	-0,004
852,2	-0,004
852,6	-0,004
853	-0,004
853,4	-0,004
853,9	-0,004
854,3	-0,004
854,7	-0,004
855,2	-0,005
855,6	-0,005
856	-0,005
856,4	-0,005
856,9	-0,005
857,3	-0,005
857,7	-0,005
858,2	-0,005
858,6	-0,006
859	-0,006
859,4	-0,006
859,9	-0,006
860,3	-0,005
860,7	-0,005
861,1	-0,005
861,6	-0,005
862	-0,005
862,4	-0,005
862,9	-0,005
863,3	-0,005
863,7	-0,005
864,1	-0,005
864,6	-0,005
865	-0,004
865,4	-0,004
865,9	-0,004
866,3	-0,004
866,7	-0,005
867,1	-0,005
867,6	-0,005
868	-0,005
868,4	-0,005
868,8	-0,005
869,3	-0,004
869,7	-0,005
870,1	-0,004
870,6	-0,004
871	-0,004
871,4	-0,004
871,8	-0,004
872,3	-0,005
872,7	-0,005
873,1	-0,005
873,5	-0,005
874	-0,005
874,4	-0,005
874,8	-0,005
875,3	-0,005
875,7	-0,005
876,1	-0,005
876,5	-0,005
877	-0,005
877,4	-0,005
877,8	-0,005
878,2	-0,005
878,7	-0,005
879,1	-0,005
879,5	-0,005
879,9	-0,005
880,4	-0,005
880,8	-0,005
881,2	-0,005
881,7	-0,005
882,1	-0,005
882,5	-0,006
882,9	-0,006
883,4	-0,006
883,8	-0,006
884,2	-0,006
884,6	-0,005
885,1	-0,005
885,5	-0,005
885,9	-0,004
886,3	-0,005
886,8	-0,005
887,2	-0,005
887,6	-0,005
888	-0,006
888,5	-0,006
888,9	-0,006
889,3	-0,006
889,8	-0,006
890,2	-0,005
890,6	-0,006
891	-0,005
891,5	-0,005
891,9	-0,006
892,3	-0,005
892,7	-0,005
893,2	-0,005
893,6	-0,005
894	-0,005
894,4	-0,005
894,9	-0,005
895,3	-0,005
895,7	-0,005
896,1	-0,004
896,6	-0,005
897	-0,004
897,4	-0,005
897,8	-0,005
898,3	-0,005
898,7	-0,005
899,1	-0,005
899,5	-0,005
900	-0,005
900,4	-0,005
900,8	-0,005
901,2	-0,005
901,7	-0,004
902,1	-0,004
902,5	-0,005
902,9	-0,004
903,4	-0,004
903,8	-0,004
904,2	-0,004
904,6	-0,004
905,1	-0,004
905,5	-0,004
905,9	-0,004
906,3	-0,004
906,8	-0,005
907,2	-0,004
907,6	-0,005
908	-0,005
908,5	-0,005
908,9	-0,005
909,3	-0,005
909,7	-0,004
910,2	-0,004
910,6	-0,004
911	-0,004
911,4	-0,004
911,9	-0,004
912,3	-0,004
912,7	-0,005
913,1	-0,005
913,6	-0,005
914	-0,005
914,4	-0,005
914,8	-0,006
915,3	-0,006
915,7	-0,006
916,1	-0,006
916,5	-0,005
916,9	-0,005
917,4	-0,005
917,8	-0,005
918,2	-0,004
918,6	-0,004
919,1	-0,004
919,5	-0,005
919,9	-0,004
920,3	-0,004
920,8	-0,004
921,2	-0,005
921,6	-0,005
922	-0,005
922,5	-0,004
922,9	-0,005
923,3	-0,005
923,7	-0,004
924,2	-0,004
924,6	-0,004
925	-0,004
925,4	-0,004
925,8	-0,004
926,3	-0,004
926,7	-0,004
927,1	-0,004
927,5	-0,005
928	-0,004
928,4	-0,005
928,8	-0,004
929,2	-0,005
929,7	-0,005
930,1	-0,005
930,5	-0,005
930,9	-0,005
931,3	-0,005
931,8	-0,005
932,2	-0,004
932,6	-0,005
933	-0,005
933,5	-0,005
933,9	-0,004
934,3	-0,004
934,7	-0,004
935,2	-0,004
935,6	-0,004
936	-0,004
936,4	-0,004
936,8	-0,005
937,3	-0,005
937,7	-0,005
938,1	-0,006
938,5	-0,005
939	-0,005
939,4	-0,005
939,8	-0,005
940,2	-0,005
940,6	-0,004
941,1	-0,004
941,5	-0,004
941,9	-0,005
942,3	-0,005
942,8	-0,004
943,2	-0,004
943,6	-0,004
944	-0,004
944,4	-0,005
944,9	-0,005
945,3	-0,005
945,7	-0,005
946,1	-0,005
946,6	-0,005
947	-0,006
947,4	-0,006
947,8	-0,006
948,2	-0,005
948,7	-0,005
949,1	-0,005
949,5	-0,005
949,9	-0,005
950,3	-0,004
950,8	-0,005
951,2	-0,005
951,6	-0,005
952	-0,004
952,5	-0,004
952,9	-0,004
953,3	-0,005
953,7	-0,005
954,1	-0,005
954,6	-0,006
955	-0,006
955,4	-0,007
955,8	-0,007
956,2	-0,007
956,7	-0,007
957,1	-0,006
957,5	-0,006
957,9	-0,006
958,3	-0,005
958,8	-0,005
959,2	-0,004
959,6	-0,004
960	-0,005
960,5	-0,005
960,9	-0,004
961,3	-0,005
961,7	-0,005
962,1	-0,005
962,6	-0,005
963	-0,005
963,4	-0,005
963,8	-0,005
964,2	-0,006
964,7	-0,006
965,1	-0,006
965,5	-0,005
965,9	-0,005
966,3	-0,006
966,8	-0,006
967,2	-0,005
967,6	-0,005
968	-0,005
968,4	-0,006
968,9	-0,006
969,3	-0,006
969,7	-0,005
970,1	-0,006
970,5	-0,006
971	-0,006
971,4	-0,006
971,8	-0,006
972,2	-0,006
972,6	-0,006
973,1	-0,006
973,5	-0,005
973,9	-0,006
974,3	-0,006
974,7	-0,005
975,2	-0,005
975,6	-0,005
976	-0,005
976,4	-0,005
976,8	-0,005
977,3	-0,004
977,7	-0,004
978,1	-0,004
978,5	-0,004
978,9	-0,003
979,4	-0,003
979,8	-0,003
980,2	-0,004
980,6	-0,003
981	-0,004
981,5	-0,004
981,9	-0,004
982,3	-0,004
982,7	-0,003
983,1	-0,003
983,6	-0,004
984	-0,004
984,4	-0,004
984,8	-0,005
985,2	-0,005
985,6	-0,005
986,1	-0,005
986,5	-0,004
986,9	-0,005
987,3	-0,005
987,7	-0,005
988,2	-0,005
988,6	-0,005
989	-0,005
989,4	-0,005
989,8	-0,005
990,3	-0,005
990,7	-0,004
991,1	-0,004
991,5	-0,005
991,9	-0,004
992,3	-0,005
992,8	-0,005
993,2	-0,005
993,6	-0,005
994	-0,005
994,4	-0,004
994,9	-0,004
995,3	-0,004
995,7	-0,004
996,1	-0,004
996,5	-0,003
996,9	-0,004
997,4	-0,005
997,8	-0,005
998,2	-0,005
998,6	-0,005
999	-0,006
999,5	-0,006
999,9	-0,006
1000,3	-0,006
1000,7	-0,005
1001,1	-0,005
1001,5	-0,005
1002	-0,005
1002,4	-0,005
1002,8	-0,005
1003,2	-0,005
1003,6	-0,005
1004	-0,005
1004,5	-0,005
1004,9	-0,005
1005,3	-0,005
1005,7	-0,005
1006,1	-0,005
1006,6	-0,005
1007	-0,005
1007,4	-0,005
1007,8	-0,005
1008,2	-0,004
1008,6	-0,004
1009,1	-0,004
1009,5	-0,003
1009,9	-0,004
1010,3	-0,004
1010,7	-0,004
1011,1	-0,005
1011,6	-0,005
1012	-0,005
1012,4	-0,005
1012,8	-0,005
1013,2	-0,005
1013,6	-0,005
1014,1	-0,004
1014,5	-0,004
1014,9	-0,004
1015,3	-0,003
1015,7	-0,004
1016,1	-0,004
1016,6	-0,004
1017	-0,004
1017,4	-0,004
1017,8	-0,004
1018,2	-0,004
1018,6	-0,004
1019,1	-0,004
1019,5	-0,004
1019,9	-0,004
1020,3	-0,004
1020,7	-0,005
1021,1	-0,005
1021,6	-0,005
1022	-0,005
1022,4	-0,005
1022,8	-0,005
1023,2	-0,004
1023,6	-0,004
1024,1	-0,005
1024,5	-0,004
1024,9	-0,004
1025,3	-0,005
1025,7	-0,005
1026,1	-0,005
1026,6	-0,005
1027	-0,005
1027,4	-0,005
1027,8	-0,005
1028,2	-0,005
1028,6	-0,005
1029	-0,005
1029,5	-0,005
1029,9	-0,005
1030,3	-0,004
1030,7	-0,003
1031,1	-0,004
1031,5	-0,003
1032	-0,003
1032,4	-0,003
1032,8	-0,003
1033,2	-0,004
1033,6	-0,005
1034	-0,005
1034,4	-0,005
1034,9	-0,005
1035,3	-0,007
1035,7	-0,007
1036,1	-0,007
1036,5	-0,006
1036,9	-0,007
1037,4	-0,007
1037,8	-0,007
1038,2	-0,006
1038,6	-0,007
1039	-0,006
1039,4	-0,006
1039,8	-0,006
1040,3	-0,005
1040,7	-0,005
1041,1	-0,005
1041,5	-0,004
1041,9	-0,004
1042,3	-0,004
1042,7	-0,004
1043,2	-0,004
1043,6	-0,004
1044	-0,005
1044,4	-0,005
1044,8	-0,005
1045,2	-0,006
1045,6	-0,005
1046,1	-0,006
1046,5	-0,006
1046,9	-0,005
1047,3	-0,005
1047,7	-0,005
1048,1	-0,005
1048,5	-0,005
1049	-0,004
1049,4	-0,004
1049,8	-0,004
1050,2	-0,004
1050,6	-0,004
1051	-0,005
1051,4	-0,004
1051,9	-0,004
1052,3	-0,004
1052,7	-0,004
1053,1	-0,004
1053,5	-0,003
1053,9	-0,003
1054,3	-0,003
1054,8	-0,004
1055,2	-0,003
1055,6	-0,004
1056	-0,004
1056,4	-0,004
1056,8	-0,004
1057,2	-0,004
1057,6	-0,004
1058,1	-0,004
1058,5	-0,004
1058,9	-0,004
1059,3	-0,004
1059,7	-0,003
1060,1	-0,003
1060,5	-0,003
1061	-0,002
1061,4	-0,001
1061,8	-0,001
1062,2	-0,001
1062,6	-0,001
1063	-0,002
1063,4	-0,003
1063,8	-0,004
1064,3	-0,005
1064,7	-0,005
1065,1	-0,004
1065,5	-0,005
1065,9	-0,004
1066,3	-0,004
1066,7	-0,004
1067,1	-0,005
1067,6	-0,006
1068	-0,007
1068,4	-0,007
1068,8	-0,007
1069,2	-0,007
1069,6	-0,006
1070	-0,006
1070,4	-0,005
1070,9	-0,004
1071,3	-0,004
1071,7	-0,005
1072,1	-0,005
1072,5	-0,006
1072,9	-0,006
1073,3	-0,005
1073,7	-0,004
1074,2	-0,004
1074,6	-0,004
1075	-0,004
1075,4	-0,004
1075,8	-0,004
1076,2	-0,006
1076,6	-0,006
1077	-0,006
1077,5	-0,005
1077,9	-0,006
1078,3	-0,005
1078,7	-0,004
1079,1	-0,004
1079,5	-0,004
1079,9	-0,005
1080,3	-0,005
1080,7	-0,004
1081,2	-0,004
1081,6	-0,004
1082	-0,001
1082,4	-0,001
1082,8	-0,002
1083,2	-0,001
1083,6	-0,002
1084	-0,002
1084,5	-0,003
1084,9	-0,003
1085,3	-0,002
1085,7	-0,001
1086,1	-0,003
1086,5	-0,002
1086,9	-0,003
1087,3	-0,004
1087,7	-0,005
1088,2	-0,007
1088,6	-0,007
1089	-0,007
1089,4	-0,007
1089,8	-0,007
1090,2	-0,008
1090,6	-0,006
1091	-0,008
1091,4	-0,007
1091,9	-0,008
1092,3	-0,006
1092,7	-0,005
1093,1	-0,006
1093,5	-0,006
1093,9	-0,007
1094,3	-0,009
1094,7	-0,006
1095,1	-0,009
1095,5	-0,011
1096	-0,007
1096,4	-0,006
1096,8	0,003
1097,2	-0,003
1097,6	-0,005
1098	-0,008
1098,4	-0,002
1098,8	-0,002
1099,2	-0,005
1099,6	-0,004
1100,1	-0,004
1100,5	-0,003
1100,9	-0
1101,3	-0,016
1101,7	-0,018
1102,1	-0,014
1102,5	-0,015
1102,9	-0,005
1103,3	-0,007
1103,7	-0,005
1104,2	0,008
1104,6	0,011
1105	0,007
1105,4	0
1105,8	-0,008
1106,2	-0,006
1106,6	-0,003
1107	-0,013
1107,4	-0,02
1107,8	-0,054
1108,3	-0,112
