Data from Absorbance_00001.txt Node
Date: Thu Aug 24 15:39:56 MSK 2023
User: vat
Spectrometer: MAYP114033
Trigger mode: 0
Integration Time (sec): 8,000000E-3
Scans to average: 10
Electric dark correction enabled: true
Nonlinearity correction enabled: false
Boxcar width: 3
XAxis mode: Wavelengths
Number of Pixels in Spectrum: 2068
>>>>>Begin Spectral Data<<<<<
199,4	-0,075
199,9	0,076
200,4	0,322
200,8	0,654
201,3	0,75
201,8	0,821
202,2	0,843
202,7	0,887
203,2	0,916
203,6	0,936
204,1	0,943
204,6	0,962
205	0,968
205,5	0,99
206	1,001
206,4	1,042
206,9	1,048
207,4	1,081
207,8	1,105
208,3	1,131
208,8	1,134
209,2	1,142
209,7	1,121
210,2	1,148
210,6	1,148
211,1	1,151
211,5	1,151
212	1,171
212,5	1,184
212,9	1,232
213,4	1,238
213,9	1,249
214,3	1,255
214,8	1,271
215,3	1,259
215,7	1,263
216,2	1,244
216,7	1,244
217,1	1,243
217,6	1,246
218,1	1,242
218,5	1,243
219	1,23
219,5	1,208
219,9	1,182
220,4	1,155
220,9	1,107
221,3	1,059
221,8	1,012
222,3	0,957
222,7	0,913
223,2	0,867
223,6	0,822
224,1	0,787
224,6	0,753
225	0,723
225,5	0,697
226	0,674
226,4	0,659
226,9	0,646
227,4	0,636
227,8	0,629
228,3	0,625
228,8	0,625
229,2	0,625
229,7	0,628
230,2	0,635
230,6	0,644
231,1	0,654
231,5	0,664
232	0,678
232,5	0,693
232,9	0,708
233,4	0,724
233,9	0,74
234,3	0,762
234,8	0,782
235,3	0,806
235,7	0,831
236,2	0,86
236,7	0,889
237,1	0,922
237,6	0,95
238,1	0,986
238,5	1,019
239	1,057
239,4	1,091
239,9	1,127
240,4	1,16
240,8	1,199
241,3	1,235
241,8	1,276
242,2	1,31
242,7	1,352
243,2	1,389
243,6	1,434
244,1	1,471
244,6	1,506
245	1,537
245,5	1,583
245,9	1,611
246,4	1,65
246,9	1,682
247,3	1,717
247,8	1,757
248,3	1,792
248,7	1,804
249,2	1,826
249,7	1,839
250,1	1,852
250,6	1,873
251	1,89
251,5	1,914
252	1,913
252,4	1,918
252,9	1,935
253,4	1,955
253,8	1,946
254,3	1,946
254,8	1,939
255,2	1,966
255,7	1,981
256,1	1,982
256,6	1,979
257,1	1,994
257,5	1,993
258	1,992
258,5	1,996
258,9	1,992
259,4	1,983
259,9	1,985
260,3	1,985
260,8	2
261,2	1,997
261,7	1,976
262,2	1,97
262,6	1,975
263,1	1,954
263,6	1,939
264	1,924
264,5	1,924
264,9	1,917
265,4	1,915
265,9	1,887
266,3	1,874
266,8	1,849
267,3	1,821
267,7	1,794
268,2	1,762
268,7	1,72
269,1	1,688
269,6	1,654
270	1,625
270,5	1,582
271	1,538
271,4	1,495
271,9	1,448
272,4	1,4
272,8	1,349
273,3	1,293
273,7	1,242
274,2	1,188
274,7	1,136
275,1	1,082
275,6	1,029
276,1	0,974
276,5	0,922
277	0,87
277,4	0,819
277,9	0,767
278,4	0,718
278,8	0,668
279,3	0,62
279,8	0,572
280,2	0,526
280,7	0,482
281,1	0,44
281,6	0,401
282,1	0,363
282,5	0,328
283	0,296
283,4	0,267
283,9	0,239
284,4	0,214
284,8	0,19
285,3	0,17
285,8	0,153
286,2	0,136
286,7	0,122
287,1	0,109
287,6	0,098
288,1	0,088
288,5	0,079
289	0,071
289,5	0,064
289,9	0,058
290,4	0,054
290,8	0,05
291,3	0,047
291,8	0,044
292,2	0,041
292,7	0,039
293,1	0,037
293,6	0,036
294,1	0,034
294,5	0,033
295	0,033
295,5	0,032
295,9	0,032
296,4	0,031
296,8	0,03
297,3	0,03
297,8	0,03
298,2	0,029
298,7	0,028
299,1	0,027
299,6	0,027
300,1	0,027
300,5	0,027
301	0,027
301,5	0,026
301,9	0,026
302,4	0,026
302,8	0,025
303,3	0,025
303,8	0,025
304,2	0,025
304,7	0,025
305,1	0,025
305,6	0,025
306,1	0,025
306,5	0,025
307	0,024
307,4	0,024
307,9	0,023
308,4	0,023
308,8	0,023
309,3	0,022
309,8	0,022
310,2	0,021
310,7	0,021
311,1	0,021
311,6	0,021
312,1	0,021
312,5	0,02
313	0,02
313,4	0,02
313,9	0,02
314,4	0,02
314,8	0,018
315,3	0,018
315,7	0,017
316,2	0,017
316,7	0,017
317,1	0,017
317,6	0,017
318	0,017
318,5	0,018
319	0,018
319,4	0,017
319,9	0,017
320,3	0,017
320,8	0,016
321,3	0,016
321,7	0,015
322,2	0,015
322,6	0,015
323,1	0,015
323,6	0,014
324	0,014
324,5	0,014
324,9	0,013
325,4	0,012
325,9	0,012
326,3	0,011
326,8	0,011
327,2	0,011
327,7	0,011
328,2	0,011
328,6	0,01
329,1	0,01
329,5	0,011
330	0,01
330,5	0,009
330,9	0,009
331,4	0,009
331,8	0,009
332,3	0,008
332,8	0,008
333,2	0,008
333,7	0,008
334,1	0,007
334,6	0,008
335,1	0,007
335,5	0,007
336	0,007
336,4	0,007
336,9	0,007
337,4	0,007
337,8	0,006
338,3	0,006
338,7	0,005
339,2	0,005
339,7	0,004
340,1	0,004
340,6	0,004
341	0,003
341,5	0,003
342	0,003
342,4	0,003
342,9	0,003
343,3	0,002
343,8	0,002
344,2	0,002
344,7	0,002
345,2	0,001
345,6	0,001
346,1	0,002
346,5	0,001
347	0,001
347,5	0,001
347,9	-0
348,4	-0,001
348,8	-0,001
349,3	-0,001
349,8	-0,002
350,2	-0,001
350,7	-0,001
351,1	-0,001
351,6	-0,001
352	-0,001
352,5	-0,001
353	-0,001
353,4	-0,001
353,9	-0,001
354,3	-0,001
354,8	-0,001
355,3	-0,001
355,7	-0,001
356,2	-0,001
356,6	-0,002
357,1	-0,002
357,5	-0,002
358	-0,002
358,5	-0,003
358,9	-0,003
359,4	-0,003
359,8	-0,003
360,3	-0,004
360,8	-0,004
361,2	-0,003
361,7	-0,004
362,1	-0,004
362,6	-0,005
363	-0,005
363,5	-0,006
364	-0,006
364,4	-0,005
364,9	-0,005
365,3	-0,005
365,8	-0,005
366,3	-0,004
366,7	-0,004
367,2	-0,004
367,6	-0,005
368,1	-0,006
368,5	-0,006
369	-0,006
369,5	-0,006
369,9	-0,006
370,4	-0,006
370,8	-0,006
371,3	-0,006
371,7	-0,006
372,2	-0,006
372,7	-0,006
373,1	-0,006
373,6	-0,007
374	-0,007
374,5	-0,008
374,9	-0,008
375,4	-0,008
375,9	-0,008
376,3	-0,009
376,8	-0,009
377,2	-0,009
377,7	-0,009
378,2	-0,008
378,6	-0,008
379,1	-0,008
379,5	-0,007
380	-0,007
380,4	-0,007
380,9	-0,007
381,4	-0,007
381,8	-0,007
382,3	-0,007
382,7	-0,008
383,2	-0,008
383,6	-0,008
384,1	-0,008
384,6	-0,008
385	-0,007
385,5	-0,007
385,9	-0,007
386,4	-0,007
386,8	-0,006
387,3	-0,006
387,7	-0,007
388,2	-0,006
388,7	-0,007
389,1	-0,007
389,6	-0,007
390	-0,007
390,5	-0,007
390,9	-0,007
391,4	-0,008
391,9	-0,009
392,3	-0,009
392,8	-0,009
393,2	-0,009
393,7	-0,009
394,1	-0,009
394,6	-0,008
395,1	-0,008
395,5	-0,007
396	-0,007
396,4	-0,006
396,9	-0,006
397,3	-0,006
397,8	-0,006
398,2	-0,007
398,7	-0,007
399,2	-0,008
399,6	-0,008
400,1	-0,008
400,5	-0,008
401	-0,008
401,4	-0,008
401,9	-0,009
402,4	-0,008
402,8	-0,009
403,3	-0,008
403,7	-0,009
404,2	-0,009
404,6	-0,009
405,1	-0,009
405,5	-0,009
406	-0,009
406,5	-0,009
406,9	-0,009
407,4	-0,009
407,8	-0,008
408,3	-0,008
408,7	-0,008
409,2	-0,009
409,6	-0,009
410,1	-0,008
410,6	-0,008
411	-0,008
411,5	-0,007
411,9	-0,008
412,4	-0,007
412,8	-0,008
413,3	-0,008
413,7	-0,008
414,2	-0,008
414,7	-0,009
415,1	-0,008
415,6	-0,008
416	-0,007
416,5	-0,007
416,9	-0,008
417,4	-0,007
417,8	-0,008
418,3	-0,008
418,8	-0,008
419,2	-0,008
419,7	-0,008
420,1	-0,008
420,6	-0,008
421	-0,008
421,5	-0,007
421,9	-0,007
422,4	-0,007
422,8	-0,007
423,3	-0,007
423,8	-0,007
424,2	-0,007
424,7	-0,007
425,1	-0,007
425,6	-0,007
426	-0,007
426,5	-0,007
426,9	-0,008
427,4	-0,008
427,9	-0,008
428,3	-0,008
428,8	-0,008
429,2	-0,008
429,7	-0,008
430,1	-0,008
430,6	-0,008
431	-0,008
431,5	-0,008
431,9	-0,008
432,4	-0,008
432,8	-0,007
433,3	-0,007
433,8	-0,008
434,2	-0,009
434,7	-0,009
435,1	-0,009
435,6	-0,009
436	-0,009
436,5	-0,009
436,9	-0,008
437,4	-0,008
437,8	-0,007
438,3	-0,008
438,8	-0,008
439,2	-0,008
439,7	-0,008
440,1	-0,009
440,6	-0,008
441	-0,008
441,5	-0,008
441,9	-0,008
442,4	-0,007
442,8	-0,007
443,3	-0,007
443,7	-0,008
444,2	-0,008
444,7	-0,008
445,1	-0,008
445,6	-0,008
446	-0,008
446,5	-0,008
446,9	-0,008
447,4	-0,008
447,8	-0,007
448,3	-0,007
448,7	-0,007
449,2	-0,007
449,6	-0,007
450,1	-0,008
450,6	-0,008
451	-0,008
451,5	-0,008
451,9	-0,008
452,4	-0,008
452,8	-0,008
453,3	-0,008
453,7	-0,008
454,2	-0,008
454,6	-0,007
455,1	-0,007
455,5	-0,008
456	-0,007
456,4	-0,007
456,9	-0,007
457,3	-0,007
457,8	-0,007
458,3	-0,007
458,7	-0,007
459,2	-0,007
459,6	-0,008
460,1	-0,008
460,5	-0,008
461	-0,008
461,4	-0,007
461,9	-0,007
462,3	-0,006
462,8	-0,006
463,2	-0,006
463,7	-0,006
464,1	-0,006
464,6	-0,007
465	-0,007
465,5	-0,007
466	-0,007
466,4	-0,008
466,9	-0,007
467,3	-0,008
467,8	-0,008
468,2	-0,008
468,7	-0,008
469,1	-0,008
469,6	-0,008
470	-0,008
470,5	-0,007
470,9	-0,007
471,4	-0,007
471,8	-0,007
472,3	-0,006
472,7	-0,006
473,2	-0,006
473,6	-0,006
474,1	-0,007
474,5	-0,006
475	-0,006
475,4	-0,007
475,9	-0,007
476,4	-0,007
476,8	-0,007
477,3	-0,007
477,7	-0,007
478,2	-0,007
478,6	-0,007
479,1	-0,007
479,5	-0,008
480	-0,007
480,4	-0,006
480,9	-0,007
481,3	-0,007
481,8	-0,007
482,2	-0,007
482,7	-0,007
483,1	-0,007
483,6	-0,006
484	-0,007
484,5	-0,007
484,9	-0,007
485,4	-0,006
485,8	-0,006
486,3	-0,006
486,7	-0,007
487,2	-0,006
487,6	-0,006
488,1	-0,006
488,5	-0,007
489	-0,007
489,4	-0,007
489,9	-0,007
490,4	-0,007
490,8	-0,007
491,3	-0,007
491,7	-0,007
492,2	-0,006
492,6	-0,006
493,1	-0,006
493,5	-0,006
494	-0,006
494,4	-0,007
494,9	-0,007
495,3	-0,007
495,8	-0,006
496,2	-0,007
496,7	-0,007
497,1	-0,006
497,6	-0,006
498	-0,006
498,5	-0,006
498,9	-0,006
499,4	-0,006
499,8	-0,005
500,3	-0,006
500,7	-0,006
501,2	-0,006
501,6	-0,006
502,1	-0,007
502,5	-0,007
503	-0,007
503,4	-0,007
503,9	-0,007
504,3	-0,007
504,8	-0,007
505,2	-0,007
505,7	-0,007
506,1	-0,006
506,6	-0,006
507	-0,006
507,5	-0,007
507,9	-0,006
508,4	-0,006
508,8	-0,007
509,3	-0,006
509,7	-0,006
510,2	-0,005
510,6	-0,005
511,1	-0,006
511,5	-0,007
512	-0,007
512,4	-0,006
512,9	-0,007
513,3	-0,007
513,8	-0,007
514,2	-0,007
514,7	-0,007
515,1	-0,007
515,6	-0,007
516	-0,007
516,5	-0,006
516,9	-0,006
517,4	-0,007
517,8	-0,006
518,3	-0,006
518,7	-0,007
519,2	-0,008
519,6	-0,008
520,1	-0,007
520,5	-0,007
521	-0,007
521,4	-0,007
521,9	-0,007
522,3	-0,006
522,8	-0,006
523,2	-0,005
523,7	-0,005
524,1	-0,006
524,6	-0,006
525	-0,006
525,5	-0,006
525,9	-0,006
526,4	-0,006
526,8	-0,006
527,3	-0,005
527,7	-0,004
528,2	-0,004
528,6	-0,004
529,1	-0,004
529,5	-0,004
530	-0,004
530,4	-0,005
530,9	-0,005
531,3	-0,005
531,8	-0,005
532,2	-0,005
532,6	-0,006
533,1	-0,006
533,5	-0,006
534	-0,006
534,4	-0,006
534,9	-0,006
535,3	-0,006
535,8	-0,005
536,2	-0,005
536,7	-0,005
537,1	-0,005
537,6	-0,005
538	-0,005
538,5	-0,006
538,9	-0,006
539,4	-0,006
539,8	-0,006
540,3	-0,006
540,7	-0,005
541,2	-0,005
541,6	-0,005
542,1	-0,005
542,5	-0,005
543	-0,006
543,4	-0,005
543,9	-0,005
544,3	-0,005
544,8	-0,005
545,2	-0,005
545,7	-0,006
546,1	-0,005
546,5	-0,006
547	-0,006
547,4	-0,006
547,9	-0,006
548,3	-0,005
548,8	-0,005
549,2	-0,006
549,7	-0,005
550,1	-0,005
550,6	-0,005
551	-0,005
551,5	-0,005
551,9	-0,005
552,4	-0,005
552,8	-0,006
553,3	-0,006
553,7	-0,006
554,2	-0,006
554,6	-0,006
555,1	-0,006
555,5	-0,006
555,9	-0,005
556,4	-0,005
556,8	-0,005
557,3	-0,005
557,7	-0,005
558,2	-0,005
558,6	-0,004
559,1	-0,005
559,5	-0,005
560	-0,004
560,4	-0,005
560,9	-0,005
561,3	-0,004
561,8	-0,004
562,2	-0,004
562,7	-0,003
563,1	-0,004
563,6	-0,004
564	-0,004
564,4	-0,005
564,9	-0,005
565,3	-0,005
565,8	-0,005
566,2	-0,005
566,7	-0,005
567,1	-0,006
567,6	-0,005
568	-0,005
568,5	-0,005
568,9	-0,005
569,4	-0,004
569,8	-0,004
570,3	-0,004
570,7	-0,004
571,1	-0,005
571,6	-0,005
572	-0,004
572,5	-0,004
572,9	-0,004
573,4	-0,004
573,8	-0,004
574,3	-0,004
574,7	-0,004
575,2	-0,004
575,6	-0,004
576,1	-0,005
576,5	-0,005
576,9	-0,005
577,4	-0,005
577,8	-0,005
578,3	-0,005
578,7	-0,005
579,2	-0,005
579,6	-0,004
580,1	-0,005
580,5	-0,005
581	-0,004
581,4	-0,005
581,9	-0,005
582,3	-0,005
582,7	-0,005
583,2	-0,005
583,6	-0,005
584,1	-0,005
584,5	-0,005
585	-0,005
585,4	-0,005
585,9	-0,005
586,3	-0,005
586,8	-0,005
587,2	-0,005
587,6	-0,005
588,1	-0,005
588,5	-0,006
589	-0,005
589,4	-0,005
589,9	-0,005
590,3	-0,005
590,8	-0,005
591,2	-0,005
591,7	-0,005
592,1	-0,005
592,5	-0,005
593	-0,004
593,4	-0,004
593,9	-0,004
594,3	-0,004
594,8	-0,004
595,2	-0,004
595,7	-0,004
596,1	-0,004
596,6	-0,005
597	-0,005
597,4	-0,004
597,9	-0,004
598,3	-0,004
598,8	-0,004
599,2	-0,004
599,7	-0,004
600,1	-0,005
600,6	-0,005
601	-0,005
601,4	-0,005
601,9	-0,005
602,3	-0,005
602,8	-0,005
603,2	-0,005
603,7	-0,005
604,1	-0,005
604,6	-0,005
605	-0,005
605,4	-0,004
605,9	-0,004
606,3	-0,004
606,8	-0,004
607,2	-0,004
607,7	-0,004
608,1	-0,004
608,6	-0,004
609	-0,005
609,4	-0,004
609,9	-0,004
610,3	-0,004
610,8	-0,004
611,2	-0,004
611,7	-0,004
612,1	-0,004
612,6	-0,004
613	-0,004
613,4	-0,004
613,9	-0,004
614,3	-0,004
614,8	-0,004
615,2	-0,004
615,7	-0,004
616,1	-0,004
616,6	-0,004
617	-0,004
617,4	-0,005
617,9	-0,005
618,3	-0,005
618,8	-0,005
619,2	-0,005
619,7	-0,005
620,1	-0,005
620,5	-0,005
621	-0,005
621,4	-0,006
621,9	-0,005
622,3	-0,006
622,8	-0,005
623,2	-0,005
623,6	-0,005
624,1	-0,004
624,5	-0,004
625	-0,004
625,4	-0,004
625,9	-0,004
626,3	-0,004
626,8	-0,004
627,2	-0,004
627,6	-0,004
628,1	-0,003
628,5	-0,003
629	-0,004
629,4	-0,004
629,9	-0,004
630,3	-0,004
630,7	-0,004
631,2	-0,004
631,6	-0,004
632,1	-0,004
632,5	-0,005
633	-0,004
633,4	-0,005
633,8	-0,005
634,3	-0,005
634,7	-0,005
635,2	-0,004
635,6	-0,004
636,1	-0,003
636,5	-0,003
636,9	-0,003
637,4	-0,003
637,8	-0,003
638,3	-0,003
638,7	-0,004
639,2	-0,004
639,6	-0,004
640	-0,004
640,5	-0,005
640,9	-0,005
641,4	-0,004
641,8	-0,004
642,2	-0,004
642,7	-0,004
643,1	-0,004
643,6	-0,003
644	-0,004
644,5	-0,004
644,9	-0,004
645,3	-0,004
645,8	-0,004
646,2	-0,004
646,7	-0,004
647,1	-0,004
647,6	-0,004
648	-0,004
648,4	-0,005
648,9	-0,005
649,3	-0,004
649,8	-0,004
650,2	-0,004
650,6	-0,004
651,1	-0,004
651,5	-0,004
652	-0,004
652,4	-0,004
652,9	-0,004
653,3	-0,004
653,7	-0,004
654,2	-0,004
654,6	-0,003
655,1	-0,003
655,5	-0,001
655,9	-0,001
656,4	-0,001
656,8	-0,001
657,3	-0,001
657,7	-0,001
658,2	-0,001
658,6	-0,002
659	-0,003
659,5	-0,004
659,9	-0,004
660,4	-0,004
660,8	-0,004
661,2	-0,004
661,7	-0,004
662,1	-0,004
662,6	-0,004
663	-0,003
663,4	-0,003
663,9	-0,003
664,3	-0,004
664,8	-0,003
665,2	-0,003
665,6	-0,003
666,1	-0,004
666,5	-0,004
667	-0,004
667,4	-0,004
667,9	-0,004
668,3	-0,004
668,7	-0,004
669,2	-0,004
669,6	-0,004
670,1	-0,004
670,5	-0,003
670,9	-0,003
671,4	-0,003
671,8	-0,003
672,3	-0,003
672,7	-0,003
673,1	-0,003
673,6	-0,003
674	-0,004
674,5	-0,003
674,9	-0,003
675,3	-0,003
675,8	-0,003
676,2	-0,003
676,7	-0,003
677,1	-0,003
677,5	-0,002
678	-0,002
678,4	-0,002
678,9	-0,002
679,3	-0,003
679,7	-0,003
680,2	-0,003
680,6	-0,003
681,1	-0,004
681,5	-0,004
681,9	-0,004
682,4	-0,004
682,8	-0,004
683,3	-0,004
683,7	-0,004
684,1	-0,003
684,6	-0,003
685	-0,003
685,5	-0,003
685,9	-0,003
686,3	-0,003
686,8	-0,004
687,2	-0,004
687,7	-0,004
688,1	-0,004
688,5	-0,003
689	-0,003
689,4	-0,003
689,9	-0,003
690,3	-0,003
690,7	-0,003
691,2	-0,003
691,6	-0,004
692	-0,004
692,5	-0,004
692,9	-0,003
693,4	-0,003
693,8	-0,004
694,2	-0,004
694,7	-0,003
695,1	-0,003
695,6	-0,003
696	-0,003
696,4	-0,003
696,9	-0,003
697,3	-0,003
697,8	-0,003
698,2	-0,003
698,6	-0,003
699,1	-0,003
699,5	-0,003
699,9	-0,003
700,4	-0,003
700,8	-0,003
701,3	-0,003
701,7	-0,004
702,1	-0,003
702,6	-0,003
703	-0,003
703,5	-0,003
703,9	-0,003
704,3	-0,003
704,8	-0,002
705,2	-0,003
705,6	-0,003
706,1	-0,003
706,5	-0,003
707	-0,003
707,4	-0,003
707,8	-0,003
708,3	-0,002
708,7	-0,002
709,2	-0,002
709,6	-0,002
710	-0,002
710,5	-0,002
710,9	-0,002
711,3	-0,002
711,8	-0,003
712,2	-0,002
712,7	-0,003
713,1	-0,003
713,5	-0,003
714	-0,003
714,4	-0,003
714,8	-0,003
715,3	-0,003
715,7	-0,003
716,2	-0,003
716,6	-0,003
717	-0,003
717,5	-0,003
717,9	-0,003
718,3	-0,003
718,8	-0,003
719,2	-0,004
719,7	-0,003
720,1	-0,003
720,5	-0,003
721	-0,003
721,4	-0,003
721,8	-0,003
722,3	-0,003
722,7	-0,003
723,2	-0,003
723,6	-0,003
724	-0,003
724,5	-0,003
724,9	-0,003
725,3	-0,003
725,8	-0,003
726,2	-0,003
726,7	-0,003
727,1	-0,003
727,5	-0,003
728	-0,003
728,4	-0,003
728,8	-0,003
729,3	-0,003
729,7	-0,003
730,1	-0,003
730,6	-0,003
731	-0,003
731,5	-0,003
731,9	-0,003
732,3	-0,002
732,8	-0,003
733,2	-0,003
733,6	-0,003
734,1	-0,003
734,5	-0,003
734,9	-0,003
735,4	-0,003
735,8	-0,003
736,3	-0,003
736,7	-0,004
737,1	-0,004
737,6	-0,004
738	-0,003
738,4	-0,003
738,9	-0,003
739,3	-0,003
739,7	-0,003
740,2	-0,003
740,6	-0,003
741,1	-0,002
741,5	-0,002
741,9	-0,002
742,4	-0,003
742,8	-0,002
743,2	-0,002
743,7	-0,003
744,1	-0,003
744,5	-0,003
745	-0,003
745,4	-0,003
745,8	-0,003
746,3	-0,003
746,7	-0,003
747,2	-0,003
747,6	-0,003
748	-0,003
748,5	-0,003
748,9	-0,003
749,3	-0,003
749,8	-0,003
750,2	-0,003
750,6	-0,003
751,1	-0,003
751,5	-0,003
751,9	-0,003
752,4	-0,003
752,8	-0,002
753,3	-0,002
753,7	-0,002
754,1	-0,002
754,6	-0,002
755	-0,001
755,4	-0,002
755,9	-0,002
756,3	-0,002
756,7	-0,002
757,2	-0,002
757,6	-0,002
758	-0,002
758,5	-0,002
758,9	-0,002
759,3	-0,002
759,8	-0,002
760,2	-0,002
760,6	-0,002
761,1	-0,002
761,5	-0,002
761,9	-0,002
762,4	-0,002
762,8	-0,002
763,3	-0,002
763,7	-0,002
764,1	-0,002
764,6	-0,002
765	-0,002
765,4	-0,002
765,9	-0,002
766,3	-0,002
766,7	-0,002
767,2	-0,003
767,6	-0,003
768	-0,003
768,5	-0,003
768,9	-0,003
769,3	-0,003
769,8	-0,002
770,2	-0,002
770,6	-0,002
771,1	-0,002
771,5	-0,002
771,9	-0,002
772,4	-0,002
772,8	-0,003
773,2	-0,003
773,7	-0,003
774,1	-0,003
774,5	-0,003
775	-0,003
775,4	-0,003
775,8	-0,003
776,3	-0,003
776,7	-0,003
777,1	-0,003
777,6	-0,003
778	-0,003
778,4	-0,003
778,9	-0,003
779,3	-0,002
779,7	-0,002
780,2	-0,002
780,6	-0,002
781	-0,002
781,5	-0,002
781,9	-0,002
782,3	-0,003
782,8	-0,002
783,2	-0,002
783,6	-0,002
784,1	-0,002
784,5	-0,002
784,9	-0,002
785,4	-0,002
785,8	-0,003
786,2	-0,003
786,7	-0,002
787,1	-0,003
787,5	-0,003
788	-0,003
788,4	-0,003
788,8	-0,003
789,3	-0,003
789,7	-0,003
790,1	-0,003
790,6	-0,003
791	-0,003
791,4	-0,003
791,9	-0,003
792,3	-0,003
792,7	-0,003
793,2	-0,003
793,6	-0,003
794	-0,003
794,5	-0,003
794,9	-0,003
795,3	-0,003
795,8	-0,003
796,2	-0,003
796,6	-0,003
797,1	-0,003
797,5	-0,003
797,9	-0,003
798,4	-0,003
798,8	-0,003
799,2	-0,003
799,7	-0,002
800,1	-0,002
800,5	-0,002
801	-0,002
801,4	-0,002
801,8	-0,001
802,2	-0,001
802,7	-0,002
803,1	-0,002
803,5	-0,002
804	-0,002
804,4	-0,002
804,8	-0,003
805,3	-0,003
805,7	-0,003
806,1	-0,003
806,6	-0,003
807	-0,003
807,4	-0,003
807,9	-0,002
808,3	-0,002
808,7	-0,002
809,2	-0,003
809,6	-0,003
810	-0,003
810,4	-0,003
810,9	-0,003
811,3	-0,003
811,7	-0,002
812,2	-0,002
812,6	-0,001
813	-0,002
813,5	-0,002
813,9	-0,002
814,3	-0,002
814,8	-0,002
815,2	-0,002
815,6	-0,002
816,1	-0,003
816,5	-0,003
816,9	-0,003
817,3	-0,003
817,8	-0,003
818,2	-0,003
818,6	-0,003
819,1	-0,003
819,5	-0,003
819,9	-0,003
820,4	-0,003
820,8	-0,003
821,2	-0,003
821,7	-0,003
822,1	-0,003
822,5	-0,002
822,9	-0,002
823,4	-0,002
823,8	-0,002
824,2	-0,002
824,7	-0,003
825,1	-0,003
825,5	-0,003
826	-0,003
826,4	-0,003
826,8	-0,003
827,3	-0,003
827,7	-0,003
828,1	-0,003
828,5	-0,003
829	-0,003
829,4	-0,002
829,8	-0,003
830,3	-0,003
830,7	-0,003
831,1	-0,003
831,6	-0,003
832	-0,003
832,4	-0,003
832,8	-0,003
833,3	-0,003
833,7	-0,002
834,1	-0,002
834,6	-0,002
835	-0,002
835,4	-0,002
835,8	-0,002
836,3	-0,002
836,7	-0,002
837,1	-0,003
837,6	-0,003
838	-0,003
838,4	-0,003
838,9	-0,003
839,3	-0,003
839,7	-0,003
840,1	-0,002
840,6	-0,002
841	-0,002
841,4	-0,002
841,9	-0,002
842,3	-0,002
842,7	-0,002
843,1	-0,002
843,6	-0,002
844	-0,002
844,4	-0,002
844,9	-0,002
845,3	-0,002
845,7	-0,002
846,2	-0,002
846,6	-0,002
847	-0,002
847,4	-0,002
847,9	-0,002
848,3	-0,002
848,7	-0,002
849,2	-0,002
849,6	-0,002
850	-0,002
850,4	-0,002
850,9	-0,002
851,3	-0,002
851,7	-0,002
852,2	-0,002
852,6	-0,002
853	-0,002
853,4	-0,002
853,9	-0,002
854,3	-0,002
854,7	-0,003
855,2	-0,003
855,6	-0,002
856	-0,003
856,4	-0,003
856,9	-0,002
857,3	-0,002
857,7	-0,002
858,2	-0,002
858,6	-0,002
859	-0,002
859,4	-0,003
859,9	-0,003
860,3	-0,003
860,7	-0,003
861,1	-0,003
861,6	-0,003
862	-0,002
862,4	-0,002
862,9	-0,002
863,3	-0,002
863,7	-0,002
864,1	-0,002
864,6	-0,002
865	-0,002
865,4	-0,002
865,9	-0,002
866,3	-0,002
866,7	-0,002
867,1	-0,002
867,6	-0,002
868	-0,002
868,4	-0,002
868,8	-0,002
869,3	-0,002
869,7	-0,002
870,1	-0,002
870,6	-0,003
871	-0,002
871,4	-0,003
871,8	-0,003
872,3	-0,003
872,7	-0,003
873,1	-0,003
873,5	-0,002
874	-0,002
874,4	-0,002
874,8	-0,002
875,3	-0,002
875,7	-0,002
876,1	-0,002
876,5	-0,002
877	-0,002
877,4	-0,002
877,8	-0,002
878,2	-0,002
878,7	-0,002
879,1	-0,002
879,5	-0,002
879,9	-0,002
880,4	-0,002
880,8	-0,002
881,2	-0,002
881,7	-0,002
882,1	-0,002
882,5	-0,002
882,9	-0,003
883,4	-0,003
883,8	-0,003
884,2	-0,003
884,6	-0,003
885,1	-0,003
885,5	-0,003
885,9	-0,002
886,3	-0,002
886,8	-0,002
887,2	-0,002
887,6	-0,003
888	-0,003
888,5	-0,003
888,9	-0,003
889,3	-0,002
889,8	-0,002
890,2	-0,002
890,6	-0,002
891	-0,002
891,5	-0,002
891,9	-0,002
892,3	-0,002
892,7	-0,002
893,2	-0,002
893,6	-0,002
894	-0,002
894,4	-0,002
894,9	-0,002
895,3	-0,002
895,7	-0,002
896,1	-0,001
896,6	-0,001
897	-0,001
897,4	-0,001
897,8	-0,001
898,3	-0,002
898,7	-0,002
899,1	-0,002
899,5	-0,002
900	-0,003
900,4	-0,003
900,8	-0,003
901,2	-0,002
901,7	-0,002
902,1	-0,002
902,5	-0,002
902,9	-0,002
903,4	-0,002
903,8	-0,002
904,2	-0,002
904,6	-0,003
905,1	-0,002
905,5	-0,002
905,9	-0,002
906,3	-0,002
906,8	-0,002
907,2	-0,001
907,6	-0,002
908	-0,002
908,5	-0,002
908,9	-0,001
909,3	-0,001
909,7	-0,002
910,2	-0,002
910,6	-0,002
911	-0,002
911,4	-0,002
911,9	-0,002
912,3	-0,002
912,7	-0,002
913,1	-0,002
913,6	-0,002
914	-0,002
914,4	-0,002
914,8	-0,002
915,3	-0,002
915,7	-0,002
916,1	-0,002
916,5	-0,002
916,9	-0,002
917,4	-0,002
917,8	-0,002
918,2	-0,002
918,6	-0,002
919,1	-0,002
919,5	-0,002
919,9	-0,002
920,3	-0,002
920,8	-0,003
921,2	-0,003
921,6	-0,003
922	-0,003
922,5	-0,002
922,9	-0,002
923,3	-0,002
923,7	-0,001
924,2	-0,001
924,6	-0
925	-0,001
925,4	-0,001
925,8	-0,001
926,3	-0,001
926,7	-0,001
927,1	-0,002
927,5	-0,002
928	-0,002
928,4	-0,002
928,8	-0,002
929,2	-0,002
929,7	-0,002
930,1	-0,002
930,5	-0,003
930,9	-0,003
931,3	-0,003
931,8	-0,003
932,2	-0,002
932,6	-0,002
933	-0,002
933,5	-0,002
933,9	-0,002
934,3	-0,002
934,7	-0,002
935,2	-0,002
935,6	-0,002
936	-0,001
936,4	-0,001
936,8	-0,002
937,3	-0,002
937,7	-0,002
938,1	-0,002
938,5	-0,002
939	-0,002
939,4	-0,002
939,8	-0,002
940,2	-0,002
940,6	-0,002
941,1	-0,002
941,5	-0,002
941,9	-0,002
942,3	-0,002
942,8	-0,002
943,2	-0,001
943,6	-0,001
944	-0,001
944,4	-0,001
944,9	-0,001
945,3	-0,002
945,7	-0,002
946,1	-0,003
946,6	-0,003
947	-0,003
947,4	-0,003
947,8	-0,003
948,2	-0,002
948,7	-0,002
949,1	-0,002
949,5	-0,002
949,9	-0,002
950,3	-0,001
950,8	-0,001
951,2	-0,002
951,6	-0,002
952	-0,002
952,5	-0,002
952,9	-0,002
953,3	-0,002
953,7	-0,002
954,1	-0,001
954,6	-0,001
955	-0,002
955,4	-0,002
955,8	-0,002
956,2	-0,003
956,7	-0,003
957,1	-0,003
957,5	-0,003
957,9	-0,003
958,3	-0,003
958,8	-0,003
959,2	-0,002
959,6	-0,002
960	-0,001
960,5	-0
960,9	-0
961,3	-0
961,7	-0,001
962,1	-0,001
962,6	-0
963	-0,001
963,4	-0,001
963,8	-0,002
964,2	-0,002
964,7	-0,001
965,1	-0,002
965,5	-0,002
965,9	-0,001
966,3	-0,001
966,8	-0,001
967,2	-0,001
967,6	-0,001
968	-0,001
968,4	-0,001
968,9	-0,001
969,3	-0,001
969,7	-0,001
970,1	-0,002
970,5	-0,002
971	-0,002
971,4	-0,002
971,8	-0,002
972,2	-0,002
972,6	-0,002
973,1	-0,002
973,5	-0,002
973,9	-0,002
974,3	-0,002
974,7	-0,002
975,2	-0,002
975,6	-0,001
976	-0,002
976,4	-0,002
976,8	-0,001
977,3	-0
977,7	-0,001
978,1	-0
978,5	-0
978,9	-0
979,4	0
979,8	-0
980,2	-0,001
980,6	-0,001
981	-0,001
981,5	-0,001
981,9	-0,001
982,3	-0,001
982,7	-0,001
983,1	-0,001
983,6	-0,001
984	-0,001
984,4	-0,001
984,8	-0,001
985,2	-0,002
985,6	-0,001
986,1	-0,001
986,5	-0,001
986,9	-0,001
987,3	-0,001
987,7	-0,001
988,2	-0,001
988,6	-0,001
989	-0,001
989,4	-0,002
989,8	-0,002
990,3	-0,002
990,7	-0,002
991,1	-0,001
991,5	-0,002
991,9	-0,002
992,3	-0,002
992,8	-0,002
993,2	-0,002
993,6	-0,002
994	-0,003
994,4	-0,002
994,9	-0,002
995,3	-0,001
995,7	-0,001
996,1	-0
996,5	-0
996,9	-0
997,4	-0,001
997,8	-0,001
998,2	-0,001
998,6	-0,002
999	-0,002
999,5	-0,002
999,9	-0,002
1000,3	-0,002
1000,7	-0,002
1001,1	-0,002
1001,5	-0,002
1002	-0,002
1002,4	-0,002
1002,8	-0,002
1003,2	-0,002
1003,6	-0,002
1004	-0,003
1004,5	-0,002
1004,9	-0,002
1005,3	-0,002
1005,7	-0,002
1006,1	-0,002
1006,6	-0,002
1007	-0,001
1007,4	-0,001
1007,8	-0,002
1008,2	-0,002
1008,6	-0,002
1009,1	-0,002
1009,5	-0,002
1009,9	-0,003
1010,3	-0,003
1010,7	-0,003
1011,1	-0,003
1011,6	-0,003
1012	-0,004
1012,4	-0,003
1012,8	-0,003
1013,2	-0,002
1013,6	-0,002
1014,1	-0,002
1014,5	-0,002
1014,9	-0,001
1015,3	-0,001
1015,7	-0,002
1016,1	-0,002
1016,6	-0,002
1017	-0,002
1017,4	-0,002
1017,8	-0,002
1018,2	-0,002
1018,6	-0,002
1019,1	-0,002
1019,5	-0,002
1019,9	-0,002
1020,3	-0,002
1020,7	-0,003
1021,1	-0,002
1021,6	-0,002
1022	-0,003
1022,4	-0,003
1022,8	-0,003
1023,2	-0,003
1023,6	-0,002
1024,1	-0,003
1024,5	-0,003
1024,9	-0,002
1025,3	-0,002
1025,7	-0,001
1026,1	-0,001
1026,6	-0,001
1027	-0,001
1027,4	-0,001
1027,8	-0,001
1028,2	-0,002
1028,6	-0,002
1029	-0,002
1029,5	-0,002
1029,9	-0,002
1030,3	-0,001
1030,7	-0,001
1031,1	-0,001
1031,5	-0
1032	-0,001
1032,4	-0,001
1032,8	-0,001
1033,2	-0,001
1033,6	-0,002
1034	-0,002
1034,4	-0,003
1034,9	-0,002
1035,3	-0,003
1035,7	-0,003
1036,1	-0,003
1036,5	-0,003
1036,9	-0,003
1037,4	-0,004
1037,8	-0,004
1038,2	-0,004
1038,6	-0,005
1039	-0,005
1039,4	-0,004
1039,8	-0,004
1040,3	-0,004
1040,7	-0,004
1041,1	-0,003
1041,5	-0,002
1041,9	-0,002
1042,3	-0,002
1042,7	-0,002
1043,2	-0,002
1043,6	-0,002
1044	-0,003
1044,4	-0,002
1044,8	-0,003
1045,2	-0,003
1045,6	-0,002
1046,1	-0,003
1046,5	-0,002
1046,9	-0,002
1047,3	-0,002
1047,7	-0,002
1048,1	-0,002
1048,5	-0,003
1049	-0,003
1049,4	-0,003
1049,8	-0,003
1050,2	-0,003
1050,6	-0,004
1051	-0,004
1051,4	-0,004
1051,9	-0,004
1052,3	-0,005
1052,7	-0,004
1053,1	-0,005
1053,5	-0,004
1053,9	-0,004
1054,3	-0,003
1054,8	-0,003
1055,2	-0,003
1055,6	-0,004
1056	-0,003
1056,4	-0,003
1056,8	-0,003
1057,2	-0,005
1057,6	-0,004
1058,1	-0,003
1058,5	-0,003
1058,9	-0,004
1059,3	-0,003
1059,7	-0,003
1060,1	-0,002
1060,5	-0,003
1061	-0,002
1061,4	-0,001
1061,8	-0,001
1062,2	-0,002
1062,6	-0,002
1063	-0,002
1063,4	-0,002
1063,8	-0,002
1064,3	-0,004
1064,7	-0,004
1065,1	-0,003
1065,5	-0,003
1065,9	-0,003
1066,3	-0,003
1066,7	-0,003
1067,1	-0,003
1067,6	-0,004
1068	-0,004
1068,4	-0,004
1068,8	-0,005
1069,2	-0,005
1069,6	-0,006
1070	-0,005
1070,4	-0,005
1070,9	-0,005
1071,3	-0,005
1071,7	-0,004
1072,1	-0,004
1072,5	-0,003
1072,9	-0,002
1073,3	-0,003
1073,7	-0,002
1074,2	-0,002
1074,6	-0,003
1075	-0,004
1075,4	-0,004
1075,8	-0,004
1076,2	-0,005
1076,6	-0,006
1077	-0,006
1077,5	-0,004
1077,9	-0,004
1078,3	-0,004
1078,7	-0,004
1079,1	-0,004
1079,5	-0,005
1079,9	-0,005
1080,3	-0,006
1080,7	-0,007
1081,2	-0,007
1081,6	-0,007
1082	-0,006
1082,4	-0,005
1082,8	-0,004
1083,2	-0,004
1083,6	-0,001
1084	-0,001
1084,5	-0
1084,9	-0
1085,3	0,001
1085,7	0,001
1086,1	0,001
1086,5	-0,001
1086,9	-0,002
1087,3	-0,002
1087,7	-0,003
1088,2	-0,003
1088,6	-0,004
1089	-0,006
1089,4	-0,005
1089,8	-0,004
1090,2	-0,004
1090,6	-0,004
1091	-0,008
1091,4	-0,008
1091,9	-0,008
1092,3	-0,005
1092,7	-0,006
1093,1	-0,008
1093,5	-0,005
1093,9	-0,004
1094,3	-0,001
1094,7	-0,001
1095,1	-0,003
1095,5	-0,002
1096	0,002
1096,4	0,001
1096,8	0,002
1097,2	-0,005
1097,6	-0,004
1098	-0,004
1098,4	-0
1098,8	-0
1099,2	-0,001
1099,6	0,003
1100,1	0,004
1100,5	0,002
1100,9	-0,007
1101,3	-0,021
1101,7	-0,022
1102,1	-0,024
1102,5	-0,023
1102,9	-0,018
1103,3	-0,019
1103,7	-0,012
1104,2	0,003
1104,6	-0,001
1105	-0,001
1105,4	-0,005
1105,8	-0,01
1106,2	-0,001
1106,6	-0,004
1107	-0,028
1107,4	-0,028
1107,8	-0,06
1108,3	0,203
