Data from Absorbance_00010.txt Node
Date: Thu Aug 24 15:51:46 MSK 2023
User: vat
Spectrometer: MAYP114033
Trigger mode: 0
Integration Time (sec): 8,000000E-3
Scans to average: 10
Electric dark correction enabled: true
Nonlinearity correction enabled: false
Boxcar width: 3
XAxis mode: Wavelengths
Number of Pixels in Spectrum: 2068
>>>>>Begin Spectral Data<<<<<
199,4	0,994
199,9	0,255
200,4	0,435
200,8	0,7
201,3	0,769
201,8	0,812
202,2	0,835
202,7	0,851
203,2	0,862
203,6	0,868
204,1	0,877
204,6	0,894
205	0,903
205,5	0,921
206	0,93
206,4	0,958
206,9	0,972
207,4	0,996
207,8	0,998
208,3	1,016
208,8	1,013
209,2	1,03
209,7	1,028
210,2	1,043
210,6	1,048
211,1	1,055
211,5	1,055
212	1,064
212,5	1,061
212,9	1,066
213,4	1,062
213,9	1,054
214,3	1,051
214,8	1,047
215,3	1,031
215,7	1,018
216,2	1,014
216,7	0,997
217,1	0,981
217,6	0,957
218,1	0,931
218,5	0,911
219	0,879
219,5	0,842
219,9	0,807
220,4	0,774
220,9	0,741
221,3	0,706
221,8	0,675
222,3	0,644
222,7	0,616
223,2	0,589
223,6	0,56
224,1	0,536
224,6	0,514
225	0,493
225,5	0,474
226	0,457
226,4	0,443
226,9	0,427
227,4	0,412
227,8	0,398
228,3	0,387
228,8	0,377
229,2	0,367
229,7	0,359
230,2	0,354
230,6	0,35
231,1	0,344
231,5	0,337
232	0,332
232,5	0,329
232,9	0,323
233,4	0,319
233,9	0,316
234,3	0,314
234,8	0,314
235,3	0,314
235,7	0,314
236,2	0,316
236,7	0,318
237,1	0,32
237,6	0,323
238,1	0,327
238,5	0,33
239	0,333
239,4	0,336
239,9	0,341
240,4	0,347
240,8	0,352
241,3	0,359
241,8	0,366
242,2	0,374
242,7	0,383
243,2	0,39
243,6	0,398
244,1	0,407
244,6	0,413
245	0,422
245,5	0,432
245,9	0,441
246,4	0,451
246,9	0,462
247,3	0,471
247,8	0,483
248,3	0,493
248,7	0,502
249,2	0,513
249,7	0,523
250,1	0,533
250,6	0,543
251	0,553
251,5	0,563
252	0,574
252,4	0,583
252,9	0,593
253,4	0,603
253,8	0,612
254,3	0,621
254,8	0,627
255,2	0,634
255,7	0,639
256,1	0,643
256,6	0,646
257,1	0,651
257,5	0,654
258	0,657
258,5	0,659
258,9	0,662
259,4	0,663
259,9	0,665
260,3	0,664
260,8	0,665
261,2	0,663
261,7	0,66
262,2	0,655
262,6	0,652
263,1	0,646
263,6	0,641
264	0,634
264,5	0,627
264,9	0,62
265,4	0,612
265,9	0,601
266,3	0,591
266,8	0,58
267,3	0,567
267,7	0,554
268,2	0,54
268,7	0,524
269,1	0,51
269,6	0,495
270	0,478
270,5	0,462
271	0,446
271,4	0,428
271,9	0,411
272,4	0,393
272,8	0,376
273,3	0,359
273,7	0,343
274,2	0,327
274,7	0,312
275,1	0,297
275,6	0,283
276,1	0,269
276,5	0,255
277	0,242
277,4	0,229
277,9	0,217
278,4	0,205
278,8	0,193
279,3	0,181
279,8	0,171
280,2	0,16
280,7	0,15
281,1	0,141
281,6	0,132
282,1	0,123
282,5	0,116
283	0,109
283,4	0,103
283,9	0,097
284,4	0,09
284,8	0,085
285,3	0,082
285,8	0,079
286,2	0,075
286,7	0,073
287,1	0,071
287,6	0,069
288,1	0,067
288,5	0,065
289	0,064
289,5	0,063
289,9	0,062
290,4	0,061
290,8	0,061
291,3	0,06
291,8	0,06
292,2	0,059
292,7	0,058
293,1	0,057
293,6	0,057
294,1	0,058
294,5	0,058
295	0,058
295,5	0,058
295,9	0,058
296,4	0,057
296,8	0,056
297,3	0,056
297,8	0,055
298,2	0,055
298,7	0,055
299,1	0,055
299,6	0,054
300,1	0,055
300,5	0,055
301	0,055
301,5	0,055
301,9	0,054
302,4	0,054
302,8	0,054
303,3	0,053
303,8	0,052
304,2	0,052
304,7	0,051
305,1	0,051
305,6	0,051
306,1	0,051
306,5	0,051
307	0,051
307,4	0,05
307,9	0,05
308,4	0,049
308,8	0,048
309,3	0,048
309,8	0,047
310,2	0,047
310,7	0,046
311,1	0,046
311,6	0,046
312,1	0,045
312,5	0,044
313	0,044
313,4	0,044
313,9	0,044
314,4	0,043
314,8	0,042
315,3	0,042
315,7	0,041
316,2	0,04
316,7	0,04
317,1	0,038
317,6	0,038
318	0,038
318,5	0,038
319	0,038
319,4	0,037
319,9	0,036
320,3	0,036
320,8	0,035
321,3	0,035
321,7	0,034
322,2	0,034
322,6	0,033
323,1	0,033
323,6	0,031
324	0,031
324,5	0,029
324,9	0,028
325,4	0,027
325,9	0,026
326,3	0,025
326,8	0,025
327,2	0,025
327,7	0,025
328,2	0,024
328,6	0,024
329,1	0,023
329,5	0,023
330	0,022
330,5	0,021
330,9	0,02
331,4	0,019
331,8	0,019
332,3	0,018
332,8	0,018
333,2	0,018
333,7	0,017
334,1	0,017
334,6	0,016
335,1	0,016
335,5	0,016
336	0,015
336,4	0,014
336,9	0,014
337,4	0,014
337,8	0,013
338,3	0,012
338,7	0,011
339,2	0,011
339,7	0,01
340,1	0,009
340,6	0,009
341	0,009
341,5	0,009
342	0,008
342,4	0,008
342,9	0,008
343,3	0,007
343,8	0,006
344,2	0,006
344,7	0,005
345,2	0,005
345,6	0,004
346,1	0,005
346,5	0,004
347	0,003
347,5	0,003
347,9	0,003
348,4	0,002
348,8	0,001
349,3	0
349,8	0
350,2	0
350,7	-0
351,1	-0
351,6	-0
352	-0
352,5	-0
353	-0,001
353,4	-0,001
353,9	-0,002
354,3	-0,002
354,8	-0,002
355,3	-0,002
355,7	-0,002
356,2	-0,003
356,6	-0,003
357,1	-0,003
357,5	-0,003
358	-0,004
358,5	-0,005
358,9	-0,005
359,4	-0,005
359,8	-0,006
360,3	-0,006
360,8	-0,006
361,2	-0,006
361,7	-0,006
362,1	-0,006
362,6	-0,007
363	-0,007
363,5	-0,007
364	-0,007
364,4	-0,007
364,9	-0,006
365,3	-0,006
365,8	-0,006
366,3	-0,005
366,7	-0,006
367,2	-0,006
367,6	-0,006
368,1	-0,007
368,5	-0,007
369	-0,007
369,5	-0,008
369,9	-0,009
370,4	-0,01
370,8	-0,011
371,3	-0,01
371,7	-0,011
372,2	-0,011
372,7	-0,01
373,1	-0,011
373,6	-0,01
374	-0,01
374,5	-0,01
374,9	-0,011
375,4	-0,011
375,9	-0,012
376,3	-0,011
376,8	-0,011
377,2	-0,012
377,7	-0,011
378,2	-0,011
378,6	-0,011
379,1	-0,011
379,5	-0,011
380	-0,011
380,4	-0,011
380,9	-0,012
381,4	-0,012
381,8	-0,012
382,3	-0,012
382,7	-0,013
383,2	-0,013
383,6	-0,014
384,1	-0,013
384,6	-0,013
385	-0,013
385,5	-0,013
385,9	-0,013
386,4	-0,013
386,8	-0,012
387,3	-0,012
387,7	-0,013
388,2	-0,013
388,7	-0,013
389,1	-0,013
389,6	-0,013
390	-0,013
390,5	-0,013
390,9	-0,013
391,4	-0,014
391,9	-0,014
392,3	-0,014
392,8	-0,015
393,2	-0,015
393,7	-0,014
394,1	-0,014
394,6	-0,014
395,1	-0,014
395,5	-0,013
396	-0,013
396,4	-0,013
396,9	-0,013
397,3	-0,013
397,8	-0,012
398,2	-0,013
398,7	-0,013
399,2	-0,013
399,6	-0,014
400,1	-0,014
400,5	-0,015
401	-0,015
401,4	-0,015
401,9	-0,015
402,4	-0,015
402,8	-0,015
403,3	-0,015
403,7	-0,014
404,2	-0,015
404,6	-0,015
405,1	-0,015
405,5	-0,015
406	-0,015
406,5	-0,015
406,9	-0,015
407,4	-0,015
407,8	-0,015
408,3	-0,015
408,7	-0,014
409,2	-0,014
409,6	-0,013
410,1	-0,013
410,6	-0,013
411	-0,013
411,5	-0,013
411,9	-0,014
412,4	-0,014
412,8	-0,014
413,3	-0,014
413,7	-0,015
414,2	-0,015
414,7	-0,014
415,1	-0,014
415,6	-0,014
416	-0,014
416,5	-0,014
416,9	-0,015
417,4	-0,015
417,8	-0,016
418,3	-0,015
418,8	-0,014
419,2	-0,015
419,7	-0,015
420,1	-0,014
420,6	-0,014
421	-0,013
421,5	-0,013
421,9	-0,014
422,4	-0,013
422,8	-0,013
423,3	-0,013
423,8	-0,013
424,2	-0,013
424,7	-0,014
425,1	-0,014
425,6	-0,014
426	-0,014
426,5	-0,014
426,9	-0,014
427,4	-0,014
427,9	-0,014
428,3	-0,014
428,8	-0,014
429,2	-0,014
429,7	-0,015
430,1	-0,015
430,6	-0,015
431	-0,015
431,5	-0,015
431,9	-0,015
432,4	-0,014
432,8	-0,014
433,3	-0,014
433,8	-0,014
434,2	-0,015
434,7	-0,015
435,1	-0,015
435,6	-0,015
436	-0,015
436,5	-0,015
436,9	-0,015
437,4	-0,015
437,8	-0,015
438,3	-0,015
438,8	-0,016
439,2	-0,016
439,7	-0,016
440,1	-0,015
440,6	-0,015
441	-0,015
441,5	-0,015
441,9	-0,015
442,4	-0,015
442,8	-0,015
443,3	-0,015
443,7	-0,015
444,2	-0,015
444,7	-0,016
445,1	-0,016
445,6	-0,016
446	-0,016
446,5	-0,016
446,9	-0,015
447,4	-0,015
447,8	-0,015
448,3	-0,014
448,7	-0,014
449,2	-0,013
449,6	-0,014
450,1	-0,014
450,6	-0,014
451	-0,014
451,5	-0,014
451,9	-0,014
452,4	-0,015
452,8	-0,014
453,3	-0,015
453,7	-0,015
454,2	-0,015
454,6	-0,015
455,1	-0,015
455,5	-0,015
456	-0,015
456,4	-0,014
456,9	-0,015
457,3	-0,014
457,8	-0,014
458,3	-0,014
458,7	-0,014
459,2	-0,015
459,6	-0,015
460,1	-0,015
460,5	-0,015
461	-0,015
461,4	-0,014
461,9	-0,013
462,3	-0,013
462,8	-0,013
463,2	-0,014
463,7	-0,014
464,1	-0,014
464,6	-0,015
465	-0,015
465,5	-0,015
466	-0,014
466,4	-0,014
466,9	-0,014
467,3	-0,014
467,8	-0,014
468,2	-0,014
468,7	-0,015
469,1	-0,015
469,6	-0,015
470	-0,015
470,5	-0,015
470,9	-0,015
471,4	-0,015
471,8	-0,014
472,3	-0,014
472,7	-0,014
473,2	-0,014
473,6	-0,014
474,1	-0,014
474,5	-0,015
475	-0,015
475,4	-0,015
475,9	-0,015
476,4	-0,015
476,8	-0,014
477,3	-0,014
477,7	-0,014
478,2	-0,014
478,6	-0,014
479,1	-0,014
479,5	-0,014
480	-0,014
480,4	-0,014
480,9	-0,014
481,3	-0,014
481,8	-0,014
482,2	-0,014
482,7	-0,014
483,1	-0,015
483,6	-0,015
484	-0,015
484,5	-0,015
484,9	-0,015
485,4	-0,014
485,8	-0,013
486,3	-0,013
486,7	-0,013
487,2	-0,013
487,6	-0,013
488,1	-0,012
488,5	-0,013
489	-0,013
489,4	-0,013
489,9	-0,013
490,4	-0,013
490,8	-0,014
491,3	-0,014
491,7	-0,013
492,2	-0,013
492,6	-0,013
493,1	-0,013
493,5	-0,013
494	-0,014
494,4	-0,014
494,9	-0,014
495,3	-0,015
495,8	-0,014
496,2	-0,015
496,7	-0,015
497,1	-0,014
497,6	-0,013
498	-0,013
498,5	-0,013
498,9	-0,013
499,4	-0,013
499,8	-0,013
500,3	-0,013
500,7	-0,013
501,2	-0,013
501,6	-0,014
502,1	-0,014
502,5	-0,014
503	-0,014
503,4	-0,015
503,9	-0,015
504,3	-0,015
504,8	-0,014
505,2	-0,014
505,7	-0,015
506,1	-0,014
506,6	-0,013
507	-0,013
507,5	-0,013
507,9	-0,013
508,4	-0,013
508,8	-0,013
509,3	-0,013
509,7	-0,013
510,2	-0,013
510,6	-0,014
511,1	-0,014
511,5	-0,014
512	-0,013
512,4	-0,013
512,9	-0,013
513,3	-0,013
513,8	-0,013
514,2	-0,013
514,7	-0,013
515,1	-0,013
515,6	-0,013
516	-0,013
516,5	-0,014
516,9	-0,014
517,4	-0,014
517,8	-0,013
518,3	-0,013
518,7	-0,013
519,2	-0,014
519,6	-0,014
520,1	-0,013
520,5	-0,013
521	-0,013
521,4	-0,014
521,9	-0,013
522,3	-0,013
522,8	-0,013
523,2	-0,013
523,7	-0,013
524,1	-0,013
524,6	-0,013
525	-0,013
525,5	-0,013
525,9	-0,014
526,4	-0,014
526,8	-0,014
527,3	-0,013
527,7	-0,013
528,2	-0,013
528,6	-0,013
529,1	-0,012
529,5	-0,012
530	-0,012
530,4	-0,013
530,9	-0,012
531,3	-0,011
531,8	-0,012
532,2	-0,012
532,6	-0,012
533,1	-0,012
533,5	-0,013
534	-0,014
534,4	-0,014
534,9	-0,013
535,3	-0,013
535,8	-0,013
536,2	-0,013
536,7	-0,012
537,1	-0,012
537,6	-0,012
538	-0,012
538,5	-0,012
538,9	-0,013
539,4	-0,012
539,8	-0,013
540,3	-0,013
540,7	-0,013
541,2	-0,013
541,6	-0,013
542,1	-0,012
542,5	-0,013
543	-0,013
543,4	-0,012
543,9	-0,012
544,3	-0,012
544,8	-0,012
545,2	-0,012
545,7	-0,012
546,1	-0,012
546,5	-0,013
547	-0,012
547,4	-0,013
547,9	-0,013
548,3	-0,012
548,8	-0,012
549,2	-0,013
549,7	-0,013
550,1	-0,013
550,6	-0,013
551	-0,012
551,5	-0,012
551,9	-0,012
552,4	-0,012
552,8	-0,012
553,3	-0,012
553,7	-0,012
554,2	-0,013
554,6	-0,013
555,1	-0,013
555,5	-0,013
555,9	-0,013
556,4	-0,012
556,8	-0,012
557,3	-0,012
557,7	-0,011
558,2	-0,011
558,6	-0,01
559,1	-0,011
559,5	-0,011
560	-0,011
560,4	-0,011
560,9	-0,012
561,3	-0,012
561,8	-0,012
562,2	-0,012
562,7	-0,011
563,1	-0,012
563,6	-0,012
564	-0,011
564,4	-0,012
564,9	-0,012
565,3	-0,011
565,8	-0,011
566,2	-0,012
566,7	-0,011
567,1	-0,012
567,6	-0,012
568	-0,011
568,5	-0,011
568,9	-0,011
569,4	-0,011
569,8	-0,01
570,3	-0,01
570,7	-0,01
571,1	-0,011
571,6	-0,011
572	-0,011
572,5	-0,011
572,9	-0,011
573,4	-0,011
573,8	-0,011
574,3	-0,011
574,7	-0,011
575,2	-0,011
575,6	-0,011
576,1	-0,011
576,5	-0,011
576,9	-0,011
577,4	-0,011
577,8	-0,011
578,3	-0,011
578,7	-0,011
579,2	-0,011
579,6	-0,011
580,1	-0,011
580,5	-0,011
581	-0,01
581,4	-0,01
581,9	-0,01
582,3	-0,01
582,7	-0,011
583,2	-0,01
583,6	-0,01
584,1	-0,011
584,5	-0,01
585	-0,01
585,4	-0,01
585,9	-0,01
586,3	-0,01
586,8	-0,01
587,2	-0,01
587,6	-0,01
588,1	-0,01
588,5	-0,01
589	-0,01
589,4	-0,01
589,9	-0,01
590,3	-0,01
590,8	-0,01
591,2	-0,01
591,7	-0,01
592,1	-0,01
592,5	-0,01
593	-0,01
593,4	-0,01
593,9	-0,01
594,3	-0,009
594,8	-0,009
595,2	-0,009
595,7	-0,01
596,1	-0,01
596,6	-0,01
597	-0,01
597,4	-0,01
597,9	-0,01
598,3	-0,01
598,8	-0,01
599,2	-0,01
599,7	-0,01
600,1	-0,01
600,6	-0,01
601	-0,01
601,4	-0,011
601,9	-0,01
602,3	-0,01
602,8	-0,01
603,2	-0,01
603,7	-0,01
604,1	-0,01
604,6	-0,01
605	-0,01
605,4	-0,01
605,9	-0,01
606,3	-0,009
606,8	-0,01
607,2	-0,01
607,7	-0,01
608,1	-0,01
608,6	-0,01
609	-0,01
609,4	-0,01
609,9	-0,01
610,3	-0,01
610,8	-0,01
611,2	-0,01
611,7	-0,01
612,1	-0,01
612,6	-0,009
613	-0,009
613,4	-0,009
613,9	-0,009
614,3	-0,009
614,8	-0,009
615,2	-0,009
615,7	-0,009
616,1	-0,009
616,6	-0,009
617	-0,009
617,4	-0,009
617,9	-0,009
618,3	-0,009
618,8	-0,009
619,2	-0,009
619,7	-0,009
620,1	-0,01
620,5	-0,01
621	-0,01
621,4	-0,01
621,9	-0,01
622,3	-0,01
622,8	-0,011
623,2	-0,011
623,6	-0,01
624,1	-0,01
624,5	-0,01
625	-0,01
625,4	-0,01
625,9	-0,01
626,3	-0,009
626,8	-0,009
627,2	-0,01
627,6	-0,01
628,1	-0,009
628,5	-0,009
629	-0,01
629,4	-0,01
629,9	-0,01
630,3	-0,01
630,7	-0,01
631,2	-0,01
631,6	-0,01
632,1	-0,01
632,5	-0,01
633	-0,009
633,4	-0,009
633,8	-0,009
634,3	-0,009
634,7	-0,009
635,2	-0,009
635,6	-0,009
636,1	-0,01
636,5	-0,01
636,9	-0,01
637,4	-0,009
637,8	-0,009
638,3	-0,009
638,7	-0,01
639,2	-0,009
639,6	-0,009
640	-0,01
640,5	-0,01
640,9	-0,01
641,4	-0,01
641,8	-0,009
642,2	-0,009
642,7	-0,009
643,1	-0,009
643,6	-0,009
644	-0,009
644,5	-0,009
644,9	-0,009
645,3	-0,009
645,8	-0,009
646,2	-0,009
646,7	-0,009
647,1	-0,009
647,6	-0,01
648	-0,01
648,4	-0,01
648,9	-0,01
649,3	-0,01
649,8	-0,01
650,2	-0,01
650,6	-0,009
651,1	-0,009
651,5	-0,009
652	-0,008
652,4	-0,008
652,9	-0,009
653,3	-0,009
653,7	-0,009
654,2	-0,009
654,6	-0,01
655,1	-0,009
655,5	-0,005
655,9	-0,003
656,4	-0,002
656,8	-0,003
657,3	-0,003
657,7	-0,002
658,2	-0,002
658,6	-0,003
659	-0,004
659,5	-0,007
659,9	-0,008
660,4	-0,008
660,8	-0,009
661,2	-0,009
661,7	-0,009
662,1	-0,009
662,6	-0,009
663	-0,009
663,4	-0,009
663,9	-0,009
664,3	-0,009
664,8	-0,01
665,2	-0,009
665,6	-0,009
666,1	-0,009
666,5	-0,009
667	-0,009
667,4	-0,009
667,9	-0,008
668,3	-0,009
668,7	-0,009
669,2	-0,009
669,6	-0,009
670,1	-0,009
670,5	-0,009
670,9	-0,009
671,4	-0,009
671,8	-0,009
672,3	-0,009
672,7	-0,009
673,1	-0,008
673,6	-0,008
674	-0,008
674,5	-0,008
674,9	-0,008
675,3	-0,008
675,8	-0,008
676,2	-0,008
676,7	-0,008
677,1	-0,008
677,5	-0,008
678	-0,008
678,4	-0,008
678,9	-0,008
679,3	-0,008
679,7	-0,008
680,2	-0,008
680,6	-0,008
681,1	-0,009
681,5	-0,009
681,9	-0,009
682,4	-0,009
682,8	-0,009
683,3	-0,009
683,7	-0,009
684,1	-0,009
684,6	-0,008
685	-0,008
685,5	-0,008
685,9	-0,009
686,3	-0,009
686,8	-0,009
687,2	-0,009
687,7	-0,009
688,1	-0,009
688,5	-0,009
689	-0,009
689,4	-0,008
689,9	-0,008
690,3	-0,009
690,7	-0,009
691,2	-0,008
691,6	-0,009
692	-0,009
692,5	-0,009
692,9	-0,009
693,4	-0,009
693,8	-0,009
694,2	-0,009
694,7	-0,008
695,1	-0,008
695,6	-0,008
696	-0,008
696,4	-0,008
696,9	-0,008
697,3	-0,008
697,8	-0,008
698,2	-0,008
698,6	-0,008
699,1	-0,008
699,5	-0,009
699,9	-0,009
700,4	-0,008
700,8	-0,008
701,3	-0,008
701,7	-0,008
702,1	-0,008
702,6	-0,008
703	-0,008
703,5	-0,008
703,9	-0,008
704,3	-0,008
704,8	-0,008
705,2	-0,008
705,6	-0,008
706,1	-0,009
706,5	-0,009
707	-0,009
707,4	-0,008
707,8	-0,008
708,3	-0,008
708,7	-0,008
709,2	-0,008
709,6	-0,008
710	-0,008
710,5	-0,008
710,9	-0,008
711,3	-0,008
711,8	-0,008
712,2	-0,007
712,7	-0,007
713,1	-0,008
713,5	-0,008
714	-0,008
714,4	-0,008
714,8	-0,008
715,3	-0,008
715,7	-0,008
716,2	-0,008
716,6	-0,008
717	-0,008
717,5	-0,008
717,9	-0,008
718,3	-0,008
718,8	-0,008
719,2	-0,009
719,7	-0,009
720,1	-0,009
720,5	-0,009
721	-0,009
721,4	-0,009
721,8	-0,009
722,3	-0,009
722,7	-0,009
723,2	-0,009
723,6	-0,009
724	-0,009
724,5	-0,008
724,9	-0,008
725,3	-0,008
725,8	-0,008
726,2	-0,008
726,7	-0,008
727,1	-0,008
727,5	-0,008
728	-0,008
728,4	-0,008
728,8	-0,008
729,3	-0,008
729,7	-0,008
730,1	-0,008
730,6	-0,008
731	-0,008
731,5	-0,008
731,9	-0,008
732,3	-0,008
732,8	-0,008
733,2	-0,007
733,6	-0,008
734,1	-0,007
734,5	-0,008
734,9	-0,008
735,4	-0,008
735,8	-0,008
736,3	-0,009
736,7	-0,009
737,1	-0,009
737,6	-0,009
738	-0,008
738,4	-0,008
738,9	-0,008
739,3	-0,008
739,7	-0,008
740,2	-0,008
740,6	-0,008
741,1	-0,008
741,5	-0,008
741,9	-0,008
742,4	-0,008
742,8	-0,008
743,2	-0,008
743,7	-0,008
744,1	-0,008
744,5	-0,008
745	-0,008
745,4	-0,008
745,8	-0,008
746,3	-0,008
746,7	-0,008
747,2	-0,008
747,6	-0,008
748	-0,008
748,5	-0,008
748,9	-0,008
749,3	-0,008
749,8	-0,008
750,2	-0,008
750,6	-0,008
751,1	-0,008
751,5	-0,008
751,9	-0,008
752,4	-0,008
752,8	-0,008
753,3	-0,008
753,7	-0,008
754,1	-0,008
754,6	-0,007
755	-0,007
755,4	-0,007
755,9	-0,008
756,3	-0,007
756,7	-0,007
757,2	-0,007
757,6	-0,007
758	-0,007
758,5	-0,007
758,9	-0,007
759,3	-0,007
759,8	-0,007
760,2	-0,007
760,6	-0,007
761,1	-0,007
761,5	-0,007
761,9	-0,007
762,4	-0,006
762,8	-0,007
763,3	-0,007
763,7	-0,007
764,1	-0,007
764,6	-0,007
765	-0,007
765,4	-0,007
765,9	-0,007
766,3	-0,007
766,7	-0,007
767,2	-0,007
767,6	-0,007
768	-0,008
768,5	-0,008
768,9	-0,008
769,3	-0,008
769,8	-0,008
770,2	-0,008
770,6	-0,008
771,1	-0,008
771,5	-0,008
771,9	-0,008
772,4	-0,008
772,8	-0,008
773,2	-0,008
773,7	-0,008
774,1	-0,008
774,5	-0,008
775	-0,008
775,4	-0,008
775,8	-0,008
776,3	-0,008
776,7	-0,008
777,1	-0,008
777,6	-0,008
778	-0,008
778,4	-0,008
778,9	-0,008
779,3	-0,008
779,7	-0,008
780,2	-0,008
780,6	-0,008
781	-0,008
781,5	-0,008
781,9	-0,008
782,3	-0,007
782,8	-0,007
783,2	-0,007
783,6	-0,007
784,1	-0,007
784,5	-0,007
784,9	-0,007
785,4	-0,007
785,8	-0,007
786,2	-0,008
786,7	-0,008
787,1	-0,008
787,5	-0,008
788	-0,008
788,4	-0,008
788,8	-0,008
789,3	-0,008
789,7	-0,008
790,1	-0,007
790,6	-0,007
791	-0,008
791,4	-0,008
791,9	-0,008
792,3	-0,008
792,7	-0,008
793,2	-0,008
793,6	-0,008
794	-0,008
794,5	-0,008
794,9	-0,008
795,3	-0,008
795,8	-0,008
796,2	-0,008
796,6	-0,008
797,1	-0,008
797,5	-0,008
797,9	-0,008
798,4	-0,008
798,8	-0,007
799,2	-0,008
799,7	-0,008
800,1	-0,008
800,5	-0,007
801	-0,007
801,4	-0,007
801,8	-0,007
802,2	-0,007
802,7	-0,007
803,1	-0,007
803,5	-0,007
804	-0,007
804,4	-0,008
804,8	-0,008
805,3	-0,008
805,7	-0,008
806,1	-0,008
806,6	-0,008
807	-0,008
807,4	-0,008
807,9	-0,007
808,3	-0,007
808,7	-0,007
809,2	-0,007
809,6	-0,007
810	-0,007
810,4	-0,007
810,9	-0,007
811,3	-0,007
811,7	-0,007
812,2	-0,007
812,6	-0,006
813	-0,006
813,5	-0,006
813,9	-0,006
814,3	-0,007
814,8	-0,006
815,2	-0,006
815,6	-0,007
816,1	-0,007
816,5	-0,007
816,9	-0,007
817,3	-0,007
817,8	-0,007
818,2	-0,007
818,6	-0,007
819,1	-0,007
819,5	-0,007
819,9	-0,007
820,4	-0,007
820,8	-0,007
821,2	-0,007
821,7	-0,007
822,1	-0,007
822,5	-0,007
822,9	-0,007
823,4	-0,007
823,8	-0,008
824,2	-0,008
824,7	-0,008
825,1	-0,008
825,5	-0,008
826	-0,007
826,4	-0,007
826,8	-0,007
827,3	-0,007
827,7	-0,007
828,1	-0,007
828,5	-0,006
829	-0,007
829,4	-0,007
829,8	-0,007
830,3	-0,007
830,7	-0,007
831,1	-0,007
831,6	-0,007
832	-0,007
832,4	-0,007
832,8	-0,007
833,3	-0,007
833,7	-0,007
834,1	-0,007
834,6	-0,007
835	-0,007
835,4	-0,008
835,8	-0,008
836,3	-0,008
836,7	-0,008
837,1	-0,007
837,6	-0,007
838	-0,007
838,4	-0,007
838,9	-0,007
839,3	-0,007
839,7	-0,006
840,1	-0,007
840,6	-0,006
841	-0,006
841,4	-0,007
841,9	-0,007
842,3	-0,007
842,7	-0,007
843,1	-0,007
843,6	-0,007
844	-0,007
844,4	-0,007
844,9	-0,007
845,3	-0,007
845,7	-0,007
846,2	-0,007
846,6	-0,007
847	-0,008
847,4	-0,008
847,9	-0,008
848,3	-0,008
848,7	-0,007
849,2	-0,007
849,6	-0,007
850	-0,006
850,4	-0,006
850,9	-0,007
851,3	-0,006
851,7	-0,006
852,2	-0,006
852,6	-0,006
853	-0,006
853,4	-0,006
853,9	-0,006
854,3	-0,006
854,7	-0,007
855,2	-0,007
855,6	-0,007
856	-0,007
856,4	-0,007
856,9	-0,007
857,3	-0,007
857,7	-0,007
858,2	-0,007
858,6	-0,007
859	-0,007
859,4	-0,007
859,9	-0,007
860,3	-0,007
860,7	-0,007
861,1	-0,007
861,6	-0,007
862	-0,006
862,4	-0,006
862,9	-0,006
863,3	-0,007
863,7	-0,007
864,1	-0,007
864,6	-0,006
865	-0,006
865,4	-0,006
865,9	-0,006
866,3	-0,006
866,7	-0,006
867,1	-0,006
867,6	-0,007
868	-0,007
868,4	-0,007
868,8	-0,008
869,3	-0,007
869,7	-0,007
870,1	-0,007
870,6	-0,007
871	-0,007
871,4	-0,007
871,8	-0,007
872,3	-0,007
872,7	-0,007
873,1	-0,007
873,5	-0,007
874	-0,007
874,4	-0,007
874,8	-0,007
875,3	-0,007
875,7	-0,007
876,1	-0,007
876,5	-0,007
877	-0,007
877,4	-0,007
877,8	-0,007
878,2	-0,007
878,7	-0,007
879,1	-0,007
879,5	-0,007
879,9	-0,006
880,4	-0,007
880,8	-0,007
881,2	-0,007
881,7	-0,007
882,1	-0,008
882,5	-0,008
882,9	-0,008
883,4	-0,008
883,8	-0,008
884,2	-0,008
884,6	-0,008
885,1	-0,008
885,5	-0,007
885,9	-0,007
886,3	-0,007
886,8	-0,007
887,2	-0,007
887,6	-0,007
888	-0,007
888,5	-0,007
888,9	-0,007
889,3	-0,006
889,8	-0,006
890,2	-0,006
890,6	-0,006
891	-0,006
891,5	-0,006
891,9	-0,006
892,3	-0,006
892,7	-0,006
893,2	-0,006
893,6	-0,006
894	-0,006
894,4	-0,006
894,9	-0,006
895,3	-0,006
895,7	-0,006
896,1	-0,006
896,6	-0,006
897	-0,006
897,4	-0,007
897,8	-0,007
898,3	-0,008
898,7	-0,008
899,1	-0,008
899,5	-0,009
900	-0,009
900,4	-0,008
900,8	-0,008
901,2	-0,008
901,7	-0,007
902,1	-0,007
902,5	-0,007
902,9	-0,006
903,4	-0,006
903,8	-0,006
904,2	-0,006
904,6	-0,006
905,1	-0,006
905,5	-0,007
905,9	-0,006
906,3	-0,007
906,8	-0,007
907,2	-0,006
907,6	-0,006
908	-0,007
908,5	-0,007
908,9	-0,007
909,3	-0,007
909,7	-0,006
910,2	-0,007
910,6	-0,007
911	-0,007
911,4	-0,006
911,9	-0,006
912,3	-0,007
912,7	-0,007
913,1	-0,007
913,6	-0,007
914	-0,007
914,4	-0,007
914,8	-0,007
915,3	-0,007
915,7	-0,007
916,1	-0,007
916,5	-0,007
916,9	-0,007
917,4	-0,007
917,8	-0,007
918,2	-0,006
918,6	-0,007
919,1	-0,007
919,5	-0,007
919,9	-0,007
920,3	-0,007
920,8	-0,007
921,2	-0,007
921,6	-0,007
922	-0,007
922,5	-0,007
922,9	-0,007
923,3	-0,007
923,7	-0,007
924,2	-0,006
924,6	-0,006
925	-0,006
925,4	-0,006
925,8	-0,006
926,3	-0,006
926,7	-0,006
927,1	-0,007
927,5	-0,007
928	-0,006
928,4	-0,007
928,8	-0,007
929,2	-0,007
929,7	-0,007
930,1	-0,007
930,5	-0,007
930,9	-0,008
931,3	-0,007
931,8	-0,007
932,2	-0,007
932,6	-0,007
933	-0,006
933,5	-0,006
933,9	-0,006
934,3	-0,006
934,7	-0,006
935,2	-0,006
935,6	-0,006
936	-0,005
936,4	-0,006
936,8	-0,006
937,3	-0,006
937,7	-0,006
938,1	-0,006
938,5	-0,007
939	-0,007
939,4	-0,007
939,8	-0,007
940,2	-0,006
940,6	-0,006
941,1	-0,006
941,5	-0,006
941,9	-0,006
942,3	-0,006
942,8	-0,006
943,2	-0,006
943,6	-0,007
944	-0,007
944,4	-0,007
944,9	-0,007
945,3	-0,007
945,7	-0,007
946,1	-0,008
946,6	-0,008
947	-0,008
947,4	-0,007
947,8	-0,007
948,2	-0,007
948,7	-0,007
949,1	-0,006
949,5	-0,006
949,9	-0,006
950,3	-0,006
950,8	-0,006
951,2	-0,007
951,6	-0,006
952	-0,007
952,5	-0,006
952,9	-0,006
953,3	-0,006
953,7	-0,006
954,1	-0,006
954,6	-0,006
955	-0,007
955,4	-0,007
955,8	-0,007
956,2	-0,007
956,7	-0,007
957,1	-0,007
957,5	-0,007
957,9	-0,007
958,3	-0,007
958,8	-0,007
959,2	-0,007
959,6	-0,007
960	-0,007
960,5	-0,006
960,9	-0,006
961,3	-0,006
961,7	-0,006
962,1	-0,007
962,6	-0,006
963	-0,007
963,4	-0,007
963,8	-0,007
964,2	-0,007
964,7	-0,007
965,1	-0,006
965,5	-0,007
965,9	-0,006
966,3	-0,006
966,8	-0,006
967,2	-0,006
967,6	-0,005
968	-0,006
968,4	-0,006
968,9	-0,007
969,3	-0,006
969,7	-0,007
970,1	-0,007
970,5	-0,007
971	-0,007
971,4	-0,008
971,8	-0,007
972,2	-0,007
972,6	-0,007
973,1	-0,007
973,5	-0,007
973,9	-0,007
974,3	-0,007
974,7	-0,006
975,2	-0,006
975,6	-0,005
976	-0,005
976,4	-0,005
976,8	-0,005
977,3	-0,005
977,7	-0,005
978,1	-0,005
978,5	-0,005
978,9	-0,005
979,4	-0,005
979,8	-0,005
980,2	-0,005
980,6	-0,005
981	-0,005
981,5	-0,006
981,9	-0,006
982,3	-0,006
982,7	-0,006
983,1	-0,006
983,6	-0,006
984	-0,006
984,4	-0,006
984,8	-0,006
985,2	-0,006
985,6	-0,005
986,1	-0,005
986,5	-0,005
986,9	-0,005
987,3	-0,005
987,7	-0,005
988,2	-0,005
988,6	-0,005
989	-0,005
989,4	-0,006
989,8	-0,005
990,3	-0,005
990,7	-0,005
991,1	-0,005
991,5	-0,006
991,9	-0,006
992,3	-0,006
992,8	-0,006
993,2	-0,006
993,6	-0,007
994	-0,006
994,4	-0,006
994,9	-0,006
995,3	-0,005
995,7	-0,005
996,1	-0,004
996,5	-0,004
996,9	-0,005
997,4	-0,005
997,8	-0,006
998,2	-0,006
998,6	-0,006
999	-0,007
999,5	-0,007
999,9	-0,007
1000,3	-0,007
1000,7	-0,007
1001,1	-0,008
1001,5	-0,008
1002	-0,008
1002,4	-0,007
1002,8	-0,008
1003,2	-0,008
1003,6	-0,008
1004	-0,007
1004,5	-0,007
1004,9	-0,007
1005,3	-0,007
1005,7	-0,007
1006,1	-0,007
1006,6	-0,006
1007	-0,006
1007,4	-0,006
1007,8	-0,006
1008,2	-0,005
1008,6	-0,005
1009,1	-0,005
1009,5	-0,005
1009,9	-0,006
1010,3	-0,007
1010,7	-0,007
1011,1	-0,007
1011,6	-0,007
1012	-0,007
1012,4	-0,007
1012,8	-0,006
1013,2	-0,006
1013,6	-0,007
1014,1	-0,007
1014,5	-0,006
1014,9	-0,006
1015,3	-0,006
1015,7	-0,007
1016,1	-0,007
1016,6	-0,007
1017	-0,007
1017,4	-0,007
1017,8	-0,007
1018,2	-0,007
1018,6	-0,007
1019,1	-0,006
1019,5	-0,006
1019,9	-0,006
1020,3	-0,006
1020,7	-0,006
1021,1	-0,006
1021,6	-0,006
1022	-0,006
1022,4	-0,006
1022,8	-0,006
1023,2	-0,006
1023,6	-0,006
1024,1	-0,007
1024,5	-0,007
1024,9	-0,006
1025,3	-0,006
1025,7	-0,006
1026,1	-0,006
1026,6	-0,006
1027	-0,006
1027,4	-0,006
1027,8	-0,006
1028,2	-0,006
1028,6	-0,006
1029	-0,006
1029,5	-0,006
1029,9	-0,005
1030,3	-0,005
1030,7	-0,005
1031,1	-0,005
1031,5	-0,005
1032	-0,005
1032,4	-0,005
1032,8	-0,005
1033,2	-0,006
1033,6	-0,007
1034	-0,006
1034,4	-0,006
1034,9	-0,006
1035,3	-0,007
1035,7	-0,007
1036,1	-0,007
1036,5	-0,006
1036,9	-0,007
1037,4	-0,008
1037,8	-0,007
1038,2	-0,007
1038,6	-0,007
1039	-0,007
1039,4	-0,007
1039,8	-0,007
1040,3	-0,007
1040,7	-0,008
1041,1	-0,007
1041,5	-0,007
1041,9	-0,007
1042,3	-0,006
1042,7	-0,006
1043,2	-0,005
1043,6	-0,006
1044	-0,006
1044,4	-0,006
1044,8	-0,006
1045,2	-0,006
1045,6	-0,006
1046,1	-0,007
1046,5	-0,006
1046,9	-0,006
1047,3	-0,006
1047,7	-0,006
1048,1	-0,006
1048,5	-0,006
1049	-0,005
1049,4	-0,006
1049,8	-0,006
1050,2	-0,006
1050,6	-0,006
1051	-0,007
1051,4	-0,006
1051,9	-0,006
1052,3	-0,005
1052,7	-0,005
1053,1	-0,005
1053,5	-0,005
1053,9	-0,005
1054,3	-0,005
1054,8	-0,006
1055,2	-0,006
1055,6	-0,006
1056	-0,006
1056,4	-0,005
1056,8	-0,005
1057,2	-0,006
1057,6	-0,006
1058,1	-0,006
1058,5	-0,007
1058,9	-0,007
1059,3	-0,007
1059,7	-0,007
1060,1	-0,007
1060,5	-0,006
1061	-0,006
1061,4	-0,005
1061,8	-0,005
1062,2	-0,005
1062,6	-0,006
1063	-0,006
1063,4	-0,007
1063,8	-0,007
1064,3	-0,008
1064,7	-0,008
1065,1	-0,007
1065,5	-0,006
1065,9	-0,006
1066,3	-0,005
1066,7	-0,006
1067,1	-0,007
1067,6	-0,007
1068	-0,007
1068,4	-0,009
1068,8	-0,009
1069,2	-0,008
1069,6	-0,007
1070	-0,006
1070,4	-0,006
1070,9	-0,007
1071,3	-0,006
1071,7	-0,005
1072,1	-0,005
1072,5	-0,005
1072,9	-0,005
1073,3	-0,006
1073,7	-0,005
1074,2	-0,005
1074,6	-0,006
1075	-0,007
1075,4	-0,008
1075,8	-0,007
1076,2	-0,007
1076,6	-0,008
1077	-0,008
1077,5	-0,006
1077,9	-0,005
1078,3	-0,004
1078,7	-0,004
1079,1	-0,005
1079,5	-0,004
1079,9	-0,004
1080,3	-0,005
1080,7	-0,007
1081,2	-0,006
1081,6	-0,006
1082	-0,006
1082,4	-0,007
1082,8	-0,007
1083,2	-0,006
1083,6	-0,004
1084	-0,004
1084,5	-0,004
1084,9	-0,004
1085,3	-0,002
1085,7	-0,002
1086,1	-0,002
1086,5	-0,003
1086,9	-0,004
1087,3	-0,004
1087,7	-0,004
1088,2	-0,004
1088,6	-0,005
1089	-0,007
1089,4	-0,006
1089,8	-0,005
1090,2	-0,009
1090,6	-0,01
1091	-0,013
1091,4	-0,011
1091,9	-0,01
1092,3	-0,01
1092,7	-0,008
1093,1	-0,005
1093,5	-0,003
1093,9	-0,001
1094,3	-0,001
1094,7	-0,001
1095,1	-0,001
1095,5	-0,005
1096	-0,004
1096,4	-0,006
1096,8	-0,006
1097,2	-0,007
1097,6	-0,008
1098	-0,007
1098,4	-0,004
1098,8	-0,005
1099,2	-0,008
1099,6	-0,007
1100,1	-0,006
1100,5	-0,005
1100,9	-0,014
1101,3	-0,024
1101,7	-0,022
1102,1	-0,012
1102,5	-0,007
1102,9	-0,004
1103,3	-0,007
1103,7	-0,002
1104,2	0,005
1104,6	0,003
1105	-0
1105,4	-0,005
1105,8	-0,006
1106,2	-0,003
1106,6	0,004
1107	-0,003
1107,4	-0,002
1107,8	-0,053
1108,3	0,37
