Data from Absorbance_00015.txt Node
Date: Thu Aug 24 15:57:16 MSK 2023
User: vat
Spectrometer: MAYP114033
Trigger mode: 0
Integration Time (sec): 8,000000E-3
Scans to average: 10
Electric dark correction enabled: true
Nonlinearity correction enabled: false
Boxcar width: 3
XAxis mode: Wavelengths
Number of Pixels in Spectrum: 2068
>>>>>Begin Spectral Data<<<<<
199,4	-0
199,9	0,51
200,4	0,683
200,8	0,866
201,3	0,868
201,8	0,916
202,2	0,931
202,7	0,945
203,2	0,973
203,6	0,971
204,1	0,99
204,6	1,021
205	1,029
205,5	1,03
206	1,041
206,4	1,047
206,9	1,069
207,4	1,08
207,8	1,079
208,3	1,104
208,8	1,157
209,2	1,178
209,7	1,193
210,2	1,214
210,6	1,237
211,1	1,249
211,5	1,269
212	1,277
212,5	1,297
212,9	1,335
213,4	1,351
213,9	1,372
214,3	1,389
214,8	1,405
215,3	1,387
215,7	1,386
216,2	1,4
216,7	1,405
217,1	1,382
217,6	1,409
218,1	1,439
218,5	1,472
219	1,497
219,5	1,498
219,9	1,526
220,4	1,585
220,9	1,597
221,3	1,579
221,8	1,61
222,3	1,613
222,7	1,623
223,2	1,64
223,6	1,64
224,1	1,661
224,6	1,679
225	1,673
225,5	1,705
226	1,729
226,4	1,747
226,9	1,777
227,4	1,785
227,8	1,814
228,3	1,831
228,8	1,83
229,2	1,823
229,7	1,836
230,2	1,837
230,6	1,848
231,1	1,847
231,5	1,854
232	1,873
232,5	1,891
232,9	1,896
233,4	1,914
233,9	1,927
234,3	1,956
234,8	1,968
235,3	1,963
235,7	1,984
236,2	2,011
236,7	2,027
237,1	2,033
237,6	2,024
238,1	2,036
238,5	2,046
239	2,057
239,4	2,042
239,9	2,04
240,4	2,015
240,8	2,023
241,3	2,022
241,8	2,041
242,2	2,046
242,7	2,07
243,2	2,051
243,6	2,094
244,1	2,095
244,6	2,097
245	2,089
245,5	2,084
245,9	2,076
246,4	2,102
246,9	2,103
247,3	2,105
247,8	2,128
248,3	2,131
248,7	2,139
249,2	2,134
249,7	2,113
250,1	2,123
250,6	2,137
251	2,124
251,5	2,148
252	2,156
252,4	2,163
252,9	2,2
253,4	2,194
253,8	2,183
254,3	2,164
254,8	2,144
255,2	2,128
255,7	2,124
256,1	2,108
256,6	2,105
257,1	2,108
257,5	2,121
258	2,124
258,5	2,142
258,9	2,16
259,4	2,154
259,9	2,159
260,3	2,168
260,8	2,177
261,2	2,202
261,7	2,199
262,2	2,196
262,6	2,209
263,1	2,194
263,6	2,195
264	2,205
264,5	2,189
264,9	2,192
265,4	2,182
265,9	2,175
266,3	2,198
266,8	2,189
267,3	2,179
267,7	2,162
268,2	2,148
268,7	2,134
269,1	2,141
269,6	2,114
270	2,102
270,5	2,093
271	2,097
271,4	2,105
271,9	2,108
272,4	2,084
272,8	2,08
273,3	2,077
273,7	2,075
274,2	2,069
274,7	2,055
275,1	2,066
275,6	2,06
276,1	2,049
276,5	2,027
277	1,999
277,4	1,981
277,9	1,946
278,4	1,905
278,8	1,865
279,3	1,812
279,8	1,756
280,2	1,704
280,7	1,639
281,1	1,59
281,6	1,527
282,1	1,471
282,5	1,42
283	1,374
283,4	1,323
283,9	1,28
284,4	1,237
284,8	1,198
285,3	1,163
285,8	1,129
286,2	1,1
286,7	1,076
287,1	1,055
287,6	1,035
288,1	1,018
288,5	1,003
289	0,992
289,5	0,98
289,9	0,969
290,4	0,96
290,8	0,952
291,3	0,945
291,8	0,939
292,2	0,933
292,7	0,928
293,1	0,926
293,6	0,922
294,1	0,918
294,5	0,915
295	0,912
295,5	0,909
295,9	0,907
296,4	0,903
296,8	0,9
297,3	0,896
297,8	0,893
298,2	0,891
298,7	0,889
299,1	0,886
299,6	0,885
300,1	0,883
300,5	0,881
301	0,877
301,5	0,873
301,9	0,868
302,4	0,865
302,8	0,861
303,3	0,857
303,8	0,853
304,2	0,85
304,7	0,845
305,1	0,843
305,6	0,838
306,1	0,833
306,5	0,828
307	0,822
307,4	0,815
307,9	0,811
308,4	0,805
308,8	0,8
309,3	0,796
309,8	0,789
310,2	0,784
310,7	0,779
311,1	0,773
311,6	0,766
312,1	0,759
312,5	0,753
313	0,748
313,4	0,742
313,9	0,736
314,4	0,731
314,8	0,723
315,3	0,717
315,7	0,71
316,2	0,702
316,7	0,695
317,1	0,688
317,6	0,68
318	0,676
318,5	0,669
319	0,662
319,4	0,654
319,9	0,648
320,3	0,641
320,8	0,635
321,3	0,626
321,7	0,619
322,2	0,612
322,6	0,605
323,1	0,598
323,6	0,591
324	0,583
324,5	0,576
324,9	0,568
325,4	0,561
325,9	0,553
326,3	0,546
326,8	0,539
327,2	0,533
327,7	0,526
328,2	0,519
328,6	0,512
329,1	0,505
329,5	0,498
330	0,491
330,5	0,484
330,9	0,477
331,4	0,47
331,8	0,463
332,3	0,457
332,8	0,45
333,2	0,445
333,7	0,439
334,1	0,432
334,6	0,426
335,1	0,42
335,5	0,413
336	0,407
336,4	0,4
336,9	0,394
337,4	0,389
337,8	0,383
338,3	0,377
338,7	0,371
339,2	0,364
339,7	0,358
340,1	0,352
340,6	0,347
341	0,342
341,5	0,336
342	0,331
342,4	0,326
342,9	0,321
343,3	0,317
343,8	0,31
344,2	0,305
344,7	0,301
345,2	0,295
345,6	0,291
346,1	0,286
346,5	0,28
347	0,276
347,5	0,271
347,9	0,266
348,4	0,262
348,8	0,257
349,3	0,252
349,8	0,249
350,2	0,245
350,7	0,242
351,1	0,238
351,6	0,234
352	0,23
352,5	0,226
353	0,223
353,4	0,219
353,9	0,215
354,3	0,211
354,8	0,208
355,3	0,204
355,7	0,201
356,2	0,197
356,6	0,194
357,1	0,19
357,5	0,187
358	0,184
358,5	0,181
358,9	0,178
359,4	0,175
359,8	0,172
360,3	0,169
360,8	0,166
361,2	0,163
361,7	0,161
362,1	0,158
362,6	0,154
363	0,151
363,5	0,148
364	0,145
364,4	0,142
364,9	0,14
365,3	0,138
365,8	0,136
366,3	0,135
366,7	0,132
367,2	0,131
367,6	0,128
368,1	0,126
368,5	0,123
369	0,122
369,5	0,12
369,9	0,118
370,4	0,115
370,8	0,114
371,3	0,112
371,7	0,11
372,2	0,108
372,7	0,106
373,1	0,104
373,6	0,102
374	0,1
374,5	0,098
374,9	0,096
375,4	0,094
375,9	0,093
376,3	0,091
376,8	0,09
377,2	0,089
377,7	0,088
378,2	0,086
378,6	0,085
379,1	0,083
379,5	0,082
380	0,081
380,4	0,08
380,9	0,078
381,4	0,077
381,8	0,076
382,3	0,075
382,7	0,074
383,2	0,072
383,6	0,071
384,1	0,07
384,6	0,069
385	0,068
385,5	0,067
385,9	0,066
386,4	0,065
386,8	0,064
387,3	0,063
387,7	0,062
388,2	0,062
388,7	0,061
389,1	0,059
389,6	0,058
390	0,058
390,5	0,057
390,9	0,055
391,4	0,054
391,9	0,053
392,3	0,052
392,8	0,051
393,2	0,051
393,7	0,05
394,1	0,049
394,6	0,048
395,1	0,047
395,5	0,047
396	0,046
396,4	0,045
396,9	0,045
397,3	0,045
397,8	0,044
398,2	0,043
398,7	0,042
399,2	0,042
399,6	0,041
400,1	0,04
400,5	0,039
401	0,039
401,4	0,038
401,9	0,037
402,4	0,037
402,8	0,036
403,3	0,035
403,7	0,035
404,2	0,034
404,6	0,034
405,1	0,034
405,5	0,033
406	0,033
406,5	0,032
406,9	0,031
407,4	0,031
407,8	0,031
408,3	0,03
408,7	0,029
409,2	0,028
409,6	0,028
410,1	0,028
410,6	0,027
411	0,027
411,5	0,027
411,9	0,026
412,4	0,026
412,8	0,026
413,3	0,025
413,7	0,025
414,2	0,025
414,7	0,024
415,1	0,024
415,6	0,023
416	0,023
416,5	0,022
416,9	0,022
417,4	0,021
417,8	0,021
418,3	0,02
418,8	0,02
419,2	0,02
419,7	0,019
420,1	0,019
420,6	0,019
421	0,018
421,5	0,018
421,9	0,017
422,4	0,017
422,8	0,016
423,3	0,015
423,8	0,015
424,2	0,014
424,7	0,014
425,1	0,014
425,6	0,013
426	0,012
426,5	0,012
426,9	0,011
427,4	0,011
427,9	0,011
428,3	0,01
428,8	0,01
429,2	0,009
429,7	0,009
430,1	0,009
430,6	0,008
431	0,008
431,5	0,008
431,9	0,008
432,4	0,008
432,8	0,007
433,3	0,007
433,8	0,007
434,2	0,006
434,7	0,005
435,1	0,005
435,6	0,004
436	0,005
436,5	0,005
436,9	0,004
437,4	0,004
437,8	0,004
438,3	0,003
438,8	0,003
439,2	0,002
439,7	0,001
440,1	0,001
440,6	0,001
441	0,001
441,5	0,001
441,9	0,001
442,4	0,001
442,8	0,001
443,3	0,001
443,7	0,001
444,2	-0
444,7	-0,001
445,1	-0,001
445,6	-0,002
446	-0,002
446,5	-0,002
446,9	-0,001
447,4	-0,001
447,8	-0,001
448,3	-0,002
448,7	-0,002
449,2	-0,001
449,6	-0,002
450,1	-0,002
450,6	-0,003
451	-0,003
451,5	-0,002
451,9	-0,002
452,4	-0,003
452,8	-0,002
453,3	-0,003
453,7	-0,002
454,2	-0,003
454,6	-0,003
455,1	-0,003
455,5	-0,003
456	-0,004
456,4	-0,003
456,9	-0,003
457,3	-0,003
457,8	-0,004
458,3	-0,004
458,7	-0,004
459,2	-0,005
459,6	-0,006
460,1	-0,006
460,5	-0,006
461	-0,005
461,4	-0,005
461,9	-0,005
462,3	-0,005
462,8	-0,004
463,2	-0,005
463,7	-0,005
464,1	-0,005
464,6	-0,006
465	-0,006
465,5	-0,007
466	-0,007
466,4	-0,007
466,9	-0,008
467,3	-0,008
467,8	-0,008
468,2	-0,008
468,7	-0,008
469,1	-0,008
469,6	-0,008
470	-0,008
470,5	-0,008
470,9	-0,007
471,4	-0,007
471,8	-0,007
472,3	-0,007
472,7	-0,007
473,2	-0,006
473,6	-0,007
474,1	-0,007
474,5	-0,007
475	-0,007
475,4	-0,007
475,9	-0,007
476,4	-0,008
476,8	-0,008
477,3	-0,008
477,7	-0,008
478,2	-0,008
478,6	-0,008
479,1	-0,008
479,5	-0,007
480	-0,007
480,4	-0,007
480,9	-0,007
481,3	-0,007
481,8	-0,008
482,2	-0,008
482,7	-0,008
483,1	-0,008
483,6	-0,009
484	-0,008
484,5	-0,008
484,9	-0,008
485,4	-0,008
485,8	-0,007
486,3	-0,007
486,7	-0,007
487,2	-0,007
487,6	-0,007
488,1	-0,007
488,5	-0,007
489	-0,007
489,4	-0,008
489,9	-0,007
490,4	-0,008
490,8	-0,008
491,3	-0,008
491,7	-0,008
492,2	-0,009
492,6	-0,009
493,1	-0,009
493,5	-0,009
494	-0,009
494,4	-0,01
494,9	-0,01
495,3	-0,01
495,8	-0,009
496,2	-0,009
496,7	-0,009
497,1	-0,008
497,6	-0,008
498	-0,008
498,5	-0,008
498,9	-0,009
499,4	-0,009
499,8	-0,008
500,3	-0,009
500,7	-0,009
501,2	-0,009
501,6	-0,01
502,1	-0,009
502,5	-0,009
503	-0,01
503,4	-0,01
503,9	-0,011
504,3	-0,01
504,8	-0,009
505,2	-0,01
505,7	-0,01
506,1	-0,009
506,6	-0,009
507	-0,009
507,5	-0,01
507,9	-0,01
508,4	-0,009
508,8	-0,01
509,3	-0,01
509,7	-0,009
510,2	-0,009
510,6	-0,008
511,1	-0,009
511,5	-0,009
512	-0,009
512,4	-0,008
512,9	-0,009
513,3	-0,009
513,8	-0,009
514,2	-0,009
514,7	-0,009
515,1	-0,009
515,6	-0,01
516	-0,01
516,5	-0,009
516,9	-0,009
517,4	-0,009
517,8	-0,009
518,3	-0,009
518,7	-0,009
519,2	-0,009
519,6	-0,009
520,1	-0,009
520,5	-0,009
521	-0,009
521,4	-0,009
521,9	-0,009
522,3	-0,009
522,8	-0,009
523,2	-0,008
523,7	-0,008
524,1	-0,009
524,6	-0,009
525	-0,009
525,5	-0,009
525,9	-0,009
526,4	-0,01
526,8	-0,01
527,3	-0,009
527,7	-0,009
528,2	-0,009
528,6	-0,009
529,1	-0,009
529,5	-0,008
530	-0,008
530,4	-0,008
530,9	-0,008
531,3	-0,008
531,8	-0,008
532,2	-0,008
532,6	-0,008
533,1	-0,009
533,5	-0,009
534	-0,01
534,4	-0,009
534,9	-0,009
535,3	-0,009
535,8	-0,009
536,2	-0,008
536,7	-0,008
537,1	-0,008
537,6	-0,008
538	-0,009
538,5	-0,009
538,9	-0,009
539,4	-0,009
539,8	-0,009
540,3	-0,009
540,7	-0,008
541,2	-0,008
541,6	-0,008
542,1	-0,008
542,5	-0,008
543	-0,008
543,4	-0,008
543,9	-0,008
544,3	-0,008
544,8	-0,008
545,2	-0,008
545,7	-0,008
546,1	-0,008
546,5	-0,008
547	-0,009
547,4	-0,009
547,9	-0,009
548,3	-0,009
548,8	-0,009
549,2	-0,009
549,7	-0,009
550,1	-0,009
550,6	-0,009
551	-0,008
551,5	-0,008
551,9	-0,008
552,4	-0,008
552,8	-0,009
553,3	-0,009
553,7	-0,009
554,2	-0,009
554,6	-0,01
555,1	-0,01
555,5	-0,01
555,9	-0,009
556,4	-0,009
556,8	-0,009
557,3	-0,009
557,7	-0,009
558,2	-0,008
558,6	-0,008
559,1	-0,008
559,5	-0,009
560	-0,008
560,4	-0,008
560,9	-0,008
561,3	-0,008
561,8	-0,008
562,2	-0,009
562,7	-0,008
563,1	-0,008
563,6	-0,008
564	-0,008
564,4	-0,009
564,9	-0,009
565,3	-0,009
565,8	-0,009
566,2	-0,009
566,7	-0,01
567,1	-0,01
567,6	-0,01
568	-0,009
568,5	-0,01
568,9	-0,01
569,4	-0,009
569,8	-0,009
570,3	-0,008
570,7	-0,008
571,1	-0,008
571,6	-0,009
572	-0,008
572,5	-0,008
572,9	-0,008
573,4	-0,008
573,8	-0,008
574,3	-0,008
574,7	-0,008
575,2	-0,008
575,6	-0,008
576,1	-0,009
576,5	-0,009
576,9	-0,009
577,4	-0,008
577,8	-0,008
578,3	-0,009
578,7	-0,009
579,2	-0,008
579,6	-0,008
580,1	-0,008
580,5	-0,008
581	-0,008
581,4	-0,008
581,9	-0,008
582,3	-0,009
582,7	-0,009
583,2	-0,009
583,6	-0,009
584,1	-0,008
584,5	-0,008
585	-0,008
585,4	-0,007
585,9	-0,007
586,3	-0,007
586,8	-0,007
587,2	-0,007
587,6	-0,008
588,1	-0,008
588,5	-0,008
589	-0,008
589,4	-0,008
589,9	-0,008
590,3	-0,008
590,8	-0,008
591,2	-0,008
591,7	-0,008
592,1	-0,008
592,5	-0,008
593	-0,008
593,4	-0,008
593,9	-0,008
594,3	-0,008
594,8	-0,008
595,2	-0,008
595,7	-0,008
596,1	-0,008
596,6	-0,008
597	-0,008
597,4	-0,008
597,9	-0,008
598,3	-0,008
598,8	-0,008
599,2	-0,008
599,7	-0,008
600,1	-0,008
600,6	-0,009
601	-0,008
601,4	-0,009
601,9	-0,008
602,3	-0,008
602,8	-0,008
603,2	-0,008
603,7	-0,008
604,1	-0,008
604,6	-0,008
605	-0,008
605,4	-0,008
605,9	-0,008
606,3	-0,007
606,8	-0,008
607,2	-0,008
607,7	-0,007
608,1	-0,008
608,6	-0,008
609	-0,008
609,4	-0,008
609,9	-0,007
610,3	-0,008
610,8	-0,008
611,2	-0,008
611,7	-0,008
612,1	-0,008
612,6	-0,008
613	-0,007
613,4	-0,007
613,9	-0,007
614,3	-0,007
614,8	-0,007
615,2	-0,007
615,7	-0,007
616,1	-0,007
616,6	-0,007
617	-0,007
617,4	-0,007
617,9	-0,007
618,3	-0,007
618,8	-0,007
619,2	-0,007
619,7	-0,008
620,1	-0,008
620,5	-0,008
621	-0,008
621,4	-0,008
621,9	-0,009
622,3	-0,009
622,8	-0,009
623,2	-0,008
623,6	-0,008
624,1	-0,008
624,5	-0,007
625	-0,008
625,4	-0,008
625,9	-0,007
626,3	-0,007
626,8	-0,008
627,2	-0,008
627,6	-0,008
628,1	-0,008
628,5	-0,008
629	-0,008
629,4	-0,008
629,9	-0,008
630,3	-0,008
630,7	-0,008
631,2	-0,008
631,6	-0,007
632,1	-0,007
632,5	-0,007
633	-0,007
633,4	-0,007
633,8	-0,007
634,3	-0,007
634,7	-0,007
635,2	-0,007
635,6	-0,006
636,1	-0,006
636,5	-0,006
636,9	-0,006
637,4	-0,006
637,8	-0,006
638,3	-0,006
638,7	-0,007
639,2	-0,007
639,6	-0,007
640	-0,008
640,5	-0,008
640,9	-0,008
641,4	-0,008
641,8	-0,008
642,2	-0,008
642,7	-0,008
643,1	-0,007
643,6	-0,007
644	-0,007
644,5	-0,007
644,9	-0,007
645,3	-0,007
645,8	-0,007
646,2	-0,007
646,7	-0,007
647,1	-0,007
647,6	-0,007
648	-0,007
648,4	-0,007
648,9	-0,007
649,3	-0,007
649,8	-0,007
650,2	-0,007
650,6	-0,007
651,1	-0,007
651,5	-0,007
652	-0,007
652,4	-0,007
652,9	-0,007
653,3	-0,007
653,7	-0,007
654,2	-0,007
654,6	-0,006
655,1	-0,006
655,5	-0,003
655,9	-0,002
656,4	-0,001
656,8	-0,002
657,3	-0,002
657,7	-0,002
658,2	-0,001
658,6	-0,002
659	-0,003
659,5	-0,005
659,9	-0,005
660,4	-0,006
660,8	-0,006
661,2	-0,006
661,7	-0,006
662,1	-0,006
662,6	-0,006
663	-0,006
663,4	-0,006
663,9	-0,006
664,3	-0,007
664,8	-0,007
665,2	-0,007
665,6	-0,007
666,1	-0,008
666,5	-0,008
667	-0,007
667,4	-0,007
667,9	-0,007
668,3	-0,007
668,7	-0,007
669,2	-0,007
669,6	-0,007
670,1	-0,007
670,5	-0,007
670,9	-0,007
671,4	-0,007
671,8	-0,006
672,3	-0,006
672,7	-0,007
673,1	-0,007
673,6	-0,007
674	-0,007
674,5	-0,007
674,9	-0,006
675,3	-0,006
675,8	-0,006
676,2	-0,006
676,7	-0,006
677,1	-0,006
677,5	-0,006
678	-0,006
678,4	-0,006
678,9	-0,006
679,3	-0,006
679,7	-0,006
680,2	-0,006
680,6	-0,006
681,1	-0,006
681,5	-0,007
681,9	-0,007
682,4	-0,006
682,8	-0,007
683,3	-0,006
683,7	-0,007
684,1	-0,007
684,6	-0,007
685	-0,007
685,5	-0,007
685,9	-0,007
686,3	-0,008
686,8	-0,008
687,2	-0,007
687,7	-0,007
688,1	-0,007
688,5	-0,007
689	-0,007
689,4	-0,007
689,9	-0,006
690,3	-0,006
690,7	-0,007
691,2	-0,006
691,6	-0,007
692	-0,007
692,5	-0,007
692,9	-0,007
693,4	-0,007
693,8	-0,007
694,2	-0,007
694,7	-0,007
695,1	-0,008
695,6	-0,007
696	-0,007
696,4	-0,007
696,9	-0,007
697,3	-0,007
697,8	-0,007
698,2	-0,006
698,6	-0,006
699,1	-0,006
699,5	-0,006
699,9	-0,006
700,4	-0,006
700,8	-0,006
701,3	-0,006
701,7	-0,007
702,1	-0,006
702,6	-0,006
703	-0,006
703,5	-0,006
703,9	-0,006
704,3	-0,006
704,8	-0,006
705,2	-0,006
705,6	-0,006
706,1	-0,007
706,5	-0,006
707	-0,007
707,4	-0,006
707,8	-0,006
708,3	-0,006
708,7	-0,006
709,2	-0,006
709,6	-0,006
710	-0,006
710,5	-0,006
710,9	-0,006
711,3	-0,006
711,8	-0,006
712,2	-0,006
712,7	-0,006
713,1	-0,006
713,5	-0,006
714	-0,006
714,4	-0,006
714,8	-0,006
715,3	-0,006
715,7	-0,006
716,2	-0,006
716,6	-0,006
717	-0,006
717,5	-0,006
717,9	-0,006
718,3	-0,006
718,8	-0,006
719,2	-0,006
719,7	-0,006
720,1	-0,006
720,5	-0,006
721	-0,006
721,4	-0,007
721,8	-0,007
722,3	-0,007
722,7	-0,007
723,2	-0,007
723,6	-0,007
724	-0,007
724,5	-0,007
724,9	-0,007
725,3	-0,007
725,8	-0,006
726,2	-0,007
726,7	-0,007
727,1	-0,007
727,5	-0,006
728	-0,006
728,4	-0,006
728,8	-0,007
729,3	-0,007
729,7	-0,007
730,1	-0,006
730,6	-0,007
731	-0,007
731,5	-0,006
731,9	-0,006
732,3	-0,005
732,8	-0,006
733,2	-0,006
733,6	-0,006
734,1	-0,006
734,5	-0,006
734,9	-0,007
735,4	-0,007
735,8	-0,006
736,3	-0,006
736,7	-0,006
737,1	-0,006
737,6	-0,006
738	-0,006
738,4	-0,006
738,9	-0,006
739,3	-0,006
739,7	-0,006
740,2	-0,006
740,6	-0,006
741,1	-0,006
741,5	-0,006
741,9	-0,006
742,4	-0,006
742,8	-0,006
743,2	-0,006
743,7	-0,006
744,1	-0,006
744,5	-0,006
745	-0,007
745,4	-0,007
745,8	-0,007
746,3	-0,007
746,7	-0,007
747,2	-0,006
747,6	-0,006
748	-0,006
748,5	-0,006
748,9	-0,006
749,3	-0,006
749,8	-0,006
750,2	-0,007
750,6	-0,006
751,1	-0,006
751,5	-0,006
751,9	-0,006
752,4	-0,006
752,8	-0,006
753,3	-0,005
753,7	-0,006
754,1	-0,005
754,6	-0,005
755	-0,005
755,4	-0,005
755,9	-0,006
756,3	-0,005
756,7	-0,005
757,2	-0,005
757,6	-0,006
758	-0,006
758,5	-0,006
758,9	-0,006
759,3	-0,006
759,8	-0,006
760,2	-0,006
760,6	-0,005
761,1	-0,005
761,5	-0,005
761,9	-0,005
762,4	-0,005
762,8	-0,005
763,3	-0,005
763,7	-0,006
764,1	-0,006
764,6	-0,006
765	-0,006
765,4	-0,006
765,9	-0,006
766,3	-0,006
766,7	-0,006
767,2	-0,006
767,6	-0,006
768	-0,006
768,5	-0,007
768,9	-0,007
769,3	-0,007
769,8	-0,007
770,2	-0,007
770,6	-0,006
771,1	-0,006
771,5	-0,006
771,9	-0,006
772,4	-0,006
772,8	-0,006
773,2	-0,006
773,7	-0,006
774,1	-0,006
774,5	-0,006
775	-0,007
775,4	-0,006
775,8	-0,007
776,3	-0,007
776,7	-0,007
777,1	-0,007
777,6	-0,007
778	-0,007
778,4	-0,007
778,9	-0,007
779,3	-0,007
779,7	-0,006
780,2	-0,006
780,6	-0,006
781	-0,006
781,5	-0,005
781,9	-0,005
782,3	-0,005
782,8	-0,005
783,2	-0,005
783,6	-0,005
784,1	-0,005
784,5	-0,005
784,9	-0,005
785,4	-0,006
785,8	-0,006
786,2	-0,006
786,7	-0,006
787,1	-0,006
787,5	-0,006
788	-0,006
788,4	-0,006
788,8	-0,006
789,3	-0,006
789,7	-0,006
790,1	-0,006
790,6	-0,006
791	-0,006
791,4	-0,006
791,9	-0,006
792,3	-0,007
792,7	-0,007
793,2	-0,007
793,6	-0,007
794	-0,007
794,5	-0,007
794,9	-0,007
795,3	-0,007
795,8	-0,006
796,2	-0,006
796,6	-0,006
797,1	-0,006
797,5	-0,006
797,9	-0,006
798,4	-0,006
798,8	-0,007
799,2	-0,007
799,7	-0,007
800,1	-0,006
800,5	-0,006
801	-0,006
801,4	-0,006
801,8	-0,005
802,2	-0,005
802,7	-0,005
803,1	-0,006
803,5	-0,006
804	-0,006
804,4	-0,006
804,8	-0,006
805,3	-0,007
805,7	-0,007
806,1	-0,006
806,6	-0,007
807	-0,006
807,4	-0,006
807,9	-0,006
808,3	-0,005
808,7	-0,006
809,2	-0,006
809,6	-0,006
810	-0,006
810,4	-0,006
810,9	-0,006
811,3	-0,006
811,7	-0,006
812,2	-0,006
812,6	-0,005
813	-0,005
813,5	-0,005
813,9	-0,006
814,3	-0,006
814,8	-0,006
815,2	-0,005
815,6	-0,006
816,1	-0,006
816,5	-0,006
816,9	-0,006
817,3	-0,006
817,8	-0,006
818,2	-0,006
818,6	-0,006
819,1	-0,006
819,5	-0,006
819,9	-0,006
820,4	-0,006
820,8	-0,006
821,2	-0,006
821,7	-0,005
822,1	-0,005
822,5	-0,005
822,9	-0,005
823,4	-0,005
823,8	-0,005
824,2	-0,005
824,7	-0,006
825,1	-0,006
825,5	-0,006
826	-0,006
826,4	-0,006
826,8	-0,006
827,3	-0,006
827,7	-0,006
828,1	-0,006
828,5	-0,005
829	-0,005
829,4	-0,005
829,8	-0,005
830,3	-0,005
830,7	-0,005
831,1	-0,005
831,6	-0,005
832	-0,005
832,4	-0,006
832,8	-0,006
833,3	-0,006
833,7	-0,006
834,1	-0,006
834,6	-0,006
835	-0,006
835,4	-0,006
835,8	-0,006
836,3	-0,006
836,7	-0,006
837,1	-0,006
837,6	-0,006
838	-0,006
838,4	-0,005
838,9	-0,005
839,3	-0,005
839,7	-0,005
840,1	-0,005
840,6	-0,005
841	-0,005
841,4	-0,005
841,9	-0,005
842,3	-0,005
842,7	-0,005
843,1	-0,005
843,6	-0,005
844	-0,005
844,4	-0,005
844,9	-0,006
845,3	-0,006
845,7	-0,006
846,2	-0,006
846,6	-0,006
847	-0,006
847,4	-0,006
847,9	-0,005
848,3	-0,006
848,7	-0,006
849,2	-0,006
849,6	-0,006
850	-0,005
850,4	-0,005
850,9	-0,005
851,3	-0,005
851,7	-0,005
852,2	-0,005
852,6	-0,005
853	-0,005
853,4	-0,005
853,9	-0,005
854,3	-0,005
854,7	-0,005
855,2	-0,005
855,6	-0,005
856	-0,005
856,4	-0,005
856,9	-0,005
857,3	-0,004
857,7	-0,005
858,2	-0,005
858,6	-0,005
859	-0,005
859,4	-0,005
859,9	-0,006
860,3	-0,006
860,7	-0,006
861,1	-0,006
861,6	-0,005
862	-0,005
862,4	-0,005
862,9	-0,004
863,3	-0,005
863,7	-0,004
864,1	-0,005
864,6	-0,005
865	-0,005
865,4	-0,005
865,9	-0,005
866,3	-0,005
866,7	-0,005
867,1	-0,005
867,6	-0,006
868	-0,006
868,4	-0,006
868,8	-0,006
869,3	-0,006
869,7	-0,006
870,1	-0,006
870,6	-0,006
871	-0,006
871,4	-0,006
871,8	-0,006
872,3	-0,006
872,7	-0,006
873,1	-0,006
873,5	-0,006
874	-0,006
874,4	-0,007
874,8	-0,006
875,3	-0,006
875,7	-0,006
876,1	-0,006
876,5	-0,006
877	-0,006
877,4	-0,005
877,8	-0,005
878,2	-0,005
878,7	-0,005
879,1	-0,005
879,5	-0,005
879,9	-0,005
880,4	-0,006
880,8	-0,006
881,2	-0,006
881,7	-0,006
882,1	-0,006
882,5	-0,006
882,9	-0,006
883,4	-0,006
883,8	-0,006
884,2	-0,005
884,6	-0,005
885,1	-0,005
885,5	-0,005
885,9	-0,005
886,3	-0,006
886,8	-0,006
887,2	-0,006
887,6	-0,006
888	-0,006
888,5	-0,006
888,9	-0,006
889,3	-0,006
889,8	-0,005
890,2	-0,006
890,6	-0,005
891	-0,005
891,5	-0,005
891,9	-0,006
892,3	-0,006
892,7	-0,006
893,2	-0,006
893,6	-0,006
894	-0,006
894,4	-0,006
894,9	-0,006
895,3	-0,006
895,7	-0,005
896,1	-0,005
896,6	-0,005
897	-0,005
897,4	-0,005
897,8	-0,005
898,3	-0,005
898,7	-0,006
899,1	-0,006
899,5	-0,005
900	-0,006
900,4	-0,006
900,8	-0,006
901,2	-0,006
901,7	-0,005
902,1	-0,006
902,5	-0,005
902,9	-0,005
903,4	-0,005
903,8	-0,005
904,2	-0,006
904,6	-0,006
905,1	-0,006
905,5	-0,006
905,9	-0,006
906,3	-0,006
906,8	-0,006
907,2	-0,005
907,6	-0,005
908	-0,005
908,5	-0,005
908,9	-0,004
909,3	-0,004
909,7	-0,004
910,2	-0,004
910,6	-0,004
911	-0,005
911,4	-0,004
911,9	-0,005
912,3	-0,005
912,7	-0,005
913,1	-0,005
913,6	-0,006
914	-0,005
914,4	-0,006
914,8	-0,006
915,3	-0,005
915,7	-0,005
916,1	-0,005
916,5	-0,005
916,9	-0,005
917,4	-0,005
917,8	-0,005
918,2	-0,005
918,6	-0,005
919,1	-0,005
919,5	-0,005
919,9	-0,005
920,3	-0,005
920,8	-0,005
921,2	-0,005
921,6	-0,005
922	-0,005
922,5	-0,005
922,9	-0,005
923,3	-0,005
923,7	-0,004
924,2	-0,004
924,6	-0,004
925	-0,004
925,4	-0,004
925,8	-0,005
926,3	-0,005
926,7	-0,005
927,1	-0,005
927,5	-0,005
928	-0,005
928,4	-0,005
928,8	-0,006
929,2	-0,006
929,7	-0,006
930,1	-0,006
930,5	-0,006
930,9	-0,006
931,3	-0,006
931,8	-0,006
932,2	-0,005
932,6	-0,005
933	-0,005
933,5	-0,005
933,9	-0,005
934,3	-0,005
934,7	-0,004
935,2	-0,004
935,6	-0,004
936	-0,004
936,4	-0,004
936,8	-0,005
937,3	-0,005
937,7	-0,005
938,1	-0,006
938,5	-0,005
939	-0,005
939,4	-0,005
939,8	-0,005
940,2	-0,005
940,6	-0,005
941,1	-0,005
941,5	-0,005
941,9	-0,005
942,3	-0,005
942,8	-0,005
943,2	-0,005
943,6	-0,005
944	-0,004
944,4	-0,005
944,9	-0,006
945,3	-0,006
945,7	-0,006
946,1	-0,007
946,6	-0,007
947	-0,007
947,4	-0,007
947,8	-0,006
948,2	-0,007
948,7	-0,006
949,1	-0,005
949,5	-0,006
949,9	-0,005
950,3	-0,005
950,8	-0,005
951,2	-0,005
951,6	-0,005
952	-0,005
952,5	-0,004
952,9	-0,004
953,3	-0,004
953,7	-0,004
954,1	-0,004
954,6	-0,005
955	-0,005
955,4	-0,005
955,8	-0,005
956,2	-0,006
956,7	-0,006
957,1	-0,006
957,5	-0,006
957,9	-0,006
958,3	-0,005
958,8	-0,005
959,2	-0,004
959,6	-0,004
960	-0,004
960,5	-0,004
960,9	-0,003
961,3	-0,003
961,7	-0,003
962,1	-0,004
962,6	-0,004
963	-0,004
963,4	-0,004
963,8	-0,005
964,2	-0,005
964,7	-0,005
965,1	-0,005
965,5	-0,005
965,9	-0,005
966,3	-0,005
966,8	-0,005
967,2	-0,005
967,6	-0,005
968	-0,005
968,4	-0,006
968,9	-0,006
969,3	-0,006
969,7	-0,006
970,1	-0,006
970,5	-0,006
971	-0,006
971,4	-0,006
971,8	-0,006
972,2	-0,006
972,6	-0,006
973,1	-0,006
973,5	-0,006
973,9	-0,006
974,3	-0,006
974,7	-0,006
975,2	-0,005
975,6	-0,005
976	-0,005
976,4	-0,005
976,8	-0,004
977,3	-0,004
977,7	-0,003
978,1	-0,003
978,5	-0,003
978,9	-0,003
979,4	-0,002
979,8	-0,003
980,2	-0,003
980,6	-0,002
981	-0,003
981,5	-0,004
981,9	-0,005
982,3	-0,005
982,7	-0,005
983,1	-0,005
983,6	-0,005
984	-0,005
984,4	-0,005
984,8	-0,005
985,2	-0,004
985,6	-0,004
986,1	-0,004
986,5	-0,004
986,9	-0,003
987,3	-0,004
987,7	-0,004
988,2	-0,004
988,6	-0,004
989	-0,004
989,4	-0,005
989,8	-0,006
990,3	-0,005
990,7	-0,005
991,1	-0,006
991,5	-0,006
991,9	-0,006
992,3	-0,006
992,8	-0,006
993,2	-0,006
993,6	-0,006
994	-0,005
994,4	-0,005
994,9	-0,005
995,3	-0,004
995,7	-0,004
996,1	-0,003
996,5	-0,003
996,9	-0,003
997,4	-0,003
997,8	-0,004
998,2	-0,004
998,6	-0,004
999	-0,005
999,5	-0,006
999,9	-0,006
1000,3	-0,005
1000,7	-0,005
1001,1	-0,005
1001,5	-0,005
1002	-0,006
1002,4	-0,005
1002,8	-0,006
1003,2	-0,005
1003,6	-0,005
1004	-0,005
1004,5	-0,004
1004,9	-0,004
1005,3	-0,004
1005,7	-0,004
1006,1	-0,004
1006,6	-0,004
1007	-0,004
1007,4	-0,005
1007,8	-0,005
1008,2	-0,005
1008,6	-0,005
1009,1	-0,005
1009,5	-0,006
1009,9	-0,006
1010,3	-0,006
1010,7	-0,006
1011,1	-0,007
1011,6	-0,006
1012	-0,006
1012,4	-0,006
1012,8	-0,006
1013,2	-0,005
1013,6	-0,005
1014,1	-0,005
1014,5	-0,005
1014,9	-0,005
1015,3	-0,005
1015,7	-0,006
1016,1	-0,006
1016,6	-0,007
1017	-0,006
1017,4	-0,006
1017,8	-0,006
1018,2	-0,006
1018,6	-0,007
1019,1	-0,006
1019,5	-0,006
1019,9	-0,006
1020,3	-0,006
1020,7	-0,006
1021,1	-0,005
1021,6	-0,005
1022	-0,005
1022,4	-0,005
1022,8	-0,005
1023,2	-0,005
1023,6	-0,004
1024,1	-0,005
1024,5	-0,006
1024,9	-0,005
1025,3	-0,004
1025,7	-0,005
1026,1	-0,004
1026,6	-0,005
1027	-0,004
1027,4	-0,004
1027,8	-0,005
1028,2	-0,005
1028,6	-0,005
1029	-0,005
1029,5	-0,005
1029,9	-0,005
1030,3	-0,004
1030,7	-0,004
1031,1	-0,005
1031,5	-0,005
1032	-0,005
1032,4	-0,005
1032,8	-0,005
1033,2	-0,005
1033,6	-0,006
1034	-0,006
1034,4	-0,005
1034,9	-0,006
1035,3	-0,006
1035,7	-0,006
1036,1	-0,007
1036,5	-0,007
1036,9	-0,007
1037,4	-0,007
1037,8	-0,006
1038,2	-0,006
1038,6	-0,007
1039	-0,006
1039,4	-0,005
1039,8	-0,006
1040,3	-0,006
1040,7	-0,006
1041,1	-0,006
1041,5	-0,006
1041,9	-0,006
1042,3	-0,005
1042,7	-0,005
1043,2	-0,005
1043,6	-0,005
1044	-0,005
1044,4	-0,004
1044,8	-0,005
1045,2	-0,006
1045,6	-0,005
1046,1	-0,006
1046,5	-0,006
1046,9	-0,005
1047,3	-0,005
1047,7	-0,005
1048,1	-0,005
1048,5	-0,005
1049	-0,005
1049,4	-0,004
1049,8	-0,005
1050,2	-0,006
1050,6	-0,006
1051	-0,006
1051,4	-0,006
1051,9	-0,006
1052,3	-0,007
1052,7	-0,006
1053,1	-0,006
1053,5	-0,006
1053,9	-0,006
1054,3	-0,006
1054,8	-0,006
1055,2	-0,006
1055,6	-0,005
1056	-0,006
1056,4	-0,005
1056,8	-0,005
1057,2	-0,005
1057,6	-0,005
1058,1	-0,005
1058,5	-0,006
1058,9	-0,006
1059,3	-0,006
1059,7	-0,006
1060,1	-0,005
1060,5	-0,005
1061	-0,004
1061,4	-0,003
1061,8	-0,003
1062,2	-0,003
1062,6	-0,003
1063	-0,003
1063,4	-0,004
1063,8	-0,004
1064,3	-0,005
1064,7	-0,006
1065,1	-0,006
1065,5	-0,006
1065,9	-0,005
1066,3	-0,005
1066,7	-0,006
1067,1	-0,005
1067,6	-0,006
1068	-0,006
1068,4	-0,007
1068,8	-0,007
1069,2	-0,008
1069,6	-0,006
1070	-0,007
1070,4	-0,007
1070,9	-0,007
1071,3	-0,006
1071,7	-0,006
1072,1	-0,006
1072,5	-0,006
1072,9	-0,007
1073,3	-0,006
1073,7	-0,006
1074,2	-0,005
1074,6	-0,006
1075	-0,006
1075,4	-0,007
1075,8	-0,005
1076,2	-0,006
1076,6	-0,006
1077	-0,007
1077,5	-0,004
1077,9	-0,005
1078,3	-0,004
1078,7	-0,004
1079,1	-0,004
1079,5	-0,004
1079,9	-0,003
1080,3	-0,004
1080,7	-0,003
1081,2	-0,004
1081,6	-0,002
1082	-0,001
1082,4	-0,001
1082,8	-0,001
1083,2	-0,001
1083,6	0,002
1084	0,001
1084,5	0
1084,9	-0
1085,3	0,001
1085,7	0,002
1086,1	0
1086,5	-0
1086,9	-0,001
1087,3	-0,002
1087,7	-0,003
1088,2	-0,003
1088,6	-0,005
1089	-0,006
1089,4	-0,007
1089,8	-0,004
1090,2	-0,003
1090,6	-0,003
1091	-0,007
1091,4	-0,007
1091,9	-0,007
1092,3	-0,006
1092,7	-0,009
1093,1	-0,01
1093,5	-0,007
1093,9	-0,008
1094,3	-0,006
1094,7	-0,006
1095,1	-0,005
1095,5	-0,006
1096	-0,004
1096,4	-0,006
1096,8	-0,003
1097,2	-0,01
1097,6	-0,005
1098	-0,007
1098,4	-0,006
1098,8	-0,005
1099,2	-0,007
1099,6	-0,004
1100,1	-0,001
1100,5	-0,004
1100,9	-0,007
1101,3	-0,013
1101,7	-0,01
1102,1	-0,008
1102,5	-0,002
1102,9	0,001
1103,3	0,007
1103,7	0,007
1104,2	0,015
1104,6	0,01
1105	0,007
1105,4	0,004
1105,8	-0,007
1106,2	-0,012
1106,6	-0,01
1107	-0,016
1107,4	-0,017
1107,8	-0,015
1108,3	-0
