Data from Absorbance_00014.txt Node
Date: Thu Aug 24 15:56:09 MSK 2023
User: vat
Spectrometer: MAYP114033
Trigger mode: 0
Integration Time (sec): 8,000000E-3
Scans to average: 10
Electric dark correction enabled: true
Nonlinearity correction enabled: false
Boxcar width: 3
XAxis mode: Wavelengths
Number of Pixels in Spectrum: 2068
>>>>>Begin Spectral Data<<<<<
199,4	0,538
199,9	0,219
200,4	0,405
200,8	0,727
201,3	0,829
201,8	0,872
202,2	0,893
202,7	0,92
203,2	0,945
203,6	0,971
204,1	0,986
204,6	0,992
205	1,01
205,5	1,03
206	1,046
206,4	1,076
206,9	1,083
207,4	1,108
207,8	1,111
208,3	1,133
208,8	1,149
209,2	1,149
209,7	1,148
210,2	1,168
210,6	1,175
211,1	1,207
211,5	1,223
212	1,239
212,5	1,267
212,9	1,31
213,4	1,313
213,9	1,319
214,3	1,331
214,8	1,341
215,3	1,333
215,7	1,332
216,2	1,338
216,7	1,355
217,1	1,38
217,6	1,392
218,1	1,412
218,5	1,453
219	1,492
219,5	1,504
219,9	1,516
220,4	1,53
220,9	1,538
221,3	1,552
221,8	1,561
222,3	1,56
222,7	1,574
223,2	1,609
223,6	1,62
224,1	1,639
224,6	1,655
225	1,669
225,5	1,677
226	1,687
226,4	1,699
226,9	1,724
227,4	1,745
227,8	1,742
228,3	1,746
228,8	1,763
229,2	1,765
229,7	1,766
230,2	1,764
230,6	1,759
231,1	1,778
231,5	1,792
232	1,814
232,5	1,838
232,9	1,855
233,4	1,868
233,9	1,896
234,3	1,904
234,8	1,911
235,3	1,909
235,7	1,921
236,2	1,929
236,7	1,945
237,1	1,961
237,6	1,974
238,1	1,992
238,5	2
239	1,998
239,4	1,992
239,9	1,997
240,4	1,985
240,8	1,987
241,3	2
241,8	2,018
242,2	2,023
242,7	2,044
243,2	2,037
243,6	2,047
244,1	2,04
244,6	2,022
245	2,023
245,5	2,031
245,9	2,032
246,4	2,042
246,9	2,031
247,3	2,039
247,8	2,06
248,3	2,069
248,7	2,059
249,2	2,063
249,7	2,054
250,1	2,077
250,6	2,097
251	2,1
251,5	2,111
252	2,126
252,4	2,123
252,9	2,134
253,4	2,14
253,8	2,139
254,3	2,12
254,8	2,106
255,2	2,117
255,7	2,116
256,1	2,126
256,6	2,11
257,1	2,117
257,5	2,116
258	2,118
258,5	2,105
258,9	2,112
259,4	2,097
259,9	2,117
260,3	2,094
260,8	2,11
261,2	2,109
261,7	2,115
262,2	2,115
262,6	2,133
263,1	2,113
263,6	2,132
264	2,127
264,5	2,134
264,9	2,146
265,4	2,145
265,9	2,131
266,3	2,143
266,8	2,121
267,3	2,111
267,7	2,087
268,2	2,068
268,7	2,054
269,1	2,055
269,6	2,03
270	2,044
270,5	2,048
271	2,047
271,4	2,048
271,9	2,03
272,4	2,008
272,8	2,014
273,3	1,998
273,7	1,99
274,2	1,98
274,7	1,949
275,1	1,944
275,6	1,926
276,1	1,889
276,5	1,841
277	1,795
277,4	1,754
277,9	1,714
278,4	1,659
278,8	1,61
279,3	1,552
279,8	1,496
280,2	1,435
280,7	1,376
281,1	1,32
281,6	1,267
282,1	1,211
282,5	1,163
283	1,118
283,4	1,077
283,9	1,037
284,4	1
284,8	0,965
285,3	0,936
285,8	0,909
286,2	0,886
286,7	0,865
287,1	0,848
287,6	0,829
288,1	0,816
288,5	0,801
289	0,79
289,5	0,78
289,9	0,771
290,4	0,764
290,8	0,76
291,3	0,755
291,8	0,752
292,2	0,748
292,7	0,743
293,1	0,741
293,6	0,736
294,1	0,734
294,5	0,732
295	0,73
295,5	0,728
295,9	0,726
296,4	0,724
296,8	0,722
297,3	0,719
297,8	0,716
298,2	0,715
298,7	0,713
299,1	0,711
299,6	0,709
300,1	0,707
300,5	0,704
301	0,702
301,5	0,699
301,9	0,695
302,4	0,693
302,8	0,689
303,3	0,686
303,8	0,683
304,2	0,68
304,7	0,676
305,1	0,674
305,6	0,668
306,1	0,665
306,5	0,661
307	0,657
307,4	0,653
307,9	0,649
308,4	0,643
308,8	0,64
309,3	0,635
309,8	0,63
310,2	0,625
310,7	0,62
311,1	0,614
311,6	0,61
312,1	0,604
312,5	0,599
313	0,595
313,4	0,59
313,9	0,587
314,4	0,583
314,8	0,576
315,3	0,572
315,7	0,567
316,2	0,561
316,7	0,556
317,1	0,549
317,6	0,543
318	0,539
318,5	0,533
319	0,528
319,4	0,521
319,9	0,515
320,3	0,509
320,8	0,503
321,3	0,498
321,7	0,492
322,2	0,486
322,6	0,482
323,1	0,475
323,6	0,469
324	0,463
324,5	0,458
324,9	0,452
325,4	0,446
325,9	0,44
326,3	0,435
326,8	0,429
327,2	0,423
327,7	0,417
328,2	0,412
328,6	0,406
329,1	0,401
329,5	0,395
330	0,389
330,5	0,384
330,9	0,377
331,4	0,372
331,8	0,367
332,3	0,361
332,8	0,356
333,2	0,351
333,7	0,346
334,1	0,341
334,6	0,336
335,1	0,331
335,5	0,327
336	0,322
336,4	0,316
336,9	0,312
337,4	0,308
337,8	0,303
338,3	0,298
338,7	0,292
339,2	0,287
339,7	0,283
340,1	0,278
340,6	0,273
341	0,269
341,5	0,264
342	0,26
342,4	0,257
342,9	0,252
343,3	0,248
343,8	0,244
344,2	0,24
344,7	0,236
345,2	0,233
345,6	0,228
346,1	0,225
346,5	0,221
347	0,217
347,5	0,213
347,9	0,209
348,4	0,205
348,8	0,201
349,3	0,198
349,8	0,195
350,2	0,192
350,7	0,189
351,1	0,185
351,6	0,183
352	0,179
352,5	0,176
353	0,173
353,4	0,17
353,9	0,167
354,3	0,164
354,8	0,161
355,3	0,158
355,7	0,156
356,2	0,152
356,6	0,149
357,1	0,146
357,5	0,144
358	0,141
358,5	0,139
358,9	0,136
359,4	0,135
359,8	0,132
360,3	0,13
360,8	0,128
361,2	0,125
361,7	0,123
362,1	0,121
362,6	0,118
363	0,116
363,5	0,114
364	0,111
364,4	0,11
364,9	0,108
365,3	0,106
365,8	0,105
366,3	0,104
366,7	0,102
367,2	0,101
367,6	0,098
368,1	0,097
368,5	0,095
369	0,093
369,5	0,091
369,9	0,089
370,4	0,088
370,8	0,086
371,3	0,085
371,7	0,083
372,2	0,082
372,7	0,08
373,1	0,079
373,6	0,077
374	0,076
374,5	0,074
374,9	0,073
375,4	0,071
375,9	0,07
376,3	0,069
376,8	0,068
377,2	0,067
377,7	0,066
378,2	0,064
378,6	0,064
379,1	0,063
379,5	0,062
380	0,062
380,4	0,06
380,9	0,059
381,4	0,058
381,8	0,056
382,3	0,055
382,7	0,053
383,2	0,053
383,6	0,051
384,1	0,05
384,6	0,05
385	0,049
385,5	0,048
385,9	0,048
386,4	0,047
386,8	0,046
387,3	0,045
387,7	0,045
388,2	0,044
388,7	0,043
389,1	0,043
389,6	0,042
390	0,042
390,5	0,041
390,9	0,04
391,4	0,039
391,9	0,038
392,3	0,037
392,8	0,036
393,2	0,036
393,7	0,036
394,1	0,035
394,6	0,035
395,1	0,035
395,5	0,034
396	0,033
396,4	0,032
396,9	0,032
397,3	0,031
397,8	0,031
398,2	0,03
398,7	0,029
399,2	0,029
399,6	0,028
400,1	0,027
400,5	0,026
401	0,027
401,4	0,027
401,9	0,026
402,4	0,026
402,8	0,026
403,3	0,026
403,7	0,025
404,2	0,024
404,6	0,023
405,1	0,023
405,5	0,022
406	0,022
406,5	0,021
406,9	0,02
407,4	0,021
407,8	0,021
408,3	0,02
408,7	0,021
409,2	0,02
409,6	0,019
410,1	0,019
410,6	0,019
411	0,018
411,5	0,018
411,9	0,017
412,4	0,017
412,8	0,017
413,3	0,016
413,7	0,016
414,2	0,016
414,7	0,015
415,1	0,015
415,6	0,015
416	0,015
416,5	0,015
416,9	0,014
417,4	0,014
417,8	0,014
418,3	0,013
418,8	0,013
419,2	0,012
419,7	0,011
420,1	0,011
420,6	0,01
421	0,01
421,5	0,01
421,9	0,009
422,4	0,009
422,8	0,008
423,3	0,008
423,8	0,008
424,2	0,007
424,7	0,008
425,1	0,008
425,6	0,008
426	0,007
426,5	0,007
426,9	0,006
427,4	0,006
427,9	0,005
428,3	0,004
428,8	0,004
429,2	0,004
429,7	0,003
430,1	0,003
430,6	0,003
431	0,003
431,5	0,003
431,9	0,003
432,4	0,003
432,8	0,003
433,3	0,002
433,8	0,002
434,2	0,001
434,7	0,001
435,1	0
435,6	-0
436	-0
436,5	-0
436,9	-0
437,4	-0
437,8	-0
438,3	-0
438,8	-0,001
439,2	-0,001
439,7	-0,002
440,1	-0,002
440,6	-0,002
441	-0,002
441,5	-0,002
441,9	-0,002
442,4	-0,002
442,8	-0,002
443,3	-0,002
443,7	-0,002
444,2	-0,003
444,7	-0,004
445,1	-0,004
445,6	-0,004
446	-0,004
446,5	-0,005
446,9	-0,004
447,4	-0,004
447,8	-0,004
448,3	-0,004
448,7	-0,004
449,2	-0,004
449,6	-0,004
450,1	-0,004
450,6	-0,004
451	-0,004
451,5	-0,005
451,9	-0,004
452,4	-0,005
452,8	-0,005
453,3	-0,005
453,7	-0,005
454,2	-0,006
454,6	-0,006
455,1	-0,006
455,5	-0,007
456	-0,007
456,4	-0,006
456,9	-0,006
457,3	-0,006
457,8	-0,006
458,3	-0,007
458,7	-0,006
459,2	-0,006
459,6	-0,007
460,1	-0,007
460,5	-0,007
461	-0,007
461,4	-0,006
461,9	-0,006
462,3	-0,006
462,8	-0,006
463,2	-0,006
463,7	-0,007
464,1	-0,007
464,6	-0,008
465	-0,008
465,5	-0,009
466	-0,009
466,4	-0,009
466,9	-0,009
467,3	-0,01
467,8	-0,009
468,2	-0,009
468,7	-0,009
469,1	-0,009
469,6	-0,009
470	-0,008
470,5	-0,008
470,9	-0,008
471,4	-0,008
471,8	-0,008
472,3	-0,007
472,7	-0,008
473,2	-0,008
473,6	-0,008
474,1	-0,008
474,5	-0,009
475	-0,009
475,4	-0,009
475,9	-0,009
476,4	-0,01
476,8	-0,01
477,3	-0,01
477,7	-0,01
478,2	-0,01
478,6	-0,01
479,1	-0,009
479,5	-0,009
480	-0,008
480,4	-0,008
480,9	-0,008
481,3	-0,009
481,8	-0,009
482,2	-0,009
482,7	-0,009
483,1	-0,009
483,6	-0,01
484	-0,01
484,5	-0,01
484,9	-0,01
485,4	-0,01
485,8	-0,009
486,3	-0,009
486,7	-0,009
487,2	-0,009
487,6	-0,009
488,1	-0,009
488,5	-0,008
489	-0,009
489,4	-0,009
489,9	-0,009
490,4	-0,01
490,8	-0,01
491,3	-0,01
491,7	-0,01
492,2	-0,01
492,6	-0,01
493,1	-0,01
493,5	-0,01
494	-0,01
494,4	-0,01
494,9	-0,01
495,3	-0,01
495,8	-0,01
496,2	-0,01
496,7	-0,011
497,1	-0,01
497,6	-0,01
498	-0,009
498,5	-0,009
498,9	-0,009
499,4	-0,009
499,8	-0,009
500,3	-0,009
500,7	-0,009
501,2	-0,009
501,6	-0,009
502,1	-0,009
502,5	-0,01
503	-0,009
503,4	-0,01
503,9	-0,01
504,3	-0,01
504,8	-0,01
505,2	-0,01
505,7	-0,01
506,1	-0,01
506,6	-0,01
507	-0,01
507,5	-0,009
507,9	-0,01
508,4	-0,01
508,8	-0,01
509,3	-0,009
509,7	-0,009
510,2	-0,009
510,6	-0,009
511,1	-0,009
511,5	-0,009
512	-0,009
512,4	-0,009
512,9	-0,009
513,3	-0,009
513,8	-0,01
514,2	-0,01
514,7	-0,01
515,1	-0,01
515,6	-0,011
516	-0,011
516,5	-0,012
516,9	-0,012
517,4	-0,012
517,8	-0,011
518,3	-0,011
518,7	-0,012
519,2	-0,012
519,6	-0,011
520,1	-0,011
520,5	-0,011
521	-0,011
521,4	-0,011
521,9	-0,01
522,3	-0,01
522,8	-0,01
523,2	-0,01
523,7	-0,01
524,1	-0,01
524,6	-0,01
525	-0,011
525,5	-0,011
525,9	-0,011
526,4	-0,011
526,8	-0,011
527,3	-0,011
527,7	-0,01
528,2	-0,009
528,6	-0,009
529,1	-0,009
529,5	-0,008
530	-0,008
530,4	-0,009
530,9	-0,009
531,3	-0,009
531,8	-0,01
532,2	-0,01
532,6	-0,01
533,1	-0,011
533,5	-0,011
534	-0,011
534,4	-0,01
534,9	-0,01
535,3	-0,01
535,8	-0,009
536,2	-0,009
536,7	-0,008
537,1	-0,008
537,6	-0,009
538	-0,009
538,5	-0,009
538,9	-0,01
539,4	-0,009
539,8	-0,01
540,3	-0,009
540,7	-0,009
541,2	-0,01
541,6	-0,01
542,1	-0,009
542,5	-0,01
543	-0,01
543,4	-0,01
543,9	-0,01
544,3	-0,009
544,8	-0,009
545,2	-0,01
545,7	-0,009
546,1	-0,009
546,5	-0,01
547	-0,009
547,4	-0,01
547,9	-0,01
548,3	-0,01
548,8	-0,01
549,2	-0,01
549,7	-0,01
550,1	-0,01
550,6	-0,01
551	-0,01
551,5	-0,01
551,9	-0,01
552,4	-0,01
552,8	-0,01
553,3	-0,01
553,7	-0,011
554,2	-0,011
554,6	-0,011
555,1	-0,011
555,5	-0,012
555,9	-0,011
556,4	-0,011
556,8	-0,01
557,3	-0,01
557,7	-0,01
558,2	-0,009
558,6	-0,009
559,1	-0,009
559,5	-0,009
560	-0,008
560,4	-0,008
560,9	-0,008
561,3	-0,008
561,8	-0,009
562,2	-0,009
562,7	-0,008
563,1	-0,009
563,6	-0,008
564	-0,008
564,4	-0,009
564,9	-0,009
565,3	-0,009
565,8	-0,01
566,2	-0,01
566,7	-0,01
567,1	-0,01
567,6	-0,01
568	-0,009
568,5	-0,009
568,9	-0,009
569,4	-0,008
569,8	-0,009
570,3	-0,008
570,7	-0,008
571,1	-0,009
571,6	-0,009
572	-0,008
572,5	-0,008
572,9	-0,008
573,4	-0,008
573,8	-0,009
574,3	-0,009
574,7	-0,009
575,2	-0,009
575,6	-0,009
576,1	-0,009
576,5	-0,009
576,9	-0,009
577,4	-0,009
577,8	-0,009
578,3	-0,009
578,7	-0,009
579,2	-0,009
579,6	-0,009
580,1	-0,009
580,5	-0,009
581	-0,009
581,4	-0,008
581,9	-0,009
582,3	-0,008
582,7	-0,009
583,2	-0,009
583,6	-0,009
584,1	-0,009
584,5	-0,009
585	-0,008
585,4	-0,008
585,9	-0,008
586,3	-0,008
586,8	-0,008
587,2	-0,008
587,6	-0,009
588,1	-0,009
588,5	-0,009
589	-0,009
589,4	-0,009
589,9	-0,009
590,3	-0,009
590,8	-0,008
591,2	-0,009
591,7	-0,009
592,1	-0,008
592,5	-0,008
593	-0,008
593,4	-0,008
593,9	-0,008
594,3	-0,008
594,8	-0,008
595,2	-0,008
595,7	-0,008
596,1	-0,008
596,6	-0,008
597	-0,008
597,4	-0,009
597,9	-0,008
598,3	-0,008
598,8	-0,009
599,2	-0,009
599,7	-0,009
600,1	-0,008
600,6	-0,009
601	-0,009
601,4	-0,009
601,9	-0,009
602,3	-0,009
602,8	-0,009
603,2	-0,009
603,7	-0,009
604,1	-0,008
604,6	-0,008
605	-0,008
605,4	-0,008
605,9	-0,008
606,3	-0,008
606,8	-0,008
607,2	-0,008
607,7	-0,008
608,1	-0,008
608,6	-0,008
609	-0,008
609,4	-0,008
609,9	-0,008
610,3	-0,008
610,8	-0,008
611,2	-0,008
611,7	-0,008
612,1	-0,008
612,6	-0,008
613	-0,008
613,4	-0,008
613,9	-0,008
614,3	-0,008
614,8	-0,008
615,2	-0,008
615,7	-0,008
616,1	-0,008
616,6	-0,008
617	-0,008
617,4	-0,008
617,9	-0,008
618,3	-0,008
618,8	-0,008
619,2	-0,008
619,7	-0,008
620,1	-0,009
620,5	-0,009
621	-0,009
621,4	-0,009
621,9	-0,009
622,3	-0,009
622,8	-0,009
623,2	-0,009
623,6	-0,009
624,1	-0,009
624,5	-0,009
625	-0,009
625,4	-0,009
625,9	-0,008
626,3	-0,008
626,8	-0,008
627,2	-0,008
627,6	-0,008
628,1	-0,007
628,5	-0,007
629	-0,008
629,4	-0,008
629,9	-0,008
630,3	-0,008
630,7	-0,008
631,2	-0,008
631,6	-0,008
632,1	-0,008
632,5	-0,008
633	-0,008
633,4	-0,007
633,8	-0,008
634,3	-0,007
634,7	-0,008
635,2	-0,008
635,6	-0,007
636,1	-0,008
636,5	-0,008
636,9	-0,008
637,4	-0,007
637,8	-0,008
638,3	-0,007
638,7	-0,008
639,2	-0,007
639,6	-0,007
640	-0,007
640,5	-0,008
640,9	-0,007
641,4	-0,007
641,8	-0,007
642,2	-0,008
642,7	-0,007
643,1	-0,007
643,6	-0,007
644	-0,007
644,5	-0,007
644,9	-0,007
645,3	-0,007
645,8	-0,007
646,2	-0,007
646,7	-0,007
647,1	-0,008
647,6	-0,007
648	-0,008
648,4	-0,007
648,9	-0,008
649,3	-0,008
649,8	-0,008
650,2	-0,007
650,6	-0,007
651,1	-0,007
651,5	-0,007
652	-0,007
652,4	-0,007
652,9	-0,007
653,3	-0,008
653,7	-0,008
654,2	-0,008
654,6	-0,007
655,1	-0,006
655,5	-0,004
655,9	-0,002
656,4	-0,002
656,8	-0,002
657,3	-0,002
657,7	-0,002
658,2	-0,001
658,6	-0,002
659	-0,003
659,5	-0,005
659,9	-0,006
660,4	-0,007
660,8	-0,007
661,2	-0,007
661,7	-0,008
662,1	-0,007
662,6	-0,007
663	-0,007
663,4	-0,007
663,9	-0,007
664,3	-0,008
664,8	-0,008
665,2	-0,008
665,6	-0,008
666,1	-0,008
666,5	-0,008
667	-0,008
667,4	-0,008
667,9	-0,007
668,3	-0,008
668,7	-0,008
669,2	-0,008
669,6	-0,008
670,1	-0,007
670,5	-0,007
670,9	-0,007
671,4	-0,007
671,8	-0,007
672,3	-0,007
672,7	-0,007
673,1	-0,007
673,6	-0,007
674	-0,008
674,5	-0,007
674,9	-0,007
675,3	-0,007
675,8	-0,007
676,2	-0,007
676,7	-0,006
677,1	-0,006
677,5	-0,007
678	-0,007
678,4	-0,006
678,9	-0,006
679,3	-0,006
679,7	-0,006
680,2	-0,006
680,6	-0,006
681,1	-0,006
681,5	-0,007
681,9	-0,007
682,4	-0,007
682,8	-0,007
683,3	-0,007
683,7	-0,007
684,1	-0,007
684,6	-0,007
685	-0,007
685,5	-0,008
685,9	-0,007
686,3	-0,008
686,8	-0,008
687,2	-0,007
687,7	-0,007
688,1	-0,007
688,5	-0,007
689	-0,007
689,4	-0,007
689,9	-0,007
690,3	-0,007
690,7	-0,007
691,2	-0,007
691,6	-0,007
692	-0,007
692,5	-0,007
692,9	-0,007
693,4	-0,008
693,8	-0,008
694,2	-0,008
694,7	-0,008
695,1	-0,008
695,6	-0,008
696	-0,008
696,4	-0,008
696,9	-0,008
697,3	-0,008
697,8	-0,008
698,2	-0,007
698,6	-0,007
699,1	-0,007
699,5	-0,007
699,9	-0,007
700,4	-0,007
700,8	-0,007
701,3	-0,007
701,7	-0,007
702,1	-0,006
702,6	-0,006
703	-0,006
703,5	-0,006
703,9	-0,006
704,3	-0,006
704,8	-0,006
705,2	-0,007
705,6	-0,007
706,1	-0,007
706,5	-0,007
707	-0,007
707,4	-0,007
707,8	-0,007
708,3	-0,007
708,7	-0,007
709,2	-0,007
709,6	-0,007
710	-0,007
710,5	-0,007
710,9	-0,007
711,3	-0,007
711,8	-0,007
712,2	-0,007
712,7	-0,007
713,1	-0,007
713,5	-0,007
714	-0,007
714,4	-0,007
714,8	-0,006
715,3	-0,006
715,7	-0,006
716,2	-0,006
716,6	-0,006
717	-0,006
717,5	-0,007
717,9	-0,007
718,3	-0,007
718,8	-0,007
719,2	-0,007
719,7	-0,008
720,1	-0,008
720,5	-0,008
721	-0,007
721,4	-0,007
721,8	-0,007
722,3	-0,007
722,7	-0,007
723,2	-0,007
723,6	-0,007
724	-0,007
724,5	-0,007
724,9	-0,007
725,3	-0,007
725,8	-0,007
726,2	-0,007
726,7	-0,007
727,1	-0,007
727,5	-0,007
728	-0,007
728,4	-0,007
728,8	-0,007
729,3	-0,007
729,7	-0,007
730,1	-0,007
730,6	-0,007
731	-0,007
731,5	-0,007
731,9	-0,007
732,3	-0,007
732,8	-0,007
733,2	-0,007
733,6	-0,007
734,1	-0,006
734,5	-0,007
734,9	-0,007
735,4	-0,007
735,8	-0,007
736,3	-0,006
736,7	-0,007
737,1	-0,007
737,6	-0,007
738	-0,007
738,4	-0,007
738,9	-0,007
739,3	-0,007
739,7	-0,007
740,2	-0,007
740,6	-0,007
741,1	-0,007
741,5	-0,006
741,9	-0,006
742,4	-0,007
742,8	-0,006
743,2	-0,006
743,7	-0,006
744,1	-0,006
744,5	-0,007
745	-0,007
745,4	-0,006
745,8	-0,006
746,3	-0,007
746,7	-0,006
747,2	-0,006
747,6	-0,006
748	-0,006
748,5	-0,007
748,9	-0,007
749,3	-0,007
749,8	-0,007
750,2	-0,007
750,6	-0,007
751,1	-0,006
751,5	-0,006
751,9	-0,006
752,4	-0,006
752,8	-0,006
753,3	-0,006
753,7	-0,006
754,1	-0,007
754,6	-0,006
755	-0,006
755,4	-0,006
755,9	-0,007
756,3	-0,007
756,7	-0,007
757,2	-0,007
757,6	-0,007
758	-0,007
758,5	-0,007
758,9	-0,007
759,3	-0,007
759,8	-0,007
760,2	-0,006
760,6	-0,006
761,1	-0,006
761,5	-0,006
761,9	-0,006
762,4	-0,006
762,8	-0,006
763,3	-0,006
763,7	-0,007
764,1	-0,006
764,6	-0,006
765	-0,006
765,4	-0,006
765,9	-0,006
766,3	-0,006
766,7	-0,006
767,2	-0,006
767,6	-0,006
768	-0,006
768,5	-0,007
768,9	-0,007
769,3	-0,007
769,8	-0,007
770,2	-0,006
770,6	-0,006
771,1	-0,006
771,5	-0,006
771,9	-0,006
772,4	-0,007
772,8	-0,007
773,2	-0,007
773,7	-0,007
774,1	-0,007
774,5	-0,008
775	-0,008
775,4	-0,008
775,8	-0,008
776,3	-0,008
776,7	-0,008
777,1	-0,008
777,6	-0,008
778	-0,007
778,4	-0,007
778,9	-0,007
779,3	-0,007
779,7	-0,006
780,2	-0,006
780,6	-0,006
781	-0,006
781,5	-0,006
781,9	-0,006
782,3	-0,006
782,8	-0,006
783,2	-0,006
783,6	-0,006
784,1	-0,006
784,5	-0,006
784,9	-0,006
785,4	-0,006
785,8	-0,006
786,2	-0,006
786,7	-0,006
787,1	-0,006
787,5	-0,006
788	-0,006
788,4	-0,007
788,8	-0,007
789,3	-0,007
789,7	-0,007
790,1	-0,007
790,6	-0,007
791	-0,007
791,4	-0,007
791,9	-0,007
792,3	-0,007
792,7	-0,007
793,2	-0,007
793,6	-0,008
794	-0,008
794,5	-0,007
794,9	-0,007
795,3	-0,007
795,8	-0,007
796,2	-0,007
796,6	-0,007
797,1	-0,007
797,5	-0,007
797,9	-0,007
798,4	-0,007
798,8	-0,007
799,2	-0,007
799,7	-0,007
800,1	-0,007
800,5	-0,006
801	-0,006
801,4	-0,006
801,8	-0,006
802,2	-0,006
802,7	-0,006
803,1	-0,006
803,5	-0,007
804	-0,006
804,4	-0,007
804,8	-0,007
805,3	-0,007
805,7	-0,007
806,1	-0,007
806,6	-0,007
807	-0,007
807,4	-0,006
807,9	-0,006
808,3	-0,006
808,7	-0,006
809,2	-0,006
809,6	-0,006
810	-0,006
810,4	-0,007
810,9	-0,006
811,3	-0,007
811,7	-0,007
812,2	-0,006
812,6	-0,006
813	-0,006
813,5	-0,006
813,9	-0,006
814,3	-0,006
814,8	-0,006
815,2	-0,007
815,6	-0,007
816,1	-0,007
816,5	-0,007
816,9	-0,007
817,3	-0,007
817,8	-0,007
818,2	-0,007
818,6	-0,007
819,1	-0,007
819,5	-0,006
819,9	-0,007
820,4	-0,007
820,8	-0,007
821,2	-0,007
821,7	-0,006
822,1	-0,006
822,5	-0,006
822,9	-0,006
823,4	-0,006
823,8	-0,006
824,2	-0,006
824,7	-0,007
825,1	-0,007
825,5	-0,007
826	-0,007
826,4	-0,007
826,8	-0,007
827,3	-0,007
827,7	-0,006
828,1	-0,006
828,5	-0,006
829	-0,006
829,4	-0,006
829,8	-0,006
830,3	-0,006
830,7	-0,007
831,1	-0,006
831,6	-0,006
832	-0,006
832,4	-0,006
832,8	-0,006
833,3	-0,006
833,7	-0,006
834,1	-0,006
834,6	-0,006
835	-0,006
835,4	-0,006
835,8	-0,006
836,3	-0,006
836,7	-0,006
837,1	-0,005
837,6	-0,006
838	-0,006
838,4	-0,006
838,9	-0,006
839,3	-0,006
839,7	-0,006
840,1	-0,005
840,6	-0,005
841	-0,005
841,4	-0,005
841,9	-0,005
842,3	-0,005
842,7	-0,005
843,1	-0,006
843,6	-0,006
844	-0,006
844,4	-0,006
844,9	-0,006
845,3	-0,007
845,7	-0,007
846,2	-0,007
846,6	-0,006
847	-0,006
847,4	-0,006
847,9	-0,006
848,3	-0,006
848,7	-0,005
849,2	-0,005
849,6	-0,006
850	-0,006
850,4	-0,006
850,9	-0,006
851,3	-0,006
851,7	-0,006
852,2	-0,006
852,6	-0,006
853	-0,006
853,4	-0,006
853,9	-0,006
854,3	-0,006
854,7	-0,006
855,2	-0,006
855,6	-0,006
856	-0,006
856,4	-0,006
856,9	-0,006
857,3	-0,006
857,7	-0,006
858,2	-0,006
858,6	-0,006
859	-0,006
859,4	-0,006
859,9	-0,006
860,3	-0,006
860,7	-0,007
861,1	-0,006
861,6	-0,006
862	-0,006
862,4	-0,005
862,9	-0,005
863,3	-0,005
863,7	-0,005
864,1	-0,005
864,6	-0,005
865	-0,005
865,4	-0,005
865,9	-0,006
866,3	-0,005
866,7	-0,005
867,1	-0,005
867,6	-0,006
868	-0,006
868,4	-0,006
868,8	-0,006
869,3	-0,007
869,7	-0,007
870,1	-0,007
870,6	-0,007
871	-0,007
871,4	-0,006
871,8	-0,006
872,3	-0,006
872,7	-0,006
873,1	-0,006
873,5	-0,006
874	-0,006
874,4	-0,007
874,8	-0,006
875,3	-0,007
875,7	-0,007
876,1	-0,007
876,5	-0,006
877	-0,006
877,4	-0,006
877,8	-0,006
878,2	-0,006
878,7	-0,006
879,1	-0,006
879,5	-0,006
879,9	-0,006
880,4	-0,006
880,8	-0,006
881,2	-0,006
881,7	-0,006
882,1	-0,006
882,5	-0,006
882,9	-0,006
883,4	-0,007
883,8	-0,006
884,2	-0,006
884,6	-0,006
885,1	-0,006
885,5	-0,006
885,9	-0,006
886,3	-0,006
886,8	-0,006
887,2	-0,006
887,6	-0,006
888	-0,006
888,5	-0,006
888,9	-0,006
889,3	-0,006
889,8	-0,006
890,2	-0,006
890,6	-0,006
891	-0,006
891,5	-0,006
891,9	-0,006
892,3	-0,006
892,7	-0,006
893,2	-0,006
893,6	-0,006
894	-0,006
894,4	-0,006
894,9	-0,006
895,3	-0,006
895,7	-0,005
896,1	-0,005
896,6	-0,005
897	-0,005
897,4	-0,005
897,8	-0,005
898,3	-0,006
898,7	-0,006
899,1	-0,006
899,5	-0,006
900	-0,006
900,4	-0,007
900,8	-0,007
901,2	-0,006
901,7	-0,006
902,1	-0,006
902,5	-0,006
902,9	-0,006
903,4	-0,006
903,8	-0,006
904,2	-0,006
904,6	-0,006
905,1	-0,006
905,5	-0,006
905,9	-0,006
906,3	-0,006
906,8	-0,005
907,2	-0,005
907,6	-0,005
908	-0,005
908,5	-0,005
908,9	-0,005
909,3	-0,005
909,7	-0,005
910,2	-0,006
910,6	-0,006
911	-0,005
911,4	-0,006
911,9	-0,006
912,3	-0,006
912,7	-0,006
913,1	-0,006
913,6	-0,006
914	-0,006
914,4	-0,006
914,8	-0,006
915,3	-0,006
915,7	-0,006
916,1	-0,005
916,5	-0,005
916,9	-0,005
917,4	-0,005
917,8	-0,005
918,2	-0,005
918,6	-0,005
919,1	-0,005
919,5	-0,005
919,9	-0,005
920,3	-0,005
920,8	-0,006
921,2	-0,006
921,6	-0,007
922	-0,007
922,5	-0,007
922,9	-0,007
923,3	-0,006
923,7	-0,006
924,2	-0,005
924,6	-0,005
925	-0,005
925,4	-0,005
925,8	-0,005
926,3	-0,005
926,7	-0,005
927,1	-0,005
927,5	-0,006
928	-0,006
928,4	-0,006
928,8	-0,006
929,2	-0,007
929,7	-0,007
930,1	-0,007
930,5	-0,007
930,9	-0,007
931,3	-0,007
931,8	-0,007
932,2	-0,007
932,6	-0,007
933	-0,007
933,5	-0,006
933,9	-0,006
934,3	-0,006
934,7	-0,005
935,2	-0,006
935,6	-0,005
936	-0,005
936,4	-0,005
936,8	-0,006
937,3	-0,006
937,7	-0,006
938,1	-0,006
938,5	-0,006
939	-0,006
939,4	-0,007
939,8	-0,007
940,2	-0,006
940,6	-0,006
941,1	-0,006
941,5	-0,006
941,9	-0,006
942,3	-0,005
942,8	-0,005
943,2	-0,005
943,6	-0,006
944	-0,006
944,4	-0,006
944,9	-0,006
945,3	-0,007
945,7	-0,007
946,1	-0,007
946,6	-0,007
947	-0,007
947,4	-0,007
947,8	-0,007
948,2	-0,007
948,7	-0,007
949,1	-0,007
949,5	-0,007
949,9	-0,007
950,3	-0,007
950,8	-0,007
951,2	-0,007
951,6	-0,007
952	-0,006
952,5	-0,005
952,9	-0,005
953,3	-0,005
953,7	-0,005
954,1	-0,005
954,6	-0,006
955	-0,007
955,4	-0,007
955,8	-0,007
956,2	-0,008
956,7	-0,007
957,1	-0,007
957,5	-0,007
957,9	-0,007
958,3	-0,007
958,8	-0,007
959,2	-0,006
959,6	-0,005
960	-0,005
960,5	-0,004
960,9	-0,005
961,3	-0,004
961,7	-0,004
962,1	-0,004
962,6	-0,004
963	-0,005
963,4	-0,005
963,8	-0,005
964,2	-0,005
964,7	-0,005
965,1	-0,006
965,5	-0,006
965,9	-0,006
966,3	-0,007
966,8	-0,007
967,2	-0,007
967,6	-0,007
968	-0,007
968,4	-0,007
968,9	-0,007
969,3	-0,007
969,7	-0,006
970,1	-0,007
970,5	-0,007
971	-0,007
971,4	-0,007
971,8	-0,007
972,2	-0,007
972,6	-0,007
973,1	-0,007
973,5	-0,007
973,9	-0,007
974,3	-0,007
974,7	-0,007
975,2	-0,006
975,6	-0,006
976	-0,006
976,4	-0,006
976,8	-0,005
977,3	-0,005
977,7	-0,005
978,1	-0,005
978,5	-0,005
978,9	-0,005
979,4	-0,005
979,8	-0,004
980,2	-0,005
980,6	-0,005
981	-0,005
981,5	-0,005
981,9	-0,006
982,3	-0,006
982,7	-0,006
983,1	-0,005
983,6	-0,005
984	-0,005
984,4	-0,005
984,8	-0,005
985,2	-0,005
985,6	-0,005
986,1	-0,006
986,5	-0,006
986,9	-0,006
987,3	-0,006
987,7	-0,006
988,2	-0,006
988,6	-0,006
989	-0,006
989,4	-0,007
989,8	-0,007
990,3	-0,006
990,7	-0,006
991,1	-0,006
991,5	-0,006
991,9	-0,006
992,3	-0,006
992,8	-0,006
993,2	-0,006
993,6	-0,006
994	-0,006
994,4	-0,006
994,9	-0,006
995,3	-0,005
995,7	-0,005
996,1	-0,004
996,5	-0,005
996,9	-0,005
997,4	-0,005
997,8	-0,005
998,2	-0,006
998,6	-0,006
999	-0,006
999,5	-0,006
999,9	-0,006
1000,3	-0,006
1000,7	-0,006
1001,1	-0,006
1001,5	-0,006
1002	-0,007
1002,4	-0,006
1002,8	-0,007
1003,2	-0,007
1003,6	-0,007
1004	-0,007
1004,5	-0,006
1004,9	-0,006
1005,3	-0,006
1005,7	-0,005
1006,1	-0,005
1006,6	-0,005
1007	-0,004
1007,4	-0,005
1007,8	-0,005
1008,2	-0,005
1008,6	-0,004
1009,1	-0,004
1009,5	-0,004
1009,9	-0,005
1010,3	-0,006
1010,7	-0,006
1011,1	-0,006
1011,6	-0,006
1012	-0,007
1012,4	-0,007
1012,8	-0,006
1013,2	-0,006
1013,6	-0,006
1014,1	-0,006
1014,5	-0,006
1014,9	-0,005
1015,3	-0,006
1015,7	-0,006
1016,1	-0,006
1016,6	-0,007
1017	-0,007
1017,4	-0,006
1017,8	-0,006
1018,2	-0,006
1018,6	-0,006
1019,1	-0,006
1019,5	-0,005
1019,9	-0,005
1020,3	-0,006
1020,7	-0,006
1021,1	-0,005
1021,6	-0,005
1022	-0,005
1022,4	-0,005
1022,8	-0,006
1023,2	-0,006
1023,6	-0,005
1024,1	-0,006
1024,5	-0,006
1024,9	-0,006
1025,3	-0,006
1025,7	-0,005
1026,1	-0,005
1026,6	-0,006
1027	-0,005
1027,4	-0,005
1027,8	-0,006
1028,2	-0,005
1028,6	-0,006
1029	-0,006
1029,5	-0,005
1029,9	-0,005
1030,3	-0,005
1030,7	-0,004
1031,1	-0,004
1031,5	-0,004
1032	-0,005
1032,4	-0,004
1032,8	-0,005
1033,2	-0,005
1033,6	-0,006
1034	-0,006
1034,4	-0,006
1034,9	-0,006
1035,3	-0,007
1035,7	-0,007
1036,1	-0,007
1036,5	-0,007
1036,9	-0,007
1037,4	-0,007
1037,8	-0,006
1038,2	-0,006
1038,6	-0,006
1039	-0,006
1039,4	-0,006
1039,8	-0,006
1040,3	-0,006
1040,7	-0,007
1041,1	-0,007
1041,5	-0,007
1041,9	-0,008
1042,3	-0,007
1042,7	-0,007
1043,2	-0,007
1043,6	-0,006
1044	-0,006
1044,4	-0,006
1044,8	-0,006
1045,2	-0,006
1045,6	-0,006
1046,1	-0,006
1046,5	-0,006
1046,9	-0,005
1047,3	-0,004
1047,7	-0,004
1048,1	-0,004
1048,5	-0,005
1049	-0,005
1049,4	-0,005
1049,8	-0,006
1050,2	-0,006
1050,6	-0,007
1051	-0,007
1051,4	-0,006
1051,9	-0,005
1052,3	-0,005
1052,7	-0,005
1053,1	-0,004
1053,5	-0,004
1053,9	-0,004
1054,3	-0,005
1054,8	-0,005
1055,2	-0,006
1055,6	-0,006
1056	-0,006
1056,4	-0,006
1056,8	-0,006
1057,2	-0,006
1057,6	-0,006
1058,1	-0,005
1058,5	-0,005
1058,9	-0,006
1059,3	-0,006
1059,7	-0,006
1060,1	-0,006
1060,5	-0,006
1061	-0,006
1061,4	-0,005
1061,8	-0,005
1062,2	-0,005
1062,6	-0,005
1063	-0,005
1063,4	-0,006
1063,8	-0,006
1064,3	-0,006
1064,7	-0,007
1065,1	-0,006
1065,5	-0,006
1065,9	-0,006
1066,3	-0,004
1066,7	-0,004
1067,1	-0,005
1067,6	-0,006
1068	-0,006
1068,4	-0,007
1068,8	-0,007
1069,2	-0,008
1069,6	-0,007
1070	-0,006
1070,4	-0,006
1070,9	-0,006
1071,3	-0,006
1071,7	-0,005
1072,1	-0,005
1072,5	-0,006
1072,9	-0,006
1073,3	-0,006
1073,7	-0,006
1074,2	-0,005
1074,6	-0,006
1075	-0,006
1075,4	-0,007
1075,8	-0,006
1076,2	-0,006
1076,6	-0,007
1077	-0,008
1077,5	-0,007
1077,9	-0,007
1078,3	-0,007
1078,7	-0,007
1079,1	-0,008
1079,5	-0,008
1079,9	-0,008
1080,3	-0,008
1080,7	-0,01
1081,2	-0,008
1081,6	-0,008
1082	-0,006
1082,4	-0,005
1082,8	-0,004
1083,2	-0,004
1083,6	-0,002
1084	-0,003
1084,5	-0,001
1084,9	-0,001
1085,3	-0,002
1085,7	-0,002
1086,1	-0,004
1086,5	-0,004
1086,9	-0,004
1087,3	-0,005
1087,7	-0,007
1088,2	-0,009
1088,6	-0,008
1089	-0,009
1089,4	-0,009
1089,8	-0,008
1090,2	-0,011
1090,6	-0,01
1091	-0,007
1091,4	-0,008
1091,9	-0,007
1092,3	-0,008
1092,7	-0,007
1093,1	-0,008
1093,5	-0,008
1093,9	-0,012
1094,3	-0,014
1094,7	-0,014
1095,1	-0,015
1095,5	-0,019
1096	-0,013
1096,4	-0,013
1096,8	-0,007
1097,2	-0,008
1097,6	-0,005
1098	-0,002
1098,4	0,006
1098,8	0,003
1099,2	0,005
1099,6	0,008
1100,1	0,012
1100,5	0,009
1100,9	0,005
1101,3	-0,011
1101,7	-0,009
1102,1	-0,009
1102,5	-0,01
1102,9	-0,012
1103,3	-0,006
1103,7	-0,009
1104,2	-0,002
1104,6	-0
1105	-0,002
1105,4	0,002
1105,8	0,003
1106,2	0,002
1106,6	0,005
1107	0,008
1107,4	-0,014
1107,8	-0,043
1108,3	-0
