Data from Absorbance_00008.txt Node
Date: Thu Aug 10 15:40:22 MSK 2023
User: vat
Spectrometer: MAYP114033
Trigger mode: 0
Integration Time (sec): 8,000000E-3
Scans to average: 10
Electric dark correction enabled: true
Nonlinearity correction enabled: false
Boxcar width: 3
XAxis mode: Wavelengths
Number of Pixels in Spectrum: 2068
>>>>>Begin Spectral Data<<<<<
199,4	-0
199,9	1,253
200,4	0,806
200,8	1,001
201,3	0,961
201,8	0,99
202,2	0,984
202,7	0,991
203,2	1,034
203,6	1,067
204,1	1,07
204,6	1,092
205	1,117
205,5	1,155
206	1,172
206,4	1,196
206,9	1,204
207,4	1,235
207,8	1,256
208,3	1,264
208,8	1,287
209,2	1,293
209,7	1,289
210,2	1,321
210,6	1,326
211,1	1,338
211,5	1,344
212	1,35
212,5	1,359
212,9	1,378
213,4	1,382
213,9	1,397
214,3	1,405
214,8	1,443
215,3	1,445
215,7	1,483
216,2	1,498
216,7	1,498
217,1	1,522
217,6	1,536
218,1	1,552
218,5	1,563
219	1,568
219,5	1,588
219,9	1,602
220,4	1,598
220,9	1,614
221,3	1,625
221,8	1,634
222,3	1,657
222,7	1,655
223,2	1,679
223,6	1,704
224,1	1,715
224,6	1,729
225	1,759
225,5	1,756
226	1,788
226,4	1,81
226,9	1,818
227,4	1,86
227,8	1,853
228,3	1,869
228,8	1,896
229,2	1,904
229,7	1,919
230,2	1,95
230,6	1,932
231,1	1,966
231,5	1,968
232	1,957
232,5	1,973
232,9	1,963
233,4	1,98
233,9	2,004
234,3	1,989
234,8	1,996
235,3	2,025
235,7	2,018
236,2	2,044
236,7	2,027
237,1	2,034
237,6	2,063
238,1	2,084
238,5	2,092
239	2,109
239,4	2,113
239,9	2,123
240,4	2,133
240,8	2,13
241,3	2,109
241,8	2,13
242,2	2,123
242,7	2,119
243,2	2,137
243,6	2,121
244,1	2,131
244,6	2,147
245	2,137
245,5	2,152
245,9	2,121
246,4	2,108
246,9	2,114
247,3	2,115
247,8	2,116
248,3	2,113
248,7	2,102
249,2	2,143
249,7	2,13
250,1	2,144
250,6	2,146
251	2,149
251,5	2,164
252	2,158
252,4	2,153
252,9	2,172
253,4	2,172
253,8	2,159
254,3	2,14
254,8	2,133
255,2	2,156
255,7	2,171
256,1	2,177
256,6	2,18
257,1	2,201
257,5	2,226
258	2,233
258,5	2,233
258,9	2,225
259,4	2,237
259,9	2,244
260,3	2,225
260,8	2,229
261,2	2,237
261,7	2,235
262,2	2,232
262,6	2,224
263,1	2,205
263,6	2,211
264	2,213
264,5	2,203
264,9	2,224
265,4	2,234
265,9	2,23
266,3	2,231
266,8	2,251
267,3	2,238
267,7	2,24
268,2	2,204
268,7	2,202
269,1	2,213
269,6	2,228
270	2,223
270,5	2,243
271	2,234
271,4	2,261
271,9	2,275
272,4	2,273
272,8	2,271
273,3	2,274
273,7	2,285
274,2	2,316
274,7	2,328
275,1	2,322
275,6	2,314
276,1	2,315
276,5	2,329
277	2,303
277,4	2,296
277,9	2,304
278,4	2,303
278,8	2,321
279,3	2,333
279,8	2,315
280,2	2,337
280,7	2,325
281,1	2,326
281,6	2,327
282,1	2,304
282,5	2,285
283	2,298
283,4	2,279
283,9	2,278
284,4	2,26
284,8	2,25
285,3	2,265
285,8	2,26
286,2	2,242
286,7	2,241
287,1	2,224
287,6	2,22
288,1	2,205
288,5	2,174
289	2,137
289,5	2,086
289,9	2,046
290,4	2,001
290,8	1,941
291,3	1,892
291,8	1,841
292,2	1,801
292,7	1,762
293,1	1,723
293,6	1,694
294,1	1,666
294,5	1,64
295	1,62
295,5	1,601
295,9	1,582
296,4	1,559
296,8	1,541
297,3	1,525
297,8	1,512
298,2	1,498
298,7	1,486
299,1	1,478
299,6	1,474
300,1	1,463
300,5	1,461
301	1,456
301,5	1,448
301,9	1,437
302,4	1,429
302,8	1,422
303,3	1,412
303,8	1,401
304,2	1,39
304,7	1,384
305,1	1,382
305,6	1,375
306,1	1,367
306,5	1,361
307	1,35
307,4	1,342
307,9	1,332
308,4	1,319
308,8	1,31
309,3	1,302
309,8	1,293
310,2	1,284
310,7	1,274
311,1	1,265
311,6	1,257
312,1	1,246
312,5	1,235
313	1,223
313,4	1,214
313,9	1,206
314,4	1,195
314,8	1,183
315,3	1,172
315,7	1,162
316,2	1,15
316,7	1,14
317,1	1,127
317,6	1,116
318	1,106
318,5	1,097
319	1,086
319,4	1,077
319,9	1,065
320,3	1,054
320,8	1,044
321,3	1,033
321,7	1,021
322,2	1,01
322,6	1
323,1	0,99
323,6	0,981
324	0,97
324,5	0,959
324,9	0,948
325,4	0,937
325,9	0,926
326,3	0,916
326,8	0,904
327,2	0,892
327,7	0,881
328,2	0,87
328,6	0,859
329,1	0,848
329,5	0,836
330	0,825
330,5	0,815
330,9	0,803
331,4	0,792
331,8	0,782
332,3	0,771
332,8	0,761
333,2	0,749
333,7	0,739
334,1	0,729
334,6	0,719
335,1	0,708
335,5	0,697
336	0,686
336,4	0,675
336,9	0,665
337,4	0,656
337,8	0,644
338,3	0,635
338,7	0,625
339,2	0,614
339,7	0,604
340,1	0,593
340,6	0,582
341	0,573
341,5	0,561
342	0,552
342,4	0,543
342,9	0,534
343,3	0,525
343,8	0,517
344,2	0,508
344,7	0,5
345,2	0,491
345,6	0,482
346,1	0,474
346,5	0,466
347	0,457
347,5	0,449
347,9	0,441
348,4	0,432
348,8	0,424
349,3	0,416
349,8	0,408
350,2	0,401
350,7	0,393
351,1	0,386
351,6	0,379
352	0,371
352,5	0,364
353	0,358
353,4	0,351
353,9	0,344
354,3	0,337
354,8	0,331
355,3	0,325
355,7	0,319
356,2	0,313
356,6	0,307
357,1	0,301
357,5	0,295
358	0,29
358,5	0,285
358,9	0,279
359,4	0,274
359,8	0,269
360,3	0,264
360,8	0,26
361,2	0,254
361,7	0,25
362,1	0,245
362,6	0,24
363	0,235
363,5	0,231
364	0,227
364,4	0,223
364,9	0,218
365,3	0,215
365,8	0,212
366,3	0,208
366,7	0,204
367,2	0,201
367,6	0,198
368,1	0,194
368,5	0,19
369	0,187
369,5	0,184
369,9	0,182
370,4	0,178
370,8	0,175
371,3	0,172
371,7	0,17
372,2	0,168
372,7	0,166
373,1	0,163
373,6	0,16
374	0,157
374,5	0,155
374,9	0,152
375,4	0,15
375,9	0,148
376,3	0,146
376,8	0,143
377,2	0,142
377,7	0,14
378,2	0,138
378,6	0,136
379,1	0,134
379,5	0,131
380	0,129
380,4	0,127
380,9	0,125
381,4	0,124
381,8	0,121
382,3	0,12
382,7	0,118
383,2	0,117
383,6	0,115
384,1	0,113
384,6	0,112
385	0,111
385,5	0,109
385,9	0,107
386,4	0,104
386,8	0,102
387,3	0,101
387,7	0,1
388,2	0,098
388,7	0,097
389,1	0,096
389,6	0,095
390	0,094
390,5	0,093
390,9	0,091
391,4	0,09
391,9	0,089
392,3	0,087
392,8	0,086
393,2	0,084
393,7	0,083
394,1	0,082
394,6	0,081
395,1	0,079
395,5	0,078
396	0,077
396,4	0,076
396,9	0,075
397,3	0,074
397,8	0,073
398,2	0,072
398,7	0,071
399,2	0,069
399,6	0,068
400,1	0,067
400,5	0,065
401	0,063
401,4	0,062
401,9	0,061
402,4	0,06
402,8	0,059
403,3	0,058
403,7	0,057
404,2	0,057
404,6	0,057
405,1	0,056
405,5	0,055
406	0,054
406,5	0,053
406,9	0,052
407,4	0,051
407,8	0,05
408,3	0,049
408,7	0,049
409,2	0,048
409,6	0,047
410,1	0,046
410,6	0,046
411	0,045
411,5	0,044
411,9	0,043
412,4	0,042
412,8	0,041
413,3	0,039
413,7	0,039
414,2	0,038
414,7	0,037
415,1	0,036
415,6	0,035
416	0,035
416,5	0,035
416,9	0,034
417,4	0,033
417,8	0,032
418,3	0,032
418,8	0,031
419,2	0,03
419,7	0,029
420,1	0,028
420,6	0,027
421	0,025
421,5	0,025
421,9	0,024
422,4	0,023
422,8	0,022
423,3	0,022
423,8	0,022
424,2	0,022
424,7	0,021
425,1	0,021
425,6	0,02
426	0,02
426,5	0,019
426,9	0,018
427,4	0,017
427,9	0,017
428,3	0,016
428,8	0,015
429,2	0,015
429,7	0,015
430,1	0,015
430,6	0,014
431	0,014
431,5	0,014
431,9	0,014
432,4	0,013
432,8	0,012
433,3	0,012
433,8	0,012
434,2	0,011
434,7	0,011
435,1	0,01
435,6	0,01
436	0,01
436,5	0,01
436,9	0,008
437,4	0,008
437,8	0,008
438,3	0,008
438,8	0,007
439,2	0,007
439,7	0,006
440,1	0,006
440,6	0,006
441	0,006
441,5	0,005
441,9	0,005
442,4	0,005
442,8	0,004
443,3	0,005
443,7	0,004
444,2	0,004
444,7	0,004
445,1	0,004
445,6	0,004
446	0,004
446,5	0,003
446,9	0,003
447,4	0,003
447,8	0,003
448,3	0,002
448,7	0,002
449,2	0,002
449,6	0,002
450,1	0,002
450,6	0,002
451	0,002
451,5	0,002
451,9	0,003
452,4	0,003
452,8	0,003
453,3	0,003
453,7	0,003
454,2	0,002
454,6	0,002
455,1	0,001
455,5	0,001
456	0
456,4	0
456,9	0,001
457,3	0,001
457,8	0,001
458,3	0,001
458,7	0,001
459,2	0,001
459,6	0
460,1	0
460,5	0
461	-0
461,4	-0
461,9	-0
462,3	-0
462,8	-0
463,2	-0,001
463,7	-0,001
464,1	-0,001
464,6	-0,001
465	-0
465,5	-0,001
466	-0
466,4	-0,001
466,9	-0,001
467,3	-0,001
467,8	-0,001
468,2	-0,001
468,7	-0,001
469,1	-0
469,6	-0
470	-0
470,5	-0,001
470,9	-0,001
471,4	-0,002
471,8	-0,002
472,3	-0,002
472,7	-0,002
473,2	-0,002
473,6	-0,002
474,1	-0,002
474,5	-0,002
475	-0,002
475,4	-0,002
475,9	-0,003
476,4	-0,003
476,8	-0,003
477,3	-0,003
477,7	-0,003
478,2	-0,002
478,6	-0,002
479,1	-0,002
479,5	-0,002
480	-0,002
480,4	-0,002
480,9	-0,002
481,3	-0,002
481,8	-0,002
482,2	-0,002
482,7	-0,002
483,1	-0,001
483,6	-0,001
484	-0,002
484,5	-0,002
484,9	-0,002
485,4	-0,002
485,8	-0,001
486,3	-0,003
486,7	-0,003
487,2	-0,003
487,6	-0,002
488,1	-0,002
488,5	-0,002
489	-0,003
489,4	-0,001
489,9	-0,001
490,4	-0,002
490,8	-0,002
491,3	-0,002
491,7	-0,002
492,2	-0,002
492,6	-0,001
493,1	-0,001
493,5	-0,001
494	-0
494,4	-0,001
494,9	-0
495,3	-0
495,8	-0,001
496,2	-0,001
496,7	-0,001
497,1	-0,002
497,6	-0,002
498	-0,002
498,5	-0,002
498,9	-0,001
499,4	-0,002
499,8	-0,002
500,3	-0,001
500,7	-0,002
501,2	-0,002
501,6	-0,002
502,1	-0,003
502,5	-0,003
503	-0,002
503,4	-0,002
503,9	-0,002
504,3	-0,002
504,8	-0,002
505,2	-0,002
505,7	-0,002
506,1	-0,003
506,6	-0,003
507	-0,003
507,5	-0,003
507,9	-0,002
508,4	-0,003
508,8	-0,003
509,3	-0,003
509,7	-0,002
510,2	-0,002
510,6	-0,002
511,1	-0,003
511,5	-0,002
512	-0,002
512,4	-0,002
512,9	-0,003
513,3	-0,003
513,8	-0,003
514,2	-0,003
514,7	-0,002
515,1	-0,002
515,6	-0,001
516	-0,001
516,5	-0,002
516,9	-0,001
517,4	-0,001
517,8	-0,001
518,3	-0,002
518,7	-0,002
519,2	-0,003
519,6	-0,003
520,1	-0,003
520,5	-0,003
521	-0,003
521,4	-0,003
521,9	-0,003
522,3	-0,003
522,8	-0,002
523,2	-0,002
523,7	-0,002
524,1	-0,003
524,6	-0,003
525	-0,003
525,5	-0,003
525,9	-0,003
526,4	-0,004
526,8	-0,003
527,3	-0,003
527,7	-0,003
528,2	-0,003
528,6	-0,003
529,1	-0,002
529,5	-0,001
530	-0,001
530,4	-0,001
530,9	-0
531,3	0
531,8	0
532,2	-0
532,6	-0,001
533,1	-0,001
533,5	-0,001
534	-0,001
534,4	-0,001
534,9	-0,001
535,3	-0,001
535,8	-0,001
536,2	-0,002
536,7	-0,002
537,1	-0,002
537,6	-0,003
538	-0,003
538,5	-0,003
538,9	-0,003
539,4	-0,003
539,8	-0,003
540,3	-0,003
540,7	-0,002
541,2	-0,002
541,6	-0,002
542,1	-0,002
542,5	-0,002
543	-0,002
543,4	-0,002
543,9	-0,002
544,3	-0,002
544,8	-0,002
545,2	-0,002
545,7	-0,001
546,1	-0,001
546,5	-0
547	-0,001
547,4	-0,001
547,9	-0,001
548,3	-0,001
548,8	-0,002
549,2	-0,002
549,7	-0,002
550,1	-0,002
550,6	-0,002
551	-0,002
551,5	-0,002
551,9	-0,001
552,4	-0,001
552,8	-0,001
553,3	-0,001
553,7	-0,001
554,2	-0
554,6	-0
555,1	-0
555,5	-0,001
555,9	-0,001
556,4	-0,001
556,8	-0,002
557,3	-0,002
557,7	-0,002
558,2	-0,002
558,6	-0,001
559,1	-0,001
559,5	-0,001
560	-0,001
560,4	-0,001
560,9	-0,001
561,3	-0,001
561,8	-0,001
562,2	-0,001
562,7	-0,002
563,1	-0,002
563,6	-0,002
564	-0,002
564,4	-0,001
564,9	-0,002
565,3	-0,002
565,8	-0,002
566,2	-0,002
566,7	-0,002
567,1	-0,001
567,6	-0,002
568	-0,001
568,5	-0,002
568,9	-0,002
569,4	-0,002
569,8	-0,002
570,3	-0,003
570,7	-0,002
571,1	-0,002
571,6	-0,002
572	-0,002
572,5	-0,002
572,9	-0,001
573,4	-0,001
573,8	-0,001
574,3	-0,001
574,7	-0,001
575,2	-0,001
575,6	-0,001
576,1	-0,001
576,5	-0,001
576,9	-0,001
577,4	-0,002
577,8	-0,002
578,3	-0,002
578,7	-0,002
579,2	-0,002
579,6	-0,002
580,1	-0,002
580,5	-0,002
581	-0,001
581,4	-0,002
581,9	-0,002
582,3	-0,002
582,7	-0,002
583,2	-0,002
583,6	-0,001
584,1	-0,002
584,5	-0,001
585	-0,001
585,4	-0,001
585,9	-0,001
586,3	-0,001
586,8	-0,001
587,2	-0,001
587,6	-0,001
588,1	-0,001
588,5	-0,001
589	-0,001
589,4	-0,001
589,9	-0,001
590,3	-0,001
590,8	-0,001
591,2	-0,001
591,7	-0
592,1	-0
592,5	-0,001
593	-0,001
593,4	-0,001
593,9	-0,001
594,3	-0,001
594,8	-0,002
595,2	-0,002
595,7	-0,002
596,1	-0,001
596,6	-0,001
597	-0,001
597,4	-0,002
597,9	-0,001
598,3	-0,001
598,8	-0,001
599,2	-0,001
599,7	-0,001
600,1	-0,002
600,6	-0,001
601	-0,001
601,4	-0,001
601,9	-0,001
602,3	-0,001
602,8	-0,001
603,2	-0,001
603,7	-0,001
604,1	-0,001
604,6	-0,001
605	-0,001
605,4	-0,001
605,9	-0,001
606,3	-0,001
606,8	-0,001
607,2	-0,001
607,7	-0,001
608,1	-0,001
608,6	-0,001
609	-0,001
609,4	-0,001
609,9	-0,001
610,3	-0,001
610,8	-0,002
611,2	-0,002
611,7	-0,002
612,1	-0,002
612,6	-0,002
613	-0,002
613,4	-0,002
613,9	-0,001
614,3	-0,001
614,8	-0,001
615,2	-0,001
615,7	-0,002
616,1	-0,002
616,6	-0,002
617	-0,001
617,4	-0,001
617,9	-0,002
618,3	-0,002
618,8	-0,001
619,2	-0,002
619,7	-0,001
620,1	-0,002
620,5	-0,001
621	-0,001
621,4	-0,001
621,9	-0,001
622,3	-0,001
622,8	-0,002
623,2	-0,002
623,6	-0,002
624,1	-0,002
624,5	-0,002
625	-0,002
625,4	-0,002
625,9	-0,001
626,3	-0,001
626,8	-0,001
627,2	-0,002
627,6	-0,001
628,1	-0,001
628,5	-0,001
629	-0,001
629,4	-0,001
629,9	-0,001
630,3	-0,001
630,7	-0,001
631,2	-0,001
631,6	-0,001
632,1	-0,001
632,5	-0,001
633	-0,001
633,4	-0,001
633,8	-0,001
634,3	-0,001
634,7	-0,001
635,2	-0,001
635,6	-0,002
636,1	-0,001
636,5	-0,001
636,9	-0,001
637,4	-0,001
637,8	-0,001
638,3	-0,001
638,7	-0,001
639,2	-0,001
639,6	-0,002
640	-0,002
640,5	-0,002
640,9	-0,002
641,4	-0,002
641,8	-0,002
642,2	-0,002
642,7	-0,001
643,1	-0,001
643,6	-0,001
644	-0,001
644,5	-0,001
644,9	-0,001
645,3	-0,001
645,8	-0,001
646,2	-0,001
646,7	-0,001
647,1	-0,001
647,6	-0,001
648	-0,001
648,4	-0,002
648,9	-0,002
649,3	-0,002
649,8	-0,002
650,2	-0,002
650,6	-0,002
651,1	-0,002
651,5	-0,002
652	-0,002
652,4	-0,002
652,9	-0,003
653,3	-0,003
653,7	-0,003
654,2	-0,003
654,6	-0,002
655,1	-0,001
655,5	-0,001
655,9	-0
656,4	-0
656,8	0,002
657,3	0,003
657,7	0,003
658,2	0,004
658,6	0,005
659	0,007
659,5	0,01
659,9	0,007
660,4	0,004
660,8	0,003
661,2	0,002
661,7	0,001
662,1	0,001
662,6	0
663	0
663,4	-0
663,9	-0
664,3	-0
664,8	-0,001
665,2	-0,001
665,6	-0,001
666,1	-0,001
666,5	-0,001
667	-0,002
667,4	-0,002
667,9	-0,001
668,3	-0,001
668,7	-0,002
669,2	-0,002
669,6	-0,002
670,1	-0,002
670,5	-0,002
670,9	-0,002
671,4	-0,002
671,8	-0,002
672,3	-0,002
672,7	-0,002
673,1	-0,002
673,6	-0,002
674	-0,002
674,5	-0,002
674,9	-0,002
675,3	-0,002
675,8	-0,001
676,2	-0,001
676,7	-0,001
677,1	-0,001
677,5	-0,001
678	-0,001
678,4	-0,001
678,9	-0,002
679,3	-0,001
679,7	-0,001
680,2	-0,001
680,6	-0,001
681,1	-0,001
681,5	-0,001
681,9	-0,001
682,4	-0,001
682,8	-0,001
683,3	-0,001
683,7	-0,002
684,1	-0,002
684,6	-0,002
685	-0,002
685,5	-0,002
685,9	-0,002
686,3	-0,002
686,8	-0,002
687,2	-0,001
687,7	-0,001
688,1	-0,001
688,5	-0,001
689	-0,001
689,4	-0,001
689,9	-0,001
690,3	-0,001
690,7	-0,001
691,2	-0,001
691,6	-0,002
692	-0,002
692,5	-0,001
692,9	-0,001
693,4	-0,001
693,8	-0,001
694,2	-0,001
694,7	-0,001
695,1	-0,002
695,6	-0,002
696	-0,002
696,4	-0,002
696,9	-0,002
697,3	-0,002
697,8	-0,002
698,2	-0,001
698,6	-0,002
699,1	-0,002
699,5	-0,002
699,9	-0,001
700,4	-0,001
700,8	-0,001
701,3	-0,001
701,7	-0,001
702,1	-0,001
702,6	-0,001
703	-0,001
703,5	-0,001
703,9	-0,001
704,3	-0,001
704,8	-0,001
705,2	-0
705,6	-0
706,1	-0
706,5	-0
707	-0
707,4	-0,001
707,8	-0,001
708,3	-0,001
708,7	-0,001
709,2	-0,001
709,6	-0,002
710	-0,001
710,5	-0,001
710,9	-0,001
711,3	-0,001
711,8	-0,001
712,2	-0,001
712,7	-0,001
713,1	-0,001
713,5	-0,001
714	-0,001
714,4	-0,001
714,8	-0,001
715,3	-0,001
715,7	-0,002
716,2	-0,002
716,6	-0,001
717	-0,001
717,5	-0,001
717,9	-0,001
718,3	-0,001
718,8	-0,001
719,2	-0
719,7	-0,001
720,1	-0,001
720,5	-0,001
721	-0,001
721,4	-0,001
721,8	-0,001
722,3	-0,002
722,7	-0,002
723,2	-0,001
723,6	-0,002
724	-0,002
724,5	-0,002
724,9	-0,001
725,3	-0,002
725,8	-0,002
726,2	-0,002
726,7	-0,001
727,1	-0,001
727,5	-0,001
728	-0,002
728,4	-0,002
728,8	-0,001
729,3	-0,001
729,7	-0,001
730,1	-0,002
730,6	-0,002
731	-0,001
731,5	-0,001
731,9	-0,002
732,3	-0,002
732,8	-0,002
733,2	-0,002
733,6	-0,001
734,1	-0,002
734,5	-0,002
734,9	-0,002
735,4	-0,001
735,8	-0,001
736,3	-0,001
736,7	-0,001
737,1	-0,001
737,6	-0,001
738	-0,001
738,4	-0,001
738,9	-0,001
739,3	-0,001
739,7	-0,001
740,2	-0,001
740,6	-0,001
741,1	-0,001
741,5	-0,001
741,9	-0,001
742,4	-0,001
742,8	-0,001
743,2	-0,001
743,7	-0,001
744,1	-0,001
744,5	-0,001
745	-0,001
745,4	-0,001
745,8	-0
746,3	-0
746,7	-0
747,2	-0
747,6	-0,001
748	-0,001
748,5	-0,001
748,9	-0,002
749,3	-0,002
749,8	-0,002
750,2	-0,002
750,6	-0,002
751,1	-0,002
751,5	-0,002
751,9	-0,002
752,4	-0,002
752,8	-0,002
753,3	-0,002
753,7	-0,002
754,1	-0,002
754,6	-0,002
755	-0,002
755,4	-0,001
755,9	-0,002
756,3	-0,001
756,7	-0,001
757,2	-0,001
757,6	-0,001
758	-0,001
758,5	-0,002
758,9	-0,002
759,3	-0,002
759,8	-0,002
760,2	-0,002
760,6	-0,002
761,1	-0,002
761,5	-0,002
761,9	-0,002
762,4	-0,002
762,8	-0,002
763,3	-0,002
763,7	-0,001
764,1	-0,001
764,6	-0,002
765	-0,002
765,4	-0,002
765,9	-0,002
766,3	-0,002
766,7	-0,002
767,2	-0,002
767,6	-0,002
768	-0,002
768,5	-0,002
768,9	-0,002
769,3	-0,002
769,8	-0,002
770,2	-0,002
770,6	-0,002
771,1	-0,002
771,5	-0,002
771,9	-0,002
772,4	-0,002
772,8	-0,002
773,2	-0,002
773,7	-0,002
774,1	-0,002
774,5	-0,001
775	-0,001
775,4	-0,001
775,8	-0
776,3	-0
776,7	-0
777,1	0
777,6	0
778	0
778,4	0
778,9	-0
779,3	-0
779,7	-0
780,2	-0,001
780,6	-0,001
781	-0,001
781,5	-0,002
781,9	-0,002
782,3	-0,002
782,8	-0,002
783,2	-0,002
783,6	-0,002
784,1	-0,002
784,5	-0,002
784,9	-0,002
785,4	-0,001
785,8	-0,001
786,2	-0,001
786,7	-0,001
787,1	-0,001
787,5	-0,001
788	-0,001
788,4	-0,001
788,8	-0,001
789,3	-0,001
789,7	-0,001
790,1	-0,002
790,6	-0,002
791	-0,002
791,4	-0,002
791,9	-0,001
792,3	-0,001
792,7	-0,001
793,2	-0,001
793,6	-0,001
794	-0,001
794,5	-0,001
794,9	-0,001
795,3	-0,001
795,8	-0,001
796,2	-0
796,6	-0,001
797,1	-0,001
797,5	-0,001
797,9	-0,001
798,4	-0,001
798,8	-0,001
799,2	-0,002
799,7	-0,002
800,1	-0,002
800,5	-0,002
801	-0,002
801,4	-0,001
801,8	-0,001
802,2	-0,001
802,7	-0,001
803,1	-0,001
803,5	-0,001
804	-0,001
804,4	-0,001
804,8	-0,001
805,3	-0,001
805,7	-0,001
806,1	-0
806,6	-0
807	0
807,4	0
807,9	0
808,3	-0
808,7	-0,001
809,2	-0,001
809,6	-0,001
810	-0,001
810,4	-0,001
810,9	-0,001
811,3	-0,001
811,7	-0,001
812,2	-0
812,6	-0
813	-0,001
813,5	-0
813,9	-0
814,3	-0
814,8	0
815,2	-0
815,6	-0,001
816,1	-0,001
816,5	-0,001
816,9	-0,002
817,3	-0,002
817,8	-0,002
818,2	-0,002
818,6	-0,002
819,1	-0,002
819,5	-0,003
819,9	-0,002
820,4	-0,002
820,8	-0,002
821,2	-0,002
821,7	-0,002
822,1	-0,002
822,5	-0,002
822,9	-0,002
823,4	-0,002
823,8	-0,002
824,2	-0,002
824,7	-0,002
825,1	-0,001
825,5	-0,001
826	-0,001
826,4	-0
826,8	-0
827,3	-0
827,7	-0
828,1	-0,001
828,5	-0,001
829	-0,001
829,4	-0,001
829,8	-0,001
830,3	-0,002
830,7	-0,002
831,1	-0,002
831,6	-0,002
832	-0,002
832,4	-0,002
832,8	-0,003
833,3	-0,003
833,7	-0,003
834,1	-0,003
834,6	-0,003
835	-0,003
835,4	-0,002
835,8	-0,002
836,3	-0,002
836,7	-0,002
837,1	-0,002
837,6	-0,002
838	-0,002
838,4	-0,002
838,9	-0,002
839,3	-0,002
839,7	-0,002
840,1	-0,002
840,6	-0,001
841	-0,001
841,4	-0,001
841,9	-0,001
842,3	-0,001
842,7	-0,001
843,1	-0,001
843,6	-0,001
844	-0,001
844,4	-0,001
844,9	-0,001
845,3	-0,001
845,7	-0,001
846,2	-0,001
846,6	-0
847	0
847,4	0
847,9	-0
848,3	-0
848,7	-0
849,2	-0,001
849,6	-0,001
850	-0,001
850,4	-0,001
850,9	-0,001
851,3	-0
851,7	-0
852,2	0
852,6	0
853	-0
853,4	0
853,9	0
854,3	-0
854,7	-0
855,2	-0
855,6	-0,001
856	-0
856,4	-0,001
856,9	-0,001
857,3	-0,001
857,7	-0,001
858,2	-0,001
858,6	-0,001
859	-0,001
859,4	-0,001
859,9	-0,002
860,3	-0,002
860,7	-0,002
861,1	-0,002
861,6	-0,002
862	-0,001
862,4	-0,001
862,9	-0,001
863,3	-0,001
863,7	-0
864,1	-0
864,6	-0
865	-0
865,4	-0
865,9	0
866,3	0
866,7	-0
867,1	-0,001
867,6	-0,001
868	-0,001
868,4	-0,001
868,8	-0,001
869,3	-0,001
869,7	-0,001
870,1	-0,001
870,6	-0,001
871	-0,001
871,4	-0
871,8	-0
872,3	-0
872,7	0
873,1	0
873,5	0
874	0
874,4	0
874,8	0
875,3	-0
875,7	-0
876,1	-0,001
876,5	-0,001
877	-0,001
877,4	-0,001
877,8	-0,001
878,2	-0,001
878,7	-0,002
879,1	-0,002
879,5	-0,001
879,9	-0,002
880,4	-0,001
880,8	-0,001
881,2	-0,001
881,7	-0,001
882,1	-0,001
882,5	-0,001
882,9	-0,001
883,4	-0,001
883,8	-0,001
884,2	-0,001
884,6	-0
885,1	-0,001
885,5	-0
885,9	-0,001
886,3	-0,001
886,8	-0,001
887,2	-0,001
887,6	-0,001
888	-0,001
888,5	-0,001
888,9	-0
889,3	-0
889,8	-0
890,2	-0
890,6	-0
891	-0,001
891,5	-0,001
891,9	-0,001
892,3	-0,001
892,7	-0,001
893,2	-0,001
893,6	-0,002
894	-0,002
894,4	-0,002
894,9	-0,002
895,3	-0,002
895,7	-0,002
896,1	-0,002
896,6	-0,002
897	-0,002
897,4	-0,002
897,8	-0,002
898,3	-0,002
898,7	-0,002
899,1	-0,002
899,5	-0,002
900	-0,002
900,4	-0,001
900,8	-0,001
901,2	-0,001
901,7	-0,001
902,1	-0,001
902,5	-0,001
902,9	-0,001
903,4	-0,001
903,8	-0,002
904,2	-0,002
904,6	-0,002
905,1	-0,002
905,5	-0,002
905,9	-0,002
906,3	-0,002
906,8	-0,002
907,2	-0,003
907,6	-0,002
908	-0,002
908,5	-0,002
908,9	-0,002
909,3	-0,002
909,7	-0,002
910,2	-0,002
910,6	-0,002
911	-0,002
911,4	-0,001
911,9	-0,001
912,3	-0,001
912,7	-0,001
913,1	-0,001
913,6	-0,001
914	-0,001
914,4	-0,002
914,8	-0,002
915,3	-0,002
915,7	-0,002
916,1	-0,002
916,5	-0,002
916,9	-0,002
917,4	-0,003
917,8	-0,003
918,2	-0,003
918,6	-0,003
919,1	-0,002
919,5	-0,002
919,9	-0,002
920,3	-0,001
920,8	-0,002
921,2	-0,001
921,6	-0,001
922	-0,001
922,5	-0,001
922,9	-0,002
923,3	-0,002
923,7	-0,002
924,2	-0,002
924,6	-0,002
925	-0,002
925,4	-0,003
925,8	-0,002
926,3	-0,002
926,7	-0,002
927,1	-0,002
927,5	-0,003
928	-0,003
928,4	-0,003
928,8	-0,003
929,2	-0,002
929,7	-0,002
930,1	-0,002
930,5	-0,002
930,9	-0,001
931,3	-0,002
931,8	-0,002
932,2	-0,002
932,6	-0,002
933	-0,002
933,5	-0,002
933,9	-0,002
934,3	-0,002
934,7	-0,002
935,2	-0,002
935,6	-0,002
936	-0,002
936,4	-0,002
936,8	-0,002
937,3	-0,002
937,7	-0,002
938,1	-0,002
938,5	-0,002
939	-0,002
939,4	-0,001
939,8	-0,001
940,2	-0
940,6	-0,001
941,1	-0
941,5	-0
941,9	0
942,3	-0
942,8	0
943,2	-0,001
943,6	-0,001
944	-0,002
944,4	-0,002
944,9	-0,002
945,3	-0,002
945,7	-0,002
946,1	-0,002
946,6	-0,002
947	-0,002
947,4	-0,003
947,8	-0,003
948,2	-0,004
948,7	-0,004
949,1	-0,004
949,5	-0,004
949,9	-0,003
950,3	-0,003
950,8	-0,002
951,2	-0,002
951,6	-0,002
952	-0,002
952,5	-0,002
952,9	-0,002
953,3	-0,002
953,7	-0,002
954,1	-0,002
954,6	-0,002
955	-0,002
955,4	-0,002
955,8	-0,001
956,2	-0,002
956,7	-0,002
957,1	-0,002
957,5	-0,001
957,9	-0,001
958,3	-0,001
958,8	-0,001
959,2	0
959,6	-0
960	-0
960,5	-0
960,9	-0
961,3	-0
961,7	-0,001
962,1	-0,001
962,6	-0,001
963	0
963,4	0
963,8	0
964,2	0
964,7	0,001
965,1	0,001
965,5	0
965,9	-0
966,3	-0
966,8	-0
967,2	-0
967,6	-0,001
968	-0,001
968,4	-0,001
968,9	-0,001
969,3	-0,001
969,7	-0,001
970,1	-0,001
970,5	-0,001
971	-0,001
971,4	-0,001
971,8	-0,001
972,2	-0,001
972,6	-0,001
973,1	-0,002
973,5	-0,002
973,9	-0,002
974,3	-0,001
974,7	-0,001
975,2	-0,001
975,6	-0
976	-0,001
976,4	-0
976,8	0
977,3	-0
977,7	-0
978,1	-0,001
978,5	-0
978,9	0
979,4	0
979,8	-0
980,2	0
980,6	0
981	0
981,5	-0
981,9	-0,001
982,3	-0,001
982,7	-0,001
983,1	-0,001
983,6	-0,001
984	-0,001
984,4	-0,001
984,8	-0
985,2	-0,001
985,6	-0,001
986,1	-0
986,5	0
986,9	0
987,3	0,001
987,7	0,001
988,2	0,001
988,6	0,001
989	0
989,4	0
989,8	-0
990,3	-0,001
990,7	-0
991,1	-0
991,5	-0
991,9	0
992,3	-0
992,8	-0
993,2	-0
993,6	-0
994	-0,001
994,4	-0,001
994,9	-0,001
995,3	-0,001
995,7	-0,001
996,1	-0,001
996,5	-0,001
996,9	-0,001
997,4	-0,001
997,8	-0,001
998,2	-0,001
998,6	-0,001
999	-0,001
999,5	-0,001
999,9	-0,001
1000,3	-0,002
1000,7	-0,002
1001,1	-0,002
1001,5	-0,002
1002	-0,002
1002,4	-0,003
1002,8	-0,003
1003,2	-0,003
1003,6	-0,003
1004	-0,003
1004,5	-0,002
1004,9	-0,002
1005,3	-0,002
1005,7	-0,002
1006,1	-0,002
1006,6	-0,001
1007	-0,001
1007,4	-0,001
1007,8	-0,002
1008,2	-0,001
1008,6	-0,001
1009,1	-0,002
1009,5	-0,001
1009,9	-0,002
1010,3	-0,001
1010,7	-0,001
1011,1	-0,001
1011,6	-0
1012	-0
1012,4	-0,001
1012,8	-0
1013,2	-0,001
1013,6	-0,001
1014,1	-0,001
1014,5	-0,001
1014,9	-0,001
1015,3	-0,001
1015,7	-0,001
1016,1	-0,001
1016,6	-0,001
1017	-0,002
1017,4	-0,001
1017,8	-0,001
1018,2	-0,001
1018,6	-0,001
1019,1	0
1019,5	-0
1019,9	-0
1020,3	-0,001
1020,7	-0,001
1021,1	-0
1021,6	-0,001
1022	-0,001
1022,4	-0,001
1022,8	-0,001
1023,2	-0,001
1023,6	-0,002
1024,1	-0,002
1024,5	-0,002
1024,9	-0,002
1025,3	-0,002
1025,7	-0,002
1026,1	-0,002
1026,6	-0,002
1027	-0,002
1027,4	-0,002
1027,8	-0,002
1028,2	-0,003
1028,6	-0,003
1029	-0,003
1029,5	-0,003
1029,9	-0,003
1030,3	-0,003
1030,7	-0,003
1031,1	-0,002
1031,5	-0,002
1032	-0,002
1032,4	-0,003
1032,8	-0,003
1033,2	-0,002
1033,6	-0,002
1034	-0,002
1034,4	-0,002
1034,9	-0,002
1035,3	-0,002
1035,7	-0,002
1036,1	-0,002
1036,5	-0,001
1036,9	-0,001
1037,4	-0
1037,8	-0
1038,2	-0
1038,6	0,001
1039	0
1039,4	0
1039,8	0
1040,3	-0
1040,7	-0
1041,1	0
1041,5	-0
1041,9	-0
1042,3	-0,001
1042,7	-0,001
1043,2	-0,001
1043,6	-0,001
1044	-0,001
1044,4	-0,001
1044,8	-0,001
1045,2	0
1045,6	0
1046,1	0
1046,5	0,001
1046,9	0,001
1047,3	0,002
1047,7	0,002
1048,1	0,001
1048,5	0,001
1049	0
1049,4	-0
1049,8	-0,001
1050,2	-0
1050,6	-0
1051	-0
1051,4	-0,001
1051,9	-0,001
1052,3	-0,001
1052,7	-0,002
1053,1	-0,003
1053,5	-0,004
1053,9	-0,004
1054,3	-0,003
1054,8	-0,003
1055,2	-0,003
1055,6	-0,002
1056	-0,002
1056,4	-0,002
1056,8	-0,002
1057,2	-0,002
1057,6	-0,001
1058,1	-0,002
1058,5	-0,002
1058,9	-0,002
1059,3	-0,002
1059,7	-0,003
1060,1	-0,004
1060,5	-0,004
1061	-0,003
1061,4	-0,003
1061,8	-0,003
1062,2	-0,003
1062,6	-0,002
1063	-0,002
1063,4	-0,002
1063,8	-0,002
1064,3	-0,002
1064,7	-0,001
1065,1	-0,001
1065,5	-0,001
1065,9	-0,001
1066,3	-0
1066,7	0
1067,1	-0,001
1067,6	-0,001
1068	0
1068,4	0
1068,8	0
1069,2	-0
1069,6	-0
1070	0
1070,4	-0
1070,9	-0,001
1071,3	-0,002
1071,7	-0,001
1072,1	0
1072,5	0
1072,9	0
1073,3	-0
1073,7	-0
1074,2	-0
1074,6	-0,002
1075	-0,003
1075,4	-0,004
1075,8	-0,004
1076,2	-0,003
1076,6	-0,004
1077	-0,002
1077,5	-0,002
1077,9	-0,003
1078,3	-0,004
1078,7	-0,004
1079,1	-0,004
1079,5	-0,004
1079,9	-0,005
1080,3	-0,005
1080,7	-0,003
1081,2	-0,003
1081,6	-0,002
1082	-0,002
1082,4	0,001
1082,8	0,002
1083,2	0,002
1083,6	-0,001
1084	-0,001
1084,5	-0,002
1084,9	-0,002
1085,3	-0,005
1085,7	-0,004
1086,1	-0,005
1086,5	-0,004
1086,9	-0,005
1087,3	-0,003
1087,7	-0,003
1088,2	-0,001
1088,6	-0,003
1089	-0,002
1089,4	-0,001
1089,8	0
1090,2	0,001
1090,6	0,003
1091	0,001
1091,4	0,002
1091,9	0,005
1092,3	0,004
1092,7	0,008
1093,1	0,007
1093,5	0,007
1093,9	0,012
1094,3	0,013
1094,7	0,01
1095,1	0,009
1095,5	0,006
1096	-0,001
1096,4	-0,004
1096,8	-0,009
1097,2	-0,01
1097,6	-0,002
1098	-0
1098,4	0,004
1098,8	0,012
1099,2	0,015
1099,6	0,02
1100,1	0,02
1100,5	0,013
1100,9	0,006
1101,3	0,007
1101,7	0,007
1102,1	0,003
1102,5	-0,005
1102,9	-0,006
1103,3	-0,001
1103,7	0,007
1104,2	0,005
1104,6	0,005
1105	0,006
1105,4	0,014
1105,8	0,012
1106,2	0,005
1106,6	0,003
1107	-0,011
1107,4	-0,019
1107,8	-0,035
1108,3	-0
