Data from Absorbance_00005.txt Node
Date: Thu Aug 10 15:59:46 MSK 2023
User: vat
Spectrometer: MAYP114033
Trigger mode: 0
Integration Time (sec): 8,000000E-3
Scans to average: 10
Electric dark correction enabled: true
Nonlinearity correction enabled: false
Boxcar width: 3
XAxis mode: Wavelengths
Number of Pixels in Spectrum: 2068
>>>>>Begin Spectral Data<<<<<
199,4	-0
199,9	0,028
200,4	0,464
200,8	0,854
201,3	0,91
201,8	0,989
202,2	1,029
202,7	1,04
203,2	1,079
203,6	1,117
204,1	1,139
204,6	1,154
205	1,164
205,5	1,178
206	1,198
206,4	1,213
206,9	1,233
207,4	1,239
207,8	1,271
208,3	1,288
208,8	1,309
209,2	1,293
209,7	1,296
210,2	1,3
210,6	1,307
211,1	1,321
211,5	1,327
212	1,345
212,5	1,399
212,9	1,429
213,4	1,456
213,9	1,483
214,3	1,502
214,8	1,531
215,3	1,529
215,7	1,539
216,2	1,542
216,7	1,553
217,1	1,569
217,6	1,571
218,1	1,592
218,5	1,599
219	1,607
219,5	1,62
219,9	1,63
220,4	1,634
220,9	1,65
221,3	1,653
221,8	1,676
222,3	1,697
222,7	1,717
223,2	1,744
223,6	1,768
224,1	1,796
224,6	1,808
225	1,831
225,5	1,85
226	1,886
226,4	1,899
226,9	1,895
227,4	1,897
227,8	1,94
228,3	1,959
228,8	1,954
229,2	1,929
229,7	1,933
230,2	1,966
230,6	1,986
231,1	1,971
231,5	1,956
232	1,992
232,5	2,001
232,9	1,996
233,4	2,012
233,9	2,013
234,3	2,035
234,8	2,074
235,3	2,061
235,7	2,073
236,2	2,095
236,7	2,09
237,1	2,095
237,6	2,099
238,1	2,086
238,5	2,087
239	2,112
239,4	2,121
239,9	2,122
240,4	2,132
240,8	2,135
241,3	2,171
241,8	2,186
242,2	2,179
242,7	2,179
243,2	2,189
243,6	2,196
244,1	2,187
244,6	2,166
245	2,176
245,5	2,185
245,9	2,182
246,4	2,176
246,9	2,176
247,3	2,176
247,8	2,18
248,3	2,155
248,7	2,144
249,2	2,154
249,7	2,157
250,1	2,159
250,6	2,167
251	2,157
251,5	2,179
252	2,194
252,4	2,186
252,9	2,192
253,4	2,178
253,8	2,178
254,3	2,178
254,8	2,174
255,2	2,209
255,7	2,239
256,1	2,239
256,6	2,243
257,1	2,263
257,5	2,282
258	2,284
258,5	2,251
258,9	2,238
259,4	2,248
259,9	2,264
260,3	2,261
260,8	2,273
261,2	2,282
261,7	2,284
262,2	2,277
262,6	2,304
263,1	2,298
263,6	2,307
264	2,299
264,5	2,304
264,9	2,31
265,4	2,323
265,9	2,319
266,3	2,347
266,8	2,335
267,3	2,339
267,7	2,342
268,2	2,342
268,7	2,335
269,1	2,312
269,6	2,281
270	2,279
270,5	2,269
271	2,25
271,4	2,254
271,9	2,243
272,4	2,23
272,8	2,266
273,3	2,267
273,7	2,263
274,2	2,276
274,7	2,278
275,1	2,28
275,6	2,295
276,1	2,28
276,5	2,284
277	2,297
277,4	2,283
277,9	2,261
278,4	2,263
278,8	2,266
279,3	2,251
279,8	2,24
280,2	2,25
280,7	2,263
281,1	2,272
281,6	2,248
282,1	2,238
282,5	2,226
283	2,199
283,4	2,17
283,9	2,129
284,4	2,087
284,8	2,058
285,3	2,008
285,8	1,959
286,2	1,922
286,7	1,891
287,1	1,848
287,6	1,813
288,1	1,769
288,5	1,732
289	1,702
289,5	1,674
289,9	1,641
290,4	1,62
290,8	1,595
291,3	1,579
291,8	1,568
292,2	1,558
292,7	1,545
293,1	1,537
293,6	1,527
294,1	1,525
294,5	1,523
295	1,514
295,5	1,511
295,9	1,509
296,4	1,505
296,8	1,504
297,3	1,5
297,8	1,497
298,2	1,498
298,7	1,49
299,1	1,487
299,6	1,48
300,1	1,477
300,5	1,473
301	1,465
301,5	1,459
301,9	1,457
302,4	1,451
302,8	1,446
303,3	1,441
303,8	1,435
304,2	1,434
304,7	1,43
305,1	1,424
305,6	1,419
306,1	1,416
306,5	1,41
307	1,404
307,4	1,397
307,9	1,39
308,4	1,383
308,8	1,372
309,3	1,363
309,8	1,354
310,2	1,348
310,7	1,339
311,1	1,329
311,6	1,324
312,1	1,317
312,5	1,312
313	1,304
313,4	1,292
313,9	1,283
314,4	1,273
314,8	1,264
315,3	1,255
315,7	1,246
316,2	1,236
316,7	1,229
317,1	1,219
317,6	1,211
318	1,2
318,5	1,19
319	1,177
319,4	1,164
319,9	1,15
320,3	1,139
320,8	1,125
321,3	1,112
321,7	1,1
322,2	1,087
322,6	1,076
323,1	1,063
323,6	1,05
324	1,037
324,5	1,025
324,9	1,013
325,4	1,002
325,9	0,989
326,3	0,977
326,8	0,964
327,2	0,952
327,7	0,938
328,2	0,925
328,6	0,912
329,1	0,9
329,5	0,888
330	0,877
330,5	0,866
330,9	0,853
331,4	0,843
331,8	0,83
332,3	0,819
332,8	0,807
333,2	0,795
333,7	0,785
334,1	0,776
334,6	0,765
335,1	0,754
335,5	0,744
336	0,734
336,4	0,724
336,9	0,713
337,4	0,701
337,8	0,691
338,3	0,681
338,7	0,67
339,2	0,66
339,7	0,65
340,1	0,64
340,6	0,63
341	0,62
341,5	0,611
342	0,601
342,4	0,593
342,9	0,583
343,3	0,575
343,8	0,566
344,2	0,557
344,7	0,548
345,2	0,539
345,6	0,53
346,1	0,522
346,5	0,513
347	0,506
347,5	0,498
347,9	0,49
348,4	0,481
348,8	0,474
349,3	0,467
349,8	0,459
350,2	0,451
350,7	0,444
351,1	0,437
351,6	0,43
352	0,422
352,5	0,415
353	0,408
353,4	0,402
353,9	0,394
354,3	0,388
354,8	0,382
355,3	0,376
355,7	0,371
356,2	0,365
356,6	0,358
357,1	0,352
357,5	0,345
358	0,34
358,5	0,334
358,9	0,328
359,4	0,323
359,8	0,317
360,3	0,313
360,8	0,308
361,2	0,302
361,7	0,298
362,1	0,293
362,6	0,288
363	0,283
363,5	0,278
364	0,274
364,4	0,27
364,9	0,265
365,3	0,26
365,8	0,256
366,3	0,253
366,7	0,249
367,2	0,245
367,6	0,24
368,1	0,236
368,5	0,233
369	0,229
369,5	0,225
369,9	0,221
370,4	0,218
370,8	0,215
371,3	0,212
371,7	0,209
372,2	0,206
372,7	0,202
373,1	0,199
373,6	0,196
374	0,192
374,5	0,189
374,9	0,186
375,4	0,183
375,9	0,181
376,3	0,178
376,8	0,175
377,2	0,171
377,7	0,169
378,2	0,167
378,6	0,164
379,1	0,161
379,5	0,159
380	0,157
380,4	0,155
380,9	0,154
381,4	0,152
381,8	0,15
382,3	0,149
382,7	0,146
383,2	0,143
383,6	0,142
384,1	0,139
384,6	0,136
385	0,134
385,5	0,132
385,9	0,13
386,4	0,128
386,8	0,126
387,3	0,125
387,7	0,123
388,2	0,122
388,7	0,12
389,1	0,119
389,6	0,117
390	0,115
390,5	0,113
390,9	0,112
391,4	0,111
391,9	0,108
392,3	0,107
392,8	0,106
393,2	0,105
393,7	0,104
394,1	0,102
394,6	0,101
395,1	0,101
395,5	0,099
396	0,099
396,4	0,097
396,9	0,096
397,3	0,095
397,8	0,093
398,2	0,091
398,7	0,09
399,2	0,09
399,6	0,089
400,1	0,088
400,5	0,086
401	0,086
401,4	0,085
401,9	0,083
402,4	0,081
402,8	0,08
403,3	0,079
403,7	0,078
404,2	0,077
404,6	0,077
405,1	0,076
405,5	0,075
406	0,074
406,5	0,073
406,9	0,073
407,4	0,071
407,8	0,07
408,3	0,069
408,7	0,069
409,2	0,068
409,6	0,067
410,1	0,066
410,6	0,066
411	0,066
411,5	0,064
411,9	0,063
412,4	0,063
412,8	0,061
413,3	0,061
413,7	0,06
414,2	0,059
414,7	0,059
415,1	0,058
415,6	0,058
416	0,057
416,5	0,056
416,9	0,056
417,4	0,055
417,8	0,054
418,3	0,053
418,8	0,052
419,2	0,051
419,7	0,05
420,1	0,049
420,6	0,048
421	0,047
421,5	0,047
421,9	0,047
422,4	0,046
422,8	0,045
423,3	0,045
423,8	0,044
424,2	0,043
424,7	0,042
425,1	0,041
425,6	0,04
426	0,04
426,5	0,039
426,9	0,038
427,4	0,038
427,9	0,038
428,3	0,036
428,8	0,036
429,2	0,036
429,7	0,035
430,1	0,034
430,6	0,034
431	0,034
431,5	0,033
431,9	0,033
432,4	0,032
432,8	0,031
433,3	0,03
433,8	0,029
434,2	0,028
434,7	0,028
435,1	0,027
435,6	0,026
436	0,026
436,5	0,026
436,9	0,026
437,4	0,025
437,8	0,025
438,3	0,025
438,8	0,024
439,2	0,024
439,7	0,023
440,1	0,022
440,6	0,021
441	0,021
441,5	0,021
441,9	0,021
442,4	0,02
442,8	0,02
443,3	0,02
443,7	0,02
444,2	0,019
444,7	0,019
445,1	0,018
445,6	0,019
446	0,018
446,5	0,017
446,9	0,018
447,4	0,017
447,8	0,017
448,3	0,017
448,7	0,016
449,2	0,016
449,6	0,016
450,1	0,016
450,6	0,016
451	0,015
451,5	0,015
451,9	0,015
452,4	0,015
452,8	0,015
453,3	0,015
453,7	0,014
454,2	0,014
454,6	0,014
455,1	0,014
455,5	0,014
456	0,014
456,4	0,013
456,9	0,013
457,3	0,012
457,8	0,012
458,3	0,011
458,7	0,01
459,2	0,009
459,6	0,009
460,1	0,009
460,5	0,009
461	0,01
461,4	0,01
461,9	0,01
462,3	0,01
462,8	0,01
463,2	0,01
463,7	0,009
464,1	0,009
464,6	0,009
465	0,009
465,5	0,009
466	0,009
466,4	0,009
466,9	0,009
467,3	0,009
467,8	0,009
468,2	0,008
468,7	0,008
469,1	0,008
469,6	0,007
470	0,008
470,5	0,008
470,9	0,007
471,4	0,007
471,8	0,008
472,3	0,008
472,7	0,008
473,2	0,007
473,6	0,007
474,1	0,007
474,5	0,007
475	0,006
475,4	0,006
475,9	0,006
476,4	0,006
476,8	0,006
477,3	0,006
477,7	0,006
478,2	0,006
478,6	0,006
479,1	0,006
479,5	0,006
480	0,006
480,4	0,006
480,9	0,006
481,3	0,005
481,8	0,006
482,2	0,005
482,7	0,006
483,1	0,006
483,6	0,005
484	0,005
484,5	0,005
484,9	0,005
485,4	0,005
485,8	0,004
486,3	0,004
486,7	0,004
487,2	0,004
487,6	0,004
488,1	0,004
488,5	0,004
489	0,005
489,4	0,005
489,9	0,005
490,4	0,004
490,8	0,004
491,3	0,004
491,7	0,004
492,2	0,003
492,6	0,004
493,1	0,003
493,5	0,003
494	0,003
494,4	0,003
494,9	0,003
495,3	0,003
495,8	0,003
496,2	0,002
496,7	0,003
497,1	0,003
497,6	0,003
498	0,003
498,5	0,003
498,9	0,004
499,4	0,004
499,8	0,004
500,3	0,004
500,7	0,004
501,2	0,003
501,6	0,003
502,1	0,003
502,5	0,003
503	0,002
503,4	0,002
503,9	0,002
504,3	0,003
504,8	0,003
505,2	0,003
505,7	0,003
506,1	0,003
506,6	0,003
507	0,003
507,5	0,002
507,9	0,002
508,4	0,002
508,8	0,001
509,3	0,002
509,7	0,003
510,2	0,003
510,6	0,003
511,1	0,003
511,5	0,003
512	0,003
512,4	0,002
512,9	0,002
513,3	0,001
513,8	0,001
514,2	0,002
514,7	0,001
515,1	0,001
515,6	0,001
516	0,001
516,5	0,001
516,9	0,001
517,4	0
517,8	0
518,3	0,001
518,7	0,001
519,2	0,001
519,6	0,001
520,1	0,001
520,5	0,001
521	0,002
521,4	0,003
521,9	0,002
522,3	0,003
522,8	0,003
523,2	0,002
523,7	0,003
524,1	0,002
524,6	0,001
525	0,001
525,5	0,001
525,9	0,002
526,4	0,002
526,8	0,002
527,3	0,002
527,7	0,003
528,2	0,003
528,6	0,002
529,1	0,001
529,5	0,001
530	0,001
530,4	0
530,9	0,001
531,3	0,001
531,8	0,001
532,2	0,001
532,6	0,001
533,1	0
533,5	-0
534	-0,001
534,4	-0,001
534,9	-0
535,3	-0
535,8	-0
536,2	0
536,7	0,001
537,1	0,001
537,6	0,001
538	0,001
538,5	0
538,9	0
539,4	-0
539,8	-0,001
540,3	-0
540,7	-0,001
541,2	-0,001
541,6	-0
542,1	0
542,5	0
543	0,001
543,4	0
543,9	0,001
544,3	0,001
544,8	0,001
545,2	0
545,7	0,001
546,1	0,001
546,5	0,001
547	0,001
547,4	0,001
547,9	0,001
548,3	0,001
548,8	0,001
549,2	0,001
549,7	0,001
550,1	0,001
550,6	0,001
551	0,001
551,5	0,001
551,9	0,001
552,4	0,001
552,8	0,001
553,3	0,001
553,7	0,001
554,2	0,001
554,6	0,001
555,1	0,001
555,5	0,001
555,9	0,002
556,4	0,002
556,8	0,002
557,3	0,002
557,7	0,002
558,2	0,002
558,6	0,001
559,1	0,001
559,5	0
560	0
560,4	0
560,9	0
561,3	0
561,8	0
562,2	0,001
562,7	0
563,1	0
563,6	0
564	0
564,4	0
564,9	0
565,3	0
565,8	-0
566,2	0
566,7	0
567,1	0
567,6	-0
568	0
568,5	-0
568,9	-0
569,4	0
569,8	0
570,3	0
570,7	0
571,1	0
571,6	0,001
572	0,001
572,5	0
572,9	0
573,4	0
573,8	-0
574,3	0
574,7	0
575,2	-0
575,6	-0
576,1	0
576,5	0
576,9	0
577,4	0
577,8	0
578,3	0
578,7	0,001
579,2	0
579,6	0
580,1	0
580,5	0
581	0
581,4	0
581,9	0
582,3	0
582,7	0
583,2	0
583,6	0
584,1	0
584,5	0
585	0
585,4	0
585,9	0
586,3	0
586,8	0,001
587,2	0,001
587,6	0,001
588,1	0,001
588,5	0,001
589	0,001
589,4	0
589,9	0
590,3	-0
590,8	0
591,2	0
591,7	0,001
592,1	0,001
592,5	0,001
593	0,001
593,4	0,001
593,9	0,001
594,3	0,001
594,8	0
595,2	0
595,7	0
596,1	-0
596,6	0
597	0
597,4	0
597,9	0
598,3	0
598,8	0
599,2	0,001
599,7	0,001
600,1	0,001
600,6	0,001
601	0,001
601,4	0,001
601,9	0,001
602,3	0,001
602,8	0,001
603,2	0
603,7	0
604,1	0
604,6	0
605	0
605,4	0
605,9	0
606,3	0
606,8	0
607,2	0
607,7	0
608,1	0
608,6	-0
609	-0
609,4	0
609,9	-0
610,3	-0
610,8	-0
611,2	0
611,7	-0
612,1	0
612,6	0
613	0
613,4	0
613,9	0
614,3	0
614,8	0
615,2	0
615,7	0
616,1	0,001
616,6	0,001
617	0
617,4	0
617,9	0,001
618,3	0,001
618,8	0,001
619,2	0
619,7	0
620,1	0
620,5	0
621	0
621,4	0
621,9	0
622,3	0
622,8	0
623,2	0
623,6	0,001
624,1	0,001
624,5	0,001
625	0
625,4	0
625,9	0,001
626,3	0
626,8	0
627,2	-0
627,6	-0
628,1	-0
628,5	-0
629	-0
629,4	-0
629,9	-0
630,3	-0
630,7	0
631,2	0,001
631,6	0
632,1	0
632,5	0,001
633	0,001
633,4	0,001
633,8	0,001
634,3	0
634,7	0
635,2	0
635,6	0
636,1	-0
636,5	-0
636,9	-0
637,4	-0
637,8	-0
638,3	0
638,7	0
639,2	0
639,6	0
640	-0
640,5	0
640,9	0
641,4	-0
641,8	-0
642,2	0
642,7	0
643,1	0,001
643,6	0,001
644	0,001
644,5	0,001
644,9	0,001
645,3	0,001
645,8	0,001
646,2	0,001
646,7	0,001
647,1	0,001
647,6	0,001
648	0,001
648,4	0,001
648,9	0,001
649,3	0,001
649,8	0,001
650,2	0,002
650,6	0,001
651,1	0,001
651,5	0,001
652	0
652,4	0
652,9	0
653,3	0
653,7	0
654,2	0,001
654,6	0,001
655,1	0,001
655,5	0
655,9	0
656,4	0
656,8	0
657,3	0,001
657,7	0,001
658,2	0,001
658,6	0,001
659	0,001
659,5	0,002
659,9	0,001
660,4	0,001
660,8	0,001
661,2	0,001
661,7	0,001
662,1	0
662,6	0,001
663	0
663,4	0
663,9	0,001
664,3	0
664,8	0,001
665,2	0,001
665,6	0,001
666,1	0,001
666,5	0,001
667	0,001
667,4	0,001
667,9	0,001
668,3	0,001
668,7	0,001
669,2	0,001
669,6	0,001
670,1	0,001
670,5	0,001
670,9	0,001
671,4	0
671,8	-0
672,3	-0
672,7	-0,001
673,1	-0,001
673,6	-0,001
674	-0
674,5	0
674,9	0,001
675,3	0,001
675,8	0,001
676,2	0,001
676,7	0
677,1	0
677,5	0
678	-0
678,4	-0,001
678,9	-0,001
679,3	-0
679,7	0
680,2	0
680,6	0
681,1	0
681,5	0,001
681,9	0,001
682,4	0,001
682,8	0,001
683,3	0,001
683,7	0,001
684,1	0,001
684,6	0,001
685	0,001
685,5	0,001
685,9	0,001
686,3	0,001
686,8	0,001
687,2	0,001
687,7	0
688,1	0
688,5	0
689	-0
689,4	0
689,9	0
690,3	0
690,7	0,001
691,2	0,001
691,6	0,001
692	0,001
692,5	0,001
692,9	0,001
693,4	0,001
693,8	0,001
694,2	0,001
694,7	0,001
695,1	0,001
695,6	0,001
696	0,001
696,4	0,001
696,9	0
697,3	0
697,8	0,001
698,2	0,001
698,6	0,001
699,1	0,001
699,5	0,002
699,9	0,001
700,4	0,001
700,8	0,001
701,3	0
701,7	-0
702,1	0
702,6	-0
703	-0
703,5	-0
703,9	-0
704,3	-0
704,8	-0
705,2	0
705,6	0
706,1	0
706,5	0
707	0
707,4	0
707,8	0,001
708,3	0,001
708,7	0,001
709,2	0
709,6	0
710	0,001
710,5	0
710,9	0
711,3	0
711,8	0
712,2	0
712,7	0
713,1	0
713,5	0
714	-0
714,4	-0
714,8	-0
715,3	-0
715,7	-0
716,2	-0
716,6	-0
717	0
717,5	-0
717,9	0
718,3	0
718,8	0
719,2	0
719,7	0,001
720,1	0
720,5	0
721	0,001
721,4	0,001
721,8	0,001
722,3	0,001
722,7	0
723,2	0,001
723,6	0,001
724	0
724,5	0
724,9	0
725,3	0
725,8	0
726,2	0
726,7	0
727,1	0
727,5	0
728	0
728,4	0
728,8	-0
729,3	-0
729,7	-0,001
730,1	-0,001
730,6	-0,001
731	-0
731,5	-0
731,9	0
732,3	0
732,8	0,001
733,2	0,001
733,6	0,001
734,1	0,001
734,5	0
734,9	0
735,4	0
735,8	0
736,3	0
736,7	0
737,1	0
737,6	0
738	0
738,4	0
738,9	0
739,3	0
739,7	0
740,2	-0
740,6	-0
741,1	-0
741,5	0
741,9	0
742,4	0
742,8	0,001
743,2	0,001
743,7	0,001
744,1	0,001
744,5	0,001
745	0,001
745,4	0
745,8	0,001
746,3	0
746,7	-0
747,2	-0
747,6	-0
748	-0
748,5	-0
748,9	-0,001
749,3	-0
749,8	-0
750,2	0
750,6	-0
751,1	0
751,5	0,001
751,9	0
752,4	0,001
752,8	0,001
753,3	0
753,7	0
754,1	0
754,6	-0
755	-0
755,4	-0
755,9	-0
756,3	-0
756,7	0
757,2	0
757,6	0
758	0
758,5	0,001
758,9	0
759,3	0
759,8	0
760,2	0
760,6	0,001
761,1	0
761,5	0
761,9	0
762,4	0
762,8	0,001
763,3	0,001
763,7	0
764,1	0,001
764,6	0,001
765	0
765,4	0
765,9	0
766,3	0
766,7	0,001
767,2	0,001
767,6	0,001
768	0,001
768,5	0,001
768,9	0,001
769,3	0
769,8	0
770,2	-0
770,6	-0
771,1	-0
771,5	-0
771,9	-0
772,4	-0,001
772,8	-0
773,2	-0
773,7	-0
774,1	-0
774,5	-0
775	-0
775,4	0
775,8	-0
776,3	0
776,7	-0
777,1	-0
777,6	-0
778	-0
778,4	0
778,9	0
779,3	0
779,7	0,001
780,2	0,001
780,6	0,001
781	0,001
781,5	0
781,9	0
782,3	0
782,8	0
783,2	-0
783,6	-0
784,1	-0
784,5	-0
784,9	0,001
785,4	0
785,8	0
786,2	0,001
786,7	0,001
787,1	0,001
787,5	0
788	0
788,4	0
788,8	0
789,3	0
789,7	0
790,1	0
790,6	0,001
791	0
791,4	0
791,9	0
792,3	0
792,7	0
793,2	0
793,6	0
794	0
794,5	0
794,9	0
795,3	0
795,8	0
796,2	-0
796,6	0
797,1	-0
797,5	-0
797,9	0
798,4	0,001
798,8	0,001
799,2	0,001
799,7	0,001
800,1	0,001
800,5	0,001
801	0,001
801,4	0,001
801,8	0,001
802,2	0,001
802,7	0,001
803,1	0,001
803,5	0,001
804	0,001
804,4	0,001
804,8	0,001
805,3	0
805,7	0
806,1	0
806,6	0
807	0
807,4	0
807,9	-0
808,3	0
808,7	0
809,2	0
809,6	-0
810	-0
810,4	0
810,9	-0
811,3	0
811,7	0
812,2	0
812,6	0
813	0
813,5	0
813,9	0
814,3	0
814,8	0
815,2	-0
815,6	-0,001
816,1	-0,001
816,5	-0,001
816,9	-0,001
817,3	-0,001
817,8	-0,001
818,2	-0
818,6	-0
819,1	0
819,5	0
819,9	0
820,4	0
820,8	0
821,2	0
821,7	0
822,1	-0
822,5	0
822,9	0
823,4	0
823,8	0
824,2	0
824,7	0
825,1	0
825,5	0
826	0
826,4	-0
826,8	-0
827,3	0
827,7	0
828,1	0
828,5	0
829	0
829,4	0,001
829,8	0,001
830,3	0,001
830,7	0,001
831,1	0,001
831,6	0,001
832	0,001
832,4	0,001
832,8	0,001
833,3	0,001
833,7	0,001
834,1	0,001
834,6	0,001
835	0,001
835,4	0,001
835,8	0,001
836,3	0,001
836,7	0,001
837,1	0,001
837,6	0,001
838	0
838,4	0,001
838,9	0,001
839,3	0,001
839,7	0
840,1	0
840,6	0
841	0
841,4	-0
841,9	-0
842,3	-0
842,7	-0
843,1	-0
843,6	-0
844	-0
844,4	0
844,9	0
845,3	0
845,7	-0
846,2	-0
846,6	-0
847	0
847,4	0
847,9	0
848,3	0
848,7	0
849,2	0,001
849,6	0,001
850	0,001
850,4	0
850,9	0,001
851,3	0,001
851,7	0,001
852,2	0
852,6	0,001
853	0
853,4	0
853,9	0
854,3	0
854,7	0,001
855,2	0,001
855,6	0
856	0
856,4	0
856,9	0
857,3	-0
857,7	-0
858,2	-0
858,6	0
859	0
859,4	0
859,9	0
860,3	0
860,7	0
861,1	0
861,6	0,001
862	0
862,4	0
862,9	0,001
863,3	0,001
863,7	0,001
864,1	0,001
864,6	0,001
865	0,001
865,4	0,001
865,9	0,001
866,3	0,001
866,7	0
867,1	0
867,6	0
868	-0
868,4	0
868,8	-0
869,3	0
869,7	0,001
870,1	0,001
870,6	0
871	0,001
871,4	0,001
871,8	0,001
872,3	0,001
872,7	0
873,1	0
873,5	0
874	0
874,4	0
874,8	0
875,3	0
875,7	0,001
876,1	0,001
876,5	0,001
877	0
877,4	0
877,8	0,001
878,2	0,001
878,7	0,001
879,1	0,001
879,5	0,001
879,9	0,001
880,4	0,001
880,8	0
881,2	0
881,7	0
882,1	-0
882,5	0
882,9	-0
883,4	-0
883,8	-0
884,2	-0,001
884,6	-0,001
885,1	-0
885,5	-0,001
885,9	-0,001
886,3	-0
886,8	-0
887,2	-0
887,6	0
888	-0
888,5	-0
888,9	-0
889,3	-0
889,8	-0
890,2	-0
890,6	-0
891	-0
891,5	-0
891,9	0
892,3	0
892,7	0
893,2	-0
893,6	-0
894	0
894,4	-0
894,9	-0
895,3	0
895,7	0
896,1	0
896,6	0
897	-0
897,4	0
897,8	0
898,3	0
898,7	0
899,1	0
899,5	0
900	0
900,4	0
900,8	0
901,2	0
901,7	-0
902,1	0
902,5	0
902,9	0
903,4	0
903,8	0
904,2	0
904,6	0
905,1	0
905,5	0
905,9	0,001
906,3	0,001
906,8	0
907,2	0
907,6	0
908	0
908,5	-0
908,9	-0
909,3	-0
909,7	-0
910,2	-0
910,6	-0
911	-0
911,4	-0
911,9	-0
912,3	0
912,7	0
913,1	0
913,6	0,001
914	0
914,4	0,001
914,8	0,001
915,3	0
915,7	0,001
916,1	0,001
916,5	0
916,9	0
917,4	0
917,8	0
918,2	0
918,6	0
919,1	-0
919,5	-0
919,9	-0
920,3	0
920,8	0
921,2	0
921,6	-0
922	0
922,5	0
922,9	0
923,3	-0
923,7	-0
924,2	0
924,6	0,001
925	0,001
925,4	0,001
925,8	0,001
926,3	0,002
926,7	0,001
927,1	0,001
927,5	0,001
928	0,001
928,4	0,001
928,8	0,001
929,2	0
929,7	0,001
930,1	0
930,5	0,001
930,9	0,001
931,3	0
931,8	0
932,2	0
932,6	0
933	0
933,5	-0
933,9	-0
934,3	0
934,7	0
935,2	0
935,6	0
936	0,001
936,4	0,001
936,8	0,001
937,3	0,002
937,7	0,002
938,1	0,002
938,5	0,001
939	0,001
939,4	0
939,8	-0
940,2	-0
940,6	-0
941,1	-0,001
941,5	-0
941,9	-0
942,3	-0
942,8	-0
943,2	-0,001
943,6	-0,001
944	-0
944,4	-0,001
944,9	-0
945,3	0
945,7	0
946,1	0,001
946,6	0,001
947	0,001
947,4	0,001
947,8	0,001
948,2	0,001
948,7	0,001
949,1	0,001
949,5	0,001
949,9	0,001
950,3	0,001
950,8	0,001
951,2	0,001
951,6	0,001
952	0
952,5	0
952,9	-0
953,3	0
953,7	0,001
954,1	0,001
954,6	-0
955	0
955,4	0
955,8	0
956,2	-0
956,7	-0,001
957,1	-0
957,5	0
957,9	-0
958,3	0
958,8	-0
959,2	0
959,6	0
960	0,001
960,5	0
960,9	0
961,3	0
961,7	0,001
962,1	0
962,6	0
963	-0
963,4	-0
963,8	0
964,2	0,001
964,7	0,002
965,1	0,002
965,5	0,002
965,9	0,002
966,3	0,002
966,8	0,001
967,2	0
967,6	-0
968	-0
968,4	0
968,9	0
969,3	0,001
969,7	0,001
970,1	0,002
970,5	0,002
971	0,002
971,4	0,001
971,8	0,001
972,2	0,001
972,6	0,001
973,1	0,001
973,5	0,001
973,9	0,001
974,3	0,001
974,7	0,001
975,2	0
975,6	0
976	0
976,4	-0
976,8	0
977,3	0,001
977,7	0,001
978,1	0,002
978,5	0,002
978,9	0,002
979,4	0,002
979,8	0,002
980,2	0,001
980,6	0,001
981	0,001
981,5	0,001
981,9	0,001
982,3	0,002
982,7	0,002
983,1	0,002
983,6	0,002
984	0,002
984,4	0,002
984,8	0,001
985,2	0,002
985,6	0,001
986,1	0
986,5	-0
986,9	0
987,3	-0
987,7	-0
988,2	-0,001
988,6	0
989	0
989,4	0
989,8	-0
990,3	0
990,7	0,001
991,1	0,001
991,5	0,001
991,9	0,001
992,3	0,001
992,8	0,001
993,2	0,001
993,6	0,001
994	0,001
994,4	0,001
994,9	0
995,3	0
995,7	0,001
996,1	0,001
996,5	0,001
996,9	0
997,4	-0
997,8	0
998,2	0
998,6	0
999	0,001
999,5	0,001
999,9	0,001
1000,3	0,001
1000,7	0,001
1001,1	0,001
1001,5	0,001
1002	-0,001
1002,4	-0
1002,8	0
1003,2	-0
1003,6	-0
1004	-0,001
1004,5	-0
1004,9	0,001
1005,3	0
1005,7	-0,001
1006,1	-0,001
1006,6	-0,001
1007	-0,001
1007,4	-0,001
1007,8	-0,001
1008,2	-0,001
1008,6	-0,001
1009,1	-0,001
1009,5	-0,002
1009,9	-0,002
1010,3	-0,001
1010,7	-0,001
1011,1	-0,001
1011,6	-0,001
1012	-0,001
1012,4	-0,001
1012,8	-0,001
1013,2	-0
1013,6	-0,001
1014,1	-0,001
1014,5	-0
1014,9	-0
1015,3	-0,001
1015,7	-0,001
1016,1	-0,001
1016,6	-0,001
1017	-0,001
1017,4	-0,001
1017,8	-0,001
1018,2	-0,001
1018,6	-0,002
1019,1	-0,002
1019,5	-0,002
1019,9	-0,002
1020,3	-0,002
1020,7	-0,002
1021,1	-0,001
1021,6	-0,001
1022	-0,001
1022,4	-0,001
1022,8	-0
1023,2	-0
1023,6	-0,001
1024,1	-0
1024,5	-0
1024,9	-0
1025,3	0,001
1025,7	-0
1026,1	0,001
1026,6	0,001
1027	0
1027,4	0
1027,8	0
1028,2	-0
1028,6	0,001
1029	-0
1029,5	-0
1029,9	-0
1030,3	-0,001
1030,7	-0,001
1031,1	-0,001
1031,5	-0,001
1032	-0,001
1032,4	-0,001
1032,8	-0,001
1033,2	-0,001
1033,6	-0
1034	-0,001
1034,4	-0
1034,9	0
1035,3	0
1035,7	0
1036,1	0,001
1036,5	0
1036,9	0,001
1037,4	-0,001
1037,8	-0,001
1038,2	-0
1038,6	0
1039	-0,001
1039,4	-0
1039,8	0
1040,3	0,001
1040,7	0,001
1041,1	0
1041,5	0
1041,9	0,002
1042,3	0,002
1042,7	0,001
1043,2	-0
1043,6	-0,001
1044	-0,001
1044,4	-0,001
1044,8	-0,002
1045,2	-0,002
1045,6	-0,001
1046,1	-0
1046,5	-0
1046,9	-0
1047,3	-0,001
1047,7	-0,001
1048,1	-0,001
1048,5	-0,002
1049	-0,002
1049,4	-0,002
1049,8	-0,002
1050,2	-0,002
1050,6	-0,001
1051	-0,001
1051,4	-0,001
1051,9	-0,001
1052,3	-0,002
1052,7	-0,001
1053,1	-0,001
1053,5	-0,001
1053,9	-0
1054,3	-0,001
1054,8	-0,001
1055,2	-0
1055,6	-0,001
1056	-0
1056,4	-0,001
1056,8	-0,001
1057,2	-0,001
1057,6	0
1058,1	0
1058,5	0
1058,9	0,001
1059,3	0,001
1059,7	0
1060,1	0
1060,5	-0
1061	0
1061,4	0,001
1061,8	0,001
1062,2	0,001
1062,6	0,001
1063	0,001
1063,4	0,001
1063,8	0
1064,3	0
1064,7	0,001
1065,1	0,001
1065,5	0,001
1065,9	0,002
1066,3	0,002
1066,7	0,003
1067,1	0,002
1067,6	-0
1068	0,001
1068,4	0,001
1068,8	-0,001
1069,2	-0,002
1069,6	-0,002
1070	-0,002
1070,4	-0,002
1070,9	-0,003
1071,3	-0,003
1071,7	-0,002
1072,1	-0,003
1072,5	-0,002
1072,9	-0,003
1073,3	-0,002
1073,7	-0,002
1074,2	-0,002
1074,6	-0,001
1075	-0,002
1075,4	-0,003
1075,8	-0,003
1076,2	-0,003
1076,6	-0,002
1077	-0,002
1077,5	-0,002
1077,9	-0,002
1078,3	-0,002
1078,7	-0,002
1079,1	-0,002
1079,5	-0,001
1079,9	-0
1080,3	-0,002
1080,7	-0,003
1081,2	-0,001
1081,6	-0
1082	-0
1082,4	-0,002
1082,8	-0,004
1083,2	-0,002
1083,6	-0,002
1084	-0,003
1084,5	-0,004
1084,9	-0,002
1085,3	-0,002
1085,7	0,001
1086,1	0
1086,5	-0
1086,9	0,001
1087,3	0,002
1087,7	0
1088,2	0,001
1088,6	-0,001
1089	-0,002
1089,4	-0,003
1089,8	-0,003
1090,2	-0,006
1090,6	-0,003
1091	-0,002
1091,4	-0,003
1091,9	-0,003
1092,3	-0,003
1092,7	-0,001
1093,1	0,002
1093,5	-0,004
1093,9	-0,008
1094,3	-0,007
1094,7	-0,004
1095,1	-0,002
1095,5	-0,003
1096	-0,008
1096,4	-0,001
1096,8	0
1097,2	0,001
1097,6	-0,006
1098	-0,004
1098,4	-0,002
1098,8	0,006
1099,2	0,001
1099,6	-0,004
1100,1	0,003
1100,5	0,001
1100,9	-0,01
1101,3	-0,014
1101,7	-0,014
1102,1	-0,012
1102,5	-0,012
1102,9	-0,02
1103,3	-0,01
1103,7	-0,003
1104,2	-0,006
1104,6	-0,006
1105	0,002
1105,4	-0,002
1105,8	-0,002
1106,2	-0,002
1106,6	0,002
1107	0,044
1107,4	0,039
1107,8	0,029
1108,3	-0
