Data from Absorbance_00019.txt Node
Date: Thu Aug 10 15:17:21 MSK 2023
User: vat
Spectrometer: MAYP114033
Trigger mode: 0
Integration Time (sec): 8,000000E-3
Scans to average: 10
Electric dark correction enabled: true
Nonlinearity correction enabled: false
Boxcar width: 3
XAxis mode: Wavelengths
Number of Pixels in Spectrum: 2068
>>>>>Begin Spectral Data<<<<<
199,4	-0
199,9	0,078
200,4	0,394
200,8	0,739
201,3	0,831
201,8	0,895
202,2	0,904
202,7	0,938
203,2	1,017
203,6	1,048
204,1	1,071
204,6	1,085
205	1,115
205,5	1,153
206	1,164
206,4	1,177
206,9	1,196
207,4	1,212
207,8	1,231
208,3	1,24
208,8	1,262
209,2	1,265
209,7	1,267
210,2	1,281
210,6	1,284
211,1	1,311
211,5	1,308
212	1,323
212,5	1,357
212,9	1,384
213,4	1,414
213,9	1,435
214,3	1,418
214,8	1,472
215,3	1,474
215,7	1,473
216,2	1,486
216,7	1,488
217,1	1,498
217,6	1,512
218,1	1,499
218,5	1,511
219	1,532
219,5	1,548
219,9	1,556
220,4	1,562
220,9	1,6
221,3	1,632
221,8	1,65
222,3	1,663
222,7	1,657
223,2	1,68
223,6	1,699
224,1	1,713
224,6	1,732
225	1,747
225,5	1,767
226	1,797
226,4	1,811
226,9	1,831
227,4	1,852
227,8	1,834
228,3	1,842
228,8	1,86
229,2	1,867
229,7	1,868
230,2	1,895
230,6	1,892
231,1	1,914
231,5	1,939
232	1,942
232,5	1,957
232,9	1,968
233,4	1,988
233,9	2,01
234,3	2,016
234,8	2,02
235,3	2,02
235,7	2,025
236,2	2,041
236,7	2,017
237,1	2,015
237,6	2,021
238,1	2,027
238,5	2,048
239	2,069
239,4	2,093
239,9	2,118
240,4	2,117
240,8	2,139
241,3	2,123
241,8	2,134
242,2	2,12
242,7	2,097
243,2	2,094
243,6	2,1
244,1	2,1
244,6	2,108
245	2,12
245,5	2,119
245,9	2,105
246,4	2,105
246,9	2,109
247,3	2,119
247,8	2,123
248,3	2,113
248,7	2,104
249,2	2,146
249,7	2,147
250,1	2,139
250,6	2,127
251	2,154
251,5	2,151
252	2,188
252,4	2,177
252,9	2,18
253,4	2,213
253,8	2,239
254,3	2,207
254,8	2,206
255,2	2,178
255,7	2,17
256,1	2,161
256,6	2,154
257,1	2,136
257,5	2,141
258	2,147
258,5	2,164
258,9	2,194
259,4	2,236
259,9	2,234
260,3	2,224
260,8	2,247
261,2	2,238
261,7	2,243
262,2	2,239
262,6	2,213
263,1	2,201
263,6	2,227
264	2,208
264,5	2,201
264,9	2,199
265,4	2,2
265,9	2,198
266,3	2,199
266,8	2,195
267,3	2,206
267,7	2,23
268,2	2,223
268,7	2,223
269,1	2,24
269,6	2,274
270	2,281
270,5	2,272
271	2,263
271,4	2,272
271,9	2,256
272,4	2,252
272,8	2,248
273,3	2,229
273,7	2,227
274,2	2,259
274,7	2,279
275,1	2,285
275,6	2,262
276,1	2,246
276,5	2,255
277	2,27
277,4	2,254
277,9	2,242
278,4	2,235
278,8	2,247
279,3	2,245
279,8	2,24
280,2	2,238
280,7	2,232
281,1	2,239
281,6	2,248
282,1	2,243
282,5	2,245
283	2,252
283,4	2,227
283,9	2,237
284,4	2,228
284,8	2,211
285,3	2,222
285,8	2,207
286,2	2,188
286,7	2,182
287,1	2,142
287,6	2,108
288,1	2,086
288,5	2,043
289	1,999
289,5	1,947
289,9	1,898
290,4	1,857
290,8	1,814
291,3	1,775
291,8	1,73
292,2	1,7
292,7	1,673
293,1	1,649
293,6	1,622
294,1	1,606
294,5	1,584
295	1,57
295,5	1,553
295,9	1,54
296,4	1,523
296,8	1,512
297,3	1,493
297,8	1,484
298,2	1,469
298,7	1,459
299,1	1,446
299,6	1,435
300,1	1,421
300,5	1,412
301	1,404
301,5	1,396
301,9	1,383
302,4	1,376
302,8	1,368
303,3	1,359
303,8	1,349
304,2	1,335
304,7	1,323
305,1	1,314
305,6	1,302
306,1	1,291
306,5	1,28
307	1,265
307,4	1,255
307,9	1,246
308,4	1,233
308,8	1,221
309,3	1,207
309,8	1,195
310,2	1,185
310,7	1,172
311,1	1,158
311,6	1,145
312,1	1,133
312,5	1,121
313	1,11
313,4	1,096
313,9	1,084
314,4	1,071
314,8	1,06
315,3	1,046
315,7	1,033
316,2	1,021
316,7	1,008
317,1	0,996
317,6	0,984
318	0,972
318,5	0,962
319	0,948
319,4	0,936
319,9	0,924
320,3	0,913
320,8	0,9
321,3	0,888
321,7	0,873
322,2	0,861
322,6	0,849
323,1	0,836
323,6	0,823
324	0,812
324,5	0,799
324,9	0,788
325,4	0,777
325,9	0,764
326,3	0,753
326,8	0,741
327,2	0,728
327,7	0,716
328,2	0,704
328,6	0,692
329,1	0,681
329,5	0,669
330	0,656
330,5	0,644
330,9	0,632
331,4	0,62
331,8	0,609
332,3	0,598
332,8	0,587
333,2	0,576
333,7	0,564
334,1	0,554
334,6	0,544
335,1	0,533
335,5	0,521
336	0,511
336,4	0,501
336,9	0,492
337,4	0,482
337,8	0,472
338,3	0,462
338,7	0,453
339,2	0,443
339,7	0,435
340,1	0,426
340,6	0,417
341	0,409
341,5	0,401
342	0,392
342,4	0,384
342,9	0,376
343,3	0,369
343,8	0,362
344,2	0,354
344,7	0,347
345,2	0,34
345,6	0,334
346,1	0,327
346,5	0,32
347	0,314
347,5	0,308
347,9	0,302
348,4	0,296
348,8	0,29
349,3	0,284
349,8	0,278
350,2	0,272
350,7	0,266
351,1	0,261
351,6	0,255
352	0,25
352,5	0,246
353	0,241
353,4	0,237
353,9	0,233
354,3	0,228
354,8	0,225
355,3	0,221
355,7	0,217
356,2	0,212
356,6	0,208
357,1	0,204
357,5	0,2
358	0,196
358,5	0,192
358,9	0,188
359,4	0,185
359,8	0,182
360,3	0,179
360,8	0,176
361,2	0,172
361,7	0,169
362,1	0,167
362,6	0,163
363	0,159
363,5	0,157
364	0,153
364,4	0,151
364,9	0,148
365,3	0,146
365,8	0,143
366,3	0,141
366,7	0,138
367,2	0,136
367,6	0,134
368,1	0,131
368,5	0,128
369	0,126
369,5	0,124
369,9	0,122
370,4	0,12
370,8	0,118
371,3	0,116
371,7	0,114
372,2	0,112
372,7	0,11
373,1	0,108
373,6	0,106
374	0,104
374,5	0,103
374,9	0,101
375,4	0,099
375,9	0,097
376,3	0,095
376,8	0,093
377,2	0,091
377,7	0,09
378,2	0,088
378,6	0,086
379,1	0,085
379,5	0,083
380	0,082
380,4	0,081
380,9	0,079
381,4	0,078
381,8	0,077
382,3	0,076
382,7	0,075
383,2	0,074
383,6	0,072
384,1	0,071
384,6	0,07
385	0,069
385,5	0,067
385,9	0,065
386,4	0,064
386,8	0,062
387,3	0,062
387,7	0,06
388,2	0,06
388,7	0,059
389,1	0,058
389,6	0,057
390	0,057
390,5	0,056
390,9	0,055
391,4	0,054
391,9	0,053
392,3	0,053
392,8	0,052
393,2	0,05
393,7	0,049
394,1	0,048
394,6	0,048
395,1	0,046
395,5	0,045
396	0,045
396,4	0,045
396,9	0,044
397,3	0,043
397,8	0,043
398,2	0,042
398,7	0,042
399,2	0,041
399,6	0,04
400,1	0,039
400,5	0,038
401	0,037
401,4	0,036
401,9	0,035
402,4	0,035
402,8	0,035
403,3	0,034
403,7	0,034
404,2	0,033
404,6	0,033
405,1	0,032
405,5	0,031
406	0,03
406,5	0,031
406,9	0,03
407,4	0,029
407,8	0,029
408,3	0,028
408,7	0,028
409,2	0,028
409,6	0,028
410,1	0,028
410,6	0,028
411	0,028
411,5	0,027
411,9	0,026
412,4	0,025
412,8	0,024
413,3	0,023
413,7	0,023
414,2	0,022
414,7	0,023
415,1	0,022
415,6	0,022
416	0,022
416,5	0,021
416,9	0,02
417,4	0,02
417,8	0,019
418,3	0,019
418,8	0,019
419,2	0,018
419,7	0,018
420,1	0,018
420,6	0,017
421	0,016
421,5	0,016
421,9	0,015
422,4	0,015
422,8	0,014
423,3	0,014
423,8	0,015
424,2	0,014
424,7	0,014
425,1	0,014
425,6	0,014
426	0,014
426,5	0,013
426,9	0,012
427,4	0,012
427,9	0,012
428,3	0,011
428,8	0,011
429,2	0,011
429,7	0,011
430,1	0,011
430,6	0,01
431	0,01
431,5	0,01
431,9	0,01
432,4	0,009
432,8	0,008
433,3	0,008
433,8	0,009
434,2	0,009
434,7	0,008
435,1	0,008
435,6	0,008
436	0,008
436,5	0,008
436,9	0,007
437,4	0,007
437,8	0,007
438,3	0,008
438,8	0,007
439,2	0,008
439,7	0,007
440,1	0,006
440,6	0,006
441	0,006
441,5	0,006
441,9	0,005
442,4	0,005
442,8	0,005
443,3	0,005
443,7	0,005
444,2	0,005
444,7	0,005
445,1	0,005
445,6	0,005
446	0,005
446,5	0,006
446,9	0,005
447,4	0,005
447,8	0,005
448,3	0,005
448,7	0,004
449,2	0,004
449,6	0,004
450,1	0,004
450,6	0,004
451	0,005
451,5	0,004
451,9	0,005
452,4	0,005
452,8	0,005
453,3	0,005
453,7	0,004
454,2	0,003
454,6	0,003
455,1	0,003
455,5	0,003
456	0,002
456,4	0,002
456,9	0,003
457,3	0,003
457,8	0,003
458,3	0,003
458,7	0,003
459,2	0,003
459,6	0,003
460,1	0,003
460,5	0,002
461	0,002
461,4	0,002
461,9	0,002
462,3	0,002
462,8	0,002
463,2	0,002
463,7	0,002
464,1	0,002
464,6	0,002
465	0,002
465,5	0,003
466	0,003
466,4	0,003
466,9	0,003
467,3	0,003
467,8	0,002
468,2	0,002
468,7	0,002
469,1	0,001
469,6	0,001
470	0,001
470,5	0
470,9	0,001
471,4	0
471,8	-0
472,3	-0,001
472,7	-0
473,2	-0
473,6	0,001
474,1	0
474,5	0,001
475	0
475,4	0
475,9	-0
476,4	-0
476,8	-0
477,3	-0
477,7	-0
478,2	0
478,6	0
479,1	0
479,5	0
480	0
480,4	0,001
480,9	-0
481,3	-0,001
481,8	-0
482,2	0
482,7	0
483,1	0
483,6	0
484	0,001
484,5	0,001
484,9	0
485,4	0
485,8	0
486,3	-0,001
486,7	-0,001
487,2	-0,001
487,6	-0
488,1	-0
488,5	-0
489	-0,001
489,4	0,001
489,9	0,001
490,4	0,001
490,8	0
491,3	0,001
491,7	0
492,2	0,001
492,6	0,001
493,1	0,001
493,5	0
494	0,001
494,4	0,001
494,9	0,001
495,3	0,001
495,8	0,001
496,2	0
496,7	0,001
497,1	-0,001
497,6	-0
498	-0
498,5	-0,001
498,9	-0,001
499,4	-0
499,8	-0,001
500,3	-0,001
500,7	-0,001
501,2	-0,001
501,6	-0,001
502,1	-0,001
502,5	-0,001
503	-0,001
503,4	-0,001
503,9	-0,001
504,3	-0,001
504,8	-0,001
505,2	-0,001
505,7	-0,001
506,1	-0,001
506,6	-0,002
507	-0,002
507,5	-0,002
507,9	-0,002
508,4	-0,003
508,8	-0,003
509,3	-0,004
509,7	-0,003
510,2	-0,003
510,6	-0,003
511,1	-0,003
511,5	-0,002
512	-0,001
512,4	-0,001
512,9	-0,001
513,3	-0,001
513,8	-0,001
514,2	-0,001
514,7	-0
515,1	-0,001
515,6	-0,001
516	-0,001
516,5	-0,001
516,9	-0,001
517,4	-0,001
517,8	-0,001
518,3	-0,001
518,7	-0,001
519,2	-0
519,6	-0,001
520,1	-0,001
520,5	-0,001
521	-0,002
521,4	-0,001
521,9	-0,001
522,3	-0,002
522,8	-0,001
523,2	-0,001
523,7	-0,001
524,1	-0,002
524,6	-0,002
525	-0,002
525,5	-0,002
525,9	-0,002
526,4	-0,002
526,8	-0,002
527,3	-0,001
527,7	-0,001
528,2	-0,002
528,6	-0,001
529,1	-0,001
529,5	-0,001
530	-0,001
530,4	-0
530,9	-0
531,3	0
531,8	-0
532,2	-0
532,6	-0,001
533,1	-0
533,5	-0
534	-0
534,4	0
534,9	0
535,3	0
535,8	0
536,2	-0
536,7	-0
537,1	-0
537,6	-0,001
538	-0,001
538,5	-0,001
538,9	-0,001
539,4	-0,001
539,8	-0,001
540,3	-0,001
540,7	-0,001
541,2	-0,001
541,6	-0,001
542,1	-0,001
542,5	-0,002
543	-0,002
543,4	-0,002
543,9	-0,002
544,3	-0,002
544,8	-0,002
545,2	-0,001
545,7	-0,001
546,1	-0,001
546,5	0
547	-0
547,4	0
547,9	-0
548,3	-0,001
548,8	-0,001
549,2	-0,001
549,7	-0,002
550,1	-0,002
550,6	-0,002
551	-0,002
551,5	-0,002
551,9	-0,001
552,4	-0,001
552,8	-0,001
553,3	-0,001
553,7	-0,001
554,2	-0
554,6	-0
555,1	-0
555,5	0
555,9	-0,001
556,4	-0
556,8	-0
557,3	-0,001
557,7	-0
558,2	-0,001
558,6	-0,001
559,1	-0,001
559,5	-0,001
560	-0,001
560,4	-0
560,9	-0,001
561,3	-0,001
561,8	-0,001
562,2	-0,001
562,7	-0,001
563,1	-0,001
563,6	-0,002
564	-0,002
564,4	-0,001
564,9	-0,002
565,3	-0,001
565,8	-0,001
566,2	-0,002
566,7	-0,002
567,1	-0,001
567,6	-0,002
568	-0,002
568,5	-0,002
568,9	-0,002
569,4	-0,001
569,8	-0,001
570,3	-0,002
570,7	-0,001
571,1	-0,001
571,6	-0,001
572	-0,001
572,5	-0,001
572,9	-0,001
573,4	-0,001
573,8	-0,001
574,3	-0,001
574,7	-0,002
575,2	-0,001
575,6	-0,001
576,1	-0,001
576,5	-0,001
576,9	-0,001
577,4	-0,001
577,8	-0,001
578,3	-0,001
578,7	-0,001
579,2	-0,001
579,6	-0,001
580,1	-0,001
580,5	-0,001
581	-0,001
581,4	-0,002
581,9	-0,002
582,3	-0,002
582,7	-0,002
583,2	-0,002
583,6	-0,001
584,1	-0,001
584,5	-0,001
585	-0
585,4	-0
585,9	-0,001
586,3	-0,001
586,8	-0,001
587,2	-0,001
587,6	-0,001
588,1	-0,001
588,5	-0,001
589	-0,001
589,4	-0,001
589,9	-0,001
590,3	-0,001
590,8	-0,001
591,2	-0
591,7	-0
592,1	-0
592,5	-0
593	-0,001
593,4	-0,001
593,9	-0,001
594,3	-0,001
594,8	-0,001
595,2	-0,001
595,7	-0,001
596,1	-0,001
596,6	-0,001
597	-0,001
597,4	-0,001
597,9	-0,001
598,3	-0,001
598,8	-0,001
599,2	-0,002
599,7	-0,002
600,1	-0,002
600,6	-0,002
601	-0,002
601,4	-0,002
601,9	-0,002
602,3	-0,001
602,8	-0,001
603,2	-0,001
603,7	-0,001
604,1	-0,001
604,6	-0,001
605	-0,001
605,4	-0,001
605,9	-0,001
606,3	-0,001
606,8	-0,001
607,2	-0,001
607,7	-0,001
608,1	-0,001
608,6	-0,001
609	-0,002
609,4	-0,001
609,9	-0,001
610,3	-0,001
610,8	-0,002
611,2	-0,002
611,7	-0,002
612,1	-0,001
612,6	-0,001
613	-0,001
613,4	-0,001
613,9	-0,001
614,3	-0,001
614,8	-0,001
615,2	-0,001
615,7	-0,001
616,1	-0,001
616,6	-0,001
617	-0,001
617,4	-0
617,9	-0,001
618,3	-0
618,8	-0
619,2	-0
619,7	-0
620,1	-0,001
620,5	-0,001
621	-0
621,4	-0,001
621,9	-0
622,3	-0,001
622,8	-0,001
623,2	-0,001
623,6	-0,001
624,1	-0,001
624,5	-0,002
625	-0,002
625,4	-0,002
625,9	-0,002
626,3	-0,001
626,8	-0,001
627,2	-0,001
627,6	-0,001
628,1	-0,001
628,5	-0,001
629	-0
629,4	-0
629,9	-0
630,3	-0
630,7	-0
631,2	-0
631,6	-0,001
632,1	-0,001
632,5	-0,001
633	-0,001
633,4	-0,001
633,8	-0,002
634,3	-0,002
634,7	-0,002
635,2	-0,002
635,6	-0,002
636,1	-0,001
636,5	-0,001
636,9	-0,001
637,4	-0,001
637,8	-0,001
638,3	-0,001
638,7	-0,001
639,2	-0,001
639,6	-0,001
640	-0,001
640,5	-0,002
640,9	-0,002
641,4	-0,002
641,8	-0,002
642,2	-0,001
642,7	-0,001
643,1	-0,001
643,6	-0,001
644	-0,001
644,5	-0,001
644,9	-0,001
645,3	-0,001
645,8	-0,001
646,2	-0,001
646,7	-0,001
647,1	-0,001
647,6	-0,001
648	-0,001
648,4	-0,002
648,9	-0,002
649,3	-0,001
649,8	-0,001
650,2	-0,002
650,6	-0,001
651,1	-0,001
651,5	-0,001
652	-0,002
652,4	-0,002
652,9	-0,002
653,3	-0,002
653,7	-0,002
654,2	-0,002
654,6	-0,002
655,1	-0,001
655,5	-0,001
655,9	-0
656,4	-0
656,8	0,002
657,3	0,002
657,7	0,003
658,2	0,003
658,6	0,004
659	0,005
659,5	0,008
659,9	0,004
660,4	0,002
660,8	0,001
661,2	0,001
661,7	0
662,1	0
662,6	-0,001
663	-0,001
663,4	-0,001
663,9	-0,001
664,3	-0,001
664,8	-0,001
665,2	-0,001
665,6	-0,001
666,1	-0,001
666,5	-0,001
667	-0,001
667,4	-0,001
667,9	-0,001
668,3	-0,001
668,7	-0,001
669,2	-0,001
669,6	-0,001
670,1	-0,001
670,5	-0,001
670,9	-0,001
671,4	-0,001
671,8	-0,002
672,3	-0,001
672,7	-0,001
673,1	-0,001
673,6	-0,001
674	-0,001
674,5	-0,001
674,9	-0
675,3	-0,001
675,8	-0
676,2	-0,001
676,7	-0,001
677,1	-0,001
677,5	-0,002
678	-0,002
678,4	-0,002
678,9	-0,002
679,3	-0,002
679,7	-0,002
680,2	-0,002
680,6	-0,001
681,1	-0,001
681,5	-0,001
681,9	-0,001
682,4	-0,001
682,8	-0,001
683,3	-0,001
683,7	-0,001
684,1	-0,002
684,6	-0,002
685	-0,002
685,5	-0,001
685,9	-0,002
686,3	-0,002
686,8	-0,002
687,2	-0,001
687,7	-0,001
688,1	-0,001
688,5	-0,001
689	-0,001
689,4	-0,001
689,9	-0,001
690,3	-0,001
690,7	-0,001
691,2	-0,001
691,6	-0,001
692	-0,001
692,5	-0,001
692,9	-0,001
693,4	-0,001
693,8	-0,001
694,2	-0,001
694,7	-0
695,1	-0,001
695,6	-0,001
696	-0,001
696,4	-0,001
696,9	-0,001
697,3	-0,001
697,8	-0,001
698,2	-0,001
698,6	-0,001
699,1	-0,001
699,5	-0,001
699,9	-0,001
700,4	-0
700,8	-0,001
701,3	-0,001
701,7	-0,001
702,1	-0,001
702,6	-0,001
703	-0,001
703,5	-0,001
703,9	-0,001
704,3	-0,001
704,8	-0,001
705,2	-0,001
705,6	-0,001
706,1	-0,001
706,5	-0,001
707	-0,001
707,4	-0,002
707,8	-0,002
708,3	-0,002
708,7	-0,002
709,2	-0,002
709,6	-0,001
710	-0,001
710,5	-0,001
710,9	-0,001
711,3	-0
711,8	-0,001
712,2	-0
712,7	-0
713,1	-0
713,5	-0
714	-0,001
714,4	-0,001
714,8	-0,001
715,3	-0,001
715,7	-0,001
716,2	-0,001
716,6	-0,001
717	-0,001
717,5	-0,001
717,9	-0,001
718,3	-0,001
718,8	-0
719,2	-0
719,7	-0
720,1	-0
720,5	-0
721	-0
721,4	-0
721,8	-0,001
722,3	-0,001
722,7	-0,001
723,2	-0,001
723,6	-0,001
724	-0,001
724,5	-0,001
724,9	-0,001
725,3	-0,002
725,8	-0,002
726,2	-0,001
726,7	-0,001
727,1	-0,001
727,5	-0,001
728	-0,001
728,4	-0,002
728,8	-0,001
729,3	-0,002
729,7	-0,002
730,1	-0,002
730,6	-0,002
731	-0,002
731,5	-0,002
731,9	-0,002
732,3	-0,002
732,8	-0,002
733,2	-0,002
733,6	-0,001
734,1	-0,001
734,5	-0,002
734,9	-0,001
735,4	-0,001
735,8	-0,001
736,3	-0,001
736,7	-0,001
737,1	-0,001
737,6	-0,001
738	-0,001
738,4	-0,001
738,9	-0,001
739,3	-0,001
739,7	-0,001
740,2	-0,001
740,6	-0,001
741,1	-0,001
741,5	-0,001
741,9	-0,001
742,4	-0,001
742,8	-0,001
743,2	-0,001
743,7	-0,001
744,1	-0,001
744,5	-0,001
745	-0,001
745,4	-0,001
745,8	-0,001
746,3	-0,001
746,7	-0,001
747,2	-0,001
747,6	-0,001
748	-0,001
748,5	-0,001
748,9	-0,001
749,3	-0,002
749,8	-0,001
750,2	-0,002
750,6	-0,002
751,1	-0,002
751,5	-0,002
751,9	-0,002
752,4	-0,001
752,8	-0,002
753,3	-0,002
753,7	-0,002
754,1	-0,002
754,6	-0,002
755	-0,002
755,4	-0,003
755,9	-0,003
756,3	-0,002
756,7	-0,003
757,2	-0,002
757,6	-0,002
758	-0,002
758,5	-0,002
758,9	-0,001
759,3	-0,001
759,8	-0,001
760,2	-0,001
760,6	-0,002
761,1	-0,002
761,5	-0,001
761,9	-0,001
762,4	-0,001
762,8	-0,001
763,3	-0,002
763,7	-0,001
764,1	-0,002
764,6	-0,002
765	-0,002
765,4	-0,003
765,9	-0,002
766,3	-0,002
766,7	-0,003
767,2	-0,003
767,6	-0,002
768	-0,002
768,5	-0,002
768,9	-0,002
769,3	-0,002
769,8	-0,002
770,2	-0,002
770,6	-0,002
771,1	-0,002
771,5	-0,002
771,9	-0,002
772,4	-0,002
772,8	-0,002
773,2	-0,002
773,7	-0,002
774,1	-0,002
774,5	-0,001
775	-0,001
775,4	-0,001
775,8	-0,001
776,3	-0,001
776,7	-0,001
777,1	-0,001
777,6	-0,001
778	-0,001
778,4	-0
778,9	-0
779,3	-0
779,7	-0
780,2	-0,001
780,6	-0,001
781	-0,001
781,5	-0,001
781,9	-0,001
782,3	-0,001
782,8	-0,001
783,2	-0,001
783,6	-0,001
784,1	-0,001
784,5	-0,001
784,9	-0,001
785,4	-0,001
785,8	-0
786,2	-0
786,7	-0
787,1	0
787,5	0
788	-0
788,4	-0
788,8	-0
789,3	-0,001
789,7	-0,001
790,1	-0,001
790,6	-0,001
791	-0,001
791,4	-0,002
791,9	-0,001
792,3	-0,001
792,7	-0,001
793,2	-0,001
793,6	-0
794	-0,001
794,5	-0,001
794,9	-0,001
795,3	-0,001
795,8	-0,001
796,2	-0,001
796,6	-0,001
797,1	-0,001
797,5	-0,001
797,9	-0,001
798,4	-0,001
798,8	-0,001
799,2	-0,001
799,7	-0,001
800,1	-0,001
800,5	-0,001
801	-0,001
801,4	-0,001
801,8	-0,001
802,2	-0,001
802,7	-0,001
803,1	-0
803,5	-0
804	-0,001
804,4	-0,001
804,8	-0,001
805,3	-0,001
805,7	-0,001
806,1	-0,002
806,6	-0,001
807	-0,001
807,4	-0,001
807,9	-0,001
808,3	-0,001
808,7	-0,001
809,2	-0,001
809,6	-0,001
810	-0,001
810,4	-0,001
810,9	-0,001
811,3	-0,001
811,7	-0,001
812,2	-0,001
812,6	-0,001
813	-0
813,5	-0
813,9	-0
814,3	-0
814,8	0
815,2	0
815,6	0
816,1	-0
816,5	-0
816,9	-0,001
817,3	-0,001
817,8	-0,001
818,2	-0,001
818,6	-0,001
819,1	-0,001
819,5	-0,001
819,9	-0,001
820,4	-0,001
820,8	-0,001
821,2	-0,001
821,7	-0,001
822,1	-0,001
822,5	-0,001
822,9	-0,001
823,4	-0,001
823,8	-0,001
824,2	-0,001
824,7	-0,001
825,1	-0
825,5	-0
826	-0
826,4	0
826,8	0
827,3	0
827,7	0,001
828,1	0,001
828,5	0,001
829	0,001
829,4	0,001
829,8	0
830,3	-0
830,7	-0,001
831,1	-0,001
831,6	-0,001
832	-0,001
832,4	-0,001
832,8	-0,001
833,3	-0,001
833,7	-0,001
834,1	-0,001
834,6	-0,001
835	-0,001
835,4	-0,001
835,8	-0,001
836,3	-0,001
836,7	-0,001
837,1	-0,001
837,6	-0,001
838	-0,001
838,4	-0,002
838,9	-0,002
839,3	-0,002
839,7	-0,002
840,1	-0,002
840,6	-0,001
841	-0,001
841,4	-0,001
841,9	-0,001
842,3	-0,001
842,7	-0,001
843,1	-0,001
843,6	-0,001
844	-0,001
844,4	-0,001
844,9	-0,001
845,3	-0,001
845,7	-0,001
846,2	-0,001
846,6	-0,001
847	-0,001
847,4	-0,001
847,9	-0,001
848,3	-0
848,7	0
849,2	-0
849,6	0
850	0
850,4	0,001
850,9	0,001
851,3	0,001
851,7	0,001
852,2	0,001
852,6	0
853	0
853,4	0
853,9	0
854,3	0
854,7	0
855,2	0,001
855,6	0,001
856	0,001
856,4	0,001
856,9	-0
857,3	-0
857,7	-0
858,2	-0,001
858,6	-0,001
859	-0,001
859,4	-0,001
859,9	-0,001
860,3	-0,001
860,7	-0,002
861,1	-0,002
861,6	-0,001
862	-0,002
862,4	-0,002
862,9	-0,002
863,3	-0,002
863,7	-0,001
864,1	-0,001
864,6	-0,001
865	-0,001
865,4	-0,001
865,9	-0,001
866,3	-0,001
866,7	-0,001
867,1	-0,001
867,6	-0,001
868	-0,001
868,4	-0,002
868,8	-0,002
869,3	-0,002
869,7	-0,002
870,1	-0,002
870,6	-0,002
871	-0,002
871,4	-0,002
871,8	-0,002
872,3	-0,002
872,7	-0,002
873,1	-0,002
873,5	-0,002
874	-0,002
874,4	-0,002
874,8	-0,002
875,3	-0,002
875,7	-0,002
876,1	-0,002
876,5	-0,002
877	-0,002
877,4	-0,001
877,8	-0,001
878,2	-0,002
878,7	-0,002
879,1	-0,002
879,5	-0,001
879,9	-0,001
880,4	-0,001
880,8	-0,001
881,2	-0,001
881,7	-0,001
882,1	-0
882,5	-0
882,9	-0
883,4	-0
883,8	-0,001
884,2	-0,001
884,6	-0,001
885,1	-0,002
885,5	-0,002
885,9	-0,002
886,3	-0,002
886,8	-0,002
887,2	-0,002
887,6	-0,002
888	-0,002
888,5	-0,002
888,9	-0,001
889,3	-0,001
889,8	-0,001
890,2	-0,001
890,6	-0,001
891	-0,001
891,5	-0,001
891,9	-0,001
892,3	-0,002
892,7	-0,001
893,2	-0,001
893,6	-0,001
894	-0,002
894,4	-0,001
894,9	-0,001
895,3	-0,001
895,7	-0,002
896,1	-0,002
896,6	-0,002
897	-0,002
897,4	-0,002
897,8	-0,002
898,3	-0,002
898,7	-0,002
899,1	-0,002
899,5	-0,002
900	-0,001
900,4	-0,001
900,8	-0
901,2	-0
901,7	-0
902,1	-0
902,5	-0
902,9	-0,001
903,4	-0,001
903,8	-0,001
904,2	-0,001
904,6	-0,001
905,1	-0,001
905,5	-0,001
905,9	-0,001
906,3	-0,001
906,8	-0,001
907,2	-0,001
907,6	-0,001
908	-0,001
908,5	-0,001
908,9	-0,002
909,3	-0,001
909,7	-0,002
910,2	-0,001
910,6	-0,001
911	-0,001
911,4	-0,001
911,9	-0,001
912,3	-0,001
912,7	-0,001
913,1	-0,001
913,6	-0,001
914	-0,001
914,4	-0,001
914,8	-0,001
915,3	-0,001
915,7	-0,001
916,1	-0,001
916,5	-0,001
916,9	-0,001
917,4	-0,001
917,8	-0,001
918,2	-0,001
918,6	-0,001
919,1	-0,001
919,5	-0,002
919,9	-0,002
920,3	-0,002
920,8	-0,002
921,2	-0,002
921,6	-0,002
922	-0,002
922,5	-0,002
922,9	-0,003
923,3	-0,003
923,7	-0,003
924,2	-0,003
924,6	-0,003
925	-0,003
925,4	-0,003
925,8	-0,002
926,3	-0,002
926,7	-0,002
927,1	-0,002
927,5	-0,002
928	-0,002
928,4	-0,002
928,8	-0,002
929,2	-0,002
929,7	-0,002
930,1	-0,001
930,5	-0,001
930,9	-0,001
931,3	-0,001
931,8	-0,001
932,2	-0,002
932,6	-0,001
933	-0,002
933,5	-0,002
933,9	-0,002
934,3	-0,002
934,7	-0,002
935,2	-0,002
935,6	-0,002
936	-0,001
936,4	-0,001
936,8	-0,002
937,3	-0,001
937,7	-0,001
938,1	-0,001
938,5	-0,001
939	-0,001
939,4	-0,001
939,8	-0,001
940,2	-0,001
940,6	-0,001
941,1	-0
941,5	-0
941,9	-0
942,3	-0
942,8	0
943,2	-0,001
943,6	-0,001
944	-0,002
944,4	-0,002
944,9	-0,003
945,3	-0,002
945,7	-0,002
946,1	-0,001
946,6	-0,001
947	-0,001
947,4	-0,001
947,8	-0,001
948,2	-0,001
948,7	-0,001
949,1	-0,002
949,5	-0,002
949,9	-0,002
950,3	-0,002
950,8	-0,002
951,2	-0,002
951,6	-0,002
952	-0,002
952,5	-0,002
952,9	-0,002
953,3	-0,002
953,7	-0,002
954,1	-0,002
954,6	-0,002
955	-0,002
955,4	-0,001
955,8	-0,001
956,2	-0
956,7	0
957,1	0
957,5	0
957,9	0,001
958,3	0,001
958,8	0,001
959,2	0,001
959,6	0
960	0
960,5	-0
960,9	-0
961,3	-0,001
961,7	-0,002
962,1	-0,002
962,6	-0,002
963	-0,001
963,4	-0,001
963,8	-0,001
964,2	-0,001
964,7	-0,001
965,1	-0,001
965,5	-0,001
965,9	-0,001
966,3	-0,001
966,8	-0,001
967,2	-0,001
967,6	-0,002
968	-0,002
968,4	-0,002
968,9	-0,002
969,3	-0,001
969,7	-0,002
970,1	-0,002
970,5	-0,001
971	-0,001
971,4	-0,002
971,8	-0,002
972,2	-0,002
972,6	-0,002
973,1	-0,002
973,5	-0,002
973,9	-0,002
974,3	-0,002
974,7	-0,002
975,2	-0,002
975,6	-0,002
976	-0,002
976,4	-0,002
976,8	-0,002
977,3	-0,003
977,7	-0,003
978,1	-0,002
978,5	-0,002
978,9	-0,002
979,4	-0,002
979,8	-0,002
980,2	-0,002
980,6	-0,001
981	-0,001
981,5	-0,001
981,9	-0,001
982,3	-0,001
982,7	-0
983,1	-0
983,6	-0,001
984	-0,002
984,4	-0,002
984,8	-0,002
985,2	-0,002
985,6	-0,002
986,1	-0,001
986,5	0
986,9	0,001
987,3	0,001
987,7	0,002
988,2	0,002
988,6	0,001
989	0,001
989,4	0,001
989,8	0,001
990,3	0
990,7	0,001
991,1	0,001
991,5	0,002
991,9	0,002
992,3	0,002
992,8	0,001
993,2	0,001
993,6	0
994	-0
994,4	-0,001
994,9	-0,001
995,3	-0,002
995,7	-0,002
996,1	-0,001
996,5	-0,001
996,9	-0,001
997,4	-0,001
997,8	-0,001
998,2	-0,001
998,6	-0,001
999	-0,001
999,5	-0,001
999,9	-0,001
1000,3	-0,001
1000,7	-0,001
1001,1	-0,001
1001,5	-0,001
1002	-0,001
1002,4	-0,001
1002,8	-0,002
1003,2	-0,002
1003,6	-0,002
1004	-0,002
1004,5	-0,002
1004,9	-0,001
1005,3	-0,002
1005,7	-0,002
1006,1	-0,001
1006,6	-0,001
1007	-0,001
1007,4	-0,001
1007,8	-0,001
1008,2	-0,001
1008,6	-0,001
1009,1	-0,001
1009,5	-0,001
1009,9	-0,001
1010,3	-0,001
1010,7	-0,001
1011,1	-0,001
1011,6	-0,001
1012	-0,001
1012,4	-0,002
1012,8	-0,002
1013,2	-0,002
1013,6	-0,002
1014,1	-0,002
1014,5	-0,002
1014,9	-0,001
1015,3	-0,001
1015,7	-0,001
1016,1	-0
1016,6	-0
1017	-0
1017,4	-0
1017,8	-0,001
1018,2	-0,001
1018,6	-0,001
1019,1	-0,001
1019,5	-0,001
1019,9	-0,001
1020,3	-0,001
1020,7	-0,001
1021,1	-0,001
1021,6	-0,001
1022	-0,001
1022,4	-0,001
1022,8	-0,001
1023,2	-0,002
1023,6	-0,002
1024,1	-0,001
1024,5	-0,001
1024,9	-0,001
1025,3	-0,001
1025,7	-0,002
1026,1	-0,002
1026,6	-0,001
1027	-0,002
1027,4	-0,002
1027,8	-0,003
1028,2	-0,002
1028,6	-0,002
1029	-0,002
1029,5	-0,002
1029,9	-0,001
1030,3	-0,002
1030,7	-0,001
1031,1	-0,001
1031,5	-0,001
1032	-0,001
1032,4	-0,001
1032,8	-0,002
1033,2	-0,001
1033,6	-0,001
1034	-0,001
1034,4	-0,002
1034,9	-0,002
1035,3	-0,002
1035,7	-0,001
1036,1	-0,002
1036,5	-0,002
1036,9	-0,001
1037,4	-0
1037,8	0
1038,2	0
1038,6	0,001
1039	0
1039,4	0
1039,8	-0
1040,3	-0,001
1040,7	-0,002
1041,1	-0,002
1041,5	-0,002
1041,9	-0,002
1042,3	-0,002
1042,7	-0,002
1043,2	-0,002
1043,6	-0,002
1044	-0,002
1044,4	-0,002
1044,8	-0,001
1045,2	-0,001
1045,6	-0,001
1046,1	-0,001
1046,5	-0,001
1046,9	-0
1047,3	-0,001
1047,7	-0
1048,1	0
1048,5	0
1049	0,001
1049,4	0,001
1049,8	0,001
1050,2	0,001
1050,6	0,002
1051	0,002
1051,4	0,002
1051,9	0
1052,3	-0
1052,7	-0,001
1053,1	-0,001
1053,5	-0,002
1053,9	-0,002
1054,3	-0,001
1054,8	-0,001
1055,2	-0
1055,6	-0,001
1056	-0
1056,4	0,001
1056,8	0,001
1057,2	0
1057,6	-0
1058,1	0
1058,5	-0
1058,9	0
1059,3	-0,001
1059,7	-0,001
1060,1	-0,002
1060,5	-0,002
1061	-0,002
1061,4	-0,002
1061,8	-0,003
1062,2	-0,002
1062,6	-0,001
1063	0
1063,4	-0
1063,8	-0
1064,3	0
1064,7	0,001
1065,1	0,001
1065,5	0,001
1065,9	0
1066,3	0,001
1066,7	0,001
1067,1	0,001
1067,6	0,002
1068	0,002
1068,4	0,002
1068,8	0,002
1069,2	0,001
1069,6	0,001
1070	0,001
1070,4	-0
1070,9	-0,002
1071,3	-0,002
1071,7	-0,001
1072,1	-0
1072,5	0
1072,9	0,001
1073,3	0,001
1073,7	0,001
1074,2	0,001
1074,6	-0
1075	-0
1075,4	-0,001
1075,8	-0,001
1076,2	-0,001
1076,6	0
1077	0,001
1077,5	0,001
1077,9	0
1078,3	-0,001
1078,7	-0,002
1079,1	-0,003
1079,5	-0,004
1079,9	-0,004
1080,3	-0,005
1080,7	-0,005
1081,2	-0,003
1081,6	-0,002
1082	-0,002
1082,4	-0
1082,8	-0
1083,2	0,001
1083,6	0
1084	-0,001
1084,5	-0,001
1084,9	-0,001
1085,3	-0,002
1085,7	-0,001
1086,1	-0,003
1086,5	-0,003
1086,9	-0,004
1087,3	-0,003
1087,7	-0,003
1088,2	-0,004
1088,6	-0,007
1089	-0,004
1089,4	-0,002
1089,8	-0,003
1090,2	-0,003
1090,6	-0,005
1091	-0,006
1091,4	-0,004
1091,9	-0,004
1092,3	-0,006
1092,7	-0,003
1093,1	-0,004
1093,5	-0,001
1093,9	0,003
1094,3	0,008
1094,7	0,005
1095,1	0,006
1095,5	0,003
1096	-0,002
1096,4	-0,005
1096,8	-0,004
1097,2	-0,007
1097,6	-0,007
1098	-0,004
1098,4	-0,001
1098,8	0,008
1099,2	0,011
1099,6	0,007
1100,1	0,001
1100,5	0,002
1100,9	-0,007
1101,3	-0,009
1101,7	-0,009
1102,1	-0,009
1102,5	-0,014
1102,9	-0,009
1103,3	-0,01
1103,7	0,004
1104,2	0,008
1104,6	0,004
1105	0,001
1105,4	0,016
1105,8	0,009
1106,2	0,005
1106,6	-0,005
1107	-0,005
1107,4	-0,002
1107,8	0,037
1108,3	-0
