Data from Absorbance_00011.txt Node
Date: Thu Aug 10 15:45:33 MSK 2023
User: vat
Spectrometer: MAYP114033
Trigger mode: 0
Integration Time (sec): 8,000000E-3
Scans to average: 10
Electric dark correction enabled: true
Nonlinearity correction enabled: false
Boxcar width: 3
XAxis mode: Wavelengths
Number of Pixels in Spectrum: 2068
>>>>>Begin Spectral Data<<<<<
199,4	-0
199,9	0,605
200,4	0,662
200,8	0,901
201,3	0,998
201,8	1,035
202,2	1,022
202,7	1,04
203,2	1,086
203,6	1,121
204,1	1,128
204,6	1,12
205	1,139
205,5	1,177
206	1,187
206,4	1,222
206,9	1,233
207,4	1,259
207,8	1,291
208,3	1,302
208,8	1,319
209,2	1,332
209,7	1,316
210,2	1,341
210,6	1,348
211,1	1,359
211,5	1,358
212	1,35
212,5	1,384
212,9	1,392
213,4	1,398
213,9	1,39
214,3	1,39
214,8	1,431
215,3	1,458
215,7	1,454
216,2	1,479
216,7	1,489
217,1	1,525
217,6	1,535
218,1	1,531
218,5	1,529
219	1,544
219,5	1,569
219,9	1,582
220,4	1,601
220,9	1,63
221,3	1,644
221,8	1,674
222,3	1,683
222,7	1,687
223,2	1,712
223,6	1,713
224,1	1,724
224,6	1,75
225	1,778
225,5	1,803
226	1,828
226,4	1,837
226,9	1,869
227,4	1,904
227,8	1,891
228,3	1,884
228,8	1,898
229,2	1,911
229,7	1,927
230,2	1,952
230,6	1,949
231,1	1,98
231,5	2,023
232	2,005
232,5	2,013
232,9	2,004
233,4	2,028
233,9	2,041
234,3	2,028
234,8	2,006
235,3	2,028
235,7	2,026
236,2	2,044
236,7	2,034
237,1	2,031
237,6	2,078
238,1	2,111
238,5	2,152
239	2,191
239,4	2,202
239,9	2,207
240,4	2,24
240,8	2,219
241,3	2,221
241,8	2,21
242,2	2,207
242,7	2,207
243,2	2,214
243,6	2,2
244,1	2,216
244,6	2,193
245	2,183
245,5	2,168
245,9	2,146
246,4	2,141
246,9	2,132
247,3	2,133
247,8	2,149
248,3	2,137
248,7	2,137
249,2	2,158
249,7	2,155
250,1	2,159
250,6	2,137
251	2,151
251,5	2,172
252	2,183
252,4	2,195
252,9	2,204
253,4	2,224
253,8	2,275
254,3	2,236
254,8	2,25
255,2	2,253
255,7	2,268
256,1	2,271
256,6	2,278
257,1	2,231
257,5	2,252
258	2,242
258,5	2,247
258,9	2,235
259,4	2,232
259,9	2,246
260,3	2,264
260,8	2,272
261,2	2,263
261,7	2,255
262,2	2,264
262,6	2,271
263,1	2,23
263,6	2,224
264	2,216
264,5	2,213
264,9	2,237
265,4	2,231
265,9	2,23
266,3	2,227
266,8	2,242
267,3	2,252
267,7	2,266
268,2	2,248
268,7	2,257
269,1	2,255
269,6	2,265
270	2,245
270,5	2,24
271	2,227
271,4	2,234
271,9	2,232
272,4	2,236
272,8	2,258
273,3	2,273
273,7	2,273
274,2	2,306
274,7	2,315
275,1	2,307
275,6	2,31
276,1	2,298
276,5	2,298
277	2,295
277,4	2,3
277,9	2,303
278,4	2,308
278,8	2,292
279,3	2,286
279,8	2,274
280,2	2,306
280,7	2,293
281,1	2,303
281,6	2,328
282,1	2,344
282,5	2,355
283	2,365
283,4	2,334
283,9	2,341
284,4	2,329
284,8	2,3
285,3	2,293
285,8	2,315
286,2	2,302
286,7	2,316
287,1	2,304
287,6	2,298
288,1	2,303
288,5	2,315
289	2,292
289,5	2,303
289,9	2,294
290,4	2,3
290,8	2,277
291,3	2,255
291,8	2,217
292,2	2,186
292,7	2,15
293,1	2,097
293,6	2,042
294,1	2
294,5	1,943
295	1,892
295,5	1,842
295,9	1,789
296,4	1,739
296,8	1,7
297,3	1,655
297,8	1,624
298,2	1,594
298,7	1,565
299,1	1,54
299,6	1,519
300,1	1,494
300,5	1,475
301	1,457
301,5	1,44
301,9	1,423
302,4	1,409
302,8	1,397
303,3	1,384
303,8	1,374
304,2	1,36
304,7	1,347
305,1	1,339
305,6	1,326
306,1	1,313
306,5	1,302
307	1,29
307,4	1,281
307,9	1,269
308,4	1,258
308,8	1,25
309,3	1,239
309,8	1,23
310,2	1,22
310,7	1,21
311,1	1,2
311,6	1,191
312,1	1,182
312,5	1,173
313	1,166
313,4	1,155
313,9	1,146
314,4	1,137
314,8	1,127
315,3	1,117
315,7	1,107
316,2	1,095
316,7	1,086
317,1	1,076
317,6	1,066
318	1,057
318,5	1,047
319	1,037
319,4	1,027
319,9	1,018
320,3	1,009
320,8	1
321,3	0,989
321,7	0,979
322,2	0,97
322,6	0,962
323,1	0,953
323,6	0,943
324	0,935
324,5	0,926
324,9	0,918
325,4	0,908
325,9	0,898
326,3	0,887
326,8	0,878
327,2	0,869
327,7	0,858
328,2	0,847
328,6	0,838
329,1	0,828
329,5	0,819
330	0,809
330,5	0,799
330,9	0,79
331,4	0,78
331,8	0,773
332,3	0,764
332,8	0,754
333,2	0,744
333,7	0,733
334,1	0,724
334,6	0,715
335,1	0,705
335,5	0,695
336	0,686
336,4	0,676
336,9	0,669
337,4	0,659
337,8	0,649
338,3	0,638
338,7	0,628
339,2	0,618
339,7	0,609
340,1	0,6
340,6	0,59
341	0,581
341,5	0,573
342	0,565
342,4	0,555
342,9	0,546
343,3	0,537
343,8	0,529
344,2	0,52
344,7	0,511
345,2	0,503
345,6	0,495
346,1	0,488
346,5	0,48
347	0,472
347,5	0,464
347,9	0,456
348,4	0,447
348,8	0,439
349,3	0,432
349,8	0,425
350,2	0,417
350,7	0,409
351,1	0,401
351,6	0,394
352	0,387
352,5	0,379
353	0,372
353,4	0,365
353,9	0,358
354,3	0,352
354,8	0,345
355,3	0,338
355,7	0,333
356,2	0,326
356,6	0,319
357,1	0,313
357,5	0,307
358	0,301
358,5	0,294
358,9	0,288
359,4	0,282
359,8	0,277
360,3	0,272
360,8	0,266
361,2	0,261
361,7	0,257
362,1	0,252
362,6	0,247
363	0,242
363,5	0,237
364	0,232
364,4	0,228
364,9	0,223
365,3	0,219
365,8	0,214
366,3	0,21
366,7	0,206
367,2	0,203
367,6	0,2
368,1	0,196
368,5	0,193
369	0,189
369,5	0,185
369,9	0,182
370,4	0,179
370,8	0,175
371,3	0,171
371,7	0,168
372,2	0,165
372,7	0,162
373,1	0,159
373,6	0,156
374	0,153
374,5	0,15
374,9	0,148
375,4	0,146
375,9	0,143
376,3	0,141
376,8	0,137
377,2	0,136
377,7	0,134
378,2	0,131
378,6	0,129
379,1	0,127
379,5	0,124
380	0,122
380,4	0,12
380,9	0,118
381,4	0,115
381,8	0,113
382,3	0,111
382,7	0,109
383,2	0,107
383,6	0,106
384,1	0,104
384,6	0,103
385	0,101
385,5	0,099
385,9	0,098
386,4	0,095
386,8	0,093
387,3	0,092
387,7	0,09
388,2	0,088
388,7	0,087
389,1	0,085
389,6	0,084
390	0,084
390,5	0,082
390,9	0,081
391,4	0,079
391,9	0,078
392,3	0,077
392,8	0,076
393,2	0,074
393,7	0,073
394,1	0,071
394,6	0,07
395,1	0,069
395,5	0,067
396	0,066
396,4	0,065
396,9	0,065
397,3	0,063
397,8	0,062
398,2	0,062
398,7	0,061
399,2	0,06
399,6	0,058
400,1	0,058
400,5	0,057
401	0,056
401,4	0,055
401,9	0,054
402,4	0,053
402,8	0,053
403,3	0,052
403,7	0,051
404,2	0,051
404,6	0,05
405,1	0,049
405,5	0,049
406	0,048
406,5	0,048
406,9	0,048
407,4	0,047
407,8	0,046
408,3	0,046
408,7	0,045
409,2	0,045
409,6	0,044
410,1	0,044
410,6	0,043
411	0,043
411,5	0,042
411,9	0,041
412,4	0,04
412,8	0,039
413,3	0,038
413,7	0,038
414,2	0,037
414,7	0,038
415,1	0,037
415,6	0,036
416	0,036
416,5	0,036
416,9	0,034
417,4	0,034
417,8	0,033
418,3	0,032
418,8	0,032
419,2	0,031
419,7	0,031
420,1	0,03
420,6	0,029
421	0,029
421,5	0,029
421,9	0,028
422,4	0,028
422,8	0,027
423,3	0,027
423,8	0,027
424,2	0,027
424,7	0,027
425,1	0,027
425,6	0,026
426	0,026
426,5	0,025
426,9	0,025
427,4	0,024
427,9	0,024
428,3	0,023
428,8	0,023
429,2	0,023
429,7	0,023
430,1	0,022
430,6	0,022
431	0,022
431,5	0,021
431,9	0,022
432,4	0,021
432,8	0,019
433,3	0,019
433,8	0,02
434,2	0,019
434,7	0,018
435,1	0,017
435,6	0,018
436	0,018
436,5	0,018
436,9	0,017
437,4	0,016
437,8	0,017
438,3	0,017
438,8	0,016
439,2	0,017
439,7	0,016
440,1	0,015
440,6	0,015
441	0,015
441,5	0,014
441,9	0,014
442,4	0,013
442,8	0,013
443,3	0,013
443,7	0,013
444,2	0,013
444,7	0,013
445,1	0,014
445,6	0,014
446	0,014
446,5	0,014
446,9	0,013
447,4	0,013
447,8	0,012
448,3	0,012
448,7	0,011
449,2	0,011
449,6	0,011
450,1	0,011
450,6	0,012
451	0,012
451,5	0,012
451,9	0,013
452,4	0,012
452,8	0,012
453,3	0,012
453,7	0,012
454,2	0,011
454,6	0,012
455,1	0,011
455,5	0,011
456	0,011
456,4	0,011
456,9	0,011
457,3	0,011
457,8	0,011
458,3	0,011
458,7	0,011
459,2	0,01
459,6	0,01
460,1	0,01
460,5	0,01
461	0,01
461,4	0,01
461,9	0,009
462,3	0,01
462,8	0,01
463,2	0,009
463,7	0,009
464,1	0,009
464,6	0,009
465	0,009
465,5	0,009
466	0,009
466,4	0,008
466,9	0,008
467,3	0,009
467,8	0,009
468,2	0,009
468,7	0,009
469,1	0,009
469,6	0,009
470	0,009
470,5	0,008
470,9	0,009
471,4	0,008
471,8	0,008
472,3	0,007
472,7	0,007
473,2	0,007
473,6	0,007
474,1	0,006
474,5	0,007
475	0,007
475,4	0,007
475,9	0,007
476,4	0,007
476,8	0,008
477,3	0,008
477,7	0,008
478,2	0,008
478,6	0,008
479,1	0,008
479,5	0,008
480	0,007
480,4	0,007
480,9	0,007
481,3	0,007
481,8	0,007
482,2	0,007
482,7	0,007
483,1	0,008
483,6	0,008
484	0,008
484,5	0,008
484,9	0,008
485,4	0,008
485,8	0,008
486,3	0,006
486,7	0,007
487,2	0,007
487,6	0,007
488,1	0,008
488,5	0,008
489	0,007
489,4	0,01
489,9	0,009
490,4	0,009
490,8	0,008
491,3	0,009
491,7	0,008
492,2	0,009
492,6	0,009
493,1	0,009
493,5	0,008
494	0,008
494,4	0,007
494,9	0,007
495,3	0,007
495,8	0,007
496,2	0,007
496,7	0,007
497,1	0,007
497,6	0,007
498	0,007
498,5	0,007
498,9	0,006
499,4	0,007
499,8	0,007
500,3	0,007
500,7	0,007
501,2	0,006
501,6	0,006
502,1	0,006
502,5	0,006
503	0,007
503,4	0,007
503,9	0,007
504,3	0,007
504,8	0,007
505,2	0,008
505,7	0,007
506,1	0,007
506,6	0,006
507	0,006
507,5	0,007
507,9	0,007
508,4	0,007
508,8	0,006
509,3	0,006
509,7	0,007
510,2	0,007
510,6	0,007
511,1	0,007
511,5	0,006
512	0,006
512,4	0,007
512,9	0,006
513,3	0,006
513,8	0,007
514,2	0,007
514,7	0,007
515,1	0,008
515,6	0,008
516	0,007
516,5	0,007
516,9	0,007
517,4	0,007
517,8	0,007
518,3	0,007
518,7	0,007
519,2	0,007
519,6	0,007
520,1	0,006
520,5	0,006
521	0,007
521,4	0,007
521,9	0,007
522,3	0,007
522,8	0,007
523,2	0,007
523,7	0,007
524,1	0,006
524,6	0,006
525	0,006
525,5	0,006
525,9	0,006
526,4	0,006
526,8	0,006
527,3	0,007
527,7	0,007
528,2	0,006
528,6	0,007
529,1	0,007
529,5	0,007
530	0,007
530,4	0,007
530,9	0,007
531,3	0,007
531,8	0,007
532,2	0,007
532,6	0,007
533,1	0,007
533,5	0,006
534	0,006
534,4	0,006
534,9	0,007
535,3	0,007
535,8	0,007
536,2	0,007
536,7	0,007
537,1	0,007
537,6	0,006
538	0,005
538,5	0,006
538,9	0,006
539,4	0,006
539,8	0,006
540,3	0,007
540,7	0,007
541,2	0,007
541,6	0,007
542,1	0,006
542,5	0,006
543	0,006
543,4	0,006
543,9	0,006
544,3	0,006
544,8	0,006
545,2	0,007
545,7	0,007
546,1	0,008
546,5	0,008
547	0,008
547,4	0,008
547,9	0,007
548,3	0,007
548,8	0,007
549,2	0,007
549,7	0,007
550,1	0,006
550,6	0,007
551	0,007
551,5	0,007
551,9	0,007
552,4	0,008
552,8	0,008
553,3	0,008
553,7	0,007
554,2	0,007
554,6	0,007
555,1	0,008
555,5	0,007
555,9	0,007
556,4	0,007
556,8	0,007
557,3	0,007
557,7	0,007
558,2	0,007
558,6	0,007
559,1	0,007
559,5	0,007
560	0,007
560,4	0,007
560,9	0,007
561,3	0,007
561,8	0,007
562,2	0,007
562,7	0,006
563,1	0,006
563,6	0,006
564	0,006
564,4	0,006
564,9	0,006
565,3	0,006
565,8	0,007
566,2	0,007
566,7	0,007
567,1	0,007
567,6	0,006
568	0,006
568,5	0,006
568,9	0,006
569,4	0,005
569,8	0,005
570,3	0,005
570,7	0,006
571,1	0,006
571,6	0,006
572	0,006
572,5	0,006
572,9	0,006
573,4	0,006
573,8	0,006
574,3	0,006
574,7	0,006
575,2	0,006
575,6	0,006
576,1	0,006
576,5	0,006
576,9	0,006
577,4	0,006
577,8	0,006
578,3	0,006
578,7	0,006
579,2	0,006
579,6	0,006
580,1	0,006
580,5	0,006
581	0,006
581,4	0,006
581,9	0,005
582,3	0,005
582,7	0,006
583,2	0,006
583,6	0,006
584,1	0,006
584,5	0,007
585	0,007
585,4	0,007
585,9	0,007
586,3	0,007
586,8	0,007
587,2	0,007
587,6	0,007
588,1	0,007
588,5	0,007
589	0,007
589,4	0,007
589,9	0,007
590,3	0,007
590,8	0,007
591,2	0,007
591,7	0,007
592,1	0,007
592,5	0,007
593	0,006
593,4	0,006
593,9	0,006
594,3	0,006
594,8	0,006
595,2	0,006
595,7	0,006
596,1	0,006
596,6	0,007
597	0,007
597,4	0,007
597,9	0,007
598,3	0,008
598,8	0,007
599,2	0,007
599,7	0,006
600,1	0,006
600,6	0,006
601	0,006
601,4	0,006
601,9	0,006
602,3	0,006
602,8	0,006
603,2	0,006
603,7	0,005
604,1	0,005
604,6	0,006
605	0,006
605,4	0,006
605,9	0,006
606,3	0,006
606,8	0,007
607,2	0,007
607,7	0,007
608,1	0,007
608,6	0,007
609	0,007
609,4	0,007
609,9	0,006
610,3	0,006
610,8	0,006
611,2	0,006
611,7	0,006
612,1	0,006
612,6	0,006
613	0,006
613,4	0,006
613,9	0,006
614,3	0,006
614,8	0,006
615,2	0,006
615,7	0,006
616,1	0,007
616,6	0,007
617	0,007
617,4	0,008
617,9	0,007
618,3	0,007
618,8	0,007
619,2	0,007
619,7	0,007
620,1	0,007
620,5	0,006
621	0,007
621,4	0,007
621,9	0,007
622,3	0,007
622,8	0,006
623,2	0,006
623,6	0,006
624,1	0,006
624,5	0,006
625	0,006
625,4	0,006
625,9	0,006
626,3	0,006
626,8	0,006
627,2	0,006
627,6	0,007
628,1	0,007
628,5	0,007
629	0,007
629,4	0,006
629,9	0,006
630,3	0,006
630,7	0,006
631,2	0,006
631,6	0,006
632,1	0,006
632,5	0,007
633	0,006
633,4	0,006
633,8	0,006
634,3	0,006
634,7	0,006
635,2	0,006
635,6	0,006
636,1	0,006
636,5	0,007
636,9	0,007
637,4	0,007
637,8	0,006
638,3	0,007
638,7	0,006
639,2	0,006
639,6	0,006
640	0,006
640,5	0,006
640,9	0,006
641,4	0,006
641,8	0,006
642,2	0,006
642,7	0,006
643,1	0,006
643,6	0,006
644	0,006
644,5	0,006
644,9	0,007
645,3	0,007
645,8	0,007
646,2	0,007
646,7	0,007
647,1	0,007
647,6	0,007
648	0,006
648,4	0,006
648,9	0,005
649,3	0,005
649,8	0,006
650,2	0,005
650,6	0,005
651,1	0,006
651,5	0,006
652	0,005
652,4	0,005
652,9	0,004
653,3	0,005
653,7	0,004
654,2	0,005
654,6	0,005
655,1	0,006
655,5	0,004
655,9	0,003
656,4	0,002
656,8	0,005
657,3	0,006
657,7	0,006
658,2	0,006
658,6	0,008
659	0,012
659,5	0,018
659,9	0,014
660,4	0,011
660,8	0,01
661,2	0,009
661,7	0,008
662,1	0,007
662,6	0,007
663	0,007
663,4	0,007
663,9	0,007
664,3	0,007
664,8	0,006
665,2	0,006
665,6	0,006
666,1	0,007
666,5	0,007
667	0,006
667,4	0,006
667,9	0,006
668,3	0,006
668,7	0,006
669,2	0,005
669,6	0,005
670,1	0,005
670,5	0,005
670,9	0,005
671,4	0,005
671,8	0,005
672,3	0,005
672,7	0,005
673,1	0,005
673,6	0,005
674	0,005
674,5	0,005
674,9	0,006
675,3	0,006
675,8	0,006
676,2	0,006
676,7	0,006
677,1	0,006
677,5	0,005
678	0,005
678,4	0,006
678,9	0,006
679,3	0,006
679,7	0,006
680,2	0,006
680,6	0,006
681,1	0,007
681,5	0,006
681,9	0,007
682,4	0,006
682,8	0,006
683,3	0,006
683,7	0,005
684,1	0,005
684,6	0,005
685	0,005
685,5	0,005
685,9	0,005
686,3	0,005
686,8	0,005
687,2	0,005
687,7	0,005
688,1	0,005
688,5	0,006
689	0,006
689,4	0,006
689,9	0,006
690,3	0,005
690,7	0,005
691,2	0,005
691,6	0,005
692	0,005
692,5	0,005
692,9	0,005
693,4	0,005
693,8	0,005
694,2	0,005
694,7	0,005
695,1	0,005
695,6	0,005
696	0,006
696,4	0,006
696,9	0,006
697,3	0,005
697,8	0,005
698,2	0,005
698,6	0,005
699,1	0,005
699,5	0,005
699,9	0,005
700,4	0,005
700,8	0,006
701,3	0,006
701,7	0,006
702,1	0,006
702,6	0,006
703	0,006
703,5	0,006
703,9	0,006
704,3	0,006
704,8	0,006
705,2	0,006
705,6	0,007
706,1	0,006
706,5	0,006
707	0,006
707,4	0,006
707,8	0,005
708,3	0,005
708,7	0,005
709,2	0,005
709,6	0,005
710	0,005
710,5	0,005
710,9	0,006
711,3	0,006
711,8	0,005
712,2	0,006
712,7	0,006
713,1	0,006
713,5	0,005
714	0,005
714,4	0,005
714,8	0,006
715,3	0,006
715,7	0,005
716,2	0,005
716,6	0,006
717	0,006
717,5	0,006
717,9	0,006
718,3	0,006
718,8	0,006
719,2	0,006
719,7	0,006
720,1	0,006
720,5	0,006
721	0,006
721,4	0,006
721,8	0,006
722,3	0,006
722,7	0,006
723,2	0,006
723,6	0,005
724	0,005
724,5	0,005
724,9	0,005
725,3	0,004
725,8	0,005
726,2	0,005
726,7	0,005
727,1	0,005
727,5	0,005
728	0,005
728,4	0,005
728,8	0,005
729,3	0,005
729,7	0,005
730,1	0,005
730,6	0,004
731	0,005
731,5	0,004
731,9	0,004
732,3	0,004
732,8	0,003
733,2	0,004
733,6	0,004
734,1	0,004
734,5	0,005
734,9	0,005
735,4	0,006
735,8	0,006
736,3	0,006
736,7	0,006
737,1	0,006
737,6	0,005
738	0,005
738,4	0,005
738,9	0,005
739,3	0,005
739,7	0,005
740,2	0,005
740,6	0,005
741,1	0,006
741,5	0,005
741,9	0,005
742,4	0,005
742,8	0,005
743,2	0,004
743,7	0,005
744,1	0,004
744,5	0,004
745	0,005
745,4	0,005
745,8	0,005
746,3	0,005
746,7	0,005
747,2	0,005
747,6	0,005
748	0,005
748,5	0,005
748,9	0,005
749,3	0,005
749,8	0,005
750,2	0,004
750,6	0,004
751,1	0,004
751,5	0,004
751,9	0,004
752,4	0,004
752,8	0,005
753,3	0,005
753,7	0,005
754,1	0,005
754,6	0,005
755	0,005
755,4	0,005
755,9	0,005
756,3	0,005
756,7	0,005
757,2	0,004
757,6	0,005
758	0,004
758,5	0,004
758,9	0,004
759,3	0,004
759,8	0,004
760,2	0,004
760,6	0,004
761,1	0,004
761,5	0,004
761,9	0,004
762,4	0,005
762,8	0,005
763,3	0,005
763,7	0,005
764,1	0,004
764,6	0,004
765	0,004
765,4	0,004
765,9	0,004
766,3	0,004
766,7	0,004
767,2	0,004
767,6	0,004
768	0,004
768,5	0,005
768,9	0,005
769,3	0,005
769,8	0,004
770,2	0,005
770,6	0,005
771,1	0,005
771,5	0,004
771,9	0,004
772,4	0,004
772,8	0,004
773,2	0,004
773,7	0,004
774,1	0,004
774,5	0,005
775	0,005
775,4	0,005
775,8	0,005
776,3	0,005
776,7	0,005
777,1	0,006
777,6	0,006
778	0,006
778,4	0,006
778,9	0,006
779,3	0,006
779,7	0,005
780,2	0,005
780,6	0,005
781	0,005
781,5	0,004
781,9	0,004
782,3	0,004
782,8	0,004
783,2	0,004
783,6	0,004
784,1	0,004
784,5	0,004
784,9	0,004
785,4	0,004
785,8	0,005
786,2	0,005
786,7	0,005
787,1	0,005
787,5	0,005
788	0,005
788,4	0,005
788,8	0,004
789,3	0,004
789,7	0,004
790,1	0,004
790,6	0,004
791	0,004
791,4	0,004
791,9	0,005
792,3	0,005
792,7	0,005
793,2	0,005
793,6	0,005
794	0,005
794,5	0,005
794,9	0,005
795,3	0,005
795,8	0,005
796,2	0,005
796,6	0,004
797,1	0,004
797,5	0,004
797,9	0,004
798,4	0,004
798,8	0,003
799,2	0,003
799,7	0,003
800,1	0,003
800,5	0,003
801	0,004
801,4	0,004
801,8	0,004
802,2	0,004
802,7	0,005
803,1	0,005
803,5	0,005
804	0,005
804,4	0,005
804,8	0,005
805,3	0,005
805,7	0,005
806,1	0,005
806,6	0,005
807	0,005
807,4	0,005
807,9	0,005
808,3	0,005
808,7	0,004
809,2	0,004
809,6	0,004
810	0,004
810,4	0,004
810,9	0,004
811,3	0,005
811,7	0,005
812,2	0,005
812,6	0,005
813	0,006
813,5	0,006
813,9	0,006
814,3	0,006
814,8	0,006
815,2	0,006
815,6	0,006
816,1	0,005
816,5	0,005
816,9	0,005
817,3	0,004
817,8	0,004
818,2	0,004
818,6	0,004
819,1	0,004
819,5	0,004
819,9	0,004
820,4	0,004
820,8	0,004
821,2	0,004
821,7	0,005
822,1	0,005
822,5	0,005
822,9	0,005
823,4	0,005
823,8	0,005
824,2	0,005
824,7	0,004
825,1	0,004
825,5	0,004
826	0,005
826,4	0,005
826,8	0,005
827,3	0,005
827,7	0,005
828,1	0,005
828,5	0,005
829	0,004
829,4	0,004
829,8	0,004
830,3	0,003
830,7	0,003
831,1	0,003
831,6	0,003
832	0,004
832,4	0,003
832,8	0,003
833,3	0,003
833,7	0,003
834,1	0,003
834,6	0,003
835	0,003
835,4	0,004
835,8	0,004
836,3	0,004
836,7	0,004
837,1	0,004
837,6	0,004
838	0,004
838,4	0,003
838,9	0,003
839,3	0,003
839,7	0,003
840,1	0,003
840,6	0,004
841	0,004
841,4	0,004
841,9	0,005
842,3	0,005
842,7	0,005
843,1	0,005
843,6	0,005
844	0,005
844,4	0,005
844,9	0,006
845,3	0,006
845,7	0,005
846,2	0,005
846,6	0,005
847	0,005
847,4	0,005
847,9	0,004
848,3	0,004
848,7	0,005
849,2	0,005
849,6	0,005
850	0,005
850,4	0,005
850,9	0,005
851,3	0,005
851,7	0,005
852,2	0,005
852,6	0,005
853	0,005
853,4	0,005
853,9	0,005
854,3	0,005
854,7	0,004
855,2	0,004
855,6	0,004
856	0,004
856,4	0,005
856,9	0,004
857,3	0,004
857,7	0,004
858,2	0,004
858,6	0,004
859	0,004
859,4	0,004
859,9	0,004
860,3	0,003
860,7	0,003
861,1	0,003
861,6	0,004
862	0,004
862,4	0,004
862,9	0,004
863,3	0,004
863,7	0,004
864,1	0,004
864,6	0,004
865	0,004
865,4	0,004
865,9	0,004
866,3	0,003
866,7	0,003
867,1	0,003
867,6	0,003
868	0,003
868,4	0,003
868,8	0,003
869,3	0,003
869,7	0,004
870,1	0,004
870,6	0,004
871	0,004
871,4	0,005
871,8	0,005
872,3	0,005
872,7	0,005
873,1	0,005
873,5	0,006
874	0,006
874,4	0,006
874,8	0,005
875,3	0,005
875,7	0,005
876,1	0,005
876,5	0,004
877	0,005
877,4	0,004
877,8	0,004
878,2	0,004
878,7	0,003
879,1	0,003
879,5	0,004
879,9	0,004
880,4	0,003
880,8	0,004
881,2	0,004
881,7	0,004
882,1	0,005
882,5	0,004
882,9	0,004
883,4	0,004
883,8	0,004
884,2	0,004
884,6	0,004
885,1	0,004
885,5	0,004
885,9	0,004
886,3	0,004
886,8	0,004
887,2	0,004
887,6	0,004
888	0,004
888,5	0,004
888,9	0,004
889,3	0,004
889,8	0,004
890,2	0,004
890,6	0,004
891	0,004
891,5	0,004
891,9	0,003
892,3	0,003
892,7	0,003
893,2	0,003
893,6	0,002
894	0,003
894,4	0,003
894,9	0,003
895,3	0,003
895,7	0,002
896,1	0,003
896,6	0,003
897	0,002
897,4	0,002
897,8	0,002
898,3	0,002
898,7	0,002
899,1	0,002
899,5	0,003
900	0,003
900,4	0,003
900,8	0,003
901,2	0,004
901,7	0,003
902,1	0,003
902,5	0,003
902,9	0,003
903,4	0,003
903,8	0,003
904,2	0,003
904,6	0,003
905,1	0,003
905,5	0,003
905,9	0,003
906,3	0,003
906,8	0,002
907,2	0,002
907,6	0,002
908	0,002
908,5	0,002
908,9	0,002
909,3	0,003
909,7	0,003
910,2	0,003
910,6	0,003
911	0,003
911,4	0,003
911,9	0,003
912,3	0,004
912,7	0,004
913,1	0,004
913,6	0,004
914	0,004
914,4	0,004
914,8	0,004
915,3	0,004
915,7	0,003
916,1	0,003
916,5	0,003
916,9	0,003
917,4	0,003
917,8	0,003
918,2	0,003
918,6	0,003
919,1	0,003
919,5	0,003
919,9	0,003
920,3	0,003
920,8	0,003
921,2	0,003
921,6	0,003
922	0,003
922,5	0,003
922,9	0,003
923,3	0,003
923,7	0,003
924,2	0,003
924,6	0,003
925	0,002
925,4	0,002
925,8	0,003
926,3	0,003
926,7	0,003
927,1	0,003
927,5	0,003
928	0,003
928,4	0,003
928,8	0,003
929,2	0,003
929,7	0,003
930,1	0,003
930,5	0,003
930,9	0,003
931,3	0,003
931,8	0,003
932,2	0,003
932,6	0,003
933	0,003
933,5	0,002
933,9	0,003
934,3	0,002
934,7	0,002
935,2	0,002
935,6	0,002
936	0,002
936,4	0,002
936,8	0,002
937,3	0,002
937,7	0,001
938,1	0,002
938,5	0,002
939	0,002
939,4	0,003
939,8	0,002
940,2	0,003
940,6	0,003
941,1	0,003
941,5	0,003
941,9	0,003
942,3	0,003
942,8	0,003
943,2	0,003
943,6	0,003
944	0,002
944,4	0,002
944,9	0,002
945,3	0,003
945,7	0,002
946,1	0,003
946,6	0,003
947	0,003
947,4	0,003
947,8	0,003
948,2	0,003
948,7	0,003
949,1	0,002
949,5	0,002
949,9	0,002
950,3	0,002
950,8	0,002
951,2	0,002
951,6	0,002
952	0,002
952,5	0,003
952,9	0,003
953,3	0,003
953,7	0,003
954,1	0,002
954,6	0,002
955	0,002
955,4	0,001
955,8	0,002
956,2	0,002
956,7	0,003
957,1	0,003
957,5	0,003
957,9	0,004
958,3	0,004
958,8	0,005
959,2	0,005
959,6	0,005
960	0,005
960,5	0,004
960,9	0,004
961,3	0,004
961,7	0,003
962,1	0,003
962,6	0,003
963	0,003
963,4	0,003
963,8	0,003
964,2	0,004
964,7	0,004
965,1	0,003
965,5	0,003
965,9	0,003
966,3	0,003
966,8	0,003
967,2	0,003
967,6	0,003
968	0,002
968,4	0,003
968,9	0,003
969,3	0,003
969,7	0,003
970,1	0,002
970,5	0,003
971	0,003
971,4	0,003
971,8	0,003
972,2	0,003
972,6	0,003
973,1	0,004
973,5	0,004
973,9	0,004
974,3	0,004
974,7	0,004
975,2	0,004
975,6	0,005
976	0,004
976,4	0,004
976,8	0,004
977,3	0,003
977,7	0,003
978,1	0,003
978,5	0,003
978,9	0,003
979,4	0,003
979,8	0,003
980,2	0,003
980,6	0,004
981	0,003
981,5	0,003
981,9	0,003
982,3	0,003
982,7	0,003
983,1	0,003
983,6	0,003
984	0,003
984,4	0,002
984,8	0,002
985,2	0,002
985,6	0,002
986,1	0,002
986,5	0,003
986,9	0,004
987,3	0,004
987,7	0,004
988,2	0,004
988,6	0,004
989	0,004
989,4	0,003
989,8	0,003
990,3	0,003
990,7	0,003
991,1	0,003
991,5	0,003
991,9	0,004
992,3	0,003
992,8	0,004
993,2	0,003
993,6	0,003
994	0,003
994,4	0,002
994,9	0,002
995,3	0,002
995,7	0,002
996,1	0,003
996,5	0,003
996,9	0,003
997,4	0,003
997,8	0,003
998,2	0,003
998,6	0,003
999	0,003
999,5	0,002
999,9	0,002
1000,3	0,003
1000,7	0,002
1001,1	0,002
1001,5	0,002
1002	0,002
1002,4	0,002
1002,8	0,001
1003,2	0,001
1003,6	0,001
1004	0
1004,5	0,001
1004,9	0,001
1005,3	0,001
1005,7	0,001
1006,1	0,001
1006,6	0,002
1007	0,002
1007,4	0,002
1007,8	0,002
1008,2	0,003
1008,6	0,002
1009,1	0,001
1009,5	0,002
1009,9	0,001
1010,3	0,001
1010,7	0,002
1011,1	0,002
1011,6	0,003
1012	0,003
1012,4	0,003
1012,8	0,002
1013,2	0,002
1013,6	0,002
1014,1	0,002
1014,5	0,002
1014,9	0,003
1015,3	0,002
1015,7	0,003
1016,1	0,003
1016,6	0,003
1017	0,003
1017,4	0,003
1017,8	0,002
1018,2	0,002
1018,6	0,002
1019,1	0,002
1019,5	0,002
1019,9	0,002
1020,3	0,003
1020,7	0,003
1021,1	0,004
1021,6	0,003
1022	0,003
1022,4	0,002
1022,8	0,002
1023,2	0,001
1023,6	0,001
1024,1	0,001
1024,5	0,001
1024,9	0,001
1025,3	0,001
1025,7	0,002
1026,1	0,002
1026,6	0,002
1027	0,001
1027,4	0,001
1027,8	0,001
1028,2	0,001
1028,6	0,001
1029	0,002
1029,5	0,002
1029,9	0,002
1030,3	0,001
1030,7	0,002
1031,1	0,002
1031,5	0,002
1032	0,002
1032,4	0,002
1032,8	0,002
1033,2	0,003
1033,6	0,004
1034	0,004
1034,4	0,003
1034,9	0,002
1035,3	0,002
1035,7	0,001
1036,1	0,001
1036,5	-0
1036,9	0
1037,4	0,001
1037,8	0,002
1038,2	0,002
1038,6	0,003
1039	0,003
1039,4	0,003
1039,8	0,003
1040,3	0,003
1040,7	0,003
1041,1	0,003
1041,5	0,002
1041,9	0,002
1042,3	0,002
1042,7	0,002
1043,2	0,002
1043,6	0,002
1044	0,002
1044,4	0,002
1044,8	0,001
1045,2	0,001
1045,6	0,001
1046,1	0,001
1046,5	0,001
1046,9	0,002
1047,3	0,001
1047,7	0,001
1048,1	0,002
1048,5	0,002
1049	0,001
1049,4	0,002
1049,8	0,002
1050,2	0,003
1050,6	0,004
1051	0,004
1051,4	0,004
1051,9	0,004
1052,3	0,003
1052,7	0,003
1053,1	0,001
1053,5	0
1053,9	0
1054,3	0,002
1054,8	0,001
1055,2	0,001
1055,6	0,001
1056	0,002
1056,4	0,003
1056,8	0,002
1057,2	0,002
1057,6	0,001
1058,1	0,002
1058,5	0,001
1058,9	0,002
1059,3	0,001
1059,7	0,001
1060,1	0
1060,5	0
1061	-0
1061,4	-0
1061,8	-0
1062,2	0
1062,6	0,001
1063	0,002
1063,4	0,002
1063,8	0,003
1064,3	0,004
1064,7	0,005
1065,1	0,005
1065,5	0,004
1065,9	0,004
1066,3	0,004
1066,7	0,004
1067,1	0,003
1067,6	0,003
1068	0,004
1068,4	0,005
1068,8	0,004
1069,2	0,004
1069,6	0,005
1070	0,004
1070,4	0,003
1070,9	0,002
1071,3	0,001
1071,7	0,003
1072,1	0,003
1072,5	0,004
1072,9	0,004
1073,3	0,004
1073,7	0,004
1074,2	0,004
1074,6	0,003
1075	0,003
1075,4	0,002
1075,8	0,001
1076,2	0,001
1076,6	0
1077	0,001
1077,5	0,001
1077,9	-0
1078,3	-0,001
1078,7	-0,002
1079,1	-0,001
1079,5	0,001
1079,9	-0
1080,3	0
1080,7	0
1081,2	0,002
1081,6	0,002
1082	0,003
1082,4	0,003
1082,8	0,004
1083,2	0,003
1083,6	0,002
1084	0,001
1084,5	0
1084,9	-0
1085,3	-0,001
1085,7	0
1086,1	0,001
1086,5	0,001
1086,9	-0
1087,3	0,002
1087,7	0,001
1088,2	0
1088,6	-0,001
1089	-0,001
1089,4	0,003
1089,8	0,004
1090,2	0,004
1090,6	0,003
1091	0,004
1091,4	0,003
1091,9	0,002
1092,3	-0,001
1092,7	0,001
1093,1	0,002
1093,5	0,006
1093,9	0,008
1094,3	0,012
1094,7	0,011
1095,1	0,013
1095,5	0,009
1096	0,005
1096,4	0,003
1096,8	0,003
1097,2	-0
1097,6	0,005
1098	0,004
1098,4	0,008
1098,8	0,015
1099,2	0,016
1099,6	0,02
1100,1	0,017
1100,5	0,016
1100,9	0,017
1101,3	0,023
1101,7	0,02
1102,1	0,019
1102,5	0,013
1102,9	0,021
1103,3	0,016
1103,7	0,029
1104,2	0,024
1104,6	0,022
1105	0,025
1105,4	0,033
1105,8	0,021
1106,2	0,017
1106,6	0,007
1107	-0,004
1107,4	-0,009
1107,8	-0,031
1108,3	-0
