Data from Absorbance_00014.txt Node
Date: Thu Aug 10 15:07:20 MSK 2023
User: vat
Spectrometer: MAYP114033
Trigger mode: 0
Integration Time (sec): 8,000000E-3
Scans to average: 10
Electric dark correction enabled: true
Nonlinearity correction enabled: false
Boxcar width: 3
XAxis mode: Wavelengths
Number of Pixels in Spectrum: 2068
>>>>>Begin Spectral Data<<<<<
199,4	-0
199,9	0,337
200,4	0,502
200,8	0,822
201,3	0,952
201,8	0,97
202,2	0,967
202,7	1,002
203,2	1,052
203,6	1,094
204,1	1,11
204,6	1,127
205	1,155
205,5	1,204
206	1,203
206,4	1,208
206,9	1,211
207,4	1,223
207,8	1,232
208,3	1,242
208,8	1,251
209,2	1,276
209,7	1,277
210,2	1,307
210,6	1,308
211,1	1,321
211,5	1,328
212	1,335
212,5	1,338
212,9	1,365
213,4	1,386
213,9	1,402
214,3	1,422
214,8	1,449
215,3	1,443
215,7	1,459
216,2	1,475
216,7	1,464
217,1	1,483
217,6	1,492
218,1	1,492
218,5	1,523
219	1,534
219,5	1,548
219,9	1,568
220,4	1,588
220,9	1,609
221,3	1,639
221,8	1,658
222,3	1,687
222,7	1,699
223,2	1,722
223,6	1,741
224,1	1,746
224,6	1,771
225	1,795
225,5	1,808
226	1,845
226,4	1,842
226,9	1,849
227,4	1,865
227,8	1,848
228,3	1,841
228,8	1,846
229,2	1,847
229,7	1,872
230,2	1,896
230,6	1,908
231,1	1,932
231,5	1,961
232	1,968
232,5	1,97
232,9	1,967
233,4	1,998
233,9	2,011
234,3	2,012
234,8	2,007
235,3	2,025
235,7	2,02
236,2	2,043
236,7	2,003
237,1	2,006
237,6	2,022
238,1	2,026
238,5	2,042
239	2,069
239,4	2,087
239,9	2,11
240,4	2,129
240,8	2,129
241,3	2,132
241,8	2,128
242,2	2,132
242,7	2,136
243,2	2,138
243,6	2,13
244,1	2,154
244,6	2,155
245	2,17
245,5	2,166
245,9	2,132
246,4	2,137
246,9	2,128
247,3	2,119
247,8	2,113
248,3	2,1
248,7	2,093
249,2	2,121
249,7	2,121
250,1	2,122
250,6	2,123
251	2,14
251,5	2,138
252	2,142
252,4	2,142
252,9	2,157
253,4	2,17
253,8	2,178
254,3	2,151
254,8	2,173
255,2	2,173
255,7	2,171
256,1	2,166
256,6	2,178
257,1	2,167
257,5	2,185
258	2,187
258,5	2,195
258,9	2,2
259,4	2,22
259,9	2,223
260,3	2,231
260,8	2,25
261,2	2,255
261,7	2,255
262,2	2,258
262,6	2,24
263,1	2,214
263,6	2,229
264	2,215
264,5	2,202
264,9	2,223
265,4	2,241
265,9	2,232
266,3	2,251
266,8	2,234
267,3	2,222
267,7	2,236
268,2	2,227
268,7	2,216
269,1	2,23
269,6	2,246
270	2,266
270,5	2,273
271	2,253
271,4	2,254
271,9	2,262
272,4	2,265
272,8	2,26
273,3	2,258
273,7	2,269
274,2	2,284
274,7	2,259
275,1	2,248
275,6	2,236
276,1	2,233
276,5	2,229
277	2,232
277,4	2,217
277,9	2,246
278,4	2,245
278,8	2,238
279,3	2,22
279,8	2,206
280,2	2,219
280,7	2,242
281,1	2,253
281,6	2,251
282,1	2,262
282,5	2,278
283	2,303
283,4	2,274
283,9	2,285
284,4	2,266
284,8	2,264
285,3	2,258
285,8	2,262
286,2	2,253
286,7	2,256
287,1	2,225
287,6	2,233
288,1	2,221
288,5	2,21
289	2,168
289,5	2,123
289,9	2,081
290,4	2,037
290,8	1,97
291,3	1,913
291,8	1,857
292,2	1,809
292,7	1,766
293,1	1,723
293,6	1,688
294,1	1,66
294,5	1,633
295	1,604
295,5	1,58
295,9	1,559
296,4	1,535
296,8	1,514
297,3	1,493
297,8	1,479
298,2	1,465
298,7	1,452
299,1	1,438
299,6	1,43
300,1	1,418
300,5	1,411
301	1,4
301,5	1,395
301,9	1,384
302,4	1,376
302,8	1,368
303,3	1,361
303,8	1,35
304,2	1,34
304,7	1,33
305,1	1,323
305,6	1,315
306,1	1,306
306,5	1,298
307	1,288
307,4	1,28
307,9	1,273
308,4	1,261
308,8	1,251
309,3	1,243
309,8	1,233
310,2	1,227
310,7	1,215
311,1	1,204
311,6	1,197
312,1	1,188
312,5	1,18
313	1,171
313,4	1,161
313,9	1,151
314,4	1,142
314,8	1,132
315,3	1,123
315,7	1,11
316,2	1,101
316,7	1,092
317,1	1,082
317,6	1,072
318	1,061
318,5	1,052
319	1,042
319,4	1,03
319,9	1,018
320,3	1,007
320,8	0,996
321,3	0,987
321,7	0,976
322,2	0,965
322,6	0,956
323,1	0,947
323,6	0,937
324	0,928
324,5	0,917
324,9	0,906
325,4	0,896
325,9	0,885
326,3	0,873
326,8	0,864
327,2	0,853
327,7	0,841
328,2	0,831
328,6	0,819
329,1	0,809
329,5	0,798
330	0,786
330,5	0,776
330,9	0,765
331,4	0,754
331,8	0,745
332,3	0,733
332,8	0,723
333,2	0,713
333,7	0,703
334,1	0,694
334,6	0,684
335,1	0,673
335,5	0,662
336	0,652
336,4	0,641
336,9	0,632
337,4	0,622
337,8	0,612
338,3	0,602
338,7	0,594
339,2	0,584
339,7	0,575
340,1	0,565
340,6	0,554
341	0,545
341,5	0,535
342	0,524
342,4	0,516
342,9	0,506
343,3	0,498
343,8	0,49
344,2	0,482
344,7	0,473
345,2	0,465
345,6	0,456
346,1	0,449
346,5	0,441
347	0,431
347,5	0,423
347,9	0,415
348,4	0,407
348,8	0,4
349,3	0,393
349,8	0,385
350,2	0,378
350,7	0,371
351,1	0,364
351,6	0,357
352	0,35
352,5	0,344
353	0,337
353,4	0,331
353,9	0,325
354,3	0,319
354,8	0,313
355,3	0,307
355,7	0,301
356,2	0,295
356,6	0,289
357,1	0,283
357,5	0,278
358	0,273
358,5	0,267
358,9	0,262
359,4	0,258
359,8	0,253
360,3	0,249
360,8	0,244
361,2	0,24
361,7	0,235
362,1	0,231
362,6	0,228
363	0,223
363,5	0,219
364	0,215
364,4	0,211
364,9	0,206
365,3	0,203
365,8	0,198
366,3	0,195
366,7	0,191
367,2	0,187
367,6	0,185
368,1	0,182
368,5	0,179
369	0,176
369,5	0,173
369,9	0,171
370,4	0,168
370,8	0,165
371,3	0,162
371,7	0,159
372,2	0,157
372,7	0,155
373,1	0,152
373,6	0,149
374	0,147
374,5	0,145
374,9	0,142
375,4	0,14
375,9	0,138
376,3	0,135
376,8	0,133
377,2	0,132
377,7	0,13
378,2	0,128
378,6	0,125
379,1	0,124
379,5	0,122
380	0,12
380,4	0,118
380,9	0,116
381,4	0,113
381,8	0,112
382,3	0,11
382,7	0,108
383,2	0,107
383,6	0,106
384,1	0,104
384,6	0,103
385	0,101
385,5	0,099
385,9	0,098
386,4	0,095
386,8	0,093
387,3	0,092
387,7	0,091
388,2	0,09
388,7	0,088
389,1	0,087
389,6	0,087
390	0,086
390,5	0,085
390,9	0,084
391,4	0,083
391,9	0,082
392,3	0,08
392,8	0,079
393,2	0,078
393,7	0,076
394,1	0,075
394,6	0,074
395,1	0,073
395,5	0,072
396	0,071
396,4	0,071
396,9	0,069
397,3	0,068
397,8	0,067
398,2	0,066
398,7	0,065
399,2	0,064
399,6	0,061
400,1	0,06
400,5	0,06
401	0,059
401,4	0,058
401,9	0,056
402,4	0,055
402,8	0,055
403,3	0,054
403,7	0,053
404,2	0,052
404,6	0,051
405,1	0,05
405,5	0,05
406	0,049
406,5	0,048
406,9	0,047
407,4	0,046
407,8	0,046
408,3	0,046
408,7	0,045
409,2	0,044
409,6	0,043
410,1	0,043
410,6	0,042
411	0,042
411,5	0,04
411,9	0,039
412,4	0,039
412,8	0,038
413,3	0,037
413,7	0,037
414,2	0,035
414,7	0,035
415,1	0,034
415,6	0,033
416	0,032
416,5	0,032
416,9	0,031
417,4	0,031
417,8	0,03
418,3	0,029
418,8	0,029
419,2	0,029
419,7	0,028
420,1	0,027
420,6	0,027
421	0,026
421,5	0,026
421,9	0,025
422,4	0,024
422,8	0,024
423,3	0,023
423,8	0,022
424,2	0,022
424,7	0,021
425,1	0,021
425,6	0,02
426	0,019
426,5	0,018
426,9	0,018
427,4	0,017
427,9	0,016
428,3	0,016
428,8	0,015
429,2	0,015
429,7	0,015
430,1	0,015
430,6	0,015
431	0,015
431,5	0,014
431,9	0,014
432,4	0,014
432,8	0,012
433,3	0,012
433,8	0,012
434,2	0,011
434,7	0,01
435,1	0,01
435,6	0,01
436	0,01
436,5	0,01
436,9	0,009
437,4	0,009
437,8	0,009
438,3	0,009
438,8	0,008
439,2	0,008
439,7	0,007
440,1	0,006
440,6	0,006
441	0,006
441,5	0,005
441,9	0,005
442,4	0,005
442,8	0,005
443,3	0,005
443,7	0,005
444,2	0,004
444,7	0,006
445,1	0,006
445,6	0,006
446	0,005
446,5	0,005
446,9	0,005
447,4	0,005
447,8	0,004
448,3	0,004
448,7	0,003
449,2	0,004
449,6	0,003
450,1	0,004
450,6	0,004
451	0,004
451,5	0,004
451,9	0,005
452,4	0,004
452,8	0,004
453,3	0,004
453,7	0,004
454,2	0,004
454,6	0,004
455,1	0,003
455,5	0,002
456	0,002
456,4	0,002
456,9	0,002
457,3	0,001
457,8	0,002
458,3	0,002
458,7	0,002
459,2	0,002
459,6	0,002
460,1	0,002
460,5	0,002
461	0,001
461,4	0,001
461,9	0
462,3	-0
462,8	-0
463,2	-0
463,7	-0
464,1	-0
464,6	0
465	0,001
465,5	0,001
466	0,002
466,4	0,001
466,9	0,001
467,3	0,001
467,8	0,001
468,2	0,001
468,7	0
469,1	-0
469,6	-0
470	0
470,5	0
470,9	-0
471,4	-0
471,8	-0
472,3	-0
472,7	0
473,2	-0,001
473,6	-0,001
474,1	-0,001
474,5	-0
475	-0
475,4	-0,001
475,9	-0,001
476,4	-0,001
476,8	-0,001
477,3	-0,001
477,7	-0,001
478,2	-0,001
478,6	-0,001
479,1	-0,001
479,5	-0,001
480	-0,001
480,4	-0,001
480,9	-0,001
481,3	-0
481,8	-0
482,2	0
482,7	0,001
483,1	0
483,6	0,001
484	0,001
484,5	0
484,9	0,001
485,4	0,001
485,8	0,001
486,3	-0
486,7	-0,001
487,2	-0
487,6	-0
488,1	-0
488,5	-0
489	-0,001
489,4	-0
489,9	0
490,4	0
490,8	0
491,3	0
491,7	-0
492,2	0
492,6	0,001
493,1	0
493,5	-0
494	0
494,4	0
494,9	-0
495,3	-0
495,8	-0,001
496,2	-0,001
496,7	-0,001
497,1	-0,002
497,6	-0,001
498	-0,001
498,5	-0,001
498,9	-0
499,4	-0
499,8	0
500,3	0
500,7	-0,001
501,2	-0,001
501,6	-0,001
502,1	-0,001
502,5	-0,001
503	-0,001
503,4	-0
503,9	0
504,3	0
504,8	0
505,2	0
505,7	-0
506,1	-0,001
506,6	-0,001
507	-0,001
507,5	-0,001
507,9	-0,001
508,4	-0,002
508,8	-0,002
509,3	-0,003
509,7	-0,002
510,2	-0,001
510,6	-0,002
511,1	-0,002
511,5	-0,001
512	-0,001
512,4	0
512,9	-0,001
513,3	-0,001
513,8	-0,001
514,2	-0,001
514,7	-0
515,1	-0
515,6	-0,001
516	-0,001
516,5	-0
516,9	-0
517,4	0
517,8	-0
518,3	-0,001
518,7	-0,001
519,2	-0,001
519,6	-0,001
520,1	-0,001
520,5	-0,002
521	-0,001
521,4	-0,001
521,9	-0,001
522,3	-0,001
522,8	-0,001
523,2	-0
523,7	-0
524,1	-0,001
524,6	-0
525	-0
525,5	-0
525,9	-0,001
526,4	-0
526,8	-0
527,3	-0
527,7	-0,001
528,2	-0,001
528,6	-0
529,1	0
529,5	0
530	-0,001
530,4	0
530,9	0
531,3	0,001
531,8	0
532,2	0,001
532,6	0,001
533,1	0,001
533,5	0,001
534	0,001
534,4	0
534,9	0,001
535,3	0
535,8	0
536,2	0
536,7	-0
537,1	-0
537,6	-0
538	-0,001
538,5	-0,001
538,9	-0,001
539,4	-0,001
539,8	-0,001
540,3	-0
540,7	0
541,2	-0
541,6	-0
542,1	-0,001
542,5	-0,001
543	-0,001
543,4	-0,001
543,9	-0,001
544,3	-0,001
544,8	-0,001
545,2	-0,001
545,7	-0
546,1	0,001
546,5	0,001
547	0,001
547,4	0,001
547,9	0,001
548,3	0,001
548,8	0,001
549,2	0
549,7	-0
550,1	0
550,6	0
551	0
551,5	0,001
551,9	0,001
552,4	0,001
552,8	0,001
553,3	0,001
553,7	0,001
554,2	0,001
554,6	0,001
555,1	0,001
555,5	0,001
555,9	0,001
556,4	0,001
556,8	0
557,3	-0
557,7	-0
558,2	-0
558,6	0
559,1	-0,001
559,5	-0
560	0
560,4	0
560,9	-0
561,3	0
561,8	-0
562,2	-0
562,7	-0
563,1	-0,001
563,6	-0,001
564	-0
564,4	-0,001
564,9	-0,001
565,3	-0
565,8	-0
566,2	-0
566,7	-0
567,1	-0
567,6	-0
568	0
568,5	-0
568,9	-0,001
569,4	-0
569,8	-0,001
570,3	-0,001
570,7	-0,001
571,1	-0,001
571,6	-0,001
572	-0,001
572,5	-0,001
572,9	-0
573,4	-0
573,8	0
574,3	-0
574,7	-0
575,2	-0
575,6	-0
576,1	-0
576,5	-0
576,9	-0
577,4	-0
577,8	-0
578,3	-0
578,7	-0,001
579,2	-0,001
579,6	-0,001
580,1	-0,001
580,5	-0,001
581	-0
581,4	-0,001
581,9	-0,001
582,3	-0,001
582,7	-0,001
583,2	-0,001
583,6	-0,001
584,1	-0,001
584,5	-0
585	0
585,4	0
585,9	0
586,3	0
586,8	0
587,2	0,001
587,6	0,001
588,1	0,001
588,5	0,001
589	0,001
589,4	0,001
589,9	0
590,3	0
590,8	0
591,2	-0
591,7	0
592,1	-0
592,5	-0
593	-0,001
593,4	-0,001
593,9	-0,001
594,3	-0,001
594,8	-0,001
595,2	-0,001
595,7	-0,001
596,1	-0,001
596,6	-0
597	-0
597,4	-0
597,9	-0
598,3	-0
598,8	-0
599,2	-0
599,7	-0,001
600,1	-0,001
600,6	-0,001
601	-0
601,4	-0,001
601,9	-0,001
602,3	-0
602,8	-0
603,2	-0,001
603,7	-0,001
604,1	-0,001
604,6	-0
605	0
605,4	-0
605,9	0
606,3	0
606,8	0
607,2	-0
607,7	-0
608,1	-0
608,6	-0,001
609	-0,001
609,4	-0,001
609,9	-0,001
610,3	-0,001
610,8	-0,001
611,2	-0,001
611,7	-0,001
612,1	-0,001
612,6	-0
613	-0
613,4	-0
613,9	-0
614,3	0
614,8	0
615,2	0
615,7	-0
616,1	-0
616,6	-0
617	-0
617,4	-0
617,9	-0
618,3	-0,001
618,8	-0
619,2	-0,001
619,7	-0,001
620,1	-0
620,5	-0
621	0
621,4	0
621,9	0
622,3	-0,001
622,8	-0,001
623,2	-0,001
623,6	-0,001
624,1	-0,001
624,5	-0,001
625	-0,001
625,4	-0,001
625,9	-0,001
626,3	-0,001
626,8	-0
627,2	-0
627,6	0
628,1	0,001
628,5	0
629	0,001
629,4	0,001
629,9	0,001
630,3	0,001
630,7	0,001
631,2	0,001
631,6	0,001
632,1	0
632,5	0
633	-0
633,4	-0
633,8	-0
634,3	-0,001
634,7	-0
635,2	-0,001
635,6	-0,001
636,1	-0
636,5	-0
636,9	-0
637,4	-0
637,8	-0
638,3	0,001
638,7	0,001
639,2	0,001
639,6	0,001
640	0,001
640,5	0
640,9	0
641,4	-0
641,8	-0
642,2	0
642,7	-0
643,1	-0
643,6	-0,001
644	-0,001
644,5	-0,001
644,9	-0,001
645,3	-0,001
645,8	-0,001
646,2	-0
646,7	-0
647,1	0
647,6	-0
648	-0,001
648,4	-0,001
648,9	-0,001
649,3	-0,001
649,8	-0,001
650,2	-0,001
650,6	-0,001
651,1	-0
651,5	-0,001
652	-0,001
652,4	-0,001
652,9	-0,001
653,3	-0,001
653,7	-0,001
654,2	-0,002
654,6	-0,001
655,1	-0
655,5	-0
655,9	-0
656,4	0
656,8	0,001
657,3	0,002
657,7	0,002
658,2	0,002
658,6	0,003
659	0,004
659,5	0,006
659,9	0,004
660,4	0,002
660,8	0,002
661,2	0,001
661,7	0
662,1	0
662,6	0,001
663	0,001
663,4	0
663,9	0
664,3	-0
664,8	-0
665,2	-0
665,6	-0,001
666,1	-0
666,5	-0
667	-0,001
667,4	-0,001
667,9	-0,001
668,3	-0,001
668,7	-0,001
669,2	-0,001
669,6	-0,001
670,1	-0,001
670,5	-0
670,9	-0
671,4	-0
671,8	-0,001
672,3	-0,001
672,7	-0,001
673,1	-0
673,6	-0,001
674	-0,001
674,5	-0,001
674,9	0
675,3	0
675,8	0
676,2	-0
676,7	-0
677,1	-0
677,5	-0,001
678	-0,001
678,4	-0,001
678,9	-0,001
679,3	-0,001
679,7	-0,001
680,2	-0
680,6	-0
681,1	0
681,5	-0
681,9	-0
682,4	-0
682,8	-0
683,3	-0,001
683,7	-0,001
684,1	-0,001
684,6	-0,001
685	-0,001
685,5	-0,001
685,9	-0,001
686,3	-0,001
686,8	-0
687,2	-0
687,7	-0
688,1	-0
688,5	-0
689	-0
689,4	-0
689,9	-0,001
690,3	-0,001
690,7	-0
691,2	-0
691,6	-0
692	-0
692,5	0
692,9	0
693,4	0
693,8	0,001
694,2	0,001
694,7	0,001
695,1	0,001
695,6	0,001
696	0,001
696,4	0
696,9	0
697,3	0
697,8	-0
698,2	-0
698,6	-0,001
699,1	-0,001
699,5	-0,001
699,9	-0,001
700,4	-0,001
700,8	-0,001
701,3	-0,001
701,7	-0,001
702,1	-0,001
702,6	-0,001
703	-0
703,5	-0
703,9	-0
704,3	0
704,8	0
705,2	0,001
705,6	0,001
706,1	0,001
706,5	0,001
707	0,001
707,4	-0
707,8	-0,001
708,3	-0,001
708,7	-0,001
709,2	-0,001
709,6	-0,001
710	-0,001
710,5	-0,001
710,9	-0
711,3	-0
711,8	-0
712,2	-0
712,7	-0,001
713,1	-0
713,5	-0
714	-0
714,4	-0
714,8	-0,001
715,3	-0,001
715,7	-0,001
716,2	-0,001
716,6	-0,001
717	-0,001
717,5	-0,001
717,9	-0
718,3	0
718,8	0,001
719,2	0,001
719,7	0,001
720,1	0,001
720,5	0,001
721	0
721,4	0
721,8	-0
722,3	-0
722,7	-0
723,2	-0
723,6	-0,001
724	-0,001
724,5	-0,001
724,9	-0,001
725,3	-0,001
725,8	-0,001
726,2	-0,001
726,7	-0
727,1	-0
727,5	-0
728	-0,001
728,4	-0,001
728,8	-0,001
729,3	-0,001
729,7	-0,001
730,1	-0,001
730,6	-0,002
731	-0,001
731,5	-0,001
731,9	-0,001
732,3	-0,001
732,8	-0,001
733,2	-0,001
733,6	-0
734,1	-0
734,5	-0
734,9	-0
735,4	-0
735,8	-0
736,3	-0
736,7	-0
737,1	0
737,6	0
738	0
738,4	0
738,9	0
739,3	0
739,7	0
740,2	0
740,6	-0
741,1	0
741,5	0
741,9	0
742,4	-0
742,8	-0
743,2	0
743,7	0
744,1	-0
744,5	-0
745	-0
745,4	-0
745,8	-0
746,3	-0
746,7	-0
747,2	-0
747,6	-0
748	-0
748,5	0
748,9	-0,001
749,3	-0,001
749,8	-0,001
750,2	-0,001
750,6	-0,001
751,1	-0,001
751,5	-0,001
751,9	-0,001
752,4	-0,001
752,8	-0
753,3	-0
753,7	0
754,1	0
754,6	-0
755	-0
755,4	-0
755,9	-0,001
756,3	-0,001
756,7	-0,001
757,2	-0,001
757,6	-0,001
758	-0,001
758,5	-0,001
758,9	-0,001
759,3	-0,001
759,8	-0
760,2	-0
760,6	-0
761,1	-0
761,5	-0
761,9	-0
762,4	0
762,8	0
763,3	0
763,7	0
764,1	-0
764,6	-0
765	-0,001
765,4	-0,001
765,9	-0,001
766,3	-0,001
766,7	-0,002
767,2	-0,002
767,6	-0,001
768	-0,001
768,5	-0,001
768,9	-0,001
769,3	-0,001
769,8	-0,001
770,2	-0,001
770,6	-0,001
771,1	-0,001
771,5	-0,002
771,9	-0,002
772,4	-0,002
772,8	-0,002
773,2	-0,002
773,7	-0,001
774,1	-0,001
774,5	-0,001
775	-0
775,4	-0
775,8	0
776,3	0
776,7	-0
777,1	0
777,6	0
778	-0
778,4	-0
778,9	-0
779,3	-0
779,7	-0
780,2	-0
780,6	-0
781	-0
781,5	-0
781,9	-0
782,3	-0
782,8	-0
783,2	-0
783,6	-0
784,1	-0
784,5	-0
784,9	-0
785,4	-0
785,8	-0
786,2	-0
786,7	0
787,1	0,001
787,5	0
788	0
788,4	0
788,8	-0
789,3	-0
789,7	-0,001
790,1	-0,001
790,6	-0,001
791	-0,001
791,4	-0,001
791,9	-0
792,3	0
792,7	0
793,2	0
793,6	0,001
794	0
794,5	0
794,9	-0
795,3	-0
795,8	-0
796,2	0
796,6	0
797,1	0
797,5	0
797,9	0
798,4	0
798,8	0
799,2	-0
799,7	0
800,1	0
800,5	0
801	0,001
801,4	0,001
801,8	0,001
802,2	0,001
802,7	0,001
803,1	0,001
803,5	0,001
804	0,001
804,4	0
804,8	0
805,3	-0,001
805,7	-0
806,1	-0,001
806,6	-0,001
807	-0,001
807,4	-0
807,9	-0
808,3	-0
808,7	-0
809,2	-0
809,6	-0
810	-0
810,4	-0
810,9	-0
811,3	-0
811,7	-0,001
812,2	-0
812,6	-0
813	0
813,5	0
813,9	0
814,3	0
814,8	0
815,2	0
815,6	-0
816,1	-0
816,5	-0,001
816,9	-0,001
817,3	-0,001
817,8	-0,001
818,2	-0,001
818,6	-0,001
819,1	-0,001
819,5	-0,001
819,9	-0,001
820,4	-0,001
820,8	-0,001
821,2	-0,001
821,7	-0,001
822,1	-0,001
822,5	-0,001
822,9	-0,001
823,4	-0,001
823,8	-0,001
824,2	-0,001
824,7	-0,001
825,1	-0
825,5	0
826	0,001
826,4	0,001
826,8	0,001
827,3	0,001
827,7	0,002
828,1	0,001
828,5	0,001
829	0,001
829,4	0
829,8	0
830,3	-0
830,7	-0
831,1	-0
831,6	-0,001
832	-0,001
832,4	-0,001
832,8	-0
833,3	-0
833,7	-0
834,1	-0
834,6	-0,001
835	-0,001
835,4	-0
835,8	-0,001
836,3	-0,001
836,7	-0,001
837,1	-0,001
837,6	-0
838	-0,001
838,4	-0,001
838,9	-0,001
839,3	-0,001
839,7	-0,001
840,1	-0,001
840,6	-0,001
841	-0,001
841,4	-0,001
841,9	-0,001
842,3	-0,001
842,7	-0,001
843,1	-0,001
843,6	-0,002
844	-0,002
844,4	-0,002
844,9	-0,001
845,3	-0,001
845,7	-0,001
846,2	-0
846,6	-0
847	0
847,4	0
847,9	0
848,3	0
848,7	0
849,2	0
849,6	0
850	0
850,4	0
850,9	0
851,3	0
851,7	0,001
852,2	0,001
852,6	0,001
853	0,001
853,4	0,001
853,9	0,001
854,3	0,001
854,7	0,001
855,2	0,001
855,6	0,001
856	0
856,4	0
856,9	0
857,3	0
857,7	0
858,2	-0
858,6	-0
859	-0
859,4	-0,001
859,9	-0,001
860,3	-0,001
860,7	-0,001
861,1	-0,001
861,6	-0
862	-0
862,4	-0
862,9	-0
863,3	-0
863,7	0
864,1	0
864,6	0
865	0
865,4	0
865,9	0,001
866,3	0,001
866,7	0
867,1	0
867,6	-0
868	-0
868,4	-0
868,8	-0,001
869,3	-0,001
869,7	-0,001
870,1	-0,001
870,6	-0,001
871	-0,001
871,4	-0,001
871,8	-0,001
872,3	-0,001
872,7	-0,001
873,1	-0,001
873,5	-0,001
874	-0,001
874,4	-0,001
874,8	-0,001
875,3	-0,001
875,7	-0,001
876,1	-0,001
876,5	-0,001
877	-0,001
877,4	-0,001
877,8	-0,001
878,2	-0,001
878,7	-0,001
879,1	-0,001
879,5	-0,001
879,9	-0,001
880,4	-0,001
880,8	-0
881,2	-0
881,7	-0
882,1	-0
882,5	-0,001
882,9	-0
883,4	-0
883,8	-0,001
884,2	-0,001
884,6	-0,001
885,1	-0,001
885,5	-0,001
885,9	-0,001
886,3	-0,001
886,8	-0,001
887,2	-0,001
887,6	-0,002
888	-0,001
888,5	-0,001
888,9	-0,001
889,3	-0,001
889,8	-0
890,2	-0
890,6	0
891	-0
891,5	-0
891,9	-0
892,3	-0,001
892,7	-0
893,2	-0,001
893,6	-0,001
894	-0,001
894,4	-0,001
894,9	-0,001
895,3	-0,001
895,7	-0,002
896,1	-0,001
896,6	-0,001
897	-0,001
897,4	-0,001
897,8	-0,001
898,3	-0,001
898,7	-0,001
899,1	-0,001
899,5	-0,001
900	-0
900,4	-0
900,8	-0
901,2	-0
901,7	-0
902,1	-0
902,5	-0,001
902,9	-0,001
903,4	-0,001
903,8	-0
904,2	-0,001
904,6	-0,001
905,1	-0,001
905,5	-0,001
905,9	-0,001
906,3	-0,001
906,8	-0,002
907,2	-0,002
907,6	-0,002
908	-0,002
908,5	-0,002
908,9	-0,001
909,3	-0,001
909,7	-0,001
910,2	-0,001
910,6	-0,001
911	-0,001
911,4	-0,001
911,9	-0,001
912,3	-0,001
912,7	-0,001
913,1	-0,001
913,6	-0,001
914	-0,001
914,4	-0,001
914,8	-0,001
915,3	-0,001
915,7	-0,001
916,1	-0
916,5	-0
916,9	-0
917,4	-0,001
917,8	-0,001
918,2	-0,001
918,6	-0
919,1	-0
919,5	-0
919,9	-0
920,3	-0
920,8	-0,001
921,2	-0,001
921,6	-0,001
922	-0,001
922,5	-0,001
922,9	-0,001
923,3	-0
923,7	-0
924,2	-0
924,6	-0,001
925	-0,001
925,4	-0,001
925,8	-0,001
926,3	-0,001
926,7	-0,001
927,1	-0,001
927,5	-0,001
928	-0,001
928,4	-0,001
928,8	-0,001
929,2	-0,001
929,7	-0,001
930,1	-0,001
930,5	-0,001
930,9	-0,001
931,3	-0,001
931,8	-0,001
932,2	-0,001
932,6	-0,001
933	-0,001
933,5	-0,001
933,9	-0,001
934,3	-0,001
934,7	-0,001
935,2	-0,001
935,6	-0,001
936	-0,001
936,4	-0,001
936,8	-0,001
937,3	-0
937,7	-0
938,1	0
938,5	0
939	0,001
939,4	0,001
939,8	0
940,2	0
940,6	0
941,1	0
941,5	0,001
941,9	0
942,3	0
942,8	0,001
943,2	0
943,6	-0
944	-0,001
944,4	-0,001
944,9	-0,001
945,3	-0,001
945,7	-0,001
946,1	-0,001
946,6	-0,001
947	-0,001
947,4	-0,001
947,8	-0,001
948,2	-0,002
948,7	-0,002
949,1	-0,002
949,5	-0,002
949,9	-0,001
950,3	-0,001
950,8	-0,001
951,2	-0
951,6	-0
952	0
952,5	0
952,9	-0
953,3	-0
953,7	-0,001
954,1	-0,001
954,6	-0
955	-0,001
955,4	-0
955,8	0
956,2	0,001
956,7	0,001
957,1	0,001
957,5	0,002
957,9	0,002
958,3	0,002
958,8	0,002
959,2	0,002
959,6	0,002
960	0,001
960,5	0,001
960,9	0
961,3	-0
961,7	-0,001
962,1	-0,001
962,6	-0,001
963	-0,001
963,4	-0
963,8	-0
964,2	0
964,7	0,001
965,1	0,001
965,5	0,001
965,9	0,001
966,3	0,001
966,8	0,001
967,2	0,001
967,6	0,001
968	0,001
968,4	0,002
968,9	0,001
969,3	0,001
969,7	0,001
970,1	0,001
970,5	0,001
971	0
971,4	0
971,8	-0
972,2	-0
972,6	-0,001
973,1	-0,001
973,5	-0,001
973,9	-0,001
974,3	-0,001
974,7	-0,001
975,2	-0,001
975,6	-0,001
976	-0,001
976,4	-0,001
976,8	-0,001
977,3	-0
977,7	-0,001
978,1	-0,001
978,5	-0,001
978,9	0
979,4	-0
979,8	-0
980,2	0
980,6	0
981	0
981,5	0
981,9	-0
982,3	-0
982,7	0,001
983,1	-0
983,6	-0
984	-0
984,4	-0
984,8	0
985,2	-0
985,6	0
986,1	0
986,5	0,001
986,9	0,001
987,3	0,002
987,7	0,002
988,2	0,003
988,6	0,003
989	0,003
989,4	0,003
989,8	0,003
990,3	0,002
990,7	0,003
991,1	0,003
991,5	0,003
991,9	0,003
992,3	0,002
992,8	0,002
993,2	0,002
993,6	0,001
994	0,001
994,4	0,001
994,9	-0
995,3	-0
995,7	-0
996,1	0
996,5	0
996,9	0
997,4	-0
997,8	0
998,2	-0,001
998,6	-0
999	-0,001
999,5	-0,001
999,9	-0,001
1000,3	-0,001
1000,7	-0,001
1001,1	-0,001
1001,5	-0,002
1002	-0,001
1002,4	-0,002
1002,8	-0,002
1003,2	-0,002
1003,6	-0,002
1004	-0,002
1004,5	-0,001
1004,9	-0,001
1005,3	-0,001
1005,7	-0,001
1006,1	-0,001
1006,6	-0,001
1007	-0
1007,4	-0
1007,8	-0,001
1008,2	-0
1008,6	-0,001
1009,1	-0,001
1009,5	-0,001
1009,9	-0,001
1010,3	-0,001
1010,7	-0,001
1011,1	-0
1011,6	0
1012	-0
1012,4	-0
1012,8	-0
1013,2	-0
1013,6	-0,001
1014,1	-0,001
1014,5	-0,001
1014,9	-0
1015,3	-0
1015,7	-0
1016,1	-0
1016,6	-0,001
1017	-0,001
1017,4	-0,001
1017,8	-0,001
1018,2	-0,002
1018,6	-0,002
1019,1	-0,002
1019,5	-0,002
1019,9	-0,002
1020,3	-0,002
1020,7	-0,002
1021,1	-0,002
1021,6	-0,002
1022	-0,002
1022,4	-0,002
1022,8	-0,002
1023,2	-0,002
1023,6	-0,002
1024,1	-0,002
1024,5	-0,002
1024,9	-0,002
1025,3	-0,002
1025,7	-0,002
1026,1	-0,003
1026,6	-0,003
1027	-0,003
1027,4	-0,003
1027,8	-0,004
1028,2	-0,004
1028,6	-0,003
1029	-0,002
1029,5	-0,002
1029,9	-0,002
1030,3	-0,002
1030,7	-0,001
1031,1	-0,001
1031,5	-0,001
1032	-0,001
1032,4	-0,001
1032,8	-0,001
1033,2	-0
1033,6	-0
1034	-0
1034,4	-0,001
1034,9	-0,001
1035,3	-0,002
1035,7	-0,002
1036,1	-0,002
1036,5	-0,002
1036,9	-0,002
1037,4	-0,001
1037,8	-0,001
1038,2	0
1038,6	0,001
1039	0,001
1039,4	0,001
1039,8	0
1040,3	-0,001
1040,7	-0,001
1041,1	-0,001
1041,5	-0,001
1041,9	-0,001
1042,3	-0,002
1042,7	-0,002
1043,2	-0,001
1043,6	-0,001
1044	-0,001
1044,4	-0,001
1044,8	-0
1045,2	-0
1045,6	-0
1046,1	-0
1046,5	0,001
1046,9	0,001
1047,3	0
1047,7	0
1048,1	0,001
1048,5	0
1049	-0
1049,4	-0
1049,8	0,001
1050,2	0,001
1050,6	0,001
1051	0,001
1051,4	0,001
1051,9	0,001
1052,3	0
1052,7	-0,001
1053,1	-0,001
1053,5	-0,002
1053,9	-0,001
1054,3	-0,001
1054,8	-0,001
1055,2	-0,001
1055,6	-0
1056	-0
1056,4	0
1056,8	-0
1057,2	-0,001
1057,6	-0
1058,1	-0
1058,5	-0
1058,9	0,001
1059,3	0,001
1059,7	0,001
1060,1	-0
1060,5	-0,001
1061	-0,001
1061,4	-0,001
1061,8	-0,002
1062,2	-0,002
1062,6	-0,001
1063	-0,001
1063,4	-0,001
1063,8	-0,001
1064,3	0
1064,7	0
1065,1	-0
1065,5	-0,001
1065,9	-0
1066,3	0
1066,7	0,001
1067,1	0,001
1067,6	0,001
1068	0,002
1068,4	0,002
1068,8	0,001
1069,2	0,001
1069,6	0
1070	0
1070,4	-0,001
1070,9	-0,002
1071,3	-0,001
1071,7	-0,001
1072,1	-0
1072,5	0
1072,9	0,001
1073,3	0,001
1073,7	0,002
1074,2	0,001
1074,6	0
1075	-0
1075,4	-0,001
1075,8	-0,003
1076,2	-0,003
1076,6	-0,003
1077	-0,002
1077,5	-0,003
1077,9	-0,002
1078,3	-0,003
1078,7	-0,003
1079,1	-0,003
1079,5	-0,003
1079,9	-0,004
1080,3	-0,004
1080,7	-0,005
1081,2	-0,004
1081,6	-0,005
1082	-0,004
1082,4	-0,003
1082,8	-0,002
1083,2	-0,001
1083,6	-0,002
1084	-0,002
1084,5	-0,001
1084,9	-0,003
1085,3	-0,004
1085,7	-0,004
1086,1	-0,005
1086,5	-0,004
1086,9	-0,002
1087,3	-0,002
1087,7	-0
1088,2	-0,001
1088,6	-0,003
1089	-0,002
1089,4	0
1089,8	-0,001
1090,2	0,001
1090,6	0,001
1091	0
1091,4	0,003
1091,9	0,003
1092,3	0,001
1092,7	0,002
1093,1	-0,001
1093,5	0,001
1093,9	0,007
1094,3	0,009
1094,7	0,005
1095,1	0,007
1095,5	0,006
1096	0,001
1096,4	-0,004
1096,8	-0,005
1097,2	-0,005
1097,6	-0,005
1098	-0,006
1098,4	-0
1098,8	0,005
1099,2	0,005
1099,6	0,002
1100,1	-0,002
1100,5	0,005
1100,9	-0,002
1101,3	-0,01
1101,7	-0,009
1102,1	-0,013
1102,5	-0,02
1102,9	-0,019
1103,3	-0,018
1103,7	-0,008
1104,2	-0,005
1104,6	-0,008
1105	0,004
1105,4	0,019
1105,8	0,019
1106,2	0,013
1106,6	0,019
1107	0,009
1107,4	0,035
1107,8	0,027
1108,3	-0
