Data from Absorbance_00008.txt Node
Date: Thu Aug 10 14:54:58 MSK 2023
User: vat
Spectrometer: MAYP114033
Trigger mode: 0
Integration Time (sec): 8,000000E-3
Scans to average: 10
Electric dark correction enabled: true
Nonlinearity correction enabled: false
Boxcar width: 3
XAxis mode: Wavelengths
Number of Pixels in Spectrum: 2068
>>>>>Begin Spectral Data<<<<<
199,4	-1,161
199,9	0,193
200,4	0,523
200,8	0,842
201,3	0,944
201,8	0,974
202,2	0,968
202,7	0,996
203,2	1,037
203,6	1,053
204,1	1,069
204,6	1,083
205	1,117
205,5	1,166
206	1,21
206,4	1,255
206,9	1,278
207,4	1,295
207,8	1,321
208,3	1,295
208,8	1,304
209,2	1,283
209,7	1,266
210,2	1,297
210,6	1,303
211,1	1,318
211,5	1,365
212	1,369
212,5	1,397
212,9	1,415
213,4	1,434
213,9	1,436
214,3	1,44
214,8	1,464
215,3	1,481
215,7	1,478
216,2	1,486
216,7	1,489
217,1	1,518
217,6	1,529
218,1	1,534
218,5	1,539
219	1,566
219,5	1,59
219,9	1,591
220,4	1,606
220,9	1,638
221,3	1,646
221,8	1,673
222,3	1,708
222,7	1,728
223,2	1,763
223,6	1,778
224,1	1,763
224,6	1,771
225	1,776
225,5	1,775
226	1,789
226,4	1,797
226,9	1,805
227,4	1,838
227,8	1,845
228,3	1,87
228,8	1,887
229,2	1,893
229,7	1,915
230,2	1,928
230,6	1,934
231,1	1,96
231,5	1,967
232	1,957
232,5	1,979
232,9	1,963
233,4	1,995
233,9	2,006
234,3	2,004
234,8	2,009
235,3	2,025
235,7	2,012
236,2	2,034
236,7	2,023
237,1	2,021
237,6	2,042
238,1	2,056
238,5	2,08
239	2,112
239,4	2,144
239,9	2,154
240,4	2,187
240,8	2,19
241,3	2,184
241,8	2,186
242,2	2,187
242,7	2,164
243,2	2,162
243,6	2,155
244,1	2,165
244,6	2,159
245	2,169
245,5	2,166
245,9	2,158
246,4	2,168
246,9	2,156
247,3	2,15
247,8	2,167
248,3	2,164
248,7	2,172
249,2	2,194
249,7	2,19
250,1	2,203
250,6	2,217
251	2,212
251,5	2,204
252	2,198
252,4	2,216
252,9	2,215
253,4	2,225
253,8	2,21
254,3	2,216
254,8	2,227
255,2	2,227
255,7	2,211
256,1	2,212
256,6	2,206
257,1	2,194
257,5	2,202
258	2,207
258,5	2,225
258,9	2,255
259,4	2,283
259,9	2,299
260,3	2,305
260,8	2,308
261,2	2,308
261,7	2,286
262,2	2,269
262,6	2,263
263,1	2,247
263,6	2,257
264	2,265
264,5	2,274
264,9	2,303
265,4	2,289
265,9	2,271
266,3	2,273
266,8	2,265
267,3	2,255
267,7	2,244
268,2	2,218
268,7	2,236
269,1	2,259
269,6	2,269
270	2,285
270,5	2,287
271	2,292
271,4	2,304
271,9	2,281
272,4	2,273
272,8	2,275
273,3	2,264
273,7	2,242
274,2	2,238
274,7	2,248
275,1	2,258
275,6	2,257
276,1	2,249
276,5	2,263
277	2,276
277,4	2,285
277,9	2,288
278,4	2,287
278,8	2,279
279,3	2,274
279,8	2,264
280,2	2,288
280,7	2,294
281,1	2,297
281,6	2,298
282,1	2,312
282,5	2,341
283	2,363
283,4	2,329
283,9	2,324
284,4	2,312
284,8	2,303
285,3	2,307
285,8	2,304
286,2	2,284
286,7	2,306
287,1	2,299
287,6	2,292
288,1	2,313
288,5	2,32
289	2,307
289,5	2,293
289,9	2,256
290,4	2,237
290,8	2,199
291,3	2,15
291,8	2,091
292,2	2,042
292,7	1,994
293,1	1,948
293,6	1,892
294,1	1,851
294,5	1,802
295	1,749
295,5	1,703
295,9	1,655
296,4	1,609
296,8	1,571
297,3	1,529
297,8	1,498
298,2	1,472
298,7	1,446
299,1	1,425
299,6	1,404
300,1	1,385
300,5	1,37
301	1,352
301,5	1,34
301,9	1,325
302,4	1,312
302,8	1,304
303,3	1,291
303,8	1,282
304,2	1,272
304,7	1,261
305,1	1,255
305,6	1,244
306,1	1,233
306,5	1,225
307	1,214
307,4	1,209
307,9	1,199
308,4	1,19
308,8	1,182
309,3	1,176
309,8	1,167
310,2	1,16
310,7	1,151
311,1	1,143
311,6	1,137
312,1	1,129
312,5	1,122
313	1,115
313,4	1,109
313,9	1,101
314,4	1,095
314,8	1,088
315,3	1,079
315,7	1,071
316,2	1,065
316,7	1,056
317,1	1,047
317,6	1,039
318	1,03
318,5	1,025
319	1,015
319,4	1,005
319,9	0,998
320,3	0,992
320,8	0,983
321,3	0,977
321,7	0,97
322,2	0,962
322,6	0,957
323,1	0,95
323,6	0,942
324	0,937
324,5	0,929
324,9	0,921
325,4	0,915
325,9	0,906
326,3	0,898
326,8	0,89
327,2	0,882
327,7	0,874
328,2	0,866
328,6	0,858
329,1	0,85
329,5	0,843
330	0,835
330,5	0,827
330,9	0,819
331,4	0,811
331,8	0,805
332,3	0,797
332,8	0,789
333,2	0,782
333,7	0,774
334,1	0,766
334,6	0,759
335,1	0,75
335,5	0,742
336	0,734
336,4	0,727
336,9	0,72
337,4	0,712
337,8	0,703
338,3	0,696
338,7	0,688
339,2	0,681
339,7	0,672
340,1	0,664
340,6	0,657
341	0,65
341,5	0,642
342	0,635
342,4	0,627
342,9	0,619
343,3	0,612
343,8	0,604
344,2	0,597
344,7	0,588
345,2	0,581
345,6	0,574
346,1	0,568
346,5	0,56
347	0,553
347,5	0,546
347,9	0,54
348,4	0,533
348,8	0,526
349,3	0,519
349,8	0,513
350,2	0,505
350,7	0,498
351,1	0,492
351,6	0,485
352	0,479
352,5	0,473
353	0,467
353,4	0,461
353,9	0,455
354,3	0,449
354,8	0,443
355,3	0,438
355,7	0,431
356,2	0,426
356,6	0,42
357,1	0,414
357,5	0,408
358	0,403
358,5	0,397
358,9	0,391
359,4	0,386
359,8	0,38
360,3	0,376
360,8	0,372
361,2	0,366
361,7	0,362
362,1	0,358
362,6	0,353
363	0,348
363,5	0,343
364	0,339
364,4	0,335
364,9	0,33
365,3	0,325
365,8	0,321
366,3	0,317
366,7	0,313
367,2	0,31
367,6	0,306
368,1	0,303
368,5	0,3
369	0,297
369,5	0,294
369,9	0,29
370,4	0,286
370,8	0,283
371,3	0,28
371,7	0,276
372,2	0,274
372,7	0,271
373,1	0,268
373,6	0,265
374	0,261
374,5	0,259
374,9	0,257
375,4	0,254
375,9	0,252
376,3	0,249
376,8	0,246
377,2	0,244
377,7	0,242
378,2	0,24
378,6	0,237
379,1	0,234
379,5	0,232
380	0,23
380,4	0,227
380,9	0,224
381,4	0,222
381,8	0,22
382,3	0,218
382,7	0,216
383,2	0,214
383,6	0,212
384,1	0,209
384,6	0,207
385	0,204
385,5	0,202
385,9	0,2
386,4	0,198
386,8	0,195
387,3	0,194
387,7	0,192
388,2	0,19
388,7	0,188
389,1	0,186
389,6	0,184
390	0,182
390,5	0,18
390,9	0,179
391,4	0,177
391,9	0,175
392,3	0,173
392,8	0,171
393,2	0,169
393,7	0,167
394,1	0,165
394,6	0,163
395,1	0,162
395,5	0,16
396	0,159
396,4	0,159
396,9	0,158
397,3	0,157
397,8	0,156
398,2	0,155
398,7	0,153
399,2	0,152
399,6	0,15
400,1	0,148
400,5	0,147
401	0,146
401,4	0,144
401,9	0,144
402,4	0,143
402,8	0,142
403,3	0,141
403,7	0,14
404,2	0,139
404,6	0,139
405,1	0,138
405,5	0,137
406	0,136
406,5	0,135
406,9	0,134
407,4	0,133
407,8	0,132
408,3	0,132
408,7	0,131
409,2	0,13
409,6	0,129
410,1	0,129
410,6	0,128
411	0,128
411,5	0,127
411,9	0,125
412,4	0,124
412,8	0,124
413,3	0,124
413,7	0,123
414,2	0,122
414,7	0,122
415,1	0,121
415,6	0,121
416	0,12
416,5	0,119
416,9	0,117
417,4	0,118
417,8	0,117
418,3	0,116
418,8	0,116
419,2	0,115
419,7	0,114
420,1	0,114
420,6	0,112
421	0,111
421,5	0,111
421,9	0,11
422,4	0,11
422,8	0,109
423,3	0,109
423,8	0,109
424,2	0,109
424,7	0,108
425,1	0,108
425,6	0,107
426	0,108
426,5	0,106
426,9	0,106
427,4	0,105
427,9	0,105
428,3	0,104
428,8	0,104
429,2	0,103
429,7	0,103
430,1	0,103
430,6	0,103
431	0,102
431,5	0,101
431,9	0,101
432,4	0,1
432,8	0,099
433,3	0,098
433,8	0,099
434,2	0,098
434,7	0,097
435,1	0,096
435,6	0,096
436	0,095
436,5	0,095
436,9	0,094
437,4	0,094
437,8	0,094
438,3	0,094
438,8	0,093
439,2	0,093
439,7	0,092
440,1	0,092
440,6	0,092
441	0,091
441,5	0,09
441,9	0,09
442,4	0,089
442,8	0,089
443,3	0,089
443,7	0,089
444,2	0,089
444,7	0,089
445,1	0,089
445,6	0,089
446	0,089
446,5	0,088
446,9	0,088
447,4	0,088
447,8	0,087
448,3	0,087
448,7	0,086
449,2	0,086
449,6	0,085
450,1	0,085
450,6	0,085
451	0,085
451,5	0,085
451,9	0,085
452,4	0,085
452,8	0,086
453,3	0,086
453,7	0,085
454,2	0,084
454,6	0,084
455,1	0,083
455,5	0,083
456	0,082
456,4	0,081
456,9	0,081
457,3	0,081
457,8	0,081
458,3	0,081
458,7	0,081
459,2	0,081
459,6	0,08
460,1	0,08
460,5	0,08
461	0,079
461,4	0,079
461,9	0,078
462,3	0,078
462,8	0,079
463,2	0,078
463,7	0,079
464,1	0,078
464,6	0,078
465	0,078
465,5	0,078
466	0,078
466,4	0,078
466,9	0,077
467,3	0,078
467,8	0,077
468,2	0,077
468,7	0,077
469,1	0,076
469,6	0,076
470	0,076
470,5	0,075
470,9	0,075
471,4	0,075
471,8	0,074
472,3	0,074
472,7	0,075
473,2	0,074
473,6	0,075
474,1	0,075
474,5	0,075
475	0,074
475,4	0,074
475,9	0,073
476,4	0,073
476,8	0,073
477,3	0,073
477,7	0,073
478,2	0,073
478,6	0,073
479,1	0,073
479,5	0,073
480	0,072
480,4	0,072
480,9	0,072
481,3	0,072
481,8	0,072
482,2	0,072
482,7	0,072
483,1	0,072
483,6	0,073
484	0,072
484,5	0,072
484,9	0,071
485,4	0,071
485,8	0,071
486,3	0,07
486,7	0,07
487,2	0,07
487,6	0,07
488,1	0,07
488,5	0,07
489	0,069
489,4	0,07
489,9	0,07
490,4	0,07
490,8	0,069
491,3	0,069
491,7	0,069
492,2	0,069
492,6	0,069
493,1	0,069
493,5	0,068
494	0,069
494,4	0,068
494,9	0,069
495,3	0,068
495,8	0,068
496,2	0,068
496,7	0,068
497,1	0,067
497,6	0,067
498	0,067
498,5	0,067
498,9	0,068
499,4	0,068
499,8	0,068
500,3	0,068
500,7	0,067
501,2	0,067
501,6	0,067
502,1	0,067
502,5	0,067
503	0,066
503,4	0,067
503,9	0,067
504,3	0,067
504,8	0,067
505,2	0,066
505,7	0,066
506,1	0,066
506,6	0,065
507	0,065
507,5	0,065
507,9	0,065
508,4	0,065
508,8	0,064
509,3	0,064
509,7	0,065
510,2	0,065
510,6	0,065
511,1	0,065
511,5	0,065
512	0,065
512,4	0,066
512,9	0,065
513,3	0,065
513,8	0,065
514,2	0,065
514,7	0,065
515,1	0,065
515,6	0,064
516	0,064
516,5	0,064
516,9	0,064
517,4	0,064
517,8	0,064
518,3	0,064
518,7	0,064
519,2	0,064
519,6	0,065
520,1	0,065
520,5	0,064
521	0,064
521,4	0,064
521,9	0,064
522,3	0,063
522,8	0,063
523,2	0,063
523,7	0,063
524,1	0,062
524,6	0,062
525	0,062
525,5	0,062
525,9	0,062
526,4	0,063
526,8	0,063
527,3	0,064
527,7	0,064
528,2	0,063
528,6	0,063
529,1	0,063
529,5	0,063
530	0,063
530,4	0,063
530,9	0,063
531,3	0,063
531,8	0,063
532,2	0,063
532,6	0,063
533,1	0,062
533,5	0,063
534	0,062
534,4	0,063
534,9	0,063
535,3	0,062
535,8	0,062
536,2	0,062
536,7	0,062
537,1	0,062
537,6	0,061
538	0,06
538,5	0,06
538,9	0,06
539,4	0,06
539,8	0,06
540,3	0,06
540,7	0,061
541,2	0,061
541,6	0,061
542,1	0,061
542,5	0,06
543	0,06
543,4	0,06
543,9	0,06
544,3	0,06
544,8	0,06
545,2	0,06
545,7	0,06
546,1	0,06
546,5	0,061
547	0,061
547,4	0,06
547,9	0,06
548,3	0,06
548,8	0,06
549,2	0,059
549,7	0,059
550,1	0,059
550,6	0,059
551	0,059
551,5	0,059
551,9	0,059
552,4	0,059
552,8	0,059
553,3	0,059
553,7	0,059
554,2	0,059
554,6	0,059
555,1	0,059
555,5	0,059
555,9	0,058
556,4	0,058
556,8	0,058
557,3	0,058
557,7	0,058
558,2	0,058
558,6	0,058
559,1	0,058
559,5	0,058
560	0,058
560,4	0,057
560,9	0,057
561,3	0,057
561,8	0,057
562,2	0,056
562,7	0,056
563,1	0,056
563,6	0,056
564	0,057
564,4	0,057
564,9	0,056
565,3	0,056
565,8	0,056
566,2	0,056
566,7	0,055
567,1	0,055
567,6	0,055
568	0,055
568,5	0,055
568,9	0,055
569,4	0,055
569,8	0,055
570,3	0,054
570,7	0,055
571,1	0,054
571,6	0,054
572	0,054
572,5	0,054
572,9	0,055
573,4	0,055
573,8	0,055
574,3	0,055
574,7	0,055
575,2	0,055
575,6	0,055
576,1	0,054
576,5	0,054
576,9	0,054
577,4	0,053
577,8	0,053
578,3	0,054
578,7	0,053
579,2	0,053
579,6	0,053
580,1	0,053
580,5	0,053
581	0,053
581,4	0,052
581,9	0,052
582,3	0,052
582,7	0,052
583,2	0,052
583,6	0,052
584,1	0,052
584,5	0,052
585	0,052
585,4	0,052
585,9	0,052
586,3	0,052
586,8	0,052
587,2	0,052
587,6	0,052
588,1	0,052
588,5	0,052
589	0,052
589,4	0,051
589,9	0,051
590,3	0,051
590,8	0,051
591,2	0,051
591,7	0,051
592,1	0,051
592,5	0,051
593	0,051
593,4	0,051
593,9	0,05
594,3	0,05
594,8	0,05
595,2	0,05
595,7	0,05
596,1	0,05
596,6	0,05
597	0,05
597,4	0,05
597,9	0,05
598,3	0,05
598,8	0,05
599,2	0,049
599,7	0,049
600,1	0,049
600,6	0,049
601	0,049
601,4	0,049
601,9	0,049
602,3	0,049
602,8	0,049
603,2	0,048
603,7	0,048
604,1	0,048
604,6	0,048
605	0,048
605,4	0,048
605,9	0,048
606,3	0,048
606,8	0,048
607,2	0,048
607,7	0,048
608,1	0,047
608,6	0,047
609	0,047
609,4	0,047
609,9	0,047
610,3	0,047
610,8	0,046
611,2	0,046
611,7	0,046
612,1	0,046
612,6	0,046
613	0,046
613,4	0,046
613,9	0,046
614,3	0,046
614,8	0,046
615,2	0,046
615,7	0,045
616,1	0,046
616,6	0,046
617	0,046
617,4	0,046
617,9	0,045
618,3	0,045
618,8	0,046
619,2	0,045
619,7	0,045
620,1	0,045
620,5	0,045
621	0,045
621,4	0,045
621,9	0,045
622,3	0,045
622,8	0,045
623,2	0,044
623,6	0,044
624,1	0,044
624,5	0,044
625	0,044
625,4	0,044
625,9	0,044
626,3	0,044
626,8	0,045
627,2	0,044
627,6	0,045
628,1	0,044
628,5	0,044
629	0,044
629,4	0,044
629,9	0,044
630,3	0,044
630,7	0,044
631,2	0,044
631,6	0,043
632,1	0,043
632,5	0,043
633	0,043
633,4	0,043
633,8	0,043
634,3	0,042
634,7	0,042
635,2	0,042
635,6	0,042
636,1	0,043
636,5	0,042
636,9	0,043
637,4	0,043
637,8	0,043
638,3	0,043
638,7	0,043
639,2	0,043
639,6	0,043
640	0,043
640,5	0,042
640,9	0,043
641,4	0,042
641,8	0,042
642,2	0,042
642,7	0,042
643,1	0,042
643,6	0,042
644	0,041
644,5	0,041
644,9	0,042
645,3	0,041
645,8	0,041
646,2	0,041
646,7	0,041
647,1	0,041
647,6	0,041
648	0,04
648,4	0,04
648,9	0,04
649,3	0,04
649,8	0,041
650,2	0,041
650,6	0,041
651,1	0,041
651,5	0,041
652	0,04
652,4	0,04
652,9	0,039
653,3	0,039
653,7	0,038
654,2	0,038
654,6	0,039
655,1	0,04
655,5	0,036
655,9	0,025
656,4	0,018
656,8	0,021
657,3	0,022
657,7	0,021
658,2	0,02
658,6	0,017
659	0,025
659,5	0,042
659,9	0,041
660,4	0,04
660,8	0,039
661,2	0,039
661,7	0,039
662,1	0,039
662,6	0,039
663	0,039
663,4	0,039
663,9	0,039
664,3	0,038
664,8	0,038
665,2	0,038
665,6	0,037
666,1	0,037
666,5	0,037
667	0,037
667,4	0,037
667,9	0,037
668,3	0,037
668,7	0,038
669,2	0,037
669,6	0,037
670,1	0,038
670,5	0,038
670,9	0,038
671,4	0,037
671,8	0,037
672,3	0,037
672,7	0,036
673,1	0,036
673,6	0,036
674	0,036
674,5	0,036
674,9	0,037
675,3	0,037
675,8	0,037
676,2	0,037
676,7	0,037
677,1	0,036
677,5	0,036
678	0,035
678,4	0,035
678,9	0,035
679,3	0,035
679,7	0,035
680,2	0,035
680,6	0,035
681,1	0,035
681,5	0,035
681,9	0,036
682,4	0,035
682,8	0,036
683,3	0,036
683,7	0,036
684,1	0,036
684,6	0,036
685	0,036
685,5	0,036
685,9	0,035
686,3	0,035
686,8	0,035
687,2	0,035
687,7	0,034
688,1	0,034
688,5	0,034
689	0,034
689,4	0,034
689,9	0,035
690,3	0,034
690,7	0,035
691,2	0,035
691,6	0,035
692	0,035
692,5	0,036
692,9	0,035
693,4	0,035
693,8	0,036
694,2	0,035
694,7	0,035
695,1	0,035
695,6	0,035
696	0,035
696,4	0,035
696,9	0,035
697,3	0,035
697,8	0,034
698,2	0,034
698,6	0,034
699,1	0,034
699,5	0,034
699,9	0,034
700,4	0,034
700,8	0,034
701,3	0,034
701,7	0,034
702,1	0,034
702,6	0,034
703	0,034
703,5	0,034
703,9	0,034
704,3	0,034
704,8	0,034
705,2	0,034
705,6	0,034
706,1	0,033
706,5	0,033
707	0,033
707,4	0,032
707,8	0,032
708,3	0,032
708,7	0,032
709,2	0,032
709,6	0,032
710	0,032
710,5	0,032
710,9	0,032
711,3	0,032
711,8	0,032
712,2	0,032
712,7	0,032
713,1	0,032
713,5	0,032
714	0,033
714,4	0,033
714,8	0,033
715,3	0,032
715,7	0,032
716,2	0,032
716,6	0,032
717	0,032
717,5	0,032
717,9	0,032
718,3	0,032
718,8	0,033
719,2	0,033
719,7	0,033
720,1	0,033
720,5	0,033
721	0,033
721,4	0,033
721,8	0,032
722,3	0,032
722,7	0,032
723,2	0,031
723,6	0,031
724	0,031
724,5	0,031
724,9	0,031
725,3	0,03
725,8	0,031
726,2	0,03
726,7	0,031
727,1	0,031
727,5	0,031
728	0,031
728,4	0,03
728,8	0,031
729,3	0,031
729,7	0,03
730,1	0,03
730,6	0,03
731	0,03
731,5	0,031
731,9	0,03
732,3	0,03
732,8	0,03
733,2	0,031
733,6	0,031
734,1	0,031
734,5	0,031
734,9	0,031
735,4	0,031
735,8	0,031
736,3	0,03
736,7	0,03
737,1	0,031
737,6	0,03
738	0,03
738,4	0,03
738,9	0,031
739,3	0,031
739,7	0,031
740,2	0,031
740,6	0,031
741,1	0,031
741,5	0,031
741,9	0,03
742,4	0,03
742,8	0,03
743,2	0,03
743,7	0,03
744,1	0,03
744,5	0,029
745	0,03
745,4	0,03
745,8	0,03
746,3	0,03
746,7	0,029
747,2	0,03
747,6	0,029
748	0,029
748,5	0,029
748,9	0,029
749,3	0,029
749,8	0,029
750,2	0,029
750,6	0,029
751,1	0,029
751,5	0,029
751,9	0,028
752,4	0,028
752,8	0,028
753,3	0,029
753,7	0,028
754,1	0,029
754,6	0,029
755	0,029
755,4	0,029
755,9	0,029
756,3	0,029
756,7	0,028
757,2	0,028
757,6	0,028
758	0,028
758,5	0,028
758,9	0,028
759,3	0,028
759,8	0,028
760,2	0,028
760,6	0,028
761,1	0,028
761,5	0,027
761,9	0,027
762,4	0,027
762,8	0,027
763,3	0,027
763,7	0,028
764,1	0,028
764,6	0,027
765	0,027
765,4	0,027
765,9	0,027
766,3	0,027
766,7	0,027
767,2	0,027
767,6	0,027
768	0,027
768,5	0,027
768,9	0,027
769,3	0,027
769,8	0,027
770,2	0,027
770,6	0,027
771,1	0,027
771,5	0,027
771,9	0,027
772,4	0,027
772,8	0,026
773,2	0,026
773,7	0,027
774,1	0,027
774,5	0,027
775	0,027
775,4	0,027
775,8	0,027
776,3	0,027
776,7	0,027
777,1	0,027
777,6	0,027
778	0,027
778,4	0,028
778,9	0,028
779,3	0,028
779,7	0,028
780,2	0,027
780,6	0,027
781	0,027
781,5	0,027
781,9	0,027
782,3	0,027
782,8	0,027
783,2	0,027
783,6	0,027
784,1	0,027
784,5	0,027
784,9	0,027
785,4	0,027
785,8	0,027
786,2	0,027
786,7	0,027
787,1	0,028
787,5	0,028
788	0,027
788,4	0,027
788,8	0,027
789,3	0,027
789,7	0,027
790,1	0,027
790,6	0,026
791	0,026
791,4	0,026
791,9	0,027
792,3	0,027
792,7	0,027
793,2	0,027
793,6	0,028
794	0,027
794,5	0,027
794,9	0,027
795,3	0,026
795,8	0,026
796,2	0,027
796,6	0,026
797,1	0,026
797,5	0,026
797,9	0,026
798,4	0,026
798,8	0,026
799,2	0,025
799,7	0,025
800,1	0,026
800,5	0,026
801	0,026
801,4	0,026
801,8	0,026
802,2	0,027
802,7	0,026
803,1	0,026
803,5	0,026
804	0,026
804,4	0,026
804,8	0,025
805,3	0,025
805,7	0,025
806,1	0,026
806,6	0,025
807	0,025
807,4	0,025
807,9	0,026
808,3	0,026
808,7	0,025
809,2	0,025
809,6	0,025
810	0,025
810,4	0,025
810,9	0,025
811,3	0,025
811,7	0,025
812,2	0,025
812,6	0,025
813	0,025
813,5	0,025
813,9	0,025
814,3	0,025
814,8	0,025
815,2	0,025
815,6	0,025
816,1	0,025
816,5	0,024
816,9	0,024
817,3	0,024
817,8	0,023
818,2	0,024
818,6	0,024
819,1	0,024
819,5	0,023
819,9	0,024
820,4	0,024
820,8	0,024
821,2	0,024
821,7	0,024
822,1	0,024
822,5	0,025
822,9	0,024
823,4	0,024
823,8	0,024
824,2	0,024
824,7	0,024
825,1	0,024
825,5	0,024
826	0,025
826,4	0,025
826,8	0,025
827,3	0,025
827,7	0,025
828,1	0,025
828,5	0,024
829	0,024
829,4	0,024
829,8	0,024
830,3	0,024
830,7	0,024
831,1	0,024
831,6	0,024
832	0,024
832,4	0,024
832,8	0,024
833,3	0,024
833,7	0,024
834,1	0,024
834,6	0,023
835	0,023
835,4	0,023
835,8	0,023
836,3	0,023
836,7	0,023
837,1	0,023
837,6	0,023
838	0,023
838,4	0,023
838,9	0,023
839,3	0,023
839,7	0,023
840,1	0,023
840,6	0,023
841	0,023
841,4	0,023
841,9	0,023
842,3	0,023
842,7	0,023
843,1	0,023
843,6	0,023
844	0,023
844,4	0,022
844,9	0,022
845,3	0,022
845,7	0,022
846,2	0,022
846,6	0,022
847	0,023
847,4	0,023
847,9	0,023
848,3	0,023
848,7	0,023
849,2	0,024
849,6	0,024
850	0,024
850,4	0,024
850,9	0,024
851,3	0,023
851,7	0,023
852,2	0,024
852,6	0,024
853	0,024
853,4	0,024
853,9	0,024
854,3	0,024
854,7	0,024
855,2	0,024
855,6	0,024
856	0,024
856,4	0,024
856,9	0,023
857,3	0,023
857,7	0,023
858,2	0,023
858,6	0,023
859	0,023
859,4	0,023
859,9	0,022
860,3	0,022
860,7	0,022
861,1	0,022
861,6	0,022
862	0,022
862,4	0,022
862,9	0,022
863,3	0,022
863,7	0,022
864,1	0,022
864,6	0,022
865	0,022
865,4	0,022
865,9	0,022
866,3	0,022
866,7	0,022
867,1	0,022
867,6	0,022
868	0,022
868,4	0,022
868,8	0,021
869,3	0,021
869,7	0,021
870,1	0,021
870,6	0,021
871	0,021
871,4	0,021
871,8	0,021
872,3	0,022
872,7	0,022
873,1	0,022
873,5	0,022
874	0,022
874,4	0,022
874,8	0,022
875,3	0,022
875,7	0,022
876,1	0,022
876,5	0,022
877	0,023
877,4	0,023
877,8	0,023
878,2	0,023
878,7	0,022
879,1	0,022
879,5	0,022
879,9	0,022
880,4	0,021
880,8	0,021
881,2	0,021
881,7	0,021
882,1	0,021
882,5	0,021
882,9	0,021
883,4	0,021
883,8	0,021
884,2	0,021
884,6	0,021
885,1	0,022
885,5	0,022
885,9	0,022
886,3	0,021
886,8	0,021
887,2	0,021
887,6	0,021
888	0,021
888,5	0,021
888,9	0,021
889,3	0,021
889,8	0,021
890,2	0,021
890,6	0,021
891	0,021
891,5	0,021
891,9	0,02
892,3	0,021
892,7	0,021
893,2	0,02
893,6	0,02
894	0,02
894,4	0,02
894,9	0,02
895,3	0,02
895,7	0,02
896,1	0,02
896,6	0,02
897	0,02
897,4	0,02
897,8	0,02
898,3	0,02
898,7	0,02
899,1	0,02
899,5	0,02
900	0,02
900,4	0,02
900,8	0,02
901,2	0,02
901,7	0,02
902,1	0,02
902,5	0,02
902,9	0,02
903,4	0,02
903,8	0,02
904,2	0,02
904,6	0,021
905,1	0,02
905,5	0,02
905,9	0,02
906,3	0,02
906,8	0,02
907,2	0,02
907,6	0,02
908	0,02
908,5	0,02
908,9	0,02
909,3	0,02
909,7	0,02
910,2	0,02
910,6	0,02
911	0,02
911,4	0,02
911,9	0,02
912,3	0,02
912,7	0,02
913,1	0,02
913,6	0,02
914	0,02
914,4	0,02
914,8	0,019
915,3	0,02
915,7	0,02
916,1	0,02
916,5	0,02
916,9	0,02
917,4	0,019
917,8	0,019
918,2	0,019
918,6	0,019
919,1	0,019
919,5	0,019
919,9	0,019
920,3	0,02
920,8	0,02
921,2	0,02
921,6	0,02
922	0,02
922,5	0,02
922,9	0,019
923,3	0,02
923,7	0,02
924,2	0,019
924,6	0,019
925	0,019
925,4	0,019
925,8	0,019
926,3	0,019
926,7	0,019
927,1	0,019
927,5	0,019
928	0,018
928,4	0,019
928,8	0,018
929,2	0,019
929,7	0,019
930,1	0,019
930,5	0,019
930,9	0,019
931,3	0,018
931,8	0,018
932,2	0,019
932,6	0,019
933	0,019
933,5	0,018
933,9	0,018
934,3	0,018
934,7	0,018
935,2	0,018
935,6	0,018
936	0,018
936,4	0,018
936,8	0,018
937,3	0,018
937,7	0,018
938,1	0,019
938,5	0,019
939	0,019
939,4	0,019
939,8	0,019
940,2	0,019
940,6	0,019
941,1	0,019
941,5	0,019
941,9	0,02
942,3	0,02
942,8	0,02
943,2	0,019
943,6	0,019
944	0,019
944,4	0,019
944,9	0,018
945,3	0,018
945,7	0,017
946,1	0,018
946,6	0,018
947	0,018
947,4	0,018
947,8	0,018
948,2	0,018
948,7	0,018
949,1	0,018
949,5	0,017
949,9	0,018
950,3	0,018
950,8	0,018
951,2	0,018
951,6	0,018
952	0,018
952,5	0,019
952,9	0,018
953,3	0,018
953,7	0,018
954,1	0,018
954,6	0,018
955	0,018
955,4	0,018
955,8	0,018
956,2	0,018
956,7	0,019
957,1	0,018
957,5	0,019
957,9	0,019
958,3	0,02
958,8	0,02
959,2	0,02
959,6	0,019
960	0,02
960,5	0,019
960,9	0,019
961,3	0,018
961,7	0,017
962,1	0,017
962,6	0,018
963	0,018
963,4	0,018
963,8	0,018
964,2	0,019
964,7	0,019
965,1	0,019
965,5	0,019
965,9	0,019
966,3	0,019
966,8	0,019
967,2	0,019
967,6	0,019
968	0,019
968,4	0,019
968,9	0,02
969,3	0,02
969,7	0,019
970,1	0,019
970,5	0,02
971	0,02
971,4	0,02
971,8	0,02
972,2	0,02
972,6	0,019
973,1	0,019
973,5	0,019
973,9	0,019
974,3	0,019
974,7	0,019
975,2	0,019
975,6	0,019
976	0,019
976,4	0,019
976,8	0,019
977,3	0,018
977,7	0,018
978,1	0,018
978,5	0,018
978,9	0,018
979,4	0,018
979,8	0,018
980,2	0,018
980,6	0,018
981	0,018
981,5	0,018
981,9	0,018
982,3	0,018
982,7	0,019
983,1	0,018
983,6	0,018
984	0,018
984,4	0,018
984,8	0,018
985,2	0,017
985,6	0,018
986,1	0,018
986,5	0,019
986,9	0,019
987,3	0,019
987,7	0,019
988,2	0,019
988,6	0,019
989	0,019
989,4	0,019
989,8	0,019
990,3	0,018
990,7	0,019
991,1	0,019
991,5	0,019
991,9	0,019
992,3	0,018
992,8	0,018
993,2	0,018
993,6	0,018
994	0,018
994,4	0,017
994,9	0,017
995,3	0,017
995,7	0,018
996,1	0,018
996,5	0,018
996,9	0,018
997,4	0,018
997,8	0,018
998,2	0,017
998,6	0,017
999	0,016
999,5	0,016
999,9	0,016
1000,3	0,016
1000,7	0,016
1001,1	0,016
1001,5	0,016
1002	0,016
1002,4	0,016
1002,8	0,016
1003,2	0,016
1003,6	0,015
1004	0,016
1004,5	0,016
1004,9	0,016
1005,3	0,016
1005,7	0,015
1006,1	0,015
1006,6	0,015
1007	0,016
1007,4	0,016
1007,8	0,015
1008,2	0,017
1008,6	0,016
1009,1	0,016
1009,5	0,016
1009,9	0,016
1010,3	0,016
1010,7	0,016
1011,1	0,015
1011,6	0,016
1012	0,016
1012,4	0,016
1012,8	0,016
1013,2	0,016
1013,6	0,016
1014,1	0,016
1014,5	0,016
1014,9	0,016
1015,3	0,016
1015,7	0,016
1016,1	0,016
1016,6	0,016
1017	0,016
1017,4	0,016
1017,8	0,016
1018,2	0,015
1018,6	0,016
1019,1	0,016
1019,5	0,016
1019,9	0,016
1020,3	0,016
1020,7	0,016
1021,1	0,016
1021,6	0,016
1022	0,016
1022,4	0,016
1022,8	0,016
1023,2	0,015
1023,6	0,015
1024,1	0,015
1024,5	0,015
1024,9	0,015
1025,3	0,015
1025,7	0,015
1026,1	0,015
1026,6	0,015
1027	0,014
1027,4	0,014
1027,8	0,013
1028,2	0,013
1028,6	0,013
1029	0,013
1029,5	0,014
1029,9	0,014
1030,3	0,014
1030,7	0,015
1031,1	0,015
1031,5	0,015
1032	0,015
1032,4	0,015
1032,8	0,015
1033,2	0,016
1033,6	0,016
1034	0,016
1034,4	0,015
1034,9	0,015
1035,3	0,015
1035,7	0,015
1036,1	0,015
1036,5	0,015
1036,9	0,015
1037,4	0,016
1037,8	0,016
1038,2	0,016
1038,6	0,017
1039	0,017
1039,4	0,017
1039,8	0,017
1040,3	0,017
1040,7	0,017
1041,1	0,017
1041,5	0,016
1041,9	0,017
1042,3	0,016
1042,7	0,016
1043,2	0,016
1043,6	0,016
1044	0,016
1044,4	0,016
1044,8	0,015
1045,2	0,015
1045,6	0,015
1046,1	0,015
1046,5	0,015
1046,9	0,015
1047,3	0,016
1047,7	0,016
1048,1	0,016
1048,5	0,016
1049	0,016
1049,4	0,017
1049,8	0,018
1050,2	0,018
1050,6	0,019
1051	0,019
1051,4	0,019
1051,9	0,018
1052,3	0,017
1052,7	0,016
1053,1	0,015
1053,5	0,014
1053,9	0,014
1054,3	0,015
1054,8	0,016
1055,2	0,016
1055,6	0,016
1056	0,016
1056,4	0,017
1056,8	0,016
1057,2	0,017
1057,6	0,016
1058,1	0,016
1058,5	0,017
1058,9	0,016
1059,3	0,016
1059,7	0,016
1060,1	0,015
1060,5	0,014
1061	0,014
1061,4	0,014
1061,8	0,014
1062,2	0,015
1062,6	0,016
1063	0,017
1063,4	0,017
1063,8	0,017
1064,3	0,017
1064,7	0,018
1065,1	0,017
1065,5	0,016
1065,9	0,016
1066,3	0,017
1066,7	0,017
1067,1	0,016
1067,6	0,016
1068	0,017
1068,4	0,018
1068,8	0,017
1069,2	0,016
1069,6	0,016
1070	0,017
1070,4	0,016
1070,9	0,015
1071,3	0,015
1071,7	0,016
1072,1	0,017
1072,5	0,017
1072,9	0,018
1073,3	0,018
1073,7	0,018
1074,2	0,017
1074,6	0,017
1075	0,016
1075,4	0,015
1075,8	0,015
1076,2	0,015
1076,6	0,016
1077	0,017
1077,5	0,016
1077,9	0,015
1078,3	0,014
1078,7	0,013
1079,1	0,013
1079,5	0,013
1079,9	0,012
1080,3	0,012
1080,7	0,014
1081,2	0,013
1081,6	0,014
1082	0,016
1082,4	0,016
1082,8	0,017
1083,2	0,017
1083,6	0,015
1084	0,016
1084,5	0,016
1084,9	0,014
1085,3	0,013
1085,7	0,013
1086,1	0,013
1086,5	0,013
1086,9	0,012
1087,3	0,011
1087,7	0,012
1088,2	0,012
1088,6	0,011
1089	0,011
1089,4	0,014
1089,8	0,016
1090,2	0,018
1090,6	0,016
1091	0,017
1091,4	0,02
1091,9	0,019
1092,3	0,019
1092,7	0,02
1093,1	0,02
1093,5	0,025
1093,9	0,028
1094,3	0,031
1094,7	0,032
1095,1	0,033
1095,5	0,03
1096	0,027
1096,4	0,019
1096,8	0,016
1097,2	0,012
1097,6	0,017
1098	0,018
1098,4	0,021
1098,8	0,025
1099,2	0,029
1099,6	0,034
1100,1	0,027
1100,5	0,023
1100,9	0,017
1101,3	0,018
1101,7	0,02
1102,1	0,014
1102,5	0,01
1102,9	0,016
1103,3	0,02
1103,7	0,035
1104,2	0,035
1104,6	0,031
1105	0,041
1105,4	0,044
1105,8	0,046
1106,2	0,043
1106,6	0,025
1107	0,024
1107,4	0,035
1107,8	0,017
1108,3	0,204
