Data from Absorbance_00015.txt Node
Date: Thu Aug 10 15:08:50 MSK 2023
User: vat
Spectrometer: MAYP114033
Trigger mode: 0
Integration Time (sec): 8,000000E-3
Scans to average: 10
Electric dark correction enabled: true
Nonlinearity correction enabled: false
Boxcar width: 3
XAxis mode: Wavelengths
Number of Pixels in Spectrum: 2068
>>>>>Begin Spectral Data<<<<<
199,4	-0
199,9	0,21
200,4	0,465
200,8	0,79
201,3	0,914
201,8	0,948
202,2	0,93
202,7	0,958
203,2	0,995
203,6	1,024
204,1	1,043
204,6	1,045
205	1,086
205,5	1,129
206	1,156
206,4	1,196
206,9	1,207
207,4	1,22
207,8	1,24
208,3	1,242
208,8	1,254
209,2	1,254
209,7	1,239
210,2	1,248
210,6	1,255
211,1	1,27
211,5	1,269
212	1,283
212,5	1,299
212,9	1,31
213,4	1,343
213,9	1,342
214,3	1,349
214,8	1,39
215,3	1,389
215,7	1,385
216,2	1,405
216,7	1,413
217,1	1,438
217,6	1,455
218,1	1,445
218,5	1,467
219	1,497
219,5	1,52
219,9	1,526
220,4	1,544
220,9	1,568
221,3	1,588
221,8	1,618
222,3	1,645
222,7	1,66
223,2	1,687
223,6	1,695
224,1	1,692
224,6	1,726
225	1,734
225,5	1,746
226	1,781
226,4	1,794
226,9	1,81
227,4	1,836
227,8	1,826
228,3	1,836
228,8	1,834
229,2	1,835
229,7	1,847
230,2	1,871
230,6	1,891
231,1	1,899
231,5	1,906
232	1,909
232,5	1,919
232,9	1,912
233,4	1,932
233,9	1,941
234,3	1,945
234,8	1,959
235,3	1,985
235,7	1,986
236,2	2
236,7	1,986
237,1	1,981
237,6	1,994
238,1	2,013
238,5	2,013
239	2,014
239,4	2,042
239,9	2,055
240,4	2,086
240,8	2,098
241,3	2,072
241,8	2,089
242,2	2,098
242,7	2,081
243,2	2,08
243,6	2,072
244,1	2,081
244,6	2,094
245	2,093
245,5	2,094
245,9	2,083
246,4	2,1
246,9	2,083
247,3	2,093
247,8	2,108
248,3	2,094
248,7	2,085
249,2	2,124
249,7	2,118
250,1	2,137
250,6	2,13
251	2,131
251,5	2,139
252	2,163
252,4	2,158
252,9	2,154
253,4	2,151
253,8	2,173
254,3	2,156
254,8	2,163
255,2	2,157
255,7	2,155
256,1	2,146
256,6	2,149
257,1	2,134
257,5	2,135
258	2,141
258,5	2,149
258,9	2,172
259,4	2,204
259,9	2,228
260,3	2,224
260,8	2,254
261,2	2,277
261,7	2,256
262,2	2,231
262,6	2,218
263,1	2,181
263,6	2,185
264	2,173
264,5	2,149
264,9	2,17
265,4	2,169
265,9	2,167
266,3	2,184
266,8	2,177
267,3	2,17
267,7	2,179
268,2	2,162
268,7	2,16
269,1	2,159
269,6	2,155
270	2,16
270,5	2,163
271	2,154
271,4	2,168
271,9	2,184
272,4	2,189
272,8	2,196
273,3	2,203
273,7	2,203
274,2	2,231
274,7	2,222
275,1	2,209
275,6	2,22
276,1	2,215
276,5	2,212
277	2,228
277,4	2,2
277,9	2,22
278,4	2,227
278,8	2,208
279,3	2,216
279,8	2,208
280,2	2,213
280,7	2,226
281,1	2,226
281,6	2,217
282,1	2,242
282,5	2,224
283	2,24
283,4	2,214
283,9	2,202
284,4	2,205
284,8	2,202
285,3	2,212
285,8	2,238
286,2	2,221
286,7	2,238
287,1	2,25
287,6	2,239
288,1	2,238
288,5	2,209
289	2,189
289,5	2,178
289,9	2,151
290,4	2,12
290,8	2,064
291,3	2,028
291,8	1,978
292,2	1,929
292,7	1,876
293,1	1,828
293,6	1,781
294,1	1,746
294,5	1,703
295	1,662
295,5	1,624
295,9	1,59
296,4	1,556
296,8	1,527
297,3	1,498
297,8	1,475
298,2	1,455
298,7	1,438
299,1	1,423
299,6	1,411
300,1	1,394
300,5	1,385
301	1,373
301,5	1,364
301,9	1,352
302,4	1,342
302,8	1,334
303,3	1,327
303,8	1,317
304,2	1,307
304,7	1,298
305,1	1,289
305,6	1,28
306,1	1,269
306,5	1,258
307	1,247
307,4	1,239
307,9	1,229
308,4	1,221
308,8	1,213
309,3	1,206
309,8	1,198
310,2	1,189
310,7	1,182
311,1	1,172
311,6	1,164
312,1	1,154
312,5	1,146
313	1,138
313,4	1,129
313,9	1,12
314,4	1,109
314,8	1,098
315,3	1,086
315,7	1,076
316,2	1,065
316,7	1,055
317,1	1,043
317,6	1,034
318	1,026
318,5	1,018
319	1,007
319,4	0,997
319,9	0,987
320,3	0,978
320,8	0,968
321,3	0,958
321,7	0,949
322,2	0,939
322,6	0,929
323,1	0,92
323,6	0,909
324	0,901
324,5	0,89
324,9	0,88
325,4	0,871
325,9	0,862
326,3	0,852
326,8	0,842
327,2	0,831
327,7	0,821
328,2	0,812
328,6	0,8
329,1	0,79
329,5	0,78
330	0,77
330,5	0,761
330,9	0,752
331,4	0,741
331,8	0,731
332,3	0,722
332,8	0,712
333,2	0,702
333,7	0,691
334,1	0,681
334,6	0,672
335,1	0,663
335,5	0,653
336	0,642
336,4	0,632
336,9	0,622
337,4	0,612
337,8	0,602
338,3	0,592
338,7	0,584
339,2	0,574
339,7	0,565
340,1	0,557
340,6	0,548
341	0,539
341,5	0,53
342	0,52
342,4	0,512
342,9	0,503
343,3	0,494
343,8	0,486
344,2	0,477
344,7	0,47
345,2	0,462
345,6	0,454
346,1	0,446
346,5	0,438
347	0,431
347,5	0,423
347,9	0,414
348,4	0,407
348,8	0,4
349,3	0,392
349,8	0,386
350,2	0,378
350,7	0,371
351,1	0,364
351,6	0,356
352	0,35
352,5	0,342
353	0,335
353,4	0,329
353,9	0,323
354,3	0,317
354,8	0,311
355,3	0,306
355,7	0,3
356,2	0,295
356,6	0,289
357,1	0,283
357,5	0,278
358	0,273
358,5	0,267
358,9	0,261
359,4	0,256
359,8	0,252
360,3	0,248
360,8	0,243
361,2	0,238
361,7	0,234
362,1	0,23
362,6	0,225
363	0,22
363,5	0,216
364	0,212
364,4	0,209
364,9	0,204
365,3	0,201
365,8	0,197
366,3	0,194
366,7	0,189
367,2	0,186
367,6	0,182
368,1	0,179
368,5	0,176
369	0,173
369,5	0,17
369,9	0,168
370,4	0,164
370,8	0,161
371,3	0,159
371,7	0,155
372,2	0,152
372,7	0,15
373,1	0,148
373,6	0,146
374	0,142
374,5	0,14
374,9	0,138
375,4	0,135
375,9	0,133
376,3	0,13
376,8	0,128
377,2	0,126
377,7	0,124
378,2	0,122
378,6	0,12
379,1	0,117
379,5	0,115
380	0,114
380,4	0,112
380,9	0,11
381,4	0,108
381,8	0,106
382,3	0,104
382,7	0,102
383,2	0,1
383,6	0,099
384,1	0,097
384,6	0,096
385	0,095
385,5	0,093
385,9	0,091
386,4	0,09
386,8	0,088
387,3	0,087
387,7	0,086
388,2	0,084
388,7	0,083
389,1	0,082
389,6	0,081
390	0,081
390,5	0,079
390,9	0,078
391,4	0,076
391,9	0,075
392,3	0,074
392,8	0,073
393,2	0,071
393,7	0,069
394,1	0,067
394,6	0,066
395,1	0,065
395,5	0,064
396	0,064
396,4	0,063
396,9	0,062
397,3	0,061
397,8	0,06
398,2	0,059
398,7	0,058
399,2	0,057
399,6	0,055
400,1	0,054
400,5	0,054
401	0,052
401,4	0,051
401,9	0,05
402,4	0,049
402,8	0,048
403,3	0,047
403,7	0,046
404,2	0,046
404,6	0,046
405,1	0,045
405,5	0,045
406	0,044
406,5	0,044
406,9	0,043
407,4	0,041
407,8	0,041
408,3	0,04
408,7	0,04
409,2	0,039
409,6	0,039
410,1	0,039
410,6	0,038
411	0,037
411,5	0,036
411,9	0,035
412,4	0,035
412,8	0,034
413,3	0,033
413,7	0,033
414,2	0,033
414,7	0,032
415,1	0,031
415,6	0,031
416	0,03
416,5	0,029
416,9	0,028
417,4	0,028
417,8	0,028
418,3	0,027
418,8	0,027
419,2	0,026
419,7	0,026
420,1	0,024
420,6	0,024
421	0,023
421,5	0,023
421,9	0,022
422,4	0,022
422,8	0,021
423,3	0,021
423,8	0,02
424,2	0,019
424,7	0,018
425,1	0,018
425,6	0,018
426	0,017
426,5	0,016
426,9	0,016
427,4	0,016
427,9	0,016
428,3	0,015
428,8	0,015
429,2	0,015
429,7	0,016
430,1	0,015
430,6	0,015
431	0,014
431,5	0,014
431,9	0,014
432,4	0,013
432,8	0,012
433,3	0,012
433,8	0,012
434,2	0,011
434,7	0,01
435,1	0,01
435,6	0,009
436	0,009
436,5	0,009
436,9	0,008
437,4	0,007
437,8	0,008
438,3	0,008
438,8	0,008
439,2	0,008
439,7	0,008
440,1	0,007
440,6	0,007
441	0,007
441,5	0,006
441,9	0,005
442,4	0,005
442,8	0,005
443,3	0,005
443,7	0,005
444,2	0,005
444,7	0,005
445,1	0,006
445,6	0,006
446	0,005
446,5	0,005
446,9	0,005
447,4	0,004
447,8	0,004
448,3	0,003
448,7	0,003
449,2	0,003
449,6	0,003
450,1	0,003
450,6	0,003
451	0,003
451,5	0,003
451,9	0,004
452,4	0,004
452,8	0,004
453,3	0,004
453,7	0,003
454,2	0,002
454,6	0,002
455,1	0,001
455,5	0
456	0
456,4	-0
456,9	0
457,3	0
457,8	0,001
458,3	0,001
458,7	0,001
459,2	0,001
459,6	0,002
460,1	0,002
460,5	0,001
461	0,001
461,4	0,001
461,9	0,001
462,3	0,001
462,8	0
463,2	-0
463,7	0
464,1	0
464,6	-0
465	0
465,5	0
466	0
466,4	-0
466,9	0
467,3	0,001
467,8	0,001
468,2	0
468,7	0
469,1	-0
469,6	-0
470	0
470,5	-0,001
470,9	-0
471,4	-0
471,8	-0,001
472,3	-0
472,7	0
473,2	-0,001
473,6	-0,001
474,1	-0,001
474,5	-0,001
475	-0,001
475,4	-0,001
475,9	-0,002
476,4	-0,001
476,8	-0,001
477,3	-0,001
477,7	-0,001
478,2	-0,001
478,6	-0,001
479,1	-0
479,5	-0,001
480	-0,001
480,4	-0
480,9	-0,001
481,3	-0,001
481,8	-0,001
482,2	-0,001
482,7	-0,001
483,1	-0,001
483,6	-0,001
484	-0
484,5	-0
484,9	-0
485,4	-0
485,8	-0
486,3	-0,001
486,7	-0,001
487,2	-0,001
487,6	-0,001
488,1	-0,001
488,5	-0,001
489	-0,001
489,4	0
489,9	0
490,4	-0
490,8	-0
491,3	-0
491,7	-0,001
492,2	-0
492,6	-0
493,1	-0
493,5	-0
494	-0
494,4	-0
494,9	-0
495,3	-0,001
495,8	-0,001
496,2	-0,002
496,7	-0,002
497,1	-0,002
497,6	-0,002
498	-0,002
498,5	-0,002
498,9	-0,001
499,4	-0,001
499,8	-0,001
500,3	-0
500,7	-0,001
501,2	-0,001
501,6	-0,001
502,1	-0,001
502,5	-0,001
503	-0,001
503,4	-0,001
503,9	-0,001
504,3	-0
504,8	-0,001
505,2	-0
505,7	-0,001
506,1	-0,001
506,6	-0,001
507	-0,002
507,5	-0,002
507,9	-0,001
508,4	-0,001
508,8	-0,002
509,3	-0,002
509,7	-0,001
510,2	-0,001
510,6	-0,001
511,1	-0,001
511,5	-0,002
512	-0,001
512,4	-0,001
512,9	-0,002
513,3	-0,002
513,8	-0,001
514,2	-0,002
514,7	-0,001
515,1	-0,001
515,6	-0,001
516	-0,001
516,5	-0,001
516,9	-0,001
517,4	-0,001
517,8	-0,001
518,3	-0,001
518,7	-0,001
519,2	-0,001
519,6	-0,001
520,1	-0,001
520,5	-0,002
521	-0,001
521,4	-0
521,9	-0,001
522,3	-0,001
522,8	-0
523,2	-0,001
523,7	-0,001
524,1	-0,001
524,6	-0,001
525	-0,001
525,5	-0,001
525,9	-0,001
526,4	-0,001
526,8	-0,001
527,3	-0
527,7	-0
528,2	-0,001
528,6	-0
529,1	-0
529,5	-0
530	-0,001
530,4	-0
530,9	-0
531,3	0
531,8	-0
532,2	-0
532,6	0
533,1	0
533,5	-0
534	0
534,4	0,001
534,9	0,001
535,3	0,001
535,8	0,001
536,2	0,001
536,7	0,001
537,1	0,001
537,6	-0
538	0
538,5	-0
538,9	-0,001
539,4	-0,001
539,8	-0,001
540,3	-0,001
540,7	-0
541,2	-0
541,6	-0
542,1	-0,001
542,5	-0,001
543	-0,001
543,4	-0,001
543,9	-0,001
544,3	-0,001
544,8	-0,001
545,2	-0,001
545,7	-0
546,1	0,001
546,5	0,001
547	0,001
547,4	0,001
547,9	0,001
548,3	0
548,8	0
549,2	-0
549,7	-0
550,1	-0
550,6	0
551	0
551,5	0
551,9	0
552,4	0
552,8	0
553,3	0
553,7	-0
554,2	-0
554,6	-0
555,1	-0
555,5	-0
555,9	-0,001
556,4	-0
556,8	-0
557,3	-0,001
557,7	-0,001
558,2	-0,001
558,6	-0
559,1	-0
559,5	-0
560	0
560,4	0
560,9	-0
561,3	-0,001
561,8	-0,001
562,2	-0,001
562,7	-0,001
563,1	-0,001
563,6	-0,001
564	-0
564,4	0
564,9	-0
565,3	-0
565,8	0
566,2	-0
566,7	0
567,1	-0
567,6	-0
568	-0
568,5	-0
568,9	-0
569,4	-0
569,8	-0,001
570,3	-0,001
570,7	-0,001
571,1	-0,001
571,6	-0,001
572	-0,001
572,5	-0,001
572,9	0
573,4	0
573,8	-0
574,3	-0
574,7	-0
575,2	-0
575,6	0
576,1	0
576,5	0
576,9	0
577,4	-0
577,8	-0
578,3	-0
578,7	-0,001
579,2	-0,001
579,6	-0,001
580,1	-0,001
580,5	-0,001
581	-0,001
581,4	-0,001
581,9	-0,001
582,3	-0,001
582,7	-0,001
583,2	-0,001
583,6	-0,001
584,1	-0,001
584,5	-0,001
585	-0
585,4	-0
585,9	-0
586,3	-0
586,8	0
587,2	0
587,6	0
588,1	0
588,5	0
589	0
589,4	0
589,9	0
590,3	0
590,8	0
591,2	0
591,7	0
592,1	0
592,5	0
593	-0
593,4	-0,001
593,9	-0
594,3	-0,001
594,8	-0,001
595,2	-0,001
595,7	-0,001
596,1	-0,001
596,6	-0
597	0
597,4	-0
597,9	0
598,3	0,001
598,8	0
599,2	0
599,7	-0
600,1	-0,001
600,6	-0,001
601	-0,001
601,4	-0,001
601,9	-0,001
602,3	-0
602,8	-0
603,2	-0
603,7	-0
604,1	-0,001
604,6	-0
605	-0
605,4	-0
605,9	-0
606,3	-0
606,8	0
607,2	-0
607,7	-0
608,1	-0,001
608,6	-0,001
609	-0,001
609,4	-0
609,9	-0,001
610,3	-0
610,8	-0,001
611,2	-0,001
611,7	-0
612,1	-0
612,6	-0
613	-0
613,4	-0
613,9	-0,001
614,3	-0
614,8	-0
615,2	-0
615,7	-0,001
616,1	-0,001
616,6	-0
617	-0
617,4	-0
617,9	-0
618,3	-0,001
618,8	-0
619,2	-0
619,7	-0
620,1	-0
620,5	-0
621	0
621,4	0
621,9	0
622,3	-0
622,8	-0,001
623,2	-0,001
623,6	-0,001
624,1	-0,001
624,5	-0,001
625	-0,001
625,4	-0,001
625,9	-0
626,3	0
626,8	0
627,2	-0
627,6	0
628,1	0
628,5	-0
629	0
629,4	0
629,9	-0
630,3	-0
630,7	0
631,2	0,001
631,6	0,001
632,1	0
632,5	0
633	-0
633,4	-0
633,8	-0
634,3	-0,001
634,7	-0,001
635,2	-0,001
635,6	-0,001
636,1	-0,001
636,5	-0,001
636,9	-0,001
637,4	-0
637,8	-0
638,3	0,001
638,7	0,001
639,2	0,001
639,6	0,001
640	0,001
640,5	0,001
640,9	0,001
641,4	-0
641,8	-0
642,2	-0,001
642,7	-0,001
643,1	-0,001
643,6	-0,001
644	-0,001
644,5	-0,001
644,9	-0,001
645,3	-0,001
645,8	-0
646,2	-0
646,7	-0
647,1	-0
647,6	0
648	-0
648,4	-0,001
648,9	-0,001
649,3	-0
649,8	-0
650,2	-0
650,6	-0
651,1	-0
651,5	0
652	-0
652,4	-0
652,9	-0,001
653,3	-0,001
653,7	-0,001
654,2	-0,001
654,6	-0
655,1	0,001
655,5	0,001
655,9	0,001
656,4	0
656,8	0,002
657,3	0,002
657,7	0,002
658,2	0,002
658,6	0,003
659	0,004
659,5	0,006
659,9	0,004
660,4	0,003
660,8	0,002
661,2	0,001
661,7	0,001
662,1	0,001
662,6	0,001
663	0,001
663,4	0,001
663,9	0
664,3	0
664,8	-0
665,2	-0,001
665,6	-0,001
666,1	-0,001
666,5	-0,001
667	-0,001
667,4	-0,001
667,9	-0,001
668,3	-0,001
668,7	-0
669,2	-0,001
669,6	-0,001
670,1	-0
670,5	-0
670,9	-0
671,4	0
671,8	-0
672,3	0
672,7	0
673,1	0
673,6	-0
674	-0
674,5	0
674,9	0
675,3	0
675,8	0
676,2	-0
676,7	-0
677,1	-0,001
677,5	-0,001
678	-0,001
678,4	-0,001
678,9	-0,001
679,3	-0,001
679,7	-0,001
680,2	-0,001
680,6	-0,001
681,1	-0,001
681,5	-0,001
681,9	-0,001
682,4	-0,001
682,8	-0
683,3	-0
683,7	-0
684,1	-0,001
684,6	-0,001
685	-0,001
685,5	-0,001
685,9	-0,001
686,3	-0,001
686,8	-0,001
687,2	-0,001
687,7	-0,001
688,1	-0,001
688,5	-0
689	-0
689,4	-0
689,9	-0
690,3	-0
690,7	0
691,2	0
691,6	-0
692	-0
692,5	0
692,9	0
693,4	0
693,8	0
694,2	0
694,7	0,001
695,1	0
695,6	0
696	0
696,4	0
696,9	0
697,3	-0
697,8	-0
698,2	-0
698,6	-0
699,1	-0
699,5	-0
699,9	-0
700,4	-0
700,8	-0
701,3	-0
701,7	-0
702,1	-0
702,6	-0
703	0
703,5	-0
703,9	-0
704,3	0
704,8	0
705,2	0
705,6	0
706,1	0
706,5	0
707	-0
707,4	-0,001
707,8	-0,001
708,3	-0,001
708,7	-0,001
709,2	-0,001
709,6	-0,001
710	-0,001
710,5	-0
710,9	-0
711,3	-0
711,8	-0
712,2	0
712,7	-0
713,1	-0
713,5	-0
714	-0
714,4	0
714,8	0
715,3	-0
715,7	-0
716,2	-0,001
716,6	-0,001
717	-0,001
717,5	-0,001
717,9	-0,001
718,3	-0
718,8	-0
719,2	0
719,7	0,001
720,1	0,001
720,5	0
721	0
721,4	0
721,8	-0
722,3	-0
722,7	-0
723,2	-0
723,6	-0,001
724	-0,001
724,5	-0,001
724,9	-0,001
725,3	-0,001
725,8	-0,001
726,2	-0,001
726,7	-0,001
727,1	-0,001
727,5	-0,001
728	-0,001
728,4	-0,001
728,8	-0,001
729,3	-0,001
729,7	-0,001
730,1	-0,001
730,6	-0,001
731	-0,001
731,5	-0,001
731,9	-0,001
732,3	-0,001
732,8	-0,001
733,2	-0
733,6	0
734,1	-0
734,5	-0
734,9	0
735,4	0
735,8	0
736,3	-0
736,7	0
737,1	0
737,6	0
738	0
738,4	0
738,9	0
739,3	0
739,7	0
740,2	0
740,6	0
741,1	0
741,5	0
741,9	-0
742,4	0
742,8	-0
743,2	-0
743,7	-0
744,1	-0
744,5	-0,001
745	-0
745,4	-0
745,8	0
746,3	-0
746,7	-0
747,2	0
747,6	-0
748	-0,001
748,5	-0,001
748,9	-0,001
749,3	-0,001
749,8	-0,001
750,2	-0,001
750,6	-0,001
751,1	-0,001
751,5	-0,001
751,9	-0,001
752,4	-0,001
752,8	-0,001
753,3	-0,001
753,7	-0,001
754,1	-0
754,6	-0
755	-0,001
755,4	-0,001
755,9	-0,001
756,3	-0,001
756,7	-0,001
757,2	-0,001
757,6	-0,001
758	-0,001
758,5	-0,001
758,9	-0,001
759,3	-0,001
759,8	-0,001
760,2	-0,001
760,6	-0,001
761,1	-0,001
761,5	-0,001
761,9	-0,001
762,4	-0,001
762,8	-0,001
763,3	-0,001
763,7	-0
764,1	-0,001
764,6	-0,001
765	-0,001
765,4	-0,001
765,9	-0,002
766,3	-0,002
766,7	-0,002
767,2	-0,002
767,6	-0,002
768	-0,002
768,5	-0,002
768,9	-0,002
769,3	-0,002
769,8	-0,002
770,2	-0,002
770,6	-0,002
771,1	-0,002
771,5	-0,002
771,9	-0,002
772,4	-0,002
772,8	-0,002
773,2	-0,002
773,7	-0,002
774,1	-0,001
774,5	-0,001
775	-0,001
775,4	-0,001
775,8	-0,001
776,3	-0,001
776,7	-0
777,1	-0
777,6	-0
778	-0,001
778,4	-0
778,9	-0
779,3	-0,001
779,7	-0,001
780,2	-0,001
780,6	-0,001
781	-0,001
781,5	-0,001
781,9	-0,001
782,3	-0,001
782,8	-0,001
783,2	-0,001
783,6	-0,001
784,1	-0,001
784,5	-0,001
784,9	-0
785,4	-0
785,8	-0
786,2	0
786,7	0
787,1	0
787,5	0
788	-0
788,4	-0
788,8	-0,001
789,3	-0,001
789,7	-0,001
790,1	-0,001
790,6	-0,001
791	-0,001
791,4	-0,001
791,9	-0
792,3	0
792,7	-0
793,2	-0
793,6	0
794	0
794,5	-0
794,9	-0
795,3	-0
795,8	-0
796,2	0
796,6	0
797,1	0
797,5	0
797,9	0
798,4	-0
798,8	-0
799,2	-0,001
799,7	-0,001
800,1	-0
800,5	-0
801	-0
801,4	-0
801,8	-0
802,2	-0
802,7	0
803,1	-0
803,5	-0
804	-0
804,4	-0
804,8	-0
805,3	-0,001
805,7	-0,001
806,1	-0,001
806,6	-0,001
807	-0,001
807,4	-0,001
807,9	-0,001
808,3	-0,001
808,7	-0,001
809,2	-0,001
809,6	-0,001
810	-0,001
810,4	-0,001
810,9	-0,001
811,3	-0,001
811,7	-0,001
812,2	-0
812,6	-0
813	0
813,5	0
813,9	0,001
814,3	0
814,8	0
815,2	0
815,6	-0
816,1	-0,001
816,5	-0,001
816,9	-0,002
817,3	-0,002
817,8	-0,002
818,2	-0,002
818,6	-0,002
819,1	-0,002
819,5	-0,002
819,9	-0,002
820,4	-0,001
820,8	-0,001
821,2	-0,001
821,7	-0,001
822,1	-0,001
822,5	-0,001
822,9	-0,001
823,4	-0,001
823,8	-0,001
824,2	-0,001
824,7	-0,001
825,1	-0
825,5	-0
826	0
826,4	0
826,8	0,001
827,3	0,001
827,7	0,001
828,1	0,001
828,5	0,001
829	0,001
829,4	0
829,8	-0
830,3	-0
830,7	-0,001
831,1	-0,001
831,6	-0,001
832	-0,001
832,4	-0,001
832,8	-0,001
833,3	-0,001
833,7	-0,001
834,1	-0,001
834,6	-0,001
835	-0,001
835,4	-0,001
835,8	-0,001
836,3	-0,001
836,7	-0,001
837,1	-0,001
837,6	-0,001
838	-0,001
838,4	-0,001
838,9	-0,001
839,3	-0,001
839,7	-0,001
840,1	-0,001
840,6	-0,002
841	-0,002
841,4	-0,001
841,9	-0,001
842,3	-0,001
842,7	-0,001
843,1	-0,001
843,6	-0,001
844	-0,001
844,4	-0,001
844,9	-0,001
845,3	-0,001
845,7	-0,001
846,2	-0,001
846,6	-0,001
847	-0,001
847,4	-0,001
847,9	-0,001
848,3	-0
848,7	-0
849,2	-0
849,6	-0
850	-0
850,4	-0
850,9	0
851,3	0
851,7	0
852,2	0
852,6	0
853	0
853,4	0
853,9	0
854,3	0
854,7	0
855,2	0
855,6	0
856	0
856,4	0
856,9	-0
857,3	-0
857,7	-0
858,2	-0,001
858,6	-0,001
859	-0,001
859,4	-0,001
859,9	-0,001
860,3	-0,001
860,7	-0,001
861,1	-0,001
861,6	-0
862	-0
862,4	-0
862,9	-0
863,3	-0
863,7	0
864,1	0
864,6	0
865	0
865,4	0
865,9	0
866,3	0
866,7	0
867,1	-0
867,6	-0
868	-0,001
868,4	-0,001
868,8	-0,001
869,3	-0,001
869,7	-0,001
870,1	-0,001
870,6	-0,001
871	-0,001
871,4	-0,001
871,8	-0,001
872,3	-0,001
872,7	-0,001
873,1	-0,001
873,5	-0,001
874	-0,001
874,4	-0,001
874,8	-0,001
875,3	-0,001
875,7	-0,001
876,1	-0,001
876,5	-0,002
877	-0,001
877,4	-0,001
877,8	-0,001
878,2	-0,001
878,7	-0,001
879,1	-0,001
879,5	-0,001
879,9	-0,001
880,4	-0,001
880,8	-0,001
881,2	-0,001
881,7	-0,001
882,1	-0,001
882,5	-0,001
882,9	-0,001
883,4	-0,001
883,8	-0,001
884,2	-0,001
884,6	-0,001
885,1	-0,001
885,5	-0,001
885,9	-0,002
886,3	-0,002
886,8	-0,002
887,2	-0,002
887,6	-0,002
888	-0,001
888,5	-0,002
888,9	-0,001
889,3	-0,001
889,8	-0,001
890,2	-0,001
890,6	-0,001
891	-0,001
891,5	-0,001
891,9	-0,001
892,3	-0,001
892,7	-0,001
893,2	-0,001
893,6	-0,001
894	-0,001
894,4	-0,001
894,9	-0,001
895,3	-0,001
895,7	-0,002
896,1	-0,002
896,6	-0,002
897	-0,001
897,4	-0,001
897,8	-0,001
898,3	-0,001
898,7	-0,001
899,1	-0,001
899,5	-0,001
900	-0,001
900,4	-0
900,8	-0
901,2	-0,001
901,7	-0,001
902,1	-0,001
902,5	-0,001
902,9	-0,002
903,4	-0,002
903,8	-0,002
904,2	-0,002
904,6	-0,002
905,1	-0,002
905,5	-0,002
905,9	-0,001
906,3	-0,002
906,8	-0,002
907,2	-0,002
907,6	-0,002
908	-0,002
908,5	-0,002
908,9	-0,002
909,3	-0,002
909,7	-0,002
910,2	-0,002
910,6	-0,002
911	-0,001
911,4	-0,001
911,9	-0,001
912,3	-0,001
912,7	-0,001
913,1	-0,001
913,6	-0,001
914	-0,001
914,4	-0,001
914,8	-0,001
915,3	-0,001
915,7	-0,001
916,1	-0,001
916,5	-0,001
916,9	-0,001
917,4	-0,002
917,8	-0,001
918,2	-0,001
918,6	-0,001
919,1	-0
919,5	-0
919,9	-0,001
920,3	-0
920,8	-0,001
921,2	-0,001
921,6	-0,001
922	-0,001
922,5	-0,001
922,9	-0,002
923,3	-0,002
923,7	-0,002
924,2	-0,002
924,6	-0,002
925	-0,002
925,4	-0,002
925,8	-0,002
926,3	-0,001
926,7	-0,001
927,1	-0,001
927,5	-0,001
928	-0,002
928,4	-0,001
928,8	-0,002
929,2	-0,001
929,7	-0,001
930,1	-0,001
930,5	-0,001
930,9	-0,001
931,3	-0,001
931,8	-0,001
932,2	-0,001
932,6	-0,002
933	-0,001
933,5	-0,001
933,9	-0,001
934,3	-0,001
934,7	-0,001
935,2	-0,001
935,6	-0,001
936	-0,002
936,4	-0,002
936,8	-0,002
937,3	-0,002
937,7	-0,002
938,1	-0,002
938,5	-0,002
939	-0,001
939,4	-0,001
939,8	-0,002
940,2	-0,001
940,6	-0,001
941,1	-0,001
941,5	-0,001
941,9	-0,002
942,3	-0,001
942,8	-0,001
943,2	-0,001
943,6	-0,001
944	-0,002
944,4	-0,001
944,9	-0,001
945,3	-0,001
945,7	-0,001
946,1	0
946,6	-0
947	-0
947,4	-0,001
947,8	-0,002
948,2	-0,001
948,7	-0,002
949,1	-0,002
949,5	-0,002
949,9	-0,002
950,3	-0,002
950,8	-0,001
951,2	-0,001
951,6	-0,002
952	-0,001
952,5	-0,001
952,9	-0,001
953,3	-0,001
953,7	-0,001
954,1	-0,001
954,6	-0,001
955	-0,001
955,4	-0,001
955,8	-0
956,2	-0
956,7	-0
957,1	-0
957,5	-0
957,9	0
958,3	0
958,8	0
959,2	0,001
959,6	0
960	-0
960,5	-0,001
960,9	-0,001
961,3	-0,001
961,7	-0,002
962,1	-0,002
962,6	-0,002
963	-0,001
963,4	-0,002
963,8	-0,001
964,2	-0,001
964,7	-0,001
965,1	-0,001
965,5	-0,001
965,9	-0,001
966,3	-0,001
966,8	-0
967,2	-0
967,6	-0
968	0
968,4	0,001
968,9	0,001
969,3	0,001
969,7	0,001
970,1	0,001
970,5	0,001
971	0,001
971,4	0,001
971,8	0
972,2	0
972,6	-0,001
973,1	-0,001
973,5	-0,001
973,9	-0,001
974,3	-0,001
974,7	-0,001
975,2	-0,001
975,6	-0
976	-0,001
976,4	-0
976,8	-0,001
977,3	-0,002
977,7	-0,002
978,1	-0,002
978,5	-0,002
978,9	-0,001
979,4	-0,002
979,8	-0,001
980,2	-0,001
980,6	-0,001
981	-0,001
981,5	-0,001
981,9	-0,001
982,3	-0,001
982,7	-0,001
983,1	-0
983,6	-0,001
984	-0,001
984,4	-0,002
984,8	-0,001
985,2	-0,001
985,6	-0,001
986,1	-0,001
986,5	0,001
986,9	0,001
987,3	0,002
987,7	0,003
988,2	0,003
988,6	0,003
989	0,003
989,4	0,002
989,8	0,002
990,3	0,002
990,7	0,002
991,1	0,002
991,5	0,002
991,9	0,002
992,3	0,002
992,8	0,002
993,2	0,001
993,6	0,001
994	0
994,4	0
994,9	-0,001
995,3	-0
995,7	0
996,1	0
996,5	0,001
996,9	0
997,4	0
997,8	0
998,2	-0,001
998,6	-0,001
999	-0,001
999,5	-0,002
999,9	-0,002
1000,3	-0,002
1000,7	-0,002
1001,1	-0,002
1001,5	-0,002
1002	-0,002
1002,4	-0,002
1002,8	-0,002
1003,2	-0,002
1003,6	-0,003
1004	-0,003
1004,5	-0,002
1004,9	-0,002
1005,3	-0,003
1005,7	-0,003
1006,1	-0,003
1006,6	-0,003
1007	-0,002
1007,4	-0,002
1007,8	-0,002
1008,2	-0,001
1008,6	-0,001
1009,1	-0,001
1009,5	-0,001
1009,9	-0,001
1010,3	-0,001
1010,7	-0,001
1011,1	-0,002
1011,6	-0,001
1012	-0,001
1012,4	-0,002
1012,8	-0,002
1013,2	-0,002
1013,6	-0,002
1014,1	-0,002
1014,5	-0,002
1014,9	-0,002
1015,3	-0,001
1015,7	-0,001
1016,1	-0,001
1016,6	-0,001
1017	-0,001
1017,4	-0,001
1017,8	-0,001
1018,2	-0,002
1018,6	-0,002
1019,1	-0,001
1019,5	-0,002
1019,9	-0,002
1020,3	-0,002
1020,7	-0,003
1021,1	-0,003
1021,6	-0,003
1022	-0,003
1022,4	-0,003
1022,8	-0,002
1023,2	-0,003
1023,6	-0,003
1024,1	-0,002
1024,5	-0,002
1024,9	-0,002
1025,3	-0,002
1025,7	-0,002
1026,1	-0,002
1026,6	-0,002
1027	-0,002
1027,4	-0,003
1027,8	-0,003
1028,2	-0,003
1028,6	-0,003
1029	-0,002
1029,5	-0,003
1029,9	-0,002
1030,3	-0,002
1030,7	-0,001
1031,1	-0,002
1031,5	-0,002
1032	-0,002
1032,4	-0,002
1032,8	-0,003
1033,2	-0,002
1033,6	-0,002
1034	-0,002
1034,4	-0,002
1034,9	-0,002
1035,3	-0,002
1035,7	-0,002
1036,1	-0,002
1036,5	-0,002
1036,9	-0,002
1037,4	-0,002
1037,8	-0,002
1038,2	-0,001
1038,6	-0,001
1039	-0
1039,4	-0
1039,8	-0
1040,3	-0,001
1040,7	-0,001
1041,1	-0,001
1041,5	-0,001
1041,9	-0,002
1042,3	-0,002
1042,7	-0,002
1043,2	-0,001
1043,6	-0,001
1044	-0,001
1044,4	-0
1044,8	0
1045,2	0
1045,6	0
1046,1	0,001
1046,5	0,001
1046,9	0
1047,3	-0
1047,7	-0
1048,1	-0
1048,5	-0,001
1049	-0,002
1049,4	-0,002
1049,8	-0,002
1050,2	-0,002
1050,6	-0,001
1051	-0
1051,4	-0
1051,9	-0,001
1052,3	-0,001
1052,7	-0,001
1053,1	-0,002
1053,5	-0,003
1053,9	-0,004
1054,3	-0,003
1054,8	-0,002
1055,2	-0,002
1055,6	-0,002
1056	-0,002
1056,4	-0,001
1056,8	-0,001
1057,2	-0,001
1057,6	-0,001
1058,1	-0,002
1058,5	-0,002
1058,9	-0,002
1059,3	-0,002
1059,7	-0,002
1060,1	-0,003
1060,5	-0,003
1061	-0,002
1061,4	-0,003
1061,8	-0,003
1062,2	-0,002
1062,6	-0,001
1063	-0
1063,4	0
1063,8	-0,001
1064,3	0,001
1064,7	0,001
1065,1	0,001
1065,5	-0
1065,9	-0
1066,3	-0
1066,7	0
1067,1	-0,001
1067,6	-0,001
1068	0
1068,4	0
1068,8	-0
1069,2	-0,001
1069,6	-0,001
1070	0,001
1070,4	-0,001
1070,9	-0,002
1071,3	-0,003
1071,7	-0,002
1072,1	-0,001
1072,5	-0,001
1072,9	-0,002
1073,3	-0,001
1073,7	-0,001
1074,2	-0,001
1074,6	-0,002
1075	-0,001
1075,4	-0,003
1075,8	-0,003
1076,2	-0,003
1076,6	-0,003
1077	-0,003
1077,5	-0,004
1077,9	-0,004
1078,3	-0,004
1078,7	-0,004
1079,1	-0,003
1079,5	-0,003
1079,9	-0,003
1080,3	-0,003
1080,7	-0,004
1081,2	-0,003
1081,6	-0,004
1082	-0,004
1082,4	-0,003
1082,8	-0,003
1083,2	-0,001
1083,6	-0,002
1084	-0,002
1084,5	-0,003
1084,9	-0,003
1085,3	-0,003
1085,7	-0,001
1086,1	-0,003
1086,5	-0,002
1086,9	-0,004
1087,3	-0,002
1087,7	-0,003
1088,2	-0,002
1088,6	-0,005
1089	-0,003
1089,4	-0,001
1089,8	-0
1090,2	-0,001
1090,6	-0,002
1091	-0,003
1091,4	-0,003
1091,9	-0,004
1092,3	-0,004
1092,7	-0,002
1093,1	-0,003
1093,5	0,001
1093,9	0,003
1094,3	0,008
1094,7	0,01
1095,1	0,01
1095,5	0,009
1096	0,006
1096,4	0
1096,8	-0,001
1097,2	-0,005
1097,6	-0,005
1098	-0,005
1098,4	-0,007
1098,8	-0,005
1099,2	0,001
1099,6	-0,002
1100,1	-0,004
1100,5	-0,006
1100,9	-0,012
1101,3	-0,01
1101,7	-0,005
1102,1	-0,011
1102,5	-0,011
1102,9	-0,019
1103,3	-0,019
1103,7	-0,009
1104,2	-0,008
1104,6	-0,012
1105	-0,006
1105,4	0,003
1105,8	0,017
1106,2	0,01
1106,6	0,001
1107	-0,006
1107,4	-0,004
1107,8	0,006
1108,3	-0
