Data from Absorbance_00021.txt Node
Date: Thu Aug 10 15:21:56 MSK 2023
User: vat
Spectrometer: MAYP114033
Trigger mode: 0
Integration Time (sec): 8,000000E-3
Scans to average: 10
Electric dark correction enabled: true
Nonlinearity correction enabled: false
Boxcar width: 3
XAxis mode: Wavelengths
Number of Pixels in Spectrum: 2068
>>>>>Begin Spectral Data<<<<<
199,4	-0
199,9	0,477
200,4	0,647
200,8	0,872
201,3	0,946
201,8	0,972
202,2	0,96
202,7	0,971
203,2	1,018
203,6	1,044
204,1	1,069
204,6	1,076
205	1,093
205,5	1,129
206	1,151
206,4	1,17
206,9	1,179
207,4	1,19
207,8	1,205
208,3	1,228
208,8	1,241
209,2	1,25
209,7	1,25
210,2	1,256
210,6	1,264
211,1	1,279
211,5	1,281
212	1,296
212,5	1,313
212,9	1,332
213,4	1,369
213,9	1,385
214,3	1,39
214,8	1,423
215,3	1,434
215,7	1,44
216,2	1,465
216,7	1,454
217,1	1,467
217,6	1,479
218,1	1,479
218,5	1,491
219	1,51
219,5	1,524
219,9	1,553
220,4	1,562
220,9	1,591
221,3	1,611
221,8	1,643
222,3	1,67
222,7	1,671
223,2	1,682
223,6	1,702
224,1	1,699
224,6	1,727
225	1,724
225,5	1,729
226	1,745
226,4	1,767
226,9	1,771
227,4	1,818
227,8	1,797
228,3	1,819
228,8	1,829
229,2	1,851
229,7	1,865
230,2	1,901
230,6	1,894
231,1	1,929
231,5	1,949
232	1,969
232,5	1,972
232,9	1,977
233,4	2,01
233,9	2,032
234,3	2,032
234,8	2,027
235,3	2,037
235,7	2,052
236,2	2,051
236,7	2,017
237,1	2,021
237,6	2,045
238,1	2,046
238,5	2,065
239	2,083
239,4	2,101
239,9	2,122
240,4	2,13
240,8	2,125
241,3	2,135
241,8	2,142
242,2	2,145
242,7	2,135
243,2	2,131
243,6	2,122
244,1	2,136
244,6	2,125
245	2,119
245,5	2,101
245,9	2,09
246,4	2,105
246,9	2,098
247,3	2,085
247,8	2,104
248,3	2,098
248,7	2,089
249,2	2,117
249,7	2,101
250,1	2,124
250,6	2,13
251	2,129
251,5	2,146
252	2,162
252,4	2,164
252,9	2,169
253,4	2,173
253,8	2,189
254,3	2,178
254,8	2,169
255,2	2,187
255,7	2,192
256,1	2,191
256,6	2,186
257,1	2,169
257,5	2,176
258	2,187
258,5	2,193
258,9	2,207
259,4	2,22
259,9	2,229
260,3	2,222
260,8	2,251
261,2	2,248
261,7	2,228
262,2	2,214
262,6	2,218
263,1	2,183
263,6	2,192
264	2,166
264,5	2,157
264,9	2,182
265,4	2,186
265,9	2,17
266,3	2,196
266,8	2,196
267,3	2,202
267,7	2,215
268,2	2,188
268,7	2,196
269,1	2,204
269,6	2,2
270	2,211
270,5	2,22
271	2,212
271,4	2,229
271,9	2,228
272,4	2,225
272,8	2,234
273,3	2,235
273,7	2,235
274,2	2,257
274,7	2,245
275,1	2,229
275,6	2,242
276,1	2,24
276,5	2,241
277	2,239
277,4	2,224
277,9	2,229
278,4	2,236
278,8	2,23
279,3	2,218
279,8	2,219
280,2	2,222
280,7	2,223
281,1	2,247
281,6	2,259
282,1	2,258
282,5	2,269
283	2,261
283,4	2,263
283,9	2,268
284,4	2,252
284,8	2,234
285,3	2,251
285,8	2,241
286,2	2,223
286,7	2,208
287,1	2,161
287,6	2,13
288,1	2,084
288,5	2,029
289	1,977
289,5	1,934
289,9	1,891
290,4	1,857
290,8	1,812
291,3	1,779
291,8	1,746
292,2	1,722
292,7	1,691
293,1	1,666
293,6	1,648
294,1	1,636
294,5	1,621
295	1,603
295,5	1,589
295,9	1,58
296,4	1,566
296,8	1,552
297,3	1,539
297,8	1,528
298,2	1,52
298,7	1,514
299,1	1,508
299,6	1,502
300,1	1,491
300,5	1,486
301	1,479
301,5	1,475
301,9	1,466
302,4	1,454
302,8	1,445
303,3	1,437
303,8	1,427
304,2	1,416
304,7	1,406
305,1	1,396
305,6	1,389
306,1	1,382
306,5	1,377
307	1,367
307,4	1,361
307,9	1,354
308,4	1,344
308,8	1,337
309,3	1,327
309,8	1,319
310,2	1,311
310,7	1,298
311,1	1,288
311,6	1,275
312,1	1,263
312,5	1,253
313	1,241
313,4	1,228
313,9	1,219
314,4	1,21
314,8	1,199
315,3	1,19
315,7	1,179
316,2	1,169
316,7	1,159
317,1	1,147
317,6	1,135
318	1,126
318,5	1,114
319	1,101
319,4	1,09
319,9	1,08
320,3	1,068
320,8	1,057
321,3	1,045
321,7	1,033
322,2	1,023
322,6	1,012
323,1	1,001
323,6	0,99
324	0,979
324,5	0,969
324,9	0,959
325,4	0,946
325,9	0,935
326,3	0,925
326,8	0,913
327,2	0,901
327,7	0,889
328,2	0,877
328,6	0,867
329,1	0,855
329,5	0,842
330	0,832
330,5	0,821
330,9	0,81
331,4	0,799
331,8	0,789
332,3	0,778
332,8	0,767
333,2	0,755
333,7	0,744
334,1	0,733
334,6	0,723
335,1	0,711
335,5	0,7
336	0,689
336,4	0,678
336,9	0,668
337,4	0,657
337,8	0,646
338,3	0,636
338,7	0,626
339,2	0,615
339,7	0,605
340,1	0,594
340,6	0,584
341	0,575
341,5	0,564
342	0,555
342,4	0,546
342,9	0,536
343,3	0,528
343,8	0,518
344,2	0,509
344,7	0,5
345,2	0,492
345,6	0,483
346,1	0,475
346,5	0,465
347	0,457
347,5	0,45
347,9	0,441
348,4	0,433
348,8	0,425
349,3	0,416
349,8	0,409
350,2	0,402
350,7	0,393
351,1	0,386
351,6	0,379
352	0,372
352,5	0,366
353	0,358
353,4	0,351
353,9	0,346
354,3	0,339
354,8	0,332
355,3	0,325
355,7	0,32
356,2	0,314
356,6	0,309
357,1	0,302
357,5	0,297
358	0,292
358,5	0,286
358,9	0,28
359,4	0,274
359,8	0,269
360,3	0,264
360,8	0,261
361,2	0,255
361,7	0,251
362,1	0,247
362,6	0,242
363	0,238
363,5	0,233
364	0,229
364,4	0,225
364,9	0,221
365,3	0,217
365,8	0,214
366,3	0,211
366,7	0,207
367,2	0,203
367,6	0,2
368,1	0,197
368,5	0,194
369	0,191
369,5	0,188
369,9	0,185
370,4	0,182
370,8	0,179
371,3	0,176
371,7	0,173
372,2	0,171
372,7	0,168
373,1	0,165
373,6	0,163
374	0,16
374,5	0,158
374,9	0,155
375,4	0,153
375,9	0,15
376,3	0,148
376,8	0,146
377,2	0,144
377,7	0,141
378,2	0,14
378,6	0,137
379,1	0,135
379,5	0,133
380	0,131
380,4	0,13
380,9	0,127
381,4	0,125
381,8	0,123
382,3	0,122
382,7	0,12
383,2	0,118
383,6	0,116
384,1	0,115
384,6	0,113
385	0,112
385,5	0,11
385,9	0,108
386,4	0,106
386,8	0,104
387,3	0,103
387,7	0,102
388,2	0,101
388,7	0,099
389,1	0,098
389,6	0,096
390	0,096
390,5	0,094
390,9	0,094
391,4	0,092
391,9	0,091
392,3	0,089
392,8	0,088
393,2	0,086
393,7	0,085
394,1	0,083
394,6	0,082
395,1	0,08
395,5	0,08
396	0,079
396,4	0,078
396,9	0,077
397,3	0,075
397,8	0,074
398,2	0,072
398,7	0,071
399,2	0,069
399,6	0,068
400,1	0,067
400,5	0,066
401	0,065
401,4	0,064
401,9	0,062
402,4	0,061
402,8	0,061
403,3	0,059
403,7	0,058
404,2	0,058
404,6	0,057
405,1	0,056
405,5	0,055
406	0,054
406,5	0,053
406,9	0,052
407,4	0,05
407,8	0,05
408,3	0,049
408,7	0,048
409,2	0,047
409,6	0,046
410,1	0,046
410,6	0,045
411	0,044
411,5	0,044
411,9	0,043
412,4	0,042
412,8	0,041
413,3	0,04
413,7	0,04
414,2	0,039
414,7	0,038
415,1	0,037
415,6	0,037
416	0,036
416,5	0,035
416,9	0,034
417,4	0,033
417,8	0,033
418,3	0,033
418,8	0,032
419,2	0,031
419,7	0,03
420,1	0,03
420,6	0,028
421	0,027
421,5	0,026
421,9	0,025
422,4	0,025
422,8	0,024
423,3	0,023
423,8	0,023
424,2	0,022
424,7	0,021
425,1	0,02
425,6	0,02
426	0,019
426,5	0,018
426,9	0,018
427,4	0,018
427,9	0,017
428,3	0,016
428,8	0,016
429,2	0,016
429,7	0,016
430,1	0,015
430,6	0,014
431	0,014
431,5	0,014
431,9	0,013
432,4	0,013
432,8	0,012
433,3	0,011
433,8	0,012
434,2	0,011
434,7	0,01
435,1	0,01
435,6	0,009
436	0,009
436,5	0,009
436,9	0,009
437,4	0,008
437,8	0,008
438,3	0,008
438,8	0,007
439,2	0,007
439,7	0,006
440,1	0,006
440,6	0,006
441	0,006
441,5	0,005
441,9	0,005
442,4	0,005
442,8	0,005
443,3	0,005
443,7	0,004
444,2	0,004
444,7	0,004
445,1	0,004
445,6	0,004
446	0,004
446,5	0,004
446,9	0,003
447,4	0,003
447,8	0,003
448,3	0,002
448,7	0,002
449,2	0,002
449,6	0,002
450,1	0,002
450,6	0,002
451	0,002
451,5	0,002
451,9	0,003
452,4	0,002
452,8	0,003
453,3	0,003
453,7	0,002
454,2	0,002
454,6	0,001
455,1	0,001
455,5	0
456	0
456,4	-0
456,9	0,001
457,3	0,001
457,8	0,001
458,3	0,001
458,7	0,001
459,2	0,001
459,6	0,001
460,1	0
460,5	-0
461	-0
461,4	-0,001
461,9	-0,001
462,3	-0,001
462,8	-0,001
463,2	-0,001
463,7	-0,001
464,1	-0,001
464,6	-0,001
465	-0,001
465,5	-0,001
466	-0,001
466,4	-0,001
466,9	-0,001
467,3	-0,001
467,8	-0,001
468,2	-0,002
468,7	-0,002
469,1	-0,002
469,6	-0,001
470	-0,001
470,5	-0,001
470,9	-0,002
471,4	-0,002
471,8	-0,002
472,3	-0,002
472,7	-0,003
473,2	-0,003
473,6	-0,003
474,1	-0,003
474,5	-0,002
475	-0,002
475,4	-0,002
475,9	-0,002
476,4	-0,002
476,8	-0,003
477,3	-0,003
477,7	-0,003
478,2	-0,002
478,6	-0,003
479,1	-0,003
479,5	-0,003
480	-0,003
480,4	-0,002
480,9	-0,003
481,3	-0,004
481,8	-0,003
482,2	-0,003
482,7	-0,003
483,1	-0,003
483,6	-0,003
484	-0,003
484,5	-0,003
484,9	-0,003
485,4	-0,003
485,8	-0,002
486,3	-0,003
486,7	-0,003
487,2	-0,002
487,6	-0,002
488,1	-0,002
488,5	-0,002
489	-0,003
489,4	-0,001
489,9	-0,001
490,4	-0,002
490,8	-0,002
491,3	-0,002
491,7	-0,002
492,2	-0,002
492,6	-0,002
493,1	-0,002
493,5	-0,002
494	-0,002
494,4	-0,002
494,9	-0,002
495,3	-0,002
495,8	-0,002
496,2	-0,003
496,7	-0,003
497,1	-0,003
497,6	-0,003
498	-0,003
498,5	-0,004
498,9	-0,003
499,4	-0,003
499,8	-0,003
500,3	-0,003
500,7	-0,004
501,2	-0,004
501,6	-0,003
502,1	-0,004
502,5	-0,003
503	-0,003
503,4	-0,002
503,9	-0,002
504,3	-0,002
504,8	-0,002
505,2	-0,002
505,7	-0,002
506,1	-0,002
506,6	-0,003
507	-0,004
507,5	-0,003
507,9	-0,003
508,4	-0,003
508,8	-0,003
509,3	-0,004
509,7	-0,003
510,2	-0,003
510,6	-0,003
511,1	-0,003
511,5	-0,004
512	-0,003
512,4	-0,003
512,9	-0,003
513,3	-0,003
513,8	-0,003
514,2	-0,003
514,7	-0,002
515,1	-0,002
515,6	-0,002
516	-0,002
516,5	-0,002
516,9	-0,002
517,4	-0,002
517,8	-0,002
518,3	-0,002
518,7	-0,002
519,2	-0,001
519,6	-0,002
520,1	-0,002
520,5	-0,002
521	-0,002
521,4	-0,002
521,9	-0,002
522,3	-0,002
522,8	-0,002
523,2	-0,002
523,7	-0,002
524,1	-0,003
524,6	-0,002
525	-0,002
525,5	-0,002
525,9	-0,003
526,4	-0,003
526,8	-0,002
527,3	-0,003
527,7	-0,002
528,2	-0,003
528,6	-0,002
529,1	-0,002
529,5	-0,002
530	-0,003
530,4	-0,002
530,9	-0,002
531,3	-0,002
531,8	-0,002
532,2	-0,001
532,6	-0,001
533,1	-0,001
533,5	-0,001
534	-0,001
534,4	-0,001
534,9	-0,001
535,3	-0,001
535,8	-0,001
536,2	-0,001
536,7	-0,001
537,1	-0,001
537,6	-0,001
538	-0,001
538,5	-0,001
538,9	-0,001
539,4	-0,002
539,8	-0,002
540,3	-0,001
540,7	-0,001
541,2	-0,001
541,6	-0,002
542,1	-0,002
542,5	-0,002
543	-0,002
543,4	-0,002
543,9	-0,003
544,3	-0,002
544,8	-0,002
545,2	-0,002
545,7	-0,002
546,1	-0,002
546,5	-0,001
547	-0,001
547,4	-0,002
547,9	-0,002
548,3	-0,002
548,8	-0,002
549,2	-0,002
549,7	-0,002
550,1	-0,002
550,6	-0,002
551	-0,001
551,5	-0,001
551,9	-0,001
552,4	-0,001
552,8	-0,001
553,3	-0,001
553,7	-0,001
554,2	-0,001
554,6	-0,001
555,1	-0,001
555,5	-0,001
555,9	-0,001
556,4	-0,002
556,8	-0,001
557,3	-0,002
557,7	-0,002
558,2	-0,002
558,6	-0,001
559,1	-0,002
559,5	-0,002
560	-0,002
560,4	-0,002
560,9	-0,002
561,3	-0,002
561,8	-0,002
562,2	-0,002
562,7	-0,002
563,1	-0,002
563,6	-0,002
564	-0,002
564,4	-0,002
564,9	-0,002
565,3	-0,002
565,8	-0,002
566,2	-0,002
566,7	-0,002
567,1	-0,003
567,6	-0,003
568	-0,003
568,5	-0,003
568,9	-0,003
569,4	-0,003
569,8	-0,003
570,3	-0,003
570,7	-0,003
571,1	-0,002
571,6	-0,002
572	-0,002
572,5	-0,002
572,9	-0,001
573,4	-0,001
573,8	-0,001
574,3	-0,002
574,7	-0,002
575,2	-0,001
575,6	-0,002
576,1	-0,002
576,5	-0,002
576,9	-0,002
577,4	-0,002
577,8	-0,002
578,3	-0,002
578,7	-0,002
579,2	-0,002
579,6	-0,002
580,1	-0,002
580,5	-0,002
581	-0,001
581,4	-0,002
581,9	-0,002
582,3	-0,002
582,7	-0,002
583,2	-0,002
583,6	-0,001
584,1	-0,001
584,5	-0,001
585	-0,001
585,4	-0,001
585,9	-0,001
586,3	-0,001
586,8	-0,001
587,2	-0,001
587,6	-0,001
588,1	-0,001
588,5	-0,001
589	-0,001
589,4	-0,001
589,9	-0,001
590,3	-0,001
590,8	-0,001
591,2	-0,001
591,7	-0,001
592,1	-0,001
592,5	-0,002
593	-0,002
593,4	-0,002
593,9	-0,002
594,3	-0,002
594,8	-0,002
595,2	-0,002
595,7	-0,002
596,1	-0,002
596,6	-0,002
597	-0,001
597,4	-0,002
597,9	-0,002
598,3	-0,001
598,8	-0,001
599,2	-0,002
599,7	-0,001
600,1	-0,002
600,6	-0,002
601	-0,002
601,4	-0,002
601,9	-0,002
602,3	-0,001
602,8	-0,001
603,2	-0,001
603,7	-0,002
604,1	-0,002
604,6	-0,002
605	-0,001
605,4	-0,001
605,9	-0,001
606,3	-0,001
606,8	-0,001
607,2	-0,001
607,7	-0,001
608,1	-0,001
608,6	-0,002
609	-0,002
609,4	-0,002
609,9	-0,002
610,3	-0,002
610,8	-0,002
611,2	-0,002
611,7	-0,002
612,1	-0,002
612,6	-0,002
613	-0,002
613,4	-0,002
613,9	-0,002
614,3	-0,002
614,8	-0,002
615,2	-0,002
615,7	-0,002
616,1	-0,002
616,6	-0,002
617	-0,001
617,4	-0,001
617,9	-0,001
618,3	-0,001
618,8	-0,001
619,2	-0,001
619,7	-0,001
620,1	-0,001
620,5	-0,001
621	-0,001
621,4	-0,001
621,9	-0,001
622,3	-0,001
622,8	-0,001
623,2	-0,002
623,6	-0,002
624,1	-0,002
624,5	-0,002
625	-0,002
625,4	-0,002
625,9	-0,002
626,3	-0,002
626,8	-0,002
627,2	-0,002
627,6	-0,001
628,1	-0,001
628,5	-0,001
629	-0,001
629,4	-0,001
629,9	-0,001
630,3	-0,001
630,7	-0,001
631,2	-0,001
631,6	-0,001
632,1	-0,001
632,5	-0,001
633	-0,001
633,4	-0,001
633,8	-0,001
634,3	-0,002
634,7	-0,001
635,2	-0,002
635,6	-0,002
636,1	-0,002
636,5	-0,001
636,9	-0,001
637,4	-0,001
637,8	-0,001
638,3	-0,001
638,7	-0,001
639,2	-0,001
639,6	-0,001
640	-0,002
640,5	-0,002
640,9	-0,002
641,4	-0,002
641,8	-0,002
642,2	-0,002
642,7	-0,002
643,1	-0,001
643,6	-0,001
644	-0,001
644,5	-0,001
644,9	-0
645,3	-0,001
645,8	-0
646,2	-0
646,7	-0
647,1	-0
647,6	-0
648	-0,001
648,4	-0,002
648,9	-0,002
649,3	-0,002
649,8	-0,002
650,2	-0,002
650,6	-0,002
651,1	-0,002
651,5	-0,002
652	-0,002
652,4	-0,002
652,9	-0,002
653,3	-0,002
653,7	-0,003
654,2	-0,003
654,6	-0,002
655,1	-0,001
655,5	-0,001
655,9	-0
656,4	-0
656,8	0,002
657,3	0,002
657,7	0,003
658,2	0,003
658,6	0,004
659	0,005
659,5	0,008
659,9	0,005
660,4	0,003
660,8	0,002
661,2	0,001
661,7	0
662,1	0
662,6	-0
663	-0
663,4	-0,001
663,9	-0,001
664,3	-0,001
664,8	-0,002
665,2	-0,002
665,6	-0,001
666,1	-0,001
666,5	-0,001
667	-0,002
667,4	-0,002
667,9	-0,001
668,3	-0,002
668,7	-0,002
669,2	-0,002
669,6	-0,002
670,1	-0,002
670,5	-0,002
670,9	-0,002
671,4	-0,002
671,8	-0,002
672,3	-0,002
672,7	-0,001
673,1	-0,001
673,6	-0,001
674	-0,001
674,5	-0,001
674,9	-0,001
675,3	-0,001
675,8	-0,001
676,2	-0,001
676,7	-0,001
677,1	-0,001
677,5	-0,002
678	-0,002
678,4	-0,002
678,9	-0,002
679,3	-0,002
679,7	-0,002
680,2	-0,002
680,6	-0,002
681,1	-0,001
681,5	-0,001
681,9	-0,001
682,4	-0,002
682,8	-0,001
683,3	-0,002
683,7	-0,002
684,1	-0,002
684,6	-0,002
685	-0,002
685,5	-0,002
685,9	-0,002
686,3	-0,002
686,8	-0,002
687,2	-0,001
687,7	-0,001
688,1	-0,001
688,5	-0,001
689	-0,001
689,4	-0,001
689,9	-0,001
690,3	-0,001
690,7	-0,001
691,2	-0,001
691,6	-0,001
692	-0,001
692,5	-0,001
692,9	-0,001
693,4	-0,001
693,8	-0,001
694,2	-0,001
694,7	-0,001
695,1	-0,001
695,6	-0,001
696	-0,001
696,4	-0,001
696,9	-0,001
697,3	-0,002
697,8	-0,002
698,2	-0,002
698,6	-0,002
699,1	-0,002
699,5	-0,002
699,9	-0,001
700,4	-0,001
700,8	-0,001
701,3	-0,001
701,7	-0,001
702,1	-0,001
702,6	-0,001
703	-0,001
703,5	-0,001
703,9	-0,002
704,3	-0,002
704,8	-0,001
705,2	-0,001
705,6	-0,001
706,1	-0,001
706,5	-0,001
707	-0,001
707,4	-0,002
707,8	-0,002
708,3	-0,002
708,7	-0,002
709,2	-0,002
709,6	-0,002
710	-0,002
710,5	-0,001
710,9	-0,001
711,3	-0,001
711,8	-0,001
712,2	-0,001
712,7	-0,001
713,1	-0,001
713,5	-0,001
714	-0,001
714,4	-0,001
714,8	-0,001
715,3	-0,001
715,7	-0,002
716,2	-0,002
716,6	-0,001
717	-0,001
717,5	-0,001
717,9	-0,001
718,3	-0,001
718,8	-0
719,2	0
719,7	-0
720,1	-0
720,5	-0
721	-0
721,4	-0,001
721,8	-0,001
722,3	-0,001
722,7	-0,001
723,2	-0,001
723,6	-0,001
724	-0,002
724,5	-0,001
724,9	-0,002
725,3	-0,002
725,8	-0,002
726,2	-0,002
726,7	-0,002
727,1	-0,002
727,5	-0,002
728	-0,002
728,4	-0,002
728,8	-0,002
729,3	-0,002
729,7	-0,002
730,1	-0,002
730,6	-0,002
731	-0,002
731,5	-0,002
731,9	-0,002
732,3	-0,002
732,8	-0,002
733,2	-0,002
733,6	-0,002
734,1	-0,002
734,5	-0,002
734,9	-0,002
735,4	-0,002
735,8	-0,001
736,3	-0,001
736,7	-0,002
737,1	-0,001
737,6	-0,001
738	-0,001
738,4	-0,001
738,9	-0,001
739,3	-0,001
739,7	-0,001
740,2	-0,001
740,6	-0,001
741,1	-0,001
741,5	-0,001
741,9	-0,001
742,4	-0,001
742,8	-0,001
743,2	-0,001
743,7	-0,001
744,1	-0,001
744,5	-0,001
745	-0,001
745,4	-0,001
745,8	-0,001
746,3	-0,001
746,7	-0,001
747,2	-0,001
747,6	-0,002
748	-0,002
748,5	-0,002
748,9	-0,002
749,3	-0,002
749,8	-0,002
750,2	-0,002
750,6	-0,002
751,1	-0,002
751,5	-0,002
751,9	-0,002
752,4	-0,002
752,8	-0,002
753,3	-0,002
753,7	-0,002
754,1	-0,002
754,6	-0,002
755	-0,002
755,4	-0,002
755,9	-0,003
756,3	-0,002
756,7	-0,002
757,2	-0,002
757,6	-0,002
758	-0,002
758,5	-0,002
758,9	-0,002
759,3	-0,002
759,8	-0,002
760,2	-0,002
760,6	-0,002
761,1	-0,002
761,5	-0,002
761,9	-0,002
762,4	-0,002
762,8	-0,002
763,3	-0,002
763,7	-0,002
764,1	-0,002
764,6	-0,003
765	-0,003
765,4	-0,003
765,9	-0,003
766,3	-0,003
766,7	-0,003
767,2	-0,002
767,6	-0,002
768	-0,002
768,5	-0,002
768,9	-0,002
769,3	-0,002
769,8	-0,002
770,2	-0,002
770,6	-0,002
771,1	-0,002
771,5	-0,002
771,9	-0,002
772,4	-0,002
772,8	-0,002
773,2	-0,002
773,7	-0,001
774,1	-0,001
774,5	-0,001
775	-0,001
775,4	-0,001
775,8	-0,001
776,3	-0,001
776,7	-0,001
777,1	-0,001
777,6	-0,001
778	-0,001
778,4	-0,001
778,9	-0
779,3	-0
779,7	-0
780,2	-0,001
780,6	-0,001
781	-0,001
781,5	-0,001
781,9	-0,001
782,3	-0,001
782,8	-0,001
783,2	-0,001
783,6	-0,001
784,1	-0,001
784,5	-0,001
784,9	-0,001
785,4	-0,001
785,8	-0
786,2	-0
786,7	-0
787,1	0
787,5	-0
788	-0,001
788,4	-0,001
788,8	-0,001
789,3	-0,001
789,7	-0,001
790,1	-0,001
790,6	-0,001
791	-0,001
791,4	-0,001
791,9	-0,001
792,3	-0,001
792,7	-0,001
793,2	-0,001
793,6	-0
794	-0,001
794,5	-0,001
794,9	-0
795,3	-0
795,8	-0
796,2	-0
796,6	-0
797,1	-0
797,5	-0
797,9	-0,001
798,4	-0
798,8	-0
799,2	-0,001
799,7	-0
800,1	-0
800,5	-0
801	-0
801,4	-0
801,8	-0
802,2	-0
802,7	-0,001
803,1	-0,001
803,5	-0,001
804	-0,001
804,4	-0,001
804,8	-0,001
805,3	-0,001
805,7	-0,001
806,1	-0,002
806,6	-0,002
807	-0,001
807,4	-0,002
807,9	-0,001
808,3	-0,001
808,7	-0,002
809,2	-0,001
809,6	-0,001
810	-0,002
810,4	-0,002
810,9	-0,002
811,3	-0,001
811,7	-0,002
812,2	-0,001
812,6	-0,001
813	-0,001
813,5	-0
813,9	-0
814,3	-0
814,8	-0
815,2	-0
815,6	-0
816,1	-0,001
816,5	-0,001
816,9	-0,001
817,3	-0,001
817,8	-0,001
818,2	-0,001
818,6	-0,001
819,1	-0,001
819,5	-0,001
819,9	-0,001
820,4	-0,001
820,8	-0,001
821,2	-0,001
821,7	-0,001
822,1	-0,001
822,5	-0
822,9	-0,001
823,4	-0,001
823,8	-0,001
824,2	-0,001
824,7	-0,001
825,1	-0,001
825,5	-0,001
826	-0
826,4	-0
826,8	-0
827,3	-0
827,7	-0
828,1	-0
828,5	-0
829	-0
829,4	-0
829,8	-0
830,3	-0,001
830,7	-0,001
831,1	-0,001
831,6	-0,001
832	-0,001
832,4	-0,001
832,8	-0,001
833,3	-0,001
833,7	-0,002
834,1	-0,002
834,6	-0,002
835	-0,002
835,4	-0,002
835,8	-0,002
836,3	-0,002
836,7	-0,002
837,1	-0,002
837,6	-0,002
838	-0,002
838,4	-0,002
838,9	-0,002
839,3	-0,002
839,7	-0,002
840,1	-0,002
840,6	-0,002
841	-0,002
841,4	-0,002
841,9	-0,002
842,3	-0,001
842,7	-0,001
843,1	-0,002
843,6	-0,002
844	-0,002
844,4	-0,001
844,9	-0,001
845,3	-0,001
845,7	-0,001
846,2	-0
846,6	0
847	0
847,4	0
847,9	-0
848,3	0
848,7	0
849,2	-0
849,6	-0,001
850	-0,001
850,4	-0,001
850,9	-0,001
851,3	-0,001
851,7	-0,001
852,2	-0,001
852,6	-0,001
853	-0,001
853,4	-0,001
853,9	-0,001
854,3	-0,001
854,7	-0,001
855,2	-0,001
855,6	-0
856	-0
856,4	-0
856,9	-0
857,3	-0
857,7	-0
858,2	-0,001
858,6	-0,001
859	-0,001
859,4	-0,001
859,9	-0,002
860,3	-0,002
860,7	-0,002
861,1	-0,002
861,6	-0,002
862	-0,002
862,4	-0,002
862,9	-0,002
863,3	-0,002
863,7	-0,001
864,1	-0,001
864,6	-0,001
865	-0,001
865,4	-0,001
865,9	-0,001
866,3	-0,001
866,7	-0,001
867,1	-0,001
867,6	-0,001
868	-0,001
868,4	-0,002
868,8	-0,002
869,3	-0,002
869,7	-0,002
870,1	-0,002
870,6	-0,002
871	-0,002
871,4	-0,001
871,8	-0,001
872,3	-0,001
872,7	-0,001
873,1	-0,002
873,5	-0,001
874	-0,002
874,4	-0,002
874,8	-0,002
875,3	-0,002
875,7	-0,002
876,1	-0,002
876,5	-0,002
877	-0,002
877,4	-0,002
877,8	-0,002
878,2	-0,002
878,7	-0,002
879,1	-0,002
879,5	-0,002
879,9	-0,002
880,4	-0,002
880,8	-0,002
881,2	-0,001
881,7	-0,002
882,1	-0,001
882,5	-0,002
882,9	-0,002
883,4	-0,002
883,8	-0,003
884,2	-0,003
884,6	-0,003
885,1	-0,003
885,5	-0,003
885,9	-0,003
886,3	-0,003
886,8	-0,003
887,2	-0,003
887,6	-0,003
888	-0,002
888,5	-0,002
888,9	-0,001
889,3	-0,001
889,8	-0,001
890,2	-0,001
890,6	-0,001
891	-0,001
891,5	-0,001
891,9	-0,002
892,3	-0,002
892,7	-0,002
893,2	-0,002
893,6	-0,002
894	-0,002
894,4	-0,002
894,9	-0,002
895,3	-0,002
895,7	-0,002
896,1	-0,002
896,6	-0,002
897	-0,002
897,4	-0,002
897,8	-0,002
898,3	-0,002
898,7	-0,002
899,1	-0,002
899,5	-0,002
900	-0,002
900,4	-0,002
900,8	-0,002
901,2	-0,002
901,7	-0,002
902,1	-0,002
902,5	-0,002
902,9	-0,002
903,4	-0,002
903,8	-0,001
904,2	-0,002
904,6	-0,001
905,1	-0,001
905,5	-0,001
905,9	-0,001
906,3	-0,001
906,8	-0,001
907,2	-0,001
907,6	-0,001
908	-0,001
908,5	-0,001
908,9	-0,001
909,3	-0,001
909,7	-0,001
910,2	-0,001
910,6	-0,001
911	-0,001
911,4	-0,001
911,9	-0,001
912,3	-0,001
912,7	-0,001
913,1	-0,001
913,6	-0,001
914	-0,001
914,4	-0,001
914,8	-0,001
915,3	-0,001
915,7	-0,002
916,1	-0,001
916,5	-0,001
916,9	-0,001
917,4	-0,002
917,8	-0,002
918,2	-0,002
918,6	-0,002
919,1	-0,002
919,5	-0,002
919,9	-0,002
920,3	-0,002
920,8	-0,002
921,2	-0,002
921,6	-0,002
922	-0,002
922,5	-0,003
922,9	-0,003
923,3	-0,003
923,7	-0,002
924,2	-0,003
924,6	-0,003
925	-0,003
925,4	-0,003
925,8	-0,003
926,3	-0,003
926,7	-0,003
927,1	-0,003
927,5	-0,003
928	-0,002
928,4	-0,002
928,8	-0,002
929,2	-0,002
929,7	-0,001
930,1	-0,001
930,5	-0
930,9	-0,001
931,3	-0,001
931,8	-0,001
932,2	-0,001
932,6	-0,001
933	-0,001
933,5	-0,002
933,9	-0,002
934,3	-0,002
934,7	-0,002
935,2	-0,002
935,6	-0,002
936	-0,002
936,4	-0,002
936,8	-0,002
937,3	-0,002
937,7	-0,002
938,1	-0,002
938,5	-0,002
939	-0,001
939,4	-0,001
939,8	-0,001
940,2	-0,001
940,6	-0,001
941,1	-0
941,5	-0
941,9	-0
942,3	-0
942,8	0
943,2	-0
943,6	-0
944	-0,001
944,4	-0,001
944,9	-0,001
945,3	-0,001
945,7	-0,002
946,1	-0,002
946,6	-0,002
947	-0,002
947,4	-0,002
947,8	-0,002
948,2	-0,002
948,7	-0,003
949,1	-0,002
949,5	-0,003
949,9	-0,002
950,3	-0,002
950,8	-0,002
951,2	-0,003
951,6	-0,002
952	-0,002
952,5	-0,002
952,9	-0,003
953,3	-0,003
953,7	-0,003
954,1	-0,003
954,6	-0,002
955	-0,002
955,4	-0,002
955,8	-0,002
956,2	-0,001
956,7	-0,001
957,1	-0,001
957,5	-0,001
957,9	-0,001
958,3	-0,001
958,8	-0
959,2	-0
959,6	-0
960	-0,001
960,5	-0,001
960,9	-0,002
961,3	-0,002
961,7	-0,003
962,1	-0,003
962,6	-0,002
963	-0,001
963,4	-0,001
963,8	-0,001
964,2	-0,001
964,7	-0
965,1	-0,001
965,5	-0,001
965,9	-0,001
966,3	-0,001
966,8	-0,001
967,2	-0,001
967,6	-0,001
968	-0,001
968,4	-0,001
968,9	-0
969,3	-0
969,7	-0
970,1	-0,001
970,5	-0
971	-0
971,4	-0
971,8	-0
972,2	-0
972,6	-0,001
973,1	-0,001
973,5	-0,001
973,9	-0,001
974,3	-0,001
974,7	-0,001
975,2	-0,001
975,6	-0
976	-0
976,4	-0
976,8	-0,001
977,3	-0,002
977,7	-0,002
978,1	-0,003
978,5	-0,002
978,9	-0,003
979,4	-0,003
979,8	-0,002
980,2	-0,002
980,6	-0,001
981	-0,001
981,5	-0,001
981,9	-0,001
982,3	-0
982,7	0
983,1	-0
983,6	-0,001
984	-0,001
984,4	-0,001
984,8	-0,001
985,2	-0,001
985,6	-0,001
986,1	-0
986,5	0
986,9	0,001
987,3	0,001
987,7	0,001
988,2	0,001
988,6	0,001
989	0,001
989,4	0,001
989,8	0,001
990,3	0,001
990,7	0,002
991,1	0,002
991,5	0,002
991,9	0,001
992,3	0,001
992,8	0
993,2	-0,001
993,6	-0,001
994	-0,001
994,4	-0,001
994,9	-0,001
995,3	-0,001
995,7	-0,001
996,1	-0
996,5	0
996,9	-0
997,4	-0
997,8	-0,001
998,2	-0,001
998,6	-0,001
999	-0,001
999,5	-0,002
999,9	-0,002
1000,3	-0,002
1000,7	-0,002
1001,1	-0,001
1001,5	-0,002
1002	-0,002
1002,4	-0,002
1002,8	-0,003
1003,2	-0,003
1003,6	-0,003
1004	-0,003
1004,5	-0,003
1004,9	-0,003
1005,3	-0,003
1005,7	-0,003
1006,1	-0,002
1006,6	-0,002
1007	-0,002
1007,4	-0,002
1007,8	-0,003
1008,2	-0,002
1008,6	-0,002
1009,1	-0,003
1009,5	-0,002
1009,9	-0,002
1010,3	-0,001
1010,7	-0
1011,1	-0
1011,6	-0
1012	-0
1012,4	-0,001
1012,8	-0,001
1013,2	-0,001
1013,6	-0,002
1014,1	-0,002
1014,5	-0,002
1014,9	-0,002
1015,3	-0,002
1015,7	-0,002
1016,1	-0,002
1016,6	-0,002
1017	-0,002
1017,4	-0,002
1017,8	-0,002
1018,2	-0,002
1018,6	-0,002
1019,1	-0,001
1019,5	-0,001
1019,9	-0,001
1020,3	-0
1020,7	-0
1021,1	-0
1021,6	-0
1022	-0,001
1022,4	-0,001
1022,8	-0,001
1023,2	-0,002
1023,6	-0,001
1024,1	-0,001
1024,5	-0,002
1024,9	-0,002
1025,3	-0,002
1025,7	-0,002
1026,1	-0,002
1026,6	-0,002
1027	-0,003
1027,4	-0,003
1027,8	-0,004
1028,2	-0,004
1028,6	-0,004
1029	-0,004
1029,5	-0,003
1029,9	-0,003
1030,3	-0,003
1030,7	-0,002
1031,1	-0,002
1031,5	-0,001
1032	-0,001
1032,4	-0,001
1032,8	-0,001
1033,2	-0,001
1033,6	-0,001
1034	-0,001
1034,4	-0,002
1034,9	-0,002
1035,3	-0,002
1035,7	-0,002
1036,1	-0,002
1036,5	-0,002
1036,9	-0,001
1037,4	-0
1037,8	-0
1038,2	0,001
1038,6	0,001
1039	0,002
1039,4	0,001
1039,8	0,001
1040,3	0,001
1040,7	-0
1041,1	-0
1041,5	-0,001
1041,9	-0,001
1042,3	-0,002
1042,7	-0,003
1043,2	-0,003
1043,6	-0,003
1044	-0,003
1044,4	-0,003
1044,8	-0,003
1045,2	-0,002
1045,6	-0,002
1046,1	-0,002
1046,5	-0,001
1046,9	-0,001
1047,3	-0,001
1047,7	-0,001
1048,1	-0
1048,5	-0,001
1049	-0,001
1049,4	-0
1049,8	0,001
1050,2	0
1050,6	0,001
1051	0,001
1051,4	0,002
1051,9	0,001
1052,3	-0
1052,7	-0,001
1053,1	-0,002
1053,5	-0,004
1053,9	-0,003
1054,3	-0,002
1054,8	-0,002
1055,2	-0,002
1055,6	-0,002
1056	-0
1056,4	0,001
1056,8	0
1057,2	-0
1057,6	0
1058,1	0
1058,5	-0
1058,9	-0,001
1059,3	-0,001
1059,7	-0,002
1060,1	-0,003
1060,5	-0,004
1061	-0,004
1061,4	-0,003
1061,8	-0,003
1062,2	-0,003
1062,6	-0,002
1063	-0,001
1063,4	-0
1063,8	-0
1064,3	-0
1064,7	0
1065,1	-0
1065,5	-0
1065,9	-0,001
1066,3	-0,002
1066,7	-0,001
1067,1	-0,002
1067,6	-0,002
1068	-0,001
1068,4	-0,002
1068,8	-0,002
1069,2	-0,001
1069,6	-0,002
1070	-0
1070,4	-0,002
1070,9	-0,002
1071,3	-0,003
1071,7	-0,002
1072,1	-0,003
1072,5	-0,003
1072,9	-0,003
1073,3	-0,002
1073,7	-0,003
1074,2	-0,002
1074,6	-0,002
1075	-0
1075,4	-0,001
1075,8	-0,001
1076,2	-0,001
1076,6	-0
1077	0
1077,5	-0
1077,9	-0,002
1078,3	-0,002
1078,7	-0,002
1079,1	-0,001
1079,5	-0,001
1079,9	-0,002
1080,3	-0,002
1080,7	-0,001
1081,2	-0,001
1081,6	-0,002
1082	-0,001
1082,4	-0,001
1082,8	-0,001
1083,2	-0,001
1083,6	-0,001
1084	-0,001
1084,5	-0
1084,9	-0,001
1085,3	-0,003
1085,7	-0,003
1086,1	-0,005
1086,5	-0,005
1086,9	-0,006
1087,3	-0,006
1087,7	-0,006
1088,2	-0,006
1088,6	-0,006
1089	-0,003
1089,4	-0
1089,8	0,002
1090,2	0,001
1090,6	-0,001
1091	-0,002
1091,4	-0,001
1091,9	-0,001
1092,3	-0,004
1092,7	-0,004
1093,1	-0,003
1093,5	0
1093,9	0,004
1094,3	0,004
1094,7	0,005
1095,1	0,007
1095,5	0,002
1096	-0,002
1096,4	-0,003
1096,8	-0,003
1097,2	-0,005
1097,6	-0,007
1098	-0,01
1098,4	-0,006
1098,8	-0,002
1099,2	-0,007
1099,6	-0,008
1100,1	-0,013
1100,5	-0,018
1100,9	-0,018
1101,3	-0,016
1101,7	-0,017
1102,1	-0,013
1102,5	-0,015
1102,9	-0,007
1103,3	-0,001
1103,7	0,007
1104,2	0,009
1104,6	0,008
1105	0,014
1105,4	0,024
1105,8	0,02
1106,2	0,022
1106,6	0,023
1107	0,017
1107,4	0,024
1107,8	0,022
1108,3	-0
