Data from Absorbance_00010.txt Node
Date: Thu Aug 10 15:00:25 MSK 2023
User: vat
Spectrometer: MAYP114033
Trigger mode: 0
Integration Time (sec): 8,000000E-3
Scans to average: 10
Electric dark correction enabled: true
Nonlinearity correction enabled: false
Boxcar width: 3
XAxis mode: Wavelengths
Number of Pixels in Spectrum: 2068
>>>>>Begin Spectral Data<<<<<
199,4	-0
199,9	-0
200,4	0,838
200,8	1,014
201,3	1,038
201,8	1,03
202,2	1,005
202,7	1,038
203,2	1,057
203,6	1,092
204,1	1,105
204,6	1,118
205	1,153
205,5	1,207
206	1,224
206,4	1,255
206,9	1,263
207,4	1,278
207,8	1,294
208,3	1,279
208,8	1,281
209,2	1,283
209,7	1,279
210,2	1,301
210,6	1,315
211,1	1,34
211,5	1,356
212	1,366
212,5	1,381
212,9	1,398
213,4	1,405
213,9	1,393
214,3	1,391
214,8	1,42
215,3	1,437
215,7	1,451
216,2	1,478
216,7	1,501
217,1	1,541
217,6	1,553
218,1	1,563
218,5	1,572
219	1,574
219,5	1,593
219,9	1,58
220,4	1,587
220,9	1,615
221,3	1,629
221,8	1,634
222,3	1,667
222,7	1,666
223,2	1,71
223,6	1,721
224,1	1,732
224,6	1,766
225	1,796
225,5	1,796
226	1,821
226,4	1,811
226,9	1,823
227,4	1,851
227,8	1,825
228,3	1,836
228,8	1,865
229,2	1,878
229,7	1,918
230,2	1,949
230,6	1,93
231,1	1,953
231,5	1,963
232	1,96
232,5	1,971
232,9	1,968
233,4	1,999
233,9	2,031
234,3	2,034
234,8	2,03
235,3	2,041
235,7	2,04
236,2	2,052
236,7	2,029
237,1	2,028
237,6	2,051
238,1	2,069
238,5	2,076
239	2,087
239,4	2,099
239,9	2,104
240,4	2,119
240,8	2,116
241,3	2,115
241,8	2,128
242,2	2,129
242,7	2,113
243,2	2,136
243,6	2,124
244,1	2,134
244,6	2,135
245	2,137
245,5	2,146
245,9	2,126
246,4	2,127
246,9	2,122
247,3	2,12
247,8	2,14
248,3	2,141
248,7	2,131
249,2	2,171
249,7	2,162
250,1	2,17
250,6	2,175
251	2,166
251,5	2,166
252	2,186
252,4	2,182
252,9	2,18
253,4	2,193
253,8	2,207
254,3	2,204
254,8	2,196
255,2	2,206
255,7	2,215
256,1	2,211
256,6	2,237
257,1	2,221
257,5	2,228
258	2,236
258,5	2,214
258,9	2,218
259,4	2,238
259,9	2,234
260,3	2,243
260,8	2,266
261,2	2,269
261,7	2,273
262,2	2,256
262,6	2,248
263,1	2,232
263,6	2,22
264	2,212
264,5	2,208
264,9	2,232
265,4	2,239
265,9	2,231
266,3	2,218
266,8	2,221
267,3	2,207
267,7	2,221
268,2	2,196
268,7	2,207
269,1	2,217
269,6	2,228
270	2,241
270,5	2,236
271	2,215
271,4	2,233
271,9	2,252
272,4	2,251
272,8	2,282
273,3	2,276
273,7	2,293
274,2	2,326
274,7	2,327
275,1	2,288
275,6	2,3
276,1	2,281
276,5	2,292
277	2,293
277,4	2,302
277,9	2,314
278,4	2,318
278,8	2,305
279,3	2,289
279,8	2,276
280,2	2,291
280,7	2,279
281,1	2,27
281,6	2,272
282,1	2,27
282,5	2,282
283	2,295
283,4	2,252
283,9	2,243
284,4	2,245
284,8	2,243
285,3	2,243
285,8	2,249
286,2	2,232
286,7	2,238
287,1	2,221
287,6	2,194
288,1	2,167
288,5	2,137
289	2,088
289,5	2,055
289,9	2,012
290,4	1,971
290,8	1,928
291,3	1,891
291,8	1,844
292,2	1,806
292,7	1,771
293,1	1,739
293,6	1,716
294,1	1,696
294,5	1,671
295	1,655
295,5	1,642
295,9	1,622
296,4	1,603
296,8	1,586
297,3	1,566
297,8	1,555
298,2	1,539
298,7	1,519
299,1	1,508
299,6	1,497
300,1	1,481
300,5	1,469
301	1,457
301,5	1,445
301,9	1,437
302,4	1,428
302,8	1,417
303,3	1,406
303,8	1,396
304,2	1,379
304,7	1,371
305,1	1,36
305,6	1,346
306,1	1,333
306,5	1,318
307	1,303
307,4	1,295
307,9	1,28
308,4	1,265
308,8	1,25
309,3	1,239
309,8	1,229
310,2	1,219
310,7	1,204
311,1	1,19
311,6	1,178
312,1	1,166
312,5	1,154
313	1,142
313,4	1,125
313,9	1,112
314,4	1,1
314,8	1,087
315,3	1,071
315,7	1,056
316,2	1,042
316,7	1,031
317,1	1,018
317,6	1,004
318	0,991
318,5	0,98
319	0,965
319,4	0,951
319,9	0,938
320,3	0,925
320,8	0,911
321,3	0,897
321,7	0,884
322,2	0,873
322,6	0,862
323,1	0,849
323,6	0,836
324	0,823
324,5	0,812
324,9	0,8
325,4	0,787
325,9	0,774
326,3	0,762
326,8	0,75
327,2	0,738
327,7	0,725
328,2	0,713
328,6	0,7
329,1	0,688
329,5	0,675
330	0,663
330,5	0,65
330,9	0,637
331,4	0,624
331,8	0,613
332,3	0,602
332,8	0,59
333,2	0,579
333,7	0,567
334,1	0,557
334,6	0,546
335,1	0,535
335,5	0,523
336	0,512
336,4	0,501
336,9	0,492
337,4	0,482
337,8	0,47
338,3	0,461
338,7	0,452
339,2	0,442
339,7	0,434
340,1	0,423
340,6	0,415
341	0,407
341,5	0,398
342	0,389
342,4	0,381
342,9	0,374
343,3	0,367
343,8	0,36
344,2	0,351
344,7	0,345
345,2	0,338
345,6	0,33
346,1	0,323
346,5	0,316
347	0,309
347,5	0,303
347,9	0,297
348,4	0,291
348,8	0,285
349,3	0,279
349,8	0,273
350,2	0,267
350,7	0,261
351,1	0,255
351,6	0,25
352	0,245
352,5	0,24
353	0,235
353,4	0,231
353,9	0,227
354,3	0,223
354,8	0,219
355,3	0,215
355,7	0,211
356,2	0,207
356,6	0,203
357,1	0,198
357,5	0,195
358	0,191
358,5	0,187
358,9	0,182
359,4	0,179
359,8	0,175
360,3	0,173
360,8	0,169
361,2	0,166
361,7	0,164
362,1	0,161
362,6	0,158
363	0,155
363,5	0,151
364	0,148
364,4	0,146
364,9	0,143
365,3	0,14
365,8	0,137
366,3	0,134
366,7	0,132
367,2	0,129
367,6	0,127
368,1	0,124
368,5	0,122
369	0,12
369,5	0,118
369,9	0,116
370,4	0,114
370,8	0,112
371,3	0,11
371,7	0,108
372,2	0,106
372,7	0,103
373,1	0,101
373,6	0,1
374	0,097
374,5	0,096
374,9	0,094
375,4	0,092
375,9	0,091
376,3	0,089
376,8	0,087
377,2	0,086
377,7	0,085
378,2	0,083
378,6	0,082
379,1	0,081
379,5	0,078
380	0,077
380,4	0,076
380,9	0,074
381,4	0,073
381,8	0,071
382,3	0,07
382,7	0,069
383,2	0,067
383,6	0,067
384,1	0,065
384,6	0,064
385	0,063
385,5	0,062
385,9	0,06
386,4	0,059
386,8	0,057
387,3	0,057
387,7	0,056
388,2	0,056
388,7	0,055
389,1	0,054
389,6	0,053
390	0,053
390,5	0,051
390,9	0,051
391,4	0,05
391,9	0,05
392,3	0,049
392,8	0,049
393,2	0,047
393,7	0,046
394,1	0,045
394,6	0,044
395,1	0,043
395,5	0,042
396	0,042
396,4	0,042
396,9	0,041
397,3	0,04
397,8	0,04
398,2	0,039
398,7	0,039
399,2	0,038
399,6	0,036
400,1	0,036
400,5	0,036
401	0,035
401,4	0,034
401,9	0,034
402,4	0,033
402,8	0,033
403,3	0,033
403,7	0,032
404,2	0,032
404,6	0,031
405,1	0,03
405,5	0,03
406	0,029
406,5	0,029
406,9	0,029
407,4	0,029
407,8	0,028
408,3	0,027
408,7	0,027
409,2	0,026
409,6	0,025
410,1	0,025
410,6	0,024
411	0,025
411,5	0,024
411,9	0,023
412,4	0,023
412,8	0,022
413,3	0,022
413,7	0,022
414,2	0,021
414,7	0,021
415,1	0,021
415,6	0,021
416	0,02
416,5	0,02
416,9	0,019
417,4	0,019
417,8	0,018
418,3	0,018
418,8	0,017
419,2	0,017
419,7	0,017
420,1	0,017
420,6	0,016
421	0,016
421,5	0,015
421,9	0,015
422,4	0,015
422,8	0,014
423,3	0,014
423,8	0,014
424,2	0,014
424,7	0,014
425,1	0,013
425,6	0,013
426	0,013
426,5	0,012
426,9	0,012
427,4	0,011
427,9	0,011
428,3	0,011
428,8	0,011
429,2	0,011
429,7	0,011
430,1	0,011
430,6	0,012
431	0,012
431,5	0,012
431,9	0,012
432,4	0,011
432,8	0,011
433,3	0,01
433,8	0,01
434,2	0,01
434,7	0,009
435,1	0,009
435,6	0,009
436	0,009
436,5	0,01
436,9	0,009
437,4	0,009
437,8	0,009
438,3	0,009
438,8	0,008
439,2	0,008
439,7	0,007
440,1	0,007
440,6	0,007
441	0,007
441,5	0,006
441,9	0,006
442,4	0,006
442,8	0,005
443,3	0,006
443,7	0,005
444,2	0,005
444,7	0,006
445,1	0,006
445,6	0,006
446	0,006
446,5	0,006
446,9	0,006
447,4	0,006
447,8	0,005
448,3	0,004
448,7	0,004
449,2	0,004
449,6	0,004
450,1	0,005
450,6	0,005
451	0,005
451,5	0,005
451,9	0,006
452,4	0,006
452,8	0,006
453,3	0,006
453,7	0,005
454,2	0,005
454,6	0,005
455,1	0,004
455,5	0,004
456	0,004
456,4	0,003
456,9	0,004
457,3	0,004
457,8	0,003
458,3	0,004
458,7	0,004
459,2	0,004
459,6	0,004
460,1	0,004
460,5	0,003
461	0,003
461,4	0,003
461,9	0,003
462,3	0,002
462,8	0,002
463,2	0,002
463,7	0,002
464,1	0,002
464,6	0,002
465	0,003
465,5	0,003
466	0,003
466,4	0,002
466,9	0,002
467,3	0,003
467,8	0,002
468,2	0,002
468,7	0,002
469,1	0,002
469,6	0,002
470	0,002
470,5	0,002
470,9	0,002
471,4	0,002
471,8	0,002
472,3	0,001
472,7	0,002
473,2	0,001
473,6	0,001
474,1	0,001
474,5	0,001
475	0
475,4	-0
475,9	-0,001
476,4	-0,001
476,8	-0,001
477,3	-0,001
477,7	-0
478,2	0
478,6	-0
479,1	0,001
479,5	-0
480	0
480,4	0,001
480,9	-0
481,3	-0
481,8	0,001
482,2	0,001
482,7	0,001
483,1	0,001
483,6	0,001
484	0,001
484,5	0,001
484,9	0,001
485,4	0,001
485,8	0,001
486,3	-0
486,7	-0
487,2	0
487,6	0,001
488,1	0
488,5	0
489	-0
489,4	0,001
489,9	0,001
490,4	0,001
490,8	0
491,3	0
491,7	0
492,2	0
492,6	0
493,1	0
493,5	-0
494	-0
494,4	-0,001
494,9	-0,001
495,3	-0,001
495,8	-0,001
496,2	-0,001
496,7	-0,001
497,1	-0,001
497,6	-0
498	-0
498,5	-0
498,9	-0
499,4	0
499,8	-0
500,3	-0
500,7	-0,001
501,2	-0,001
501,6	-0,002
502,1	-0,001
502,5	-0,001
503	-0,001
503,4	-0,001
503,9	-0,001
504,3	-0
504,8	-0
505,2	-0
505,7	-0,001
506,1	-0,001
506,6	-0
507	-0,001
507,5	-0,001
507,9	-0,001
508,4	-0,001
508,8	-0,001
509,3	-0,001
509,7	-0,001
510,2	-0,001
510,6	-0,001
511,1	-0,001
511,5	-0,002
512	-0,001
512,4	-0,001
512,9	-0,001
513,3	-0,001
513,8	-0,001
514,2	-0,001
514,7	-0,001
515,1	-0,002
515,6	-0,002
516	-0,002
516,5	-0,002
516,9	-0,002
517,4	-0,001
517,8	-0,001
518,3	-0,002
518,7	-0,002
519,2	-0,002
519,6	-0,002
520,1	-0,002
520,5	-0,003
521	-0,002
521,4	-0,001
521,9	-0,001
522,3	-0,001
522,8	-0,001
523,2	-0,001
523,7	-0,001
524,1	-0,002
524,6	-0,002
525	-0,002
525,5	-0,002
525,9	-0,001
526,4	-0,001
526,8	-0,001
527,3	-0,001
527,7	-0,001
528,2	-0,001
528,6	-0,001
529,1	-0,001
529,5	-0,001
530	-0,001
530,4	-0,001
530,9	-0,001
531,3	-0,001
531,8	-0,001
532,2	-0,001
532,6	-0
533,1	-0
533,5	-0
534	-0,001
534,4	-0,001
534,9	-0,001
535,3	-0,001
535,8	-0,001
536,2	-0,001
536,7	-0,001
537,1	-0,001
537,6	-0,001
538	-0,001
538,5	-0,001
538,9	-0,001
539,4	-0,001
539,8	-0,001
540,3	-0,001
540,7	-0,001
541,2	-0,001
541,6	-0,001
542,1	-0,002
542,5	-0,002
543	-0,002
543,4	-0,002
543,9	-0,002
544,3	-0,002
544,8	-0,001
545,2	-0,001
545,7	-0,001
546,1	-0,001
546,5	-0
547	-0
547,4	-0,001
547,9	-0,001
548,3	-0,001
548,8	-0,001
549,2	-0,001
549,7	-0,002
550,1	-0,002
550,6	-0,002
551	-0,001
551,5	-0,002
551,9	-0,002
552,4	-0,001
552,8	-0,001
553,3	-0
553,7	-0,001
554,2	-0,001
554,6	-0
555,1	-0
555,5	-0,001
555,9	-0,001
556,4	-0,001
556,8	-0,001
557,3	-0,001
557,7	-0,002
558,2	-0,002
558,6	-0,001
559,1	-0,001
559,5	-0,002
560	-0,002
560,4	-0,002
560,9	-0,002
561,3	-0,002
561,8	-0,002
562,2	-0,003
562,7	-0,003
563,1	-0,003
563,6	-0,003
564	-0,003
564,4	-0,002
564,9	-0,002
565,3	-0,002
565,8	-0,002
566,2	-0,002
566,7	-0,002
567,1	-0,001
567,6	-0,001
568	-0,002
568,5	-0,002
568,9	-0,002
569,4	-0,002
569,8	-0,002
570,3	-0,002
570,7	-0,002
571,1	-0,002
571,6	-0,002
572	-0,002
572,5	-0,002
572,9	-0,001
573,4	-0,001
573,8	-0,002
574,3	-0,001
574,7	-0,001
575,2	-0,001
575,6	-0,001
576,1	-0,001
576,5	-0,002
576,9	-0,001
577,4	-0,002
577,8	-0,002
578,3	-0,002
578,7	-0,002
579,2	-0,002
579,6	-0,002
580,1	-0,002
580,5	-0,002
581	-0,002
581,4	-0,002
581,9	-0,002
582,3	-0,002
582,7	-0,002
583,2	-0,003
583,6	-0,002
584,1	-0,002
584,5	-0,002
585	-0,002
585,4	-0,001
585,9	-0,001
586,3	-0,001
586,8	-0,001
587,2	-0,001
587,6	-0,001
588,1	-0,001
588,5	-0,001
589	-0,001
589,4	-0,001
589,9	-0,001
590,3	-0,001
590,8	-0,001
591,2	-0,001
591,7	-0,001
592,1	-0,001
592,5	-0,001
593	-0,001
593,4	-0,001
593,9	-0,002
594,3	-0,002
594,8	-0,002
595,2	-0,002
595,7	-0,002
596,1	-0,002
596,6	-0,002
597	-0,002
597,4	-0,002
597,9	-0,002
598,3	-0,002
598,8	-0,002
599,2	-0,002
599,7	-0,002
600,1	-0,002
600,6	-0,002
601	-0,002
601,4	-0,002
601,9	-0,002
602,3	-0,002
602,8	-0,002
603,2	-0,002
603,7	-0,002
604,1	-0,002
604,6	-0,001
605	-0,001
605,4	-0,002
605,9	-0,001
606,3	-0,001
606,8	-0,001
607,2	-0,001
607,7	-0,002
608,1	-0,002
608,6	-0,002
609	-0,002
609,4	-0,002
609,9	-0,002
610,3	-0,002
610,8	-0,002
611,2	-0,002
611,7	-0,002
612,1	-0,002
612,6	-0,002
613	-0,002
613,4	-0,002
613,9	-0,002
614,3	-0,002
614,8	-0,002
615,2	-0,002
615,7	-0,002
616,1	-0,002
616,6	-0,002
617	-0,002
617,4	-0,001
617,9	-0,002
618,3	-0,002
618,8	-0,002
619,2	-0,002
619,7	-0,002
620,1	-0,002
620,5	-0,002
621	-0,002
621,4	-0,002
621,9	-0,002
622,3	-0,002
622,8	-0,003
623,2	-0,002
623,6	-0,002
624,1	-0,002
624,5	-0,002
625	-0,002
625,4	-0,002
625,9	-0,002
626,3	-0,002
626,8	-0,002
627,2	-0,002
627,6	-0,002
628,1	-0,002
628,5	-0,002
629	-0,001
629,4	-0,001
629,9	-0,001
630,3	-0,001
630,7	-0,001
631,2	-0,001
631,6	-0,001
632,1	-0,002
632,5	-0,001
633	-0,002
633,4	-0,002
633,8	-0,002
634,3	-0,003
634,7	-0,003
635,2	-0,003
635,6	-0,003
636,1	-0,003
636,5	-0,002
636,9	-0,002
637,4	-0,002
637,8	-0,002
638,3	-0,001
638,7	-0,001
639,2	-0,001
639,6	-0,002
640	-0,002
640,5	-0,002
640,9	-0,002
641,4	-0,002
641,8	-0,002
642,2	-0,002
642,7	-0,002
643,1	-0,002
643,6	-0,001
644	-0,002
644,5	-0,002
644,9	-0,001
645,3	-0,001
645,8	-0,001
646,2	-0,001
646,7	-0,002
647,1	-0,002
647,6	-0,002
648	-0,002
648,4	-0,002
648,9	-0,002
649,3	-0,002
649,8	-0,002
650,2	-0,002
650,6	-0,002
651,1	-0,001
651,5	-0,001
652	-0,002
652,4	-0,002
652,9	-0,002
653,3	-0,002
653,7	-0,003
654,2	-0,003
654,6	-0,002
655,1	-0,001
655,5	-0,001
655,9	-0
656,4	-0
656,8	0,001
657,3	0,001
657,7	0,001
658,2	0,001
658,6	0,002
659	0,002
659,5	0,003
659,9	0,001
660,4	0
660,8	-0
661,2	-0
661,7	-0,001
662,1	-0,001
662,6	-0,001
663	-0
663,4	-0,001
663,9	-0,001
664,3	-0,002
664,8	-0,002
665,2	-0,002
665,6	-0,002
666,1	-0,002
666,5	-0,002
667	-0,003
667,4	-0,003
667,9	-0,002
668,3	-0,002
668,7	-0,002
669,2	-0,002
669,6	-0,002
670,1	-0,002
670,5	-0,002
670,9	-0,002
671,4	-0,002
671,8	-0,002
672,3	-0,002
672,7	-0,002
673,1	-0,002
673,6	-0,002
674	-0,002
674,5	-0,002
674,9	-0,002
675,3	-0,001
675,8	-0,001
676,2	-0,002
676,7	-0,001
677,1	-0,002
677,5	-0,002
678	-0,002
678,4	-0,003
678,9	-0,003
679,3	-0,003
679,7	-0,003
680,2	-0,003
680,6	-0,003
681,1	-0,003
681,5	-0,002
681,9	-0,002
682,4	-0,003
682,8	-0,002
683,3	-0,002
683,7	-0,002
684,1	-0,002
684,6	-0,002
685	-0,002
685,5	-0,002
685,9	-0,002
686,3	-0,002
686,8	-0,002
687,2	-0,002
687,7	-0,002
688,1	-0,002
688,5	-0,002
689	-0,002
689,4	-0,002
689,9	-0,002
690,3	-0,002
690,7	-0,002
691,2	-0,002
691,6	-0,002
692	-0,002
692,5	-0,001
692,9	-0,001
693,4	-0,001
693,8	-0,001
694,2	-0,001
694,7	-0,001
695,1	-0,001
695,6	-0,001
696	-0,001
696,4	-0,001
696,9	-0,001
697,3	-0,001
697,8	-0,001
698,2	-0,001
698,6	-0,002
699,1	-0,002
699,5	-0,002
699,9	-0,002
700,4	-0,002
700,8	-0,002
701,3	-0,002
701,7	-0,001
702,1	-0,002
702,6	-0,002
703	-0,001
703,5	-0,002
703,9	-0,002
704,3	-0,002
704,8	-0,002
705,2	-0,002
705,6	-0,002
706,1	-0,002
706,5	-0,002
707	-0,002
707,4	-0,002
707,8	-0,002
708,3	-0,002
708,7	-0,002
709,2	-0,002
709,6	-0,002
710	-0,002
710,5	-0,002
710,9	-0,002
711,3	-0,002
711,8	-0,002
712,2	-0,002
712,7	-0,002
713,1	-0,001
713,5	-0,001
714	-0,001
714,4	-0,001
714,8	-0,001
715,3	-0,001
715,7	-0,002
716,2	-0,002
716,6	-0,001
717	-0,002
717,5	-0,001
717,9	-0,001
718,3	-0,001
718,8	-0,001
719,2	-0,001
719,7	-0,001
720,1	-0,001
720,5	-0,001
721	-0,001
721,4	-0,001
721,8	-0,002
722,3	-0,002
722,7	-0,002
723,2	-0,002
723,6	-0,002
724	-0,002
724,5	-0,002
724,9	-0,002
725,3	-0,002
725,8	-0,002
726,2	-0,002
726,7	-0,002
727,1	-0,002
727,5	-0,002
728	-0,002
728,4	-0,003
728,8	-0,003
729,3	-0,002
729,7	-0,003
730,1	-0,003
730,6	-0,003
731	-0,002
731,5	-0,002
731,9	-0,003
732,3	-0,003
732,8	-0,003
733,2	-0,002
733,6	-0,002
734,1	-0,002
734,5	-0,002
734,9	-0,002
735,4	-0,002
735,8	-0,002
736,3	-0,001
736,7	-0,001
737,1	-0,001
737,6	-0,001
738	-0,002
738,4	-0,002
738,9	-0,002
739,3	-0,002
739,7	-0,002
740,2	-0,001
740,6	-0,001
741,1	-0,001
741,5	-0,001
741,9	-0,001
742,4	-0,002
742,8	-0,002
743,2	-0,002
743,7	-0,001
744,1	-0,002
744,5	-0,002
745	-0,001
745,4	-0,001
745,8	-0,001
746,3	-0,001
746,7	-0,002
747,2	-0,002
747,6	-0,002
748	-0,002
748,5	-0,002
748,9	-0,002
749,3	-0,002
749,8	-0,002
750,2	-0,002
750,6	-0,002
751,1	-0,002
751,5	-0,003
751,9	-0,003
752,4	-0,003
752,8	-0,003
753,3	-0,003
753,7	-0,003
754,1	-0,002
754,6	-0,002
755	-0,002
755,4	-0,002
755,9	-0,002
756,3	-0,002
756,7	-0,002
757,2	-0,002
757,6	-0,002
758	-0,002
758,5	-0,002
758,9	-0,002
759,3	-0,003
759,8	-0,003
760,2	-0,003
760,6	-0,003
761,1	-0,003
761,5	-0,002
761,9	-0,002
762,4	-0,002
762,8	-0,002
763,3	-0,002
763,7	-0,002
764,1	-0,002
764,6	-0,002
765	-0,003
765,4	-0,003
765,9	-0,003
766,3	-0,003
766,7	-0,003
767,2	-0,003
767,6	-0,003
768	-0,003
768,5	-0,003
768,9	-0,003
769,3	-0,003
769,8	-0,003
770,2	-0,003
770,6	-0,003
771,1	-0,002
771,5	-0,003
771,9	-0,002
772,4	-0,002
772,8	-0,002
773,2	-0,002
773,7	-0,002
774,1	-0,002
774,5	-0,002
775	-0,001
775,4	-0,001
775,8	-0,001
776,3	-0,001
776,7	-0,001
777,1	-0,001
777,6	-0,001
778	-0,001
778,4	-0,001
778,9	-0,001
779,3	-0,001
779,7	-0,001
780,2	-0,002
780,6	-0,002
781	-0,002
781,5	-0,002
781,9	-0,002
782,3	-0,002
782,8	-0,002
783,2	-0,002
783,6	-0,002
784,1	-0,002
784,5	-0,002
784,9	-0,002
785,4	-0,001
785,8	-0,001
786,2	-0,001
786,7	-0
787,1	-0
787,5	-0,001
788	-0,001
788,4	-0,001
788,8	-0,001
789,3	-0,002
789,7	-0,002
790,1	-0,002
790,6	-0,002
791	-0,002
791,4	-0,002
791,9	-0,002
792,3	-0,001
792,7	-0,002
793,2	-0,002
793,6	-0,001
794	-0,001
794,5	-0,002
794,9	-0,001
795,3	-0,001
795,8	-0,001
796,2	-0,001
796,6	-0,001
797,1	-0,001
797,5	-0,001
797,9	-0,002
798,4	-0,002
798,8	-0,002
799,2	-0,002
799,7	-0,002
800,1	-0,002
800,5	-0,002
801	-0,001
801,4	-0,001
801,8	-0,001
802,2	-0,001
802,7	-0,001
803,1	-0,001
803,5	-0,001
804	-0,001
804,4	-0,002
804,8	-0,002
805,3	-0,002
805,7	-0,001
806,1	-0,001
806,6	-0,001
807	-0,001
807,4	-0,001
807,9	-0,001
808,3	-0,001
808,7	-0,002
809,2	-0,002
809,6	-0,002
810	-0,002
810,4	-0,002
810,9	-0,002
811,3	-0,002
811,7	-0,002
812,2	-0,002
812,6	-0,001
813	-0,001
813,5	-0,001
813,9	-0,001
814,3	-0,001
814,8	-0
815,2	-0,001
815,6	-0,001
816,1	-0,001
816,5	-0,002
816,9	-0,002
817,3	-0,002
817,8	-0,003
818,2	-0,003
818,6	-0,003
819,1	-0,003
819,5	-0,002
819,9	-0,002
820,4	-0,002
820,8	-0,002
821,2	-0,002
821,7	-0,002
822,1	-0,002
822,5	-0,002
822,9	-0,002
823,4	-0,002
823,8	-0,002
824,2	-0,002
824,7	-0,002
825,1	-0,002
825,5	-0,002
826	-0,002
826,4	-0,002
826,8	-0,002
827,3	-0,002
827,7	-0,001
828,1	-0,001
828,5	-0,001
829	-0,001
829,4	-0,001
829,8	-0,001
830,3	-0,001
830,7	-0,001
831,1	-0,001
831,6	-0,001
832	-0,001
832,4	-0,001
832,8	-0,002
833,3	-0,002
833,7	-0,002
834,1	-0,002
834,6	-0,003
835	-0,003
835,4	-0,002
835,8	-0,002
836,3	-0,002
836,7	-0,002
837,1	-0,001
837,6	-0,001
838	-0,001
838,4	-0,002
838,9	-0,002
839,3	-0,002
839,7	-0,002
840,1	-0,002
840,6	-0,003
841	-0,003
841,4	-0,002
841,9	-0,002
842,3	-0,002
842,7	-0,002
843,1	-0,002
843,6	-0,002
844	-0,002
844,4	-0,002
844,9	-0,002
845,3	-0,002
845,7	-0,002
846,2	-0,002
846,6	-0,002
847	-0,001
847,4	-0,002
847,9	-0,002
848,3	-0,002
848,7	-0,001
849,2	-0,002
849,6	-0,002
850	-0,002
850,4	-0,002
850,9	-0,001
851,3	-0,001
851,7	-0,001
852,2	-0,001
852,6	-0,001
853	-0,001
853,4	-0,001
853,9	-0,001
854,3	-0,001
854,7	-0
855,2	-0,001
855,6	-0,001
856	-0,001
856,4	-0,001
856,9	-0,001
857,3	-0,001
857,7	-0,001
858,2	-0,001
858,6	-0,002
859	-0,001
859,4	-0,001
859,9	-0,001
860,3	-0,001
860,7	-0,002
861,1	-0,001
861,6	-0,001
862	-0,002
862,4	-0,002
862,9	-0,002
863,3	-0,002
863,7	-0,002
864,1	-0,002
864,6	-0,002
865	-0,002
865,4	-0,001
865,9	-0,001
866,3	-0,001
866,7	-0,001
867,1	-0,001
867,6	-0,001
868	-0,002
868,4	-0,002
868,8	-0,002
869,3	-0,002
869,7	-0,002
870,1	-0,003
870,6	-0,002
871	-0,002
871,4	-0,002
871,8	-0,002
872,3	-0,002
872,7	-0,002
873,1	-0,001
873,5	-0,001
874	-0,001
874,4	-0,001
874,8	-0,001
875,3	-0,001
875,7	-0,001
876,1	-0,001
876,5	-0,001
877	-0,001
877,4	-0,001
877,8	-0,001
878,2	-0,002
878,7	-0,002
879,1	-0,003
879,5	-0,002
879,9	-0,003
880,4	-0,003
880,8	-0,003
881,2	-0,002
881,7	-0,002
882,1	-0,002
882,5	-0,002
882,9	-0,002
883,4	-0,003
883,8	-0,003
884,2	-0,002
884,6	-0,002
885,1	-0,002
885,5	-0,002
885,9	-0,002
886,3	-0,002
886,8	-0,002
887,2	-0,002
887,6	-0,002
888	-0,002
888,5	-0,002
888,9	-0,002
889,3	-0,002
889,8	-0,002
890,2	-0,002
890,6	-0,002
891	-0,002
891,5	-0,002
891,9	-0,002
892,3	-0,002
892,7	-0,002
893,2	-0,002
893,6	-0,002
894	-0,003
894,4	-0,003
894,9	-0,002
895,3	-0,003
895,7	-0,003
896,1	-0,003
896,6	-0,003
897	-0,002
897,4	-0,002
897,8	-0,002
898,3	-0,003
898,7	-0,003
899,1	-0,003
899,5	-0,002
900	-0,002
900,4	-0,002
900,8	-0,002
901,2	-0,002
901,7	-0,002
902,1	-0,002
902,5	-0,002
902,9	-0,002
903,4	-0,002
903,8	-0,002
904,2	-0,002
904,6	-0,002
905,1	-0,002
905,5	-0,002
905,9	-0,002
906,3	-0,002
906,8	-0,002
907,2	-0,003
907,6	-0,002
908	-0,002
908,5	-0,002
908,9	-0,002
909,3	-0,002
909,7	-0,002
910,2	-0,002
910,6	-0,002
911	-0,002
911,4	-0,002
911,9	-0,002
912,3	-0,002
912,7	-0,002
913,1	-0,002
913,6	-0,003
914	-0,002
914,4	-0,002
914,8	-0,002
915,3	-0,002
915,7	-0,003
916,1	-0,002
916,5	-0,002
916,9	-0,002
917,4	-0,002
917,8	-0,003
918,2	-0,002
918,6	-0,002
919,1	-0,002
919,5	-0,002
919,9	-0,002
920,3	-0,002
920,8	-0,002
921,2	-0,002
921,6	-0,002
922	-0,002
922,5	-0,002
922,9	-0,003
923,3	-0,002
923,7	-0,002
924,2	-0,002
924,6	-0,003
925	-0,003
925,4	-0,003
925,8	-0,002
926,3	-0,002
926,7	-0,002
927,1	-0,003
927,5	-0,003
928	-0,003
928,4	-0,002
928,8	-0,003
929,2	-0,003
929,7	-0,003
930,1	-0,003
930,5	-0,003
930,9	-0,003
931,3	-0,003
931,8	-0,003
932,2	-0,003
932,6	-0,003
933	-0,003
933,5	-0,003
933,9	-0,003
934,3	-0,003
934,7	-0,003
935,2	-0,003
935,6	-0,003
936	-0,003
936,4	-0,003
936,8	-0,003
937,3	-0,003
937,7	-0,003
938,1	-0,002
938,5	-0,002
939	-0,002
939,4	-0,002
939,8	-0,002
940,2	-0,001
940,6	-0,001
941,1	-0,001
941,5	-0,002
941,9	-0,002
942,3	-0,002
942,8	-0,002
943,2	-0,002
943,6	-0,002
944	-0,003
944,4	-0,003
944,9	-0,002
945,3	-0,003
945,7	-0,003
946,1	-0,002
946,6	-0,002
947	-0,002
947,4	-0,002
947,8	-0,002
948,2	-0,003
948,7	-0,003
949,1	-0,004
949,5	-0,004
949,9	-0,003
950,3	-0,004
950,8	-0,004
951,2	-0,004
951,6	-0,004
952	-0,004
952,5	-0,003
952,9	-0,003
953,3	-0,003
953,7	-0,003
954,1	-0,003
954,6	-0,003
955	-0,003
955,4	-0,003
955,8	-0,003
956,2	-0,002
956,7	-0,002
957,1	-0,002
957,5	-0,002
957,9	-0,002
958,3	-0,002
958,8	-0,001
959,2	-0,001
959,6	-0,002
960	-0,002
960,5	-0,002
960,9	-0,002
961,3	-0,002
961,7	-0,003
962,1	-0,003
962,6	-0,003
963	-0,003
963,4	-0,002
963,8	-0,002
964,2	-0,001
964,7	-0,001
965,1	-0,001
965,5	-0,001
965,9	-0,002
966,3	-0,002
966,8	-0,002
967,2	-0,002
967,6	-0,002
968	-0,002
968,4	-0,001
968,9	-0,001
969,3	-0,001
969,7	-0,001
970,1	-0,001
970,5	-0,001
971	-0,001
971,4	-0,001
971,8	-0,001
972,2	-0,001
972,6	-0,002
973,1	-0,002
973,5	-0,002
973,9	-0,002
974,3	-0,002
974,7	-0,002
975,2	-0,002
975,6	-0,001
976	-0,002
976,4	-0,002
976,8	-0,002
977,3	-0,002
977,7	-0,002
978,1	-0,003
978,5	-0,002
978,9	-0,002
979,4	-0,002
979,8	-0,002
980,2	-0,002
980,6	-0,002
981	-0,002
981,5	-0,002
981,9	-0,002
982,3	-0,001
982,7	-0,001
983,1	-0,001
983,6	-0,002
984	-0,002
984,4	-0,002
984,8	-0,002
985,2	-0,002
985,6	-0,002
986,1	-0,002
986,5	-0,001
986,9	-0
987,3	0,001
987,7	0
988,2	0
988,6	0
989	0
989,4	-0
989,8	-0
990,3	-0,001
990,7	-0
991,1	-0,001
991,5	-0
991,9	-0
992,3	-0,001
992,8	-0,001
993,2	-0,001
993,6	-0,001
994	-0,001
994,4	-0,001
994,9	-0,001
995,3	-0,002
995,7	-0,002
996,1	-0,001
996,5	-0,001
996,9	-0,001
997,4	-0,002
997,8	-0,002
998,2	-0,002
998,6	-0,002
999	-0,002
999,5	-0,002
999,9	-0,002
1000,3	-0,002
1000,7	-0,002
1001,1	-0,002
1001,5	-0,002
1002	-0,002
1002,4	-0,002
1002,8	-0,002
1003,2	-0,002
1003,6	-0,002
1004	-0,003
1004,5	-0,003
1004,9	-0,002
1005,3	-0,003
1005,7	-0,002
1006,1	-0,002
1006,6	-0,002
1007	-0,001
1007,4	-0,001
1007,8	-0,002
1008,2	-0,001
1008,6	-0,002
1009,1	-0,002
1009,5	-0,002
1009,9	-0,002
1010,3	-0,002
1010,7	-0,001
1011,1	-0,001
1011,6	-0,002
1012	-0,002
1012,4	-0,002
1012,8	-0,002
1013,2	-0,002
1013,6	-0,003
1014,1	-0,003
1014,5	-0,003
1014,9	-0,003
1015,3	-0,003
1015,7	-0,003
1016,1	-0,004
1016,6	-0,003
1017	-0,003
1017,4	-0,004
1017,8	-0,004
1018,2	-0,004
1018,6	-0,004
1019,1	-0,003
1019,5	-0,003
1019,9	-0,003
1020,3	-0,003
1020,7	-0,003
1021,1	-0,002
1021,6	-0,001
1022	-0,002
1022,4	-0,002
1022,8	-0,002
1023,2	-0,002
1023,6	-0,002
1024,1	-0,002
1024,5	-0,002
1024,9	-0,003
1025,3	-0,003
1025,7	-0,003
1026,1	-0,003
1026,6	-0,002
1027	-0,003
1027,4	-0,003
1027,8	-0,003
1028,2	-0,003
1028,6	-0,003
1029	-0,003
1029,5	-0,003
1029,9	-0,003
1030,3	-0,003
1030,7	-0,002
1031,1	-0,003
1031,5	-0,004
1032	-0,003
1032,4	-0,004
1032,8	-0,004
1033,2	-0,003
1033,6	-0,003
1034	-0,003
1034,4	-0,003
1034,9	-0,003
1035,3	-0,003
1035,7	-0,002
1036,1	-0,002
1036,5	-0,002
1036,9	-0,002
1037,4	-0,001
1037,8	-0
1038,2	0
1038,6	0,001
1039	0,001
1039,4	0,001
1039,8	0
1040,3	-0
1040,7	-0,001
1041,1	-0,001
1041,5	-0,001
1041,9	-0
1042,3	-0,001
1042,7	-0,001
1043,2	-0,001
1043,6	-0,001
1044	-0,001
1044,4	-0,001
1044,8	-0,001
1045,2	-0,001
1045,6	-0,001
1046,1	-0
1046,5	0
1046,9	0
1047,3	0
1047,7	0
1048,1	0
1048,5	0
1049	-0
1049,4	-0
1049,8	0
1050,2	0
1050,6	0
1051	0,001
1051,4	0,001
1051,9	-0
1052,3	-0,001
1052,7	-0,002
1053,1	-0,003
1053,5	-0,003
1053,9	-0,003
1054,3	-0,002
1054,8	-0,001
1055,2	-0,001
1055,6	-0,001
1056	-0
1056,4	0,001
1056,8	0,001
1057,2	0,001
1057,6	0,001
1058,1	0,001
1058,5	0
1058,9	0,001
1059,3	-0,001
1059,7	-0,001
1060,1	-0,001
1060,5	-0,001
1061	-0,001
1061,4	-0,001
1061,8	-0,002
1062,2	-0,001
1062,6	-0,001
1063	-0
1063,4	-0,001
1063,8	-0,001
1064,3	0,001
1064,7	0,001
1065,1	0,001
1065,5	0,001
1065,9	0
1066,3	0,001
1066,7	0
1067,1	-0,001
1067,6	-0
1068	0
1068,4	0
1068,8	0
1069,2	-0
1069,6	-0
1070	0
1070,4	-0
1070,9	-0,001
1071,3	-0
1071,7	0
1072,1	0,001
1072,5	0,001
1072,9	0,001
1073,3	0,001
1073,7	0,001
1074,2	0
1074,6	0,001
1075	0
1075,4	0,001
1075,8	0
1076,2	-0
1076,6	-0,001
1077	-0
1077,5	-0,001
1077,9	-0,001
1078,3	-0,002
1078,7	-0,003
1079,1	-0,002
1079,5	-0,003
1079,9	-0,002
1080,3	-0,003
1080,7	-0,004
1081,2	-0,003
1081,6	-0,003
1082	-0,002
1082,4	-0,001
1082,8	-0,002
1083,2	-0,002
1083,6	-0,001
1084	-0,002
1084,5	-0,002
1084,9	-0,004
1085,3	-0,005
1085,7	-0,003
1086,1	-0,003
1086,5	-0,005
1086,9	-0,005
1087,3	-0,004
1087,7	-0,003
1088,2	-0,001
1088,6	-0,003
1089	-0,001
1089,4	0,003
1089,8	0,006
1090,2	0,005
1090,6	0,002
1091	0,001
1091,4	0,001
1091,9	0
1092,3	-0,003
1092,7	-0,003
1093,1	-0,002
1093,5	0,004
1093,9	0,007
1094,3	0,013
1094,7	0,01
1095,1	0,012
1095,5	0,008
1096	0,006
1096,4	0,001
1096,8	-0
1097,2	-0,006
1097,6	0,002
1098	0,005
1098,4	0,007
1098,8	0,008
1099,2	0,008
1099,6	0,011
1100,1	0,013
1100,5	0,01
1100,9	0,008
1101,3	0,016
1101,7	0,025
1102,1	0,026
1102,5	0,024
1102,9	0,031
1103,3	0,035
1103,7	0,047
1104,2	0,042
1104,6	0,039
1105	0,036
1105,4	0,043
1105,8	0,039
1106,2	0,029
1106,6	0,011
1107	0,014
1107,4	0,003
1107,8	0,021
1108,3	-0
