Data from Absorbance_00023.txt Node
Date: Thu Aug 10 15:25:38 MSK 2023
User: vat
Spectrometer: MAYP114033
Trigger mode: 0
Integration Time (sec): 8,000000E-3
Scans to average: 10
Electric dark correction enabled: true
Nonlinearity correction enabled: false
Boxcar width: 3
XAxis mode: Wavelengths
Number of Pixels in Spectrum: 2068
>>>>>Begin Spectral Data<<<<<
199,4	-0
199,9	0,793
200,4	0,658
200,8	0,906
201,3	0,944
201,8	0,951
202,2	0,941
202,7	0,988
203,2	1,032
203,6	1,065
204,1	1,079
204,6	1,083
205	1,122
205,5	1,162
206	1,18
206,4	1,204
206,9	1,216
207,4	1,229
207,8	1,275
208,3	1,289
208,8	1,313
209,2	1,317
209,7	1,307
210,2	1,343
210,6	1,352
211,1	1,345
211,5	1,357
212	1,358
212,5	1,364
212,9	1,383
213,4	1,378
213,9	1,39
214,3	1,402
214,8	1,43
215,3	1,443
215,7	1,462
216,2	1,477
216,7	1,5
217,1	1,517
217,6	1,529
218,1	1,514
218,5	1,515
219	1,533
219,5	1,555
219,9	1,558
220,4	1,569
220,9	1,606
221,3	1,641
221,8	1,68
222,3	1,696
222,7	1,697
223,2	1,72
223,6	1,751
224,1	1,749
224,6	1,769
225	1,791
225,5	1,792
226	1,817
226,4	1,824
226,9	1,819
227,4	1,841
227,8	1,828
228,3	1,835
228,8	1,842
229,2	1,856
229,7	1,886
230,2	1,919
230,6	1,915
231,1	1,94
231,5	1,936
232	1,95
232,5	1,956
232,9	1,949
233,4	1,98
233,9	2,01
234,3	2,006
234,8	2,013
235,3	2,036
235,7	2,039
236,2	2,047
236,7	2,034
237,1	2,022
237,6	2,046
238,1	2,054
238,5	2,075
239	2,106
239,4	2,135
239,9	2,137
240,4	2,166
240,8	2,175
241,3	2,181
241,8	2,181
242,2	2,155
242,7	2,135
243,2	2,136
243,6	2,123
244,1	2,136
244,6	2,14
245	2,136
245,5	2,161
245,9	2,147
246,4	2,133
246,9	2,139
247,3	2,135
247,8	2,136
248,3	2,131
248,7	2,115
249,2	2,156
249,7	2,159
250,1	2,151
250,6	2,143
251	2,15
251,5	2,158
252	2,172
252,4	2,157
252,9	2,179
253,4	2,199
253,8	2,214
254,3	2,222
254,8	2,222
255,2	2,218
255,7	2,236
256,1	2,231
256,6	2,227
257,1	2,213
257,5	2,219
258	2,232
258,5	2,242
258,9	2,24
259,4	2,244
259,9	2,251
260,3	2,26
260,8	2,272
261,2	2,272
261,7	2,268
262,2	2,256
262,6	2,258
263,1	2,254
263,6	2,237
264	2,211
264,5	2,199
264,9	2,203
265,4	2,216
265,9	2,222
266,3	2,208
266,8	2,225
267,3	2,23
267,7	2,252
268,2	2,243
268,7	2,239
269,1	2,231
269,6	2,239
270	2,248
270,5	2,246
271	2,212
271,4	2,231
271,9	2,242
272,4	2,259
272,8	2,282
273,3	2,292
273,7	2,291
274,2	2,346
274,7	2,324
275,1	2,311
275,6	2,294
276,1	2,284
276,5	2,254
277	2,254
277,4	2,212
277,9	2,222
278,4	2,216
278,8	2,225
279,3	2,205
279,8	2,215
280,2	2,24
280,7	2,264
281,1	2,269
281,6	2,28
282,1	2,271
282,5	2,292
283	2,308
283,4	2,281
283,9	2,3
284,4	2,288
284,8	2,273
285,3	2,278
285,8	2,271
286,2	2,257
286,7	2,257
287,1	2,212
287,6	2,194
288,1	2,185
288,5	2,148
289	2,113
289,5	2,064
289,9	2,015
290,4	1,97
290,8	1,92
291,3	1,866
291,8	1,816
292,2	1,771
292,7	1,732
293,1	1,696
293,6	1,664
294,1	1,64
294,5	1,612
295	1,589
295,5	1,567
295,9	1,545
296,4	1,526
296,8	1,508
297,3	1,485
297,8	1,47
298,2	1,456
298,7	1,445
299,1	1,436
299,6	1,425
300,1	1,415
300,5	1,408
301	1,399
301,5	1,392
301,9	1,381
302,4	1,372
302,8	1,365
303,3	1,357
303,8	1,35
304,2	1,342
304,7	1,333
305,1	1,327
305,6	1,318
306,1	1,308
306,5	1,3
307	1,291
307,4	1,283
307,9	1,276
308,4	1,269
308,8	1,261
309,3	1,251
309,8	1,241
310,2	1,233
310,7	1,223
311,1	1,215
311,6	1,202
312,1	1,191
312,5	1,185
313	1,178
313,4	1,167
313,9	1,157
314,4	1,145
314,8	1,136
315,3	1,127
315,7	1,114
316,2	1,102
316,7	1,092
317,1	1,082
317,6	1,073
318	1,064
318,5	1,054
319	1,043
319,4	1,034
319,9	1,023
320,3	1,01
320,8	1,001
321,3	0,988
321,7	0,976
322,2	0,966
322,6	0,956
323,1	0,946
323,6	0,938
324	0,927
324,5	0,917
324,9	0,907
325,4	0,898
325,9	0,887
326,3	0,876
326,8	0,866
327,2	0,855
327,7	0,845
328,2	0,833
328,6	0,822
329,1	0,811
329,5	0,8
330	0,789
330,5	0,778
330,9	0,767
331,4	0,757
331,8	0,747
332,3	0,737
332,8	0,727
333,2	0,717
333,7	0,707
334,1	0,697
334,6	0,686
335,1	0,676
335,5	0,666
336	0,654
336,4	0,644
336,9	0,634
337,4	0,625
337,8	0,615
338,3	0,605
338,7	0,596
339,2	0,587
339,7	0,577
340,1	0,567
340,6	0,557
341	0,547
341,5	0,537
342	0,527
342,4	0,519
342,9	0,51
343,3	0,501
343,8	0,493
344,2	0,484
344,7	0,476
345,2	0,468
345,6	0,459
346,1	0,451
346,5	0,444
347	0,435
347,5	0,428
347,9	0,419
348,4	0,411
348,8	0,404
349,3	0,396
349,8	0,388
350,2	0,382
350,7	0,374
351,1	0,367
351,6	0,36
352	0,354
352,5	0,347
353	0,341
353,4	0,334
353,9	0,328
354,3	0,323
354,8	0,317
355,3	0,311
355,7	0,305
356,2	0,299
356,6	0,293
357,1	0,287
357,5	0,281
358	0,276
358,5	0,271
358,9	0,266
359,4	0,261
359,8	0,257
360,3	0,252
360,8	0,247
361,2	0,242
361,7	0,238
362,1	0,233
362,6	0,229
363	0,224
363,5	0,22
364	0,217
364,4	0,213
364,9	0,209
365,3	0,206
365,8	0,202
366,3	0,199
366,7	0,195
367,2	0,191
367,6	0,188
368,1	0,184
368,5	0,181
369	0,178
369,5	0,174
369,9	0,171
370,4	0,169
370,8	0,165
371,3	0,163
371,7	0,16
372,2	0,157
372,7	0,155
373,1	0,153
373,6	0,15
374	0,148
374,5	0,145
374,9	0,143
375,4	0,141
375,9	0,139
376,3	0,136
376,8	0,134
377,2	0,131
377,7	0,13
378,2	0,128
378,6	0,126
379,1	0,124
379,5	0,122
380	0,121
380,4	0,119
380,9	0,117
381,4	0,114
381,8	0,112
382,3	0,11
382,7	0,109
383,2	0,107
383,6	0,105
384,1	0,103
384,6	0,102
385	0,1
385,5	0,098
385,9	0,096
386,4	0,095
386,8	0,093
387,3	0,092
387,7	0,091
388,2	0,09
388,7	0,089
389,1	0,088
389,6	0,086
390	0,086
390,5	0,085
390,9	0,084
391,4	0,082
391,9	0,081
392,3	0,08
392,8	0,079
393,2	0,078
393,7	0,076
394,1	0,074
394,6	0,074
395,1	0,072
395,5	0,071
396	0,07
396,4	0,069
396,9	0,068
397,3	0,067
397,8	0,065
398,2	0,064
398,7	0,064
399,2	0,062
399,6	0,061
400,1	0,06
400,5	0,059
401	0,058
401,4	0,058
401,9	0,056
402,4	0,055
402,8	0,055
403,3	0,053
403,7	0,052
404,2	0,052
404,6	0,05
405,1	0,05
405,5	0,049
406	0,048
406,5	0,048
406,9	0,047
407,4	0,046
407,8	0,045
408,3	0,044
408,7	0,044
409,2	0,043
409,6	0,042
410,1	0,042
410,6	0,041
411	0,04
411,5	0,04
411,9	0,039
412,4	0,038
412,8	0,037
413,3	0,036
413,7	0,036
414,2	0,035
414,7	0,034
415,1	0,033
415,6	0,033
416	0,032
416,5	0,032
416,9	0,031
417,4	0,031
417,8	0,03
418,3	0,029
418,8	0,029
419,2	0,028
419,7	0,027
420,1	0,026
420,6	0,025
421	0,025
421,5	0,024
421,9	0,024
422,4	0,023
422,8	0,023
423,3	0,022
423,8	0,022
424,2	0,021
424,7	0,02
425,1	0,02
425,6	0,02
426	0,019
426,5	0,019
426,9	0,018
427,4	0,018
427,9	0,017
428,3	0,016
428,8	0,016
429,2	0,016
429,7	0,016
430,1	0,015
430,6	0,015
431	0,014
431,5	0,014
431,9	0,014
432,4	0,013
432,8	0,013
433,3	0,012
433,8	0,012
434,2	0,012
434,7	0,011
435,1	0,011
435,6	0,011
436	0,01
436,5	0,01
436,9	0,009
437,4	0,009
437,8	0,009
438,3	0,008
438,8	0,008
439,2	0,007
439,7	0,007
440,1	0,007
440,6	0,007
441	0,006
441,5	0,006
441,9	0,005
442,4	0,005
442,8	0,005
443,3	0,005
443,7	0,005
444,2	0,005
444,7	0,005
445,1	0,005
445,6	0,005
446	0,005
446,5	0,005
446,9	0,004
447,4	0,005
447,8	0,004
448,3	0,003
448,7	0,002
449,2	0,003
449,6	0,003
450,1	0,003
450,6	0,003
451	0,003
451,5	0,003
451,9	0,004
452,4	0,003
452,8	0,003
453,3	0,003
453,7	0,003
454,2	0,003
454,6	0,003
455,1	0,002
455,5	0,002
456	0,002
456,4	0,002
456,9	0,002
457,3	0,002
457,8	0,002
458,3	0,002
458,7	0,003
459,2	0,002
459,6	0,002
460,1	0,002
460,5	0,002
461	0,002
461,4	0,001
461,9	0,001
462,3	0,001
462,8	0,001
463,2	0,001
463,7	0,001
464,1	0,002
464,6	0,002
465	0,002
465,5	0,002
466	0,002
466,4	0,001
466,9	0,001
467,3	0,001
467,8	0,001
468,2	0
468,7	0
469,1	0,001
469,6	0
470	0
470,5	0
470,9	0
471,4	0
471,8	-0
472,3	-0,001
472,7	-0,001
473,2	-0,001
473,6	-0,001
474,1	-0,001
474,5	-0,001
475	-0,001
475,4	-0,001
475,9	-0,001
476,4	-0,001
476,8	-0,001
477,3	-0,001
477,7	-0,001
478,2	-0,001
478,6	-0,001
479,1	-0,001
479,5	-0,001
480	-0,001
480,4	-0
480,9	-0,001
481,3	-0,001
481,8	-0
482,2	-0
482,7	-0
483,1	-0
483,6	0
484	0
484,5	0
484,9	0
485,4	-0
485,8	0
486,3	-0,001
486,7	-0,001
487,2	-0,001
487,6	-0,001
488,1	-0,001
488,5	-0
489	-0,001
489,4	0,001
489,9	0,001
490,4	0
490,8	0
491,3	0
491,7	-0
492,2	-0
492,6	0
493,1	0,001
493,5	0,001
494	0,001
494,4	0,001
494,9	0,001
495,3	0,001
495,8	0
496,2	0
496,7	-0
497,1	-0,001
497,6	-0,001
498	-0,001
498,5	-0,001
498,9	-0,001
499,4	-0,001
499,8	-0,001
500,3	-0
500,7	-0,001
501,2	-0,001
501,6	-0,001
502,1	-0,001
502,5	-0,001
503	-0,001
503,4	-0,001
503,9	-0
504,3	-0
504,8	-0,001
505,2	-0,001
505,7	-0,001
506,1	-0,001
506,6	-0,001
507	-0,002
507,5	-0,002
507,9	-0,001
508,4	-0,001
508,8	-0,002
509,3	-0,002
509,7	-0,001
510,2	-0,001
510,6	-0,001
511,1	-0,001
511,5	-0
512	0
512,4	0
512,9	-0,001
513,3	-0
513,8	-0,001
514,2	-0,001
514,7	-0
515,1	-0
515,6	0
516	0
516,5	-0
516,9	0
517,4	0
517,8	0
518,3	-0
518,7	-0,001
519,2	-0,001
519,6	-0,001
520,1	-0,001
520,5	-0,001
521	-0,001
521,4	-0
521,9	-0,001
522,3	-0,001
522,8	-0
523,2	-0
523,7	-0
524,1	-0,001
524,6	-0,001
525	-0,001
525,5	-0,001
525,9	-0,001
526,4	-0,001
526,8	-0,001
527,3	-0
527,7	-0
528,2	-0
528,6	-0
529,1	0
529,5	-0
530	-0
530,4	-0
530,9	0
531,3	0
531,8	-0
532,2	0
532,6	0,001
533,1	0
533,5	0
534	0
534,4	0
534,9	0,001
535,3	0
535,8	0
536,2	0,001
536,7	0
537,1	0,001
537,6	-0
538	0
538,5	0
538,9	0
539,4	-0,001
539,8	-0
540,3	-0,001
540,7	-0
541,2	-0
541,6	-0,001
542,1	-0,001
542,5	-0,001
543	-0,001
543,4	-0,001
543,9	-0,001
544,3	-0,001
544,8	-0,001
545,2	-0
545,7	0
546,1	0,001
546,5	0,001
547	0,001
547,4	0,001
547,9	0,001
548,3	0,001
548,8	0,001
549,2	0,001
549,7	0
550,1	0
550,6	-0
551	0
551,5	-0
551,9	-0
552,4	-0
552,8	-0
553,3	-0
553,7	-0,001
554,2	-0
554,6	0
555,1	0
555,5	-0
555,9	0
556,4	0,001
556,8	0
557,3	0
557,7	0
558,2	0
558,6	0
559,1	-0
559,5	-0,001
560	0
560,4	-0
560,9	-0
561,3	-0,001
561,8	-0
562,2	-0
562,7	-0
563,1	-0
563,6	-0
564	-0,001
564,4	0
564,9	-0
565,3	-0,001
565,8	-0
566,2	-0,001
566,7	-0
567,1	0
567,6	-0
568	-0
568,5	-0
568,9	-0,001
569,4	-0,001
569,8	-0,002
570,3	-0,002
570,7	-0,002
571,1	-0,002
571,6	-0,002
572	-0,002
572,5	-0,001
572,9	-0
573,4	-0
573,8	-0,001
574,3	-0,001
574,7	-0
575,2	-0
575,6	-0
576,1	-0,001
576,5	-0,001
576,9	-0
577,4	-0
577,8	-0,001
578,3	-0,001
578,7	-0,001
579,2	-0,001
579,6	-0,001
580,1	-0,001
580,5	-0,001
581	-0
581,4	-0,001
581,9	-0,001
582,3	-0,001
582,7	-0,001
583,2	-0,001
583,6	-0
584,1	-0
584,5	0
585	0
585,4	0
585,9	0
586,3	0
586,8	0,001
587,2	0
587,6	0
588,1	0,001
588,5	0,001
589	0,001
589,4	0,001
589,9	0,001
590,3	0,001
590,8	0,001
591,2	0,001
591,7	0,001
592,1	0,001
592,5	0,001
593	0
593,4	-0
593,9	-0,001
594,3	-0
594,8	-0,001
595,2	-0,001
595,7	-0,001
596,1	-0
596,6	-0
597	0
597,4	-0
597,9	0
598,3	0
598,8	0
599,2	-0
599,7	-0
600,1	-0
600,6	-0
601	-0
601,4	-0
601,9	-0
602,3	0
602,8	-0
603,2	-0
603,7	-0
604,1	-0
604,6	-0
605	0
605,4	-0
605,9	0
606,3	0
606,8	0,001
607,2	0
607,7	0
608,1	-0
608,6	-0,001
609	-0,001
609,4	-0,001
609,9	-0,001
610,3	-0
610,8	-0,001
611,2	-0,001
611,7	-0,001
612,1	-0,001
612,6	-0
613	-0
613,4	-0
613,9	-0
614,3	-0
614,8	-0
615,2	-0
615,7	-0,001
616,1	-0
616,6	-0
617	-0
617,4	-0
617,9	-0,001
618,3	-0,001
618,8	-0,001
619,2	-0,001
619,7	-0,001
620,1	-0,001
620,5	-0,001
621	-0
621,4	-0
621,9	0
622,3	-0
622,8	-0
623,2	-0,001
623,6	-0,001
624,1	-0,001
624,5	-0,001
625	-0,001
625,4	-0,001
625,9	-0,001
626,3	-0,001
626,8	-0,001
627,2	-0,001
627,6	-0
628,1	0
628,5	0,001
629	0,001
629,4	0,001
629,9	0,001
630,3	0,001
630,7	0,001
631,2	0,001
631,6	0
632,1	0
632,5	0
633	-0
633,4	-0
633,8	-0
634,3	-0,001
634,7	-0
635,2	-0,001
635,6	-0,001
636,1	-0,001
636,5	-0,001
636,9	-0,001
637,4	-0,001
637,8	-0,001
638,3	-0
638,7	-0
639,2	-0
639,6	0
640	0
640,5	0
640,9	0,001
641,4	0
641,8	0,001
642,2	0,001
642,7	0
643,1	0
643,6	0
644	0
644,5	-0
644,9	0
645,3	-0
645,8	-0
646,2	-0
646,7	-0
647,1	-0
647,6	-0
648	-0,001
648,4	-0,001
648,9	-0,001
649,3	-0,001
649,8	-0,001
650,2	-0,001
650,6	-0,001
651,1	-0
651,5	-0
652	-0,001
652,4	-0,001
652,9	-0,001
653,3	-0,001
653,7	-0,001
654,2	-0,001
654,6	-0
655,1	0,001
655,5	0,001
655,9	0,001
656,4	0,001
656,8	0,003
657,3	0,003
657,7	0,004
658,2	0,004
658,6	0,005
659	0,006
659,5	0,01
659,9	0,006
660,4	0,003
660,8	0,002
661,2	0,001
661,7	0,001
662,1	0
662,6	0
663	0
663,4	0
663,9	0
664,3	0
664,8	-0,001
665,2	-0,001
665,6	-0
666,1	-0,001
666,5	-0,001
667	-0,001
667,4	-0,001
667,9	-0,001
668,3	-0,001
668,7	-0,001
669,2	-0,001
669,6	-0,001
670,1	-0,001
670,5	-0,001
670,9	-0,001
671,4	-0,001
671,8	-0,001
672,3	-0,001
672,7	-0,001
673,1	-0,001
673,6	-0,001
674	-0,001
674,5	-0
674,9	0
675,3	0,001
675,8	0,001
676,2	0,001
676,7	0,001
677,1	0,001
677,5	0
678	0
678,4	-0
678,9	-0,001
679,3	-0
679,7	-0,001
680,2	-0
680,6	-0
681,1	-0
681,5	-0
681,9	0
682,4	-0,001
682,8	-0
683,3	-0,001
683,7	-0,001
684,1	-0,001
684,6	-0,001
685	-0,001
685,5	-0,001
685,9	-0,001
686,3	-0,001
686,8	-0,001
687,2	-0,001
687,7	-0,001
688,1	-0
688,5	-0
689	-0
689,4	0
689,9	-0
690,3	-0
690,7	0
691,2	0
691,6	0
692	0
692,5	0
692,9	0,001
693,4	0
693,8	0
694,2	0
694,7	0,001
695,1	0
695,6	0
696	0
696,4	0
696,9	0
697,3	0
697,8	-0
698,2	-0
698,6	-0
699,1	-0
699,5	-0
699,9	-0
700,4	-0,001
700,8	-0
701,3	-0
701,7	-0
702,1	-0
702,6	-0,001
703	-0
703,5	-0
703,9	-0,001
704,3	-0
704,8	-0
705,2	0
705,6	0
706,1	0,001
706,5	0,001
707	0
707,4	-0
707,8	-0
708,3	-0,001
708,7	-0,001
709,2	-0,001
709,6	-0,001
710	-0,001
710,5	-0
710,9	-0
711,3	-0
711,8	-0
712,2	0
712,7	0
713,1	0
713,5	0
714	-0
714,4	-0
714,8	-0
715,3	-0
715,7	-0
716,2	-0,001
716,6	-0
717	0
717,5	0
717,9	-0
718,3	-0
718,8	0
719,2	0,001
719,7	0,001
720,1	0,001
720,5	0
721	0,001
721,4	0,001
721,8	0
722,3	0
722,7	0
723,2	-0
723,6	-0
724	-0,001
724,5	-0
724,9	-0
725,3	-0,001
725,8	-0,001
726,2	-0,001
726,7	-0
727,1	-0
727,5	-0,001
728	-0,001
728,4	-0,001
728,8	-0,001
729,3	-0,001
729,7	-0,001
730,1	-0,001
730,6	-0,002
731	-0,001
731,5	-0,001
731,9	-0,001
732,3	-0,001
732,8	-0,001
733,2	-0,001
733,6	-0
734,1	-0,001
734,5	-0
734,9	-0
735,4	0
735,8	0,001
736,3	0
736,7	0,001
737,1	0,001
737,6	0,001
738	0,001
738,4	0,001
738,9	0
739,3	0,001
739,7	0
740,2	0
740,6	-0
741,1	0
741,5	-0
741,9	-0
742,4	-0
742,8	-0,001
743,2	-0,001
743,7	-0
744,1	-0,001
744,5	-0,001
745	-0
745,4	0
745,8	0
746,3	-0
746,7	-0
747,2	0
747,6	0
748	-0
748,5	-0
748,9	-0
749,3	-0
749,8	0
750,2	-0
750,6	-0
751,1	-0,001
751,5	-0,001
751,9	-0
752,4	-0
752,8	-0
753,3	-0
753,7	-0
754,1	0
754,6	-0
755	-0
755,4	-0
755,9	-0,001
756,3	-0,001
756,7	-0,001
757,2	-0,001
757,6	-0,001
758	-0,001
758,5	-0,001
758,9	-0,001
759,3	-0,001
759,8	-0,001
760,2	-0,001
760,6	-0,001
761,1	-0,001
761,5	-0,001
761,9	-0,001
762,4	-0,001
762,8	-0
763,3	-0,001
763,7	-0
764,1	-0
764,6	-0,001
765	-0,001
765,4	-0,001
765,9	-0,001
766,3	-0,001
766,7	-0,001
767,2	-0,001
767,6	-0,001
768	-0,001
768,5	-0,001
768,9	-0,001
769,3	-0,001
769,8	-0,002
770,2	-0,001
770,6	-0,001
771,1	-0,001
771,5	-0,001
771,9	-0,001
772,4	-0,001
772,8	-0,001
773,2	-0,001
773,7	-0,001
774,1	-0,001
774,5	-0,001
775	-0
775,4	-0,001
775,8	-0
776,3	-0
776,7	-0
777,1	0
777,6	-0
778	-0
778,4	-0
778,9	-0
779,3	-0
779,7	-0
780,2	-0,001
780,6	-0,001
781	-0,001
781,5	-0,001
781,9	-0
782,3	-0
782,8	-0,001
783,2	-0
783,6	-0
784,1	-0
784,5	-0
784,9	-0
785,4	-0
785,8	-0
786,2	-0
786,7	0
787,1	0
787,5	0
788	-0
788,4	0
788,8	-0
789,3	-0,001
789,7	-0,001
790,1	-0,001
790,6	-0,001
791	-0,001
791,4	-0,001
791,9	-0
792,3	0
792,7	0
793,2	0
793,6	0,001
794	0
794,5	0
794,9	0
795,3	-0
795,8	-0
796,2	-0
796,6	0
797,1	0
797,5	0
797,9	0
798,4	0
798,8	0
799,2	-0
799,7	-0
800,1	0
800,5	-0
801	-0
801,4	-0
801,8	-0
802,2	0
802,7	0
803,1	0
803,5	0
804	0
804,4	0
804,8	0
805,3	-0
805,7	-0
806,1	-0
806,6	-0
807	0
807,4	-0
807,9	0
808,3	0
808,7	-0
809,2	-0,001
809,6	-0,001
810	-0,001
810,4	-0,001
810,9	-0,001
811,3	-0,001
811,7	-0,001
812,2	-0
812,6	-0
813	-0
813,5	-0
813,9	-0
814,3	-0,001
814,8	-0
815,2	-0,001
815,6	-0,001
816,1	-0,001
816,5	-0,001
816,9	-0,001
817,3	-0,001
817,8	-0,001
818,2	-0,001
818,6	-0,001
819,1	-0,001
819,5	-0,001
819,9	-0,001
820,4	-0,001
820,8	-0
821,2	-0
821,7	-0
822,1	-0
822,5	-0
822,9	-0
823,4	-0
823,8	-0
824,2	-0
824,7	-0
825,1	-0
825,5	-0
826	0
826,4	0
826,8	0
827,3	0,001
827,7	0,001
828,1	0,001
828,5	0,001
829	0,001
829,4	0,001
829,8	0
830,3	0
830,7	-0
831,1	-0
831,6	-0
832	-0
832,4	-0
832,8	-0,001
833,3	-0,001
833,7	-0,001
834,1	-0,001
834,6	-0,001
835	-0,001
835,4	-0,001
835,8	-0,001
836,3	-0,001
836,7	-0,001
837,1	-0
837,6	-0
838	-0
838,4	-0,001
838,9	-0,001
839,3	-0,001
839,7	-0,001
840,1	-0,001
840,6	-0,001
841	-0,001
841,4	-0
841,9	-0,001
842,3	-0
842,7	-0
843,1	-0
843,6	-0
844	-0
844,4	-0
844,9	-0
845,3	-0,001
845,7	-0
846,2	-0
846,6	-0
847	-0
847,4	-0
847,9	-0
848,3	-0
848,7	-0
849,2	-0
849,6	0
850	0
850,4	0,001
850,9	0,001
851,3	0,001
851,7	0
852,2	0
852,6	0
853	0
853,4	0
853,9	0
854,3	0
854,7	0
855,2	0
855,6	0
856	0
856,4	0
856,9	0
857,3	0,001
857,7	0,001
858,2	0
858,6	-0
859	-0
859,4	-0
859,9	0
860,3	-0
860,7	-0
861,1	-0
861,6	0
862	-0
862,4	-0
862,9	-0
863,3	-0
863,7	-0
864,1	-0
864,6	0
865	0
865,4	0,001
865,9	0
866,3	0,001
866,7	0
867,1	0
867,6	-0
868	-0
868,4	-0,001
868,8	-0,001
869,3	-0,001
869,7	-0,001
870,1	-0,001
870,6	-0,001
871	-0,001
871,4	-0,001
871,8	-0,001
872,3	-0
872,7	-0
873,1	0
873,5	0
874	0
874,4	0
874,8	-0
875,3	-0
875,7	-0
876,1	-0
876,5	-0,001
877	-0,001
877,4	-0,001
877,8	-0,001
878,2	-0,002
878,7	-0,002
879,1	-0,002
879,5	-0,001
879,9	-0,001
880,4	-0,001
880,8	-0,001
881,2	-0,001
881,7	-0,001
882,1	-0,001
882,5	-0,001
882,9	-0,001
883,4	-0,001
883,8	-0,001
884,2	-0,001
884,6	-0,001
885,1	-0,001
885,5	-0,001
885,9	-0,001
886,3	-0,001
886,8	-0,001
887,2	-0,001
887,6	-0,001
888	-0,001
888,5	-0,001
888,9	-0
889,3	-0
889,8	-0
890,2	-0
890,6	-0
891	-0
891,5	-0
891,9	-0,001
892,3	-0,001
892,7	-0
893,2	-0
893,6	-0,001
894	-0,001
894,4	-0,001
894,9	-0,001
895,3	-0,001
895,7	-0,001
896,1	-0,001
896,6	-0,001
897	-0,001
897,4	-0,001
897,8	-0,001
898,3	-0,001
898,7	-0,001
899,1	-0,001
899,5	-0,001
900	-0,001
900,4	-0,001
900,8	-0,001
901,2	-0
901,7	-0
902,1	-0
902,5	0
902,9	0
903,4	0
903,8	0
904,2	0
904,6	-0
905,1	-0
905,5	-0,001
905,9	-0,001
906,3	-0,001
906,8	-0,001
907,2	-0,002
907,6	-0,001
908	-0,001
908,5	-0,001
908,9	-0,001
909,3	-0,001
909,7	-0,001
910,2	-0
910,6	-0
911	0
911,4	-0
911,9	-0
912,3	0
912,7	0
913,1	0
913,6	0
914	0
914,4	0
914,8	0
915,3	-0
915,7	-0
916,1	0
916,5	-0
916,9	-0
917,4	-0,001
917,8	-0,001
918,2	-0,001
918,6	-0,001
919,1	-0,001
919,5	-0,001
919,9	-0,001
920,3	-0,001
920,8	-0,001
921,2	-0,001
921,6	-0,001
922	-0,001
922,5	-0,001
922,9	-0,001
923,3	-0,001
923,7	-0,001
924,2	-0,001
924,6	-0,001
925	-0,001
925,4	-0,002
925,8	-0,001
926,3	-0,001
926,7	-0,001
927,1	-0,001
927,5	-0,001
928	-0,001
928,4	-0
928,8	-0
929,2	-0
929,7	0
930,1	0
930,5	0
930,9	0
931,3	-0
931,8	-0,001
932,2	-0,001
932,6	-0,001
933	-0,001
933,5	-0,001
933,9	-0,001
934,3	-0,001
934,7	-0,001
935,2	-0,001
935,6	-0,001
936	-0,001
936,4	-0,001
936,8	-0,001
937,3	-0,001
937,7	-0,001
938,1	-0
938,5	-0,001
939	-0,001
939,4	-0
939,8	-0
940,2	-0
940,6	-0
941,1	-0,001
941,5	-0
941,9	-0
942,3	0
942,8	-0
943,2	-0,001
943,6	-0,001
944	-0,001
944,4	-0,001
944,9	-0,001
945,3	-0,001
945,7	-0,002
946,1	-0,001
946,6	-0,001
947	-0,001
947,4	-0,002
947,8	-0,002
948,2	-0,002
948,7	-0,002
949,1	-0,001
949,5	-0,002
949,9	-0,002
950,3	-0,001
950,8	-0,001
951,2	-0,001
951,6	-0,001
952	-0,001
952,5	-0
952,9	-0,001
953,3	-0,001
953,7	-0,001
954,1	-0,001
954,6	-0,001
955	-0,001
955,4	-0,001
955,8	0
956,2	0,001
956,7	0,001
957,1	0,001
957,5	0,001
957,9	0,001
958,3	0,001
958,8	0,001
959,2	0,001
959,6	0,001
960	0
960,5	0
960,9	0
961,3	-0,001
961,7	-0,001
962,1	-0,001
962,6	-0,001
963	0
963,4	0
963,8	0,001
964,2	0,002
964,7	0,002
965,1	0,002
965,5	0,002
965,9	0,002
966,3	0,002
966,8	0,002
967,2	0,002
967,6	0,001
968	0
968,4	0,001
968,9	0,001
969,3	0,001
969,7	0,001
970,1	0
970,5	0
971	0
971,4	0
971,8	-0
972,2	0
972,6	-0,001
973,1	-0
973,5	-0
973,9	-0
974,3	-0,001
974,7	-0,001
975,2	-0,001
975,6	-0,001
976	-0,001
976,4	-0,002
976,8	-0,002
977,3	-0,002
977,7	-0,002
978,1	-0,002
978,5	-0,002
978,9	-0,001
979,4	-0,001
979,8	-0,001
980,2	-0
980,6	-0
981	0
981,5	-0
981,9	-0
982,3	0
982,7	0
983,1	0
983,6	0
984	0
984,4	0
984,8	0,001
985,2	0,001
985,6	0,001
986,1	0,001
986,5	0,002
986,9	0,003
987,3	0,004
987,7	0,004
988,2	0,003
988,6	0,003
989	0,003
989,4	0,002
989,8	0,003
990,3	0,002
990,7	0,002
991,1	0,002
991,5	0,002
991,9	0,002
992,3	0,002
992,8	0,002
993,2	0,001
993,6	0,001
994	0
994,4	0
994,9	-0
995,3	-0,001
995,7	-0
996,1	0,001
996,5	0,001
996,9	0,001
997,4	0,001
997,8	0,001
998,2	0
998,6	0
999	-0,001
999,5	-0,001
999,9	-0
1000,3	-0
1000,7	-0,001
1001,1	-0
1001,5	-0,001
1002	-0
1002,4	-0,001
1002,8	-0,001
1003,2	-0,002
1003,6	-0,002
1004	-0,002
1004,5	-0,002
1004,9	-0,002
1005,3	-0,002
1005,7	-0,002
1006,1	-0,002
1006,6	-0,001
1007	-0,002
1007,4	-0,001
1007,8	-0,002
1008,2	-0,001
1008,6	-0,002
1009,1	-0,002
1009,5	-0,002
1009,9	-0,001
1010,3	-0,001
1010,7	-0
1011,1	-0,001
1011,6	-0,001
1012	-0,001
1012,4	-0,002
1012,8	-0,002
1013,2	-0,002
1013,6	-0,002
1014,1	-0,002
1014,5	-0,002
1014,9	-0,002
1015,3	-0,002
1015,7	-0,001
1016,1	-0,001
1016,6	-0,001
1017	-0,001
1017,4	-0,001
1017,8	-0,001
1018,2	-0,001
1018,6	-0,001
1019,1	-0,001
1019,5	-0,001
1019,9	-0,001
1020,3	-0
1020,7	-0
1021,1	-0
1021,6	-0,001
1022	-0
1022,4	-0,001
1022,8	-0,001
1023,2	-0,002
1023,6	-0,002
1024,1	-0,002
1024,5	-0,002
1024,9	-0,002
1025,3	-0,002
1025,7	-0,002
1026,1	-0,001
1026,6	-0,002
1027	-0,002
1027,4	-0,002
1027,8	-0,003
1028,2	-0,003
1028,6	-0,003
1029	-0,003
1029,5	-0,002
1029,9	-0,002
1030,3	-0,002
1030,7	-0,001
1031,1	-0,001
1031,5	-0,001
1032	-0,001
1032,4	-0,001
1032,8	-0,001
1033,2	-0,001
1033,6	-0,001
1034	-0,001
1034,4	-0,001
1034,9	-0,001
1035,3	-0,001
1035,7	-0,001
1036,1	-0,001
1036,5	-0,002
1036,9	-0,002
1037,4	-0,001
1037,8	-0,001
1038,2	-0,001
1038,6	-0
1039	0
1039,4	0,001
1039,8	0,001
1040,3	0,001
1040,7	0,001
1041,1	0,001
1041,5	0,001
1041,9	0,001
1042,3	0
1042,7	-0
1043,2	-0
1043,6	-0,001
1044	-0,001
1044,4	-0,001
1044,8	-0,001
1045,2	-0,001
1045,6	-0,001
1046,1	-0,001
1046,5	0
1046,9	0,001
1047,3	0
1047,7	0,001
1048,1	0,001
1048,5	0
1049	-0
1049,4	-0
1049,8	-0,001
1050,2	-0,001
1050,6	-0,001
1051	0
1051,4	0,001
1051,9	0,001
1052,3	-0
1052,7	-0,001
1053,1	-0,001
1053,5	-0,002
1053,9	-0,003
1054,3	-0,001
1054,8	-0,001
1055,2	-0,001
1055,6	-0
1056	0
1056,4	0,001
1056,8	0,001
1057,2	0,001
1057,6	0,001
1058,1	0,001
1058,5	0
1058,9	0,001
1059,3	0
1059,7	-0,001
1060,1	-0,001
1060,5	-0,002
1061	-0,001
1061,4	-0,002
1061,8	-0,002
1062,2	-0,002
1062,6	-0
1063	0,001
1063,4	0,001
1063,8	0,001
1064,3	0,001
1064,7	0,001
1065,1	0,001
1065,5	-0
1065,9	-0,001
1066,3	0
1066,7	0,001
1067,1	0
1067,6	0,001
1068	0,002
1068,4	0,001
1068,8	0,001
1069,2	-0,001
1069,6	-0
1070	-0
1070,4	-0
1070,9	-0,002
1071,3	-0,002
1071,7	0
1072,1	0,001
1072,5	0
1072,9	0,001
1073,3	0
1073,7	0,001
1074,2	0,002
1074,6	0,001
1075	0
1075,4	-0
1075,8	-0
1076,2	-0,001
1076,6	-0,001
1077	-0,001
1077,5	-0,001
1077,9	-0
1078,3	-0,001
1078,7	-0,001
1079,1	-0,001
1079,5	-0,001
1079,9	-0,002
1080,3	-0,002
1080,7	-0,003
1081,2	-0,001
1081,6	-0,001
1082	0
1082,4	0,002
1082,8	0,004
1083,2	0,004
1083,6	0,003
1084	0,004
1084,5	0,003
1084,9	0,003
1085,3	0,001
1085,7	0,001
1086,1	0
1086,5	-0,001
1086,9	-0,003
1087,3	-0,002
1087,7	-0,002
1088,2	-0,001
1088,6	-0,003
1089	-0,003
1089,4	0,002
1089,8	0,005
1090,2	0,006
1090,6	0,004
1091	0,001
1091,4	0,005
1091,9	0,005
1092,3	0,003
1092,7	0,002
1093,1	0,003
1093,5	0,005
1093,9	0,01
1094,3	0,012
1094,7	0,011
1095,1	0,011
1095,5	0,007
1096	0,002
1096,4	0
1096,8	-0,002
1097,2	-0,003
1097,6	-0
1098	0,001
1098,4	0,004
1098,8	0,008
1099,2	0,011
1099,6	0,012
1100,1	0,008
1100,5	0,004
1100,9	0,001
1101,3	0,003
1101,7	0,004
1102,1	-0,003
1102,5	-0,007
1102,9	-0,006
1103,3	-0
1103,7	0,005
1104,2	0,008
1104,6	0,009
1105	0,019
1105,4	0,028
1105,8	0,031
1106,2	0,024
1106,6	0,023
1107	0,009
1107,4	0,024
1107,8	0,038
1108,3	-0
