Data from Absorbance_00017.txt Node
Date: Thu Aug 10 16:19:58 MSK 2023
User: vat
Spectrometer: MAYP114033
Trigger mode: 0
Integration Time (sec): 8,000000E-3
Scans to average: 10
Electric dark correction enabled: true
Nonlinearity correction enabled: false
Boxcar width: 3
XAxis mode: Wavelengths
Number of Pixels in Spectrum: 2068
>>>>>Begin Spectral Data<<<<<
199,4	0,195
199,9	0,932
200,4	0,695
200,8	1,039
201,3	1,064
201,8	1,112
202,2	1,154
202,7	1,138
203,2	1,183
203,6	1,211
204,1	1,191
204,6	1,195
205	1,185
205,5	1,191
206	1,208
206,4	1,204
206,9	1,22
207,4	1,248
207,8	1,26
208,3	1,291
208,8	1,291
209,2	1,304
209,7	1,324
210,2	1,336
210,6	1,341
211,1	1,37
211,5	1,369
212	1,409
212,5	1,432
212,9	1,451
213,4	1,468
213,9	1,498
214,3	1,505
214,8	1,545
215,3	1,535
215,7	1,559
216,2	1,564
216,7	1,57
217,1	1,585
217,6	1,607
218,1	1,634
218,5	1,65
219	1,663
219,5	1,671
219,9	1,696
220,4	1,709
220,9	1,737
221,3	1,711
221,8	1,715
222,3	1,729
222,7	1,743
223,2	1,762
223,6	1,776
224,1	1,791
224,6	1,817
225	1,835
225,5	1,863
226	1,89
226,4	1,902
226,9	1,913
227,4	1,888
227,8	1,923
228,3	1,952
228,8	1,944
229,2	1,963
229,7	1,967
230,2	1,983
230,6	2,03
231,1	2,016
231,5	1,994
232	2,007
232,5	1,996
232,9	2,02
233,4	2,028
233,9	2,03
234,3	2,044
234,8	2,072
235,3	2,079
235,7	2,088
236,2	2,106
236,7	2,106
237,1	2,099
237,6	2,13
238,1	2,129
238,5	2,145
239	2,148
239,4	2,134
239,9	2,147
240,4	2,166
240,8	2,16
241,3	2,175
241,8	2,182
242,2	2,212
242,7	2,211
243,2	2,222
243,6	2,229
244,1	2,215
244,6	2,21
245	2,227
245,5	2,221
245,9	2,235
246,4	2,245
246,9	2,236
247,3	2,254
247,8	2,273
248,3	2,235
248,7	2,244
249,2	2,26
249,7	2,256
250,1	2,263
250,6	2,25
251	2,248
251,5	2,287
252	2,27
252,4	2,254
252,9	2,239
253,4	2,228
253,8	2,248
254,3	2,26
254,8	2,226
255,2	2,249
255,7	2,256
256,1	2,282
256,6	2,298
257,1	2,271
257,5	2,287
258	2,302
258,5	2,306
258,9	2,321
259,4	2,299
259,9	2,294
260,3	2,321
260,8	2,294
261,2	2,296
261,7	2,288
262,2	2,282
262,6	2,305
263,1	2,309
263,6	2,305
264	2,288
264,5	2,281
264,9	2,277
265,4	2,25
265,9	2,26
266,3	2,245
266,8	2,256
267,3	2,288
267,7	2,303
268,2	2,315
268,7	2,344
269,1	2,324
269,6	2,348
270	2,345
270,5	2,316
271	2,301
271,4	2,296
271,9	2,256
272,4	2,251
272,8	2,257
273,3	2,256
273,7	2,26
274,2	2,274
274,7	2,273
275,1	2,298
275,6	2,304
276,1	2,3
276,5	2,301
277	2,294
277,4	2,276
277,9	2,265
278,4	2,261
278,8	2,277
279,3	2,278
279,8	2,261
280,2	2,275
280,7	2,302
281,1	2,303
281,6	2,288
282,1	2,279
282,5	2,249
283	2,229
283,4	2,199
283,9	2,153
284,4	2,121
284,8	2,092
285,3	2,028
285,8	1,99
286,2	1,94
286,7	1,896
287,1	1,851
287,6	1,813
288,1	1,768
288,5	1,732
289	1,699
289,5	1,675
289,9	1,646
290,4	1,627
290,8	1,603
291,3	1,592
291,8	1,575
292,2	1,558
292,7	1,547
293,1	1,54
293,6	1,53
294,1	1,526
294,5	1,519
295	1,517
295,5	1,516
295,9	1,509
296,4	1,506
296,8	1,503
297,3	1,498
297,8	1,492
298,2	1,493
298,7	1,487
299,1	1,484
299,6	1,478
300,1	1,47
300,5	1,464
301	1,461
301,5	1,45
301,9	1,446
302,4	1,441
302,8	1,437
303,3	1,433
303,8	1,428
304,2	1,423
304,7	1,422
305,1	1,415
305,6	1,408
306,1	1,402
306,5	1,393
307	1,384
307,4	1,378
307,9	1,37
308,4	1,36
308,8	1,353
309,3	1,344
309,8	1,336
310,2	1,329
310,7	1,319
311,1	1,307
311,6	1,299
312,1	1,288
312,5	1,278
313	1,266
313,4	1,255
313,9	1,244
314,4	1,236
314,8	1,227
315,3	1,218
315,7	1,209
316,2	1,198
316,7	1,187
317,1	1,175
317,6	1,164
318	1,151
318,5	1,138
319	1,126
319,4	1,115
319,9	1,102
320,3	1,089
320,8	1,077
321,3	1,064
321,7	1,052
322,2	1,038
322,6	1,026
323,1	1,013
323,6	1
324	0,987
324,5	0,975
324,9	0,961
325,4	0,948
325,9	0,933
326,3	0,921
326,8	0,91
327,2	0,895
327,7	0,883
328,2	0,872
328,6	0,86
329,1	0,849
329,5	0,838
330	0,826
330,5	0,817
330,9	0,806
331,4	0,796
331,8	0,784
332,3	0,774
332,8	0,762
333,2	0,752
333,7	0,74
334,1	0,729
334,6	0,717
335,1	0,708
335,5	0,697
336	0,687
336,4	0,676
336,9	0,666
337,4	0,657
337,8	0,648
338,3	0,638
338,7	0,628
339,2	0,618
339,7	0,609
340,1	0,598
340,6	0,587
341	0,577
341,5	0,568
342	0,558
342,4	0,551
342,9	0,542
343,3	0,535
343,8	0,528
344,2	0,52
344,7	0,511
345,2	0,504
345,6	0,495
346,1	0,487
346,5	0,479
347	0,471
347,5	0,464
347,9	0,457
348,4	0,449
348,8	0,443
349,3	0,435
349,8	0,429
350,2	0,421
350,7	0,415
351,1	0,408
351,6	0,402
352	0,395
352,5	0,389
353	0,383
353,4	0,377
353,9	0,371
354,3	0,364
354,8	0,359
355,3	0,353
355,7	0,347
356,2	0,342
356,6	0,337
357,1	0,332
357,5	0,326
358	0,322
358,5	0,318
358,9	0,312
359,4	0,307
359,8	0,302
360,3	0,298
360,8	0,294
361,2	0,29
361,7	0,284
362,1	0,28
362,6	0,276
363	0,273
363,5	0,268
364	0,264
364,4	0,26
364,9	0,257
365,3	0,252
365,8	0,248
366,3	0,244
366,7	0,241
367,2	0,236
367,6	0,233
368,1	0,229
368,5	0,226
369	0,224
369,5	0,221
369,9	0,218
370,4	0,216
370,8	0,213
371,3	0,209
371,7	0,206
372,2	0,203
372,7	0,199
373,1	0,196
373,6	0,193
374	0,189
374,5	0,187
374,9	0,184
375,4	0,182
375,9	0,179
376,3	0,176
376,8	0,174
377,2	0,171
377,7	0,169
378,2	0,167
378,6	0,164
379,1	0,162
379,5	0,16
380	0,158
380,4	0,157
380,9	0,154
381,4	0,152
381,8	0,15
382,3	0,148
382,7	0,147
383,2	0,144
383,6	0,143
384,1	0,141
384,6	0,138
385	0,136
385,5	0,134
385,9	0,132
386,4	0,13
386,8	0,128
387,3	0,126
387,7	0,125
388,2	0,123
388,7	0,122
389,1	0,12
389,6	0,119
390	0,118
390,5	0,116
390,9	0,115
391,4	0,113
391,9	0,111
392,3	0,109
392,8	0,107
393,2	0,106
393,7	0,104
394,1	0,103
394,6	0,102
395,1	0,101
395,5	0,1
396	0,1
396,4	0,099
396,9	0,098
397,3	0,097
397,8	0,096
398,2	0,094
398,7	0,093
399,2	0,092
399,6	0,091
400,1	0,09
400,5	0,089
401	0,087
401,4	0,087
401,9	0,085
402,4	0,083
402,8	0,082
403,3	0,081
403,7	0,08
404,2	0,079
404,6	0,078
405,1	0,077
405,5	0,077
406	0,076
406,5	0,075
406,9	0,074
407,4	0,072
407,8	0,071
408,3	0,07
408,7	0,069
409,2	0,067
409,6	0,067
410,1	0,066
410,6	0,065
411	0,065
411,5	0,064
411,9	0,063
412,4	0,063
412,8	0,062
413,3	0,061
413,7	0,06
414,2	0,059
414,7	0,059
415,1	0,058
415,6	0,058
416	0,058
416,5	0,057
416,9	0,057
417,4	0,056
417,8	0,054
418,3	0,054
418,8	0,053
419,2	0,051
419,7	0,051
420,1	0,049
420,6	0,049
421	0,048
421,5	0,047
421,9	0,047
422,4	0,046
422,8	0,045
423,3	0,045
423,8	0,044
424,2	0,043
424,7	0,041
425,1	0,041
425,6	0,04
426	0,04
426,5	0,039
426,9	0,039
427,4	0,038
427,9	0,038
428,3	0,038
428,8	0,037
429,2	0,037
429,7	0,036
430,1	0,035
430,6	0,035
431	0,035
431,5	0,034
431,9	0,034
432,4	0,032
432,8	0,031
433,3	0,03
433,8	0,03
434,2	0,029
434,7	0,029
435,1	0,028
435,6	0,028
436	0,028
436,5	0,027
436,9	0,026
437,4	0,026
437,8	0,025
438,3	0,025
438,8	0,024
439,2	0,024
439,7	0,023
440,1	0,023
440,6	0,022
441	0,021
441,5	0,021
441,9	0,021
442,4	0,02
442,8	0,02
443,3	0,02
443,7	0,019
444,2	0,019
444,7	0,019
445,1	0,018
445,6	0,018
446	0,018
446,5	0,017
446,9	0,017
447,4	0,017
447,8	0,017
448,3	0,017
448,7	0,017
449,2	0,017
449,6	0,017
450,1	0,016
450,6	0,016
451	0,016
451,5	0,016
451,9	0,015
452,4	0,015
452,8	0,014
453,3	0,014
453,7	0,014
454,2	0,014
454,6	0,013
455,1	0,013
455,5	0,013
456	0,013
456,4	0,013
456,9	0,013
457,3	0,012
457,8	0,012
458,3	0,011
458,7	0,011
459,2	0,01
459,6	0,01
460,1	0,009
460,5	0,01
461	0,01
461,4	0,01
461,9	0,01
462,3	0,009
462,8	0,009
463,2	0,01
463,7	0,009
464,1	0,009
464,6	0,008
465	0,008
465,5	0,009
466	0,009
466,4	0,008
466,9	0,008
467,3	0,008
467,8	0,008
468,2	0,008
468,7	0,008
469,1	0,007
469,6	0,007
470	0,007
470,5	0,008
470,9	0,007
471,4	0,007
471,8	0,006
472,3	0,007
472,7	0,007
473,2	0,007
473,6	0,006
474,1	0,006
474,5	0,006
475	0,006
475,4	0,006
475,9	0,005
476,4	0,005
476,8	0,005
477,3	0,005
477,7	0,005
478,2	0,005
478,6	0,005
479,1	0,005
479,5	0,005
480	0,005
480,4	0,005
480,9	0,005
481,3	0,005
481,8	0,005
482,2	0,005
482,7	0,004
483,1	0,005
483,6	0,004
484	0,004
484,5	0,004
484,9	0,003
485,4	0,003
485,8	0,003
486,3	0,003
486,7	0,003
487,2	0,003
487,6	0,003
488,1	0,003
488,5	0,003
489	0,003
489,4	0,003
489,9	0,003
490,4	0,003
490,8	0,003
491,3	0,002
491,7	0,002
492,2	0,003
492,6	0,002
493,1	0,002
493,5	0,002
494	0,002
494,4	0,003
494,9	0,003
495,3	0,003
495,8	0,002
496,2	0,002
496,7	0,002
497,1	0,002
497,6	0,002
498	0,003
498,5	0,003
498,9	0,002
499,4	0,003
499,8	0,004
500,3	0,003
500,7	0,003
501,2	0,002
501,6	0,002
502,1	0,003
502,5	0,003
503	0,002
503,4	0,002
503,9	0,002
504,3	0,002
504,8	0,002
505,2	0,002
505,7	0,002
506,1	0,002
506,6	0,002
507	0,002
507,5	0,002
507,9	0,001
508,4	0,001
508,8	0,001
509,3	0,001
509,7	0,002
510,2	0,002
510,6	0,002
511,1	0,003
511,5	0,002
512	0,002
512,4	0,002
512,9	0,001
513,3	0
513,8	0,001
514,2	0,001
514,7	0,001
515,1	0,001
515,6	0,001
516	0,002
516,5	0,002
516,9	0,001
517,4	0,001
517,8	0,001
518,3	0,001
518,7	0,001
519,2	0,001
519,6	0,001
520,1	0,002
520,5	0,001
521	0,002
521,4	0,003
521,9	0,003
522,3	0,003
522,8	0,003
523,2	0,002
523,7	0,002
524,1	0,001
524,6	0,001
525	0,001
525,5	0
525,9	0
526,4	0,001
526,8	0
527,3	0
527,7	0,001
528,2	0,002
528,6	0,001
529,1	0,001
529,5	0,001
530	0,001
530,4	0,001
530,9	0,001
531,3	0
531,8	0,001
532,2	0,001
532,6	0,001
533,1	0,001
533,5	0,001
534	-0
534,4	0
534,9	-0
535,3	-0,001
535,8	-0,001
536,2	-0,001
536,7	-0,001
537,1	-0,001
537,6	-0,001
538	-0,001
538,5	-0
538,9	0
539,4	0
539,8	-0
540,3	-0
540,7	-0,001
541,2	-0,001
541,6	-0
542,1	0
542,5	0,001
543	0,001
543,4	0,001
543,9	0,002
544,3	0,002
544,8	0,002
545,2	0,001
545,7	0,001
546,1	0,001
546,5	0,001
547	0,001
547,4	0,001
547,9	0,001
548,3	0,001
548,8	0,001
549,2	0,001
549,7	0,001
550,1	0,001
550,6	0,001
551	0
551,5	0
551,9	0
552,4	0
552,8	0
553,3	0,001
553,7	0,001
554,2	0,001
554,6	0,001
555,1	0,001
555,5	0,001
555,9	0,001
556,4	0,001
556,8	0
557,3	-0
557,7	-0
558,2	0
558,6	-0
559,1	0
559,5	-0
560	-0
560,4	0
560,9	0
561,3	0
561,8	-0
562,2	-0,001
562,7	-0,001
563,1	-0
563,6	-0
564	-0
564,4	-0
564,9	0
565,3	0,001
565,8	0,001
566,2	0,001
566,7	0,001
567,1	0,001
567,6	0,001
568	0,001
568,5	0
568,9	-0
569,4	-0,001
569,8	-0,001
570,3	-0,001
570,7	-0,001
571,1	-0,001
571,6	-0,001
572	-0
572,5	-0
572,9	-0,001
573,4	-0,001
573,8	-0,001
574,3	-0,001
574,7	-0,001
575,2	-0,001
575,6	-0,001
576,1	-0
576,5	-0
576,9	0
577,4	0
577,8	-0
578,3	0
578,7	0
579,2	0
579,6	-0
580,1	0
580,5	0
581	0,001
581,4	0
581,9	0
582,3	0
582,7	0
583,2	0
583,6	0
584,1	-0
584,5	0
585	0
585,4	0
585,9	-0
586,3	-0
586,8	0
587,2	0
587,6	0
588,1	-0
588,5	-0
589	-0
589,4	-0,001
589,9	-0,001
590,3	-0,001
590,8	-0,001
591,2	-0,001
591,7	-0,001
592,1	-0
592,5	0
593	-0
593,4	0
593,9	-0
594,3	0
594,8	0
595,2	-0
595,7	-0
596,1	-0
596,6	-0
597	-0
597,4	-0
597,9	-0
598,3	0
598,8	-0
599,2	-0
599,7	-0
600,1	0
600,6	0,001
601	0
601,4	0,001
601,9	0,001
602,3	0,001
602,8	0,001
603,2	0,001
603,7	0
604,1	0
604,6	-0
605	-0
605,4	-0,001
605,9	-0,001
606,3	-0,001
606,8	-0
607,2	-0
607,7	-0
608,1	-0
608,6	-0
609	-0
609,4	-0
609,9	-0
610,3	-0
610,8	-0
611,2	-0
611,7	-0
612,1	0
612,6	-0
613	0
613,4	0
613,9	0
614,3	-0
614,8	0
615,2	-0
615,7	-0
616,1	0
616,6	0
617	0
617,4	-0
617,9	-0
618,3	-0
618,8	0
619,2	-0
619,7	-0
620,1	-0
620,5	-0
621	-0
621,4	0
621,9	0
622,3	0
622,8	-0
623,2	-0
623,6	0
624,1	-0
624,5	-0
625	-0
625,4	-0,001
625,9	-0
626,3	-0
626,8	-0
627,2	-0
627,6	-0
628,1	-0
628,5	0
629	-0
629,4	-0
629,9	-0
630,3	-0
630,7	-0
631,2	-0
631,6	-0
632,1	-0
632,5	0
633	0
633,4	0
633,8	0
634,3	0
634,7	0
635,2	-0
635,6	-0
636,1	-0
636,5	0
636,9	0
637,4	0
637,8	0
638,3	0,001
638,7	0,001
639,2	0
639,6	-0
640	-0
640,5	0
640,9	-0
641,4	-0
641,8	-0
642,2	-0
642,7	-0
643,1	-0
643,6	0
644	0
644,5	0
644,9	0
645,3	0
645,8	0
646,2	0
646,7	0
647,1	0
647,6	0
648	0
648,4	-0
648,9	0
649,3	0
649,8	0
650,2	0,001
650,6	0
651,1	0
651,5	0
652	0
652,4	0
652,9	-0
653,3	-0,001
653,7	-0
654,2	-0
654,6	-0
655,1	-0,001
655,5	-0
655,9	-0
656,4	-0
656,8	0,001
657,3	0,001
657,7	0,001
658,2	0,001
658,6	0,002
659	0,002
659,5	0,004
659,9	0,002
660,4	0,001
660,8	0,001
661,2	0,001
661,7	0
662,1	-0
662,6	-0
663	-0
663,4	-0
663,9	-0
664,3	-0,001
664,8	-0
665,2	-0
665,6	-0
666,1	-0
666,5	-0
667	0
667,4	0
667,9	0,001
668,3	0
668,7	0,001
669,2	0
669,6	0,001
670,1	0
670,5	0
670,9	-0,001
671,4	-0,001
671,8	-0,001
672,3	-0,002
672,7	-0,002
673,1	-0,002
673,6	-0,002
674	-0,001
674,5	-0,001
674,9	-0
675,3	-0
675,8	-0
676,2	-0,001
676,7	-0,001
677,1	-0,001
677,5	-0,001
678	-0,001
678,4	-0,001
678,9	-0,001
679,3	-0
679,7	0
680,2	0
680,6	0
681,1	-0
681,5	-0
681,9	-0
682,4	-0,001
682,8	-0,001
683,3	-0,001
683,7	-0,001
684,1	-0,001
684,6	-0,001
685	-0,001
685,5	-0,001
685,9	-0,001
686,3	-0,001
686,8	-0,001
687,2	-0,001
687,7	-0,001
688,1	-0,001
688,5	-0
689	-0
689,4	-0,001
689,9	-0
690,3	0
690,7	0
691,2	-0
691,6	-0
692	-0
692,5	-0
692,9	-0
693,4	-0,001
693,8	-0,001
694,2	-0,001
694,7	-0
695,1	-0,001
695,6	-0,001
696	-0
696,4	-0
696,9	-0
697,3	-0
697,8	-0
698,2	0
698,6	0
699,1	-0
699,5	0
699,9	0
700,4	0,001
700,8	0,001
701,3	-0
701,7	-0
702,1	0
702,6	-0
703	-0
703,5	-0,001
703,9	-0,001
704,3	-0,001
704,8	-0,001
705,2	-0,001
705,6	-0,001
706,1	-0
706,5	-0
707	-0
707,4	0
707,8	0,001
708,3	0,001
708,7	0,001
709,2	0,001
709,6	0,001
710	0,001
710,5	0,001
710,9	0,001
711,3	0,001
711,8	0,001
712,2	0,001
712,7	0,001
713,1	0,001
713,5	0,001
714	0,001
714,4	0,001
714,8	0,001
715,3	0,001
715,7	0,001
716,2	0,001
716,6	0,001
717	0,001
717,5	0,001
717,9	0,001
718,3	0,001
718,8	0,001
719,2	0,001
719,7	0,001
720,1	0
720,5	0
721	0
721,4	0,001
721,8	0,001
722,3	0
722,7	0,001
723,2	0,001
723,6	0,001
724	0,001
724,5	0
724,9	0
725,3	0
725,8	-0
726,2	-0
726,7	-0
727,1	-0
727,5	-0
728	-0
728,4	-0
728,8	-0,001
729,3	-0
729,7	-0,001
730,1	-0,001
730,6	-0,001
731	-0,001
731,5	-0
731,9	-0
732,3	-0,001
732,8	-0,001
733,2	-0
733,6	-0
734,1	-0
734,5	-0,001
734,9	-0,001
735,4	-0
735,8	0
736,3	-0
736,7	-0
737,1	-0
737,6	0
738	0
738,4	0
738,9	-0
739,3	-0,001
739,7	-0,001
740,2	-0,001
740,6	-0,001
741,1	-0,001
741,5	-0,001
741,9	-0
742,4	-0
742,8	-0
743,2	0
743,7	0
744,1	-0
744,5	-0,001
745	-0,001
745,4	-0,001
745,8	-0
746,3	-0,001
746,7	-0
747,2	-0
747,6	0
748	0,001
748,5	0,001
748,9	0
749,3	0
749,8	0
750,2	0
750,6	-0
751,1	-0,001
751,5	-0
751,9	-0,001
752,4	-0,001
752,8	-0
753,3	-0
753,7	-0,001
754,1	-0,001
754,6	-0,001
755	-0,001
755,4	-0,001
755,9	-0,001
756,3	-0,001
756,7	-0,001
757,2	-0,001
757,6	-0,001
758	-0
758,5	0
758,9	-0
759,3	0
759,8	0
760,2	0
760,6	0
761,1	-0
761,5	-0,001
761,9	-0
762,4	-0,001
762,8	-0,001
763,3	-0,001
763,7	-0,001
764,1	-0,001
764,6	-0,001
765	-0,001
765,4	-0,001
765,9	-0,001
766,3	-0,001
766,7	-0
767,2	-0
767,6	-0
768	0,001
768,5	0,001
768,9	0
769,3	0
769,8	0
770,2	0
770,6	0
771,1	0
771,5	0,001
771,9	0,001
772,4	0
772,8	0,001
773,2	0
773,7	0
774,1	0
774,5	0
775	0
775,4	0,001
775,8	0,001
776,3	0,001
776,7	0,001
777,1	0,001
777,6	0,001
778	0,001
778,4	0,001
778,9	0
779,3	0
779,7	0
780,2	0
780,6	0
781	0
781,5	-0
781,9	-0
782,3	-0
782,8	-0
783,2	-0,001
783,6	-0,001
784,1	-0,001
784,5	-0,001
784,9	-0,001
785,4	-0,001
785,8	-0,001
786,2	-0,001
786,7	-0,001
787,1	-0,001
787,5	-0,001
788	-0,001
788,4	-0,001
788,8	-0
789,3	-0
789,7	-0
790,1	-0
790,6	0
791	0,001
791,4	0,001
791,9	0,001
792,3	0,001
792,7	0,001
793,2	0,001
793,6	0,001
794	0
794,5	0
794,9	0
795,3	0
795,8	0
796,2	0
796,6	0
797,1	-0
797,5	-0
797,9	-0,001
798,4	-0,001
798,8	-0,001
799,2	-0,001
799,7	-0,001
800,1	-0,001
800,5	-0
801	-0
801,4	0
801,8	0
802,2	0,001
802,7	0,001
803,1	0,001
803,5	0,001
804	0
804,4	-0
804,8	-0
805,3	-0
805,7	-0,001
806,1	-0,001
806,6	-0,001
807	-0,001
807,4	-0
807,9	-0
808,3	-0
808,7	0
809,2	0
809,6	0
810	0
810,4	0
810,9	-0
811,3	0
811,7	0
812,2	-0
812,6	-0
813	-0
813,5	-0
813,9	-0
814,3	-0,001
814,8	-0,001
815,2	-0,001
815,6	-0,001
816,1	-0,001
816,5	-0,002
816,9	-0,001
817,3	-0,001
817,8	-0,001
818,2	-0,001
818,6	-0,001
819,1	-0,001
819,5	-0,001
819,9	-0,001
820,4	-0,001
820,8	-0,001
821,2	-0,001
821,7	-0,001
822,1	-0,001
822,5	-0,001
822,9	-0,001
823,4	-0,001
823,8	-0,001
824,2	-0,001
824,7	-0,001
825,1	-0,001
825,5	-0
826	-0
826,4	-0,001
826,8	-0,001
827,3	-0,001
827,7	-0
828,1	-0,001
828,5	-0,001
829	-0
829,4	-0
829,8	-0
830,3	-0
830,7	-0,001
831,1	-0
831,6	-0
832	-0
832,4	-0
832,8	0
833,3	0,001
833,7	0,001
834,1	0,001
834,6	0,001
835	0,001
835,4	0,001
835,8	0,001
836,3	0
836,7	0,001
837,1	0,001
837,6	0
838	0
838,4	-0
838,9	-0
839,3	-0
839,7	-0,001
840,1	-0,001
840,6	-0,001
841	-0,001
841,4	-0,001
841,9	-0,001
842,3	-0,001
842,7	-0,001
843,1	-0,001
843,6	-0,001
844	-0
844,4	-0
844,9	0
845,3	0
845,7	-0
846,2	0
846,6	0
847	0
847,4	0
847,9	-0
848,3	-0,001
848,7	-0
849,2	-0
849,6	-0
850	-0
850,4	-0
850,9	0
851,3	0
851,7	0
852,2	-0
852,6	0
853	0
853,4	0
853,9	-0
854,3	0
854,7	-0
855,2	0
855,6	-0
856	-0
856,4	-0,001
856,9	-0,001
857,3	-0,001
857,7	-0,001
858,2	-0,001
858,6	-0,001
859	-0,001
859,4	-0,001
859,9	-0,001
860,3	-0,001
860,7	-0,001
861,1	-0,001
861,6	-0,001
862	-0
862,4	0
862,9	0,001
863,3	0,001
863,7	0,001
864,1	0,001
864,6	0,001
865	0,001
865,4	0,001
865,9	0,001
866,3	0,001
866,7	0
867,1	-0
867,6	0
868	-0
868,4	-0
868,8	-0,001
869,3	-0,001
869,7	-0
870,1	-0
870,6	-0
871	0
871,4	0
871,8	0
872,3	0
872,7	0
873,1	0
873,5	-0
874	-0
874,4	-0
874,8	-0
875,3	-0
875,7	-0
876,1	-0
876,5	-0
877	-0,001
877,4	-0,001
877,8	-0,001
878,2	-0
878,7	-0,001
879,1	-0,001
879,5	-0
879,9	0
880,4	0
880,8	0
881,2	-0
881,7	0
882,1	-0
882,5	-0
882,9	-0
883,4	-0,001
883,8	-0,001
884,2	-0,001
884,6	-0,001
885,1	-0,001
885,5	-0,001
885,9	-0,001
886,3	-0
886,8	-0
887,2	-0
887,6	-0
888	-0
888,5	-0
888,9	-0
889,3	-0
889,8	-0
890,2	0
890,6	0
891	0
891,5	0
891,9	0
892,3	0
892,7	0
893,2	-0
893,6	-0
894	0
894,4	0
894,9	0
895,3	0,001
895,7	0
896,1	0
896,6	0
897	0
897,4	-0
897,8	0
898,3	-0
898,7	0
899,1	0
899,5	-0
900	0
900,4	-0
900,8	-0
901,2	-0
901,7	-0,001
902,1	-0,001
902,5	-0,001
902,9	-0,002
903,4	-0,002
903,8	-0,002
904,2	-0,002
904,6	-0,001
905,1	-0,001
905,5	-0,001
905,9	-0,001
906,3	-0
906,8	-0
907,2	-0
907,6	0
908	-0
908,5	-0
908,9	-0
909,3	-0,001
909,7	-0
910,2	-0,001
910,6	-0,001
911	-0,001
911,4	-0
911,9	-0
912,3	-0,001
912,7	-0,001
913,1	-0,001
913,6	-0,001
914	-0,001
914,4	-0,001
914,8	-0,001
915,3	-0,001
915,7	-0,001
916,1	-0
916,5	-0,001
916,9	-0,001
917,4	-0,001
917,8	-0,001
918,2	-0,001
918,6	-0,002
919,1	-0,003
919,5	-0,002
919,9	-0,002
920,3	-0,002
920,8	-0,001
921,2	-0,001
921,6	-0,001
922	-0,001
922,5	-0,001
922,9	-0,001
923,3	-0,001
923,7	-0,001
924,2	-0,001
924,6	0
925	-0
925,4	-0
925,8	-0
926,3	-0
926,7	0
927,1	0
927,5	-0
928	0
928,4	0
928,8	0
929,2	-0
929,7	-0
930,1	-0
930,5	-0,001
930,9	-0,001
931,3	-0,001
931,8	-0,001
932,2	-0,001
932,6	-0,001
933	-0,001
933,5	-0,002
933,9	-0,002
934,3	-0,002
934,7	-0,002
935,2	-0,002
935,6	-0,002
936	-0,002
936,4	-0,002
936,8	-0,002
937,3	-0,001
937,7	-0,001
938,1	-0,001
938,5	-0,001
939	-0,001
939,4	-0,001
939,8	-0,001
940,2	-0,001
940,6	-0,001
941,1	-0,001
941,5	-0
941,9	-0
942,3	-0,001
942,8	-0,001
943,2	-0,001
943,6	-0,002
944	-0,001
944,4	-0,002
944,9	-0,002
945,3	-0,001
945,7	-0,001
946,1	-0
946,6	0
947	0
947,4	0
947,8	0
948,2	0,001
948,7	0,001
949,1	0,001
949,5	0,001
949,9	0,001
950,3	0
950,8	0
951,2	-0
951,6	-0
952	-0,001
952,5	-0,001
952,9	-0,001
953,3	-0,001
953,7	-0,001
954,1	-0,001
954,6	-0,002
955	-0,002
955,4	-0,002
955,8	-0,002
956,2	-0,002
956,7	-0,002
957,1	-0,002
957,5	-0,001
957,9	-0,001
958,3	-0,001
958,8	-0,001
959,2	-0
959,6	0
960	0
960,5	0,001
960,9	0,001
961,3	0,001
961,7	0
962,1	-0
962,6	-0
963	-0
963,4	-0,001
963,8	-0
964,2	0
964,7	0,001
965,1	0,001
965,5	0,001
965,9	0,001
966,3	0,001
966,8	0,001
967,2	0
967,6	-0
968	-0
968,4	-0
968,9	0
969,3	0,001
969,7	0,001
970,1	0,001
970,5	0,001
971	0,001
971,4	-0
971,8	-0
972,2	-0,001
972,6	-0,001
973,1	-0,001
973,5	-0,001
973,9	-0,001
974,3	-0
974,7	-0,001
975,2	-0,001
975,6	-0,001
976	-0,001
976,4	-0,001
976,8	-0
977,3	-0
977,7	-0
978,1	-0
978,5	-0,001
978,9	-0,001
979,4	-0
979,8	-0
980,2	-0,001
980,6	-0
981	0
981,5	0,001
981,9	0,001
982,3	0
982,7	0,001
983,1	0,001
983,6	0,001
984	0
984,4	0
984,8	0
985,2	0
985,6	-0
986,1	-0
986,5	-0
986,9	-0
987,3	-0
987,7	-0
988,2	-0
988,6	0,001
989	-0
989,4	-0
989,8	-0,001
990,3	-0,001
990,7	-0,001
991,1	-0,001
991,5	-0,001
991,9	-0,001
992,3	-0,001
992,8	-0,001
993,2	-0,001
993,6	-0,002
994	-0,002
994,4	-0,002
994,9	-0,002
995,3	-0,001
995,7	-0,001
996,1	-0,001
996,5	-0,001
996,9	-0,001
997,4	-0
997,8	-0
998,2	-0,001
998,6	-0
999	-0
999,5	-0
999,9	-0
1000,3	-0
1000,7	-0,001
1001,1	-0,001
1001,5	-0,001
1002	-0,002
1002,4	-0,002
1002,8	-0,002
1003,2	-0,002
1003,6	-0,002
1004	-0,002
1004,5	-0,001
1004,9	-0,001
1005,3	-0,001
1005,7	-0,001
1006,1	-0,002
1006,6	-0,001
1007	-0,001
1007,4	-0,001
1007,8	-0,001
1008,2	-0,001
1008,6	-0,001
1009,1	-0,001
1009,5	-0,002
1009,9	-0,002
1010,3	-0,002
1010,7	-0,002
1011,1	-0,002
1011,6	-0,002
1012	-0,001
1012,4	-0,001
1012,8	-0,001
1013,2	-0,001
1013,6	-0,001
1014,1	-0,001
1014,5	-0
1014,9	-0
1015,3	-0
1015,7	-0
1016,1	-0
1016,6	-0
1017	-0
1017,4	-0
1017,8	-0,001
1018,2	-0,001
1018,6	-0
1019,1	-0,002
1019,5	-0,002
1019,9	-0,002
1020,3	-0,002
1020,7	-0,001
1021,1	-0,001
1021,6	-0,001
1022	-0
1022,4	-0
1022,8	-0
1023,2	0
1023,6	0
1024,1	0
1024,5	0
1024,9	0,001
1025,3	0,001
1025,7	0,001
1026,1	0,001
1026,6	0,001
1027	0,002
1027,4	0,001
1027,8	0,001
1028,2	0,001
1028,6	0,001
1029	0,001
1029,5	0
1029,9	-0,001
1030,3	-0
1030,7	0
1031,1	-0
1031,5	-0
1032	-0
1032,4	0
1032,8	0,001
1033,2	0,001
1033,6	0
1034	-0
1034,4	0
1034,9	0
1035,3	0
1035,7	0,001
1036,1	0,001
1036,5	0,001
1036,9	0,002
1037,4	0,001
1037,8	0,001
1038,2	0,001
1038,6	0,001
1039	0,001
1039,4	0,001
1039,8	0,001
1040,3	0,001
1040,7	0,001
1041,1	0,001
1041,5	0,001
1041,9	0,002
1042,3	0,002
1042,7	0,001
1043,2	0,001
1043,6	0
1044	0
1044,4	0
1044,8	-0
1045,2	-0,001
1045,6	0
1046,1	0,001
1046,5	0,002
1046,9	0,002
1047,3	0,001
1047,7	0,001
1048,1	0,001
1048,5	0
1049	-0
1049,4	-0,001
1049,8	-0,001
1050,2	-0
1050,6	0
1051	0
1051,4	0
1051,9	0
1052,3	-0,001
1052,7	0
1053,1	-0,001
1053,5	-0,002
1053,9	-0,001
1054,3	-0,001
1054,8	-0,002
1055,2	-0,001
1055,6	-0,001
1056	-0,001
1056,4	-0,001
1056,8	-0,002
1057,2	-0,001
1057,6	-0
1058,1	0
1058,5	-0
1058,9	-0
1059,3	-0,001
1059,7	-0,002
1060,1	-0,001
1060,5	-0,002
1061	-0,002
1061,4	-0,001
1061,8	-0,001
1062,2	-0,001
1062,6	-0
1063	-0,001
1063,4	-0
1063,8	-0,001
1064,3	-0,001
1064,7	-0
1065,1	-0,001
1065,5	0
1065,9	-0
1066,3	-0
1066,7	0,001
1067,1	0,001
1067,6	-0,001
1068	0
1068,4	-0
1068,8	-0
1069,2	-0
1069,6	-0,001
1070	-0,001
1070,4	-0
1070,9	-0
1071,3	-0,001
1071,7	-0,001
1072,1	-0
1072,5	0
1072,9	0
1073,3	-0
1073,7	-0,001
1074,2	-0
1074,6	0,002
1075	0
1075,4	-0,001
1075,8	-0,001
1076,2	-0,001
1076,6	-0,001
1077	-0,001
1077,5	-0,002
1077,9	-0,001
1078,3	-0
1078,7	-0,001
1079,1	-0,001
1079,5	-0,001
1079,9	-0,001
1080,3	-0,002
1080,7	-0,003
1081,2	-0,002
1081,6	0
1082	0
1082,4	-0,001
1082,8	-0,002
1083,2	-0
1083,6	-0,001
1084	-0,002
1084,5	-0,004
1084,9	-0,004
1085,3	-0,002
1085,7	-0,002
1086,1	-0,004
1086,5	-0,003
1086,9	-0,002
1087,3	-0,001
1087,7	0,001
1088,2	0,002
1088,6	0,002
1089	0,003
1089,4	0,001
1089,8	-0
1090,2	-0,003
1090,6	-0,002
1091	-0,003
1091,4	-0,005
1091,9	-0,005
1092,3	-0,001
1092,7	0,003
1093,1	0,008
1093,5	0,004
1093,9	0,001
1094,3	0,006
1094,7	0,004
1095,1	-0
1095,5	-0,003
1096	-0,008
1096,4	-0
1096,8	-0,001
1097,2	-0,001
1097,6	0,004
1098	0,008
1098,4	0,014
1098,8	0,02
1099,2	0,014
1099,6	0,014
1100,1	0,014
1100,5	0,012
1100,9	0,002
1101,3	-0,008
1101,7	-0,013
1102,1	-0,01
1102,5	-0,004
1102,9	-0,002
1103,3	0,003
1103,7	0,005
1104,2	0,01
1104,6	0,019
1105	0,02
1105,4	0,008
1105,8	0,005
1106,2	0,003
1106,6	0,016
1107	0,021
1107,4	-0,004
1107,8	-0,015
1108,3	0,579
