Data from Absorbance_00009.txt Node
Date: Thu Aug 10 16:06:26 MSK 2023
User: vat
Spectrometer: MAYP114033
Trigger mode: 0
Integration Time (sec): 8,000000E-3
Scans to average: 10
Electric dark correction enabled: true
Nonlinearity correction enabled: false
Boxcar width: 3
XAxis mode: Wavelengths
Number of Pixels in Spectrum: 2068
>>>>>Begin Spectral Data<<<<<
199,4	1,109
199,9	-0,179
200,4	0,284
200,8	0,737
201,3	0,874
201,8	0,957
202,2	1,012
202,7	1,041
203,2	1,105
203,6	1,161
204,1	1,175
204,6	1,188
205	1,18
205,5	1,192
206	1,189
206,4	1,21
206,9	1,21
207,4	1,213
207,8	1,223
208,3	1,267
208,8	1,305
209,2	1,318
209,7	1,315
210,2	1,343
210,6	1,36
211,1	1,387
211,5	1,384
212	1,377
212,5	1,406
212,9	1,433
213,4	1,451
213,9	1,471
214,3	1,494
214,8	1,517
215,3	1,521
215,7	1,537
216,2	1,542
216,7	1,553
217,1	1,55
217,6	1,552
218,1	1,561
218,5	1,585
219	1,605
219,5	1,615
219,9	1,639
220,4	1,686
220,9	1,701
221,3	1,705
221,8	1,706
222,3	1,728
222,7	1,75
223,2	1,767
223,6	1,771
224,1	1,784
224,6	1,802
225	1,841
225,5	1,84
226	1,856
226,4	1,86
226,9	1,87
227,4	1,879
227,8	1,907
228,3	1,916
228,8	1,939
229,2	1,946
229,7	1,958
230,2	1,976
230,6	1,987
231,1	1,97
231,5	1,982
232	2
232,5	2,01
232,9	2,002
233,4	2,013
233,9	2,035
234,3	2,064
234,8	2,051
235,3	2,049
235,7	2,061
236,2	2,088
236,7	2,096
237,1	2,096
237,6	2,099
238,1	2,115
238,5	2,139
239	2,143
239,4	2,144
239,9	2,138
240,4	2,144
240,8	2,17
241,3	2,182
241,8	2,179
242,2	2,183
242,7	2,168
243,2	2,206
243,6	2,218
244,1	2,208
244,6	2,199
245	2,225
245,5	2,228
245,9	2,235
246,4	2,199
246,9	2,196
247,3	2,191
247,8	2,21
248,3	2,172
248,7	2,175
249,2	2,212
249,7	2,242
250,1	2,25
250,6	2,243
251	2,236
251,5	2,266
252	2,27
252,4	2,243
252,9	2,231
253,4	2,211
253,8	2,218
254,3	2,231
254,8	2,229
255,2	2,233
255,7	2,266
256,1	2,278
256,6	2,271
257,1	2,267
257,5	2,262
258	2,245
258,5	2,25
258,9	2,24
259,4	2,225
259,9	2,256
260,3	2,293
260,8	2,29
261,2	2,308
261,7	2,303
262,2	2,289
262,6	2,308
263,1	2,321
263,6	2,298
264	2,302
264,5	2,284
264,9	2,297
265,4	2,319
265,9	2,337
266,3	2,311
266,8	2,325
267,3	2,32
267,7	2,321
268,2	2,324
268,7	2,3
269,1	2,278
269,6	2,295
270	2,29
270,5	2,292
271	2,299
271,4	2,296
271,9	2,294
272,4	2,279
272,8	2,295
273,3	2,29
273,7	2,273
274,2	2,273
274,7	2,269
275,1	2,287
275,6	2,292
276,1	2,275
276,5	2,269
277	2,281
277,4	2,256
277,9	2,252
278,4	2,234
278,8	2,233
279,3	2,232
279,8	2,237
280,2	2,238
280,7	2,286
281,1	2,284
281,6	2,273
282,1	2,269
282,5	2,238
283	2,2
283,4	2,192
283,9	2,138
284,4	2,096
284,8	2,06
285,3	2,007
285,8	1,97
286,2	1,936
286,7	1,883
287,1	1,84
287,6	1,804
288,1	1,765
288,5	1,734
289	1,704
289,5	1,676
289,9	1,655
290,4	1,632
290,8	1,61
291,3	1,598
291,8	1,583
292,2	1,571
292,7	1,558
293,1	1,55
293,6	1,543
294,1	1,54
294,5	1,536
295	1,535
295,5	1,533
295,9	1,53
296,4	1,525
296,8	1,526
297,3	1,517
297,8	1,511
298,2	1,506
298,7	1,5
299,1	1,5
299,6	1,496
300,1	1,488
300,5	1,485
301	1,481
301,5	1,475
301,9	1,47
302,4	1,461
302,8	1,456
303,3	1,451
303,8	1,446
304,2	1,439
304,7	1,43
305,1	1,421
305,6	1,415
306,1	1,407
306,5	1,403
307	1,396
307,4	1,387
307,9	1,381
308,4	1,374
308,8	1,366
309,3	1,358
309,8	1,347
310,2	1,335
310,7	1,326
311,1	1,317
311,6	1,307
312,1	1,298
312,5	1,288
313	1,278
313,4	1,269
313,9	1,261
314,4	1,25
314,8	1,24
315,3	1,228
315,7	1,217
316,2	1,208
316,7	1,199
317,1	1,186
317,6	1,178
318	1,164
318,5	1,153
319	1,14
319,4	1,126
319,9	1,112
320,3	1,1
320,8	1,084
321,3	1,074
321,7	1,061
322,2	1,049
322,6	1,037
323,1	1,024
323,6	1,012
324	1,001
324,5	0,988
324,9	0,976
325,4	0,962
325,9	0,949
326,3	0,936
326,8	0,923
327,2	0,908
327,7	0,895
328,2	0,882
328,6	0,871
329,1	0,858
329,5	0,848
330	0,837
330,5	0,827
330,9	0,816
331,4	0,804
331,8	0,793
332,3	0,782
332,8	0,77
333,2	0,759
333,7	0,747
334,1	0,737
334,6	0,727
335,1	0,718
335,5	0,708
336	0,697
336,4	0,686
336,9	0,677
337,4	0,668
337,8	0,658
338,3	0,647
338,7	0,636
339,2	0,627
339,7	0,618
340,1	0,608
340,6	0,599
341	0,588
341,5	0,58
342	0,571
342,4	0,562
342,9	0,554
343,3	0,545
343,8	0,536
344,2	0,529
344,7	0,521
345,2	0,513
345,6	0,504
346,1	0,496
346,5	0,488
347	0,481
347,5	0,473
347,9	0,466
348,4	0,459
348,8	0,453
349,3	0,446
349,8	0,439
350,2	0,432
350,7	0,425
351,1	0,419
351,6	0,412
352	0,405
352,5	0,398
353	0,392
353,4	0,386
353,9	0,38
354,3	0,373
354,8	0,368
355,3	0,362
355,7	0,357
356,2	0,351
356,6	0,345
357,1	0,341
357,5	0,336
358	0,331
358,5	0,327
358,9	0,321
359,4	0,316
359,8	0,311
360,3	0,306
360,8	0,301
361,2	0,296
361,7	0,291
362,1	0,288
362,6	0,284
363	0,28
363,5	0,276
364	0,272
364,4	0,268
364,9	0,264
365,3	0,259
365,8	0,255
366,3	0,251
366,7	0,248
367,2	0,244
367,6	0,24
368,1	0,236
368,5	0,233
369	0,23
369,5	0,227
369,9	0,224
370,4	0,222
370,8	0,22
371,3	0,217
371,7	0,214
372,2	0,211
372,7	0,208
373,1	0,204
373,6	0,2
374	0,197
374,5	0,194
374,9	0,191
375,4	0,189
375,9	0,186
376,3	0,184
376,8	0,182
377,2	0,179
377,7	0,177
378,2	0,175
378,6	0,172
379,1	0,17
379,5	0,167
380	0,165
380,4	0,163
380,9	0,161
381,4	0,159
381,8	0,157
382,3	0,155
382,7	0,153
383,2	0,15
383,6	0,148
384,1	0,146
384,6	0,144
385	0,142
385,5	0,14
385,9	0,138
386,4	0,137
386,8	0,135
387,3	0,134
387,7	0,133
388,2	0,13
388,7	0,128
389,1	0,127
389,6	0,125
390	0,123
390,5	0,12
390,9	0,118
391,4	0,118
391,9	0,116
392,3	0,115
392,8	0,113
393,2	0,113
393,7	0,111
394,1	0,11
394,6	0,109
395,1	0,108
395,5	0,106
396	0,105
396,4	0,103
396,9	0,102
397,3	0,101
397,8	0,1
398,2	0,099
398,7	0,099
399,2	0,097
399,6	0,096
400,1	0,095
400,5	0,094
401	0,092
401,4	0,091
401,9	0,089
402,4	0,088
402,8	0,087
403,3	0,086
403,7	0,084
404,2	0,084
404,6	0,083
405,1	0,082
405,5	0,081
406	0,08
406,5	0,08
406,9	0,079
407,4	0,077
407,8	0,076
408,3	0,076
408,7	0,075
409,2	0,073
409,6	0,072
410,1	0,071
410,6	0,07
411	0,07
411,5	0,07
411,9	0,069
412,4	0,068
412,8	0,068
413,3	0,067
413,7	0,066
414,2	0,065
414,7	0,064
415,1	0,063
415,6	0,063
416	0,062
416,5	0,06
416,9	0,06
417,4	0,059
417,8	0,058
418,3	0,058
418,8	0,057
419,2	0,056
419,7	0,055
420,1	0,055
420,6	0,054
421	0,054
421,5	0,053
421,9	0,052
422,4	0,052
422,8	0,051
423,3	0,051
423,8	0,05
424,2	0,049
424,7	0,048
425,1	0,047
425,6	0,046
426	0,045
426,5	0,044
426,9	0,044
427,4	0,043
427,9	0,043
428,3	0,041
428,8	0,041
429,2	0,04
429,7	0,039
430,1	0,039
430,6	0,038
431	0,038
431,5	0,037
431,9	0,037
432,4	0,036
432,8	0,036
433,3	0,035
433,8	0,034
434,2	0,034
434,7	0,034
435,1	0,033
435,6	0,032
436	0,032
436,5	0,032
436,9	0,031
437,4	0,03
437,8	0,029
438,3	0,029
438,8	0,028
439,2	0,027
439,7	0,027
440,1	0,027
440,6	0,026
441	0,026
441,5	0,025
441,9	0,025
442,4	0,025
442,8	0,024
443,3	0,024
443,7	0,024
444,2	0,023
444,7	0,024
445,1	0,023
445,6	0,023
446	0,023
446,5	0,023
446,9	0,022
447,4	0,022
447,8	0,021
448,3	0,021
448,7	0,021
449,2	0,021
449,6	0,02
450,1	0,02
450,6	0,02
451	0,019
451,5	0,018
451,9	0,018
452,4	0,018
452,8	0,017
453,3	0,017
453,7	0,017
454,2	0,017
454,6	0,017
455,1	0,016
455,5	0,016
456	0,016
456,4	0,016
456,9	0,016
457,3	0,015
457,8	0,015
458,3	0,015
458,7	0,014
459,2	0,014
459,6	0,014
460,1	0,013
460,5	0,013
461	0,013
461,4	0,013
461,9	0,013
462,3	0,012
462,8	0,012
463,2	0,013
463,7	0,012
464,1	0,012
464,6	0,011
465	0,012
465,5	0,012
466	0,012
466,4	0,012
466,9	0,012
467,3	0,012
467,8	0,012
468,2	0,012
468,7	0,012
469,1	0,011
469,6	0,011
470	0,011
470,5	0,011
470,9	0,011
471,4	0,01
471,8	0,009
472,3	0,01
472,7	0,009
473,2	0,01
473,6	0,01
474,1	0,01
474,5	0,01
475	0,01
475,4	0,01
475,9	0,009
476,4	0,008
476,8	0,008
477,3	0,008
477,7	0,008
478,2	0,009
478,6	0,008
479,1	0,008
479,5	0,009
480	0,008
480,4	0,009
480,9	0,008
481,3	0,008
481,8	0,008
482,2	0,008
482,7	0,008
483,1	0,008
483,6	0,007
484	0,007
484,5	0,007
484,9	0,007
485,4	0,007
485,8	0,007
486,3	0,006
486,7	0,006
487,2	0,006
487,6	0,007
488,1	0,006
488,5	0,006
489	0,007
489,4	0,008
489,9	0,008
490,4	0,008
490,8	0,007
491,3	0,007
491,7	0,006
492,2	0,006
492,6	0,006
493,1	0,006
493,5	0,006
494	0,006
494,4	0,006
494,9	0,006
495,3	0,006
495,8	0,006
496,2	0,005
496,7	0,006
497,1	0,005
497,6	0,006
498	0,006
498,5	0,006
498,9	0,006
499,4	0,007
499,8	0,007
500,3	0,007
500,7	0,007
501,2	0,006
501,6	0,006
502,1	0,006
502,5	0,006
503	0,005
503,4	0,005
503,9	0,005
504,3	0,005
504,8	0,005
505,2	0,006
505,7	0,006
506,1	0,005
506,6	0,005
507	0,006
507,5	0,005
507,9	0,004
508,4	0,004
508,8	0,003
509,3	0,004
509,7	0,005
510,2	0,005
510,6	0,005
511,1	0,006
511,5	0,005
512	0,006
512,4	0,005
512,9	0,005
513,3	0,004
513,8	0,004
514,2	0,004
514,7	0,005
515,1	0,005
515,6	0,005
516	0,006
516,5	0,005
516,9	0,005
517,4	0,004
517,8	0,003
518,3	0,003
518,7	0,003
519,2	0,003
519,6	0,003
520,1	0,004
520,5	0,004
521	0,005
521,4	0,005
521,9	0,005
522,3	0,005
522,8	0,005
523,2	0,004
523,7	0,005
524,1	0,004
524,6	0,003
525	0,002
525,5	0,002
525,9	0,002
526,4	0,002
526,8	0,002
527,3	0,003
527,7	0,004
528,2	0,004
528,6	0,004
529,1	0,004
529,5	0,005
530	0,005
530,4	0,005
530,9	0,004
531,3	0,004
531,8	0,003
532,2	0,004
532,6	0,003
533,1	0,003
533,5	0,003
534	0,003
534,4	0,003
534,9	0,004
535,3	0,003
535,8	0,003
536,2	0,003
536,7	0,003
537,1	0,003
537,6	0,003
538	0,003
538,5	0,003
538,9	0,003
539,4	0,003
539,8	0,003
540,3	0,003
540,7	0,003
541,2	0,003
541,6	0,003
542,1	0,003
542,5	0,004
543	0,004
543,4	0,004
543,9	0,004
544,3	0,004
544,8	0,004
545,2	0,004
545,7	0,004
546,1	0,004
546,5	0,004
547	0,004
547,4	0,004
547,9	0,004
548,3	0,004
548,8	0,004
549,2	0,004
549,7	0,004
550,1	0,004
550,6	0,005
551	0,004
551,5	0,004
551,9	0,004
552,4	0,003
552,8	0,003
553,3	0,003
553,7	0,003
554,2	0,003
554,6	0,003
555,1	0,003
555,5	0,003
555,9	0,003
556,4	0,003
556,8	0,003
557,3	0,002
557,7	0,003
558,2	0,003
558,6	0,003
559,1	0,003
559,5	0,003
560	0,003
560,4	0,003
560,9	0,004
561,3	0,004
561,8	0,003
562,2	0,003
562,7	0,003
563,1	0,003
563,6	0,003
564	0,003
564,4	0,003
564,9	0,003
565,3	0,004
565,8	0,003
566,2	0,004
566,7	0,003
567,1	0,003
567,6	0,003
568	0,003
568,5	0,003
568,9	0,002
569,4	0,002
569,8	0,002
570,3	0,002
570,7	0,003
571,1	0,003
571,6	0,002
572	0,002
572,5	0,002
572,9	0,002
573,4	0,002
573,8	0,002
574,3	0,002
574,7	0,002
575,2	0,002
575,6	0,002
576,1	0,002
576,5	0,002
576,9	0,002
577,4	0,002
577,8	0,002
578,3	0,002
578,7	0,002
579,2	0,002
579,6	0,002
580,1	0,002
580,5	0,002
581	0,002
581,4	0,002
581,9	0,002
582,3	0,002
582,7	0,003
583,2	0,003
583,6	0,003
584,1	0,002
584,5	0,003
585	0,003
585,4	0,003
585,9	0,002
586,3	0,002
586,8	0,003
587,2	0,003
587,6	0,003
588,1	0,003
588,5	0,003
589	0,002
589,4	0,002
589,9	0,002
590,3	0,002
590,8	0,002
591,2	0,002
591,7	0,003
592,1	0,003
592,5	0,003
593	0,003
593,4	0,003
593,9	0,002
594,3	0,002
594,8	0,002
595,2	0,002
595,7	0,002
596,1	0,002
596,6	0,002
597	0,002
597,4	0,002
597,9	0,002
598,3	0,002
598,8	0,002
599,2	0,002
599,7	0,002
600,1	0,002
600,6	0,002
601	0,001
601,4	0,002
601,9	0,002
602,3	0,002
602,8	0,002
603,2	0,002
603,7	0,002
604,1	0,002
604,6	0,002
605	0,002
605,4	0,002
605,9	0,002
606,3	0,002
606,8	0,002
607,2	0,002
607,7	0,002
608,1	0,002
608,6	0,002
609	0,002
609,4	0,002
609,9	0,002
610,3	0,002
610,8	0,001
611,2	0,002
611,7	0,002
612,1	0,002
612,6	0,002
613	0,002
613,4	0,002
613,9	0,002
614,3	0,002
614,8	0,002
615,2	0,002
615,7	0,002
616,1	0,002
616,6	0,002
617	0,002
617,4	0,003
617,9	0,002
618,3	0,002
618,8	0,002
619,2	0,002
619,7	0,002
620,1	0,002
620,5	0,001
621	0,002
621,4	0,002
621,9	0,002
622,3	0,002
622,8	0,002
623,2	0,002
623,6	0,002
624,1	0,002
624,5	0,003
625	0,002
625,4	0,002
625,9	0,003
626,3	0,003
626,8	0,002
627,2	0,002
627,6	0,002
628,1	0,001
628,5	0,002
629	0,001
629,4	0,001
629,9	0,001
630,3	0,001
630,7	0,002
631,2	0,002
631,6	0,002
632,1	0,002
632,5	0,002
633	0,003
633,4	0,003
633,8	0,003
634,3	0,002
634,7	0,002
635,2	0,002
635,6	0,002
636,1	0,001
636,5	0,002
636,9	0,002
637,4	0,002
637,8	0,002
638,3	0,002
638,7	0,003
639,2	0,003
639,6	0,002
640	0,002
640,5	0,002
640,9	0,002
641,4	0,002
641,8	0,001
642,2	0,001
642,7	0,001
643,1	0,001
643,6	0,002
644	0,002
644,5	0,001
644,9	0,002
645,3	0,002
645,8	0,002
646,2	0,002
646,7	0,002
647,1	0,002
647,6	0,002
648	0,002
648,4	0,001
648,9	0,002
649,3	0,002
649,8	0,002
650,2	0,002
650,6	0,002
651,1	0,002
651,5	0,002
652	0,002
652,4	0,002
652,9	0,001
653,3	0,001
653,7	0,001
654,2	0,002
654,6	0,001
655,1	0,001
655,5	0,001
655,9	0,001
656,4	0,001
656,8	0,001
657,3	0,001
657,7	0,001
658,2	0,001
658,6	0,002
659	0,002
659,5	0,004
659,9	0,003
660,4	0,003
660,8	0,003
661,2	0,003
661,7	0,003
662,1	0,003
662,6	0,003
663	0,002
663,4	0,002
663,9	0,002
664,3	0,002
664,8	0,001
665,2	0,002
665,6	0,002
666,1	0,002
666,5	0,002
667	0,002
667,4	0,002
667,9	0,002
668,3	0,002
668,7	0,002
669,2	0,002
669,6	0,002
670,1	0,002
670,5	0,002
670,9	0,001
671,4	0,001
671,8	0,001
672,3	0,001
672,7	0,001
673,1	0,001
673,6	0,001
674	0,001
674,5	0,001
674,9	0,002
675,3	0,002
675,8	0,002
676,2	0,002
676,7	0,001
677,1	0,001
677,5	0,001
678	0,001
678,4	0,001
678,9	0,001
679,3	0,001
679,7	0,002
680,2	0,002
680,6	0,002
681,1	0,002
681,5	0,002
681,9	0,002
682,4	0,002
682,8	0,002
683,3	0,002
683,7	0,002
684,1	0,002
684,6	0,003
685	0,002
685,5	0,002
685,9	0,002
686,3	0,002
686,8	0,002
687,2	0,002
687,7	0,001
688,1	0,001
688,5	0,002
689	0,002
689,4	0,001
689,9	0,001
690,3	0,002
690,7	0,002
691,2	0,002
691,6	0,001
692	0,002
692,5	0,002
692,9	0,002
693,4	0,002
693,8	0,002
694,2	0,002
694,7	0,002
695,1	0,002
695,6	0,002
696	0,002
696,4	0,002
696,9	0,002
697,3	0,002
697,8	0,002
698,2	0,002
698,6	0,002
699,1	0,002
699,5	0,002
699,9	0,002
700,4	0,001
700,8	0,001
701,3	0,001
701,7	0,001
702,1	0,001
702,6	0,001
703	0,001
703,5	0,001
703,9	0,001
704,3	0,001
704,8	0,002
705,2	0,002
705,6	0,002
706,1	0,002
706,5	0,001
707	0,002
707,4	0,002
707,8	0,002
708,3	0,001
708,7	0,001
709,2	0,002
709,6	0,002
710	0,002
710,5	0,001
710,9	0,001
711,3	0,002
711,8	0,002
712,2	0,002
712,7	0,002
713,1	0,002
713,5	0,002
714	0,001
714,4	0,001
714,8	0,001
715,3	0,001
715,7	0,001
716,2	0,001
716,6	0,001
717	0,002
717,5	0,002
717,9	0,002
718,3	0,002
718,8	0,001
719,2	0,001
719,7	0,001
720,1	0,001
720,5	0,001
721	0,001
721,4	0,002
721,8	0,002
722,3	0,002
722,7	0,002
723,2	0,002
723,6	0,002
724	0,002
724,5	0,001
724,9	0,001
725,3	0,001
725,8	0,001
726,2	0,001
726,7	0,001
727,1	0,001
727,5	0,001
728	0,001
728,4	0,001
728,8	0,001
729,3	0,001
729,7	0,001
730,1	0,001
730,6	0,001
731	0,001
731,5	0,001
731,9	0,001
732,3	0,001
732,8	0,001
733,2	0,001
733,6	0,002
734,1	0,001
734,5	0,001
734,9	0,001
735,4	0,001
735,8	0,002
736,3	0,001
736,7	0,001
737,1	0,001
737,6	0,001
738	0,002
738,4	0,001
738,9	0,001
739,3	0,002
739,7	0,002
740,2	0,002
740,6	0,001
741,1	0,001
741,5	0,002
741,9	0,002
742,4	0,001
742,8	0,001
743,2	0,002
743,7	0,002
744,1	0,001
744,5	0,001
745	0,001
745,4	0,001
745,8	0,001
746,3	0,001
746,7	0,002
747,2	0,002
747,6	0,001
748	0,001
748,5	0,001
748,9	0,001
749,3	0,001
749,8	0,001
750,2	0,001
750,6	0,001
751,1	0,001
751,5	0,001
751,9	0,001
752,4	0,002
752,8	0,002
753,3	0,002
753,7	0,002
754,1	0,002
754,6	0,001
755	0,002
755,4	0,001
755,9	0,001
756,3	0,001
756,7	0,002
757,2	0,002
757,6	0,002
758	0,002
758,5	0,002
758,9	0,002
759,3	0,002
759,8	0,002
760,2	0,002
760,6	0,003
761,1	0,002
761,5	0,002
761,9	0,002
762,4	0,002
762,8	0,002
763,3	0,002
763,7	0,001
764,1	0,001
764,6	0,001
765	0,001
765,4	0,001
765,9	0,001
766,3	0,001
766,7	0,001
767,2	0,002
767,6	0,002
768	0,002
768,5	0,002
768,9	0,002
769,3	0,002
769,8	0,001
770,2	0,001
770,6	0,001
771,1	0,001
771,5	0,001
771,9	0,001
772,4	0,001
772,8	0,001
773,2	0,001
773,7	0,001
774,1	0,001
774,5	0,001
775	0,002
775,4	0,002
775,8	0,002
776,3	0,002
776,7	0,002
777,1	0,002
777,6	0,002
778	0,001
778,4	0,002
778,9	0,001
779,3	0,001
779,7	0,001
780,2	0,001
780,6	0,001
781	0,001
781,5	0,001
781,9	0,001
782,3	0,001
782,8	0,001
783,2	0,001
783,6	0,001
784,1	0,001
784,5	0,001
784,9	0,001
785,4	0,001
785,8	0,001
786,2	0,002
786,7	0,002
787,1	0,002
787,5	0,002
788	0,002
788,4	0,002
788,8	0,002
789,3	0,002
789,7	0,001
790,1	0,001
790,6	0,002
791	0,002
791,4	0,002
791,9	0,002
792,3	0,002
792,7	0,001
793,2	0,002
793,6	0,001
794	0,001
794,5	0,001
794,9	0,001
795,3	0,001
795,8	0,001
796,2	0,001
796,6	0,001
797,1	0,001
797,5	0,001
797,9	0,001
798,4	0,001
798,8	0,001
799,2	0,001
799,7	0,001
800,1	0,002
800,5	0,002
801	0,002
801,4	0,002
801,8	0,002
802,2	0,002
802,7	0,002
803,1	0,002
803,5	0,002
804	0,001
804,4	0,001
804,8	0,001
805,3	0,001
805,7	0
806,1	0
806,6	0
807	0,001
807,4	0,001
807,9	0,001
808,3	0,001
808,7	0,001
809,2	0,001
809,6	0,001
810	0,001
810,4	0,002
810,9	0,001
811,3	0,001
811,7	0,001
812,2	0,001
812,6	0,001
813	0,001
813,5	0,001
813,9	0,001
814,3	0,001
814,8	0
815,2	-0
815,6	0
816,1	0
816,5	-0
816,9	0
817,3	0
817,8	0,001
818,2	0,001
818,6	0,001
819,1	0,001
819,5	0,001
819,9	0,001
820,4	0,001
820,8	0,001
821,2	0,001
821,7	0,001
822,1	0,001
822,5	0,001
822,9	0,001
823,4	0,001
823,8	0,001
824,2	0,001
824,7	0,001
825,1	0,001
825,5	0,001
826	0,001
826,4	0,001
826,8	0,001
827,3	0,001
827,7	0,001
828,1	0,001
828,5	0,001
829	0,001
829,4	0,001
829,8	0,001
830,3	0,001
830,7	0,001
831,1	0,001
831,6	0,002
832	0,002
832,4	0,002
832,8	0,002
833,3	0,002
833,7	0,002
834,1	0,003
834,6	0,002
835	0,003
835,4	0,003
835,8	0,002
836,3	0,002
836,7	0,002
837,1	0,002
837,6	0,002
838	0,001
838,4	0,001
838,9	0,002
839,3	0,002
839,7	0,001
840,1	0,001
840,6	0,001
841	0,001
841,4	0,001
841,9	0,001
842,3	0
842,7	0,001
843,1	0,001
843,6	0,001
844	0,001
844,4	0,001
844,9	0,001
845,3	0,001
845,7	0,001
846,2	0,001
846,6	0,001
847	0,001
847,4	0,001
847,9	0,001
848,3	0,001
848,7	0,001
849,2	0,001
849,6	0,001
850	0,001
850,4	0,001
850,9	0,001
851,3	0,002
851,7	0,001
852,2	0,001
852,6	0,002
853	0,002
853,4	0,002
853,9	0,001
854,3	0,002
854,7	0,002
855,2	0,002
855,6	0,002
856	0,002
856,4	0,002
856,9	0,002
857,3	0,001
857,7	0,001
858,2	0,001
858,6	0,001
859	0
859,4	0
859,9	0
860,3	0
860,7	0
861,1	0,001
861,6	0,001
862	0,001
862,4	0,001
862,9	0,001
863,3	0,001
863,7	0,002
864,1	0,001
864,6	0,001
865	0,002
865,4	0,001
865,9	0,001
866,3	0,001
866,7	0,001
867,1	0,001
867,6	0,001
868	0,001
868,4	0,001
868,8	0,001
869,3	0,001
869,7	0,001
870,1	0,002
870,6	0,001
871	0,002
871,4	0,002
871,8	0,002
872,3	0,001
872,7	0,001
873,1	0,001
873,5	0,001
874	0,001
874,4	0,001
874,8	0,001
875,3	0,001
875,7	0,001
876,1	0,001
876,5	0,001
877	0,001
877,4	0
877,8	0
878,2	0,001
878,7	0
879,1	0
879,5	0,001
879,9	0,001
880,4	0,001
880,8	0,001
881,2	0,001
881,7	0,001
882,1	0,001
882,5	0,001
882,9	0
883,4	0
883,8	0
884,2	0
884,6	0
885,1	0
885,5	0
885,9	0
886,3	0,001
886,8	0,001
887,2	0,001
887,6	0,001
888	0,001
888,5	0,001
888,9	0
889,3	0
889,8	0
890,2	0
890,6	0
891	0,001
891,5	0,001
891,9	0,001
892,3	0,001
892,7	0,001
893,2	0,001
893,6	0,001
894	0,002
894,4	0,002
894,9	0,001
895,3	0,002
895,7	0,002
896,1	0,001
896,6	0,001
897	0,001
897,4	0,001
897,8	0,001
898,3	0,001
898,7	0,001
899,1	0,001
899,5	0,001
900	0,001
900,4	0,001
900,8	0,001
901,2	0,001
901,7	0,001
902,1	0,001
902,5	0,001
902,9	0,001
903,4	0
903,8	0
904,2	0,001
904,6	0,001
905,1	0,001
905,5	0,001
905,9	0,001
906,3	0,001
906,8	0,001
907,2	0,001
907,6	0,001
908	0,001
908,5	0
908,9	0,001
909,3	0
909,7	0
910,2	0
910,6	0
911	-0
911,4	0
911,9	0
912,3	0
912,7	0
913,1	0
913,6	0,001
914	0,001
914,4	0,002
914,8	0,001
915,3	0,002
915,7	0,002
916,1	0,002
916,5	0,002
916,9	0,001
917,4	0,001
917,8	0,001
918,2	0,001
918,6	0,001
919,1	0
919,5	0,001
919,9	0,001
920,3	0,001
920,8	0,002
921,2	0,002
921,6	0,001
922	0,002
922,5	0,001
922,9	0,001
923,3	0,001
923,7	0,001
924,2	0,001
924,6	0,001
925	0,001
925,4	0,002
925,8	0,002
926,3	0,002
926,7	0,001
927,1	0,002
927,5	0,001
928	0,002
928,4	0,002
928,8	0,001
929,2	0,001
929,7	0,002
930,1	0,001
930,5	0,001
930,9	0,001
931,3	0,001
931,8	0,002
932,2	0,002
932,6	0,002
933	0,002
933,5	0,002
933,9	0,002
934,3	0,002
934,7	0,001
935,2	0,001
935,6	0,001
936	0,002
936,4	0,002
936,8	0,001
937,3	0,002
937,7	0,002
938,1	0,002
938,5	0,002
939	0,002
939,4	0,002
939,8	0,001
940,2	0,001
940,6	0,001
941,1	0,001
941,5	0,001
941,9	0,001
942,3	0
942,8	0,001
943,2	0,001
943,6	0,001
944	0,001
944,4	0,001
944,9	0,001
945,3	0,002
945,7	0,002
946,1	0,002
946,6	0,002
947	0,002
947,4	0,002
947,8	0,002
948,2	0,001
948,7	0,002
949,1	0,002
949,5	0,001
949,9	0,002
950,3	0,002
950,8	0,001
951,2	0,002
951,6	0,002
952	0,001
952,5	0,002
952,9	0,001
953,3	0,001
953,7	0,002
954,1	0,001
954,6	0,001
955	0,002
955,4	0,001
955,8	0,001
956,2	0,001
956,7	0,001
957,1	0,001
957,5	0,001
957,9	0,001
958,3	0,001
958,8	0,001
959,2	0
959,6	0
960	0
960,5	0,001
960,9	0,001
961,3	0,001
961,7	0,001
962,1	0,001
962,6	0,001
963	0,001
963,4	0,001
963,8	0,001
964,2	0,001
964,7	0,001
965,1	0,002
965,5	0,002
965,9	0,002
966,3	0,001
966,8	0,001
967,2	0
967,6	-0
968	-0
968,4	0
968,9	0
969,3	0,001
969,7	0,002
970,1	0,002
970,5	0,003
971	0,002
971,4	0,002
971,8	0,002
972,2	0,002
972,6	0,002
973,1	0,001
973,5	0,001
973,9	0,001
974,3	0,001
974,7	0,001
975,2	-0
975,6	0
976	-0
976,4	-0
976,8	0
977,3	0
977,7	0,001
978,1	0,001
978,5	0,001
978,9	0,001
979,4	0,001
979,8	0
980,2	0,001
980,6	0,001
981	0,001
981,5	0,001
981,9	0,001
982,3	0,002
982,7	0,002
983,1	0,003
983,6	0,002
984	0,002
984,4	0,002
984,8	0,001
985,2	0,001
985,6	0,001
986,1	0,001
986,5	0,001
986,9	0
987,3	0,001
987,7	0,001
988,2	0,001
988,6	0,002
989	0,001
989,4	0,001
989,8	0,001
990,3	0,001
990,7	0,001
991,1	0,002
991,5	0,001
991,9	0,002
992,3	0,001
992,8	0,001
993,2	0,001
993,6	0,001
994	0,001
994,4	0,001
994,9	0,001
995,3	0,001
995,7	0,001
996,1	0,001
996,5	0,002
996,9	0,001
997,4	0,001
997,8	0,001
998,2	0,001
998,6	0,001
999	0,001
999,5	0,001
999,9	0,001
1000,3	0,001
1000,7	0,001
1001,1	0,001
1001,5	0,001
1002	-0
1002,4	0
1002,8	0
1003,2	0
1003,6	0
1004	0
1004,5	0,001
1004,9	0,002
1005,3	0,002
1005,7	0,002
1006,1	0,001
1006,6	0,001
1007	0,001
1007,4	0,001
1007,8	0,001
1008,2	0,001
1008,6	0
1009,1	0
1009,5	-0
1009,9	0
1010,3	0
1010,7	0
1011,1	0,001
1011,6	0,001
1012	0,001
1012,4	0,001
1012,8	0,001
1013,2	0,001
1013,6	0,001
1014,1	0
1014,5	0
1014,9	0,001
1015,3	0
1015,7	0
1016,1	0
1016,6	0,001
1017	0,001
1017,4	0,001
1017,8	0
1018,2	0
1018,6	0
1019,1	-0
1019,5	-0
1019,9	-0,001
1020,3	-0,001
1020,7	-0
1021,1	-0
1021,6	-0
1022	0
1022,4	-0
1022,8	-0
1023,2	-0
1023,6	-0
1024,1	0
1024,5	0,001
1024,9	0,001
1025,3	0,001
1025,7	0,001
1026,1	0,001
1026,6	0,001
1027	0,002
1027,4	0,001
1027,8	0,001
1028,2	0,001
1028,6	0,002
1029	0,001
1029,5	0,001
1029,9	0
1030,3	0
1030,7	-0
1031,1	-0
1031,5	-0,001
1032	-0
1032,4	-0,001
1032,8	-0,001
1033,2	-0,001
1033,6	-0
1034	-0
1034,4	-0,001
1034,9	-0
1035,3	-0
1035,7	0,001
1036,1	0,001
1036,5	0,001
1036,9	0,001
1037,4	0,001
1037,8	0,001
1038,2	0,001
1038,6	0
1039	-0,001
1039,4	-0,001
1039,8	-0,001
1040,3	-0
1040,7	-0,001
1041,1	-0
1041,5	0
1041,9	0,001
1042,3	0,002
1042,7	0,001
1043,2	0
1043,6	0
1044	0
1044,4	-0
1044,8	-0,001
1045,2	-0,002
1045,6	-0,001
1046,1	-0,001
1046,5	-0
1046,9	-0,001
1047,3	-0,001
1047,7	-0,001
1048,1	-0,001
1048,5	-0,001
1049	-0
1049,4	-0
1049,8	-0
1050,2	0,001
1050,6	0,001
1051	0,001
1051,4	0,001
1051,9	0,001
1052,3	0,001
1052,7	0,001
1053,1	0,001
1053,5	0,001
1053,9	0,002
1054,3	0,001
1054,8	0,001
1055,2	0,001
1055,6	0,001
1056	0,001
1056,4	0,001
1056,8	0,001
1057,2	0,002
1057,6	0,002
1058,1	0,002
1058,5	0,002
1058,9	0,002
1059,3	0,002
1059,7	0,001
1060,1	0,002
1060,5	0,001
1061	0,002
1061,4	0,003
1061,8	0,002
1062,2	0,003
1062,6	0,003
1063	0,003
1063,4	0,003
1063,8	0,001
1064,3	-0
1064,7	0,001
1065,1	0
1065,5	0,001
1065,9	0
1066,3	0,003
1066,7	0,004
1067,1	0,004
1067,6	0,002
1068	0,003
1068,4	0,003
1068,8	0,002
1069,2	0,001
1069,6	0,001
1070	0,001
1070,4	0,001
1070,9	0,001
1071,3	0,001
1071,7	0,002
1072,1	0,002
1072,5	0,001
1072,9	0,001
1073,3	0,001
1073,7	0
1074,2	0,001
1074,6	0,002
1075	0,001
1075,4	0,001
1075,8	0
1076,2	0,001
1076,6	0,001
1077	0,001
1077,5	-0,001
1077,9	-0
1078,3	-0
1078,7	-0,001
1079,1	-0,002
1079,5	-0,001
1079,9	-0,001
1080,3	-0,001
1080,7	-0,001
1081,2	0,001
1081,6	0,004
1082	0,005
1082,4	0,003
1082,8	0,003
1083,2	0,002
1083,6	0,002
1084	0,001
1084,5	-0,001
1084,9	-0
1085,3	0,002
1085,7	0,002
1086,1	0,003
1086,5	0,002
1086,9	0,002
1087,3	0,002
1087,7	-0,001
1088,2	0,001
1088,6	-0,002
1089	-0,002
1089,4	-0,002
1089,8	-0,004
1090,2	-0,005
1090,6	-0,004
1091	-0,005
1091,4	-0,004
1091,9	-0,005
1092,3	-0,005
1092,7	-0,002
1093,1	0,001
1093,5	-0,001
1093,9	-0,004
1094,3	-0,002
1094,7	-0,001
1095,1	-0,002
1095,5	-0,002
1096	0
1096,4	0,005
1096,8	0,001
1097,2	0,005
1097,6	0,006
1098	0,008
1098,4	0,008
1098,8	0,005
1099,2	0
1099,6	0,004
1100,1	0,002
1100,5	-0
1100,9	-0,008
1101,3	-0,013
1101,7	-0,019
1102,1	-0,011
1102,5	-0,01
1102,9	-0,012
1103,3	0,003
1103,7	0,013
1104,2	0,026
1104,6	0,04
1105	0,034
1105,4	0,028
1105,8	0,034
1106,2	0,021
1106,6	0,024
1107	0,032
1107,4	0,009
1107,8	0,054
1108,3	-0
