Data from Absorbance_00015.txt Node
Date: Thu Aug 10 16:16:54 MSK 2023
User: vat
Spectrometer: MAYP114033
Trigger mode: 0
Integration Time (sec): 8,000000E-3
Scans to average: 10
Electric dark correction enabled: true
Nonlinearity correction enabled: false
Boxcar width: 3
XAxis mode: Wavelengths
Number of Pixels in Spectrum: 2068
>>>>>Begin Spectral Data<<<<<
199,4	0,565
199,9	0,124
200,4	0,45
200,8	0,838
201,3	0,933
201,8	0,974
202,2	1,029
202,7	1,033
203,2	1,086
203,6	1,129
204,1	1,142
204,6	1,156
205	1,168
205,5	1,181
206	1,183
206,4	1,18
206,9	1,19
207,4	1,204
207,8	1,221
208,3	1,262
208,8	1,276
209,2	1,306
209,7	1,327
210,2	1,344
210,6	1,335
211,1	1,357
211,5	1,348
212	1,361
212,5	1,385
212,9	1,413
213,4	1,44
213,9	1,484
214,3	1,503
214,8	1,533
215,3	1,536
215,7	1,562
216,2	1,553
216,7	1,551
217,1	1,571
217,6	1,589
218,1	1,614
218,5	1,615
219	1,628
219,5	1,649
219,9	1,672
220,4	1,684
220,9	1,699
221,3	1,679
221,8	1,71
222,3	1,717
222,7	1,711
223,2	1,735
223,6	1,756
224,1	1,783
224,6	1,802
225	1,807
225,5	1,816
226	1,856
226,4	1,86
226,9	1,857
227,4	1,847
227,8	1,877
228,3	1,907
228,8	1,911
229,2	1,903
229,7	1,917
230,2	1,932
230,6	1,952
231,1	1,947
231,5	1,949
232	1,986
232,5	2,019
232,9	2,019
233,4	2,033
233,9	2,04
234,3	2,067
234,8	2,068
235,3	2,046
235,7	2,056
236,2	2,071
236,7	2,063
237,1	2,067
237,6	2,07
238,1	2,086
238,5	2,095
239	2,093
239,4	2,093
239,9	2,105
240,4	2,12
240,8	2,143
241,3	2,16
241,8	2,202
242,2	2,214
242,7	2,223
243,2	2,26
243,6	2,245
244,1	2,228
244,6	2,221
245	2,215
245,5	2,226
245,9	2,228
246,4	2,212
246,9	2,242
247,3	2,237
247,8	2,243
248,3	2,212
248,7	2,198
249,2	2,209
249,7	2,216
250,1	2,191
250,6	2,2
251	2,193
251,5	2,228
252	2,24
252,4	2,251
252,9	2,241
253,4	2,223
253,8	2,226
254,3	2,237
254,8	2,221
255,2	2,226
255,7	2,205
256,1	2,213
256,6	2,235
257,1	2,24
257,5	2,245
258	2,239
258,5	2,239
258,9	2,268
259,4	2,269
259,9	2,262
260,3	2,279
260,8	2,271
261,2	2,297
261,7	2,295
262,2	2,288
262,6	2,283
263,1	2,329
263,6	2,32
264	2,321
264,5	2,295
264,9	2,319
265,4	2,303
265,9	2,325
266,3	2,296
266,8	2,27
267,3	2,285
267,7	2,304
268,2	2,289
268,7	2,312
269,1	2,287
269,6	2,287
270	2,327
270,5	2,295
271	2,272
271,4	2,255
271,9	2,234
272,4	2,235
272,8	2,256
273,3	2,223
273,7	2,232
274,2	2,239
274,7	2,274
275,1	2,277
275,6	2,28
276,1	2,255
276,5	2,27
277	2,273
277,4	2,269
277,9	2,24
278,4	2,242
278,8	2,248
279,3	2,253
279,8	2,251
280,2	2,258
280,7	2,279
281,1	2,283
281,6	2,267
282,1	2,251
282,5	2,23
283	2,199
283,4	2,173
283,9	2,125
284,4	2,086
284,8	2,061
285,3	2,02
285,8	1,983
286,2	1,938
286,7	1,886
287,1	1,839
287,6	1,797
288,1	1,756
288,5	1,721
289	1,689
289,5	1,661
289,9	1,634
290,4	1,611
290,8	1,592
291,3	1,575
291,8	1,561
292,2	1,547
292,7	1,534
293,1	1,53
293,6	1,529
294,1	1,522
294,5	1,516
295	1,509
295,5	1,505
295,9	1,503
296,4	1,498
296,8	1,49
297,3	1,482
297,8	1,481
298,2	1,479
298,7	1,472
299,1	1,47
299,6	1,464
300,1	1,458
300,5	1,458
301	1,451
301,5	1,445
301,9	1,443
302,4	1,436
302,8	1,431
303,3	1,427
303,8	1,419
304,2	1,415
304,7	1,408
305,1	1,4
305,6	1,393
306,1	1,386
306,5	1,381
307	1,374
307,4	1,366
307,9	1,36
308,4	1,353
308,8	1,343
309,3	1,334
309,8	1,322
310,2	1,316
310,7	1,309
311,1	1,299
311,6	1,292
312,1	1,287
312,5	1,279
313	1,271
313,4	1,258
313,9	1,247
314,4	1,235
314,8	1,226
315,3	1,215
315,7	1,204
316,2	1,194
316,7	1,186
317,1	1,174
317,6	1,165
318	1,153
318,5	1,141
319	1,128
319,4	1,115
319,9	1,102
320,3	1,09
320,8	1,076
321,3	1,065
321,7	1,052
322,2	1,039
322,6	1,029
323,1	1,015
323,6	1,003
324	0,988
324,5	0,975
324,9	0,962
325,4	0,951
325,9	0,937
326,3	0,925
326,8	0,911
327,2	0,899
327,7	0,887
328,2	0,875
328,6	0,862
329,1	0,851
329,5	0,84
330	0,829
330,5	0,818
330,9	0,807
331,4	0,796
331,8	0,784
332,3	0,774
332,8	0,762
333,2	0,751
333,7	0,74
334,1	0,729
334,6	0,718
335,1	0,708
335,5	0,697
336	0,686
336,4	0,676
336,9	0,667
337,4	0,657
337,8	0,648
338,3	0,638
338,7	0,629
339,2	0,621
339,7	0,612
340,1	0,602
340,6	0,593
341	0,583
341,5	0,574
342	0,565
342,4	0,556
342,9	0,547
343,3	0,539
343,8	0,53
344,2	0,522
344,7	0,515
345,2	0,506
345,6	0,497
346,1	0,489
346,5	0,482
347	0,474
347,5	0,467
347,9	0,46
348,4	0,453
348,8	0,446
349,3	0,439
349,8	0,432
350,2	0,425
350,7	0,417
351,1	0,41
351,6	0,404
352	0,397
352,5	0,39
353	0,383
353,4	0,378
353,9	0,373
354,3	0,367
354,8	0,36
355,3	0,355
355,7	0,35
356,2	0,345
356,6	0,339
357,1	0,333
357,5	0,328
358	0,324
358,5	0,318
358,9	0,313
359,4	0,308
359,8	0,302
360,3	0,298
360,8	0,293
361,2	0,288
361,7	0,284
362,1	0,28
362,6	0,275
363	0,271
363,5	0,267
364	0,263
364,4	0,259
364,9	0,254
365,3	0,249
365,8	0,246
366,3	0,242
366,7	0,238
367,2	0,234
367,6	0,229
368,1	0,226
368,5	0,224
369	0,22
369,5	0,217
369,9	0,213
370,4	0,211
370,8	0,209
371,3	0,205
371,7	0,202
372,2	0,2
372,7	0,196
373,1	0,194
373,6	0,19
374	0,187
374,5	0,184
374,9	0,181
375,4	0,178
375,9	0,176
376,3	0,173
376,8	0,171
377,2	0,167
377,7	0,165
378,2	0,163
378,6	0,16
379,1	0,159
379,5	0,156
380	0,155
380,4	0,152
380,9	0,151
381,4	0,149
381,8	0,147
382,3	0,145
382,7	0,142
383,2	0,14
383,6	0,138
384,1	0,136
384,6	0,133
385	0,132
385,5	0,13
385,9	0,128
386,4	0,126
386,8	0,125
387,3	0,124
387,7	0,123
388,2	0,121
388,7	0,119
389,1	0,118
389,6	0,117
390	0,115
390,5	0,113
390,9	0,111
391,4	0,11
391,9	0,109
392,3	0,107
392,8	0,106
393,2	0,104
393,7	0,103
394,1	0,102
394,6	0,1
395,1	0,099
395,5	0,098
396	0,097
396,4	0,096
396,9	0,095
397,3	0,094
397,8	0,093
398,2	0,092
398,7	0,091
399,2	0,089
399,6	0,088
400,1	0,086
400,5	0,085
401	0,084
401,4	0,083
401,9	0,082
402,4	0,081
402,8	0,08
403,3	0,079
403,7	0,078
404,2	0,077
404,6	0,076
405,1	0,075
405,5	0,074
406	0,073
406,5	0,073
406,9	0,072
407,4	0,071
407,8	0,07
408,3	0,069
408,7	0,069
409,2	0,067
409,6	0,066
410,1	0,065
410,6	0,064
411	0,064
411,5	0,062
411,9	0,062
412,4	0,061
412,8	0,061
413,3	0,06
413,7	0,059
414,2	0,058
414,7	0,058
415,1	0,057
415,6	0,057
416	0,056
416,5	0,055
416,9	0,054
417,4	0,053
417,8	0,051
418,3	0,051
418,8	0,05
419,2	0,048
419,7	0,048
420,1	0,047
420,6	0,046
421	0,046
421,5	0,046
421,9	0,045
422,4	0,045
422,8	0,044
423,3	0,044
423,8	0,044
424,2	0,042
424,7	0,041
425,1	0,041
425,6	0,04
426	0,04
426,5	0,038
426,9	0,038
427,4	0,037
427,9	0,037
428,3	0,036
428,8	0,035
429,2	0,034
429,7	0,034
430,1	0,033
430,6	0,033
431	0,032
431,5	0,032
431,9	0,031
432,4	0,03
432,8	0,029
433,3	0,028
433,8	0,028
434,2	0,027
434,7	0,027
435,1	0,027
435,6	0,026
436	0,026
436,5	0,026
436,9	0,026
437,4	0,025
437,8	0,024
438,3	0,023
438,8	0,023
439,2	0,022
439,7	0,021
440,1	0,021
440,6	0,02
441	0,02
441,5	0,019
441,9	0,019
442,4	0,019
442,8	0,018
443,3	0,018
443,7	0,018
444,2	0,018
444,7	0,017
445,1	0,017
445,6	0,017
446	0,017
446,5	0,017
446,9	0,016
447,4	0,016
447,8	0,016
448,3	0,016
448,7	0,016
449,2	0,016
449,6	0,016
450,1	0,016
450,6	0,016
451	0,016
451,5	0,015
451,9	0,015
452,4	0,014
452,8	0,014
453,3	0,013
453,7	0,013
454,2	0,013
454,6	0,013
455,1	0,012
455,5	0,012
456	0,012
456,4	0,012
456,9	0,011
457,3	0,01
457,8	0,01
458,3	0,01
458,7	0,009
459,2	0,009
459,6	0,009
460,1	0,009
460,5	0,009
461	0,009
461,4	0,009
461,9	0,009
462,3	0,009
462,8	0,008
463,2	0,008
463,7	0,008
464,1	0,007
464,6	0,007
465	0,007
465,5	0,007
466	0,008
466,4	0,007
466,9	0,007
467,3	0,007
467,8	0,007
468,2	0,007
468,7	0,007
469,1	0,007
469,6	0,007
470	0,007
470,5	0,007
470,9	0,007
471,4	0,006
471,8	0,005
472,3	0,005
472,7	0,005
473,2	0,005
473,6	0,005
474,1	0,005
474,5	0,005
475	0,006
475,4	0,006
475,9	0,005
476,4	0,005
476,8	0,004
477,3	0,004
477,7	0,004
478,2	0,004
478,6	0,004
479,1	0,004
479,5	0,004
480	0,003
480,4	0,003
480,9	0,003
481,3	0,003
481,8	0,003
482,2	0,003
482,7	0,003
483,1	0,004
483,6	0,004
484	0,004
484,5	0,004
484,9	0,003
485,4	0,003
485,8	0,003
486,3	0,002
486,7	0,002
487,2	0,002
487,6	0,002
488,1	0,002
488,5	0,003
489	0,003
489,4	0,004
489,9	0,004
490,4	0,004
490,8	0,003
491,3	0,003
491,7	0,002
492,2	0,002
492,6	0,002
493,1	0,003
493,5	0,003
494	0,002
494,4	0,002
494,9	0,002
495,3	0,003
495,8	0,002
496,2	0,002
496,7	0,001
497,1	0,002
497,6	0,002
498	0,002
498,5	0,002
498,9	0,001
499,4	0,002
499,8	0,003
500,3	0,002
500,7	0,002
501,2	0,001
501,6	0,002
502,1	0,002
502,5	0,002
503	0,001
503,4	0,001
503,9	0,001
504,3	0,002
504,8	0,002
505,2	0,002
505,7	0,002
506,1	0,002
506,6	0,002
507	0,002
507,5	0,002
507,9	0,001
508,4	0,002
508,8	0,001
509,3	0,001
509,7	0,001
510,2	0,002
510,6	0,001
511,1	0,001
511,5	0,001
512	0
512,4	-0
512,9	-0
513,3	-0,001
513,8	0
514,2	0
514,7	0
515,1	0,001
515,6	0,001
516	0,001
516,5	0,001
516,9	0
517,4	0,001
517,8	0
518,3	0,001
518,7	0
519,2	-0
519,6	-0
520,1	0
520,5	0
521	0,001
521,4	0,001
521,9	0,001
522,3	0,002
522,8	0,001
523,2	0,001
523,7	0,002
524,1	0,001
524,6	0
525	0
525,5	0
525,9	0,001
526,4	0,001
526,8	0,001
527,3	0,001
527,7	0,002
528,2	0,002
528,6	0,002
529,1	0,001
529,5	0,001
530	0,001
530,4	-0
530,9	-0
531,3	-0
531,8	-0,001
532,2	0
532,6	0
533,1	-0
533,5	0
534	-0
534,4	-0
534,9	0
535,3	-0,001
535,8	-0,001
536,2	-0,001
536,7	-0,001
537,1	-0
537,6	-0
538	-0,001
538,5	-0,001
538,9	-0
539,4	-0
539,8	-0,001
540,3	-0
540,7	-0,001
541,2	-0,001
541,6	0
542,1	0
542,5	0
543	0
543,4	0
543,9	0,001
544,3	0,001
544,8	0
545,2	0
545,7	0,001
546,1	0,001
546,5	0
547	0,001
547,4	0,001
547,9	0,001
548,3	0
548,8	0,001
549,2	0,001
549,7	0,001
550,1	0,001
550,6	0,001
551	0,001
551,5	0,001
551,9	0
552,4	0
552,8	-0
553,3	-0
553,7	-0
554,2	-0
554,6	-0
555,1	-0
555,5	0
555,9	0
556,4	0
556,8	0
557,3	-0
557,7	-0
558,2	-0
558,6	-0,001
559,1	-0,001
559,5	-0,001
560	-0,002
560,4	-0,001
560,9	-0,001
561,3	-0,001
561,8	-0
562,2	-0
562,7	-0
563,1	-0
563,6	0
564	-0
564,4	-0
564,9	0
565,3	0
565,8	0
566,2	0,001
566,7	0
567,1	-0
567,6	-0
568	-0
568,5	-0
568,9	-0,001
569,4	-0,001
569,8	-0,001
570,3	-0,001
570,7	-0,001
571,1	-0,001
571,6	-0,001
572	-0,001
572,5	-0,001
572,9	-0,001
573,4	-0,001
573,8	-0,002
574,3	-0,001
574,7	-0,001
575,2	-0,001
575,6	-0,001
576,1	-0,001
576,5	-0
576,9	-0
577,4	-0
577,8	-0
578,3	0
578,7	0
579,2	-0
579,6	-0
580,1	-0
580,5	-0
581	-0
581,4	-0
581,9	-0,001
582,3	-0
582,7	0
583,2	-0
583,6	0
584,1	-0,001
584,5	-0
585	-0
585,4	-0,001
585,9	-0,001
586,3	-0,001
586,8	-0,001
587,2	-0,001
587,6	-0,001
588,1	-0,001
588,5	-0,001
589	-0,001
589,4	-0,001
589,9	-0,001
590,3	-0,001
590,8	-0,001
591,2	-0,001
591,7	-0,001
592,1	-0,001
592,5	-0,001
593	-0,001
593,4	-0,001
593,9	-0,001
594,3	-0,001
594,8	-0,001
595,2	-0
595,7	-0
596,1	0
596,6	0
597	0
597,4	0
597,9	0
598,3	0
598,8	0
599,2	0,001
599,7	0,001
600,1	0
600,6	0
601	-0
601,4	-0
601,9	-0
602,3	-0,001
602,8	-0,001
603,2	-0,001
603,7	-0,001
604,1	-0
604,6	-0
605	-0
605,4	-0
605,9	-0
606,3	-0
606,8	-0
607,2	-0,001
607,7	-0,001
608,1	-0,001
608,6	-0,001
609	-0,001
609,4	-0,001
609,9	-0,001
610,3	-0,001
610,8	-0,001
611,2	-0
611,7	-0,001
612,1	0
612,6	-0
613	-0
613,4	-0,001
613,9	-0,001
614,3	-0,001
614,8	-0,001
615,2	-0,001
615,7	-0,001
616,1	-0
616,6	0
617	-0
617,4	-0
617,9	-0
618,3	-0
618,8	-0
619,2	-0,001
619,7	-0,001
620,1	-0,001
620,5	-0,001
621	-0,001
621,4	-0,001
621,9	-0,001
622,3	-0,001
622,8	-0,001
623,2	0
623,6	0
624,1	0
624,5	-0
625	-0,001
625,4	-0,001
625,9	-0,001
626,3	-0,001
626,8	-0,001
627,2	-0,001
627,6	-0,001
628,1	-0,001
628,5	-0
629	-0
629,4	-0
629,9	-0,001
630,3	-0,001
630,7	-0,001
631,2	-0,001
631,6	-0,001
632,1	-0,001
632,5	-0,001
633	-0
633,4	0
633,8	0
634,3	0
634,7	0,001
635,2	0,001
635,6	0
636,1	0
636,5	0
636,9	0,001
637,4	0,001
637,8	0
638,3	0,001
638,7	0
639,2	0
639,6	-0
640	-0,001
640,5	-0,001
640,9	-0,001
641,4	-0,001
641,8	-0,001
642,2	-0,001
642,7	-0,001
643,1	-0,001
643,6	-0,001
644	-0,001
644,5	-0
644,9	-0
645,3	-0
645,8	-0
646,2	-0
646,7	-0
647,1	-0
647,6	0
648	0
648,4	0
648,9	0
649,3	0
649,8	0
650,2	0
650,6	-0
651,1	-0
651,5	-0
652	-0
652,4	-0
652,9	-0
653,3	-0
653,7	-0
654,2	-0
654,6	-0
655,1	-0,001
655,5	-0
655,9	-0
656,4	-0
656,8	0
657,3	0,001
657,7	0,001
658,2	0,001
658,6	0,001
659	0,002
659,5	0,003
659,9	0,001
660,4	0,001
660,8	0
661,2	0
661,7	-0
662,1	-0
662,6	0
663	0
663,4	0
663,9	0,001
664,3	0
664,8	0,001
665,2	0,001
665,6	0,001
666,1	0
666,5	-0
667	-0
667,4	-0
667,9	-0
668,3	-0
668,7	-0
669,2	-0
669,6	0
670,1	0
670,5	0
670,9	-0
671,4	-0
671,8	-0,001
672,3	-0,001
672,7	-0,001
673,1	-0,001
673,6	-0,001
674	-0,001
674,5	-0,001
674,9	0
675,3	-0
675,8	-0
676,2	-0,001
676,7	-0,001
677,1	-0,001
677,5	-0,001
678	-0,001
678,4	-0,001
678,9	-0,001
679,3	-0
679,7	-0
680,2	-0
680,6	0
681,1	0
681,5	-0
681,9	-0,001
682,4	-0,001
682,8	-0,001
683,3	-0,001
683,7	-0,001
684,1	-0,001
684,6	-0
685	-0
685,5	-0
685,9	-0
686,3	-0,001
686,8	-0,001
687,2	-0,001
687,7	-0,001
688,1	-0,001
688,5	-0,001
689	-0,001
689,4	-0,001
689,9	-0,001
690,3	-0,001
690,7	-0
691,2	-0,001
691,6	-0,001
692	-0,001
692,5	-0
692,9	-0,001
693,4	-0,001
693,8	-0,001
694,2	-0,001
694,7	-0
695,1	-0,001
695,6	-0,001
696	-0,001
696,4	-0,001
696,9	-0,001
697,3	-0,001
697,8	-0,001
698,2	-0
698,6	-0
699,1	0
699,5	0,001
699,9	0
700,4	0,001
700,8	0
701,3	-0
701,7	-0
702,1	-0,001
702,6	-0,001
703	-0,001
703,5	-0,001
703,9	-0,001
704,3	-0,001
704,8	-0,001
705,2	-0,001
705,6	-0,001
706,1	-0,001
706,5	-0
707	-0
707,4	0
707,8	0
708,3	0,001
708,7	0,001
709,2	0,001
709,6	0
710	0
710,5	0
710,9	0
711,3	-0
711,8	-0
712,2	-0
712,7	-0
713,1	-0
713,5	-0
714	-0,001
714,4	-0
714,8	-0
715,3	-0
715,7	-0
716,2	0
716,6	0
717	0,001
717,5	0
717,9	0
718,3	0,001
718,8	0
719,2	-0
719,7	0
720,1	0
720,5	0
721	0,001
721,4	0,001
721,8	0,001
722,3	0,002
722,7	0,002
723,2	0,002
723,6	0,001
724	0,001
724,5	0,001
724,9	0,001
725,3	0
725,8	0
726,2	-0
726,7	0
727,1	0
727,5	0
728	0,001
728,4	0
728,8	0
729,3	-0
729,7	-0,001
730,1	-0,001
730,6	-0,001
731	-0,002
731,5	-0,002
731,9	-0,002
732,3	-0,001
732,8	-0,001
733,2	-0,001
733,6	-0
734,1	-0
734,5	-0,001
734,9	-0
735,4	-0
735,8	-0,001
736,3	-0,001
736,7	-0,001
737,1	-0,001
737,6	-0,001
738	-0
738,4	-0
738,9	-0,001
739,3	-0
739,7	-0
740,2	-0
740,6	-0,001
741,1	-0
741,5	0
741,9	0
742,4	0
742,8	0
743,2	0
743,7	0,001
744,1	0
744,5	-0
745	-0
745,4	-0
745,8	-0
746,3	-0
746,7	-0
747,2	-0
747,6	0
748	0
748,5	-0
748,9	-0
749,3	-0
749,8	-0,001
750,2	-0,001
750,6	-0,001
751,1	-0,001
751,5	-0,001
751,9	-0,001
752,4	-0
752,8	-0
753,3	-0,001
753,7	-0,001
754,1	-0,001
754,6	-0,002
755	-0,002
755,4	-0,002
755,9	-0,002
756,3	-0,002
756,7	-0,002
757,2	-0,001
757,6	-0,001
758	-0,001
758,5	-0,001
758,9	-0
759,3	-0
759,8	-0
760,2	-0
760,6	-0
761,1	-0,001
761,5	-0,001
761,9	-0,001
762,4	-0,002
762,8	-0,002
763,3	-0,002
763,7	-0,002
764,1	-0,002
764,6	-0,001
765	-0,001
765,4	-0,001
765,9	-0,001
766,3	-0,001
766,7	-0,001
767,2	-0
767,6	-0
768	-0
768,5	-0
768,9	-0,001
769,3	-0,001
769,8	-0,001
770,2	-0
770,6	-0
771,1	-0,001
771,5	-0
771,9	-0
772,4	-0,001
772,8	-0,001
773,2	-0,001
773,7	-0,001
774,1	-0,001
774,5	-0,001
775	-0,001
775,4	-0
775,8	-0,001
776,3	-0
776,7	-0,001
777,1	-0,001
777,6	-0,001
778	-0,001
778,4	-0,001
778,9	-0,001
779,3	-0,001
779,7	-0,001
780,2	-0,001
780,6	-0
781	-0
781,5	-0
781,9	-0
782,3	-0,001
782,8	-0,001
783,2	-0,001
783,6	-0,001
784,1	-0,002
784,5	-0,001
784,9	-0,001
785,4	-0,002
785,8	-0,002
786,2	-0,001
786,7	-0,001
787,1	-0,001
787,5	-0,001
788	-0,001
788,4	-0,001
788,8	-0,001
789,3	-0,001
789,7	-0,001
790,1	-0,001
790,6	-0,001
791	-0,001
791,4	-0
791,9	-0,001
792,3	-0
792,7	-0
793,2	-0
793,6	-0
794	-0
794,5	0
794,9	0
795,3	-0
795,8	-0
796,2	-0
796,6	-0
797,1	-0
797,5	-0,001
797,9	-0,001
798,4	-0,001
798,8	-0,001
799,2	-0,001
799,7	-0
800,1	-0
800,5	-0
801	0
801,4	0
801,8	0
802,2	0
802,7	0
803,1	0
803,5	0
804	0
804,4	0
804,8	0
805,3	0
805,7	-0
806,1	-0
806,6	-0
807	-0
807,4	0
807,9	0
808,3	0
808,7	0
809,2	0,001
809,6	0,001
810	0
810,4	0,001
810,9	0
811,3	0
811,7	0
812,2	0
812,6	-0
813	-0
813,5	-0
813,9	-0
814,3	-0,001
814,8	-0,001
815,2	-0,001
815,6	-0,001
816,1	-0,001
816,5	-0,001
816,9	-0,001
817,3	-0,001
817,8	-0,001
818,2	-0,001
818,6	-0,001
819,1	-0,001
819,5	-0,001
819,9	-0
820,4	-0,001
820,8	-0,001
821,2	-0,001
821,7	-0,001
822,1	-0,001
822,5	-0,001
822,9	-0,002
823,4	-0,001
823,8	-0,001
824,2	-0,001
824,7	-0,001
825,1	-0,001
825,5	-0
826	-0
826,4	-0,001
826,8	-0,001
827,3	-0,001
827,7	-0,001
828,1	-0,001
828,5	-0,001
829	-0,001
829,4	-0,001
829,8	-0,001
830,3	-0,001
830,7	-0,001
831,1	-0,001
831,6	-0
832	-0
832,4	-0
832,8	0
833,3	0
833,7	0
834,1	0
834,6	0,001
835	0,001
835,4	0,001
835,8	0,001
836,3	0,001
836,7	0,001
837,1	0,001
837,6	0,001
838	-0
838,4	-0
838,9	-0,001
839,3	-0,001
839,7	-0,002
840,1	-0,002
840,6	-0,002
841	-0,002
841,4	-0,002
841,9	-0,001
842,3	-0,001
842,7	-0
843,1	-0
843,6	0
844	0
844,4	0,001
844,9	0,001
845,3	0
845,7	-0
846,2	0
846,6	-0
847	-0
847,4	-0,001
847,9	-0,001
848,3	-0,001
848,7	-0,001
849,2	-0,001
849,6	-0,001
850	-0,001
850,4	-0,001
850,9	-0,001
851,3	-0
851,7	-0
852,2	-0,001
852,6	-0
853	-0
853,4	-0
853,9	-0
854,3	-0
854,7	-0
855,2	-0
855,6	-0
856	-0,001
856,4	-0,001
856,9	-0,001
857,3	-0,001
857,7	-0,001
858,2	-0,001
858,6	-0,001
859	-0
859,4	-0,001
859,9	-0,001
860,3	-0,001
860,7	-0,001
861,1	-0,001
861,6	-0
862	-0,001
862,4	-0
862,9	-0
863,3	-0
863,7	0
864,1	0
864,6	0
865	0,001
865,4	0,001
865,9	0
866,3	0
866,7	-0
867,1	-0
867,6	-0
868	-0,001
868,4	-0,001
868,8	-0,001
869,3	-0
869,7	-0
870,1	0
870,6	0
871	0
871,4	0
871,8	0
872,3	0
872,7	0,001
873,1	0,001
873,5	0,001
874	0,001
874,4	0,001
874,8	0,001
875,3	0,001
875,7	0,001
876,1	0,001
876,5	0
877	0
877,4	-0
877,8	-0
878,2	-0
878,7	-0,001
879,1	-0,001
879,5	-0,001
879,9	-0,001
880,4	-0,001
880,8	-0,001
881,2	-0,001
881,7	-0
882,1	-0,001
882,5	-0,001
882,9	-0
883,4	-0
883,8	-0
884,2	0
884,6	-0
885,1	0,001
885,5	0
885,9	0
886,3	0,001
886,8	0,001
887,2	0
887,6	0
888	-0
888,5	0
888,9	-0
889,3	-0
889,8	-0,001
890,2	-0
890,6	0
891	0
891,5	0,001
891,9	0,001
892,3	0,001
892,7	0,001
893,2	0,001
893,6	0,001
894	0,001
894,4	0,001
894,9	0,001
895,3	0,001
895,7	0,001
896,1	0
896,6	-0
897	-0
897,4	-0
897,8	-0
898,3	-0,001
898,7	-0,001
899,1	-0,001
899,5	-0,001
900	-0,001
900,4	-0,001
900,8	-0,001
901,2	-0,001
901,7	-0,001
902,1	-0,001
902,5	-0,001
902,9	-0,001
903,4	-0,001
903,8	-0,001
904,2	-0,001
904,6	-0,001
905,1	-0,001
905,5	-0,001
905,9	-0,001
906,3	-0,001
906,8	-0,001
907,2	-0,002
907,6	-0,002
908	-0,002
908,5	-0,002
908,9	-0,002
909,3	-0,002
909,7	-0,001
910,2	-0,001
910,6	-0,001
911	-0,001
911,4	-0,001
911,9	-0,001
912,3	-0
912,7	-0
913,1	-0
913,6	-0
914	-0
914,4	-0
914,8	-0
915,3	-0
915,7	0
916,1	0,001
916,5	0
916,9	0
917,4	0,001
917,8	0
918,2	0,001
918,6	0
919,1	-0
919,5	-0
919,9	-0
920,3	-0
920,8	-0
921,2	-0,001
921,6	-0,001
922	-0
922,5	-0,001
922,9	-0,001
923,3	-0
923,7	-0,001
924,2	-0
924,6	-0
925	-0,001
925,4	-0
925,8	0
926,3	0
926,7	0
927,1	0
927,5	0
928	0,001
928,4	0,001
928,8	0
929,2	-0
929,7	0
930,1	0
930,5	0
930,9	0
931,3	-0
931,8	-0
932,2	-0
932,6	-0,001
933	-0,001
933,5	-0,001
933,9	-0,001
934,3	-0,002
934,7	-0,002
935,2	-0,002
935,6	-0,002
936	-0,002
936,4	-0,001
936,8	-0,001
937,3	-0
937,7	0
938,1	0,001
938,5	0
939	0
939,4	0
939,8	-0
940,2	-0
940,6	-0
941,1	-0,001
941,5	-0
941,9	-0
942,3	-0,001
942,8	-0,001
943,2	-0,001
943,6	-0,001
944	-0,001
944,4	-0,001
944,9	-0,002
945,3	-0,001
945,7	-0,001
946,1	-0,001
946,6	-0,001
947	-0,001
947,4	-0,001
947,8	-0
948,2	-0,001
948,7	-0
949,1	0
949,5	0
949,9	0,001
950,3	-0
950,8	-0
951,2	-0
951,6	-0,001
952	-0,002
952,5	-0,001
952,9	-0,001
953,3	-0,001
953,7	-0
954,1	-0
954,6	-0,001
955	-0
955,4	-0,001
955,8	-0
956,2	-0,001
956,7	-0,001
957,1	-0,001
957,5	-0,001
957,9	-0,001
958,3	-0,001
958,8	-0,002
959,2	-0,001
959,6	-0,001
960	-0,001
960,5	-0,001
960,9	-0,001
961,3	-0,001
961,7	-0,001
962,1	-0,001
962,6	-0,001
963	-0,002
963,4	-0,002
963,8	-0,002
964,2	-0,002
964,7	-0,001
965,1	-0
965,5	-0
965,9	-0
966,3	-0
966,8	0
967,2	-0
967,6	-0,001
968	-0,001
968,4	-0,001
968,9	-0,001
969,3	-0,001
969,7	-0,001
970,1	-0,001
970,5	-0
971	0
971,4	-0
971,8	0,001
972,2	0
972,6	0,001
973,1	0,001
973,5	-0
973,9	-0,001
974,3	-0
974,7	-0,002
975,2	-0,001
975,6	-0,002
976	-0,002
976,4	-0,002
976,8	-0,001
977,3	-0,001
977,7	-0,001
978,1	-0,001
978,5	-0,001
978,9	-0
979,4	-0
979,8	-0,001
980,2	-0,001
980,6	-0,001
981	-0
981,5	-0
981,9	-0
982,3	0
982,7	0
983,1	0
983,6	0
984	0
984,4	0
984,8	0
985,2	0
985,6	-0
986,1	-0
986,5	-0
986,9	-0,001
987,3	-0,001
987,7	-0,001
988,2	-0,001
988,6	0
989	-0
989,4	-0
989,8	-0
990,3	-0
990,7	-0
991,1	-0
991,5	-0
991,9	-0,001
992,3	-0,001
992,8	-0,001
993,2	-0,002
993,6	-0,003
994	-0,003
994,4	-0,003
994,9	-0,004
995,3	-0,004
995,7	-0,003
996,1	-0,003
996,5	-0,002
996,9	-0,002
997,4	-0,002
997,8	-0,002
998,2	-0,001
998,6	-0,001
999	-0,001
999,5	-0,002
999,9	-0,002
1000,3	-0,002
1000,7	-0,002
1001,1	-0,002
1001,5	-0,002
1002	-0,003
1002,4	-0,003
1002,8	-0,003
1003,2	-0,004
1003,6	-0,004
1004	-0,003
1004,5	-0,003
1004,9	-0,002
1005,3	-0,002
1005,7	-0,001
1006,1	-0,002
1006,6	-0,001
1007	-0,001
1007,4	-0,002
1007,8	-0,001
1008,2	-0,002
1008,6	-0,002
1009,1	-0,002
1009,5	-0,003
1009,9	-0,003
1010,3	-0,003
1010,7	-0,003
1011,1	-0,002
1011,6	-0,002
1012	-0,002
1012,4	-0,002
1012,8	-0,002
1013,2	-0,002
1013,6	-0,002
1014,1	-0,002
1014,5	-0,002
1014,9	-0,001
1015,3	-0,001
1015,7	-0,001
1016,1	-0,001
1016,6	-0,001
1017	-0,001
1017,4	-0,001
1017,8	-0,002
1018,2	-0,002
1018,6	-0,001
1019,1	-0,001
1019,5	-0,001
1019,9	-0,001
1020,3	-0,001
1020,7	-0,001
1021,1	-0,001
1021,6	-0,001
1022	-0,001
1022,4	-0,001
1022,8	-0,001
1023,2	-0,001
1023,6	-0,001
1024,1	-0,001
1024,5	-0,001
1024,9	-0
1025,3	-0
1025,7	-0
1026,1	-0
1026,6	0
1027	0
1027,4	0
1027,8	0
1028,2	0,001
1028,6	0,001
1029	0,001
1029,5	0
1029,9	0
1030,3	-0
1030,7	-0
1031,1	-0,001
1031,5	-0,001
1032	-0,001
1032,4	-0,001
1032,8	-0,001
1033,2	-0
1033,6	-0,001
1034	-0,002
1034,4	-0,002
1034,9	-0,002
1035,3	-0,002
1035,7	-0,001
1036,1	-0,001
1036,5	0
1036,9	0,001
1037,4	0,001
1037,8	0,002
1038,2	0,002
1038,6	0,002
1039	0,001
1039,4	0,001
1039,8	0,001
1040,3	0,001
1040,7	0,001
1041,1	0,001
1041,5	0
1041,9	0,001
1042,3	0,001
1042,7	0,001
1043,2	-0
1043,6	-0,001
1044	-0,001
1044,4	-0,001
1044,8	-0,001
1045,2	-0,002
1045,6	-0,001
1046,1	-0
1046,5	0,001
1046,9	0,001
1047,3	0
1047,7	-0
1048,1	-0,001
1048,5	-0,001
1049	-0,001
1049,4	-0,002
1049,8	-0,002
1050,2	-0,001
1050,6	-0,001
1051	-0,001
1051,4	-0,001
1051,9	-0,002
1052,3	-0,002
1052,7	-0,002
1053,1	-0,002
1053,5	-0,002
1053,9	-0,002
1054,3	-0,002
1054,8	-0,002
1055,2	-0,002
1055,6	-0,002
1056	-0,003
1056,4	-0,003
1056,8	-0,003
1057,2	-0,003
1057,6	-0,003
1058,1	-0,002
1058,5	-0,001
1058,9	-0,001
1059,3	-0,002
1059,7	-0,002
1060,1	-0,002
1060,5	-0,002
1061	-0,002
1061,4	-0,002
1061,8	-0,002
1062,2	-0,001
1062,6	-0,001
1063	-0,001
1063,4	-0,001
1063,8	-0,001
1064,3	-0,002
1064,7	-0,002
1065,1	-0,003
1065,5	-0,001
1065,9	-0,001
1066,3	0
1066,7	0
1067,1	-0
1067,6	-0,001
1068	0
1068,4	-0
1068,8	-0,002
1069,2	-0,002
1069,6	-0,002
1070	-0,001
1070,4	-0
1070,9	-0,001
1071,3	-0,001
1071,7	-0
1072,1	-0,001
1072,5	-0
1072,9	0
1073,3	-0,002
1073,7	-0,002
1074,2	-0,002
1074,6	-0,001
1075	-0,001
1075,4	-0,002
1075,8	-0,003
1076,2	-0,002
1076,6	-0,001
1077	-0,002
1077,5	-0,003
1077,9	-0,003
1078,3	-0,003
1078,7	-0,003
1079,1	-0,003
1079,5	-0,004
1079,9	-0,004
1080,3	-0,004
1080,7	-0,004
1081,2	-0,003
1081,6	-0,002
1082	-0,002
1082,4	-0,003
1082,8	-0,002
1083,2	-0,002
1083,6	-0,001
1084	-0,002
1084,5	-0,004
1084,9	-0,005
1085,3	-0,003
1085,7	-0,003
1086,1	-0,003
1086,5	-0,003
1086,9	-0,003
1087,3	-0,002
1087,7	-0,001
1088,2	0
1088,6	0
1089	-0,001
1089,4	0
1089,8	-0,001
1090,2	-0,001
1090,6	-0,001
1091	-0,001
1091,4	-0,004
1091,9	-0,004
1092,3	-0,004
1092,7	-0,003
1093,1	-0,001
1093,5	-0,003
1093,9	-0,006
1094,3	-0,003
1094,7	-0,004
1095,1	-0,004
1095,5	-0,001
1096	-0,001
1096,4	0,003
1096,8	0,003
1097,2	0,001
1097,6	0,001
1098	-0,001
1098,4	0
1098,8	-0,001
1099,2	-0,011
1099,6	-0,012
1100,1	-0,007
1100,5	-0,006
1100,9	-0,015
1101,3	-0,019
1101,7	-0,022
1102,1	-0,015
1102,5	-0,017
1102,9	-0,022
1103,3	-0,018
1103,7	-0,011
1104,2	-0,015
1104,6	-0,011
1105	-0,01
1105,4	-0,005
1105,8	-0,005
1106,2	-0,008
1106,6	-0,003
1107	0,024
1107,4	0,016
1107,8	0,052
1108,3	0,366
