Data from Absorbance_00003.txt Node
Date: Thu Aug 10 15:31:22 MSK 2023
User: vat
Spectrometer: MAYP114033
Trigger mode: 0
Integration Time (sec): 8,000000E-3
Scans to average: 10
Electric dark correction enabled: true
Nonlinearity correction enabled: false
Boxcar width: 3
XAxis mode: Wavelengths
Number of Pixels in Spectrum: 2068
>>>>>Begin Spectral Data<<<<<
199,4	-0
199,9	0,317
200,4	0,581
200,8	0,905
201,3	0,972
201,8	1,033
202,2	1,018
202,7	1,043
203,2	1,09
203,6	1,126
204,1	1,128
204,6	1,146
205	1,165
205,5	1,217
206	1,238
206,4	1,271
206,9	1,291
207,4	1,333
207,8	1,355
208,3	1,344
208,8	1,348
209,2	1,361
209,7	1,357
210,2	1,371
210,6	1,359
211,1	1,367
211,5	1,395
212	1,414
212,5	1,436
212,9	1,451
213,4	1,459
213,9	1,458
214,3	1,471
214,8	1,486
215,3	1,483
215,7	1,493
216,2	1,512
216,7	1,52
217,1	1,562
217,6	1,566
218,1	1,578
218,5	1,605
219	1,617
219,5	1,637
219,9	1,644
220,4	1,641
220,9	1,666
221,3	1,677
221,8	1,696
222,3	1,714
222,7	1,731
223,2	1,761
223,6	1,796
224,1	1,811
224,6	1,832
225	1,854
225,5	1,871
226	1,893
226,4	1,903
226,9	1,907
227,4	1,925
227,8	1,917
228,3	1,916
228,8	1,906
229,2	1,91
229,7	1,934
230,2	1,962
230,6	1,945
231,1	1,976
231,5	1,987
232	2,002
232,5	2,012
232,9	1,987
233,4	2,012
233,9	2,034
234,3	2,028
234,8	2,031
235,3	2,064
235,7	2,063
236,2	2,097
236,7	2,066
237,1	2,082
237,6	2,101
238,1	2,115
238,5	2,116
239	2,134
239,4	2,148
239,9	2,171
240,4	2,182
240,8	2,167
241,3	2,169
241,8	2,193
242,2	2,187
242,7	2,174
243,2	2,172
243,6	2,156
244,1	2,188
244,6	2,181
245	2,167
245,5	2,17
245,9	2,158
246,4	2,167
246,9	2,169
247,3	2,169
247,8	2,18
248,3	2,17
248,7	2,173
249,2	2,196
249,7	2,191
250,1	2,189
250,6	2,184
251	2,181
251,5	2,204
252	2,226
252,4	2,23
252,9	2,226
253,4	2,251
253,8	2,268
254,3	2,259
254,8	2,25
255,2	2,238
255,7	2,231
256,1	2,238
256,6	2,233
257,1	2,207
257,5	2,232
258	2,235
258,5	2,239
258,9	2,266
259,4	2,277
259,9	2,299
260,3	2,296
260,8	2,301
261,2	2,301
261,7	2,298
262,2	2,289
262,6	2,304
263,1	2,28
263,6	2,289
264	2,267
264,5	2,265
264,9	2,283
265,4	2,276
265,9	2,257
266,3	2,259
266,8	2,278
267,3	2,285
267,7	2,301
268,2	2,276
268,7	2,299
269,1	2,299
269,6	2,294
270	2,289
270,5	2,299
271	2,262
271,4	2,281
271,9	2,271
272,4	2,27
272,8	2,287
273,3	2,286
273,7	2,284
274,2	2,334
274,7	2,331
275,1	2,342
275,6	2,337
276,1	2,344
276,5	2,35
277	2,358
277,4	2,328
277,9	2,315
278,4	2,307
278,8	2,307
279,3	2,297
279,8	2,278
280,2	2,283
280,7	2,289
281,1	2,312
281,6	2,322
282,1	2,327
282,5	2,339
283	2,372
283,4	2,351
283,9	2,371
284,4	2,366
284,8	2,35
285,3	2,358
285,8	2,359
286,2	2,342
286,7	2,357
287,1	2,333
287,6	2,325
288,1	2,316
288,5	2,324
289	2,323
289,5	2,319
289,9	2,303
290,4	2,304
290,8	2,28
291,3	2,25
291,8	2,197
292,2	2,141
292,7	2,093
293,1	2,033
293,6	1,976
294,1	1,929
294,5	1,869
295	1,825
295,5	1,782
295,9	1,729
296,4	1,685
296,8	1,643
297,3	1,603
297,8	1,577
298,2	1,546
298,7	1,517
299,1	1,496
299,6	1,478
300,1	1,459
300,5	1,443
301	1,426
301,5	1,415
301,9	1,402
302,4	1,389
302,8	1,377
303,3	1,364
303,8	1,356
304,2	1,343
304,7	1,33
305,1	1,322
305,6	1,314
306,1	1,305
306,5	1,297
307	1,286
307,4	1,279
307,9	1,271
308,4	1,263
308,8	1,253
309,3	1,245
309,8	1,238
310,2	1,232
310,7	1,223
311,1	1,215
311,6	1,204
312,1	1,196
312,5	1,188
313	1,178
313,4	1,169
313,9	1,16
314,4	1,15
314,8	1,141
315,3	1,132
315,7	1,123
316,2	1,113
316,7	1,104
317,1	1,096
317,6	1,086
318	1,078
318,5	1,071
319	1,063
319,4	1,057
319,9	1,049
320,3	1,039
320,8	1,034
321,3	1,025
321,7	1,017
322,2	1,009
322,6	1
323,1	0,993
323,6	0,988
324	0,979
324,5	0,972
324,9	0,964
325,4	0,956
325,9	0,947
326,3	0,939
326,8	0,93
327,2	0,921
327,7	0,913
328,2	0,905
328,6	0,896
329,1	0,888
329,5	0,88
330	0,871
330,5	0,865
330,9	0,856
331,4	0,847
331,8	0,839
332,3	0,831
332,8	0,824
333,2	0,817
333,7	0,808
334,1	0,801
334,6	0,793
335,1	0,785
335,5	0,775
336	0,766
336,4	0,757
336,9	0,749
337,4	0,74
337,8	0,733
338,3	0,724
338,7	0,718
339,2	0,71
339,7	0,702
340,1	0,694
340,6	0,686
341	0,678
341,5	0,671
342	0,663
342,4	0,655
342,9	0,647
343,3	0,639
343,8	0,633
344,2	0,625
344,7	0,618
345,2	0,609
345,6	0,601
346,1	0,594
346,5	0,586
347	0,579
347,5	0,571
347,9	0,565
348,4	0,558
348,8	0,552
349,3	0,545
349,8	0,538
350,2	0,532
350,7	0,525
351,1	0,518
351,6	0,511
352	0,504
352,5	0,497
353	0,491
353,4	0,484
353,9	0,478
354,3	0,472
354,8	0,466
355,3	0,46
355,7	0,454
356,2	0,448
356,6	0,441
357,1	0,435
357,5	0,429
358	0,424
358,5	0,419
358,9	0,413
359,4	0,408
359,8	0,404
360,3	0,399
360,8	0,394
361,2	0,388
361,7	0,384
362,1	0,38
362,6	0,374
363	0,369
363,5	0,365
364	0,36
364,4	0,356
364,9	0,351
365,3	0,347
365,8	0,343
366,3	0,338
366,7	0,334
367,2	0,329
367,6	0,326
368,1	0,322
368,5	0,318
369	0,315
369,5	0,312
369,9	0,309
370,4	0,306
370,8	0,303
371,3	0,3
371,7	0,296
372,2	0,293
372,7	0,29
373,1	0,287
373,6	0,284
374	0,282
374,5	0,279
374,9	0,276
375,4	0,274
375,9	0,271
376,3	0,269
376,8	0,266
377,2	0,263
377,7	0,261
378,2	0,259
378,6	0,256
379,1	0,253
379,5	0,251
380	0,249
380,4	0,247
380,9	0,244
381,4	0,241
381,8	0,238
382,3	0,236
382,7	0,233
383,2	0,231
383,6	0,228
384,1	0,226
384,6	0,224
385	0,222
385,5	0,219
385,9	0,217
386,4	0,214
386,8	0,212
387,3	0,21
387,7	0,208
388,2	0,206
388,7	0,204
389,1	0,202
389,6	0,2
390	0,198
390,5	0,196
390,9	0,194
391,4	0,192
391,9	0,19
392,3	0,189
392,8	0,188
393,2	0,186
393,7	0,183
394,1	0,181
394,6	0,179
395,1	0,178
395,5	0,175
396	0,174
396,4	0,173
396,9	0,172
397,3	0,17
397,8	0,17
398,2	0,168
398,7	0,167
399,2	0,165
399,6	0,163
400,1	0,162
400,5	0,161
401	0,16
401,4	0,158
401,9	0,157
402,4	0,156
402,8	0,156
403,3	0,155
403,7	0,154
404,2	0,153
404,6	0,153
405,1	0,152
405,5	0,151
406	0,15
406,5	0,149
406,9	0,148
407,4	0,147
407,8	0,146
408,3	0,145
408,7	0,145
409,2	0,144
409,6	0,144
410,1	0,144
410,6	0,143
411	0,142
411,5	0,141
411,9	0,14
412,4	0,139
412,8	0,138
413,3	0,136
413,7	0,136
414,2	0,136
414,7	0,135
415,1	0,134
415,6	0,134
416	0,133
416,5	0,132
416,9	0,131
417,4	0,13
417,8	0,129
418,3	0,129
418,8	0,128
419,2	0,127
419,7	0,127
420,1	0,126
420,6	0,125
421	0,124
421,5	0,124
421,9	0,123
422,4	0,123
422,8	0,122
423,3	0,122
423,8	0,122
424,2	0,121
424,7	0,121
425,1	0,121
425,6	0,12
426	0,12
426,5	0,119
426,9	0,118
427,4	0,118
427,9	0,117
428,3	0,116
428,8	0,115
429,2	0,115
429,7	0,115
430,1	0,115
430,6	0,114
431	0,114
431,5	0,113
431,9	0,113
432,4	0,112
432,8	0,111
433,3	0,11
433,8	0,11
434,2	0,109
434,7	0,109
435,1	0,109
435,6	0,109
436	0,108
436,5	0,107
436,9	0,106
437,4	0,106
437,8	0,107
438,3	0,106
438,8	0,105
439,2	0,105
439,7	0,104
440,1	0,104
440,6	0,104
441	0,103
441,5	0,102
441,9	0,101
442,4	0,101
442,8	0,1
443,3	0,1
443,7	0,1
444,2	0,1
444,7	0,1
445,1	0,1
445,6	0,1
446	0,1
446,5	0,101
446,9	0,1
447,4	0,1
447,8	0,099
448,3	0,099
448,7	0,099
449,2	0,099
449,6	0,098
450,1	0,098
450,6	0,098
451	0,097
451,5	0,097
451,9	0,097
452,4	0,096
452,8	0,096
453,3	0,096
453,7	0,095
454,2	0,095
454,6	0,095
455,1	0,094
455,5	0,094
456	0,093
456,4	0,093
456,9	0,093
457,3	0,093
457,8	0,093
458,3	0,093
458,7	0,093
459,2	0,092
459,6	0,092
460,1	0,092
460,5	0,091
461	0,091
461,4	0,091
461,9	0,09
462,3	0,09
462,8	0,09
463,2	0,09
463,7	0,09
464,1	0,09
464,6	0,09
465	0,089
465,5	0,089
466	0,088
466,4	0,088
466,9	0,087
467,3	0,088
467,8	0,088
468,2	0,088
468,7	0,088
469,1	0,088
469,6	0,088
470	0,088
470,5	0,087
470,9	0,086
471,4	0,086
471,8	0,085
472,3	0,085
472,7	0,085
473,2	0,084
473,6	0,085
474,1	0,085
474,5	0,084
475	0,084
475,4	0,084
475,9	0,084
476,4	0,084
476,8	0,084
477,3	0,083
477,7	0,083
478,2	0,083
478,6	0,083
479,1	0,083
479,5	0,083
480	0,083
480,4	0,082
480,9	0,082
481,3	0,082
481,8	0,082
482,2	0,082
482,7	0,082
483,1	0,082
483,6	0,082
484	0,082
484,5	0,081
484,9	0,081
485,4	0,081
485,8	0,081
486,3	0,079
486,7	0,079
487,2	0,08
487,6	0,08
488,1	0,08
488,5	0,079
489	0,079
489,4	0,081
489,9	0,081
490,4	0,081
490,8	0,08
491,3	0,08
491,7	0,08
492,2	0,08
492,6	0,08
493,1	0,079
493,5	0,079
494	0,079
494,4	0,078
494,9	0,078
495,3	0,077
495,8	0,077
496,2	0,077
496,7	0,077
497,1	0,076
497,6	0,076
498	0,076
498,5	0,076
498,9	0,076
499,4	0,076
499,8	0,076
500,3	0,076
500,7	0,075
501,2	0,075
501,6	0,075
502,1	0,076
502,5	0,076
503	0,077
503,4	0,076
503,9	0,076
504,3	0,076
504,8	0,076
505,2	0,076
505,7	0,075
506,1	0,075
506,6	0,075
507	0,075
507,5	0,075
507,9	0,075
508,4	0,075
508,8	0,075
509,3	0,074
509,7	0,075
510,2	0,074
510,6	0,074
511,1	0,074
511,5	0,074
512	0,074
512,4	0,075
512,9	0,074
513,3	0,075
513,8	0,074
514,2	0,074
514,7	0,074
515,1	0,074
515,6	0,075
516	0,075
516,5	0,075
516,9	0,075
517,4	0,075
517,8	0,075
518,3	0,074
518,7	0,074
519,2	0,073
519,6	0,073
520,1	0,072
520,5	0,072
521	0,072
521,4	0,072
521,9	0,072
522,3	0,073
522,8	0,073
523,2	0,073
523,7	0,073
524,1	0,073
524,6	0,073
525	0,073
525,5	0,072
525,9	0,072
526,4	0,072
526,8	0,072
527,3	0,072
527,7	0,072
528,2	0,072
528,6	0,072
529,1	0,072
529,5	0,072
530	0,071
530,4	0,071
530,9	0,071
531,3	0,072
531,8	0,072
532,2	0,072
532,6	0,071
533,1	0,072
533,5	0,072
534	0,072
534,4	0,072
534,9	0,071
535,3	0,071
535,8	0,071
536,2	0,07
536,7	0,07
537,1	0,07
537,6	0,069
538	0,069
538,5	0,07
538,9	0,07
539,4	0,07
539,8	0,07
540,3	0,071
540,7	0,07
541,2	0,07
541,6	0,07
542,1	0,069
542,5	0,069
543	0,069
543,4	0,068
543,9	0,068
544,3	0,068
544,8	0,068
545,2	0,069
545,7	0,069
546,1	0,069
546,5	0,07
547	0,069
547,4	0,069
547,9	0,068
548,3	0,068
548,8	0,068
549,2	0,068
549,7	0,067
550,1	0,068
550,6	0,068
551	0,068
551,5	0,067
551,9	0,067
552,4	0,067
552,8	0,067
553,3	0,067
553,7	0,067
554,2	0,067
554,6	0,066
555,1	0,066
555,5	0,066
555,9	0,066
556,4	0,065
556,8	0,065
557,3	0,065
557,7	0,065
558,2	0,065
558,6	0,065
559,1	0,065
559,5	0,065
560	0,065
560,4	0,065
560,9	0,066
561,3	0,065
561,8	0,066
562,2	0,066
562,7	0,066
563,1	0,065
563,6	0,065
564	0,065
564,4	0,065
564,9	0,064
565,3	0,063
565,8	0,063
566,2	0,063
566,7	0,063
567,1	0,063
567,6	0,063
568	0,063
568,5	0,063
568,9	0,063
569,4	0,062
569,8	0,062
570,3	0,062
570,7	0,062
571,1	0,062
571,6	0,062
572	0,062
572,5	0,062
572,9	0,062
573,4	0,062
573,8	0,061
574,3	0,061
574,7	0,061
575,2	0,062
575,6	0,062
576,1	0,061
576,5	0,061
576,9	0,061
577,4	0,061
577,8	0,06
578,3	0,06
578,7	0,06
579,2	0,06
579,6	0,06
580,1	0,06
580,5	0,059
581	0,06
581,4	0,059
581,9	0,058
582,3	0,058
582,7	0,059
583,2	0,059
583,6	0,059
584,1	0,059
584,5	0,059
585	0,059
585,4	0,059
585,9	0,059
586,3	0,059
586,8	0,059
587,2	0,059
587,6	0,059
588,1	0,059
588,5	0,059
589	0,059
589,4	0,059
589,9	0,058
590,3	0,058
590,8	0,058
591,2	0,058
591,7	0,058
592,1	0,058
592,5	0,057
593	0,057
593,4	0,056
593,9	0,056
594,3	0,056
594,8	0,056
595,2	0,055
595,7	0,056
596,1	0,056
596,6	0,056
597	0,056
597,4	0,056
597,9	0,056
598,3	0,057
598,8	0,056
599,2	0,056
599,7	0,056
600,1	0,055
600,6	0,056
601	0,056
601,4	0,055
601,9	0,055
602,3	0,056
602,8	0,055
603,2	0,055
603,7	0,055
604,1	0,055
604,6	0,055
605	0,055
605,4	0,055
605,9	0,054
606,3	0,055
606,8	0,055
607,2	0,054
607,7	0,054
608,1	0,054
608,6	0,053
609	0,053
609,4	0,053
609,9	0,053
610,3	0,053
610,8	0,053
611,2	0,052
611,7	0,052
612,1	0,052
612,6	0,052
613	0,052
613,4	0,052
613,9	0,052
614,3	0,052
614,8	0,052
615,2	0,052
615,7	0,052
616,1	0,052
616,6	0,052
617	0,053
617,4	0,052
617,9	0,052
618,3	0,052
618,8	0,052
619,2	0,052
619,7	0,051
620,1	0,051
620,5	0,051
621	0,051
621,4	0,051
621,9	0,051
622,3	0,05
622,8	0,05
623,2	0,05
623,6	0,05
624,1	0,05
624,5	0,05
625	0,05
625,4	0,05
625,9	0,049
626,3	0,049
626,8	0,049
627,2	0,049
627,6	0,049
628,1	0,049
628,5	0,049
629	0,049
629,4	0,05
629,9	0,049
630,3	0,049
630,7	0,049
631,2	0,049
631,6	0,049
632,1	0,049
632,5	0,049
633	0,048
633,4	0,048
633,8	0,048
634,3	0,048
634,7	0,048
635,2	0,047
635,6	0,047
636,1	0,047
636,5	0,047
636,9	0,047
637,4	0,047
637,8	0,047
638,3	0,048
638,7	0,047
639,2	0,047
639,6	0,047
640	0,047
640,5	0,047
640,9	0,047
641,4	0,046
641,8	0,046
642,2	0,046
642,7	0,046
643,1	0,046
643,6	0,046
644	0,046
644,5	0,046
644,9	0,047
645,3	0,047
645,8	0,046
646,2	0,046
646,7	0,046
647,1	0,046
647,6	0,046
648	0,045
648,4	0,045
648,9	0,045
649,3	0,045
649,8	0,045
650,2	0,045
650,6	0,045
651,1	0,045
651,5	0,045
652	0,045
652,4	0,045
652,9	0,044
653,3	0,044
653,7	0,044
654,2	0,044
654,6	0,044
655,1	0,045
655,5	0,043
655,9	0,029
656,4	0,021
656,8	0,026
657,3	0,027
657,7	0,027
658,2	0,025
658,6	0,022
659	0,033
659,5	0,054
659,9	0,051
660,4	0,048
660,8	0,047
661,2	0,046
661,7	0,045
662,1	0,044
662,6	0,044
663	0,044
663,4	0,044
663,9	0,044
664,3	0,043
664,8	0,042
665,2	0,042
665,6	0,042
666,1	0,042
666,5	0,042
667	0,041
667,4	0,041
667,9	0,041
668,3	0,041
668,7	0,041
669,2	0,041
669,6	0,041
670,1	0,041
670,5	0,041
670,9	0,041
671,4	0,042
671,8	0,041
672,3	0,042
672,7	0,041
673,1	0,042
673,6	0,042
674	0,042
674,5	0,042
674,9	0,042
675,3	0,042
675,8	0,042
676,2	0,042
676,7	0,042
677,1	0,042
677,5	0,041
678	0,041
678,4	0,041
678,9	0,04
679,3	0,04
679,7	0,04
680,2	0,041
680,6	0,041
681,1	0,041
681,5	0,04
681,9	0,041
682,4	0,04
682,8	0,04
683,3	0,04
683,7	0,04
684,1	0,039
684,6	0,039
685	0,039
685,5	0,039
685,9	0,039
686,3	0,039
686,8	0,039
687,2	0,039
687,7	0,039
688,1	0,039
688,5	0,039
689	0,039
689,4	0,039
689,9	0,04
690,3	0,04
690,7	0,04
691,2	0,04
691,6	0,04
692	0,04
692,5	0,04
692,9	0,04
693,4	0,039
693,8	0,04
694,2	0,039
694,7	0,04
695,1	0,039
695,6	0,039
696	0,039
696,4	0,039
696,9	0,039
697,3	0,039
697,8	0,038
698,2	0,039
698,6	0,038
699,1	0,038
699,5	0,038
699,9	0,038
700,4	0,038
700,8	0,038
701,3	0,038
701,7	0,038
702,1	0,037
702,6	0,037
703	0,038
703,5	0,037
703,9	0,037
704,3	0,037
704,8	0,037
705,2	0,037
705,6	0,037
706,1	0,037
706,5	0,037
707	0,037
707,4	0,037
707,8	0,037
708,3	0,037
708,7	0,037
709,2	0,036
709,6	0,036
710	0,036
710,5	0,036
710,9	0,036
711,3	0,037
711,8	0,036
712,2	0,036
712,7	0,037
713,1	0,037
713,5	0,036
714	0,036
714,4	0,036
714,8	0,036
715,3	0,036
715,7	0,036
716,2	0,036
716,6	0,036
717	0,036
717,5	0,036
717,9	0,035
718,3	0,035
718,8	0,036
719,2	0,036
719,7	0,036
720,1	0,036
720,5	0,036
721	0,036
721,4	0,036
721,8	0,036
722,3	0,036
722,7	0,036
723,2	0,035
723,6	0,035
724	0,035
724,5	0,035
724,9	0,034
725,3	0,034
725,8	0,034
726,2	0,034
726,7	0,035
727,1	0,034
727,5	0,034
728	0,034
728,4	0,034
728,8	0,034
729,3	0,034
729,7	0,033
730,1	0,033
730,6	0,033
731	0,033
731,5	0,033
731,9	0,033
732,3	0,034
732,8	0,034
733,2	0,034
733,6	0,035
734,1	0,035
734,5	0,035
734,9	0,035
735,4	0,035
735,8	0,035
736,3	0,034
736,7	0,034
737,1	0,035
737,6	0,035
738	0,035
738,4	0,035
738,9	0,035
739,3	0,035
739,7	0,035
740,2	0,035
740,6	0,035
741,1	0,035
741,5	0,034
741,9	0,034
742,4	0,034
742,8	0,034
743,2	0,034
743,7	0,034
744,1	0,034
744,5	0,034
745	0,035
745,4	0,034
745,8	0,035
746,3	0,034
746,7	0,034
747,2	0,033
747,6	0,033
748	0,033
748,5	0,033
748,9	0,033
749,3	0,033
749,8	0,033
750,2	0,033
750,6	0,033
751,1	0,033
751,5	0,033
751,9	0,033
752,4	0,033
752,8	0,033
753,3	0,033
753,7	0,032
754,1	0,032
754,6	0,032
755	0,032
755,4	0,031
755,9	0,031
756,3	0,031
756,7	0,031
757,2	0,031
757,6	0,031
758	0,031
758,5	0,031
758,9	0,031
759,3	0,032
759,8	0,032
760,2	0,032
760,6	0,032
761,1	0,032
761,5	0,032
761,9	0,032
762,4	0,032
762,8	0,032
763,3	0,032
763,7	0,032
764,1	0,032
764,6	0,031
765	0,031
765,4	0,031
765,9	0,031
766,3	0,03
766,7	0,03
767,2	0,03
767,6	0,03
768	0,03
768,5	0,03
768,9	0,03
769,3	0,03
769,8	0,03
770,2	0,03
770,6	0,03
771,1	0,03
771,5	0,03
771,9	0,03
772,4	0,03
772,8	0,03
773,2	0,03
773,7	0,031
774,1	0,03
774,5	0,031
775	0,031
775,4	0,031
775,8	0,031
776,3	0,031
776,7	0,031
777,1	0,031
777,6	0,031
778	0,031
778,4	0,031
778,9	0,031
779,3	0,031
779,7	0,031
780,2	0,031
780,6	0,031
781	0,031
781,5	0,031
781,9	0,031
782,3	0,031
782,8	0,031
783,2	0,031
783,6	0,031
784,1	0,03
784,5	0,03
784,9	0,03
785,4	0,03
785,8	0,031
786,2	0,03
786,7	0,031
787,1	0,031
787,5	0,031
788	0,031
788,4	0,03
788,8	0,03
789,3	0,03
789,7	0,03
790,1	0,03
790,6	0,03
791	0,03
791,4	0,03
791,9	0,03
792,3	0,03
792,7	0,03
793,2	0,03
793,6	0,031
794	0,031
794,5	0,03
794,9	0,03
795,3	0,03
795,8	0,03
796,2	0,03
796,6	0,03
797,1	0,03
797,5	0,029
797,9	0,029
798,4	0,03
798,8	0,029
799,2	0,029
799,7	0,029
800,1	0,03
800,5	0,03
801	0,03
801,4	0,03
801,8	0,03
802,2	0,03
802,7	0,03
803,1	0,03
803,5	0,03
804	0,03
804,4	0,03
804,8	0,029
805,3	0,029
805,7	0,029
806,1	0,029
806,6	0,029
807	0,029
807,4	0,029
807,9	0,029
808,3	0,029
808,7	0,029
809,2	0,029
809,6	0,029
810	0,029
810,4	0,029
810,9	0,029
811,3	0,029
811,7	0,029
812,2	0,029
812,6	0,029
813	0,029
813,5	0,029
813,9	0,029
814,3	0,029
814,8	0,029
815,2	0,029
815,6	0,029
816,1	0,029
816,5	0,028
816,9	0,028
817,3	0,027
817,8	0,027
818,2	0,027
818,6	0,027
819,1	0,027
819,5	0,027
819,9	0,027
820,4	0,027
820,8	0,028
821,2	0,027
821,7	0,027
822,1	0,028
822,5	0,028
822,9	0,027
823,4	0,027
823,8	0,027
824,2	0,028
824,7	0,027
825,1	0,027
825,5	0,027
826	0,028
826,4	0,029
826,8	0,029
827,3	0,029
827,7	0,029
828,1	0,029
828,5	0,028
829	0,028
829,4	0,028
829,8	0,027
830,3	0,027
830,7	0,027
831,1	0,027
831,6	0,027
832	0,027
832,4	0,027
832,8	0,027
833,3	0,027
833,7	0,027
834,1	0,026
834,6	0,026
835	0,026
835,4	0,026
835,8	0,027
836,3	0,027
836,7	0,027
837,1	0,027
837,6	0,027
838	0,027
838,4	0,027
838,9	0,026
839,3	0,026
839,7	0,026
840,1	0,026
840,6	0,026
841	0,026
841,4	0,026
841,9	0,026
842,3	0,027
842,7	0,027
843,1	0,026
843,6	0,026
844	0,026
844,4	0,026
844,9	0,027
845,3	0,027
845,7	0,027
846,2	0,027
846,6	0,027
847	0,027
847,4	0,027
847,9	0,027
848,3	0,027
848,7	0,027
849,2	0,027
849,6	0,027
850	0,027
850,4	0,026
850,9	0,026
851,3	0,026
851,7	0,026
852,2	0,026
852,6	0,026
853	0,026
853,4	0,026
853,9	0,026
854,3	0,026
854,7	0,027
855,2	0,027
855,6	0,026
856	0,027
856,4	0,027
856,9	0,026
857,3	0,026
857,7	0,026
858,2	0,026
858,6	0,026
859	0,025
859,4	0,025
859,9	0,025
860,3	0,025
860,7	0,025
861,1	0,025
861,6	0,026
862	0,025
862,4	0,025
862,9	0,025
863,3	0,025
863,7	0,025
864,1	0,025
864,6	0,025
865	0,026
865,4	0,026
865,9	0,025
866,3	0,025
866,7	0,025
867,1	0,025
867,6	0,025
868	0,025
868,4	0,024
868,8	0,025
869,3	0,025
869,7	0,024
870,1	0,024
870,6	0,025
871	0,025
871,4	0,025
871,8	0,025
872,3	0,025
872,7	0,025
873,1	0,025
873,5	0,026
874	0,025
874,4	0,025
874,8	0,025
875,3	0,025
875,7	0,025
876,1	0,024
876,5	0,024
877	0,024
877,4	0,024
877,8	0,024
878,2	0,023
878,7	0,023
879,1	0,023
879,5	0,023
879,9	0,023
880,4	0,023
880,8	0,024
881,2	0,024
881,7	0,024
882,1	0,025
882,5	0,025
882,9	0,025
883,4	0,024
883,8	0,024
884,2	0,024
884,6	0,024
885,1	0,024
885,5	0,024
885,9	0,024
886,3	0,024
886,8	0,024
887,2	0,024
887,6	0,023
888	0,024
888,5	0,024
888,9	0,024
889,3	0,024
889,8	0,025
890,2	0,025
890,6	0,024
891	0,024
891,5	0,024
891,9	0,024
892,3	0,024
892,7	0,024
893,2	0,024
893,6	0,023
894	0,023
894,4	0,023
894,9	0,023
895,3	0,023
895,7	0,022
896,1	0,022
896,6	0,023
897	0,023
897,4	0,022
897,8	0,023
898,3	0,022
898,7	0,023
899,1	0,023
899,5	0,023
900	0,023
900,4	0,023
900,8	0,024
901,2	0,024
901,7	0,024
902,1	0,024
902,5	0,024
902,9	0,024
903,4	0,024
903,8	0,024
904,2	0,024
904,6	0,024
905,1	0,023
905,5	0,023
905,9	0,023
906,3	0,023
906,8	0,022
907,2	0,022
907,6	0,022
908	0,022
908,5	0,022
908,9	0,022
909,3	0,022
909,7	0,022
910,2	0,023
910,6	0,023
911	0,023
911,4	0,023
911,9	0,023
912,3	0,023
912,7	0,023
913,1	0,023
913,6	0,023
914	0,023
914,4	0,023
914,8	0,023
915,3	0,023
915,7	0,023
916,1	0,023
916,5	0,022
916,9	0,022
917,4	0,022
917,8	0,021
918,2	0,021
918,6	0,021
919,1	0,021
919,5	0,021
919,9	0,021
920,3	0,021
920,8	0,021
921,2	0,021
921,6	0,021
922	0,021
922,5	0,021
922,9	0,021
923,3	0,021
923,7	0,022
924,2	0,021
924,6	0,021
925	0,021
925,4	0,021
925,8	0,021
926,3	0,021
926,7	0,021
927,1	0,021
927,5	0,021
928	0,021
928,4	0,022
928,8	0,022
929,2	0,022
929,7	0,022
930,1	0,022
930,5	0,022
930,9	0,022
931,3	0,022
931,8	0,023
932,2	0,023
932,6	0,022
933	0,022
933,5	0,022
933,9	0,022
934,3	0,022
934,7	0,022
935,2	0,021
935,6	0,021
936	0,021
936,4	0,021
936,8	0,021
937,3	0,021
937,7	0,021
938,1	0,021
938,5	0,021
939	0,021
939,4	0,021
939,8	0,021
940,2	0,021
940,6	0,021
941,1	0,022
941,5	0,021
941,9	0,021
942,3	0,021
942,8	0,022
943,2	0,021
943,6	0,021
944	0,021
944,4	0,021
944,9	0,021
945,3	0,021
945,7	0,021
946,1	0,021
946,6	0,022
947	0,022
947,4	0,022
947,8	0,022
948,2	0,021
948,7	0,022
949,1	0,021
949,5	0,021
949,9	0,021
950,3	0,021
950,8	0,021
951,2	0,021
951,6	0,02
952	0,02
952,5	0,02
952,9	0,02
953,3	0,02
953,7	0,02
954,1	0,02
954,6	0,02
955	0,02
955,4	0,02
955,8	0,02
956,2	0,02
956,7	0,02
957,1	0,02
957,5	0,021
957,9	0,021
958,3	0,021
958,8	0,021
959,2	0,021
959,6	0,021
960	0,021
960,5	0,02
960,9	0,02
961,3	0,02
961,7	0,02
962,1	0,02
962,6	0,02
963	0,02
963,4	0,021
963,8	0,021
964,2	0,021
964,7	0,022
965,1	0,022
965,5	0,022
965,9	0,022
966,3	0,021
966,8	0,022
967,2	0,021
967,6	0,021
968	0,021
968,4	0,021
968,9	0,022
969,3	0,022
969,7	0,021
970,1	0,021
970,5	0,021
971	0,021
971,4	0,021
971,8	0,021
972,2	0,021
972,6	0,02
973,1	0,02
973,5	0,02
973,9	0,02
974,3	0,019
974,7	0,019
975,2	0,019
975,6	0,02
976	0,019
976,4	0,019
976,8	0,019
977,3	0,018
977,7	0,019
978,1	0,019
978,5	0,019
978,9	0,019
979,4	0,02
979,8	0,02
980,2	0,021
980,6	0,021
981	0,02
981,5	0,02
981,9	0,02
982,3	0,021
982,7	0,021
983,1	0,021
983,6	0,021
984	0,021
984,4	0,021
984,8	0,021
985,2	0,021
985,6	0,022
986,1	0,022
986,5	0,023
986,9	0,023
987,3	0,024
987,7	0,024
988,2	0,024
988,6	0,023
989	0,023
989,4	0,022
989,8	0,022
990,3	0,021
990,7	0,022
991,1	0,021
991,5	0,021
991,9	0,022
992,3	0,021
992,8	0,02
993,2	0,02
993,6	0,02
994	0,02
994,4	0,02
994,9	0,02
995,3	0,02
995,7	0,02
996,1	0,021
996,5	0,021
996,9	0,021
997,4	0,021
997,8	0,02
998,2	0,02
998,6	0,02
999	0,019
999,5	0,019
999,9	0,019
1000,3	0,02
1000,7	0,019
1001,1	0,02
1001,5	0,02
1002	0,02
1002,4	0,02
1002,8	0,02
1003,2	0,02
1003,6	0,02
1004	0,019
1004,5	0,019
1004,9	0,019
1005,3	0,019
1005,7	0,019
1006,1	0,018
1006,6	0,019
1007	0,019
1007,4	0,019
1007,8	0,019
1008,2	0,02
1008,6	0,019
1009,1	0,019
1009,5	0,019
1009,9	0,019
1010,3	0,019
1010,7	0,019
1011,1	0,019
1011,6	0,019
1012	0,019
1012,4	0,019
1012,8	0,019
1013,2	0,018
1013,6	0,018
1014,1	0,018
1014,5	0,018
1014,9	0,019
1015,3	0,019
1015,7	0,019
1016,1	0,019
1016,6	0,02
1017	0,019
1017,4	0,019
1017,8	0,019
1018,2	0,019
1018,6	0,019
1019,1	0,019
1019,5	0,018
1019,9	0,019
1020,3	0,019
1020,7	0,019
1021,1	0,019
1021,6	0,018
1022	0,018
1022,4	0,018
1022,8	0,018
1023,2	0,017
1023,6	0,017
1024,1	0,018
1024,5	0,018
1024,9	0,019
1025,3	0,019
1025,7	0,018
1026,1	0,019
1026,6	0,019
1027	0,018
1027,4	0,018
1027,8	0,018
1028,2	0,018
1028,6	0,018
1029	0,018
1029,5	0,019
1029,9	0,019
1030,3	0,019
1030,7	0,02
1031,1	0,019
1031,5	0,019
1032	0,02
1032,4	0,019
1032,8	0,019
1033,2	0,019
1033,6	0,019
1034	0,019
1034,4	0,019
1034,9	0,018
1035,3	0,019
1035,7	0,019
1036,1	0,019
1036,5	0,019
1036,9	0,019
1037,4	0,02
1037,8	0,02
1038,2	0,02
1038,6	0,02
1039	0,02
1039,4	0,02
1039,8	0,019
1040,3	0,019
1040,7	0,019
1041,1	0,019
1041,5	0,018
1041,9	0,018
1042,3	0,018
1042,7	0,018
1043,2	0,018
1043,6	0,018
1044	0,017
1044,4	0,017
1044,8	0,017
1045,2	0,017
1045,6	0,017
1046,1	0,017
1046,5	0,018
1046,9	0,018
1047,3	0,018
1047,7	0,019
1048,1	0,019
1048,5	0,019
1049	0,019
1049,4	0,018
1049,8	0,019
1050,2	0,019
1050,6	0,019
1051	0,019
1051,4	0,019
1051,9	0,018
1052,3	0,018
1052,7	0,017
1053,1	0,017
1053,5	0,016
1053,9	0,016
1054,3	0,017
1054,8	0,017
1055,2	0,017
1055,6	0,018
1056	0,019
1056,4	0,019
1056,8	0,019
1057,2	0,019
1057,6	0,019
1058,1	0,019
1058,5	0,018
1058,9	0,018
1059,3	0,018
1059,7	0,018
1060,1	0,017
1060,5	0,017
1061	0,018
1061,4	0,018
1061,8	0,018
1062,2	0,019
1062,6	0,019
1063	0,019
1063,4	0,019
1063,8	0,018
1064,3	0,019
1064,7	0,019
1065,1	0,018
1065,5	0,017
1065,9	0,018
1066,3	0,018
1066,7	0,019
1067,1	0,019
1067,6	0,019
1068	0,02
1068,4	0,02
1068,8	0,019
1069,2	0,019
1069,6	0,02
1070	0,02
1070,4	0,019
1070,9	0,018
1071,3	0,017
1071,7	0,018
1072,1	0,018
1072,5	0,017
1072,9	0,018
1073,3	0,018
1073,7	0,018
1074,2	0,019
1074,6	0,018
1075	0,018
1075,4	0,018
1075,8	0,018
1076,2	0,018
1076,6	0,017
1077	0,018
1077,5	0,017
1077,9	0,016
1078,3	0,015
1078,7	0,014
1079,1	0,013
1079,5	0,014
1079,9	0,013
1080,3	0,014
1080,7	0,015
1081,2	0,016
1081,6	0,016
1082	0,018
1082,4	0,019
1082,8	0,018
1083,2	0,019
1083,6	0,018
1084	0,018
1084,5	0,019
1084,9	0,016
1085,3	0,015
1085,7	0,015
1086,1	0,014
1086,5	0,014
1086,9	0,013
1087,3	0,015
1087,7	0,016
1088,2	0,017
1088,6	0,017
1089	0,019
1089,4	0,022
1089,8	0,025
1090,2	0,023
1090,6	0,022
1091	0,02
1091,4	0,019
1091,9	0,016
1092,3	0,013
1092,7	0,012
1093,1	0,012
1093,5	0,017
1093,9	0,022
1094,3	0,03
1094,7	0,031
1095,1	0,036
1095,5	0,035
1096	0,032
1096,4	0,028
1096,8	0,023
1097,2	0,019
1097,6	0,02
1098	0,017
1098,4	0,023
1098,8	0,023
1099,2	0,021
1099,6	0,027
1100,1	0,022
1100,5	0,019
1100,9	0,02
1101,3	0,015
1101,7	0,021
1102,1	0,02
1102,5	0,02
1102,9	0,027
1103,3	0,028
1103,7	0,032
1104,2	0,037
1104,6	0,036
1105	0,039
1105,4	0,04
1105,8	0,039
1106,2	0,041
1106,6	0,042
1107	0,039
1107,4	0,04
1107,8	0,056
1108,3	0,602
