Data from Absorbance_00021.txt Node
Date: Thu Aug 10 16:26:13 MSK 2023
User: vat
Spectrometer: MAYP114033
Trigger mode: 0
Integration Time (sec): 8,000000E-3
Scans to average: 10
Electric dark correction enabled: true
Nonlinearity correction enabled: false
Boxcar width: 3
XAxis mode: Wavelengths
Number of Pixels in Spectrum: 2068
>>>>>Begin Spectral Data<<<<<
199,4	0,602
199,9	0,203
200,4	0,461
200,8	0,828
201,3	0,913
201,8	0,985
202,2	1,016
202,7	1,046
203,2	1,076
203,6	1,129
204,1	1,158
204,6	1,187
205	1,198
205,5	1,219
206	1,222
206,4	1,232
206,9	1,229
207,4	1,242
207,8	1,26
208,3	1,272
208,8	1,294
209,2	1,322
209,7	1,345
210,2	1,366
210,6	1,368
211,1	1,388
211,5	1,411
212	1,427
212,5	1,444
212,9	1,482
213,4	1,499
213,9	1,51
214,3	1,519
214,8	1,53
215,3	1,53
215,7	1,531
216,2	1,525
216,7	1,526
217,1	1,556
217,6	1,585
218,1	1,616
218,5	1,624
219	1,667
219,5	1,691
219,9	1,739
220,4	1,734
220,9	1,726
221,3	1,715
221,8	1,736
222,3	1,738
222,7	1,749
223,2	1,771
223,6	1,8
224,1	1,843
224,6	1,849
225	1,881
225,5	1,883
226	1,913
226,4	1,924
226,9	1,932
227,4	1,896
227,8	1,941
228,3	1,948
228,8	1,963
229,2	1,971
229,7	1,975
230,2	1,992
230,6	2,026
231,1	2,026
231,5	2,042
232	2,055
232,5	2,038
232,9	2,034
233,4	2,044
233,9	2,066
234,3	2,066
234,8	2,051
235,3	2,053
235,7	2,068
236,2	2,074
236,7	2,07
237,1	2,062
237,6	2,082
238,1	2,086
238,5	2,099
239	2,109
239,4	2,118
239,9	2,126
240,4	2,136
240,8	2,15
241,3	2,182
241,8	2,186
242,2	2,214
242,7	2,241
243,2	2,274
243,6	2,274
244,1	2,245
244,6	2,239
245	2,268
245,5	2,262
245,9	2,242
246,4	2,23
246,9	2,231
247,3	2,243
247,8	2,251
248,3	2,218
248,7	2,217
249,2	2,233
249,7	2,227
250,1	2,227
250,6	2,237
251	2,238
251,5	2,247
252	2,238
252,4	2,227
252,9	2,23
253,4	2,219
253,8	2,227
254,3	2,234
254,8	2,231
255,2	2,243
255,7	2,258
256,1	2,268
256,6	2,292
257,1	2,291
257,5	2,302
258	2,322
258,5	2,334
258,9	2,347
259,4	2,336
259,9	2,332
260,3	2,347
260,8	2,311
261,2	2,32
261,7	2,309
262,2	2,286
262,6	2,306
263,1	2,33
263,6	2,321
264	2,344
264,5	2,328
264,9	2,329
265,4	2,324
265,9	2,342
266,3	2,348
266,8	2,339
267,3	2,321
267,7	2,316
268,2	2,336
268,7	2,37
269,1	2,325
269,6	2,298
270	2,309
270,5	2,303
271	2,309
271,4	2,306
271,9	2,289
272,4	2,299
272,8	2,329
273,3	2,311
273,7	2,33
274,2	2,323
274,7	2,305
275,1	2,305
275,6	2,296
276,1	2,289
276,5	2,304
277	2,299
277,4	2,299
277,9	2,3
278,4	2,296
278,8	2,324
279,3	2,307
279,8	2,307
280,2	2,332
280,7	2,349
281,1	2,363
281,6	2,36
282,1	2,358
282,5	2,347
283	2,348
283,4	2,333
283,9	2,329
284,4	2,306
284,8	2,294
285,3	2,271
285,8	2,259
286,2	2,24
286,7	2,229
287,1	2,177
287,6	2,158
288,1	2,125
288,5	2,093
289	2,061
289,5	2,028
289,9	1,98
290,4	1,965
290,8	1,941
291,3	1,925
291,8	1,907
292,2	1,904
292,7	1,892
293,1	1,892
293,6	1,885
294,1	1,876
294,5	1,872
295	1,868
295,5	1,859
295,9	1,853
296,4	1,849
296,8	1,846
297,3	1,847
297,8	1,848
298,2	1,848
298,7	1,847
299,1	1,847
299,6	1,845
300,1	1,838
300,5	1,837
301	1,832
301,5	1,827
301,9	1,83
302,4	1,828
302,8	1,828
303,3	1,83
303,8	1,833
304,2	1,835
304,7	1,836
305,1	1,831
305,6	1,834
306,1	1,833
306,5	1,835
307	1,829
307,4	1,825
307,9	1,826
308,4	1,826
308,8	1,821
309,3	1,822
309,8	1,819
310,2	1,816
310,7	1,815
311,1	1,812
311,6	1,814
312,1	1,813
312,5	1,808
313	1,801
313,4	1,798
313,9	1,794
314,4	1,786
314,8	1,779
315,3	1,777
315,7	1,772
316,2	1,772
316,7	1,766
317,1	1,759
317,6	1,759
318	1,748
318,5	1,74
319	1,734
319,4	1,721
319,9	1,713
320,3	1,703
320,8	1,689
321,3	1,685
321,7	1,677
322,2	1,67
322,6	1,665
323,1	1,656
323,6	1,65
324	1,641
324,5	1,626
324,9	1,616
325,4	1,604
325,9	1,591
326,3	1,578
326,8	1,562
327,2	1,549
327,7	1,536
328,2	1,523
328,6	1,512
329,1	1,502
329,5	1,494
330	1,486
330,5	1,477
330,9	1,468
331,4	1,456
331,8	1,443
332,3	1,428
332,8	1,414
333,2	1,402
333,7	1,387
334,1	1,375
334,6	1,362
335,1	1,347
335,5	1,334
336	1,32
336,4	1,305
336,9	1,292
337,4	1,277
337,8	1,265
338,3	1,252
338,7	1,237
339,2	1,224
339,7	1,212
340,1	1,199
340,6	1,183
341	1,168
341,5	1,154
342	1,142
342,4	1,128
342,9	1,113
343,3	1,1
343,8	1,088
344,2	1,074
344,7	1,062
345,2	1,048
345,6	1,036
346,1	1,022
346,5	1,009
347	0,995
347,5	0,982
347,9	0,969
348,4	0,955
348,8	0,943
349,3	0,93
349,8	0,919
350,2	0,906
350,7	0,894
351,1	0,883
351,6	0,872
352	0,859
352,5	0,848
353	0,835
353,4	0,824
353,9	0,812
354,3	0,8
354,8	0,789
355,3	0,778
355,7	0,767
356,2	0,755
356,6	0,744
357,1	0,734
357,5	0,723
358	0,712
358,5	0,702
358,9	0,692
359,4	0,683
359,8	0,673
360,3	0,664
360,8	0,655
361,2	0,646
361,7	0,637
362,1	0,629
362,6	0,621
363	0,614
363,5	0,605
364	0,596
364,4	0,587
364,9	0,579
365,3	0,569
365,8	0,56
366,3	0,551
366,7	0,542
367,2	0,534
367,6	0,526
368,1	0,517
368,5	0,509
369	0,502
369,5	0,493
369,9	0,484
370,4	0,475
370,8	0,466
371,3	0,457
371,7	0,448
372,2	0,439
372,7	0,43
373,1	0,421
373,6	0,412
374	0,404
374,5	0,395
374,9	0,386
375,4	0,378
375,9	0,37
376,3	0,361
376,8	0,353
377,2	0,345
377,7	0,337
378,2	0,331
378,6	0,323
379,1	0,316
379,5	0,31
380	0,305
380,4	0,3
380,9	0,294
381,4	0,288
381,8	0,283
382,3	0,278
382,7	0,273
383,2	0,268
383,6	0,264
384,1	0,26
384,6	0,255
385	0,251
385,5	0,247
385,9	0,243
386,4	0,239
386,8	0,236
387,3	0,233
387,7	0,231
388,2	0,228
388,7	0,225
389,1	0,222
389,6	0,219
390	0,215
390,5	0,212
390,9	0,208
391,4	0,206
391,9	0,203
392,3	0,2
392,8	0,198
393,2	0,196
393,7	0,193
394,1	0,192
394,6	0,189
395,1	0,187
395,5	0,184
396	0,183
396,4	0,181
396,9	0,179
397,3	0,177
397,8	0,175
398,2	0,174
398,7	0,172
399,2	0,171
399,6	0,169
400,1	0,167
400,5	0,165
401	0,163
401,4	0,161
401,9	0,159
402,4	0,157
402,8	0,156
403,3	0,154
403,7	0,152
404,2	0,151
404,6	0,149
405,1	0,148
405,5	0,146
406	0,145
406,5	0,143
406,9	0,142
407,4	0,141
407,8	0,139
408,3	0,138
408,7	0,136
409,2	0,134
409,6	0,133
410,1	0,132
410,6	0,131
411	0,13
411,5	0,129
411,9	0,128
412,4	0,127
412,8	0,126
413,3	0,125
413,7	0,124
414,2	0,122
414,7	0,122
415,1	0,12
415,6	0,12
416	0,118
416,5	0,117
416,9	0,116
417,4	0,115
417,8	0,113
418,3	0,113
418,8	0,112
419,2	0,11
419,7	0,109
420,1	0,108
420,6	0,107
421	0,106
421,5	0,105
421,9	0,105
422,4	0,104
422,8	0,103
423,3	0,103
423,8	0,102
424,2	0,101
424,7	0,099
425,1	0,098
425,6	0,097
426	0,096
426,5	0,095
426,9	0,094
427,4	0,094
427,9	0,093
428,3	0,093
428,8	0,092
429,2	0,092
429,7	0,091
430,1	0,091
430,6	0,09
431	0,09
431,5	0,089
431,9	0,089
432,4	0,087
432,8	0,086
433,3	0,085
433,8	0,084
434,2	0,083
434,7	0,083
435,1	0,082
435,6	0,082
436	0,082
436,5	0,082
436,9	0,081
437,4	0,08
437,8	0,08
438,3	0,079
438,8	0,079
439,2	0,078
439,7	0,076
440,1	0,076
440,6	0,075
441	0,074
441,5	0,074
441,9	0,074
442,4	0,073
442,8	0,073
443,3	0,073
443,7	0,072
444,2	0,072
444,7	0,071
445,1	0,071
445,6	0,07
446	0,07
446,5	0,069
446,9	0,069
447,4	0,067
447,8	0,067
448,3	0,067
448,7	0,067
449,2	0,067
449,6	0,067
450,1	0,067
450,6	0,066
451	0,065
451,5	0,065
451,9	0,065
452,4	0,064
452,8	0,063
453,3	0,062
453,7	0,062
454,2	0,062
454,6	0,062
455,1	0,061
455,5	0,061
456	0,061
456,4	0,061
456,9	0,06
457,3	0,059
457,8	0,059
458,3	0,059
458,7	0,057
459,2	0,057
459,6	0,057
460,1	0,056
460,5	0,056
461	0,056
461,4	0,055
461,9	0,055
462,3	0,054
462,8	0,053
463,2	0,053
463,7	0,052
464,1	0,051
464,6	0,05
465	0,051
465,5	0,051
466	0,051
466,4	0,051
466,9	0,051
467,3	0,051
467,8	0,051
468,2	0,05
468,7	0,05
469,1	0,049
469,6	0,049
470	0,049
470,5	0,049
470,9	0,048
471,4	0,047
471,8	0,046
472,3	0,046
472,7	0,046
473,2	0,046
473,6	0,045
474,1	0,044
474,5	0,044
475	0,044
475,4	0,043
475,9	0,042
476,4	0,042
476,8	0,042
477,3	0,042
477,7	0,042
478,2	0,042
478,6	0,042
479,1	0,042
479,5	0,042
480	0,042
480,4	0,042
480,9	0,041
481,3	0,041
481,8	0,041
482,2	0,04
482,7	0,04
483,1	0,04
483,6	0,039
484	0,038
484,5	0,038
484,9	0,037
485,4	0,037
485,8	0,036
486,3	0,036
486,7	0,036
487,2	0,036
487,6	0,036
488,1	0,036
488,5	0,036
489	0,036
489,4	0,036
489,9	0,036
490,4	0,036
490,8	0,035
491,3	0,035
491,7	0,034
492,2	0,033
492,6	0,033
493,1	0,032
493,5	0,032
494	0,032
494,4	0,032
494,9	0,032
495,3	0,032
495,8	0,032
496,2	0,031
496,7	0,03
497,1	0,03
497,6	0,03
498	0,031
498,5	0,03
498,9	0,03
499,4	0,031
499,8	0,031
500,3	0,03
500,7	0,03
501,2	0,029
501,6	0,029
502,1	0,029
502,5	0,029
503	0,028
503,4	0,028
503,9	0,028
504,3	0,028
504,8	0,027
505,2	0,027
505,7	0,028
506,1	0,028
506,6	0,028
507	0,027
507,5	0,027
507,9	0,026
508,4	0,026
508,8	0,025
509,3	0,024
509,7	0,024
510,2	0,025
510,6	0,024
511,1	0,024
511,5	0,024
512	0,024
512,4	0,024
512,9	0,023
513,3	0,023
513,8	0,023
514,2	0,023
514,7	0,023
515,1	0,022
515,6	0,023
516	0,023
516,5	0,023
516,9	0,023
517,4	0,023
517,8	0,022
518,3	0,022
518,7	0,022
519,2	0,021
519,6	0,021
520,1	0,021
520,5	0,021
521	0,021
521,4	0,021
521,9	0,02
522,3	0,021
522,8	0,02
523,2	0,019
523,7	0,02
524,1	0,019
524,6	0,019
525	0,018
525,5	0,018
525,9	0,019
526,4	0,019
526,8	0,019
527,3	0,019
527,7	0,019
528,2	0,019
528,6	0,019
529,1	0,018
529,5	0,018
530	0,018
530,4	0,018
530,9	0,018
531,3	0,017
531,8	0,017
532,2	0,017
532,6	0,017
533,1	0,017
533,5	0,017
534	0,016
534,4	0,016
534,9	0,016
535,3	0,015
535,8	0,014
536,2	0,014
536,7	0,015
537,1	0,015
537,6	0,014
538	0,015
538,5	0,015
538,9	0,015
539,4	0,015
539,8	0,014
540,3	0,014
540,7	0,013
541,2	0,013
541,6	0,013
542,1	0,013
542,5	0,014
543	0,013
543,4	0,014
543,9	0,014
544,3	0,014
544,8	0,014
545,2	0,014
545,7	0,014
546,1	0,014
546,5	0,013
547	0,013
547,4	0,013
547,9	0,013
548,3	0,013
548,8	0,013
549,2	0,013
549,7	0,013
550,1	0,013
550,6	0,013
551	0,013
551,5	0,013
551,9	0,012
552,4	0,012
552,8	0,012
553,3	0,011
553,7	0,011
554,2	0,012
554,6	0,011
555,1	0,011
555,5	0,011
555,9	0,012
556,4	0,012
556,8	0,012
557,3	0,011
557,7	0,011
558,2	0,012
558,6	0,011
559,1	0,011
559,5	0,01
560	0,011
560,4	0,011
560,9	0,01
561,3	0,01
561,8	0,01
562,2	0,01
562,7	0,01
563,1	0,009
563,6	0,009
564	0,009
564,4	0,009
564,9	0,009
565,3	0,009
565,8	0,008
566,2	0,009
566,7	0,009
567,1	0,008
567,6	0,007
568	0,008
568,5	0,008
568,9	0,008
569,4	0,007
569,8	0,007
570,3	0,007
570,7	0,008
571,1	0,008
571,6	0,008
572	0,008
572,5	0,008
572,9	0,008
573,4	0,007
573,8	0,007
574,3	0,007
574,7	0,007
575,2	0,007
575,6	0,007
576,1	0,007
576,5	0,007
576,9	0,007
577,4	0,007
577,8	0,007
578,3	0,007
578,7	0,007
579,2	0,007
579,6	0,007
580,1	0,007
580,5	0,007
581	0,007
581,4	0,007
581,9	0,007
582,3	0,007
582,7	0,007
583,2	0,007
583,6	0,007
584,1	0,006
584,5	0,007
585	0,007
585,4	0,006
585,9	0,006
586,3	0,006
586,8	0,006
587,2	0,006
587,6	0,005
588,1	0,005
588,5	0,005
589	0,005
589,4	0,005
589,9	0,005
590,3	0,005
590,8	0,006
591,2	0,005
591,7	0,006
592,1	0,005
592,5	0,006
593	0,005
593,4	0,005
593,9	0,005
594,3	0,005
594,8	0,005
595,2	0,005
595,7	0,005
596,1	0,005
596,6	0,005
597	0,005
597,4	0,005
597,9	0,005
598,3	0,005
598,8	0,005
599,2	0,005
599,7	0,005
600,1	0,005
600,6	0,005
601	0,005
601,4	0,005
601,9	0,005
602,3	0,005
602,8	0,004
603,2	0,004
603,7	0,004
604,1	0,004
604,6	0,004
605	0,004
605,4	0,004
605,9	0,004
606,3	0,004
606,8	0,004
607,2	0,003
607,7	0,003
608,1	0,003
608,6	0,003
609	0,004
609,4	0,004
609,9	0,004
610,3	0,004
610,8	0,004
611,2	0,005
611,7	0,005
612,1	0,005
612,6	0,005
613	0,005
613,4	0,004
613,9	0,004
614,3	0,004
614,8	0,004
615,2	0,004
615,7	0,004
616,1	0,004
616,6	0,004
617	0,004
617,4	0,005
617,9	0,004
618,3	0,004
618,8	0,004
619,2	0,004
619,7	0,003
620,1	0,003
620,5	0,003
621	0,003
621,4	0,003
621,9	0,003
622,3	0,003
622,8	0,003
623,2	0,003
623,6	0,003
624,1	0,003
624,5	0,004
625	0,003
625,4	0,004
625,9	0,004
626,3	0,004
626,8	0,004
627,2	0,003
627,6	0,003
628,1	0,003
628,5	0,003
629	0,003
629,4	0,003
629,9	0,003
630,3	0,003
630,7	0,003
631,2	0,003
631,6	0,003
632,1	0,004
632,5	0,004
633	0,004
633,4	0,004
633,8	0,004
634,3	0,004
634,7	0,004
635,2	0,004
635,6	0,003
636,1	0,003
636,5	0,003
636,9	0,003
637,4	0,003
637,8	0,003
638,3	0,004
638,7	0,003
639,2	0,004
639,6	0,003
640	0,003
640,5	0,003
640,9	0,002
641,4	0,002
641,8	0,002
642,2	0,002
642,7	0,003
643,1	0,003
643,6	0,003
644	0,004
644,5	0,003
644,9	0,003
645,3	0,003
645,8	0,003
646,2	0,003
646,7	0,003
647,1	0,002
647,6	0,003
648	0,003
648,4	0,003
648,9	0,003
649,3	0,003
649,8	0,003
650,2	0,004
650,6	0,003
651,1	0,003
651,5	0,003
652	0,003
652,4	0,003
652,9	0,002
653,3	0,002
653,7	0,003
654,2	0,002
654,6	0,003
655,1	0,003
655,5	0,001
655,9	0,001
656,4	0,001
656,8	0,002
657,3	0,002
657,7	0,002
658,2	0,002
658,6	0,003
659	0,004
659,5	0,007
659,9	0,005
660,4	0,004
660,8	0,004
661,2	0,003
661,7	0,003
662,1	0,003
662,6	0,003
663	0,003
663,4	0,003
663,9	0,003
664,3	0,003
664,8	0,003
665,2	0,003
665,6	0,003
666,1	0,002
666,5	0,002
667	0,002
667,4	0,002
667,9	0,002
668,3	0,002
668,7	0,002
669,2	0,002
669,6	0,002
670,1	0,001
670,5	0,002
670,9	0,001
671,4	0,001
671,8	0,001
672,3	0,001
672,7	0,001
673,1	0,001
673,6	0,001
674	0,001
674,5	0,001
674,9	0,002
675,3	0,002
675,8	0,002
676,2	0,002
676,7	0,002
677,1	0,002
677,5	0,002
678	0,001
678,4	0,001
678,9	0,001
679,3	0,002
679,7	0,002
680,2	0,003
680,6	0,003
681,1	0,003
681,5	0,003
681,9	0,002
682,4	0,002
682,8	0,002
683,3	0,002
683,7	0,002
684,1	0,002
684,6	0,003
685	0,003
685,5	0,002
685,9	0,002
686,3	0,002
686,8	0,002
687,2	0,002
687,7	0,002
688,1	0,002
688,5	0,002
689	0,002
689,4	0,002
689,9	0,002
690,3	0,002
690,7	0,002
691,2	0,002
691,6	0,002
692	0,002
692,5	0,002
692,9	0,002
693,4	0,002
693,8	0,002
694,2	0,002
694,7	0,002
695,1	0,001
695,6	0,001
696	0,001
696,4	0,001
696,9	0,001
697,3	0,001
697,8	0,001
698,2	0,002
698,6	0,002
699,1	0,002
699,5	0,002
699,9	0,002
700,4	0,002
700,8	0,002
701,3	0,002
701,7	0,001
702,1	0,001
702,6	0,001
703	0,001
703,5	0,001
703,9	0,001
704,3	0,001
704,8	0,001
705,2	0,001
705,6	0,001
706,1	0,002
706,5	0,002
707	0,002
707,4	0,002
707,8	0,003
708,3	0,003
708,7	0,003
709,2	0,003
709,6	0,003
710	0,003
710,5	0,003
710,9	0,003
711,3	0,003
711,8	0,003
712,2	0,003
712,7	0,003
713,1	0,002
713,5	0,002
714	0,002
714,4	0,002
714,8	0,002
715,3	0,002
715,7	0,002
716,2	0,002
716,6	0,002
717	0,002
717,5	0,002
717,9	0,003
718,3	0,003
718,8	0,002
719,2	0,002
719,7	0,002
720,1	0,001
720,5	0,001
721	0,002
721,4	0,002
721,8	0,002
722,3	0,002
722,7	0,002
723,2	0,002
723,6	0,002
724	0,002
724,5	0,002
724,9	0,002
725,3	0,002
725,8	0,002
726,2	0,002
726,7	0,002
727,1	0,002
727,5	0,001
728	0,001
728,4	0,001
728,8	0,001
729,3	0,001
729,7	0,001
730,1	0,001
730,6	0,001
731	0,001
731,5	0,001
731,9	0,001
732,3	0,001
732,8	0,001
733,2	0,001
733,6	0,002
734,1	0,002
734,5	0,001
734,9	0,001
735,4	0,001
735,8	0,002
736,3	0,002
736,7	0,002
737,1	0,002
737,6	0,002
738	0,002
738,4	0,002
738,9	0,002
739,3	0,002
739,7	0,001
740,2	0,001
740,6	0,001
741,1	0,001
741,5	0,001
741,9	0,001
742,4	0,001
742,8	0,001
743,2	0,001
743,7	0,001
744,1	0,001
744,5	0,001
745	0,001
745,4	0,001
745,8	0,002
746,3	0,001
746,7	0,002
747,2	0,002
747,6	0,002
748	0,002
748,5	0,002
748,9	0,001
749,3	0,002
749,8	0,002
750,2	0,002
750,6	0,001
751,1	0,001
751,5	0,002
751,9	0,002
752,4	0,002
752,8	0,002
753,3	0,002
753,7	0,002
754,1	0,002
754,6	0,002
755	0,002
755,4	0,001
755,9	0,001
756,3	0,001
756,7	0,001
757,2	0,001
757,6	0,001
758	0,001
758,5	0,002
758,9	0,001
759,3	0,001
759,8	0,001
760,2	0,001
760,6	0,001
761,1	0,001
761,5	0,001
761,9	0,001
762,4	0,001
762,8	0,001
763,3	0,001
763,7	0,001
764,1	0,001
764,6	0,001
765	0
765,4	0
765,9	0
766,3	0,001
766,7	0,001
767,2	0,001
767,6	0,001
768	0,002
768,5	0,002
768,9	0,002
769,3	0,002
769,8	0,001
770,2	0,001
770,6	0,001
771,1	0,001
771,5	0,001
771,9	0,001
772,4	0,001
772,8	0,002
773,2	0,002
773,7	0,002
774,1	0,002
774,5	0,002
775	0,002
775,4	0,002
775,8	0,002
776,3	0,002
776,7	0,002
777,1	0,002
777,6	0,001
778	0,001
778,4	0,001
778,9	0,001
779,3	0,001
779,7	0,001
780,2	0,001
780,6	0,001
781	0,001
781,5	0,001
781,9	0,001
782,3	0,001
782,8	0,001
783,2	0
783,6	0
784,1	0
784,5	0,001
784,9	0,001
785,4	0,001
785,8	0,001
786,2	0,001
786,7	0,001
787,1	0,001
787,5	0
788	0
788,4	0
788,8	0,001
789,3	0,001
789,7	0,001
790,1	0,001
790,6	0,001
791	0,002
791,4	0,001
791,9	0,001
792,3	0,001
792,7	0,001
793,2	0,001
793,6	0,001
794	0,001
794,5	0,001
794,9	0,001
795,3	0,001
795,8	0,001
796,2	0
796,6	0
797,1	0
797,5	0
797,9	0
798,4	0
798,8	0
799,2	0
799,7	0,001
800,1	0,001
800,5	0,001
801	0,001
801,4	0,001
801,8	0,002
802,2	0,002
802,7	0,002
803,1	0,002
803,5	0,001
804	0,001
804,4	0,001
804,8	0,001
805,3	0,001
805,7	0
806,1	0
806,6	0
807	0,001
807,4	0,001
807,9	0,001
808,3	0,001
808,7	0,001
809,2	0,001
809,6	0,001
810	0,001
810,4	0,001
810,9	0,001
811,3	0,002
811,7	0,002
812,2	0,002
812,6	0,001
813	0,001
813,5	0,001
813,9	0,001
814,3	0,001
814,8	0
815,2	-0
815,6	-0
816,1	-0
816,5	-0
816,9	-0
817,3	-0
817,8	0
818,2	0
818,6	-0
819,1	-0
819,5	-0
819,9	-0
820,4	-0
820,8	-0
821,2	0
821,7	0,001
822,1	0,001
822,5	0,001
822,9	0,001
823,4	0,001
823,8	0,001
824,2	0,001
824,7	0,001
825,1	0,001
825,5	0,001
826	0,001
826,4	0,001
826,8	0,001
827,3	0,001
827,7	0,001
828,1	0
828,5	0
829	0
829,4	0
829,8	0
830,3	0
830,7	0
831,1	0
831,6	0
832	0,001
832,4	0,001
832,8	0,001
833,3	0,001
833,7	0,001
834,1	0,001
834,6	0,001
835	0,001
835,4	0,001
835,8	0,001
836,3	0,001
836,7	0,001
837,1	0,001
837,6	0
838	-0
838,4	-0
838,9	-0
839,3	-0
839,7	-0,001
840,1	-0,001
840,6	-0,001
841	-0
841,4	-0,001
841,9	-0,001
842,3	-0,001
842,7	-0
843,1	-0,001
843,6	-0,001
844	-0
844,4	0
844,9	0
845,3	0
845,7	0
846,2	0,001
846,6	0,001
847	0,001
847,4	0,001
847,9	0,001
848,3	0,001
848,7	0,001
849,2	0,001
849,6	0,001
850	0,001
850,4	0,001
850,9	0,001
851,3	0,001
851,7	0,001
852,2	0,001
852,6	0,001
853	0,001
853,4	0,001
853,9	0,001
854,3	0,001
854,7	0,001
855,2	0,001
855,6	0,001
856	0,001
856,4	0,001
856,9	0
857,3	0
857,7	-0
858,2	-0
858,6	-0
859	0
859,4	-0
859,9	-0
860,3	-0
860,7	-0
861,1	-0
861,6	0
862	-0
862,4	0
862,9	0
863,3	0
863,7	0,001
864,1	0,001
864,6	0,001
865	0,001
865,4	0,001
865,9	0,001
866,3	0,001
866,7	0,001
867,1	0,001
867,6	0,001
868	0,001
868,4	0,001
868,8	0,001
869,3	0,001
869,7	0,001
870,1	0,001
870,6	0,001
871	0,001
871,4	0,001
871,8	0,001
872,3	0,001
872,7	0,001
873,1	0,001
873,5	0,001
874	0,001
874,4	0,001
874,8	0,001
875,3	0,001
875,7	0,001
876,1	0,001
876,5	0,001
877	0,001
877,4	0
877,8	0,001
878,2	0
878,7	0
879,1	0
879,5	0,001
879,9	0,001
880,4	0,001
880,8	0,001
881,2	0,002
881,7	0,001
882,1	0,001
882,5	0,002
882,9	0,002
883,4	0,001
883,8	0,001
884,2	0,002
884,6	0,001
885,1	0,002
885,5	0,001
885,9	0,001
886,3	0,002
886,8	0,002
887,2	0,001
887,6	0,002
888	0,002
888,5	0,002
888,9	0,001
889,3	0,001
889,8	0,001
890,2	0,001
890,6	0,001
891	0,001
891,5	0,001
891,9	0,001
892,3	0,001
892,7	0,001
893,2	0,001
893,6	0
894	0
894,4	0
894,9	0,001
895,3	0,001
895,7	0,001
896,1	0,001
896,6	0,001
897	0,001
897,4	0,001
897,8	0,001
898,3	0,001
898,7	0,001
899,1	0,001
899,5	0,001
900	0,001
900,4	0,001
900,8	0,001
901,2	0,002
901,7	0,002
902,1	0,001
902,5	0,001
902,9	0,001
903,4	0,001
903,8	0,001
904,2	0,001
904,6	0
905,1	0,001
905,5	0,001
905,9	0,001
906,3	0,001
906,8	0,001
907,2	0
907,6	0,001
908	0
908,5	-0
908,9	-0
909,3	-0,001
909,7	-0,001
910,2	-0
910,6	-0,001
911	-0,001
911,4	-0
911,9	-0
912,3	-0
912,7	0
913,1	0
913,6	0
914	0
914,4	0
914,8	0
915,3	0
915,7	0,001
916,1	0,001
916,5	0,001
916,9	0,001
917,4	0,001
917,8	0,001
918,2	0,001
918,6	0
919,1	-0
919,5	-0
919,9	0
920,3	0
920,8	0,001
921,2	0,001
921,6	0,001
922	0,001
922,5	0,001
922,9	0,001
923,3	0,001
923,7	0,001
924,2	0,001
924,6	0,001
925	0,001
925,4	0,001
925,8	0,002
926,3	0,001
926,7	0,001
927,1	0,001
927,5	0,001
928	0,002
928,4	0,001
928,8	0
929,2	-0
929,7	-0
930,1	-0,001
930,5	-0,001
930,9	-0,001
931,3	-0,001
931,8	-0,001
932,2	-0
932,6	-0
933	-0
933,5	-0
933,9	0
934,3	0
934,7	-0
935,2	-0
935,6	-0
936	0
936,4	0,001
936,8	0,001
937,3	0,002
937,7	0,002
938,1	0,002
938,5	0,002
939	0,002
939,4	0,001
939,8	0,001
940,2	0,001
940,6	0,001
941,1	0,001
941,5	0,001
941,9	0
942,3	0
942,8	0,001
943,2	-0
943,6	0
944	0
944,4	-0
944,9	0
945,3	0,001
945,7	0,001
946,1	0,001
946,6	0,001
947	0,001
947,4	0,002
947,8	0,002
948,2	0,001
948,7	0,002
949,1	0,002
949,5	0,002
949,9	0,002
950,3	0,001
950,8	0,001
951,2	0,001
951,6	0,001
952	0,001
952,5	0,001
952,9	0,001
953,3	0,001
953,7	0,001
954,1	0,001
954,6	0,001
955	0,001
955,4	0,001
955,8	0,001
956,2	0,001
956,7	0,001
957,1	0,001
957,5	0,002
957,9	0,002
958,3	0,002
958,8	0,001
959,2	0,001
959,6	0,001
960	0,001
960,5	0,001
960,9	0,001
961,3	0,001
961,7	0,001
962,1	0
962,6	0
963	0
963,4	0,001
963,8	0,001
964,2	0,002
964,7	0,002
965,1	0,003
965,5	0,003
965,9	0,003
966,3	0,002
966,8	0,001
967,2	0,001
967,6	0,001
968	0
968,4	0,001
968,9	0,001
969,3	0,002
969,7	0,002
970,1	0,002
970,5	0,002
971	0,001
971,4	0,001
971,8	0,001
972,2	0,001
972,6	0,001
973,1	0,001
973,5	0
973,9	0
974,3	0,001
974,7	0
975,2	-0
975,6	-0,001
976	-0,001
976,4	-0,001
976,8	-0,001
977,3	-0,001
977,7	-0,001
978,1	-0
978,5	-0
978,9	-0
979,4	0
979,8	-0
980,2	0
980,6	0
981	0,001
981,5	0,001
981,9	0,001
982,3	0,001
982,7	0,001
983,1	0,001
983,6	0,001
984	0,001
984,4	0
984,8	0,001
985,2	0,001
985,6	0,001
986,1	0,001
986,5	0,001
986,9	0,001
987,3	0,001
987,7	0,001
988,2	0,001
988,6	0,001
989	0,001
989,4	0,001
989,8	0,001
990,3	0,001
990,7	0,001
991,1	0,001
991,5	0,001
991,9	0,001
992,3	0,001
992,8	0
993,2	0
993,6	-0
994	-0
994,4	-0,001
994,9	-0
995,3	-0,001
995,7	0
996,1	0
996,5	0,001
996,9	0
997,4	0,001
997,8	0,001
998,2	0,001
998,6	0
999	0
999,5	-0
999,9	-0
1000,3	-0
1000,7	-0,001
1001,1	-0
1001,5	-0
1002	-0,001
1002,4	-0
1002,8	0
1003,2	0
1003,6	0
1004	-0
1004,5	0,001
1004,9	0,001
1005,3	0
1005,7	0
1006,1	-0
1006,6	0
1007	0,001
1007,4	-0
1007,8	0
1008,2	-0
1008,6	-0,001
1009,1	-0
1009,5	-0,001
1009,9	-0,001
1010,3	-0,001
1010,7	-0,001
1011,1	-0,001
1011,6	-0,001
1012	-0,001
1012,4	-0,001
1012,8	-0,001
1013,2	-0,001
1013,6	-0,001
1014,1	-0,001
1014,5	-0
1014,9	-0
1015,3	-0
1015,7	-0
1016,1	-0
1016,6	0
1017	0
1017,4	-0
1017,8	-0,001
1018,2	-0,001
1018,6	-0
1019,1	-0,001
1019,5	-0,001
1019,9	-0,001
1020,3	-0,001
1020,7	-0,001
1021,1	-0,001
1021,6	-0,001
1022	-0
1022,4	-0
1022,8	-0
1023,2	-0
1023,6	0
1024,1	0,001
1024,5	0,002
1024,9	0,001
1025,3	0,001
1025,7	0
1026,1	0,001
1026,6	0,001
1027	0,001
1027,4	-0,001
1027,8	-0,001
1028,2	0
1028,6	0,001
1029	0,001
1029,5	0
1029,9	-0
1030,3	0
1030,7	0
1031,1	-0
1031,5	-0
1032	-0,001
1032,4	-0
1032,8	-0
1033,2	0,001
1033,6	0,001
1034	0,001
1034,4	0,001
1034,9	0,001
1035,3	0,001
1035,7	0,001
1036,1	0,001
1036,5	0
1036,9	0
1037,4	-0
1037,8	-0
1038,2	0
1038,6	-0
1039	-0,001
1039,4	-0
1039,8	-0
1040,3	0
1040,7	-0
1041,1	-0
1041,5	-0
1041,9	0,001
1042,3	0,001
1042,7	0,001
1043,2	0
1043,6	0
1044	0
1044,4	0
1044,8	-0
1045,2	-0
1045,6	0,001
1046,1	0,001
1046,5	0,001
1046,9	0,001
1047,3	0,001
1047,7	0,001
1048,1	0
1048,5	-0,001
1049	-0,001
1049,4	-0,002
1049,8	-0,002
1050,2	-0,001
1050,6	-0,001
1051	-0,001
1051,4	-0
1051,9	-0,001
1052,3	-0,001
1052,7	0
1053,1	0
1053,5	-0
1053,9	-0
1054,3	-0
1054,8	-0
1055,2	0
1055,6	-0
1056	-0
1056,4	-0
1056,8	0
1057,2	0,001
1057,6	0,001
1058,1	0,001
1058,5	0,001
1058,9	0,001
1059,3	0
1059,7	-0,001
1060,1	-0,002
1060,5	-0,002
1061	-0,002
1061,4	-0,002
1061,8	-0,001
1062,2	-0
1062,6	0
1063	0,001
1063,4	0,002
1063,8	0,001
1064,3	0,001
1064,7	0,001
1065,1	0
1065,5	-0
1065,9	-0
1066,3	0
1066,7	0
1067,1	-0
1067,6	-0,002
1068	-0,001
1068,4	-0,001
1068,8	-0,002
1069,2	-0,002
1069,6	-0,002
1070	-0,002
1070,4	-0,001
1070,9	-0,001
1071,3	-0,001
1071,7	-0,002
1072,1	-0,001
1072,5	0
1072,9	-0
1073,3	-0,001
1073,7	-0,001
1074,2	-0,001
1074,6	0,001
1075	0
1075,4	-0,001
1075,8	-0,001
1076,2	-0,001
1076,6	-0
1077	-0
1077,5	-0
1077,9	0
1078,3	0
1078,7	-0,001
1079,1	-0,001
1079,5	-0
1079,9	0
1080,3	-0
1080,7	-0,002
1081,2	-0,001
1081,6	0,001
1082	0,002
1082,4	0,001
1082,8	0,002
1083,2	0,003
1083,6	0,004
1084	0,003
1084,5	0,003
1084,9	0,002
1085,3	0,002
1085,7	0,002
1086,1	0
1086,5	-0,001
1086,9	0,002
1087,3	0,003
1087,7	0,003
1088,2	0,005
1088,6	0,005
1089	0,005
1089,4	0,005
1089,8	0,002
1090,2	-0,001
1090,6	0,001
1091	0
1091,4	-0,002
1091,9	0
1092,3	0
1092,7	0,001
1093,1	0,004
1093,5	0,001
1093,9	-0,006
1094,3	-0,002
1094,7	-0,002
1095,1	-0,002
1095,5	-0,001
1096	-0
1096,4	0,005
1096,8	0,008
1097,2	0,01
1097,6	0,01
1098	0,015
1098,4	0,016
1098,8	0,017
1099,2	0,008
1099,6	0,007
1100,1	0,006
1100,5	-0,003
1100,9	-0,011
1101,3	-0,014
1101,7	-0,014
1102,1	-0,012
1102,5	-0,01
1102,9	-0,014
1103,3	0,008
1103,7	0,013
1104,2	0,015
1104,6	0,014
1105	0,01
1105,4	0,004
1105,8	0,005
1106,2	-0,011
1106,6	-0,019
1107	-0,008
1107,4	-0,024
1107,8	0,028
1108,3	0,602
