Data from Absorbance_00016.txt Node
Date: Thu Aug 10 15:10:20 MSK 2023
User: vat
Spectrometer: MAYP114033
Trigger mode: 0
Integration Time (sec): 8,000000E-3
Scans to average: 10
Electric dark correction enabled: true
Nonlinearity correction enabled: false
Boxcar width: 3
XAxis mode: Wavelengths
Number of Pixels in Spectrum: 2068
>>>>>Begin Spectral Data<<<<<
199,4	-1,799
199,9	-0,086
200,4	0,291
200,8	0,68
201,3	0,832
201,8	0,885
202,2	0,905
202,7	0,97
203,2	1,044
203,6	1,096
204,1	1,093
204,6	1,095
205	1,126
205,5	1,182
206	1,177
206,4	1,181
206,9	1,181
207,4	1,217
207,8	1,24
208,3	1,24
208,8	1,238
209,2	1,254
209,7	1,254
210,2	1,274
210,6	1,288
211,1	1,307
211,5	1,331
212	1,347
212,5	1,35
212,9	1,367
213,4	1,378
213,9	1,386
214,3	1,403
214,8	1,435
215,3	1,428
215,7	1,448
216,2	1,461
216,7	1,465
217,1	1,468
217,6	1,461
218,1	1,455
218,5	1,48
219	1,486
219,5	1,5
219,9	1,515
220,4	1,538
220,9	1,571
221,3	1,585
221,8	1,609
222,3	1,635
222,7	1,651
223,2	1,687
223,6	1,699
224,1	1,715
224,6	1,748
225	1,771
225,5	1,779
226	1,791
226,4	1,789
226,9	1,802
227,4	1,817
227,8	1,817
228,3	1,825
228,8	1,848
229,2	1,874
229,7	1,883
230,2	1,9
230,6	1,903
231,1	1,918
231,5	1,935
232	1,916
232,5	1,914
232,9	1,923
233,4	1,96
233,9	1,983
234,3	1,979
234,8	1,971
235,3	1,997
235,7	2,013
236,2	2,015
236,7	1,995
237,1	1,992
237,6	2,01
238,1	2,024
238,5	2,042
239	2,062
239,4	2,1
239,9	2,115
240,4	2,127
240,8	2,141
241,3	2,148
241,8	2,146
242,2	2,138
242,7	2,132
243,2	2,133
243,6	2,132
244,1	2,144
244,6	2,14
245	2,15
245,5	2,152
245,9	2,129
246,4	2,13
246,9	2,121
247,3	2,114
247,8	2,12
248,3	2,109
248,7	2,11
249,2	2,148
249,7	2,144
250,1	2,147
250,6	2,138
251	2,142
251,5	2,165
252	2,182
252,4	2,176
252,9	2,198
253,4	2,218
253,8	2,234
254,3	2,224
254,8	2,22
255,2	2,219
255,7	2,214
256,1	2,191
256,6	2,195
257,1	2,194
257,5	2,213
258	2,221
258,5	2,227
258,9	2,231
259,4	2,257
259,9	2,261
260,3	2,25
260,8	2,26
261,2	2,256
261,7	2,243
262,2	2,234
262,6	2,236
263,1	2,221
263,6	2,223
264	2,201
264,5	2,182
264,9	2,187
265,4	2,198
265,9	2,2
266,3	2,189
266,8	2,207
267,3	2,219
267,7	2,233
268,2	2,226
268,7	2,219
269,1	2,21
269,6	2,233
270	2,244
270,5	2,225
271	2,231
271,4	2,253
271,9	2,262
272,4	2,253
272,8	2,259
273,3	2,235
273,7	2,244
274,2	2,24
274,7	2,238
275,1	2,243
275,6	2,256
276,1	2,241
276,5	2,255
277	2,267
277,4	2,282
277,9	2,293
278,4	2,278
278,8	2,255
279,3	2,244
279,8	2,237
280,2	2,257
280,7	2,244
281,1	2,25
281,6	2,263
282,1	2,283
282,5	2,297
283	2,311
283,4	2,284
283,9	2,294
284,4	2,266
284,8	2,268
285,3	2,292
285,8	2,297
286,2	2,271
286,7	2,275
287,1	2,273
287,6	2,286
288,1	2,285
288,5	2,273
289	2,253
289,5	2,256
289,9	2,244
290,4	2,248
290,8	2,208
291,3	2,183
291,8	2,127
292,2	2,096
292,7	2,044
293,1	1,995
293,6	1,941
294,1	1,906
294,5	1,85
295	1,804
295,5	1,755
295,9	1,71
296,4	1,666
296,8	1,622
297,3	1,583
297,8	1,551
298,2	1,522
298,7	1,499
299,1	1,478
299,6	1,458
300,1	1,438
300,5	1,418
301	1,401
301,5	1,387
301,9	1,37
302,4	1,356
302,8	1,343
303,3	1,33
303,8	1,317
304,2	1,307
304,7	1,294
305,1	1,284
305,6	1,274
306,1	1,265
306,5	1,256
307	1,247
307,4	1,237
307,9	1,228
308,4	1,218
308,8	1,209
309,3	1,199
309,8	1,188
310,2	1,179
310,7	1,168
311,1	1,158
311,6	1,15
312,1	1,14
312,5	1,132
313	1,123
313,4	1,113
313,9	1,108
314,4	1,099
314,8	1,089
315,3	1,079
315,7	1,069
316,2	1,058
316,7	1,049
317,1	1,036
317,6	1,029
318	1,019
318,5	1,01
319	1
319,4	0,992
319,9	0,984
320,3	0,975
320,8	0,964
321,3	0,955
321,7	0,946
322,2	0,936
322,6	0,927
323,1	0,917
323,6	0,907
324	0,899
324,5	0,891
324,9	0,882
325,4	0,873
325,9	0,863
326,3	0,854
326,8	0,845
327,2	0,835
327,7	0,825
328,2	0,814
328,6	0,805
329,1	0,796
329,5	0,786
330	0,776
330,5	0,768
330,9	0,757
331,4	0,748
331,8	0,739
332,3	0,731
332,8	0,72
333,2	0,71
333,7	0,7
334,1	0,69
334,6	0,682
335,1	0,673
335,5	0,662
336	0,652
336,4	0,645
336,9	0,637
337,4	0,628
337,8	0,618
338,3	0,61
338,7	0,601
339,2	0,592
339,7	0,582
340,1	0,573
340,6	0,564
341	0,555
341,5	0,545
342	0,536
342,4	0,527
342,9	0,519
343,3	0,509
343,8	0,501
344,2	0,492
344,7	0,484
345,2	0,476
345,6	0,467
346,1	0,46
346,5	0,452
347	0,443
347,5	0,436
347,9	0,428
348,4	0,42
348,8	0,413
349,3	0,405
349,8	0,398
350,2	0,391
350,7	0,383
351,1	0,376
351,6	0,368
352	0,361
352,5	0,354
353	0,346
353,4	0,34
353,9	0,334
354,3	0,328
354,8	0,322
355,3	0,315
355,7	0,309
356,2	0,304
356,6	0,297
357,1	0,291
357,5	0,285
358	0,279
358,5	0,273
358,9	0,267
359,4	0,261
359,8	0,256
360,3	0,251
360,8	0,246
361,2	0,241
361,7	0,237
362,1	0,232
362,6	0,227
363	0,221
363,5	0,217
364	0,212
364,4	0,208
364,9	0,204
365,3	0,2
365,8	0,195
366,3	0,192
366,7	0,188
367,2	0,185
367,6	0,182
368,1	0,178
368,5	0,174
369	0,171
369,5	0,168
369,9	0,165
370,4	0,161
370,8	0,157
371,3	0,154
371,7	0,151
372,2	0,148
372,7	0,145
373,1	0,142
373,6	0,14
374	0,137
374,5	0,134
374,9	0,132
375,4	0,129
375,9	0,127
376,3	0,124
376,8	0,122
377,2	0,12
377,7	0,117
378,2	0,115
378,6	0,113
379,1	0,111
379,5	0,109
380	0,108
380,4	0,106
380,9	0,103
381,4	0,101
381,8	0,099
382,3	0,097
382,7	0,095
383,2	0,093
383,6	0,092
384,1	0,09
384,6	0,088
385	0,087
385,5	0,085
385,9	0,083
386,4	0,081
386,8	0,079
387,3	0,079
387,7	0,077
388,2	0,076
388,7	0,075
389,1	0,073
389,6	0,072
390	0,071
390,5	0,07
390,9	0,069
391,4	0,067
391,9	0,066
392,3	0,065
392,8	0,064
393,2	0,062
393,7	0,06
394,1	0,058
394,6	0,057
395,1	0,056
395,5	0,055
396	0,053
396,4	0,053
396,9	0,052
397,3	0,052
397,8	0,051
398,2	0,05
398,7	0,049
399,2	0,048
399,6	0,046
400,1	0,045
400,5	0,045
401	0,043
401,4	0,042
401,9	0,042
402,4	0,041
402,8	0,041
403,3	0,04
403,7	0,039
404,2	0,039
404,6	0,038
405,1	0,037
405,5	0,037
406	0,036
406,5	0,036
406,9	0,035
407,4	0,034
407,8	0,033
408,3	0,033
408,7	0,033
409,2	0,032
409,6	0,032
410,1	0,031
410,6	0,031
411	0,031
411,5	0,03
411,9	0,029
412,4	0,029
412,8	0,028
413,3	0,028
413,7	0,028
414,2	0,027
414,7	0,027
415,1	0,025
415,6	0,025
416	0,025
416,5	0,025
416,9	0,024
417,4	0,024
417,8	0,023
418,3	0,023
418,8	0,022
419,2	0,022
419,7	0,021
420,1	0,02
420,6	0,02
421	0,018
421,5	0,018
421,9	0,017
422,4	0,016
422,8	0,016
423,3	0,016
423,8	0,016
424,2	0,016
424,7	0,015
425,1	0,015
425,6	0,015
426	0,015
426,5	0,014
426,9	0,014
427,4	0,014
427,9	0,014
428,3	0,013
428,8	0,013
429,2	0,013
429,7	0,013
430,1	0,012
430,6	0,012
431	0,012
431,5	0,012
431,9	0,011
432,4	0,01
432,8	0,01
433,3	0,009
433,8	0,009
434,2	0,009
434,7	0,008
435,1	0,008
435,6	0,007
436	0,007
436,5	0,008
436,9	0,007
437,4	0,006
437,8	0,007
438,3	0,006
438,8	0,007
439,2	0,006
439,7	0,005
440,1	0,005
440,6	0,005
441	0,004
441,5	0,003
441,9	0,003
442,4	0,003
442,8	0,003
443,3	0,003
443,7	0,003
444,2	0,003
444,7	0,004
445,1	0,005
445,6	0,005
446	0,004
446,5	0,005
446,9	0,004
447,4	0,004
447,8	0,003
448,3	0,002
448,7	0,002
449,2	0,002
449,6	0,001
450,1	0,001
450,6	0,002
451	0,002
451,5	0,002
451,9	0,003
452,4	0,003
452,8	0,003
453,3	0,004
453,7	0,003
454,2	0,002
454,6	0,002
455,1	0,002
455,5	0,001
456	0,001
456,4	0,001
456,9	0,001
457,3	0,001
457,8	0,001
458,3	0,001
458,7	0,001
459,2	0,001
459,6	0,001
460,1	0,001
460,5	0,001
461	0,001
461,4	0
461,9	-0
462,3	-0
462,8	0
463,2	-0
463,7	-0
464,1	-0
464,6	-0
465	0
465,5	0
466	0
466,4	0
466,9	-0
467,3	0
467,8	0
468,2	-0
468,7	-0,001
469,1	-0
469,6	-0
470	-0
470,5	-0,001
470,9	-0
471,4	-0
471,8	-0,001
472,3	-0,001
472,7	-0,001
473,2	-0,001
473,6	-0,001
474,1	-0,001
474,5	-0,001
475	-0,001
475,4	-0,001
475,9	-0,001
476,4	-0,002
476,8	-0,002
477,3	-0,002
477,7	-0,002
478,2	-0,001
478,6	-0,002
479,1	-0,001
479,5	-0,001
480	-0,001
480,4	-0
480,9	-0
481,3	-0,001
481,8	0
482,2	-0
482,7	0
483,1	-0
483,6	-0
484	-0
484,5	-0,001
484,9	-0,001
485,4	-0,001
485,8	-0
486,3	-0,001
486,7	-0,002
487,2	-0,001
487,6	-0,001
488,1	-0,001
488,5	-0,001
489	-0,002
489,4	-0,001
489,9	-0
490,4	-0
490,8	-0,001
491,3	-0,001
491,7	-0,001
492,2	-0,001
492,6	-0,001
493,1	-0
493,5	-0
494	-0
494,4	-0
494,9	0
495,3	-0
495,8	-0,001
496,2	-0,001
496,7	-0,001
497,1	-0,001
497,6	-0,001
498	-0,001
498,5	-0,001
498,9	0
499,4	-0
499,8	-0
500,3	-0
500,7	-0,002
501,2	-0,002
501,6	-0,002
502,1	-0,002
502,5	-0,002
503	-0,002
503,4	-0,001
503,9	-0
504,3	0
504,8	-0
505,2	-0
505,7	-0,001
506,1	-0,001
506,6	-0,002
507	-0,002
507,5	-0,001
507,9	-0,001
508,4	-0,001
508,8	-0,002
509,3	-0,001
509,7	-0,001
510,2	-0
510,6	-0
511,1	-0,001
511,5	-0,001
512	-0,001
512,4	-0,001
512,9	-0,002
513,3	-0,002
513,8	-0,002
514,2	-0,002
514,7	-0,002
515,1	-0,001
515,6	-0,001
516	-0,001
516,5	-0,001
516,9	-0,001
517,4	-0,001
517,8	-0,001
518,3	-0,001
518,7	-0,001
519,2	-0,001
519,6	-0,001
520,1	-0,001
520,5	-0,001
521	-0
521,4	0
521,9	0
522,3	0
522,8	0,001
523,2	0,001
523,7	0,001
524,1	0
524,6	0
525	-0
525,5	0
525,9	0
526,4	0,001
526,8	0
527,3	0
527,7	0,001
528,2	0
528,6	-0
529,1	0
529,5	0
530	-0
530,4	0,001
530,9	0,001
531,3	0,001
531,8	0,001
532,2	0,001
532,6	0,001
533,1	0,001
533,5	0,001
534	0
534,4	0,001
534,9	0,001
535,3	0,001
535,8	0,002
536,2	0,002
536,7	0,001
537,1	0,002
537,6	0,001
538	0,001
538,5	0,001
538,9	0,001
539,4	0
539,8	0
540,3	0
540,7	0,001
541,2	0,001
541,6	0
542,1	0
542,5	0
543	0
543,4	-0
543,9	-0,001
544,3	0
544,8	0
545,2	0,001
545,7	0,001
546,1	0,001
546,5	0,002
547	0,002
547,4	0,001
547,9	0,001
548,3	0
548,8	0
549,2	0
549,7	0
550,1	-0
550,6	-0
551	0
551,5	0
551,9	0,001
552,4	0,001
552,8	0,001
553,3	0,001
553,7	0,001
554,2	0,001
554,6	0,001
555,1	0,001
555,5	0,001
555,9	0
556,4	0,001
556,8	0,001
557,3	0,001
557,7	0,001
558,2	0,001
558,6	0,001
559,1	0,001
559,5	0,001
560	0,002
560,4	0,001
560,9	0,001
561,3	0,001
561,8	0,001
562,2	0,001
562,7	0
563,1	-0,001
563,6	-0,001
564	-0,001
564,4	-0
564,9	-0,001
565,3	-0
565,8	-0
566,2	0
566,7	0,001
567,1	0,001
567,6	0,001
568	0,001
568,5	0,001
568,9	0
569,4	0,001
569,8	-0
570,3	-0
570,7	0
571,1	0
571,6	0
572	0
572,5	0
572,9	0,001
573,4	0,001
573,8	0
574,3	0
574,7	-0
575,2	0
575,6	0
576,1	0
576,5	0
576,9	0,001
577,4	0,001
577,8	0,001
578,3	0,001
578,7	0
579,2	0
579,6	0,001
580,1	0
580,5	-0
581	0
581,4	0
581,9	0
582,3	0
582,7	0
583,2	0,001
583,6	0,001
584,1	0,001
584,5	0,001
585	0,001
585,4	0,002
585,9	0,002
586,3	0,002
586,8	0,002
587,2	0,002
587,6	0,001
588,1	0,002
588,5	0,002
589	0,002
589,4	0,002
589,9	0,002
590,3	0,002
590,8	0,002
591,2	0,002
591,7	0,002
592,1	0,002
592,5	0,001
593	0,001
593,4	0,001
593,9	0,001
594,3	0,001
594,8	0
595,2	0
595,7	-0
596,1	0
596,6	0
597	0,001
597,4	0
597,9	0,001
598,3	0,001
598,8	0,001
599,2	0,001
599,7	0,001
600,1	0
600,6	0
601	0
601,4	0
601,9	0
602,3	0,001
602,8	0,001
603,2	0
603,7	0,001
604,1	0,001
604,6	0,001
605	0,001
605,4	0,001
605,9	0,001
606,3	0,002
606,8	0,001
607,2	0,001
607,7	0,001
608,1	0,001
608,6	0,001
609	0,001
609,4	0,001
609,9	0,001
610,3	0,001
610,8	0,001
611,2	0,001
611,7	0,001
612,1	0,001
612,6	0,001
613	0
613,4	0,001
613,9	0
614,3	0,001
614,8	0,001
615,2	0,001
615,7	0
616,1	0,001
616,6	0,001
617	0,001
617,4	0,001
617,9	0,001
618,3	0
618,8	0,001
619,2	0,001
619,7	0,001
620,1	0,001
620,5	0,001
621	0,001
621,4	0,001
621,9	0,001
622,3	0,001
622,8	0,001
623,2	0,001
623,6	0
624,1	0,001
624,5	0
625	0
625,4	0
625,9	0
626,3	0
626,8	0,001
627,2	0
627,6	0
628,1	0
628,5	0,001
629	0,001
629,4	0,001
629,9	0,001
630,3	0,001
630,7	0,001
631,2	0,002
631,6	0,002
632,1	0,001
632,5	0,001
633	0,001
633,4	0,002
633,8	0,001
634,3	0,001
634,7	0,001
635,2	0,001
635,6	0,001
636,1	0,001
636,5	0,001
636,9	0,001
637,4	0,001
637,8	0,001
638,3	0,002
638,7	0,001
639,2	0,001
639,6	0,001
640	0,002
640,5	0,001
640,9	0,002
641,4	0,001
641,8	0,002
642,2	0,002
642,7	0,002
643,1	0,002
643,6	0,002
644	0,002
644,5	0,001
644,9	0,002
645,3	0,001
645,8	0,002
646,2	0,002
646,7	0,002
647,1	0,001
647,6	0,002
648	0,001
648,4	0,001
648,9	0,001
649,3	0,001
649,8	0,001
650,2	0,001
650,6	0,002
651,1	0,002
651,5	0,002
652	0,001
652,4	0,001
652,9	0,001
653,3	0,001
653,7	0
654,2	0
654,6	0
655,1	0,002
655,5	0,001
655,9	0,001
656,4	0,001
656,8	0,002
657,3	0,003
657,7	0,003
658,2	0,003
658,6	0,004
659	0,005
659,5	0,008
659,9	0,006
660,4	0,004
660,8	0,003
661,2	0,003
661,7	0,003
662,1	0,002
662,6	0,002
663	0,002
663,4	0,002
663,9	0,001
664,3	0,001
664,8	0,001
665,2	0,001
665,6	0
666,1	0,001
666,5	0
667	-0
667,4	-0
667,9	0
668,3	0,001
668,7	0,001
669,2	0,001
669,6	0,001
670,1	0,001
670,5	0,001
670,9	0,001
671,4	0,001
671,8	0,001
672,3	0,001
672,7	0,001
673,1	0,001
673,6	0,001
674	0,001
674,5	0,001
674,9	0,001
675,3	0,001
675,8	0,001
676,2	0,001
676,7	0,001
677,1	0,001
677,5	0
678	0
678,4	0
678,9	0
679,3	0
679,7	0
680,2	0,001
680,6	0,001
681,1	0,001
681,5	0,001
681,9	0,001
682,4	0,001
682,8	0,001
683,3	0,001
683,7	0,001
684,1	0
684,6	0
685	0
685,5	0,001
685,9	0,001
686,3	0
686,8	0,001
687,2	0,001
687,7	0,001
688,1	0,001
688,5	0,001
689	0,001
689,4	0,001
689,9	0,001
690,3	0,001
690,7	0,002
691,2	0,002
691,6	0,002
692	0,002
692,5	0,002
692,9	0,002
693,4	0,002
693,8	0,002
694,2	0,002
694,7	0,002
695,1	0,001
695,6	0,001
696	0,002
696,4	0,002
696,9	0,002
697,3	0,002
697,8	0,002
698,2	0,002
698,6	0,002
699,1	0,002
699,5	0,002
699,9	0,002
700,4	0,002
700,8	0,002
701,3	0,002
701,7	0,002
702,1	0,002
702,6	0,002
703	0,002
703,5	0,002
703,9	0,002
704,3	0,002
704,8	0,002
705,2	0,002
705,6	0,002
706,1	0,002
706,5	0,002
707	0,002
707,4	0,001
707,8	0,001
708,3	0
708,7	0
709,2	0
709,6	0
710	0
710,5	0,001
710,9	0,001
711,3	0,002
711,8	0,002
712,2	0,002
712,7	0,002
713,1	0,002
713,5	0,002
714	0,002
714,4	0,001
714,8	0,001
715,3	0,001
715,7	0,001
716,2	0,001
716,6	0,001
717	0,001
717,5	0,001
717,9	0,001
718,3	0,002
718,8	0,002
719,2	0,002
719,7	0,003
720,1	0,002
720,5	0,002
721	0,002
721,4	0,002
721,8	0,001
722,3	0,001
722,7	0,001
723,2	0,001
723,6	0,001
724	0,001
724,5	0,001
724,9	0,001
725,3	0,001
725,8	0,001
726,2	0,001
726,7	0,001
727,1	0,001
727,5	0,001
728	0,001
728,4	0,001
728,8	0,001
729,3	0,001
729,7	0,001
730,1	0,001
730,6	0,001
731	0,001
731,5	0,001
731,9	0,001
732,3	0,001
732,8	0,001
733,2	0,002
733,6	0,002
734,1	0,002
734,5	0,002
734,9	0,002
735,4	0,002
735,8	0,002
736,3	0,002
736,7	0,002
737,1	0,002
737,6	0,002
738	0,002
738,4	0,002
738,9	0,002
739,3	0,002
739,7	0,002
740,2	0,002
740,6	0,002
741,1	0,002
741,5	0,001
741,9	0,001
742,4	0,001
742,8	0,001
743,2	0,001
743,7	0,001
744,1	0,001
744,5	0,001
745	0,001
745,4	0,002
745,8	0,002
746,3	0,002
746,7	0,002
747,2	0,002
747,6	0,002
748	0,002
748,5	0,002
748,9	0,002
749,3	0,002
749,8	0,002
750,2	0,002
750,6	0,002
751,1	0,001
751,5	0,001
751,9	0,001
752,4	0,001
752,8	0,001
753,3	0,001
753,7	0,001
754,1	0,002
754,6	0,001
755	0,001
755,4	0,001
755,9	0,001
756,3	0,001
756,7	0,001
757,2	0,001
757,6	0,001
758	0,001
758,5	0,001
758,9	0,001
759,3	0,001
759,8	0,001
760,2	0,001
760,6	0,001
761,1	0,001
761,5	0,001
761,9	0,001
762,4	0,001
762,8	0,001
763,3	0,001
763,7	0,001
764,1	0,001
764,6	0
765	0
765,4	0
765,9	0
766,3	0,001
766,7	0,001
767,2	0
767,6	0,001
768	0,001
768,5	0,001
768,9	0,001
769,3	0,001
769,8	0,001
770,2	0,001
770,6	0,001
771,1	0,001
771,5	0,001
771,9	0,001
772,4	0,001
772,8	0,001
773,2	0
773,7	0
774,1	0
774,5	0,001
775	0,001
775,4	0,001
775,8	0,001
776,3	0,002
776,7	0,002
777,1	0,002
777,6	0,002
778	0,003
778,4	0,003
778,9	0,003
779,3	0,003
779,7	0,003
780,2	0,002
780,6	0,002
781	0,002
781,5	0,002
781,9	0,002
782,3	0,002
782,8	0,001
783,2	0,002
783,6	0,002
784,1	0,002
784,5	0,002
784,9	0,002
785,4	0,001
785,8	0,001
786,2	0,001
786,7	0,002
787,1	0,002
787,5	0,002
788	0,002
788,4	0,002
788,8	0,002
789,3	0,002
789,7	0,002
790,1	0,002
790,6	0,002
791	0,002
791,4	0,002
791,9	0,002
792,3	0,002
792,7	0,002
793,2	0,002
793,6	0,002
794	0,002
794,5	0,002
794,9	0,002
795,3	0,002
795,8	0,002
796,2	0,002
796,6	0,002
797,1	0,002
797,5	0,002
797,9	0,002
798,4	0,002
798,8	0,002
799,2	0,001
799,7	0,001
800,1	0,002
800,5	0,002
801	0,002
801,4	0,002
801,8	0,002
802,2	0,002
802,7	0,002
803,1	0,002
803,5	0,002
804	0,002
804,4	0,002
804,8	0,001
805,3	0,001
805,7	0,001
806,1	0,001
806,6	0,002
807	0,002
807,4	0,002
807,9	0,003
808,3	0,003
808,7	0,002
809,2	0,002
809,6	0,002
810	0,002
810,4	0,002
810,9	0,002
811,3	0,002
811,7	0,002
812,2	0,002
812,6	0,002
813	0,002
813,5	0,002
813,9	0,002
814,3	0,002
814,8	0,002
815,2	0,002
815,6	0,002
816,1	0,002
816,5	0,002
816,9	0,002
817,3	0,002
817,8	0,001
818,2	0,001
818,6	0,001
819,1	0,001
819,5	0,001
819,9	0,001
820,4	0,001
820,8	0,001
821,2	0,001
821,7	0,001
822,1	0,001
822,5	0,001
822,9	0,001
823,4	0,001
823,8	0,001
824,2	0,001
824,7	0,001
825,1	0,002
825,5	0,002
826	0,002
826,4	0,003
826,8	0,002
827,3	0,002
827,7	0,002
828,1	0,002
828,5	0,002
829	0,002
829,4	0,002
829,8	0,002
830,3	0,002
830,7	0,002
831,1	0,002
831,6	0,002
832	0,001
832,4	0,001
832,8	0,001
833,3	0,001
833,7	0,001
834,1	0,001
834,6	0,001
835	0,001
835,4	0,001
835,8	0,001
836,3	0,002
836,7	0,001
837,1	0,002
837,6	0,002
838	0,002
838,4	0,001
838,9	0,001
839,3	0,001
839,7	0
840,1	0,001
840,6	0,001
841	0,001
841,4	0,001
841,9	0,001
842,3	0,002
842,7	0,002
843,1	0,002
843,6	0,002
844	0,002
844,4	0,001
844,9	0,001
845,3	0,001
845,7	0,001
846,2	0,001
846,6	0,001
847	0,001
847,4	0,001
847,9	0,001
848,3	0,001
848,7	0,001
849,2	0,001
849,6	0,001
850	0,002
850,4	0,002
850,9	0,002
851,3	0,003
851,7	0,003
852,2	0,003
852,6	0,003
853	0,003
853,4	0,003
853,9	0,003
854,3	0,002
854,7	0,002
855,2	0,002
855,6	0,002
856	0,002
856,4	0,002
856,9	0,002
857,3	0,001
857,7	0,002
858,2	0,001
858,6	0,001
859	0,001
859,4	0,001
859,9	0,001
860,3	0,001
860,7	0,001
861,1	0,001
861,6	0,001
862	0,001
862,4	0,001
862,9	0,001
863,3	0,001
863,7	0,001
864,1	0,001
864,6	0,001
865	0,001
865,4	0,001
865,9	0,002
866,3	0,002
866,7	0,002
867,1	0,002
867,6	0,002
868	0,002
868,4	0,001
868,8	0,001
869,3	0,001
869,7	0,001
870,1	0,001
870,6	0,001
871	0,001
871,4	0,002
871,8	0,002
872,3	0,002
872,7	0,002
873,1	0,002
873,5	0,002
874	0,002
874,4	0,001
874,8	0,001
875,3	0,001
875,7	0,001
876,1	0,001
876,5	0,002
877	0,002
877,4	0,002
877,8	0,002
878,2	0,002
878,7	0,002
879,1	0,002
879,5	0,001
879,9	0,001
880,4	0,001
880,8	0,001
881,2	0,001
881,7	0,001
882,1	0,001
882,5	0,001
882,9	0,001
883,4	0,001
883,8	0,001
884,2	0,001
884,6	0,001
885,1	0,001
885,5	0,001
885,9	0,001
886,3	0,001
886,8	0,001
887,2	0,001
887,6	0,001
888	0,001
888,5	0,001
888,9	0,001
889,3	0,001
889,8	0,001
890,2	0,002
890,6	0,002
891	0,001
891,5	0,002
891,9	0,001
892,3	0,001
892,7	0,002
893,2	0,002
893,6	0,001
894	0,002
894,4	0,001
894,9	0,001
895,3	0,001
895,7	0,001
896,1	0,001
896,6	0,001
897	0
897,4	0
897,8	0
898,3	-0
898,7	-0
899,1	0,001
899,5	0,001
900	0,001
900,4	0,001
900,8	0,002
901,2	0,002
901,7	0,001
902,1	0,001
902,5	0,001
902,9	0,001
903,4	0,001
903,8	0,001
904,2	0,001
904,6	0,001
905,1	0,002
905,5	0,002
905,9	0,002
906,3	0,002
906,8	0,002
907,2	0,001
907,6	0,002
908	0,002
908,5	0,002
908,9	0,002
909,3	0,002
909,7	0,002
910,2	0,002
910,6	0,002
911	0,002
911,4	0,001
911,9	0,001
912,3	0,001
912,7	0,001
913,1	0,001
913,6	0,001
914	0,001
914,4	0,001
914,8	0,001
915,3	0,001
915,7	0
916,1	0,001
916,5	0,001
916,9	0,001
917,4	0,001
917,8	0,001
918,2	0
918,6	0,001
919,1	0,001
919,5	0,001
919,9	0,001
920,3	0,001
920,8	0,001
921,2	0,001
921,6	0,001
922	0,001
922,5	0,001
922,9	0,001
923,3	0,001
923,7	0,001
924,2	0,001
924,6	0,001
925	0,001
925,4	0
925,8	0,001
926,3	0
926,7	0
927,1	-0
927,5	-0
928	-0
928,4	0
928,8	0
929,2	0,001
929,7	0,001
930,1	0,001
930,5	0,001
930,9	0,001
931,3	0,001
931,8	0,001
932,2	0,001
932,6	0,001
933	0,001
933,5	0,001
933,9	0,001
934,3	0,001
934,7	0,001
935,2	0,001
935,6	0
936	0,001
936,4	0
936,8	0,001
937,3	0
937,7	0,001
938,1	0,001
938,5	0,001
939	0,001
939,4	0,001
939,8	0,001
940,2	0,001
940,6	0,001
941,1	0,001
941,5	0,002
941,9	0,002
942,3	0,002
942,8	0,002
943,2	0,001
943,6	0,001
944	0
944,4	0
944,9	0
945,3	0,001
945,7	0
946,1	0,001
946,6	0,001
947	0,002
947,4	0,001
947,8	0,001
948,2	0
948,7	-0
949,1	-0
949,5	-0
949,9	-0
950,3	-0
950,8	0
951,2	0
951,6	0
952	0
952,5	0
952,9	-0
953,3	0
953,7	-0
954,1	0
954,6	0
955	0,001
955,4	0,001
955,8	0,001
956,2	0,001
956,7	0,002
957,1	0,001
957,5	0,001
957,9	0,002
958,3	0,001
958,8	0,002
959,2	0,002
959,6	0,002
960	0,002
960,5	0,001
960,9	0,001
961,3	0,001
961,7	-0
962,1	-0
962,6	0,001
963	0,001
963,4	0,001
963,8	0,001
964,2	0,002
964,7	0,002
965,1	0,002
965,5	0,001
965,9	0,002
966,3	0,002
966,8	0,002
967,2	0,002
967,6	0,002
968	0,002
968,4	0,003
968,9	0,003
969,3	0,002
969,7	0,002
970,1	0,002
970,5	0,003
971	0,003
971,4	0,002
971,8	0,002
972,2	0,002
972,6	0,001
973,1	0,001
973,5	0,001
973,9	0,001
974,3	0,001
974,7	0,001
975,2	0,002
975,6	0,002
976	0,001
976,4	0,002
976,8	0,002
977,3	0,002
977,7	0,002
978,1	0,001
978,5	0,002
978,9	0,002
979,4	0,002
979,8	0,002
980,2	0,001
980,6	0,002
981	0,002
981,5	0,001
981,9	0,001
982,3	0,001
982,7	0,002
983,1	0,002
983,6	0,001
984	0,001
984,4	0,001
984,8	0,001
985,2	0,001
985,6	0,001
986,1	0,001
986,5	0,002
986,9	0,003
987,3	0,004
987,7	0,004
988,2	0,004
988,6	0,004
989	0,003
989,4	0,003
989,8	0,003
990,3	0,003
990,7	0,003
991,1	0,004
991,5	0,004
991,9	0,004
992,3	0,004
992,8	0,003
993,2	0,003
993,6	0,003
994	0,002
994,4	0,002
994,9	0,002
995,3	0,002
995,7	0,002
996,1	0,002
996,5	0,002
996,9	0,002
997,4	0,002
997,8	0,002
998,2	0,001
998,6	0,001
999	0,001
999,5	0
999,9	0,001
1000,3	0
1000,7	0
1001,1	0
1001,5	0,001
1002	0
1002,4	-0
1002,8	-0
1003,2	-0
1003,6	-0
1004	-0
1004,5	-0
1004,9	-0,001
1005,3	-0,001
1005,7	-0,001
1006,1	-0,001
1006,6	-0,001
1007	-0,001
1007,4	-0,001
1007,8	-0,001
1008,2	0
1008,6	0
1009,1	-0
1009,5	0
1009,9	0,001
1010,3	0,001
1010,7	0,001
1011,1	0,001
1011,6	0,001
1012	0,001
1012,4	0,001
1012,8	0,001
1013,2	0
1013,6	-0
1014,1	-0
1014,5	0
1014,9	0,001
1015,3	0
1015,7	0
1016,1	0
1016,6	0,001
1017	0,001
1017,4	0
1017,8	0
1018,2	0
1018,6	0
1019,1	0
1019,5	0
1019,9	-0
1020,3	-0
1020,7	-0,001
1021,1	0
1021,6	0
1022	-0
1022,4	-0
1022,8	0
1023,2	0
1023,6	0
1024,1	0
1024,5	0,001
1024,9	0
1025,3	0
1025,7	0
1026,1	0
1026,6	0,001
1027	-0
1027,4	-0
1027,8	-0
1028,2	0
1028,6	0
1029	0
1029,5	0
1029,9	0,001
1030,3	0
1030,7	0
1031,1	-0,001
1031,5	-0
1032	0
1032,4	-0
1032,8	-0
1033,2	0,001
1033,6	0,001
1034	0,001
1034,4	0,001
1034,9	0
1035,3	0,001
1035,7	0,001
1036,1	0,001
1036,5	0,001
1036,9	0,002
1037,4	0,003
1037,8	0,003
1038,2	0,003
1038,6	0,004
1039	0,004
1039,4	0,004
1039,8	0,003
1040,3	0,003
1040,7	0,002
1041,1	0,003
1041,5	0,002
1041,9	0,002
1042,3	0,001
1042,7	0,001
1043,2	0,001
1043,6	0,001
1044	0,001
1044,4	0,001
1044,8	0,001
1045,2	0,001
1045,6	0,002
1046,1	0,002
1046,5	0,002
1046,9	0,002
1047,3	0,002
1047,7	0,002
1048,1	0,002
1048,5	0,002
1049	0,002
1049,4	0,002
1049,8	0,002
1050,2	0,002
1050,6	0,003
1051	0,003
1051,4	0,002
1051,9	0,002
1052,3	0,001
1052,7	0
1053,1	-0,001
1053,5	-0,001
1053,9	-0,001
1054,3	0
1054,8	0,001
1055,2	0,002
1055,6	0,002
1056	0,002
1056,4	0,003
1056,8	0,003
1057,2	0,002
1057,6	0,002
1058,1	0,002
1058,5	0,002
1058,9	0,002
1059,3	0,002
1059,7	0,001
1060,1	0
1060,5	0
1061	0,001
1061,4	0
1061,8	-0,001
1062,2	-0
1062,6	0
1063	0,001
1063,4	0,001
1063,8	0,001
1064,3	0,002
1064,7	0,003
1065,1	0,003
1065,5	0,003
1065,9	0,003
1066,3	0,003
1066,7	0,003
1067,1	0,002
1067,6	0,002
1068	0,002
1068,4	0,002
1068,8	0,001
1069,2	0,001
1069,6	0,001
1070	0,001
1070,4	0
1070,9	-0,001
1071,3	-0,002
1071,7	-0
1072,1	0
1072,5	-0,001
1072,9	0
1073,3	0
1073,7	0
1074,2	0,001
1074,6	0
1075	-0
1075,4	0
1075,8	-0,001
1076,2	-0
1076,6	0
1077	0,001
1077,5	0,001
1077,9	0,001
1078,3	0,001
1078,7	0,001
1079,1	0,002
1079,5	0,001
1079,9	0,001
1080,3	0,001
1080,7	0
1081,2	0
1081,6	-0,002
1082	-0,002
1082,4	0
1082,8	0,001
1083,2	0,002
1083,6	0,002
1084	0,001
1084,5	0,003
1084,9	-0
1085,3	-0,002
1085,7	-0,004
1086,1	-0,004
1086,5	-0,006
1086,9	-0,006
1087,3	-0,006
1087,7	-0,004
1088,2	-0,003
1088,6	-0,004
1089	-0,003
1089,4	-0,001
1089,8	0,001
1090,2	0,001
1090,6	-0,001
1091	-0,003
1091,4	0
1091,9	-0,001
1092,3	-0,003
1092,7	-0,002
1093,1	-0,002
1093,5	0,003
1093,9	0,01
1094,3	0,013
1094,7	0,013
1095,1	0,015
1095,5	0,013
1096	0,01
1096,4	0,004
1096,8	0,003
1097,2	-0,001
1097,6	0,001
1098	0,001
1098,4	0,004
1098,8	0,009
1099,2	0,015
1099,6	0,016
1100,1	0,01
1100,5	0,009
1100,9	0,013
1101,3	0,009
1101,7	0,011
1102,1	0,003
1102,5	0,001
1102,9	0,008
1103,3	0,008
1103,7	0,015
1104,2	0,026
1104,6	0,016
1105	0,018
1105,4	0,022
1105,8	0,022
1106,2	0,029
1106,6	0,028
1107	0,016
1107,4	0,043
1107,8	0,111
1108,3	-0,477
