Data from Absorbance_00025.txt Node
Date: Thu Aug 10 16:32:03 MSK 2023
User: vat
Spectrometer: MAYP114033
Trigger mode: 0
Integration Time (sec): 8,000000E-3
Scans to average: 10
Electric dark correction enabled: true
Nonlinearity correction enabled: false
Boxcar width: 3
XAxis mode: Wavelengths
Number of Pixels in Spectrum: 2068
>>>>>Begin Spectral Data<<<<<
199,4	1,176
199,9	-0,016
200,4	0,534
200,8	0,832
201,3	0,916
201,8	0,952
202,2	0,989
202,7	1,009
203,2	1,033
203,6	1,046
204,1	1,066
204,6	1,069
205	1,087
205,5	1,105
206	1,11
206,4	1,128
206,9	1,15
207,4	1,15
207,8	1,183
208,3	1,203
208,8	1,227
209,2	1,232
209,7	1,235
210,2	1,235
210,6	1,245
211,1	1,26
211,5	1,26
212	1,256
212,5	1,287
212,9	1,324
213,4	1,347
213,9	1,363
214,3	1,358
214,8	1,382
215,3	1,382
215,7	1,392
216,2	1,381
216,7	1,392
217,1	1,41
217,6	1,429
218,1	1,432
218,5	1,45
219	1,458
219,5	1,483
219,9	1,5
220,4	1,508
220,9	1,532
221,3	1,529
221,8	1,532
222,3	1,547
222,7	1,541
223,2	1,549
223,6	1,544
224,1	1,545
224,6	1,557
225	1,558
225,5	1,552
226	1,557
226,4	1,55
226,9	1,548
227,4	1,519
227,8	1,513
228,3	1,498
228,8	1,476
229,2	1,445
229,7	1,41
230,2	1,381
230,6	1,349
231,1	1,304
231,5	1,258
232	1,213
232,5	1,167
232,9	1,119
233,4	1,072
233,9	1,024
234,3	0,976
234,8	0,928
235,3	0,881
235,7	0,837
236,2	0,793
236,7	0,749
237,1	0,708
237,6	0,67
238,1	0,634
238,5	0,599
239	0,566
239,4	0,535
239,9	0,505
240,4	0,478
240,8	0,453
241,3	0,429
241,8	0,408
242,2	0,387
242,7	0,369
243,2	0,352
243,6	0,336
244,1	0,323
244,6	0,31
245	0,297
245,5	0,286
245,9	0,276
246,4	0,267
246,9	0,259
247,3	0,25
247,8	0,244
248,3	0,237
248,7	0,23
249,2	0,224
249,7	0,218
250,1	0,212
250,6	0,207
251	0,202
251,5	0,197
252	0,194
252,4	0,189
252,9	0,185
253,4	0,18
253,8	0,176
254,3	0,171
254,8	0,167
255,2	0,162
255,7	0,157
256,1	0,153
256,6	0,149
257,1	0,144
257,5	0,14
258	0,136
258,5	0,131
258,9	0,128
259,4	0,123
259,9	0,119
260,3	0,116
260,8	0,112
261,2	0,107
261,7	0,103
262,2	0,098
262,6	0,094
263,1	0,09
263,6	0,087
264	0,082
264,5	0,079
264,9	0,076
265,4	0,073
265,9	0,069
266,3	0,067
266,8	0,064
267,3	0,061
267,7	0,059
268,2	0,057
268,7	0,056
269,1	0,054
269,6	0,052
270	0,05
270,5	0,049
271	0,048
271,4	0,048
271,9	0,046
272,4	0,045
272,8	0,044
273,3	0,043
273,7	0,041
274,2	0,04
274,7	0,04
275,1	0,04
275,6	0,039
276,1	0,039
276,5	0,039
277	0,039
277,4	0,038
277,9	0,037
278,4	0,036
278,8	0,035
279,3	0,035
279,8	0,034
280,2	0,033
280,7	0,033
281,1	0,032
281,6	0,032
282,1	0,032
282,5	0,031
283	0,03
283,4	0,031
283,9	0,031
284,4	0,03
284,8	0,029
285,3	0,029
285,8	0,029
286,2	0,028
286,7	0,027
287,1	0,026
287,6	0,026
288,1	0,026
288,5	0,025
289	0,025
289,5	0,025
289,9	0,025
290,4	0,025
290,8	0,025
291,3	0,024
291,8	0,024
292,2	0,024
292,7	0,024
293,1	0,024
293,6	0,024
294,1	0,024
294,5	0,023
295	0,024
295,5	0,023
295,9	0,024
296,4	0,023
296,8	0,024
297,3	0,024
297,8	0,024
298,2	0,024
298,7	0,023
299,1	0,023
299,6	0,023
300,1	0,022
300,5	0,022
301	0,021
301,5	0,021
301,9	0,021
302,4	0,021
302,8	0,021
303,3	0,021
303,8	0,021
304,2	0,02
304,7	0,021
305,1	0,02
305,6	0,02
306,1	0,02
306,5	0,02
307	0,019
307,4	0,02
307,9	0,019
308,4	0,019
308,8	0,019
309,3	0,019
309,8	0,018
310,2	0,018
310,7	0,018
311,1	0,018
311,6	0,018
312,1	0,018
312,5	0,018
313	0,018
313,4	0,018
313,9	0,019
314,4	0,019
314,8	0,019
315,3	0,019
315,7	0,02
316,2	0,02
316,7	0,02
317,1	0,02
317,6	0,02
318	0,02
318,5	0,02
319	0,02
319,4	0,02
319,9	0,019
320,3	0,02
320,8	0,02
321,3	0,02
321,7	0,02
322,2	0,02
322,6	0,02
323,1	0,02
323,6	0,019
324	0,019
324,5	0,018
324,9	0,018
325,4	0,018
325,9	0,018
326,3	0,018
326,8	0,018
327,2	0,017
327,7	0,018
328,2	0,017
328,6	0,018
329,1	0,018
329,5	0,018
330	0,017
330,5	0,017
330,9	0,017
331,4	0,018
331,8	0,017
332,3	0,017
332,8	0,018
333,2	0,017
333,7	0,017
334,1	0,018
334,6	0,017
335,1	0,017
335,5	0,017
336	0,016
336,4	0,017
336,9	0,017
337,4	0,017
337,8	0,018
338,3	0,018
338,7	0,019
339,2	0,018
339,7	0,018
340,1	0,017
340,6	0,017
341	0,016
341,5	0,017
342	0,017
342,4	0,017
342,9	0,018
343,3	0,017
343,8	0,017
344,2	0,017
344,7	0,017
345,2	0,016
345,6	0,015
346,1	0,015
346,5	0,015
347	0,016
347,5	0,016
347,9	0,015
348,4	0,016
348,8	0,016
349,3	0,016
349,8	0,016
350,2	0,015
350,7	0,015
351,1	0,015
351,6	0,015
352	0,015
352,5	0,015
353	0,015
353,4	0,015
353,9	0,015
354,3	0,015
354,8	0,015
355,3	0,016
355,7	0,016
356,2	0,017
356,6	0,016
357,1	0,016
357,5	0,016
358	0,016
358,5	0,016
358,9	0,016
359,4	0,015
359,8	0,015
360,3	0,016
360,8	0,016
361,2	0,015
361,7	0,016
362,1	0,016
362,6	0,016
363	0,016
363,5	0,016
364	0,016
364,4	0,015
364,9	0,015
365,3	0,015
365,8	0,015
366,3	0,015
366,7	0,015
367,2	0,015
367,6	0,015
368,1	0,015
368,5	0,015
369	0,016
369,5	0,015
369,9	0,016
370,4	0,016
370,8	0,016
371,3	0,016
371,7	0,016
372,2	0,016
372,7	0,017
373,1	0,016
373,6	0,016
374	0,016
374,5	0,016
374,9	0,015
375,4	0,014
375,9	0,014
376,3	0,014
376,8	0,014
377,2	0,013
377,7	0,013
378,2	0,014
378,6	0,014
379,1	0,014
379,5	0,013
380	0,014
380,4	0,014
380,9	0,014
381,4	0,014
381,8	0,014
382,3	0,014
382,7	0,014
383,2	0,014
383,6	0,014
384,1	0,014
384,6	0,013
385	0,014
385,5	0,014
385,9	0,014
386,4	0,014
386,8	0,014
387,3	0,014
387,7	0,014
388,2	0,014
388,7	0,014
389,1	0,013
389,6	0,013
390	0,013
390,5	0,013
390,9	0,013
391,4	0,013
391,9	0,014
392,3	0,014
392,8	0,013
393,2	0,014
393,7	0,014
394,1	0,014
394,6	0,014
395,1	0,014
395,5	0,014
396	0,014
396,4	0,014
396,9	0,014
397,3	0,014
397,8	0,014
398,2	0,014
398,7	0,014
399,2	0,014
399,6	0,014
400,1	0,014
400,5	0,014
401	0,014
401,4	0,013
401,9	0,014
402,4	0,013
402,8	0,014
403,3	0,013
403,7	0,013
404,2	0,014
404,6	0,014
405,1	0,014
405,5	0,014
406	0,014
406,5	0,014
406,9	0,013
407,4	0,013
407,8	0,012
408,3	0,012
408,7	0,013
409,2	0,012
409,6	0,012
410,1	0,012
410,6	0,013
411	0,013
411,5	0,013
411,9	0,013
412,4	0,012
412,8	0,013
413,3	0,013
413,7	0,013
414,2	0,013
414,7	0,012
415,1	0,013
415,6	0,014
416	0,014
416,5	0,014
416,9	0,014
417,4	0,014
417,8	0,013
418,3	0,013
418,8	0,013
419,2	0,012
419,7	0,013
420,1	0,013
420,6	0,012
421	0,013
421,5	0,013
421,9	0,014
422,4	0,014
422,8	0,014
423,3	0,014
423,8	0,014
424,2	0,014
424,7	0,013
425,1	0,013
425,6	0,012
426	0,013
426,5	0,013
426,9	0,013
427,4	0,013
427,9	0,013
428,3	0,012
428,8	0,013
429,2	0,013
429,7	0,013
430,1	0,013
430,6	0,013
431	0,013
431,5	0,014
431,9	0,014
432,4	0,013
432,8	0,013
433,3	0,012
433,8	0,012
434,2	0,012
434,7	0,012
435,1	0,012
435,6	0,012
436	0,013
436,5	0,013
436,9	0,013
437,4	0,013
437,8	0,013
438,3	0,013
438,8	0,013
439,2	0,012
439,7	0,012
440,1	0,012
440,6	0,012
441	0,012
441,5	0,012
441,9	0,013
442,4	0,013
442,8	0,013
443,3	0,013
443,7	0,013
444,2	0,013
444,7	0,013
445,1	0,013
445,6	0,013
446	0,013
446,5	0,012
446,9	0,013
447,4	0,013
447,8	0,012
448,3	0,013
448,7	0,013
449,2	0,013
449,6	0,014
450,1	0,014
450,6	0,013
451	0,013
451,5	0,013
451,9	0,013
452,4	0,013
452,8	0,013
453,3	0,012
453,7	0,013
454,2	0,013
454,6	0,013
455,1	0,013
455,5	0,013
456	0,013
456,4	0,013
456,9	0,013
457,3	0,012
457,8	0,013
458,3	0,013
458,7	0,012
459,2	0,012
459,6	0,012
460,1	0,011
460,5	0,012
461	0,012
461,4	0,012
461,9	0,012
462,3	0,012
462,8	0,011
463,2	0,012
463,7	0,011
464,1	0,011
464,6	0,011
465	0,012
465,5	0,012
466	0,013
466,4	0,013
466,9	0,013
467,3	0,013
467,8	0,013
468,2	0,013
468,7	0,013
469,1	0,012
469,6	0,012
470	0,012
470,5	0,012
470,9	0,011
471,4	0,011
471,8	0,011
472,3	0,012
472,7	0,012
473,2	0,012
473,6	0,012
474,1	0,012
474,5	0,012
475	0,011
475,4	0,012
475,9	0,011
476,4	0,011
476,8	0,012
477,3	0,012
477,7	0,012
478,2	0,013
478,6	0,012
479,1	0,013
479,5	0,013
480	0,012
480,4	0,012
480,9	0,012
481,3	0,012
481,8	0,012
482,2	0,012
482,7	0,011
483,1	0,012
483,6	0,011
484	0,011
484,5	0,011
484,9	0,011
485,4	0,011
485,8	0,011
486,3	0,011
486,7	0,011
487,2	0,012
487,6	0,012
488,1	0,012
488,5	0,012
489	0,013
489,4	0,014
489,9	0,013
490,4	0,013
490,8	0,012
491,3	0,012
491,7	0,012
492,2	0,011
492,6	0,012
493,1	0,012
493,5	0,012
494	0,011
494,4	0,012
494,9	0,012
495,3	0,012
495,8	0,012
496,2	0,011
496,7	0,012
497,1	0,012
497,6	0,012
498	0,012
498,5	0,012
498,9	0,012
499,4	0,012
499,8	0,012
500,3	0,012
500,7	0,012
501,2	0,012
501,6	0,012
502,1	0,012
502,5	0,012
503	0,011
503,4	0,012
503,9	0,012
504,3	0,012
504,8	0,013
505,2	0,013
505,7	0,014
506,1	0,013
506,6	0,013
507	0,012
507,5	0,012
507,9	0,012
508,4	0,012
508,8	0,011
509,3	0,012
509,7	0,012
510,2	0,013
510,6	0,013
511,1	0,013
511,5	0,013
512	0,013
512,4	0,013
512,9	0,012
513,3	0,012
513,8	0,012
514,2	0,011
514,7	0,011
515,1	0,011
515,6	0,012
516	0,012
516,5	0,012
516,9	0,012
517,4	0,013
517,8	0,013
518,3	0,012
518,7	0,012
519,2	0,012
519,6	0,011
520,1	0,011
520,5	0,011
521	0,012
521,4	0,012
521,9	0,012
522,3	0,013
522,8	0,013
523,2	0,012
523,7	0,012
524,1	0,012
524,6	0,012
525	0,012
525,5	0,012
525,9	0,012
526,4	0,012
526,8	0,012
527,3	0,012
527,7	0,013
528,2	0,013
528,6	0,013
529,1	0,013
529,5	0,013
530	0,013
530,4	0,013
530,9	0,012
531,3	0,012
531,8	0,012
532,2	0,012
532,6	0,013
533,1	0,012
533,5	0,012
534	0,012
534,4	0,013
534,9	0,013
535,3	0,012
535,8	0,012
536,2	0,012
536,7	0,012
537,1	0,012
537,6	0,012
538	0,012
538,5	0,012
538,9	0,012
539,4	0,012
539,8	0,012
540,3	0,012
540,7	0,012
541,2	0,011
541,6	0,012
542,1	0,012
542,5	0,013
543	0,013
543,4	0,013
543,9	0,014
544,3	0,014
544,8	0,014
545,2	0,014
545,7	0,013
546,1	0,013
546,5	0,013
547	0,013
547,4	0,013
547,9	0,013
548,3	0,013
548,8	0,013
549,2	0,013
549,7	0,013
550,1	0,013
550,6	0,013
551	0,013
551,5	0,013
551,9	0,013
552,4	0,013
552,8	0,013
553,3	0,013
553,7	0,013
554,2	0,013
554,6	0,013
555,1	0,013
555,5	0,014
555,9	0,013
556,4	0,014
556,8	0,014
557,3	0,013
557,7	0,013
558,2	0,013
558,6	0,012
559,1	0,012
559,5	0,012
560	0,011
560,4	0,012
560,9	0,012
561,3	0,012
561,8	0,012
562,2	0,012
562,7	0,012
563,1	0,012
563,6	0,012
564	0,012
564,4	0,012
564,9	0,012
565,3	0,012
565,8	0,013
566,2	0,013
566,7	0,013
567,1	0,013
567,6	0,012
568	0,013
568,5	0,012
568,9	0,012
569,4	0,012
569,8	0,011
570,3	0,012
570,7	0,013
571,1	0,013
571,6	0,013
572	0,013
572,5	0,013
572,9	0,013
573,4	0,012
573,8	0,012
574,3	0,012
574,7	0,012
575,2	0,012
575,6	0,012
576,1	0,012
576,5	0,013
576,9	0,013
577,4	0,013
577,8	0,013
578,3	0,013
578,7	0,013
579,2	0,013
579,6	0,013
580,1	0,013
580,5	0,013
581	0,013
581,4	0,012
581,9	0,012
582,3	0,013
582,7	0,013
583,2	0,013
583,6	0,013
584,1	0,012
584,5	0,013
585	0,013
585,4	0,013
585,9	0,013
586,3	0,013
586,8	0,013
587,2	0,013
587,6	0,013
588,1	0,013
588,5	0,013
589	0,013
589,4	0,012
589,9	0,013
590,3	0,013
590,8	0,013
591,2	0,013
591,7	0,013
592,1	0,013
592,5	0,013
593	0,012
593,4	0,012
593,9	0,012
594,3	0,013
594,8	0,013
595,2	0,013
595,7	0,013
596,1	0,014
596,6	0,014
597	0,014
597,4	0,013
597,9	0,014
598,3	0,014
598,8	0,013
599,2	0,013
599,7	0,013
600,1	0,013
600,6	0,013
601	0,012
601,4	0,013
601,9	0,013
602,3	0,013
602,8	0,013
603,2	0,012
603,7	0,012
604,1	0,013
604,6	0,013
605	0,013
605,4	0,013
605,9	0,013
606,3	0,013
606,8	0,013
607,2	0,013
607,7	0,013
608,1	0,013
608,6	0,013
609	0,013
609,4	0,013
609,9	0,013
610,3	0,013
610,8	0,012
611,2	0,013
611,7	0,013
612,1	0,013
612,6	0,013
613	0,013
613,4	0,013
613,9	0,013
614,3	0,013
614,8	0,013
615,2	0,013
615,7	0,013
616,1	0,013
616,6	0,014
617	0,014
617,4	0,013
617,9	0,014
618,3	0,014
618,8	0,014
619,2	0,013
619,7	0,013
620,1	0,013
620,5	0,013
621	0,013
621,4	0,012
621,9	0,012
622,3	0,013
622,8	0,013
623,2	0,013
623,6	0,013
624,1	0,013
624,5	0,013
625	0,013
625,4	0,013
625,9	0,013
626,3	0,013
626,8	0,013
627,2	0,013
627,6	0,013
628,1	0,013
628,5	0,013
629	0,012
629,4	0,013
629,9	0,012
630,3	0,012
630,7	0,012
631,2	0,013
631,6	0,012
632,1	0,013
632,5	0,013
633	0,014
633,4	0,014
633,8	0,014
634,3	0,014
634,7	0,014
635,2	0,014
635,6	0,014
636,1	0,014
636,5	0,014
636,9	0,014
637,4	0,014
637,8	0,014
638,3	0,014
638,7	0,014
639,2	0,014
639,6	0,013
640	0,014
640,5	0,014
640,9	0,013
641,4	0,013
641,8	0,012
642,2	0,013
642,7	0,013
643,1	0,013
643,6	0,013
644	0,013
644,5	0,013
644,9	0,013
645,3	0,013
645,8	0,013
646,2	0,013
646,7	0,013
647,1	0,013
647,6	0,013
648	0,013
648,4	0,013
648,9	0,014
649,3	0,014
649,8	0,015
650,2	0,015
650,6	0,015
651,1	0,014
651,5	0,014
652	0,014
652,4	0,013
652,9	0,013
653,3	0,013
653,7	0,013
654,2	0,013
654,6	0,013
655,1	0,013
655,5	0,01
655,9	0,007
656,4	0,005
656,8	0,007
657,3	0,008
657,7	0,008
658,2	0,007
658,6	0,008
659	0,011
659,5	0,019
659,9	0,016
660,4	0,015
660,8	0,014
661,2	0,014
661,7	0,013
662,1	0,013
662,6	0,013
663	0,013
663,4	0,013
663,9	0,013
664,3	0,013
664,8	0,013
665,2	0,014
665,6	0,013
666,1	0,013
666,5	0,013
667	0,013
667,4	0,013
667,9	0,013
668,3	0,013
668,7	0,014
669,2	0,014
669,6	0,014
670,1	0,013
670,5	0,014
670,9	0,013
671,4	0,013
671,8	0,012
672,3	0,012
672,7	0,012
673,1	0,012
673,6	0,012
674	0,013
674,5	0,013
674,9	0,013
675,3	0,014
675,8	0,014
676,2	0,014
676,7	0,013
677,1	0,013
677,5	0,013
678	0,013
678,4	0,013
678,9	0,013
679,3	0,013
679,7	0,014
680,2	0,014
680,6	0,014
681,1	0,014
681,5	0,013
681,9	0,013
682,4	0,013
682,8	0,013
683,3	0,012
683,7	0,012
684,1	0,012
684,6	0,013
685	0,013
685,5	0,013
685,9	0,013
686,3	0,013
686,8	0,013
687,2	0,013
687,7	0,014
688,1	0,014
688,5	0,014
689	0,014
689,4	0,014
689,9	0,014
690,3	0,014
690,7	0,014
691,2	0,014
691,6	0,014
692	0,014
692,5	0,014
692,9	0,014
693,4	0,014
693,8	0,014
694,2	0,014
694,7	0,014
695,1	0,013
695,6	0,013
696	0,013
696,4	0,013
696,9	0,013
697,3	0,013
697,8	0,013
698,2	0,013
698,6	0,013
699,1	0,013
699,5	0,014
699,9	0,014
700,4	0,014
700,8	0,013
701,3	0,013
701,7	0,013
702,1	0,013
702,6	0,013
703	0,013
703,5	0,013
703,9	0,013
704,3	0,013
704,8	0,013
705,2	0,013
705,6	0,013
706,1	0,013
706,5	0,013
707	0,013
707,4	0,013
707,8	0,014
708,3	0,014
708,7	0,014
709,2	0,014
709,6	0,014
710	0,015
710,5	0,015
710,9	0,014
711,3	0,014
711,8	0,014
712,2	0,014
712,7	0,015
713,1	0,014
713,5	0,014
714	0,014
714,4	0,014
714,8	0,014
715,3	0,014
715,7	0,014
716,2	0,015
716,6	0,015
717	0,015
717,5	0,015
717,9	0,014
718,3	0,014
718,8	0,014
719,2	0,014
719,7	0,014
720,1	0,014
720,5	0,014
721	0,014
721,4	0,015
721,8	0,015
722,3	0,015
722,7	0,015
723,2	0,015
723,6	0,015
724	0,015
724,5	0,015
724,9	0,015
725,3	0,014
725,8	0,014
726,2	0,014
726,7	0,014
727,1	0,014
727,5	0,014
728	0,014
728,4	0,014
728,8	0,014
729,3	0,014
729,7	0,014
730,1	0,014
730,6	0,013
731	0,013
731,5	0,014
731,9	0,014
732,3	0,014
732,8	0,014
733,2	0,014
733,6	0,015
734,1	0,015
734,5	0,014
734,9	0,014
735,4	0,015
735,8	0,015
736,3	0,014
736,7	0,014
737,1	0,014
737,6	0,014
738	0,014
738,4	0,014
738,9	0,014
739,3	0,014
739,7	0,014
740,2	0,014
740,6	0,014
741,1	0,014
741,5	0,014
741,9	0,014
742,4	0,014
742,8	0,014
743,2	0,014
743,7	0,014
744,1	0,014
744,5	0,014
745	0,014
745,4	0,014
745,8	0,014
746,3	0,014
746,7	0,015
747,2	0,014
747,6	0,015
748	0,014
748,5	0,014
748,9	0,014
749,3	0,014
749,8	0,014
750,2	0,014
750,6	0,013
751,1	0,014
751,5	0,014
751,9	0,015
752,4	0,015
752,8	0,015
753,3	0,015
753,7	0,015
754,1	0,015
754,6	0,014
755	0,014
755,4	0,014
755,9	0,014
756,3	0,014
756,7	0,014
757,2	0,014
757,6	0,014
758	0,015
758,5	0,015
758,9	0,015
759,3	0,014
759,8	0,014
760,2	0,014
760,6	0,014
761,1	0,014
761,5	0,014
761,9	0,014
762,4	0,014
762,8	0,014
763,3	0,014
763,7	0,014
764,1	0,014
764,6	0,013
765	0,013
765,4	0,013
765,9	0,014
766,3	0,014
766,7	0,014
767,2	0,014
767,6	0,014
768	0,015
768,5	0,015
768,9	0,014
769,3	0,014
769,8	0,014
770,2	0,014
770,6	0,014
771,1	0,014
771,5	0,015
771,9	0,015
772,4	0,015
772,8	0,015
773,2	0,015
773,7	0,015
774,1	0,015
774,5	0,015
775	0,015
775,4	0,015
775,8	0,015
776,3	0,015
776,7	0,015
777,1	0,015
777,6	0,015
778	0,015
778,4	0,015
778,9	0,015
779,3	0,014
779,7	0,014
780,2	0,014
780,6	0,014
781	0,014
781,5	0,014
781,9	0,014
782,3	0,013
782,8	0,013
783,2	0,013
783,6	0,013
784,1	0,013
784,5	0,013
784,9	0,013
785,4	0,013
785,8	0,013
786,2	0,013
786,7	0,013
787,1	0,013
787,5	0,013
788	0,013
788,4	0,014
788,8	0,014
789,3	0,014
789,7	0,014
790,1	0,014
790,6	0,014
791	0,014
791,4	0,014
791,9	0,014
792,3	0,014
792,7	0,015
793,2	0,015
793,6	0,014
794	0,014
794,5	0,014
794,9	0,014
795,3	0,014
795,8	0,014
796,2	0,014
796,6	0,014
797,1	0,014
797,5	0,014
797,9	0,014
798,4	0,014
798,8	0,014
799,2	0,014
799,7	0,014
800,1	0,015
800,5	0,015
801	0,015
801,4	0,015
801,8	0,016
802,2	0,016
802,7	0,016
803,1	0,015
803,5	0,015
804	0,015
804,4	0,014
804,8	0,014
805,3	0,014
805,7	0,013
806,1	0,013
806,6	0,014
807	0,014
807,4	0,014
807,9	0,014
808,3	0,014
808,7	0,015
809,2	0,015
809,6	0,015
810	0,014
810,4	0,015
810,9	0,014
811,3	0,014
811,7	0,014
812,2	0,014
812,6	0,014
813	0,015
813,5	0,014
813,9	0,014
814,3	0,014
814,8	0,014
815,2	0,013
815,6	0,013
816,1	0,013
816,5	0,013
816,9	0,014
817,3	0,013
817,8	0,014
818,2	0,014
818,6	0,014
819,1	0,014
819,5	0,014
819,9	0,014
820,4	0,014
820,8	0,014
821,2	0,014
821,7	0,014
822,1	0,014
822,5	0,014
822,9	0,014
823,4	0,015
823,8	0,014
824,2	0,014
824,7	0,014
825,1	0,014
825,5	0,014
826	0,014
826,4	0,014
826,8	0,014
827,3	0,014
827,7	0,014
828,1	0,014
828,5	0,014
829	0,014
829,4	0,014
829,8	0,014
830,3	0,014
830,7	0,014
831,1	0,014
831,6	0,014
832	0,014
832,4	0,014
832,8	0,015
833,3	0,015
833,7	0,015
834,1	0,015
834,6	0,015
835	0,015
835,4	0,015
835,8	0,015
836,3	0,014
836,7	0,014
837,1	0,014
837,6	0,014
838	0,014
838,4	0,013
838,9	0,013
839,3	0,013
839,7	0,013
840,1	0,013
840,6	0,013
841	0,013
841,4	0,013
841,9	0,013
842,3	0,013
842,7	0,013
843,1	0,013
843,6	0,014
844	0,014
844,4	0,014
844,9	0,015
845,3	0,015
845,7	0,015
846,2	0,015
846,6	0,015
847	0,015
847,4	0,015
847,9	0,015
848,3	0,015
848,7	0,015
849,2	0,015
849,6	0,015
850	0,015
850,4	0,015
850,9	0,015
851,3	0,015
851,7	0,015
852,2	0,014
852,6	0,014
853	0,014
853,4	0,014
853,9	0,014
854,3	0,015
854,7	0,015
855,2	0,015
855,6	0,015
856	0,015
856,4	0,015
856,9	0,015
857,3	0,014
857,7	0,014
858,2	0,014
858,6	0,014
859	0,014
859,4	0,014
859,9	0,014
860,3	0,014
860,7	0,014
861,1	0,014
861,6	0,014
862	0,015
862,4	0,015
862,9	0,015
863,3	0,015
863,7	0,015
864,1	0,016
864,6	0,015
865	0,015
865,4	0,015
865,9	0,015
866,3	0,015
866,7	0,015
867,1	0,014
867,6	0,014
868	0,015
868,4	0,015
868,8	0,014
869,3	0,015
869,7	0,015
870,1	0,015
870,6	0,015
871	0,015
871,4	0,016
871,8	0,016
872,3	0,016
872,7	0,016
873,1	0,016
873,5	0,016
874	0,016
874,4	0,016
874,8	0,016
875,3	0,015
875,7	0,015
876,1	0,016
876,5	0,016
877	0,015
877,4	0,015
877,8	0,015
878,2	0,015
878,7	0,014
879,1	0,014
879,5	0,015
879,9	0,015
880,4	0,015
880,8	0,015
881,2	0,016
881,7	0,016
882,1	0,016
882,5	0,016
882,9	0,016
883,4	0,015
883,8	0,015
884,2	0,015
884,6	0,015
885,1	0,015
885,5	0,015
885,9	0,016
886,3	0,016
886,8	0,016
887,2	0,016
887,6	0,016
888	0,016
888,5	0,016
888,9	0,015
889,3	0,015
889,8	0,015
890,2	0,015
890,6	0,015
891	0,015
891,5	0,015
891,9	0,015
892,3	0,015
892,7	0,015
893,2	0,015
893,6	0,015
894	0,015
894,4	0,015
894,9	0,015
895,3	0,015
895,7	0,015
896,1	0,015
896,6	0,015
897	0,015
897,4	0,015
897,8	0,015
898,3	0,015
898,7	0,015
899,1	0,015
899,5	0,015
900	0,015
900,4	0,016
900,8	0,015
901,2	0,015
901,7	0,015
902,1	0,015
902,5	0,015
902,9	0,015
903,4	0,015
903,8	0,015
904,2	0,015
904,6	0,015
905,1	0,015
905,5	0,015
905,9	0,015
906,3	0,015
906,8	0,014
907,2	0,014
907,6	0,013
908	0,013
908,5	0,013
908,9	0,013
909,3	0,013
909,7	0,013
910,2	0,013
910,6	0,014
911	0,014
911,4	0,014
911,9	0,014
912,3	0,013
912,7	0,014
913,1	0,014
913,6	0,014
914	0,014
914,4	0,014
914,8	0,014
915,3	0,015
915,7	0,015
916,1	0,015
916,5	0,015
916,9	0,016
917,4	0,015
917,8	0,015
918,2	0,015
918,6	0,015
919,1	0,014
919,5	0,014
919,9	0,014
920,3	0,014
920,8	0,015
921,2	0,015
921,6	0,014
922	0,015
922,5	0,015
922,9	0,015
923,3	0,016
923,7	0,015
924,2	0,015
924,6	0,016
925	0,016
925,4	0,016
925,8	0,016
926,3	0,016
926,7	0,016
927,1	0,016
927,5	0,016
928	0,015
928,4	0,015
928,8	0,015
929,2	0,014
929,7	0,014
930,1	0,014
930,5	0,013
930,9	0,013
931,3	0,013
931,8	0,014
932,2	0,014
932,6	0,014
933	0,014
933,5	0,014
933,9	0,014
934,3	0,014
934,7	0,014
935,2	0,014
935,6	0,015
936	0,015
936,4	0,016
936,8	0,016
937,3	0,017
937,7	0,016
938,1	0,017
938,5	0,016
939	0,016
939,4	0,016
939,8	0,015
940,2	0,015
940,6	0,015
941,1	0,015
941,5	0,015
941,9	0,015
942,3	0,015
942,8	0,015
943,2	0,014
943,6	0,015
944	0,015
944,4	0,015
944,9	0,014
945,3	0,015
945,7	0,015
946,1	0,015
946,6	0,016
947	0,015
947,4	0,016
947,8	0,017
948,2	0,016
948,7	0,017
949,1	0,017
949,5	0,016
949,9	0,017
950,3	0,016
950,8	0,016
951,2	0,015
951,6	0,015
952	0,014
952,5	0,015
952,9	0,015
953,3	0,015
953,7	0,015
954,1	0,015
954,6	0,015
955	0,015
955,4	0,015
955,8	0,015
956,2	0,015
956,7	0,015
957,1	0,016
957,5	0,016
957,9	0,016
958,3	0,016
958,8	0,015
959,2	0,015
959,6	0,015
960	0,015
960,5	0,015
960,9	0,015
961,3	0,015
961,7	0,015
962,1	0,014
962,6	0,014
963	0,014
963,4	0,014
963,8	0,014
964,2	0,015
964,7	0,015
965,1	0,015
965,5	0,016
965,9	0,016
966,3	0,016
966,8	0,016
967,2	0,016
967,6	0,015
968	0,015
968,4	0,015
968,9	0,015
969,3	0,016
969,7	0,016
970,1	0,016
970,5	0,016
971	0,016
971,4	0,015
971,8	0,015
972,2	0,015
972,6	0,015
973,1	0,015
973,5	0,014
973,9	0,014
974,3	0,014
974,7	0,014
975,2	0,014
975,6	0,014
976	0,014
976,4	0,014
976,8	0,015
977,3	0,015
977,7	0,015
978,1	0,016
978,5	0,016
978,9	0,015
979,4	0,016
979,8	0,016
980,2	0,015
980,6	0,015
981	0,016
981,5	0,015
981,9	0,016
982,3	0,015
982,7	0,015
983,1	0,015
983,6	0,016
984	0,015
984,4	0,016
984,8	0,016
985,2	0,016
985,6	0,016
986,1	0,016
986,5	0,015
986,9	0,016
987,3	0,016
987,7	0,016
988,2	0,015
988,6	0,015
989	0,015
989,4	0,015
989,8	0,014
990,3	0,014
990,7	0,014
991,1	0,014
991,5	0,013
991,9	0,014
992,3	0,014
992,8	0,014
993,2	0,014
993,6	0,014
994	0,014
994,4	0,014
994,9	0,014
995,3	0,014
995,7	0,015
996,1	0,015
996,5	0,015
996,9	0,016
997,4	0,016
997,8	0,016
998,2	0,015
998,6	0,015
999	0,015
999,5	0,015
999,9	0,014
1000,3	0,014
1000,7	0,014
1001,1	0,014
1001,5	0,014
1002	0,014
1002,4	0,014
1002,8	0,014
1003,2	0,014
1003,6	0,014
1004	0,015
1004,5	0,015
1004,9	0,015
1005,3	0,015
1005,7	0,015
1006,1	0,015
1006,6	0,015
1007	0,015
1007,4	0,014
1007,8	0,014
1008,2	0,015
1008,6	0,014
1009,1	0,014
1009,5	0,014
1009,9	0,014
1010,3	0,014
1010,7	0,014
1011,1	0,015
1011,6	0,015
1012	0,014
1012,4	0,015
1012,8	0,014
1013,2	0,015
1013,6	0,015
1014,1	0,015
1014,5	0,015
1014,9	0,015
1015,3	0,015
1015,7	0,016
1016,1	0,015
1016,6	0,015
1017	0,015
1017,4	0,015
1017,8	0,015
1018,2	0,015
1018,6	0,014
1019,1	0,014
1019,5	0,014
1019,9	0,014
1020,3	0,014
1020,7	0,014
1021,1	0,015
1021,6	0,015
1022	0,015
1022,4	0,015
1022,8	0,016
1023,2	0,016
1023,6	0,016
1024,1	0,016
1024,5	0,016
1024,9	0,016
1025,3	0,016
1025,7	0,014
1026,1	0,015
1026,6	0,015
1027	0,015
1027,4	0,015
1027,8	0,015
1028,2	0,015
1028,6	0,016
1029	0,015
1029,5	0,015
1029,9	0,015
1030,3	0,014
1030,7	0,014
1031,1	0,014
1031,5	0,013
1032	0,014
1032,4	0,014
1032,8	0,014
1033,2	0,014
1033,6	0,014
1034	0,014
1034,4	0,015
1034,9	0,015
1035,3	0,014
1035,7	0,014
1036,1	0,015
1036,5	0,015
1036,9	0,015
1037,4	0,015
1037,8	0,015
1038,2	0,016
1038,6	0,015
1039	0,014
1039,4	0,015
1039,8	0,015
1040,3	0,015
1040,7	0,015
1041,1	0,014
1041,5	0,015
1041,9	0,016
1042,3	0,016
1042,7	0,015
1043,2	0,015
1043,6	0,015
1044	0,015
1044,4	0,015
1044,8	0,015
1045,2	0,014
1045,6	0,015
1046,1	0,015
1046,5	0,016
1046,9	0,015
1047,3	0,015
1047,7	0,014
1048,1	0,015
1048,5	0,015
1049	0,015
1049,4	0,015
1049,8	0,015
1050,2	0,016
1050,6	0,016
1051	0,015
1051,4	0,014
1051,9	0,014
1052,3	0,013
1052,7	0,013
1053,1	0,013
1053,5	0,013
1053,9	0,014
1054,3	0,014
1054,8	0,013
1055,2	0,014
1055,6	0,014
1056	0,014
1056,4	0,014
1056,8	0,014
1057,2	0,014
1057,6	0,014
1058,1	0,015
1058,5	0,015
1058,9	0,015
1059,3	0,014
1059,7	0,015
1060,1	0,014
1060,5	0,014
1061	0,014
1061,4	0,014
1061,8	0,015
1062,2	0,014
1062,6	0,014
1063	0,014
1063,4	0,015
1063,8	0,014
1064,3	0,014
1064,7	0,014
1065,1	0,014
1065,5	0,014
1065,9	0,015
1066,3	0,015
1066,7	0,015
1067,1	0,015
1067,6	0,014
1068	0,015
1068,4	0,015
1068,8	0,014
1069,2	0,014
1069,6	0,015
1070	0,015
1070,4	0,015
1070,9	0,016
1071,3	0,015
1071,7	0,015
1072,1	0,015
1072,5	0,016
1072,9	0,015
1073,3	0,015
1073,7	0,015
1074,2	0,016
1074,6	0,017
1075	0,015
1075,4	0,015
1075,8	0,014
1076,2	0,015
1076,6	0,015
1077	0,015
1077,5	0,015
1077,9	0,016
1078,3	0,016
1078,7	0,016
1079,1	0,015
1079,5	0,016
1079,9	0,015
1080,3	0,014
1080,7	0,013
1081,2	0,013
1081,6	0,016
1082	0,017
1082,4	0,015
1082,8	0,014
1083,2	0,015
1083,6	0,016
1084	0,017
1084,5	0,015
1084,9	0,015
1085,3	0,015
1085,7	0,018
1086,1	0,018
1086,5	0,018
1086,9	0,018
1087,3	0,017
1087,7	0,018
1088,2	0,02
1088,6	0,019
1089	0,019
1089,4	0,018
1089,8	0,015
1090,2	0,014
1090,6	0,014
1091	0,013
1091,4	0,013
1091,9	0,012
1092,3	0,013
1092,7	0,018
1093,1	0,021
1093,5	0,021
1093,9	0,019
1094,3	0,017
1094,7	0,018
1095,1	0,018
1095,5	0,014
1096	0,013
1096,4	0,016
1096,8	0,013
1097,2	0,016
1097,6	0,018
1098	0,023
1098,4	0,027
1098,8	0,029
1099,2	0,019
1099,6	0,027
1100,1	0,028
1100,5	0,027
1100,9	0,014
1101,3	0,014
1101,7	0,008
1102,1	0,014
1102,5	0,008
1102,9	0,005
1103,3	0,001
1103,7	0,011
1104,2	0,022
1104,6	0,037
1105	0,038
1105,4	0,032
1105,8	0,03
1106,2	0,04
1106,6	0,05
1107	0,05
1107,4	0,032
1107,8	0,06
1108,3	1,204
