Data from Absorbance_00004.txt Node
Date: Thu Aug 10 14:45:30 MSK 2023
User: vat
Spectrometer: MAYP114033
Trigger mode: 0
Integration Time (sec): 8,000000E-3
Scans to average: 10
Electric dark correction enabled: true
Nonlinearity correction enabled: false
Boxcar width: 3
XAxis mode: Wavelengths
Number of Pixels in Spectrum: 2068
>>>>>Begin Spectral Data<<<<<
199,4	-1,243
199,9	0,145
200,4	0,46
200,8	0,758
201,3	0,88
201,8	0,935
202,2	0,952
202,7	0,98
203,2	1,034
203,6	1,055
204,1	1,083
204,6	1,082
205	1,098
205,5	1,136
206	1,161
206,4	1,171
206,9	1,194
207,4	1,207
207,8	1,243
208,3	1,255
208,8	1,272
209,2	1,264
209,7	1,264
210,2	1,277
210,6	1,289
211,1	1,294
211,5	1,301
212	1,317
212,5	1,341
212,9	1,359
213,4	1,365
213,9	1,374
214,3	1,389
214,8	1,425
215,3	1,434
215,7	1,437
216,2	1,447
216,7	1,473
217,1	1,493
217,6	1,513
218,1	1,502
218,5	1,504
219	1,522
219,5	1,547
219,9	1,55
220,4	1,554
220,9	1,577
221,3	1,597
221,8	1,612
222,3	1,639
222,7	1,651
223,2	1,69
223,6	1,711
224,1	1,704
224,6	1,741
225	1,765
225,5	1,772
226	1,779
226,4	1,776
226,9	1,795
227,4	1,829
227,8	1,803
228,3	1,817
228,8	1,832
229,2	1,848
229,7	1,866
230,2	1,886
230,6	1,885
231,1	1,916
231,5	1,925
232	1,917
232,5	1,926
232,9	1,924
233,4	1,946
233,9	1,959
234,3	1,972
234,8	1,98
235,3	1,996
235,7	2,002
236,2	2,008
236,7	1,994
237,1	2,007
237,6	2,017
238,1	2,011
238,5	2,035
239	2,058
239,4	2,095
239,9	2,102
240,4	2,098
240,8	2,116
241,3	2,134
241,8	2,147
242,2	2,152
242,7	2,125
243,2	2,117
243,6	2,123
244,1	2,126
244,6	2,13
245	2,117
245,5	2,112
245,9	2,101
246,4	2,113
246,9	2,115
247,3	2,12
247,8	2,125
248,3	2,121
248,7	2,118
249,2	2,173
249,7	2,16
250,1	2,168
250,6	2,153
251	2,162
251,5	2,172
252	2,168
252,4	2,161
252,9	2,183
253,4	2,188
253,8	2,212
254,3	2,18
254,8	2,183
255,2	2,197
255,7	2,195
256,1	2,195
256,6	2,192
257,1	2,177
257,5	2,214
258	2,206
258,5	2,2
258,9	2,198
259,4	2,211
259,9	2,238
260,3	2,243
260,8	2,221
261,2	2,238
261,7	2,252
262,2	2,243
262,6	2,231
263,1	2,197
263,6	2,194
264	2,201
264,5	2,183
264,9	2,183
265,4	2,189
265,9	2,186
266,3	2,198
266,8	2,199
267,3	2,183
267,7	2,207
268,2	2,197
268,7	2,187
269,1	2,197
269,6	2,203
270	2,203
270,5	2,217
271	2,201
271,4	2,219
271,9	2,245
272,4	2,237
272,8	2,235
273,3	2,241
273,7	2,247
274,2	2,261
274,7	2,249
275,1	2,236
275,6	2,241
276,1	2,23
276,5	2,241
277	2,235
277,4	2,22
277,9	2,234
278,4	2,237
278,8	2,236
279,3	2,228
279,8	2,221
280,2	2,244
280,7	2,243
281,1	2,24
281,6	2,242
282,1	2,244
282,5	2,264
283	2,249
283,4	2,219
283,9	2,223
284,4	2,217
284,8	2,213
285,3	2,215
285,8	2,219
286,2	2,212
286,7	2,213
287,1	2,189
287,6	2,153
288,1	2,117
288,5	2,063
289	2,003
289,5	1,948
289,9	1,895
290,4	1,856
290,8	1,81
291,3	1,762
291,8	1,724
292,2	1,69
292,7	1,663
293,1	1,636
293,6	1,61
294,1	1,589
294,5	1,571
295	1,551
295,5	1,537
295,9	1,523
296,4	1,509
296,8	1,499
297,3	1,488
297,8	1,476
298,2	1,471
298,7	1,46
299,1	1,453
299,6	1,447
300,1	1,435
300,5	1,428
301	1,424
301,5	1,416
301,9	1,408
302,4	1,397
302,8	1,391
303,3	1,384
303,8	1,377
304,2	1,368
304,7	1,359
305,1	1,356
305,6	1,35
306,1	1,34
306,5	1,332
307	1,322
307,4	1,313
307,9	1,304
308,4	1,293
308,8	1,281
309,3	1,272
309,8	1,263
310,2	1,254
310,7	1,245
311,1	1,234
311,6	1,225
312,1	1,215
312,5	1,207
313	1,197
313,4	1,187
313,9	1,177
314,4	1,169
314,8	1,16
315,3	1,15
315,7	1,139
316,2	1,129
316,7	1,118
317,1	1,106
317,6	1,095
318	1,084
318,5	1,073
319	1,063
319,4	1,052
319,9	1,042
320,3	1,03
320,8	1,02
321,3	1,008
321,7	0,998
322,2	0,987
322,6	0,977
323,1	0,966
323,6	0,957
324	0,945
324,5	0,935
324,9	0,925
325,4	0,914
325,9	0,901
326,3	0,89
326,8	0,879
327,2	0,869
327,7	0,857
328,2	0,846
328,6	0,833
329,1	0,822
329,5	0,812
330	0,8
330,5	0,789
330,9	0,778
331,4	0,767
331,8	0,757
332,3	0,746
332,8	0,736
333,2	0,725
333,7	0,714
334,1	0,705
334,6	0,695
335,1	0,685
335,5	0,675
336	0,664
336,4	0,654
336,9	0,644
337,4	0,633
337,8	0,621
338,3	0,612
338,7	0,602
339,2	0,591
339,7	0,581
340,1	0,571
340,6	0,561
341	0,552
341,5	0,542
342	0,532
342,4	0,523
342,9	0,514
343,3	0,506
343,8	0,497
344,2	0,488
344,7	0,48
345,2	0,472
345,6	0,464
346,1	0,457
346,5	0,448
347	0,44
347,5	0,432
347,9	0,424
348,4	0,416
348,8	0,407
349,3	0,4
349,8	0,393
350,2	0,385
350,7	0,377
351,1	0,37
351,6	0,363
352	0,356
352,5	0,348
353	0,341
353,4	0,335
353,9	0,328
354,3	0,322
354,8	0,316
355,3	0,311
355,7	0,305
356,2	0,3
356,6	0,295
357,1	0,289
357,5	0,284
358	0,279
358,5	0,273
358,9	0,268
359,4	0,263
359,8	0,258
360,3	0,253
360,8	0,248
361,2	0,244
361,7	0,24
362,1	0,237
362,6	0,233
363	0,228
363,5	0,224
364	0,22
364,4	0,216
364,9	0,212
365,3	0,208
365,8	0,204
366,3	0,2
366,7	0,197
367,2	0,193
367,6	0,19
368,1	0,187
368,5	0,184
369	0,181
369,5	0,178
369,9	0,174
370,4	0,172
370,8	0,169
371,3	0,166
371,7	0,162
372,2	0,16
372,7	0,158
373,1	0,156
373,6	0,153
374	0,15
374,5	0,148
374,9	0,146
375,4	0,144
375,9	0,142
376,3	0,14
376,8	0,138
377,2	0,136
377,7	0,134
378,2	0,131
378,6	0,129
379,1	0,128
379,5	0,126
380	0,124
380,4	0,122
380,9	0,12
381,4	0,118
381,8	0,116
382,3	0,114
382,7	0,113
383,2	0,111
383,6	0,11
384,1	0,108
384,6	0,107
385	0,105
385,5	0,104
385,9	0,102
386,4	0,1
386,8	0,098
387,3	0,097
387,7	0,095
388,2	0,094
388,7	0,093
389,1	0,091
389,6	0,091
390	0,09
390,5	0,089
390,9	0,087
391,4	0,086
391,9	0,085
392,3	0,084
392,8	0,083
393,2	0,081
393,7	0,08
394,1	0,078
394,6	0,077
395,1	0,076
395,5	0,075
396	0,074
396,4	0,074
396,9	0,073
397,3	0,072
397,8	0,07
398,2	0,069
398,7	0,067
399,2	0,065
399,6	0,064
400,1	0,063
400,5	0,062
401	0,061
401,4	0,06
401,9	0,059
402,4	0,058
402,8	0,057
403,3	0,055
403,7	0,054
404,2	0,054
404,6	0,053
405,1	0,052
405,5	0,051
406	0,05
406,5	0,05
406,9	0,049
407,4	0,048
407,8	0,047
408,3	0,047
408,7	0,047
409,2	0,046
409,6	0,045
410,1	0,045
410,6	0,044
411	0,044
411,5	0,043
411,9	0,041
412,4	0,04
412,8	0,04
413,3	0,039
413,7	0,038
414,2	0,037
414,7	0,037
415,1	0,035
415,6	0,035
416	0,034
416,5	0,033
416,9	0,032
417,4	0,032
417,8	0,031
418,3	0,03
418,8	0,03
419,2	0,029
419,7	0,029
420,1	0,028
420,6	0,027
421	0,026
421,5	0,026
421,9	0,025
422,4	0,025
422,8	0,024
423,3	0,023
423,8	0,023
424,2	0,022
424,7	0,022
425,1	0,021
425,6	0,021
426	0,02
426,5	0,019
426,9	0,018
427,4	0,018
427,9	0,018
428,3	0,017
428,8	0,017
429,2	0,016
429,7	0,017
430,1	0,016
430,6	0,015
431	0,014
431,5	0,014
431,9	0,014
432,4	0,014
432,8	0,013
433,3	0,012
433,8	0,012
434,2	0,012
434,7	0,011
435,1	0,011
435,6	0,011
436	0,011
436,5	0,01
436,9	0,01
437,4	0,01
437,8	0,01
438,3	0,01
438,8	0,009
439,2	0,009
439,7	0,008
440,1	0,007
440,6	0,007
441	0,006
441,5	0,005
441,9	0,005
442,4	0,004
442,8	0,004
443,3	0,004
443,7	0,004
444,2	0,004
444,7	0,005
445,1	0,005
445,6	0,004
446	0,004
446,5	0,005
446,9	0,004
447,4	0,005
447,8	0,004
448,3	0,004
448,7	0,004
449,2	0,004
449,6	0,004
450,1	0,003
450,6	0,003
451	0,003
451,5	0,004
451,9	0,004
452,4	0,003
452,8	0,003
453,3	0,003
453,7	0,002
454,2	0,002
454,6	0,002
455,1	0,001
455,5	0,001
456	0,001
456,4	0,001
456,9	0,001
457,3	0,001
457,8	0,001
458,3	0,002
458,7	0,002
459,2	0,002
459,6	0,001
460,1	0,002
460,5	0,001
461	0,001
461,4	0,001
461,9	0
462,3	0
462,8	0,001
463,2	0
463,7	0
464,1	0,001
464,6	0
465	0,001
465,5	0,001
466	0,001
466,4	0,001
466,9	0,001
467,3	0,001
467,8	0,001
468,2	0,001
468,7	0,001
469,1	0,001
469,6	0
470	0
470,5	-0
470,9	-0
471,4	-0
471,8	-0,001
472,3	-0,001
472,7	0
473,2	-0
473,6	0
474,1	-0,001
474,5	-0
475	0
475,4	0
475,9	-0,001
476,4	-0,001
476,8	-0,001
477,3	-0,001
477,7	-0
478,2	-0,001
478,6	-0,001
479,1	-0,001
479,5	-0,001
480	-0,001
480,4	-0,001
480,9	-0,001
481,3	-0,001
481,8	-0,001
482,2	-0,001
482,7	-0,001
483,1	-0
483,6	-0
484	0
484,5	0
484,9	0
485,4	0,001
485,8	0
486,3	-0
486,7	-0,001
487,2	-0,001
487,6	-0
488,1	-0,001
488,5	-0
489	-0,001
489,4	-0
489,9	0
490,4	-0,001
490,8	-0,001
491,3	-0
491,7	-0,001
492,2	-0,001
492,6	-0,001
493,1	-0
493,5	0
494	0
494,4	-0
494,9	-0
495,3	-0,001
495,8	-0,001
496,2	-0,001
496,7	-0,001
497,1	-0,002
497,6	-0,002
498	-0,002
498,5	-0,002
498,9	-0,001
499,4	-0,001
499,8	-0,002
500,3	-0,001
500,7	-0,002
501,2	-0,002
501,6	-0,002
502,1	-0,001
502,5	-0,001
503	-0,001
503,4	0
503,9	0
504,3	0
504,8	-0
505,2	-0
505,7	-0,001
506,1	-0,002
506,6	-0,002
507	-0,003
507,5	-0,002
507,9	-0,002
508,4	-0,002
508,8	-0,002
509,3	-0,002
509,7	-0,001
510,2	-0,001
510,6	-0,001
511,1	-0,001
511,5	-0,001
512	-0
512,4	-0
512,9	-0,001
513,3	-0,001
513,8	-0,001
514,2	-0,001
514,7	-0
515,1	-0,001
515,6	-0,001
516	-0,002
516,5	-0,002
516,9	-0,002
517,4	-0,001
517,8	-0,002
518,3	-0,002
518,7	-0,001
519,2	-0,001
519,6	-0,001
520,1	-0,001
520,5	-0,002
521	-0,001
521,4	-0,001
521,9	-0,001
522,3	-0
522,8	-0
523,2	-0
523,7	0
524,1	-0
524,6	-0,001
525	-0,001
525,5	-0,001
525,9	-0,001
526,4	-0,001
526,8	-0,002
527,3	-0,002
527,7	-0,001
528,2	-0,002
528,6	-0,001
529,1	-0,001
529,5	-0,001
530	-0,001
530,4	-0,001
530,9	-0,001
531,3	-0
531,8	-0
532,2	0,001
532,6	0,001
533,1	0,002
533,5	0,002
534	0,002
534,4	0,002
534,9	0,002
535,3	0,002
535,8	0,001
536,2	0,001
536,7	0
537,1	0
537,6	0
538	0
538,5	0
538,9	0
539,4	0
539,8	0
540,3	0
540,7	0,001
541,2	0,001
541,6	0
542,1	-0
542,5	-0
543	-0,001
543,4	-0,001
543,9	-0,002
544,3	-0,001
544,8	-0,001
545,2	-0,001
545,7	-0
546,1	0
546,5	0,001
547	0
547,4	0
547,9	0
548,3	-0
548,8	-0,001
549,2	-0,001
549,7	-0,001
550,1	-0
550,6	-0
551	-0
551,5	-0
551,9	-0
552,4	0
552,8	-0
553,3	-0
553,7	-0
554,2	-0
554,6	0
555,1	0
555,5	0
555,9	0
556,4	0
556,8	0
557,3	0
557,7	0
558,2	0
558,6	0
559,1	0
559,5	-0
560	0
560,4	0
560,9	0
561,3	0
561,8	-0
562,2	-0,001
562,7	-0,001
563,1	-0,001
563,6	-0,001
564	-0,001
564,4	-0,001
564,9	-0,001
565,3	-0,001
565,8	-0,001
566,2	-0,001
566,7	-0,001
567,1	-0
567,6	-0
568	-0,001
568,5	-0
568,9	-0
569,4	-0
569,8	-0,001
570,3	-0,001
570,7	-0,001
571,1	-0
571,6	-0,001
572	-0,001
572,5	-0
572,9	-0
573,4	-0
573,8	-0
574,3	-0
574,7	-0
575,2	0
575,6	0
576,1	0
576,5	0
576,9	0
577,4	0
577,8	-0
578,3	-0
578,7	-0
579,2	-0
579,6	-0
580,1	-0
580,5	-0
581	-0,001
581,4	-0,001
581,9	-0,001
582,3	-0,001
582,7	-0,001
583,2	-0,001
583,6	-0,001
584,1	-0
584,5	-0
585	-0
585,4	-0
585,9	0
586,3	0
586,8	0,001
587,2	0,001
587,6	0,001
588,1	0,001
588,5	0,001
589	0
589,4	0
589,9	0
590,3	0
590,8	0
591,2	0
591,7	0
592,1	0
592,5	0
593	-0
593,4	-0
593,9	-0,001
594,3	-0
594,8	-0
595,2	-0
595,7	-0
596,1	-0
596,6	-0
597	0
597,4	-0
597,9	-0
598,3	-0
598,8	-0
599,2	-0
599,7	-0,001
600,1	-0,001
600,6	-0
601	-0,001
601,4	-0,001
601,9	-0,001
602,3	-0,001
602,8	-0
603,2	-0
603,7	-0
604,1	-0
604,6	-0
605	-0
605,4	-0
605,9	0
606,3	-0
606,8	0
607,2	-0
607,7	0
608,1	-0
608,6	-0
609	-0,001
609,4	-0
609,9	-0
610,3	-0
610,8	-0,001
611,2	-0,001
611,7	-0,001
612,1	-0,001
612,6	-0,001
613	-0,001
613,4	-0,001
613,9	-0,001
614,3	-0,001
614,8	-0,001
615,2	-0
615,7	-0,001
616,1	-0
616,6	-0
617	-0
617,4	-0
617,9	-0,001
618,3	-0,001
618,8	-0,001
619,2	-0,001
619,7	-0,001
620,1	-0,001
620,5	-0,001
621	-0,001
621,4	-0,001
621,9	-0
622,3	-0,001
622,8	-0,001
623,2	-0,001
623,6	-0,001
624,1	-0,001
624,5	-0,001
625	-0,002
625,4	-0,002
625,9	-0,002
626,3	-0,002
626,8	-0,002
627,2	-0,002
627,6	-0,001
628,1	-0,001
628,5	-0
629	0
629,4	0
629,9	0
630,3	0
630,7	0
631,2	0
631,6	0
632,1	-0
632,5	-0
633	-0
633,4	-0
633,8	-0,001
634,3	-0,001
634,7	-0,001
635,2	-0,001
635,6	-0,001
636,1	-0
636,5	0
636,9	0
637,4	0
637,8	0
638,3	0,001
638,7	0,001
639,2	0
639,6	0
640	0
640,5	-0
640,9	0
641,4	-0
641,8	-0
642,2	0
642,7	0
643,1	-0
643,6	0
644	0
644,5	0
644,9	0,001
645,3	0
645,8	0
646,2	0
646,7	0
647,1	0
647,6	0
648	-0,001
648,4	-0,001
648,9	-0,001
649,3	-0,001
649,8	-0
650,2	-0,001
650,6	-0
651,1	-0
651,5	-0
652	-0,001
652,4	-0,001
652,9	-0,002
653,3	-0,002
653,7	-0,002
654,2	-0,002
654,6	-0,001
655,1	-0
655,5	0
655,9	0
656,4	0
656,8	0
657,3	0
657,7	-0
658,2	-0
658,6	-0
659	-0
659,5	-0,001
659,9	-0
660,4	-0
660,8	-0
661,2	-0
661,7	-0
662,1	-0
662,6	-0
663	-0
663,4	-0
663,9	-0
664,3	-0
664,8	-0,001
665,2	-0,001
665,6	-0,001
666,1	-0,001
666,5	-0,001
667	-0,001
667,4	-0,001
667,9	-0,001
668,3	-0,001
668,7	-0,001
669,2	-0,001
669,6	-0,001
670,1	-0,001
670,5	-0,001
670,9	-0,001
671,4	-0,001
671,8	-0,001
672,3	-0,001
672,7	-0,001
673,1	-0,001
673,6	-0,001
674	-0,001
674,5	-0,001
674,9	-0,001
675,3	-0
675,8	-0
676,2	-0
676,7	0
677,1	-0
677,5	-0
678	-0
678,4	-0
678,9	-0
679,3	-0
679,7	-0,001
680,2	-0
680,6	-0,001
681,1	-0,001
681,5	-0,001
681,9	-0,001
682,4	-0,001
682,8	-0,001
683,3	-0,001
683,7	-0,001
684,1	-0,001
684,6	-0
685	-0
685,5	0
685,9	0
686,3	0
686,8	0
687,2	0,001
687,7	0,001
688,1	0
688,5	0
689	0,001
689,4	0,001
689,9	0,001
690,3	0,001
690,7	0,001
691,2	0,001
691,6	0,001
692	0,001
692,5	0,001
692,9	0
693,4	0
693,8	0
694,2	-0
694,7	0
695,1	-0
695,6	-0
696	0
696,4	0
696,9	-0
697,3	-0
697,8	-0
698,2	-0
698,6	-0
699,1	-0,001
699,5	-0,001
699,9	-0
700,4	-0
700,8	-0
701,3	0
701,7	0,001
702,1	0,001
702,6	0,001
703	0,001
703,5	0,001
703,9	0
704,3	0,001
704,8	0
705,2	0
705,6	0,001
706,1	0,001
706,5	0,001
707	0,001
707,4	0
707,8	-0
708,3	-0
708,7	-0,001
709,2	-0,001
709,6	-0,001
710	-0,001
710,5	-0,001
710,9	-0
711,3	-0
711,8	-0,001
712,2	-0,001
712,7	-0
713,1	-0
713,5	-0,001
714	-0,001
714,4	-0,001
714,8	-0,001
715,3	-0
715,7	-0,001
716,2	-0,001
716,6	-0
717	-0
717,5	-0
717,9	-0
718,3	-0
718,8	0
719,2	0,001
719,7	0,001
720,1	0
720,5	0
721	0
721,4	0
721,8	-0
722,3	-0,001
722,7	-0,001
723,2	-0,001
723,6	-0,001
724	-0,001
724,5	-0,001
724,9	-0,001
725,3	-0,001
725,8	-0,001
726,2	-0,001
726,7	-0,001
727,1	-0,001
727,5	-0,001
728	-0,001
728,4	-0,001
728,8	-0,001
729,3	-0,001
729,7	-0,001
730,1	-0,001
730,6	-0,001
731	-0,001
731,5	-0,001
731,9	-0,001
732,3	-0,001
732,8	-0,001
733,2	-0,001
733,6	-0
734,1	-0,001
734,5	-0,001
734,9	-0,001
735,4	-0
735,8	-0,001
736,3	-0,001
736,7	-0,001
737,1	-0,001
737,6	-0,001
738	-0,001
738,4	-0
738,9	-0
739,3	-0
739,7	-0
740,2	0
740,6	0
741,1	0
741,5	-0
741,9	-0
742,4	-0,001
742,8	-0,001
743,2	-0,001
743,7	-0,001
744,1	-0,001
744,5	-0,001
745	-0,001
745,4	-0,001
745,8	-0,001
746,3	-0,001
746,7	-0,001
747,2	-0,001
747,6	-0,001
748	-0,001
748,5	-0,001
748,9	-0,001
749,3	-0,001
749,8	-0,001
750,2	-0,001
750,6	-0,001
751,1	-0,001
751,5	-0,001
751,9	-0,001
752,4	-0,001
752,8	-0,001
753,3	-0
753,7	-0
754,1	-0
754,6	-0,001
755	-0,001
755,4	-0,001
755,9	-0,001
756,3	-0,001
756,7	-0,002
757,2	-0,001
757,6	-0,001
758	-0,001
758,5	-0,001
758,9	-0,001
759,3	-0,001
759,8	-0,001
760,2	-0,001
760,6	-0,001
761,1	-0,001
761,5	-0,001
761,9	-0,001
762,4	-0,001
762,8	-0,001
763,3	-0,001
763,7	-0,001
764,1	-0,001
764,6	-0,001
765	-0,001
765,4	-0,001
765,9	-0,001
766,3	-0,001
766,7	-0,001
767,2	-0,001
767,6	-0,001
768	-0,001
768,5	-0,001
768,9	-0,001
769,3	-0,002
769,8	-0,002
770,2	-0,002
770,6	-0,002
771,1	-0,002
771,5	-0,002
771,9	-0,002
772,4	-0,002
772,8	-0,002
773,2	-0,001
773,7	-0,001
774,1	-0,001
774,5	-0
775	-0
775,4	-0
775,8	0
776,3	0
776,7	0
777,1	0
777,6	0
778	-0
778,4	-0
778,9	-0
779,3	-0
779,7	0
780,2	-0
780,6	-0
781	-0
781,5	-0
781,9	-0
782,3	-0,001
782,8	-0,001
783,2	-0,001
783,6	-0,001
784,1	-0,001
784,5	-0,001
784,9	-0,001
785,4	-0
785,8	-0
786,2	0
786,7	0
787,1	0,001
787,5	0,001
788	0
788,4	0
788,8	-0
789,3	-0
789,7	-0,001
790,1	-0,001
790,6	-0,001
791	-0,001
791,4	-0,001
791,9	-0,001
792,3	-0
792,7	-0
793,2	-0
793,6	-0
794	0
794,5	0
794,9	0
795,3	0
795,8	0
796,2	0,001
796,6	0,001
797,1	0,001
797,5	0,001
797,9	0,001
798,4	0,001
798,8	0,001
799,2	0
799,7	0
800,1	0
800,5	-0
801	-0
801,4	-0
801,8	-0
802,2	-0
802,7	-0
803,1	-0
803,5	-0
804	-0
804,4	-0,001
804,8	-0,001
805,3	-0,001
805,7	-0,001
806,1	-0,001
806,6	-0,001
807	-0
807,4	-0
807,9	0
808,3	0
808,7	-0
809,2	-0,001
809,6	-0,001
810	-0,001
810,4	-0,001
810,9	-0,001
811,3	-0,001
811,7	-0,001
812,2	-0
812,6	-0
813	-0
813,5	0
813,9	0
814,3	0
814,8	0,001
815,2	0
815,6	0
816,1	0
816,5	-0,001
816,9	-0,001
817,3	-0,001
817,8	-0,001
818,2	-0,001
818,6	-0,001
819,1	-0,001
819,5	-0,001
819,9	-0,001
820,4	-0,001
820,8	-0,001
821,2	-0,001
821,7	-0,001
822,1	-0,001
822,5	-0
822,9	-0,001
823,4	-0
823,8	-0
824,2	0
824,7	0
825,1	0
825,5	0
826	0,001
826,4	0,001
826,8	0,001
827,3	0,001
827,7	0,001
828,1	0,001
828,5	0,001
829	0,001
829,4	0,001
829,8	0,001
830,3	0,001
830,7	0
831,1	-0
831,6	-0
832	-0,001
832,4	-0,001
832,8	-0,001
833,3	-0,001
833,7	-0,001
834,1	-0,001
834,6	-0,001
835	-0,002
835,4	-0,001
835,8	-0,001
836,3	-0,001
836,7	-0,001
837,1	-0,001
837,6	-0,001
838	-0,001
838,4	-0,001
838,9	-0,001
839,3	-0,002
839,7	-0,002
840,1	-0,001
840,6	-0,002
841	-0,002
841,4	-0,002
841,9	-0,001
842,3	-0,001
842,7	-0,001
843,1	-0,002
843,6	-0,001
844	-0,001
844,4	-0,001
844,9	-0,001
845,3	-0,001
845,7	-0,001
846,2	-0
846,6	-0
847	-0
847,4	0
847,9	-0
848,3	-0
848,7	-0
849,2	-0
849,6	-0
850	-0
850,4	-0,001
850,9	-0,001
851,3	-0
851,7	-0
852,2	0
852,6	0
853	0
853,4	0,001
853,9	0,001
854,3	0,001
854,7	0,001
855,2	0,001
855,6	0,001
856	0,001
856,4	0,001
856,9	0,001
857,3	0,001
857,7	0,001
858,2	0,001
858,6	0
859	0
859,4	0
859,9	-0
860,3	-0
860,7	-0
861,1	0
861,6	0
862	0,001
862,4	0
862,9	0
863,3	0
863,7	0
864,1	-0
864,6	0
865	-0
865,4	-0
865,9	-0
866,3	0
866,7	-0
867,1	-0
867,6	-0,001
868	-0,001
868,4	-0,001
868,8	-0,001
869,3	-0,001
869,7	-0,001
870,1	-0,001
870,6	-0
871	-0
871,4	-0
871,8	0
872,3	0
872,7	0
873,1	0
873,5	0
874	-0
874,4	-0
874,8	-0
875,3	-0
875,7	-0
876,1	-0
876,5	-0,001
877	-0
877,4	-0
877,8	-0
878,2	-0,001
878,7	-0,001
879,1	-0,001
879,5	-0,001
879,9	-0,001
880,4	-0,001
880,8	-0,001
881,2	-0,001
881,7	-0
882,1	-0
882,5	-0,001
882,9	-0
883,4	-0
883,8	-0,001
884,2	-0,001
884,6	-0,001
885,1	-0,001
885,5	-0,001
885,9	-0,001
886,3	-0,001
886,8	-0,001
887,2	-0,001
887,6	-0,001
888	-0
888,5	-0
888,9	0
889,3	0
889,8	0
890,2	0
890,6	0
891	0
891,5	0,001
891,9	0
892,3	0
892,7	0,001
893,2	0,001
893,6	0
894	0
894,4	-0
894,9	-0
895,3	-0
895,7	-0
896,1	-0
896,6	-0
897	-0
897,4	-0
897,8	-0
898,3	-0
898,7	-0
899,1	0
899,5	-0
900	0
900,4	0,001
900,8	0
901,2	0,001
901,7	0
902,1	0
902,5	0
902,9	0
903,4	0
903,8	0
904,2	0
904,6	0
905,1	-0
905,5	-0
905,9	-0
906,3	-0
906,8	-0,001
907,2	-0,001
907,6	-0,001
908	-0,001
908,5	-0
908,9	-0
909,3	-0
909,7	-0
910,2	-0
910,6	0
911	0
911,4	0
911,9	0
912,3	0
912,7	-0
913,1	0
913,6	-0
914	0
914,4	-0
914,8	-0
915,3	-0
915,7	-0,001
916,1	-0
916,5	-0,001
916,9	-0,001
917,4	-0,001
917,8	-0,001
918,2	-0,001
918,6	-0,001
919,1	-0
919,5	-0
919,9	-0
920,3	0
920,8	-0
921,2	0
921,6	0
922	-0
922,5	-0
922,9	-0,001
923,3	-0,001
923,7	-0,001
924,2	-0,001
924,6	-0,001
925	-0,001
925,4	-0,002
925,8	-0,001
926,3	-0,001
926,7	-0,002
927,1	-0,002
927,5	-0,002
928	-0,002
928,4	-0,001
928,8	-0,001
929,2	-0,001
929,7	-0,001
930,1	-0,001
930,5	-0,001
930,9	-0
931,3	-0,001
931,8	-0
932,2	-0
932,6	-0
933	-0
933,5	-0,001
933,9	-0,001
934,3	-0,001
934,7	-0,001
935,2	-0,001
935,6	-0,001
936	-0,001
936,4	-0,001
936,8	-0,001
937,3	-0,001
937,7	-0,001
938,1	-0,001
938,5	-0,001
939	-0
939,4	-0
939,8	-0
940,2	-0
940,6	-0
941,1	-0,001
941,5	-0,001
941,9	-0
942,3	-0
942,8	-0
943,2	-0,001
943,6	-0,001
944	-0,001
944,4	-0
944,9	-0,001
945,3	-0,001
945,7	-0,001
946,1	-0
946,6	-0,001
947	-0,001
947,4	-0,002
947,8	-0,002
948,2	-0,003
948,7	-0,002
949,1	-0,003
949,5	-0,003
949,9	-0,002
950,3	-0,002
950,8	-0,002
951,2	-0,002
951,6	-0,002
952	-0,002
952,5	-0,002
952,9	-0,002
953,3	-0,002
953,7	-0,002
954,1	-0,002
954,6	-0,001
955	-0,001
955,4	-0,001
955,8	-0,002
956,2	-0,001
956,7	-0,001
957,1	-0,001
957,5	-0,001
957,9	-0,001
958,3	-0,001
958,8	-0
959,2	-0
959,6	-0,001
960	-0,001
960,5	-0,002
960,9	-0,002
961,3	-0,002
961,7	-0,002
962,1	-0,002
962,6	-0,002
963	-0,001
963,4	-0
963,8	0
964,2	0,001
964,7	0,001
965,1	0,001
965,5	0,001
965,9	0
966,3	0
966,8	0
967,2	-0
967,6	-0
968	-0,001
968,4	0
968,9	0,001
969,3	0,001
969,7	0
970,1	0
970,5	0,001
971	0,001
971,4	0,001
971,8	0
972,2	0,001
972,6	-0
973,1	-0
973,5	-0
973,9	-0
974,3	-0
974,7	-0
975,2	-0
975,6	0,001
976	-0
976,4	-0
976,8	-0,001
977,3	-0,001
977,7	-0,001
978,1	-0,001
978,5	-0,001
978,9	-0,001
979,4	-0,001
979,8	-0,001
980,2	-0
980,6	0
981	-0
981,5	-0,001
981,9	-0,001
982,3	-0
982,7	0
983,1	-0,001
983,6	-0,002
984	-0,002
984,4	-0,002
984,8	-0,002
985,2	-0,002
985,6	-0,002
986,1	-0,001
986,5	0
986,9	0,001
987,3	0,002
987,7	0,002
988,2	0,002
988,6	0,002
989	0,002
989,4	0,001
989,8	0,001
990,3	0
990,7	0
991,1	0
991,5	0
991,9	0,001
992,3	0,001
992,8	0
993,2	0
993,6	0
994	-0
994,4	-0,001
994,9	-0,001
995,3	-0,001
995,7	-0
996,1	-0
996,5	-0
996,9	-0
997,4	-0,001
997,8	-0,001
998,2	-0,001
998,6	-0,001
999	-0,001
999,5	-0,001
999,9	-0,001
1000,3	-0
1000,7	-0
1001,1	-0
1001,5	-0
1002	-0
1002,4	-0,001
1002,8	-0,001
1003,2	-0,002
1003,6	-0,002
1004	-0,002
1004,5	-0,002
1004,9	-0,002
1005,3	-0,002
1005,7	-0,001
1006,1	-0,001
1006,6	-0
1007	0
1007,4	0
1007,8	-0
1008,2	0,001
1008,6	0,001
1009,1	0,001
1009,5	0,001
1009,9	0,001
1010,3	0,001
1010,7	0,002
1011,1	0,001
1011,6	0,001
1012	0,001
1012,4	0,001
1012,8	0,001
1013,2	-0
1013,6	-0
1014,1	-0,001
1014,5	-0
1014,9	-0,001
1015,3	-0,001
1015,7	-0,001
1016,1	-0,001
1016,6	-0,001
1017	-0,001
1017,4	-0,001
1017,8	-0,001
1018,2	-0,001
1018,6	-0,001
1019,1	-0,001
1019,5	-0
1019,9	-0
1020,3	0
1020,7	0
1021,1	0,001
1021,6	0,001
1022	0,001
1022,4	0
1022,8	0
1023,2	-0,001
1023,6	-0
1024,1	-0
1024,5	-0
1024,9	-0
1025,3	-0
1025,7	-0,001
1026,1	-0
1026,6	-0
1027	-0,001
1027,4	-0,002
1027,8	-0,003
1028,2	-0,003
1028,6	-0,003
1029	-0,002
1029,5	-0,003
1029,9	-0,001
1030,3	-0,001
1030,7	-0
1031,1	-0
1031,5	-0,001
1032	-0
1032,4	-0
1032,8	-0,001
1033,2	-0,001
1033,6	-0,001
1034	-0,001
1034,4	-0,001
1034,9	-0,001
1035,3	-0,002
1035,7	-0,001
1036,1	-0,002
1036,5	-0,002
1036,9	-0,002
1037,4	-0,001
1037,8	-0,001
1038,2	-0
1038,6	0
1039	0
1039,4	0,001
1039,8	0,001
1040,3	0,001
1040,7	0,001
1041,1	-0
1041,5	0
1041,9	0
1042,3	-0,001
1042,7	-0,001
1043,2	-0,001
1043,6	-0,001
1044	-0,001
1044,4	-0,001
1044,8	-0,002
1045,2	-0,001
1045,6	-0,001
1046,1	-0,001
1046,5	-0,001
1046,9	0
1047,3	-0
1047,7	0,001
1048,1	0,001
1048,5	0
1049	0
1049,4	0,001
1049,8	0,001
1050,2	0,001
1050,6	0,001
1051	0
1051,4	0
1051,9	-0
1052,3	-0,001
1052,7	-0,002
1053,1	-0,002
1053,5	-0,003
1053,9	-0,002
1054,3	-0,001
1054,8	-0,001
1055,2	-0,001
1055,6	-0,001
1056	0
1056,4	0,001
1056,8	0,001
1057,2	0,001
1057,6	0,001
1058,1	0,001
1058,5	0,001
1058,9	0,001
1059,3	0
1059,7	0
1060,1	-0,001
1060,5	-0
1061	-0
1061,4	-0
1061,8	-0,001
1062,2	-0,001
1062,6	-0
1063	0
1063,4	0,001
1063,8	-0,001
1064,3	0,001
1064,7	0,002
1065,1	0,001
1065,5	0
1065,9	-0
1066,3	0
1066,7	0,001
1067,1	0,001
1067,6	-0
1068	0,002
1068,4	0,002
1068,8	0,002
1069,2	0,001
1069,6	0,003
1070	0,003
1070,4	0,002
1070,9	0,001
1071,3	0
1071,7	0,001
1072,1	0,002
1072,5	0,001
1072,9	0,002
1073,3	0,002
1073,7	0,001
1074,2	0,001
1074,6	-0
1075	0
1075,4	-0
1075,8	-0,001
1076,2	-0,001
1076,6	-0,001
1077	0
1077,5	-0
1077,9	-0,001
1078,3	-0,001
1078,7	-0,001
1079,1	-0,002
1079,5	-0,001
1079,9	-0,001
1080,3	-0,001
1080,7	0
1081,2	0
1081,6	-0
1082	0,001
1082,4	0,002
1082,8	0,002
1083,2	0,003
1083,6	-0,001
1084	0
1084,5	-0
1084,9	-0,001
1085,3	-0,003
1085,7	-0,004
1086,1	-0,005
1086,5	-0,004
1086,9	-0,005
1087,3	-0,004
1087,7	-0,003
1088,2	-0,002
1088,6	-0,004
1089	-0,001
1089,4	0,002
1089,8	0,001
1090,2	0,002
1090,6	0
1091	-0
1091,4	0,002
1091,9	0,001
1092,3	-0
1092,7	0,001
1093,1	-0,002
1093,5	-0
1093,9	0,002
1094,3	0,002
1094,7	-0,003
1095,1	-0,002
1095,5	-0,004
1096	-0,004
1096,4	-0,008
1096,8	-0,009
1097,2	-0,012
1097,6	-0,006
1098	-0,009
1098,4	-0,004
1098,8	-0,001
1099,2	-0,001
1099,6	-0,001
1100,1	-0
1100,5	-0,008
1100,9	-0,007
1101,3	-0,009
1101,7	-0,007
1102,1	-0,005
1102,5	-0,009
1102,9	-0,008
1103,3	-0
1103,7	0,001
1104,2	0,005
1104,6	-0,004
1105	-0,007
1105,4	0,002
1105,8	0,001
1106,2	-0,009
1106,6	-0,002
1107	-0,015
1107,4	-0,01
1107,8	0,024
1108,3	-0
