Data from Absorbance_00013.txt Node
Date: Thu Aug 10 15:05:30 MSK 2023
User: vat
Spectrometer: MAYP114033
Trigger mode: 0
Integration Time (sec): 8,000000E-3
Scans to average: 10
Electric dark correction enabled: true
Nonlinearity correction enabled: false
Boxcar width: 3
XAxis mode: Wavelengths
Number of Pixels in Spectrum: 2068
>>>>>Begin Spectral Data<<<<<
199,4	-0
199,9	0,328
200,4	0,54
200,8	0,802
201,3	0,936
201,8	0,972
202,2	0,954
202,7	0,98
203,2	1,041
203,6	1,076
204,1	1,1
204,6	1,096
205	1,12
205,5	1,162
206	1,194
206,4	1,194
206,9	1,201
207,4	1,227
207,8	1,249
208,3	1,261
208,8	1,28
209,2	1,272
209,7	1,279
210,2	1,311
210,6	1,302
211,1	1,314
211,5	1,314
212	1,323
212,5	1,347
212,9	1,361
213,4	1,371
213,9	1,379
214,3	1,395
214,8	1,424
215,3	1,429
215,7	1,431
216,2	1,455
216,7	1,465
217,1	1,496
217,6	1,478
218,1	1,478
218,5	1,493
219	1,501
219,5	1,516
219,9	1,521
220,4	1,53
220,9	1,563
221,3	1,584
221,8	1,602
222,3	1,635
222,7	1,636
223,2	1,66
223,6	1,676
224,1	1,683
224,6	1,716
225	1,736
225,5	1,741
226	1,783
226,4	1,787
226,9	1,817
227,4	1,868
227,8	1,846
228,3	1,853
228,8	1,876
229,2	1,871
229,7	1,894
230,2	1,902
230,6	1,896
231,1	1,928
231,5	1,941
232	1,939
232,5	1,956
232,9	1,943
233,4	1,962
233,9	1,978
234,3	1,976
234,8	1,99
235,3	2,009
235,7	2,019
236,2	2,046
236,7	2,026
237,1	2,028
237,6	2,047
238,1	2,054
238,5	2,065
239	2,076
239,4	2,081
239,9	2,1
240,4	2,098
240,8	2,092
241,3	2,091
241,8	2,101
242,2	2,099
242,7	2,094
243,2	2,101
243,6	2,109
244,1	2,135
244,6	2,134
245	2,129
245,5	2,119
245,9	2,106
246,4	2,106
246,9	2,093
247,3	2,092
247,8	2,093
248,3	2,082
248,7	2,095
249,2	2,144
249,7	2,151
250,1	2,176
250,6	2,165
251	2,18
251,5	2,202
252	2,213
252,4	2,194
252,9	2,19
253,4	2,189
253,8	2,217
254,3	2,198
254,8	2,213
255,2	2,214
255,7	2,209
256,1	2,227
256,6	2,245
257,1	2,226
257,5	2,255
258	2,246
258,5	2,233
258,9	2,265
259,4	2,25
259,9	2,257
260,3	2,249
260,8	2,246
261,2	2,256
261,7	2,254
262,2	2,228
262,6	2,225
263,1	2,204
263,6	2,213
264	2,204
264,5	2,189
264,9	2,217
265,4	2,215
265,9	2,209
266,3	2,214
266,8	2,208
267,3	2,206
267,7	2,21
268,2	2,177
268,7	2,179
269,1	2,184
269,6	2,191
270	2,192
270,5	2,17
271	2,162
271,4	2,179
271,9	2,194
272,4	2,181
272,8	2,173
273,3	2,201
273,7	2,241
274,2	2,255
274,7	2,255
275,1	2,246
275,6	2,274
276,1	2,279
276,5	2,248
277	2,252
277,4	2,253
277,9	2,245
278,4	2,245
278,8	2,235
279,3	2,218
279,8	2,21
280,2	2,21
280,7	2,203
281,1	2,228
281,6	2,241
282,1	2,235
282,5	2,252
283	2,262
283,4	2,244
283,9	2,249
284,4	2,244
284,8	2,227
285,3	2,232
285,8	2,232
286,2	2,223
286,7	2,224
287,1	2,225
287,6	2,188
288,1	2,158
288,5	2,136
289	2,094
289,5	2,052
289,9	2,002
290,4	1,94
290,8	1,888
291,3	1,846
291,8	1,797
292,2	1,761
292,7	1,723
293,1	1,693
293,6	1,667
294,1	1,652
294,5	1,629
295	1,607
295,5	1,583
295,9	1,57
296,4	1,553
296,8	1,539
297,3	1,519
297,8	1,511
298,2	1,498
298,7	1,491
299,1	1,481
299,6	1,472
300,1	1,461
300,5	1,454
301	1,445
301,5	1,441
301,9	1,43
302,4	1,421
302,8	1,413
303,3	1,406
303,8	1,4
304,2	1,39
304,7	1,382
305,1	1,376
305,6	1,371
306,1	1,363
306,5	1,353
307	1,343
307,4	1,333
307,9	1,325
308,4	1,315
308,8	1,305
309,3	1,295
309,8	1,287
310,2	1,279
310,7	1,271
311,1	1,26
311,6	1,252
312,1	1,242
312,5	1,234
313	1,225
313,4	1,215
313,9	1,204
314,4	1,193
314,8	1,181
315,3	1,169
315,7	1,155
316,2	1,143
316,7	1,13
317,1	1,12
317,6	1,109
318	1,099
318,5	1,089
319	1,079
319,4	1,069
319,9	1,059
320,3	1,048
320,8	1,036
321,3	1,025
321,7	1,014
322,2	1,004
322,6	0,993
323,1	0,983
323,6	0,973
324	0,963
324,5	0,953
324,9	0,943
325,4	0,932
325,9	0,92
326,3	0,909
326,8	0,897
327,2	0,886
327,7	0,874
328,2	0,863
328,6	0,851
329,1	0,84
329,5	0,829
330	0,818
330,5	0,807
330,9	0,797
331,4	0,785
331,8	0,775
332,3	0,766
332,8	0,755
333,2	0,744
333,7	0,731
334,1	0,72
334,6	0,711
335,1	0,701
335,5	0,689
336	0,678
336,4	0,668
336,9	0,658
337,4	0,648
337,8	0,637
338,3	0,625
338,7	0,615
339,2	0,603
339,7	0,593
340,1	0,584
340,6	0,574
341	0,564
341,5	0,553
342	0,545
342,4	0,536
342,9	0,526
343,3	0,517
343,8	0,509
344,2	0,499
344,7	0,491
345,2	0,482
345,6	0,473
346,1	0,465
346,5	0,456
347	0,447
347,5	0,439
347,9	0,431
348,4	0,424
348,8	0,416
349,3	0,409
349,8	0,401
350,2	0,393
350,7	0,385
351,1	0,378
351,6	0,37
352	0,362
352,5	0,355
353	0,348
353,4	0,342
353,9	0,336
354,3	0,33
354,8	0,324
355,3	0,318
355,7	0,313
356,2	0,307
356,6	0,301
357,1	0,294
357,5	0,288
358	0,283
358,5	0,277
358,9	0,272
359,4	0,267
359,8	0,262
360,3	0,258
360,8	0,253
361,2	0,248
361,7	0,243
362,1	0,239
362,6	0,235
363	0,23
363,5	0,227
364	0,223
364,4	0,219
364,9	0,215
365,3	0,211
365,8	0,207
366,3	0,204
366,7	0,2
367,2	0,195
367,6	0,193
368,1	0,19
368,5	0,187
369	0,185
369,5	0,182
369,9	0,179
370,4	0,176
370,8	0,172
371,3	0,17
371,7	0,167
372,2	0,164
372,7	0,161
373,1	0,159
373,6	0,157
374	0,154
374,5	0,152
374,9	0,15
375,4	0,148
375,9	0,146
376,3	0,144
376,8	0,141
377,2	0,14
377,7	0,138
378,2	0,136
378,6	0,134
379,1	0,132
379,5	0,13
380	0,127
380,4	0,125
380,9	0,123
381,4	0,121
381,8	0,119
382,3	0,117
382,7	0,116
383,2	0,115
383,6	0,114
384,1	0,112
384,6	0,111
385	0,109
385,5	0,107
385,9	0,105
386,4	0,103
386,8	0,101
387,3	0,1
387,7	0,099
388,2	0,097
388,7	0,097
389,1	0,096
389,6	0,094
390	0,094
390,5	0,093
390,9	0,092
391,4	0,09
391,9	0,089
392,3	0,088
392,8	0,087
393,2	0,085
393,7	0,083
394,1	0,082
394,6	0,081
395,1	0,079
395,5	0,079
396	0,078
396,4	0,077
396,9	0,076
397,3	0,074
397,8	0,073
398,2	0,073
398,7	0,071
399,2	0,07
399,6	0,067
400,1	0,066
400,5	0,065
401	0,063
401,4	0,062
401,9	0,061
402,4	0,06
402,8	0,06
403,3	0,059
403,7	0,058
404,2	0,058
404,6	0,057
405,1	0,056
405,5	0,054
406	0,053
406,5	0,053
406,9	0,052
407,4	0,051
407,8	0,05
408,3	0,049
408,7	0,049
409,2	0,048
409,6	0,047
410,1	0,046
410,6	0,046
411	0,045
411,5	0,044
411,9	0,042
412,4	0,041
412,8	0,041
413,3	0,039
413,7	0,039
414,2	0,038
414,7	0,038
415,1	0,037
415,6	0,036
416	0,036
416,5	0,035
416,9	0,034
417,4	0,034
417,8	0,033
418,3	0,033
418,8	0,033
419,2	0,032
419,7	0,031
420,1	0,03
420,6	0,029
421	0,028
421,5	0,027
421,9	0,026
422,4	0,026
422,8	0,025
423,3	0,024
423,8	0,024
424,2	0,024
424,7	0,023
425,1	0,022
425,6	0,022
426	0,021
426,5	0,02
426,9	0,019
427,4	0,018
427,9	0,018
428,3	0,017
428,8	0,017
429,2	0,018
429,7	0,017
430,1	0,017
430,6	0,016
431	0,016
431,5	0,016
431,9	0,016
432,4	0,015
432,8	0,014
433,3	0,013
433,8	0,013
434,2	0,012
434,7	0,012
435,1	0,011
435,6	0,011
436	0,011
436,5	0,011
436,9	0,011
437,4	0,01
437,8	0,01
438,3	0,01
438,8	0,009
439,2	0,009
439,7	0,008
440,1	0,008
440,6	0,008
441	0,007
441,5	0,006
441,9	0,005
442,4	0,005
442,8	0,005
443,3	0,005
443,7	0,005
444,2	0,005
444,7	0,006
445,1	0,006
445,6	0,006
446	0,005
446,5	0,005
446,9	0,005
447,4	0,005
447,8	0,004
448,3	0,004
448,7	0,004
449,2	0,004
449,6	0,003
450,1	0,004
450,6	0,004
451	0,004
451,5	0,004
451,9	0,004
452,4	0,004
452,8	0,004
453,3	0,003
453,7	0,003
454,2	0,003
454,6	0,002
455,1	0,001
455,5	0,001
456	0,001
456,4	0,001
456,9	0,001
457,3	0,001
457,8	0,001
458,3	0,001
458,7	0,002
459,2	0,002
459,6	0,002
460,1	0,002
460,5	0,002
461	0,002
461,4	0,001
461,9	0,001
462,3	0
462,8	-0
463,2	-0,001
463,7	-0
464,1	-0
464,6	0
465	0,001
465,5	0,001
466	0,001
466,4	0
466,9	0
467,3	0,001
467,8	0
468,2	-0
468,7	-0
469,1	0,001
469,6	0,001
470	0,001
470,5	0,001
470,9	0
471,4	-0
471,8	-0,001
472,3	-0,001
472,7	-0,001
473,2	-0,001
473,6	-0,001
474,1	-0,001
474,5	-0,001
475	-0,001
475,4	-0,001
475,9	-0,001
476,4	-0,001
476,8	-0,002
477,3	-0,002
477,7	-0,002
478,2	-0,001
478,6	-0,001
479,1	-0,001
479,5	-0,001
480	-0,001
480,4	0
480,9	0
481,3	-0
481,8	-0
482,2	-0
482,7	-0
483,1	0
483,6	0
484	0
484,5	-0
484,9	-0
485,4	-0
485,8	0
486,3	-0,001
486,7	-0,001
487,2	-0,001
487,6	-0,001
488,1	-0
488,5	-0
489	-0,001
489,4	0
489,9	-0
490,4	-0
490,8	-0,001
491,3	-0
491,7	-0
492,2	0
492,6	-0
493,1	0
493,5	0
494	0
494,4	-0
494,9	-0
495,3	-0
495,8	-0
496,2	-0,001
496,7	-0
497,1	-0,001
497,6	-0,001
498	-0,001
498,5	-0
498,9	-0
499,4	-0
499,8	-0
500,3	0
500,7	-0,001
501,2	-0,001
501,6	-0,002
502,1	-0,001
502,5	-0,001
503	-0,001
503,4	-0,001
503,9	-0,001
504,3	-0,001
504,8	-0,001
505,2	-0,001
505,7	-0,002
506,1	-0,002
506,6	-0,002
507	-0,002
507,5	-0,002
507,9	-0,001
508,4	-0,001
508,8	-0,002
509,3	-0,002
509,7	-0,001
510,2	-0,001
510,6	-0
511,1	-0,001
511,5	-0,001
512	-0,001
512,4	-0
512,9	-0,001
513,3	-0,001
513,8	-0,001
514,2	-0,001
514,7	-0,001
515,1	-0,001
515,6	-0,001
516	-0
516,5	-0,001
516,9	-0
517,4	-0
517,8	-0,001
518,3	-0,002
518,7	-0,002
519,2	-0,002
519,6	-0,002
520,1	-0,003
520,5	-0,003
521	-0,002
521,4	-0,002
521,9	-0,002
522,3	-0,002
522,8	-0,002
523,2	-0,002
523,7	-0,001
524,1	-0,002
524,6	-0,002
525	-0,002
525,5	-0,002
525,9	-0,002
526,4	-0,001
526,8	-0,001
527,3	-0
527,7	-0,001
528,2	-0,001
528,6	-0,001
529,1	-0
529,5	-0
530	-0,001
530,4	-0,001
530,9	-0
531,3	-0
531,8	-0
532,2	-0
532,6	0
533,1	0
533,5	-0
534	-0
534,4	0
534,9	0
535,3	0
535,8	0
536,2	0
536,7	0
537,1	0
537,6	-0,001
538	-0,001
538,5	-0,001
538,9	-0
539,4	-0
539,8	-0,001
540,3	-0,001
540,7	0
541,2	-0
541,6	-0
542,1	-0,001
542,5	-0,001
543	-0,001
543,4	-0,001
543,9	-0,001
544,3	-0,001
544,8	-0,001
545,2	-0,001
545,7	-0,001
546,1	-0
546,5	0,001
547	0
547,4	0,001
547,9	0,001
548,3	0,001
548,8	0,001
549,2	0,001
549,7	0
550,1	0
550,6	0
551	0
551,5	-0
551,9	-0
552,4	0
552,8	0,001
553,3	0,001
553,7	-0
554,2	-0
554,6	0
555,1	-0
555,5	-0,001
555,9	-0,001
556,4	-0
556,8	-0,001
557,3	-0
557,7	-0,001
558,2	-0
558,6	-0
559,1	-0,001
559,5	-0,001
560	-0
560,4	-0,001
560,9	-0,001
561,3	-0,001
561,8	0
562,2	0
562,7	-0
563,1	-0
563,6	-0
564	-0
564,4	0
564,9	-0,001
565,3	-0,001
565,8	-0,001
566,2	-0
566,7	-0,001
567,1	-0
567,6	-0,001
568	-0,001
568,5	-0
568,9	-0,001
569,4	-0,001
569,8	-0,001
570,3	-0,002
570,7	-0,001
571,1	-0,002
571,6	-0,002
572	-0,002
572,5	-0,002
572,9	-0,001
573,4	-0,001
573,8	-0,001
574,3	-0,001
574,7	-0,001
575,2	-0,001
575,6	-0,001
576,1	-0,001
576,5	-0,001
576,9	-0,001
577,4	-0,001
577,8	-0,001
578,3	-0,001
578,7	-0,001
579,2	-0,002
579,6	-0,001
580,1	-0,001
580,5	-0,001
581	-0,001
581,4	-0,002
581,9	-0,002
582,3	-0,002
582,7	-0,002
583,2	-0,002
583,6	-0,001
584,1	-0,001
584,5	-0,001
585	-0,001
585,4	-0,001
585,9	-0,001
586,3	-0,001
586,8	-0,001
587,2	-0
587,6	-0
588,1	0
588,5	0
589	0
589,4	0
589,9	0
590,3	0
590,8	0
591,2	0
591,7	0
592,1	0
592,5	-0
593	-0
593,4	-0,001
593,9	-0,001
594,3	-0,001
594,8	-0,001
595,2	-0,001
595,7	-0,001
596,1	-0,001
596,6	-0,001
597	-0,001
597,4	-0,001
597,9	-0
598,3	0
598,8	-0
599,2	-0
599,7	-0,001
600,1	-0,001
600,6	-0,001
601	-0,001
601,4	-0,001
601,9	-0,001
602,3	-0,001
602,8	-0,001
603,2	-0,001
603,7	-0,001
604,1	-0,001
604,6	-0,001
605	-0
605,4	-0
605,9	-0
606,3	-0
606,8	-0
607,2	-0
607,7	-0
608,1	-0,001
608,6	-0,001
609	-0,001
609,4	-0,001
609,9	-0,001
610,3	-0
610,8	-0,001
611,2	-0,001
611,7	-0,001
612,1	-0,001
612,6	-0,001
613	-0,001
613,4	-0,001
613,9	-0,001
614,3	-0,001
614,8	-0
615,2	0
615,7	-0,001
616,1	-0
616,6	-0
617	-0
617,4	-0
617,9	-0,001
618,3	-0,001
618,8	-0,001
619,2	-0,001
619,7	-0,001
620,1	-0,001
620,5	-0,001
621	-0,001
621,4	-0,001
621,9	0
622,3	-0,001
622,8	-0,001
623,2	-0,001
623,6	-0,001
624,1	-0
624,5	-0,001
625	-0,001
625,4	-0,001
625,9	-0,001
626,3	-0,001
626,8	-0
627,2	-0,001
627,6	-0
628,1	-0,001
628,5	-0
629	0
629,4	0
629,9	-0
630,3	-0
630,7	-0
631,2	0
631,6	-0
632,1	-0,001
632,5	-0,001
633	-0,001
633,4	-0,001
633,8	-0,001
634,3	-0,001
634,7	-0,001
635,2	-0,001
635,6	-0,001
636,1	-0,001
636,5	-0,001
636,9	-0,001
637,4	-0,001
637,8	-0,001
638,3	-0
638,7	-0
639,2	0
639,6	-0
640	-0
640,5	-0,001
640,9	-0
641,4	-0,001
641,8	-0,001
642,2	-0,001
642,7	-0,001
643,1	-0,001
643,6	-0,001
644	-0,001
644,5	-0,001
644,9	-0
645,3	-0
645,8	-0
646,2	0
646,7	0
647,1	0
647,6	0
648	-0,001
648,4	-0,001
648,9	-0
649,3	-0,001
649,8	-0,001
650,2	-0,001
650,6	-0,001
651,1	-0,001
651,5	-0,001
652	-0,001
652,4	-0,001
652,9	-0,001
653,3	-0,001
653,7	-0,002
654,2	-0,001
654,6	-0,001
655,1	-0
655,5	0
655,9	0
656,4	0
656,8	0,001
657,3	0,002
657,7	0,002
658,2	0,002
658,6	0,003
659	0,003
659,5	0,005
659,9	0,003
660,4	0,002
660,8	0,001
661,2	0
661,7	-0
662,1	-0,001
662,6	-0,001
663	-0,001
663,4	-0,001
663,9	-0,001
664,3	-0,001
664,8	-0,001
665,2	-0,001
665,6	-0,001
666,1	-0,001
666,5	-0
667	-0,001
667,4	-0,001
667,9	-0,001
668,3	-0,001
668,7	-0,001
669,2	-0,002
669,6	-0,002
670,1	-0,002
670,5	-0,002
670,9	-0,002
671,4	-0,001
671,8	-0,002
672,3	-0,002
672,7	-0,002
673,1	-0,002
673,6	-0,001
674	-0,001
674,5	-0,001
674,9	-0,001
675,3	-0,001
675,8	-0
676,2	-0
676,7	-0
677,1	-0,001
677,5	-0,001
678	-0,001
678,4	-0,001
678,9	-0,002
679,3	-0,002
679,7	-0,002
680,2	-0,001
680,6	-0,001
681,1	-0,001
681,5	-0,001
681,9	-0,001
682,4	-0,001
682,8	-0,001
683,3	-0,001
683,7	-0,001
684,1	-0,001
684,6	-0,001
685	-0,001
685,5	-0,001
685,9	-0,001
686,3	-0,001
686,8	-0,001
687,2	-0,001
687,7	-0,001
688,1	-0,001
688,5	-0,001
689	-0,001
689,4	-0,001
689,9	-0,001
690,3	-0,001
690,7	-0,001
691,2	-0,001
691,6	-0,001
692	-0
692,5	0
692,9	0
693,4	-0
693,8	-0
694,2	-0
694,7	-0
695,1	-0,001
695,6	-0,001
696	-0,001
696,4	-0,001
696,9	-0,001
697,3	-0,001
697,8	-0,001
698,2	-0,001
698,6	-0,001
699,1	-0,001
699,5	-0,001
699,9	-0,001
700,4	-0,001
700,8	-0,001
701,3	-0,001
701,7	-0
702,1	-0
702,6	-0
703	-0
703,5	-0
703,9	-0,001
704,3	-0
704,8	-0
705,2	-0,001
705,6	-0,001
706,1	-0,001
706,5	-0,001
707	-0,001
707,4	-0,002
707,8	-0,001
708,3	-0,001
708,7	-0,001
709,2	-0,001
709,6	-0,001
710	-0,001
710,5	-0,001
710,9	-0
711,3	-0
711,8	-0,001
712,2	-0
712,7	-0,001
713,1	-0,001
713,5	-0,001
714	-0,001
714,4	-0,001
714,8	-0,001
715,3	-0,001
715,7	-0,001
716,2	-0,001
716,6	-0,001
717	-0,001
717,5	-0,001
717,9	-0
718,3	-0,001
718,8	-0
719,2	0
719,7	0
720,1	0
720,5	0
721	-0
721,4	-0
721,8	-0
722,3	-0
722,7	-0,001
723,2	-0,001
723,6	-0,001
724	-0,001
724,5	-0,001
724,9	-0,001
725,3	-0,002
725,8	-0,002
726,2	-0,001
726,7	-0,001
727,1	-0,001
727,5	-0,001
728	-0,001
728,4	-0,001
728,8	-0,001
729,3	-0,001
729,7	-0,002
730,1	-0,002
730,6	-0,002
731	-0,002
731,5	-0,001
731,9	-0,001
732,3	-0,001
732,8	-0,001
733,2	-0,001
733,6	-0,001
734,1	-0,001
734,5	-0,001
734,9	-0,001
735,4	-0,001
735,8	-0
736,3	-0
736,7	-0
737,1	-0
737,6	-0
738	-0
738,4	-0
738,9	-0
739,3	-0
739,7	-0
740,2	-0
740,6	-0
741,1	-0
741,5	-0
741,9	-0,001
742,4	-0,001
742,8	-0,001
743,2	-0,001
743,7	-0,001
744,1	-0,001
744,5	-0,001
745	-0,001
745,4	-0,001
745,8	-0,001
746,3	-0,001
746,7	-0,001
747,2	-0,001
747,6	-0,001
748	-0,001
748,5	-0,001
748,9	-0,001
749,3	-0,001
749,8	-0,001
750,2	-0,002
750,6	-0,002
751,1	-0,002
751,5	-0,002
751,9	-0,002
752,4	-0,001
752,8	-0,001
753,3	-0,001
753,7	-0,001
754,1	-0,001
754,6	-0,001
755	-0,001
755,4	-0,001
755,9	-0,001
756,3	-0,001
756,7	-0,001
757,2	-0,001
757,6	-0,001
758	-0,001
758,5	-0,002
758,9	-0,002
759,3	-0,002
759,8	-0,002
760,2	-0,002
760,6	-0,002
761,1	-0,002
761,5	-0,002
761,9	-0,002
762,4	-0,001
762,8	-0,001
763,3	-0,001
763,7	-0
764,1	-0
764,6	-0,001
765	-0,001
765,4	-0,001
765,9	-0,001
766,3	-0,001
766,7	-0,002
767,2	-0,002
767,6	-0,002
768	-0,002
768,5	-0,002
768,9	-0,002
769,3	-0,002
769,8	-0,002
770,2	-0,002
770,6	-0,002
771,1	-0,002
771,5	-0,002
771,9	-0,002
772,4	-0,002
772,8	-0,002
773,2	-0,002
773,7	-0,002
774,1	-0,002
774,5	-0,002
775	-0,001
775,4	-0,002
775,8	-0,002
776,3	-0,001
776,7	-0,001
777,1	-0,001
777,6	-0,001
778	-0,001
778,4	-0
778,9	-0
779,3	-0
779,7	-0
780,2	-0,001
780,6	-0,001
781	-0,001
781,5	-0,001
781,9	-0,001
782,3	-0,001
782,8	-0,001
783,2	-0,001
783,6	-0,001
784,1	-0,001
784,5	-0,001
784,9	-0,001
785,4	-0,001
785,8	-0,001
786,2	-0,001
786,7	-0
787,1	-0
787,5	-0
788	0
788,4	-0
788,8	-0
789,3	-0
789,7	-0,001
790,1	-0,001
790,6	-0,001
791	-0,001
791,4	-0,001
791,9	-0,001
792,3	-0,001
792,7	-0,001
793,2	-0,001
793,6	-0
794	-0
794,5	-0,001
794,9	-0
795,3	-0,001
795,8	-0,001
796,2	-0,001
796,6	-0
797,1	-0
797,5	-0
797,9	-0,001
798,4	-0,001
798,8	-0,001
799,2	-0,001
799,7	-0,001
800,1	-0
800,5	-0,001
801	-0
801,4	-0
801,8	-0
802,2	-0
802,7	-0
803,1	-0
803,5	-0
804	-0
804,4	-0
804,8	-0,001
805,3	-0,001
805,7	-0,001
806,1	-0,001
806,6	-0,001
807	-0,001
807,4	-0,001
807,9	-0,001
808,3	-0,001
808,7	-0,001
809,2	-0,001
809,6	-0,001
810	-0,001
810,4	-0,001
810,9	-0,001
811,3	-0,001
811,7	-0,001
812,2	-0
812,6	-0
813	-0
813,5	-0
813,9	-0
814,3	-0,001
814,8	-0
815,2	-0,001
815,6	-0,001
816,1	-0,001
816,5	-0,001
816,9	-0,001
817,3	-0,001
817,8	-0,002
818,2	-0,002
818,6	-0,001
819,1	-0,001
819,5	-0,002
819,9	-0,001
820,4	-0,001
820,8	-0,001
821,2	-0,001
821,7	-0,001
822,1	-0,001
822,5	-0,001
822,9	-0,001
823,4	-0,001
823,8	-0,001
824,2	-0,001
824,7	-0,001
825,1	-0
825,5	0
826	0
826,4	0,001
826,8	0,001
827,3	0,001
827,7	0,001
828,1	0,001
828,5	0
829	0
829,4	-0
829,8	-0,001
830,3	-0,001
830,7	-0,001
831,1	-0,002
831,6	-0,001
832	-0,001
832,4	-0,001
832,8	-0,001
833,3	-0,001
833,7	-0,001
834,1	-0,001
834,6	-0,001
835	-0,002
835,4	-0,001
835,8	-0,002
836,3	-0,002
836,7	-0,001
837,1	-0,001
837,6	-0,001
838	-0,001
838,4	-0,002
838,9	-0,002
839,3	-0,002
839,7	-0,002
840,1	-0,002
840,6	-0,001
841	-0,002
841,4	-0,001
841,9	-0,001
842,3	-0,001
842,7	-0,001
843,1	-0,002
843,6	-0,002
844	-0,002
844,4	-0,002
844,9	-0,002
845,3	-0,001
845,7	-0,001
846,2	-0,001
846,6	-0,001
847	-0,001
847,4	-0,001
847,9	-0,001
848,3	-0,001
848,7	-0,001
849,2	-0,001
849,6	-0
850	-0
850,4	-0
850,9	0
851,3	0
851,7	-0
852,2	-0
852,6	-0,001
853	-0,001
853,4	-0,001
853,9	-0,001
854,3	-0
854,7	-0
855,2	-0
855,6	-0
856	-0
856,4	-0
856,9	-0
857,3	-0
857,7	-0,001
858,2	-0,001
858,6	-0,001
859	-0,001
859,4	-0,001
859,9	-0,001
860,3	-0,001
860,7	-0,001
861,1	-0,001
861,6	-0
862	-0
862,4	-0,001
862,9	-0,001
863,3	-0,001
863,7	-0,001
864,1	-0,001
864,6	-0,001
865	-0,001
865,4	-0,001
865,9	-0,001
866,3	-0,001
866,7	-0,001
867,1	-0,001
867,6	-0,002
868	-0,002
868,4	-0,002
868,8	-0,002
869,3	-0,002
869,7	-0,002
870,1	-0,002
870,6	-0,002
871	-0,002
871,4	-0,002
871,8	-0,001
872,3	-0,001
872,7	-0,001
873,1	-0,001
873,5	-0
874	-0
874,4	-0,001
874,8	-0,001
875,3	-0,001
875,7	-0,001
876,1	-0,001
876,5	-0,001
877	-0,001
877,4	-0,001
877,8	-0,001
878,2	-0,002
878,7	-0,002
879,1	-0,002
879,5	-0,002
879,9	-0,002
880,4	-0,002
880,8	-0,002
881,2	-0,001
881,7	-0,002
882,1	-0,001
882,5	-0,001
882,9	-0,001
883,4	-0,001
883,8	-0,001
884,2	-0,001
884,6	-0,001
885,1	-0,001
885,5	-0,001
885,9	-0,001
886,3	-0,001
886,8	-0,002
887,2	-0,002
887,6	-0,002
888	-0,001
888,5	-0,001
888,9	-0,001
889,3	-0,001
889,8	-0,001
890,2	-0,001
890,6	-0,001
891	-0,001
891,5	-0,001
891,9	-0,002
892,3	-0,002
892,7	-0,002
893,2	-0,001
893,6	-0,002
894	-0,002
894,4	-0,002
894,9	-0,002
895,3	-0,002
895,7	-0,002
896,1	-0,002
896,6	-0,002
897	-0,002
897,4	-0,002
897,8	-0,002
898,3	-0,002
898,7	-0,002
899,1	-0,002
899,5	-0,002
900	-0,001
900,4	-0,002
900,8	-0,002
901,2	-0,002
901,7	-0,002
902,1	-0,002
902,5	-0,002
902,9	-0,002
903,4	-0,002
903,8	-0,001
904,2	-0,001
904,6	-0,001
905,1	-0,001
905,5	-0,001
905,9	-0,001
906,3	-0,001
906,8	-0,002
907,2	-0,002
907,6	-0,002
908	-0,002
908,5	-0,002
908,9	-0,002
909,3	-0,002
909,7	-0,002
910,2	-0,002
910,6	-0,002
911	-0,001
911,4	-0,001
911,9	-0,001
912,3	-0,001
912,7	-0,001
913,1	-0,001
913,6	-0,001
914	-0,001
914,4	-0,001
914,8	-0,001
915,3	-0,001
915,7	-0,001
916,1	-0,001
916,5	-0,001
916,9	-0,001
917,4	-0,002
917,8	-0,001
918,2	-0,002
918,6	-0,002
919,1	-0,001
919,5	-0,002
919,9	-0,001
920,3	-0,001
920,8	-0,002
921,2	-0,001
921,6	-0,001
922	-0,001
922,5	-0,001
922,9	-0,002
923,3	-0,002
923,7	-0,002
924,2	-0,002
924,6	-0,002
925	-0,002
925,4	-0,002
925,8	-0,002
926,3	-0,002
926,7	-0,002
927,1	-0,002
927,5	-0,002
928	-0,002
928,4	-0,001
928,8	-0,001
929,2	-0,001
929,7	-0,001
930,1	-0,001
930,5	-0,001
930,9	-0,001
931,3	-0,002
931,8	-0,002
932,2	-0,002
932,6	-0,002
933	-0,002
933,5	-0,002
933,9	-0,002
934,3	-0,002
934,7	-0,002
935,2	-0,002
935,6	-0,002
936	-0,002
936,4	-0,002
936,8	-0,003
937,3	-0,003
937,7	-0,002
938,1	-0,002
938,5	-0,002
939	-0,002
939,4	-0,002
939,8	-0,001
940,2	-0,001
940,6	-0,001
941,1	-0,001
941,5	-0,002
941,9	-0,002
942,3	-0,002
942,8	-0,001
943,2	-0,002
943,6	-0,002
944	-0,002
944,4	-0,002
944,9	-0,002
945,3	-0,002
945,7	-0,002
946,1	-0,002
946,6	-0,003
947	-0,003
947,4	-0,002
947,8	-0,003
948,2	-0,003
948,7	-0,003
949,1	-0,003
949,5	-0,003
949,9	-0,002
950,3	-0,002
950,8	-0,002
951,2	-0,002
951,6	-0,002
952	-0,001
952,5	-0,001
952,9	-0,002
953,3	-0,002
953,7	-0,001
954,1	-0,002
954,6	-0,001
955	-0,002
955,4	-0,002
955,8	-0,001
956,2	-0,001
956,7	-0
957,1	0
957,5	0
957,9	0
958,3	0,001
958,8	0,001
959,2	0,001
959,6	0
960	-0
960,5	-0,001
960,9	-0,001
961,3	-0,001
961,7	-0,001
962,1	-0,001
962,6	-0,001
963	-0
963,4	-0
963,8	-0
964,2	-0
964,7	-0
965,1	-0,001
965,5	-0,001
965,9	-0,001
966,3	-0,001
966,8	-0
967,2	-0
967,6	-0,001
968	-0,001
968,4	0
968,9	0,001
969,3	0,001
969,7	0,001
970,1	0,001
970,5	0,001
971	0,001
971,4	0,001
971,8	-0
972,2	-0
972,6	-0,001
973,1	-0,001
973,5	-0,001
973,9	-0,001
974,3	-0,001
974,7	-0,001
975,2	-0,001
975,6	-0
976	-0,001
976,4	-0,001
976,8	-0,001
977,3	-0,002
977,7	-0,002
978,1	-0,002
978,5	-0,002
978,9	-0,001
979,4	-0,001
979,8	-0
980,2	-0
980,6	0
981	-0
981,5	-0,001
981,9	-0,001
982,3	-0
982,7	-0
983,1	-0
983,6	-0,001
984	-0,001
984,4	-0
984,8	-0,001
985,2	-0
985,6	-0,001
986,1	-0
986,5	0,001
986,9	0,001
987,3	0,001
987,7	0,002
988,2	0,002
988,6	0,001
989	0,002
989,4	0,002
989,8	0,001
990,3	0,001
990,7	0,001
991,1	0,001
991,5	0,002
991,9	0,002
992,3	0,001
992,8	0,001
993,2	0
993,6	0
994	-0
994,4	-0
994,9	-0,001
995,3	-0,001
995,7	-0
996,1	0,001
996,5	0,001
996,9	0,001
997,4	-0
997,8	-0
998,2	-0,001
998,6	-0,001
999	-0,002
999,5	-0,002
999,9	-0,002
1000,3	-0,002
1000,7	-0,002
1001,1	-0,001
1001,5	-0,002
1002	-0,001
1002,4	-0,002
1002,8	-0,001
1003,2	-0,002
1003,6	-0,002
1004	-0,003
1004,5	-0,002
1004,9	-0,002
1005,3	-0,002
1005,7	-0,003
1006,1	-0,002
1006,6	-0,002
1007	-0,002
1007,4	-0,002
1007,8	-0,003
1008,2	-0,002
1008,6	-0,002
1009,1	-0,003
1009,5	-0,002
1009,9	-0,002
1010,3	-0,002
1010,7	-0,001
1011,1	-0,002
1011,6	-0,002
1012	-0,001
1012,4	-0,002
1012,8	-0,002
1013,2	-0,002
1013,6	-0,002
1014,1	-0,002
1014,5	-0,002
1014,9	-0,002
1015,3	-0,002
1015,7	-0,002
1016,1	-0,001
1016,6	-0,001
1017	-0,001
1017,4	-0,001
1017,8	-0,001
1018,2	-0,001
1018,6	-0,001
1019,1	-0,002
1019,5	-0,003
1019,9	-0,003
1020,3	-0,002
1020,7	-0,002
1021,1	-0,002
1021,6	-0,003
1022	-0,003
1022,4	-0,002
1022,8	-0,002
1023,2	-0,003
1023,6	-0,004
1024,1	-0,003
1024,5	-0,003
1024,9	-0,003
1025,3	-0,003
1025,7	-0,003
1026,1	-0,003
1026,6	-0,003
1027	-0,003
1027,4	-0,003
1027,8	-0,004
1028,2	-0,003
1028,6	-0,003
1029	-0,002
1029,5	-0,002
1029,9	-0,002
1030,3	-0,002
1030,7	-0,002
1031,1	-0,002
1031,5	-0,002
1032	-0,002
1032,4	-0,002
1032,8	-0,002
1033,2	-0,001
1033,6	-0,001
1034	-0
1034,4	-0,001
1034,9	-0,001
1035,3	-0,001
1035,7	-0,002
1036,1	-0,002
1036,5	-0,002
1036,9	-0,003
1037,4	-0,002
1037,8	-0,002
1038,2	-0,002
1038,6	-0,001
1039	-0,001
1039,4	-0,001
1039,8	-0
1040,3	-0,001
1040,7	-0,001
1041,1	-0,001
1041,5	-0,001
1041,9	-0,001
1042,3	-0,003
1042,7	-0,003
1043,2	-0,003
1043,6	-0,003
1044	-0,002
1044,4	-0,002
1044,8	-0,001
1045,2	-0
1045,6	0
1046,1	0
1046,5	0
1046,9	-0
1047,3	-0,001
1047,7	-0,001
1048,1	-0
1048,5	-0,001
1049	-0,001
1049,4	-0,001
1049,8	-0
1050,2	0
1050,6	0,001
1051	0,001
1051,4	0,001
1051,9	0,001
1052,3	-0
1052,7	-0,001
1053,1	-0,002
1053,5	-0,003
1053,9	-0,003
1054,3	-0,002
1054,8	-0,002
1055,2	-0,002
1055,6	-0,002
1056	-0,001
1056,4	-0
1056,8	-0
1057,2	-0
1057,6	-0,001
1058,1	-0
1058,5	-0,001
1058,9	-0
1059,3	-0,001
1059,7	-0,001
1060,1	-0,002
1060,5	-0,002
1061	-0,002
1061,4	-0,002
1061,8	-0,002
1062,2	-0,002
1062,6	-0,001
1063	-0,001
1063,4	-0
1063,8	-0
1064,3	0,001
1064,7	0,001
1065,1	0,002
1065,5	0,001
1065,9	-0
1066,3	-0
1066,7	-0
1067,1	-0,002
1067,6	-0,001
1068	-0,001
1068,4	-0
1068,8	-0
1069,2	-0
1069,6	-0
1070	0
1070,4	-0
1070,9	-0,001
1071,3	-0,003
1071,7	-0,002
1072,1	-0,001
1072,5	-0,001
1072,9	-0,001
1073,3	-0
1073,7	-0,001
1074,2	0
1074,6	0
1075	-0,001
1075,4	-0,001
1075,8	-0,002
1076,2	-0,002
1076,6	-0,001
1077	-0,001
1077,5	-0,003
1077,9	-0,003
1078,3	-0,003
1078,7	-0,004
1079,1	-0,004
1079,5	-0,004
1079,9	-0,005
1080,3	-0,004
1080,7	-0,004
1081,2	-0,004
1081,6	-0,004
1082	-0,003
1082,4	-0,003
1082,8	-0,003
1083,2	-0,001
1083,6	-0,003
1084	-0,003
1084,5	-0,003
1084,9	-0,005
1085,3	-0,005
1085,7	-0,004
1086,1	-0,006
1086,5	-0,006
1086,9	-0,006
1087,3	-0,004
1087,7	-0,004
1088,2	-0,003
1088,6	-0,005
1089	-0,004
1089,4	-0,001
1089,8	-0,002
1090,2	-0,002
1090,6	-0,003
1091	-0,003
1091,4	-0,001
1091,9	-0,002
1092,3	-0,004
1092,7	-0
1093,1	-0,001
1093,5	0,001
1093,9	0,005
1094,3	0,01
1094,7	0,008
1095,1	0,007
1095,5	0,005
1096	0,002
1096,4	-0,002
1096,8	-0,006
1097,2	-0,012
1097,6	-0,008
1098	-0,009
1098,4	-0,01
1098,8	-0,01
1099,2	-0,007
1099,6	-0,001
1100,1	-0,001
1100,5	-0,003
1100,9	-0,006
1101,3	-0,007
1101,7	-0,009
1102,1	-0,01
1102,5	-0,025
1102,9	-0,023
1103,3	-0,022
1103,7	-0,003
1104,2	-0,005
1104,6	0
1105	0,008
1105,4	0,016
1105,8	0,013
1106,2	0,012
1106,6	-0,003
1107	0,002
1107,4	-0,001
1107,8	-0,032
1108,3	-0
