Data from Absorbance_00010.txt Node
Date: Thu Aug 10 15:43:45 MSK 2023
User: vat
Spectrometer: MAYP114033
Trigger mode: 0
Integration Time (sec): 8,000000E-3
Scans to average: 10
Electric dark correction enabled: true
Nonlinearity correction enabled: false
Boxcar width: 3
XAxis mode: Wavelengths
Number of Pixels in Spectrum: 2068
>>>>>Begin Spectral Data<<<<<
199,4	-0
199,9	0,38
200,4	0,51
200,8	0,793
201,3	0,88
201,8	0,931
202,2	0,939
202,7	0,974
203,2	1,02
203,6	1,063
204,1	1,084
204,6	1,084
205	1,122
205,5	1,171
206	1,177
206,4	1,203
206,9	1,204
207,4	1,217
207,8	1,249
208,3	1,241
208,8	1,249
209,2	1,26
209,7	1,243
210,2	1,282
210,6	1,294
211,1	1,312
211,5	1,322
212	1,335
212,5	1,354
212,9	1,373
213,4	1,376
213,9	1,386
214,3	1,389
214,8	1,434
215,3	1,436
215,7	1,449
216,2	1,484
216,7	1,501
217,1	1,529
217,6	1,558
218,1	1,55
218,5	1,569
219	1,575
219,5	1,595
219,9	1,583
220,4	1,583
220,9	1,596
221,3	1,618
221,8	1,618
222,3	1,657
222,7	1,659
223,2	1,693
223,6	1,724
224,1	1,728
224,6	1,745
225	1,788
225,5	1,792
226	1,81
226,4	1,824
226,9	1,823
227,4	1,863
227,8	1,844
228,3	1,849
228,8	1,86
229,2	1,864
229,7	1,887
230,2	1,912
230,6	1,901
231,1	1,934
231,5	1,953
232	1,974
232,5	1,989
232,9	1,968
233,4	2,008
233,9	2,023
234,3	2,031
234,8	2,033
235,3	2,02
235,7	2,017
236,2	2,032
236,7	2,015
237,1	2,013
237,6	2,025
238,1	2,026
238,5	2,058
239	2,087
239,4	2,125
239,9	2,128
240,4	2,152
240,8	2,149
241,3	2,142
241,8	2,134
242,2	2,141
242,7	2,129
243,2	2,142
243,6	2,154
244,1	2,175
244,6	2,198
245	2,209
245,5	2,194
245,9	2,178
246,4	2,171
246,9	2,145
247,3	2,142
247,8	2,134
248,3	2,118
248,7	2,107
249,2	2,135
249,7	2,128
250,1	2,131
250,6	2,116
251	2,13
251,5	2,153
252	2,168
252,4	2,155
252,9	2,159
253,4	2,175
253,8	2,21
254,3	2,185
254,8	2,167
255,2	2,178
255,7	2,188
256,1	2,177
256,6	2,181
257,1	2,16
257,5	2,178
258	2,191
258,5	2,187
258,9	2,198
259,4	2,24
259,9	2,255
260,3	2,252
260,8	2,262
261,2	2,253
261,7	2,238
262,2	2,215
262,6	2,187
263,1	2,17
263,6	2,181
264	2,166
264,5	2,165
264,9	2,199
265,4	2,219
265,9	2,22
266,3	2,221
266,8	2,232
267,3	2,238
267,7	2,249
268,2	2,223
268,7	2,209
269,1	2,235
269,6	2,237
270	2,235
270,5	2,234
271	2,236
271,4	2,236
271,9	2,245
272,4	2,226
272,8	2,234
273,3	2,227
273,7	2,232
274,2	2,236
274,7	2,253
275,1	2,232
275,6	2,235
276,1	2,232
276,5	2,237
277	2,262
277,4	2,259
277,9	2,255
278,4	2,27
278,8	2,281
279,3	2,269
279,8	2,258
280,2	2,252
280,7	2,252
281,1	2,245
281,6	2,252
282,1	2,239
282,5	2,251
283	2,262
283,4	2,253
283,9	2,249
284,4	2,254
284,8	2,245
285,3	2,251
285,8	2,261
286,2	2,259
286,7	2,264
287,1	2,271
287,6	2,27
288,1	2,269
288,5	2,273
289	2,249
289,5	2,218
289,9	2,192
290,4	2,166
290,8	2,131
291,3	2,095
291,8	2,029
292,2	1,986
292,7	1,938
293,1	1,882
293,6	1,825
294,1	1,778
294,5	1,731
295	1,69
295,5	1,646
295,9	1,609
296,4	1,576
296,8	1,549
297,3	1,521
297,8	1,496
298,2	1,474
298,7	1,455
299,1	1,438
299,6	1,424
300,1	1,406
300,5	1,391
301	1,381
301,5	1,37
301,9	1,36
302,4	1,352
302,8	1,34
303,3	1,33
303,8	1,324
304,2	1,312
304,7	1,302
305,1	1,294
305,6	1,283
306,1	1,275
306,5	1,268
307	1,257
307,4	1,248
307,9	1,239
308,4	1,23
308,8	1,221
309,3	1,212
309,8	1,202
310,2	1,194
310,7	1,188
311,1	1,178
311,6	1,17
312,1	1,161
312,5	1,153
313	1,145
313,4	1,136
313,9	1,126
314,4	1,119
314,8	1,107
315,3	1,098
315,7	1,087
316,2	1,076
316,7	1,066
317,1	1,056
317,6	1,046
318	1,037
318,5	1,027
319	1,016
319,4	1,006
319,9	0,996
320,3	0,986
320,8	0,976
321,3	0,966
321,7	0,955
322,2	0,947
322,6	0,937
323,1	0,927
323,6	0,917
324	0,907
324,5	0,898
324,9	0,889
325,4	0,88
325,9	0,869
326,3	0,86
326,8	0,851
327,2	0,84
327,7	0,831
328,2	0,821
328,6	0,81
329,1	0,801
329,5	0,79
330	0,78
330,5	0,77
330,9	0,761
331,4	0,75
331,8	0,741
332,3	0,73
332,8	0,722
333,2	0,711
333,7	0,702
334,1	0,692
334,6	0,683
335,1	0,673
335,5	0,664
336	0,653
336,4	0,644
336,9	0,635
337,4	0,625
337,8	0,615
338,3	0,606
338,7	0,597
339,2	0,587
339,7	0,578
340,1	0,569
340,6	0,56
341	0,551
341,5	0,542
342	0,533
342,4	0,525
342,9	0,515
343,3	0,506
343,8	0,498
344,2	0,489
344,7	0,481
345,2	0,473
345,6	0,464
346,1	0,456
346,5	0,447
347	0,439
347,5	0,432
347,9	0,424
348,4	0,417
348,8	0,409
349,3	0,402
349,8	0,395
350,2	0,388
350,7	0,379
351,1	0,373
351,6	0,366
352	0,36
352,5	0,352
353	0,346
353,4	0,34
353,9	0,334
354,3	0,328
354,8	0,322
355,3	0,316
355,7	0,311
356,2	0,304
356,6	0,298
357,1	0,291
357,5	0,286
358	0,281
358,5	0,276
358,9	0,27
359,4	0,265
359,8	0,261
360,3	0,256
360,8	0,251
361,2	0,245
361,7	0,24
362,1	0,235
362,6	0,231
363	0,226
363,5	0,222
364	0,218
364,4	0,214
364,9	0,21
365,3	0,206
365,8	0,201
366,3	0,198
366,7	0,194
367,2	0,19
367,6	0,187
368,1	0,184
368,5	0,18
369	0,177
369,5	0,174
369,9	0,171
370,4	0,167
370,8	0,164
371,3	0,161
371,7	0,158
372,2	0,155
372,7	0,153
373,1	0,149
373,6	0,147
374	0,144
374,5	0,141
374,9	0,139
375,4	0,136
375,9	0,133
376,3	0,13
376,8	0,128
377,2	0,126
377,7	0,124
378,2	0,122
378,6	0,12
379,1	0,118
379,5	0,116
380	0,114
380,4	0,113
380,9	0,11
381,4	0,108
381,8	0,106
382,3	0,105
382,7	0,103
383,2	0,102
383,6	0,1
384,1	0,099
384,6	0,097
385	0,096
385,5	0,094
385,9	0,092
386,4	0,09
386,8	0,088
387,3	0,087
387,7	0,086
388,2	0,084
388,7	0,083
389,1	0,082
389,6	0,08
390	0,08
390,5	0,079
390,9	0,077
391,4	0,075
391,9	0,074
392,3	0,073
392,8	0,072
393,2	0,07
393,7	0,068
394,1	0,067
394,6	0,066
395,1	0,065
395,5	0,063
396	0,063
396,4	0,062
396,9	0,061
397,3	0,06
397,8	0,059
398,2	0,058
398,7	0,057
399,2	0,056
399,6	0,055
400,1	0,054
400,5	0,053
401	0,052
401,4	0,051
401,9	0,05
402,4	0,048
402,8	0,048
403,3	0,047
403,7	0,046
404,2	0,045
404,6	0,045
405,1	0,045
405,5	0,044
406	0,043
406,5	0,043
406,9	0,042
407,4	0,041
407,8	0,04
408,3	0,039
408,7	0,039
409,2	0,038
409,6	0,038
410,1	0,038
410,6	0,038
411	0,037
411,5	0,036
411,9	0,035
412,4	0,034
412,8	0,033
413,3	0,032
413,7	0,031
414,2	0,031
414,7	0,031
415,1	0,03
415,6	0,03
416	0,029
416,5	0,029
416,9	0,028
417,4	0,028
417,8	0,027
418,3	0,027
418,8	0,027
419,2	0,026
419,7	0,025
420,1	0,024
420,6	0,023
421	0,022
421,5	0,021
421,9	0,02
422,4	0,02
422,8	0,019
423,3	0,019
423,8	0,019
424,2	0,019
424,7	0,018
425,1	0,018
425,6	0,017
426	0,017
426,5	0,016
426,9	0,015
427,4	0,015
427,9	0,015
428,3	0,014
428,8	0,014
429,2	0,014
429,7	0,014
430,1	0,014
430,6	0,014
431	0,013
431,5	0,013
431,9	0,013
432,4	0,012
432,8	0,011
433,3	0,01
433,8	0,01
434,2	0,009
434,7	0,008
435,1	0,007
435,6	0,008
436	0,007
436,5	0,008
436,9	0,007
437,4	0,007
437,8	0,008
438,3	0,007
438,8	0,007
439,2	0,007
439,7	0,006
440,1	0,005
440,6	0,005
441	0,005
441,5	0,005
441,9	0,004
442,4	0,003
442,8	0,004
443,3	0,004
443,7	0,004
444,2	0,004
444,7	0,004
445,1	0,005
445,6	0,005
446	0,004
446,5	0,004
446,9	0,004
447,4	0,004
447,8	0,003
448,3	0,002
448,7	0,002
449,2	0,001
449,6	0,001
450,1	0,001
450,6	0,001
451	0,001
451,5	0,001
451,9	0,002
452,4	0,002
452,8	0,002
453,3	0,002
453,7	0,002
454,2	0,002
454,6	0,002
455,1	0,001
455,5	0,001
456	0
456,4	0
456,9	0
457,3	0,001
457,8	0
458,3	0
458,7	0,001
459,2	0
459,6	-0
460,1	0
460,5	0
461	-0
461,4	-0
461,9	-0
462,3	-0
462,8	-0,001
463,2	-0,001
463,7	-0
464,1	-0,001
464,6	-0,001
465	-0
465,5	0
466	0
466,4	0
466,9	-0
467,3	0,001
467,8	0
468,2	-0,001
468,7	-0,001
469,1	-0,001
469,6	-0,001
470	-0,001
470,5	-0,002
470,9	-0,002
471,4	-0,002
471,8	-0,003
472,3	-0,003
472,7	-0,003
473,2	-0,003
473,6	-0,003
474,1	-0,003
474,5	-0,003
475	-0,002
475,4	-0,003
475,9	-0,002
476,4	-0,002
476,8	-0,002
477,3	-0,002
477,7	-0,002
478,2	-0,002
478,6	-0,002
479,1	-0,002
479,5	-0,002
480	-0,002
480,4	-0,002
480,9	-0,002
481,3	-0,002
481,8	-0,001
482,2	-0,001
482,7	-0,001
483,1	-0
483,6	-0
484	-0
484,5	-0,001
484,9	-0,002
485,4	-0,001
485,8	-0,001
486,3	-0,003
486,7	-0,002
487,2	-0,002
487,6	-0,002
488,1	-0,001
488,5	-0,002
489	-0,002
489,4	0
489,9	-0
490,4	-0
490,8	-0,001
491,3	-0
491,7	-0
492,2	-0
492,6	-0
493,1	-0
493,5	-0
494	-0,001
494,4	-0,001
494,9	-0,001
495,3	-0,002
495,8	-0,002
496,2	-0,002
496,7	-0,002
497,1	-0,003
497,6	-0,002
498	-0,002
498,5	-0,002
498,9	-0,002
499,4	-0,002
499,8	-0,002
500,3	-0,001
500,7	-0,002
501,2	-0,003
501,6	-0,002
502,1	-0,002
502,5	-0,002
503	-0,002
503,4	-0,002
503,9	-0,001
504,3	-0,001
504,8	-0,002
505,2	-0,002
505,7	-0,002
506,1	-0,002
506,6	-0,002
507	-0,002
507,5	-0,001
507,9	-0,001
508,4	-0,001
508,8	-0,001
509,3	-0,002
509,7	-0,001
510,2	-0,001
510,6	-0,001
511,1	-0,002
511,5	-0,002
512	-0,001
512,4	-0
512,9	-0,001
513,3	-0,001
513,8	-0,001
514,2	-0,001
514,7	-0,001
515,1	-0,001
515,6	-0,001
516	-0,001
516,5	-0,001
516,9	-0,001
517,4	-0,001
517,8	-0
518,3	-0,001
518,7	-0,001
519,2	-0,001
519,6	-0,001
520,1	-0,002
520,5	-0,002
521	-0,002
521,4	-0,002
521,9	-0,002
522,3	-0,001
522,8	-0,001
523,2	-0,001
523,7	-0,001
524,1	-0,001
524,6	-0,001
525	-0,001
525,5	-0,002
525,9	-0,002
526,4	-0,002
526,8	-0,002
527,3	-0,002
527,7	-0,002
528,2	-0,002
528,6	-0,001
529,1	-0,001
529,5	-0,001
530	-0
530,4	-0,001
530,9	-0
531,3	-0
531,8	-0
532,2	-0,001
532,6	-0
533,1	-0,001
533,5	-0,001
534	-0,001
534,4	-0,001
534,9	-0,001
535,3	-0,001
535,8	-0,001
536,2	-0,001
536,7	-0,001
537,1	-0
537,6	-0,001
538	-0,001
538,5	-0,001
538,9	-0,001
539,4	-0,001
539,8	-0,001
540,3	-0,001
540,7	-0,001
541,2	-0,002
541,6	-0,001
542,1	-0,002
542,5	-0,002
543	-0,002
543,4	-0,003
543,9	-0,003
544,3	-0,002
544,8	-0,002
545,2	-0,001
545,7	-0,001
546,1	-0
546,5	0
547	0,001
547,4	0
547,9	-0
548,3	-0,001
548,8	-0,001
549,2	-0,001
549,7	-0,001
550,1	-0,001
550,6	-0,001
551	-0,001
551,5	-0,001
551,9	-0,001
552,4	-0
552,8	-0,001
553,3	-0
553,7	-0,001
554,2	-0
554,6	-0
555,1	0
555,5	-0
555,9	-0
556,4	-0
556,8	-0
557,3	-0,001
557,7	-0
558,2	-0,001
558,6	-0,001
559,1	-0,001
559,5	-0,001
560	-0,001
560,4	-0,001
560,9	-0,002
561,3	-0,001
561,8	-0,001
562,2	-0,001
562,7	-0,002
563,1	-0,002
563,6	-0,002
564	-0,002
564,4	-0,001
564,9	-0,001
565,3	-0,001
565,8	-0,001
566,2	-0,001
566,7	-0,001
567,1	-0
567,6	-0,001
568	-0,001
568,5	-0,001
568,9	-0,002
569,4	-0,002
569,8	-0,002
570,3	-0,002
570,7	-0,002
571,1	-0,002
571,6	-0,002
572	-0,002
572,5	-0,001
572,9	-0,001
573,4	-0,001
573,8	-0,001
574,3	-0,001
574,7	-0,001
575,2	-0,001
575,6	-0,001
576,1	-0,001
576,5	-0,001
576,9	-0,001
577,4	-0,001
577,8	-0,001
578,3	-0,001
578,7	-0,002
579,2	-0,002
579,6	-0,002
580,1	-0,002
580,5	-0,002
581	-0,001
581,4	-0,002
581,9	-0,002
582,3	-0,002
582,7	-0,002
583,2	-0,001
583,6	-0
584,1	-0,001
584,5	0
585	0
585,4	0
585,9	-0
586,3	-0
586,8	-0
587,2	-0
587,6	-0,001
588,1	-0
588,5	-0
589	-0
589,4	0
589,9	-0
590,3	0
590,8	0
591,2	0,001
591,7	0,001
592,1	0
592,5	-0
593	-0,001
593,4	-0,001
593,9	-0,001
594,3	-0,001
594,8	-0,001
595,2	-0,001
595,7	-0,001
596,1	-0
596,6	-0
597	0
597,4	-0
597,9	-0
598,3	0
598,8	-0
599,2	-0
599,7	-0
600,1	-0,001
600,6	-0
601	-0,001
601,4	-0,001
601,9	-0,001
602,3	0
602,8	-0
603,2	-0
603,7	-0
604,1	-0
604,6	0
605	0
605,4	-0
605,9	0
606,3	0
606,8	0
607,2	0,001
607,7	0
608,1	0
608,6	0
609	0
609,4	0
609,9	-0
610,3	-0
610,8	-0,001
611,2	-0,001
611,7	-0,001
612,1	-0,001
612,6	-0,001
613	-0,001
613,4	-0,001
613,9	-0,001
614,3	-0,001
614,8	-0
615,2	0
615,7	-0
616,1	0
616,6	0
617	0,001
617,4	0,001
617,9	0
618,3	0
618,8	0,001
619,2	0,001
619,7	0
620,1	0
620,5	0
621	0,001
621,4	0
621,9	0,001
622,3	0
622,8	-0
623,2	-0
623,6	-0
624,1	-0
624,5	-0,001
625	-0,001
625,4	-0,001
625,9	-0,001
626,3	-0,001
626,8	-0,001
627,2	-0,001
627,6	-0
628,1	-0,001
628,5	-0,001
629	-0
629,4	-0
629,9	-0,001
630,3	-0,001
630,7	-0
631,2	-0
631,6	-0
632,1	-0,001
632,5	-0
633	-0
633,4	-0
633,8	-0
634,3	-0,001
634,7	-0
635,2	-0,001
635,6	-0,001
636,1	-0,001
636,5	-0,001
636,9	-0,001
637,4	-0,001
637,8	-0,001
638,3	-0
638,7	-0
639,2	-0
639,6	-0
640	-0,001
640,5	-0
640,9	-0
641,4	-0
641,8	-0
642,2	-0
642,7	-0
643,1	-0
643,6	-0
644	0
644,5	-0
644,9	0
645,3	0
645,8	0
646,2	0
646,7	0
647,1	0
647,6	-0
648	-0,001
648,4	-0,002
648,9	-0,002
649,3	-0,002
649,8	-0,001
650,2	-0,001
650,6	-0,001
651,1	-0,001
651,5	-0
652	-0,001
652,4	-0,001
652,9	-0,001
653,3	-0,001
653,7	-0,002
654,2	-0,001
654,6	-0,001
655,1	-0
655,5	-0
655,9	0
656,4	0
656,8	0,003
657,3	0,004
657,7	0,004
658,2	0,005
658,6	0,006
659	0,008
659,5	0,013
659,9	0,008
660,4	0,005
660,8	0,004
661,2	0,003
661,7	0,002
662,1	0,001
662,6	0,001
663	0,001
663,4	0
663,9	0
664,3	0
664,8	-0
665,2	0
665,6	0
666,1	0
666,5	-0
667	-0
667,4	-0
667,9	-0
668,3	-0
668,7	-0,001
669,2	-0,001
669,6	-0,001
670,1	-0,001
670,5	-0,001
670,9	-0,001
671,4	-0,001
671,8	-0,001
672,3	-0
672,7	-0,001
673,1	-0,001
673,6	-0,001
674	-0,001
674,5	-0,001
674,9	-0
675,3	-0
675,8	-0,001
676,2	-0,001
676,7	-0,001
677,1	-0,001
677,5	-0,001
678	-0,001
678,4	-0,001
678,9	-0,001
679,3	-0
679,7	-0,001
680,2	-0
680,6	-0
681,1	0
681,5	0
681,9	0
682,4	0
682,8	0,001
683,3	0
683,7	-0
684,1	-0
684,6	-0
685	-0,001
685,5	-0,001
685,9	-0,001
686,3	-0,001
686,8	-0
687,2	-0
687,7	-0
688,1	-0
688,5	0
689	-0
689,4	-0
689,9	-0
690,3	-0
690,7	-0
691,2	-0
691,6	-0
692	-0
692,5	0
692,9	-0
693,4	-0
693,8	-0
694,2	-0
694,7	-0
695,1	-0
695,6	-0
696	-0
696,4	-0
696,9	-0
697,3	-0
697,8	-0
698,2	0
698,6	-0
699,1	-0
699,5	-0,001
699,9	-0
700,4	-0
700,8	-0
701,3	-0
701,7	0
702,1	0
702,6	-0
703	-0
703,5	-0
703,9	-0
704,3	-0
704,8	-0
705,2	-0
705,6	0
706,1	0
706,5	0
707	0
707,4	-0
707,8	-0,001
708,3	-0,001
708,7	-0,001
709,2	-0,001
709,6	-0,001
710	-0,001
710,5	-0,001
710,9	-0
711,3	-0,001
711,8	-0,001
712,2	-0,001
712,7	-0,001
713,1	-0,001
713,5	-0
714	-0,001
714,4	-0
714,8	-0
715,3	-0
715,7	-0,001
716,2	-0,001
716,6	-0
717	-0
717,5	-0
717,9	-0
718,3	-0
718,8	0
719,2	0
719,7	0
720,1	0,001
720,5	0
721	0
721,4	0
721,8	-0
722,3	-0
722,7	-0,001
723,2	-0,001
723,6	-0,001
724	-0,001
724,5	-0,001
724,9	-0,002
725,3	-0,002
725,8	-0,002
726,2	-0,001
726,7	-0,001
727,1	-0,001
727,5	-0,002
728	-0,001
728,4	-0,001
728,8	-0,001
729,3	-0,001
729,7	-0,001
730,1	-0
730,6	-0
731	-0
731,5	-0
731,9	-0,001
732,3	-0,001
732,8	-0,001
733,2	-0,001
733,6	-0,001
734,1	-0,001
734,5	-0,001
734,9	-0,001
735,4	-0
735,8	-0
736,3	-0
736,7	-0
737,1	-0
737,6	-0
738	-0,001
738,4	-0,001
738,9	-0,001
739,3	-0,001
739,7	-0,001
740,2	-0
740,6	-0,001
741,1	-0
741,5	-0,001
741,9	-0
742,4	-0,001
742,8	-0,001
743,2	-0,001
743,7	-0
744,1	-0
744,5	-0
745	-0
745,4	-0
745,8	0
746,3	-0
746,7	-0
747,2	-0
747,6	-0
748	-0
748,5	-0,001
748,9	-0,001
749,3	-0,001
749,8	-0,001
750,2	-0,001
750,6	-0,001
751,1	-0,002
751,5	-0,001
751,9	-0,002
752,4	-0,001
752,8	-0,002
753,3	-0,001
753,7	-0,001
754,1	-0,001
754,6	-0,001
755	-0,001
755,4	-0,001
755,9	-0,001
756,3	-0
756,7	-0,001
757,2	-0,001
757,6	-0
758	-0
758,5	-0,001
758,9	-0,001
759,3	-0,001
759,8	-0,001
760,2	-0,001
760,6	-0,001
761,1	-0,001
761,5	-0,001
761,9	-0,001
762,4	-0,001
762,8	-0,001
763,3	-0,001
763,7	-0,001
764,1	-0,001
764,6	-0,001
765	-0,002
765,4	-0,001
765,9	-0,001
766,3	-0,001
766,7	-0,001
767,2	-0,001
767,6	-0,001
768	-0,001
768,5	-0,001
768,9	-0,001
769,3	-0,001
769,8	-0,001
770,2	-0,001
770,6	-0,001
771,1	-0,001
771,5	-0,001
771,9	-0,002
772,4	-0,002
772,8	-0,001
773,2	-0,001
773,7	-0,001
774,1	-0,001
774,5	-0
775	0
775,4	-0
775,8	0
776,3	0
776,7	0,001
777,1	0,001
777,6	0,001
778	0,001
778,4	0,001
778,9	0,001
779,3	0,001
779,7	0
780,2	-0
780,6	-0
781	-0,001
781,5	-0,001
781,9	-0,001
782,3	-0,001
782,8	-0,001
783,2	-0,001
783,6	-0,001
784,1	-0,001
784,5	-0,001
784,9	-0,001
785,4	-0,001
785,8	-0,001
786,2	-0,001
786,7	-0
787,1	-0
787,5	-0
788	-0,001
788,4	-0
788,8	-0,001
789,3	-0,001
789,7	-0,002
790,1	-0,001
790,6	-0,001
791	-0,001
791,4	-0,001
791,9	-0,001
792,3	-0,001
792,7	-0,001
793,2	-0,001
793,6	-0
794	-0
794,5	-0,001
794,9	-0,001
795,3	-0,001
795,8	-0
796,2	-0
796,6	-0,001
797,1	-0,001
797,5	-0,001
797,9	-0,001
798,4	-0,001
798,8	-0,002
799,2	-0,002
799,7	-0,002
800,1	-0,001
800,5	-0,001
801	-0,001
801,4	-0,001
801,8	-0,001
802,2	-0
802,7	-0
803,1	-0
803,5	0
804	0
804,4	0
804,8	-0
805,3	-0
805,7	-0
806,1	-0
806,6	0
807	0
807,4	0
807,9	0
808,3	0
808,7	-0
809,2	-0,001
809,6	-0,001
810	-0,001
810,4	-0,001
810,9	-0,001
811,3	-0,001
811,7	-0,001
812,2	-0
812,6	-0
813	0,001
813,5	0,001
813,9	0,001
814,3	0,001
814,8	0,001
815,2	0,001
815,6	0,001
816,1	0,001
816,5	0
816,9	0
817,3	-0
817,8	-0
818,2	-0,001
818,6	-0,001
819,1	-0,001
819,5	-0,001
819,9	-0,001
820,4	-0,001
820,8	-0,001
821,2	-0,001
821,7	-0
822,1	-0
822,5	-0
822,9	-0
823,4	-0
823,8	-0
824,2	-0
824,7	-0
825,1	-0
825,5	-0
826	-0
826,4	-0
826,8	0
827,3	0
827,7	-0
828,1	-0
828,5	0
829	0
829,4	-0
829,8	-0
830,3	-0
830,7	-0,001
831,1	-0,001
831,6	-0,001
832	-0,001
832,4	-0,001
832,8	-0,002
833,3	-0,002
833,7	-0,002
834,1	-0,002
834,6	-0,002
835	-0,002
835,4	-0,001
835,8	-0,001
836,3	-0,002
836,7	-0,001
837,1	-0,001
837,6	-0,001
838	-0,001
838,4	-0,001
838,9	-0,001
839,3	-0,001
839,7	-0
840,1	-0
840,6	-0
841	-0
841,4	-0
841,9	0
842,3	0
842,7	0
843,1	0
843,6	0
844	0
844,4	0,001
844,9	0
845,3	0
845,7	0
846,2	0
846,6	0
847	0
847,4	0
847,9	0
848,3	0
848,7	0,001
849,2	0
849,6	0,001
850	0,001
850,4	0,001
850,9	0,001
851,3	0,001
851,7	0,001
852,2	0,001
852,6	0,001
853	0
853,4	0,001
853,9	0,001
854,3	0
854,7	0,001
855,2	0
855,6	0
856	0
856,4	0
856,9	-0
857,3	0
857,7	0
858,2	-0
858,6	-0,001
859	-0,001
859,4	-0,001
859,9	-0
860,3	-0,001
860,7	-0,001
861,1	-0,001
861,6	-0
862	-0,001
862,4	-0
862,9	-0,001
863,3	-0,001
863,7	-0,001
864,1	-0,001
864,6	-0,001
865	-0
865,4	-0
865,9	-0
866,3	-0
866,7	-0
867,1	-0
867,6	-0,001
868	-0,001
868,4	-0,001
868,8	-0,001
869,3	-0,001
869,7	-0,001
870,1	-0,001
870,6	-0
871	-0
871,4	0
871,8	0,001
872,3	0,001
872,7	0,001
873,1	0,002
873,5	0,001
874	0,001
874,4	0,002
874,8	0,001
875,3	0,001
875,7	0,001
876,1	0,001
876,5	0,001
877	0,001
877,4	0,001
877,8	0
878,2	-0
878,7	-0
879,1	-0
879,5	-0
879,9	-0
880,4	-0
880,8	0
881,2	0
881,7	-0
882,1	0
882,5	0
882,9	-0
883,4	-0
883,8	-0
884,2	0
884,6	0
885,1	0
885,5	0
885,9	0
886,3	-0
886,8	-0
887,2	-0
887,6	-0
888	-0,001
888,5	-0,001
888,9	-0
889,3	-0
889,8	-0
890,2	-0
890,6	-0
891	-0
891,5	-0
891,9	-0,001
892,3	-0,001
892,7	-0
893,2	-0,001
893,6	-0,001
894	-0,001
894,4	-0,001
894,9	-0,001
895,3	-0,001
895,7	-0,002
896,1	-0,002
896,6	-0,002
897	-0,002
897,4	-0,002
897,8	-0,002
898,3	-0,002
898,7	-0,002
899,1	-0,002
899,5	-0,002
900	-0,001
900,4	-0,001
900,8	-0,001
901,2	-0
901,7	-0
902,1	-0,001
902,5	-0,001
902,9	-0,001
903,4	-0,001
903,8	-0,001
904,2	-0,001
904,6	-0,001
905,1	-0,001
905,5	-0,001
905,9	-0,001
906,3	-0,001
906,8	-0,001
907,2	-0,002
907,6	-0,001
908	-0,002
908,5	-0,002
908,9	-0,002
909,3	-0,002
909,7	-0,002
910,2	-0,001
910,6	-0,001
911	-0,001
911,4	-0,001
911,9	-0,001
912,3	-0
912,7	-0
913,1	-0
913,6	-0
914	-0
914,4	-0
914,8	-0
915,3	-0
915,7	-0
916,1	-0
916,5	-0
916,9	-0
917,4	-0,001
917,8	-0,001
918,2	-0,001
918,6	-0,001
919,1	-0,001
919,5	-0,001
919,9	-0,001
920,3	-0,001
920,8	-0,001
921,2	-0,001
921,6	-0,001
922	-0,001
922,5	-0
922,9	-0,001
923,3	-0,001
923,7	-0,001
924,2	-0,001
924,6	-0,001
925	-0,001
925,4	-0,002
925,8	-0,001
926,3	-0,001
926,7	-0,001
927,1	-0,001
927,5	-0,001
928	-0,001
928,4	-0,001
928,8	-0,001
929,2	-0,002
929,7	-0,001
930,1	-0,001
930,5	-0,001
930,9	-0,001
931,3	-0,001
931,8	-0
932,2	-0
932,6	-0,001
933	-0,001
933,5	-0,001
933,9	-0,001
934,3	-0,002
934,7	-0,002
935,2	-0,002
935,6	-0,002
936	-0,002
936,4	-0,001
936,8	-0,001
937,3	-0,001
937,7	-0,001
938,1	-0,001
938,5	-0,001
939	-0,001
939,4	-0,001
939,8	-0,001
940,2	-0,001
940,6	-0,001
941,1	-0
941,5	-0
941,9	-0
942,3	0
942,8	0,001
943,2	0
943,6	0
944	-0,001
944,4	-0
944,9	-0,001
945,3	-0,001
945,7	-0,001
946,1	-0
946,6	-0
947	-0
947,4	-0
947,8	-0
948,2	-0
948,7	-0,001
949,1	-0,001
949,5	-0,001
949,9	-0,001
950,3	-0,001
950,8	-0,001
951,2	-0,001
951,6	-0,001
952	-0,001
952,5	-0,001
952,9	-0,001
953,3	-0,001
953,7	-0,001
954,1	-0,001
954,6	-0,001
955	-0,001
955,4	-0,001
955,8	-0
956,2	-0
956,7	-0,001
957,1	-0,001
957,5	-0,001
957,9	-0
958,3	-0
958,8	0,001
959,2	0,001
959,6	0,001
960	0,001
960,5	0
960,9	0
961,3	-0
961,7	-0,001
962,1	-0,001
962,6	-0,001
963	-0
963,4	-0
963,8	-0
964,2	0
964,7	0
965,1	0
965,5	0
965,9	-0
966,3	-0
966,8	-0
967,2	-0
967,6	-0,001
968	-0,001
968,4	-0,001
968,9	-0
969,3	-0
969,7	-0,001
970,1	-0
970,5	-0
971	0
971,4	0
971,8	-0
972,2	-0
972,6	-0,001
973,1	-0
973,5	-0,001
973,9	-0,001
974,3	-0,001
974,7	-0,001
975,2	-0
975,6	0
976	0
976,4	0
976,8	0
977,3	0,001
977,7	0,001
978,1	0
978,5	0,001
978,9	0,001
979,4	0,001
979,8	0,001
980,2	0,001
980,6	0
981	0
981,5	-0
981,9	-0,001
982,3	-0,001
982,7	-0,001
983,1	-0,001
983,6	-0,001
984	-0,001
984,4	-0,001
984,8	-0,001
985,2	-0,001
985,6	-0,002
986,1	-0,001
986,5	-0
986,9	0
987,3	0
987,7	0
988,2	0,001
988,6	0,001
989	0,001
989,4	0,001
989,8	0,001
990,3	0,001
990,7	0,001
991,1	0,001
991,5	0
991,9	0
992,3	-0
992,8	-0,001
993,2	-0,001
993,6	-0,001
994	-0,001
994,4	0
994,9	-0
995,3	-0
995,7	-0
996,1	0
996,5	0
996,9	0
997,4	-0
997,8	-0
998,2	-0
998,6	-0
999	-0
999,5	-0
999,9	-0,001
1000,3	-0,001
1000,7	-0,001
1001,1	-0,001
1001,5	-0,001
1002	-0,001
1002,4	-0,001
1002,8	-0,002
1003,2	-0,002
1003,6	-0,002
1004	-0,002
1004,5	-0,002
1004,9	-0,001
1005,3	-0,002
1005,7	-0,001
1006,1	-0,001
1006,6	-0,001
1007	-0
1007,4	-0
1007,8	-0,001
1008,2	-0
1008,6	-0
1009,1	-0
1009,5	0
1009,9	0
1010,3	0
1010,7	0
1011,1	-0
1011,6	-0
1012	-0
1012,4	-0
1012,8	-0
1013,2	-0,001
1013,6	-0
1014,1	-0
1014,5	0
1014,9	0,001
1015,3	-0
1015,7	0
1016,1	0,001
1016,6	0,001
1017	0
1017,4	0
1017,8	-0
1018,2	0
1018,6	-0
1019,1	0
1019,5	-0
1019,9	0
1020,3	0
1020,7	0
1021,1	0
1021,6	0,001
1022	0
1022,4	-0
1022,8	0
1023,2	-0,001
1023,6	-0,001
1024,1	-0
1024,5	-0
1024,9	-0
1025,3	-0
1025,7	-0,001
1026,1	-0,001
1026,6	-0
1027	-0,001
1027,4	-0,001
1027,8	-0,001
1028,2	-0,001
1028,6	-0,001
1029	-0,001
1029,5	-0
1029,9	0
1030,3	-0,001
1030,7	-0
1031,1	-0,001
1031,5	-0,001
1032	-0
1032,4	-0,001
1032,8	-0,002
1033,2	-0,001
1033,6	-0,001
1034	-0,001
1034,4	-0,002
1034,9	-0,003
1035,3	-0,003
1035,7	-0,002
1036,1	-0,002
1036,5	-0,003
1036,9	-0,002
1037,4	-0,001
1037,8	0
1038,2	0
1038,6	0,001
1039	0,001
1039,4	0,002
1039,8	0,001
1040,3	0,001
1040,7	0,001
1041,1	0,001
1041,5	0,001
1041,9	0,001
1042,3	-0,001
1042,7	-0,001
1043,2	-0
1043,6	-0,001
1044	-0,001
1044,4	-0
1044,8	-0,001
1045,2	-0
1045,6	-0
1046,1	-0
1046,5	-0
1046,9	-0
1047,3	-0,001
1047,7	-0,001
1048,1	-0,001
1048,5	-0,002
1049	-0,003
1049,4	-0,002
1049,8	-0,002
1050,2	-0,001
1050,6	-0
1051	-0
1051,4	0
1051,9	0
1052,3	-0
1052,7	-0,001
1053,1	-0,002
1053,5	-0,003
1053,9	-0,003
1054,3	-0,003
1054,8	-0,003
1055,2	-0,002
1055,6	-0,002
1056	-0,002
1056,4	-0,002
1056,8	-0,001
1057,2	-0,001
1057,6	-0,001
1058,1	-0,001
1058,5	-0,001
1058,9	-0,001
1059,3	-0
1059,7	-0,001
1060,1	-0,002
1060,5	-0,001
1061	-0,001
1061,4	-0,002
1061,8	-0,001
1062,2	-0,001
1062,6	0
1063	0,002
1063,4	0,001
1063,8	0,001
1064,3	0,002
1064,7	0,002
1065,1	0,001
1065,5	0,001
1065,9	0
1066,3	0
1066,7	0,001
1067,1	-0,001
1067,6	-0,001
1068	0,001
1068,4	0,001
1068,8	-0
1069,2	-0,001
1069,6	0
1070	0,002
1070,4	0,001
1070,9	0,001
1071,3	-0
1071,7	0,002
1072,1	0,003
1072,5	0,002
1072,9	0,002
1073,3	0,001
1073,7	0,001
1074,2	0,002
1074,6	-0,001
1075	0
1075,4	-0
1075,8	-0
1076,2	0
1076,6	-0,001
1077	-0,001
1077,5	-0
1077,9	-0,002
1078,3	-0,003
1078,7	-0,003
1079,1	-0,003
1079,5	-0,004
1079,9	-0,004
1080,3	-0,005
1080,7	-0,005
1081,2	-0,003
1081,6	-0,003
1082	-0,003
1082,4	-0,001
1082,8	-0,001
1083,2	-0,001
1083,6	-0,002
1084	-0,002
1084,5	-0,002
1084,9	-0,003
1085,3	-0,004
1085,7	-0,005
1086,1	-0,004
1086,5	-0,003
1086,9	-0,004
1087,3	-0,003
1087,7	-0,003
1088,2	-0,002
1088,6	-0
1089	0,002
1089,4	0,003
1089,8	0,005
1090,2	0,006
1090,6	0,004
1091	0,004
1091,4	0,002
1091,9	0,002
1092,3	0,001
1092,7	0,001
1093,1	0,002
1093,5	0,006
1093,9	0,007
1094,3	0,012
1094,7	0,012
1095,1	0,011
1095,5	0,008
1096	-0,003
1096,4	-0,006
1096,8	-0,009
1097,2	-0,016
1097,6	-0,017
1098	-0,018
1098,4	-0,013
1098,8	-0,003
1099,2	-0,005
1099,6	0,003
1100,1	0,002
1100,5	0,006
1100,9	0,001
1101,3	-0,004
1101,7	-0,008
1102,1	-0,011
1102,5	-0,016
1102,9	-0,013
1103,3	-0,008
1103,7	0,009
1104,2	0,015
1104,6	0,028
1105	0,028
1105,4	0,03
1105,8	0,032
1106,2	0,023
1106,6	0,011
1107	-0,002
1107,4	-0,028
1107,8	-0,011
1108,3	-0
