Data from Absorbance_00014.txt Node
Date: Thu Aug 10 16:14:55 MSK 2023
User: vat
Spectrometer: MAYP114033
Trigger mode: 0
Integration Time (sec): 8,000000E-3
Scans to average: 10
Electric dark correction enabled: true
Nonlinearity correction enabled: false
Boxcar width: 3
XAxis mode: Wavelengths
Number of Pixels in Spectrum: 2068
>>>>>Begin Spectral Data<<<<<
199,4	1,352
199,9	0,222
200,4	0,453
200,8	0,907
201,3	0,99
201,8	1,027
202,2	1,053
202,7	1,07
203,2	1,108
203,6	1,168
204,1	1,178
204,6	1,2
205	1,197
205,5	1,241
206	1,255
206,4	1,27
206,9	1,273
207,4	1,258
207,8	1,261
208,3	1,304
208,8	1,301
209,2	1,32
209,7	1,329
210,2	1,355
210,6	1,38
211,1	1,416
211,5	1,425
212	1,437
212,5	1,455
212,9	1,485
213,4	1,496
213,9	1,509
214,3	1,503
214,8	1,523
215,3	1,538
215,7	1,542
216,2	1,527
216,7	1,53
217,1	1,561
217,6	1,599
218,1	1,62
218,5	1,627
219	1,674
219,5	1,716
219,9	1,749
220,4	1,773
220,9	1,773
221,3	1,756
221,8	1,775
222,3	1,773
222,7	1,765
223,2	1,788
223,6	1,787
224,1	1,81
224,6	1,817
225	1,838
225,5	1,843
226	1,882
226,4	1,881
226,9	1,897
227,4	1,89
227,8	1,938
228,3	1,953
228,8	1,958
229,2	1,951
229,7	1,962
230,2	1,988
230,6	2,029
231,1	2,018
231,5	2,019
232	2,055
232,5	2,077
232,9	2,075
233,4	2,059
233,9	2,048
234,3	2,071
234,8	2,068
235,3	2,069
235,7	2,069
236,2	2,082
236,7	2,088
237,1	2,09
237,6	2,097
238,1	2,105
238,5	2,098
239	2,101
239,4	2,11
239,9	2,122
240,4	2,14
240,8	2,158
241,3	2,17
241,8	2,19
242,2	2,225
242,7	2,234
243,2	2,247
243,6	2,235
244,1	2,2
244,6	2,212
245	2,223
245,5	2,203
245,9	2,199
246,4	2,192
246,9	2,203
247,3	2,226
247,8	2,222
248,3	2,214
248,7	2,217
249,2	2,241
249,7	2,257
250,1	2,255
250,6	2,271
251	2,261
251,5	2,272
252	2,256
252,4	2,24
252,9	2,223
253,4	2,215
253,8	2,205
254,3	2,214
254,8	2,213
255,2	2,237
255,7	2,248
256,1	2,266
256,6	2,251
257,1	2,261
257,5	2,268
258	2,265
258,5	2,273
258,9	2,269
259,4	2,261
259,9	2,278
260,3	2,281
260,8	2,278
261,2	2,273
261,7	2,28
262,2	2,276
262,6	2,297
263,1	2,323
263,6	2,319
264	2,337
264,5	2,345
264,9	2,331
265,4	2,324
265,9	2,322
266,3	2,343
266,8	2,332
267,3	2,333
267,7	2,342
268,2	2,364
268,7	2,375
269,1	2,346
269,6	2,309
270	2,33
270,5	2,299
271	2,278
271,4	2,256
271,9	2,243
272,4	2,25
272,8	2,269
273,3	2,268
273,7	2,264
274,2	2,273
274,7	2,292
275,1	2,311
275,6	2,323
276,1	2,302
276,5	2,289
277	2,315
277,4	2,301
277,9	2,264
278,4	2,231
278,8	2,219
279,3	2,21
279,8	2,196
280,2	2,171
280,7	2,159
281,1	2,146
281,6	2,113
282,1	2,072
282,5	2,026
283	1,969
283,4	1,915
283,9	1,875
284,4	1,828
284,8	1,788
285,3	1,744
285,8	1,71
286,2	1,681
286,7	1,659
287,1	1,628
287,6	1,606
288,1	1,588
288,5	1,572
289	1,554
289,5	1,54
289,9	1,525
290,4	1,512
290,8	1,499
291,3	1,488
291,8	1,479
292,2	1,478
292,7	1,47
293,1	1,466
293,6	1,465
294,1	1,463
294,5	1,458
295	1,454
295,5	1,447
295,9	1,442
296,4	1,438
296,8	1,433
297,3	1,43
297,8	1,429
298,2	1,427
298,7	1,425
299,1	1,424
299,6	1,42
300,1	1,415
300,5	1,409
301	1,402
301,5	1,396
301,9	1,391
302,4	1,386
302,8	1,377
303,3	1,373
303,8	1,369
304,2	1,364
304,7	1,359
305,1	1,349
305,6	1,342
306,1	1,337
306,5	1,328
307	1,317
307,4	1,311
307,9	1,305
308,4	1,299
308,8	1,29
309,3	1,282
309,8	1,275
310,2	1,268
310,7	1,258
311,1	1,248
311,6	1,239
312,1	1,231
312,5	1,222
313	1,214
313,4	1,202
313,9	1,194
314,4	1,184
314,8	1,176
315,3	1,163
315,7	1,156
316,2	1,146
316,7	1,14
317,1	1,129
317,6	1,119
318	1,108
318,5	1,099
319	1,086
319,4	1,075
319,9	1,064
320,3	1,052
320,8	1,041
321,3	1,032
321,7	1,022
322,2	1,011
322,6	1
323,1	0,989
323,6	0,978
324	0,967
324,5	0,955
324,9	0,941
325,4	0,93
325,9	0,919
326,3	0,905
326,8	0,894
327,2	0,883
327,7	0,872
328,2	0,861
328,6	0,85
329,1	0,839
329,5	0,83
330	0,821
330,5	0,811
330,9	0,8
331,4	0,791
331,8	0,78
332,3	0,77
332,8	0,761
333,2	0,751
333,7	0,739
334,1	0,73
334,6	0,719
335,1	0,709
335,5	0,699
336	0,689
336,4	0,68
336,9	0,671
337,4	0,66
337,8	0,651
338,3	0,64
338,7	0,632
339,2	0,622
339,7	0,612
340,1	0,602
340,6	0,593
341	0,585
341,5	0,577
342	0,567
342,4	0,559
342,9	0,55
343,3	0,542
343,8	0,534
344,2	0,526
344,7	0,518
345,2	0,51
345,6	0,501
346,1	0,494
346,5	0,486
347	0,479
347,5	0,471
347,9	0,464
348,4	0,457
348,8	0,451
349,3	0,443
349,8	0,436
350,2	0,43
350,7	0,422
351,1	0,415
351,6	0,409
352	0,402
352,5	0,395
353	0,389
353,4	0,383
353,9	0,377
354,3	0,371
354,8	0,365
355,3	0,359
355,7	0,354
356,2	0,348
356,6	0,343
357,1	0,337
357,5	0,332
358	0,327
358,5	0,322
358,9	0,317
359,4	0,312
359,8	0,307
360,3	0,302
360,8	0,298
361,2	0,293
361,7	0,289
362,1	0,285
362,6	0,28
363	0,276
363,5	0,272
364	0,268
364,4	0,264
364,9	0,259
365,3	0,255
365,8	0,251
366,3	0,247
366,7	0,243
367,2	0,239
367,6	0,235
368,1	0,232
368,5	0,229
369	0,226
369,5	0,223
369,9	0,22
370,4	0,217
370,8	0,215
371,3	0,211
371,7	0,208
372,2	0,205
372,7	0,201
373,1	0,198
373,6	0,195
374	0,192
374,5	0,189
374,9	0,185
375,4	0,183
375,9	0,181
376,3	0,178
376,8	0,176
377,2	0,173
377,7	0,17
378,2	0,168
378,6	0,165
379,1	0,163
379,5	0,16
380	0,158
380,4	0,156
380,9	0,154
381,4	0,152
381,8	0,15
382,3	0,148
382,7	0,146
383,2	0,145
383,6	0,143
384,1	0,141
384,6	0,138
385	0,136
385,5	0,135
385,9	0,133
386,4	0,131
386,8	0,129
387,3	0,128
387,7	0,126
388,2	0,125
388,7	0,123
389,1	0,121
389,6	0,12
390	0,118
390,5	0,116
390,9	0,115
391,4	0,114
391,9	0,113
392,3	0,111
392,8	0,109
393,2	0,108
393,7	0,107
394,1	0,106
394,6	0,104
395,1	0,103
395,5	0,102
396	0,101
396,4	0,1
396,9	0,099
397,3	0,098
397,8	0,097
398,2	0,096
398,7	0,095
399,2	0,093
399,6	0,092
400,1	0,091
400,5	0,089
401	0,087
401,4	0,086
401,9	0,084
402,4	0,084
402,8	0,083
403,3	0,082
403,7	0,081
404,2	0,081
404,6	0,08
405,1	0,079
405,5	0,078
406	0,077
406,5	0,076
406,9	0,076
407,4	0,074
407,8	0,072
408,3	0,072
408,7	0,071
409,2	0,069
409,6	0,068
410,1	0,068
410,6	0,068
411	0,067
411,5	0,067
411,9	0,066
412,4	0,065
412,8	0,064
413,3	0,063
413,7	0,062
414,2	0,061
414,7	0,061
415,1	0,06
415,6	0,06
416	0,06
416,5	0,059
416,9	0,059
417,4	0,058
417,8	0,057
418,3	0,056
418,8	0,055
419,2	0,054
419,7	0,053
420,1	0,052
420,6	0,052
421	0,051
421,5	0,05
421,9	0,049
422,4	0,049
422,8	0,048
423,3	0,047
423,8	0,046
424,2	0,046
424,7	0,045
425,1	0,044
425,6	0,043
426	0,043
426,5	0,042
426,9	0,041
427,4	0,04
427,9	0,04
428,3	0,039
428,8	0,039
429,2	0,038
429,7	0,038
430,1	0,037
430,6	0,037
431	0,036
431,5	0,035
431,9	0,035
432,4	0,033
432,8	0,032
433,3	0,032
433,8	0,031
434,2	0,03
434,7	0,03
435,1	0,029
435,6	0,028
436	0,028
436,5	0,028
436,9	0,027
437,4	0,028
437,8	0,027
438,3	0,027
438,8	0,027
439,2	0,026
439,7	0,026
440,1	0,026
440,6	0,024
441	0,024
441,5	0,024
441,9	0,024
442,4	0,023
442,8	0,023
443,3	0,023
443,7	0,023
444,2	0,022
444,7	0,022
445,1	0,021
445,6	0,021
446	0,021
446,5	0,021
446,9	0,02
447,4	0,019
447,8	0,018
448,3	0,018
448,7	0,019
449,2	0,018
449,6	0,018
450,1	0,018
450,6	0,018
451	0,018
451,5	0,018
451,9	0,017
452,4	0,017
452,8	0,017
453,3	0,016
453,7	0,016
454,2	0,015
454,6	0,015
455,1	0,014
455,5	0,014
456	0,014
456,4	0,013
456,9	0,013
457,3	0,013
457,8	0,013
458,3	0,013
458,7	0,012
459,2	0,011
459,6	0,012
460,1	0,012
460,5	0,012
461	0,012
461,4	0,012
461,9	0,013
462,3	0,012
462,8	0,012
463,2	0,011
463,7	0,01
464,1	0,01
464,6	0,009
465	0,009
465,5	0,009
466	0,009
466,4	0,01
466,9	0,01
467,3	0,01
467,8	0,01
468,2	0,01
468,7	0,01
469,1	0,009
469,6	0,008
470	0,009
470,5	0,009
470,9	0,008
471,4	0,007
471,8	0,007
472,3	0,007
472,7	0,008
473,2	0,007
473,6	0,007
474,1	0,006
474,5	0,006
475	0,006
475,4	0,006
475,9	0,005
476,4	0,005
476,8	0,005
477,3	0,005
477,7	0,006
478,2	0,006
478,6	0,006
479,1	0,006
479,5	0,006
480	0,005
480,4	0,006
480,9	0,005
481,3	0,005
481,8	0,006
482,2	0,006
482,7	0,006
483,1	0,007
483,6	0,006
484	0,006
484,5	0,006
484,9	0,005
485,4	0,005
485,8	0,005
486,3	0,004
486,7	0,004
487,2	0,004
487,6	0,005
488,1	0,005
488,5	0,005
489	0,005
489,4	0,006
489,9	0,006
490,4	0,006
490,8	0,005
491,3	0,005
491,7	0,005
492,2	0,005
492,6	0,004
493,1	0,004
493,5	0,004
494	0,004
494,4	0,004
494,9	0,004
495,3	0,004
495,8	0,003
496,2	0,003
496,7	0,003
497,1	0,003
497,6	0,003
498	0,004
498,5	0,004
498,9	0,004
499,4	0,004
499,8	0,004
500,3	0,004
500,7	0,004
501,2	0,003
501,6	0,003
502,1	0,003
502,5	0,003
503	0,002
503,4	0,002
503,9	0,002
504,3	0,002
504,8	0,003
505,2	0,003
505,7	0,003
506,1	0,003
506,6	0,003
507	0,003
507,5	0,003
507,9	0,003
508,4	0,003
508,8	0,002
509,3	0,002
509,7	0,003
510,2	0,003
510,6	0,002
511,1	0,002
511,5	0,003
512	0,003
512,4	0,003
512,9	0,002
513,3	0,002
513,8	0,003
514,2	0,003
514,7	0,003
515,1	0,002
515,6	0,003
516	0,003
516,5	0,003
516,9	0,003
517,4	0,003
517,8	0,002
518,3	0,002
518,7	0,002
519,2	0,002
519,6	0,001
520,1	0,002
520,5	0,001
521	0,002
521,4	0,003
521,9	0,003
522,3	0,004
522,8	0,003
523,2	0,003
523,7	0,003
524,1	0,003
524,6	0,002
525	0,002
525,5	0,002
525,9	0,003
526,4	0,003
526,8	0,002
527,3	0,002
527,7	0,003
528,2	0,003
528,6	0,002
529,1	0,002
529,5	0,002
530	0,002
530,4	0,001
530,9	0,001
531,3	0,001
531,8	0,001
532,2	0,001
532,6	0,001
533,1	0,001
533,5	0,001
534	0,001
534,4	0,001
534,9	0,002
535,3	0,001
535,8	0
536,2	0
536,7	0
537,1	0,001
537,6	0,001
538	0,001
538,5	0,001
538,9	0,001
539,4	0,001
539,8	0,001
540,3	0,001
540,7	-0,001
541,2	-0
541,6	0,001
542,1	0,001
542,5	0,001
543	0,001
543,4	0,001
543,9	0,002
544,3	0,002
544,8	0,002
545,2	0,002
545,7	0,002
546,1	0,001
546,5	0,001
547	0,001
547,4	0
547,9	-0
548,3	-0
548,8	-0
549,2	0
549,7	0
550,1	0
550,6	0,001
551	0,001
551,5	0,001
551,9	0,001
552,4	0,001
552,8	0,001
553,3	0,002
553,7	0,001
554,2	0,002
554,6	0,002
555,1	0,002
555,5	0,002
555,9	0,002
556,4	0,002
556,8	0,002
557,3	0,002
557,7	0,001
558,2	0,001
558,6	0,001
559,1	0,001
559,5	0
560	-0
560,4	-0
560,9	0
561,3	-0
561,8	0
562,2	-0
562,7	0
563,1	-0
563,6	0
564	-0
564,4	0
564,9	-0
565,3	-0
565,8	-0
566,2	0
566,7	-0
567,1	-0
567,6	-0
568	-0
568,5	-0
568,9	-0
569,4	-0
569,8	-0,001
570,3	-0
570,7	0
571,1	0
571,6	0
572	0
572,5	0
572,9	0
573,4	0
573,8	-0
574,3	-0
574,7	0
575,2	0
575,6	0
576,1	0
576,5	0
576,9	0
577,4	0
577,8	0
578,3	0
578,7	0
579,2	0
579,6	-0
580,1	0
580,5	0
581	0
581,4	0
581,9	0
582,3	0,001
582,7	0,001
583,2	0,001
583,6	0,001
584,1	0
584,5	0
585	0
585,4	-0
585,9	-0
586,3	-0
586,8	-0
587,2	0
587,6	0
588,1	0
588,5	0
589	0
589,4	-0
589,9	-0
590,3	0
590,8	0
591,2	0
591,7	0
592,1	0
592,5	0
593	0
593,4	0
593,9	-0
594,3	-0
594,8	-0,001
595,2	-0
595,7	-0
596,1	-0
596,6	-0
597	-0
597,4	-0
597,9	-0
598,3	-0
598,8	0
599,2	-0
599,7	0
600,1	-0
600,6	0
601	-0
601,4	0
601,9	0,001
602,3	0,001
602,8	0,001
603,2	0,001
603,7	0,001
604,1	0,001
604,6	0,001
605	0
605,4	0
605,9	0
606,3	0
606,8	0,001
607,2	0
607,7	0
608,1	0
608,6	0
609	-0
609,4	0
609,9	-0
610,3	-0
610,8	-0
611,2	0
611,7	0
612,1	0
612,6	0
613	0,001
613,4	0
613,9	0
614,3	0
614,8	-0
615,2	-0
615,7	-0
616,1	-0
616,6	0
617	0
617,4	-0
617,9	0
618,3	0
618,8	0
619,2	0
619,7	0
620,1	0
620,5	0
621	0
621,4	0,001
621,9	0,001
622,3	0,001
622,8	0
623,2	0,001
623,6	0,001
624,1	0,001
624,5	0
625	0
625,4	0
625,9	0
626,3	0
626,8	0
627,2	0
627,6	0
628,1	0
628,5	0
629	-0
629,4	-0
629,9	-0
630,3	-0,001
630,7	-0,001
631,2	-0,001
631,6	-0,001
632,1	-0,001
632,5	-0,001
633	-0,001
633,4	-0,001
633,8	-0,001
634,3	-0,001
634,7	-0,001
635,2	-0,001
635,6	-0
636,1	-0
636,5	-0
636,9	-0
637,4	0
637,8	0
638,3	0,001
638,7	0,001
639,2	0,001
639,6	0
640	0
640,5	0
640,9	-0
641,4	-0,001
641,8	-0,001
642,2	-0,001
642,7	-0
643,1	-0
643,6	0
644	0
644,5	0
644,9	0
645,3	0
645,8	0
646,2	0
646,7	0
647,1	-0
647,6	0
648	0,001
648,4	0
648,9	0
649,3	0
649,8	0,001
650,2	0,001
650,6	0
651,1	0
651,5	-0
652	-0,001
652,4	-0,001
652,9	-0,001
653,3	-0,001
653,7	-0,001
654,2	-0,001
654,6	-0
655,1	-0,001
655,5	-0
655,9	-0
656,4	-0
656,8	0,001
657,3	0,001
657,7	0,001
658,2	0,001
658,6	0,001
659	0,002
659,5	0,003
659,9	0,002
660,4	0,001
660,8	0
661,2	0,001
661,7	0,001
662,1	0
662,6	0
663	0
663,4	0
663,9	0,001
664,3	0
664,8	0,001
665,2	0,001
665,6	0,001
666,1	0,001
666,5	0,001
667	0
667,4	0
667,9	-0
668,3	-0
668,7	-0
669,2	-0
669,6	0
670,1	0
670,5	0,001
670,9	0
671,4	0
671,8	-0
672,3	-0
672,7	-0
673,1	-0
673,6	-0
674	-0
674,5	-0
674,9	0
675,3	0,001
675,8	0
676,2	0
676,7	-0
677,1	-0
677,5	-0
678	-0
678,4	-0
678,9	-0
679,3	0
679,7	0,001
680,2	0,001
680,6	0,001
681,1	0,001
681,5	0
681,9	-0
682,4	-0
682,8	-0
683,3	0
683,7	-0
684,1	0
684,6	0
685	0
685,5	0
685,9	0
686,3	0
686,8	0
687,2	0
687,7	-0
688,1	0
688,5	0
689	0
689,4	0
689,9	0
690,3	0,001
690,7	0,001
691,2	0,001
691,6	-0
692	0
692,5	-0
692,9	-0
693,4	-0
693,8	-0
694,2	-0
694,7	-0
695,1	-0
695,6	-0
696	-0
696,4	-0
696,9	-0
697,3	-0
697,8	-0
698,2	0
698,6	0
699,1	-0
699,5	0
699,9	0
700,4	0
700,8	0
701,3	-0
701,7	-0,001
702,1	-0,001
702,6	-0,001
703	-0,001
703,5	-0,001
703,9	-0,001
704,3	-0
704,8	-0
705,2	0
705,6	0
706,1	0
706,5	0
707	0
707,4	0
707,8	0,001
708,3	0,001
708,7	0
709,2	0
709,6	0
710	0
710,5	0
710,9	0
711,3	0
711,8	0
712,2	0
712,7	-0
713,1	0
713,5	0
714	-0
714,4	-0
714,8	-0
715,3	-0
715,7	-0
716,2	0
716,6	0
717	0,001
717,5	0,001
717,9	0,001
718,3	0,001
718,8	0,001
719,2	0
719,7	0
720,1	0
720,5	0
721	0,001
721,4	0,001
721,8	0,001
722,3	0,001
722,7	0,001
723,2	0,001
723,6	0,001
724	0,001
724,5	0
724,9	0
725,3	0,001
725,8	0,001
726,2	0,001
726,7	0,001
727,1	0
727,5	0,001
728	0,001
728,4	0,001
728,8	0
729,3	0,001
729,7	-0
730,1	0
730,6	-0
731	-0,001
731,5	-0,001
731,9	-0
732,3	-0,001
732,8	-0
733,2	-0
733,6	0
734,1	0
734,5	0
734,9	0
735,4	0
735,8	0
736,3	0
736,7	-0
737,1	-0
737,6	-0
738	-0
738,4	-0
738,9	-0
739,3	-0
739,7	0
740,2	0
740,6	0
741,1	0,001
741,5	0,001
741,9	0,001
742,4	0,001
742,8	0,001
743,2	0,001
743,7	0,001
744,1	0
744,5	-0
745	-0
745,4	-0,001
745,8	-0,001
746,3	-0,001
746,7	-0,001
747,2	-0,001
747,6	-0,001
748	-0,001
748,5	-0,001
748,9	-0,001
749,3	-0,001
749,8	-0,001
750,2	-0,001
750,6	-0,001
751,1	-0,001
751,5	-0,001
751,9	-0
752,4	-0
752,8	0
753,3	0
753,7	0
754,1	-0
754,6	-0
755	-0
755,4	-0,001
755,9	-0,001
756,3	-0,001
756,7	-0,001
757,2	-0,001
757,6	-0,001
758	-0,001
758,5	-0,001
758,9	-0,001
759,3	-0,001
759,8	-0,001
760,2	-0,001
760,6	-0,001
761,1	-0,001
761,5	-0,001
761,9	-0,001
762,4	-0,001
762,8	-0,002
763,3	-0,001
763,7	-0,001
764,1	-0,001
764,6	-0,001
765	-0,001
765,4	-0,001
765,9	-0
766,3	-0
766,7	0
767,2	0
767,6	0,001
768	0,001
768,5	0,001
768,9	0
769,3	-0
769,8	-0
770,2	-0,001
770,6	-0,001
771,1	-0,001
771,5	-0,001
771,9	-0,001
772,4	-0,001
772,8	-0,001
773,2	-0,001
773,7	-0,001
774,1	-0,001
774,5	-0,001
775	-0
775,4	-0
775,8	0
776,3	0
776,7	0
777,1	0
777,6	0
778	0,001
778,4	0,001
778,9	0,001
779,3	0
779,7	0,001
780,2	0,001
780,6	0,001
781	0
781,5	-0
781,9	-0
782,3	-0,001
782,8	-0,001
783,2	-0,001
783,6	-0,002
784,1	-0,002
784,5	-0,002
784,9	-0,001
785,4	-0,001
785,8	-0,001
786,2	-0,001
786,7	-0,001
787,1	-0,001
787,5	-0,001
788	-0,001
788,4	-0,001
788,8	-0,001
789,3	-0,001
789,7	-0,001
790,1	-0
790,6	0
791	0
791,4	0,001
791,9	0
792,3	0,001
792,7	0,001
793,2	0,001
793,6	0
794	0
794,5	-0
794,9	-0
795,3	-0
795,8	-0
796,2	-0,001
796,6	-0,001
797,1	-0,001
797,5	-0,001
797,9	-0
798,4	-0,001
798,8	-0,001
799,2	-0,001
799,7	-0,001
800,1	-0,001
800,5	-0,001
801	-0
801,4	-0
801,8	0
802,2	0
802,7	0
803,1	-0
803,5	-0
804	-0
804,4	-0
804,8	-0
805,3	-0
805,7	-0,001
806,1	-0
806,6	-0
807	0
807,4	0
807,9	0
808,3	0
808,7	0,001
809,2	0
809,6	0
810	-0
810,4	0
810,9	-0
811,3	-0
811,7	-0
812,2	-0
812,6	-0
813	-0
813,5	-0
813,9	-0,001
814,3	-0
814,8	-0,001
815,2	-0,001
815,6	-0,001
816,1	-0,001
816,5	-0,001
816,9	-0,001
817,3	-0,001
817,8	-0,001
818,2	-0
818,6	-0,001
819,1	-0,001
819,5	-0,001
819,9	-0,001
820,4	-0,001
820,8	-0,001
821,2	-0,001
821,7	-0,001
822,1	-0,001
822,5	-0,001
822,9	-0,001
823,4	-0,001
823,8	-0,001
824,2	-0
824,7	-0
825,1	-0
825,5	-0
826	-0
826,4	-0,001
826,8	-0,001
827,3	-0,001
827,7	-0,001
828,1	-0,001
828,5	-0,001
829	-0,001
829,4	-0,001
829,8	-0,001
830,3	-0,001
830,7	-0,001
831,1	-0,001
831,6	0
832	0
832,4	0,001
832,8	0,001
833,3	0,001
833,7	0,001
834,1	0,001
834,6	0,001
835	0,001
835,4	0,001
835,8	0,001
836,3	0,001
836,7	0,001
837,1	0,001
837,6	0,001
838	-0
838,4	-0
838,9	-0,001
839,3	-0,001
839,7	-0,001
840,1	-0,002
840,6	-0,002
841	-0,001
841,4	-0,001
841,9	-0,001
842,3	-0,001
842,7	-0,001
843,1	-0,001
843,6	-0
844	-0
844,4	0
844,9	0,001
845,3	0,001
845,7	0,001
846,2	0,001
846,6	0,001
847	0,001
847,4	0,001
847,9	0,001
848,3	0,001
848,7	0,001
849,2	0
849,6	0
850	-0
850,4	-0
850,9	0
851,3	0
851,7	0
852,2	0
852,6	0
853	0
853,4	0
853,9	0
854,3	0,001
854,7	0,001
855,2	0,001
855,6	0
856	-0
856,4	-0,001
856,9	-0,001
857,3	-0,002
857,7	-0,002
858,2	-0,002
858,6	-0,002
859	-0,002
859,4	-0,002
859,9	-0,002
860,3	-0,002
860,7	-0,002
861,1	-0,001
861,6	-0,001
862	-0,001
862,4	-0,001
862,9	-0
863,3	0
863,7	0
864,1	0,001
864,6	0,001
865	0,001
865,4	0,001
865,9	0
866,3	0
866,7	-0
867,1	-0,001
867,6	-0,001
868	-0
868,4	-0
868,8	-0
869,3	0
869,7	0,001
870,1	0,001
870,6	0,001
871	0,001
871,4	0,001
871,8	0,001
872,3	0,001
872,7	0,001
873,1	0,002
873,5	0,002
874	0,002
874,4	0,002
874,8	0,002
875,3	0,001
875,7	0,001
876,1	0,001
876,5	0,001
877	0,001
877,4	0
877,8	0
878,2	0
878,7	0
879,1	-0
879,5	-0
879,9	-0
880,4	0
880,8	-0
881,2	-0
881,7	-0
882,1	-0
882,5	-0
882,9	-0
883,4	-0,001
883,8	-0
884,2	-0
884,6	-0
885,1	0
885,5	-0
885,9	0
886,3	0,001
886,8	0,001
887,2	0,001
887,6	0,001
888	0,001
888,5	0,001
888,9	-0
889,3	-0
889,8	-0
890,2	-0
890,6	-0
891	-0
891,5	-0
891,9	0
892,3	0
892,7	0
893,2	0
893,6	0
894	0,001
894,4	0,001
894,9	0,001
895,3	0,001
895,7	0,001
896,1	0,001
896,6	0
897	-0
897,4	-0
897,8	-0
898,3	-0,001
898,7	-0,001
899,1	-0
899,5	-0,001
900	-0
900,4	-0
900,8	-0,001
901,2	-0
901,7	-0,001
902,1	-0,001
902,5	-0,001
902,9	-0,001
903,4	-0,001
903,8	-0,001
904,2	-0,001
904,6	-0,001
905,1	-0,001
905,5	-0,001
905,9	-0
906,3	-0
906,8	-0
907,2	-0,001
907,6	-0
908	-0,001
908,5	-0,001
908,9	-0,001
909,3	-0,001
909,7	-0,001
910,2	-0,001
910,6	-0,001
911	-0,001
911,4	-0,001
911,9	-0,001
912,3	-0,001
912,7	-0,001
913,1	-0
913,6	-0
914	-0
914,4	0
914,8	0
915,3	0
915,7	0
916,1	0,001
916,5	0,001
916,9	0,001
917,4	0,001
917,8	0,001
918,2	0
918,6	0,001
919,1	-0
919,5	-0
919,9	-0,001
920,3	-0
920,8	0
921,2	-0
921,6	-0
922	0
922,5	-0
922,9	-0
923,3	-0
923,7	-0,001
924,2	-0,001
924,6	-0
925	-0
925,4	0
925,8	0
926,3	0
926,7	0,001
927,1	0,001
927,5	0,001
928	0,001
928,4	0,001
928,8	0,001
929,2	0,001
929,7	0,001
930,1	0,001
930,5	0,001
930,9	0,001
931,3	0,001
931,8	0,001
932,2	0,001
932,6	0,001
933	0
933,5	-0
933,9	-0
934,3	-0
934,7	-0
935,2	-0
935,6	-0
936	0
936,4	-0
936,8	0
937,3	0
937,7	0
938,1	0
938,5	-0,001
939	-0,001
939,4	-0,001
939,8	-0,001
940,2	-0,001
940,6	-0,001
941,1	-0,001
941,5	-0
941,9	-0
942,3	-0
942,8	-0
943,2	-0,001
943,6	-0,001
944	-0,001
944,4	-0,001
944,9	-0,001
945,3	-0,001
945,7	-0,001
946,1	0
946,6	-0
947	0
947,4	0,001
947,8	0,001
948,2	0,001
948,7	0,002
949,1	0,001
949,5	0,001
949,9	0,001
950,3	0
950,8	-0
951,2	-0,001
951,6	-0,001
952	-0,001
952,5	-0,001
952,9	-0,001
953,3	-0,001
953,7	-0
954,1	-0
954,6	-0,001
955	-0,001
955,4	-0,001
955,8	-0,001
956,2	-0,001
956,7	-0,002
957,1	-0,002
957,5	-0,001
957,9	-0,001
958,3	-0,001
958,8	-0,001
959,2	-0,001
959,6	-0,001
960	-0
960,5	-0
960,9	0
961,3	-0
961,7	-0
962,1	-0,001
962,6	-0,001
963	-0,002
963,4	-0,001
963,8	-0,001
964,2	-0,001
964,7	-0,001
965,1	-0,001
965,5	-0,001
965,9	-0,001
966,3	-0,001
966,8	-0,001
967,2	-0,002
967,6	-0,002
968	-0,002
968,4	-0,002
968,9	-0,001
969,3	-0,001
969,7	-0,001
970,1	-0
970,5	0,001
971	0,001
971,4	0,001
971,8	0,001
972,2	0,001
972,6	0,001
973,1	0,001
973,5	0,001
973,9	0
974,3	0,001
974,7	0
975,2	0
975,6	-0
976	-0
976,4	-0,001
976,8	-0
977,3	-0
977,7	0
978,1	0
978,5	-0
978,9	-0
979,4	0
979,8	-0
980,2	0
980,6	0
981	-0
981,5	-0
981,9	-0
982,3	0
982,7	0
983,1	0
983,6	0,001
984	0,001
984,4	0,001
984,8	0
985,2	-0
985,6	-0,001
986,1	-0,001
986,5	-0,001
986,9	-0,001
987,3	-0,001
987,7	-0,001
988,2	-0,001
988,6	-0
989	-0,001
989,4	-0,001
989,8	-0,001
990,3	-0,001
990,7	-0
991,1	-0,001
991,5	-0,001
991,9	-0,001
992,3	-0,001
992,8	-0,002
993,2	-0,002
993,6	-0,003
994	-0,003
994,4	-0,003
994,9	-0,003
995,3	-0,003
995,7	-0,002
996,1	-0,002
996,5	-0,001
996,9	-0,001
997,4	-0,001
997,8	-0,001
998,2	-0
998,6	-0
999	-0
999,5	-0,001
999,9	-0
1000,3	-0
1000,7	-0,001
1001,1	-0,001
1001,5	-0,001
1002	-0,002
1002,4	-0,002
1002,8	-0,001
1003,2	-0,002
1003,6	-0,002
1004	-0,002
1004,5	-0,001
1004,9	-0
1005,3	-0
1005,7	-0,001
1006,1	-0,001
1006,6	-0
1007	-0,001
1007,4	-0,002
1007,8	-0,002
1008,2	-0,002
1008,6	-0,002
1009,1	-0,002
1009,5	-0,003
1009,9	-0,003
1010,3	-0,003
1010,7	-0,003
1011,1	-0,003
1011,6	-0,003
1012	-0,002
1012,4	-0,002
1012,8	-0,001
1013,2	-0,001
1013,6	-0,001
1014,1	-0
1014,5	-0
1014,9	-0
1015,3	-0,001
1015,7	-0,001
1016,1	-0,001
1016,6	-0,001
1017	-0,001
1017,4	-0,001
1017,8	-0,001
1018,2	-0,001
1018,6	-0,002
1019,1	-0,002
1019,5	-0,002
1019,9	-0,002
1020,3	-0,002
1020,7	-0,002
1021,1	-0,002
1021,6	-0,001
1022	-0,001
1022,4	-0,001
1022,8	-0,001
1023,2	-0,001
1023,6	-0
1024,1	-0
1024,5	0,001
1024,9	0,001
1025,3	0,001
1025,7	0,001
1026,1	0,001
1026,6	0,001
1027	0,001
1027,4	0
1027,8	-0
1028,2	0
1028,6	0,001
1029	0,001
1029,5	0
1029,9	-0,001
1030,3	-0
1030,7	-0
1031,1	-0,001
1031,5	-0,001
1032	-0,001
1032,4	-0,001
1032,8	-0
1033,2	-0,001
1033,6	-0
1034	-0,001
1034,4	-0,001
1034,9	-0,001
1035,3	-0
1035,7	-0
1036,1	0,001
1036,5	0
1036,9	0,001
1037,4	0,001
1037,8	0,001
1038,2	0,001
1038,6	-0
1039	-0,001
1039,4	-0
1039,8	-0
1040,3	0
1040,7	-0
1041,1	-0
1041,5	0,001
1041,9	0,002
1042,3	0,002
1042,7	0,001
1043,2	0,001
1043,6	0
1044	-0
1044,4	-0,001
1044,8	-0,002
1045,2	-0,003
1045,6	-0,003
1046,1	-0,003
1046,5	-0,003
1046,9	-0,003
1047,3	-0,002
1047,7	-0,002
1048,1	-0,002
1048,5	-0,003
1049	-0,002
1049,4	-0,002
1049,8	-0,002
1050,2	-0,002
1050,6	-0,002
1051	-0,002
1051,4	-0,002
1051,9	-0,002
1052,3	-0,003
1052,7	-0,002
1053,1	-0,002
1053,5	-0,001
1053,9	-0,001
1054,3	-0,002
1054,8	-0,002
1055,2	-0,001
1055,6	-0,002
1056	-0,002
1056,4	-0,002
1056,8	-0,003
1057,2	-0,002
1057,6	-0,002
1058,1	-0,001
1058,5	-0,001
1058,9	-0,001
1059,3	-0,001
1059,7	-0,001
1060,1	-0,001
1060,5	-0,001
1061	-0,002
1061,4	-0,002
1061,8	-0,002
1062,2	-0,001
1062,6	-0,001
1063	-0,001
1063,4	-0,001
1063,8	-0,001
1064,3	-0,001
1064,7	-0,001
1065,1	-0,003
1065,5	-0,002
1065,9	-0,002
1066,3	-0
1066,7	-0
1067,1	-0,001
1067,6	-0,002
1068	-0
1068,4	-0,001
1068,8	-0,001
1069,2	-0,002
1069,6	-0,001
1070	-0,001
1070,4	-0,001
1070,9	-0,001
1071,3	-0,001
1071,7	-0,001
1072,1	-0,001
1072,5	-0,001
1072,9	-0,001
1073,3	-0,001
1073,7	-0,001
1074,2	-0
1074,6	0,001
1075	-0
1075,4	-0,001
1075,8	-0,002
1076,2	-0,002
1076,6	-0,002
1077	-0,004
1077,5	-0,004
1077,9	-0,003
1078,3	-0,003
1078,7	-0,003
1079,1	-0,002
1079,5	-0,001
1079,9	-0
1080,3	-0,002
1080,7	-0,002
1081,2	-0,002
1081,6	0
1082	0
1082,4	-0,003
1082,8	-0,002
1083,2	-0
1083,6	-0
1084	-0
1084,5	-0,002
1084,9	-0,001
1085,3	-0,001
1085,7	-0,001
1086,1	-0,001
1086,5	-0,001
1086,9	-0,001
1087,3	0,001
1087,7	0,001
1088,2	0,004
1088,6	0,003
1089	0,003
1089,4	0,001
1089,8	-0
1090,2	-0,003
1090,6	-0,002
1091	0,001
1091,4	-0
1091,9	-0
1092,3	0,003
1092,7	0,006
1093,1	0,008
1093,5	0,005
1093,9	-0,001
1094,3	0,002
1094,7	0,003
1095,1	0,005
1095,5	0,005
1096	0,007
1096,4	0,013
1096,8	0,011
1097,2	0,01
1097,6	0,008
1098	0,009
1098,4	0,009
1098,8	0,008
1099,2	-0
1099,6	0,003
1100,1	0,008
1100,5	0,01
1100,9	-0,001
1101,3	0
1101,7	0,002
1102,1	0,005
1102,5	-0,003
1102,9	-0,008
1103,3	-0,004
1103,7	0,001
1104,2	0
1104,6	0,003
1105	0,01
1105,4	0,019
1105,8	0,017
1106,2	0,011
1106,6	0,026
1107	0,05
1107,4	0,051
1107,8	0,08
1108,3	-0
