Data from Absorbance_00010.txt Node
Date: Thu Aug 10 16:08:15 MSK 2023
User: vat
Spectrometer: MAYP114033
Trigger mode: 0
Integration Time (sec): 8,000000E-3
Scans to average: 10
Electric dark correction enabled: true
Nonlinearity correction enabled: false
Boxcar width: 3
XAxis mode: Wavelengths
Number of Pixels in Spectrum: 2068
>>>>>Begin Spectral Data<<<<<
199,4	0,913
199,9	0,137
200,4	0,414
200,8	0,81
201,3	0,979
201,8	1,031
202,2	1,055
202,7	1,087
203,2	1,106
203,6	1,169
204,1	1,198
204,6	1,201
205	1,203
205,5	1,231
206	1,228
206,4	1,257
206,9	1,25
207,4	1,244
207,8	1,259
208,3	1,28
208,8	1,293
209,2	1,302
209,7	1,31
210,2	1,332
210,6	1,357
211,1	1,388
211,5	1,385
212	1,384
212,5	1,413
212,9	1,441
213,4	1,475
213,9	1,483
214,3	1,477
214,8	1,51
215,3	1,521
215,7	1,528
216,2	1,525
216,7	1,521
217,1	1,531
217,6	1,561
218,1	1,588
218,5	1,614
219	1,634
219,5	1,655
219,9	1,681
220,4	1,731
220,9	1,733
221,3	1,721
221,8	1,735
222,3	1,757
222,7	1,769
223,2	1,785
223,6	1,775
224,1	1,807
224,6	1,83
225	1,831
225,5	1,84
226	1,865
226,4	1,876
226,9	1,89
227,4	1,873
227,8	1,895
228,3	1,925
228,8	1,91
229,2	1,923
229,7	1,921
230,2	1,939
230,6	1,969
231,1	1,963
231,5	1,958
232	1,999
232,5	2,002
232,9	2,013
233,4	2,012
233,9	2,018
234,3	2,028
234,8	2,038
235,3	2,031
235,7	2,047
236,2	2,057
236,7	2,058
237,1	2,052
237,6	2,065
238,1	2,079
238,5	2,102
239	2,115
239,4	2,124
239,9	2,138
240,4	2,153
240,8	2,186
241,3	2,194
241,8	2,187
242,2	2,18
242,7	2,193
243,2	2,204
243,6	2,218
244,1	2,184
244,6	2,18
245	2,204
245,5	2,208
245,9	2,202
246,4	2,189
246,9	2,186
247,3	2,201
247,8	2,218
248,3	2,196
248,7	2,195
249,2	2,208
249,7	2,242
250,1	2,219
250,6	2,22
251	2,193
251,5	2,197
252	2,201
252,4	2,199
252,9	2,182
253,4	2,203
253,8	2,206
254,3	2,233
254,8	2,249
255,2	2,263
255,7	2,275
256,1	2,29
256,6	2,285
257,1	2,299
257,5	2,316
258	2,285
258,5	2,29
258,9	2,31
259,4	2,289
259,9	2,289
260,3	2,289
260,8	2,284
261,2	2,316
261,7	2,3
262,2	2,271
262,6	2,296
263,1	2,313
263,6	2,324
264	2,323
264,5	2,322
264,9	2,336
265,4	2,337
265,9	2,338
266,3	2,322
266,8	2,327
267,3	2,31
267,7	2,306
268,2	2,309
268,7	2,307
269,1	2,284
269,6	2,299
270	2,289
270,5	2,288
271	2,274
271,4	2,278
271,9	2,264
272,4	2,273
272,8	2,271
273,3	2,258
273,7	2,25
274,2	2,238
274,7	2,234
275,1	2,247
275,6	2,251
276,1	2,246
276,5	2,247
277	2,253
277,4	2,263
277,9	2,228
278,4	2,217
278,8	2,21
279,3	2,19
279,8	2,186
280,2	2,181
280,7	2,16
281,1	2,138
281,6	2,083
282,1	2,045
282,5	2
283	1,943
283,4	1,896
283,9	1,847
284,4	1,801
284,8	1,77
285,3	1,728
285,8	1,696
286,2	1,667
286,7	1,639
287,1	1,614
287,6	1,594
288,1	1,57
288,5	1,55
289	1,535
289,5	1,523
289,9	1,509
290,4	1,502
290,8	1,489
291,3	1,48
291,8	1,474
292,2	1,466
292,7	1,459
293,1	1,456
293,6	1,447
294,1	1,446
294,5	1,444
295	1,437
295,5	1,436
295,9	1,427
296,4	1,42
296,8	1,418
297,3	1,412
297,8	1,409
298,2	1,409
298,7	1,404
299,1	1,404
299,6	1,399
300,1	1,392
300,5	1,389
301	1,383
301,5	1,375
301,9	1,369
302,4	1,363
302,8	1,359
303,3	1,354
303,8	1,349
304,2	1,341
304,7	1,335
305,1	1,327
305,6	1,321
306,1	1,316
306,5	1,308
307	1,297
307,4	1,293
307,9	1,287
308,4	1,282
308,8	1,274
309,3	1,264
309,8	1,253
310,2	1,248
310,7	1,24
311,1	1,23
311,6	1,22
312,1	1,211
312,5	1,205
313	1,199
313,4	1,187
313,9	1,177
314,4	1,168
314,8	1,158
315,3	1,147
315,7	1,136
316,2	1,124
316,7	1,115
317,1	1,104
317,6	1,093
318	1,083
318,5	1,072
319	1,06
319,4	1,049
319,9	1,038
320,3	1,028
320,8	1,016
321,3	1,006
321,7	0,995
322,2	0,985
322,6	0,975
323,1	0,964
323,6	0,952
324	0,942
324,5	0,931
324,9	0,92
325,4	0,91
325,9	0,899
326,3	0,888
326,8	0,877
327,2	0,865
327,7	0,856
328,2	0,845
328,6	0,834
329,1	0,824
329,5	0,814
330	0,803
330,5	0,792
330,9	0,781
331,4	0,772
331,8	0,762
332,3	0,753
332,8	0,743
333,2	0,733
333,7	0,724
334,1	0,714
334,6	0,704
335,1	0,694
335,5	0,684
336	0,675
336,4	0,666
336,9	0,657
337,4	0,648
337,8	0,639
338,3	0,63
338,7	0,621
339,2	0,61
339,7	0,601
340,1	0,592
340,6	0,583
341	0,573
341,5	0,565
342	0,557
342,4	0,549
342,9	0,541
343,3	0,534
343,8	0,526
344,2	0,518
344,7	0,51
345,2	0,502
345,6	0,494
346,1	0,487
346,5	0,48
347	0,473
347,5	0,467
347,9	0,459
348,4	0,452
348,8	0,446
349,3	0,439
349,8	0,432
350,2	0,424
350,7	0,418
351,1	0,412
351,6	0,406
352	0,399
352,5	0,393
353	0,387
353,4	0,381
353,9	0,375
354,3	0,37
354,8	0,366
355,3	0,36
355,7	0,354
356,2	0,349
356,6	0,344
357,1	0,338
357,5	0,332
358	0,327
358,5	0,322
358,9	0,317
359,4	0,312
359,8	0,308
360,3	0,304
360,8	0,3
361,2	0,295
361,7	0,292
362,1	0,288
362,6	0,284
363	0,28
363,5	0,275
364	0,272
364,4	0,267
364,9	0,263
365,3	0,259
365,8	0,255
366,3	0,252
366,7	0,248
367,2	0,244
367,6	0,241
368,1	0,238
368,5	0,235
369	0,232
369,5	0,228
369,9	0,225
370,4	0,223
370,8	0,221
371,3	0,217
371,7	0,214
372,2	0,211
372,7	0,208
373,1	0,205
373,6	0,201
374	0,198
374,5	0,196
374,9	0,192
375,4	0,19
375,9	0,188
376,3	0,186
376,8	0,184
377,2	0,181
377,7	0,179
378,2	0,177
378,6	0,174
379,1	0,172
379,5	0,17
380	0,168
380,4	0,166
380,9	0,163
381,4	0,16
381,8	0,158
382,3	0,156
382,7	0,154
383,2	0,152
383,6	0,15
384,1	0,148
384,6	0,146
385	0,144
385,5	0,142
385,9	0,14
386,4	0,138
386,8	0,135
387,3	0,134
387,7	0,132
388,2	0,13
388,7	0,129
389,1	0,127
389,6	0,125
390	0,124
390,5	0,123
390,9	0,121
391,4	0,12
391,9	0,118
392,3	0,117
392,8	0,115
393,2	0,114
393,7	0,113
394,1	0,112
394,6	0,111
395,1	0,109
395,5	0,108
396	0,107
396,4	0,106
396,9	0,105
397,3	0,103
397,8	0,102
398,2	0,102
398,7	0,101
399,2	0,099
399,6	0,098
400,1	0,096
400,5	0,095
401	0,094
401,4	0,092
401,9	0,091
402,4	0,089
402,8	0,089
403,3	0,088
403,7	0,087
404,2	0,086
404,6	0,085
405,1	0,084
405,5	0,083
406	0,082
406,5	0,081
406,9	0,08
407,4	0,079
407,8	0,078
408,3	0,077
408,7	0,076
409,2	0,075
409,6	0,074
410,1	0,072
410,6	0,072
411	0,071
411,5	0,07
411,9	0,07
412,4	0,069
412,8	0,068
413,3	0,068
413,7	0,067
414,2	0,066
414,7	0,065
415,1	0,064
415,6	0,065
416	0,064
416,5	0,062
416,9	0,062
417,4	0,061
417,8	0,059
418,3	0,059
418,8	0,058
419,2	0,057
419,7	0,056
420,1	0,056
420,6	0,055
421	0,054
421,5	0,053
421,9	0,053
422,4	0,053
422,8	0,052
423,3	0,051
423,8	0,051
424,2	0,05
424,7	0,049
425,1	0,048
425,6	0,047
426	0,046
426,5	0,045
426,9	0,045
427,4	0,044
427,9	0,043
428,3	0,042
428,8	0,042
429,2	0,042
429,7	0,041
430,1	0,041
430,6	0,04
431	0,04
431,5	0,04
431,9	0,039
432,4	0,038
432,8	0,037
433,3	0,036
433,8	0,035
434,2	0,035
434,7	0,034
435,1	0,034
435,6	0,034
436	0,033
436,5	0,033
436,9	0,032
437,4	0,032
437,8	0,031
438,3	0,03
438,8	0,03
439,2	0,029
439,7	0,029
440,1	0,028
440,6	0,027
441	0,027
441,5	0,027
441,9	0,027
442,4	0,026
442,8	0,026
443,3	0,026
443,7	0,026
444,2	0,026
444,7	0,026
445,1	0,025
445,6	0,026
446	0,026
446,5	0,025
446,9	0,024
447,4	0,023
447,8	0,022
448,3	0,022
448,7	0,023
449,2	0,022
449,6	0,022
450,1	0,022
450,6	0,022
451	0,021
451,5	0,021
451,9	0,02
452,4	0,02
452,8	0,02
453,3	0,02
453,7	0,02
454,2	0,02
454,6	0,02
455,1	0,019
455,5	0,019
456	0,018
456,4	0,018
456,9	0,017
457,3	0,017
457,8	0,016
458,3	0,016
458,7	0,015
459,2	0,015
459,6	0,015
460,1	0,014
460,5	0,015
461	0,014
461,4	0,014
461,9	0,014
462,3	0,014
462,8	0,013
463,2	0,014
463,7	0,013
464,1	0,013
464,6	0,013
465	0,013
465,5	0,014
466	0,014
466,4	0,014
466,9	0,013
467,3	0,013
467,8	0,013
468,2	0,013
468,7	0,013
469,1	0,012
469,6	0,012
470	0,012
470,5	0,012
470,9	0,011
471,4	0,011
471,8	0,01
472,3	0,01
472,7	0,01
473,2	0,01
473,6	0,009
474,1	0,009
474,5	0,009
475	0,01
475,4	0,01
475,9	0,01
476,4	0,009
476,8	0,009
477,3	0,01
477,7	0,009
478,2	0,01
478,6	0,009
479,1	0,01
479,5	0,01
480	0,01
480,4	0,01
480,9	0,01
481,3	0,009
481,8	0,009
482,2	0,008
482,7	0,009
483,1	0,009
483,6	0,008
484	0,008
484,5	0,008
484,9	0,008
485,4	0,008
485,8	0,008
486,3	0,007
486,7	0,008
487,2	0,008
487,6	0,008
488,1	0,008
488,5	0,008
489	0,008
489,4	0,008
489,9	0,008
490,4	0,008
490,8	0,007
491,3	0,008
491,7	0,007
492,2	0,007
492,6	0,007
493,1	0,007
493,5	0,007
494	0,007
494,4	0,007
494,9	0,007
495,3	0,007
495,8	0,007
496,2	0,007
496,7	0,006
497,1	0,006
497,6	0,006
498	0,006
498,5	0,006
498,9	0,007
499,4	0,006
499,8	0,007
500,3	0,006
500,7	0,006
501,2	0,006
501,6	0,006
502,1	0,005
502,5	0,006
503	0,005
503,4	0,005
503,9	0,005
504,3	0,006
504,8	0,006
505,2	0,006
505,7	0,007
506,1	0,007
506,6	0,007
507	0,007
507,5	0,006
507,9	0,006
508,4	0,006
508,8	0,005
509,3	0,004
509,7	0,005
510,2	0,005
510,6	0,005
511,1	0,005
511,5	0,005
512	0,005
512,4	0,005
512,9	0,005
513,3	0,005
513,8	0,005
514,2	0,005
514,7	0,005
515,1	0,004
515,6	0,005
516	0,005
516,5	0,005
516,9	0,005
517,4	0,006
517,8	0,005
518,3	0,005
518,7	0,005
519,2	0,004
519,6	0,004
520,1	0,004
520,5	0,004
521	0,004
521,4	0,005
521,9	0,005
522,3	0,006
522,8	0,005
523,2	0,005
523,7	0,005
524,1	0,005
524,6	0,005
525	0,004
525,5	0,004
525,9	0,005
526,4	0,005
526,8	0,005
527,3	0,005
527,7	0,005
528,2	0,005
528,6	0,005
529,1	0,004
529,5	0,004
530	0,004
530,4	0,004
530,9	0,005
531,3	0,005
531,8	0,005
532,2	0,005
532,6	0,005
533,1	0,005
533,5	0,004
534	0,004
534,4	0,004
534,9	0,004
535,3	0,003
535,8	0,003
536,2	0,003
536,7	0,004
537,1	0,004
537,6	0,004
538	0,004
538,5	0,004
538,9	0,004
539,4	0,004
539,8	0,003
540,3	0,003
540,7	0,003
541,2	0,003
541,6	0,004
542,1	0,004
542,5	0,004
543	0,004
543,4	0,004
543,9	0,004
544,3	0,005
544,8	0,004
545,2	0,004
545,7	0,004
546,1	0,003
546,5	0,003
547	0,003
547,4	0,003
547,9	0,004
548,3	0,004
548,8	0,004
549,2	0,005
549,7	0,005
550,1	0,005
550,6	0,005
551	0,005
551,5	0,005
551,9	0,005
552,4	0,005
552,8	0,004
553,3	0,004
553,7	0,004
554,2	0,004
554,6	0,004
555,1	0,004
555,5	0,004
555,9	0,005
556,4	0,005
556,8	0,005
557,3	0,004
557,7	0,004
558,2	0,004
558,6	0,003
559,1	0,003
559,5	0,003
560	0,003
560,4	0,003
560,9	0,004
561,3	0,004
561,8	0,004
562,2	0,004
562,7	0,004
563,1	0,004
563,6	0,004
564	0,004
564,4	0,004
564,9	0,004
565,3	0,004
565,8	0,004
566,2	0,005
566,7	0,004
567,1	0,004
567,6	0,003
568	0,003
568,5	0,003
568,9	0,003
569,4	0,002
569,8	0,002
570,3	0,002
570,7	0,003
571,1	0,003
571,6	0,003
572	0,003
572,5	0,003
572,9	0,003
573,4	0,003
573,8	0,003
574,3	0,003
574,7	0,003
575,2	0,003
575,6	0,002
576,1	0,002
576,5	0,003
576,9	0,003
577,4	0,003
577,8	0,003
578,3	0,003
578,7	0,003
579,2	0,002
579,6	0,002
580,1	0,002
580,5	0,002
581	0,002
581,4	0,002
581,9	0,002
582,3	0,003
582,7	0,003
583,2	0,003
583,6	0,003
584,1	0,002
584,5	0,002
585	0,002
585,4	0,002
585,9	0,002
586,3	0,002
586,8	0,003
587,2	0,003
587,6	0,003
588,1	0,003
588,5	0,003
589	0,003
589,4	0,003
589,9	0,003
590,3	0,003
590,8	0,003
591,2	0,003
591,7	0,003
592,1	0,003
592,5	0,003
593	0,002
593,4	0,002
593,9	0,002
594,3	0,002
594,8	0,002
595,2	0,002
595,7	0,002
596,1	0,002
596,6	0,002
597	0,002
597,4	0,002
597,9	0,002
598,3	0,002
598,8	0,002
599,2	0,003
599,7	0,003
600,1	0,003
600,6	0,003
601	0,002
601,4	0,002
601,9	0,003
602,3	0,002
602,8	0,002
603,2	0,002
603,7	0,002
604,1	0,002
604,6	0,002
605	0,002
605,4	0,002
605,9	0,002
606,3	0,002
606,8	0,002
607,2	0,002
607,7	0,002
608,1	0,002
608,6	0,002
609	0,002
609,4	0,002
609,9	0,002
610,3	0,002
610,8	0,001
611,2	0,002
611,7	0,002
612,1	0,002
612,6	0,002
613	0,002
613,4	0,002
613,9	0,002
614,3	0,002
614,8	0,002
615,2	0,002
615,7	0,002
616,1	0,002
616,6	0,002
617	0,002
617,4	0,002
617,9	0,002
618,3	0,002
618,8	0,002
619,2	0,001
619,7	0,001
620,1	0,002
620,5	0,001
621	0,001
621,4	0,001
621,9	0,001
622,3	0,001
622,8	0,001
623,2	0,001
623,6	0,002
624,1	0,002
624,5	0,001
625	0,002
625,4	0,002
625,9	0,002
626,3	0,002
626,8	0,002
627,2	0,001
627,6	0,001
628,1	0,001
628,5	0,001
629	0,001
629,4	0,001
629,9	0,001
630,3	0,001
630,7	0,001
631,2	0,002
631,6	0,002
632,1	0,001
632,5	0,001
633	0,002
633,4	0,002
633,8	0,002
634,3	0,001
634,7	0,001
635,2	0,001
635,6	0,001
636,1	0
636,5	0
636,9	0
637,4	0,001
637,8	0,001
638,3	0,001
638,7	0,001
639,2	0,001
639,6	0,001
640	0,001
640,5	0,001
640,9	0,001
641,4	0
641,8	0
642,2	0
642,7	0
643,1	0
643,6	0,001
644	0,001
644,5	0,001
644,9	0,001
645,3	0,002
645,8	0,002
646,2	0,002
646,7	0,002
647,1	0,002
647,6	0,002
648	0,003
648,4	0,002
648,9	0,002
649,3	0,002
649,8	0,002
650,2	0,002
650,6	0,001
651,1	0,001
651,5	0,001
652	0,001
652,4	0,001
652,9	0
653,3	0
653,7	0,001
654,2	0
654,6	0
655,1	0
655,5	0
655,9	0
656,4	0
656,8	0,001
657,3	0,001
657,7	0,001
658,2	0,001
658,6	0,001
659	0,002
659,5	0,003
659,9	0,002
660,4	0,001
660,8	0,001
661,2	0,001
661,7	0,001
662,1	0,001
662,6	0,001
663	0,001
663,4	0,001
663,9	0,001
664,3	0,001
664,8	0,001
665,2	0,001
665,6	0,001
666,1	0,001
666,5	0,001
667	0,001
667,4	0,002
667,9	0,002
668,3	0,002
668,7	0,002
669,2	0,002
669,6	0,002
670,1	0,002
670,5	0,002
670,9	0,001
671,4	0,001
671,8	0
672,3	0
672,7	0
673,1	0
673,6	-0
674	0,001
674,5	0
674,9	0,001
675,3	0,001
675,8	0,001
676,2	0,001
676,7	0,001
677,1	0
677,5	0
678	0
678,4	-0
678,9	0
679,3	0,001
679,7	0,001
680,2	0,001
680,6	0,001
681,1	0,001
681,5	0,001
681,9	0,001
682,4	0,001
682,8	0,001
683,3	0,001
683,7	0,001
684,1	0,001
684,6	0,001
685	0,001
685,5	0
685,9	0
686,3	0,001
686,8	0
687,2	0,001
687,7	0,001
688,1	0,001
688,5	0,001
689	0,001
689,4	0,001
689,9	0,001
690,3	0,001
690,7	0,001
691,2	0,001
691,6	0
692	0
692,5	0
692,9	0
693,4	-0
693,8	0
694,2	0,001
694,7	0,001
695,1	0,001
695,6	0,001
696	0,002
696,4	0,001
696,9	0,001
697,3	0,001
697,8	0,001
698,2	0,001
698,6	0,001
699,1	0,001
699,5	0,001
699,9	0,001
700,4	0,001
700,8	0,001
701,3	0,001
701,7	0,001
702,1	0,001
702,6	0,001
703	0,001
703,5	0,001
703,9	0,001
704,3	0,001
704,8	0,001
705,2	0,001
705,6	0,001
706,1	0,001
706,5	0,002
707	0,001
707,4	0,002
707,8	0,002
708,3	0,002
708,7	0,001
709,2	0,001
709,6	0,001
710	0,001
710,5	0,001
710,9	0,001
711,3	0,001
711,8	0,001
712,2	0,001
712,7	0,001
713,1	0,001
713,5	0,001
714	0
714,4	0
714,8	-0
715,3	-0,001
715,7	-0
716,2	0
716,6	0
717	0,001
717,5	0
717,9	0
718,3	0
718,8	0
719,2	-0
719,7	0
720,1	0
720,5	0
721	0
721,4	0,001
721,8	0,001
722,3	0,001
722,7	0,001
723,2	0,001
723,6	0,001
724	0
724,5	0
724,9	-0
725,3	-0
725,8	-0
726,2	-0
726,7	-0
727,1	0
727,5	0
728	0
728,4	0
728,8	0
729,3	0
729,7	-0
730,1	-0
730,6	-0
731	-0
731,5	0
731,9	0
732,3	0,001
732,8	0,001
733,2	0,001
733,6	0,001
734,1	0,001
734,5	0,001
734,9	0,001
735,4	0,001
735,8	0,001
736,3	0,001
736,7	0,001
737,1	0
737,6	0
738	0
738,4	-0
738,9	-0
739,3	-0
739,7	-0
740,2	-0
740,6	-0
741,1	-0
741,5	-0
741,9	-0
742,4	-0,001
742,8	-0,001
743,2	-0,001
743,7	-0
744,1	-0,001
744,5	-0,001
745	-0
745,4	-0
745,8	0
746,3	0
746,7	0
747,2	0,001
747,6	0,001
748	0,001
748,5	0,001
748,9	0,001
749,3	0,001
749,8	0
750,2	0
750,6	-0
751,1	-0
751,5	0
751,9	0
752,4	-0
752,8	-0
753,3	-0
753,7	-0
754,1	-0,001
754,6	-0,001
755	-0,001
755,4	-0,001
755,9	-0,001
756,3	-0
756,7	-0
757,2	-0
757,6	-0
758	0
758,5	0
758,9	0
759,3	0
759,8	0
760,2	0
760,6	0
761,1	-0
761,5	-0
761,9	0
762,4	-0
762,8	-0
763,3	-0
763,7	-0
764,1	-0
764,6	-0
765	-0
765,4	-0,001
765,9	-0,001
766,3	-0
766,7	-0
767,2	0
767,6	0,001
768	0,001
768,5	0,001
768,9	0
769,3	0
769,8	-0
770,2	-0,001
770,6	-0
771,1	-0
771,5	-0
771,9	0
772,4	0
772,8	0,001
773,2	0,001
773,7	0,001
774,1	0,001
774,5	0,001
775	0,001
775,4	0,001
775,8	0
776,3	0
776,7	0
777,1	0
777,6	0
778	-0
778,4	0
778,9	0
779,3	0
779,7	0
780,2	0
780,6	0,001
781	0,001
781,5	0
781,9	0
782,3	-0
782,8	-0
783,2	-0
783,6	-0,001
784,1	-0,001
784,5	-0
784,9	0
785,4	0
785,8	0
786,2	0
786,7	0,001
787,1	0,001
787,5	0
788	0
788,4	-0
788,8	0
789,3	-0
789,7	-0
790,1	-0
790,6	0
791	0
791,4	0
791,9	0
792,3	0
792,7	0
793,2	0
793,6	-0
794	-0
794,5	-0
794,9	-0
795,3	-0
795,8	-0
796,2	-0
796,6	-0
797,1	-0
797,5	-0,001
797,9	-0
798,4	-0
798,8	-0
799,2	0
799,7	0
800,1	0,001
800,5	0,001
801	0,001
801,4	0,001
801,8	0,002
802,2	0,002
802,7	0,002
803,1	0,001
803,5	0,001
804	0
804,4	-0
804,8	-0,001
805,3	-0,001
805,7	-0,001
806,1	-0,001
806,6	-0,001
807	-0,001
807,4	-0
807,9	-0
808,3	0
808,7	0,001
809,2	0
809,6	0
810	0
810,4	0
810,9	0
811,3	0
811,7	0
812,2	0
812,6	0
813	0
813,5	0
813,9	0
814,3	0
814,8	0
815,2	-0
815,6	-0
816,1	-0
816,5	-0
816,9	-0
817,3	-0
817,8	-0
818,2	-0
818,6	0
819,1	0
819,5	0
819,9	0
820,4	0
820,8	0,001
821,2	0,001
821,7	0,001
822,1	0,001
822,5	0,001
822,9	0
823,4	0,001
823,8	0
824,2	-0
824,7	-0
825,1	-0
825,5	-0
826	-0
826,4	-0,001
826,8	-0
827,3	-0
827,7	-0,001
828,1	-0
828,5	-0,001
829	-0,001
829,4	-0,001
829,8	-0
830,3	-0
830,7	-0
831,1	-0
831,6	-0
832	0
832,4	0
832,8	-0
833,3	-0
833,7	-0
834,1	-0
834,6	-0
835	-0
835,4	-0
835,8	0
836,3	-0
836,7	0
837,1	0
837,6	0
838	0
838,4	0
838,9	0
839,3	-0
839,7	-0
840,1	-0,001
840,6	-0,001
841	-0,001
841,4	-0,001
841,9	-0
842,3	0
842,7	0,001
843,1	0,001
843,6	0,001
844	0,001
844,4	0,001
844,9	0,001
845,3	0,001
845,7	0,001
846,2	0,001
846,6	0,001
847	0,001
847,4	0,001
847,9	0,001
848,3	0
848,7	0
849,2	0
849,6	0
850	0
850,4	-0
850,9	0
851,3	0,001
851,7	0,001
852,2	0
852,6	0,001
853	0,001
853,4	0,001
853,9	0,001
854,3	0,001
854,7	0,001
855,2	0,002
855,6	0,001
856	0,001
856,4	0,001
856,9	0,001
857,3	0,001
857,7	0,001
858,2	0
858,6	-0
859	-0
859,4	-0
859,9	-0,001
860,3	-0,001
860,7	-0,001
861,1	-0,001
861,6	-0,001
862	-0
862,4	-0
862,9	-0
863,3	-0
863,7	0
864,1	0
864,6	0
865	0
865,4	0
865,9	0
866,3	0
866,7	0
867,1	-0
867,6	-0
868	0
868,4	0,001
868,8	0,001
869,3	0,001
869,7	0,001
870,1	0,002
870,6	0,002
871	0,002
871,4	0,002
871,8	0,002
872,3	0,003
872,7	0,002
873,1	0,002
873,5	0,002
874	0,002
874,4	0,002
874,8	0,001
875,3	0,001
875,7	0,001
876,1	0,001
876,5	0
877	-0
877,4	-0
877,8	-0
878,2	-0
878,7	-0
879,1	-0
879,5	0
879,9	0
880,4	0
880,8	0
881,2	-0
881,7	-0
882,1	-0
882,5	-0,001
882,9	-0
883,4	-0,001
883,8	-0,001
884,2	-0
884,6	-0,001
885,1	-0
885,5	-0
885,9	0
886,3	0,001
886,8	0,001
887,2	0,001
887,6	0,001
888	0,001
888,5	0
888,9	-0
889,3	-0
889,8	-0,001
890,2	-0
890,6	-0
891	0
891,5	0
891,9	0
892,3	-0
892,7	0
893,2	-0
893,6	-0
894	-0
894,4	-0
894,9	-0
895,3	0
895,7	-0
896,1	-0,001
896,6	-0
897	-0,001
897,4	-0,001
897,8	-0,001
898,3	-0,001
898,7	-0
899,1	-0
899,5	-0
900	-0
900,4	-0
900,8	-0
901,2	-0
901,7	-0,001
902,1	-0,001
902,5	-0,001
902,9	-0,001
903,4	-0
903,8	-0
904,2	-0
904,6	0
905,1	0
905,5	-0
905,9	-0
906,3	-0,001
906,8	-0,001
907,2	-0,001
907,6	-0,001
908	-0,001
908,5	-0,001
908,9	-0,001
909,3	-0,001
909,7	-0,001
910,2	-0,001
910,6	-0,001
911	-0,001
911,4	-0,001
911,9	-0,001
912,3	-0,001
912,7	-0,001
913,1	-0,001
913,6	-0,001
914	-0
914,4	-0
914,8	-0
915,3	0
915,7	0,001
916,1	0,001
916,5	0,001
916,9	0,001
917,4	0,001
917,8	0,001
918,2	0,001
918,6	0
919,1	-0,001
919,5	-0,001
919,9	-0,001
920,3	-0,001
920,8	-0,001
921,2	-0,001
921,6	-0,001
922	-0,001
922,5	-0,001
922,9	-0,001
923,3	-0,001
923,7	-0,001
924,2	-0
924,6	-0
925	-0
925,4	0
925,8	0,001
926,3	0,001
926,7	0,001
927,1	0,001
927,5	0,001
928	0,001
928,4	0,001
928,8	0
929,2	-0
929,7	0
930,1	0
930,5	0,001
930,9	0
931,3	0,001
931,8	0,001
932,2	0
932,6	-0
933	-0,001
933,5	-0,001
933,9	-0,001
934,3	-0,001
934,7	-0,001
935,2	-0,002
935,6	-0,001
936	-0,001
936,4	-0
936,8	-0
937,3	0
937,7	0
938,1	0,001
938,5	0
939	0
939,4	0
939,8	0
940,2	0,001
940,6	0,001
941,1	0,001
941,5	0,002
941,9	0,001
942,3	0,001
942,8	0,001
943,2	-0
943,6	-0,001
944	-0,001
944,4	-0,001
944,9	-0,001
945,3	0
945,7	-0
946,1	0,001
946,6	0,001
947	0,001
947,4	0,001
947,8	0
948,2	0
948,7	-0
949,1	-0
949,5	-0,001
949,9	-0
950,3	-0,001
950,8	-0,001
951,2	-0,001
951,6	-0
952	-0,001
952,5	-0
952,9	-0
953,3	0
953,7	0
954,1	0,001
954,6	-0
955	0
955,4	-0,001
955,8	-0
956,2	-0,001
956,7	-0,001
957,1	-0,001
957,5	-0,001
957,9	-0,002
958,3	-0,001
958,8	-0,001
959,2	-0,001
959,6	0
960	0,001
960,5	0,001
960,9	0,001
961,3	0,001
961,7	0,001
962,1	0,001
962,6	0
963	-0,001
963,4	-0,001
963,8	-0,001
964,2	-0
964,7	-0
965,1	0
965,5	0
965,9	0
966,3	0
966,8	0
967,2	-0
967,6	-0
968	-0
968,4	-0,001
968,9	-0,001
969,3	0
969,7	0
970,1	0,001
970,5	0
971	0
971,4	0
971,8	0
972,2	0
972,6	0
973,1	0
973,5	0
973,9	-0
974,3	0
974,7	-0,001
975,2	-0,001
975,6	-0,001
976	-0,001
976,4	-0,001
976,8	-0
977,3	-0
977,7	0
978,1	0
978,5	0
978,9	0
979,4	0
979,8	-0
980,2	-0
980,6	-0
981	-0,001
981,5	-0
981,9	-0
982,3	0
982,7	0,001
983,1	0,001
983,6	0,001
984	0,001
984,4	0,001
984,8	0,001
985,2	0,001
985,6	0
986,1	-0
986,5	-0,001
986,9	-0
987,3	-0
987,7	0
988,2	-0,001
988,6	-0
989	-0
989,4	-0
989,8	-0,001
990,3	-0,001
990,7	-0,001
991,1	-0
991,5	-0,001
991,9	-0
992,3	-0,001
992,8	-0
993,2	-0,001
993,6	-0,001
994	-0,001
994,4	-0,001
994,9	-0
995,3	0
995,7	0
996,1	0,001
996,5	0,001
996,9	0
997,4	-0
997,8	-0
998,2	-0
998,6	-0
999	0
999,5	-0
999,9	0
1000,3	0,001
1000,7	0,001
1001,1	0,001
1001,5	0
1002	-0
1002,4	0
1002,8	-0
1003,2	-0
1003,6	-0
1004	-0
1004,5	0
1004,9	0,001
1005,3	0,001
1005,7	0,001
1006,1	0
1006,6	0,001
1007	0,001
1007,4	-0
1007,8	0,001
1008,2	-0
1008,6	-0,001
1009,1	-0,001
1009,5	-0,002
1009,9	-0,002
1010,3	-0,001
1010,7	-0,002
1011,1	-0,001
1011,6	-0,001
1012	-0,001
1012,4	-0,001
1012,8	-0,001
1013,2	-0,001
1013,6	-0,001
1014,1	-0,001
1014,5	-0,001
1014,9	-0
1015,3	-0
1015,7	-0
1016,1	-0,001
1016,6	-0,001
1017	-0,001
1017,4	-0,001
1017,8	-0,001
1018,2	-0,001
1018,6	-0,001
1019,1	-0,001
1019,5	-0,002
1019,9	-0,002
1020,3	-0,003
1020,7	-0,003
1021,1	-0,002
1021,6	-0,002
1022	-0,001
1022,4	-0,002
1022,8	-0,001
1023,2	-0
1023,6	-0
1024,1	0
1024,5	-0
1024,9	0
1025,3	0,001
1025,7	0
1026,1	0
1026,6	0
1027	0
1027,4	0
1027,8	-0
1028,2	0
1028,6	0,001
1029	0
1029,5	-0,001
1029,9	-0,001
1030,3	-0,001
1030,7	-0,001
1031,1	-0,001
1031,5	-0,002
1032	-0,002
1032,4	-0,002
1032,8	-0,002
1033,2	-0,002
1033,6	-0,002
1034	-0,003
1034,4	-0,001
1034,9	-0,001
1035,3	-0,001
1035,7	-0,002
1036,1	-0,001
1036,5	-0,001
1036,9	-0
1037,4	-0,002
1037,8	-0,002
1038,2	-0,001
1038,6	-0,002
1039	-0,003
1039,4	-0,002
1039,8	-0,002
1040,3	-0,001
1040,7	-0,001
1041,1	-0,001
1041,5	-0
1041,9	0
1042,3	0
1042,7	-0,001
1043,2	-0,001
1043,6	-0,002
1044	-0,002
1044,4	-0,003
1044,8	-0,003
1045,2	-0,004
1045,6	-0,003
1046,1	-0,002
1046,5	-0,002
1046,9	-0,002
1047,3	-0,002
1047,7	-0,002
1048,1	-0,001
1048,5	-0,001
1049	-0,001
1049,4	-0,001
1049,8	-0,002
1050,2	-0,001
1050,6	-0
1051	-0,001
1051,4	-0,001
1051,9	-0,001
1052,3	-0,001
1052,7	-0,001
1053,1	-0,001
1053,5	-0,001
1053,9	0
1054,3	0
1054,8	0,001
1055,2	0
1055,6	0,002
1056	0,002
1056,4	0,002
1056,8	0,002
1057,2	0,002
1057,6	0,002
1058,1	0,002
1058,5	0,001
1058,9	0,001
1059,3	0
1059,7	-0,001
1060,1	-0,001
1060,5	-0,001
1061	-0,001
1061,4	-0,001
1061,8	-0,001
1062,2	-0
1062,6	0
1063	0,001
1063,4	0,001
1063,8	0,001
1064,3	0,001
1064,7	0,002
1065,1	0
1065,5	0,001
1065,9	0
1066,3	0,001
1066,7	0,001
1067,1	0,001
1067,6	0
1068	0,002
1068,4	0,001
1068,8	0
1069,2	-0
1069,6	-0
1070	-0
1070,4	-0
1070,9	-0,001
1071,3	-0,002
1071,7	-0,002
1072,1	-0,003
1072,5	-0,003
1072,9	-0,003
1073,3	-0,003
1073,7	-0,003
1074,2	-0,002
1074,6	-0
1075	0
1075,4	-0
1075,8	-0,001
1076,2	-0
1076,6	0
1077	-0,001
1077,5	-0,002
1077,9	-0,002
1078,3	-0,002
1078,7	-0,002
1079,1	-0,002
1079,5	-0,001
1079,9	0,001
1080,3	-0
1080,7	-0,001
1081,2	-0,001
1081,6	0,002
1082	0,002
1082,4	0,001
1082,8	-0,001
1083,2	0
1083,6	0,003
1084	0,003
1084,5	0
1084,9	0
1085,3	0,002
1085,7	0,003
1086,1	0,003
1086,5	0,001
1086,9	-0
1087,3	0,001
1087,7	0,002
1088,2	0,002
1088,6	-0
1089	-0,001
1089,4	0,001
1089,8	-0
1090,2	-0,001
1090,6	-0,001
1091	-0,002
1091,4	-0,003
1091,9	-0,002
1092,3	-0,002
1092,7	-0,001
1093,1	0,001
1093,5	-0,001
1093,9	-0,002
1094,3	-0
1094,7	-0,001
1095,1	-0,002
1095,5	0,001
1096	-0,001
1096,4	0,002
1096,8	0,001
1097,2	0,002
1097,6	0,003
1098	0,008
1098,4	0,006
1098,8	0,012
1099,2	0,006
1099,6	0,006
1100,1	0,011
1100,5	0,007
1100,9	-0,007
1101,3	-0,01
1101,7	-0,015
1102,1	-0,013
1102,5	-0,016
1102,9	-0,021
1103,3	-0,012
1103,7	-0,001
1104,2	0
1104,6	0,006
1105	0,009
1105,4	0,01
1105,8	0,01
1106,2	0,01
1106,6	0,013
1107	0,026
1107,4	0,009
1107,8	0,016
1108,3	0,486
