Data from Absorbance_00004.txt Node
Date: Thu Aug 10 15:33:15 MSK 2023
User: vat
Spectrometer: MAYP114033
Trigger mode: 0
Integration Time (sec): 8,000000E-3
Scans to average: 10
Electric dark correction enabled: true
Nonlinearity correction enabled: false
Boxcar width: 3
XAxis mode: Wavelengths
Number of Pixels in Spectrum: 2068
>>>>>Begin Spectral Data<<<<<
199,4	-0
199,9	0,626
200,4	0,748
200,8	0,953
201,3	1,016
201,8	1,045
202,2	1,026
202,7	1,057
203,2	1,112
203,6	1,14
204,1	1,164
204,6	1,157
205	1,197
205,5	1,248
206	1,258
206,4	1,279
206,9	1,297
207,4	1,318
207,8	1,357
208,3	1,335
208,8	1,351
209,2	1,358
209,7	1,341
210,2	1,35
210,6	1,357
211,1	1,369
211,5	1,378
212	1,391
212,5	1,402
212,9	1,421
213,4	1,448
213,9	1,449
214,3	1,446
214,8	1,49
215,3	1,497
215,7	1,526
216,2	1,559
216,7	1,553
217,1	1,57
217,6	1,603
218,1	1,612
218,5	1,605
219	1,618
219,5	1,627
219,9	1,637
220,4	1,656
220,9	1,673
221,3	1,681
221,8	1,706
222,3	1,729
222,7	1,754
223,2	1,791
223,6	1,813
224,1	1,805
224,6	1,837
225	1,864
225,5	1,863
226	1,876
226,4	1,876
226,9	1,884
227,4	1,942
227,8	1,919
228,3	1,931
228,8	1,946
229,2	1,961
229,7	1,985
230,2	2,007
230,6	2,003
231,1	2,011
231,5	2,033
232	2,033
232,5	2,034
232,9	2,02
233,4	2,046
233,9	2,059
234,3	2,076
234,8	2,072
235,3	2,083
235,7	2,09
236,2	2,125
236,7	2,1
237,1	2,097
237,6	2,134
238,1	2,131
238,5	2,178
239	2,193
239,4	2,212
239,9	2,23
240,4	2,241
240,8	2,232
241,3	2,246
241,8	2,223
242,2	2,247
242,7	2,22
243,2	2,227
243,6	2,216
244,1	2,227
244,6	2,223
245	2,228
245,5	2,199
245,9	2,17
246,4	2,167
246,9	2,175
247,3	2,172
247,8	2,18
248,3	2,167
248,7	2,176
249,2	2,235
249,7	2,241
250,1	2,243
250,6	2,246
251	2,255
251,5	2,26
252	2,263
252,4	2,252
252,9	2,255
253,4	2,249
253,8	2,245
254,3	2,224
254,8	2,246
255,2	2,253
255,7	2,265
256,1	2,279
256,6	2,298
257,1	2,297
257,5	2,328
258	2,308
258,5	2,308
258,9	2,314
259,4	2,343
259,9	2,358
260,3	2,358
260,8	2,379
261,2	2,391
261,7	2,38
262,2	2,381
262,6	2,368
263,1	2,351
263,6	2,355
264	2,324
264,5	2,312
264,9	2,353
265,4	2,343
265,9	2,319
266,3	2,305
266,8	2,309
267,3	2,303
267,7	2,316
268,2	2,292
268,7	2,284
269,1	2,276
269,6	2,291
270	2,303
270,5	2,304
271	2,302
271,4	2,299
271,9	2,323
272,4	2,329
272,8	2,34
273,3	2,293
273,7	2,315
274,2	2,327
274,7	2,327
275,1	2,293
275,6	2,305
276,1	2,3
276,5	2,346
277	2,344
277,4	2,324
277,9	2,331
278,4	2,345
278,8	2,332
279,3	2,312
279,8	2,302
280,2	2,312
280,7	2,321
281,1	2,342
281,6	2,346
282,1	2,349
282,5	2,362
283	2,345
283,4	2,313
283,9	2,327
284,4	2,309
284,8	2,313
285,3	2,328
285,8	2,326
286,2	2,313
286,7	2,331
287,1	2,318
287,6	2,313
288,1	2,323
288,5	2,318
289	2,309
289,5	2,308
289,9	2,297
290,4	2,285
290,8	2,254
291,3	2,196
291,8	2,129
292,2	2,085
292,7	2,029
293,1	1,958
293,6	1,886
294,1	1,821
294,5	1,759
295	1,71
295,5	1,65
295,9	1,598
296,4	1,551
296,8	1,51
297,3	1,47
297,8	1,442
298,2	1,41
298,7	1,386
299,1	1,362
299,6	1,341
300,1	1,319
300,5	1,304
301	1,284
301,5	1,272
301,9	1,255
302,4	1,243
302,8	1,23
303,3	1,221
303,8	1,21
304,2	1,198
304,7	1,186
305,1	1,178
305,6	1,169
306,1	1,16
306,5	1,148
307	1,138
307,4	1,129
307,9	1,121
308,4	1,112
308,8	1,103
309,3	1,094
309,8	1,086
310,2	1,079
310,7	1,069
311,1	1,06
311,6	1,052
312,1	1,043
312,5	1,036
313	1,029
313,4	1,022
313,9	1,014
314,4	1,007
314,8	0,998
315,3	0,991
315,7	0,982
316,2	0,974
316,7	0,964
317,1	0,957
317,6	0,949
318	0,942
318,5	0,934
319	0,925
319,4	0,918
319,9	0,911
320,3	0,904
320,8	0,897
321,3	0,89
321,7	0,884
322,2	0,878
322,6	0,87
323,1	0,863
323,6	0,856
324	0,848
324,5	0,841
324,9	0,834
325,4	0,826
325,9	0,819
326,3	0,812
326,8	0,806
327,2	0,8
327,7	0,792
328,2	0,785
328,6	0,778
329,1	0,772
329,5	0,766
330	0,758
330,5	0,752
330,9	0,744
331,4	0,737
331,8	0,731
332,3	0,723
332,8	0,717
333,2	0,711
333,7	0,702
334,1	0,696
334,6	0,69
335,1	0,683
335,5	0,676
336	0,666
336,4	0,659
336,9	0,653
337,4	0,646
337,8	0,639
338,3	0,632
338,7	0,626
339,2	0,621
339,7	0,614
340,1	0,607
340,6	0,6
341	0,594
341,5	0,586
342	0,58
342,4	0,573
342,9	0,566
343,3	0,561
343,8	0,555
344,2	0,548
344,7	0,542
345,2	0,536
345,6	0,529
346,1	0,523
346,5	0,518
347	0,512
347,5	0,506
347,9	0,5
348,4	0,494
348,8	0,489
349,3	0,483
349,8	0,477
350,2	0,47
350,7	0,465
351,1	0,459
351,6	0,453
352	0,448
352,5	0,443
353	0,437
353,4	0,431
353,9	0,425
354,3	0,42
354,8	0,415
355,3	0,41
355,7	0,405
356,2	0,4
356,6	0,395
357,1	0,39
357,5	0,385
358	0,381
358,5	0,376
358,9	0,37
359,4	0,366
359,8	0,361
360,3	0,357
360,8	0,352
361,2	0,348
361,7	0,344
362,1	0,34
362,6	0,336
363	0,331
363,5	0,327
364	0,324
364,4	0,321
364,9	0,317
365,3	0,313
365,8	0,31
366,3	0,307
366,7	0,304
367,2	0,3
367,6	0,297
368,1	0,294
368,5	0,291
369	0,288
369,5	0,284
369,9	0,281
370,4	0,278
370,8	0,275
371,3	0,272
371,7	0,27
372,2	0,267
372,7	0,265
373,1	0,263
373,6	0,261
374	0,259
374,5	0,256
374,9	0,254
375,4	0,251
375,9	0,249
376,3	0,246
376,8	0,243
377,2	0,241
377,7	0,239
378,2	0,236
378,6	0,233
379,1	0,231
379,5	0,229
380	0,227
380,4	0,225
380,9	0,222
381,4	0,22
381,8	0,218
382,3	0,216
382,7	0,214
383,2	0,212
383,6	0,21
384,1	0,208
384,6	0,206
385	0,204
385,5	0,201
385,9	0,198
386,4	0,196
386,8	0,194
387,3	0,192
387,7	0,191
388,2	0,188
388,7	0,187
389,1	0,185
389,6	0,184
390	0,182
390,5	0,181
390,9	0,18
391,4	0,178
391,9	0,176
392,3	0,175
392,8	0,173
393,2	0,172
393,7	0,17
394,1	0,168
394,6	0,168
395,1	0,166
395,5	0,164
396	0,164
396,4	0,163
396,9	0,162
397,3	0,16
397,8	0,159
398,2	0,158
398,7	0,158
399,2	0,156
399,6	0,155
400,1	0,154
400,5	0,153
401	0,152
401,4	0,151
401,9	0,15
402,4	0,149
402,8	0,148
403,3	0,148
403,7	0,147
404,2	0,146
404,6	0,145
405,1	0,145
405,5	0,145
406	0,144
406,5	0,144
406,9	0,143
407,4	0,142
407,8	0,141
408,3	0,14
408,7	0,14
409,2	0,139
409,6	0,138
410,1	0,137
410,6	0,137
411	0,137
411,5	0,136
411,9	0,135
412,4	0,134
412,8	0,134
413,3	0,133
413,7	0,133
414,2	0,132
414,7	0,132
415,1	0,131
415,6	0,131
416	0,131
416,5	0,13
416,9	0,129
417,4	0,129
417,8	0,128
418,3	0,128
418,8	0,128
419,2	0,127
419,7	0,127
420,1	0,127
420,6	0,126
421	0,125
421,5	0,125
421,9	0,124
422,4	0,123
422,8	0,122
423,3	0,122
423,8	0,122
424,2	0,121
424,7	0,121
425,1	0,121
425,6	0,12
426	0,12
426,5	0,119
426,9	0,119
427,4	0,118
427,9	0,118
428,3	0,117
428,8	0,117
429,2	0,116
429,7	0,117
430,1	0,116
430,6	0,116
431	0,116
431,5	0,116
431,9	0,116
432,4	0,115
432,8	0,114
433,3	0,114
433,8	0,114
434,2	0,113
434,7	0,112
435,1	0,111
435,6	0,112
436	0,111
436,5	0,111
436,9	0,11
437,4	0,11
437,8	0,11
438,3	0,11
438,8	0,109
439,2	0,109
439,7	0,109
440,1	0,109
440,6	0,109
441	0,109
441,5	0,108
441,9	0,107
442,4	0,107
442,8	0,107
443,3	0,107
443,7	0,106
444,2	0,106
444,7	0,106
445,1	0,106
445,6	0,106
446	0,105
446,5	0,105
446,9	0,104
447,4	0,104
447,8	0,104
448,3	0,103
448,7	0,102
449,2	0,103
449,6	0,102
450,1	0,103
450,6	0,103
451	0,103
451,5	0,103
451,9	0,103
452,4	0,103
452,8	0,103
453,3	0,102
453,7	0,101
454,2	0,101
454,6	0,1
455,1	0,099
455,5	0,099
456	0,099
456,4	0,098
456,9	0,098
457,3	0,098
457,8	0,098
458,3	0,098
458,7	0,098
459,2	0,097
459,6	0,098
460,1	0,098
460,5	0,097
461	0,097
461,4	0,097
461,9	0,096
462,3	0,097
462,8	0,096
463,2	0,095
463,7	0,096
464,1	0,095
464,6	0,095
465	0,095
465,5	0,094
466	0,094
466,4	0,094
466,9	0,093
467,3	0,094
467,8	0,094
468,2	0,094
468,7	0,094
469,1	0,093
469,6	0,094
470	0,093
470,5	0,092
470,9	0,092
471,4	0,092
471,8	0,091
472,3	0,091
472,7	0,091
473,2	0,091
473,6	0,091
474,1	0,091
474,5	0,091
475	0,091
475,4	0,09
475,9	0,09
476,4	0,09
476,8	0,09
477,3	0,09
477,7	0,089
478,2	0,089
478,6	0,088
479,1	0,088
479,5	0,088
480	0,088
480,4	0,088
480,9	0,089
481,3	0,088
481,8	0,089
482,2	0,089
482,7	0,089
483,1	0,089
483,6	0,089
484	0,088
484,5	0,089
484,9	0,088
485,4	0,088
485,8	0,088
486,3	0,086
486,7	0,086
487,2	0,086
487,6	0,087
488,1	0,087
488,5	0,087
489	0,086
489,4	0,088
489,9	0,088
490,4	0,088
490,8	0,087
491,3	0,087
491,7	0,086
492,2	0,087
492,6	0,086
493,1	0,086
493,5	0,086
494	0,086
494,4	0,085
494,9	0,085
495,3	0,085
495,8	0,084
496,2	0,084
496,7	0,084
497,1	0,084
497,6	0,084
498	0,084
498,5	0,084
498,9	0,084
499,4	0,084
499,8	0,084
500,3	0,084
500,7	0,083
501,2	0,083
501,6	0,083
502,1	0,083
502,5	0,083
503	0,083
503,4	0,084
503,9	0,084
504,3	0,084
504,8	0,084
505,2	0,084
505,7	0,083
506,1	0,083
506,6	0,083
507	0,083
507,5	0,082
507,9	0,083
508,4	0,083
508,8	0,082
509,3	0,082
509,7	0,082
510,2	0,083
510,6	0,083
511,1	0,082
511,5	0,082
512	0,082
512,4	0,083
512,9	0,082
513,3	0,082
513,8	0,082
514,2	0,082
514,7	0,082
515,1	0,082
515,6	0,082
516	0,081
516,5	0,082
516,9	0,082
517,4	0,082
517,8	0,082
518,3	0,082
518,7	0,082
519,2	0,082
519,6	0,081
520,1	0,081
520,5	0,081
521	0,081
521,4	0,081
521,9	0,08
522,3	0,08
522,8	0,08
523,2	0,08
523,7	0,08
524,1	0,079
524,6	0,08
525	0,079
525,5	0,08
525,9	0,079
526,4	0,079
526,8	0,079
527,3	0,079
527,7	0,08
528,2	0,079
528,6	0,08
529,1	0,08
529,5	0,08
530	0,08
530,4	0,081
530,9	0,08
531,3	0,081
531,8	0,08
532,2	0,08
532,6	0,08
533,1	0,08
533,5	0,08
534	0,08
534,4	0,08
534,9	0,081
535,3	0,08
535,8	0,08
536,2	0,08
536,7	0,079
537,1	0,08
537,6	0,079
538	0,079
538,5	0,078
538,9	0,079
539,4	0,079
539,8	0,078
540,3	0,078
540,7	0,078
541,2	0,077
541,6	0,077
542,1	0,076
542,5	0,076
543	0,076
543,4	0,076
543,9	0,076
544,3	0,077
544,8	0,077
545,2	0,077
545,7	0,077
546,1	0,078
546,5	0,079
547	0,079
547,4	0,078
547,9	0,078
548,3	0,078
548,8	0,077
549,2	0,077
549,7	0,076
550,1	0,076
550,6	0,076
551	0,076
551,5	0,076
551,9	0,076
552,4	0,076
552,8	0,075
553,3	0,076
553,7	0,075
554,2	0,076
554,6	0,076
555,1	0,076
555,5	0,076
555,9	0,076
556,4	0,076
556,8	0,076
557,3	0,075
557,7	0,075
558,2	0,074
558,6	0,075
559,1	0,074
559,5	0,074
560	0,074
560,4	0,074
560,9	0,073
561,3	0,074
561,8	0,073
562,2	0,073
562,7	0,073
563,1	0,072
563,6	0,072
564	0,072
564,4	0,072
564,9	0,071
565,3	0,072
565,8	0,071
566,2	0,071
566,7	0,071
567,1	0,071
567,6	0,071
568	0,07
568,5	0,07
568,9	0,07
569,4	0,07
569,8	0,07
570,3	0,07
570,7	0,07
571,1	0,07
571,6	0,07
572	0,07
572,5	0,07
572,9	0,07
573,4	0,069
573,8	0,069
574,3	0,069
574,7	0,068
575,2	0,068
575,6	0,068
576,1	0,068
576,5	0,068
576,9	0,068
577,4	0,068
577,8	0,068
578,3	0,068
578,7	0,068
579,2	0,068
579,6	0,068
580,1	0,067
580,5	0,067
581	0,067
581,4	0,066
581,9	0,066
582,3	0,065
582,7	0,065
583,2	0,066
583,6	0,066
584,1	0,066
584,5	0,066
585	0,066
585,4	0,066
585,9	0,066
586,3	0,066
586,8	0,066
587,2	0,066
587,6	0,066
588,1	0,066
588,5	0,066
589	0,065
589,4	0,066
589,9	0,065
590,3	0,065
590,8	0,065
591,2	0,065
591,7	0,065
592,1	0,065
592,5	0,065
593	0,064
593,4	0,064
593,9	0,063
594,3	0,063
594,8	0,063
595,2	0,062
595,7	0,062
596,1	0,063
596,6	0,063
597	0,063
597,4	0,063
597,9	0,062
598,3	0,063
598,8	0,062
599,2	0,062
599,7	0,061
600,1	0,061
600,6	0,061
601	0,061
601,4	0,06
601,9	0,061
602,3	0,061
602,8	0,061
603,2	0,061
603,7	0,061
604,1	0,061
604,6	0,061
605	0,06
605,4	0,06
605,9	0,06
606,3	0,06
606,8	0,06
607,2	0,06
607,7	0,059
608,1	0,059
608,6	0,059
609	0,059
609,4	0,059
609,9	0,058
610,3	0,058
610,8	0,058
611,2	0,058
611,7	0,058
612,1	0,058
612,6	0,057
613	0,058
613,4	0,058
613,9	0,057
614,3	0,057
614,8	0,058
615,2	0,058
615,7	0,057
616,1	0,057
616,6	0,057
617	0,057
617,4	0,057
617,9	0,057
618,3	0,057
618,8	0,057
619,2	0,057
619,7	0,057
620,1	0,056
620,5	0,056
621	0,057
621,4	0,056
621,9	0,056
622,3	0,056
622,8	0,056
623,2	0,056
623,6	0,055
624,1	0,055
624,5	0,055
625	0,054
625,4	0,055
625,9	0,054
626,3	0,054
626,8	0,055
627,2	0,054
627,6	0,055
628,1	0,055
628,5	0,055
629	0,055
629,4	0,055
629,9	0,054
630,3	0,054
630,7	0,054
631,2	0,054
631,6	0,054
632,1	0,054
632,5	0,054
633	0,054
633,4	0,053
633,8	0,053
634,3	0,053
634,7	0,053
635,2	0,052
635,6	0,052
636,1	0,052
636,5	0,053
636,9	0,053
637,4	0,053
637,8	0,053
638,3	0,053
638,7	0,053
639,2	0,053
639,6	0,053
640	0,052
640,5	0,052
640,9	0,052
641,4	0,052
641,8	0,052
642,2	0,053
642,7	0,052
643,1	0,052
643,6	0,052
644	0,052
644,5	0,052
644,9	0,052
645,3	0,052
645,8	0,052
646,2	0,051
646,7	0,051
647,1	0,051
647,6	0,051
648	0,05
648,4	0,05
648,9	0,05
649,3	0,05
649,8	0,05
650,2	0,05
650,6	0,05
651,1	0,05
651,5	0,05
652	0,049
652,4	0,05
652,9	0,049
653,3	0,049
653,7	0,048
654,2	0,049
654,6	0,049
655,1	0,05
655,5	0,048
655,9	0,033
656,4	0,024
656,8	0,029
657,3	0,03
657,7	0,03
658,2	0,028
658,6	0,025
659	0,036
659,5	0,06
659,9	0,056
660,4	0,053
660,8	0,052
661,2	0,051
661,7	0,05
662,1	0,05
662,6	0,05
663	0,049
663,4	0,05
663,9	0,049
664,3	0,049
664,8	0,048
665,2	0,048
665,6	0,048
666,1	0,048
666,5	0,048
667	0,047
667,4	0,047
667,9	0,047
668,3	0,047
668,7	0,047
669,2	0,046
669,6	0,046
670,1	0,046
670,5	0,046
670,9	0,046
671,4	0,046
671,8	0,046
672,3	0,046
672,7	0,046
673,1	0,046
673,6	0,046
674	0,046
674,5	0,046
674,9	0,047
675,3	0,047
675,8	0,047
676,2	0,047
676,7	0,046
677,1	0,046
677,5	0,046
678	0,045
678,4	0,045
678,9	0,045
679,3	0,045
679,7	0,045
680,2	0,046
680,6	0,046
681,1	0,046
681,5	0,046
681,9	0,046
682,4	0,046
682,8	0,046
683,3	0,045
683,7	0,045
684,1	0,045
684,6	0,045
685	0,044
685,5	0,044
685,9	0,044
686,3	0,044
686,8	0,044
687,2	0,044
687,7	0,044
688,1	0,044
688,5	0,044
689	0,044
689,4	0,044
689,9	0,044
690,3	0,044
690,7	0,044
691,2	0,044
691,6	0,044
692	0,045
692,5	0,045
692,9	0,045
693,4	0,045
693,8	0,045
694,2	0,044
694,7	0,044
695,1	0,044
695,6	0,044
696	0,044
696,4	0,044
696,9	0,044
697,3	0,044
697,8	0,043
698,2	0,043
698,6	0,043
699,1	0,043
699,5	0,043
699,9	0,043
700,4	0,043
700,8	0,043
701,3	0,043
701,7	0,043
702,1	0,043
702,6	0,043
703	0,043
703,5	0,043
703,9	0,043
704,3	0,043
704,8	0,043
705,2	0,043
705,6	0,043
706,1	0,043
706,5	0,043
707	0,043
707,4	0,042
707,8	0,042
708,3	0,042
708,7	0,042
709,2	0,041
709,6	0,042
710	0,042
710,5	0,042
710,9	0,042
711,3	0,042
711,8	0,042
712,2	0,042
712,7	0,042
713,1	0,042
713,5	0,041
714	0,041
714,4	0,041
714,8	0,042
715,3	0,041
715,7	0,041
716,2	0,041
716,6	0,041
717	0,041
717,5	0,041
717,9	0,041
718,3	0,041
718,8	0,042
719,2	0,042
719,7	0,041
720,1	0,042
720,5	0,042
721	0,041
721,4	0,041
721,8	0,041
722,3	0,041
722,7	0,041
723,2	0,04
723,6	0,04
724	0,039
724,5	0,039
724,9	0,039
725,3	0,039
725,8	0,039
726,2	0,039
726,7	0,04
727,1	0,04
727,5	0,04
728	0,04
728,4	0,04
728,8	0,039
729,3	0,039
729,7	0,039
730,1	0,038
730,6	0,038
731	0,038
731,5	0,039
731,9	0,038
732,3	0,038
732,8	0,038
733,2	0,039
733,6	0,039
734,1	0,038
734,5	0,039
734,9	0,039
735,4	0,039
735,8	0,039
736,3	0,039
736,7	0,039
737,1	0,039
737,6	0,039
738	0,039
738,4	0,039
738,9	0,039
739,3	0,039
739,7	0,039
740,2	0,039
740,6	0,039
741,1	0,039
741,5	0,039
741,9	0,039
742,4	0,039
742,8	0,039
743,2	0,039
743,7	0,039
744,1	0,039
744,5	0,038
745	0,038
745,4	0,038
745,8	0,038
746,3	0,038
746,7	0,037
747,2	0,037
747,6	0,037
748	0,037
748,5	0,037
748,9	0,037
749,3	0,037
749,8	0,037
750,2	0,037
750,6	0,037
751,1	0,036
751,5	0,037
751,9	0,037
752,4	0,036
752,8	0,036
753,3	0,037
753,7	0,037
754,1	0,037
754,6	0,037
755	0,037
755,4	0,037
755,9	0,036
756,3	0,036
756,7	0,036
757,2	0,036
757,6	0,036
758	0,036
758,5	0,036
758,9	0,036
759,3	0,036
759,8	0,036
760,2	0,036
760,6	0,035
761,1	0,036
761,5	0,036
761,9	0,036
762,4	0,036
762,8	0,036
763,3	0,036
763,7	0,036
764,1	0,035
764,6	0,035
765	0,035
765,4	0,035
765,9	0,035
766,3	0,035
766,7	0,035
767,2	0,035
767,6	0,035
768	0,035
768,5	0,035
768,9	0,035
769,3	0,035
769,8	0,035
770,2	0,035
770,6	0,034
771,1	0,034
771,5	0,034
771,9	0,034
772,4	0,034
772,8	0,034
773,2	0,034
773,7	0,034
774,1	0,035
774,5	0,035
775	0,035
775,4	0,035
775,8	0,035
776,3	0,035
776,7	0,035
777,1	0,035
777,6	0,036
778	0,035
778,4	0,035
778,9	0,035
779,3	0,035
779,7	0,035
780,2	0,035
780,6	0,034
781	0,035
781,5	0,035
781,9	0,035
782,3	0,035
782,8	0,035
783,2	0,035
783,6	0,034
784,1	0,034
784,5	0,034
784,9	0,034
785,4	0,034
785,8	0,034
786,2	0,034
786,7	0,035
787,1	0,035
787,5	0,035
788	0,035
788,4	0,035
788,8	0,034
789,3	0,034
789,7	0,033
790,1	0,034
790,6	0,033
791	0,033
791,4	0,034
791,9	0,034
792,3	0,034
792,7	0,034
793,2	0,034
793,6	0,034
794	0,034
794,5	0,034
794,9	0,034
795,3	0,033
795,8	0,034
796,2	0,034
796,6	0,034
797,1	0,034
797,5	0,033
797,9	0,033
798,4	0,033
798,8	0,033
799,2	0,033
799,7	0,033
800,1	0,033
800,5	0,033
801	0,033
801,4	0,033
801,8	0,033
802,2	0,033
802,7	0,033
803,1	0,033
803,5	0,033
804	0,033
804,4	0,033
804,8	0,033
805,3	0,033
805,7	0,032
806,1	0,032
806,6	0,032
807	0,032
807,4	0,032
807,9	0,032
808,3	0,032
808,7	0,032
809,2	0,032
809,6	0,032
810	0,032
810,4	0,032
810,9	0,032
811,3	0,032
811,7	0,032
812,2	0,032
812,6	0,032
813	0,032
813,5	0,032
813,9	0,033
814,3	0,032
814,8	0,033
815,2	0,032
815,6	0,032
816,1	0,032
816,5	0,031
816,9	0,031
817,3	0,031
817,8	0,03
818,2	0,031
818,6	0,031
819,1	0,03
819,5	0,031
819,9	0,031
820,4	0,031
820,8	0,031
821,2	0,031
821,7	0,032
822,1	0,031
822,5	0,031
822,9	0,031
823,4	0,031
823,8	0,031
824,2	0,031
824,7	0,031
825,1	0,031
825,5	0,032
826	0,032
826,4	0,032
826,8	0,032
827,3	0,032
827,7	0,032
828,1	0,032
828,5	0,032
829	0,032
829,4	0,032
829,8	0,032
830,3	0,031
830,7	0,031
831,1	0,03
831,6	0,03
832	0,03
832,4	0,03
832,8	0,03
833,3	0,03
833,7	0,03
834,1	0,03
834,6	0,03
835	0,03
835,4	0,03
835,8	0,03
836,3	0,03
836,7	0,03
837,1	0,03
837,6	0,03
838	0,03
838,4	0,03
838,9	0,029
839,3	0,029
839,7	0,029
840,1	0,029
840,6	0,029
841	0,029
841,4	0,03
841,9	0,03
842,3	0,03
842,7	0,03
843,1	0,029
843,6	0,03
844	0,03
844,4	0,03
844,9	0,03
845,3	0,03
845,7	0,03
846,2	0,03
846,6	0,03
847	0,03
847,4	0,03
847,9	0,03
848,3	0,03
848,7	0,03
849,2	0,03
849,6	0,03
850	0,03
850,4	0,03
850,9	0,03
851,3	0,03
851,7	0,03
852,2	0,03
852,6	0,03
853	0,03
853,4	0,03
853,9	0,03
854,3	0,03
854,7	0,03
855,2	0,03
855,6	0,03
856	0,03
856,4	0,03
856,9	0,03
857,3	0,03
857,7	0,03
858,2	0,03
858,6	0,029
859	0,029
859,4	0,029
859,9	0,029
860,3	0,029
860,7	0,028
861,1	0,029
861,6	0,029
862	0,029
862,4	0,029
862,9	0,029
863,3	0,029
863,7	0,029
864,1	0,029
864,6	0,029
865	0,029
865,4	0,029
865,9	0,029
866,3	0,029
866,7	0,029
867,1	0,029
867,6	0,029
868	0,029
868,4	0,028
868,8	0,028
869,3	0,028
869,7	0,028
870,1	0,028
870,6	0,028
871	0,028
871,4	0,028
871,8	0,029
872,3	0,029
872,7	0,029
873,1	0,029
873,5	0,029
874	0,029
874,4	0,029
874,8	0,028
875,3	0,028
875,7	0,028
876,1	0,028
876,5	0,028
877	0,028
877,4	0,028
877,8	0,027
878,2	0,027
878,7	0,027
879,1	0,027
879,5	0,027
879,9	0,027
880,4	0,027
880,8	0,027
881,2	0,027
881,7	0,027
882,1	0,027
882,5	0,027
882,9	0,027
883,4	0,027
883,8	0,027
884,2	0,027
884,6	0,028
885,1	0,027
885,5	0,027
885,9	0,027
886,3	0,027
886,8	0,027
887,2	0,027
887,6	0,027
888	0,027
888,5	0,027
888,9	0,027
889,3	0,027
889,8	0,027
890,2	0,027
890,6	0,027
891	0,027
891,5	0,027
891,9	0,027
892,3	0,027
892,7	0,027
893,2	0,027
893,6	0,027
894	0,027
894,4	0,026
894,9	0,026
895,3	0,026
895,7	0,026
896,1	0,026
896,6	0,026
897	0,026
897,4	0,026
897,8	0,026
898,3	0,026
898,7	0,026
899,1	0,026
899,5	0,026
900	0,026
900,4	0,026
900,8	0,026
901,2	0,026
901,7	0,026
902,1	0,026
902,5	0,026
902,9	0,026
903,4	0,027
903,8	0,027
904,2	0,027
904,6	0,026
905,1	0,026
905,5	0,026
905,9	0,026
906,3	0,026
906,8	0,026
907,2	0,025
907,6	0,025
908	0,026
908,5	0,025
908,9	0,025
909,3	0,025
909,7	0,026
910,2	0,026
910,6	0,026
911	0,026
911,4	0,026
911,9	0,026
912,3	0,026
912,7	0,026
913,1	0,026
913,6	0,026
914	0,026
914,4	0,026
914,8	0,027
915,3	0,026
915,7	0,026
916,1	0,026
916,5	0,026
916,9	0,026
917,4	0,025
917,8	0,025
918,2	0,025
918,6	0,025
919,1	0,025
919,5	0,024
919,9	0,024
920,3	0,025
920,8	0,025
921,2	0,025
921,6	0,026
922	0,026
922,5	0,026
922,9	0,026
923,3	0,026
923,7	0,026
924,2	0,026
924,6	0,025
925	0,025
925,4	0,026
925,8	0,026
926,3	0,026
926,7	0,026
927,1	0,025
927,5	0,025
928	0,025
928,4	0,025
928,8	0,025
929,2	0,025
929,7	0,025
930,1	0,025
930,5	0,025
930,9	0,025
931,3	0,025
931,8	0,025
932,2	0,025
932,6	0,024
933	0,024
933,5	0,024
933,9	0,024
934,3	0,024
934,7	0,024
935,2	0,024
935,6	0,024
936	0,024
936,4	0,024
936,8	0,024
937,3	0,025
937,7	0,025
938,1	0,025
938,5	0,025
939	0,026
939,4	0,026
939,8	0,025
940,2	0,025
940,6	0,025
941,1	0,025
941,5	0,025
941,9	0,024
942,3	0,025
942,8	0,025
943,2	0,024
943,6	0,024
944	0,024
944,4	0,024
944,9	0,024
945,3	0,023
945,7	0,022
946,1	0,023
946,6	0,023
947	0,023
947,4	0,023
947,8	0,023
948,2	0,023
948,7	0,023
949,1	0,023
949,5	0,024
949,9	0,024
950,3	0,024
950,8	0,025
951,2	0,025
951,6	0,025
952	0,024
952,5	0,025
952,9	0,025
953,3	0,024
953,7	0,024
954,1	0,024
954,6	0,025
955	0,024
955,4	0,025
955,8	0,025
956,2	0,025
956,7	0,025
957,1	0,025
957,5	0,025
957,9	0,026
958,3	0,025
958,8	0,026
959,2	0,026
959,6	0,025
960	0,025
960,5	0,024
960,9	0,024
961,3	0,024
961,7	0,024
962,1	0,024
962,6	0,024
963	0,025
963,4	0,025
963,8	0,025
964,2	0,025
964,7	0,025
965,1	0,025
965,5	0,024
965,9	0,024
966,3	0,025
966,8	0,026
967,2	0,026
967,6	0,026
968	0,026
968,4	0,027
968,9	0,027
969,3	0,026
969,7	0,026
970,1	0,026
970,5	0,026
971	0,026
971,4	0,026
971,8	0,025
972,2	0,026
972,6	0,025
973,1	0,024
973,5	0,024
973,9	0,024
974,3	0,024
974,7	0,024
975,2	0,023
975,6	0,024
976	0,024
976,4	0,024
976,8	0,023
977,3	0,023
977,7	0,023
978,1	0,023
978,5	0,023
978,9	0,024
979,4	0,024
979,8	0,024
980,2	0,024
980,6	0,024
981	0,024
981,5	0,023
981,9	0,023
982,3	0,024
982,7	0,024
983,1	0,024
983,6	0,023
984	0,024
984,4	0,024
984,8	0,024
985,2	0,024
985,6	0,025
986,1	0,025
986,5	0,026
986,9	0,026
987,3	0,026
987,7	0,026
988,2	0,026
988,6	0,026
989	0,026
989,4	0,026
989,8	0,025
990,3	0,025
990,7	0,025
991,1	0,025
991,5	0,025
991,9	0,025
992,3	0,024
992,8	0,024
993,2	0,024
993,6	0,023
994	0,023
994,4	0,024
994,9	0,023
995,3	0,023
995,7	0,023
996,1	0,024
996,5	0,024
996,9	0,024
997,4	0,024
997,8	0,024
998,2	0,024
998,6	0,023
999	0,022
999,5	0,022
999,9	0,023
1000,3	0,022
1000,7	0,022
1001,1	0,023
1001,5	0,022
1002	0,023
1002,4	0,022
1002,8	0,022
1003,2	0,022
1003,6	0,021
1004	0,021
1004,5	0,021
1004,9	0,022
1005,3	0,022
1005,7	0,021
1006,1	0,022
1006,6	0,022
1007	0,022
1007,4	0,022
1007,8	0,021
1008,2	0,021
1008,6	0,021
1009,1	0,022
1009,5	0,021
1009,9	0,021
1010,3	0,022
1010,7	0,022
1011,1	0,022
1011,6	0,022
1012	0,022
1012,4	0,022
1012,8	0,022
1013,2	0,021
1013,6	0,021
1014,1	0,021
1014,5	0,021
1014,9	0,021
1015,3	0,021
1015,7	0,021
1016,1	0,022
1016,6	0,022
1017	0,022
1017,4	0,022
1017,8	0,021
1018,2	0,021
1018,6	0,021
1019,1	0,021
1019,5	0,021
1019,9	0,021
1020,3	0,021
1020,7	0,021
1021,1	0,022
1021,6	0,021
1022	0,021
1022,4	0,02
1022,8	0,02
1023,2	0,02
1023,6	0,02
1024,1	0,02
1024,5	0,02
1024,9	0,02
1025,3	0,02
1025,7	0,019
1026,1	0,019
1026,6	0,02
1027	0,019
1027,4	0,019
1027,8	0,019
1028,2	0,019
1028,6	0,019
1029	0,02
1029,5	0,02
1029,9	0,021
1030,3	0,02
1030,7	0,021
1031,1	0,021
1031,5	0,022
1032	0,022
1032,4	0,021
1032,8	0,021
1033,2	0,022
1033,6	0,022
1034	0,022
1034,4	0,021
1034,9	0,022
1035,3	0,021
1035,7	0,021
1036,1	0,021
1036,5	0,02
1036,9	0,02
1037,4	0,021
1037,8	0,021
1038,2	0,021
1038,6	0,021
1039	0,021
1039,4	0,022
1039,8	0,023
1040,3	0,023
1040,7	0,022
1041,1	0,023
1041,5	0,022
1041,9	0,022
1042,3	0,021
1042,7	0,021
1043,2	0,021
1043,6	0,021
1044	0,021
1044,4	0,021
1044,8	0,021
1045,2	0,021
1045,6	0,021
1046,1	0,021
1046,5	0,02
1046,9	0,021
1047,3	0,021
1047,7	0,021
1048,1	0,021
1048,5	0,021
1049	0,02
1049,4	0,021
1049,8	0,021
1050,2	0,021
1050,6	0,022
1051	0,023
1051,4	0,023
1051,9	0,023
1052,3	0,022
1052,7	0,021
1053,1	0,02
1053,5	0,019
1053,9	0,019
1054,3	0,019
1054,8	0,02
1055,2	0,02
1055,6	0,019
1056	0,02
1056,4	0,02
1056,8	0,021
1057,2	0,021
1057,6	0,021
1058,1	0,021
1058,5	0,021
1058,9	0,021
1059,3	0,02
1059,7	0,02
1060,1	0,019
1060,5	0,019
1061	0,019
1061,4	0,019
1061,8	0,019
1062,2	0,02
1062,6	0,021
1063	0,021
1063,4	0,021
1063,8	0,021
1064,3	0,022
1064,7	0,023
1065,1	0,023
1065,5	0,022
1065,9	0,022
1066,3	0,022
1066,7	0,023
1067,1	0,021
1067,6	0,021
1068	0,021
1068,4	0,021
1068,8	0,02
1069,2	0,02
1069,6	0,02
1070	0,021
1070,4	0,02
1070,9	0,018
1071,3	0,019
1071,7	0,021
1072,1	0,022
1072,5	0,021
1072,9	0,022
1073,3	0,022
1073,7	0,023
1074,2	0,023
1074,6	0,022
1075	0,022
1075,4	0,022
1075,8	0,022
1076,2	0,021
1076,6	0,02
1077	0,02
1077,5	0,019
1077,9	0,018
1078,3	0,018
1078,7	0,016
1079,1	0,016
1079,5	0,016
1079,9	0,016
1080,3	0,017
1080,7	0,016
1081,2	0,018
1081,6	0,019
1082	0,021
1082,4	0,022
1082,8	0,022
1083,2	0,023
1083,6	0,022
1084	0,022
1084,5	0,022
1084,9	0,02
1085,3	0,02
1085,7	0,02
1086,1	0,02
1086,5	0,021
1086,9	0,02
1087,3	0,02
1087,7	0,021
1088,2	0,02
1088,6	0,02
1089	0,019
1089,4	0,022
1089,8	0,022
1090,2	0,024
1090,6	0,023
1091	0,02
1091,4	0,021
1091,9	0,023
1092,3	0,019
1092,7	0,022
1093,1	0,02
1093,5	0,022
1093,9	0,029
1094,3	0,034
1094,7	0,033
1095,1	0,036
1095,5	0,031
1096	0,031
1096,4	0,027
1096,8	0,024
1097,2	0,019
1097,6	0,026
1098	0,025
1098,4	0,027
1098,8	0,032
1099,2	0,04
1099,6	0,038
1100,1	0,036
1100,5	0,028
1100,9	0,023
1101,3	0,022
1101,7	0,024
1102,1	0,021
1102,5	0,017
1102,9	0,022
1103,3	0,023
1103,7	0,039
1104,2	0,046
1104,6	0,048
1105	0,044
1105,4	0,06
1105,8	0,055
1106,2	0,059
1106,6	0,051
1107	0,034
1107,4	0,023
1107,8	0,045
1108,3	-0
