Data from Absorbance_00004.txt Node
Date: Thu Aug 10 15:58:13 MSK 2023
User: vat
Spectrometer: MAYP114033
Trigger mode: 0
Integration Time (sec): 8,000000E-3
Scans to average: 10
Electric dark correction enabled: true
Nonlinearity correction enabled: false
Boxcar width: 3
XAxis mode: Wavelengths
Number of Pixels in Spectrum: 2068
>>>>>Begin Spectral Data<<<<<
199,4	0,088
199,9	1,428
200,4	0,783
200,8	0,966
201,3	1,005
201,8	1,058
202,2	1,065
202,7	1,079
203,2	1,106
203,6	1,135
204,1	1,165
204,6	1,175
205	1,175
205,5	1,196
206	1,207
206,4	1,227
206,9	1,239
207,4	1,239
207,8	1,271
208,3	1,282
208,8	1,307
209,2	1,303
209,7	1,317
210,2	1,338
210,6	1,345
211,1	1,35
211,5	1,377
212	1,388
212,5	1,431
212,9	1,454
213,4	1,475
213,9	1,498
214,3	1,498
214,8	1,523
215,3	1,529
215,7	1,542
216,2	1,553
216,7	1,545
217,1	1,573
217,6	1,615
218,1	1,645
218,5	1,674
219	1,693
219,5	1,694
219,9	1,736
220,4	1,746
220,9	1,765
221,3	1,736
221,8	1,734
222,3	1,756
222,7	1,768
223,2	1,781
223,6	1,794
224,1	1,789
224,6	1,799
225	1,818
225,5	1,821
226	1,846
226,4	1,85
226,9	1,86
227,4	1,864
227,8	1,915
228,3	1,943
228,8	1,956
229,2	1,971
229,7	2,008
230,2	2,044
230,6	2,068
231,1	2,032
231,5	2,03
232	2,046
232,5	2,054
232,9	2,05
233,4	2,048
233,9	2,058
234,3	2,082
234,8	2,074
235,3	2,089
235,7	2,102
236,2	2,099
236,7	2,099
237,1	2,091
237,6	2,105
238,1	2,122
238,5	2,122
239	2,115
239,4	2,118
239,9	2,122
240,4	2,142
240,8	2,155
241,3	2,169
241,8	2,165
242,2	2,196
242,7	2,21
243,2	2,22
243,6	2,227
244,1	2,212
244,6	2,214
245	2,242
245,5	2,226
245,9	2,229
246,4	2,211
246,9	2,232
247,3	2,223
247,8	2,237
248,3	2,208
248,7	2,201
249,2	2,212
249,7	2,237
250,1	2,208
250,6	2,225
251	2,214
251,5	2,239
252	2,248
252,4	2,236
252,9	2,219
253,4	2,212
253,8	2,207
254,3	2,202
254,8	2,195
255,2	2,21
255,7	2,22
256,1	2,235
256,6	2,251
257,1	2,257
257,5	2,255
258	2,268
258,5	2,274
258,9	2,283
259,4	2,277
259,9	2,267
260,3	2,296
260,8	2,298
261,2	2,308
261,7	2,292
262,2	2,29
262,6	2,316
263,1	2,328
263,6	2,311
264	2,318
264,5	2,306
264,9	2,306
265,4	2,3
265,9	2,314
266,3	2,331
266,8	2,338
267,3	2,354
267,7	2,363
268,2	2,378
268,7	2,354
269,1	2,306
269,6	2,294
270	2,293
270,5	2,257
271	2,255
271,4	2,243
271,9	2,264
272,4	2,263
272,8	2,266
273,3	2,253
273,7	2,263
274,2	2,255
274,7	2,254
275,1	2,247
275,6	2,268
276,1	2,272
276,5	2,265
277	2,281
277,4	2,243
277,9	2,232
278,4	2,21
278,8	2,184
279,3	2,156
279,8	2,147
280,2	2,134
280,7	2,138
281,1	2,112
281,6	2,069
282,1	2,039
282,5	1,993
283	1,945
283,4	1,888
283,9	1,84
284,4	1,794
284,8	1,756
285,3	1,715
285,8	1,688
286,2	1,653
286,7	1,628
287,1	1,596
287,6	1,573
288,1	1,554
288,5	1,535
289	1,516
289,5	1,508
289,9	1,495
290,4	1,489
290,8	1,478
291,3	1,472
291,8	1,465
292,2	1,461
292,7	1,451
293,1	1,447
293,6	1,446
294,1	1,447
294,5	1,442
295	1,443
295,5	1,437
295,9	1,435
296,4	1,433
296,8	1,429
297,3	1,426
297,8	1,422
298,2	1,415
298,7	1,411
299,1	1,412
299,6	1,407
300,1	1,4
300,5	1,397
301	1,394
301,5	1,394
301,9	1,394
302,4	1,389
302,8	1,386
303,3	1,383
303,8	1,382
304,2	1,378
304,7	1,374
305,1	1,367
305,6	1,362
306,1	1,357
306,5	1,352
307	1,344
307,4	1,338
307,9	1,331
308,4	1,326
308,8	1,321
309,3	1,313
309,8	1,306
310,2	1,299
310,7	1,293
311,1	1,284
311,6	1,278
312,1	1,27
312,5	1,262
313	1,255
313,4	1,246
313,9	1,239
314,4	1,229
314,8	1,22
315,3	1,211
315,7	1,203
316,2	1,197
316,7	1,19
317,1	1,179
317,6	1,174
318	1,165
318,5	1,155
319	1,145
319,4	1,134
319,9	1,123
320,3	1,112
320,8	1,101
321,3	1,091
321,7	1,082
322,2	1,072
322,6	1,061
323,1	1,05
323,6	1,04
324	1,029
324,5	1,018
324,9	1,006
325,4	0,996
325,9	0,984
326,3	0,973
326,8	0,962
327,2	0,951
327,7	0,94
328,2	0,929
328,6	0,918
329,1	0,909
329,5	0,899
330	0,89
330,5	0,879
330,9	0,868
331,4	0,857
331,8	0,846
332,3	0,836
332,8	0,825
333,2	0,813
333,7	0,803
334,1	0,794
334,6	0,783
335,1	0,773
335,5	0,762
336	0,751
336,4	0,741
336,9	0,733
337,4	0,722
337,8	0,712
338,3	0,702
338,7	0,693
339,2	0,683
339,7	0,672
340,1	0,661
340,6	0,651
341	0,641
341,5	0,632
342	0,622
342,4	0,613
342,9	0,605
343,3	0,596
343,8	0,587
344,2	0,579
344,7	0,57
345,2	0,561
345,6	0,553
346,1	0,544
346,5	0,535
347	0,526
347,5	0,518
347,9	0,509
348,4	0,501
348,8	0,493
349,3	0,486
349,8	0,477
350,2	0,469
350,7	0,462
351,1	0,454
351,6	0,447
352	0,439
352,5	0,431
353	0,425
353,4	0,418
353,9	0,411
354,3	0,405
354,8	0,398
355,3	0,391
355,7	0,385
356,2	0,379
356,6	0,372
357,1	0,365
357,5	0,358
358	0,353
358,5	0,347
358,9	0,341
359,4	0,335
359,8	0,33
360,3	0,325
360,8	0,32
361,2	0,315
361,7	0,309
362,1	0,305
362,6	0,299
363	0,294
363,5	0,289
364	0,284
364,4	0,279
364,9	0,274
365,3	0,27
365,8	0,265
366,3	0,261
366,7	0,257
367,2	0,253
367,6	0,249
368,1	0,245
368,5	0,24
369	0,237
369,5	0,233
369,9	0,23
370,4	0,226
370,8	0,223
371,3	0,219
371,7	0,217
372,2	0,213
372,7	0,21
373,1	0,206
373,6	0,202
374	0,198
374,5	0,196
374,9	0,192
375,4	0,19
375,9	0,187
376,3	0,184
376,8	0,181
377,2	0,178
377,7	0,175
378,2	0,173
378,6	0,17
379,1	0,167
379,5	0,165
380	0,163
380,4	0,16
380,9	0,158
381,4	0,156
381,8	0,153
382,3	0,151
382,7	0,149
383,2	0,146
383,6	0,146
384,1	0,143
384,6	0,14
385	0,139
385,5	0,137
385,9	0,134
386,4	0,133
386,8	0,13
387,3	0,129
387,7	0,128
388,2	0,126
388,7	0,124
389,1	0,123
389,6	0,122
390	0,12
390,5	0,117
390,9	0,116
391,4	0,114
391,9	0,113
392,3	0,111
392,8	0,11
393,2	0,109
393,7	0,108
394,1	0,106
394,6	0,105
395,1	0,104
395,5	0,102
396	0,102
396,4	0,101
396,9	0,099
397,3	0,098
397,8	0,097
398,2	0,096
398,7	0,095
399,2	0,093
399,6	0,092
400,1	0,091
400,5	0,09
401	0,088
401,4	0,087
401,9	0,086
402,4	0,084
402,8	0,083
403,3	0,083
403,7	0,082
404,2	0,081
404,6	0,08
405,1	0,08
405,5	0,079
406	0,079
406,5	0,077
406,9	0,076
407,4	0,075
407,8	0,074
408,3	0,073
408,7	0,072
409,2	0,07
409,6	0,07
410,1	0,069
410,6	0,068
411	0,068
411,5	0,067
411,9	0,066
412,4	0,066
412,8	0,065
413,3	0,064
413,7	0,063
414,2	0,062
414,7	0,061
415,1	0,061
415,6	0,061
416	0,06
416,5	0,059
416,9	0,058
417,4	0,057
417,8	0,056
418,3	0,056
418,8	0,054
419,2	0,053
419,7	0,053
420,1	0,052
420,6	0,051
421	0,051
421,5	0,05
421,9	0,049
422,4	0,048
422,8	0,048
423,3	0,047
423,8	0,047
424,2	0,046
424,7	0,045
425,1	0,044
425,6	0,043
426	0,043
426,5	0,043
426,9	0,042
427,4	0,041
427,9	0,041
428,3	0,04
428,8	0,04
429,2	0,039
429,7	0,038
430,1	0,037
430,6	0,037
431	0,038
431,5	0,037
431,9	0,036
432,4	0,035
432,8	0,035
433,3	0,034
433,8	0,033
434,2	0,032
434,7	0,032
435,1	0,032
435,6	0,031
436	0,03
436,5	0,03
436,9	0,029
437,4	0,029
437,8	0,028
438,3	0,028
438,8	0,027
439,2	0,026
439,7	0,026
440,1	0,026
440,6	0,025
441	0,024
441,5	0,024
441,9	0,024
442,4	0,023
442,8	0,023
443,3	0,023
443,7	0,023
444,2	0,023
444,7	0,023
445,1	0,023
445,6	0,023
446	0,023
446,5	0,022
446,9	0,022
447,4	0,021
447,8	0,02
448,3	0,019
448,7	0,019
449,2	0,019
449,6	0,019
450,1	0,018
450,6	0,018
451	0,018
451,5	0,018
451,9	0,018
452,4	0,018
452,8	0,017
453,3	0,017
453,7	0,017
454,2	0,017
454,6	0,017
455,1	0,016
455,5	0,015
456	0,016
456,4	0,015
456,9	0,015
457,3	0,014
457,8	0,014
458,3	0,013
458,7	0,013
459,2	0,013
459,6	0,013
460,1	0,012
460,5	0,013
461	0,012
461,4	0,012
461,9	0,013
462,3	0,012
462,8	0,011
463,2	0,011
463,7	0,011
464,1	0,01
464,6	0,01
465	0,01
465,5	0,011
466	0,011
466,4	0,011
466,9	0,01
467,3	0,011
467,8	0,011
468,2	0,011
468,7	0,01
469,1	0,01
469,6	0,01
470	0,01
470,5	0,01
470,9	0,01
471,4	0,009
471,8	0,009
472,3	0,009
472,7	0,009
473,2	0,009
473,6	0,009
474,1	0,008
474,5	0,008
475	0,008
475,4	0,008
475,9	0,007
476,4	0,007
476,8	0,007
477,3	0,007
477,7	0,007
478,2	0,007
478,6	0,006
479,1	0,007
479,5	0,007
480	0,007
480,4	0,007
480,9	0,007
481,3	0,007
481,8	0,008
482,2	0,007
482,7	0,007
483,1	0,008
483,6	0,008
484	0,007
484,5	0,007
484,9	0,006
485,4	0,006
485,8	0,006
486,3	0,005
486,7	0,006
487,2	0,006
487,6	0,006
488,1	0,006
488,5	0,006
489	0,007
489,4	0,007
489,9	0,007
490,4	0,006
490,8	0,006
491,3	0,005
491,7	0,005
492,2	0,004
492,6	0,004
493,1	0,004
493,5	0,005
494	0,005
494,4	0,004
494,9	0,004
495,3	0,005
495,8	0,004
496,2	0,003
496,7	0,003
497,1	0,003
497,6	0,003
498	0,003
498,5	0,003
498,9	0,003
499,4	0,004
499,8	0,004
500,3	0,004
500,7	0,004
501,2	0,003
501,6	0,003
502,1	0,003
502,5	0,004
503	0,003
503,4	0,003
503,9	0,004
504,3	0,004
504,8	0,004
505,2	0,005
505,7	0,005
506,1	0,005
506,6	0,004
507	0,004
507,5	0,004
507,9	0,003
508,4	0,003
508,8	0,003
509,3	0,003
509,7	0,003
510,2	0,004
510,6	0,004
511,1	0,004
511,5	0,004
512	0,003
512,4	0,004
512,9	0,004
513,3	0,003
513,8	0,003
514,2	0,003
514,7	0,003
515,1	0,004
515,6	0,004
516	0,004
516,5	0,004
516,9	0,004
517,4	0,003
517,8	0,003
518,3	0,002
518,7	0,002
519,2	0,001
519,6	0,002
520,1	0,002
520,5	0,002
521	0,002
521,4	0,003
521,9	0,003
522,3	0,003
522,8	0,003
523,2	0,002
523,7	0,003
524,1	0,002
524,6	0,002
525	0,002
525,5	0,002
525,9	0,003
526,4	0,003
526,8	0,003
527,3	0,003
527,7	0,003
528,2	0,003
528,6	0,003
529,1	0,002
529,5	0,002
530	0,002
530,4	0,002
530,9	0,002
531,3	0,002
531,8	0,001
532,2	0,002
532,6	0,001
533,1	0,001
533,5	0
534	0
534,4	0,001
534,9	0,001
535,3	0
535,8	0,001
536,2	0,001
536,7	0,002
537,1	0,001
537,6	0,001
538	0,001
538,5	0,001
538,9	0,001
539,4	0,001
539,8	0,001
540,3	0,001
540,7	0,001
541,2	0,001
541,6	0,002
542,1	0,003
542,5	0,003
543	0,003
543,4	0,003
543,9	0,003
544,3	0,003
544,8	0,002
545,2	0,002
545,7	0,002
546,1	0,002
546,5	0,001
547	0,001
547,4	0,001
547,9	0,002
548,3	0,001
548,8	0,002
549,2	0,002
549,7	0,002
550,1	0,001
550,6	0,001
551	0,001
551,5	0,002
551,9	0,001
552,4	0,002
552,8	0,001
553,3	0,001
553,7	0,001
554,2	0,001
554,6	0,001
555,1	0,001
555,5	0,001
555,9	0,002
556,4	0,003
556,8	0,003
557,3	0,003
557,7	0,002
558,2	0,002
558,6	0,002
559,1	0,001
559,5	0,001
560	0,001
560,4	0,001
560,9	0,001
561,3	0,002
561,8	0,001
562,2	0,001
562,7	0,001
563,1	0,001
563,6	0,001
564	0,001
564,4	0,001
564,9	0,001
565,3	0,001
565,8	0,001
566,2	0,001
566,7	0,001
567,1	0,001
567,6	0
568	0,001
568,5	0,001
568,9	0,001
569,4	0
569,8	0
570,3	0
570,7	0,001
571,1	0,001
571,6	0,001
572	0,001
572,5	0,001
572,9	0,001
573,4	0,001
573,8	0
574,3	0
574,7	0
575,2	0
575,6	0
576,1	0,001
576,5	0,001
576,9	0,001
577,4	0,001
577,8	0,001
578,3	0,001
578,7	0,001
579,2	0
579,6	0
580,1	0,001
580,5	0,001
581	0,001
581,4	0,001
581,9	0,001
582,3	0,001
582,7	0,001
583,2	0,001
583,6	0,001
584,1	0,001
584,5	0,001
585	0,001
585,4	0,001
585,9	0
586,3	0
586,8	0
587,2	0,001
587,6	0,001
588,1	0,001
588,5	0,001
589	0,001
589,4	0
589,9	0,001
590,3	0
590,8	0,001
591,2	0,001
591,7	0,001
592,1	0,001
592,5	0,002
593	0,001
593,4	0,001
593,9	0,001
594,3	0,001
594,8	0,001
595,2	0
595,7	0
596,1	0,001
596,6	0
597	0,001
597,4	0
597,9	0,001
598,3	0,001
598,8	0,001
599,2	0,001
599,7	0,001
600,1	0,001
600,6	0,001
601	0,001
601,4	0,001
601,9	0,001
602,3	0,001
602,8	0,001
603,2	0,001
603,7	0,001
604,1	0,001
604,6	0,001
605	0,001
605,4	0
605,9	0,001
606,3	0
606,8	0,001
607,2	0,001
607,7	0,001
608,1	0
608,6	0
609	0
609,4	0,001
609,9	0
610,3	0
610,8	-0
611,2	0
611,7	0
612,1	0
612,6	0
613	0
613,4	0
613,9	0,001
614,3	0,001
614,8	0,001
615,2	0,001
615,7	0,001
616,1	0,001
616,6	0,001
617	0,001
617,4	0,001
617,9	0,001
618,3	0,001
618,8	0,001
619,2	0
619,7	0,001
620,1	0,001
620,5	0
621	0,001
621,4	0
621,9	0,001
622,3	0,001
622,8	0
623,2	0,001
623,6	0
624,1	0
624,5	0
625	0
625,4	0
625,9	0,001
626,3	0
626,8	0,001
627,2	0
627,6	0,001
628,1	0,001
628,5	0,001
629	0
629,4	0
629,9	0
630,3	0
630,7	0
631,2	0,001
631,6	0,001
632,1	0,001
632,5	0,001
633	0,001
633,4	0,001
633,8	0,001
634,3	0,001
634,7	0,001
635,2	0
635,6	0
636,1	-0
636,5	-0
636,9	-0
637,4	-0
637,8	0
638,3	0
638,7	0
639,2	0,001
639,6	0,001
640	0,001
640,5	0,001
640,9	0,001
641,4	0
641,8	0
642,2	-0
642,7	-0
643,1	-0
643,6	-0
644	-0
644,5	-0
644,9	-0
645,3	-0
645,8	-0
646,2	-0
646,7	0
647,1	0
647,6	0,001
648	0,001
648,4	0,001
648,9	0,001
649,3	0,001
649,8	0,001
650,2	0,001
650,6	0,001
651,1	0
651,5	0
652	0
652,4	-0
652,9	0
653,3	-0
653,7	-0
654,2	0
654,6	0
655,1	0,001
655,5	0
655,9	0
656,4	0
656,8	0
657,3	0
657,7	0,001
658,2	0
658,6	0,001
659	0,001
659,5	0,001
659,9	0,001
660,4	0,001
660,8	0,001
661,2	0,001
661,7	0,001
662,1	0
662,6	0
663	0,001
663,4	0,001
663,9	0
664,3	0
664,8	0
665,2	0,001
665,6	0,001
666,1	0
666,5	0,001
667	0,001
667,4	0,001
667,9	0,001
668,3	0,001
668,7	0,002
669,2	0,002
669,6	0,002
670,1	0,001
670,5	0,002
670,9	0,001
671,4	0,001
671,8	0
672,3	0
672,7	0
673,1	0
673,6	-0
674	0
674,5	0,001
674,9	0,001
675,3	0,001
675,8	0,001
676,2	0,001
676,7	0
677,1	0
677,5	0
678	-0
678,4	-0
678,9	-0
679,3	-0
679,7	0
680,2	0
680,6	0
681,1	0
681,5	0
681,9	0
682,4	0
682,8	0,001
683,3	0,001
683,7	0,001
684,1	0,001
684,6	0,001
685	0,001
685,5	0,001
685,9	0,001
686,3	0,001
686,8	0
687,2	0
687,7	0
688,1	0
688,5	0
689	0
689,4	-0
689,9	-0
690,3	0
690,7	0
691,2	0,001
691,6	0
692	0
692,5	0,001
692,9	0,001
693,4	0
693,8	0
694,2	0
694,7	0,001
695,1	0
695,6	0
696	0
696,4	0
696,9	0
697,3	0
697,8	0
698,2	0
698,6	0
699,1	0
699,5	0
699,9	0
700,4	0
700,8	0
701,3	0
701,7	0
702,1	0
702,6	0
703	0
703,5	0
703,9	0
704,3	0
704,8	0
705,2	0
705,6	0
706,1	0,001
706,5	0,001
707	0,001
707,4	0,001
707,8	0,001
708,3	0,001
708,7	0,001
709,2	0,001
709,6	0,001
710	0,001
710,5	0,001
710,9	0,001
711,3	0,001
711,8	0,001
712,2	0,001
712,7	0,001
713,1	0
713,5	0
714	-0
714,4	-0
714,8	-0
715,3	-0
715,7	-0
716,2	0
716,6	-0
717	0
717,5	0
717,9	0
718,3	0,001
718,8	0
719,2	0
719,7	0,001
720,1	0,001
720,5	0
721	0,001
721,4	0,001
721,8	0,001
722,3	0
722,7	0,001
723,2	0,001
723,6	0,001
724	0
724,5	0
724,9	0
725,3	0
725,8	0
726,2	-0
726,7	-0
727,1	0
727,5	-0
728	-0
728,4	-0
728,8	-0
729,3	0
729,7	-0
730,1	-0,001
730,6	-0,001
731	-0
731,5	-0
731,9	0
732,3	0
732,8	0
733,2	0,001
733,6	0,001
734,1	0,001
734,5	0,001
734,9	0,001
735,4	0,001
735,8	0,001
736,3	0,001
736,7	0,001
737,1	0,001
737,6	0,001
738	0,001
738,4	0,001
738,9	0,001
739,3	0,001
739,7	0
740,2	0
740,6	0
741,1	0
741,5	0,001
741,9	0,001
742,4	0,001
742,8	0,001
743,2	0,001
743,7	0,001
744,1	0,001
744,5	0
745	-0
745,4	-0
745,8	0
746,3	0
746,7	0
747,2	0
747,6	0
748	0
748,5	0
748,9	-0
749,3	-0
749,8	0
750,2	0
750,6	0
751,1	0
751,5	0,001
751,9	0,001
752,4	0,001
752,8	0,001
753,3	0,001
753,7	0,001
754,1	0,001
754,6	0
755	0
755,4	-0
755,9	-0
756,3	0
756,7	0
757,2	0,001
757,6	0,001
758	0,001
758,5	0,001
758,9	0,001
759,3	0,001
759,8	0,001
760,2	0,001
760,6	0,001
761,1	0,001
761,5	0
761,9	0
762,4	0
762,8	0
763,3	0
763,7	0
764,1	0,001
764,6	0,001
765	0
765,4	0
765,9	0,001
766,3	0
766,7	0,001
767,2	0,001
767,6	0,001
768	0,001
768,5	0,001
768,9	0,001
769,3	0,001
769,8	0
770,2	0
770,6	0
771,1	-0
771,5	-0
771,9	-0
772,4	-0,001
772,8	-0
773,2	-0
773,7	0
774,1	0,001
774,5	0,001
775	0,001
775,4	0,001
775,8	0,001
776,3	0,001
776,7	0,001
777,1	0,001
777,6	0
778	0
778,4	0,001
778,9	0,001
779,3	0
779,7	0
780,2	0
780,6	0
781	0,001
781,5	-0
781,9	-0
782,3	-0
782,8	-0
783,2	-0
783,6	-0
784,1	-0
784,5	0
784,9	0,001
785,4	0
785,8	0
786,2	0,001
786,7	0,001
787,1	0,001
787,5	0,001
788	0
788,4	0,001
788,8	0,001
789,3	0,001
789,7	0
790,1	0
790,6	0,001
791	0,001
791,4	0,001
791,9	0,001
792,3	0,001
792,7	0,001
793,2	0,001
793,6	0
794	0
794,5	0
794,9	0
795,3	0
795,8	0
796,2	0
796,6	0
797,1	0,001
797,5	0
797,9	0
798,4	0
798,8	-0
799,2	0
799,7	0,001
800,1	0,001
800,5	0,001
801	0,001
801,4	0,001
801,8	0,001
802,2	0,001
802,7	0,001
803,1	0,001
803,5	0,001
804	0
804,4	0
804,8	0
805,3	0
805,7	-0
806,1	-0
806,6	-0
807	0
807,4	0
807,9	0
808,3	0
808,7	0,001
809,2	0,001
809,6	0,001
810	0
810,4	0,001
810,9	0
811,3	0
811,7	0
812,2	0
812,6	0
813	0
813,5	0,001
813,9	0
814,3	0,001
814,8	0
815,2	0
815,6	0
816,1	-0
816,5	-0
816,9	0
817,3	-0
817,8	0
818,2	0
818,6	0
819,1	-0
819,5	0
819,9	0
820,4	0
820,8	-0
821,2	0
821,7	-0
822,1	-0
822,5	-0
822,9	-0
823,4	0
823,8	0
824,2	0
824,7	0
825,1	0
825,5	0,001
826	0,001
826,4	0
826,8	0
827,3	0
827,7	0
828,1	0
828,5	0
829	-0
829,4	0,001
829,8	0,001
830,3	0,001
830,7	0,001
831,1	0,001
831,6	0,001
832	0,001
832,4	0,001
832,8	0,001
833,3	0,001
833,7	0,001
834,1	0,001
834,6	0,001
835	0,001
835,4	0,001
835,8	0,001
836,3	0,001
836,7	0,001
837,1	0,001
837,6	0,001
838	0
838,4	0
838,9	0
839,3	0
839,7	0
840,1	0
840,6	0
841	0
841,4	0
841,9	0
842,3	-0
842,7	0
843,1	0
843,6	0,001
844	0,001
844,4	0,001
844,9	0,001
845,3	0,001
845,7	0,001
846,2	0,001
846,6	0,001
847	0,001
847,4	0,001
847,9	0,001
848,3	0
848,7	0,001
849,2	0
849,6	0
850	0
850,4	0
850,9	0,001
851,3	0,001
851,7	0,001
852,2	0
852,6	0,001
853	0
853,4	0,001
853,9	0
854,3	0,001
854,7	0,001
855,2	0,001
855,6	0
856	0
856,4	0
856,9	0
857,3	-0
857,7	-0
858,2	-0
858,6	0
859	0
859,4	0
859,9	-0
860,3	-0
860,7	0
861,1	0,001
861,6	0,001
862	0,001
862,4	0,001
862,9	0,001
863,3	0,001
863,7	0,001
864,1	0,001
864,6	0,001
865	0,001
865,4	0,001
865,9	0,001
866,3	0,001
866,7	0,001
867,1	0,001
867,6	0,001
868	0,001
868,4	0,001
868,8	0
869,3	0
869,7	0,001
870,1	0,001
870,6	0,001
871	0,001
871,4	0,001
871,8	0,001
872,3	0,001
872,7	0,001
873,1	0,001
873,5	0
874	0
874,4	0
874,8	0
875,3	0
875,7	0
876,1	0
876,5	0
877	-0
877,4	-0
877,8	-0
878,2	-0
878,7	-0,001
879,1	-0,001
879,5	-0
879,9	-0
880,4	-0
880,8	-0
881,2	-0
881,7	-0
882,1	-0
882,5	-0,001
882,9	-0
883,4	-0,001
883,8	-0,001
884,2	-0,001
884,6	-0,001
885,1	-0,001
885,5	-0,001
885,9	-0,001
886,3	-0,001
886,8	-0,001
887,2	-0,001
887,6	-0
888	-0
888,5	-0
888,9	-0
889,3	-0
889,8	-0
890,2	0
890,6	0,001
891	0,001
891,5	0,001
891,9	0,001
892,3	0,001
892,7	0,001
893,2	0
893,6	0
894	0
894,4	0
894,9	0
895,3	0,001
895,7	0
896,1	0
896,6	0
897	0
897,4	0,001
897,8	0,001
898,3	0
898,7	0
899,1	0
899,5	-0
900	0
900,4	-0
900,8	-0
901,2	-0
901,7	-0
902,1	-0
902,5	0
902,9	0
903,4	0
903,8	0
904,2	0,001
904,6	0
905,1	0
905,5	0
905,9	0
906,3	0
906,8	0
907,2	0
907,6	0
908	0
908,5	-0
908,9	-0
909,3	-0
909,7	-0
910,2	-0
910,6	-0
911	-0,001
911,4	-0,001
911,9	-0
912,3	-0
912,7	-0
913,1	-0
913,6	0
914	0
914,4	0,001
914,8	0
915,3	0
915,7	0
916,1	0
916,5	0
916,9	0
917,4	-0
917,8	-0
918,2	-0
918,6	0
919,1	-0
919,5	-0,001
919,9	-0
920,3	0
920,8	0
921,2	0
921,6	-0
922	0
922,5	0
922,9	0
923,3	-0
923,7	-0
924,2	-0
924,6	0
925	0
925,4	0
925,8	0,001
926,3	0,001
926,7	0,001
927,1	0,001
927,5	0
928	0,001
928,4	0
928,8	0
929,2	0
929,7	0
930,1	0
930,5	0,001
930,9	0
931,3	0,001
931,8	0,001
932,2	0,001
932,6	0,001
933	0
933,5	0
933,9	0,001
934,3	0,001
934,7	0
935,2	0
935,6	0
936	0,001
936,4	0,001
936,8	0,001
937,3	0,001
937,7	0,001
938,1	0,001
938,5	0,001
939	0,001
939,4	0,001
939,8	0
940,2	0
940,6	0
941,1	-0
941,5	0
941,9	-0
942,3	-0
942,8	-0
943,2	-0
943,6	-0
944	-0
944,4	-0
944,9	-0
945,3	0,001
945,7	0
946,1	0,001
946,6	0,001
947	0,001
947,4	0,001
947,8	0,001
948,2	0,001
948,7	0,001
949,1	0,002
949,5	0,001
949,9	0,001
950,3	0,001
950,8	0,002
951,2	0,001
951,6	0,001
952	0
952,5	0,001
952,9	0
953,3	0
953,7	0
954,1	0
954,6	-0
955	0
955,4	0
955,8	0
956,2	0
956,7	0
957,1	0
957,5	0,001
957,9	0
958,3	0,001
958,8	0
959,2	0
959,6	0
960	0,001
960,5	0,001
960,9	0,001
961,3	0,001
961,7	0,001
962,1	0
962,6	0
963	-0
963,4	0
963,8	0
964,2	0,001
964,7	0,001
965,1	0,002
965,5	0,002
965,9	0,001
966,3	0,001
966,8	0,001
967,2	0,001
967,6	-0
968	-0
968,4	-0
968,9	0
969,3	0
969,7	0
970,1	0
970,5	0,001
971	0,001
971,4	0
971,8	0
972,2	0
972,6	-0
973,1	0
973,5	0
973,9	0,001
974,3	0,001
974,7	0,001
975,2	0,001
975,6	0,001
976	0,001
976,4	0
976,8	0
977,3	0
977,7	0
978,1	0
978,5	0
978,9	-0
979,4	0
979,8	0
980,2	0
980,6	0
981	0
981,5	0
981,9	0,001
982,3	0,001
982,7	0,001
983,1	0,001
983,6	0,001
984	0,002
984,4	0,002
984,8	0,001
985,2	0,001
985,6	0
986,1	0,001
986,5	0
986,9	0
987,3	0
987,7	0
988,2	0
988,6	0,001
989	0,001
989,4	0,001
989,8	0
990,3	0
990,7	0,001
991,1	0,001
991,5	0,001
991,9	0
992,3	0
992,8	0
993,2	0
993,6	-0
994	-0
994,4	0
994,9	-0
995,3	0
995,7	0
996,1	0,001
996,5	0,001
996,9	0,001
997,4	0,001
997,8	0,001
998,2	0,001
998,6	0,001
999	0,001
999,5	0
999,9	0
1000,3	0
1000,7	-0
1001,1	0
1001,5	0
1002	-0
1002,4	0,001
1002,8	0
1003,2	0,001
1003,6	0,001
1004	0
1004,5	0,001
1004,9	0,001
1005,3	0,001
1005,7	0,001
1006,1	-0
1006,6	0
1007	0
1007,4	-0
1007,8	-0
1008,2	-0
1008,6	-0,001
1009,1	-0
1009,5	-0,001
1009,9	-0,001
1010,3	-0,001
1010,7	-0,001
1011,1	-0,001
1011,6	-0,001
1012	-0,001
1012,4	-0,001
1012,8	-0,001
1013,2	-0
1013,6	-0,001
1014,1	-0,001
1014,5	-0,001
1014,9	-0,001
1015,3	-0,001
1015,7	-0,001
1016,1	-0,001
1016,6	-0,001
1017	-0,002
1017,4	-0,002
1017,8	-0,002
1018,2	-0,002
1018,6	-0,002
1019,1	-0,003
1019,5	-0,002
1019,9	-0,002
1020,3	-0,002
1020,7	-0,002
1021,1	-0,002
1021,6	-0,001
1022	-0
1022,4	-0,001
1022,8	-0
1023,2	-0
1023,6	-0
1024,1	0
1024,5	0
1024,9	0,001
1025,3	0
1025,7	0
1026,1	0,001
1026,6	0
1027	0,001
1027,4	0
1027,8	0
1028,2	0,001
1028,6	0,001
1029	0
1029,5	-0
1029,9	-0
1030,3	-0
1030,7	0
1031,1	-0
1031,5	-0
1032	-0
1032,4	-0
1032,8	-0
1033,2	-0
1033,6	-0,001
1034	-0,001
1034,4	-0
1034,9	0
1035,3	-0
1035,7	0
1036,1	0,001
1036,5	0
1036,9	0
1037,4	-0
1037,8	-0,001
1038,2	-0
1038,6	-0
1039	-0,001
1039,4	-0,001
1039,8	-0,001
1040,3	-0
1040,7	-0
1041,1	0
1041,5	0
1041,9	0,002
1042,3	0,002
1042,7	0,002
1043,2	0,001
1043,6	0
1044	0,001
1044,4	0
1044,8	-0,001
1045,2	-0,001
1045,6	-0,001
1046,1	-0,001
1046,5	-0
1046,9	-0,001
1047,3	-0,001
1047,7	-0,001
1048,1	-0,001
1048,5	-0,001
1049	-0,001
1049,4	-0,001
1049,8	-0,001
1050,2	-0
1050,6	-0
1051	-0,001
1051,4	0
1051,9	-0
1052,3	-0,001
1052,7	-0
1053,1	-0,001
1053,5	-0,002
1053,9	-0,001
1054,3	-0,001
1054,8	-0,002
1055,2	-0,001
1055,6	-0,002
1056	-0,001
1056,4	-0,001
1056,8	-0,002
1057,2	-0,002
1057,6	-0,002
1058,1	-0,002
1058,5	-0,001
1058,9	-0,001
1059,3	-0,001
1059,7	-0,001
1060,1	-0
1060,5	-0
1061	-0,001
1061,4	-0
1061,8	0
1062,2	0,001
1062,6	0
1063	0,001
1063,4	0,001
1063,8	0,001
1064,3	0,001
1064,7	0,002
1065,1	0,001
1065,5	0,002
1065,9	0,002
1066,3	0,002
1066,7	0,002
1067,1	0,002
1067,6	0
1068	0,001
1068,4	0,001
1068,8	0,001
1069,2	0,001
1069,6	0,001
1070	0,001
1070,4	0,001
1070,9	0,001
1071,3	0
1071,7	-0,001
1072,1	-0,002
1072,5	-0
1072,9	-0,001
1073,3	-0,001
1073,7	-0,001
1074,2	-0,001
1074,6	0,001
1075	0,002
1075,4	0
1075,8	-0
1076,2	0,001
1076,6	0,001
1077	0,001
1077,5	0
1077,9	0
1078,3	-0
1078,7	0,001
1079,1	0,001
1079,5	0,001
1079,9	0,001
1080,3	0,001
1080,7	-0,001
1081,2	-0
1081,6	0
1082	-0,002
1082,4	-0,003
1082,8	-0,004
1083,2	-0,002
1083,6	-0,001
1084	-0,001
1084,5	-0,003
1084,9	-0,001
1085,3	0,001
1085,7	0,002
1086,1	-0
1086,5	-0,001
1086,9	-0,001
1087,3	-0
1087,7	-0,001
1088,2	-0,001
1088,6	-0,002
1089	-0,003
1089,4	-0,002
1089,8	-0,003
1090,2	-0,005
1090,6	-0,005
1091	-0,005
1091,4	-0,006
1091,9	-0,006
1092,3	-0,005
1092,7	-0,001
1093,1	0
1093,5	-0,003
1093,9	-0,006
1094,3	-0,004
1094,7	-0,001
1095,1	-0,002
1095,5	-0,006
1096	-0,004
1096,4	0,001
1096,8	0,001
1097,2	0,003
1097,6	0,001
1098	0,004
1098,4	0,007
1098,8	0,007
1099,2	0,002
1099,6	0,007
1100,1	0,008
1100,5	0,009
1100,9	0,003
1101,3	0,002
1101,7	-0,005
1102,1	-0,005
1102,5	-0,014
1102,9	-0,016
1103,3	-0,009
1103,7	-0,014
1104,2	-0,009
1104,6	0,001
1105	0,002
1105,4	-0,001
1105,8	0,001
1106,2	-0,006
1106,6	-0,001
1107	0,004
1107,4	0,002
1107,8	0,018
1108,3	0,64
