Data from Absorbance_00002.txt Node
Date: Thu Aug 10 15:29:51 MSK 2023
User: vat
Spectrometer: MAYP114033
Trigger mode: 0
Integration Time (sec): 8,000000E-3
Scans to average: 10
Electric dark correction enabled: true
Nonlinearity correction enabled: false
Boxcar width: 3
XAxis mode: Wavelengths
Number of Pixels in Spectrum: 2068
>>>>>Begin Spectral Data<<<<<
199,4	-0
199,9	0,188
200,4	0,531
200,8	0,849
201,3	0,908
201,8	0,948
202,2	0,943
202,7	0,975
203,2	1,024
203,6	1,051
204,1	1,064
204,6	1,075
205	1,099
205,5	1,141
206	1,18
206,4	1,206
206,9	1,218
207,4	1,232
207,8	1,264
208,3	1,261
208,8	1,286
209,2	1,274
209,7	1,274
210,2	1,297
210,6	1,311
211,1	1,322
211,5	1,343
212	1,35
212,5	1,379
212,9	1,407
213,4	1,408
213,9	1,41
214,3	1,404
214,8	1,427
215,3	1,434
215,7	1,44
216,2	1,453
216,7	1,478
217,1	1,493
217,6	1,518
218,1	1,517
218,5	1,529
219	1,554
219,5	1,579
219,9	1,575
220,4	1,597
220,9	1,618
221,3	1,65
221,8	1,671
222,3	1,672
222,7	1,673
223,2	1,719
223,6	1,73
224,1	1,744
224,6	1,752
225	1,756
225,5	1,78
226	1,787
226,4	1,783
226,9	1,803
227,4	1,823
227,8	1,846
228,3	1,871
228,8	1,88
229,2	1,909
229,7	1,928
230,2	1,948
230,6	1,963
231,1	1,966
231,5	1,98
232	1,989
232,5	1,997
232,9	1,986
233,4	2,006
233,9	2,014
234,3	2,009
234,8	2,015
235,3	2,019
235,7	2,025
236,2	2,057
236,7	2,041
237,1	2,033
237,6	2,058
238,1	2,052
238,5	2,08
239	2,086
239,4	2,097
239,9	2,116
240,4	2,121
240,8	2,122
241,3	2,126
241,8	2,132
242,2	2,136
242,7	2,127
243,2	2,133
243,6	2,137
244,1	2,158
244,6	2,153
245	2,154
245,5	2,144
245,9	2,128
246,4	2,117
246,9	2,098
247,3	2,099
247,8	2,108
248,3	2,102
248,7	2,113
249,2	2,156
249,7	2,161
250,1	2,188
250,6	2,178
251	2,202
251,5	2,217
252	2,204
252,4	2,188
252,9	2,201
253,4	2,219
253,8	2,24
254,3	2,199
254,8	2,189
255,2	2,203
255,7	2,202
256,1	2,192
256,6	2,19
257,1	2,153
257,5	2,189
258	2,186
258,5	2,189
258,9	2,207
259,4	2,23
259,9	2,242
260,3	2,274
260,8	2,275
261,2	2,281
261,7	2,274
262,2	2,251
262,6	2,25
263,1	2,232
263,6	2,241
264	2,226
264,5	2,227
264,9	2,252
265,4	2,266
265,9	2,253
266,3	2,244
266,8	2,232
267,3	2,219
267,7	2,206
268,2	2,191
268,7	2,193
269,1	2,221
269,6	2,229
270	2,24
270,5	2,251
271	2,245
271,4	2,264
271,9	2,263
272,4	2,236
272,8	2,273
273,3	2,265
273,7	2,281
274,2	2,337
274,7	2,316
275,1	2,312
275,6	2,328
276,1	2,296
276,5	2,294
277	2,285
277,4	2,256
277,9	2,255
278,4	2,262
278,8	2,243
279,3	2,231
279,8	2,234
280,2	2,249
280,7	2,259
281,1	2,275
281,6	2,274
282,1	2,291
282,5	2,315
283	2,316
283,4	2,294
283,9	2,314
284,4	2,31
284,8	2,304
285,3	2,303
285,8	2,299
286,2	2,308
286,7	2,313
287,1	2,287
287,6	2,293
288,1	2,292
288,5	2,291
289	2,272
289,5	2,248
289,9	2,241
290,4	2,231
290,8	2,186
291,3	2,149
291,8	2,094
292,2	2,05
292,7	2
293,1	1,957
293,6	1,905
294,1	1,859
294,5	1,806
295	1,764
295,5	1,723
295,9	1,677
296,4	1,632
296,8	1,597
297,3	1,563
297,8	1,535
298,2	1,505
298,7	1,481
299,1	1,461
299,6	1,443
300,1	1,422
300,5	1,41
301	1,394
301,5	1,385
301,9	1,372
302,4	1,363
302,8	1,35
303,3	1,338
303,8	1,324
304,2	1,312
304,7	1,299
305,1	1,288
305,6	1,278
306,1	1,268
306,5	1,259
307	1,248
307,4	1,239
307,9	1,231
308,4	1,222
308,8	1,211
309,3	1,201
309,8	1,192
310,2	1,183
310,7	1,174
311,1	1,164
311,6	1,154
312,1	1,144
312,5	1,135
313	1,124
313,4	1,115
313,9	1,105
314,4	1,094
314,8	1,083
315,3	1,073
315,7	1,062
316,2	1,052
316,7	1,041
317,1	1,028
317,6	1,021
318	1,012
318,5	1,001
319	0,991
319,4	0,982
319,9	0,973
320,3	0,966
320,8	0,956
321,3	0,946
321,7	0,938
322,2	0,93
322,6	0,922
323,1	0,913
323,6	0,902
324	0,892
324,5	0,883
324,9	0,874
325,4	0,864
325,9	0,854
326,3	0,844
326,8	0,835
327,2	0,826
327,7	0,817
328,2	0,807
328,6	0,797
329,1	0,787
329,5	0,778
330	0,768
330,5	0,758
330,9	0,748
331,4	0,739
331,8	0,73
332,3	0,721
332,8	0,711
333,2	0,701
333,7	0,691
334,1	0,683
334,6	0,673
335,1	0,664
335,5	0,655
336	0,645
336,4	0,637
336,9	0,629
337,4	0,619
337,8	0,609
338,3	0,599
338,7	0,59
339,2	0,581
339,7	0,572
340,1	0,562
340,6	0,554
341	0,546
341,5	0,537
342	0,527
342,4	0,519
342,9	0,511
343,3	0,502
343,8	0,495
344,2	0,487
344,7	0,479
345,2	0,471
345,6	0,463
346,1	0,455
346,5	0,447
347	0,439
347,5	0,431
347,9	0,423
348,4	0,415
348,8	0,408
349,3	0,401
349,8	0,393
350,2	0,386
350,7	0,379
351,1	0,372
351,6	0,365
352	0,359
352,5	0,351
353	0,344
353,4	0,337
353,9	0,331
354,3	0,324
354,8	0,318
355,3	0,312
355,7	0,307
356,2	0,301
356,6	0,295
357,1	0,289
357,5	0,284
358	0,278
358,5	0,271
358,9	0,265
359,4	0,26
359,8	0,255
360,3	0,25
360,8	0,245
361,2	0,24
361,7	0,236
362,1	0,231
362,6	0,227
363	0,222
363,5	0,219
364	0,214
364,4	0,21
364,9	0,205
365,3	0,201
365,8	0,197
366,3	0,193
366,7	0,189
367,2	0,186
367,6	0,184
368,1	0,18
368,5	0,177
369	0,175
369,5	0,171
369,9	0,168
370,4	0,165
370,8	0,161
371,3	0,158
371,7	0,155
372,2	0,152
372,7	0,149
373,1	0,147
373,6	0,145
374	0,142
374,5	0,14
374,9	0,137
375,4	0,135
375,9	0,132
376,3	0,13
376,8	0,127
377,2	0,125
377,7	0,122
378,2	0,121
378,6	0,118
379,1	0,116
379,5	0,114
380	0,112
380,4	0,11
380,9	0,107
381,4	0,105
381,8	0,104
382,3	0,102
382,7	0,1
383,2	0,099
383,6	0,097
384,1	0,095
384,6	0,094
385	0,092
385,5	0,089
385,9	0,088
386,4	0,085
386,8	0,083
387,3	0,082
387,7	0,08
388,2	0,078
388,7	0,077
389,1	0,075
389,6	0,074
390	0,073
390,5	0,072
390,9	0,071
391,4	0,069
391,9	0,068
392,3	0,066
392,8	0,065
393,2	0,063
393,7	0,062
394,1	0,06
394,6	0,059
395,1	0,058
395,5	0,057
396	0,056
396,4	0,055
396,9	0,054
397,3	0,053
397,8	0,052
398,2	0,051
398,7	0,05
399,2	0,049
399,6	0,048
400,1	0,047
400,5	0,046
401	0,045
401,4	0,044
401,9	0,043
402,4	0,043
402,8	0,042
403,3	0,041
403,7	0,041
404,2	0,04
404,6	0,04
405,1	0,04
405,5	0,039
406	0,038
406,5	0,038
406,9	0,037
407,4	0,036
407,8	0,036
408,3	0,035
408,7	0,035
409,2	0,035
409,6	0,034
410,1	0,034
410,6	0,034
411	0,034
411,5	0,034
411,9	0,033
412,4	0,032
412,8	0,031
413,3	0,031
413,7	0,031
414,2	0,03
414,7	0,029
415,1	0,028
415,6	0,028
416	0,028
416,5	0,027
416,9	0,027
417,4	0,027
417,8	0,027
418,3	0,026
418,8	0,026
419,2	0,025
419,7	0,024
420,1	0,024
420,6	0,023
421	0,022
421,5	0,022
421,9	0,021
422,4	0,021
422,8	0,02
423,3	0,02
423,8	0,02
424,2	0,019
424,7	0,019
425,1	0,019
425,6	0,019
426	0,018
426,5	0,018
426,9	0,017
427,4	0,017
427,9	0,017
428,3	0,016
428,8	0,016
429,2	0,016
429,7	0,016
430,1	0,016
430,6	0,015
431	0,015
431,5	0,015
431,9	0,015
432,4	0,014
432,8	0,014
433,3	0,013
433,8	0,014
434,2	0,013
434,7	0,012
435,1	0,012
435,6	0,012
436	0,011
436,5	0,012
436,9	0,011
437,4	0,011
437,8	0,011
438,3	0,011
438,8	0,011
439,2	0,01
439,7	0,01
440,1	0,01
440,6	0,01
441	0,009
441,5	0,008
441,9	0,009
442,4	0,008
442,8	0,008
443,3	0,008
443,7	0,008
444,2	0,008
444,7	0,008
445,1	0,008
445,6	0,008
446	0,007
446,5	0,007
446,9	0,007
447,4	0,006
447,8	0,006
448,3	0,006
448,7	0,006
449,2	0,006
449,6	0,006
450,1	0,006
450,6	0,006
451	0,007
451,5	0,006
451,9	0,007
452,4	0,007
452,8	0,007
453,3	0,007
453,7	0,007
454,2	0,006
454,6	0,007
455,1	0,006
455,5	0,006
456	0,005
456,4	0,005
456,9	0,006
457,3	0,005
457,8	0,005
458,3	0,005
458,7	0,006
459,2	0,005
459,6	0,006
460,1	0,005
460,5	0,005
461	0,006
461,4	0,006
461,9	0,005
462,3	0,005
462,8	0,004
463,2	0,004
463,7	0,004
464,1	0,004
464,6	0,004
465	0,004
465,5	0,004
466	0,005
466,4	0,005
466,9	0,005
467,3	0,004
467,8	0,005
468,2	0,004
468,7	0,004
469,1	0,004
469,6	0,004
470	0,004
470,5	0,005
470,9	0,005
471,4	0,005
471,8	0,004
472,3	0,005
472,7	0,005
473,2	0,004
473,6	0,004
474,1	0,004
474,5	0,004
475	0,004
475,4	0,003
475,9	0,003
476,4	0,003
476,8	0,003
477,3	0,003
477,7	0,003
478,2	0,004
478,6	0,004
479,1	0,004
479,5	0,004
480	0,004
480,4	0,003
480,9	0,003
481,3	0,003
481,8	0,003
482,2	0,003
482,7	0,003
483,1	0,003
483,6	0,004
484	0,003
484,5	0,004
484,9	0,004
485,4	0,003
485,8	0,004
486,3	0,002
486,7	0,002
487,2	0,003
487,6	0,003
488,1	0,003
488,5	0,003
489	0,002
489,4	0,004
489,9	0,005
490,4	0,004
490,8	0,004
491,3	0,004
491,7	0,003
492,2	0,003
492,6	0,003
493,1	0,004
493,5	0,003
494	0,004
494,4	0,003
494,9	0,004
495,3	0,004
495,8	0,003
496,2	0,003
496,7	0,003
497,1	0,003
497,6	0,003
498	0,003
498,5	0,003
498,9	0,003
499,4	0,004
499,8	0,003
500,3	0,004
500,7	0,003
501,2	0,003
501,6	0,003
502,1	0,003
502,5	0,003
503	0,003
503,4	0,003
503,9	0,004
504,3	0,004
504,8	0,004
505,2	0,005
505,7	0,004
506,1	0,004
506,6	0,003
507	0,003
507,5	0,003
507,9	0,003
508,4	0,003
508,8	0,002
509,3	0,002
509,7	0,003
510,2	0,004
510,6	0,004
511,1	0,004
511,5	0,004
512	0,005
512,4	0,005
512,9	0,004
513,3	0,004
513,8	0,003
514,2	0,003
514,7	0,003
515,1	0,003
515,6	0,004
516	0,004
516,5	0,004
516,9	0,004
517,4	0,005
517,8	0,004
518,3	0,004
518,7	0,004
519,2	0,004
519,6	0,004
520,1	0,004
520,5	0,004
521	0,004
521,4	0,005
521,9	0,005
522,3	0,004
522,8	0,004
523,2	0,004
523,7	0,004
524,1	0,004
524,6	0,004
525	0,004
525,5	0,004
525,9	0,004
526,4	0,004
526,8	0,004
527,3	0,004
527,7	0,003
528,2	0,003
528,6	0,004
529,1	0,004
529,5	0,004
530	0,004
530,4	0,004
530,9	0,005
531,3	0,005
531,8	0,005
532,2	0,005
532,6	0,005
533,1	0,005
533,5	0,005
534	0,005
534,4	0,005
534,9	0,006
535,3	0,005
535,8	0,006
536,2	0,006
536,7	0,006
537,1	0,005
537,6	0,005
538	0,004
538,5	0,005
538,9	0,004
539,4	0,004
539,8	0,004
540,3	0,005
540,7	0,005
541,2	0,005
541,6	0,005
542,1	0,004
542,5	0,004
543	0,004
543,4	0,004
543,9	0,004
544,3	0,004
544,8	0,004
545,2	0,005
545,7	0,005
546,1	0,005
546,5	0,006
547	0,006
547,4	0,006
547,9	0,005
548,3	0,005
548,8	0,005
549,2	0,005
549,7	0,005
550,1	0,005
550,6	0,005
551	0,005
551,5	0,005
551,9	0,005
552,4	0,005
552,8	0,005
553,3	0,005
553,7	0,005
554,2	0,006
554,6	0,006
555,1	0,006
555,5	0,006
555,9	0,005
556,4	0,005
556,8	0,005
557,3	0,005
557,7	0,006
558,2	0,005
558,6	0,006
559,1	0,006
559,5	0,005
560	0,005
560,4	0,005
560,9	0,005
561,3	0,005
561,8	0,005
562,2	0,005
562,7	0,005
563,1	0,005
563,6	0,005
564	0,005
564,4	0,006
564,9	0,005
565,3	0,005
565,8	0,005
566,2	0,005
566,7	0,005
567,1	0,005
567,6	0,004
568	0,004
568,5	0,004
568,9	0,004
569,4	0,004
569,8	0,004
570,3	0,004
570,7	0,004
571,1	0,004
571,6	0,005
572	0,005
572,5	0,005
572,9	0,006
573,4	0,006
573,8	0,005
574,3	0,005
574,7	0,005
575,2	0,005
575,6	0,005
576,1	0,004
576,5	0,004
576,9	0,005
577,4	0,004
577,8	0,004
578,3	0,005
578,7	0,004
579,2	0,005
579,6	0,005
580,1	0,005
580,5	0,005
581	0,005
581,4	0,004
581,9	0,004
582,3	0,004
582,7	0,005
583,2	0,005
583,6	0,005
584,1	0,005
584,5	0,006
585	0,006
585,4	0,006
585,9	0,006
586,3	0,006
586,8	0,005
587,2	0,005
587,6	0,006
588,1	0,006
588,5	0,006
589	0,006
589,4	0,006
589,9	0,006
590,3	0,006
590,8	0,006
591,2	0,006
591,7	0,005
592,1	0,006
592,5	0,005
593	0,005
593,4	0,005
593,9	0,005
594,3	0,005
594,8	0,005
595,2	0,004
595,7	0,005
596,1	0,005
596,6	0,005
597	0,005
597,4	0,005
597,9	0,005
598,3	0,005
598,8	0,005
599,2	0,005
599,7	0,005
600,1	0,005
600,6	0,005
601	0,005
601,4	0,005
601,9	0,004
602,3	0,005
602,8	0,005
603,2	0,005
603,7	0,005
604,1	0,005
604,6	0,006
605	0,006
605,4	0,006
605,9	0,006
606,3	0,006
606,8	0,006
607,2	0,006
607,7	0,006
608,1	0,005
608,6	0,005
609	0,005
609,4	0,005
609,9	0,005
610,3	0,005
610,8	0,005
611,2	0,005
611,7	0,005
612,1	0,005
612,6	0,005
613	0,005
613,4	0,005
613,9	0,005
614,3	0,005
614,8	0,005
615,2	0,005
615,7	0,005
616,1	0,005
616,6	0,005
617	0,005
617,4	0,005
617,9	0,005
618,3	0,005
618,8	0,005
619,2	0,005
619,7	0,005
620,1	0,005
620,5	0,005
621	0,005
621,4	0,005
621,9	0,005
622,3	0,005
622,8	0,005
623,2	0,005
623,6	0,005
624,1	0,004
624,5	0,004
625	0,004
625,4	0,004
625,9	0,004
626,3	0,004
626,8	0,004
627,2	0,004
627,6	0,005
628,1	0,005
628,5	0,005
629	0,005
629,4	0,006
629,9	0,005
630,3	0,005
630,7	0,006
631,2	0,006
631,6	0,005
632,1	0,005
632,5	0,005
633	0,006
633,4	0,006
633,8	0,005
634,3	0,005
634,7	0,005
635,2	0,005
635,6	0,004
636,1	0,004
636,5	0,005
636,9	0,005
637,4	0,005
637,8	0,005
638,3	0,006
638,7	0,005
639,2	0,005
639,6	0,005
640	0,004
640,5	0,004
640,9	0,005
641,4	0,004
641,8	0,005
642,2	0,005
642,7	0,005
643,1	0,005
643,6	0,005
644	0,005
644,5	0,005
644,9	0,005
645,3	0,005
645,8	0,005
646,2	0,005
646,7	0,005
647,1	0,005
647,6	0,006
648	0,005
648,4	0,005
648,9	0,005
649,3	0,004
649,8	0,004
650,2	0,004
650,6	0,004
651,1	0,004
651,5	0,004
652	0,004
652,4	0,004
652,9	0,004
653,3	0,004
653,7	0,003
654,2	0,003
654,6	0,004
655,1	0,005
655,5	0,003
655,9	0,002
656,4	0,002
656,8	0,004
657,3	0,005
657,7	0,005
658,2	0,005
658,6	0,007
659	0,01
659,5	0,015
659,9	0,012
660,4	0,009
660,8	0,008
661,2	0,007
661,7	0,006
662,1	0,006
662,6	0,006
663	0,006
663,4	0,006
663,9	0,006
664,3	0,006
664,8	0,006
665,2	0,005
665,6	0,005
666,1	0,005
666,5	0,005
667	0,005
667,4	0,005
667,9	0,005
668,3	0,005
668,7	0,005
669,2	0,004
669,6	0,004
670,1	0,004
670,5	0,004
670,9	0,004
671,4	0,005
671,8	0,005
672,3	0,005
672,7	0,005
673,1	0,005
673,6	0,005
674	0,005
674,5	0,005
674,9	0,005
675,3	0,005
675,8	0,005
676,2	0,005
676,7	0,005
677,1	0,004
677,5	0,004
678	0,004
678,4	0,004
678,9	0,004
679,3	0,004
679,7	0,004
680,2	0,005
680,6	0,005
681,1	0,005
681,5	0,005
681,9	0,005
682,4	0,004
682,8	0,004
683,3	0,004
683,7	0,004
684,1	0,004
684,6	0,003
685	0,003
685,5	0,003
685,9	0,003
686,3	0,003
686,8	0,003
687,2	0,003
687,7	0,003
688,1	0,004
688,5	0,004
689	0,004
689,4	0,005
689,9	0,005
690,3	0,005
690,7	0,005
691,2	0,005
691,6	0,005
692	0,004
692,5	0,005
692,9	0,004
693,4	0,004
693,8	0,004
694,2	0,004
694,7	0,004
695,1	0,004
695,6	0,004
696	0,005
696,4	0,005
696,9	0,004
697,3	0,004
697,8	0,004
698,2	0,004
698,6	0,003
699,1	0,004
699,5	0,004
699,9	0,004
700,4	0,004
700,8	0,005
701,3	0,005
701,7	0,005
702,1	0,004
702,6	0,004
703	0,004
703,5	0,004
703,9	0,003
704,3	0,003
704,8	0,004
705,2	0,004
705,6	0,005
706,1	0,005
706,5	0,005
707	0,005
707,4	0,004
707,8	0,004
708,3	0,004
708,7	0,004
709,2	0,003
709,6	0,003
710	0,004
710,5	0,004
710,9	0,004
711,3	0,004
711,8	0,004
712,2	0,004
712,7	0,004
713,1	0,004
713,5	0,004
714	0,003
714,4	0,003
714,8	0,003
715,3	0,004
715,7	0,003
716,2	0,003
716,6	0,004
717	0,004
717,5	0,004
717,9	0,004
718,3	0,004
718,8	0,004
719,2	0,005
719,7	0,005
720,1	0,005
720,5	0,005
721	0,005
721,4	0,005
721,8	0,005
722,3	0,005
722,7	0,004
723,2	0,004
723,6	0,004
724	0,004
724,5	0,004
724,9	0,003
725,3	0,003
725,8	0,003
726,2	0,003
726,7	0,003
727,1	0,003
727,5	0,003
728	0,003
728,4	0,002
728,8	0,002
729,3	0,002
729,7	0,002
730,1	0,002
730,6	0,002
731	0,002
731,5	0,002
731,9	0,002
732,3	0,002
732,8	0,002
733,2	0,002
733,6	0,003
734,1	0,003
734,5	0,003
734,9	0,003
735,4	0,003
735,8	0,003
736,3	0,004
736,7	0,004
737,1	0,004
737,6	0,004
738	0,004
738,4	0,004
738,9	0,005
739,3	0,005
739,7	0,005
740,2	0,004
740,6	0,004
741,1	0,004
741,5	0,004
741,9	0,003
742,4	0,003
742,8	0,003
743,2	0,003
743,7	0,004
744,1	0,004
744,5	0,004
745	0,004
745,4	0,004
745,8	0,004
746,3	0,004
746,7	0,004
747,2	0,004
747,6	0,004
748	0,003
748,5	0,003
748,9	0,003
749,3	0,003
749,8	0,003
750,2	0,003
750,6	0,003
751,1	0,003
751,5	0,003
751,9	0,003
752,4	0,003
752,8	0,003
753,3	0,004
753,7	0,003
754,1	0,003
754,6	0,003
755	0,003
755,4	0,003
755,9	0,002
756,3	0,003
756,7	0,003
757,2	0,003
757,6	0,003
758	0,003
758,5	0,003
758,9	0,003
759,3	0,003
759,8	0,003
760,2	0,003
760,6	0,003
761,1	0,003
761,5	0,003
761,9	0,003
762,4	0,003
762,8	0,003
763,3	0,002
763,7	0,002
764,1	0,002
764,6	0,002
765	0,002
765,4	0,002
765,9	0,002
766,3	0,002
766,7	0,002
767,2	0,002
767,6	0,002
768	0,002
768,5	0,002
768,9	0,002
769,3	0,002
769,8	0,002
770,2	0,003
770,6	0,003
771,1	0,003
771,5	0,002
771,9	0,002
772,4	0,003
772,8	0,002
773,2	0,002
773,7	0,003
774,1	0,003
774,5	0,003
775	0,004
775,4	0,003
775,8	0,004
776,3	0,004
776,7	0,004
777,1	0,004
777,6	0,004
778	0,003
778,4	0,004
778,9	0,004
779,3	0,004
779,7	0,004
780,2	0,004
780,6	0,004
781	0,004
781,5	0,004
781,9	0,004
782,3	0,004
782,8	0,004
783,2	0,004
783,6	0,003
784,1	0,003
784,5	0,003
784,9	0,003
785,4	0,003
785,8	0,003
786,2	0,003
786,7	0,003
787,1	0,003
787,5	0,003
788	0,003
788,4	0,003
788,8	0,003
789,3	0,003
789,7	0,003
790,1	0,003
790,6	0,003
791	0,003
791,4	0,003
791,9	0,003
792,3	0,003
792,7	0,004
793,2	0,003
793,6	0,003
794	0,003
794,5	0,003
794,9	0,003
795,3	0,003
795,8	0,003
796,2	0,003
796,6	0,003
797,1	0,004
797,5	0,004
797,9	0,004
798,4	0,004
798,8	0,003
799,2	0,003
799,7	0,003
800,1	0,004
800,5	0,004
801	0,004
801,4	0,004
801,8	0,004
802,2	0,005
802,7	0,004
803,1	0,004
803,5	0,004
804	0,004
804,4	0,003
804,8	0,003
805,3	0,003
805,7	0,003
806,1	0,003
806,6	0,003
807	0,003
807,4	0,003
807,9	0,003
808,3	0,003
808,7	0,003
809,2	0,003
809,6	0,003
810	0,003
810,4	0,003
810,9	0,003
811,3	0,003
811,7	0,003
812,2	0,003
812,6	0,003
813	0,004
813,5	0,004
813,9	0,004
814,3	0,004
814,8	0,004
815,2	0,004
815,6	0,003
816,1	0,003
816,5	0,003
816,9	0,003
817,3	0,003
817,8	0,002
818,2	0,002
818,6	0,002
819,1	0,002
819,5	0,002
819,9	0,002
820,4	0,002
820,8	0,002
821,2	0,002
821,7	0,002
822,1	0,003
822,5	0,003
822,9	0,002
823,4	0,002
823,8	0,002
824,2	0,002
824,7	0,003
825,1	0,003
825,5	0,003
826	0,004
826,4	0,004
826,8	0,004
827,3	0,004
827,7	0,004
828,1	0,005
828,5	0,004
829	0,004
829,4	0,004
829,8	0,004
830,3	0,003
830,7	0,003
831,1	0,003
831,6	0,003
832	0,003
832,4	0,003
832,8	0,003
833,3	0,003
833,7	0,003
834,1	0,002
834,6	0,002
835	0,002
835,4	0,002
835,8	0,002
836,3	0,002
836,7	0,002
837,1	0,003
837,6	0,003
838	0,003
838,4	0,003
838,9	0,003
839,3	0,002
839,7	0,002
840,1	0,002
840,6	0,002
841	0,002
841,4	0,002
841,9	0,002
842,3	0,002
842,7	0,002
843,1	0,002
843,6	0,002
844	0,002
844,4	0,002
844,9	0,002
845,3	0,002
845,7	0,003
846,2	0,003
846,6	0,003
847	0,003
847,4	0,003
847,9	0,003
848,3	0,003
848,7	0,003
849,2	0,003
849,6	0,003
850	0,003
850,4	0,003
850,9	0,003
851,3	0,003
851,7	0,003
852,2	0,003
852,6	0,002
853	0,002
853,4	0,002
853,9	0,002
854,3	0,003
854,7	0,003
855,2	0,003
855,6	0,003
856	0,003
856,4	0,003
856,9	0,002
857,3	0,002
857,7	0,002
858,2	0,002
858,6	0,002
859	0,002
859,4	0,002
859,9	0,002
860,3	0,002
860,7	0,002
861,1	0,002
861,6	0,002
862	0,002
862,4	0,002
862,9	0,002
863,3	0,002
863,7	0,002
864,1	0,002
864,6	0,002
865	0,002
865,4	0,002
865,9	0,002
866,3	0,002
866,7	0,002
867,1	0,001
867,6	0,001
868	0,001
868,4	0,001
868,8	0,001
869,3	0,001
869,7	0,001
870,1	0,001
870,6	0,002
871	0,002
871,4	0,002
871,8	0,002
872,3	0,002
872,7	0,002
873,1	0,002
873,5	0,002
874	0,002
874,4	0,002
874,8	0,002
875,3	0,002
875,7	0,002
876,1	0,002
876,5	0,002
877	0,002
877,4	0,002
877,8	0,002
878,2	0,001
878,7	0,001
879,1	0,001
879,5	0,002
879,9	0,001
880,4	0,001
880,8	0,002
881,2	0,002
881,7	0,002
882,1	0,002
882,5	0,002
882,9	0,002
883,4	0,002
883,8	0,002
884,2	0,002
884,6	0,002
885,1	0,002
885,5	0,001
885,9	0,001
886,3	0,001
886,8	0,001
887,2	0,001
887,6	0,001
888	0,001
888,5	0,001
888,9	0,002
889,3	0,002
889,8	0,002
890,2	0,002
890,6	0,003
891	0,002
891,5	0,002
891,9	0,002
892,3	0,002
892,7	0,002
893,2	0,002
893,6	0,002
894	0,002
894,4	0,002
894,9	0,001
895,3	0,001
895,7	0,001
896,1	0,001
896,6	0,001
897	0,001
897,4	0,001
897,8	0,001
898,3	0,001
898,7	0,001
899,1	0,001
899,5	0,001
900	0,001
900,4	0,002
900,8	0,001
901,2	0,002
901,7	0,002
902,1	0,002
902,5	0,002
902,9	0,002
903,4	0,002
903,8	0,002
904,2	0,002
904,6	0,002
905,1	0,002
905,5	0,002
905,9	0,002
906,3	0,002
906,8	0,001
907,2	0,001
907,6	0,001
908	0,001
908,5	0,002
908,9	0,002
909,3	0,001
909,7	0,002
910,2	0,002
910,6	0,002
911	0,002
911,4	0,002
911,9	0,002
912,3	0,002
912,7	0,002
913,1	0,002
913,6	0,002
914	0,002
914,4	0,002
914,8	0,002
915,3	0,002
915,7	0,001
916,1	0,001
916,5	0,001
916,9	0,001
917,4	0,001
917,8	0,001
918,2	0,001
918,6	0,001
919,1	0,001
919,5	0,001
919,9	0,001
920,3	0,001
920,8	0,001
921,2	0,002
921,6	0,002
922	0,001
922,5	0,001
922,9	0,001
923,3	0,001
923,7	0,001
924,2	0
924,6	0
925	0
925,4	0
925,8	0
926,3	0
926,7	0
927,1	0,001
927,5	0,001
928	0,001
928,4	0,001
928,8	0,001
929,2	0,002
929,7	0,002
930,1	0,002
930,5	0,002
930,9	0,002
931,3	0,002
931,8	0,002
932,2	0,001
932,6	0,001
933	0,001
933,5	0,001
933,9	0,001
934,3	0
934,7	0
935,2	0
935,6	0,001
936	0,001
936,4	0,001
936,8	0,001
937,3	0,002
937,7	0,002
938,1	0,002
938,5	0,001
939	0,002
939,4	0,002
939,8	0,002
940,2	0,002
940,6	0,002
941,1	0,002
941,5	0,002
941,9	0,002
942,3	0,002
942,8	0,003
943,2	0,002
943,6	0,001
944	0,001
944,4	0,001
944,9	0,001
945,3	0,001
945,7	0
946,1	0,001
946,6	0,001
947	0,001
947,4	0,001
947,8	0,001
948,2	0,001
948,7	0,001
949,1	0,001
949,5	0,001
949,9	0,001
950,3	0
950,8	0,001
951,2	0,001
951,6	0
952	0
952,5	0
952,9	-0
953,3	0
953,7	0
954,1	0
954,6	0,001
955	0,001
955,4	0,001
955,8	0,001
956,2	0,002
956,7	0,002
957,1	0,002
957,5	0,002
957,9	0,002
958,3	0,002
958,8	0,002
959,2	0,002
959,6	0,001
960	0,001
960,5	-0
960,9	-0
961,3	-0
961,7	-0,001
962,1	-0
962,6	0
963	0,001
963,4	0,001
963,8	0,001
964,2	0,002
964,7	0,002
965,1	0,002
965,5	0,001
965,9	0,001
966,3	0,001
966,8	0,002
967,2	0,002
967,6	0,001
968	0,002
968,4	0,002
968,9	0,003
969,3	0,002
969,7	0,002
970,1	0,002
970,5	0,002
971	0,003
971,4	0,002
971,8	0,002
972,2	0,002
972,6	0,001
973,1	0,001
973,5	0,001
973,9	0,001
974,3	0
974,7	0
975,2	0
975,6	0,001
976	0,001
976,4	0,001
976,8	0
977,3	-0
977,7	-0
978,1	-0
978,5	-0
978,9	-0
979,4	-0
979,8	-0
980,2	0
980,6	0,001
981	0,001
981,5	0,001
981,9	0,001
982,3	0,001
982,7	0,001
983,1	0,002
983,6	0,001
984	0,001
984,4	0,001
984,8	0,001
985,2	0,001
985,6	0,002
986,1	0,002
986,5	0,003
986,9	0,003
987,3	0,004
987,7	0,003
988,2	0,003
988,6	0,003
989	0,003
989,4	0,003
989,8	0,003
990,3	0,002
990,7	0,003
991,1	0,003
991,5	0,003
991,9	0,003
992,3	0,002
992,8	0,002
993,2	0,002
993,6	0,002
994	0,001
994,4	0,002
994,9	0,002
995,3	0,002
995,7	0,001
996,1	0,002
996,5	0,002
996,9	0,002
997,4	0,001
997,8	0,001
998,2	0,001
998,6	0,001
999	0,001
999,5	0,001
999,9	0,001
1000,3	0,001
1000,7	-0
1001,1	0
1001,5	-0
1002	-0
1002,4	-0,001
1002,8	-0,001
1003,2	-0,001
1003,6	-0,001
1004	-0,001
1004,5	-0
1004,9	-0
1005,3	-0
1005,7	-0
1006,1	0
1006,6	0,001
1007	0,001
1007,4	0,001
1007,8	0,001
1008,2	0,002
1008,6	0,002
1009,1	0,001
1009,5	0,001
1009,9	0,001
1010,3	0,001
1010,7	0,001
1011,1	0,001
1011,6	0
1012	0
1012,4	0,001
1012,8	0,001
1013,2	0,001
1013,6	0
1014,1	0
1014,5	0
1014,9	0,001
1015,3	0
1015,7	0,001
1016,1	0
1016,6	0
1017	0
1017,4	0,001
1017,8	0
1018,2	0
1018,6	-0
1019,1	0
1019,5	0
1019,9	0
1020,3	0
1020,7	0
1021,1	0,001
1021,6	0,001
1022	0,001
1022,4	0,001
1022,8	0,001
1023,2	0,001
1023,6	0,001
1024,1	0,002
1024,5	0,002
1024,9	0,001
1025,3	0,001
1025,7	0,001
1026,1	0,001
1026,6	0,001
1027	-0
1027,4	-0
1027,8	-0,001
1028,2	-0,001
1028,6	-0,001
1029	-0,001
1029,5	-0,001
1029,9	-0
1030,3	-0,001
1030,7	0,001
1031,1	0,001
1031,5	0
1032	0,001
1032,4	0,001
1032,8	0,001
1033,2	0,001
1033,6	0,001
1034	0,002
1034,4	0,001
1034,9	0,001
1035,3	0,001
1035,7	0,001
1036,1	0
1036,5	0
1036,9	0
1037,4	0,001
1037,8	0,001
1038,2	0,001
1038,6	0,002
1039	0,002
1039,4	0,002
1039,8	0,002
1040,3	0,002
1040,7	0,002
1041,1	0,002
1041,5	0,002
1041,9	0,002
1042,3	0,001
1042,7	0,001
1043,2	0,001
1043,6	0,001
1044	0,001
1044,4	0,001
1044,8	0,001
1045,2	0,001
1045,6	0,001
1046,1	0
1046,5	0,001
1046,9	0,001
1047,3	0,001
1047,7	0,001
1048,1	0,002
1048,5	0,001
1049	0,001
1049,4	0,001
1049,8	0,001
1050,2	0,002
1050,6	0,003
1051	0,003
1051,4	0,003
1051,9	0,003
1052,3	0,002
1052,7	0,002
1053,1	0,002
1053,5	0,001
1053,9	0
1054,3	0,001
1054,8	0,001
1055,2	0,001
1055,6	0
1056	0,001
1056,4	0,001
1056,8	0,001
1057,2	0,001
1057,6	0,001
1058,1	0,002
1058,5	0,001
1058,9	0
1059,3	0
1059,7	0
1060,1	-0,001
1060,5	-0,001
1061	-0,001
1061,4	-0
1061,8	-0,001
1062,2	0,001
1062,6	0,001
1063	0,002
1063,4	0,002
1063,8	0,001
1064,3	0,002
1064,7	0,003
1065,1	0,003
1065,5	0,003
1065,9	0,003
1066,3	0,002
1066,7	0,001
1067,1	-0
1067,6	-0
1068	-0
1068,4	-0,001
1068,8	-0,001
1069,2	-0,001
1069,6	0
1070	0,001
1070,4	-0
1070,9	-0,001
1071,3	-0,002
1071,7	-0
1072,1	-0
1072,5	-0
1072,9	0
1073,3	0
1073,7	-0,001
1074,2	-0
1074,6	-0,002
1075	-0,002
1075,4	-0,002
1075,8	-0,002
1076,2	-0,001
1076,6	-0
1077	0
1077,5	0,002
1077,9	0,001
1078,3	-0,001
1078,7	-0,001
1079,1	-0,002
1079,5	-0,003
1079,9	-0,002
1080,3	-0,004
1080,7	-0,003
1081,2	-0,002
1081,6	-0,003
1082	-0,001
1082,4	-0,001
1082,8	-0,001
1083,2	-0
1083,6	-0,002
1084	0
1084,5	-0,001
1084,9	-0,002
1085,3	-0,001
1085,7	-0
1086,1	-0,001
1086,5	-0,001
1086,9	-0,001
1087,3	-0,001
1087,7	-0
1088,2	0,001
1088,6	0
1089	0,001
1089,4	0,003
1089,8	0,004
1090,2	0,007
1090,6	0,006
1091	0,005
1091,4	0,003
1091,9	0,004
1092,3	0,002
1092,7	0,003
1093,1	0,002
1093,5	0,004
1093,9	0,005
1094,3	0,011
1094,7	0,011
1095,1	0,01
1095,5	0,007
1096	0,003
1096,4	0,002
1096,8	0
1097,2	0,001
1097,6	0,006
1098	0,009
1098,4	0,014
1098,8	0,016
1099,2	0,015
1099,6	0,018
1100,1	0,008
1100,5	0,006
1100,9	0,004
1101,3	-0,002
1101,7	-0,004
1102,1	-0,005
1102,5	-0,012
1102,9	-0,011
1103,3	-0,016
1103,7	-0,009
1104,2	-0,007
1104,6	-0,001
1105	0,009
1105,4	0,013
1105,8	0,026
1106,2	0,027
1106,6	0,026
1107	0,027
1107,4	0,02
1107,8	0,028
1108,3	-0,041
