Data from Absorbance_00003.txt Node
Date: Thu Aug 10 14:43:52 MSK 2023
User: vat
Spectrometer: MAYP114033
Trigger mode: 0
Integration Time (sec): 8,000000E-3
Scans to average: 10
Electric dark correction enabled: true
Nonlinearity correction enabled: false
Boxcar width: 3
XAxis mode: Wavelengths
Number of Pixels in Spectrum: 2068
>>>>>Begin Spectral Data<<<<<
199,4	-0
199,9	0,39
200,4	0,587
200,8	0,891
201,3	1,014
201,8	1,01
202,2	0,986
202,7	1,022
203,2	1,053
203,6	1,088
204,1	1,091
204,6	1,088
205	1,113
205,5	1,161
206	1,165
206,4	1,182
206,9	1,181
207,4	1,208
207,8	1,21
208,3	1,203
208,8	1,221
209,2	1,232
209,7	1,235
210,2	1,257
210,6	1,257
211,1	1,301
211,5	1,318
212	1,336
212,5	1,363
212,9	1,384
213,4	1,395
213,9	1,406
214,3	1,421
214,8	1,461
215,3	1,435
215,7	1,444
216,2	1,461
216,7	1,478
217,1	1,504
217,6	1,505
218,1	1,505
218,5	1,529
219	1,532
219,5	1,559
219,9	1,548
220,4	1,557
220,9	1,573
221,3	1,602
221,8	1,627
222,3	1,651
222,7	1,653
223,2	1,695
223,6	1,715
224,1	1,73
224,6	1,751
225	1,769
225,5	1,78
226	1,802
226,4	1,812
226,9	1,818
227,4	1,836
227,8	1,825
228,3	1,837
228,8	1,854
229,2	1,882
229,7	1,912
230,2	1,956
230,6	1,951
231,1	1,952
231,5	1,96
232	1,953
232,5	1,954
232,9	1,937
233,4	1,956
233,9	1,984
234,3	1,988
234,8	2,003
235,3	2,03
235,7	2,021
236,2	2,035
236,7	1,999
237,1	2,003
237,6	2,026
238,1	2,036
238,5	2,057
239	2,07
239,4	2,095
239,9	2,113
240,4	2,115
240,8	2,131
241,3	2,124
241,8	2,115
242,2	2,12
242,7	2,11
243,2	2,122
243,6	2,119
244,1	2,135
244,6	2,128
245	2,14
245,5	2,149
245,9	2,151
246,4	2,134
246,9	2,126
247,3	2,111
247,8	2,13
248,3	2,107
248,7	2,112
249,2	2,123
249,7	2,12
250,1	2,136
250,6	2,141
251	2,137
251,5	2,164
252	2,17
252,4	2,173
252,9	2,187
253,4	2,203
253,8	2,204
254,3	2,204
254,8	2,2
255,2	2,191
255,7	2,197
256,1	2,213
256,6	2,2
257,1	2,183
257,5	2,182
258	2,183
258,5	2,184
258,9	2,192
259,4	2,202
259,9	2,226
260,3	2,233
260,8	2,255
261,2	2,253
261,7	2,249
262,2	2,247
262,6	2,23
263,1	2,203
263,6	2,19
264	2,163
264,5	2,157
264,9	2,19
265,4	2,186
265,9	2,181
266,3	2,178
266,8	2,201
267,3	2,22
267,7	2,242
268,2	2,203
268,7	2,212
269,1	2,221
269,6	2,244
270	2,266
270,5	2,258
271	2,24
271,4	2,26
271,9	2,256
272,4	2,262
272,8	2,262
273,3	2,253
273,7	2,269
274,2	2,296
274,7	2,294
275,1	2,278
275,6	2,265
276,1	2,265
276,5	2,261
277	2,256
277,4	2,238
277,9	2,246
278,4	2,265
278,8	2,27
279,3	2,261
279,8	2,254
280,2	2,267
280,7	2,277
281,1	2,286
281,6	2,275
282,1	2,292
282,5	2,292
283	2,293
283,4	2,265
283,9	2,254
284,4	2,237
284,8	2,222
285,3	2,198
285,8	2,195
286,2	2,185
286,7	2,169
287,1	2,145
287,6	2,109
288,1	2,083
288,5	2,054
289	2,005
289,5	1,954
289,9	1,909
290,4	1,872
290,8	1,831
291,3	1,788
291,8	1,745
292,2	1,708
292,7	1,679
293,1	1,654
293,6	1,631
294,1	1,618
294,5	1,602
295	1,59
295,5	1,579
295,9	1,565
296,4	1,551
296,8	1,544
297,3	1,527
297,8	1,522
298,2	1,513
298,7	1,506
299,1	1,502
299,6	1,498
300,1	1,485
300,5	1,48
301	1,473
301,5	1,465
301,9	1,457
302,4	1,448
302,8	1,442
303,3	1,432
303,8	1,427
304,2	1,418
304,7	1,41
305,1	1,405
305,6	1,397
306,1	1,387
306,5	1,378
307	1,367
307,4	1,357
307,9	1,346
308,4	1,335
308,8	1,327
309,3	1,315
309,8	1,306
310,2	1,296
310,7	1,286
311,1	1,279
311,6	1,267
312,1	1,256
312,5	1,249
313	1,24
313,4	1,228
313,9	1,218
314,4	1,206
314,8	1,196
315,3	1,181
315,7	1,17
316,2	1,159
316,7	1,15
317,1	1,14
317,6	1,128
318	1,118
318,5	1,109
319	1,095
319,4	1,084
319,9	1,072
320,3	1,059
320,8	1,049
321,3	1,037
321,7	1,026
322,2	1,017
322,6	1,007
323,1	0,996
323,6	0,985
324	0,974
324,5	0,963
324,9	0,952
325,4	0,94
325,9	0,927
326,3	0,915
326,8	0,905
327,2	0,892
327,7	0,88
328,2	0,87
328,6	0,859
329,1	0,848
329,5	0,836
330	0,824
330,5	0,813
330,9	0,802
331,4	0,789
331,8	0,779
332,3	0,766
332,8	0,754
333,2	0,743
333,7	0,732
334,1	0,721
334,6	0,712
335,1	0,7
335,5	0,69
336	0,68
336,4	0,669
336,9	0,66
337,4	0,649
337,8	0,637
338,3	0,627
338,7	0,618
339,2	0,606
339,7	0,595
340,1	0,584
340,6	0,575
341	0,565
341,5	0,555
342	0,545
342,4	0,535
342,9	0,526
343,3	0,518
343,8	0,509
344,2	0,5
344,7	0,491
345,2	0,483
345,6	0,475
346,1	0,466
346,5	0,457
347	0,449
347,5	0,44
347,9	0,432
348,4	0,424
348,8	0,417
349,3	0,41
349,8	0,402
350,2	0,395
350,7	0,388
351,1	0,38
351,6	0,373
352	0,366
352,5	0,359
353	0,352
353,4	0,345
353,9	0,339
354,3	0,333
354,8	0,326
355,3	0,32
355,7	0,314
356,2	0,308
356,6	0,303
357,1	0,297
357,5	0,293
358	0,287
358,5	0,282
358,9	0,276
359,4	0,272
359,8	0,267
360,3	0,262
360,8	0,256
361,2	0,251
361,7	0,247
362,1	0,243
362,6	0,238
363	0,233
363,5	0,229
364	0,225
364,4	0,222
364,9	0,218
365,3	0,214
365,8	0,21
366,3	0,207
366,7	0,204
367,2	0,2
367,6	0,197
368,1	0,193
368,5	0,19
369	0,187
369,5	0,184
369,9	0,181
370,4	0,178
370,8	0,176
371,3	0,173
371,7	0,171
372,2	0,168
372,7	0,166
373,1	0,164
373,6	0,162
374	0,158
374,5	0,156
374,9	0,154
375,4	0,151
375,9	0,149
376,3	0,147
376,8	0,144
377,2	0,143
377,7	0,141
378,2	0,139
378,6	0,137
379,1	0,135
379,5	0,132
380	0,13
380,4	0,129
380,9	0,127
381,4	0,124
381,8	0,122
382,3	0,121
382,7	0,119
383,2	0,118
383,6	0,116
384,1	0,114
384,6	0,113
385	0,112
385,5	0,11
385,9	0,108
386,4	0,106
386,8	0,104
387,3	0,104
387,7	0,102
388,2	0,101
388,7	0,099
389,1	0,098
389,6	0,097
390	0,096
390,5	0,095
390,9	0,094
391,4	0,092
391,9	0,091
392,3	0,089
392,8	0,089
393,2	0,086
393,7	0,085
394,1	0,083
394,6	0,082
395,1	0,081
395,5	0,079
396	0,078
396,4	0,077
396,9	0,076
397,3	0,075
397,8	0,074
398,2	0,073
398,7	0,073
399,2	0,071
399,6	0,069
400,1	0,068
400,5	0,067
401	0,066
401,4	0,065
401,9	0,063
402,4	0,062
402,8	0,061
403,3	0,061
403,7	0,059
404,2	0,059
404,6	0,058
405,1	0,057
405,5	0,056
406	0,055
406,5	0,054
406,9	0,053
407,4	0,052
407,8	0,051
408,3	0,05
408,7	0,05
409,2	0,049
409,6	0,048
410,1	0,047
410,6	0,046
411	0,045
411,5	0,044
411,9	0,044
412,4	0,043
412,8	0,042
413,3	0,041
413,7	0,041
414,2	0,04
414,7	0,04
415,1	0,038
415,6	0,037
416	0,036
416,5	0,035
416,9	0,034
417,4	0,034
417,8	0,033
418,3	0,032
418,8	0,032
419,2	0,031
419,7	0,031
420,1	0,03
420,6	0,029
421	0,028
421,5	0,027
421,9	0,026
422,4	0,026
422,8	0,025
423,3	0,025
423,8	0,024
424,2	0,024
424,7	0,023
425,1	0,023
425,6	0,023
426	0,022
426,5	0,021
426,9	0,02
427,4	0,019
427,9	0,018
428,3	0,017
428,8	0,016
429,2	0,017
429,7	0,017
430,1	0,017
430,6	0,017
431	0,016
431,5	0,016
431,9	0,016
432,4	0,015
432,8	0,014
433,3	0,013
433,8	0,013
434,2	0,012
434,7	0,011
435,1	0,011
435,6	0,011
436	0,011
436,5	0,01
436,9	0,01
437,4	0,009
437,8	0,01
438,3	0,01
438,8	0,009
439,2	0,009
439,7	0,008
440,1	0,008
440,6	0,008
441	0,007
441,5	0,007
441,9	0,007
442,4	0,006
442,8	0,006
443,3	0,006
443,7	0,006
444,2	0,005
444,7	0,006
445,1	0,006
445,6	0,006
446	0,006
446,5	0,006
446,9	0,006
447,4	0,006
447,8	0,005
448,3	0,004
448,7	0,003
449,2	0,003
449,6	0,003
450,1	0,003
450,6	0,003
451	0,003
451,5	0,003
451,9	0,003
452,4	0,003
452,8	0,003
453,3	0,003
453,7	0,003
454,2	0,003
454,6	0,003
455,1	0,002
455,5	0,002
456	0,002
456,4	0,002
456,9	0,002
457,3	0,002
457,8	0,002
458,3	0,002
458,7	0,002
459,2	0,002
459,6	0,002
460,1	0,002
460,5	0,002
461	0,002
461,4	0,002
461,9	0,001
462,3	0,001
462,8	0,001
463,2	-0
463,7	0
464,1	0
464,6	0
465	0
465,5	0
466	0
466,4	0
466,9	0
467,3	0,001
467,8	0,001
468,2	-0
468,7	0
469,1	0
469,6	-0
470	-0
470,5	-0
470,9	-0
471,4	0
471,8	-0,001
472,3	-0
472,7	-0
473,2	-0,001
473,6	-0,001
474,1	-0,001
474,5	-0,001
475	-0,001
475,4	-0,002
475,9	-0,002
476,4	-0,001
476,8	-0,001
477,3	-0,001
477,7	-0,001
478,2	-0
478,6	-0,001
479,1	-0
479,5	-0,001
480	-0,001
480,4	-0,001
480,9	-0,001
481,3	-0,001
481,8	-0
482,2	-0
482,7	0
483,1	0
483,6	0,001
484	0
484,5	0
484,9	-0
485,4	0
485,8	-0
486,3	-0,001
486,7	-0,001
487,2	-0,001
487,6	-0,001
488,1	-0,001
488,5	-0,001
489	-0,001
489,4	-0
489,9	-0
490,4	-0
490,8	-0
491,3	0
491,7	-0
492,2	-0
492,6	-0
493,1	-0
493,5	-0
494	0
494,4	-0,001
494,9	0
495,3	0
495,8	-0
496,2	-0,001
496,7	-0,001
497,1	-0,001
497,6	-0,001
498	-0,001
498,5	-0,002
498,9	-0,001
499,4	-0,001
499,8	-0,002
500,3	-0,001
500,7	-0,002
501,2	-0,002
501,6	-0,001
502,1	-0,001
502,5	-0,001
503	-0
503,4	-0
503,9	-0
504,3	-0
504,8	-0,001
505,2	-0
505,7	-0,001
506,1	-0,001
506,6	-0,001
507	-0,001
507,5	-0,001
507,9	-0,001
508,4	-0,002
508,8	-0,002
509,3	-0,002
509,7	-0,001
510,2	-0,001
510,6	-0,001
511,1	-0,001
511,5	-0,001
512	-0,001
512,4	-0
512,9	-0,001
513,3	-0,001
513,8	-0,001
514,2	-0,001
514,7	-0,001
515,1	-0,001
515,6	-0,001
516	-0,001
516,5	-0,001
516,9	-0,001
517,4	-0,001
517,8	-0,001
518,3	-0,002
518,7	-0,002
519,2	-0,002
519,6	-0,001
520,1	-0,002
520,5	-0,001
521	-0,001
521,4	-0,001
521,9	-0,001
522,3	-0,001
522,8	-0
523,2	-0
523,7	-0
524,1	-0,001
524,6	-0,001
525	-0,001
525,5	-0,001
525,9	-0,001
526,4	-0,001
526,8	-0,001
527,3	-0,001
527,7	-0,001
528,2	-0,001
528,6	-0,001
529,1	-0,001
529,5	-0,001
530	-0,001
530,4	-0
530,9	-0,001
531,3	-0
531,8	-0
532,2	-0
532,6	-0,001
533,1	-0,001
533,5	-0,001
534	-0
534,4	-0,001
534,9	-0
535,3	-0
535,8	-0
536,2	0
536,7	0
537,1	0
537,6	0
538	-0
538,5	-0
538,9	-0
539,4	-0
539,8	-0
540,3	-0,001
540,7	-0
541,2	-0
541,6	-0
542,1	-0,001
542,5	-0,001
543	-0,001
543,4	-0
543,9	-0,001
544,3	-0
544,8	-0
545,2	0
545,7	0
546,1	0
546,5	0,001
547	0
547,4	0
547,9	-0
548,3	-0,001
548,8	-0
549,2	-0,001
549,7	-0,001
550,1	-0,001
550,6	-0,001
551	-0,001
551,5	-0,001
551,9	-0,001
552,4	-0,001
552,8	-0,001
553,3	-0,001
553,7	-0,001
554,2	-0,001
554,6	-0
555,1	0
555,5	0,001
555,9	0
556,4	0
556,8	-0
557,3	-0
557,7	-0
558,2	-0
558,6	-0,001
559,1	-0,001
559,5	-0,001
560	-0
560,4	-0
560,9	-0
561,3	-0
561,8	0
562,2	0
562,7	0
563,1	0
563,6	0
564	0
564,4	-0
564,9	-0,001
565,3	-0
565,8	-0,001
566,2	-0,001
566,7	-0,001
567,1	-0
567,6	-0
568	-0
568,5	-0
568,9	-0,001
569,4	-0
569,8	-0,001
570,3	-0,001
570,7	-0,001
571,1	-0,001
571,6	-0
572	-0
572,5	-0
572,9	0
573,4	0
573,8	0
574,3	-0
574,7	-0
575,2	0
575,6	0
576,1	0
576,5	0
576,9	0
577,4	0
577,8	0
578,3	0,001
578,7	0
579,2	0
579,6	0
580,1	0
580,5	-0
581	-0
581,4	-0
581,9	-0
582,3	-0,001
582,7	-0,001
583,2	-0,001
583,6	-0
584,1	-0
584,5	-0
585	0
585,4	0
585,9	0,001
586,3	0,001
586,8	0,001
587,2	0,001
587,6	0,001
588,1	0
588,5	0
589	-0
589,4	0
589,9	-0
590,3	-0
590,8	-0
591,2	0
591,7	-0
592,1	0
592,5	0
593	0
593,4	-0
593,9	-0
594,3	-0,001
594,8	-0
595,2	-0
595,7	-0
596,1	-0
596,6	-0
597	0
597,4	0
597,9	0
598,3	0
598,8	0
599,2	0
599,7	0
600,1	-0
600,6	-0
601	0
601,4	-0
601,9	-0
602,3	-0
602,8	0
603,2	0
603,7	-0
604,1	-0
604,6	-0
605	0
605,4	0
605,9	0
606,3	0
606,8	0
607,2	-0
607,7	-0
608,1	-0
608,6	-0,001
609	-0,001
609,4	-0,001
609,9	-0,001
610,3	-0,001
610,8	-0,001
611,2	-0,001
611,7	-0,001
612,1	-0,001
612,6	-0,001
613	-0,001
613,4	-0,001
613,9	-0,001
614,3	-0,001
614,8	-0
615,2	-0
615,7	-0,001
616,1	-0
616,6	0
617	0
617,4	0,001
617,9	0
618,3	0
618,8	0
619,2	0
619,7	0
620,1	-0
620,5	-0
621	0
621,4	0
621,9	0
622,3	0
622,8	-0
623,2	-0
623,6	-0,001
624,1	-0,001
624,5	-0
625	-0
625,4	-0
625,9	0
626,3	0
626,8	0,001
627,2	0,001
627,6	0,001
628,1	0,001
628,5	0,001
629	0
629,4	0
629,9	-0
630,3	-0
630,7	-0
631,2	-0
631,6	-0
632,1	-0
632,5	-0
633	-0
633,4	-0
633,8	-0
634,3	-0,001
634,7	-0,001
635,2	-0,001
635,6	-0,001
636,1	-0,001
636,5	-0
636,9	0
637,4	0
637,8	0
638,3	0,001
638,7	0
639,2	0,001
639,6	-0
640	-0
640,5	-0
640,9	-0
641,4	-0
641,8	-0
642,2	0
642,7	-0
643,1	-0
643,6	0
644	-0
644,5	-0
644,9	0
645,3	-0
645,8	-0
646,2	-0
646,7	0
647,1	0
647,6	0
648	0
648,4	0
648,9	0
649,3	0
649,8	0
650,2	0
650,6	0
651,1	0,001
651,5	0
652	0
652,4	-0
652,9	-0,001
653,3	-0
653,7	-0,001
654,2	-0,001
654,6	-0
655,1	0
655,5	0
655,9	0
656,4	0
656,8	0
657,3	0
657,7	0
658,2	-0
658,6	-0
659	-0
659,5	-0
659,9	0
660,4	0
660,8	0
661,2	0
661,7	0
662,1	0
662,6	-0
663	0
663,4	0
663,9	-0
664,3	-0
664,8	-0,001
665,2	-0,001
665,6	-0
666,1	-0,001
666,5	-0,001
667	-0,001
667,4	-0
667,9	-0
668,3	-0
668,7	-0
669,2	-0,001
669,6	-0
670,1	-0,001
670,5	-0,001
670,9	-0,001
671,4	-0
671,8	-0
672,3	-0
672,7	-0
673,1	-0
673,6	-0
674	-0
674,5	-0
674,9	0
675,3	0
675,8	0
676,2	0
676,7	0
677,1	-0
677,5	-0
678	-0,001
678,4	-0,001
678,9	-0,001
679,3	-0,001
679,7	-0,001
680,2	-0,001
680,6	-0,001
681,1	-0
681,5	-0
681,9	0
682,4	0
682,8	0
683,3	0
683,7	0
684,1	-0
684,6	0
685	-0
685,5	0
685,9	0
686,3	0
686,8	0
687,2	0
687,7	0
688,1	-0
688,5	-0
689	-0
689,4	-0
689,9	-0
690,3	-0,001
690,7	-0,001
691,2	-0
691,6	-0
692	-0,001
692,5	-0
692,9	-0
693,4	0
693,8	0
694,2	0
694,7	0,001
695,1	0,001
695,6	0,001
696	0,001
696,4	0,001
696,9	0,001
697,3	0,001
697,8	0,001
698,2	0
698,6	0
699,1	-0
699,5	-0
699,9	-0
700,4	-0
700,8	0
701,3	0
701,7	0
702,1	0
702,6	0
703	0
703,5	0
703,9	-0
704,3	0
704,8	0
705,2	0
705,6	0
706,1	0
706,5	0
707	0
707,4	-0
707,8	-0,001
708,3	-0,001
708,7	-0,001
709,2	-0,001
709,6	-0,001
710	-0,001
710,5	-0,001
710,9	-0,001
711,3	-0,001
711,8	-0,001
712,2	-0
712,7	-0
713,1	-0
713,5	-0
714	0
714,4	0
714,8	0
715,3	0
715,7	-0
716,2	-0
716,6	0
717	-0
717,5	-0
717,9	-0
718,3	-0
718,8	0
719,2	0
719,7	0
720,1	0
720,5	0
721	-0
721,4	-0
721,8	-0
722,3	-0
722,7	-0,001
723,2	-0,001
723,6	-0,001
724	-0,001
724,5	-0,001
724,9	-0,001
725,3	-0,001
725,8	-0,001
726,2	-0,001
726,7	-0
727,1	-0
727,5	-0
728	0
728,4	0
728,8	0
729,3	0
729,7	0
730,1	-0
730,6	-0
731	-0
731,5	0
731,9	-0
732,3	-0,001
732,8	-0,001
733,2	-0
733,6	0
734,1	-0
734,5	-0
734,9	-0
735,4	-0
735,8	-0
736,3	-0,001
736,7	-0,001
737,1	0
737,6	-0
738	0
738,4	0
738,9	0
739,3	0
739,7	0
740,2	0
740,6	0
741,1	0,001
741,5	0,001
741,9	0,001
742,4	0,001
742,8	0
743,2	0
743,7	0,001
744,1	0,001
744,5	0,001
745	0,001
745,4	0,001
745,8	0,002
746,3	0,001
746,7	0,001
747,2	0,001
747,6	0,001
748	0,001
748,5	0,001
748,9	0,001
749,3	0,001
749,8	0
750,2	-0
750,6	-0
751,1	-0
751,5	-0
751,9	-0
752,4	-0
752,8	-0
753,3	0
753,7	0
754,1	0
754,6	0
755	0
755,4	0
755,9	0
756,3	0
756,7	-0
757,2	-0
757,6	0
758	0
758,5	-0
758,9	-0
759,3	-0
759,8	-0
760,2	-0
760,6	-0
761,1	-0
761,5	-0
761,9	-0
762,4	-0
762,8	-0
763,3	-0
763,7	0
764,1	-0
764,6	-0
765	-0
765,4	-0
765,9	-0
766,3	-0
766,7	-0,001
767,2	-0,001
767,6	-0,001
768	-0,001
768,5	-0,001
768,9	-0,001
769,3	-0,001
769,8	-0,001
770,2	-0
770,6	-0
771,1	-0
771,5	-0,001
771,9	-0,001
772,4	-0,001
772,8	-0,001
773,2	-0
773,7	-0
774,1	-0
774,5	0,001
775	0,001
775,4	0,001
775,8	0,001
776,3	0,001
776,7	0,001
777,1	0,002
777,6	0,002
778	0,001
778,4	0,001
778,9	0,001
779,3	0,001
779,7	0,001
780,2	0,001
780,6	0
781	0
781,5	0
781,9	0
782,3	-0
782,8	-0
783,2	-0
783,6	-0
784,1	-0
784,5	-0
784,9	-0
785,4	-0
785,8	-0
786,2	0
786,7	0
787,1	0,001
787,5	0,001
788	0
788,4	0
788,8	0
789,3	0
789,7	-0
790,1	-0,001
790,6	-0
791	-0,001
791,4	-0
791,9	-0
792,3	0
792,7	0
793,2	0
793,6	0
794	0
794,5	0
794,9	0
795,3	0
795,8	0
796,2	0,001
796,6	0,001
797,1	0,001
797,5	0,001
797,9	0
798,4	0
798,8	0
799,2	-0
799,7	-0
800,1	-0
800,5	-0
801	0
801,4	0
801,8	0
802,2	0
802,7	0
803,1	0
803,5	0
804	-0
804,4	-0
804,8	-0
805,3	-0,001
805,7	-0
806,1	-0
806,6	0
807	0
807,4	0
807,9	0
808,3	0
808,7	-0
809,2	-0,001
809,6	-0,001
810	-0,001
810,4	-0
810,9	-0,001
811,3	-0
811,7	-0
812,2	-0
812,6	-0
813	-0
813,5	-0
813,9	0
814,3	0
814,8	0
815,2	0
815,6	0
816,1	0
816,5	-0
816,9	-0
817,3	-0
817,8	-0
818,2	0
818,6	0
819,1	-0
819,5	-0
819,9	0
820,4	0
820,8	0
821,2	0
821,7	0
822,1	0
822,5	0,001
822,9	0
823,4	0
823,8	0
824,2	0
824,7	-0
825,1	0
825,5	0
826	0
826,4	0
826,8	0
827,3	0,001
827,7	0,001
828,1	0,001
828,5	0,001
829	0,001
829,4	0,001
829,8	0,001
830,3	0,001
830,7	0,001
831,1	0
831,6	0,001
832	0
832,4	0
832,8	0
833,3	0
833,7	0
834,1	-0
834,6	-0
835	-0
835,4	0
835,8	0
836,3	0
836,7	0
837,1	0,001
837,6	0,001
838	0,001
838,4	0
838,9	0
839,3	0
839,7	0
840,1	0
840,6	0
841	-0
841,4	-0
841,9	-0
842,3	-0
842,7	-0,001
843,1	-0,001
843,6	-0,001
844	-0,001
844,4	-0,001
844,9	-0
845,3	-0
845,7	-0
846,2	0
846,6	0
847	0
847,4	0
847,9	-0
848,3	0
848,7	0
849,2	0
849,6	0
850	0,001
850,4	0,001
850,9	0,001
851,3	0,001
851,7	0,001
852,2	0,001
852,6	0,001
853	0,001
853,4	0,001
853,9	0,001
854,3	0,001
854,7	0,001
855,2	0,001
855,6	0,001
856	0,001
856,4	0,001
856,9	0,001
857,3	0,001
857,7	0,001
858,2	0,001
858,6	0,001
859	0,001
859,4	0,001
859,9	0,001
860,3	0,001
860,7	0
861,1	0
861,6	0
862	0
862,4	0
862,9	0
863,3	0
863,7	0
864,1	0
864,6	0
865	-0
865,4	0
865,9	0
866,3	0
866,7	-0
867,1	-0
867,6	-0,001
868	-0,001
868,4	-0,001
868,8	-0,001
869,3	-0,001
869,7	-0,001
870,1	-0,001
870,6	-0
871	-0
871,4	-0
871,8	-0
872,3	-0
872,7	-0
873,1	0
873,5	0
874	0
874,4	0
874,8	0
875,3	0
875,7	0,001
876,1	0
876,5	-0
877	0
877,4	0
877,8	-0
878,2	-0
878,7	-0
879,1	-0
879,5	0
879,9	0
880,4	0
880,8	0,001
881,2	0,001
881,7	0
882,1	0
882,5	0
882,9	0
883,4	-0
883,8	-0
884,2	-0
884,6	-0
885,1	-0,001
885,5	-0,001
885,9	-0,001
886,3	-0,001
886,8	-0,001
887,2	-0,001
887,6	-0
888	0
888,5	0
888,9	0,001
889,3	0,001
889,8	0,001
890,2	0,001
890,6	0,001
891	0
891,5	0
891,9	-0
892,3	-0
892,7	-0
893,2	-0
893,6	-0,001
894	-0
894,4	-0,001
894,9	-0,001
895,3	-0,001
895,7	-0
896,1	-0
896,6	-0
897	-0
897,4	-0
897,8	0
898,3	0
898,7	0
899,1	0
899,5	0
900	0
900,4	0,001
900,8	0,001
901,2	0
901,7	-0
902,1	-0
902,5	-0
902,9	-0,001
903,4	-0
903,8	-0
904,2	-0,001
904,6	-0
905,1	-0,001
905,5	-0
905,9	-0
906,3	-0
906,8	-0,001
907,2	-0,001
907,6	-0
908	-0,001
908,5	-0,001
908,9	-0,001
909,3	-0,001
909,7	-0,001
910,2	-0
910,6	0
911	0
911,4	0,001
911,9	0,001
912,3	0,001
912,7	0,001
913,1	0
913,6	0
914	0
914,4	0
914,8	0
915,3	0
915,7	-0
916,1	0
916,5	0
916,9	-0
917,4	-0,001
917,8	-0,001
918,2	-0,001
918,6	-0
919,1	-0
919,5	-0
919,9	0
920,3	0
920,8	0
921,2	0
921,6	0
922	0
922,5	0
922,9	-0
923,3	-0
923,7	0
924,2	0
924,6	0
925	0
925,4	0
925,8	0
926,3	0
926,7	0
927,1	-0
927,5	-0
928	-0
928,4	-0
928,8	-0
929,2	-0
929,7	-0
930,1	-0
930,5	-0
930,9	0
931,3	-0
931,8	0
932,2	0,001
932,6	0,001
933	0,001
933,5	0,001
933,9	0,001
934,3	0,001
934,7	0,001
935,2	0,001
935,6	0
936	0,001
936,4	0
936,8	0
937,3	0
937,7	0
938,1	0
938,5	-0
939	-0
939,4	0
939,8	0
940,2	0,001
940,6	0
941,1	0
941,5	-0
941,9	-0
942,3	-0
942,8	0,001
943,2	-0
943,6	-0
944	-0,001
944,4	-0
944,9	0
945,3	-0
945,7	-0,001
946,1	0,001
946,6	0,001
947	0,001
947,4	0,001
947,8	0,001
948,2	0
948,7	0
949,1	-0
949,5	-0
949,9	-0
950,3	-0
950,8	-0
951,2	-0
951,6	-0
952	-0,001
952,5	-0,001
952,9	-0,001
953,3	-0,001
953,7	-0
954,1	0
954,6	0
955	0
955,4	0
955,8	0,001
956,2	0,001
956,7	0,001
957,1	0
957,5	0
957,9	0
958,3	0
958,8	0
959,2	0,001
959,6	0,001
960	0
960,5	-0
960,9	-0
961,3	-0,001
961,7	-0,001
962,1	-0,002
962,6	-0,001
963	-0,001
963,4	-0
963,8	-0,001
964,2	-0
964,7	-0
965,1	-0
965,5	-0,001
965,9	-0,001
966,3	-0,001
966,8	-0
967,2	-0
967,6	-0,001
968	-0
968,4	0
968,9	0,001
969,3	0,001
969,7	0,001
970,1	0,001
970,5	0,001
971	0,001
971,4	0,001
971,8	0,001
972,2	0,001
972,6	0,001
973,1	0,001
973,5	0
973,9	0
974,3	0
974,7	0,001
975,2	0
975,6	0,001
976	0,001
976,4	0,001
976,8	0,001
977,3	0
977,7	0
978,1	-0
978,5	-0
978,9	-0
979,4	-0
979,8	-0
980,2	0
980,6	0
981	0,001
981,5	0,001
981,9	0,001
982,3	0,002
982,7	0,002
983,1	0,001
983,6	0
984	0,001
984,4	0
984,8	0,001
985,2	0
985,6	0,001
986,1	0,001
986,5	0,003
986,9	0,003
987,3	0,003
987,7	0,002
988,2	0,002
988,6	0,001
989	0,001
989,4	0,001
989,8	0,001
990,3	0,001
990,7	0,001
991,1	0,001
991,5	0,001
991,9	0,002
992,3	0,002
992,8	0,001
993,2	0,001
993,6	0,001
994	0,001
994,4	0,001
994,9	0,001
995,3	0
995,7	0,001
996,1	0,001
996,5	0,001
996,9	0
997,4	-0
997,8	-0
998,2	-0
998,6	-0
999	-0,001
999,5	-0
999,9	0
1000,3	0
1000,7	0
1001,1	0,001
1001,5	0,001
1002	0,001
1002,4	0,001
1002,8	0,001
1003,2	0,001
1003,6	0,001
1004	0,001
1004,5	0,001
1004,9	0,001
1005,3	0,001
1005,7	-0
1006,1	0
1006,6	0,001
1007	0,001
1007,4	0
1007,8	-0
1008,2	0
1008,6	0
1009,1	-0
1009,5	-0
1009,9	-0
1010,3	-0
1010,7	-0
1011,1	0
1011,6	0
1012	0
1012,4	-0
1012,8	-0
1013,2	-0,001
1013,6	-0,001
1014,1	-0,002
1014,5	-0,002
1014,9	-0,002
1015,3	-0,002
1015,7	-0,002
1016,1	-0,002
1016,6	-0,001
1017	-0,001
1017,4	-0,001
1017,8	-0,001
1018,2	-0,001
1018,6	-0,001
1019,1	-0,001
1019,5	-0
1019,9	-0,001
1020,3	-0
1020,7	-0
1021,1	0
1021,6	0
1022	0
1022,4	0
1022,8	0
1023,2	-0,001
1023,6	-0,001
1024,1	-0,001
1024,5	-0,001
1024,9	-0,001
1025,3	-0,001
1025,7	-0,001
1026,1	-0,001
1026,6	0
1027	-0,001
1027,4	-0,001
1027,8	-0,001
1028,2	-0,001
1028,6	-0,001
1029	-0,001
1029,5	-0,001
1029,9	-0,001
1030,3	-0,001
1030,7	0
1031,1	0
1031,5	-0
1032	0
1032,4	-0
1032,8	-0,001
1033,2	-0,001
1033,6	-0,001
1034	-0
1034,4	-0,001
1034,9	-0,001
1035,3	-0
1035,7	0
1036,1	0
1036,5	0,001
1036,9	0,001
1037,4	0,002
1037,8	0,001
1038,2	0,001
1038,6	0,001
1039	0,001
1039,4	0,001
1039,8	0
1040,3	-0
1040,7	-0
1041,1	-0,001
1041,5	-0,001
1041,9	-0,001
1042,3	-0,002
1042,7	-0,001
1043,2	-0,002
1043,6	-0,001
1044	-0,001
1044,4	-0
1044,8	-0
1045,2	-0
1045,6	-0
1046,1	-0
1046,5	-0
1046,9	-0,001
1047,3	-0,001
1047,7	-0,001
1048,1	-0,001
1048,5	-0,001
1049	-0,001
1049,4	-0
1049,8	0
1050,2	0,001
1050,6	0,002
1051	0,003
1051,4	0,003
1051,9	0,003
1052,3	0,002
1052,7	0,002
1053,1	0
1053,5	-0,001
1053,9	-0,001
1054,3	-0
1054,8	0
1055,2	-0
1055,6	-0
1056	0
1056,4	0,001
1056,8	0
1057,2	0
1057,6	0
1058,1	0
1058,5	-0
1058,9	0,001
1059,3	-0
1059,7	-0
1060,1	-0,002
1060,5	-0,002
1061	-0,001
1061,4	-0,002
1061,8	-0,002
1062,2	-0,001
1062,6	0,001
1063	0,001
1063,4	0,002
1063,8	0,001
1064,3	0,003
1064,7	0,004
1065,1	0,002
1065,5	0,002
1065,9	0,001
1066,3	0,001
1066,7	0,001
1067,1	0
1067,6	0
1068	0,002
1068,4	0,002
1068,8	0,002
1069,2	0,002
1069,6	0,002
1070	0,002
1070,4	0,001
1070,9	0,001
1071,3	0,001
1071,7	0,002
1072,1	0,003
1072,5	0,002
1072,9	0,003
1073,3	0,002
1073,7	0,001
1074,2	0,002
1074,6	0,001
1075	0,001
1075,4	0,001
1075,8	0
1076,2	0
1076,6	-0
1077	0
1077,5	0
1077,9	0,001
1078,3	0,001
1078,7	0
1079,1	0,001
1079,5	0
1079,9	-0
1080,3	-0
1080,7	-0,001
1081,2	-0,001
1081,6	0
1082	0,002
1082,4	0,003
1082,8	0,004
1083,2	0,005
1083,6	0,003
1084	0,003
1084,5	0,001
1084,9	-0
1085,3	-0,002
1085,7	-0,003
1086,1	-0,005
1086,5	-0,005
1086,9	-0,004
1087,3	-0,003
1087,7	-0,003
1088,2	-0,001
1088,6	-0,002
1089	0
1089,4	0,003
1089,8	0,001
1090,2	0,003
1090,6	0,001
1091	-0,002
1091,4	0
1091,9	-0,001
1092,3	-0,001
1092,7	0,003
1093,1	0,002
1093,5	0,007
1093,9	0,012
1094,3	0,017
1094,7	0,02
1095,1	0,022
1095,5	0,019
1096	0,016
1096,4	0,01
1096,8	0,011
1097,2	0,003
1097,6	0,007
1098	0,005
1098,4	0,005
1098,8	0,008
1099,2	0,009
1099,6	0,006
1100,1	0,005
1100,5	-0,001
1100,9	-0,008
1101,3	-0,006
1101,7	-0,002
1102,1	-0,007
1102,5	-0,011
1102,9	-0,009
1103,3	-0,007
1103,7	0,012
1104,2	0,01
1104,6	0,002
1105	0,01
1105,4	0,014
1105,8	0,014
1106,2	0,004
1106,6	-0,005
1107	-0,014
1107,4	-0,009
1107,8	-0,03
1108,3	-0
