Data from Absorbance_00009.txt Node
Date: Thu Aug 10 15:42:02 MSK 2023
User: vat
Spectrometer: MAYP114033
Trigger mode: 0
Integration Time (sec): 8,000000E-3
Scans to average: 10
Electric dark correction enabled: true
Nonlinearity correction enabled: false
Boxcar width: 3
XAxis mode: Wavelengths
Number of Pixels in Spectrum: 2068
>>>>>Begin Spectral Data<<<<<
199,4	-0
199,9	-0
200,4	0,952
200,8	1,019
201,3	1,044
201,8	1,032
202,2	1,019
202,7	1,041
203,2	1,092
203,6	1,123
204,1	1,138
204,6	1,123
205	1,16
205,5	1,221
206	1,241
206,4	1,269
206,9	1,28
207,4	1,308
207,8	1,335
208,3	1,32
208,8	1,302
209,2	1,318
209,7	1,31
210,2	1,328
210,6	1,328
211,1	1,339
211,5	1,34
212	1,369
212,5	1,37
212,9	1,38
213,4	1,393
213,9	1,393
214,3	1,403
214,8	1,451
215,3	1,46
215,7	1,483
216,2	1,506
216,7	1,51
217,1	1,539
217,6	1,556
218,1	1,551
218,5	1,557
219	1,567
219,5	1,593
219,9	1,604
220,4	1,606
220,9	1,637
221,3	1,654
221,8	1,674
222,3	1,702
222,7	1,697
223,2	1,729
223,6	1,747
224,1	1,754
224,6	1,766
225	1,78
225,5	1,779
226	1,8
226,4	1,815
226,9	1,84
227,4	1,854
227,8	1,86
228,3	1,871
228,8	1,895
229,2	1,926
229,7	1,937
230,2	1,96
230,6	1,977
231,1	2,012
231,5	2,05
232	2,045
232,5	2,045
232,9	2,018
233,4	2,052
233,9	2,06
234,3	2,044
234,8	2,035
235,3	2,037
235,7	2,045
236,2	2,069
236,7	2,058
237,1	2,057
237,6	2,081
238,1	2,089
238,5	2,107
239	2,134
239,4	2,159
239,9	2,167
240,4	2,189
240,8	2,179
241,3	2,184
241,8	2,21
242,2	2,186
242,7	2,178
243,2	2,169
243,6	2,159
244,1	2,186
244,6	2,171
245	2,166
245,5	2,174
245,9	2,166
246,4	2,181
246,9	2,16
247,3	2,167
247,8	2,182
248,3	2,179
248,7	2,175
249,2	2,204
249,7	2,203
250,1	2,224
250,6	2,201
251	2,209
251,5	2,211
252	2,224
252,4	2,229
252,9	2,218
253,4	2,248
253,8	2,294
254,3	2,264
254,8	2,272
255,2	2,244
255,7	2,235
256,1	2,228
256,6	2,214
257,1	2,173
257,5	2,194
258	2,191
258,5	2,205
258,9	2,205
259,4	2,244
259,9	2,261
260,3	2,278
260,8	2,289
261,2	2,314
261,7	2,312
262,2	2,314
262,6	2,286
263,1	2,263
263,6	2,255
264	2,25
264,5	2,224
264,9	2,259
265,4	2,27
265,9	2,267
266,3	2,258
266,8	2,275
267,3	2,27
267,7	2,303
268,2	2,278
268,7	2,261
269,1	2,268
269,6	2,277
270	2,266
270,5	2,25
271	2,227
271,4	2,227
271,9	2,252
272,4	2,251
272,8	2,267
273,3	2,282
273,7	2,292
274,2	2,341
274,7	2,347
275,1	2,318
275,6	2,303
276,1	2,295
276,5	2,285
277	2,286
277,4	2,269
277,9	2,28
278,4	2,293
278,8	2,307
279,3	2,291
279,8	2,299
280,2	2,332
280,7	2,315
281,1	2,307
281,6	2,324
282,1	2,33
282,5	2,346
283	2,329
283,4	2,304
283,9	2,303
284,4	2,282
284,8	2,271
285,3	2,283
285,8	2,288
286,2	2,299
286,7	2,284
287,1	2,261
287,6	2,266
288,1	2,253
288,5	2,217
289	2,183
289,5	2,137
289,9	2,1
290,4	2,071
290,8	2,021
291,3	1,959
291,8	1,908
292,2	1,854
292,7	1,806
293,1	1,767
293,6	1,726
294,1	1,695
294,5	1,664
295	1,633
295,5	1,611
295,9	1,589
296,4	1,558
296,8	1,538
297,3	1,514
297,8	1,5
298,2	1,488
298,7	1,473
299,1	1,46
299,6	1,453
300,1	1,44
300,5	1,432
301	1,421
301,5	1,409
301,9	1,401
302,4	1,394
302,8	1,386
303,3	1,376
303,8	1,368
304,2	1,362
304,7	1,358
305,1	1,349
305,6	1,34
306,1	1,33
306,5	1,324
307	1,313
307,4	1,301
307,9	1,29
308,4	1,28
308,8	1,27
309,3	1,262
309,8	1,252
310,2	1,243
310,7	1,235
311,1	1,226
311,6	1,216
312,1	1,207
312,5	1,198
313	1,189
313,4	1,178
313,9	1,166
314,4	1,157
314,8	1,148
315,3	1,136
315,7	1,123
316,2	1,114
316,7	1,106
317,1	1,096
317,6	1,085
318	1,074
318,5	1,064
319	1,055
319,4	1,044
319,9	1,033
320,3	1,023
320,8	1,012
321,3	1,002
321,7	0,992
322,2	0,982
322,6	0,972
323,1	0,962
323,6	0,952
324	0,941
324,5	0,93
324,9	0,92
325,4	0,91
325,9	0,9
326,3	0,889
326,8	0,879
327,2	0,87
327,7	0,859
328,2	0,848
328,6	0,837
329,1	0,825
329,5	0,815
330	0,804
330,5	0,793
330,9	0,782
331,4	0,77
331,8	0,76
332,3	0,749
332,8	0,738
333,2	0,728
333,7	0,716
334,1	0,709
334,6	0,699
335,1	0,689
335,5	0,679
336	0,668
336,4	0,658
336,9	0,648
337,4	0,637
337,8	0,626
338,3	0,616
338,7	0,606
339,2	0,596
339,7	0,586
340,1	0,576
340,6	0,566
341	0,557
341,5	0,547
342	0,537
342,4	0,528
342,9	0,519
343,3	0,51
343,8	0,501
344,2	0,492
344,7	0,485
345,2	0,477
345,6	0,469
346,1	0,461
346,5	0,454
347	0,446
347,5	0,438
347,9	0,43
348,4	0,422
348,8	0,414
349,3	0,406
349,8	0,398
350,2	0,39
350,7	0,383
351,1	0,375
351,6	0,369
352	0,362
352,5	0,355
353	0,348
353,4	0,342
353,9	0,336
354,3	0,33
354,8	0,324
355,3	0,317
355,7	0,311
356,2	0,305
356,6	0,3
357,1	0,293
357,5	0,288
358	0,282
358,5	0,276
358,9	0,27
359,4	0,266
359,8	0,261
360,3	0,257
360,8	0,252
361,2	0,246
361,7	0,243
362,1	0,239
362,6	0,234
363	0,229
363,5	0,225
364	0,221
364,4	0,217
364,9	0,214
365,3	0,211
365,8	0,207
366,3	0,204
366,7	0,199
367,2	0,195
367,6	0,192
368,1	0,188
368,5	0,185
369	0,182
369,5	0,179
369,9	0,176
370,4	0,172
370,8	0,169
371,3	0,166
371,7	0,163
372,2	0,16
372,7	0,157
373,1	0,155
373,6	0,153
374	0,15
374,5	0,147
374,9	0,145
375,4	0,143
375,9	0,141
376,3	0,139
376,8	0,136
377,2	0,134
377,7	0,132
378,2	0,131
378,6	0,128
379,1	0,126
379,5	0,124
380	0,122
380,4	0,12
380,9	0,118
381,4	0,117
381,8	0,116
382,3	0,114
382,7	0,112
383,2	0,11
383,6	0,109
384,1	0,107
384,6	0,105
385	0,103
385,5	0,101
385,9	0,099
386,4	0,098
386,8	0,096
387,3	0,095
387,7	0,093
388,2	0,092
388,7	0,091
389,1	0,09
389,6	0,089
390	0,088
390,5	0,087
390,9	0,086
391,4	0,084
391,9	0,083
392,3	0,082
392,8	0,08
393,2	0,078
393,7	0,076
394,1	0,075
394,6	0,074
395,1	0,072
395,5	0,07
396	0,07
396,4	0,069
396,9	0,068
397,3	0,068
397,8	0,067
398,2	0,066
398,7	0,065
399,2	0,063
399,6	0,062
400,1	0,061
400,5	0,06
401	0,058
401,4	0,058
401,9	0,057
402,4	0,056
402,8	0,055
403,3	0,054
403,7	0,054
404,2	0,053
404,6	0,052
405,1	0,051
405,5	0,05
406	0,049
406,5	0,049
406,9	0,048
407,4	0,046
407,8	0,046
408,3	0,045
408,7	0,045
409,2	0,044
409,6	0,043
410,1	0,042
410,6	0,042
411	0,042
411,5	0,041
411,9	0,04
412,4	0,039
412,8	0,038
413,3	0,037
413,7	0,036
414,2	0,035
414,7	0,035
415,1	0,033
415,6	0,033
416	0,032
416,5	0,032
416,9	0,031
417,4	0,031
417,8	0,03
418,3	0,029
418,8	0,029
419,2	0,028
419,7	0,027
420,1	0,026
420,6	0,025
421	0,024
421,5	0,024
421,9	0,023
422,4	0,023
422,8	0,022
423,3	0,022
423,8	0,022
424,2	0,022
424,7	0,021
425,1	0,021
425,6	0,02
426	0,019
426,5	0,019
426,9	0,018
427,4	0,017
427,9	0,017
428,3	0,017
428,8	0,016
429,2	0,016
429,7	0,016
430,1	0,016
430,6	0,015
431	0,014
431,5	0,014
431,9	0,014
432,4	0,013
432,8	0,012
433,3	0,011
433,8	0,011
434,2	0,01
434,7	0,009
435,1	0,009
435,6	0,009
436	0,009
436,5	0,009
436,9	0,009
437,4	0,009
437,8	0,009
438,3	0,008
438,8	0,008
439,2	0,008
439,7	0,007
440,1	0,007
440,6	0,007
441	0,006
441,5	0,006
441,9	0,006
442,4	0,005
442,8	0,005
443,3	0,005
443,7	0,005
444,2	0,005
444,7	0,005
445,1	0,005
445,6	0,005
446	0,004
446,5	0,005
446,9	0,004
447,4	0,005
447,8	0,004
448,3	0,003
448,7	0,003
449,2	0,003
449,6	0,003
450,1	0,003
450,6	0,003
451	0,003
451,5	0,003
451,9	0,004
452,4	0,003
452,8	0,003
453,3	0,003
453,7	0,002
454,2	0,002
454,6	0,002
455,1	0,001
455,5	0,001
456	0,001
456,4	0,001
456,9	0,001
457,3	0,001
457,8	0,001
458,3	0,001
458,7	0,002
459,2	0,001
459,6	0,001
460,1	0,001
460,5	0,001
461	0
461,4	0
461,9	-0,001
462,3	-0,001
462,8	-0,001
463,2	-0,001
463,7	-0,001
464,1	-0,001
464,6	-0,001
465	-0
465,5	0
466	0
466,4	-0
466,9	0
467,3	0,001
467,8	0,001
468,2	0
468,7	0
469,1	0
469,6	0
470	0
470,5	-0
470,9	-0
471,4	-0,001
471,8	-0,001
472,3	-0,001
472,7	-0,001
473,2	-0,001
473,6	-0,001
474,1	-0,002
474,5	-0,001
475	-0,001
475,4	-0,001
475,9	-0,002
476,4	-0,002
476,8	-0,002
477,3	-0,001
477,7	-0,001
478,2	-0,001
478,6	-0,001
479,1	-0,001
479,5	-0
480	-0
480,4	-0,001
480,9	-0,001
481,3	-0
481,8	-0
482,2	-0,001
482,7	-0
483,1	-0
483,6	-0
484	-0,001
484,5	-0,001
484,9	-0,002
485,4	-0,001
485,8	-0,001
486,3	-0,002
486,7	-0,002
487,2	-0,002
487,6	-0,002
488,1	-0,001
488,5	-0,002
489	-0,002
489,4	-0
489,9	-0
490,4	-0
490,8	-0,001
491,3	-0,001
491,7	-0,001
492,2	-0,001
492,6	-0,001
493,1	-0,001
493,5	-0,001
494	-0,001
494,4	-0
494,9	-0,001
495,3	-0,001
495,8	-0,001
496,2	-0,001
496,7	-0,001
497,1	-0,002
497,6	-0,002
498	-0,001
498,5	-0,001
498,9	-0,001
499,4	-0,002
499,8	-0,002
500,3	-0,002
500,7	-0,002
501,2	-0,003
501,6	-0,003
502,1	-0,003
502,5	-0,002
503	-0,002
503,4	-0,001
503,9	-0,001
504,3	-0,001
504,8	-0,001
505,2	-0,001
505,7	-0,001
506,1	-0,002
506,6	-0,002
507	-0,002
507,5	-0,002
507,9	-0,001
508,4	-0,002
508,8	-0,002
509,3	-0,002
509,7	-0,001
510,2	-0,001
510,6	-0,001
511,1	-0,001
511,5	-0,001
512	-0,001
512,4	-0
512,9	-0,001
513,3	-0,001
513,8	-0,001
514,2	-0,001
514,7	-0,001
515,1	-0,001
515,6	-0,001
516	-0,001
516,5	-0,002
516,9	-0,002
517,4	-0,001
517,8	-0,001
518,3	-0,001
518,7	-0,001
519,2	-0,001
519,6	-0,002
520,1	-0,002
520,5	-0,002
521	-0,001
521,4	-0,001
521,9	-0,001
522,3	-0,001
522,8	-0,001
523,2	-0,001
523,7	-0,001
524,1	-0,002
524,6	-0,002
525	-0,002
525,5	-0,002
525,9	-0,002
526,4	-0,002
526,8	-0,001
527,3	-0,001
527,7	-0,002
528,2	-0,001
528,6	-0,001
529,1	-0,001
529,5	-0
530	-0,001
530,4	-0
530,9	-0,001
531,3	-0
531,8	-0,001
532,2	-0,001
532,6	-0,001
533,1	-0,001
533,5	-0,001
534	-0,001
534,4	-0,002
534,9	-0,001
535,3	-0,001
535,8	-0,001
536,2	-0,001
536,7	-0,001
537,1	-0
537,6	-0
538	-0
538,5	-0
538,9	-0
539,4	-0
539,8	-0,001
540,3	-0,001
540,7	-0,001
541,2	-0,001
541,6	-0,001
542,1	-0,001
542,5	-0,001
543	-0,002
543,4	-0,002
543,9	-0,002
544,3	-0,002
544,8	-0,002
545,2	-0,001
545,7	-0,001
546,1	-0
546,5	0
547	-0
547,4	-0,001
547,9	-0,001
548,3	-0,001
548,8	-0,002
549,2	-0,002
549,7	-0,002
550,1	-0,001
550,6	-0,001
551	-0,001
551,5	-0,001
551,9	-0
552,4	-0
552,8	-0
553,3	0
553,7	-0
554,2	-0
554,6	0
555,1	0
555,5	-0
555,9	-0,001
556,4	-0,001
556,8	-0
557,3	-0
557,7	-0
558,2	-0,001
558,6	-0
559,1	-0
559,5	-0,001
560	-0
560,4	-0,001
560,9	-0,001
561,3	-0,001
561,8	-0
562,2	-0
562,7	-0,001
563,1	-0,001
563,6	-0,001
564	-0,001
564,4	-0
564,9	-0,001
565,3	-0,001
565,8	-0,001
566,2	-0,001
566,7	-0,001
567,1	-0
567,6	-0,001
568	-0,001
568,5	-0,001
568,9	-0,001
569,4	-0,002
569,8	-0,003
570,3	-0,003
570,7	-0,002
571,1	-0,002
571,6	-0,002
572	-0,002
572,5	-0,001
572,9	-0
573,4	-0,001
573,8	-0,001
574,3	-0,001
574,7	-0,001
575,2	-0,001
575,6	-0,001
576,1	-0,002
576,5	-0,002
576,9	-0,001
577,4	-0,002
577,8	-0,002
578,3	-0,002
578,7	-0,002
579,2	-0,002
579,6	-0,002
580,1	-0,002
580,5	-0,002
581	-0,001
581,4	-0,002
581,9	-0,002
582,3	-0,002
582,7	-0,002
583,2	-0,002
583,6	-0,001
584,1	-0,001
584,5	-0,001
585	-0
585,4	0
585,9	-0
586,3	-0
586,8	-0,001
587,2	-0,001
587,6	-0,001
588,1	-0,001
588,5	-0,001
589	-0,001
589,4	-0,001
589,9	-0,001
590,3	-0,001
590,8	-0
591,2	-0
591,7	-0
592,1	-0
592,5	-0,001
593	-0,001
593,4	-0,001
593,9	-0,001
594,3	-0,001
594,8	-0,001
595,2	-0,002
595,7	-0,001
596,1	-0,001
596,6	-0,001
597	-0,001
597,4	-0,001
597,9	-0,001
598,3	-0,001
598,8	-0,001
599,2	-0,001
599,7	-0,001
600,1	-0,002
600,6	-0,002
601	-0,002
601,4	-0,002
601,9	-0,002
602,3	-0,001
602,8	-0,001
603,2	-0,001
603,7	-0,001
604,1	-0,001
604,6	-0,001
605	-0,001
605,4	-0,001
605,9	-0,001
606,3	-0
606,8	-0
607,2	-0,001
607,7	-0,001
608,1	-0,001
608,6	-0,001
609	-0,001
609,4	-0,001
609,9	-0,002
610,3	-0,002
610,8	-0,002
611,2	-0,002
611,7	-0,002
612,1	-0,001
612,6	-0,001
613	-0,001
613,4	-0,001
613,9	-0,001
614,3	-0,001
614,8	-0,001
615,2	-0,001
615,7	-0,001
616,1	-0,001
616,6	-0,001
617	-0,001
617,4	-0,001
617,9	-0,001
618,3	-0,001
618,8	-0
619,2	-0
619,7	-0
620,1	-0
620,5	-0
621	-0
621,4	-0
621,9	-0
622,3	-0,001
622,8	-0,001
623,2	-0,001
623,6	-0,002
624,1	-0,002
624,5	-0,002
625	-0,002
625,4	-0,002
625,9	-0,002
626,3	-0,001
626,8	-0,001
627,2	-0,001
627,6	-0,001
628,1	-0,001
628,5	-0,001
629	-0
629,4	-0,001
629,9	-0
630,3	-0,001
630,7	-0,001
631,2	-0,001
631,6	-0,001
632,1	-0,001
632,5	-0,001
633	-0,001
633,4	-0,001
633,8	-0,001
634,3	-0,001
634,7	-0,001
635,2	-0,001
635,6	-0,001
636,1	-0,001
636,5	-0,001
636,9	-0,001
637,4	-0,001
637,8	-0,001
638,3	-0,001
638,7	-0,001
639,2	-0,001
639,6	-0,001
640	-0,001
640,5	-0,002
640,9	-0,002
641,4	-0,002
641,8	-0,002
642,2	-0,001
642,7	-0,001
643,1	-0,001
643,6	-0,001
644	-0
644,5	-0
644,9	-0
645,3	-0
645,8	-0,001
646,2	-0
646,7	-0,001
647,1	-0,001
647,6	-0,001
648	-0,002
648,4	-0,002
648,9	-0,002
649,3	-0,002
649,8	-0,002
650,2	-0,002
650,6	-0,002
651,1	-0,002
651,5	-0,002
652	-0,002
652,4	-0,002
652,9	-0,002
653,3	-0,002
653,7	-0,003
654,2	-0,002
654,6	-0,002
655,1	-0,001
655,5	-0
655,9	-0
656,4	-0
656,8	0,002
657,3	0,003
657,7	0,004
658,2	0,004
658,6	0,005
659	0,008
659,5	0,012
659,9	0,008
660,4	0,005
660,8	0,004
661,2	0,003
661,7	0,002
662,1	0,002
662,6	0,001
663	0,001
663,4	0,001
663,9	0
664,3	0
664,8	-0
665,2	-0
665,6	-0
666,1	-0
666,5	-0
667	-0,001
667,4	-0,001
667,9	-0,001
668,3	-0,001
668,7	-0,001
669,2	-0,002
669,6	-0,001
670,1	-0,001
670,5	-0,001
670,9	-0,001
671,4	-0,001
671,8	-0,001
672,3	-0,001
672,7	-0,001
673,1	-0,001
673,6	-0,001
674	-0,001
674,5	-0,001
674,9	-0
675,3	-0
675,8	-0
676,2	-0
676,7	0
677,1	-0,001
677,5	-0,001
678	-0,001
678,4	-0,001
678,9	-0,001
679,3	-0,001
679,7	-0,001
680,2	-0,001
680,6	-0
681,1	-0
681,5	-0
681,9	-0
682,4	-0
682,8	0
683,3	-0
683,7	-0
684,1	-0,001
684,6	-0,001
685	-0,001
685,5	-0,001
685,9	-0,001
686,3	-0,001
686,8	-0,001
687,2	-0,001
687,7	-0,001
688,1	-0,001
688,5	-0,001
689	-0,001
689,4	-0,001
689,9	-0,001
690,3	-0,001
690,7	-0,001
691,2	-0,001
691,6	-0,001
692	-0,001
692,5	-0
692,9	-0,001
693,4	-0,001
693,8	-0,001
694,2	-0,001
694,7	-0,001
695,1	-0,001
695,6	-0,001
696	-0,001
696,4	-0,001
696,9	-0,001
697,3	-0,001
697,8	-0,001
698,2	-0,001
698,6	-0,001
699,1	-0,001
699,5	-0,001
699,9	-0,001
700,4	-0,001
700,8	-0,001
701,3	-0
701,7	-0
702,1	-0,001
702,6	-0,001
703	-0
703,5	-0,001
703,9	-0,001
704,3	-0,001
704,8	-0,001
705,2	-0
705,6	-0
706,1	-0
706,5	-0
707	-0
707,4	-0,001
707,8	-0,001
708,3	-0,001
708,7	-0,001
709,2	-0,002
709,6	-0,001
710	-0,001
710,5	-0,001
710,9	-0,001
711,3	-0
711,8	-0,001
712,2	-0
712,7	-0
713,1	-0,001
713,5	-0
714	-0
714,4	-0
714,8	-0
715,3	-0
715,7	-0
716,2	-0
716,6	-0
717	-0
717,5	-0
717,9	-0,001
718,3	-0,001
718,8	-0,001
719,2	-0,001
719,7	-0,001
720,1	-0,001
720,5	-0,001
721	-0,001
721,4	-0,001
721,8	-0,001
722,3	-0,001
722,7	-0,001
723,2	-0,001
723,6	-0,002
724	-0,001
724,5	-0,001
724,9	-0,002
725,3	-0,002
725,8	-0,001
726,2	-0,001
726,7	-0,001
727,1	-0,001
727,5	-0,001
728	-0,001
728,4	-0,001
728,8	-0,001
729,3	-0
729,7	-0
730,1	-0,001
730,6	-0,001
731	-0,001
731,5	-0,001
731,9	-0,001
732,3	-0,001
732,8	-0,001
733,2	-0,001
733,6	-0,001
734,1	-0,001
734,5	-0,001
734,9	-0
735,4	-0
735,8	-0
736,3	-0,001
736,7	-0,001
737,1	-0
737,6	-0
738	-0,001
738,4	-0,001
738,9	-0,001
739,3	-0,001
739,7	-0,001
740,2	-0
740,6	-0
741,1	-0
741,5	-0
741,9	-0,001
742,4	-0,001
742,8	-0,001
743,2	-0,001
743,7	-0,001
744,1	-0,001
744,5	-0,001
745	-0,001
745,4	-0,001
745,8	-0
746,3	-0,001
746,7	-0,001
747,2	-0,001
747,6	-0,001
748	-0,001
748,5	-0,001
748,9	-0,001
749,3	-0,001
749,8	-0,001
750,2	-0,001
750,6	-0,001
751,1	-0,002
751,5	-0,002
751,9	-0,002
752,4	-0,001
752,8	-0,001
753,3	-0,001
753,7	-0,001
754,1	-0,001
754,6	-0,001
755	-0,001
755,4	-0,001
755,9	-0,002
756,3	-0,002
756,7	-0,002
757,2	-0,002
757,6	-0,001
758	-0,001
758,5	-0,001
758,9	-0,001
759,3	-0,001
759,8	-0,001
760,2	-0,002
760,6	-0,002
761,1	-0,002
761,5	-0,002
761,9	-0,002
762,4	-0,002
762,8	-0,002
763,3	-0,002
763,7	-0,001
764,1	-0,001
764,6	-0,001
765	-0,002
765,4	-0,001
765,9	-0,001
766,3	-0,001
766,7	-0,001
767,2	-0,001
767,6	-0,001
768	-0,001
768,5	-0,002
768,9	-0,002
769,3	-0,002
769,8	-0,002
770,2	-0,002
770,6	-0,002
771,1	-0,002
771,5	-0,001
771,9	-0,001
772,4	-0,001
772,8	-0,001
773,2	-0,001
773,7	-0,001
774,1	-0,001
774,5	-0
775	0
775,4	-0
775,8	0
776,3	-0
776,7	-0
777,1	0
777,6	-0
778	-0,001
778,4	-0
778,9	-0,001
779,3	-0,001
779,7	-0,001
780,2	-0,001
780,6	-0,001
781	-0,001
781,5	-0,001
781,9	-0,001
782,3	-0,001
782,8	-0,001
783,2	-0,001
783,6	-0,001
784,1	-0,001
784,5	-0,001
784,9	-0,001
785,4	-0
785,8	-0
786,2	0
786,7	0,001
787,1	0,001
787,5	0
788	0
788,4	-0
788,8	-0
789,3	-0,001
789,7	-0,001
790,1	-0,001
790,6	-0,002
791	-0,002
791,4	-0,002
791,9	-0,001
792,3	-0,001
792,7	-0,001
793,2	-0,001
793,6	-0
794	-0
794,5	-0,001
794,9	-0,001
795,3	-0,001
795,8	-0,001
796,2	-0,001
796,6	-0,001
797,1	-0,001
797,5	-0,001
797,9	-0,002
798,4	-0,001
798,8	-0,002
799,2	-0,002
799,7	-0,002
800,1	-0,001
800,5	-0,001
801	-0,001
801,4	-0
801,8	0
802,2	0
802,7	0
803,1	-0
803,5	-0
804	-0,001
804,4	-0,001
804,8	-0,001
805,3	-0,001
805,7	-0,001
806,1	-0,001
806,6	-0,001
807	-0
807,4	-0
807,9	-0
808,3	-0
808,7	-0
809,2	-0
809,6	-0
810	-0
810,4	-0
810,9	-0
811,3	0
811,7	0
812,2	0
812,6	0
813	0
813,5	0
813,9	0,001
814,3	0
814,8	0
815,2	-0
815,6	0
816,1	-0
816,5	-0,001
816,9	-0,001
817,3	-0,001
817,8	-0,001
818,2	-0,001
818,6	-0,001
819,1	-0,001
819,5	-0,001
819,9	-0,001
820,4	-0,001
820,8	-0,001
821,2	-0,001
821,7	-0
822,1	-0
822,5	-0
822,9	-0,001
823,4	-0,001
823,8	-0,001
824,2	-0,001
824,7	-0,001
825,1	-0
825,5	-0
826	0
826,4	0
826,8	0,001
827,3	0,001
827,7	0,001
828,1	0
828,5	0
829	0
829,4	-0
829,8	-0,001
830,3	-0,001
830,7	-0,001
831,1	-0,001
831,6	-0,001
832	-0,001
832,4	-0,001
832,8	-0,001
833,3	-0,001
833,7	-0,001
834,1	-0,001
834,6	-0,001
835	-0,001
835,4	-0,001
835,8	-0,001
836,3	-0,001
836,7	-0,001
837,1	-0,001
837,6	-0,001
838	-0,001
838,4	-0,001
838,9	-0,001
839,3	-0,001
839,7	-0,001
840,1	-0,001
840,6	-0,001
841	-0,001
841,4	-0,001
841,9	-0,001
842,3	-0,001
842,7	-0,001
843,1	-0,001
843,6	-0,001
844	-0,001
844,4	-0,001
844,9	-0,001
845,3	-0,001
845,7	-0,001
846,2	-0
846,6	-0
847	-0
847,4	-0
847,9	-0
848,3	0
848,7	0
849,2	0
849,6	0
850	0,001
850,4	0,001
850,9	0,001
851,3	0,001
851,7	0
852,2	0
852,6	0
853	0
853,4	-0
853,9	0
854,3	-0
854,7	0
855,2	0
855,6	0
856	0
856,4	0
856,9	-0
857,3	-0
857,7	-0
858,2	-0
858,6	-0,001
859	-0,001
859,4	-0,001
859,9	-0,001
860,3	-0,001
860,7	-0,001
861,1	-0,001
861,6	-0,001
862	-0
862,4	-0
862,9	-0
863,3	0
863,7	0
864,1	0,001
864,6	0,001
865	0,001
865,4	0,001
865,9	0,001
866,3	0,001
866,7	0
867,1	0
867,6	-0
868	-0
868,4	-0
868,8	-0
869,3	-0
869,7	-0
870,1	-0
870,6	-0
871	0
871,4	0
871,8	0
872,3	0
872,7	0
873,1	0
873,5	0
874	-0
874,4	-0
874,8	-0
875,3	-0
875,7	-0
876,1	-0
876,5	-0
877	-0
877,4	-0
877,8	-0,001
878,2	-0,001
878,7	-0,001
879,1	-0,001
879,5	-0,001
879,9	-0,001
880,4	-0,001
880,8	-0,001
881,2	-0
881,7	-0,001
882,1	-0,001
882,5	-0,001
882,9	-0,001
883,4	-0,001
883,8	-0,001
884,2	-0,001
884,6	-0,001
885,1	-0,001
885,5	-0,001
885,9	-0,001
886,3	-0,001
886,8	-0,001
887,2	-0,001
887,6	-0,001
888	-0,001
888,5	-0
888,9	-0
889,3	-0
889,8	-0
890,2	-0
890,6	-0,001
891	-0,001
891,5	-0,001
891,9	-0,001
892,3	-0,001
892,7	-0,001
893,2	-0,001
893,6	-0,001
894	-0,002
894,4	-0,002
894,9	-0,001
895,3	-0,001
895,7	-0,001
896,1	-0,001
896,6	-0,001
897	-0,001
897,4	-0,001
897,8	-0,001
898,3	-0,002
898,7	-0,002
899,1	-0,002
899,5	-0,002
900	-0,001
900,4	-0,001
900,8	-0,001
901,2	-0
901,7	-0
902,1	-0
902,5	0
902,9	-0
903,4	-0
903,8	-0
904,2	-0
904,6	-0,001
905,1	-0,001
905,5	-0,001
905,9	-0,001
906,3	-0,002
906,8	-0,002
907,2	-0,002
907,6	-0,002
908	-0,002
908,5	-0,002
908,9	-0,002
909,3	-0,002
909,7	-0,002
910,2	-0,001
910,6	-0,001
911	-0,001
911,4	-0,001
911,9	-0,001
912,3	-0,001
912,7	-0,001
913,1	-0,001
913,6	-0,001
914	-0,001
914,4	-0,001
914,8	-0,002
915,3	-0,002
915,7	-0,002
916,1	-0,002
916,5	-0,002
916,9	-0,002
917,4	-0,002
917,8	-0,002
918,2	-0,002
918,6	-0,002
919,1	-0,002
919,5	-0,001
919,9	-0,001
920,3	-0
920,8	-0
921,2	-0
921,6	-0
922	-0
922,5	-0,001
922,9	-0,001
923,3	-0,001
923,7	-0,001
924,2	-0,002
924,6	-0,002
925	-0,002
925,4	-0,002
925,8	-0,001
926,3	-0,001
926,7	-0,001
927,1	-0,001
927,5	-0,001
928	-0,002
928,4	-0,002
928,8	-0,002
929,2	-0,002
929,7	-0,002
930,1	-0,001
930,5	-0,001
930,9	-0,001
931,3	-0,001
931,8	-0,001
932,2	-0,001
932,6	-0,001
933	-0,001
933,5	-0,001
933,9	-0,001
934,3	-0,001
934,7	-0,001
935,2	-0,001
935,6	-0,001
936	-0
936,4	-0,001
936,8	-0
937,3	-0
937,7	-0
938,1	0
938,5	-0
939	0
939,4	0
939,8	0
940,2	0
940,6	-0
941,1	-0
941,5	0
941,9	0
942,3	0
942,8	0,001
943,2	0
943,6	-0
944	-0,001
944,4	-0,001
944,9	-0,001
945,3	-0,001
945,7	-0,001
946,1	-0,001
946,6	-0,001
947	-0,001
947,4	-0,001
947,8	-0,001
948,2	-0,001
948,7	-0,002
949,1	-0,002
949,5	-0,002
949,9	-0,001
950,3	-0,002
950,8	-0,002
951,2	-0,002
951,6	-0,002
952	-0,002
952,5	-0,001
952,9	-0,001
953,3	-0,002
953,7	-0,001
954,1	-0,001
954,6	-0,001
955	-0,001
955,4	-0,001
955,8	-0,001
956,2	-0,001
956,7	-0,001
957,1	-0
957,5	-0
957,9	0
958,3	0
958,8	0,001
959,2	0,002
959,6	0,001
960	0,001
960,5	0,001
960,9	0,001
961,3	0
961,7	-0,001
962,1	-0,001
962,6	-0
963	0,001
963,4	0
963,8	0
964,2	0,001
964,7	0,001
965,1	0,001
965,5	0,001
965,9	0
966,3	0,001
966,8	0
967,2	0
967,6	-0
968	-0,001
968,4	-0
968,9	0
969,3	-0
969,7	-0
970,1	0
970,5	-0
971	0,001
971,4	0
971,8	0
972,2	0
972,6	-0
973,1	-0
973,5	-0
973,9	-0,001
974,3	-0
974,7	-0
975,2	-0
975,6	0,001
976	0,001
976,4	0,001
976,8	0,001
977,3	0
977,7	-0
978,1	-0,001
978,5	-0,001
978,9	-0,001
979,4	-0,001
979,8	-0,001
980,2	-0,001
980,6	0
981	0
981,5	-0
981,9	-0
982,3	-0
982,7	0
983,1	0
983,6	-0,001
984	-0,001
984,4	-0,001
984,8	-0,001
985,2	-0
985,6	-0
986,1	-0
986,5	0,001
986,9	0,002
987,3	0,002
987,7	0,002
988,2	0,001
988,6	0,001
989	0,001
989,4	0
989,8	0
990,3	0
990,7	0
991,1	0,001
991,5	0
991,9	0,001
992,3	0
992,8	0
993,2	-0
993,6	-0
994	-0,001
994,4	-0
994,9	-0,001
995,3	-0
995,7	-0
996,1	-0
996,5	0
996,9	-0
997,4	-0,001
997,8	-0
998,2	-0,002
998,6	-0,002
999	-0,002
999,5	-0,002
999,9	-0,001
1000,3	-0,001
1000,7	-0,002
1001,1	-0,001
1001,5	-0,002
1002	-0,002
1002,4	-0,002
1002,8	-0,003
1003,2	-0,003
1003,6	-0,003
1004	-0,002
1004,5	-0,002
1004,9	-0,001
1005,3	-0,002
1005,7	-0,002
1006,1	-0,002
1006,6	-0,002
1007	-0,002
1007,4	-0,002
1007,8	-0,002
1008,2	-0,002
1008,6	-0,002
1009,1	-0,002
1009,5	-0,002
1009,9	-0,002
1010,3	-0,001
1010,7	-0,001
1011,1	-0,001
1011,6	-0,001
1012	-0,001
1012,4	-0,001
1012,8	-0,001
1013,2	-0,002
1013,6	-0,002
1014,1	-0,003
1014,5	-0,003
1014,9	-0,002
1015,3	-0,002
1015,7	-0,002
1016,1	-0,002
1016,6	-0,001
1017	-0
1017,4	-0,001
1017,8	-0,001
1018,2	-0,001
1018,6	-0,001
1019,1	-0,001
1019,5	-0,001
1019,9	-0,001
1020,3	-0,001
1020,7	-0
1021,1	-0
1021,6	-0,001
1022	-0,001
1022,4	-0,001
1022,8	-0,001
1023,2	-0,002
1023,6	-0,002
1024,1	-0,002
1024,5	-0,002
1024,9	-0,002
1025,3	-0,002
1025,7	-0,002
1026,1	-0,001
1026,6	-0,001
1027	-0,002
1027,4	-0,002
1027,8	-0,003
1028,2	-0,002
1028,6	-0,002
1029	-0,002
1029,5	-0,002
1029,9	-0,002
1030,3	-0,002
1030,7	-0,001
1031,1	-0,002
1031,5	-0,003
1032	-0,002
1032,4	-0,002
1032,8	-0,003
1033,2	-0,002
1033,6	-0,002
1034	-0,002
1034,4	-0,002
1034,9	-0,002
1035,3	-0,002
1035,7	-0,002
1036,1	-0,003
1036,5	-0,003
1036,9	-0,002
1037,4	-0,001
1037,8	-0,001
1038,2	-0
1038,6	0
1039	0
1039,4	0,001
1039,8	0,001
1040,3	0
1040,7	0
1041,1	-0
1041,5	-0
1041,9	-0
1042,3	-0,001
1042,7	-0,001
1043,2	-0,001
1043,6	-0,001
1044	-0,001
1044,4	-0,001
1044,8	-0,001
1045,2	-0
1045,6	-0
1046,1	-0
1046,5	0
1046,9	0
1047,3	0
1047,7	0,001
1048,1	0,001
1048,5	-0
1049	0
1049,4	0
1049,8	0,001
1050,2	0,001
1050,6	0,001
1051	0
1051,4	0,001
1051,9	0,001
1052,3	-0
1052,7	-0
1053,1	-0,001
1053,5	-0,002
1053,9	-0,002
1054,3	-0,001
1054,8	-0,001
1055,2	-0
1055,6	-0,001
1056	-0
1056,4	-0
1056,8	-0
1057,2	-0,001
1057,6	-0
1058,1	-0
1058,5	-0,001
1058,9	-0
1059,3	-0,001
1059,7	-0,001
1060,1	-0,003
1060,5	-0,003
1061	-0,003
1061,4	-0,003
1061,8	-0,003
1062,2	-0,002
1062,6	-0,001
1063	0
1063,4	-0
1063,8	0
1064,3	0,001
1064,7	0,001
1065,1	0,001
1065,5	0,001
1065,9	0,001
1066,3	0,002
1066,7	0,002
1067,1	0,001
1067,6	0
1068	0,001
1068,4	0
1068,8	-0
1069,2	-0,001
1069,6	-0,001
1070	0,001
1070,4	0
1070,9	-0,001
1071,3	-0,001
1071,7	0,001
1072,1	0,001
1072,5	0,001
1072,9	0,001
1073,3	0,001
1073,7	0,001
1074,2	0,001
1074,6	-0
1075	-0
1075,4	-0,001
1075,8	-0,002
1076,2	-0,001
1076,6	-0,002
1077	-0,002
1077,5	-0,002
1077,9	-0,003
1078,3	-0,002
1078,7	-0,002
1079,1	-0,002
1079,5	-0,002
1079,9	-0,002
1080,3	-0,002
1080,7	-0,002
1081,2	-0,002
1081,6	-0,002
1082	-0,001
1082,4	-0
1082,8	-0,001
1083,2	0,002
1083,6	0,001
1084	0,003
1084,5	0,003
1084,9	0,002
1085,3	0,002
1085,7	0,002
1086,1	0,001
1086,5	0,001
1086,9	0
1087,3	0,001
1087,7	0,002
1088,2	0,002
1088,6	0
1089	0
1089,4	0,002
1089,8	0,006
1090,2	0,005
1090,6	0,002
1091	0,002
1091,4	0,003
1091,9	0,004
1092,3	0,004
1092,7	0,003
1093,1	0,004
1093,5	0,008
1093,9	0,012
1094,3	0,019
1094,7	0,016
1095,1	0,017
1095,5	0,011
1096	0,006
1096,4	0,004
1096,8	0,003
1097,2	-0,004
1097,6	0,001
1098	-0,001
1098,4	0,004
1098,8	0,012
1099,2	0,015
1099,6	0,015
1100,1	0,014
1100,5	0,014
1100,9	0,017
1101,3	0,017
1101,7	0,013
1102,1	0,007
1102,5	0,001
1102,9	0,001
1103,3	0,005
1103,7	0,013
1104,2	0,025
1104,6	0,029
1105	0,029
1105,4	0,042
1105,8	0,044
1106,2	0,036
1106,6	0,026
1107	0,002
1107,4	-0,001
1107,8	0,024
1108,3	-0
