Data from Absorbance_00006.txt Node
Date: Thu Aug 10 14:50:06 MSK 2023
User: vat
Spectrometer: MAYP114033
Trigger mode: 0
Integration Time (sec): 8,000000E-3
Scans to average: 10
Electric dark correction enabled: true
Nonlinearity correction enabled: false
Boxcar width: 3
XAxis mode: Wavelengths
Number of Pixels in Spectrum: 2068
>>>>>Begin Spectral Data<<<<<
199,4	-0
199,9	0,61
200,4	0,689
200,8	0,945
201,3	1,058
201,8	1,022
202,2	1,01
202,7	1,016
203,2	1,058
203,6	1,098
204,1	1,101
204,6	1,098
205	1,132
205,5	1,159
206	1,184
206,4	1,206
206,9	1,2
207,4	1,232
207,8	1,259
208,3	1,261
208,8	1,272
209,2	1,278
209,7	1,27
210,2	1,294
210,6	1,29
211,1	1,306
211,5	1,317
212	1,342
212,5	1,369
212,9	1,394
213,4	1,405
213,9	1,415
214,3	1,399
214,8	1,43
215,3	1,431
215,7	1,432
216,2	1,452
216,7	1,47
217,1	1,497
217,6	1,525
218,1	1,521
218,5	1,527
219	1,556
219,5	1,569
219,9	1,561
220,4	1,573
220,9	1,598
221,3	1,611
221,8	1,636
222,3	1,67
222,7	1,687
223,2	1,711
223,6	1,727
224,1	1,725
224,6	1,758
225	1,783
225,5	1,758
226	1,756
226,4	1,771
226,9	1,775
227,4	1,819
227,8	1,813
228,3	1,827
228,8	1,84
229,2	1,864
229,7	1,89
230,2	1,926
230,6	1,913
231,1	1,928
231,5	1,936
232	1,955
232,5	1,959
232,9	1,954
233,4	1,968
233,9	1,979
234,3	1,978
234,8	1,979
235,3	1,984
235,7	1,993
236,2	2,007
236,7	1,998
237,1	2,013
237,6	2,042
238,1	2,046
238,5	2,072
239	2,083
239,4	2,11
239,9	2,13
240,4	2,121
240,8	2,117
241,3	2,123
241,8	2,131
242,2	2,156
242,7	2,13
243,2	2,135
243,6	2,149
244,1	2,169
244,6	2,166
245	2,165
245,5	2,14
245,9	2,131
246,4	2,115
246,9	2,103
247,3	2,1
247,8	2,116
248,3	2,111
248,7	2,124
249,2	2,168
249,7	2,188
250,1	2,178
250,6	2,158
251	2,149
251,5	2,163
252	2,161
252,4	2,15
252,9	2,145
253,4	2,169
253,8	2,194
254,3	2,193
254,8	2,173
255,2	2,173
255,7	2,173
256,1	2,169
256,6	2,181
257,1	2,165
257,5	2,192
258	2,218
258,5	2,232
258,9	2,248
259,4	2,273
259,9	2,281
260,3	2,281
260,8	2,285
261,2	2,279
261,7	2,265
262,2	2,249
262,6	2,236
263,1	2,219
263,6	2,213
264	2,184
264,5	2,168
264,9	2,196
265,4	2,214
265,9	2,214
266,3	2,193
266,8	2,208
267,3	2,215
267,7	2,235
268,2	2,203
268,7	2,186
269,1	2,194
269,6	2,216
270	2,224
270,5	2,22
271	2,216
271,4	2,232
271,9	2,253
272,4	2,238
272,8	2,249
273,3	2,253
273,7	2,258
274,2	2,266
274,7	2,271
275,1	2,258
275,6	2,262
276,1	2,254
276,5	2,239
277	2,253
277,4	2,244
277,9	2,251
278,4	2,258
278,8	2,254
279,3	2,231
279,8	2,25
280,2	2,261
280,7	2,269
281,1	2,268
281,6	2,261
282,1	2,269
282,5	2,296
283	2,289
283,4	2,265
283,9	2,274
284,4	2,262
284,8	2,26
285,3	2,258
285,8	2,282
286,2	2,283
286,7	2,285
287,1	2,274
287,6	2,256
288,1	2,247
288,5	2,228
289	2,169
289,5	2,13
289,9	2,1
290,4	2,058
290,8	2,02
291,3	1,966
291,8	1,911
292,2	1,866
292,7	1,819
293,1	1,774
293,6	1,728
294,1	1,686
294,5	1,65
295	1,614
295,5	1,586
295,9	1,558
296,4	1,527
296,8	1,504
297,3	1,48
297,8	1,461
298,2	1,446
298,7	1,428
299,1	1,412
299,6	1,402
300,1	1,386
300,5	1,375
301	1,363
301,5	1,353
301,9	1,341
302,4	1,332
302,8	1,321
303,3	1,312
303,8	1,305
304,2	1,296
304,7	1,286
305,1	1,278
305,6	1,27
306,1	1,264
306,5	1,255
307	1,246
307,4	1,237
307,9	1,23
308,4	1,221
308,8	1,212
309,3	1,202
309,8	1,195
310,2	1,186
310,7	1,177
311,1	1,169
311,6	1,16
312,1	1,151
312,5	1,142
313	1,131
313,4	1,121
313,9	1,112
314,4	1,101
314,8	1,092
315,3	1,082
315,7	1,071
316,2	1,06
316,7	1,05
317,1	1,039
317,6	1,029
318	1,02
318,5	1,01
319	0,999
319,4	0,989
319,9	0,98
320,3	0,969
320,8	0,958
321,3	0,949
321,7	0,939
322,2	0,929
322,6	0,921
323,1	0,912
323,6	0,903
324	0,893
324,5	0,882
324,9	0,872
325,4	0,864
325,9	0,852
326,3	0,842
326,8	0,833
327,2	0,824
327,7	0,814
328,2	0,805
328,6	0,796
329,1	0,785
329,5	0,776
330	0,765
330,5	0,754
330,9	0,744
331,4	0,732
331,8	0,722
332,3	0,713
332,8	0,703
333,2	0,694
333,7	0,684
334,1	0,675
334,6	0,666
335,1	0,657
335,5	0,646
336	0,635
336,4	0,625
336,9	0,617
337,4	0,607
337,8	0,597
338,3	0,587
338,7	0,578
339,2	0,569
339,7	0,561
340,1	0,551
340,6	0,542
341	0,532
341,5	0,523
342	0,514
342,4	0,505
342,9	0,497
343,3	0,488
343,8	0,481
344,2	0,473
344,7	0,466
345,2	0,458
345,6	0,45
346,1	0,442
346,5	0,434
347	0,426
347,5	0,418
347,9	0,411
348,4	0,404
348,8	0,396
349,3	0,389
349,8	0,381
350,2	0,374
350,7	0,367
351,1	0,359
351,6	0,352
352	0,346
352,5	0,339
353	0,333
353,4	0,326
353,9	0,32
354,3	0,314
354,8	0,308
355,3	0,302
355,7	0,297
356,2	0,292
356,6	0,286
357,1	0,281
357,5	0,275
358	0,269
358,5	0,265
358,9	0,259
359,4	0,254
359,8	0,249
360,3	0,244
360,8	0,241
361,2	0,236
361,7	0,231
362,1	0,227
362,6	0,223
363	0,218
363,5	0,215
364	0,21
364,4	0,207
364,9	0,203
365,3	0,2
365,8	0,196
366,3	0,192
366,7	0,188
367,2	0,185
367,6	0,182
368,1	0,178
368,5	0,175
369	0,172
369,5	0,169
369,9	0,166
370,4	0,162
370,8	0,159
371,3	0,156
371,7	0,153
372,2	0,15
372,7	0,147
373,1	0,145
373,6	0,142
374	0,139
374,5	0,137
374,9	0,135
375,4	0,133
375,9	0,13
376,3	0,128
376,8	0,126
377,2	0,124
377,7	0,122
378,2	0,119
378,6	0,117
379,1	0,116
379,5	0,114
380	0,112
380,4	0,11
380,9	0,108
381,4	0,106
381,8	0,104
382,3	0,102
382,7	0,101
383,2	0,099
383,6	0,098
384,1	0,096
384,6	0,095
385	0,094
385,5	0,092
385,9	0,091
386,4	0,089
386,8	0,087
387,3	0,086
387,7	0,084
388,2	0,082
388,7	0,081
389,1	0,08
389,6	0,078
390	0,078
390,5	0,076
390,9	0,075
391,4	0,073
391,9	0,072
392,3	0,071
392,8	0,07
393,2	0,068
393,7	0,067
394,1	0,066
394,6	0,065
395,1	0,065
395,5	0,062
396	0,062
396,4	0,061
396,9	0,061
397,3	0,059
397,8	0,058
398,2	0,057
398,7	0,057
399,2	0,055
399,6	0,054
400,1	0,053
400,5	0,052
401	0,051
401,4	0,05
401,9	0,049
402,4	0,048
402,8	0,047
403,3	0,047
403,7	0,045
404,2	0,045
404,6	0,045
405,1	0,044
405,5	0,044
406	0,043
406,5	0,042
406,9	0,042
407,4	0,04
407,8	0,04
408,3	0,039
408,7	0,039
409,2	0,038
409,6	0,037
410,1	0,037
410,6	0,037
411	0,036
411,5	0,035
411,9	0,034
412,4	0,033
412,8	0,033
413,3	0,032
413,7	0,032
414,2	0,031
414,7	0,031
415,1	0,03
415,6	0,03
416	0,03
416,5	0,029
416,9	0,028
417,4	0,028
417,8	0,027
418,3	0,026
418,8	0,026
419,2	0,025
419,7	0,025
420,1	0,024
420,6	0,024
421	0,022
421,5	0,023
421,9	0,022
422,4	0,021
422,8	0,02
423,3	0,02
423,8	0,019
424,2	0,019
424,7	0,018
425,1	0,018
425,6	0,017
426	0,017
426,5	0,016
426,9	0,016
427,4	0,015
427,9	0,015
428,3	0,014
428,8	0,015
429,2	0,015
429,7	0,015
430,1	0,014
430,6	0,014
431	0,013
431,5	0,013
431,9	0,013
432,4	0,012
432,8	0,011
433,3	0,01
433,8	0,01
434,2	0,009
434,7	0,009
435,1	0,008
435,6	0,008
436	0,008
436,5	0,008
436,9	0,007
437,4	0,007
437,8	0,007
438,3	0,008
438,8	0,007
439,2	0,007
439,7	0,006
440,1	0,006
440,6	0,007
441	0,006
441,5	0,005
441,9	0,005
442,4	0,005
442,8	0,005
443,3	0,004
443,7	0,004
444,2	0,004
444,7	0,004
445,1	0,004
445,6	0,004
446	0,005
446,5	0,005
446,9	0,005
447,4	0,005
447,8	0,005
448,3	0,004
448,7	0,004
449,2	0,003
449,6	0,003
450,1	0,003
450,6	0,003
451	0,003
451,5	0,003
451,9	0,003
452,4	0,003
452,8	0,003
453,3	0,004
453,7	0,003
454,2	0,002
454,6	0,002
455,1	0,001
455,5	0,001
456	0,001
456,4	0,001
456,9	0,001
457,3	0,002
457,8	0,002
458,3	0,002
458,7	0,002
459,2	0,002
459,6	0,002
460,1	0,002
460,5	0,001
461	0,001
461,4	0,001
461,9	0
462,3	0
462,8	0
463,2	-0,001
463,7	0
464,1	-0
464,6	-0
465	0
465,5	0
466	0
466,4	0
466,9	0
467,3	0,001
467,8	0,001
468,2	0,001
468,7	0,001
469,1	0
469,6	0
470	0
470,5	-0,001
470,9	-0,001
471,4	-0,001
471,8	-0,001
472,3	-0,001
472,7	-0,001
473,2	-0,002
473,6	-0,001
474,1	-0,001
474,5	-0,001
475	-0,001
475,4	-0,002
475,9	-0,001
476,4	-0,001
476,8	-0,001
477,3	-0,001
477,7	-0,001
478,2	-0,001
478,6	-0,001
479,1	-0,001
479,5	-0,001
480	-0,001
480,4	-0,001
480,9	-0,001
481,3	-0,001
481,8	-0,001
482,2	-0,001
482,7	-0
483,1	-0
483,6	0
484	0
484,5	0
484,9	0
485,4	-0
485,8	0
486,3	-0,001
486,7	-0,001
487,2	-0,001
487,6	-0,001
488,1	-0,001
488,5	-0,001
489	-0,002
489,4	-0,001
489,9	-0,001
490,4	-0,001
490,8	-0,001
491,3	-0
491,7	0
492,2	0
492,6	0,001
493,1	0,001
493,5	0,001
494	0,001
494,4	0
494,9	-0,001
495,3	-0
495,8	-0,001
496,2	-0,001
496,7	-0,001
497,1	-0,002
497,6	-0,001
498	-0,001
498,5	-0,001
498,9	-0
499,4	-0
499,8	-0,001
500,3	-0,001
500,7	-0,002
501,2	-0,002
501,6	-0,003
502,1	-0,003
502,5	-0,003
503	-0,002
503,4	-0,001
503,9	-0,001
504,3	-0,001
504,8	-0,001
505,2	-0
505,7	-0
506,1	-0,001
506,6	-0,002
507	-0,002
507,5	-0,001
507,9	-0,001
508,4	-0,001
508,8	-0,001
509,3	-0,001
509,7	-0,001
510,2	-0,001
510,6	-0,001
511,1	-0,001
511,5	-0,001
512	-0,002
512,4	-0,001
512,9	-0,002
513,3	-0,002
513,8	-0,002
514,2	-0,002
514,7	-0,001
515,1	-0,001
515,6	-0,001
516	-0,001
516,5	-0,001
516,9	-0
517,4	0
517,8	-0
518,3	-0
518,7	-0,001
519,2	-0,001
519,6	-0,001
520,1	-0,001
520,5	-0,002
521	-0,001
521,4	-0
521,9	-0,001
522,3	-0,001
522,8	-0
523,2	0
523,7	0
524,1	-0,001
524,6	-0,001
525	-0,001
525,5	-0,001
525,9	-0,001
526,4	-0,001
526,8	-0
527,3	-0,001
527,7	-0,001
528,2	-0,001
528,6	-0
529,1	0
529,5	0
530	-0
530,4	0,001
530,9	0,001
531,3	0,001
531,8	0
532,2	0
532,6	0,001
533,1	0,001
533,5	0,001
534	0,001
534,4	0,001
534,9	0,001
535,3	0,001
535,8	0,001
536,2	0,001
536,7	0,001
537,1	0,001
537,6	0
538	-0
538,5	-0
538,9	-0
539,4	0
539,8	0
540,3	0
540,7	0
541,2	0
541,6	0
542,1	0
542,5	0
543	-0
543,4	-0,001
543,9	-0,001
544,3	-0,001
544,8	-0,001
545,2	-0
545,7	-0
546,1	-0
546,5	0,001
547	0,001
547,4	0,001
547,9	0,001
548,3	0,001
548,8	0,001
549,2	0
549,7	0
550,1	-0
550,6	0
551	-0
551,5	0
551,9	0
552,4	0,001
552,8	0,001
553,3	0,001
553,7	0
554,2	0,001
554,6	0,001
555,1	0,001
555,5	0
555,9	0
556,4	0,001
556,8	0,001
557,3	0,001
557,7	0
558,2	0
558,6	0
559,1	0
559,5	0
560	0,001
560,4	0
560,9	-0
561,3	-0
561,8	-0
562,2	-0
562,7	-0,001
563,1	-0,001
563,6	-0,001
564	-0,001
564,4	-0,001
564,9	-0,001
565,3	-0,001
565,8	-0,001
566,2	-0
566,7	-0
567,1	0
567,6	0
568	0
568,5	0
568,9	0
569,4	0
569,8	-0
570,3	-0,001
570,7	-0
571,1	-0
571,6	0
572	0
572,5	0
572,9	0,001
573,4	0,001
573,8	0,001
574,3	0,001
574,7	0
575,2	0
575,6	0
576,1	-0
576,5	-0
576,9	-0
577,4	-0
577,8	-0
578,3	-0
578,7	-0
579,2	-0
579,6	-0
580,1	-0
580,5	-0
581	-0
581,4	-0,001
581,9	-0,001
582,3	-0,001
582,7	-0,001
583,2	-0,001
583,6	-0
584,1	-0
584,5	0
585	0
585,4	0
585,9	0,001
586,3	0,001
586,8	0,001
587,2	0,001
587,6	0,001
588,1	0,001
588,5	0,001
589	0,001
589,4	0,001
589,9	0,001
590,3	0,001
590,8	0
591,2	0
591,7	0
592,1	0
592,5	0
593	0
593,4	0
593,9	0
594,3	0
594,8	0
595,2	0
595,7	0
596,1	0
596,6	-0
597	0
597,4	0
597,9	0
598,3	0
598,8	0
599,2	0
599,7	0
600,1	0,001
600,6	0,001
601	0,001
601,4	0
601,9	0
602,3	0
602,8	0
603,2	-0
603,7	-0
604,1	-0
604,6	0
605	0,001
605,4	0,001
605,9	0,001
606,3	0,001
606,8	0,001
607,2	0,001
607,7	0,001
608,1	0
608,6	0
609	-0
609,4	-0
609,9	-0
610,3	-0
610,8	-0,001
611,2	-0,001
611,7	-0,001
612,1	-0,001
612,6	-0,001
613	-0
613,4	-0
613,9	-0
614,3	0
614,8	0
615,2	0
615,7	0
616,1	0
616,6	0,001
617	0,001
617,4	0,001
617,9	0,001
618,3	0
618,8	0
619,2	0
619,7	0
620,1	0
620,5	0
621	0
621,4	0
621,9	0,001
622,3	0
622,8	0
623,2	0
623,6	0
624,1	0
624,5	0
625	0
625,4	0
625,9	0
626,3	0
626,8	0
627,2	0
627,6	0
628,1	0,001
628,5	0,001
629	0,001
629,4	0,001
629,9	0,001
630,3	0,001
630,7	0,001
631,2	0,001
631,6	0,001
632,1	0
632,5	0
633	0
633,4	0
633,8	0
634,3	-0
634,7	0
635,2	0
635,6	-0
636,1	0
636,5	0
636,9	0
637,4	0
637,8	-0
638,3	0
638,7	0
639,2	0
639,6	0
640	0
640,5	0
640,9	0,001
641,4	0
641,8	0,001
642,2	0,001
642,7	0
643,1	0,001
643,6	0,001
644	0,001
644,5	0
644,9	0,001
645,3	0,001
645,8	0,001
646,2	0
646,7	0
647,1	0,001
647,6	0,001
648	-0
648,4	-0
648,9	-0
649,3	-0
649,8	-0
650,2	-0
650,6	-0
651,1	0,001
651,5	0
652	-0
652,4	-0
652,9	-0,001
653,3	-0,001
653,7	-0,001
654,2	-0,002
654,6	-0,001
655,1	0
655,5	0
655,9	0
656,4	0
656,8	0,001
657,3	0,001
657,7	0,001
658,2	0,001
658,6	0,001
659	0,001
659,5	0,002
659,9	0,002
660,4	0,002
660,8	0,001
661,2	0,001
661,7	0,001
662,1	0,001
662,6	0,001
663	0
663,4	0
663,9	-0
664,3	-0
664,8	-0,001
665,2	-0,001
665,6	-0,001
666,1	-0
666,5	-0
667	-0
667,4	-0
667,9	0
668,3	0,001
668,7	0,001
669,2	0,001
669,6	0,001
670,1	0,001
670,5	0,001
670,9	0,001
671,4	0,001
671,8	0
672,3	0
672,7	0
673,1	0
673,6	0
674	0
674,5	0
674,9	0
675,3	0
675,8	0
676,2	0
676,7	0
677,1	-0
677,5	-0
678	-0
678,4	-0
678,9	-0
679,3	-0
679,7	-0,001
680,2	0
680,6	0
681,1	0
681,5	-0
681,9	0
682,4	-0
682,8	0
683,3	-0
683,7	-0
684,1	0
684,6	0
685	0
685,5	0,001
685,9	0,001
686,3	0,001
686,8	0,001
687,2	0,001
687,7	0
688,1	0
688,5	0
689	0,001
689,4	0,001
689,9	0,001
690,3	0,001
690,7	0,001
691,2	0,001
691,6	0,001
692	0,001
692,5	0,001
692,9	0,001
693,4	0,001
693,8	0,001
694,2	0,001
694,7	0,001
695,1	0,001
695,6	0,001
696	0,002
696,4	0,001
696,9	0,001
697,3	0,001
697,8	0,001
698,2	0,001
698,6	0
699,1	0
699,5	0
699,9	-0
700,4	0
700,8	0,001
701,3	0,001
701,7	0,001
702,1	0,001
702,6	0,001
703	0,001
703,5	0,001
703,9	0,001
704,3	0,001
704,8	0,001
705,2	0,001
705,6	0,001
706,1	0,001
706,5	0,001
707	0
707,4	-0
707,8	-0,001
708,3	-0,001
708,7	-0,001
709,2	-0,002
709,6	-0,002
710	-0,001
710,5	-0,001
710,9	-0,001
711,3	-0,001
711,8	-0
712,2	0
712,7	0
713,1	0
713,5	0
714	0
714,4	0
714,8	0
715,3	0
715,7	-0
716,2	-0
716,6	0
717	0
717,5	0,001
717,9	0,001
718,3	0,001
718,8	0,001
719,2	0,001
719,7	0,001
720,1	0,001
720,5	0,001
721	0,001
721,4	0,001
721,8	0
722,3	0
722,7	0
723,2	-0
723,6	-0
724	-0
724,5	-0
724,9	-0
725,3	-0,001
725,8	-0
726,2	-0
726,7	0
727,1	0
727,5	-0
728	-0
728,4	-0
728,8	-0
729,3	0
729,7	0
730,1	0
730,6	-0
731	0
731,5	0
731,9	-0
732,3	-0,001
732,8	-0,001
733,2	-0,001
733,6	-0
734,1	-0,001
734,5	-0
734,9	-0
735,4	0
735,8	0
736,3	0
736,7	0
737,1	0
737,6	0
738	-0
738,4	-0
738,9	0
739,3	0
739,7	0
740,2	0
740,6	0
741,1	0,001
741,5	0,001
741,9	0,001
742,4	0
742,8	-0
743,2	0
743,7	0
744,1	0
744,5	0
745	0,001
745,4	0
745,8	0,001
746,3	0,001
746,7	0,001
747,2	0,001
747,6	0,001
748	0,001
748,5	0,001
748,9	0,001
749,3	0
749,8	0
750,2	-0
750,6	-0,001
751,1	-0,001
751,5	-0,001
751,9	-0,001
752,4	-0
752,8	-0
753,3	0
753,7	0,001
754,1	0,001
754,6	0,001
755	0
755,4	0
755,9	-0
756,3	-0
756,7	-0,001
757,2	-0
757,6	-0
758	0
758,5	0
758,9	-0
759,3	-0
759,8	-0
760,2	-0
760,6	-0,001
761,1	-0,001
761,5	-0,001
761,9	-0,001
762,4	-0,001
762,8	-0,001
763,3	-0,001
763,7	-0
764,1	-0
764,6	-0,001
765	-0,001
765,4	-0,001
765,9	-0,001
766,3	-0
766,7	-0,001
767,2	-0,001
767,6	-0
768	-0
768,5	-0,001
768,9	-0
769,3	-0,001
769,8	-0,001
770,2	-0,001
770,6	-0,001
771,1	-0,001
771,5	-0,001
771,9	-0,001
772,4	-0,001
772,8	-0,001
773,2	-0,001
773,7	-0,001
774,1	-0
774,5	0
775	0,001
775,4	0,001
775,8	0,001
776,3	0,001
776,7	0,001
777,1	0,001
777,6	0,001
778	0,001
778,4	0,001
778,9	0,001
779,3	0,001
779,7	0,001
780,2	0
780,6	0
781	0
781,5	0
781,9	0
782,3	-0
782,8	-0
783,2	0
783,6	0
784,1	0
784,5	0
784,9	0
785,4	0
785,8	0
786,2	0
786,7	0
787,1	0,001
787,5	0,001
788	0,001
788,4	0,001
788,8	0
789,3	0,001
789,7	0
790,1	0
790,6	0
791	-0
791,4	0
791,9	0
792,3	0
792,7	0
793,2	-0
793,6	0
794	0
794,5	0
794,9	0,001
795,3	0,001
795,8	0,001
796,2	0,001
796,6	0,001
797,1	0,001
797,5	0,001
797,9	0,001
798,4	0,001
798,8	0,001
799,2	0,001
799,7	0,001
800,1	0,001
800,5	0,001
801	0
801,4	0,001
801,8	0,001
802,2	0,001
802,7	0,001
803,1	0,001
803,5	0
804	0
804,4	-0
804,8	-0
805,3	-0
805,7	-0
806,1	-0
806,6	0
807	0
807,4	0,001
807,9	0,001
808,3	0,001
808,7	0,001
809,2	0,001
809,6	0,001
810	0
810,4	-0
810,9	-0
811,3	-0
811,7	-0,001
812,2	-0,001
812,6	-0,001
813	-0
813,5	0
813,9	0
814,3	0,001
814,8	0,001
815,2	0,001
815,6	0,001
816,1	0,001
816,5	0,001
816,9	0,001
817,3	0
817,8	0
818,2	0
818,6	-0
819,1	-0
819,5	-0
819,9	-0
820,4	-0
820,8	-0
821,2	-0
821,7	-0
822,1	-0
822,5	-0
822,9	-0,001
823,4	-0
823,8	-0
824,2	0
824,7	-0
825,1	0
825,5	0,001
826	0,001
826,4	0,001
826,8	0,001
827,3	0,002
827,7	0,002
828,1	0,002
828,5	0,002
829	0,001
829,4	0,001
829,8	0,001
830,3	0
830,7	0
831,1	-0
831,6	0
832	-0
832,4	-0
832,8	-0,001
833,3	-0,001
833,7	-0
834,1	-0,001
834,6	-0,001
835	-0,001
835,4	-0
835,8	-0
836,3	-0
836,7	-0
837,1	0
837,6	0
838	-0
838,4	-0,001
838,9	-0,001
839,3	-0,001
839,7	-0,001
840,1	-0,001
840,6	-0,001
841	-0,001
841,4	-0,001
841,9	-0,001
842,3	-0,002
842,7	-0,001
843,1	-0,002
843,6	-0,002
844	-0,001
844,4	-0,002
844,9	-0,001
845,3	-0,001
845,7	-0,001
846,2	-0
846,6	-0
847	-0
847,4	0
847,9	-0
848,3	0
848,7	-0
849,2	-0
849,6	-0
850	-0
850,4	-0
850,9	0
851,3	0
851,7	0
852,2	0,001
852,6	0,001
853	0,001
853,4	0,001
853,9	0,001
854,3	0,001
854,7	0,002
855,2	0,001
855,6	0,001
856	0,001
856,4	0,001
856,9	0,001
857,3	0,001
857,7	0
858,2	-0
858,6	-0
859	-0
859,4	-0
859,9	-0
860,3	-0
860,7	-0,001
861,1	-0
861,6	-0
862	-0
862,4	-0
862,9	-0
863,3	-0
863,7	-0
864,1	0
864,6	0
865	0
865,4	0
865,9	0
866,3	0,001
866,7	0
867,1	-0
867,6	-0
868	-0,001
868,4	-0,001
868,8	-0,001
869,3	-0,001
869,7	-0,001
870,1	-0,001
870,6	-0,001
871	-0
871,4	-0
871,8	-0
872,3	-0
872,7	-0
873,1	-0
873,5	0
874	0
874,4	0
874,8	0
875,3	0
875,7	0
876,1	-0
876,5	-0
877	-0
877,4	-0,001
877,8	-0
878,2	-0,001
878,7	-0,001
879,1	-0,001
879,5	-0,001
879,9	-0,001
880,4	-0,001
880,8	-0,001
881,2	-0,001
881,7	-0,001
882,1	-0,001
882,5	-0,001
882,9	-0,001
883,4	-0,001
883,8	-0,001
884,2	-0,001
884,6	-0,001
885,1	-0,001
885,5	-0,002
885,9	-0,002
886,3	-0,002
886,8	-0,002
887,2	-0,002
887,6	-0,002
888	-0,001
888,5	-0,001
888,9	-0,001
889,3	-0
889,8	-0
890,2	-0
890,6	-0
891	-0
891,5	-0
891,9	-0,001
892,3	-0,001
892,7	-0
893,2	-0,001
893,6	-0,001
894	-0,001
894,4	-0,001
894,9	-0,001
895,3	-0,001
895,7	-0,001
896,1	-0,001
896,6	-0,001
897	-0,001
897,4	-0
897,8	-0
898,3	-0
898,7	-0
899,1	-0
899,5	-0
900	-0
900,4	-0
900,8	0
901,2	0
901,7	-0
902,1	-0
902,5	-0
902,9	-0
903,4	-0
903,8	-0
904,2	-0
904,6	0
905,1	-0
905,5	-0
905,9	-0
906,3	-0,001
906,8	-0,001
907,2	-0,001
907,6	-0,001
908	-0,001
908,5	-0,001
908,9	-0,001
909,3	-0,001
909,7	-0,001
910,2	0
910,6	-0
911	0
911,4	-0
911,9	-0
912,3	-0
912,7	-0
913,1	-0
913,6	-0,001
914	-0,001
914,4	-0,001
914,8	-0,001
915,3	-0
915,7	-0,001
916,1	-0
916,5	-0
916,9	-0
917,4	-0
917,8	-0
918,2	-0
918,6	-0
919,1	-0
919,5	-0
919,9	-0
920,3	-0
920,8	-0
921,2	-0
921,6	-0
922	-0,001
922,5	-0,001
922,9	-0,001
923,3	-0,001
923,7	-0,001
924,2	-0,001
924,6	-0,001
925	-0,001
925,4	-0,001
925,8	-0,001
926,3	-0,001
926,7	-0,001
927,1	-0,001
927,5	-0,001
928	-0,001
928,4	-0,001
928,8	-0,001
929,2	-0,001
929,7	-0,001
930,1	0
930,5	0
930,9	0
931,3	0
931,8	0
932,2	0
932,6	0,001
933	0
933,5	0
933,9	-0
934,3	-0
934,7	-0
935,2	-0,001
935,6	-0,001
936	-0,001
936,4	-0,001
936,8	-0,001
937,3	-0,002
937,7	-0,001
938,1	-0,001
938,5	-0,001
939	-0,001
939,4	-0
939,8	-0
940,2	0
940,6	-0,001
941,1	-0,001
941,5	-0,001
941,9	-0,001
942,3	-0,001
942,8	-0,001
943,2	-0,002
943,6	-0,002
944	-0,002
944,4	-0,002
944,9	-0,002
945,3	-0,002
945,7	-0,002
946,1	-0,001
946,6	-0,001
947	-0,001
947,4	-0,001
947,8	-0,001
948,2	-0,001
948,7	-0,001
949,1	-0,001
949,5	-0,001
949,9	-0,001
950,3	-0,001
950,8	-0,001
951,2	-0,001
951,6	-0,001
952	-0,001
952,5	-0,001
952,9	-0,001
953,3	-0,001
953,7	-0,001
954,1	-0,001
954,6	-0,001
955	-0,001
955,4	-0,001
955,8	-0,001
956,2	-0,001
956,7	-0,001
957,1	-0,001
957,5	-0,001
957,9	-0
958,3	-0
958,8	0
959,2	0
959,6	0
960	-0
960,5	-0,001
960,9	-0,001
961,3	-0,001
961,7	-0,002
962,1	-0,002
962,6	-0,002
963	-0,002
963,4	-0,001
963,8	-0,001
964,2	-0,001
964,7	-0,001
965,1	-0,001
965,5	-0,001
965,9	-0,001
966,3	-0,001
966,8	-0,001
967,2	-0,001
967,6	-0,001
968	-0,001
968,4	-0
968,9	0
969,3	-0
969,7	0
970,1	0
970,5	0
971	0,001
971,4	0,001
971,8	0
972,2	0,001
972,6	-0
973,1	-0
973,5	-0
973,9	-0
974,3	0
974,7	0
975,2	0
975,6	0,001
976	-0
976,4	-0
976,8	-0,001
977,3	-0,001
977,7	-0,001
978,1	-0,001
978,5	-0,001
978,9	-0,001
979,4	-0,001
979,8	-0,001
980,2	-0
980,6	-0,001
981	-0
981,5	-0
981,9	-0
982,3	-0
982,7	-0
983,1	-0
983,6	-0
984	-0,001
984,4	-0,001
984,8	-0
985,2	-0,001
985,6	-0,001
986,1	-0,001
986,5	-0
986,9	0,001
987,3	0,001
987,7	0,001
988,2	0,001
988,6	0,001
989	0,001
989,4	0,001
989,8	0,001
990,3	0,001
990,7	0,001
991,1	0,001
991,5	0,001
991,9	0,002
992,3	0,001
992,8	0,001
993,2	0,001
993,6	0,001
994	0
994,4	0
994,9	-0
995,3	-0
995,7	-0
996,1	-0
996,5	0
996,9	-0
997,4	-0,001
997,8	-0,001
998,2	-0,001
998,6	-0,001
999	-0,001
999,5	-0,002
999,9	-0,001
1000,3	-0,001
1000,7	-0,001
1001,1	-0,001
1001,5	-0,001
1002	-0
1002,4	-0
1002,8	0
1003,2	0,001
1003,6	0,001
1004	0
1004,5	0,001
1004,9	0,001
1005,3	-0
1005,7	-0
1006,1	-0,001
1006,6	-0
1007	-0
1007,4	-0
1007,8	-0,001
1008,2	0
1008,6	-0
1009,1	-0,001
1009,5	-0,001
1009,9	-0
1010,3	-0,001
1010,7	-0
1011,1	-0,001
1011,6	-0
1012	0
1012,4	0
1012,8	0
1013,2	-0
1013,6	-0
1014,1	-0
1014,5	-0
1014,9	-0
1015,3	-0
1015,7	-0,001
1016,1	-0
1016,6	-0
1017	-0
1017,4	-0
1017,8	-0,001
1018,2	-0,001
1018,6	-0,001
1019,1	-0,001
1019,5	-0
1019,9	-0
1020,3	-0
1020,7	0
1021,1	0
1021,6	0
1022	0
1022,4	-0
1022,8	-0
1023,2	-0
1023,6	-0,001
1024,1	-0,001
1024,5	-0,001
1024,9	-0,001
1025,3	-0,002
1025,7	-0,002
1026,1	-0,002
1026,6	-0,002
1027	-0,002
1027,4	-0,002
1027,8	-0,003
1028,2	-0,003
1028,6	-0,003
1029	-0,002
1029,5	-0,002
1029,9	-0,002
1030,3	-0,002
1030,7	-0,001
1031,1	-0,001
1031,5	-0,001
1032	-0,001
1032,4	-0,001
1032,8	-0,002
1033,2	-0,001
1033,6	-0,001
1034	-0,001
1034,4	-0,002
1034,9	-0,002
1035,3	-0,003
1035,7	-0,002
1036,1	-0,002
1036,5	-0,002
1036,9	-0,001
1037,4	-0
1037,8	-0
1038,2	0
1038,6	0,001
1039	0,001
1039,4	0,001
1039,8	0,001
1040,3	0
1040,7	0
1041,1	0
1041,5	-0
1041,9	-0
1042,3	-0,001
1042,7	-0,002
1043,2	-0,001
1043,6	-0,001
1044	-0,002
1044,4	-0,002
1044,8	-0,002
1045,2	-0,002
1045,6	-0,001
1046,1	-0,002
1046,5	-0,001
1046,9	-0
1047,3	-0,001
1047,7	-0
1048,1	0
1048,5	0
1049	0
1049,4	0,001
1049,8	0,001
1050,2	0,001
1050,6	0,002
1051	0,002
1051,4	0,001
1051,9	0,001
1052,3	0
1052,7	-0
1053,1	-0,001
1053,5	-0,001
1053,9	-0,001
1054,3	0
1054,8	0
1055,2	0,001
1055,6	0,001
1056	0,001
1056,4	0,001
1056,8	0,001
1057,2	0,001
1057,6	0,001
1058,1	0,001
1058,5	0,001
1058,9	0,001
1059,3	0
1059,7	-0
1060,1	-0,001
1060,5	-0,001
1061	-0,001
1061,4	-0,001
1061,8	-0,001
1062,2	-0,001
1062,6	0,001
1063	0,001
1063,4	0,001
1063,8	0
1064,3	0,001
1064,7	0,002
1065,1	0,002
1065,5	0,002
1065,9	0,002
1066,3	0,002
1066,7	0,003
1067,1	0,002
1067,6	0,002
1068	0,002
1068,4	0,002
1068,8	0,002
1069,2	0
1069,6	0,001
1070	0,002
1070,4	0,001
1070,9	0
1071,3	-0
1071,7	0,001
1072,1	0,001
1072,5	0,001
1072,9	0,001
1073,3	0,001
1073,7	0,002
1074,2	0,002
1074,6	0,001
1075	0,001
1075,4	0
1075,8	-0,001
1076,2	-0,001
1076,6	-0,002
1077	-0,002
1077,5	-0,002
1077,9	-0,003
1078,3	-0,004
1078,7	-0,005
1079,1	-0,005
1079,5	-0,005
1079,9	-0,005
1080,3	-0,005
1080,7	-0,004
1081,2	-0,002
1081,6	-0,002
1082	-0,001
1082,4	0,001
1082,8	0,002
1083,2	0,001
1083,6	-0,002
1084	-0,002
1084,5	-0,003
1084,9	-0,005
1085,3	-0,006
1085,7	-0,007
1086,1	-0,007
1086,5	-0,006
1086,9	-0,006
1087,3	-0,004
1087,7	-0,002
1088,2	-0,003
1088,6	-0,003
1089	-0,002
1089,4	-0,001
1089,8	0
1090,2	0,001
1090,6	-0,002
1091	-0,001
1091,4	-0,001
1091,9	-0
1092,3	0
1092,7	0,003
1093,1	0,002
1093,5	0,005
1093,9	0,01
1094,3	0,015
1094,7	0,015
1095,1	0,012
1095,5	0,007
1096	0,005
1096,4	0,002
1096,8	-0,005
1097,2	-0,007
1097,6	-0,007
1098	-0,003
1098,4	0,001
1098,8	0,008
1099,2	0,009
1099,6	0,015
1100,1	0,012
1100,5	0,006
1100,9	0,006
1101,3	0,004
1101,7	-0,003
1102,1	-0,001
1102,5	-0,012
1102,9	-0,006
1103,3	-0,003
1103,7	0,001
1104,2	0,005
1104,6	0,005
1105	0,006
1105,4	0,01
1105,8	0,006
1106,2	0,002
1106,6	-0,006
1107	-0,01
1107,4	-0,009
1107,8	-0,023
1108,3	-0
