Data from Absorbance_00008.txt Node
Date: Thu Aug 10 16:05:13 MSK 2023
User: vat
Spectrometer: MAYP114033
Trigger mode: 0
Integration Time (sec): 8,000000E-3
Scans to average: 10
Electric dark correction enabled: true
Nonlinearity correction enabled: false
Boxcar width: 3
XAxis mode: Wavelengths
Number of Pixels in Spectrum: 2068
>>>>>Begin Spectral Data<<<<<
199,4	-0
199,9	0,092
200,4	0,501
200,8	0,911
201,3	1,006
201,8	1,05
202,2	1,093
202,7	1,098
203,2	1,118
203,6	1,148
204,1	1,158
204,6	1,163
205	1,163
205,5	1,171
206	1,187
206,4	1,192
206,9	1,203
207,4	1,216
207,8	1,226
208,3	1,259
208,8	1,27
209,2	1,28
209,7	1,309
210,2	1,329
210,6	1,331
211,1	1,365
211,5	1,366
212	1,38
212,5	1,416
212,9	1,449
213,4	1,477
213,9	1,49
214,3	1,519
214,8	1,539
215,3	1,572
215,7	1,561
216,2	1,546
216,7	1,55
217,1	1,575
217,6	1,586
218,1	1,617
218,5	1,615
219	1,643
219,5	1,665
219,9	1,695
220,4	1,722
220,9	1,737
221,3	1,725
221,8	1,731
222,3	1,761
222,7	1,785
223,2	1,788
223,6	1,788
224,1	1,785
224,6	1,806
225	1,824
225,5	1,832
226	1,842
226,4	1,867
226,9	1,887
227,4	1,888
227,8	1,902
228,3	1,935
228,8	1,932
229,2	1,944
229,7	1,941
230,2	1,961
230,6	1,992
231,1	2,004
231,5	1,987
232	2,004
232,5	2,018
232,9	2,019
233,4	2,028
233,9	2,051
234,3	2,071
234,8	2,081
235,3	2,099
235,7	2,116
236,2	2,149
236,7	2,127
237,1	2,124
237,6	2,116
238,1	2,118
238,5	2,117
239	2,103
239,4	2,078
239,9	2,116
240,4	2,113
240,8	2,135
241,3	2,144
241,8	2,171
242,2	2,173
242,7	2,185
243,2	2,189
243,6	2,189
244,1	2,187
244,6	2,195
245	2,193
245,5	2,188
245,9	2,209
246,4	2,194
246,9	2,2
247,3	2,193
247,8	2,209
248,3	2,175
248,7	2,206
249,2	2,219
249,7	2,232
250,1	2,239
250,6	2,241
251	2,239
251,5	2,266
252	2,244
252,4	2,226
252,9	2,192
253,4	2,181
253,8	2,182
254,3	2,18
254,8	2,185
255,2	2,207
255,7	2,237
256,1	2,274
256,6	2,288
257,1	2,292
257,5	2,313
258	2,3
258,5	2,312
258,9	2,311
259,4	2,296
259,9	2,295
260,3	2,311
260,8	2,297
261,2	2,317
261,7	2,285
262,2	2,27
262,6	2,297
263,1	2,315
263,6	2,307
264	2,304
264,5	2,299
264,9	2,325
265,4	2,31
265,9	2,309
266,3	2,288
266,8	2,293
267,3	2,296
267,7	2,279
268,2	2,28
268,7	2,281
269,1	2,273
269,6	2,277
270	2,292
270,5	2,288
271	2,299
271,4	2,284
271,9	2,269
272,4	2,252
272,8	2,261
273,3	2,242
273,7	2,235
274,2	2,225
274,7	2,233
275,1	2,265
275,6	2,259
276,1	2,26
276,5	2,255
277	2,251
277,4	2,239
277,9	2,209
278,4	2,184
278,8	2,183
279,3	2,158
279,8	2,141
280,2	2,133
280,7	2,127
281,1	2,112
281,6	2,067
282,1	2,026
282,5	1,97
283	1,919
283,4	1,864
283,9	1,817
284,4	1,773
284,8	1,735
285,3	1,7
285,8	1,677
286,2	1,65
286,7	1,633
287,1	1,602
287,6	1,582
288,1	1,561
288,5	1,544
289	1,527
289,5	1,512
289,9	1,496
290,4	1,488
290,8	1,476
291,3	1,469
291,8	1,456
292,2	1,45
292,7	1,444
293,1	1,438
293,6	1,435
294,1	1,432
294,5	1,428
295	1,427
295,5	1,424
295,9	1,421
296,4	1,417
296,8	1,413
297,3	1,405
297,8	1,401
298,2	1,398
298,7	1,394
299,1	1,39
299,6	1,388
300,1	1,383
300,5	1,38
301	1,376
301,5	1,371
301,9	1,365
302,4	1,358
302,8	1,351
303,3	1,345
303,8	1,342
304,2	1,332
304,7	1,326
305,1	1,316
305,6	1,308
306,1	1,302
306,5	1,294
307	1,285
307,4	1,279
307,9	1,272
308,4	1,265
308,8	1,26
309,3	1,251
309,8	1,243
310,2	1,236
310,7	1,228
311,1	1,218
311,6	1,209
312,1	1,198
312,5	1,19
313	1,18
313,4	1,17
313,9	1,16
314,4	1,148
314,8	1,14
315,3	1,13
315,7	1,12
316,2	1,111
316,7	1,101
317,1	1,09
317,6	1,083
318	1,074
318,5	1,064
319	1,053
319,4	1,041
319,9	1,03
320,3	1,019
320,8	1,006
321,3	0,993
321,7	0,982
322,2	0,972
322,6	0,962
323,1	0,95
323,6	0,94
324	0,93
324,5	0,918
324,9	0,908
325,4	0,896
325,9	0,886
326,3	0,874
326,8	0,863
327,2	0,851
327,7	0,841
328,2	0,828
328,6	0,818
329,1	0,806
329,5	0,797
330	0,787
330,5	0,777
330,9	0,767
331,4	0,758
331,8	0,747
332,3	0,737
332,8	0,726
333,2	0,716
333,7	0,707
334,1	0,698
334,6	0,688
335,1	0,679
335,5	0,669
336	0,66
336,4	0,651
336,9	0,642
337,4	0,631
337,8	0,622
338,3	0,612
338,7	0,603
339,2	0,594
339,7	0,585
340,1	0,576
340,6	0,567
341	0,559
341,5	0,55
342	0,541
342,4	0,533
342,9	0,525
343,3	0,517
343,8	0,509
344,2	0,502
344,7	0,495
345,2	0,487
345,6	0,479
346,1	0,472
346,5	0,465
347	0,458
347,5	0,451
347,9	0,444
348,4	0,438
348,8	0,432
349,3	0,426
349,8	0,419
350,2	0,412
350,7	0,406
351,1	0,399
351,6	0,394
352	0,387
352,5	0,381
353	0,375
353,4	0,37
353,9	0,364
354,3	0,359
354,8	0,353
355,3	0,348
355,7	0,343
356,2	0,338
356,6	0,332
357,1	0,327
357,5	0,321
358	0,316
358,5	0,312
358,9	0,307
359,4	0,302
359,8	0,298
360,3	0,294
360,8	0,29
361,2	0,286
361,7	0,282
362,1	0,278
362,6	0,273
363	0,269
363,5	0,265
364	0,261
364,4	0,257
364,9	0,253
365,3	0,249
365,8	0,246
366,3	0,242
366,7	0,239
367,2	0,235
367,6	0,232
368,1	0,228
368,5	0,225
369	0,222
369,5	0,218
369,9	0,215
370,4	0,213
370,8	0,211
371,3	0,208
371,7	0,206
372,2	0,203
372,7	0,2
373,1	0,197
373,6	0,194
374	0,19
374,5	0,187
374,9	0,183
375,4	0,182
375,9	0,18
376,3	0,177
376,8	0,175
377,2	0,173
377,7	0,171
378,2	0,169
378,6	0,167
379,1	0,164
379,5	0,162
380	0,16
380,4	0,158
380,9	0,155
381,4	0,153
381,8	0,15
382,3	0,149
382,7	0,146
383,2	0,144
383,6	0,142
384,1	0,141
384,6	0,139
385	0,137
385,5	0,135
385,9	0,134
386,4	0,132
386,8	0,131
387,3	0,129
387,7	0,128
388,2	0,127
388,7	0,125
389,1	0,124
389,6	0,122
390	0,12
390,5	0,118
390,9	0,116
391,4	0,115
391,9	0,113
392,3	0,112
392,8	0,111
393,2	0,109
393,7	0,108
394,1	0,107
394,6	0,105
395,1	0,104
395,5	0,103
396	0,102
396,4	0,101
396,9	0,1
397,3	0,099
397,8	0,098
398,2	0,097
398,7	0,096
399,2	0,094
399,6	0,093
400,1	0,092
400,5	0,091
401	0,089
401,4	0,088
401,9	0,087
402,4	0,085
402,8	0,085
403,3	0,084
403,7	0,082
404,2	0,081
404,6	0,08
405,1	0,08
405,5	0,08
406	0,078
406,5	0,077
406,9	0,077
407,4	0,076
407,8	0,074
408,3	0,074
408,7	0,072
409,2	0,071
409,6	0,07
410,1	0,069
410,6	0,069
411	0,068
411,5	0,067
411,9	0,066
412,4	0,066
412,8	0,066
413,3	0,065
413,7	0,063
414,2	0,063
414,7	0,062
415,1	0,062
415,6	0,062
416	0,061
416,5	0,06
416,9	0,059
417,4	0,058
417,8	0,057
418,3	0,056
418,8	0,054
419,2	0,053
419,7	0,053
420,1	0,052
420,6	0,051
421	0,05
421,5	0,05
421,9	0,05
422,4	0,049
422,8	0,048
423,3	0,048
423,8	0,047
424,2	0,046
424,7	0,045
425,1	0,044
425,6	0,043
426	0,043
426,5	0,042
426,9	0,042
427,4	0,041
427,9	0,041
428,3	0,04
428,8	0,039
429,2	0,038
429,7	0,038
430,1	0,037
430,6	0,037
431	0,037
431,5	0,037
431,9	0,037
432,4	0,036
432,8	0,035
433,3	0,034
433,8	0,033
434,2	0,032
434,7	0,031
435,1	0,03
435,6	0,029
436	0,029
436,5	0,029
436,9	0,029
437,4	0,028
437,8	0,028
438,3	0,027
438,8	0,027
439,2	0,027
439,7	0,026
440,1	0,026
440,6	0,025
441	0,025
441,5	0,025
441,9	0,025
442,4	0,024
442,8	0,024
443,3	0,024
443,7	0,024
444,2	0,024
444,7	0,024
445,1	0,023
445,6	0,023
446	0,023
446,5	0,023
446,9	0,022
447,4	0,021
447,8	0,02
448,3	0,02
448,7	0,02
449,2	0,019
449,6	0,019
450,1	0,019
450,6	0,019
451	0,019
451,5	0,019
451,9	0,018
452,4	0,018
452,8	0,018
453,3	0,017
453,7	0,017
454,2	0,017
454,6	0,017
455,1	0,016
455,5	0,016
456	0,016
456,4	0,015
456,9	0,015
457,3	0,014
457,8	0,015
458,3	0,014
458,7	0,014
459,2	0,013
459,6	0,013
460,1	0,013
460,5	0,013
461	0,013
461,4	0,014
461,9	0,014
462,3	0,013
462,8	0,013
463,2	0,013
463,7	0,012
464,1	0,011
464,6	0,01
465	0,011
465,5	0,011
466	0,011
466,4	0,011
466,9	0,011
467,3	0,011
467,8	0,012
468,2	0,011
468,7	0,011
469,1	0,011
469,6	0,01
470	0,011
470,5	0,01
470,9	0,009
471,4	0,008
471,8	0,008
472,3	0,008
472,7	0,008
473,2	0,008
473,6	0,008
474,1	0,008
474,5	0,008
475	0,008
475,4	0,008
475,9	0,008
476,4	0,007
476,8	0,007
477,3	0,007
477,7	0,007
478,2	0,008
478,6	0,007
479,1	0,007
479,5	0,007
480	0,007
480,4	0,007
480,9	0,007
481,3	0,007
481,8	0,007
482,2	0,008
482,7	0,008
483,1	0,008
483,6	0,008
484	0,008
484,5	0,007
484,9	0,007
485,4	0,006
485,8	0,006
486,3	0,006
486,7	0,006
487,2	0,006
487,6	0,006
488,1	0,006
488,5	0,006
489	0,006
489,4	0,007
489,9	0,007
490,4	0,006
490,8	0,006
491,3	0,006
491,7	0,005
492,2	0,005
492,6	0,005
493,1	0,005
493,5	0,005
494	0,005
494,4	0,005
494,9	0,005
495,3	0,005
495,8	0,005
496,2	0,004
496,7	0,004
497,1	0,004
497,6	0,004
498	0,005
498,5	0,004
498,9	0,004
499,4	0,005
499,8	0,005
500,3	0,004
500,7	0,004
501,2	0,004
501,6	0,004
502,1	0,004
502,5	0,004
503	0,004
503,4	0,004
503,9	0,004
504,3	0,004
504,8	0,004
505,2	0,004
505,7	0,005
506,1	0,005
506,6	0,005
507	0,004
507,5	0,004
507,9	0,003
508,4	0,003
508,8	0,003
509,3	0,003
509,7	0,003
510,2	0,004
510,6	0,004
511,1	0,004
511,5	0,004
512	0,004
512,4	0,003
512,9	0,003
513,3	0,003
513,8	0,004
514,2	0,004
514,7	0,004
515,1	0,004
515,6	0,004
516	0,004
516,5	0,004
516,9	0,004
517,4	0,003
517,8	0,003
518,3	0,002
518,7	0,002
519,2	0,001
519,6	0,001
520,1	0,002
520,5	0,002
521	0,002
521,4	0,003
521,9	0,003
522,3	0,004
522,8	0,003
523,2	0,003
523,7	0,004
524,1	0,004
524,6	0,003
525	0,003
525,5	0,003
525,9	0,003
526,4	0,003
526,8	0,003
527,3	0,003
527,7	0,004
528,2	0,004
528,6	0,004
529,1	0,003
529,5	0,004
530	0,004
530,4	0,003
530,9	0,003
531,3	0,003
531,8	0,003
532,2	0,003
532,6	0,003
533,1	0,002
533,5	0,002
534	0,002
534,4	0,001
534,9	0,002
535,3	0,002
535,8	0,002
536,2	0,002
536,7	0,002
537,1	0,002
537,6	0,002
538	0,002
538,5	0,002
538,9	0,002
539,4	0,002
539,8	0,002
540,3	0,002
540,7	0,001
541,2	0,001
541,6	0,002
542,1	0,002
542,5	0,003
543	0,003
543,4	0,003
543,9	0,004
544,3	0,004
544,8	0,003
545,2	0,003
545,7	0,003
546,1	0,002
546,5	0,002
547	0,002
547,4	0,002
547,9	0,002
548,3	0,002
548,8	0,002
549,2	0,002
549,7	0,003
550,1	0,003
550,6	0,003
551	0,003
551,5	0,003
551,9	0,002
552,4	0,003
552,8	0,002
553,3	0,002
553,7	0,002
554,2	0,002
554,6	0,003
555,1	0,003
555,5	0,003
555,9	0,003
556,4	0,004
556,8	0,003
557,3	0,003
557,7	0,003
558,2	0,003
558,6	0,003
559,1	0,003
559,5	0,002
560	0,002
560,4	0,002
560,9	0,002
561,3	0,002
561,8	0,002
562,2	0,002
562,7	0,001
563,1	0,001
563,6	0,002
564	0,002
564,4	0,002
564,9	0,002
565,3	0,002
565,8	0,002
566,2	0,002
566,7	0,002
567,1	0,001
567,6	0,001
568	0,001
568,5	0,001
568,9	0,001
569,4	0,001
569,8	0,001
570,3	0,001
570,7	0,001
571,1	0,001
571,6	0,001
572	0,001
572,5	0,002
572,9	0,002
573,4	0,001
573,8	0,001
574,3	0,001
574,7	0,001
575,2	0,001
575,6	0,001
576,1	0,002
576,5	0,002
576,9	0,002
577,4	0,002
577,8	0,002
578,3	0,002
578,7	0,002
579,2	0,001
579,6	0,001
580,1	0,001
580,5	0,001
581	0,001
581,4	0,001
581,9	0,001
582,3	0,001
582,7	0,001
583,2	0,001
583,6	0,001
584,1	0,001
584,5	0,002
585	0,002
585,4	0,001
585,9	0,001
586,3	0,001
586,8	0,001
587,2	0,002
587,6	0,002
588,1	0,002
588,5	0,002
589	0,002
589,4	0,002
589,9	0,002
590,3	0,001
590,8	0,002
591,2	0,002
591,7	0,002
592,1	0,002
592,5	0,002
593	0,002
593,4	0,002
593,9	0,002
594,3	0,002
594,8	0,001
595,2	0,002
595,7	0,002
596,1	0,002
596,6	0,002
597	0,002
597,4	0,002
597,9	0,002
598,3	0,002
598,8	0,002
599,2	0,002
599,7	0,001
600,1	0,001
600,6	0,001
601	0,001
601,4	0,001
601,9	0,001
602,3	0,001
602,8	0,002
603,2	0,002
603,7	0,002
604,1	0,002
604,6	0,002
605	0,002
605,4	0,001
605,9	0,001
606,3	0,001
606,8	0,001
607,2	0,001
607,7	0,001
608,1	0,001
608,6	0,001
609	0,001
609,4	0,001
609,9	0
610,3	0,001
610,8	0,001
611,2	0,001
611,7	0,001
612,1	0,002
612,6	0,002
613	0,002
613,4	0,001
613,9	0,001
614,3	0,001
614,8	0,001
615,2	0,001
615,7	0,001
616,1	0,001
616,6	0,001
617	0,001
617,4	0,001
617,9	0,001
618,3	0,002
618,8	0,002
619,2	0,001
619,7	0,002
620,1	0,002
620,5	0,001
621	0,002
621,4	0,002
621,9	0,001
622,3	0,001
622,8	0,001
623,2	0,001
623,6	0,001
624,1	0,001
624,5	0,001
625	0,002
625,4	0,002
625,9	0,002
626,3	0,002
626,8	0,001
627,2	0,001
627,6	0,001
628,1	0
628,5	0
629	0
629,4	0
629,9	0
630,3	0
630,7	0,001
631,2	0,001
631,6	0,001
632,1	0,001
632,5	0,001
633	0,002
633,4	0,002
633,8	0,002
634,3	0,002
634,7	0,002
635,2	0,001
635,6	0,001
636,1	0,001
636,5	0,001
636,9	0,001
637,4	0,001
637,8	0,001
638,3	0,002
638,7	0,002
639,2	0,002
639,6	0,001
640	0,001
640,5	0,001
640,9	0,001
641,4	-0
641,8	-0
642,2	-0
642,7	-0
643,1	0
643,6	0,001
644	0,001
644,5	0,001
644,9	0,001
645,3	0,001
645,8	0,001
646,2	0,001
646,7	0,001
647,1	0,001
647,6	0,002
648	0,002
648,4	0,002
648,9	0,002
649,3	0,002
649,8	0,002
650,2	0,002
650,6	0,002
651,1	0,001
651,5	0,001
652	0,001
652,4	0,001
652,9	0,001
653,3	0,001
653,7	0,001
654,2	0,001
654,6	0,001
655,1	0,001
655,5	0
655,9	0
656,4	0
656,8	0,001
657,3	0,001
657,7	0,001
658,2	0,001
658,6	0,002
659	0,002
659,5	0,004
659,9	0,002
660,4	0,002
660,8	0,002
661,2	0,002
661,7	0,002
662,1	0,001
662,6	0,001
663	0,001
663,4	0,001
663,9	0,001
664,3	0,001
664,8	0,001
665,2	0,002
665,6	0,002
666,1	0,002
666,5	0,002
667	0,002
667,4	0,002
667,9	0,002
668,3	0,002
668,7	0,002
669,2	0,002
669,6	0,002
670,1	0,002
670,5	0,002
670,9	0,001
671,4	0,001
671,8	0,001
672,3	0,001
672,7	0,001
673,1	0,001
673,6	0,001
674	0,001
674,5	0,001
674,9	0,001
675,3	0,001
675,8	0,001
676,2	0,001
676,7	0,001
677,1	0,001
677,5	0,001
678	0,001
678,4	0,001
678,9	0,001
679,3	0,001
679,7	0,001
680,2	0,001
680,6	0,002
681,1	0,001
681,5	0,001
681,9	0,001
682,4	0,001
682,8	0,002
683,3	0,002
683,7	0,001
684,1	0,002
684,6	0,002
685	0,002
685,5	0,001
685,9	0,001
686,3	0,001
686,8	0
687,2	0
687,7	-0
688,1	-0
688,5	0
689	-0
689,4	-0
689,9	0
690,3	0,001
690,7	0,001
691,2	0,001
691,6	0,001
692	0,001
692,5	0,001
692,9	0,001
693,4	0,001
693,8	0,001
694,2	0,001
694,7	0,001
695,1	0,001
695,6	0,001
696	0,001
696,4	0,001
696,9	0,001
697,3	0,001
697,8	0,001
698,2	0,002
698,6	0,002
699,1	0,002
699,5	0,002
699,9	0,002
700,4	0,002
700,8	0,002
701,3	0,002
701,7	0,001
702,1	0,002
702,6	0,001
703	0,001
703,5	0,001
703,9	0,001
704,3	0,001
704,8	0,001
705,2	0
705,6	0
706,1	0,001
706,5	0
707	0
707,4	0
707,8	0,001
708,3	0,001
708,7	0,001
709,2	0,001
709,6	0,001
710	0,001
710,5	0,002
710,9	0,002
711,3	0,002
711,8	0,001
712,2	0,002
712,7	0,001
713,1	0,001
713,5	0,001
714	0,001
714,4	0,001
714,8	0,001
715,3	0
715,7	0,001
716,2	0,001
716,6	0,001
717	0,001
717,5	0,001
717,9	0,001
718,3	0,002
718,8	0,001
719,2	0,001
719,7	0,001
720,1	0,001
720,5	0,001
721	0,001
721,4	0,001
721,8	0,001
722,3	0,001
722,7	0,001
723,2	0,001
723,6	0,001
724	0,001
724,5	0,001
724,9	0,001
725,3	0,001
725,8	0,001
726,2	0,001
726,7	0,001
727,1	0,001
727,5	0
728	0,001
728,4	0,001
728,8	0
729,3	0,001
729,7	0
730,1	0
730,6	0,001
731	0,001
731,5	0,001
731,9	0,001
732,3	0,001
732,8	0,001
733,2	0,001
733,6	0,001
734,1	0,001
734,5	0,001
734,9	0,001
735,4	0,001
735,8	0,001
736,3	0,001
736,7	0,001
737,1	0,001
737,6	0,001
738	0,001
738,4	0,001
738,9	0,001
739,3	0,001
739,7	0,001
740,2	0
740,6	0
741,1	0
741,5	0,001
741,9	0,001
742,4	0,001
742,8	0,001
743,2	0,001
743,7	0,001
744,1	0,001
744,5	0
745	0
745,4	0
745,8	0
746,3	-0
746,7	-0
747,2	0
747,6	0
748	0
748,5	-0
748,9	-0
749,3	-0
749,8	-0
750,2	-0
750,6	-0
751,1	0
751,5	0,001
751,9	0,001
752,4	0,001
752,8	0,001
753,3	0,001
753,7	0,001
754,1	0,001
754,6	0,001
755	0,001
755,4	0
755,9	0
756,3	0
756,7	0,001
757,2	0,001
757,6	0
758	0,001
758,5	0,001
758,9	0
759,3	0,001
759,8	0,001
760,2	0
760,6	0,001
761,1	0,001
761,5	0
761,9	0
762,4	0
762,8	0
763,3	0
763,7	0
764,1	0
764,6	0,001
765	0,001
765,4	0,001
765,9	0,001
766,3	0,001
766,7	0,001
767,2	0,001
767,6	0,001
768	0,002
768,5	0,001
768,9	0,001
769,3	0,001
769,8	0,001
770,2	0,001
770,6	0,001
771,1	0,001
771,5	0,001
771,9	0,001
772,4	0,001
772,8	0,001
773,2	0,001
773,7	0,001
774,1	0,001
774,5	0,001
775	0,001
775,4	0,001
775,8	0,001
776,3	0,002
776,7	0,001
777,1	0,002
777,6	0,002
778	0,002
778,4	0,002
778,9	0,002
779,3	0,001
779,7	0,001
780,2	0,001
780,6	0,001
781	0,001
781,5	0
781,9	0
782,3	0
782,8	0
783,2	0
783,6	0
784,1	-0
784,5	0
784,9	0
785,4	0,001
785,8	0,001
786,2	0,001
786,7	0,001
787,1	0,002
787,5	0,001
788	0,001
788,4	0,001
788,8	0,001
789,3	0,001
789,7	0,001
790,1	0,001
790,6	0,001
791	0,001
791,4	0,001
791,9	0,001
792,3	0,001
792,7	0,001
793,2	0,001
793,6	0,001
794	0,001
794,5	0,001
794,9	0,001
795,3	0,001
795,8	0,001
796,2	0,001
796,6	0,001
797,1	0,001
797,5	0,001
797,9	0,001
798,4	0,001
798,8	0
799,2	0,001
799,7	0,001
800,1	0,002
800,5	0,002
801	0,002
801,4	0,002
801,8	0,002
802,2	0,003
802,7	0,002
803,1	0,002
803,5	0,001
804	0,001
804,4	0,001
804,8	0,001
805,3	0
805,7	-0
806,1	-0
806,6	0
807	0,001
807,4	0,001
807,9	0,001
808,3	0
808,7	0
809,2	0,001
809,6	0
810	0
810,4	0
810,9	0
811,3	0
811,7	0,001
812,2	0,001
812,6	0,001
813	0,001
813,5	0,001
813,9	0,001
814,3	0,001
814,8	0,001
815,2	0,001
815,6	0,001
816,1	0,001
816,5	0
816,9	0,001
817,3	0
817,8	0,001
818,2	0,001
818,6	0,001
819,1	0,001
819,5	0,001
819,9	0,001
820,4	0,001
820,8	0,001
821,2	0,002
821,7	0,002
822,1	0,001
822,5	0,001
822,9	0,001
823,4	0,001
823,8	0,001
824,2	0,001
824,7	0
825,1	0,001
825,5	0,001
826	0,001
826,4	0,001
826,8	0,001
827,3	0,001
827,7	0,001
828,1	0
828,5	0
829	0
829,4	0
829,8	0
830,3	0,001
830,7	0
831,1	0,001
831,6	0,001
832	0,001
832,4	0,001
832,8	0,002
833,3	0,002
833,7	0,002
834,1	0,002
834,6	0,002
835	0,002
835,4	0,002
835,8	0,001
836,3	0,001
836,7	0,001
837,1	0,001
837,6	0,001
838	0
838,4	0
838,9	0
839,3	0
839,7	0
840,1	0
840,6	0
841	0,001
841,4	0,001
841,9	0,001
842,3	0,001
842,7	0,001
843,1	0,001
843,6	0,001
844	0,001
844,4	0,002
844,9	0,001
845,3	0,001
845,7	0,001
846,2	0,001
846,6	0,001
847	0,001
847,4	0,001
847,9	0,001
848,3	0,001
848,7	0,001
849,2	0,001
849,6	0,001
850	0,001
850,4	0,001
850,9	0,001
851,3	0,001
851,7	0,001
852,2	0,001
852,6	0,001
853	0,001
853,4	0,001
853,9	0,001
854,3	0,001
854,7	0,002
855,2	0,002
855,6	0,001
856	0,001
856,4	0,001
856,9	0,001
857,3	0,001
857,7	0,001
858,2	0
858,6	0,001
859	0,001
859,4	0,001
859,9	0
860,3	0
860,7	0
861,1	0,001
861,6	0
862	0,001
862,4	0
862,9	0
863,3	0,001
863,7	0,001
864,1	0,001
864,6	0,001
865	0,001
865,4	0,001
865,9	0,001
866,3	0,001
866,7	0
867,1	0
867,6	0
868	0
868,4	0,001
868,8	0,001
869,3	0,001
869,7	0,001
870,1	0,002
870,6	0,002
871	0,002
871,4	0,002
871,8	0,002
872,3	0,002
872,7	0,002
873,1	0,001
873,5	0,001
874	0,001
874,4	0,001
874,8	0,001
875,3	0,001
875,7	0,001
876,1	0,001
876,5	0,001
877	0,001
877,4	0,001
877,8	0,001
878,2	0,001
878,7	0,001
879,1	0
879,5	0
879,9	0
880,4	0
880,8	0
881,2	0
881,7	0
882,1	0
882,5	0
882,9	0
883,4	0
883,8	0
884,2	0
884,6	0
885,1	0
885,5	-0
885,9	0,001
886,3	0,001
886,8	0,001
887,2	0,001
887,6	0,001
888	0,001
888,5	0,001
888,9	0,001
889,3	0,001
889,8	0,001
890,2	0,001
890,6	0,001
891	0,001
891,5	0,001
891,9	0,001
892,3	0,001
892,7	0,001
893,2	0
893,6	0
894	0
894,4	0
894,9	-0
895,3	0
895,7	-0
896,1	0
896,6	0
897	0
897,4	0
897,8	0,001
898,3	0
898,7	0,001
899,1	0,001
899,5	0
900	0,001
900,4	0
900,8	0
901,2	0
901,7	0
902,1	-0
902,5	0
902,9	-0
903,4	-0
903,8	-0
904,2	0
904,6	0
905,1	0
905,5	0
905,9	0
906,3	0
906,8	0
907,2	0
907,6	0
908	0
908,5	-0
908,9	-0
909,3	-0
909,7	-0
910,2	-0
910,6	-0
911	-0
911,4	0
911,9	0
912,3	0,001
912,7	0,001
913,1	0
913,6	0,001
914	0,001
914,4	0,001
914,8	0,001
915,3	0,001
915,7	0,001
916,1	0,001
916,5	0,001
916,9	0,001
917,4	0
917,8	0,001
918,2	0,001
918,6	0,001
919,1	-0
919,5	0
919,9	0
920,3	0,001
920,8	0,001
921,2	0,001
921,6	0
922	0,001
922,5	0,001
922,9	0,001
923,3	0,001
923,7	0,001
924,2	0,001
924,6	0,002
925	0,002
925,4	0,002
925,8	0,002
926,3	0,002
926,7	0,002
927,1	0,002
927,5	0,002
928	0,002
928,4	0,002
928,8	0,001
929,2	0,001
929,7	0,002
930,1	0,002
930,5	0,002
930,9	0,002
931,3	0,002
931,8	0,002
932,2	0,002
932,6	0,001
933	0,001
933,5	0,001
933,9	0,001
934,3	0,001
934,7	0,001
935,2	0,001
935,6	0,001
936	0,001
936,4	0,001
936,8	0,001
937,3	0,002
937,7	0,002
938,1	0,003
938,5	0,002
939	0,002
939,4	0,002
939,8	0,002
940,2	0,001
940,6	0,001
941,1	0
941,5	0,001
941,9	0,001
942,3	0,001
942,8	0,001
943,2	0
943,6	0
944	0
944,4	-0
944,9	0
945,3	0,001
945,7	0,001
946,1	0,001
946,6	0,002
947	0,002
947,4	0,002
947,8	0,002
948,2	0,002
948,7	0,002
949,1	0,002
949,5	0,002
949,9	0,001
950,3	0
950,8	0
951,2	0
951,6	0
952	-0
952,5	0
952,9	0,001
953,3	0,001
953,7	0,001
954,1	0,001
954,6	0,001
955	0,001
955,4	0
955,8	0,001
956,2	0
956,7	0
957,1	0,001
957,5	0,001
957,9	0,001
958,3	0,001
958,8	0,001
959,2	0,001
959,6	0,001
960	0,001
960,5	0,001
960,9	0,001
961,3	0,001
961,7	0,001
962,1	0,001
962,6	0,001
963	0
963,4	0,001
963,8	0,001
964,2	0,001
964,7	0,002
965,1	0,003
965,5	0,002
965,9	0,002
966,3	0,002
966,8	0,001
967,2	0,001
967,6	-0
968	-0
968,4	-0
968,9	-0
969,3	0
969,7	0,001
970,1	0,001
970,5	0,002
971	0,001
971,4	0,001
971,8	0,002
972,2	0,001
972,6	0,001
973,1	0,002
973,5	0,001
973,9	0,001
974,3	0,001
974,7	0,001
975,2	0,001
975,6	0,001
976	0,001
976,4	0,001
976,8	0,001
977,3	0,001
977,7	0,001
978,1	0,002
978,5	0,002
978,9	0,002
979,4	0,001
979,8	0,001
980,2	0,002
980,6	0,002
981	0,002
981,5	0,002
981,9	0,002
982,3	0,002
982,7	0,002
983,1	0,002
983,6	0,002
984	0,002
984,4	0,002
984,8	0,002
985,2	0,002
985,6	0,002
986,1	0,002
986,5	0,001
986,9	0,001
987,3	0,002
987,7	0,002
988,2	0,001
988,6	0,002
989	0,001
989,4	0,001
989,8	0,001
990,3	0
990,7	0,001
991,1	0,001
991,5	0,001
991,9	0,001
992,3	0,001
992,8	0,001
993,2	0,001
993,6	-0
994	-0
994,4	0
994,9	0
995,3	0,001
995,7	0,001
996,1	0,001
996,5	0,002
996,9	0,001
997,4	0,001
997,8	0,001
998,2	0,001
998,6	0
999	0
999,5	0
999,9	0,001
1000,3	0
1000,7	0
1001,1	0,001
1001,5	0
1002	-0,001
1002,4	-0,001
1002,8	-0,001
1003,2	-0,001
1003,6	-0,001
1004	-0,001
1004,5	-0
1004,9	0,001
1005,3	0
1005,7	0,001
1006,1	0,001
1006,6	0,001
1007	0
1007,4	0
1007,8	-0
1008,2	-0
1008,6	-0
1009,1	-0
1009,5	0
1009,9	-0
1010,3	-0
1010,7	-0
1011,1	-0
1011,6	-0
1012	-0
1012,4	-0
1012,8	-0,001
1013,2	0
1013,6	0
1014,1	0
1014,5	0,001
1014,9	0,001
1015,3	0,001
1015,7	0,001
1016,1	0
1016,6	0
1017	0,001
1017,4	0
1017,8	0
1018,2	-0
1018,6	-0,001
1019,1	-0,002
1019,5	-0,002
1019,9	-0,003
1020,3	-0,003
1020,7	-0,002
1021,1	-0,001
1021,6	-0,001
1022	-0,001
1022,4	-0,001
1022,8	-0
1023,2	-0,001
1023,6	-0,001
1024,1	-0,001
1024,5	-0
1024,9	0
1025,3	0
1025,7	-0
1026,1	0
1026,6	0,001
1027	0,001
1027,4	0
1027,8	-0
1028,2	0
1028,6	0,001
1029	0,001
1029,5	-0,001
1029,9	-0,001
1030,3	-0,001
1030,7	-0
1031,1	-0,001
1031,5	-0,001
1032	-0,001
1032,4	-0,001
1032,8	-0
1033,2	-0
1033,6	-0,001
1034	-0
1034,4	0
1034,9	0
1035,3	0
1035,7	-0
1036,1	0
1036,5	0
1036,9	0
1037,4	-0
1037,8	0
1038,2	0,001
1038,6	0
1039	0
1039,4	0
1039,8	-0
1040,3	0
1040,7	0
1041,1	-0,001
1041,5	-0,001
1041,9	0
1042,3	0,001
1042,7	0
1043,2	-0
1043,6	-0,001
1044	0
1044,4	-0
1044,8	-0,001
1045,2	-0,001
1045,6	-0
1046,1	0,001
1046,5	0,001
1046,9	0,001
1047,3	0,001
1047,7	0
1048,1	0,001
1048,5	0
1049	0
1049,4	-0
1049,8	-0,001
1050,2	0
1050,6	0,001
1051	0,001
1051,4	0,001
1051,9	0
1052,3	0
1052,7	0,001
1053,1	0,001
1053,5	-0
1053,9	0,001
1054,3	0
1054,8	0,001
1055,2	0,001
1055,6	0
1056	-0
1056,4	0
1056,8	0,001
1057,2	0,001
1057,6	0,001
1058,1	0,001
1058,5	0,002
1058,9	0,002
1059,3	0,002
1059,7	0,001
1060,1	0,002
1060,5	0,001
1061	0,001
1061,4	0,001
1061,8	0,001
1062,2	0,001
1062,6	0,001
1063	0
1063,4	0,001
1063,8	-0
1064,3	-0
1064,7	0
1065,1	-0,001
1065,5	-0
1065,9	-0
1066,3	0,001
1066,7	0,001
1067,1	0,001
1067,6	0
1068	0,001
1068,4	0
1068,8	-0,001
1069,2	-0,002
1069,6	-0,002
1070	-0,003
1070,4	-0,002
1070,9	-0,002
1071,3	-0,001
1071,7	-0,001
1072,1	-0,002
1072,5	-0
1072,9	-0
1073,3	-0
1073,7	-0
1074,2	-0
1074,6	0,002
1075	0,002
1075,4	0,001
1075,8	0
1076,2	0,001
1076,6	0
1077	-0,001
1077,5	-0,002
1077,9	-0,002
1078,3	-0,002
1078,7	-0,001
1079,1	-0,002
1079,5	-0,001
1079,9	-0
1080,3	-0,001
1080,7	-0,003
1081,2	-0,002
1081,6	-0
1082	-0
1082,4	-0,001
1082,8	-0,001
1083,2	0
1083,6	0,002
1084	0,002
1084,5	-0
1084,9	-0
1085,3	0
1085,7	0
1086,1	0,001
1086,5	0,001
1086,9	0,002
1087,3	0,004
1087,7	0,003
1088,2	0,005
1088,6	0,005
1089	0,003
1089,4	0,003
1089,8	-0
1090,2	-0,003
1090,6	-0,002
1091	-0,004
1091,4	-0,002
1091,9	-0,001
1092,3	-0,001
1092,7	0,004
1093,1	0,009
1093,5	0,004
1093,9	0,001
1094,3	-0,001
1094,7	-0
1095,1	-0,003
1095,5	-0,006
1096	-0,007
1096,4	-0
1096,8	0,001
1097,2	0,002
1097,6	0,004
1098	0,012
1098,4	0,013
1098,8	0,014
1099,2	0,004
1099,6	0,007
1100,1	0,005
1100,5	0
1100,9	-0,011
1101,3	-0,012
1101,7	-0,012
1102,1	-0,005
1102,5	-0,014
1102,9	-0,016
1103,3	-0,012
1103,7	-0,007
1104,2	-0,001
1104,6	0,014
1105	0,015
1105,4	0,015
1105,8	0,019
1106,2	0,025
1106,6	0,031
1107	0,063
1107,4	0,02
1107,8	0,049
1108,3	0,954
