Data from Absorbance_00005.txt Node
Date: Thu Aug 10 14:46:59 MSK 2023
User: vat
Spectrometer: MAYP114033
Trigger mode: 0
Integration Time (sec): 8,000000E-3
Scans to average: 10
Electric dark correction enabled: true
Nonlinearity correction enabled: false
Boxcar width: 3
XAxis mode: Wavelengths
Number of Pixels in Spectrum: 2068
>>>>>Begin Spectral Data<<<<<
199,4	-0
199,9	0,477
200,4	0,575
200,8	0,861
201,3	0,968
201,8	0,988
202,2	0,98
202,7	1,009
203,2	1,054
203,6	1,102
204,1	1,109
204,6	1,112
205	1,131
205,5	1,166
206	1,191
206,4	1,201
206,9	1,205
207,4	1,242
207,8	1,261
208,3	1,276
208,8	1,3
209,2	1,312
209,7	1,299
210,2	1,309
210,6	1,3
211,1	1,312
211,5	1,323
212	1,321
212,5	1,325
212,9	1,356
213,4	1,388
213,9	1,404
214,3	1,434
214,8	1,469
215,3	1,477
215,7	1,498
216,2	1,508
216,7	1,509
217,1	1,528
217,6	1,523
218,1	1,522
218,5	1,54
219	1,555
219,5	1,573
219,9	1,582
220,4	1,608
220,9	1,641
221,3	1,654
221,8	1,675
222,3	1,703
222,7	1,727
223,2	1,75
223,6	1,75
224,1	1,742
224,6	1,769
225	1,784
225,5	1,776
226	1,798
226,4	1,799
226,9	1,8
227,4	1,835
227,8	1,83
228,3	1,834
228,8	1,858
229,2	1,872
229,7	1,894
230,2	1,924
230,6	1,925
231,1	1,945
231,5	1,972
232	1,967
232,5	1,979
232,9	1,967
233,4	1,992
233,9	2,018
234,3	2,017
234,8	2,036
235,3	2,044
235,7	2,029
236,2	2,042
236,7	2,033
237,1	2,028
237,6	2,06
238,1	2,057
238,5	2,088
239	2,118
239,4	2,148
239,9	2,155
240,4	2,17
240,8	2,182
241,3	2,185
241,8	2,183
242,2	2,169
242,7	2,161
243,2	2,173
243,6	2,169
244,1	2,158
244,6	2,161
245	2,168
245,5	2,18
245,9	2,16
246,4	2,164
246,9	2,155
247,3	2,145
247,8	2,146
248,3	2,137
248,7	2,131
249,2	2,173
249,7	2,149
250,1	2,144
250,6	2,144
251	2,164
251,5	2,166
252	2,175
252,4	2,172
252,9	2,198
253,4	2,214
253,8	2,249
254,3	2,225
254,8	2,239
255,2	2,242
255,7	2,233
256,1	2,246
256,6	2,239
257,1	2,22
257,5	2,223
258	2,22
258,5	2,226
258,9	2,254
259,4	2,263
259,9	2,284
260,3	2,284
260,8	2,31
261,2	2,302
261,7	2,285
262,2	2,262
262,6	2,246
263,1	2,237
263,6	2,234
264	2,219
264,5	2,217
264,9	2,234
265,4	2,218
265,9	2,204
266,3	2,208
266,8	2,22
267,3	2,204
267,7	2,223
268,2	2,198
268,7	2,214
269,1	2,232
269,6	2,217
270	2,23
270,5	2,224
271	2,216
271,4	2,236
271,9	2,254
272,4	2,244
272,8	2,274
273,3	2,258
273,7	2,287
274,2	2,301
274,7	2,304
275,1	2,298
275,6	2,296
276,1	2,286
276,5	2,284
277	2,283
277,4	2,282
277,9	2,298
278,4	2,286
278,8	2,294
279,3	2,274
279,8	2,276
280,2	2,277
280,7	2,257
281,1	2,253
281,6	2,282
282,1	2,26
282,5	2,272
283	2,272
283,4	2,245
283,9	2,261
284,4	2,25
284,8	2,225
285,3	2,248
285,8	2,259
286,2	2,251
286,7	2,248
287,1	2,243
287,6	2,225
288,1	2,196
288,5	2,151
289	2,098
289,5	2,047
289,9	1,994
290,4	1,944
290,8	1,895
291,3	1,85
291,8	1,796
292,2	1,751
292,7	1,717
293,1	1,685
293,6	1,644
294,1	1,615
294,5	1,588
295	1,565
295,5	1,547
295,9	1,523
296,4	1,504
296,8	1,489
297,3	1,474
297,8	1,46
298,2	1,448
298,7	1,435
299,1	1,424
299,6	1,415
300,1	1,408
300,5	1,397
301	1,388
301,5	1,383
301,9	1,376
302,4	1,368
302,8	1,361
303,3	1,351
303,8	1,342
304,2	1,333
304,7	1,321
305,1	1,313
305,6	1,304
306,1	1,295
306,5	1,285
307	1,278
307,4	1,27
307,9	1,264
308,4	1,254
308,8	1,247
309,3	1,238
309,8	1,231
310,2	1,222
310,7	1,212
311,1	1,202
311,6	1,194
312,1	1,184
312,5	1,177
313	1,168
313,4	1,158
313,9	1,15
314,4	1,141
314,8	1,129
315,3	1,118
315,7	1,107
316,2	1,094
316,7	1,083
317,1	1,073
317,6	1,061
318	1,053
318,5	1,043
319	1,033
319,4	1,024
319,9	1,013
320,3	1,002
320,8	0,991
321,3	0,979
321,7	0,968
322,2	0,958
322,6	0,948
323,1	0,937
323,6	0,928
324	0,918
324,5	0,908
324,9	0,897
325,4	0,888
325,9	0,877
326,3	0,866
326,8	0,855
327,2	0,844
327,7	0,833
328,2	0,824
328,6	0,812
329,1	0,802
329,5	0,792
330	0,781
330,5	0,77
330,9	0,759
331,4	0,748
331,8	0,739
332,3	0,727
332,8	0,716
333,2	0,706
333,7	0,695
334,1	0,686
334,6	0,676
335,1	0,666
335,5	0,656
336	0,646
336,4	0,636
336,9	0,628
337,4	0,617
337,8	0,606
338,3	0,597
338,7	0,588
339,2	0,578
339,7	0,569
340,1	0,558
340,6	0,55
341	0,54
341,5	0,529
342	0,52
342,4	0,511
342,9	0,502
343,3	0,494
343,8	0,486
344,2	0,477
344,7	0,469
345,2	0,461
345,6	0,453
346,1	0,445
346,5	0,437
347	0,428
347,5	0,421
347,9	0,413
348,4	0,406
348,8	0,399
349,3	0,392
349,8	0,384
350,2	0,377
350,7	0,369
351,1	0,362
351,6	0,355
352	0,348
352,5	0,341
353	0,335
353,4	0,327
353,9	0,322
354,3	0,315
354,8	0,309
355,3	0,303
355,7	0,297
356,2	0,291
356,6	0,286
357,1	0,28
357,5	0,275
358	0,27
358,5	0,265
358,9	0,259
359,4	0,255
359,8	0,25
360,3	0,246
360,8	0,241
361,2	0,237
361,7	0,234
362,1	0,23
362,6	0,225
363	0,22
363,5	0,216
364	0,212
364,4	0,208
364,9	0,204
365,3	0,2
365,8	0,197
366,3	0,193
366,7	0,19
367,2	0,186
367,6	0,183
368,1	0,181
368,5	0,178
369	0,175
369,5	0,171
369,9	0,169
370,4	0,166
370,8	0,163
371,3	0,159
371,7	0,156
372,2	0,153
372,7	0,151
373,1	0,148
373,6	0,145
374	0,143
374,5	0,142
374,9	0,14
375,4	0,138
375,9	0,136
376,3	0,134
376,8	0,132
377,2	0,129
377,7	0,127
378,2	0,125
378,6	0,124
379,1	0,122
379,5	0,119
380	0,117
380,4	0,116
380,9	0,114
381,4	0,112
381,8	0,11
382,3	0,108
382,7	0,107
383,2	0,106
383,6	0,104
384,1	0,102
384,6	0,101
385	0,1
385,5	0,097
385,9	0,094
386,4	0,093
386,8	0,091
387,3	0,09
387,7	0,089
388,2	0,088
388,7	0,087
389,1	0,086
389,6	0,085
390	0,085
390,5	0,084
390,9	0,083
391,4	0,081
391,9	0,079
392,3	0,078
392,8	0,077
393,2	0,075
393,7	0,074
394,1	0,072
394,6	0,072
395,1	0,072
395,5	0,07
396	0,069
396,4	0,069
396,9	0,067
397,3	0,067
397,8	0,065
398,2	0,064
398,7	0,063
399,2	0,062
399,6	0,06
400,1	0,059
400,5	0,058
401	0,057
401,4	0,056
401,9	0,054
402,4	0,053
402,8	0,053
403,3	0,052
403,7	0,051
404,2	0,05
404,6	0,05
405,1	0,049
405,5	0,048
406	0,047
406,5	0,047
406,9	0,046
407,4	0,045
407,8	0,044
408,3	0,044
408,7	0,043
409,2	0,043
409,6	0,042
410,1	0,042
410,6	0,041
411	0,041
411,5	0,04
411,9	0,039
412,4	0,038
412,8	0,037
413,3	0,036
413,7	0,036
414,2	0,034
414,7	0,034
415,1	0,033
415,6	0,033
416	0,032
416,5	0,031
416,9	0,03
417,4	0,03
417,8	0,029
418,3	0,029
418,8	0,029
419,2	0,028
419,7	0,027
420,1	0,027
420,6	0,027
421	0,025
421,5	0,025
421,9	0,024
422,4	0,023
422,8	0,023
423,3	0,022
423,8	0,022
424,2	0,021
424,7	0,021
425,1	0,021
425,6	0,02
426	0,02
426,5	0,019
426,9	0,019
427,4	0,018
427,9	0,018
428,3	0,017
428,8	0,016
429,2	0,016
429,7	0,016
430,1	0,015
430,6	0,015
431	0,015
431,5	0,014
431,9	0,013
432,4	0,013
432,8	0,011
433,3	0,011
433,8	0,011
434,2	0,01
434,7	0,01
435,1	0,009
435,6	0,01
436	0,01
436,5	0,01
436,9	0,009
437,4	0,009
437,8	0,009
438,3	0,009
438,8	0,008
439,2	0,008
439,7	0,008
440,1	0,007
440,6	0,007
441	0,007
441,5	0,006
441,9	0,006
442,4	0,006
442,8	0,006
443,3	0,006
443,7	0,006
444,2	0,005
444,7	0,006
445,1	0,006
445,6	0,006
446	0,005
446,5	0,006
446,9	0,005
447,4	0,005
447,8	0,004
448,3	0,004
448,7	0,004
449,2	0,004
449,6	0,003
450,1	0,003
450,6	0,003
451	0,004
451,5	0,004
451,9	0,005
452,4	0,005
452,8	0,005
453,3	0,005
453,7	0,004
454,2	0,003
454,6	0,004
455,1	0,002
455,5	0,002
456	0,002
456,4	0,001
456,9	0,002
457,3	0,002
457,8	0,002
458,3	0,002
458,7	0,002
459,2	0,002
459,6	0,002
460,1	0,002
460,5	0,002
461	0,002
461,4	0,002
461,9	0,001
462,3	0,001
462,8	0,001
463,2	0,001
463,7	0,001
464,1	0,001
464,6	0,001
465	0,001
465,5	0,001
466	0,001
466,4	0,001
466,9	0,001
467,3	0,001
467,8	0,001
468,2	0
468,7	0
469,1	0
469,6	-0
470	0
470,5	0
470,9	-0
471,4	-0,001
471,8	-0,001
472,3	-0
472,7	0
473,2	-0,001
473,6	-0
474,1	-0
474,5	0,001
475	0,001
475,4	-0
475,9	-0
476,4	-0
476,8	-0,001
477,3	-0,001
477,7	-0,001
478,2	-0
478,6	-0
479,1	-0
479,5	-0
480	0
480,4	0
480,9	-0
481,3	-0,001
481,8	-0
482,2	-0
482,7	0
483,1	0
483,6	0,001
484	0,001
484,5	0,001
484,9	0,001
485,4	0,001
485,8	0,001
486,3	0
486,7	-0
487,2	-0
487,6	-0
488,1	-0
488,5	-0,001
489	-0,001
489,4	0
489,9	0
490,4	0
490,8	-0
491,3	0
491,7	-0
492,2	-0
492,6	-0
493,1	-0
493,5	-0,001
494	-0
494,4	-0
494,9	-0
495,3	-0,001
495,8	-0,001
496,2	-0,001
496,7	-0,001
497,1	-0,001
497,6	-0,001
498	-0
498,5	0
498,9	0
499,4	0
499,8	-0
500,3	0
500,7	-0,001
501,2	-0,001
501,6	-0
502,1	-0,001
502,5	-0,001
503	-0,001
503,4	-0
503,9	0,001
504,3	0
504,8	-0,001
505,2	-0
505,7	-0,001
506,1	-0,001
506,6	-0,001
507	-0,002
507,5	-0,001
507,9	-0,001
508,4	-0,001
508,8	-0,002
509,3	-0,002
509,7	-0,001
510,2	-0,001
510,6	-0,001
511,1	-0,001
511,5	-0,001
512	-0
512,4	0
512,9	-0,001
513,3	-0,001
513,8	-0,001
514,2	-0,002
514,7	-0,002
515,1	-0,002
515,6	-0,002
516	-0,002
516,5	-0,001
516,9	-0,001
517,4	-0,001
517,8	-0,001
518,3	-0,001
518,7	-0,001
519,2	-0,001
519,6	-0,001
520,1	-0,001
520,5	-0,002
521	-0,001
521,4	-0
521,9	-0
522,3	-0,001
522,8	-0
523,2	-0,001
523,7	-0,001
524,1	-0,001
524,6	-0,002
525	-0,002
525,5	-0,001
525,9	-0,001
526,4	-0
526,8	-0
527,3	-0
527,7	0
528,2	0
528,6	0
529,1	-0
529,5	-0
530	-0,001
530,4	-0,001
530,9	-0
531,3	-0
531,8	-0,001
532,2	0
532,6	0,001
533,1	0,001
533,5	0,001
534	0,001
534,4	0,001
534,9	0,001
535,3	0,001
535,8	0,001
536,2	0
536,7	-0
537,1	0
537,6	-0
538	-0
538,5	-0
538,9	-0
539,4	-0
539,8	0
540,3	0
540,7	0
541,2	0
541,6	0
542,1	0
542,5	0
543	0
543,4	-0
543,9	-0
544,3	-0
544,8	-0
545,2	0
545,7	-0
546,1	0
546,5	0,001
547	0,001
547,4	0
547,9	-0
548,3	-0
548,8	-0
549,2	-0,001
549,7	-0,001
550,1	-0
550,6	-0
551	0
551,5	0
551,9	0,001
552,4	0,001
552,8	0,001
553,3	0,001
553,7	0,001
554,2	0,001
554,6	0,001
555,1	0,001
555,5	0
555,9	-0
556,4	0
556,8	0
557,3	0
557,7	0,001
558,2	0,001
558,6	0,001
559,1	0
559,5	-0
560	0,001
560,4	0
560,9	-0
561,3	-0
561,8	0
562,2	-0
562,7	-0
563,1	-0,001
563,6	-0,001
564	-0,001
564,4	-0
564,9	-0,001
565,3	-0
565,8	-0
566,2	-0
566,7	-0
567,1	0,001
567,6	-0
568	-0
568,5	-0
568,9	-0,001
569,4	-0
569,8	-0
570,3	-0,001
570,7	-0
571,1	-0
571,6	-0
572	0
572,5	0
572,9	0
573,4	0
573,8	0
574,3	0,001
574,7	0
575,2	0,001
575,6	0
576,1	-0
576,5	-0
576,9	-0
577,4	-0,001
577,8	-0
578,3	-0
578,7	-0
579,2	-0,001
579,6	-0
580,1	-0
580,5	-0
581	-0,001
581,4	-0,001
581,9	-0,001
582,3	-0,001
582,7	-0,001
583,2	-0,001
583,6	-0,001
584,1	-0
584,5	-0
585	-0
585,4	0
585,9	0,001
586,3	0
586,8	0
587,2	0,001
587,6	0,001
588,1	0,001
588,5	0,001
589	0,001
589,4	0,001
589,9	0,001
590,3	0
590,8	0
591,2	0
591,7	0
592,1	0
592,5	0
593	0
593,4	0
593,9	0
594,3	0
594,8	0
595,2	0
595,7	0
596,1	-0
596,6	-0
597	0
597,4	0
597,9	-0
598,3	0
598,8	0,001
599,2	0
599,7	0
600,1	-0
600,6	0
601	0
601,4	-0
601,9	-0
602,3	-0
602,8	0
603,2	-0
603,7	-0
604,1	-0,001
604,6	-0
605	-0
605,4	-0
605,9	0
606,3	0
606,8	0
607,2	0,001
607,7	0
608,1	0
608,6	0
609	0
609,4	0
609,9	0
610,3	-0
610,8	-0,001
611,2	-0,001
611,7	-0,001
612,1	-0,001
612,6	-0,001
613	-0,001
613,4	-0,001
613,9	-0
614,3	-0
614,8	-0
615,2	-0
615,7	-0
616,1	-0
616,6	-0
617	-0
617,4	0
617,9	-0
618,3	-0
618,8	-0
619,2	-0
619,7	-0
620,1	-0
620,5	-0
621	0
621,4	0
621,9	0,001
622,3	0
622,8	-0
623,2	0
623,6	-0
624,1	-0
624,5	-0,001
625	-0,001
625,4	-0,001
625,9	-0,001
626,3	-0,001
626,8	-0,001
627,2	-0,001
627,6	-0,001
628,1	-0
628,5	-0
629	-0
629,4	0
629,9	0
630,3	0
630,7	0
631,2	0,001
631,6	0
632,1	0
632,5	0,001
633	0
633,4	0
633,8	0
634,3	-0
634,7	0
635,2	-0
635,6	-0
636,1	-0
636,5	0
636,9	0
637,4	0
637,8	0
638,3	0,001
638,7	0,001
639,2	0,001
639,6	0
640	0
640,5	0
640,9	0,001
641,4	0,001
641,8	0,001
642,2	0,001
642,7	0,001
643,1	0
643,6	0,001
644	0,001
644,5	0
644,9	0,001
645,3	0
645,8	0,001
646,2	0
646,7	-0
647,1	-0
647,6	-0
648	-0,001
648,4	-0,001
648,9	-0
649,3	0
649,8	0
650,2	-0
650,6	-0
651,1	0
651,5	-0
652	-0,001
652,4	-0,001
652,9	-0,001
653,3	-0,001
653,7	-0,001
654,2	-0,001
654,6	-0,001
655,1	0,001
655,5	0,001
655,9	0
656,4	0
656,8	0
657,3	0
657,7	0
658,2	-0
658,6	-0
659	-0
659,5	-0
659,9	0
660,4	0
660,8	0,001
661,2	0,001
661,7	0
662,1	0
662,6	0,001
663	0,001
663,4	0
663,9	0
664,3	0
664,8	0
665,2	-0
665,6	-0
666,1	-0
666,5	-0
667	-0,001
667,4	-0,001
667,9	-0
668,3	-0
668,7	-0
669,2	-0
669,6	-0
670,1	-0
670,5	-0
670,9	-0
671,4	-0
671,8	-0,001
672,3	-0,001
672,7	-0
673,1	-0
673,6	-0,001
674	-0
674,5	-0,001
674,9	-0
675,3	-0
675,8	-0
676,2	-0
676,7	-0
677,1	-0
677,5	-0
678	-0,001
678,4	-0
678,9	-0
679,3	-0
679,7	-0
680,2	-0
680,6	-0
681,1	-0
681,5	-0,001
681,9	-0,001
682,4	-0,001
682,8	-0,001
683,3	-0,001
683,7	-0,001
684,1	-0,001
684,6	-0,001
685	-0,001
685,5	-0
685,9	-0
686,3	-0
686,8	-0
687,2	0
687,7	0
688,1	0
688,5	0
689	0
689,4	0,001
689,9	0
690,3	0
690,7	0
691,2	0
691,6	0
692	-0
692,5	0
692,9	0
693,4	-0
693,8	0
694,2	0
694,7	0,001
695,1	0,001
695,6	0
696	0
696,4	0,001
696,9	0
697,3	0
697,8	-0
698,2	-0
698,6	-0
699,1	-0
699,5	-0
699,9	-0,001
700,4	-0
700,8	0
701,3	0
701,7	0
702,1	0
702,6	0
703	0,001
703,5	0
703,9	0
704,3	0,001
704,8	0,001
705,2	0,001
705,6	0,001
706,1	0,001
706,5	0,001
707	0,001
707,4	-0
707,8	-0,001
708,3	-0,001
708,7	-0,001
709,2	-0,001
709,6	-0,001
710	-0,001
710,5	-0,001
710,9	-0,001
711,3	-0,001
711,8	-0,001
712,2	-0
712,7	-0,001
713,1	-0
713,5	-0
714	-0
714,4	-0
714,8	-0,001
715,3	-0,001
715,7	-0,001
716,2	-0,001
716,6	-0
717	-0
717,5	-0
717,9	0
718,3	0
718,8	0,001
719,2	0,001
719,7	0,001
720,1	0,001
720,5	0,001
721	0
721,4	0
721,8	-0
722,3	-0,001
722,7	-0,001
723,2	-0,001
723,6	-0,001
724	-0,001
724,5	-0,001
724,9	-0,001
725,3	-0,001
725,8	-0,001
726,2	-0,001
726,7	-0,001
727,1	-0,001
727,5	-0,001
728	-0,001
728,4	-0,001
728,8	-0,001
729,3	-0,001
729,7	-0,001
730,1	-0,001
730,6	-0,001
731	-0
731,5	-0
731,9	-0,001
732,3	-0,001
732,8	-0,001
733,2	-0
733,6	-0
734,1	-0
734,5	-0
734,9	-0
735,4	-0
735,8	-0
736,3	-0,001
736,7	-0,001
737,1	-0,001
737,6	-0,001
738	-0,001
738,4	-0,001
738,9	-0,001
739,3	-0,001
739,7	-0
740,2	-0
740,6	-0
741,1	0
741,5	-0
741,9	-0
742,4	-0
742,8	-0,001
743,2	-0
743,7	-0
744,1	-0
744,5	-0
745	0
745,4	0
745,8	0,001
746,3	0
746,7	0
747,2	0
747,6	0
748	0
748,5	0,001
748,9	0
749,3	0
749,8	0
750,2	0
750,6	-0
751,1	-0,001
751,5	-0,001
751,9	-0,001
752,4	-0,001
752,8	-0,001
753,3	-0,001
753,7	-0
754,1	-0
754,6	-0
755	-0
755,4	-0
755,9	-0
756,3	-0
756,7	-0
757,2	-0,001
757,6	-0,001
758	-0,001
758,5	-0
758,9	-0,001
759,3	-0,001
759,8	-0,001
760,2	-0,001
760,6	-0,001
761,1	-0,001
761,5	-0,001
761,9	-0,001
762,4	-0,001
762,8	-0,001
763,3	-0,001
763,7	-0,001
764,1	-0,001
764,6	-0,001
765	-0,001
765,4	-0,001
765,9	-0,001
766,3	-0,001
766,7	-0,001
767,2	-0,001
767,6	-0,001
768	-0,001
768,5	-0,001
768,9	-0,001
769,3	-0,001
769,8	-0,001
770,2	-0,001
770,6	-0,001
771,1	-0,001
771,5	-0,001
771,9	-0,002
772,4	-0,001
772,8	-0,001
773,2	-0,001
773,7	-0,001
774,1	-0,001
774,5	-0,001
775	0
775,4	-0
775,8	0
776,3	0
776,7	0
777,1	0,001
777,6	0
778	0
778,4	0
778,9	0
779,3	0
779,7	0
780,2	-0
780,6	-0
781	-0
781,5	-0
781,9	-0,001
782,3	-0
782,8	-0,001
783,2	-0,001
783,6	-0,001
784,1	-0
784,5	-0
784,9	-0
785,4	-0
785,8	-0
786,2	0
786,7	0
787,1	0
787,5	0
788	0
788,4	0
788,8	0
789,3	-0
789,7	-0
790,1	-0
790,6	-0,001
791	-0,001
791,4	-0,001
791,9	-0
792,3	0
792,7	-0
793,2	-0
793,6	0
794	0,001
794,5	0
794,9	0,001
795,3	0
795,8	0
796,2	0
796,6	0
797,1	0
797,5	0
797,9	0
798,4	0
798,8	0
799,2	-0
799,7	-0
800,1	0
800,5	0
801	0
801,4	0
801,8	0
802,2	0
802,7	0
803,1	0
803,5	-0
804	-0
804,4	-0
804,8	-0
805,3	-0
805,7	-0
806,1	-0
806,6	0
807	0
807,4	0
807,9	0,001
808,3	0,001
808,7	0
809,2	0
809,6	-0
810	-0
810,4	-0
810,9	-0
811,3	0
811,7	0
812,2	0,001
812,6	0
813	0
813,5	0,001
813,9	0,001
814,3	0,001
814,8	0,001
815,2	0
815,6	0
816,1	0
816,5	0
816,9	-0
817,3	-0
817,8	-0,001
818,2	-0
818,6	-0,001
819,1	-0,001
819,5	-0,001
819,9	-0,001
820,4	-0,001
820,8	-0,001
821,2	-0,001
821,7	-0
822,1	-0
822,5	-0
822,9	-0
823,4	-0
823,8	0
824,2	0
824,7	0
825,1	0
825,5	0
826	0,001
826,4	0,001
826,8	0,001
827,3	0,001
827,7	0,001
828,1	0
828,5	0,001
829	0,001
829,4	0
829,8	0
830,3	-0
830,7	-0
831,1	-0
831,6	-0
832	-0,001
832,4	-0,001
832,8	-0,001
833,3	-0
833,7	-0,001
834,1	-0,001
834,6	-0,001
835	-0,001
835,4	-0
835,8	-0
836,3	-0,001
836,7	-0,001
837,1	-0,001
837,6	-0,001
838	-0,001
838,4	-0,001
838,9	-0,001
839,3	-0,001
839,7	-0,001
840,1	-0,001
840,6	-0,001
841	-0,001
841,4	-0,001
841,9	-0,001
842,3	-0,001
842,7	-0,001
843,1	-0,001
843,6	-0,001
844	-0,001
844,4	-0,001
844,9	-0,001
845,3	-0,001
845,7	-0,001
846,2	-0,001
846,6	-0
847	-0
847,4	-0
847,9	0
848,3	0
848,7	0
849,2	0
849,6	0
850	0
850,4	0
850,9	0
851,3	0
851,7	-0
852,2	0
852,6	0
853	0
853,4	0
853,9	0
854,3	0,001
854,7	0,001
855,2	0,001
855,6	0,001
856	0,001
856,4	0,001
856,9	0,001
857,3	0,001
857,7	0,001
858,2	0
858,6	-0
859	-0
859,4	-0
859,9	-0
860,3	-0,001
860,7	-0,001
861,1	-0,001
861,6	-0
862	-0
862,4	-0
862,9	-0
863,3	0
863,7	0
864,1	0
864,6	0
865	0
865,4	0,001
865,9	0
866,3	0
866,7	0
867,1	-0
867,6	-0
868	-0,001
868,4	-0,001
868,8	-0,001
869,3	-0,001
869,7	-0,001
870,1	-0,001
870,6	-0
871	-0
871,4	-0
871,8	-0
872,3	-0
872,7	-0
873,1	-0
873,5	0
874	-0
874,4	-0
874,8	-0
875,3	-0
875,7	0
876,1	-0
876,5	-0
877	0
877,4	-0
877,8	0
878,2	-0
878,7	-0,001
879,1	-0
879,5	-0
879,9	-0,001
880,4	-0,001
880,8	-0,001
881,2	-0
881,7	-0
882,1	-0
882,5	-0
882,9	-0
883,4	-0,001
883,8	-0,001
884,2	-0,001
884,6	-0,001
885,1	-0,001
885,5	-0,001
885,9	-0,001
886,3	-0,001
886,8	-0,001
887,2	-0,001
887,6	-0,001
888	-0,001
888,5	-0,001
888,9	-0
889,3	0
889,8	0
890,2	0
890,6	0
891	0,001
891,5	0,001
891,9	0
892,3	0
892,7	0
893,2	0
893,6	0
894	-0
894,4	-0
894,9	-0
895,3	-0
895,7	-0,001
896,1	-0,001
896,6	-0,001
897	-0
897,4	-0
897,8	-0
898,3	-0
898,7	-0
899,1	0
899,5	0,001
900	0,001
900,4	0,001
900,8	0,001
901,2	0,001
901,7	0,001
902,1	0,001
902,5	0,001
902,9	0
903,4	0
903,8	0
904,2	0
904,6	-0
905,1	-0,001
905,5	-0,001
905,9	-0,001
906,3	-0,001
906,8	-0,001
907,2	-0,001
907,6	-0,001
908	-0
908,5	-0
908,9	-0
909,3	-0
909,7	-0
910,2	0
910,6	0
911	0
911,4	0
911,9	0
912,3	0
912,7	-0
913,1	-0
913,6	-0
914	-0
914,4	-0
914,8	0
915,3	0
915,7	0
916,1	0
916,5	0
916,9	0
917,4	-0
917,8	-0
918,2	-0,001
918,6	-0,001
919,1	-0,001
919,5	-0
919,9	-0
920,3	-0
920,8	-0
921,2	0
921,6	0
922	-0
922,5	-0
922,9	-0,001
923,3	-0,001
923,7	-0,001
924,2	-0,001
924,6	-0,001
925	-0,001
925,4	-0,001
925,8	-0,001
926,3	-0,001
926,7	-0,001
927,1	-0,001
927,5	-0,001
928	-0,002
928,4	-0,001
928,8	-0,002
929,2	-0,002
929,7	-0,001
930,1	-0,001
930,5	-0,001
930,9	-0,001
931,3	-0,001
931,8	-0,001
932,2	-0,001
932,6	-0
933	-0
933,5	-0
933,9	-0
934,3	0
934,7	0
935,2	-0
935,6	-0
936	-0
936,4	-0
936,8	-0,001
937,3	-0,001
937,7	-0,001
938,1	-0,001
938,5	-0,001
939	-0,001
939,4	-0
939,8	0
940,2	0
940,6	0,001
941,1	0
941,5	0
941,9	-0
942,3	-0
942,8	-0
943,2	-0,001
943,6	-0,001
944	-0,001
944,4	-0,001
944,9	-0,001
945,3	-0,001
945,7	-0,002
946,1	-0,001
946,6	-0,001
947	-0
947,4	-0
947,8	-0,001
948,2	-0,001
948,7	-0,001
949,1	-0,001
949,5	-0,001
949,9	-0,001
950,3	-0,001
950,8	-0,001
951,2	-0,001
951,6	-0,001
952	-0,001
952,5	-0,001
952,9	-0,001
953,3	-0,001
953,7	-0,001
954,1	-0,001
954,6	-0,001
955	-0,001
955,4	-0,001
955,8	-0
956,2	0
956,7	0,001
957,1	0
957,5	0,001
957,9	0,002
958,3	0,001
958,8	0,002
959,2	0,001
959,6	0,001
960	0
960,5	-0
960,9	-0,001
961,3	-0,001
961,7	-0,002
962,1	-0,002
962,6	-0,001
963	-0,001
963,4	-0
963,8	-0
964,2	0
964,7	0
965,1	-0
965,5	-0
965,9	-0,001
966,3	-0,001
966,8	-0,001
967,2	-0,001
967,6	-0,001
968	-0,001
968,4	0
968,9	0,001
969,3	0
969,7	0,001
970,1	0,001
970,5	0,001
971	0,001
971,4	0,001
971,8	0
972,2	0,001
972,6	-0
973,1	0
973,5	0
973,9	-0
974,3	-0
974,7	0
975,2	-0
975,6	0,001
976	0
976,4	0
976,8	0
977,3	-0
977,7	-0
978,1	-0
978,5	-0,001
978,9	-0
979,4	-0
979,8	-0
980,2	0
980,6	0
981	0
981,5	0
981,9	-0
982,3	0
982,7	0
983,1	0
983,6	-0
984	-0,001
984,4	-0
984,8	-0
985,2	-0,001
985,6	-0,001
986,1	-0
986,5	0,001
986,9	0,001
987,3	0,001
987,7	0,001
988,2	0,002
988,6	0,002
989	0,002
989,4	0,001
989,8	0,001
990,3	0,001
990,7	0,001
991,1	0,001
991,5	0,001
991,9	0,001
992,3	0
992,8	-0
993,2	-0
993,6	-0
994	-0,001
994,4	-0
994,9	-0,001
995,3	-0,001
995,7	-0,001
996,1	-0
996,5	0
996,9	0
997,4	0
997,8	-0
998,2	-0,001
998,6	-0,001
999	-0,001
999,5	-0,001
999,9	-0,001
1000,3	-0,001
1000,7	-0,001
1001,1	-0,001
1001,5	-0,001
1002	-0,001
1002,4	-0,001
1002,8	-0,002
1003,2	-0,002
1003,6	-0,002
1004	-0,002
1004,5	-0,001
1004,9	-0,001
1005,3	-0,001
1005,7	-0,001
1006,1	-0
1006,6	-0
1007	-0
1007,4	-0
1007,8	-0,001
1008,2	0
1008,6	-0
1009,1	-0,001
1009,5	-0
1009,9	-0
1010,3	-0
1010,7	-0
1011,1	-0,001
1011,6	-0
1012	-0
1012,4	-0
1012,8	0
1013,2	-0
1013,6	-0
1014,1	-0,001
1014,5	-0,001
1014,9	-0
1015,3	-0,001
1015,7	-0,001
1016,1	-0,001
1016,6	-0,001
1017	-0
1017,4	-0,001
1017,8	-0,001
1018,2	-0
1018,6	-0,001
1019,1	-0,001
1019,5	-0,001
1019,9	-0,001
1020,3	-0,001
1020,7	-0,001
1021,1	-0,001
1021,6	-0,001
1022	-0,001
1022,4	-0,002
1022,8	-0,002
1023,2	-0,002
1023,6	-0,001
1024,1	-0,001
1024,5	-0,001
1024,9	-0,001
1025,3	-0,001
1025,7	-0,001
1026,1	-0,001
1026,6	-0,001
1027	-0,001
1027,4	-0,001
1027,8	-0,001
1028,2	-0,001
1028,6	-0,001
1029	-0,001
1029,5	-0,001
1029,9	-0,001
1030,3	-0,001
1030,7	-0
1031,1	-0
1031,5	-0
1032	-0
1032,4	-0,001
1032,8	-0,002
1033,2	-0,001
1033,6	-0,001
1034	-0,001
1034,4	-0,002
1034,9	-0,002
1035,3	-0,002
1035,7	-0,001
1036,1	-0,001
1036,5	-0,001
1036,9	-0,001
1037,4	-0
1037,8	0
1038,2	0,001
1038,6	0,001
1039	0
1039,4	0,001
1039,8	0
1040,3	0
1040,7	-0
1041,1	-0
1041,5	-0
1041,9	-0
1042,3	-0,001
1042,7	-0,001
1043,2	-0,001
1043,6	-0,001
1044	-0,001
1044,4	-0,001
1044,8	-0,001
1045,2	-0,001
1045,6	-0
1046,1	-0,001
1046,5	-0
1046,9	0
1047,3	-0
1047,7	0,001
1048,1	0,001
1048,5	0,001
1049	0,001
1049,4	0,001
1049,8	0,001
1050,2	0,001
1050,6	0,001
1051	0,001
1051,4	0,001
1051,9	0,001
1052,3	0
1052,7	-0
1053,1	-0,001
1053,5	-0,002
1053,9	-0,002
1054,3	-0,001
1054,8	-0,001
1055,2	-0
1055,6	0
1056	0
1056,4	0,001
1056,8	0,001
1057,2	0,001
1057,6	0,001
1058,1	0,001
1058,5	0,001
1058,9	0,001
1059,3	0,001
1059,7	0,001
1060,1	0
1060,5	0,001
1061	0,001
1061,4	-0
1061,8	-0
1062,2	-0
1062,6	0
1063	0,001
1063,4	0,001
1063,8	0,001
1064,3	0,002
1064,7	0,003
1065,1	0,003
1065,5	0,003
1065,9	0,002
1066,3	0,001
1066,7	0,001
1067,1	0
1067,6	0
1068	0,001
1068,4	0,001
1068,8	0,001
1069,2	0,001
1069,6	0,002
1070	0,002
1070,4	0,001
1070,9	0
1071,3	-0
1071,7	0
1072,1	0,001
1072,5	0,001
1072,9	0,001
1073,3	0,002
1073,7	0,003
1074,2	0,003
1074,6	0,002
1075	0,002
1075,4	0,002
1075,8	0,002
1076,2	0,001
1076,6	0,001
1077	0,001
1077,5	0,001
1077,9	0,001
1078,3	-0
1078,7	-0,001
1079,1	-0,001
1079,5	-0,002
1079,9	-0,002
1080,3	-0,003
1080,7	-0,003
1081,2	-0,003
1081,6	-0,002
1082	-0
1082,4	0,001
1082,8	0,001
1083,2	0,001
1083,6	0,001
1084	0
1084,5	0
1084,9	-0,002
1085,3	-0,002
1085,7	-0,002
1086,1	-0,001
1086,5	-0,002
1086,9	-0
1087,3	-0
1087,7	-0
1088,2	-0,001
1088,6	-0
1089	0
1089,4	0,002
1089,8	0,001
1090,2	-0
1090,6	-0,002
1091	-0,002
1091,4	-0,003
1091,9	-0,003
1092,3	-0,005
1092,7	-0,002
1093,1	-0
1093,5	0,004
1093,9	0,007
1094,3	0,013
1094,7	0,012
1095,1	0,014
1095,5	0,013
1096	0,009
1096,4	0,008
1096,8	0,003
1097,2	0
1097,6	0,002
1098	0,003
1098,4	-0,001
1098,8	0,002
1099,2	0,004
1099,6	0,012
1100,1	0,004
1100,5	0,004
1100,9	-0,001
1101,3	0,004
1101,7	0,005
1102,1	-0,005
1102,5	-0,016
1102,9	-0,004
1103,3	-0,006
1103,7	0,003
1104,2	0,002
1104,6	-0,003
1105	0,012
1105,4	0,022
1105,8	0,022
1106,2	0,017
1106,6	0,013
1107	0,01
1107,4	0,028
1107,8	0,032
1108,3	-0
