Data from Absorbance_00022.txt Node
Date: Thu Aug 10 15:23:29 MSK 2023
User: vat
Spectrometer: MAYP114033
Trigger mode: 0
Integration Time (sec): 8,000000E-3
Scans to average: 10
Electric dark correction enabled: true
Nonlinearity correction enabled: false
Boxcar width: 3
XAxis mode: Wavelengths
Number of Pixels in Spectrum: 2068
>>>>>Begin Spectral Data<<<<<
199,4	-0
199,9	0,337
200,4	0,619
200,8	0,876
201,3	0,996
201,8	0,988
202,2	0,982
202,7	1,01
203,2	1,073
203,6	1,088
204,1	1,1
204,6	1,093
205	1,129
205,5	1,176
206	1,184
206,4	1,183
206,9	1,187
207,4	1,199
207,8	1,227
208,3	1,226
208,8	1,24
209,2	1,245
209,7	1,249
210,2	1,27
210,6	1,289
211,1	1,297
211,5	1,332
212	1,338
212,5	1,353
212,9	1,369
213,4	1,403
213,9	1,407
214,3	1,42
214,8	1,411
215,3	1,424
215,7	1,438
216,2	1,453
216,7	1,457
217,1	1,477
217,6	1,495
218,1	1,515
218,5	1,522
219	1,54
219,5	1,58
219,9	1,587
220,4	1,608
220,9	1,623
221,3	1,641
221,8	1,674
222,3	1,71
222,7	1,701
223,2	1,72
223,6	1,736
224,1	1,744
224,6	1,77
225	1,788
225,5	1,792
226	1,824
226,4	1,85
226,9	1,859
227,4	1,899
227,8	1,899
228,3	1,898
228,8	1,9
229,2	1,897
229,7	1,916
230,2	1,947
230,6	1,945
231,1	1,963
231,5	1,965
232	1,977
232,5	1,978
232,9	1,953
233,4	1,968
233,9	1,983
234,3	1,983
234,8	2,004
235,3	2,023
235,7	2,034
236,2	2,061
236,7	2,039
237,1	2,028
237,6	2,05
238,1	2,057
238,5	2,061
239	2,085
239,4	2,111
239,9	2,134
240,4	2,149
240,8	2,16
241,3	2,148
241,8	2,151
242,2	2,145
242,7	2,128
243,2	2,133
243,6	2,145
244,1	2,147
244,6	2,168
245	2,155
245,5	2,161
245,9	2,162
246,4	2,173
246,9	2,162
247,3	2,167
247,8	2,163
248,3	2,174
248,7	2,178
249,2	2,206
249,7	2,189
250,1	2,204
250,6	2,188
251	2,202
251,5	2,213
252	2,221
252,4	2,23
252,9	2,239
253,4	2,249
253,8	2,283
254,3	2,259
254,8	2,276
255,2	2,265
255,7	2,26
256,1	2,241
256,6	2,242
257,1	2,224
257,5	2,235
258	2,219
258,5	2,242
258,9	2,232
259,4	2,261
259,9	2,276
260,3	2,285
260,8	2,314
261,2	2,318
261,7	2,298
262,2	2,291
262,6	2,284
263,1	2,239
263,6	2,228
264	2,216
264,5	2,203
264,9	2,22
265,4	2,24
265,9	2,23
266,3	2,253
266,8	2,269
267,3	2,258
267,7	2,275
268,2	2,251
268,7	2,23
269,1	2,246
269,6	2,253
270	2,251
270,5	2,248
271	2,238
271,4	2,24
271,9	2,27
272,4	2,249
272,8	2,243
273,3	2,224
273,7	2,24
274,2	2,244
274,7	2,259
275,1	2,235
275,6	2,256
276,1	2,262
276,5	2,29
277	2,265
277,4	2,285
277,9	2,281
278,4	2,288
278,8	2,297
279,3	2,285
279,8	2,256
280,2	2,282
280,7	2,273
281,1	2,292
281,6	2,29
282,1	2,274
282,5	2,291
283	2,303
283,4	2,294
283,9	2,298
284,4	2,284
284,8	2,273
285,3	2,283
285,8	2,263
286,2	2,243
286,7	2,23
287,1	2,199
287,6	2,16
288,1	2,123
288,5	2,066
289	2,027
289,5	1,98
289,9	1,917
290,4	1,873
290,8	1,831
291,3	1,787
291,8	1,75
292,2	1,716
292,7	1,687
293,1	1,666
293,6	1,643
294,1	1,625
294,5	1,607
295	1,588
295,5	1,565
295,9	1,551
296,4	1,534
296,8	1,519
297,3	1,505
297,8	1,494
298,2	1,487
298,7	1,482
299,1	1,471
299,6	1,465
300,1	1,456
300,5	1,447
301	1,441
301,5	1,434
301,9	1,423
302,4	1,415
302,8	1,408
303,3	1,402
303,8	1,394
304,2	1,382
304,7	1,374
305,1	1,368
305,6	1,362
306,1	1,354
306,5	1,344
307	1,335
307,4	1,327
307,9	1,319
308,4	1,311
308,8	1,301
309,3	1,293
309,8	1,284
310,2	1,276
310,7	1,267
311,1	1,255
311,6	1,247
312,1	1,235
312,5	1,224
313	1,214
313,4	1,203
313,9	1,194
314,4	1,185
314,8	1,174
315,3	1,164
315,7	1,154
316,2	1,142
316,7	1,132
317,1	1,121
317,6	1,111
318	1,099
318,5	1,089
319	1,079
319,4	1,069
319,9	1,058
320,3	1,047
320,8	1,036
321,3	1,025
321,7	1,014
322,2	1,003
322,6	0,991
323,1	0,981
323,6	0,97
324	0,959
324,5	0,949
324,9	0,937
325,4	0,927
325,9	0,915
326,3	0,904
326,8	0,895
327,2	0,883
327,7	0,871
328,2	0,861
328,6	0,85
329,1	0,84
329,5	0,828
330	0,816
330,5	0,805
330,9	0,795
331,4	0,784
331,8	0,773
332,3	0,762
332,8	0,752
333,2	0,741
333,7	0,73
334,1	0,72
334,6	0,71
335,1	0,7
335,5	0,69
336	0,68
336,4	0,668
336,9	0,659
337,4	0,648
337,8	0,637
338,3	0,627
338,7	0,617
339,2	0,606
339,7	0,597
340,1	0,587
340,6	0,577
341	0,567
341,5	0,557
342	0,548
342,4	0,539
342,9	0,529
343,3	0,52
343,8	0,511
344,2	0,502
344,7	0,494
345,2	0,485
345,6	0,476
346,1	0,468
346,5	0,461
347	0,453
347,5	0,445
347,9	0,437
348,4	0,429
348,8	0,422
349,3	0,415
349,8	0,407
350,2	0,399
350,7	0,392
351,1	0,384
351,6	0,377
352	0,371
352,5	0,363
353	0,356
353,4	0,35
353,9	0,343
354,3	0,337
354,8	0,331
355,3	0,325
355,7	0,319
356,2	0,313
356,6	0,307
357,1	0,301
357,5	0,296
358	0,29
358,5	0,284
358,9	0,278
359,4	0,273
359,8	0,269
360,3	0,264
360,8	0,26
361,2	0,255
361,7	0,251
362,1	0,246
362,6	0,242
363	0,236
363,5	0,232
364	0,228
364,4	0,224
364,9	0,219
365,3	0,216
365,8	0,212
366,3	0,209
366,7	0,205
367,2	0,202
367,6	0,199
368,1	0,196
368,5	0,193
369	0,19
369,5	0,187
369,9	0,184
370,4	0,18
370,8	0,177
371,3	0,174
371,7	0,171
372,2	0,169
372,7	0,166
373,1	0,163
373,6	0,162
374	0,159
374,5	0,156
374,9	0,154
375,4	0,152
375,9	0,15
376,3	0,148
376,8	0,145
377,2	0,143
377,7	0,141
378,2	0,139
378,6	0,136
379,1	0,134
379,5	0,132
380	0,13
380,4	0,128
380,9	0,126
381,4	0,124
381,8	0,122
382,3	0,121
382,7	0,12
383,2	0,118
383,6	0,116
384,1	0,114
384,6	0,114
385	0,112
385,5	0,11
385,9	0,108
386,4	0,106
386,8	0,104
387,3	0,104
387,7	0,102
388,2	0,101
388,7	0,099
389,1	0,098
389,6	0,097
390	0,096
390,5	0,095
390,9	0,094
391,4	0,092
391,9	0,091
392,3	0,089
392,8	0,088
393,2	0,087
393,7	0,085
394,1	0,084
394,6	0,083
395,1	0,082
395,5	0,08
396	0,079
396,4	0,078
396,9	0,077
397,3	0,076
397,8	0,075
398,2	0,074
398,7	0,073
399,2	0,072
399,6	0,071
400,1	0,069
400,5	0,069
401	0,067
401,4	0,066
401,9	0,065
402,4	0,063
402,8	0,063
403,3	0,062
403,7	0,061
404,2	0,06
404,6	0,059
405,1	0,058
405,5	0,058
406	0,057
406,5	0,056
406,9	0,055
407,4	0,053
407,8	0,053
408,3	0,051
408,7	0,051
409,2	0,05
409,6	0,049
410,1	0,049
410,6	0,048
411	0,048
411,5	0,047
411,9	0,046
412,4	0,045
412,8	0,044
413,3	0,043
413,7	0,043
414,2	0,042
414,7	0,042
415,1	0,04
415,6	0,04
416	0,04
416,5	0,039
416,9	0,038
417,4	0,037
417,8	0,036
418,3	0,036
418,8	0,035
419,2	0,034
419,7	0,034
420,1	0,033
420,6	0,031
421	0,029
421,5	0,029
421,9	0,028
422,4	0,028
422,8	0,027
423,3	0,027
423,8	0,027
424,2	0,027
424,7	0,026
425,1	0,025
425,6	0,025
426	0,024
426,5	0,023
426,9	0,023
427,4	0,022
427,9	0,022
428,3	0,021
428,8	0,021
429,2	0,021
429,7	0,021
430,1	0,021
430,6	0,02
431	0,019
431,5	0,019
431,9	0,019
432,4	0,018
432,8	0,017
433,3	0,016
433,8	0,017
434,2	0,016
434,7	0,016
435,1	0,015
435,6	0,015
436	0,014
436,5	0,015
436,9	0,013
437,4	0,013
437,8	0,013
438,3	0,013
438,8	0,012
439,2	0,012
439,7	0,011
440,1	0,011
440,6	0,011
441	0,011
441,5	0,01
441,9	0,009
442,4	0,009
442,8	0,009
443,3	0,009
443,7	0,008
444,2	0,008
444,7	0,008
445,1	0,009
445,6	0,009
446	0,008
446,5	0,009
446,9	0,009
447,4	0,009
447,8	0,008
448,3	0,008
448,7	0,008
449,2	0,008
449,6	0,008
450,1	0,007
450,6	0,008
451	0,008
451,5	0,008
451,9	0,008
452,4	0,009
452,8	0,008
453,3	0,008
453,7	0,006
454,2	0,006
454,6	0,007
455,1	0,005
455,5	0,005
456	0,005
456,4	0,005
456,9	0,005
457,3	0,006
457,8	0,006
458,3	0,006
458,7	0,006
459,2	0,006
459,6	0,006
460,1	0,006
460,5	0,006
461	0,005
461,4	0,005
461,9	0,005
462,3	0,005
462,8	0,005
463,2	0,004
463,7	0,004
464,1	0,004
464,6	0,004
465	0,005
465,5	0,005
466	0,005
466,4	0,005
466,9	0,005
467,3	0,005
467,8	0,005
468,2	0,005
468,7	0,005
469,1	0,004
469,6	0,004
470	0,004
470,5	0,004
470,9	0,004
471,4	0,004
471,8	0,003
472,3	0,003
472,7	0,003
473,2	0,003
473,6	0,003
474,1	0,002
474,5	0,003
475	0,002
475,4	0,002
475,9	0,002
476,4	0,003
476,8	0,003
477,3	0,003
477,7	0,003
478,2	0,004
478,6	0,004
479,1	0,004
479,5	0,004
480	0,004
480,4	0,004
480,9	0,003
481,3	0,003
481,8	0,003
482,2	0,003
482,7	0,003
483,1	0,003
483,6	0,003
484	0,003
484,5	0,003
484,9	0,003
485,4	0,003
485,8	0,004
486,3	0,003
486,7	0,002
487,2	0,003
487,6	0,003
488,1	0,003
488,5	0,003
489	0,002
489,4	0,004
489,9	0,004
490,4	0,004
490,8	0,003
491,3	0,003
491,7	0,003
492,2	0,003
492,6	0,002
493,1	0,003
493,5	0,003
494	0,003
494,4	0,003
494,9	0,003
495,3	0,004
495,8	0,003
496,2	0,003
496,7	0,003
497,1	0,003
497,6	0,003
498	0,003
498,5	0,002
498,9	0,003
499,4	0,002
499,8	0,002
500,3	0,002
500,7	0,002
501,2	0,002
501,6	0,002
502,1	0,002
502,5	0,002
503	0,003
503,4	0,003
503,9	0,003
504,3	0,003
504,8	0,003
505,2	0,003
505,7	0,003
506,1	0,003
506,6	0,003
507	0,002
507,5	0,003
507,9	0,003
508,4	0,003
508,8	0,002
509,3	0,002
509,7	0,003
510,2	0,003
510,6	0,002
511,1	0,002
511,5	0,002
512	0,003
512,4	0,003
512,9	0,002
513,3	0,002
513,8	0,002
514,2	0,002
514,7	0,002
515,1	0,003
515,6	0,003
516	0,002
516,5	0,002
516,9	0,002
517,4	0,003
517,8	0,003
518,3	0,002
518,7	0,002
519,2	0,002
519,6	0,002
520,1	0,002
520,5	0,002
521	0,002
521,4	0,003
521,9	0,003
522,3	0,003
522,8	0,003
523,2	0,004
523,7	0,004
524,1	0,003
524,6	0,003
525	0,004
525,5	0,003
525,9	0,003
526,4	0,002
526,8	0,002
527,3	0,002
527,7	0,002
528,2	0,001
528,6	0,002
529,1	0,003
529,5	0,003
530	0,003
530,4	0,003
530,9	0,003
531,3	0,004
531,8	0,003
532,2	0,003
532,6	0,004
533,1	0,004
533,5	0,004
534	0,004
534,4	0,004
534,9	0,004
535,3	0,004
535,8	0,004
536,2	0,004
536,7	0,004
537,1	0,004
537,6	0,004
538	0,004
538,5	0,004
538,9	0,003
539,4	0,004
539,8	0,004
540,3	0,004
540,7	0,004
541,2	0,004
541,6	0,004
542,1	0,003
542,5	0,003
543	0,003
543,4	0,003
543,9	0,003
544,3	0,003
544,8	0,003
545,2	0,003
545,7	0,003
546,1	0,003
546,5	0,004
547	0,004
547,4	0,004
547,9	0,004
548,3	0,004
548,8	0,003
549,2	0,003
549,7	0,002
550,1	0,002
550,6	0,002
551	0,002
551,5	0,003
551,9	0,003
552,4	0,003
552,8	0,003
553,3	0,003
553,7	0,003
554,2	0,003
554,6	0,003
555,1	0,003
555,5	0,003
555,9	0,003
556,4	0,004
556,8	0,003
557,3	0,003
557,7	0,003
558,2	0,003
558,6	0,003
559,1	0,002
559,5	0,002
560	0,002
560,4	0,002
560,9	0,002
561,3	0,002
561,8	0,003
562,2	0,003
562,7	0,003
563,1	0,003
563,6	0,003
564	0,003
564,4	0,003
564,9	0,002
565,3	0,002
565,8	0,002
566,2	0,002
566,7	0,002
567,1	0,003
567,6	0,003
568	0,003
568,5	0,003
568,9	0,003
569,4	0,003
569,8	0,002
570,3	0,002
570,7	0,002
571,1	0,002
571,6	0,002
572	0,002
572,5	0,002
572,9	0,003
573,4	0,003
573,8	0,003
574,3	0,003
574,7	0,003
575,2	0,003
575,6	0,003
576,1	0,002
576,5	0,002
576,9	0,002
577,4	0,002
577,8	0,002
578,3	0,002
578,7	0,002
579,2	0,003
579,6	0,003
580,1	0,003
580,5	0,003
581	0,003
581,4	0,003
581,9	0,002
582,3	0,002
582,7	0,002
583,2	0,002
583,6	0,003
584,1	0,003
584,5	0,003
585	0,003
585,4	0,003
585,9	0,003
586,3	0,003
586,8	0,003
587,2	0,003
587,6	0,003
588,1	0,004
588,5	0,004
589	0,004
589,4	0,004
589,9	0,004
590,3	0,003
590,8	0,004
591,2	0,003
591,7	0,004
592,1	0,004
592,5	0,003
593	0,003
593,4	0,003
593,9	0,002
594,3	0,002
594,8	0,002
595,2	0,002
595,7	0,002
596,1	0,002
596,6	0,002
597	0,003
597,4	0,003
597,9	0,003
598,3	0,003
598,8	0,004
599,2	0,003
599,7	0,003
600,1	0,003
600,6	0,003
601	0,003
601,4	0,003
601,9	0,003
602,3	0,003
602,8	0,003
603,2	0,003
603,7	0,002
604,1	0,003
604,6	0,003
605	0,003
605,4	0,003
605,9	0,003
606,3	0,004
606,8	0,004
607,2	0,003
607,7	0,003
608,1	0,003
608,6	0,002
609	0,002
609,4	0,003
609,9	0,003
610,3	0,003
610,8	0,002
611,2	0,002
611,7	0,002
612,1	0,002
612,6	0,002
613	0,002
613,4	0,002
613,9	0,003
614,3	0,002
614,8	0,003
615,2	0,003
615,7	0,003
616,1	0,003
616,6	0,003
617	0,003
617,4	0,003
617,9	0,003
618,3	0,003
618,8	0,003
619,2	0,003
619,7	0,003
620,1	0,003
620,5	0,003
621	0,004
621,4	0,004
621,9	0,004
622,3	0,003
622,8	0,003
623,2	0,003
623,6	0,003
624,1	0,003
624,5	0,003
625	0,003
625,4	0,003
625,9	0,003
626,3	0,003
626,8	0,003
627,2	0,003
627,6	0,003
628,1	0,003
628,5	0,003
629	0,004
629,4	0,003
629,9	0,003
630,3	0,003
630,7	0,003
631,2	0,003
631,6	0,003
632,1	0,003
632,5	0,003
633	0,003
633,4	0,003
633,8	0,004
634,3	0,003
634,7	0,004
635,2	0,003
635,6	0,003
636,1	0,003
636,5	0,003
636,9	0,003
637,4	0,003
637,8	0,003
638,3	0,004
638,7	0,004
639,2	0,004
639,6	0,004
640	0,004
640,5	0,003
640,9	0,004
641,4	0,003
641,8	0,003
642,2	0,003
642,7	0,003
643,1	0,003
643,6	0,003
644	0,003
644,5	0,003
644,9	0,003
645,3	0,003
645,8	0,003
646,2	0,003
646,7	0,003
647,1	0,003
647,6	0,003
648	0,003
648,4	0,003
648,9	0,003
649,3	0,003
649,8	0,003
650,2	0,003
650,6	0,003
651,1	0,003
651,5	0,003
652	0,002
652,4	0,002
652,9	0,002
653,3	0,002
653,7	0,002
654,2	0,002
654,6	0,003
655,1	0,004
655,5	0,002
655,9	0,002
656,4	0,001
656,8	0,003
657,3	0,004
657,7	0,004
658,2	0,004
658,6	0,006
659	0,008
659,5	0,012
659,9	0,009
660,4	0,007
660,8	0,006
661,2	0,005
661,7	0,004
662,1	0,004
662,6	0,003
663	0,003
663,4	0,003
663,9	0,003
664,3	0,003
664,8	0,002
665,2	0,003
665,6	0,003
666,1	0,003
666,5	0,002
667	0,002
667,4	0,002
667,9	0,002
668,3	0,002
668,7	0,002
669,2	0,001
669,6	0,002
670,1	0,002
670,5	0,002
670,9	0,002
671,4	0,002
671,8	0,003
672,3	0,003
672,7	0,003
673,1	0,002
673,6	0,003
674	0,002
674,5	0,003
674,9	0,003
675,3	0,003
675,8	0,003
676,2	0,003
676,7	0,003
677,1	0,003
677,5	0,003
678	0,002
678,4	0,003
678,9	0,003
679,3	0,003
679,7	0,003
680,2	0,003
680,6	0,003
681,1	0,003
681,5	0,003
681,9	0,003
682,4	0,003
682,8	0,003
683,3	0,003
683,7	0,003
684,1	0,002
684,6	0,002
685	0,002
685,5	0,002
685,9	0,002
686,3	0,002
686,8	0,002
687,2	0,003
687,7	0,003
688,1	0,003
688,5	0,003
689	0,003
689,4	0,003
689,9	0,003
690,3	0,003
690,7	0,003
691,2	0,003
691,6	0,003
692	0,003
692,5	0,003
692,9	0,003
693,4	0,003
693,8	0,003
694,2	0,003
694,7	0,003
695,1	0,003
695,6	0,003
696	0,003
696,4	0,003
696,9	0,003
697,3	0,002
697,8	0,002
698,2	0,002
698,6	0,002
699,1	0,002
699,5	0,002
699,9	0,003
700,4	0,003
700,8	0,003
701,3	0,003
701,7	0,003
702,1	0,003
702,6	0,003
703	0,003
703,5	0,002
703,9	0,002
704,3	0,003
704,8	0,003
705,2	0,003
705,6	0,003
706,1	0,003
706,5	0,004
707	0,003
707,4	0,002
707,8	0,002
708,3	0,002
708,7	0,002
709,2	0,002
709,6	0,002
710	0,002
710,5	0,003
710,9	0,003
711,3	0,003
711,8	0,003
712,2	0,003
712,7	0,003
713,1	0,003
713,5	0,003
714	0,003
714,4	0,003
714,8	0,003
715,3	0,003
715,7	0,003
716,2	0,003
716,6	0,003
717	0,003
717,5	0,003
717,9	0,003
718,3	0,003
718,8	0,003
719,2	0,003
719,7	0,003
720,1	0,003
720,5	0,003
721	0,003
721,4	0,003
721,8	0,003
722,3	0,003
722,7	0,003
723,2	0,002
723,6	0,002
724	0,002
724,5	0,002
724,9	0,002
725,3	0,002
725,8	0,002
726,2	0,002
726,7	0,003
727,1	0,003
727,5	0,003
728	0,003
728,4	0,002
728,8	0,003
729,3	0,003
729,7	0,002
730,1	0,002
730,6	0,002
731	0,002
731,5	0,002
731,9	0,002
732,3	0,002
732,8	0,002
733,2	0,003
733,6	0,003
734,1	0,003
734,5	0,003
734,9	0,003
735,4	0,003
735,8	0,003
736,3	0,003
736,7	0,003
737,1	0,004
737,6	0,003
738	0,003
738,4	0,003
738,9	0,003
739,3	0,003
739,7	0,003
740,2	0,003
740,6	0,003
741,1	0,003
741,5	0,003
741,9	0,002
742,4	0,002
742,8	0,002
743,2	0,002
743,7	0,003
744,1	0,003
744,5	0,003
745	0,003
745,4	0,003
745,8	0,003
746,3	0,003
746,7	0,003
747,2	0,003
747,6	0,002
748	0,002
748,5	0,002
748,9	0,002
749,3	0,002
749,8	0,002
750,2	0,002
750,6	0,002
751,1	0,002
751,5	0,002
751,9	0,002
752,4	0,002
752,8	0,002
753,3	0,003
753,7	0,002
754,1	0,003
754,6	0,002
755	0,002
755,4	0,002
755,9	0,002
756,3	0,002
756,7	0,002
757,2	0,001
757,6	0,002
758	0,002
758,5	0,002
758,9	0,002
759,3	0,002
759,8	0,002
760,2	0,002
760,6	0,002
761,1	0,002
761,5	0,002
761,9	0,002
762,4	0,002
762,8	0,003
763,3	0,002
763,7	0,002
764,1	0,002
764,6	0,002
765	0,001
765,4	0,001
765,9	0,001
766,3	0,001
766,7	0,001
767,2	0,001
767,6	0,001
768	0,001
768,5	0,001
768,9	0,002
769,3	0,001
769,8	0,001
770,2	0,001
770,6	0,001
771,1	0,001
771,5	0,001
771,9	0,001
772,4	0,001
772,8	0,001
773,2	0,001
773,7	0,002
774,1	0,002
774,5	0,002
775	0,002
775,4	0,002
775,8	0,003
776,3	0,003
776,7	0,003
777,1	0,004
777,6	0,003
778	0,003
778,4	0,003
778,9	0,003
779,3	0,003
779,7	0,003
780,2	0,003
780,6	0,003
781	0,003
781,5	0,003
781,9	0,003
782,3	0,003
782,8	0,002
783,2	0,003
783,6	0,002
784,1	0,002
784,5	0,002
784,9	0,003
785,4	0,003
785,8	0,003
786,2	0,003
786,7	0,003
787,1	0,004
787,5	0,004
788	0,003
788,4	0,003
788,8	0,003
789,3	0,002
789,7	0,002
790,1	0,002
790,6	0,002
791	0,002
791,4	0,002
791,9	0,003
792,3	0,003
792,7	0,003
793,2	0,003
793,6	0,003
794	0,003
794,5	0,003
794,9	0,003
795,3	0,003
795,8	0,003
796,2	0,003
796,6	0,003
797,1	0,004
797,5	0,003
797,9	0,003
798,4	0,003
798,8	0,003
799,2	0,003
799,7	0,003
800,1	0,003
800,5	0,003
801	0,003
801,4	0,002
801,8	0,003
802,2	0,003
802,7	0,003
803,1	0,003
803,5	0,003
804	0,003
804,4	0,003
804,8	0,003
805,3	0,003
805,7	0,003
806,1	0,003
806,6	0,003
807	0,003
807,4	0,003
807,9	0,003
808,3	0,003
808,7	0,003
809,2	0,003
809,6	0,002
810	0,002
810,4	0,002
810,9	0,002
811,3	0,002
811,7	0,002
812,2	0,002
812,6	0,002
813	0,002
813,5	0,002
813,9	0,002
814,3	0,002
814,8	0,003
815,2	0,003
815,6	0,002
816,1	0,002
816,5	0,002
816,9	0,002
817,3	0,002
817,8	0,001
818,2	0,001
818,6	0,001
819,1	0,001
819,5	0,002
819,9	0,002
820,4	0,002
820,8	0,002
821,2	0,002
821,7	0,002
822,1	0,002
822,5	0,002
822,9	0,002
823,4	0,002
823,8	0,002
824,2	0,002
824,7	0,003
825,1	0,003
825,5	0,003
826	0,003
826,4	0,003
826,8	0,003
827,3	0,003
827,7	0,004
828,1	0,004
828,5	0,004
829	0,004
829,4	0,003
829,8	0,003
830,3	0,003
830,7	0,003
831,1	0,002
831,6	0,002
832	0,002
832,4	0,002
832,8	0,002
833,3	0,002
833,7	0,002
834,1	0,001
834,6	0,001
835	0,001
835,4	0,001
835,8	0,002
836,3	0,002
836,7	0,002
837,1	0,002
837,6	0,003
838	0,002
838,4	0,002
838,9	0,002
839,3	0,002
839,7	0,002
840,1	0,002
840,6	0,002
841	0,002
841,4	0,002
841,9	0,002
842,3	0,002
842,7	0,002
843,1	0,002
843,6	0,002
844	0,002
844,4	0,002
844,9	0,003
845,3	0,002
845,7	0,002
846,2	0,002
846,6	0,002
847	0,002
847,4	0,002
847,9	0,002
848,3	0,002
848,7	0,002
849,2	0,002
849,6	0,002
850	0,003
850,4	0,003
850,9	0,003
851,3	0,003
851,7	0,003
852,2	0,003
852,6	0,003
853	0,002
853,4	0,002
853,9	0,003
854,3	0,003
854,7	0,003
855,2	0,003
855,6	0,003
856	0,003
856,4	0,003
856,9	0,003
857,3	0,003
857,7	0,003
858,2	0,003
858,6	0,003
859	0,003
859,4	0,003
859,9	0,002
860,3	0,002
860,7	0,002
861,1	0,002
861,6	0,002
862	0,002
862,4	0,002
862,9	0,002
863,3	0,002
863,7	0,002
864,1	0,002
864,6	0,002
865	0,003
865,4	0,002
865,9	0,002
866,3	0,003
866,7	0,003
867,1	0,002
867,6	0,002
868	0,002
868,4	0,001
868,8	0,001
869,3	0,001
869,7	0,001
870,1	0,001
870,6	0,001
871	0,002
871,4	0,002
871,8	0,002
872,3	0,002
872,7	0,002
873,1	0,002
873,5	0,002
874	0,002
874,4	0,002
874,8	0,002
875,3	0,002
875,7	0,002
876,1	0,002
876,5	0,002
877	0,002
877,4	0,002
877,8	0,002
878,2	0,002
878,7	0,002
879,1	0,001
879,5	0,002
879,9	0,002
880,4	0,002
880,8	0,002
881,2	0,002
881,7	0,002
882,1	0,002
882,5	0,002
882,9	0,002
883,4	0,002
883,8	0,002
884,2	0,002
884,6	0,003
885,1	0,002
885,5	0,002
885,9	0,002
886,3	0,002
886,8	0,002
887,2	0,002
887,6	0,002
888	0,002
888,5	0,002
888,9	0,002
889,3	0,002
889,8	0,002
890,2	0,002
890,6	0,002
891	0,002
891,5	0,002
891,9	0,002
892,3	0,002
892,7	0,003
893,2	0,003
893,6	0,002
894	0,003
894,4	0,003
894,9	0,003
895,3	0,002
895,7	0,002
896,1	0,001
896,6	0,002
897	0,002
897,4	0,001
897,8	0,001
898,3	0,001
898,7	0,001
899,1	0,002
899,5	0,001
900	0,001
900,4	0,002
900,8	0,002
901,2	0,002
901,7	0,002
902,1	0,002
902,5	0,002
902,9	0,002
903,4	0,002
903,8	0,003
904,2	0,003
904,6	0,003
905,1	0,003
905,5	0,002
905,9	0,002
906,3	0,002
906,8	0,001
907,2	0,001
907,6	0,002
908	0,002
908,5	0,002
908,9	0,002
909,3	0,002
909,7	0,002
910,2	0,003
910,6	0,003
911	0,003
911,4	0,003
911,9	0,003
912,3	0,003
912,7	0,003
913,1	0,003
913,6	0,002
914	0,002
914,4	0,002
914,8	0,002
915,3	0,002
915,7	0,002
916,1	0,002
916,5	0,003
916,9	0,002
917,4	0,002
917,8	0,002
918,2	0,002
918,6	0,002
919,1	0,001
919,5	0,001
919,9	0,001
920,3	0,001
920,8	0,001
921,2	0,001
921,6	0,001
922	0,001
922,5	0,002
922,9	0,001
923,3	0,002
923,7	0,001
924,2	0,001
924,6	0,001
925	0,001
925,4	0
925,8	0,001
926,3	0,001
926,7	0,001
927,1	0,001
927,5	0,001
928	0,001
928,4	0,002
928,8	0,002
929,2	0,002
929,7	0,002
930,1	0,002
930,5	0,003
930,9	0,003
931,3	0,002
931,8	0,003
932,2	0,003
932,6	0,002
933	0,002
933,5	0,001
933,9	0,001
934,3	0,001
934,7	0,001
935,2	0,001
935,6	0,001
936	0,001
936,4	0,002
936,8	0,002
937,3	0,002
937,7	0,002
938,1	0,003
938,5	0,003
939	0,003
939,4	0,003
939,8	0,003
940,2	0,003
940,6	0,003
941,1	0,003
941,5	0,003
941,9	0,003
942,3	0,002
942,8	0,003
943,2	0,002
943,6	0,002
944	0,002
944,4	0,002
944,9	0,002
945,3	0,002
945,7	0,001
946,1	0,001
946,6	0,001
947	0,001
947,4	0,001
947,8	0,001
948,2	0,001
948,7	0,001
949,1	0,001
949,5	0,001
949,9	0,001
950,3	0,001
950,8	0,002
951,2	0,002
951,6	0,002
952	0,002
952,5	0,002
952,9	0,002
953,3	0,001
953,7	0,001
954,1	0,001
954,6	0,002
955	0,002
955,4	0,001
955,8	0,002
956,2	0,002
956,7	0,002
957,1	0,002
957,5	0,002
957,9	0,003
958,3	0,003
958,8	0,004
959,2	0,004
959,6	0,004
960	0,004
960,5	0,003
960,9	0,003
961,3	0,002
961,7	0,002
962,1	0,001
962,6	0,002
963	0,002
963,4	0,002
963,8	0,003
964,2	0,004
964,7	0,004
965,1	0,004
965,5	0,003
965,9	0,003
966,3	0,003
966,8	0,003
967,2	0,002
967,6	0,002
968	0,003
968,4	0,004
968,9	0,004
969,3	0,003
969,7	0,004
970,1	0,004
970,5	0,004
971	0,004
971,4	0,003
971,8	0,003
972,2	0,004
972,6	0,003
973,1	0,002
973,5	0,003
973,9	0,003
974,3	0,003
974,7	0,003
975,2	0,003
975,6	0,004
976	0,003
976,4	0,002
976,8	0,002
977,3	0,002
977,7	0,001
978,1	0,002
978,5	0,001
978,9	0,002
979,4	0,003
979,8	0,002
980,2	0,003
980,6	0,003
981	0,003
981,5	0,003
981,9	0,002
982,3	0,003
982,7	0,003
983,1	0,003
983,6	0,002
984	0,002
984,4	0,003
984,8	0,003
985,2	0,003
985,6	0,004
986,1	0,004
986,5	0,005
986,9	0,005
987,3	0,005
987,7	0,005
988,2	0,006
988,6	0,005
989	0,005
989,4	0,005
989,8	0,004
990,3	0,004
990,7	0,004
991,1	0,004
991,5	0,004
991,9	0,004
992,3	0,003
992,8	0,003
993,2	0,003
993,6	0,003
994	0,003
994,4	0,003
994,9	0,003
995,3	0,003
995,7	0,003
996,1	0,003
996,5	0,003
996,9	0,003
997,4	0,002
997,8	0,003
998,2	0,002
998,6	0,002
999	0,002
999,5	0,002
999,9	0,002
1000,3	0,002
1000,7	0,002
1001,1	0,003
1001,5	0,002
1002	0,002
1002,4	0,002
1002,8	0,002
1003,2	0,001
1003,6	0
1004	0,001
1004,5	0,001
1004,9	0,001
1005,3	0,001
1005,7	0,001
1006,1	0,002
1006,6	0,002
1007	0,003
1007,4	0,002
1007,8	0,002
1008,2	0,002
1008,6	0,002
1009,1	0,002
1009,5	0,002
1009,9	0,002
1010,3	0,002
1010,7	0,002
1011,1	0,003
1011,6	0,003
1012	0,003
1012,4	0,003
1012,8	0,003
1013,2	0,003
1013,6	0,002
1014,1	0,002
1014,5	0,002
1014,9	0,002
1015,3	0,002
1015,7	0,002
1016,1	0,002
1016,6	0,003
1017	0,002
1017,4	0,002
1017,8	0,002
1018,2	0,002
1018,6	0,003
1019,1	0,003
1019,5	0,003
1019,9	0,003
1020,3	0,003
1020,7	0,003
1021,1	0,003
1021,6	0,002
1022	0,002
1022,4	0,001
1022,8	0,001
1023,2	0,001
1023,6	0,002
1024,1	0,002
1024,5	0,002
1024,9	0,002
1025,3	0,001
1025,7	0,001
1026,1	0,001
1026,6	0,001
1027	0,001
1027,4	0
1027,8	0
1028,2	0
1028,6	0
1029	0
1029,5	0
1029,9	0,001
1030,3	0,001
1030,7	0,002
1031,1	0,002
1031,5	0,002
1032	0,002
1032,4	0,002
1032,8	0,002
1033,2	0,002
1033,6	0,003
1034	0,002
1034,4	0,002
1034,9	0,002
1035,3	0,002
1035,7	0,002
1036,1	0,002
1036,5	0,001
1036,9	0,002
1037,4	0,002
1037,8	0,002
1038,2	0,003
1038,6	0,004
1039	0,004
1039,4	0,004
1039,8	0,004
1040,3	0,004
1040,7	0,004
1041,1	0,004
1041,5	0,003
1041,9	0,003
1042,3	0,003
1042,7	0,002
1043,2	0,002
1043,6	0,002
1044	0,002
1044,4	0,002
1044,8	0,001
1045,2	0
1045,6	0
1046,1	0,001
1046,5	0,001
1046,9	0,001
1047,3	0,001
1047,7	0,002
1048,1	0,003
1048,5	0,003
1049	0,003
1049,4	0,003
1049,8	0,004
1050,2	0,004
1050,6	0,005
1051	0,005
1051,4	0,006
1051,9	0,005
1052,3	0,004
1052,7	0,003
1053,1	0,003
1053,5	0,002
1053,9	0,001
1054,3	0,001
1054,8	0,002
1055,2	0,002
1055,6	0,002
1056	0,002
1056,4	0,003
1056,8	0,003
1057,2	0,004
1057,6	0,004
1058,1	0,004
1058,5	0,003
1058,9	0,004
1059,3	0,003
1059,7	0,003
1060,1	0,001
1060,5	0,002
1061	0,001
1061,4	0,002
1061,8	0,002
1062,2	0,003
1062,6	0,003
1063	0,004
1063,4	0,003
1063,8	0,003
1064,3	0,004
1064,7	0,004
1065,1	0,003
1065,5	0,003
1065,9	0,003
1066,3	0,003
1066,7	0,005
1067,1	0,004
1067,6	0,004
1068	0,006
1068,4	0,005
1068,8	0,005
1069,2	0,004
1069,6	0,004
1070	0,004
1070,4	0,004
1070,9	0,003
1071,3	0,002
1071,7	0,003
1072,1	0,003
1072,5	0,002
1072,9	0,003
1073,3	0,002
1073,7	0,002
1074,2	0,003
1074,6	0,001
1075	0,002
1075,4	0,002
1075,8	0,003
1076,2	0,003
1076,6	0,002
1077	0,002
1077,5	0,002
1077,9	0
1078,3	0,001
1078,7	-0,001
1079,1	-0
1079,5	0,001
1079,9	0,001
1080,3	0,001
1080,7	0,002
1081,2	0,001
1081,6	0,002
1082	0,003
1082,4	0,004
1082,8	0,004
1083,2	0,005
1083,6	0,004
1084	0,005
1084,5	0,004
1084,9	0,002
1085,3	-0
1085,7	0,001
1086,1	0,001
1086,5	-0
1086,9	-0,001
1087,3	0
1087,7	0,001
1088,2	0,002
1088,6	0
1089	0,001
1089,4	0,005
1089,8	0,007
1090,2	0,007
1090,6	0,006
1091	0,006
1091,4	0,008
1091,9	0,007
1092,3	0,006
1092,7	0,007
1093,1	0,007
1093,5	0,012
1093,9	0,015
1094,3	0,017
1094,7	0,018
1095,1	0,018
1095,5	0,012
1096	0,006
1096,4	0,004
1096,8	0,001
1097,2	-0,003
1097,6	-0,003
1098	-0,005
1098,4	-0,003
1098,8	0,002
1099,2	0,003
1099,6	0,008
1100,1	0,004
1100,5	0,003
1100,9	0,001
1101,3	0,003
1101,7	0,007
1102,1	0,003
1102,5	-0,002
1102,9	0,005
1103,3	0,003
1103,7	0,009
1104,2	0,014
1104,6	0,01
1105	0,014
1105,4	0,012
1105,8	0,006
1106,2	-0,002
1106,6	-0
1107	-0,007
1107,4	-0,009
1107,8	-0,03
1108,3	-0
