Data from Absorbance_00016.txt Node
Date: Thu Aug 10 16:18:20 MSK 2023
User: vat
Spectrometer: MAYP114033
Trigger mode: 0
Integration Time (sec): 8,000000E-3
Scans to average: 10
Electric dark correction enabled: true
Nonlinearity correction enabled: false
Boxcar width: 3
XAxis mode: Wavelengths
Number of Pixels in Spectrum: 2068
>>>>>Begin Spectral Data<<<<<
199,4	1,778
199,9	-0,158
200,4	0,325
200,8	0,741
201,3	0,875
201,8	0,953
202,2	1,016
202,7	1,03
203,2	1,088
203,6	1,115
204,1	1,124
204,6	1,136
205	1,151
205,5	1,171
206	1,182
206,4	1,183
206,9	1,207
207,4	1,221
207,8	1,24
208,3	1,247
208,8	1,258
209,2	1,268
209,7	1,286
210,2	1,301
210,6	1,305
211,1	1,334
211,5	1,339
212	1,336
212,5	1,356
212,9	1,375
213,4	1,39
213,9	1,42
214,3	1,424
214,8	1,447
215,3	1,469
215,7	1,483
216,2	1,491
216,7	1,509
217,1	1,517
217,6	1,547
218,1	1,583
218,5	1,588
219	1,604
219,5	1,628
219,9	1,668
220,4	1,705
220,9	1,699
221,3	1,682
221,8	1,687
222,3	1,701
222,7	1,708
223,2	1,702
223,6	1,711
224,1	1,741
224,6	1,76
225	1,795
225,5	1,81
226	1,835
226,4	1,848
226,9	1,856
227,4	1,846
227,8	1,871
228,3	1,899
228,8	1,908
229,2	1,909
229,7	1,91
230,2	1,932
230,6	1,952
231,1	1,952
231,5	1,936
232	1,947
232,5	1,948
232,9	1,968
233,4	1,973
233,9	1,986
234,3	2,001
234,8	2,028
235,3	2,045
235,7	2,076
236,2	2,088
236,7	2,1
237,1	2,096
237,6	2,096
238,1	2,088
238,5	2,098
239	2,093
239,4	2,11
239,9	2,118
240,4	2,114
240,8	2,147
241,3	2,157
241,8	2,154
242,2	2,16
242,7	2,141
243,2	2,14
243,6	2,168
244,1	2,14
244,6	2,146
245	2,166
245,5	2,167
245,9	2,162
246,4	2,157
246,9	2,151
247,3	2,163
247,8	2,169
248,3	2,148
248,7	2,158
249,2	2,184
249,7	2,198
250,1	2,194
250,6	2,195
251	2,193
251,5	2,199
252	2,194
252,4	2,191
252,9	2,171
253,4	2,176
253,8	2,161
254,3	2,157
254,8	2,161
255,2	2,172
255,7	2,165
256,1	2,18
256,6	2,177
257,1	2,193
257,5	2,21
258	2,206
258,5	2,223
258,9	2,263
259,4	2,266
259,9	2,273
260,3	2,298
260,8	2,305
261,2	2,319
261,7	2,307
262,2	2,286
262,6	2,31
263,1	2,328
263,6	2,315
264	2,285
264,5	2,27
264,9	2,27
265,4	2,252
265,9	2,261
266,3	2,25
266,8	2,263
267,3	2,267
267,7	2,26
268,2	2,264
268,7	2,266
269,1	2,244
269,6	2,256
270	2,25
270,5	2,231
271	2,241
271,4	2,226
271,9	2,218
272,4	2,205
272,8	2,197
273,3	2,199
273,7	2,213
274,2	2,214
274,7	2,218
275,1	2,239
275,6	2,233
276,1	2,228
276,5	2,212
277	2,223
277,4	2,214
277,9	2,19
278,4	2,165
278,8	2,156
279,3	2,144
279,8	2,126
280,2	2,104
280,7	2,086
281,1	2,073
281,6	2,049
282,1	2,013
282,5	1,98
283	1,936
283,4	1,896
283,9	1,848
284,4	1,801
284,8	1,757
285,3	1,723
285,8	1,685
286,2	1,658
286,7	1,633
287,1	1,608
287,6	1,586
288,1	1,567
288,5	1,546
289	1,532
289,5	1,513
289,9	1,497
290,4	1,486
290,8	1,477
291,3	1,469
291,8	1,463
292,2	1,458
292,7	1,455
293,1	1,451
293,6	1,448
294,1	1,445
294,5	1,442
295	1,435
295,5	1,432
295,9	1,429
296,4	1,424
296,8	1,422
297,3	1,418
297,8	1,413
298,2	1,412
298,7	1,405
299,1	1,401
299,6	1,398
300,1	1,393
300,5	1,389
301	1,381
301,5	1,378
301,9	1,373
302,4	1,366
302,8	1,361
303,3	1,353
303,8	1,352
304,2	1,349
304,7	1,342
305,1	1,336
305,6	1,33
306,1	1,326
306,5	1,318
307	1,306
307,4	1,297
307,9	1,289
308,4	1,282
308,8	1,276
309,3	1,266
309,8	1,258
310,2	1,249
310,7	1,244
311,1	1,233
311,6	1,224
312,1	1,215
312,5	1,206
313	1,199
313,4	1,187
313,9	1,176
314,4	1,167
314,8	1,156
315,3	1,143
315,7	1,132
316,2	1,12
316,7	1,114
317,1	1,103
317,6	1,094
318	1,083
318,5	1,073
319	1,062
319,4	1,052
319,9	1,039
320,3	1,029
320,8	1,017
321,3	1,006
321,7	0,994
322,2	0,983
322,6	0,972
323,1	0,962
323,6	0,951
324	0,94
324,5	0,928
324,9	0,918
325,4	0,906
325,9	0,895
326,3	0,882
326,8	0,871
327,2	0,858
327,7	0,847
328,2	0,837
328,6	0,826
329,1	0,816
329,5	0,807
330	0,795
330,5	0,786
330,9	0,775
331,4	0,766
331,8	0,755
332,3	0,745
332,8	0,736
333,2	0,726
333,7	0,717
334,1	0,709
334,6	0,698
335,1	0,689
335,5	0,679
336	0,668
336,4	0,658
336,9	0,648
337,4	0,637
337,8	0,628
338,3	0,619
338,7	0,609
339,2	0,6
339,7	0,591
340,1	0,583
340,6	0,575
341	0,565
341,5	0,556
342	0,548
342,4	0,541
342,9	0,533
343,3	0,525
343,8	0,516
344,2	0,508
344,7	0,501
345,2	0,493
345,6	0,484
346,1	0,476
346,5	0,469
347	0,462
347,5	0,456
347,9	0,448
348,4	0,441
348,8	0,435
349,3	0,427
349,8	0,421
350,2	0,414
350,7	0,407
351,1	0,402
351,6	0,396
352	0,391
352,5	0,384
353	0,378
353,4	0,373
353,9	0,366
354,3	0,36
354,8	0,354
355,3	0,348
355,7	0,344
356,2	0,339
356,6	0,334
357,1	0,329
357,5	0,325
358	0,32
358,5	0,315
358,9	0,31
359,4	0,304
359,8	0,299
360,3	0,295
360,8	0,291
361,2	0,286
361,7	0,282
362,1	0,278
362,6	0,275
363	0,271
363,5	0,267
364	0,263
364,4	0,26
364,9	0,256
365,3	0,252
365,8	0,247
366,3	0,244
366,7	0,24
367,2	0,237
367,6	0,233
368,1	0,23
368,5	0,227
369	0,224
369,5	0,221
369,9	0,218
370,4	0,216
370,8	0,213
371,3	0,21
371,7	0,207
372,2	0,204
372,7	0,2
373,1	0,197
373,6	0,193
374	0,19
374,5	0,187
374,9	0,184
375,4	0,182
375,9	0,18
376,3	0,177
376,8	0,175
377,2	0,172
377,7	0,17
378,2	0,168
378,6	0,165
379,1	0,162
379,5	0,16
380	0,159
380,4	0,156
380,9	0,154
381,4	0,153
381,8	0,15
382,3	0,148
382,7	0,147
383,2	0,145
383,6	0,143
384,1	0,141
384,6	0,138
385	0,137
385,5	0,135
385,9	0,132
386,4	0,13
386,8	0,129
387,3	0,128
387,7	0,126
388,2	0,124
388,7	0,122
389,1	0,121
389,6	0,119
390	0,117
390,5	0,116
390,9	0,114
391,4	0,114
391,9	0,112
392,3	0,111
392,8	0,11
393,2	0,108
393,7	0,106
394,1	0,105
394,6	0,104
395,1	0,102
395,5	0,101
396	0,1
396,4	0,099
396,9	0,098
397,3	0,096
397,8	0,095
398,2	0,094
398,7	0,094
399,2	0,093
399,6	0,091
400,1	0,09
400,5	0,089
401	0,087
401,4	0,086
401,9	0,084
402,4	0,083
402,8	0,082
403,3	0,081
403,7	0,08
404,2	0,08
404,6	0,079
405,1	0,078
405,5	0,078
406	0,076
406,5	0,076
406,9	0,075
407,4	0,073
407,8	0,072
408,3	0,07
408,7	0,07
409,2	0,069
409,6	0,068
410,1	0,067
410,6	0,067
411	0,066
411,5	0,065
411,9	0,064
412,4	0,064
412,8	0,063
413,3	0,062
413,7	0,061
414,2	0,061
414,7	0,06
415,1	0,059
415,6	0,058
416	0,057
416,5	0,056
416,9	0,055
417,4	0,054
417,8	0,053
418,3	0,052
418,8	0,051
419,2	0,05
419,7	0,05
420,1	0,049
420,6	0,048
421	0,048
421,5	0,047
421,9	0,046
422,4	0,046
422,8	0,045
423,3	0,044
423,8	0,044
424,2	0,043
424,7	0,042
425,1	0,042
425,6	0,04
426	0,04
426,5	0,039
426,9	0,039
427,4	0,039
427,9	0,038
428,3	0,037
428,8	0,037
429,2	0,036
429,7	0,036
430,1	0,035
430,6	0,035
431	0,035
431,5	0,034
431,9	0,033
432,4	0,032
432,8	0,031
433,3	0,03
433,8	0,029
434,2	0,029
434,7	0,029
435,1	0,029
435,6	0,028
436	0,028
436,5	0,027
436,9	0,026
437,4	0,026
437,8	0,026
438,3	0,025
438,8	0,024
439,2	0,024
439,7	0,024
440,1	0,023
440,6	0,022
441	0,021
441,5	0,021
441,9	0,021
442,4	0,02
442,8	0,02
443,3	0,02
443,7	0,02
444,2	0,02
444,7	0,019
445,1	0,019
445,6	0,019
446	0,019
446,5	0,018
446,9	0,018
447,4	0,017
447,8	0,017
448,3	0,017
448,7	0,017
449,2	0,017
449,6	0,017
450,1	0,017
450,6	0,017
451	0,016
451,5	0,016
451,9	0,016
452,4	0,015
452,8	0,015
453,3	0,015
453,7	0,014
454,2	0,014
454,6	0,014
455,1	0,013
455,5	0,013
456	0,013
456,4	0,013
456,9	0,012
457,3	0,012
457,8	0,012
458,3	0,011
458,7	0,01
459,2	0,01
459,6	0,009
460,1	0,009
460,5	0,01
461	0,009
461,4	0,009
461,9	0,009
462,3	0,008
462,8	0,008
463,2	0,009
463,7	0,008
464,1	0,007
464,6	0,007
465	0,008
465,5	0,007
466	0,008
466,4	0,008
466,9	0,007
467,3	0,008
467,8	0,008
468,2	0,008
468,7	0,008
469,1	0,008
469,6	0,008
470	0,008
470,5	0,008
470,9	0,007
471,4	0,007
471,8	0,007
472,3	0,007
472,7	0,006
473,2	0,006
473,6	0,005
474,1	0,005
474,5	0,005
475	0,005
475,4	0,005
475,9	0,004
476,4	0,005
476,8	0,005
477,3	0,005
477,7	0,005
478,2	0,005
478,6	0,004
479,1	0,004
479,5	0,004
480	0,003
480,4	0,004
480,9	0,003
481,3	0,003
481,8	0,004
482,2	0,003
482,7	0,003
483,1	0,004
483,6	0,003
484	0,003
484,5	0,003
484,9	0,003
485,4	0,003
485,8	0,003
486,3	0,002
486,7	0,002
487,2	0,002
487,6	0,003
488,1	0,002
488,5	0,002
489	0,003
489,4	0,004
489,9	0,003
490,4	0,003
490,8	0,002
491,3	0,002
491,7	0,001
492,2	0,001
492,6	0,001
493,1	0,002
493,5	0,002
494	0,001
494,4	0,002
494,9	0,002
495,3	0,002
495,8	0,002
496,2	0,001
496,7	0,001
497,1	0,001
497,6	0,001
498	0,001
498,5	0,001
498,9	0,002
499,4	0,003
499,8	0,003
500,3	0,003
500,7	0,003
501,2	0,002
501,6	0,002
502,1	0,002
502,5	0,002
503	0,001
503,4	0,001
503,9	0,001
504,3	0,002
504,8	0,002
505,2	0,001
505,7	0,002
506,1	0,001
506,6	0,002
507	0,002
507,5	0,001
507,9	0,001
508,4	0,001
508,8	0,001
509,3	0,001
509,7	0
510,2	0
510,6	0
511,1	0,001
511,5	0
512	-0
512,4	-0
512,9	-0
513,3	-0,001
513,8	-0
514,2	-0,001
514,7	-0
515,1	-0
515,6	0
516	0
516,5	0,001
516,9	-0
517,4	-0
517,8	-0
518,3	-0
518,7	-0,001
519,2	-0,001
519,6	-0,001
520,1	-0,001
520,5	-0,001
521	-0
521,4	-0
521,9	0
522,3	0
522,8	0
523,2	0
523,7	-0
524,1	-0
524,6	-0,001
525	-0,001
525,5	-0,001
525,9	-0
526,4	-0
526,8	-0
527,3	-0
527,7	0
528,2	0
528,6	-0
529,1	-0,001
529,5	-0,001
530	-0,001
530,4	-0,001
530,9	-0,001
531,3	-0,001
531,8	-0,001
532,2	-0
532,6	0
533,1	-0
533,5	-0
534	-0,001
534,4	-0,001
534,9	-0,001
535,3	-0,001
535,8	-0,002
536,2	-0,002
536,7	-0,001
537,1	-0,001
537,6	-0,001
538	-0,001
538,5	-0,001
538,9	-0,001
539,4	-0,001
539,8	-0,001
540,3	-0,001
540,7	-0,002
541,2	-0,001
541,6	-0,001
542,1	-0
542,5	0
543	0
543,4	0
543,9	0,001
544,3	0
544,8	-0
545,2	-0
545,7	-0,001
546,1	-0,001
546,5	-0,002
547	-0,002
547,4	-0,001
547,9	-0,001
548,3	-0,002
548,8	-0,001
549,2	-0,001
549,7	-0,001
550,1	-0,001
550,6	-0,001
551	-0,001
551,5	-0,001
551,9	-0,001
552,4	-0
552,8	-0,001
553,3	-0
553,7	-0
554,2	-0
554,6	0
555,1	0
555,5	-0
555,9	0
556,4	0
556,8	0
557,3	-0
557,7	-0
558,2	-0,001
558,6	-0,001
559,1	-0,001
559,5	-0,001
560	-0,001
560,4	-0,001
560,9	-0,001
561,3	-0,002
561,8	-0,002
562,2	-0,002
562,7	-0,002
563,1	-0,002
563,6	-0,001
564	-0,001
564,4	-0,001
564,9	-0,001
565,3	-0,001
565,8	-0,002
566,2	-0,001
566,7	-0,001
567,1	-0,002
567,6	-0,002
568	-0,001
568,5	-0,002
568,9	-0,002
569,4	-0,002
569,8	-0,002
570,3	-0,002
570,7	-0,001
571,1	-0,002
571,6	-0,001
572	-0,001
572,5	-0,001
572,9	-0,001
573,4	-0,002
573,8	-0,002
574,3	-0,002
574,7	-0,002
575,2	-0,002
575,6	-0,002
576,1	-0,002
576,5	-0,002
576,9	-0,002
577,4	-0,001
577,8	-0,001
578,3	-0,001
578,7	-0,001
579,2	-0,001
579,6	-0,001
580,1	-0,001
580,5	-0,001
581	-0,001
581,4	-0,001
581,9	-0,001
582,3	-0,001
582,7	-0,001
583,2	-0,001
583,6	-0,001
584,1	-0,001
584,5	-0,001
585	-0,001
585,4	-0,001
585,9	-0,001
586,3	-0,001
586,8	-0,001
587,2	-0,001
587,6	-0,001
588,1	-0,001
588,5	-0,001
589	-0,001
589,4	-0,002
589,9	-0,002
590,3	-0,002
590,8	-0,001
591,2	-0,002
591,7	-0,002
592,1	-0,001
592,5	-0,001
593	-0,002
593,4	-0,002
593,9	-0,002
594,3	-0,001
594,8	-0,001
595,2	-0,001
595,7	-0,001
596,1	-0,001
596,6	-0,001
597	-0,001
597,4	-0,001
597,9	-0,001
598,3	-0,001
598,8	-0,001
599,2	-0,001
599,7	-0,001
600,1	-0,001
600,6	-0,002
601	-0,002
601,4	-0,002
601,9	-0,002
602,3	-0,002
602,8	-0,002
603,2	-0,002
603,7	-0,002
604,1	-0,002
604,6	-0,002
605	-0,002
605,4	-0,002
605,9	-0,002
606,3	-0,002
606,8	-0,002
607,2	-0,002
607,7	-0,001
608,1	-0,002
608,6	-0,001
609	-0,002
609,4	-0,002
609,9	-0,001
610,3	-0,002
610,8	-0,002
611,2	-0,002
611,7	-0,001
612,1	-0,001
612,6	-0,001
613	-0,001
613,4	-0,001
613,9	-0,001
614,3	-0,002
614,8	-0,002
615,2	-0,002
615,7	-0,001
616,1	-0,001
616,6	-0,001
617	-0,001
617,4	-0,001
617,9	-0,001
618,3	-0,001
618,8	-0,001
619,2	-0,002
619,7	-0,002
620,1	-0,001
620,5	-0,001
621	-0,002
621,4	-0,002
621,9	-0,002
622,3	-0,002
622,8	-0,002
623,2	-0,002
623,6	-0,002
624,1	-0,002
624,5	-0,002
625	-0,002
625,4	-0,002
625,9	-0,001
626,3	-0,001
626,8	-0,002
627,2	-0,002
627,6	-0,002
628,1	-0,002
628,5	-0,002
629	-0,003
629,4	-0,003
629,9	-0,003
630,3	-0,003
630,7	-0,002
631,2	-0,003
631,6	-0,003
632,1	-0,003
632,5	-0,002
633	-0,002
633,4	-0,002
633,8	-0,002
634,3	-0,002
634,7	-0,002
635,2	-0,002
635,6	-0,002
636,1	-0,002
636,5	-0,002
636,9	-0,002
637,4	-0,002
637,8	-0,002
638,3	-0,002
638,7	-0,002
639,2	-0,002
639,6	-0,002
640	-0,003
640,5	-0,003
640,9	-0,003
641,4	-0,003
641,8	-0,003
642,2	-0,003
642,7	-0,002
643,1	-0,002
643,6	-0,002
644	-0,002
644,5	-0,002
644,9	-0,002
645,3	-0,001
645,8	-0,001
646,2	-0,001
646,7	-0,001
647,1	-0,001
647,6	-0,001
648	-0
648,4	-0,001
648,9	-0,001
649,3	-0
649,8	-0,001
650,2	-0,001
650,6	-0,001
651,1	-0,001
651,5	-0,001
652	-0,001
652,4	-0,002
652,9	-0,002
653,3	-0,002
653,7	-0,002
654,2	-0,002
654,6	-0,002
655,1	-0,002
655,5	-0,001
655,9	-0,001
656,4	-0,001
656,8	-0
657,3	0
657,7	0
658,2	0,001
658,6	0,001
659	0,001
659,5	0,002
659,9	0
660,4	-0
660,8	-0,001
661,2	-0,001
661,7	-0,001
662,1	-0,001
662,6	-0,001
663	-0,002
663,4	-0,002
663,9	-0,002
664,3	-0,002
664,8	-0,002
665,2	-0,001
665,6	-0,002
666,1	-0,001
666,5	-0,002
667	-0,001
667,4	-0,001
667,9	-0,001
668,3	-0,001
668,7	-0,001
669,2	-0,002
669,6	-0,001
670,1	-0,001
670,5	-0,001
670,9	-0,002
671,4	-0,002
671,8	-0,003
672,3	-0,002
672,7	-0,003
673,1	-0,003
673,6	-0,003
674	-0,003
674,5	-0,002
674,9	-0,002
675,3	-0,002
675,8	-0,002
676,2	-0,002
676,7	-0,003
677,1	-0,002
677,5	-0,002
678	-0,003
678,4	-0,002
678,9	-0,002
679,3	-0,001
679,7	-0,001
680,2	-0,001
680,6	-0,001
681,1	-0,001
681,5	-0,001
681,9	-0,002
682,4	-0,003
682,8	-0,003
683,3	-0,003
683,7	-0,003
684,1	-0,003
684,6	-0,002
685	-0,002
685,5	-0,002
685,9	-0,002
686,3	-0,002
686,8	-0,002
687,2	-0,002
687,7	-0,002
688,1	-0,002
688,5	-0,002
689	-0,002
689,4	-0,002
689,9	-0,001
690,3	-0,001
690,7	-0,001
691,2	-0,001
691,6	-0,002
692	-0,002
692,5	-0,002
692,9	-0,002
693,4	-0,003
693,8	-0,003
694,2	-0,002
694,7	-0,002
695,1	-0,002
695,6	-0,002
696	-0,002
696,4	-0,003
696,9	-0,003
697,3	-0,003
697,8	-0,003
698,2	-0,002
698,6	-0,002
699,1	-0,002
699,5	-0,001
699,9	-0,002
700,4	-0,002
700,8	-0,002
701,3	-0,002
701,7	-0,002
702,1	-0,002
702,6	-0,002
703	-0,002
703,5	-0,002
703,9	-0,002
704,3	-0,002
704,8	-0,002
705,2	-0,002
705,6	-0,002
706,1	-0,001
706,5	-0,001
707	-0,001
707,4	-0,001
707,8	-0,001
708,3	-0,001
708,7	-0,001
709,2	-0,001
709,6	-0,001
710	-0,001
710,5	-0,001
710,9	-0,001
711,3	-0,001
711,8	-0,001
712,2	-0,001
712,7	-0,001
713,1	-0,001
713,5	-0,001
714	-0,002
714,4	-0,002
714,8	-0,002
715,3	-0,002
715,7	-0,002
716,2	-0,002
716,6	-0,002
717	-0,001
717,5	-0,001
717,9	-0,001
718,3	-0,001
718,8	-0,001
719,2	-0,002
719,7	-0,001
720,1	-0,001
720,5	-0,002
721	-0,001
721,4	-0,001
721,8	-0,001
722,3	-0,001
722,7	-0,001
723,2	-0,001
723,6	-0,001
724	-0,001
724,5	-0,001
724,9	-0,001
725,3	-0,001
725,8	-0,002
726,2	-0,002
726,7	-0,002
727,1	-0,001
727,5	-0,001
728	-0,002
728,4	-0,002
728,8	-0,002
729,3	-0,002
729,7	-0,002
730,1	-0,003
730,6	-0,003
731	-0,003
731,5	-0,002
731,9	-0,003
732,3	-0,003
732,8	-0,002
733,2	-0,002
733,6	-0,002
734,1	-0,002
734,5	-0,002
734,9	-0,002
735,4	-0,002
735,8	-0,002
736,3	-0,002
736,7	-0,002
737,1	-0,002
737,6	-0,002
738	-0,002
738,4	-0,002
738,9	-0,002
739,3	-0,002
739,7	-0,003
740,2	-0,003
740,6	-0,003
741,1	-0,002
741,5	-0,002
741,9	-0,002
742,4	-0,002
742,8	-0,002
743,2	-0,001
743,7	-0,001
744,1	-0,002
744,5	-0,002
745	-0,002
745,4	-0,001
745,8	-0,001
746,3	-0,001
746,7	-0,001
747,2	-0,001
747,6	-0,001
748	-0,001
748,5	-0,001
748,9	-0,001
749,3	-0,001
749,8	-0,001
750,2	-0,001
750,6	-0,002
751,1	-0,002
751,5	-0,002
751,9	-0,002
752,4	-0,002
752,8	-0,002
753,3	-0,002
753,7	-0,002
754,1	-0,002
754,6	-0,003
755	-0,003
755,4	-0,003
755,9	-0,003
756,3	-0,003
756,7	-0,002
757,2	-0,002
757,6	-0,002
758	-0,002
758,5	-0,002
758,9	-0,002
759,3	-0,002
759,8	-0,002
760,2	-0,002
760,6	-0,002
761,1	-0,003
761,5	-0,003
761,9	-0,003
762,4	-0,003
762,8	-0,003
763,3	-0,003
763,7	-0,003
764,1	-0,003
764,6	-0,003
765	-0,003
765,4	-0,002
765,9	-0,002
766,3	-0,002
766,7	-0,002
767,2	-0,002
767,6	-0,001
768	-0,001
768,5	-0,001
768,9	-0,002
769,3	-0,001
769,8	-0,001
770,2	-0,002
770,6	-0,001
771,1	-0,001
771,5	-0,001
771,9	-0,001
772,4	-0,001
772,8	-0,001
773,2	-0,001
773,7	-0,002
774,1	-0,001
774,5	-0,002
775	-0,002
775,4	-0,002
775,8	-0,002
776,3	-0,001
776,7	-0,002
777,1	-0,002
777,6	-0,002
778	-0,002
778,4	-0,002
778,9	-0,002
779,3	-0,002
779,7	-0,002
780,2	-0,002
780,6	-0,002
781	-0,002
781,5	-0,002
781,9	-0,002
782,3	-0,002
782,8	-0,002
783,2	-0,003
783,6	-0,003
784,1	-0,003
784,5	-0,003
784,9	-0,003
785,4	-0,003
785,8	-0,003
786,2	-0,002
786,7	-0,002
787,1	-0,002
787,5	-0,003
788	-0,003
788,4	-0,003
788,8	-0,003
789,3	-0,003
789,7	-0,003
790,1	-0,002
790,6	-0,002
791	-0,001
791,4	-0,001
791,9	-0,001
792,3	-0,001
792,7	-0,001
793,2	-0,001
793,6	-0,001
794	-0,001
794,5	-0,001
794,9	-0,002
795,3	-0,002
795,8	-0,002
796,2	-0,002
796,6	-0,002
797,1	-0,002
797,5	-0,002
797,9	-0,002
798,4	-0,002
798,8	-0,002
799,2	-0,002
799,7	-0,002
800,1	-0,002
800,5	-0,002
801	-0,002
801,4	-0,002
801,8	-0,001
802,2	-0,001
802,7	-0,001
803,1	-0,001
803,5	-0,001
804	-0,001
804,4	-0,001
804,8	-0,001
805,3	-0,002
805,7	-0,002
806,1	-0,002
806,6	-0,002
807	-0,002
807,4	-0,002
807,9	-0,001
808,3	-0,001
808,7	-0,001
809,2	-0
809,6	-0,001
810	-0,001
810,4	-0,001
810,9	-0,001
811,3	-0,001
811,7	-0,001
812,2	-0,001
812,6	-0,001
813	-0,001
813,5	-0,002
813,9	-0,002
814,3	-0,002
814,8	-0,002
815,2	-0,003
815,6	-0,003
816,1	-0,003
816,5	-0,003
816,9	-0,003
817,3	-0,003
817,8	-0,003
818,2	-0,003
818,6	-0,003
819,1	-0,003
819,5	-0,003
819,9	-0,003
820,4	-0,003
820,8	-0,003
821,2	-0,003
821,7	-0,003
822,1	-0,003
822,5	-0,003
822,9	-0,003
823,4	-0,002
823,8	-0,002
824,2	-0,002
824,7	-0,002
825,1	-0,002
825,5	-0,002
826	-0,002
826,4	-0,002
826,8	-0,002
827,3	-0,002
827,7	-0,002
828,1	-0,002
828,5	-0,002
829	-0,002
829,4	-0,002
829,8	-0,001
830,3	-0,002
830,7	-0,002
831,1	-0,001
831,6	-0,002
832	-0,001
832,4	-0,001
832,8	-0,002
833,3	-0,001
833,7	-0,001
834,1	-0,001
834,6	-0,001
835	-0,001
835,4	-0,001
835,8	-0,001
836,3	-0,001
836,7	-0,001
837,1	-0,001
837,6	-0,001
838	-0,002
838,4	-0,002
838,9	-0,001
839,3	-0,002
839,7	-0,002
840,1	-0,003
840,6	-0,003
841	-0,003
841,4	-0,003
841,9	-0,003
842,3	-0,003
842,7	-0,003
843,1	-0,003
843,6	-0,003
844	-0,003
844,4	-0,002
844,9	-0,002
845,3	-0,002
845,7	-0,002
846,2	-0,002
846,6	-0,002
847	-0,002
847,4	-0,002
847,9	-0,002
848,3	-0,002
848,7	-0,002
849,2	-0,002
849,6	-0,002
850	-0,002
850,4	-0,002
850,9	-0,002
851,3	-0,002
851,7	-0,002
852,2	-0,002
852,6	-0,002
853	-0,002
853,4	-0,002
853,9	-0,002
854,3	-0,001
854,7	-0,001
855,2	-0,001
855,6	-0,002
856	-0,002
856,4	-0,002
856,9	-0,002
857,3	-0,002
857,7	-0,002
858,2	-0,002
858,6	-0,002
859	-0,002
859,4	-0,002
859,9	-0,002
860,3	-0,002
860,7	-0,002
861,1	-0,002
861,6	-0,001
862	-0,001
862,4	-0,001
862,9	-0,001
863,3	-0,001
863,7	-0,001
864,1	-0,001
864,6	-0,001
865	-0,001
865,4	-0,001
865,9	-0,001
866,3	-0,001
866,7	-0,002
867,1	-0,002
867,6	-0,002
868	-0,002
868,4	-0,002
868,8	-0,002
869,3	-0,002
869,7	-0,001
870,1	-0,001
870,6	-0,001
871	-0,001
871,4	-0,001
871,8	-0,001
872,3	-0,001
872,7	-0,001
873,1	-0,001
873,5	-0,001
874	-0,001
874,4	-0,001
874,8	-0,001
875,3	-0,002
875,7	-0,001
876,1	-0,001
876,5	-0,002
877	-0,002
877,4	-0,002
877,8	-0,002
878,2	-0,002
878,7	-0,002
879,1	-0,002
879,5	-0,002
879,9	-0,001
880,4	-0,001
880,8	-0,001
881,2	-0,001
881,7	-0,001
882,1	-0,002
882,5	-0,002
882,9	-0,002
883,4	-0,002
883,8	-0,002
884,2	-0,002
884,6	-0,002
885,1	-0,002
885,5	-0,003
885,9	-0,002
886,3	-0,002
886,8	-0,002
887,2	-0,002
887,6	-0,001
888	-0,002
888,5	-0,002
888,9	-0,002
889,3	-0,002
889,8	-0,002
890,2	-0,002
890,6	-0,002
891	-0,002
891,5	-0,002
891,9	-0,002
892,3	-0,002
892,7	-0,002
893,2	-0,002
893,6	-0,002
894	-0,002
894,4	-0,001
894,9	-0,001
895,3	-0,001
895,7	-0,001
896,1	-0,001
896,6	-0,001
897	-0,001
897,4	-0,001
897,8	-0,001
898,3	-0,002
898,7	-0,002
899,1	-0,002
899,5	-0,002
900	-0,002
900,4	-0,002
900,8	-0,002
901,2	-0,002
901,7	-0,003
902,1	-0,003
902,5	-0,003
902,9	-0,003
903,4	-0,003
903,8	-0,003
904,2	-0,003
904,6	-0,003
905,1	-0,003
905,5	-0,003
905,9	-0,002
906,3	-0,002
906,8	-0,002
907,2	-0,002
907,6	-0,002
908	-0,002
908,5	-0,002
908,9	-0,002
909,3	-0,002
909,7	-0,002
910,2	-0,002
910,6	-0,002
911	-0,002
911,4	-0,002
911,9	-0,002
912,3	-0,003
912,7	-0,003
913,1	-0,003
913,6	-0,002
914	-0,002
914,4	-0,002
914,8	-0,002
915,3	-0,002
915,7	-0,002
916,1	-0,002
916,5	-0,002
916,9	-0,002
917,4	-0,002
917,8	-0,002
918,2	-0,002
918,6	-0,002
919,1	-0,003
919,5	-0,003
919,9	-0,003
920,3	-0,003
920,8	-0,002
921,2	-0,002
921,6	-0,002
922	-0,002
922,5	-0,001
922,9	-0,002
923,3	-0,002
923,7	-0,003
924,2	-0,003
924,6	-0,003
925	-0,003
925,4	-0,003
925,8	-0,003
926,3	-0,002
926,7	-0,002
927,1	-0,002
927,5	-0,002
928	-0,002
928,4	-0,002
928,8	-0,002
929,2	-0,002
929,7	-0,002
930,1	-0,002
930,5	-0,002
930,9	-0,002
931,3	-0,002
931,8	-0,002
932,2	-0,002
932,6	-0,003
933	-0,003
933,5	-0,003
933,9	-0,003
934,3	-0,004
934,7	-0,004
935,2	-0,004
935,6	-0,004
936	-0,004
936,4	-0,004
936,8	-0,004
937,3	-0,003
937,7	-0,002
938,1	-0,002
938,5	-0,002
939	-0,003
939,4	-0,003
939,8	-0,002
940,2	-0,002
940,6	-0,002
941,1	-0,002
941,5	-0,001
941,9	-0,002
942,3	-0,002
942,8	-0,002
943,2	-0,002
943,6	-0,002
944	-0,002
944,4	-0,002
944,9	-0,002
945,3	-0,002
945,7	-0,002
946,1	-0,001
946,6	-0,001
947	-0,001
947,4	-0,001
947,8	-0
948,2	-0
948,7	-0
949,1	-0
949,5	-0,001
949,9	-0,001
950,3	-0,002
950,8	-0,002
951,2	-0,003
951,6	-0,003
952	-0,003
952,5	-0,003
952,9	-0,003
953,3	-0,003
953,7	-0,003
954,1	-0,003
954,6	-0,004
955	-0,004
955,4	-0,004
955,8	-0,003
956,2	-0,004
956,7	-0,004
957,1	-0,004
957,5	-0,004
957,9	-0,003
958,3	-0,003
958,8	-0,003
959,2	-0,003
959,6	-0,003
960	-0,002
960,5	-0,002
960,9	-0,002
961,3	-0,002
961,7	-0,002
962,1	-0,002
962,6	-0,002
963	-0,003
963,4	-0,002
963,8	-0,002
964,2	-0,002
964,7	-0,002
965,1	-0,001
965,5	-0,001
965,9	-0,001
966,3	-0,001
966,8	-0,001
967,2	-0,001
967,6	-0,001
968	-0,002
968,4	-0,002
968,9	-0,001
969,3	-0,001
969,7	-0,001
970,1	-0,001
970,5	-0,001
971	-0,002
971,4	-0,002
971,8	-0,003
972,2	-0,003
972,6	-0,004
973,1	-0,004
973,5	-0,005
973,9	-0,004
974,3	-0,004
974,7	-0,003
975,2	-0,004
975,6	-0,003
976	-0,003
976,4	-0,003
976,8	-0,002
977,3	-0,002
977,7	-0,002
978,1	-0,001
978,5	-0,002
978,9	-0,002
979,4	-0,001
979,8	-0,002
980,2	-0,003
980,6	-0,003
981	-0,002
981,5	-0,002
981,9	-0,002
982,3	-0,002
982,7	-0,001
983,1	-0,001
983,6	-0,001
984	-0,001
984,4	-0,002
984,8	-0,002
985,2	-0,001
985,6	-0,002
986,1	-0,002
986,5	-0,002
986,9	-0,002
987,3	-0,002
987,7	-0,001
988,2	-0,001
988,6	-0,001
989	-0,001
989,4	-0,002
989,8	-0,002
990,3	-0,003
990,7	-0,003
991,1	-0,002
991,5	-0,003
991,9	-0,003
992,3	-0,002
992,8	-0,003
993,2	-0,002
993,6	-0,003
994	-0,003
994,4	-0,003
994,9	-0,004
995,3	-0,003
995,7	-0,003
996,1	-0,003
996,5	-0,002
996,9	-0,002
997,4	-0,002
997,8	-0,002
998,2	-0,002
998,6	-0,002
999	-0,002
999,5	-0,003
999,9	-0,002
1000,3	-0,002
1000,7	-0,002
1001,1	-0,003
1001,5	-0,003
1002	-0,004
1002,4	-0,004
1002,8	-0,004
1003,2	-0,004
1003,6	-0,004
1004	-0,004
1004,5	-0,003
1004,9	-0,002
1005,3	-0,002
1005,7	-0,002
1006,1	-0,002
1006,6	-0,002
1007	-0,003
1007,4	-0,003
1007,8	-0,003
1008,2	-0,003
1008,6	-0,004
1009,1	-0,004
1009,5	-0,005
1009,9	-0,004
1010,3	-0,004
1010,7	-0,005
1011,1	-0,004
1011,6	-0,003
1012	-0,003
1012,4	-0,003
1012,8	-0,003
1013,2	-0,003
1013,6	-0,003
1014,1	-0,002
1014,5	-0,002
1014,9	-0,002
1015,3	-0,002
1015,7	-0,002
1016,1	-0,002
1016,6	-0,002
1017	-0,002
1017,4	-0,003
1017,8	-0,002
1018,2	-0,002
1018,6	-0,003
1019,1	-0,003
1019,5	-0,003
1019,9	-0,003
1020,3	-0,003
1020,7	-0,003
1021,1	-0,003
1021,6	-0,003
1022	-0,002
1022,4	-0,003
1022,8	-0,002
1023,2	-0,003
1023,6	-0,002
1024,1	-0,002
1024,5	-0,001
1024,9	-0,001
1025,3	-0,002
1025,7	-0,002
1026,1	-0,002
1026,6	-0,002
1027	-0,002
1027,4	-0,002
1027,8	-0,002
1028,2	-0,001
1028,6	-0,001
1029	-0,001
1029,5	-0,001
1029,9	-0,001
1030,3	-0,001
1030,7	-0,001
1031,1	-0,002
1031,5	-0,002
1032	-0,002
1032,4	-0,002
1032,8	-0,002
1033,2	-0,002
1033,6	-0,002
1034	-0,002
1034,4	-0,001
1034,9	-0,002
1035,3	-0,002
1035,7	-0,001
1036,1	-0,001
1036,5	-0
1036,9	-0
1037,4	-0
1037,8	-0
1038,2	0
1038,6	0
1039	-0,001
1039,4	-0,001
1039,8	-0
1040,3	0,001
1040,7	0
1041,1	-0
1041,5	-0,001
1041,9	0,001
1042,3	0,001
1042,7	0
1043,2	-0,001
1043,6	-0,001
1044	-0,001
1044,4	-0,001
1044,8	-0,002
1045,2	-0,002
1045,6	-0,002
1046,1	-0,001
1046,5	-0,001
1046,9	-0,001
1047,3	-0,001
1047,7	-0,002
1048,1	-0,002
1048,5	-0,002
1049	-0,003
1049,4	-0,002
1049,8	-0,002
1050,2	-0,002
1050,6	-0,001
1051	-0,001
1051,4	-0,001
1051,9	-0,001
1052,3	-0,001
1052,7	-0,001
1053,1	-0,002
1053,5	-0,002
1053,9	-0,001
1054,3	-0,002
1054,8	-0,002
1055,2	-0,001
1055,6	-0,001
1056	-0,001
1056,4	-0,001
1056,8	-0,003
1057,2	-0,003
1057,6	-0,002
1058,1	-0,002
1058,5	-0,002
1058,9	-0,002
1059,3	-0,002
1059,7	-0,002
1060,1	-0,002
1060,5	-0,002
1061	-0,003
1061,4	-0,002
1061,8	-0,002
1062,2	-0,001
1062,6	-0,001
1063	-0,001
1063,4	-0,001
1063,8	-0,003
1064,3	-0,003
1064,7	-0,003
1065,1	-0,004
1065,5	-0,002
1065,9	-0,002
1066,3	-0,002
1066,7	-0,001
1067,1	-0,001
1067,6	-0,002
1068	-0,001
1068,4	-0,002
1068,8	-0,002
1069,2	-0,002
1069,6	-0,002
1070	-0,002
1070,4	-0,003
1070,9	-0,003
1071,3	-0,004
1071,7	-0,004
1072,1	-0,004
1072,5	-0,003
1072,9	-0,002
1073,3	-0,002
1073,7	-0,001
1074,2	-0,001
1074,6	0,001
1075	0
1075,4	-0
1075,8	-0,002
1076,2	-0,001
1076,6	-0,001
1077	-0
1077,5	-0
1077,9	-0
1078,3	-0
1078,7	0
1079,1	-0,001
1079,5	0,001
1079,9	0,001
1080,3	-0
1080,7	-0,001
1081,2	-0,001
1081,6	0,001
1082	0,001
1082,4	-0,002
1082,8	-0,004
1083,2	-0,002
1083,6	-0,001
1084	-0,001
1084,5	-0,004
1084,9	-0,004
1085,3	-0,002
1085,7	-0,001
1086,1	-0,001
1086,5	-0,004
1086,9	-0,002
1087,3	-0,001
1087,7	-0,001
1088,2	0,001
1088,6	-0
1089	-0,002
1089,4	-0,001
1089,8	-0,005
1090,2	-0,006
1090,6	-0,005
1091	-0,006
1091,4	-0,008
1091,9	-0,006
1092,3	-0,005
1092,7	-0,004
1093,1	-0,003
1093,5	-0,008
1093,9	-0,011
1094,3	-0,006
1094,7	-0,008
1095,1	-0,011
1095,5	-0,011
1096	-0,01
1096,4	-0,004
1096,8	-0,006
1097,2	-0,011
1097,6	-0,013
1098	-0,004
1098,4	-0,007
1098,8	-0,004
1099,2	-0,011
1099,6	-0,01
1100,1	-0,003
1100,5	-0,008
1100,9	-0,018
1101,3	-0,015
1101,7	-0,02
1102,1	-0,014
1102,5	-0,014
1102,9	-0,017
1103,3	-0,002
1103,7	-0,001
1104,2	0,005
1104,6	0,013
1105	0,009
1105,4	0,009
1105,8	0,009
1106,2	0,001
1106,6	0,01
1107	0,017
1107,4	0,002
1107,8	0,066
1108,3	0,836
