Data from Absorbance_00007.txt Node
Date: Thu Aug 10 14:51:54 MSK 2023
User: vat
Spectrometer: MAYP114033
Trigger mode: 0
Integration Time (sec): 8,000000E-3
Scans to average: 10
Electric dark correction enabled: true
Nonlinearity correction enabled: false
Boxcar width: 3
XAxis mode: Wavelengths
Number of Pixels in Spectrum: 2068
>>>>>Begin Spectral Data<<<<<
199,4	-0
199,9	0,048
200,4	0,418
200,8	0,777
201,3	0,93
201,8	0,977
202,2	0,978
202,7	1,006
203,2	1,069
203,6	1,112
204,1	1,113
204,6	1,106
205	1,119
205,5	1,144
206	1,154
206,4	1,172
206,9	1,171
207,4	1,196
207,8	1,22
208,3	1,227
208,8	1,237
209,2	1,259
209,7	1,255
210,2	1,279
210,6	1,283
211,1	1,294
211,5	1,307
212	1,321
212,5	1,325
212,9	1,354
213,4	1,378
213,9	1,378
214,3	1,384
214,8	1,415
215,3	1,423
215,7	1,445
216,2	1,465
216,7	1,47
217,1	1,5
217,6	1,506
218,1	1,506
218,5	1,528
219	1,532
219,5	1,544
219,9	1,534
220,4	1,556
220,9	1,589
221,3	1,606
221,8	1,615
222,3	1,652
222,7	1,66
223,2	1,698
223,6	1,703
224,1	1,72
224,6	1,751
225	1,788
225,5	1,796
226	1,819
226,4	1,826
226,9	1,838
227,4	1,848
227,8	1,82
228,3	1,823
228,8	1,821
229,2	1,816
229,7	1,826
230,2	1,85
230,6	1,858
231,1	1,898
231,5	1,905
232	1,912
232,5	1,932
232,9	1,933
233,4	1,94
233,9	1,955
234,3	1,94
234,8	1,946
235,3	1,957
235,7	1,96
236,2	1,982
236,7	1,983
237,1	1,993
237,6	2,032
238,1	2,034
238,5	2,049
239	2,076
239,4	2,096
239,9	2,11
240,4	2,113
240,8	2,108
241,3	2,125
241,8	2,134
242,2	2,118
242,7	2,101
243,2	2,115
243,6	2,108
244,1	2,128
244,6	2,128
245	2,135
245,5	2,137
245,9	2,137
246,4	2,12
246,9	2,117
247,3	2,098
247,8	2,103
248,3	2,091
248,7	2,103
249,2	2,133
249,7	2,137
250,1	2,138
250,6	2,143
251	2,144
251,5	2,168
252	2,159
252,4	2,139
252,9	2,137
253,4	2,158
253,8	2,168
254,3	2,156
254,8	2,141
255,2	2,15
255,7	2,157
256,1	2,166
256,6	2,164
257,1	2,16
257,5	2,18
258	2,18
258,5	2,17
258,9	2,182
259,4	2,207
259,9	2,227
260,3	2,23
260,8	2,24
261,2	2,24
261,7	2,259
262,2	2,235
262,6	2,208
263,1	2,192
263,6	2,189
264	2,165
264,5	2,176
264,9	2,19
265,4	2,18
265,9	2,183
266,3	2,163
266,8	2,169
267,3	2,176
267,7	2,178
268,2	2,155
268,7	2,191
269,1	2,19
269,6	2,217
270	2,21
270,5	2,219
271	2,195
271,4	2,201
271,9	2,193
272,4	2,189
272,8	2,188
273,3	2,198
273,7	2,197
274,2	2,228
274,7	2,24
275,1	2,233
275,6	2,229
276,1	2,228
276,5	2,24
277	2,234
277,4	2,236
277,9	2,243
278,4	2,247
278,8	2,261
279,3	2,249
279,8	2,232
280,2	2,255
280,7	2,24
281,1	2,255
281,6	2,268
282,1	2,278
282,5	2,302
283	2,294
283,4	2,263
283,9	2,281
284,4	2,267
284,8	2,258
285,3	2,247
285,8	2,247
286,2	2,262
286,7	2,277
287,1	2,265
287,6	2,263
288,1	2,257
288,5	2,268
289	2,255
289,5	2,225
289,9	2,21
290,4	2,199
290,8	2,167
291,3	2,135
291,8	2,078
292,2	2,03
292,7	1,978
293,1	1,924
293,6	1,864
294,1	1,813
294,5	1,763
295	1,719
295,5	1,673
295,9	1,633
296,4	1,591
296,8	1,561
297,3	1,527
297,8	1,498
298,2	1,474
298,7	1,452
299,1	1,434
299,6	1,419
300,1	1,399
300,5	1,385
301	1,371
301,5	1,354
301,9	1,34
302,4	1,327
302,8	1,313
303,3	1,301
303,8	1,289
304,2	1,276
304,7	1,267
305,1	1,259
305,6	1,248
306,1	1,239
306,5	1,229
307	1,217
307,4	1,211
307,9	1,202
308,4	1,193
308,8	1,184
309,3	1,174
309,8	1,165
310,2	1,159
310,7	1,148
311,1	1,137
311,6	1,13
312,1	1,12
312,5	1,113
313	1,105
313,4	1,094
313,9	1,086
314,4	1,077
314,8	1,066
315,3	1,056
315,7	1,046
316,2	1,035
316,7	1,025
317,1	1,013
317,6	1,004
318	0,995
318,5	0,987
319	0,976
319,4	0,968
319,9	0,959
320,3	0,953
320,8	0,943
321,3	0,933
321,7	0,922
322,2	0,914
322,6	0,905
323,1	0,895
323,6	0,885
324	0,875
324,5	0,867
324,9	0,859
325,4	0,849
325,9	0,84
326,3	0,831
326,8	0,822
327,2	0,814
327,7	0,805
328,2	0,796
328,6	0,789
329,1	0,78
329,5	0,77
330	0,759
330,5	0,749
330,9	0,74
331,4	0,729
331,8	0,719
332,3	0,709
332,8	0,701
333,2	0,691
333,7	0,681
334,1	0,672
334,6	0,664
335,1	0,656
335,5	0,647
336	0,638
336,4	0,629
336,9	0,621
337,4	0,612
337,8	0,602
338,3	0,591
338,7	0,582
339,2	0,573
339,7	0,564
340,1	0,556
340,6	0,547
341	0,538
341,5	0,53
342	0,522
342,4	0,513
342,9	0,504
343,3	0,494
343,8	0,486
344,2	0,478
344,7	0,47
345,2	0,463
345,6	0,456
346,1	0,448
346,5	0,44
347	0,433
347,5	0,426
347,9	0,419
348,4	0,41
348,8	0,403
349,3	0,396
349,8	0,39
350,2	0,382
350,7	0,375
351,1	0,368
351,6	0,36
352	0,354
352,5	0,347
353	0,341
353,4	0,334
353,9	0,328
354,3	0,321
354,8	0,316
355,3	0,309
355,7	0,304
356,2	0,298
356,6	0,293
357,1	0,286
357,5	0,28
358	0,275
358,5	0,269
358,9	0,263
359,4	0,258
359,8	0,253
360,3	0,249
360,8	0,244
361,2	0,239
361,7	0,235
362,1	0,231
362,6	0,226
363	0,221
363,5	0,217
364	0,213
364,4	0,208
364,9	0,204
365,3	0,2
365,8	0,196
366,3	0,192
366,7	0,188
367,2	0,185
367,6	0,182
368,1	0,178
368,5	0,175
369	0,172
369,5	0,169
369,9	0,165
370,4	0,162
370,8	0,158
371,3	0,156
371,7	0,152
372,2	0,149
372,7	0,147
373,1	0,144
373,6	0,142
374	0,138
374,5	0,135
374,9	0,133
375,4	0,131
375,9	0,129
376,3	0,127
376,8	0,124
377,2	0,122
377,7	0,121
378,2	0,118
378,6	0,117
379,1	0,115
379,5	0,112
380	0,11
380,4	0,109
380,9	0,107
381,4	0,105
381,8	0,104
382,3	0,102
382,7	0,101
383,2	0,099
383,6	0,097
384,1	0,095
384,6	0,093
385	0,091
385,5	0,089
385,9	0,087
386,4	0,085
386,8	0,083
387,3	0,082
387,7	0,08
388,2	0,08
388,7	0,078
389,1	0,077
389,6	0,075
390	0,074
390,5	0,073
390,9	0,071
391,4	0,07
391,9	0,069
392,3	0,067
392,8	0,066
393,2	0,064
393,7	0,062
394,1	0,061
394,6	0,06
395,1	0,059
395,5	0,057
396	0,057
396,4	0,056
396,9	0,055
397,3	0,054
397,8	0,053
398,2	0,052
398,7	0,052
399,2	0,05
399,6	0,049
400,1	0,049
400,5	0,048
401	0,047
401,4	0,046
401,9	0,046
402,4	0,045
402,8	0,045
403,3	0,044
403,7	0,043
404,2	0,043
404,6	0,042
405,1	0,041
405,5	0,04
406	0,039
406,5	0,039
406,9	0,038
407,4	0,037
407,8	0,037
408,3	0,037
408,7	0,037
409,2	0,037
409,6	0,036
410,1	0,036
410,6	0,036
411	0,035
411,5	0,034
411,9	0,033
412,4	0,033
412,8	0,032
413,3	0,032
413,7	0,031
414,2	0,03
414,7	0,03
415,1	0,029
415,6	0,029
416	0,029
416,5	0,029
416,9	0,028
417,4	0,028
417,8	0,027
418,3	0,027
418,8	0,026
419,2	0,025
419,7	0,025
420,1	0,024
420,6	0,023
421	0,022
421,5	0,023
421,9	0,022
422,4	0,022
422,8	0,022
423,3	0,023
423,8	0,022
424,2	0,022
424,7	0,021
425,1	0,021
425,6	0,02
426	0,02
426,5	0,019
426,9	0,018
427,4	0,018
427,9	0,018
428,3	0,017
428,8	0,017
429,2	0,017
429,7	0,017
430,1	0,016
430,6	0,016
431	0,016
431,5	0,015
431,9	0,015
432,4	0,015
432,8	0,014
433,3	0,014
433,8	0,015
434,2	0,014
434,7	0,014
435,1	0,013
435,6	0,013
436	0,014
436,5	0,013
436,9	0,013
437,4	0,012
437,8	0,012
438,3	0,012
438,8	0,011
439,2	0,011
439,7	0,01
440,1	0,01
440,6	0,01
441	0,01
441,5	0,009
441,9	0,008
442,4	0,008
442,8	0,009
443,3	0,008
443,7	0,008
444,2	0,009
444,7	0,01
445,1	0,01
445,6	0,01
446	0,01
446,5	0,01
446,9	0,009
447,4	0,009
447,8	0,008
448,3	0,008
448,7	0,008
449,2	0,008
449,6	0,008
450,1	0,007
450,6	0,008
451	0,008
451,5	0,008
451,9	0,008
452,4	0,008
452,8	0,008
453,3	0,008
453,7	0,008
454,2	0,007
454,6	0,008
455,1	0,007
455,5	0,007
456	0,006
456,4	0,006
456,9	0,006
457,3	0,006
457,8	0,005
458,3	0,006
458,7	0,006
459,2	0,006
459,6	0,006
460,1	0,006
460,5	0,006
461	0,006
461,4	0,006
461,9	0,006
462,3	0,006
462,8	0,005
463,2	0,005
463,7	0,005
464,1	0,005
464,6	0,005
465	0,005
465,5	0,006
466	0,006
466,4	0,006
466,9	0,006
467,3	0,006
467,8	0,006
468,2	0,006
468,7	0,006
469,1	0,006
469,6	0,006
470	0,006
470,5	0,006
470,9	0,006
471,4	0,005
471,8	0,004
472,3	0,004
472,7	0,005
473,2	0,005
473,6	0,005
474,1	0,004
474,5	0,005
475	0,004
475,4	0,004
475,9	0,004
476,4	0,003
476,8	0,004
477,3	0,004
477,7	0,004
478,2	0,005
478,6	0,005
479,1	0,005
479,5	0,005
480	0,004
480,4	0,005
480,9	0,005
481,3	0,005
481,8	0,005
482,2	0,005
482,7	0,005
483,1	0,006
483,6	0,006
484	0,006
484,5	0,006
484,9	0,006
485,4	0,006
485,8	0,006
486,3	0,005
486,7	0,005
487,2	0,005
487,6	0,005
488,1	0,005
488,5	0,005
489	0,004
489,4	0,005
489,9	0,005
490,4	0,005
490,8	0,004
491,3	0,005
491,7	0,004
492,2	0,005
492,6	0,005
493,1	0,006
493,5	0,006
494	0,006
494,4	0,006
494,9	0,006
495,3	0,006
495,8	0,005
496,2	0,005
496,7	0,005
497,1	0,004
497,6	0,005
498	0,005
498,5	0,005
498,9	0,005
499,4	0,005
499,8	0,005
500,3	0,006
500,7	0,004
501,2	0,004
501,6	0,004
502,1	0,004
502,5	0,004
503	0,004
503,4	0,004
503,9	0,004
504,3	0,005
504,8	0,004
505,2	0,005
505,7	0,004
506,1	0,004
506,6	0,004
507	0,004
507,5	0,004
507,9	0,005
508,4	0,005
508,8	0,005
509,3	0,006
509,7	0,006
510,2	0,006
510,6	0,006
511,1	0,005
511,5	0,005
512	0,005
512,4	0,006
512,9	0,005
513,3	0,005
513,8	0,005
514,2	0,005
514,7	0,005
515,1	0,005
515,6	0,004
516	0,004
516,5	0,004
516,9	0,005
517,4	0,005
517,8	0,005
518,3	0,005
518,7	0,005
519,2	0,005
519,6	0,005
520,1	0,005
520,5	0,004
521	0,005
521,4	0,006
521,9	0,006
522,3	0,006
522,8	0,007
523,2	0,006
523,7	0,007
524,1	0,006
524,6	0,006
525	0,006
525,5	0,005
525,9	0,005
526,4	0,006
526,8	0,006
527,3	0,006
527,7	0,006
528,2	0,005
528,6	0,006
529,1	0,007
529,5	0,007
530	0,006
530,4	0,007
530,9	0,007
531,3	0,008
531,8	0,007
532,2	0,007
532,6	0,007
533,1	0,007
533,5	0,007
534	0,007
534,4	0,007
534,9	0,007
535,3	0,007
535,8	0,007
536,2	0,007
536,7	0,007
537,1	0,007
537,6	0,006
538	0,006
538,5	0,006
538,9	0,006
539,4	0,007
539,8	0,006
540,3	0,006
540,7	0,007
541,2	0,007
541,6	0,006
542,1	0,006
542,5	0,006
543	0,006
543,4	0,005
543,9	0,005
544,3	0,006
544,8	0,006
545,2	0,006
545,7	0,007
546,1	0,007
546,5	0,008
547	0,007
547,4	0,007
547,9	0,007
548,3	0,007
548,8	0,007
549,2	0,007
549,7	0,007
550,1	0,007
550,6	0,007
551	0,007
551,5	0,007
551,9	0,007
552,4	0,007
552,8	0,007
553,3	0,007
553,7	0,006
554,2	0,007
554,6	0,007
555,1	0,007
555,5	0,006
555,9	0,006
556,4	0,006
556,8	0,007
557,3	0,006
557,7	0,006
558,2	0,006
558,6	0,006
559,1	0,006
559,5	0,006
560	0,006
560,4	0,006
560,9	0,006
561,3	0,006
561,8	0,006
562,2	0,006
562,7	0,006
563,1	0,006
563,6	0,006
564	0,006
564,4	0,006
564,9	0,006
565,3	0,006
565,8	0,006
566,2	0,006
566,7	0,006
567,1	0,007
567,6	0,006
568	0,006
568,5	0,006
568,9	0,006
569,4	0,006
569,8	0,006
570,3	0,006
570,7	0,006
571,1	0,006
571,6	0,006
572	0,006
572,5	0,007
572,9	0,007
573,4	0,007
573,8	0,007
574,3	0,007
574,7	0,007
575,2	0,007
575,6	0,007
576,1	0,007
576,5	0,007
576,9	0,007
577,4	0,006
577,8	0,006
578,3	0,006
578,7	0,006
579,2	0,006
579,6	0,006
580,1	0,006
580,5	0,006
581	0,006
581,4	0,006
581,9	0,006
582,3	0,006
582,7	0,006
583,2	0,006
583,6	0,006
584,1	0,006
584,5	0,006
585	0,006
585,4	0,007
585,9	0,007
586,3	0,007
586,8	0,007
587,2	0,007
587,6	0,007
588,1	0,007
588,5	0,007
589	0,007
589,4	0,007
589,9	0,007
590,3	0,007
590,8	0,007
591,2	0,006
591,7	0,007
592,1	0,007
592,5	0,007
593	0,007
593,4	0,006
593,9	0,006
594,3	0,006
594,8	0,006
595,2	0,006
595,7	0,006
596,1	0,006
596,6	0,007
597	0,007
597,4	0,007
597,9	0,007
598,3	0,007
598,8	0,008
599,2	0,007
599,7	0,007
600,1	0,007
600,6	0,007
601	0,007
601,4	0,007
601,9	0,006
602,3	0,007
602,8	0,007
603,2	0,007
603,7	0,006
604,1	0,006
604,6	0,006
605	0,007
605,4	0,007
605,9	0,007
606,3	0,007
606,8	0,007
607,2	0,007
607,7	0,006
608,1	0,007
608,6	0,006
609	0,006
609,4	0,006
609,9	0,006
610,3	0,005
610,8	0,005
611,2	0,005
611,7	0,006
612,1	0,006
612,6	0,006
613	0,006
613,4	0,006
613,9	0,006
614,3	0,006
614,8	0,006
615,2	0,006
615,7	0,006
616,1	0,006
616,6	0,006
617	0,006
617,4	0,006
617,9	0,006
618,3	0,006
618,8	0,007
619,2	0,007
619,7	0,007
620,1	0,007
620,5	0,007
621	0,007
621,4	0,007
621,9	0,007
622,3	0,006
622,8	0,006
623,2	0,006
623,6	0,006
624,1	0,006
624,5	0,006
625	0,006
625,4	0,006
625,9	0,006
626,3	0,007
626,8	0,007
627,2	0,006
627,6	0,007
628,1	0,007
628,5	0,007
629	0,008
629,4	0,008
629,9	0,008
630,3	0,007
630,7	0,008
631,2	0,008
631,6	0,007
632,1	0,007
632,5	0,007
633	0,007
633,4	0,007
633,8	0,007
634,3	0,006
634,7	0,007
635,2	0,006
635,6	0,006
636,1	0,005
636,5	0,006
636,9	0,006
637,4	0,006
637,8	0,005
638,3	0,006
638,7	0,007
639,2	0,007
639,6	0,007
640	0,007
640,5	0,007
640,9	0,007
641,4	0,007
641,8	0,007
642,2	0,007
642,7	0,007
643,1	0,006
643,6	0,006
644	0,006
644,5	0,006
644,9	0,006
645,3	0,006
645,8	0,006
646,2	0,006
646,7	0,006
647,1	0,007
647,6	0,006
648	0,006
648,4	0,006
648,9	0,006
649,3	0,006
649,8	0,006
650,2	0,006
650,6	0,006
651,1	0,006
651,5	0,006
652	0,006
652,4	0,006
652,9	0,006
653,3	0,006
653,7	0,005
654,2	0,005
654,6	0,006
655,1	0,007
655,5	0,004
655,9	0,003
656,4	0,002
656,8	0,003
657,3	0,003
657,7	0,003
658,2	0,002
658,6	0,003
659	0,005
659,5	0,008
659,9	0,007
660,4	0,007
660,8	0,007
661,2	0,007
661,7	0,007
662,1	0,007
662,6	0,007
663	0,007
663,4	0,007
663,9	0,006
664,3	0,006
664,8	0,006
665,2	0,006
665,6	0,006
666,1	0,007
666,5	0,007
667	0,006
667,4	0,006
667,9	0,006
668,3	0,006
668,7	0,006
669,2	0,006
669,6	0,006
670,1	0,006
670,5	0,006
670,9	0,006
671,4	0,006
671,8	0,006
672,3	0,006
672,7	0,006
673,1	0,006
673,6	0,006
674	0,006
674,5	0,006
674,9	0,006
675,3	0,006
675,8	0,006
676,2	0,006
676,7	0,007
677,1	0,006
677,5	0,006
678	0,006
678,4	0,006
678,9	0,006
679,3	0,006
679,7	0,006
680,2	0,006
680,6	0,006
681,1	0,006
681,5	0,006
681,9	0,006
682,4	0,006
682,8	0,006
683,3	0,005
683,7	0,005
684,1	0,005
684,6	0,005
685	0,005
685,5	0,005
685,9	0,006
686,3	0,005
686,8	0,006
687,2	0,006
687,7	0,006
688,1	0,006
688,5	0,006
689	0,006
689,4	0,006
689,9	0,006
690,3	0,006
690,7	0,006
691,2	0,006
691,6	0,006
692	0,006
692,5	0,006
692,9	0,006
693,4	0,006
693,8	0,006
694,2	0,006
694,7	0,006
695,1	0,007
695,6	0,006
696	0,006
696,4	0,006
696,9	0,006
697,3	0,006
697,8	0,006
698,2	0,006
698,6	0,006
699,1	0,006
699,5	0,006
699,9	0,006
700,4	0,006
700,8	0,007
701,3	0,006
701,7	0,006
702,1	0,006
702,6	0,006
703	0,006
703,5	0,006
703,9	0,006
704,3	0,007
704,8	0,007
705,2	0,007
705,6	0,007
706,1	0,007
706,5	0,007
707	0,006
707,4	0,006
707,8	0,005
708,3	0,005
708,7	0,005
709,2	0,005
709,6	0,005
710	0,005
710,5	0,005
710,9	0,006
711,3	0,006
711,8	0,006
712,2	0,006
712,7	0,006
713,1	0,006
713,5	0,006
714	0,006
714,4	0,006
714,8	0,006
715,3	0,005
715,7	0,005
716,2	0,005
716,6	0,005
717	0,005
717,5	0,005
717,9	0,005
718,3	0,005
718,8	0,006
719,2	0,007
719,7	0,007
720,1	0,007
720,5	0,007
721	0,007
721,4	0,006
721,8	0,006
722,3	0,006
722,7	0,006
723,2	0,005
723,6	0,005
724	0,005
724,5	0,005
724,9	0,005
725,3	0,005
725,8	0,005
726,2	0,005
726,7	0,006
727,1	0,005
727,5	0,005
728	0,006
728,4	0,005
728,8	0,005
729,3	0,005
729,7	0,005
730,1	0,005
730,6	0,005
731	0,005
731,5	0,005
731,9	0,005
732,3	0,005
732,8	0,005
733,2	0,005
733,6	0,005
734,1	0,005
734,5	0,005
734,9	0,005
735,4	0,006
735,8	0,006
736,3	0,006
736,7	0,006
737,1	0,006
737,6	0,006
738	0,006
738,4	0,006
738,9	0,006
739,3	0,006
739,7	0,006
740,2	0,006
740,6	0,006
741,1	0,006
741,5	0,006
741,9	0,006
742,4	0,006
742,8	0,006
743,2	0,006
743,7	0,006
744,1	0,006
744,5	0,005
745	0,005
745,4	0,005
745,8	0,005
746,3	0,005
746,7	0,005
747,2	0,005
747,6	0,005
748	0,005
748,5	0,005
748,9	0,005
749,3	0,005
749,8	0,006
750,2	0,006
750,6	0,005
751,1	0,005
751,5	0,005
751,9	0,005
752,4	0,006
752,8	0,005
753,3	0,006
753,7	0,006
754,1	0,006
754,6	0,006
755	0,006
755,4	0,006
755,9	0,005
756,3	0,005
756,7	0,005
757,2	0,005
757,6	0,005
758	0,005
758,5	0,005
758,9	0,005
759,3	0,005
759,8	0,005
760,2	0,005
760,6	0,005
761,1	0,005
761,5	0,005
761,9	0,005
762,4	0,005
762,8	0,005
763,3	0,005
763,7	0,005
764,1	0,005
764,6	0,005
765	0,005
765,4	0,004
765,9	0,004
766,3	0,004
766,7	0,004
767,2	0,004
767,6	0,004
768	0,004
768,5	0,004
768,9	0,004
769,3	0,004
769,8	0,004
770,2	0,004
770,6	0,004
771,1	0,004
771,5	0,004
771,9	0,004
772,4	0,004
772,8	0,004
773,2	0,004
773,7	0,005
774,1	0,005
774,5	0,006
775	0,006
775,4	0,006
775,8	0,007
776,3	0,006
776,7	0,006
777,1	0,006
777,6	0,006
778	0,006
778,4	0,005
778,9	0,006
779,3	0,005
779,7	0,005
780,2	0,005
780,6	0,005
781	0,005
781,5	0,005
781,9	0,005
782,3	0,005
782,8	0,005
783,2	0,005
783,6	0,005
784,1	0,005
784,5	0,005
784,9	0,005
785,4	0,005
785,8	0,005
786,2	0,005
786,7	0,006
787,1	0,006
787,5	0,006
788	0,006
788,4	0,006
788,8	0,006
789,3	0,005
789,7	0,005
790,1	0,005
790,6	0,005
791	0,004
791,4	0,004
791,9	0,005
792,3	0,005
792,7	0,005
793,2	0,004
793,6	0,005
794	0,005
794,5	0,005
794,9	0,005
795,3	0,005
795,8	0,005
796,2	0,005
796,6	0,006
797,1	0,006
797,5	0,006
797,9	0,006
798,4	0,006
798,8	0,006
799,2	0,005
799,7	0,005
800,1	0,005
800,5	0,005
801	0,005
801,4	0,005
801,8	0,005
802,2	0,005
802,7	0,006
803,1	0,005
803,5	0,005
804	0,005
804,4	0,005
804,8	0,005
805,3	0,005
805,7	0,005
806,1	0,004
806,6	0,004
807	0,005
807,4	0,005
807,9	0,005
808,3	0,005
808,7	0,005
809,2	0,005
809,6	0,005
810	0,005
810,4	0,005
810,9	0,005
811,3	0,005
811,7	0,005
812,2	0,005
812,6	0,005
813	0,006
813,5	0,006
813,9	0,006
814,3	0,006
814,8	0,006
815,2	0,006
815,6	0,006
816,1	0,005
816,5	0,005
816,9	0,005
817,3	0,005
817,8	0,004
818,2	0,005
818,6	0,004
819,1	0,004
819,5	0,004
819,9	0,004
820,4	0,004
820,8	0,004
821,2	0,004
821,7	0,005
822,1	0,005
822,5	0,005
822,9	0,005
823,4	0,005
823,8	0,005
824,2	0,005
824,7	0,005
825,1	0,006
825,5	0,006
826	0,006
826,4	0,006
826,8	0,006
827,3	0,006
827,7	0,006
828,1	0,006
828,5	0,006
829	0,006
829,4	0,006
829,8	0,005
830,3	0,005
830,7	0,005
831,1	0,005
831,6	0,005
832	0,005
832,4	0,005
832,8	0,005
833,3	0,005
833,7	0,005
834,1	0,005
834,6	0,005
835	0,004
835,4	0,004
835,8	0,005
836,3	0,005
836,7	0,005
837,1	0,005
837,6	0,005
838	0,005
838,4	0,005
838,9	0,004
839,3	0,004
839,7	0,004
840,1	0,004
840,6	0,004
841	0,004
841,4	0,004
841,9	0,004
842,3	0,004
842,7	0,004
843,1	0,004
843,6	0,004
844	0,004
844,4	0,004
844,9	0,004
845,3	0,004
845,7	0,004
846,2	0,005
846,6	0,005
847	0,005
847,4	0,006
847,9	0,005
848,3	0,006
848,7	0,006
849,2	0,006
849,6	0,006
850	0,006
850,4	0,006
850,9	0,005
851,3	0,005
851,7	0,005
852,2	0,005
852,6	0,005
853	0,005
853,4	0,005
853,9	0,005
854,3	0,006
854,7	0,006
855,2	0,006
855,6	0,005
856	0,006
856,4	0,006
856,9	0,006
857,3	0,005
857,7	0,005
858,2	0,005
858,6	0,005
859	0,005
859,4	0,005
859,9	0,005
860,3	0,005
860,7	0,005
861,1	0,005
861,6	0,005
862	0,005
862,4	0,005
862,9	0,005
863,3	0,005
863,7	0,005
864,1	0,005
864,6	0,005
865	0,005
865,4	0,006
865,9	0,006
866,3	0,006
866,7	0,006
867,1	0,005
867,6	0,005
868	0,005
868,4	0,004
868,8	0,004
869,3	0,004
869,7	0,004
870,1	0,004
870,6	0,004
871	0,004
871,4	0,004
871,8	0,004
872,3	0,004
872,7	0,004
873,1	0,005
873,5	0,005
874	0,005
874,4	0,004
874,8	0,004
875,3	0,004
875,7	0,004
876,1	0,004
876,5	0,004
877	0,004
877,4	0,004
877,8	0,004
878,2	0,004
878,7	0,003
879,1	0,003
879,5	0,004
879,9	0,003
880,4	0,003
880,8	0,004
881,2	0,003
881,7	0,003
882,1	0,003
882,5	0,003
882,9	0,003
883,4	0,003
883,8	0,003
884,2	0,003
884,6	0,003
885,1	0,003
885,5	0,003
885,9	0,003
886,3	0,003
886,8	0,003
887,2	0,003
887,6	0,003
888	0,003
888,5	0,003
888,9	0,004
889,3	0,004
889,8	0,004
890,2	0,004
890,6	0,004
891	0,004
891,5	0,004
891,9	0,004
892,3	0,004
892,7	0,004
893,2	0,004
893,6	0,003
894	0,003
894,4	0,003
894,9	0,003
895,3	0,003
895,7	0,003
896,1	0,003
896,6	0,003
897	0,004
897,4	0,003
897,8	0,003
898,3	0,003
898,7	0,003
899,1	0,003
899,5	0,003
900	0,004
900,4	0,004
900,8	0,004
901,2	0,004
901,7	0,004
902,1	0,004
902,5	0,004
902,9	0,004
903,4	0,004
903,8	0,004
904,2	0,004
904,6	0,004
905,1	0,004
905,5	0,004
905,9	0,004
906,3	0,003
906,8	0,003
907,2	0,003
907,6	0,003
908	0,003
908,5	0,003
908,9	0,003
909,3	0,003
909,7	0,003
910,2	0,004
910,6	0,004
911	0,004
911,4	0,004
911,9	0,004
912,3	0,005
912,7	0,005
913,1	0,005
913,6	0,005
914	0,005
914,4	0,004
914,8	0,004
915,3	0,004
915,7	0,003
916,1	0,003
916,5	0,003
916,9	0,003
917,4	0,003
917,8	0,003
918,2	0,003
918,6	0,004
919,1	0,004
919,5	0,004
919,9	0,004
920,3	0,004
920,8	0,004
921,2	0,004
921,6	0,005
922	0,004
922,5	0,004
922,9	0,004
923,3	0,004
923,7	0,004
924,2	0,004
924,6	0,003
925	0,003
925,4	0,002
925,8	0,003
926,3	0,003
926,7	0,003
927,1	0,003
927,5	0,003
928	0,003
928,4	0,004
928,8	0,003
929,2	0,003
929,7	0,004
930,1	0,004
930,5	0,004
930,9	0,004
931,3	0,004
931,8	0,004
932,2	0,004
932,6	0,004
933	0,004
933,5	0,003
933,9	0,004
934,3	0,004
934,7	0,003
935,2	0,003
935,6	0,003
936	0,003
936,4	0,003
936,8	0,003
937,3	0,003
937,7	0,003
938,1	0,004
938,5	0,003
939	0,004
939,4	0,004
939,8	0,004
940,2	0,004
940,6	0,004
941,1	0,004
941,5	0,004
941,9	0,004
942,3	0,004
942,8	0,004
943,2	0,004
943,6	0,004
944	0,004
944,4	0,004
944,9	0,004
945,3	0,004
945,7	0,004
946,1	0,004
946,6	0,004
947	0,003
947,4	0,003
947,8	0,003
948,2	0,002
948,7	0,002
949,1	0,002
949,5	0,002
949,9	0,003
950,3	0,003
950,8	0,003
951,2	0,003
951,6	0,003
952	0,003
952,5	0,004
952,9	0,003
953,3	0,003
953,7	0,004
954,1	0,004
954,6	0,005
955	0,005
955,4	0,005
955,8	0,005
956,2	0,005
956,7	0,005
957,1	0,005
957,5	0,005
957,9	0,005
958,3	0,005
958,8	0,006
959,2	0,006
959,6	0,006
960	0,005
960,5	0,005
960,9	0,005
961,3	0,004
961,7	0,004
962,1	0,003
962,6	0,004
963	0,004
963,4	0,004
963,8	0,004
964,2	0,004
964,7	0,004
965,1	0,005
965,5	0,004
965,9	0,004
966,3	0,004
966,8	0,004
967,2	0,004
967,6	0,004
968	0,003
968,4	0,004
968,9	0,004
969,3	0,004
969,7	0,004
970,1	0,004
970,5	0,004
971	0,005
971,4	0,005
971,8	0,004
972,2	0,005
972,6	0,005
973,1	0,005
973,5	0,005
973,9	0,005
974,3	0,005
974,7	0,005
975,2	0,004
975,6	0,005
976	0,004
976,4	0,004
976,8	0,004
977,3	0,004
977,7	0,004
978,1	0,004
978,5	0,004
978,9	0,004
979,4	0,004
979,8	0,003
980,2	0,004
980,6	0,004
981	0,004
981,5	0,004
981,9	0,004
982,3	0,004
982,7	0,004
983,1	0,004
983,6	0,003
984	0,003
984,4	0,003
984,8	0,003
985,2	0,004
985,6	0,004
986,1	0,004
986,5	0,005
986,9	0,005
987,3	0,006
987,7	0,005
988,2	0,005
988,6	0,005
989	0,005
989,4	0,005
989,8	0,005
990,3	0,005
990,7	0,006
991,1	0,006
991,5	0,006
991,9	0,006
992,3	0,005
992,8	0,005
993,2	0,004
993,6	0,004
994	0,004
994,4	0,003
994,9	0,004
995,3	0,004
995,7	0,004
996,1	0,004
996,5	0,004
996,9	0,004
997,4	0,003
997,8	0,003
998,2	0,002
998,6	0,002
999	0,002
999,5	0,002
999,9	0,002
1000,3	0,001
1000,7	0,001
1001,1	0,002
1001,5	0,002
1002	0,002
1002,4	0,002
1002,8	0,002
1003,2	0,002
1003,6	0,001
1004	0,001
1004,5	0,001
1004,9	0,001
1005,3	0,001
1005,7	0,002
1006,1	0,002
1006,6	0,002
1007	0,002
1007,4	0,002
1007,8	0,002
1008,2	0,003
1008,6	0,003
1009,1	0,003
1009,5	0,003
1009,9	0,003
1010,3	0,003
1010,7	0,003
1011,1	0,003
1011,6	0,003
1012	0,003
1012,4	0,003
1012,8	0,003
1013,2	0,002
1013,6	0,002
1014,1	0,002
1014,5	0,001
1014,9	0,002
1015,3	0,001
1015,7	0,001
1016,1	0,002
1016,6	0,002
1017	0,001
1017,4	0,001
1017,8	0,001
1018,2	0,002
1018,6	0,002
1019,1	0,002
1019,5	0,002
1019,9	0,002
1020,3	0,002
1020,7	0,002
1021,1	0,002
1021,6	0,002
1022	0,001
1022,4	0,002
1022,8	0,002
1023,2	0,002
1023,6	0,001
1024,1	0,001
1024,5	0,001
1024,9	0,001
1025,3	0,001
1025,7	0,001
1026,1	0,001
1026,6	0,001
1027	0,001
1027,4	0
1027,8	0
1028,2	0
1028,6	0
1029	0
1029,5	0
1029,9	0
1030,3	0
1030,7	0,001
1031,1	0,001
1031,5	0,001
1032	0,002
1032,4	0,001
1032,8	0,001
1033,2	0,002
1033,6	0,002
1034	0,002
1034,4	0,002
1034,9	0,002
1035,3	0,002
1035,7	0,002
1036,1	0,002
1036,5	0,001
1036,9	0,002
1037,4	0,002
1037,8	0,002
1038,2	0,002
1038,6	0,003
1039	0,002
1039,4	0,003
1039,8	0,002
1040,3	0,002
1040,7	0,002
1041,1	0,002
1041,5	0,002
1041,9	0,003
1042,3	0,002
1042,7	0,002
1043,2	0,003
1043,6	0,003
1044	0,004
1044,4	0,004
1044,8	0,003
1045,2	0,003
1045,6	0,003
1046,1	0,003
1046,5	0,003
1046,9	0,002
1047,3	0,002
1047,7	0,002
1048,1	0,003
1048,5	0,003
1049	0,003
1049,4	0,003
1049,8	0,004
1050,2	0,004
1050,6	0,004
1051	0,004
1051,4	0,004
1051,9	0,004
1052,3	0,003
1052,7	0,002
1053,1	0,001
1053,5	0,001
1053,9	0
1054,3	0,001
1054,8	0
1055,2	0
1055,6	0
1056	0,001
1056,4	0,002
1056,8	0,002
1057,2	0,002
1057,6	0,002
1058,1	0,002
1058,5	0,002
1058,9	0,003
1059,3	0,002
1059,7	0,001
1060,1	0,001
1060,5	0,001
1061	0,001
1061,4	0,001
1061,8	0
1062,2	0,001
1062,6	0,002
1063	0,003
1063,4	0,004
1063,8	0,003
1064,3	0,004
1064,7	0,005
1065,1	0,004
1065,5	0,003
1065,9	0,002
1066,3	0,003
1066,7	0,004
1067,1	0,003
1067,6	0,003
1068	0,004
1068,4	0,004
1068,8	0,005
1069,2	0,004
1069,6	0,004
1070	0,004
1070,4	0,003
1070,9	0,002
1071,3	0,002
1071,7	0,003
1072,1	0,004
1072,5	0,003
1072,9	0,004
1073,3	0,004
1073,7	0,004
1074,2	0,003
1074,6	0,002
1075	0,003
1075,4	0,003
1075,8	0,002
1076,2	0,002
1076,6	0,002
1077	0,002
1077,5	0,002
1077,9	0,001
1078,3	0,001
1078,7	-0
1079,1	-0
1079,5	0
1079,9	0
1080,3	-0,001
1080,7	-0,001
1081,2	-0,002
1081,6	-0,002
1082	-0,001
1082,4	-0,001
1082,8	-0
1083,2	0,002
1083,6	-0,001
1084	-0,001
1084,5	-0,002
1084,9	-0,003
1085,3	-0,003
1085,7	-0,004
1086,1	-0,005
1086,5	-0,002
1086,9	-0,001
1087,3	0,001
1087,7	0,001
1088,2	0,001
1088,6	-0
1089	0,001
1089,4	0,003
1089,8	0,004
1090,2	0,004
1090,6	0,003
1091	0,001
1091,4	0,004
1091,9	0,003
1092,3	0,001
1092,7	0,003
1093,1	0,002
1093,5	0,007
1093,9	0,013
1094,3	0,017
1094,7	0,018
1095,1	0,015
1095,5	0,009
1096	0,004
1096,4	0
1096,8	-0,004
1097,2	-0,012
1097,6	-0,012
1098	-0,011
1098,4	-0,008
1098,8	-0,003
1099,2	-0,002
1099,6	-0,002
1100,1	-0,004
1100,5	-0,007
1100,9	-0,005
1101,3	-0,007
1101,7	-0,003
1102,1	-0,007
1102,5	-0,011
1102,9	-0,005
1103,3	-0,007
1103,7	0,001
1104,2	0,007
1104,6	0,008
1105	0,011
1105,4	0,021
1105,8	0,018
1106,2	0,018
1106,6	0,014
1107	0,013
1107,4	0,018
1107,8	0,035
1108,3	-0
