Data from Absorbance_00002.txt Node
Date: Thu Aug 10 14:41:39 MSK 2023
User: vat
Spectrometer: MAYP114033
Trigger mode: 0
Integration Time (sec): 8,000000E-3
Scans to average: 10
Electric dark correction enabled: true
Nonlinearity correction enabled: false
Boxcar width: 3
XAxis mode: Wavelengths
Number of Pixels in Spectrum: 2068
>>>>>Begin Spectral Data<<<<<
199,4	-1,477
199,9	0,135
200,4	0,502
200,8	0,816
201,3	0,947
201,8	0,964
202,2	0,977
202,7	0,992
203,2	1,035
203,6	1,064
204,1	1,063
204,6	1,062
205	1,098
205,5	1,124
206	1,149
206,4	1,172
206,9	1,178
207,4	1,207
207,8	1,24
208,3	1,243
208,8	1,262
209,2	1,267
209,7	1,255
210,2	1,28
210,6	1,298
211,1	1,323
211,5	1,325
212	1,324
212,5	1,342
212,9	1,365
213,4	1,389
213,9	1,38
214,3	1,377
214,8	1,428
215,3	1,452
215,7	1,46
216,2	1,471
216,7	1,477
217,1	1,519
217,6	1,521
218,1	1,498
218,5	1,496
219	1,513
219,5	1,536
219,9	1,533
220,4	1,541
220,9	1,564
221,3	1,587
221,8	1,622
222,3	1,64
222,7	1,659
223,2	1,689
223,6	1,702
224,1	1,721
224,6	1,75
225	1,76
225,5	1,788
226	1,803
226,4	1,816
226,9	1,832
227,4	1,868
227,8	1,849
228,3	1,861
228,8	1,866
229,2	1,872
229,7	1,893
230,2	1,929
230,6	1,933
231,1	1,972
231,5	1,997
232	1,979
232,5	2,014
232,9	1,994
233,4	2,003
233,9	2,026
234,3	2,014
234,8	2,004
235,3	2,032
235,7	2,029
236,2	2,036
236,7	2,004
237,1	2,003
237,6	2,035
238,1	2,067
238,5	2,067
239	2,081
239,4	2,108
239,9	2,146
240,4	2,141
240,8	2,139
241,3	2,132
241,8	2,161
242,2	2,155
242,7	2,144
243,2	2,132
243,6	2,138
244,1	2,149
244,6	2,155
245	2,154
245,5	2,158
245,9	2,144
246,4	2,163
246,9	2,14
247,3	2,129
247,8	2,122
248,3	2,118
248,7	2,111
249,2	2,156
249,7	2,137
250,1	2,164
250,6	2,161
251	2,174
251,5	2,167
252	2,182
252,4	2,187
252,9	2,204
253,4	2,214
253,8	2,228
254,3	2,204
254,8	2,211
255,2	2,222
255,7	2,204
256,1	2,2
256,6	2,206
257,1	2,208
257,5	2,229
258	2,237
258,5	2,219
258,9	2,224
259,4	2,246
259,9	2,234
260,3	2,224
260,8	2,229
261,2	2,224
261,7	2,222
262,2	2,238
262,6	2,236
263,1	2,231
263,6	2,219
264	2,207
264,5	2,181
264,9	2,199
265,4	2,182
265,9	2,176
266,3	2,173
266,8	2,19
267,3	2,193
267,7	2,22
268,2	2,211
268,7	2,214
269,1	2,209
269,6	2,215
270	2,219
270,5	2,221
271	2,223
271,4	2,222
271,9	2,233
272,4	2,231
272,8	2,238
273,3	2,268
273,7	2,256
274,2	2,267
274,7	2,284
275,1	2,268
275,6	2,276
276,1	2,281
276,5	2,253
277	2,265
277,4	2,255
277,9	2,254
278,4	2,264
278,8	2,262
279,3	2,24
279,8	2,231
280,2	2,25
280,7	2,238
281,1	2,237
281,6	2,237
282,1	2,244
282,5	2,264
283	2,276
283,4	2,251
283,9	2,271
284,4	2,247
284,8	2,24
285,3	2,243
285,8	2,225
286,2	2,195
286,7	2,181
287,1	2,157
287,6	2,132
288,1	2,094
288,5	2,041
289	1,989
289,5	1,945
289,9	1,908
290,4	1,863
290,8	1,821
291,3	1,783
291,8	1,75
292,2	1,725
292,7	1,699
293,1	1,673
293,6	1,654
294,1	1,645
294,5	1,628
295	1,613
295,5	1,599
295,9	1,587
296,4	1,574
296,8	1,565
297,3	1,548
297,8	1,539
298,2	1,531
298,7	1,525
299,1	1,518
299,6	1,508
300,1	1,501
300,5	1,495
301	1,488
301,5	1,482
301,9	1,475
302,4	1,464
302,8	1,46
303,3	1,446
303,8	1,437
304,2	1,427
304,7	1,419
305,1	1,408
305,6	1,401
306,1	1,39
306,5	1,383
307	1,376
307,4	1,368
307,9	1,359
308,4	1,35
308,8	1,341
309,3	1,333
309,8	1,323
310,2	1,314
310,7	1,304
311,1	1,295
311,6	1,286
312,1	1,277
312,5	1,268
313	1,259
313,4	1,246
313,9	1,235
314,4	1,221
314,8	1,209
315,3	1,198
315,7	1,185
316,2	1,173
316,7	1,162
317,1	1,148
317,6	1,138
318	1,126
318,5	1,115
319	1,103
319,4	1,093
319,9	1,081
320,3	1,069
320,8	1,057
321,3	1,046
321,7	1,033
322,2	1,021
322,6	1,009
323,1	0,997
323,6	0,987
324	0,976
324,5	0,965
324,9	0,954
325,4	0,943
325,9	0,932
326,3	0,921
326,8	0,909
327,2	0,897
327,7	0,884
328,2	0,872
328,6	0,859
329,1	0,847
329,5	0,835
330	0,823
330,5	0,812
330,9	0,801
331,4	0,789
331,8	0,78
332,3	0,769
332,8	0,757
333,2	0,746
333,7	0,732
334,1	0,722
334,6	0,711
335,1	0,699
335,5	0,688
336	0,677
336,4	0,665
336,9	0,655
337,4	0,643
337,8	0,632
338,3	0,621
338,7	0,61
339,2	0,6
339,7	0,59
340,1	0,579
340,6	0,57
341	0,56
341,5	0,549
342	0,54
342,4	0,53
342,9	0,521
343,3	0,512
343,8	0,503
344,2	0,493
344,7	0,485
345,2	0,477
345,6	0,468
346,1	0,46
346,5	0,451
347	0,443
347,5	0,435
347,9	0,427
348,4	0,418
348,8	0,411
349,3	0,403
349,8	0,396
350,2	0,388
350,7	0,381
351,1	0,375
351,6	0,367
352	0,361
352,5	0,354
353	0,347
353,4	0,34
353,9	0,334
354,3	0,328
354,8	0,323
355,3	0,317
355,7	0,311
356,2	0,306
356,6	0,301
357,1	0,295
357,5	0,289
358	0,284
358,5	0,279
358,9	0,273
359,4	0,269
359,8	0,264
360,3	0,259
360,8	0,255
361,2	0,25
361,7	0,245
362,1	0,241
362,6	0,236
363	0,231
363,5	0,228
364	0,224
364,4	0,22
364,9	0,217
365,3	0,213
365,8	0,21
366,3	0,207
366,7	0,204
367,2	0,2
367,6	0,198
368,1	0,195
368,5	0,192
369	0,189
369,5	0,186
369,9	0,183
370,4	0,18
370,8	0,176
371,3	0,174
371,7	0,171
372,2	0,169
372,7	0,167
373,1	0,164
373,6	0,162
374	0,16
374,5	0,157
374,9	0,155
375,4	0,152
375,9	0,15
376,3	0,149
376,8	0,147
377,2	0,145
377,7	0,142
378,2	0,14
378,6	0,138
379,1	0,136
379,5	0,134
380	0,131
380,4	0,13
380,9	0,128
381,4	0,126
381,8	0,125
382,3	0,123
382,7	0,122
383,2	0,12
383,6	0,118
384,1	0,116
384,6	0,115
385	0,114
385,5	0,112
385,9	0,11
386,4	0,108
386,8	0,106
387,3	0,105
387,7	0,103
388,2	0,101
388,7	0,1
389,1	0,099
389,6	0,097
390	0,096
390,5	0,095
390,9	0,094
391,4	0,093
391,9	0,092
392,3	0,09
392,8	0,089
393,2	0,088
393,7	0,086
394,1	0,084
394,6	0,083
395,1	0,082
395,5	0,081
396	0,08
396,4	0,079
396,9	0,079
397,3	0,077
397,8	0,076
398,2	0,074
398,7	0,073
399,2	0,072
399,6	0,07
400,1	0,07
400,5	0,069
401	0,068
401,4	0,066
401,9	0,065
402,4	0,064
402,8	0,064
403,3	0,063
403,7	0,062
404,2	0,061
404,6	0,06
405,1	0,059
405,5	0,058
406	0,056
406,5	0,055
406,9	0,054
407,4	0,052
407,8	0,052
408,3	0,051
408,7	0,051
409,2	0,05
409,6	0,049
410,1	0,049
410,6	0,048
411	0,048
411,5	0,046
411,9	0,046
412,4	0,045
412,8	0,044
413,3	0,043
413,7	0,043
414,2	0,042
414,7	0,042
415,1	0,04
415,6	0,039
416	0,039
416,5	0,038
416,9	0,037
417,4	0,036
417,8	0,035
418,3	0,035
418,8	0,034
419,2	0,033
419,7	0,033
420,1	0,032
420,6	0,031
421	0,03
421,5	0,03
421,9	0,029
422,4	0,028
422,8	0,027
423,3	0,026
423,8	0,026
424,2	0,026
424,7	0,025
425,1	0,025
425,6	0,024
426	0,024
426,5	0,023
426,9	0,022
427,4	0,021
427,9	0,019
428,3	0,019
428,8	0,018
429,2	0,018
429,7	0,018
430,1	0,018
430,6	0,017
431	0,017
431,5	0,017
431,9	0,016
432,4	0,016
432,8	0,015
433,3	0,014
433,8	0,014
434,2	0,014
434,7	0,013
435,1	0,012
435,6	0,012
436	0,012
436,5	0,012
436,9	0,011
437,4	0,011
437,8	0,011
438,3	0,01
438,8	0,01
439,2	0,01
439,7	0,009
440,1	0,009
440,6	0,009
441	0,008
441,5	0,008
441,9	0,007
442,4	0,006
442,8	0,006
443,3	0,006
443,7	0,006
444,2	0,005
444,7	0,005
445,1	0,006
445,6	0,006
446	0,006
446,5	0,007
446,9	0,006
447,4	0,006
447,8	0,006
448,3	0,005
448,7	0,005
449,2	0,005
449,6	0,004
450,1	0,005
450,6	0,004
451	0,005
451,5	0,005
451,9	0,005
452,4	0,005
452,8	0,005
453,3	0,004
453,7	0,004
454,2	0,004
454,6	0,004
455,1	0,004
455,5	0,004
456	0,003
456,4	0,003
456,9	0,003
457,3	0,004
457,8	0,003
458,3	0,003
458,7	0,003
459,2	0,003
459,6	0,003
460,1	0,003
460,5	0,002
461	0,002
461,4	0,002
461,9	0,001
462,3	0,001
462,8	0,001
463,2	0,001
463,7	0,001
464,1	0,001
464,6	0,001
465	0,002
465,5	0,002
466	0,002
466,4	0,002
466,9	0,001
467,3	0,002
467,8	0,002
468,2	0,002
468,7	0,002
469,1	0,002
469,6	0,002
470	0,002
470,5	0,001
470,9	0,001
471,4	0,001
471,8	-0
472,3	0
472,7	0
473,2	0
473,6	0,001
474,1	0,001
474,5	0,001
475	0
475,4	0
475,9	0
476,4	0,001
476,8	0
477,3	0
477,7	0
478,2	0,001
478,6	-0
479,1	-0
479,5	-0,001
480	-0,001
480,4	-0,001
480,9	-0,001
481,3	-0,001
481,8	-0
482,2	0
482,7	0,001
483,1	0,001
483,6	0,001
484	0,002
484,5	0,002
484,9	0,001
485,4	0,001
485,8	0,001
486,3	0,001
486,7	0
487,2	0
487,6	0
488,1	0
488,5	0
489	0
489,4	0,001
489,9	0,001
490,4	0,001
490,8	0,001
491,3	0
491,7	0
492,2	0
492,6	0
493,1	0,001
493,5	0,001
494	0,001
494,4	0,001
494,9	0,001
495,3	0,001
495,8	0
496,2	0
496,7	-0
497,1	-0,001
497,6	-0,001
498	-0,001
498,5	-0,001
498,9	0
499,4	0
499,8	0
500,3	0
500,7	-0,001
501,2	-0,001
501,6	-0,001
502,1	-0,001
502,5	-0,001
503	-0,001
503,4	-0
503,9	0
504,3	0
504,8	-0
505,2	-0
505,7	-0,001
506,1	-0
506,6	-0
507	-0,001
507,5	-0
507,9	-0
508,4	-0
508,8	-0,001
509,3	-0,001
509,7	-0
510,2	-0
510,6	-0
511,1	-0
511,5	-0
512	-0
512,4	-0
512,9	-0,001
513,3	-0,001
513,8	-0,001
514,2	-0
514,7	0
515,1	0,001
515,6	0,001
516	0
516,5	0
516,9	-0
517,4	0
517,8	0
518,3	-0
518,7	-0
519,2	0
519,6	0
520,1	0
520,5	-0
521	0
521,4	0
521,9	-0
522,3	-0
522,8	-0
523,2	-0
523,7	0
524,1	-0,001
524,6	-0
525	-0
525,5	0
525,9	-0
526,4	0
526,8	0,001
527,3	0,001
527,7	0
528,2	0
528,6	0,001
529,1	0,001
529,5	0,001
530	0
530,4	0,001
530,9	0,001
531,3	0,001
531,8	0,001
532,2	0,001
532,6	0,001
533,1	0,001
533,5	0,002
534	0,001
534,4	0,002
534,9	0,002
535,3	0,001
535,8	0,001
536,2	0,001
536,7	0
537,1	0,001
537,6	-0
538	-0
538,5	-0
538,9	-0
539,4	0
539,8	0
540,3	0
540,7	0
541,2	0
541,6	0
542,1	0
542,5	0
543	-0
543,4	-0,001
543,9	-0,001
544,3	-0
544,8	-0
545,2	0
545,7	0
546,1	0,001
546,5	0,002
547	0,002
547,4	0,001
547,9	0,001
548,3	0,001
548,8	0,001
549,2	0
549,7	0
550,1	-0
550,6	-0
551	0
551,5	0
551,9	0
552,4	0,001
552,8	0
553,3	0,001
553,7	0
554,2	0
554,6	0
555,1	0
555,5	0
555,9	0
556,4	0
556,8	0
557,3	0
557,7	0
558,2	0
558,6	0
559,1	-0
559,5	0
560	0,001
560,4	0,001
560,9	0,001
561,3	0,001
561,8	0,002
562,2	0,002
562,7	0,001
563,1	0,001
563,6	0
564	0
564,4	0
564,9	-0
565,3	-0,001
565,8	0
566,2	-0
566,7	0
567,1	0,001
567,6	0
568	0
568,5	0
568,9	-0
569,4	-0
569,8	-0
570,3	-0,001
570,7	-0
571,1	-0
571,6	-0
572	-0
572,5	0
572,9	0,001
573,4	0,001
573,8	0,001
574,3	0,001
574,7	0,001
575,2	0,001
575,6	0,001
576,1	0,001
576,5	0
576,9	0
577,4	0
577,8	0
578,3	0
578,7	-0
579,2	-0
579,6	-0
580,1	-0
580,5	-0
581	-0
581,4	-0,001
581,9	-0,001
582,3	-0,001
582,7	-0,001
583,2	-0,001
583,6	-0
584,1	-0
584,5	-0
585	-0
585,4	0
585,9	0
586,3	0
586,8	0,001
587,2	0,001
587,6	0,001
588,1	0,001
588,5	0,001
589	0,001
589,4	0,001
589,9	0,001
590,3	0,001
590,8	0,001
591,2	0
591,7	0,001
592,1	0
592,5	0
593	0
593,4	0
593,9	0
594,3	0
594,8	0
595,2	0
595,7	0
596,1	0
596,6	-0
597	0
597,4	0
597,9	0
598,3	0
598,8	0,001
599,2	0,001
599,7	0,001
600,1	0
600,6	0,001
601	0
601,4	0
601,9	-0
602,3	-0
602,8	0
603,2	0
603,7	-0
604,1	-0
604,6	0
605	0,001
605,4	0
605,9	0,001
606,3	0,001
606,8	0
607,2	0
607,7	-0
608,1	-0
608,6	-0,001
609	-0,001
609,4	-0
609,9	-0
610,3	-0
610,8	-0,001
611,2	-0
611,7	0
612,1	0
612,6	0
613	0
613,4	0
613,9	0
614,3	0
614,8	-0
615,2	-0
615,7	-0
616,1	-0
616,6	0
617	0
617,4	0
617,9	0
618,3	-0
618,8	-0
619,2	-0
619,7	-0
620,1	-0
620,5	0
621	0
621,4	0,001
621,9	0,001
622,3	0,001
622,8	0,001
623,2	0
623,6	0
624,1	0
624,5	0
625	-0
625,4	-0
625,9	-0
626,3	-0
626,8	0
627,2	-0
627,6	0
628,1	0,001
628,5	0,001
629	0,002
629,4	0,002
629,9	0,001
630,3	0,001
630,7	0,001
631,2	0,001
631,6	0,001
632,1	0
632,5	0
633	0,001
633,4	0
633,8	0
634,3	0
634,7	0
635,2	0
635,6	-0
636,1	0
636,5	0,001
636,9	0,001
637,4	0,001
637,8	0,001
638,3	0,001
638,7	0,001
639,2	0
639,6	0
640	0
640,5	0
640,9	0,001
641,4	0
641,8	0,001
642,2	0,001
642,7	0
643,1	0
643,6	0
644	0
644,5	0
644,9	0
645,3	0
645,8	0,001
646,2	0,001
646,7	0,001
647,1	0,001
647,6	0,001
648	0
648,4	0
648,9	0
649,3	0
649,8	0,001
650,2	0
650,6	0,001
651,1	0,001
651,5	0,001
652	0,001
652,4	0,001
652,9	0,001
653,3	0
653,7	-0
654,2	-0
654,6	0
655,1	0,001
655,5	0
655,9	0
656,4	0
656,8	0
657,3	0
657,7	0
658,2	0
658,6	0
659	0
659,5	0,001
659,9	0,001
660,4	0,001
660,8	0,001
661,2	0,001
661,7	0,001
662,1	0,001
662,6	0,001
663	0,001
663,4	0,001
663,9	0,001
664,3	0,001
664,8	0
665,2	0
665,6	0
666,1	0,001
666,5	0,001
667	0,001
667,4	0,001
667,9	0,001
668,3	0,001
668,7	0,001
669,2	0,001
669,6	0,001
670,1	0,001
670,5	0,001
670,9	0,001
671,4	0,001
671,8	0,001
672,3	0,001
672,7	0
673,1	0
673,6	0
674	0
674,5	0,001
674,9	0,001
675,3	0,001
675,8	0,001
676,2	0
676,7	0
677,1	0
677,5	0
678	-0
678,4	-0
678,9	-0
679,3	0
679,7	0
680,2	0,001
680,6	0,001
681,1	0,001
681,5	0,001
681,9	0,001
682,4	0,001
682,8	0,001
683,3	0,001
683,7	0,001
684,1	0,001
684,6	0,001
685	0,001
685,5	0,001
685,9	0,001
686,3	0
686,8	0
687,2	0,001
687,7	0
688,1	0
688,5	0
689	0
689,4	0,001
689,9	0,001
690,3	0
690,7	0,001
691,2	0,001
691,6	0,001
692	0,001
692,5	0,001
692,9	0,001
693,4	0,001
693,8	0,001
694,2	0,001
694,7	0,001
695,1	0
695,6	0
696	0
696,4	0,001
696,9	0
697,3	0,001
697,8	0,001
698,2	0,001
698,6	0,001
699,1	0,001
699,5	0,001
699,9	0
700,4	0,001
700,8	0,001
701,3	0,001
701,7	0,001
702,1	0
702,6	0
703	0,001
703,5	0,001
703,9	0,001
704,3	0,001
704,8	0,001
705,2	0,001
705,6	0,001
706,1	0,001
706,5	0,001
707	0,001
707,4	0
707,8	-0
708,3	-0
708,7	-0
709,2	-0
709,6	-0,001
710	-0,001
710,5	-0
710,9	0
711,3	0,001
711,8	0,001
712,2	0,001
712,7	0,001
713,1	0,001
713,5	0,001
714	0,001
714,4	0,001
714,8	0,001
715,3	0,001
715,7	0,001
716,2	0,001
716,6	0,001
717	0
717,5	0
717,9	-0
718,3	-0
718,8	0
719,2	0
719,7	0
720,1	0,001
720,5	0,001
721	0
721,4	0,001
721,8	0
722,3	0
722,7	0
723,2	0
723,6	-0
724	-0
724,5	-0
724,9	-0
725,3	-0
725,8	-0
726,2	0
726,7	0,001
727,1	0,001
727,5	0,001
728	0
728,4	0
728,8	0
729,3	-0
729,7	-0
730,1	-0
730,6	-0
731	0
731,5	0,001
731,9	0
732,3	0
732,8	0
733,2	0,001
733,6	0,001
734,1	0,001
734,5	0
734,9	0
735,4	0,001
735,8	0
736,3	0
736,7	0
737,1	0,001
737,6	0,001
738	0,001
738,4	0,001
738,9	0,001
739,3	0,001
739,7	0,001
740,2	0,001
740,6	0,001
741,1	0,001
741,5	0,001
741,9	0,001
742,4	0,001
742,8	0,001
743,2	0,001
743,7	0,001
744,1	0,001
744,5	0,001
745	0,001
745,4	0,001
745,8	0,002
746,3	0,002
746,7	0,002
747,2	0,001
747,6	0,001
748	0,001
748,5	0,001
748,9	0,001
749,3	0,001
749,8	0,001
750,2	0
750,6	0
751,1	-0
751,5	-0
751,9	0
752,4	0
752,8	0
753,3	0,001
753,7	0,001
754,1	0,001
754,6	0,001
755	0
755,4	0
755,9	-0
756,3	-0
756,7	-0
757,2	-0
757,6	0
758	-0
758,5	0
758,9	0
759,3	0
759,8	0
760,2	0
760,6	0
761,1	0
761,5	0
761,9	0
762,4	0
762,8	0
763,3	0
763,7	0
764,1	0
764,6	-0
765	0
765,4	0
765,9	-0
766,3	0
766,7	-0
767,2	-0
767,6	-0
768	-0
768,5	-0
768,9	-0
769,3	-0
769,8	-0
770,2	-0
770,6	-0
771,1	-0
771,5	-0
771,9	-0
772,4	0
772,8	0
773,2	0
773,7	0,001
774,1	0,001
774,5	0,001
775	0,001
775,4	0,001
775,8	0,002
776,3	0,002
776,7	0,001
777,1	0,002
777,6	0,002
778	0,002
778,4	0,002
778,9	0,002
779,3	0,002
779,7	0,002
780,2	0,002
780,6	0,001
781	0,001
781,5	0,001
781,9	0,001
782,3	0,001
782,8	0,001
783,2	0,001
783,6	0,001
784,1	0
784,5	0
784,9	0
785,4	0
785,8	0
786,2	0
786,7	0
787,1	0
787,5	0
788	0
788,4	0
788,8	0
789,3	0
789,7	0
790,1	0
790,6	0
791	-0
791,4	-0
791,9	-0
792,3	0
792,7	0
793,2	0
793,6	0
794	0,001
794,5	0,001
794,9	0,001
795,3	0,001
795,8	0,001
796,2	0,001
796,6	0,001
797,1	0,001
797,5	0,001
797,9	0
798,4	0
798,8	0
799,2	-0
799,7	-0
800,1	0
800,5	0
801	0
801,4	0
801,8	0
802,2	0
802,7	0,001
803,1	0,001
803,5	0
804	0
804,4	0
804,8	-0
805,3	-0
805,7	-0
806,1	-0,001
806,6	-0
807	0
807,4	0
807,9	0,001
808,3	0,001
808,7	0,001
809,2	0
809,6	0
810	0
810,4	0
810,9	0
811,3	0
811,7	0
812,2	0
812,6	0,001
813	0,001
813,5	0,001
813,9	0,001
814,3	0,001
814,8	0,001
815,2	0,001
815,6	0,001
816,1	0,001
816,5	0,001
816,9	0,001
817,3	0,001
817,8	0,001
818,2	0,001
818,6	0
819,1	0
819,5	0
819,9	0
820,4	0
820,8	0,001
821,2	0,001
821,7	0,001
822,1	0,001
822,5	0,001
822,9	0,001
823,4	0,001
823,8	0
824,2	0
824,7	0
825,1	0
825,5	0
826	0,001
826,4	0,001
826,8	0,001
827,3	0,002
827,7	0,002
828,1	0,002
828,5	0,001
829	0,001
829,4	0,001
829,8	0,001
830,3	0,001
830,7	0,001
831,1	0,001
831,6	0,001
832	0,001
832,4	0,001
832,8	0,001
833,3	0,001
833,7	0,001
834,1	0,001
834,6	0,001
835	0
835,4	0,001
835,8	0,001
836,3	0,001
836,7	0,001
837,1	0,001
837,6	0,001
838	0
838,4	-0
838,9	0
839,3	-0
839,7	-0
840,1	0
840,6	-0
841	-0
841,4	-0
841,9	-0,001
842,3	-0,001
842,7	-0,001
843,1	-0,001
843,6	-0,001
844	-0,001
844,4	-0,001
844,9	-0
845,3	-0
845,7	-0
846,2	-0
846,6	0
847	0
847,4	0
847,9	0
848,3	0
848,7	0,001
849,2	0,001
849,6	0,001
850	0,001
850,4	0,001
850,9	0,001
851,3	0,002
851,7	0,002
852,2	0,002
852,6	0,002
853	0,002
853,4	0,002
853,9	0,002
854,3	0,002
854,7	0,001
855,2	0,001
855,6	0,001
856	0,001
856,4	0,002
856,9	0,002
857,3	0,002
857,7	0,002
858,2	0,002
858,6	0,002
859	0,001
859,4	0,001
859,9	0,001
860,3	0,001
860,7	0,001
861,1	0,001
861,6	0,001
862	0,001
862,4	0,001
862,9	0,001
863,3	0,001
863,7	0,001
864,1	0,001
864,6	0
865	0,001
865,4	0,001
865,9	0,001
866,3	0,001
866,7	0,001
867,1	0
867,6	-0
868	-0
868,4	-0
868,8	-0
869,3	-0
869,7	-0
870,1	0
870,6	0,001
871	0,001
871,4	0,001
871,8	0
872,3	0
872,7	0,001
873,1	0,001
873,5	0,001
874	0,001
874,4	0,001
874,8	0,001
875,3	0,001
875,7	0,001
876,1	0
876,5	-0
877	0
877,4	-0
877,8	-0
878,2	-0,001
878,7	-0,001
879,1	-0
879,5	-0
879,9	0
880,4	0
880,8	0,001
881,2	0,001
881,7	0,001
882,1	0,001
882,5	0,001
882,9	0,001
883,4	0,001
883,8	0
884,2	0
884,6	0
885,1	-0
885,5	-0
885,9	-0
886,3	-0,001
886,8	-0,001
887,2	-0
887,6	-0
888	-0
888,5	-0
888,9	0
889,3	0,001
889,8	0,001
890,2	0,001
890,6	0,001
891	0,001
891,5	0,001
891,9	0,001
892,3	0,001
892,7	0,001
893,2	0
893,6	-0
894	-0
894,4	-0
894,9	-0
895,3	-0
895,7	-0
896,1	-0
896,6	-0
897	0
897,4	0
897,8	0
898,3	0
898,7	0
899,1	0,001
899,5	0,001
900	0,001
900,4	0,001
900,8	0,001
901,2	0,001
901,7	-0
902,1	-0
902,5	-0,001
902,9	-0,001
903,4	-0,001
903,8	-0
904,2	-0,001
904,6	-0
905,1	-0
905,5	0
905,9	0
906,3	0
906,8	-0
907,2	-0
907,6	-0
908	0
908,5	0
908,9	0
909,3	0
909,7	0,001
910,2	0,001
910,6	0,001
911	0,001
911,4	0,001
911,9	0,001
912,3	0,001
912,7	0,001
913,1	0,001
913,6	0,001
914	0,001
914,4	0,001
914,8	0,001
915,3	0,001
915,7	0,001
916,1	0,001
916,5	0,001
916,9	0,001
917,4	0
917,8	0
918,2	0
918,6	0
919,1	-0
919,5	-0
919,9	-0
920,3	0
920,8	-0
921,2	-0
921,6	0
922	0
922,5	0
922,9	-0
923,3	0
923,7	0
924,2	0
924,6	0
925	0
925,4	-0
925,8	0,001
926,3	0,001
926,7	0,001
927,1	0,001
927,5	0,001
928	0,001
928,4	0,001
928,8	0,001
929,2	0,001
929,7	0,001
930,1	0,001
930,5	0,001
930,9	0,001
931,3	0
931,8	0,001
932,2	0,001
932,6	0,001
933	0
933,5	0
933,9	0
934,3	0,001
934,7	0
935,2	0
935,6	0
936	0
936,4	0
936,8	0
937,3	0
937,7	0
938,1	0
938,5	0
939	0,001
939,4	0,001
939,8	0,001
940,2	0
940,6	0
941,1	0
941,5	-0
941,9	-0
942,3	0
942,8	0,001
943,2	0
943,6	0
944	-0
944,4	-0
944,9	-0
945,3	-0
945,7	-0,001
946,1	0
946,6	0,001
947	0,001
947,4	0,001
947,8	0,001
948,2	0,001
948,7	0,001
949,1	0,001
949,5	0
949,9	0,001
950,3	0
950,8	0
951,2	0,001
951,6	0
952	0,001
952,5	0
952,9	0
953,3	0
953,7	0
954,1	0
954,6	0
955	-0
955,4	0
955,8	0
956,2	0,001
956,7	0,001
957,1	0,001
957,5	0,001
957,9	0,001
958,3	0,001
958,8	0,001
959,2	0,001
959,6	0
960	-0
960,5	-0,001
960,9	-0,001
961,3	-0,001
961,7	-0,001
962,1	-0,001
962,6	-0,001
963	-0
963,4	0
963,8	0,001
964,2	0,001
964,7	0,001
965,1	0,001
965,5	0,001
965,9	0,001
966,3	0,001
966,8	0,001
967,2	0,001
967,6	0,001
968	0
968,4	0,001
968,9	0,001
969,3	0,001
969,7	0,001
970,1	0,001
970,5	0,002
971	0,002
971,4	0,002
971,8	0,002
972,2	0,002
972,6	0,001
973,1	0,001
973,5	0,001
973,9	0
974,3	0
974,7	0
975,2	0,001
975,6	0,002
976	0,001
976,4	0,002
976,8	0,002
977,3	0,002
977,7	0,001
978,1	0,001
978,5	0
978,9	0,001
979,4	0
979,8	0
980,2	0
980,6	0
981	0
981,5	0
981,9	0
982,3	0,001
982,7	0,001
983,1	0,001
983,6	0
984	0
984,4	-0
984,8	-0
985,2	-0,001
985,6	-0,001
986,1	-0
986,5	0,001
986,9	0,001
987,3	0,002
987,7	0,002
988,2	0,002
988,6	0,002
989	0,002
989,4	0,002
989,8	0,002
990,3	0,002
990,7	0,003
991,1	0,003
991,5	0,002
991,9	0,002
992,3	0,002
992,8	0,002
993,2	0,002
993,6	0,002
994	0,002
994,4	0,002
994,9	0,001
995,3	0,001
995,7	0,001
996,1	0,001
996,5	0,001
996,9	0,001
997,4	0,001
997,8	0,001
998,2	0,001
998,6	0,001
999	0,001
999,5	0,001
999,9	0,001
1000,3	0,001
1000,7	0,001
1001,1	0,001
1001,5	0,001
1002	0,001
1002,4	0,001
1002,8	0,001
1003,2	0,001
1003,6	0,001
1004	0,001
1004,5	0,001
1004,9	0,001
1005,3	0,001
1005,7	0,001
1006,1	0
1006,6	0
1007	0
1007,4	0
1007,8	-0,001
1008,2	0
1008,6	-0
1009,1	-0
1009,5	-0
1009,9	-0
1010,3	0
1010,7	0
1011,1	-0
1011,6	0
1012	-0
1012,4	-0
1012,8	-0
1013,2	-0,001
1013,6	-0,001
1014,1	-0
1014,5	-0,001
1014,9	-0,001
1015,3	-0,001
1015,7	-0,001
1016,1	-0,001
1016,6	-0
1017	-0,001
1017,4	-0
1017,8	-0
1018,2	-0,001
1018,6	-0
1019,1	-0
1019,5	-0
1019,9	-0,001
1020,3	-0
1020,7	0
1021,1	0
1021,6	0
1022	-0
1022,4	-0
1022,8	0
1023,2	-0,001
1023,6	-0,001
1024,1	-0,001
1024,5	-0,001
1024,9	-0,001
1025,3	-0,001
1025,7	-0,001
1026,1	-0,001
1026,6	0
1027	-0
1027,4	-0,001
1027,8	-0,001
1028,2	-0,001
1028,6	-0,001
1029	-0,001
1029,5	-0,001
1029,9	-0,001
1030,3	-0,001
1030,7	-0,001
1031,1	-0,001
1031,5	-0,001
1032	-0
1032,4	-0,001
1032,8	-0,001
1033,2	-0,001
1033,6	-0,001
1034	-0
1034,4	-0,001
1034,9	-0,001
1035,3	-0
1035,7	-0
1036,1	0
1036,5	-0
1036,9	0
1037,4	0,002
1037,8	0,002
1038,2	0,001
1038,6	0,002
1039	0,002
1039,4	0,002
1039,8	0,001
1040,3	0
1040,7	0
1041,1	0
1041,5	-0,001
1041,9	0
1042,3	-0,001
1042,7	-0,001
1043,2	-0,001
1043,6	-0,001
1044	-0
1044,4	-0
1044,8	-0
1045,2	0,001
1045,6	0
1046,1	0
1046,5	0
1046,9	0
1047,3	-0
1047,7	0
1048,1	0,001
1048,5	0
1049	0
1049,4	0,001
1049,8	0,002
1050,2	0,002
1050,6	0,002
1051	0,003
1051,4	0,003
1051,9	0,002
1052,3	0,001
1052,7	-0
1053,1	-0,001
1053,5	-0,002
1053,9	-0,002
1054,3	-0,001
1054,8	-0
1055,2	0
1055,6	0
1056	0,001
1056,4	0,002
1056,8	0,002
1057,2	0,001
1057,6	0,001
1058,1	0,002
1058,5	0,002
1058,9	0,001
1059,3	0,001
1059,7	0,001
1060,1	-0
1060,5	0
1061	-0
1061,4	-0
1061,8	0
1062,2	0,001
1062,6	0,001
1063	0,002
1063,4	0,002
1063,8	0,003
1064,3	0,004
1064,7	0,004
1065,1	0,004
1065,5	0,003
1065,9	0,003
1066,3	0,002
1066,7	0,003
1067,1	0,002
1067,6	0,001
1068	0,002
1068,4	0,002
1068,8	0,001
1069,2	0,002
1069,6	0,001
1070	0,002
1070,4	0,002
1070,9	0,001
1071,3	0,001
1071,7	0,002
1072,1	0,002
1072,5	0,003
1072,9	0,003
1073,3	0,001
1073,7	0,003
1074,2	0,003
1074,6	0,002
1075	0,002
1075,4	0,002
1075,8	0,002
1076,2	0,001
1076,6	0
1077	-0
1077,5	0
1077,9	-0,001
1078,3	-0,002
1078,7	-0,003
1079,1	-0,002
1079,5	-0,002
1079,9	-0,001
1080,3	-0,001
1080,7	-0
1081,2	0
1081,6	-0
1082	0,002
1082,4	0,003
1082,8	0,002
1083,2	0,002
1083,6	0,001
1084	0
1084,5	-0,001
1084,9	-0,004
1085,3	-0,004
1085,7	-0,003
1086,1	-0,005
1086,5	-0,005
1086,9	-0,005
1087,3	-0,003
1087,7	-0,001
1088,2	-0,001
1088,6	-0,002
1089	-0
1089,4	0,002
1089,8	0,004
1090,2	0,004
1090,6	0,001
1091	0,001
1091,4	0,003
1091,9	0,004
1092,3	0,004
1092,7	0,006
1093,1	0,006
1093,5	0,008
1093,9	0,012
1094,3	0,014
1094,7	0,009
1095,1	0,006
1095,5	0,001
1096	-0,001
1096,4	-0,001
1096,8	-0,004
1097,2	-0,007
1097,6	-0,001
1098	-0,003
1098,4	-0,001
1098,8	0,003
1099,2	0,003
1099,6	0,001
1100,1	-0,006
1100,5	-0,01
1100,9	-0,014
1101,3	-0,017
1101,7	-0,017
1102,1	-0,019
1102,5	-0,023
1102,9	-0,019
1103,3	-0,021
1103,7	-0,001
1104,2	0,003
1104,6	-0,002
1105	0,001
1105,4	0,009
1105,8	0,006
1106,2	0,012
1106,6	0,003
1107	-0,003
1107,4	0,005
1107,8	0,008
1108,3	-0
