Data from Absorbance_00011.txt Node
Date: Thu Aug 10 15:02:11 MSK 2023
User: vat
Spectrometer: MAYP114033
Trigger mode: 0
Integration Time (sec): 8,000000E-3
Scans to average: 10
Electric dark correction enabled: true
Nonlinearity correction enabled: false
Boxcar width: 3
XAxis mode: Wavelengths
Number of Pixels in Spectrum: 2068
>>>>>Begin Spectral Data<<<<<
199,4	-0
199,9	0,913
200,4	0,701
200,8	0,929
201,3	0,995
201,8	0,997
202,2	1
202,7	1,006
203,2	1,059
203,6	1,094
204,1	1,115
204,6	1,106
205	1,142
205,5	1,177
206	1,216
206,4	1,238
206,9	1,248
207,4	1,254
207,8	1,288
208,3	1,271
208,8	1,285
209,2	1,287
209,7	1,288
210,2	1,316
210,6	1,328
211,1	1,346
211,5	1,368
212	1,383
212,5	1,404
212,9	1,418
213,4	1,428
213,9	1,438
214,3	1,439
214,8	1,478
215,3	1,466
215,7	1,471
216,2	1,483
216,7	1,493
217,1	1,506
217,6	1,513
218,1	1,5
218,5	1,526
219	1,54
219,5	1,562
219,9	1,562
220,4	1,581
220,9	1,6
221,3	1,631
221,8	1,641
222,3	1,662
222,7	1,666
223,2	1,697
223,6	1,697
224,1	1,722
224,6	1,74
225	1,76
225,5	1,78
226	1,797
226,4	1,803
226,9	1,833
227,4	1,849
227,8	1,853
228,3	1,867
228,8	1,873
229,2	1,887
229,7	1,916
230,2	1,931
230,6	1,937
231,1	1,953
231,5	1,972
232	1,964
232,5	1,978
232,9	1,966
233,4	2
233,9	2,009
234,3	1,993
234,8	1,996
235,3	2,031
235,7	2,035
236,2	2,045
236,7	2,014
237,1	2,019
237,6	2,048
238,1	2,06
238,5	2,057
239	2,09
239,4	2,109
239,9	2,14
240,4	2,159
240,8	2,178
241,3	2,175
241,8	2,203
242,2	2,185
242,7	2,173
243,2	2,182
243,6	2,177
244,1	2,178
244,6	2,181
245	2,171
245,5	2,176
245,9	2,162
246,4	2,136
246,9	2,12
247,3	2,123
247,8	2,113
248,3	2,103
248,7	2,099
249,2	2,137
249,7	2,155
250,1	2,171
250,6	2,171
251	2,185
251,5	2,21
252	2,213
252,4	2,209
252,9	2,214
253,4	2,228
253,8	2,238
254,3	2,244
254,8	2,237
255,2	2,243
255,7	2,259
256,1	2,269
256,6	2,279
257,1	2,267
257,5	2,265
258	2,268
258,5	2,265
258,9	2,273
259,4	2,281
259,9	2,3
260,3	2,28
260,8	2,299
261,2	2,299
261,7	2,289
262,2	2,255
262,6	2,259
263,1	2,216
263,6	2,215
264	2,203
264,5	2,189
264,9	2,219
265,4	2,226
265,9	2,211
266,3	2,208
266,8	2,228
267,3	2,219
267,7	2,231
268,2	2,2
268,7	2,226
269,1	2,213
269,6	2,233
270	2,234
270,5	2,22
271	2,208
271,4	2,239
271,9	2,227
272,4	2,24
272,8	2,247
273,3	2,236
273,7	2,27
274,2	2,299
274,7	2,273
275,1	2,269
275,6	2,28
276,1	2,286
276,5	2,297
277	2,296
277,4	2,273
277,9	2,266
278,4	2,261
278,8	2,248
279,3	2,228
279,8	2,22
280,2	2,228
280,7	2,244
281,1	2,265
281,6	2,25
282,1	2,267
282,5	2,287
283	2,304
283,4	2,285
283,9	2,285
284,4	2,3
284,8	2,31
285,3	2,321
285,8	2,301
286,2	2,287
286,7	2,282
287,1	2,256
287,6	2,235
288,1	2,225
288,5	2,173
289	2,145
289,5	2,107
289,9	2,062
290,4	2,021
290,8	1,961
291,3	1,913
291,8	1,87
292,2	1,832
292,7	1,8
293,1	1,771
293,6	1,743
294,1	1,729
294,5	1,708
295	1,692
295,5	1,676
295,9	1,66
296,4	1,642
296,8	1,634
297,3	1,618
297,8	1,609
298,2	1,601
298,7	1,593
299,1	1,587
299,6	1,583
300,1	1,573
300,5	1,571
301	1,562
301,5	1,552
301,9	1,545
302,4	1,532
302,8	1,523
303,3	1,514
303,8	1,501
304,2	1,491
304,7	1,483
305,1	1,476
305,6	1,47
306,1	1,46
306,5	1,446
307	1,438
307,4	1,429
307,9	1,42
308,4	1,409
308,8	1,398
309,3	1,389
309,8	1,382
310,2	1,369
310,7	1,358
311,1	1,345
311,6	1,332
312,1	1,322
312,5	1,311
313	1,3
313,4	1,288
313,9	1,279
314,4	1,268
314,8	1,257
315,3	1,243
315,7	1,231
316,2	1,22
316,7	1,209
317,1	1,196
317,6	1,184
318	1,172
318,5	1,161
319	1,148
319,4	1,135
319,9	1,123
320,3	1,11
320,8	1,096
321,3	1,087
321,7	1,074
322,2	1,061
322,6	1,05
323,1	1,037
323,6	1,025
324	1,013
324,5	0,998
324,9	0,986
325,4	0,974
325,9	0,961
326,3	0,95
326,8	0,937
327,2	0,925
327,7	0,914
328,2	0,9
328,6	0,888
329,1	0,875
329,5	0,863
330	0,851
330,5	0,838
330,9	0,826
331,4	0,814
331,8	0,802
332,3	0,791
332,8	0,778
333,2	0,765
333,7	0,754
334,1	0,742
334,6	0,731
335,1	0,719
335,5	0,707
336	0,695
336,4	0,684
336,9	0,673
337,4	0,661
337,8	0,649
338,3	0,638
338,7	0,627
339,2	0,616
339,7	0,605
340,1	0,594
340,6	0,584
341	0,574
341,5	0,563
342	0,553
342,4	0,542
342,9	0,532
343,3	0,522
343,8	0,513
344,2	0,504
344,7	0,494
345,2	0,485
345,6	0,476
346,1	0,466
346,5	0,458
347	0,45
347,5	0,441
347,9	0,434
348,4	0,425
348,8	0,418
349,3	0,411
349,8	0,403
350,2	0,395
350,7	0,387
351,1	0,379
351,6	0,372
352	0,365
352,5	0,358
353	0,351
353,4	0,345
353,9	0,338
354,3	0,332
354,8	0,326
355,3	0,321
355,7	0,315
356,2	0,309
356,6	0,304
357,1	0,298
357,5	0,293
358	0,287
358,5	0,281
358,9	0,276
359,4	0,271
359,8	0,266
360,3	0,262
360,8	0,257
361,2	0,253
361,7	0,249
362,1	0,245
362,6	0,24
363	0,236
363,5	0,233
364	0,229
364,4	0,225
364,9	0,221
365,3	0,218
365,8	0,214
366,3	0,211
366,7	0,207
367,2	0,203
367,6	0,201
368,1	0,197
368,5	0,194
369	0,191
369,5	0,188
369,9	0,185
370,4	0,183
370,8	0,179
371,3	0,177
371,7	0,175
372,2	0,172
372,7	0,17
373,1	0,168
373,6	0,165
374	0,163
374,5	0,16
374,9	0,158
375,4	0,156
375,9	0,154
376,3	0,152
376,8	0,149
377,2	0,147
377,7	0,146
378,2	0,143
378,6	0,141
379,1	0,139
379,5	0,138
380	0,135
380,4	0,133
380,9	0,131
381,4	0,13
381,8	0,128
382,3	0,126
382,7	0,124
383,2	0,122
383,6	0,121
384,1	0,119
384,6	0,118
385	0,116
385,5	0,114
385,9	0,112
386,4	0,111
386,8	0,109
387,3	0,108
387,7	0,106
388,2	0,105
388,7	0,104
389,1	0,103
389,6	0,101
390	0,101
390,5	0,099
390,9	0,098
391,4	0,097
391,9	0,096
392,3	0,094
392,8	0,093
393,2	0,091
393,7	0,09
394,1	0,088
394,6	0,087
395,1	0,086
395,5	0,085
396	0,084
396,4	0,084
396,9	0,083
397,3	0,082
397,8	0,08
398,2	0,079
398,7	0,078
399,2	0,077
399,6	0,074
400,1	0,073
400,5	0,072
401	0,071
401,4	0,069
401,9	0,067
402,4	0,066
402,8	0,066
403,3	0,065
403,7	0,063
404,2	0,063
404,6	0,062
405,1	0,062
405,5	0,061
406	0,059
406,5	0,059
406,9	0,058
407,4	0,056
407,8	0,055
408,3	0,054
408,7	0,054
409,2	0,053
409,6	0,052
410,1	0,051
410,6	0,051
411	0,05
411,5	0,049
411,9	0,049
412,4	0,047
412,8	0,047
413,3	0,047
413,7	0,046
414,2	0,045
414,7	0,044
415,1	0,042
415,6	0,042
416	0,041
416,5	0,04
416,9	0,038
417,4	0,038
417,8	0,037
418,3	0,037
418,8	0,036
419,2	0,035
419,7	0,035
420,1	0,034
420,6	0,033
421	0,031
421,5	0,031
421,9	0,03
422,4	0,029
422,8	0,028
423,3	0,028
423,8	0,028
424,2	0,027
424,7	0,027
425,1	0,026
425,6	0,025
426	0,024
426,5	0,023
426,9	0,022
427,4	0,022
427,9	0,021
428,3	0,02
428,8	0,019
429,2	0,02
429,7	0,02
430,1	0,019
430,6	0,018
431	0,018
431,5	0,018
431,9	0,018
432,4	0,017
432,8	0,016
433,3	0,015
433,8	0,015
434,2	0,014
434,7	0,014
435,1	0,013
435,6	0,013
436	0,013
436,5	0,014
436,9	0,013
437,4	0,013
437,8	0,013
438,3	0,012
438,8	0,012
439,2	0,011
439,7	0,011
440,1	0,01
440,6	0,01
441	0,01
441,5	0,01
441,9	0,009
442,4	0,008
442,8	0,008
443,3	0,008
443,7	0,008
444,2	0,007
444,7	0,008
445,1	0,007
445,6	0,008
446	0,007
446,5	0,008
446,9	0,008
447,4	0,008
447,8	0,007
448,3	0,006
448,7	0,006
449,2	0,006
449,6	0,005
450,1	0,005
450,6	0,004
451	0,005
451,5	0,005
451,9	0,005
452,4	0,005
452,8	0,005
453,3	0,005
453,7	0,005
454,2	0,005
454,6	0,005
455,1	0,004
455,5	0,004
456	0,004
456,4	0,004
456,9	0,004
457,3	0,004
457,8	0,003
458,3	0,003
458,7	0,004
459,2	0,003
459,6	0,003
460,1	0,003
460,5	0,003
461	0,003
461,4	0,002
461,9	0,002
462,3	0,002
462,8	0,003
463,2	0,002
463,7	0,003
464,1	0,003
464,6	0,003
465	0,003
465,5	0,003
466	0,003
466,4	0,002
466,9	0,002
467,3	0,003
467,8	0,002
468,2	0,002
468,7	0,002
469,1	0,002
469,6	0,001
470	0,001
470,5	0,001
470,9	0,001
471,4	0,001
471,8	0
472,3	0
472,7	0,001
473,2	0,001
473,6	0,001
474,1	0,001
474,5	0,001
475	0,001
475,4	0,001
475,9	0,001
476,4	0,001
476,8	0,001
477,3	0,001
477,7	0,001
478,2	0,002
478,6	0,001
479,1	0,001
479,5	0,001
480	0,001
480,4	0,001
480,9	0,002
481,3	0,001
481,8	0,001
482,2	0,001
482,7	0,002
483,1	0,001
483,6	0,001
484	0,001
484,5	0,002
484,9	0,001
485,4	0,001
485,8	0,002
486,3	0,001
486,7	0
487,2	0,001
487,6	0,001
488,1	0,001
488,5	0,001
489	0
489,4	0,001
489,9	0,001
490,4	0,001
490,8	-0
491,3	0
491,7	-0
492,2	-0
492,6	-0
493,1	0
493,5	0
494	0,001
494,4	0,001
494,9	0,001
495,3	0,001
495,8	0,001
496,2	-0
496,7	0
497,1	-0
497,6	-0
498	-0
498,5	-0
498,9	-0
499,4	-0
499,8	-0,001
500,3	-0,001
500,7	-0,001
501,2	-0,001
501,6	-0,001
502,1	-0,001
502,5	-0,001
503	-0
503,4	0
503,9	0
504,3	0
504,8	-0
505,2	0
505,7	-0
506,1	-0
506,6	-0
507	-0
507,5	0
507,9	0,001
508,4	0
508,8	0
509,3	0
509,7	0,001
510,2	0,001
510,6	0,001
511,1	0
511,5	0
512	0,001
512,4	0,001
512,9	-0
513,3	0,001
513,8	0
514,2	0
514,7	0,001
515,1	0,001
515,6	0
516	0
516,5	0
516,9	0
517,4	0,001
517,8	0
518,3	-0
518,7	0
519,2	-0
519,6	-0,001
520,1	-0,001
520,5	-0,001
521	-0
521,4	0
521,9	0
522,3	0,001
522,8	0,001
523,2	0,001
523,7	0,001
524,1	0
524,6	0
525	-0
525,5	-0
525,9	-0,001
526,4	-0
526,8	-0,001
527,3	-0,001
527,7	-0,001
528,2	-0,001
528,6	0
529,1	0,001
529,5	0,001
530	-0
530,4	0,001
530,9	0,001
531,3	0,001
531,8	0,001
532,2	0,001
532,6	0,001
533,1	0,002
533,5	0,002
534	0,002
534,4	0,001
534,9	0,001
535,3	0
535,8	0,001
536,2	0,001
536,7	0
537,1	0,001
537,6	0,001
538	0,001
538,5	0,001
538,9	0,001
539,4	0,001
539,8	0,002
540,3	0,001
540,7	0,002
541,2	0,002
541,6	0,001
542,1	0,001
542,5	0,001
543	0
543,4	0
543,9	-0
544,3	0
544,8	0,001
545,2	0,001
545,7	0,001
546,1	0,001
546,5	0,002
547	0,002
547,4	0,002
547,9	0,001
548,3	0,001
548,8	0,001
549,2	0,001
549,7	0,001
550,1	0,001
550,6	0,001
551	0,001
551,5	0,001
551,9	0,002
552,4	0,002
552,8	0,002
553,3	0,002
553,7	0,001
554,2	0,002
554,6	0,001
555,1	0,001
555,5	0,001
555,9	0
556,4	0,001
556,8	0,001
557,3	0,001
557,7	0,001
558,2	0,001
558,6	0
559,1	0,001
559,5	0
560	0,001
560,4	0,001
560,9	0,001
561,3	0,001
561,8	0,001
562,2	0,001
562,7	0,001
563,1	0
563,6	0,001
564	0
564,4	0,001
564,9	-0
565,3	-0
565,8	-0
566,2	-0,001
566,7	-0,001
567,1	-0
567,6	-0,001
568	-0
568,5	-0
568,9	-0
569,4	-0
569,8	-0
570,3	-0
570,7	-0
571,1	-0
571,6	0
572	-0
572,5	-0
572,9	0
573,4	0
573,8	0
574,3	-0
574,7	-0
575,2	-0
575,6	0
576,1	-0
576,5	-0
576,9	0
577,4	-0
577,8	-0
578,3	-0
578,7	-0
579,2	-0
579,6	-0
580,1	-0
580,5	-0
581	0
581,4	-0
581,9	-0
582,3	-0,001
582,7	-0,001
583,2	-0
583,6	-0
584,1	-0
584,5	0
585	0,001
585,4	0,001
585,9	0,001
586,3	0,001
586,8	0,001
587,2	0,001
587,6	0,001
588,1	0,001
588,5	0,001
589	0,001
589,4	0,001
589,9	0,001
590,3	0
590,8	0,001
591,2	0
591,7	0
592,1	0,001
592,5	0
593	0
593,4	-0
593,9	-0,001
594,3	-0
594,8	-0
595,2	-0
595,7	-0
596,1	-0
596,6	-0
597	0
597,4	0
597,9	0
598,3	0
598,8	0,001
599,2	0
599,7	0
600,1	0
600,6	0
601	0
601,4	0
601,9	-0
602,3	0
602,8	0,001
603,2	0
603,7	0
604,1	0
604,6	0,001
605	0,001
605,4	0
605,9	0
606,3	0,001
606,8	0,001
607,2	0
607,7	-0
608,1	-0
608,6	-0
609	-0
609,4	-0
609,9	-0
610,3	-0
610,8	-0
611,2	-0,001
611,7	-0,001
612,1	-0
612,6	-0,001
613	-0,001
613,4	-0
613,9	-0
614,3	0
614,8	0
615,2	0
615,7	0
616,1	0
616,6	0
617	0,001
617,4	0
617,9	-0
618,3	-0
618,8	-0
619,2	0
619,7	-0
620,1	-0
620,5	-0
621	0
621,4	0,001
621,9	0,001
622,3	0
622,8	-0
623,2	-0
623,6	-0,001
624,1	-0
624,5	-0,001
625	-0,001
625,4	-0
625,9	-0
626,3	-0
626,8	0
627,2	0
627,6	0,001
628,1	0,001
628,5	0
629	0,001
629,4	0,001
629,9	0,001
630,3	0,001
630,7	0,001
631,2	0,001
631,6	0,001
632,1	0
632,5	0
633	0
633,4	0
633,8	-0
634,3	-0
634,7	-0
635,2	-0,001
635,6	-0,001
636,1	-0
636,5	0
636,9	0
637,4	0
637,8	0
638,3	0,001
638,7	0
639,2	0
639,6	-0
640	-0
640,5	-0
640,9	0
641,4	-0
641,8	0
642,2	0,001
642,7	0,001
643,1	0,001
643,6	0,001
644	0,001
644,5	0,001
644,9	0,001
645,3	0,001
645,8	0,001
646,2	0
646,7	0
647,1	0
647,6	0
648	-0
648,4	-0,001
648,9	-0
649,3	-0
649,8	-0
650,2	-0
650,6	-0
651,1	0
651,5	-0
652	-0
652,4	-0
652,9	-0,001
653,3	-0,001
653,7	-0,001
654,2	-0,001
654,6	-0
655,1	0
655,5	0
655,9	0
656,4	0
656,8	0,001
657,3	0,002
657,7	0,002
658,2	0,002
658,6	0,003
659	0,004
659,5	0,005
659,9	0,004
660,4	0,002
660,8	0,001
661,2	0,001
661,7	0,001
662,1	0,001
662,6	0,001
663	0
663,4	0
663,9	0
664,3	-0
664,8	-0,001
665,2	-0,001
665,6	-0
666,1	-0
666,5	-0
667	-0
667,4	-0
667,9	0
668,3	0
668,7	0
669,2	0
669,6	0
670,1	-0
670,5	-0
670,9	-0,001
671,4	-0,001
671,8	-0,001
672,3	-0,001
672,7	-0,001
673,1	-0,001
673,6	-0,001
674	-0,001
674,5	-0,001
674,9	-0
675,3	0
675,8	-0
676,2	-0
676,7	0
677,1	-0
677,5	-0
678	-0
678,4	-0,001
678,9	-0,001
679,3	-0,001
679,7	-0,001
680,2	-0,001
680,6	-0,001
681,1	-0,001
681,5	-0
681,9	-0
682,4	-0
682,8	0
683,3	-0
683,7	0
684,1	0
684,6	0
685	0
685,5	0
685,9	0,001
686,3	0
686,8	0
687,2	0
687,7	0
688,1	0
688,5	0
689	-0
689,4	0
689,9	0
690,3	0
690,7	0
691,2	0
691,6	0
692	0
692,5	0,001
692,9	0,001
693,4	0
693,8	0
694,2	0
694,7	0,001
695,1	0
695,6	0
696	0
696,4	0
696,9	0
697,3	0
697,8	-0
698,2	0
698,6	0
699,1	-0
699,5	-0
699,9	-0
700,4	-0
700,8	-0
701,3	-0
701,7	0
702,1	0
702,6	0
703	0
703,5	0
703,9	0
704,3	0
704,8	0,001
705,2	0,001
705,6	0,001
706,1	0,001
706,5	0
707	0
707,4	-0
707,8	-0,001
708,3	-0,001
708,7	-0,001
709,2	-0,001
709,6	-0,001
710	-0,001
710,5	-0,001
710,9	-0,001
711,3	-0
711,8	-0
712,2	0
712,7	0
713,1	0
713,5	0
714	0
714,4	0
714,8	0
715,3	-0
715,7	-0
716,2	-0
716,6	-0
717	-0
717,5	-0
717,9	-0
718,3	-0
718,8	0
719,2	0,001
719,7	0,001
720,1	0,001
720,5	0
721	0
721,4	0
721,8	-0
722,3	-0,001
722,7	-0,001
723,2	-0,001
723,6	-0,001
724	-0,001
724,5	-0,001
724,9	-0,001
725,3	-0,001
725,8	-0,001
726,2	-0,001
726,7	-0,001
727,1	-0,001
727,5	-0,001
728	-0,001
728,4	-0,001
728,8	-0,001
729,3	-0,001
729,7	-0,001
730,1	-0,002
730,6	-0,002
731	-0,001
731,5	-0,001
731,9	-0,001
732,3	-0,001
732,8	-0,001
733,2	-0
733,6	-0
734,1	-0
734,5	-0
734,9	0
735,4	0
735,8	0
736,3	0
736,7	0
737,1	0
737,6	0
738	-0
738,4	-0
738,9	-0
739,3	-0
739,7	0
740,2	-0
740,6	-0
741,1	0
741,5	0
741,9	-0
742,4	-0
742,8	-0
743,2	-0
743,7	-0
744,1	-0
744,5	-0
745	0
745,4	-0
745,8	-0
746,3	-0
746,7	-0
747,2	-0
747,6	-0
748	-0
748,5	-0
748,9	-0
749,3	-0
749,8	-0
750,2	-0,001
750,6	-0,001
751,1	-0,001
751,5	-0,001
751,9	-0,001
752,4	-0,001
752,8	-0,001
753,3	-0,001
753,7	-0,001
754,1	-0,001
754,6	-0,001
755	-0,001
755,4	-0,001
755,9	-0,001
756,3	-0,001
756,7	-0,001
757,2	-0,001
757,6	-0,001
758	-0,001
758,5	-0,001
758,9	-0,001
759,3	-0,001
759,8	-0,001
760,2	-0,001
760,6	-0,001
761,1	-0,001
761,5	-0,001
761,9	-0,001
762,4	-0,001
762,8	-0,001
763,3	-0,001
763,7	-0,001
764,1	-0,001
764,6	-0,001
765	-0,001
765,4	-0,001
765,9	-0,001
766,3	-0,001
766,7	-0,001
767,2	-0,002
767,6	-0,001
768	-0,001
768,5	-0,001
768,9	-0,002
769,3	-0,002
769,8	-0,002
770,2	-0,001
770,6	-0,001
771,1	-0,001
771,5	-0,002
771,9	-0,002
772,4	-0,001
772,8	-0,001
773,2	-0,001
773,7	-0,001
774,1	-0,001
774,5	-0
775	-0
775,4	-0
775,8	-0
776,3	-0
776,7	-0
777,1	-0
777,6	-0
778	-0,001
778,4	-0
778,9	-0
779,3	-0
779,7	-0
780,2	-0
780,6	-0
781	-0
781,5	-0,001
781,9	-0,001
782,3	-0
782,8	-0
783,2	-0
783,6	-0
784,1	-0
784,5	-0
784,9	-0
785,4	-0
785,8	0
786,2	0
786,7	0,001
787,1	0,001
787,5	0,001
788	0
788,4	0
788,8	-0
789,3	-0
789,7	-0,001
790,1	-0,001
790,6	-0,001
791	-0,001
791,4	-0,001
791,9	-0
792,3	0
792,7	0
793,2	0
793,6	0
794	0
794,5	0
794,9	0
795,3	-0
795,8	0
796,2	0
796,6	0
797,1	0
797,5	0
797,9	0
798,4	0
798,8	-0
799,2	-0
799,7	-0,001
800,1	-0
800,5	-0,001
801	-0
801,4	-0
801,8	-0
802,2	-0
802,7	0
803,1	0
803,5	0
804	0
804,4	0
804,8	-0
805,3	-0
805,7	-0,001
806,1	-0,001
806,6	-0,001
807	-0
807,4	-0
807,9	-0
808,3	-0
808,7	-0
809,2	-0
809,6	-0
810	-0,001
810,4	-0,001
810,9	-0,001
811,3	-0
811,7	-0,001
812,2	-0
812,6	-0
813	-0
813,5	-0
813,9	0
814,3	-0
814,8	0
815,2	-0
815,6	-0
816,1	-0
816,5	-0
816,9	-0,001
817,3	-0,001
817,8	-0,001
818,2	-0,001
818,6	-0,001
819,1	-0,001
819,5	-0,001
819,9	-0
820,4	-0
820,8	-0
821,2	-0
821,7	-0
822,1	-0,001
822,5	-0,001
822,9	-0,001
823,4	-0,001
823,8	-0,001
824,2	-0,001
824,7	-0,001
825,1	-0,001
825,5	-0,001
826	-0,001
826,4	-0
826,8	-0
827,3	0
827,7	0
828,1	0
828,5	0
829	0,001
829,4	0
829,8	0,001
830,3	0
830,7	0
831,1	0
831,6	-0
832	-0
832,4	-0
832,8	-0,001
833,3	-0,001
833,7	-0,001
834,1	-0,001
834,6	-0,001
835	-0,001
835,4	-0,001
835,8	-0,001
836,3	-0,001
836,7	-0,001
837,1	-0,001
837,6	-0,001
838	-0,001
838,4	-0,002
838,9	-0,002
839,3	-0,002
839,7	-0,002
840,1	-0,002
840,6	-0,001
841	-0,001
841,4	-0,001
841,9	-0,001
842,3	-0,001
842,7	-0,001
843,1	-0,001
843,6	-0,001
844	-0,001
844,4	-0,001
844,9	-0
845,3	-0
845,7	-0
846,2	-0
846,6	-0
847	-0
847,4	-0
847,9	-0,001
848,3	-0
848,7	-0
849,2	-0
849,6	-0
850	-0
850,4	-0
850,9	-0
851,3	-0
851,7	0
852,2	0
852,6	0
853	0,001
853,4	0,001
853,9	0,001
854,3	0,001
854,7	0,001
855,2	0,001
855,6	0,001
856	0,001
856,4	0,001
856,9	0,001
857,3	0
857,7	0
858,2	-0
858,6	-0
859	-0
859,4	-0
859,9	-0,001
860,3	-0,001
860,7	-0,001
861,1	-0,001
861,6	-0,001
862	-0,001
862,4	-0,001
862,9	-0,001
863,3	-0
863,7	-0
864,1	-0
864,6	-0
865	-0
865,4	0
865,9	0
866,3	0
866,7	0
867,1	0
867,6	0
868	-0
868,4	-0
868,8	-0
869,3	-0
869,7	-0,001
870,1	-0,001
870,6	-0,001
871	-0,001
871,4	-0,001
871,8	-0,001
872,3	-0,001
872,7	-0
873,1	-0
873,5	-0
874	-0
874,4	-0,001
874,8	-0
875,3	-0
875,7	-0
876,1	-0,001
876,5	-0
877	-0
877,4	0
877,8	-0
878,2	-0
878,7	-0
879,1	-0
879,5	-0,001
879,9	-0,001
880,4	-0,001
880,8	-0,001
881,2	-0,001
881,7	-0,002
882,1	-0,001
882,5	-0,002
882,9	-0,001
883,4	-0,001
883,8	-0,001
884,2	-0,001
884,6	-0,001
885,1	-0,001
885,5	-0,001
885,9	-0,001
886,3	-0,001
886,8	-0,001
887,2	-0,001
887,6	-0,001
888	-0,001
888,5	-0,001
888,9	-0,001
889,3	-0,001
889,8	-0,001
890,2	-0,001
890,6	-0,001
891	-0,001
891,5	-0,001
891,9	-0,001
892,3	-0,001
892,7	-0,001
893,2	-0,002
893,6	-0,002
894	-0,002
894,4	-0,002
894,9	-0,002
895,3	-0,002
895,7	-0,002
896,1	-0,001
896,6	-0,002
897	-0,001
897,4	-0,001
897,8	-0,002
898,3	-0,002
898,7	-0,001
899,1	-0,001
899,5	-0,001
900	-0,001
900,4	-0,001
900,8	-0,001
901,2	-0,001
901,7	-0,001
902,1	-0,001
902,5	-0,001
902,9	-0,001
903,4	-0,001
903,8	-0,001
904,2	-0,001
904,6	-0,001
905,1	-0,001
905,5	-0,001
905,9	-0,001
906,3	-0,001
906,8	-0,001
907,2	-0,001
907,6	-0,001
908	-0,001
908,5	-0,001
908,9	-0,001
909,3	-0,001
909,7	-0,001
910,2	-0,001
910,6	-0,001
911	-0,001
911,4	-0,001
911,9	-0,001
912,3	-0,001
912,7	-0,001
913,1	-0,001
913,6	-0,001
914	-0,001
914,4	-0,001
914,8	-0,001
915,3	-0,001
915,7	-0,001
916,1	-0,001
916,5	-0,001
916,9	-0,001
917,4	-0,002
917,8	-0,002
918,2	-0,002
918,6	-0,002
919,1	-0,002
919,5	-0,002
919,9	-0,001
920,3	-0,001
920,8	-0,001
921,2	-0,001
921,6	-0
922	-0,001
922,5	-0,001
922,9	-0,001
923,3	-0,001
923,7	-0
924,2	-0,001
924,6	-0,001
925	-0,001
925,4	-0,002
925,8	-0,001
926,3	-0,001
926,7	-0,001
927,1	-0,002
927,5	-0,002
928	-0,002
928,4	-0,002
928,8	-0,002
929,2	-0,002
929,7	-0,002
930,1	-0,002
930,5	-0,002
930,9	-0,002
931,3	-0,002
931,8	-0,002
932,2	-0,002
932,6	-0,002
933	-0,002
933,5	-0,002
933,9	-0,002
934,3	-0,002
934,7	-0,002
935,2	-0,002
935,6	-0,002
936	-0,002
936,4	-0,002
936,8	-0,002
937,3	-0,001
937,7	-0,001
938,1	-0,001
938,5	-0,001
939	-0,001
939,4	-0,001
939,8	-0,001
940,2	-0,001
940,6	-0,001
941,1	-0,001
941,5	-0,001
941,9	-0,001
942,3	-0,001
942,8	-0
943,2	-0,001
943,6	-0,002
944	-0,002
944,4	-0,002
944,9	-0,002
945,3	-0,002
945,7	-0,002
946,1	-0,002
946,6	-0,001
947	-0,001
947,4	-0,002
947,8	-0,001
948,2	-0,001
948,7	-0,002
949,1	-0,002
949,5	-0,002
949,9	-0,002
950,3	-0,002
950,8	-0,002
951,2	-0,002
951,6	-0,002
952	-0,001
952,5	-0,001
952,9	-0,001
953,3	-0,001
953,7	-0,001
954,1	-0,002
954,6	-0,001
955	-0,001
955,4	-0,001
955,8	-0,001
956,2	-0
956,7	-0,001
957,1	-0
957,5	-0
957,9	0
958,3	-0
958,8	-0
959,2	-0
959,6	-0
960	-0,001
960,5	-0,002
960,9	-0,002
961,3	-0,002
961,7	-0,002
962,1	-0,002
962,6	-0,002
963	-0,002
963,4	-0,001
963,8	-0
964,2	-0
964,7	0
965,1	0
965,5	-0
965,9	-0
966,3	0
966,8	0
967,2	0
967,6	-0
968	-0
968,4	0,001
968,9	0,001
969,3	0
969,7	0
970,1	0
970,5	0
971	0
971,4	-0
971,8	-0
972,2	0
972,6	-0
973,1	-0
973,5	-0
973,9	0
974,3	0
974,7	-0
975,2	-0,001
975,6	-0
976	-0,001
976,4	-0,001
976,8	-0,001
977,3	-0,002
977,7	-0,002
978,1	-0,001
978,5	-0,001
978,9	-0,001
979,4	-0
979,8	-0,001
980,2	-0,001
980,6	-0
981	-0,001
981,5	-0,001
981,9	-0,001
982,3	-0,001
982,7	-0,001
983,1	-0,001
983,6	-0,001
984	-0,001
984,4	-0,002
984,8	-0,001
985,2	-0,002
985,6	-0,001
986,1	-0,001
986,5	-0
986,9	0
987,3	0,001
987,7	0,001
988,2	0,001
988,6	0,001
989	0,001
989,4	0,001
989,8	0
990,3	-0
990,7	0
991,1	0
991,5	0
991,9	0,001
992,3	0,001
992,8	0,001
993,2	0
993,6	0
994	-0
994,4	0
994,9	-0
995,3	-0
995,7	-0
996,1	0,001
996,5	0
996,9	-0
997,4	-0,001
997,8	-0,001
998,2	-0,001
998,6	-0,001
999	-0,002
999,5	-0,002
999,9	-0,002
1000,3	-0,002
1000,7	-0,002
1001,1	-0,002
1001,5	-0,002
1002	-0,002
1002,4	-0,002
1002,8	-0,003
1003,2	-0,003
1003,6	-0,003
1004	-0,003
1004,5	-0,002
1004,9	-0,002
1005,3	-0,002
1005,7	-0,002
1006,1	-0,002
1006,6	-0,001
1007	-0,002
1007,4	-0,002
1007,8	-0,002
1008,2	-0,001
1008,6	-0,001
1009,1	-0,001
1009,5	-0,001
1009,9	-0
1010,3	-0
1010,7	0
1011,1	0
1011,6	0
1012	-0
1012,4	-0,001
1012,8	-0,001
1013,2	-0,001
1013,6	-0,001
1014,1	-0,001
1014,5	-0,001
1014,9	-0,001
1015,3	-0,001
1015,7	-0,002
1016,1	-0,002
1016,6	-0,002
1017	-0,002
1017,4	-0,002
1017,8	-0,003
1018,2	-0,003
1018,6	-0,002
1019,1	-0,002
1019,5	-0,002
1019,9	-0,002
1020,3	-0,001
1020,7	-0,001
1021,1	-0,001
1021,6	-0,001
1022	-0,001
1022,4	-0,001
1022,8	-0,002
1023,2	-0,002
1023,6	-0,002
1024,1	-0,001
1024,5	-0,002
1024,9	-0,001
1025,3	-0,001
1025,7	-0,001
1026,1	-0,002
1026,6	-0,001
1027	-0,002
1027,4	-0,002
1027,8	-0,003
1028,2	-0,003
1028,6	-0,002
1029	-0,002
1029,5	-0,002
1029,9	-0,001
1030,3	-0,002
1030,7	-0,001
1031,1	-0,001
1031,5	-0,001
1032	-0
1032,4	-0,001
1032,8	-0,001
1033,2	-0,001
1033,6	-0,001
1034	-0
1034,4	-0,001
1034,9	-0,001
1035,3	-0,002
1035,7	-0,001
1036,1	-0,001
1036,5	-0,001
1036,9	-0,001
1037,4	0
1037,8	0
1038,2	0
1038,6	0,001
1039	0,001
1039,4	0,001
1039,8	0,001
1040,3	0,001
1040,7	0,001
1041,1	0,002
1041,5	0,001
1041,9	0
1042,3	-0
1042,7	-0,001
1043,2	-0,001
1043,6	-0,001
1044	-0,002
1044,4	-0,002
1044,8	-0,001
1045,2	-0,001
1045,6	-0,001
1046,1	-0,001
1046,5	-0
1046,9	-0
1047,3	-0,001
1047,7	-0
1048,1	-0
1048,5	-0,001
1049	-0,001
1049,4	-0,001
1049,8	-0
1050,2	-0
1050,6	0,001
1051	0,002
1051,4	0,002
1051,9	0,002
1052,3	0,001
1052,7	-0,001
1053,1	-0,001
1053,5	-0,003
1053,9	-0,003
1054,3	-0,002
1054,8	-0,002
1055,2	-0,001
1055,6	-0
1056	0
1056,4	0,001
1056,8	0,001
1057,2	0,002
1057,6	0,002
1058,1	0,001
1058,5	0,001
1058,9	0,001
1059,3	0,001
1059,7	0
1060,1	-0
1060,5	-0
1061	-0
1061,4	-0,001
1061,8	-0,001
1062,2	-0,001
1062,6	0
1063	0
1063,4	0,001
1063,8	-0
1064,3	0,001
1064,7	0,001
1065,1	0,001
1065,5	0
1065,9	0,001
1066,3	0
1066,7	0,001
1067,1	0,001
1067,6	0,001
1068	0,001
1068,4	0,001
1068,8	0,001
1069,2	0,001
1069,6	-0
1070	0
1070,4	0
1070,9	-0,001
1071,3	-0,002
1071,7	-0,002
1072,1	-0,001
1072,5	-0,001
1072,9	-0
1073,3	-0,001
1073,7	0
1074,2	0,001
1074,6	0
1075	0
1075,4	0
1075,8	-0
1076,2	-0,001
1076,6	-0,001
1077	-0,002
1077,5	-0,001
1077,9	-0,001
1078,3	-0,002
1078,7	-0,002
1079,1	-0,002
1079,5	-0,001
1079,9	-0
1080,3	-0,001
1080,7	-0,001
1081,2	-0
1081,6	-0,001
1082	0,001
1082,4	0,002
1082,8	0,001
1083,2	0,002
1083,6	0
1084	0
1084,5	0
1084,9	-0,002
1085,3	-0,003
1085,7	-0,001
1086,1	-0,003
1086,5	-0,004
1086,9	-0,004
1087,3	-0,003
1087,7	-0,004
1088,2	-0,004
1088,6	-0,005
1089	-0,002
1089,4	0,002
1089,8	0,002
1090,2	0,002
1090,6	0,003
1091	0,002
1091,4	0,005
1091,9	0,005
1092,3	0,004
1092,7	0,006
1093,1	0,007
1093,5	0,011
1093,9	0,014
1094,3	0,017
1094,7	0,015
1095,1	0,017
1095,5	0,009
1096	0,003
1096,4	-0,002
1096,8	-0,001
1097,2	-0,006
1097,6	0,001
1098	-0,003
1098,4	0,002
1098,8	0,011
1099,2	0,015
1099,6	0,013
1100,1	0,01
1100,5	0,005
1100,9	0,006
1101,3	0,012
1101,7	0,015
1102,1	0,008
1102,5	0,005
1102,9	0,01
1103,3	0,006
1103,7	0,016
1104,2	0,013
1104,6	0,005
1105	0,011
1105,4	0,015
1105,8	0,01
1106,2	0,01
1106,6	-0,003
1107	-0,009
1107,4	-0,011
1107,8	-0,031
1108,3	-0
