Data from Absorbance_00006.txt Node
Date: Thu Aug 10 16:01:17 MSK 2023
User: vat
Spectrometer: MAYP114033
Trigger mode: 0
Integration Time (sec): 8,000000E-3
Scans to average: 10
Electric dark correction enabled: true
Nonlinearity correction enabled: false
Boxcar width: 3
XAxis mode: Wavelengths
Number of Pixels in Spectrum: 2068
>>>>>Begin Spectral Data<<<<<
199,4	0,436
199,9	0,017
200,4	0,372
200,8	0,807
201,3	0,936
201,8	0,983
202,2	1,029
202,7	1,065
203,2	1,113
203,6	1,155
204,1	1,162
204,6	1,182
205	1,182
205,5	1,206
206	1,208
206,4	1,225
206,9	1,246
207,4	1,249
207,8	1,255
208,3	1,289
208,8	1,288
209,2	1,303
209,7	1,309
210,2	1,321
210,6	1,343
211,1	1,369
211,5	1,363
212	1,392
212,5	1,422
212,9	1,45
213,4	1,455
213,9	1,462
214,3	1,466
214,8	1,486
215,3	1,49
215,7	1,496
216,2	1,5
216,7	1,52
217,1	1,537
217,6	1,561
218,1	1,598
218,5	1,607
219	1,628
219,5	1,663
219,9	1,69
220,4	1,722
220,9	1,737
221,3	1,725
221,8	1,73
222,3	1,747
222,7	1,722
223,2	1,748
223,6	1,752
224,1	1,779
224,6	1,801
225	1,836
225,5	1,843
226	1,894
226,4	1,898
226,9	1,906
227,4	1,894
227,8	1,92
228,3	1,939
228,8	1,942
229,2	1,937
229,7	1,948
230,2	1,979
230,6	1,988
231,1	1,978
231,5	1,976
232	2,005
232,5	2,01
232,9	2,007
233,4	2,011
233,9	2,029
234,3	2,057
234,8	2,051
235,3	2,046
235,7	2,067
236,2	2,08
236,7	2,079
237,1	2,067
237,6	2,059
238,1	2,075
238,5	2,087
239	2,086
239,4	2,094
239,9	2,11
240,4	2,109
240,8	2,135
241,3	2,124
241,8	2,129
242,2	2,136
242,7	2,144
243,2	2,154
243,6	2,173
244,1	2,154
244,6	2,175
245	2,185
245,5	2,197
245,9	2,206
246,4	2,181
246,9	2,187
247,3	2,194
247,8	2,202
248,3	2,186
248,7	2,183
249,2	2,186
249,7	2,2
250,1	2,203
250,6	2,209
251	2,212
251,5	2,224
252	2,235
252,4	2,228
252,9	2,227
253,4	2,214
253,8	2,223
254,3	2,23
254,8	2,226
255,2	2,239
255,7	2,236
256,1	2,244
256,6	2,261
257,1	2,264
257,5	2,262
258	2,261
258,5	2,25
258,9	2,276
259,4	2,283
259,9	2,279
260,3	2,289
260,8	2,284
261,2	2,306
261,7	2,297
262,2	2,275
262,6	2,301
263,1	2,327
263,6	2,335
264	2,324
264,5	2,304
264,9	2,316
265,4	2,323
265,9	2,317
266,3	2,3
266,8	2,281
267,3	2,306
267,7	2,302
268,2	2,292
268,7	2,286
269,1	2,268
269,6	2,274
270	2,288
270,5	2,262
271	2,256
271,4	2,275
271,9	2,243
272,4	2,235
272,8	2,239
273,3	2,234
273,7	2,23
274,2	2,233
274,7	2,228
275,1	2,254
275,6	2,262
276,1	2,254
276,5	2,244
277	2,25
277,4	2,248
277,9	2,231
278,4	2,212
278,8	2,196
279,3	2,196
279,8	2,176
280,2	2,165
280,7	2,152
281,1	2,117
281,6	2,08
282,1	2,042
282,5	1,985
283	1,943
283,4	1,89
283,9	1,839
284,4	1,793
284,8	1,756
285,3	1,716
285,8	1,678
286,2	1,645
286,7	1,623
287,1	1,599
287,6	1,576
288,1	1,553
288,5	1,534
289	1,519
289,5	1,503
289,9	1,489
290,4	1,479
290,8	1,471
291,3	1,465
291,8	1,458
292,2	1,457
292,7	1,453
293,1	1,45
293,6	1,444
294,1	1,44
294,5	1,437
295	1,433
295,5	1,428
295,9	1,423
296,4	1,418
296,8	1,418
297,3	1,417
297,8	1,416
298,2	1,415
298,7	1,41
299,1	1,409
299,6	1,408
300,1	1,4
300,5	1,396
301	1,39
301,5	1,382
301,9	1,379
302,4	1,375
302,8	1,369
303,3	1,366
303,8	1,361
304,2	1,357
304,7	1,354
305,1	1,345
305,6	1,34
306,1	1,336
306,5	1,329
307	1,321
307,4	1,314
307,9	1,308
308,4	1,306
308,8	1,298
309,3	1,29
309,8	1,283
310,2	1,275
310,7	1,266
311,1	1,257
311,6	1,246
312,1	1,237
312,5	1,231
313	1,224
313,4	1,215
313,9	1,21
314,4	1,202
314,8	1,194
315,3	1,183
315,7	1,172
316,2	1,163
316,7	1,157
317,1	1,145
317,6	1,135
318	1,125
318,5	1,116
319	1,106
319,4	1,093
319,9	1,081
320,3	1,072
320,8	1,062
321,3	1,053
321,7	1,042
322,2	1,033
322,6	1,023
323,1	1,012
323,6	1
324	0,989
324,5	0,978
324,9	0,968
325,4	0,955
325,9	0,945
326,3	0,934
326,8	0,924
327,2	0,912
327,7	0,901
328,2	0,89
328,6	0,881
329,1	0,87
329,5	0,86
330	0,85
330,5	0,84
330,9	0,829
331,4	0,819
331,8	0,81
332,3	0,799
332,8	0,789
333,2	0,779
333,7	0,77
334,1	0,759
334,6	0,75
335,1	0,737
335,5	0,728
336	0,717
336,4	0,707
336,9	0,698
337,4	0,688
337,8	0,677
338,3	0,668
338,7	0,658
339,2	0,649
339,7	0,638
340,1	0,629
340,6	0,618
341	0,608
341,5	0,6
342	0,591
342,4	0,583
342,9	0,574
343,3	0,566
343,8	0,558
344,2	0,55
344,7	0,541
345,2	0,532
345,6	0,523
346,1	0,515
346,5	0,506
347	0,499
347,5	0,491
347,9	0,483
348,4	0,476
348,8	0,469
349,3	0,462
349,8	0,454
350,2	0,447
350,7	0,44
351,1	0,433
351,6	0,426
352	0,419
352,5	0,412
353	0,405
353,4	0,398
353,9	0,391
354,3	0,384
354,8	0,377
355,3	0,371
355,7	0,366
356,2	0,36
356,6	0,353
357,1	0,348
357,5	0,343
358	0,338
358,5	0,332
358,9	0,326
359,4	0,321
359,8	0,316
360,3	0,311
360,8	0,305
361,2	0,3
361,7	0,295
362,1	0,291
362,6	0,286
363	0,281
363,5	0,277
364	0,272
364,4	0,268
364,9	0,264
365,3	0,259
365,8	0,255
366,3	0,251
366,7	0,247
367,2	0,243
367,6	0,239
368,1	0,235
368,5	0,232
369	0,228
369,5	0,225
369,9	0,221
370,4	0,218
370,8	0,216
371,3	0,212
371,7	0,208
372,2	0,205
372,7	0,202
373,1	0,199
373,6	0,195
374	0,192
374,5	0,189
374,9	0,186
375,4	0,184
375,9	0,181
376,3	0,179
376,8	0,176
377,2	0,173
377,7	0,17
378,2	0,168
378,6	0,165
379,1	0,161
379,5	0,159
380	0,157
380,4	0,155
380,9	0,153
381,4	0,151
381,8	0,149
382,3	0,148
382,7	0,145
383,2	0,143
383,6	0,141
384,1	0,138
384,6	0,136
385	0,134
385,5	0,133
385,9	0,13
386,4	0,129
386,8	0,128
387,3	0,126
387,7	0,125
388,2	0,124
388,7	0,122
389,1	0,121
389,6	0,119
390	0,116
390,5	0,115
390,9	0,113
391,4	0,112
391,9	0,11
392,3	0,108
392,8	0,107
393,2	0,106
393,7	0,105
394,1	0,104
394,6	0,102
395,1	0,101
395,5	0,1
396	0,099
396,4	0,098
396,9	0,097
397,3	0,095
397,8	0,094
398,2	0,093
398,7	0,091
399,2	0,09
399,6	0,088
400,1	0,087
400,5	0,086
401	0,085
401,4	0,084
401,9	0,083
402,4	0,082
402,8	0,082
403,3	0,081
403,7	0,08
404,2	0,079
404,6	0,078
405,1	0,077
405,5	0,075
406	0,074
406,5	0,073
406,9	0,073
407,4	0,071
407,8	0,07
408,3	0,07
408,7	0,069
409,2	0,068
409,6	0,067
410,1	0,066
410,6	0,066
411	0,066
411,5	0,065
411,9	0,063
412,4	0,062
412,8	0,062
413,3	0,061
413,7	0,06
414,2	0,059
414,7	0,059
415,1	0,059
415,6	0,059
416	0,058
416,5	0,056
416,9	0,055
417,4	0,055
417,8	0,053
418,3	0,053
418,8	0,052
419,2	0,051
419,7	0,051
420,1	0,05
420,6	0,049
421	0,049
421,5	0,048
421,9	0,047
422,4	0,047
422,8	0,045
423,3	0,045
423,8	0,045
424,2	0,044
424,7	0,043
425,1	0,042
425,6	0,041
426	0,041
426,5	0,039
426,9	0,039
427,4	0,038
427,9	0,038
428,3	0,037
428,8	0,037
429,2	0,036
429,7	0,036
430,1	0,035
430,6	0,034
431	0,034
431,5	0,033
431,9	0,033
432,4	0,031
432,8	0,031
433,3	0,031
433,8	0,031
434,2	0,03
434,7	0,03
435,1	0,029
435,6	0,029
436	0,028
436,5	0,028
436,9	0,027
437,4	0,026
437,8	0,025
438,3	0,024
438,8	0,024
439,2	0,024
439,7	0,024
440,1	0,023
440,6	0,022
441	0,023
441,5	0,023
441,9	0,022
442,4	0,021
442,8	0,021
443,3	0,021
443,7	0,021
444,2	0,02
444,7	0,019
445,1	0,019
445,6	0,019
446	0,019
446,5	0,018
446,9	0,018
447,4	0,017
447,8	0,017
448,3	0,017
448,7	0,016
449,2	0,016
449,6	0,016
450,1	0,016
450,6	0,016
451	0,016
451,5	0,016
451,9	0,016
452,4	0,016
452,8	0,016
453,3	0,015
453,7	0,015
454,2	0,015
454,6	0,014
455,1	0,013
455,5	0,013
456	0,013
456,4	0,013
456,9	0,012
457,3	0,011
457,8	0,012
458,3	0,011
458,7	0,011
459,2	0,01
459,6	0,01
460,1	0,01
460,5	0,01
461	0,01
461,4	0,01
461,9	0,01
462,3	0,009
462,8	0,01
463,2	0,009
463,7	0,009
464,1	0,008
464,6	0,008
465	0,008
465,5	0,009
466	0,008
466,4	0,008
466,9	0,008
467,3	0,009
467,8	0,009
468,2	0,008
468,7	0,008
469,1	0,007
469,6	0,007
470	0,007
470,5	0,007
470,9	0,007
471,4	0,006
471,8	0,006
472,3	0,006
472,7	0,006
473,2	0,006
473,6	0,006
474,1	0,006
474,5	0,006
475	0,006
475,4	0,006
475,9	0,006
476,4	0,006
476,8	0,005
477,3	0,006
477,7	0,005
478,2	0,005
478,6	0,005
479,1	0,006
479,5	0,005
480	0,005
480,4	0,005
480,9	0,005
481,3	0,005
481,8	0,005
482,2	0,004
482,7	0,004
483,1	0,005
483,6	0,004
484	0,004
484,5	0,004
484,9	0,003
485,4	0,004
485,8	0,003
486,3	0,003
486,7	0,003
487,2	0,003
487,6	0,003
488,1	0,003
488,5	0,003
489	0,003
489,4	0,003
489,9	0,003
490,4	0,003
490,8	0,002
491,3	0,002
491,7	0,003
492,2	0,002
492,6	0,002
493,1	0,002
493,5	0,002
494	0,002
494,4	0,002
494,9	0,001
495,3	0,001
495,8	0,002
496,2	0,001
496,7	0,002
497,1	0,001
497,6	0,001
498	0,002
498,5	0,002
498,9	0,002
499,4	0,002
499,8	0,003
500,3	0,003
500,7	0,002
501,2	0,001
501,6	0,001
502,1	0,001
502,5	0,001
503	0,001
503,4	0
503,9	0,001
504,3	0,002
504,8	0,002
505,2	0,002
505,7	0,002
506,1	0,002
506,6	0,003
507	0,002
507,5	0,001
507,9	0,001
508,4	0
508,8	0
509,3	0,001
509,7	0,001
510,2	0,001
510,6	0,002
511,1	0,002
511,5	0,002
512	0,001
512,4	0,001
512,9	0,001
513,3	0
513,8	0
514,2	0,001
514,7	0,001
515,1	0,001
515,6	0,001
516	0,001
516,5	0,001
516,9	0,001
517,4	0,001
517,8	0
518,3	0
518,7	0
519,2	-0
519,6	0
520,1	0,001
520,5	0
521	0,001
521,4	0,002
521,9	0,001
522,3	0,002
522,8	0,001
523,2	0,001
523,7	0,001
524,1	0,001
524,6	0
525	0,001
525,5	0,001
525,9	0,001
526,4	0,001
526,8	0,001
527,3	0,002
527,7	0,002
528,2	0,001
528,6	0,002
529,1	0,001
529,5	0,001
530	0,001
530,4	-0
530,9	-0
531,3	-0
531,8	-0,001
532,2	-0,001
532,6	-0
533,1	-0
533,5	-0
534	-0,001
534,4	-0,001
534,9	-0
535,3	-0,001
535,8	-0,001
536,2	-0,001
536,7	-0,001
537,1	-0,001
537,6	-0
538	-0
538,5	-0
538,9	-0
539,4	-0
539,8	-0,001
540,3	-0
540,7	-0,001
541,2	-0,001
541,6	-0
542,1	0
542,5	0
543	0
543,4	-0
543,9	0,001
544,3	0,001
544,8	0
545,2	-0
545,7	-0
546,1	-0
546,5	-0
547	-0
547,4	-0,001
547,9	-0,001
548,3	-0,001
548,8	-0
549,2	-0
549,7	-0
550,1	-0
550,6	0
551	0,001
551,5	0
551,9	0
552,4	0,001
552,8	0
553,3	0,001
553,7	0
554,2	0
554,6	0
555,1	0
555,5	0
555,9	0
556,4	0
556,8	0
557,3	-0
557,7	-0
558,2	-0
558,6	-0,001
559,1	-0,001
559,5	-0,001
560	-0,001
560,4	-0,001
560,9	-0,001
561,3	-0,001
561,8	-0,001
562,2	-0,001
562,7	-0,001
563,1	-0,002
563,6	-0,002
564	-0,001
564,4	-0,001
564,9	-0,001
565,3	-0,001
565,8	-0,001
566,2	-0
566,7	-0,001
567,1	-0,001
567,6	-0,001
568	-0,001
568,5	-0,001
568,9	-0,001
569,4	-0,001
569,8	-0,001
570,3	-0,001
570,7	-0,001
571,1	-0,001
571,6	-0,001
572	-0,001
572,5	-0,001
572,9	-0,001
573,4	-0,001
573,8	-0,001
574,3	-0,001
574,7	-0,001
575,2	-0,001
575,6	-0,001
576,1	-0,001
576,5	-0,001
576,9	-0,001
577,4	-0,001
577,8	-0,001
578,3	-0,001
578,7	-0,001
579,2	-0,001
579,6	-0,001
580,1	-0,001
580,5	-0,001
581	-0,001
581,4	-0,001
581,9	-0,001
582,3	-0,001
582,7	-0,001
583,2	-0,001
583,6	-0,001
584,1	-0,001
584,5	-0
585	-0
585,4	-0
585,9	-0,001
586,3	-0,001
586,8	-0,001
587,2	-0,001
587,6	-0,001
588,1	-0,001
588,5	-0,001
589	-0,001
589,4	-0,001
589,9	-0,001
590,3	-0,001
590,8	-0,001
591,2	-0,001
591,7	-0
592,1	-0,001
592,5	-0,001
593	-0,001
593,4	-0,001
593,9	-0,001
594,3	-0,001
594,8	-0,001
595,2	-0,001
595,7	-0,001
596,1	-0,001
596,6	-0,001
597	-0,001
597,4	-0,001
597,9	-0,001
598,3	-0,001
598,8	-0,001
599,2	-0,001
599,7	-0,001
600,1	-0
600,6	-0
601	-0,001
601,4	-0
601,9	-0,001
602,3	-0,001
602,8	-0,001
603,2	-0,001
603,7	-0,001
604,1	-0,001
604,6	-0,001
605	-0,001
605,4	-0,001
605,9	-0,002
606,3	-0,002
606,8	-0,002
607,2	-0,002
607,7	-0,002
608,1	-0,002
608,6	-0,002
609	-0,002
609,4	-0,002
609,9	-0,001
610,3	-0,001
610,8	-0,001
611,2	-0,001
611,7	-0,001
612,1	-0,001
612,6	-0,001
613	-0,001
613,4	-0,001
613,9	-0,001
614,3	-0,001
614,8	-0,001
615,2	-0,001
615,7	-0,001
616,1	-0,001
616,6	-0,001
617	-0,001
617,4	-0,001
617,9	-0,001
618,3	-0,001
618,8	-0,001
619,2	-0,001
619,7	-0,001
620,1	-0,001
620,5	-0,001
621	-0,001
621,4	-0,001
621,9	-0,001
622,3	-0,001
622,8	-0,001
623,2	-0,001
623,6	-0,001
624,1	-0,001
624,5	-0,001
625	-0,001
625,4	-0,001
625,9	-0,001
626,3	-0,001
626,8	-0,001
627,2	-0,001
627,6	-0,002
628,1	-0,002
628,5	-0,002
629	-0,002
629,4	-0,002
629,9	-0,002
630,3	-0,002
630,7	-0,001
631,2	-0,001
631,6	-0,001
632,1	-0,001
632,5	-0,001
633	-0,001
633,4	-0,001
633,8	-0,001
634,3	-0,001
634,7	-0,002
635,2	-0,002
635,6	-0,002
636,1	-0,002
636,5	-0,002
636,9	-0,002
637,4	-0,002
637,8	-0,002
638,3	-0,001
638,7	-0,001
639,2	-0,001
639,6	-0,001
640	-0,001
640,5	-0,001
640,9	-0,001
641,4	-0,002
641,8	-0,002
642,2	-0,002
642,7	-0,002
643,1	-0,002
643,6	-0,002
644	-0,002
644,5	-0,001
644,9	-0,001
645,3	-0,001
645,8	-0,001
646,2	-0,001
646,7	-0,001
647,1	-0,001
647,6	-0
648	-0
648,4	-0,001
648,9	-0
649,3	-0
649,8	-0
650,2	-0
650,6	-0
651,1	-0,001
651,5	-0,001
652	-0,001
652,4	-0,002
652,9	-0,002
653,3	-0,002
653,7	-0,002
654,2	-0,002
654,6	-0,002
655,1	-0,002
655,5	-0,001
655,9	-0,001
656,4	-0
656,8	-0
657,3	-0
657,7	0
658,2	0
658,6	0
659	0
659,5	0
659,9	-0
660,4	-0,001
660,8	-0,001
661,2	-0
661,7	-0,001
662,1	-0,001
662,6	-0,001
663	-0,001
663,4	-0,001
663,9	-0,001
664,3	-0,002
664,8	-0,001
665,2	-0,001
665,6	-0,001
666,1	-0,001
666,5	-0,001
667	-0,001
667,4	-0,001
667,9	-0,001
668,3	-0,001
668,7	-0
669,2	-0,001
669,6	-0,001
670,1	-0
670,5	-0
670,9	-0,001
671,4	-0,001
671,8	-0,001
672,3	-0,001
672,7	-0,001
673,1	-0,001
673,6	-0,002
674	-0,002
674,5	-0,001
674,9	-0,001
675,3	-0,001
675,8	-0,001
676,2	-0,001
676,7	-0,001
677,1	-0,001
677,5	-0,001
678	-0,001
678,4	-0,002
678,9	-0,001
679,3	-0
679,7	-0
680,2	-0,001
680,6	-0,001
681,1	-0,001
681,5	-0,001
681,9	-0,001
682,4	-0,001
682,8	-0,001
683,3	-0,001
683,7	-0,001
684,1	-0,001
684,6	-0,001
685	-0,001
685,5	-0,001
685,9	-0,001
686,3	-0,001
686,8	-0,001
687,2	-0,001
687,7	-0,001
688,1	-0,001
688,5	-0,001
689	-0,002
689,4	-0,002
689,9	-0,001
690,3	-0,001
690,7	-0,001
691,2	-0,001
691,6	-0,001
692	-0,001
692,5	-0,001
692,9	-0,001
693,4	-0,002
693,8	-0,002
694,2	-0,001
694,7	-0,001
695,1	-0,002
695,6	-0,001
696	-0,001
696,4	-0,001
696,9	-0,001
697,3	-0,001
697,8	-0,001
698,2	-0,001
698,6	-0
699,1	-0,001
699,5	-0
699,9	-0
700,4	-0
700,8	-0
701,3	-0,001
701,7	-0,001
702,1	-0,001
702,6	-0,001
703	-0,001
703,5	-0,002
703,9	-0,001
704,3	-0,001
704,8	-0,001
705,2	-0,001
705,6	-0,001
706,1	-0,001
706,5	-0,001
707	-0
707,4	-0
707,8	-0
708,3	-0
708,7	-0
709,2	-0,001
709,6	-0
710	-0,001
710,5	-0,001
710,9	-0,001
711,3	-0,001
711,8	-0,001
712,2	-0,001
712,7	-0,001
713,1	-0,001
713,5	-0,001
714	-0,001
714,4	-0,001
714,8	-0,001
715,3	-0,001
715,7	-0,001
716,2	-0,001
716,6	-0,001
717	-0,001
717,5	-0,001
717,9	-0,001
718,3	-0,001
718,8	-0,001
719,2	-0,001
719,7	-0,001
720,1	-0,001
720,5	-0,001
721	-0
721,4	-0
721,8	-0,001
722,3	-0
722,7	-0,001
723,2	-0,001
723,6	-0,001
724	-0,001
724,5	-0,001
724,9	-0,001
725,3	-0,001
725,8	-0,001
726,2	-0,002
726,7	-0,001
727,1	-0,002
727,5	-0,002
728	-0,002
728,4	-0,002
728,8	-0,002
729,3	-0,002
729,7	-0,002
730,1	-0,002
730,6	-0,002
731	-0,002
731,5	-0,002
731,9	-0,001
732,3	-0,001
732,8	-0,002
733,2	-0,001
733,6	-0,001
734,1	-0,001
734,5	-0,001
734,9	-0,001
735,4	-0,001
735,8	-0
736,3	-0
736,7	-0,001
737,1	-0,001
737,6	-0,001
738	-0,001
738,4	-0,001
738,9	-0,001
739,3	-0,001
739,7	-0,002
740,2	-0,002
740,6	-0,002
741,1	-0,002
741,5	-0,002
741,9	-0,001
742,4	-0,001
742,8	-0,001
743,2	-0,001
743,7	-0,001
744,1	-0,001
744,5	-0,001
745	-0,001
745,4	-0,001
745,8	-0,001
746,3	-0,001
746,7	-0,001
747,2	-0,001
747,6	-0,001
748	-0,001
748,5	-0,001
748,9	-0,001
749,3	-0,001
749,8	-0,001
750,2	-0,001
750,6	-0,001
751,1	-0,001
751,5	-0,001
751,9	-0,001
752,4	-0,001
752,8	-0,001
753,3	-0,001
753,7	-0,001
754,1	-0,001
754,6	-0,001
755	-0,001
755,4	-0,002
755,9	-0,001
756,3	-0,001
756,7	-0,001
757,2	-0,001
757,6	-0,001
758	-0,001
758,5	-0,001
758,9	-0,001
759,3	-0,001
759,8	-0,001
760,2	-0,001
760,6	-0,001
761,1	-0,001
761,5	-0,001
761,9	-0,001
762,4	-0,001
762,8	-0,001
763,3	-0,001
763,7	-0,001
764,1	-0,001
764,6	-0,001
765	-0,001
765,4	-0,001
765,9	-0,001
766,3	-0,001
766,7	-0,001
767,2	-0,001
767,6	-0,001
768	-0
768,5	-0
768,9	-0,001
769,3	-0,001
769,8	-0,001
770,2	-0,001
770,6	-0,001
771,1	-0,001
771,5	-0,001
771,9	-0,001
772,4	-0,001
772,8	-0,001
773,2	-0,001
773,7	-0,001
774,1	-0,002
774,5	-0,002
775	-0,002
775,4	-0,002
775,8	-0,002
776,3	-0,002
776,7	-0,002
777,1	-0,002
777,6	-0,001
778	-0,001
778,4	-0
778,9	-0
779,3	-0
779,7	-0
780,2	-0
780,6	-0
781	-0
781,5	-0,001
781,9	-0,001
782,3	-0,001
782,8	-0,001
783,2	-0,001
783,6	-0,001
784,1	-0,001
784,5	-0,001
784,9	-0,001
785,4	-0,001
785,8	-0,001
786,2	-0,001
786,7	-0,001
787,1	-0,001
787,5	-0,001
788	-0,001
788,4	-0,001
788,8	-0,001
789,3	-0,001
789,7	-0,001
790,1	-0,001
790,6	-0,001
791	-0,001
791,4	-0
791,9	-0
792,3	-0
792,7	-0
793,2	-0
793,6	-0,001
794	-0,001
794,5	-0,001
794,9	-0,001
795,3	-0,001
795,8	-0,001
796,2	-0,001
796,6	-0,001
797,1	-0,001
797,5	-0,001
797,9	-0,001
798,4	-0,001
798,8	-0,002
799,2	-0,002
799,7	-0,001
800,1	-0,001
800,5	-0,001
801	-0,001
801,4	-0,001
801,8	-0
802,2	0
802,7	-0
803,1	-0
803,5	0
804	-0
804,4	-0
804,8	-0,001
805,3	-0,001
805,7	-0,001
806,1	-0,001
806,6	-0,001
807	-0,001
807,4	-0,001
807,9	-0
808,3	-0
808,7	0
809,2	0
809,6	-0
810	-0,001
810,4	-0
810,9	-0,001
811,3	-0,001
811,7	-0,001
812,2	-0,001
812,6	-0,001
813	-0,001
813,5	-0,002
813,9	-0,002
814,3	-0,001
814,8	-0,001
815,2	-0,002
815,6	-0,001
816,1	-0,001
816,5	-0,001
816,9	-0,001
817,3	-0,002
817,8	-0,001
818,2	-0,001
818,6	-0,001
819,1	-0,001
819,5	-0,001
819,9	-0,001
820,4	-0,001
820,8	-0,001
821,2	-0
821,7	-0
822,1	-0,001
822,5	-0,001
822,9	-0,001
823,4	-0,001
823,8	-0,001
824,2	-0,002
824,7	-0,002
825,1	-0,002
825,5	-0,002
826	-0,002
826,4	-0,002
826,8	-0,002
827,3	-0,002
827,7	-0,001
828,1	-0,002
828,5	-0,002
829	-0,002
829,4	-0,002
829,8	-0,001
830,3	-0,001
830,7	-0,001
831,1	-0
831,6	0
832	0
832,4	0
832,8	0,001
833,3	0,001
833,7	0
834,1	0
834,6	0,001
835	0
835,4	0
835,8	0
836,3	-0
836,7	-0
837,1	-0
837,6	-0
838	-0,001
838,4	-0,001
838,9	-0
839,3	-0,001
839,7	-0,001
840,1	-0,001
840,6	-0,001
841	-0,001
841,4	-0,001
841,9	-0,001
842,3	-0,001
842,7	-0,001
843,1	-0,001
843,6	-0,001
844	-0,001
844,4	-0
844,9	-0
845,3	-0
845,7	-0,001
846,2	-0
846,6	-0,001
847	-0,001
847,4	-0,001
847,9	-0,001
848,3	-0,001
848,7	-0,001
849,2	-0,001
849,6	-0,001
850	-0,002
850,4	-0,002
850,9	-0,001
851,3	-0,001
851,7	-0,001
852,2	-0,001
852,6	-0,001
853	-0,001
853,4	-0,001
853,9	-0,001
854,3	-0,001
854,7	-0,001
855,2	-0,001
855,6	-0,001
856	-0,001
856,4	-0,001
856,9	-0
857,3	-0,001
857,7	-0,001
858,2	-0,001
858,6	-0,001
859	-0,001
859,4	-0,001
859,9	-0,001
860,3	-0,001
860,7	-0
861,1	-0
861,6	-0
862	-0
862,4	-0
862,9	-0
863,3	-0
863,7	-0
864,1	-0
864,6	-0
865	-0
865,4	0
865,9	0
866,3	-0
866,7	-0
867,1	-0
867,6	-0
868	-0,001
868,4	-0,001
868,8	-0,001
869,3	-0
869,7	-0
870,1	-0
870,6	-0
871	0
871,4	0
871,8	0
872,3	-0
872,7	-0
873,1	-0
873,5	-0
874	0
874,4	-0
874,8	-0
875,3	-0
875,7	0
876,1	0
876,5	0
877	-0
877,4	-0,001
877,8	-0,001
878,2	-0,001
878,7	-0,001
879,1	-0,001
879,5	-0,001
879,9	-0,001
880,4	-0,001
880,8	-0,001
881,2	-0,001
881,7	-0,001
882,1	-0,001
882,5	-0,002
882,9	-0,002
883,4	-0,002
883,8	-0,002
884,2	-0,002
884,6	-0,002
885,1	-0,002
885,5	-0,002
885,9	-0,002
886,3	-0,002
886,8	-0,001
887,2	-0,001
887,6	-0,001
888	-0,001
888,5	-0,001
888,9	-0,001
889,3	-0,001
889,8	-0,002
890,2	-0,002
890,6	-0,002
891	-0,002
891,5	-0,002
891,9	-0,002
892,3	-0,002
892,7	-0,002
893,2	-0,002
893,6	-0,002
894	-0,002
894,4	-0,002
894,9	-0,002
895,3	-0,001
895,7	-0,002
896,1	-0,001
896,6	-0,001
897	-0,001
897,4	-0,001
897,8	-0,001
898,3	-0,001
898,7	-0,001
899,1	-0,001
899,5	-0,001
900	-0,001
900,4	-0,002
900,8	-0,002
901,2	-0,002
901,7	-0,002
902,1	-0,002
902,5	-0,002
902,9	-0,002
903,4	-0,001
903,8	-0,001
904,2	-0,001
904,6	-0,001
905,1	-0,001
905,5	-0,001
905,9	-0,001
906,3	-0,002
906,8	-0,001
907,2	-0,002
907,6	-0,001
908	-0,001
908,5	-0,001
908,9	-0,001
909,3	-0,001
909,7	-0,001
910,2	-0,001
910,6	-0,001
911	-0,001
911,4	-0,001
911,9	-0,001
912,3	-0,001
912,7	-0,001
913,1	-0,001
913,6	-0,001
914	-0,001
914,4	-0,001
914,8	-0,001
915,3	-0,001
915,7	-0,001
916,1	-0,001
916,5	-0,001
916,9	-0,001
917,4	-0,001
917,8	-0,001
918,2	-0,001
918,6	-0,001
919,1	-0,002
919,5	-0,002
919,9	-0,002
920,3	-0,002
920,8	-0,001
921,2	-0,002
921,6	-0,002
922	-0,002
922,5	-0,002
922,9	-0,002
923,3	-0,002
923,7	-0,003
924,2	-0,002
924,6	-0,002
925	-0,002
925,4	-0,001
925,8	-0,001
926,3	-0,001
926,7	-0
927,1	-0
927,5	-0
928	0
928,4	-0
928,8	-0
929,2	-0,001
929,7	-0
930,1	-0
930,5	-0
930,9	-0
931,3	-0
931,8	-0
932,2	-0
932,6	-0,001
933	-0,001
933,5	-0,001
933,9	-0,001
934,3	-0,002
934,7	-0,001
935,2	-0,001
935,6	-0,001
936	-0,001
936,4	-0,001
936,8	-0,001
937,3	0
937,7	0
938,1	0
938,5	-0
939	-0,001
939,4	-0,001
939,8	-0,001
940,2	-0,001
940,6	-0,001
941,1	-0,002
941,5	-0,001
941,9	-0,002
942,3	-0,002
942,8	-0,001
943,2	-0,002
943,6	-0,002
944	-0,001
944,4	-0,002
944,9	-0,001
945,3	-0,001
945,7	-0,001
946,1	-0,001
946,6	-0,001
947	-0,002
947,4	-0,001
947,8	-0,001
948,2	-0,001
948,7	-0,001
949,1	-0,001
949,5	-0,001
949,9	-0
950,3	-0,001
950,8	-0,001
951,2	-0,001
951,6	-0,001
952	-0,002
952,5	-0,001
952,9	-0,001
953,3	-0,001
953,7	-0,001
954,1	-0,002
954,6	-0,003
955	-0,002
955,4	-0,003
955,8	-0,003
956,2	-0,003
956,7	-0,004
957,1	-0,003
957,5	-0,003
957,9	-0,003
958,3	-0,003
958,8	-0,003
959,2	-0,003
959,6	-0,002
960	-0,002
960,5	-0,001
960,9	-0,001
961,3	-0,001
961,7	-0,001
962,1	-0,002
962,6	-0,001
963	-0,002
963,4	-0,002
963,8	-0,001
964,2	-0,001
964,7	-0
965,1	0
965,5	-0
965,9	-0
966,3	-0
966,8	-0
967,2	-0
967,6	-0,001
968	-0
968,4	-0
968,9	-0,001
969,3	-0
969,7	-0
970,1	-0,001
970,5	-0
971	-0,001
971,4	-0,001
971,8	-0,001
972,2	-0,001
972,6	-0,001
973,1	-0,001
973,5	-0,001
973,9	-0,001
974,3	-0,001
974,7	-0,001
975,2	-0,001
975,6	-0,001
976	-0,001
976,4	-0,002
976,8	-0,001
977,3	-0,001
977,7	-0,001
978,1	-0,001
978,5	-0,001
978,9	-0,001
979,4	-0,001
979,8	-0,002
980,2	-0,001
980,6	-0,002
981	-0,001
981,5	-0,001
981,9	-0,001
982,3	-0
982,7	0
983,1	-0
983,6	-0
984	-0
984,4	-0,001
984,8	-0,001
985,2	-0,002
985,6	-0,002
986,1	-0,002
986,5	-0,002
986,9	-0,002
987,3	-0,002
987,7	-0,001
988,2	-0,001
988,6	-0
989	-0
989,4	-0
989,8	-0
990,3	-0,001
990,7	-0,001
991,1	-0,001
991,5	-0,001
991,9	-0,001
992,3	-0,001
992,8	-0,001
993,2	-0,001
993,6	-0,002
994	-0,002
994,4	-0,001
994,9	-0,002
995,3	-0,001
995,7	-0,001
996,1	-0,001
996,5	-0
996,9	-0,001
997,4	-0,002
997,8	-0,001
998,2	-0,001
998,6	-0,001
999	-0,001
999,5	-0,001
999,9	-0
1000,3	-0
1000,7	-0,001
1001,1	-0,001
1001,5	-0,001
1002	-0,002
1002,4	-0,002
1002,8	-0,002
1003,2	-0,002
1003,6	-0,002
1004	-0,002
1004,5	-0,002
1004,9	-0,002
1005,3	-0,002
1005,7	-0,002
1006,1	-0,002
1006,6	-0,002
1007	-0,002
1007,4	-0,002
1007,8	-0,002
1008,2	-0,002
1008,6	-0,003
1009,1	-0,002
1009,5	-0,003
1009,9	-0,003
1010,3	-0,003
1010,7	-0,002
1011,1	-0,002
1011,6	-0,002
1012	-0,002
1012,4	-0,001
1012,8	-0,001
1013,2	-0,001
1013,6	-0,001
1014,1	-0,001
1014,5	-0,001
1014,9	-0,002
1015,3	-0,002
1015,7	-0,002
1016,1	-0,002
1016,6	-0,002
1017	-0,002
1017,4	-0,002
1017,8	-0,002
1018,2	-0,002
1018,6	-0,002
1019,1	-0,003
1019,5	-0,003
1019,9	-0,003
1020,3	-0,003
1020,7	-0,003
1021,1	-0,003
1021,6	-0,003
1022	-0,003
1022,4	-0,003
1022,8	-0,002
1023,2	-0,002
1023,6	-0,002
1024,1	-0,001
1024,5	-0,001
1024,9	-0
1025,3	-0,001
1025,7	-0,001
1026,1	-0
1026,6	-0,001
1027	-0
1027,4	-0,001
1027,8	-0,001
1028,2	-0
1028,6	0
1029	-0
1029,5	-0
1029,9	-0,001
1030,3	-0,001
1030,7	-0,001
1031,1	-0,002
1031,5	-0,002
1032	-0,002
1032,4	-0,003
1032,8	-0,003
1033,2	-0,003
1033,6	-0,002
1034	-0,002
1034,4	-0,001
1034,9	-0,001
1035,3	0
1035,7	0,001
1036,1	0,001
1036,5	0
1036,9	0,001
1037,4	-0
1037,8	-0
1038,2	-0
1038,6	-0
1039	-0,001
1039,4	-0,001
1039,8	-0,001
1040,3	0
1040,7	-0
1041,1	-0
1041,5	-0,001
1041,9	0,001
1042,3	0,001
1042,7	0
1043,2	-0,001
1043,6	-0,002
1044	-0,002
1044,4	-0,002
1044,8	-0,003
1045,2	-0,004
1045,6	-0,003
1046,1	-0,003
1046,5	-0,002
1046,9	-0,003
1047,3	-0,003
1047,7	-0,003
1048,1	-0,003
1048,5	-0,004
1049	-0,003
1049,4	-0,002
1049,8	-0,002
1050,2	-0,002
1050,6	-0,001
1051	-0,002
1051,4	-0,002
1051,9	-0,002
1052,3	-0,003
1052,7	-0,002
1053,1	-0,002
1053,5	-0,002
1053,9	-0
1054,3	-0,001
1054,8	-0,001
1055,2	-0,001
1055,6	-0,001
1056	-0,001
1056,4	-0,001
1056,8	-0,002
1057,2	-0,001
1057,6	-0,001
1058,1	0
1058,5	0,001
1058,9	0
1059,3	-0,001
1059,7	-0,001
1060,1	-0,001
1060,5	-0,002
1061	-0,003
1061,4	-0,004
1061,8	-0,004
1062,2	-0,003
1062,6	-0,002
1063	-0,001
1063,4	-0,001
1063,8	-0,001
1064,3	-0,001
1064,7	-0,001
1065,1	-0,001
1065,5	-0,001
1065,9	-0,001
1066,3	-0
1066,7	0
1067,1	0,001
1067,6	0
1068	0,001
1068,4	0,002
1068,8	-0
1069,2	-0
1069,6	-0,001
1070	-0,001
1070,4	-0,001
1070,9	-0,001
1071,3	-0,002
1071,7	-0,002
1072,1	-0,002
1072,5	-0,001
1072,9	-0,001
1073,3	-0,001
1073,7	-0,001
1074,2	-0,001
1074,6	-0
1075	-0,001
1075,4	-0,001
1075,8	-0,002
1076,2	-0,002
1076,6	-0,002
1077	-0,002
1077,5	-0,002
1077,9	-0,002
1078,3	-0,003
1078,7	-0,002
1079,1	-0,003
1079,5	-0,002
1079,9	-0,002
1080,3	-0,002
1080,7	-0,003
1081,2	-0,002
1081,6	-0
1082	0,001
1082,4	-0,001
1082,8	-0,001
1083,2	-0
1083,6	0,001
1084	-0,001
1084,5	-0,003
1084,9	-0,003
1085,3	-0,002
1085,7	-0,001
1086,1	-0,002
1086,5	-0,003
1086,9	-0,001
1087,3	0
1087,7	-0,002
1088,2	0
1088,6	-0,002
1089	-0,001
1089,4	-0
1089,8	-0,002
1090,2	-0,003
1090,6	0,001
1091	-0,002
1091,4	-0,002
1091,9	-0,003
1092,3	-0
1092,7	0,002
1093,1	0,005
1093,5	0,002
1093,9	0,001
1094,3	0,001
1094,7	0,005
1095,1	0,001
1095,5	0,002
1096	-0
1096,4	0,004
1096,8	0,002
1097,2	0,006
1097,6	0,003
1098	0,007
1098,4	0,008
1098,8	0,006
1099,2	-0,005
1099,6	-0,009
1100,1	-0,01
1100,5	-0,012
1100,9	-0,024
1101,3	-0,027
1101,7	-0,031
1102,1	-0,022
1102,5	-0,025
1102,9	-0,028
1103,3	-0,019
1103,7	-0,017
1104,2	-0,021
1104,6	-0,015
1105	-0,012
1105,4	-0,009
1105,8	-0,008
1106,2	-0,015
1106,6	-0
1107	0,017
1107,4	0,029
1107,8	0,041
1108,3	1,38
