Data from Absorbance_00019.txt Node
Date: Thu Aug 10 16:22:52 MSK 2023
User: vat
Spectrometer: MAYP114033
Trigger mode: 0
Integration Time (sec): 8,000000E-3
Scans to average: 10
Electric dark correction enabled: true
Nonlinearity correction enabled: false
Boxcar width: 3
XAxis mode: Wavelengths
Number of Pixels in Spectrum: 2068
>>>>>Begin Spectral Data<<<<<
199,4	0,18
199,9	0,262
200,4	0,548
200,8	0,968
201,3	1,04
201,8	1,07
202,2	1,076
202,7	1,083
203,2	1,126
203,6	1,157
204,1	1,16
204,6	1,169
205	1,172
205,5	1,195
206	1,202
206,4	1,216
206,9	1,233
207,4	1,237
207,8	1,256
208,3	1,302
208,8	1,337
209,2	1,37
209,7	1,376
210,2	1,39
210,6	1,403
211,1	1,425
211,5	1,429
212	1,423
212,5	1,445
212,9	1,488
213,4	1,508
213,9	1,529
214,3	1,521
214,8	1,528
215,3	1,545
215,7	1,55
216,2	1,544
216,7	1,538
217,1	1,56
217,6	1,592
218,1	1,615
218,5	1,619
219	1,64
219,5	1,653
219,9	1,696
220,4	1,719
220,9	1,756
221,3	1,738
221,8	1,767
222,3	1,772
222,7	1,788
223,2	1,804
223,6	1,802
224,1	1,801
224,6	1,828
225	1,836
225,5	1,85
226	1,862
226,4	1,857
226,9	1,864
227,4	1,855
227,8	1,877
228,3	1,91
228,8	1,914
229,2	1,945
229,7	1,963
230,2	1,996
230,6	2,024
231,1	2,03
231,5	2,019
232	2,046
232,5	2,017
232,9	2,018
233,4	2,031
233,9	2,045
234,3	2,057
234,8	2,068
235,3	2,065
235,7	2,098
236,2	2,138
236,7	2,132
237,1	2,12
237,6	2,143
238,1	2,142
238,5	2,155
239	2,168
239,4	2,163
239,9	2,177
240,4	2,183
240,8	2,199
241,3	2,215
241,8	2,212
242,2	2,209
242,7	2,197
243,2	2,213
243,6	2,227
244,1	2,203
244,6	2,211
245	2,226
245,5	2,243
245,9	2,258
246,4	2,243
246,9	2,246
247,3	2,226
247,8	2,241
248,3	2,218
248,7	2,204
249,2	2,221
249,7	2,239
250,1	2,236
250,6	2,257
251	2,254
251,5	2,299
252	2,298
252,4	2,283
252,9	2,274
253,4	2,268
253,8	2,264
254,3	2,261
254,8	2,232
255,2	2,239
255,7	2,244
256,1	2,248
256,6	2,273
257,1	2,294
257,5	2,309
258	2,327
258,5	2,359
258,9	2,387
259,4	2,38
259,9	2,36
260,3	2,366
260,8	2,353
261,2	2,355
261,7	2,336
262,2	2,315
262,6	2,332
263,1	2,354
263,6	2,353
264	2,347
264,5	2,343
264,9	2,357
265,4	2,351
265,9	2,354
266,3	2,334
266,8	2,316
267,3	2,314
267,7	2,31
268,2	2,322
268,7	2,325
269,1	2,299
269,6	2,316
270	2,34
270,5	2,336
271	2,327
271,4	2,295
271,9	2,264
272,4	2,276
272,8	2,294
273,3	2,285
273,7	2,277
274,2	2,281
274,7	2,287
275,1	2,312
275,6	2,306
276,1	2,278
276,5	2,266
277	2,265
277,4	2,264
277,9	2,256
278,4	2,254
278,8	2,258
279,3	2,257
279,8	2,274
280,2	2,292
280,7	2,323
281,1	2,308
281,6	2,29
282,1	2,273
282,5	2,25
283	2,207
283,4	2,168
283,9	2,117
284,4	2,08
284,8	2,04
285,3	2
285,8	1,957
286,2	1,911
286,7	1,873
287,1	1,825
287,6	1,789
288,1	1,755
288,5	1,715
289	1,685
289,5	1,661
289,9	1,631
290,4	1,616
290,8	1,599
291,3	1,577
291,8	1,564
292,2	1,553
292,7	1,542
293,1	1,538
293,6	1,526
294,1	1,522
294,5	1,518
295	1,513
295,5	1,509
295,9	1,505
296,4	1,5
296,8	1,499
297,3	1,492
297,8	1,488
298,2	1,488
298,7	1,483
299,1	1,477
299,6	1,47
300,1	1,461
300,5	1,454
301	1,451
301,5	1,443
301,9	1,44
302,4	1,436
302,8	1,432
303,3	1,43
303,8	1,425
304,2	1,419
304,7	1,413
305,1	1,402
305,6	1,395
306,1	1,386
306,5	1,378
307	1,369
307,4	1,362
307,9	1,353
308,4	1,347
308,8	1,338
309,3	1,329
309,8	1,32
310,2	1,312
310,7	1,302
311,1	1,293
311,6	1,283
312,1	1,275
312,5	1,268
313	1,258
313,4	1,248
313,9	1,24
314,4	1,229
314,8	1,218
315,3	1,207
315,7	1,195
316,2	1,185
316,7	1,177
317,1	1,165
317,6	1,154
318	1,144
318,5	1,133
319	1,12
319,4	1,107
319,9	1,092
320,3	1,079
320,8	1,067
321,3	1,055
321,7	1,042
322,2	1,03
322,6	1,019
323,1	1,008
323,6	0,997
324	0,985
324,5	0,972
324,9	0,96
325,4	0,949
325,9	0,935
326,3	0,921
326,8	0,909
327,2	0,897
327,7	0,885
328,2	0,873
328,6	0,862
329,1	0,853
329,5	0,843
330	0,831
330,5	0,82
330,9	0,809
331,4	0,798
331,8	0,787
332,3	0,774
332,8	0,763
333,2	0,753
333,7	0,743
334,1	0,732
334,6	0,721
335,1	0,71
335,5	0,702
336	0,692
336,4	0,681
336,9	0,672
337,4	0,663
337,8	0,654
338,3	0,644
338,7	0,634
339,2	0,624
339,7	0,615
340,1	0,605
340,6	0,595
341	0,586
341,5	0,577
342	0,568
342,4	0,56
342,9	0,551
343,3	0,543
343,8	0,536
344,2	0,527
344,7	0,52
345,2	0,512
345,6	0,503
346,1	0,496
346,5	0,489
347	0,481
347,5	0,474
347,9	0,467
348,4	0,46
348,8	0,454
349,3	0,447
349,8	0,439
350,2	0,432
350,7	0,425
351,1	0,418
351,6	0,412
352	0,405
352,5	0,4
353	0,393
353,4	0,386
353,9	0,381
354,3	0,375
354,8	0,37
355,3	0,365
355,7	0,359
356,2	0,354
356,6	0,349
357,1	0,344
357,5	0,338
358	0,334
358,5	0,328
358,9	0,323
359,4	0,318
359,8	0,313
360,3	0,309
360,8	0,305
361,2	0,299
361,7	0,295
362,1	0,291
362,6	0,287
363	0,283
363,5	0,278
364	0,274
364,4	0,27
364,9	0,266
365,3	0,262
365,8	0,258
366,3	0,254
366,7	0,25
367,2	0,247
367,6	0,244
368,1	0,24
368,5	0,237
369	0,234
369,5	0,231
369,9	0,228
370,4	0,225
370,8	0,222
371,3	0,219
371,7	0,216
372,2	0,212
372,7	0,209
373,1	0,206
373,6	0,203
374	0,199
374,5	0,197
374,9	0,193
375,4	0,19
375,9	0,188
376,3	0,185
376,8	0,182
377,2	0,179
377,7	0,177
378,2	0,175
378,6	0,173
379,1	0,17
379,5	0,168
380	0,167
380,4	0,165
380,9	0,164
381,4	0,162
381,8	0,159
382,3	0,157
382,7	0,155
383,2	0,152
383,6	0,15
384,1	0,148
384,6	0,145
385	0,143
385,5	0,142
385,9	0,141
386,4	0,139
386,8	0,137
387,3	0,135
387,7	0,134
388,2	0,133
388,7	0,131
389,1	0,129
389,6	0,127
390	0,126
390,5	0,124
390,9	0,123
391,4	0,121
391,9	0,12
392,3	0,118
392,8	0,117
393,2	0,117
393,7	0,115
394,1	0,113
394,6	0,112
395,1	0,11
395,5	0,108
396	0,107
396,4	0,105
396,9	0,105
397,3	0,103
397,8	0,102
398,2	0,101
398,7	0,1
399,2	0,099
399,6	0,098
400,1	0,096
400,5	0,095
401	0,093
401,4	0,092
401,9	0,091
402,4	0,089
402,8	0,088
403,3	0,087
403,7	0,086
404,2	0,085
404,6	0,084
405,1	0,083
405,5	0,082
406	0,081
406,5	0,08
406,9	0,08
407,4	0,079
407,8	0,078
408,3	0,077
408,7	0,076
409,2	0,075
409,6	0,074
410,1	0,073
410,6	0,072
411	0,072
411,5	0,071
411,9	0,07
412,4	0,069
412,8	0,068
413,3	0,067
413,7	0,066
414,2	0,065
414,7	0,065
415,1	0,064
415,6	0,064
416	0,063
416,5	0,062
416,9	0,061
417,4	0,06
417,8	0,059
418,3	0,058
418,8	0,057
419,2	0,056
419,7	0,056
420,1	0,055
420,6	0,055
421	0,054
421,5	0,054
421,9	0,053
422,4	0,052
422,8	0,051
423,3	0,05
423,8	0,049
424,2	0,048
424,7	0,046
425,1	0,046
425,6	0,044
426	0,044
426,5	0,044
426,9	0,044
427,4	0,043
427,9	0,043
428,3	0,043
428,8	0,043
429,2	0,042
429,7	0,041
430,1	0,041
430,6	0,04
431	0,04
431,5	0,039
431,9	0,038
432,4	0,038
432,8	0,037
433,3	0,036
433,8	0,035
434,2	0,034
434,7	0,034
435,1	0,034
435,6	0,033
436	0,032
436,5	0,032
436,9	0,031
437,4	0,031
437,8	0,03
438,3	0,029
438,8	0,029
439,2	0,028
439,7	0,027
440,1	0,027
440,6	0,027
441	0,026
441,5	0,026
441,9	0,026
442,4	0,026
442,8	0,026
443,3	0,026
443,7	0,026
444,2	0,025
444,7	0,025
445,1	0,024
445,6	0,024
446	0,024
446,5	0,023
446,9	0,022
447,4	0,022
447,8	0,021
448,3	0,021
448,7	0,021
449,2	0,021
449,6	0,021
450,1	0,02
450,6	0,021
451	0,02
451,5	0,02
451,9	0,019
452,4	0,019
452,8	0,018
453,3	0,018
453,7	0,018
454,2	0,018
454,6	0,018
455,1	0,017
455,5	0,017
456	0,017
456,4	0,017
456,9	0,016
457,3	0,015
457,8	0,015
458,3	0,014
458,7	0,013
459,2	0,013
459,6	0,014
460,1	0,013
460,5	0,014
461	0,013
461,4	0,014
461,9	0,014
462,3	0,014
462,8	0,014
463,2	0,014
463,7	0,013
464,1	0,014
464,6	0,013
465	0,013
465,5	0,013
466	0,013
466,4	0,013
466,9	0,013
467,3	0,013
467,8	0,013
468,2	0,012
468,7	0,012
469,1	0,011
469,6	0,011
470	0,011
470,5	0,011
470,9	0,01
471,4	0,01
471,8	0,009
472,3	0,01
472,7	0,009
473,2	0,009
473,6	0,009
474,1	0,009
474,5	0,009
475	0,009
475,4	0,009
475,9	0,009
476,4	0,009
476,8	0,009
477,3	0,009
477,7	0,009
478,2	0,01
478,6	0,009
479,1	0,009
479,5	0,009
480	0,009
480,4	0,009
480,9	0,009
481,3	0,009
481,8	0,009
482,2	0,009
482,7	0,008
483,1	0,008
483,6	0,008
484	0,007
484,5	0,007
484,9	0,007
485,4	0,007
485,8	0,007
486,3	0,007
486,7	0,007
487,2	0,007
487,6	0,008
488,1	0,007
488,5	0,008
489	0,008
489,4	0,008
489,9	0,008
490,4	0,008
490,8	0,008
491,3	0,008
491,7	0,007
492,2	0,006
492,6	0,006
493,1	0,006
493,5	0,006
494	0,006
494,4	0,006
494,9	0,006
495,3	0,007
495,8	0,007
496,2	0,006
496,7	0,006
497,1	0,006
497,6	0,006
498	0,007
498,5	0,007
498,9	0,007
499,4	0,007
499,8	0,007
500,3	0,007
500,7	0,007
501,2	0,006
501,6	0,006
502,1	0,006
502,5	0,006
503	0,005
503,4	0,005
503,9	0,006
504,3	0,006
504,8	0,006
505,2	0,006
505,7	0,007
506,1	0,007
506,6	0,007
507	0,006
507,5	0,006
507,9	0,005
508,4	0,005
508,8	0,005
509,3	0,005
509,7	0,006
510,2	0,006
510,6	0,005
511,1	0,006
511,5	0,005
512	0,005
512,4	0,004
512,9	0,004
513,3	0,004
513,8	0,004
514,2	0,005
514,7	0,005
515,1	0,005
515,6	0,005
516	0,006
516,5	0,006
516,9	0,005
517,4	0,005
517,8	0,005
518,3	0,005
518,7	0,005
519,2	0,005
519,6	0,005
520,1	0,005
520,5	0,005
521	0,006
521,4	0,006
521,9	0,006
522,3	0,006
522,8	0,006
523,2	0,005
523,7	0,006
524,1	0,005
524,6	0,005
525	0,005
525,5	0,005
525,9	0,005
526,4	0,005
526,8	0,004
527,3	0,005
527,7	0,005
528,2	0,005
528,6	0,005
529,1	0,004
529,5	0,004
530	0,005
530,4	0,004
530,9	0,003
531,3	0,003
531,8	0,003
532,2	0,004
532,6	0,004
533,1	0,003
533,5	0,003
534	0,003
534,4	0,004
534,9	0,004
535,3	0,003
535,8	0,003
536,2	0,003
536,7	0,003
537,1	0,003
537,6	0,003
538	0,003
538,5	0,003
538,9	0,004
539,4	0,004
539,8	0,004
540,3	0,004
540,7	0,003
541,2	0,004
541,6	0,004
542,1	0,004
542,5	0,004
543	0,004
543,4	0,004
543,9	0,005
544,3	0,004
544,8	0,004
545,2	0,003
545,7	0,004
546,1	0,004
546,5	0,003
547	0,003
547,4	0,003
547,9	0,003
548,3	0,003
548,8	0,004
549,2	0,004
549,7	0,004
550,1	0,004
550,6	0,005
551	0,005
551,5	0,005
551,9	0,005
552,4	0,005
552,8	0,005
553,3	0,005
553,7	0,005
554,2	0,005
554,6	0,005
555,1	0,005
555,5	0,004
555,9	0,004
556,4	0,004
556,8	0,004
557,3	0,004
557,7	0,004
558,2	0,004
558,6	0,004
559,1	0,004
559,5	0,004
560	0,003
560,4	0,004
560,9	0,004
561,3	0,003
561,8	0,003
562,2	0,003
562,7	0,003
563,1	0,003
563,6	0,003
564	0,003
564,4	0,004
564,9	0,004
565,3	0,004
565,8	0,003
566,2	0,004
566,7	0,003
567,1	0,003
567,6	0,003
568	0,003
568,5	0,003
568,9	0,003
569,4	0,002
569,8	0,002
570,3	0,002
570,7	0,003
571,1	0,003
571,6	0,003
572	0,003
572,5	0,003
572,9	0,002
573,4	0,002
573,8	0,002
574,3	0,002
574,7	0,002
575,2	0,002
575,6	0,002
576,1	0,003
576,5	0,003
576,9	0,003
577,4	0,003
577,8	0,003
578,3	0,003
578,7	0,003
579,2	0,003
579,6	0,003
580,1	0,003
580,5	0,003
581	0,003
581,4	0,003
581,9	0,003
582,3	0,003
582,7	0,003
583,2	0,003
583,6	0,003
584,1	0,003
584,5	0,003
585	0,003
585,4	0,003
585,9	0,002
586,3	0,002
586,8	0,002
587,2	0,003
587,6	0,002
588,1	0,002
588,5	0,002
589	0,002
589,4	0,002
589,9	0,002
590,3	0,002
590,8	0,003
591,2	0,003
591,7	0,003
592,1	0,003
592,5	0,003
593	0,002
593,4	0,002
593,9	0,002
594,3	0,002
594,8	0,002
595,2	0,002
595,7	0,003
596,1	0,003
596,6	0,003
597	0,003
597,4	0,003
597,9	0,003
598,3	0,003
598,8	0,003
599,2	0,003
599,7	0,003
600,1	0,003
600,6	0,003
601	0,002
601,4	0,002
601,9	0,002
602,3	0,003
602,8	0,002
603,2	0,002
603,7	0,002
604,1	0,002
604,6	0,002
605	0,002
605,4	0,002
605,9	0,003
606,3	0,003
606,8	0,003
607,2	0,003
607,7	0,003
608,1	0,003
608,6	0,002
609	0,002
609,4	0,003
609,9	0,002
610,3	0,002
610,8	0,002
611,2	0,002
611,7	0,003
612,1	0,003
612,6	0,003
613	0,003
613,4	0,003
613,9	0,003
614,3	0,003
614,8	0,003
615,2	0,002
615,7	0,002
616,1	0,002
616,6	0,003
617	0,003
617,4	0,003
617,9	0,003
618,3	0,003
618,8	0,003
619,2	0,002
619,7	0,002
620,1	0,002
620,5	0,002
621	0,002
621,4	0,002
621,9	0,002
622,3	0,002
622,8	0,002
623,2	0,003
623,6	0,003
624,1	0,003
624,5	0,002
625	0,002
625,4	0,002
625,9	0,002
626,3	0,002
626,8	0,002
627,2	0,002
627,6	0,002
628,1	0,002
628,5	0,002
629	0,001
629,4	0,001
629,9	0,001
630,3	0,001
630,7	0,001
631,2	0,001
631,6	0,001
632,1	0,001
632,5	0,002
633	0,002
633,4	0,002
633,8	0,002
634,3	0,002
634,7	0,002
635,2	0,002
635,6	0,002
636,1	0,002
636,5	0,002
636,9	0,002
637,4	0,002
637,8	0,002
638,3	0,002
638,7	0,002
639,2	0,002
639,6	0,002
640	0,002
640,5	0,002
640,9	0,002
641,4	0,001
641,8	0,002
642,2	0,002
642,7	0,002
643,1	0,002
643,6	0,002
644	0,002
644,5	0,002
644,9	0,001
645,3	0,002
645,8	0,002
646,2	0,001
646,7	0,002
647,1	0,002
647,6	0,002
648	0,002
648,4	0,002
648,9	0,002
649,3	0,002
649,8	0,002
650,2	0,002
650,6	0,002
651,1	0,002
651,5	0,002
652	0,002
652,4	0,002
652,9	0,002
653,3	0,002
653,7	0,002
654,2	0,002
654,6	0,002
655,1	0,002
655,5	0,001
655,9	0,001
656,4	0
656,8	0,001
657,3	0,001
657,7	0,002
658,2	0,002
658,6	0,003
659	0,004
659,5	0,006
659,9	0,004
660,4	0,004
660,8	0,003
661,2	0,003
661,7	0,002
662,1	0,002
662,6	0,001
663	0,001
663,4	0,001
663,9	0,001
664,3	0,001
664,8	0,001
665,2	0,002
665,6	0,002
666,1	0,002
666,5	0,002
667	0,002
667,4	0,002
667,9	0,002
668,3	0,001
668,7	0,002
669,2	0,001
669,6	0,002
670,1	0,002
670,5	0,002
670,9	0,001
671,4	0,001
671,8	0,001
672,3	0,001
672,7	0,001
673,1	0,001
673,6	0,001
674	0,001
674,5	0,001
674,9	0,001
675,3	0,002
675,8	0,002
676,2	0,001
676,7	0,001
677,1	0,001
677,5	0,001
678	0,001
678,4	0,001
678,9	0,001
679,3	0,002
679,7	0,002
680,2	0,002
680,6	0,002
681,1	0,002
681,5	0,002
681,9	0,001
682,4	0,001
682,8	0,001
683,3	0,002
683,7	0,001
684,1	0,002
684,6	0,002
685	0,002
685,5	0,002
685,9	0,002
686,3	0,002
686,8	0,002
687,2	0,002
687,7	0,002
688,1	0,002
688,5	0,001
689	0,002
689,4	0,001
689,9	0,001
690,3	0,002
690,7	0,002
691,2	0,002
691,6	0,001
692	0,001
692,5	0,001
692,9	0,001
693,4	0,001
693,8	0,001
694,2	0,001
694,7	0,001
695,1	0,001
695,6	0,001
696	0,001
696,4	0,001
696,9	0,001
697,3	0,001
697,8	0,001
698,2	0,001
698,6	0,001
699,1	0,001
699,5	0,002
699,9	0,002
700,4	0,001
700,8	0,001
701,3	0,001
701,7	0,001
702,1	0,001
702,6	0,001
703	0,001
703,5	0,001
703,9	0,001
704,3	0,001
704,8	0,002
705,2	0,002
705,6	0,002
706,1	0,001
706,5	0,001
707	0,002
707,4	0,002
707,8	0,002
708,3	0,002
708,7	0,003
709,2	0,003
709,6	0,003
710	0,003
710,5	0,003
710,9	0,003
711,3	0,003
711,8	0,002
712,2	0,002
712,7	0,002
713,1	0,002
713,5	0,002
714	0,002
714,4	0,002
714,8	0,002
715,3	0,001
715,7	0,001
716,2	0,002
716,6	0,002
717	0,002
717,5	0,002
717,9	0,002
718,3	0,002
718,8	0,002
719,2	0,001
719,7	0,002
720,1	0,002
720,5	0,002
721	0,002
721,4	0,002
721,8	0,002
722,3	0,002
722,7	0,003
723,2	0,003
723,6	0,003
724	0,003
724,5	0,003
724,9	0,003
725,3	0,003
725,8	0,003
726,2	0,002
726,7	0,003
727,1	0,003
727,5	0,003
728	0,003
728,4	0,002
728,8	0,002
729,3	0,002
729,7	0,001
730,1	0,001
730,6	0,001
731	0,001
731,5	0,001
731,9	0,001
732,3	0,001
732,8	0,002
733,2	0,002
733,6	0,002
734,1	0,002
734,5	0,002
734,9	0,002
735,4	0,002
735,8	0,002
736,3	0,002
736,7	0,001
737,1	0,001
737,6	0,002
738	0,002
738,4	0,001
738,9	0,001
739,3	0,002
739,7	0,001
740,2	0,001
740,6	0,001
741,1	0,001
741,5	0,001
741,9	0,001
742,4	0,001
742,8	0,002
743,2	0,002
743,7	0,002
744,1	0,002
744,5	0,001
745	0,001
745,4	0,001
745,8	0,002
746,3	0,002
746,7	0,002
747,2	0,002
747,6	0,002
748	0,002
748,5	0,002
748,9	0,002
749,3	0,001
749,8	0,001
750,2	0,001
750,6	0,001
751,1	0,001
751,5	0,002
751,9	0,002
752,4	0,002
752,8	0,002
753,3	0,002
753,7	0,002
754,1	0,002
754,6	0,001
755	0,001
755,4	0,001
755,9	0,001
756,3	0
756,7	0
757,2	0
757,6	0,001
758	0,001
758,5	0,001
758,9	0,001
759,3	0,001
759,8	0,002
760,2	0,001
760,6	0,001
761,1	0,001
761,5	0,001
761,9	0,001
762,4	0,001
762,8	0,001
763,3	0,001
763,7	0,001
764,1	0,001
764,6	0,001
765	0
765,4	0
765,9	0
766,3	-0
766,7	0
767,2	0,001
767,6	0,001
768	0,001
768,5	0,001
768,9	0,001
769,3	0,001
769,8	0,001
770,2	0,001
770,6	0,002
771,1	0,002
771,5	0,002
771,9	0,002
772,4	0,002
772,8	0,002
773,2	0,001
773,7	0,002
774,1	0,002
774,5	0,001
775	0,001
775,4	0,002
775,8	0,002
776,3	0,002
776,7	0,001
777,1	0,001
777,6	0,001
778	0,001
778,4	0,002
778,9	0,002
779,3	0,002
779,7	0,002
780,2	0,002
780,6	0,002
781	0,002
781,5	0,002
781,9	0,002
782,3	0,001
782,8	0,001
783,2	0,001
783,6	0,001
784,1	0
784,5	0
784,9	0
785,4	0
785,8	0
786,2	0
786,7	0
787,1	0
787,5	-0
788	-0
788,4	-0
788,8	-0
789,3	-0
789,7	-0
790,1	0
790,6	0,001
791	0,001
791,4	0,001
791,9	0,001
792,3	0,002
792,7	0,001
793,2	0,002
793,6	0,001
794	0,001
794,5	0,001
794,9	0,001
795,3	0,001
795,8	0,001
796,2	0,001
796,6	0,001
797,1	0,001
797,5	0,001
797,9	0,001
798,4	0,001
798,8	0,001
799,2	0
799,7	0,001
800,1	0,001
800,5	0,001
801	0,001
801,4	0,001
801,8	0,002
802,2	0,002
802,7	0,002
803,1	0,002
803,5	0,002
804	0,002
804,4	0,002
804,8	0,002
805,3	0,001
805,7	0,001
806,1	0,001
806,6	0,001
807	0,001
807,4	0,001
807,9	0,001
808,3	0,001
808,7	0,001
809,2	0,001
809,6	0,001
810	0,001
810,4	0,002
810,9	0,002
811,3	0,002
811,7	0,002
812,2	0,002
812,6	0,001
813	0,001
813,5	0,001
813,9	0,001
814,3	0,001
814,8	0,001
815,2	0
815,6	0,001
816,1	0
816,5	-0
816,9	0
817,3	-0
817,8	0
818,2	-0
818,6	-0
819,1	-0
819,5	-0
819,9	-0
820,4	-0
820,8	0
821,2	0
821,7	0
822,1	0
822,5	0
822,9	0
823,4	0
823,8	0
824,2	0
824,7	0,001
825,1	0,001
825,5	0,001
826	0,001
826,4	0,001
826,8	0,001
827,3	0,001
827,7	0,001
828,1	0,001
828,5	0,001
829	0,001
829,4	0,001
829,8	0,001
830,3	0,001
830,7	0,001
831,1	0
831,6	0
832	0,001
832,4	0,001
832,8	0,001
833,3	0,001
833,7	0,001
834,1	0,002
834,6	0,002
835	0,002
835,4	0,002
835,8	0,002
836,3	0,001
836,7	0,001
837,1	0,001
837,6	0,001
838	0
838,4	0
838,9	0
839,3	0
839,7	0
840,1	-0
840,6	-0
841	0
841,4	0
841,9	-0
842,3	-0
842,7	0
843,1	0
843,6	0
844	0,001
844,4	0,001
844,9	0,001
845,3	0,001
845,7	0,002
846,2	0,002
846,6	0,002
847	0,002
847,4	0,002
847,9	0,002
848,3	0,002
848,7	0,002
849,2	0,002
849,6	0,002
850	0,001
850,4	0,001
850,9	0,002
851,3	0,002
851,7	0,002
852,2	0,001
852,6	0,002
853	0,002
853,4	0,001
853,9	0,001
854,3	0,001
854,7	0,001
855,2	0,001
855,6	0,001
856	0,001
856,4	0,001
856,9	0,001
857,3	0,001
857,7	0,001
858,2	0,001
858,6	0,001
859	0,001
859,4	0,001
859,9	0
860,3	0
860,7	0
861,1	0,001
861,6	0,001
862	0,001
862,4	0,001
862,9	0,001
863,3	0,002
863,7	0,002
864,1	0,002
864,6	0,002
865	0,002
865,4	0,002
865,9	0,002
866,3	0,002
866,7	0,002
867,1	0,001
867,6	0,001
868	0,001
868,4	0,001
868,8	0,001
869,3	0,001
869,7	0,002
870,1	0,002
870,6	0,002
871	0,002
871,4	0,003
871,8	0,002
872,3	0,002
872,7	0,002
873,1	0,002
873,5	0,002
874	0,002
874,4	0,002
874,8	0,002
875,3	0,002
875,7	0,002
876,1	0,002
876,5	0,002
877	0,002
877,4	0,001
877,8	0,001
878,2	0,001
878,7	0,001
879,1	0,001
879,5	0,001
879,9	0,001
880,4	0,001
880,8	0,001
881,2	0,001
881,7	0,002
882,1	0,001
882,5	0,001
882,9	0,001
883,4	0,001
883,8	0,002
884,2	0,002
884,6	0,002
885,1	0,002
885,5	0,001
885,9	0,002
886,3	0,002
886,8	0,001
887,2	0,001
887,6	0,002
888	0,001
888,5	0,001
888,9	0,001
889,3	0,001
889,8	0,001
890,2	0,001
890,6	0,001
891	0,002
891,5	0,002
891,9	0,002
892,3	0,002
892,7	0,002
893,2	0,001
893,6	0,001
894	0,002
894,4	0,001
894,9	0,001
895,3	0,002
895,7	0,002
896,1	0,002
896,6	0,001
897	0,001
897,4	0,002
897,8	0,002
898,3	0,001
898,7	0,001
899,1	0,001
899,5	0,002
900	0,001
900,4	0,001
900,8	0,001
901,2	0,001
901,7	0,001
902,1	0,001
902,5	0,001
902,9	0,001
903,4	0,001
903,8	0,001
904,2	0,001
904,6	0,001
905,1	0,001
905,5	0,002
905,9	0,002
906,3	0,002
906,8	0,002
907,2	0,001
907,6	0,001
908	0,001
908,5	0,001
908,9	0
909,3	0
909,7	0
910,2	0
910,6	0
911	0
911,4	0,001
911,9	0
912,3	0
912,7	0
913,1	0
913,6	0,001
914	0
914,4	0,001
914,8	0,001
915,3	0,001
915,7	0,001
916,1	0,001
916,5	0,001
916,9	0,001
917,4	0,001
917,8	0,001
918,2	0,001
918,6	0
919,1	-0
919,5	-0
919,9	-0
920,3	-0
920,8	0
921,2	0
921,6	0
922	0,001
922,5	0,001
922,9	0,001
923,3	0,001
923,7	0,001
924,2	0,001
924,6	0,001
925	0,001
925,4	0,002
925,8	0,002
926,3	0,002
926,7	0,001
927,1	0,001
927,5	0,001
928	0,001
928,4	0,001
928,8	0,001
929,2	0
929,7	0,001
930,1	0
930,5	0,001
930,9	0
931,3	-0
931,8	-0
932,2	0
932,6	-0
933	0
933,5	-0
933,9	0
934,3	0,001
934,7	0,001
935,2	0,001
935,6	0,001
936	0,001
936,4	0,002
936,8	0,001
937,3	0,002
937,7	0,002
938,1	0,002
938,5	0,002
939	0,002
939,4	0,001
939,8	0,001
940,2	0,002
940,6	0,002
941,1	0,001
941,5	0,001
941,9	0,001
942,3	0,001
942,8	0,002
943,2	0,001
943,6	0
944	0,001
944,4	0,001
944,9	0,001
945,3	0,001
945,7	0,001
946,1	0,002
946,6	0,002
947	0,001
947,4	0,002
947,8	0,002
948,2	0,002
948,7	0,002
949,1	0,002
949,5	0,002
949,9	0,003
950,3	0,002
950,8	0,001
951,2	0,001
951,6	0,001
952	0,001
952,5	0,001
952,9	0,001
953,3	0,002
953,7	0,002
954,1	0,002
954,6	0,001
955	0,001
955,4	0
955,8	0
956,2	0
956,7	0
957,1	0,001
957,5	0,001
957,9	0
958,3	0,001
958,8	0,001
959,2	0,001
959,6	0,001
960	0,001
960,5	0,001
960,9	0,001
961,3	0,001
961,7	0,001
962,1	0,001
962,6	0,001
963	0
963,4	0
963,8	0
964,2	0,001
964,7	0,001
965,1	0,002
965,5	0,002
965,9	0,002
966,3	0,001
966,8	0,001
967,2	0
967,6	0
968	0
968,4	0,001
968,9	0,001
969,3	0,001
969,7	0,002
970,1	0,002
970,5	0,002
971	0,002
971,4	0,001
971,8	0,002
972,2	0,002
972,6	0,002
973,1	0,002
973,5	0,001
973,9	0,001
974,3	0,002
974,7	0,001
975,2	0,001
975,6	0,001
976	0,001
976,4	0
976,8	0,001
977,3	0
977,7	0,001
978,1	0,001
978,5	0
978,9	0
979,4	0
979,8	-0
980,2	-0
980,6	-0
981	-0
981,5	-0
981,9	0
982,3	0,001
982,7	0,002
983,1	0,002
983,6	0,002
984	0,002
984,4	0,002
984,8	0,002
985,2	0,002
985,6	0,002
986,1	0,001
986,5	0,001
986,9	0,001
987,3	0,002
987,7	0,002
988,2	0,001
988,6	0,001
989	0,001
989,4	0,001
989,8	0,001
990,3	-0
990,7	0
991,1	0
991,5	-0
991,9	-0
992,3	0
992,8	-0
993,2	-0
993,6	-0,001
994	-0,001
994,4	-0,001
994,9	-0,001
995,3	-0,001
995,7	-0,001
996,1	-0
996,5	0
996,9	0
997,4	0,001
997,8	0,001
998,2	0,001
998,6	0,001
999	0,001
999,5	0,001
999,9	0
1000,3	0,001
1000,7	0,001
1001,1	0
1001,5	0
1002	-0,001
1002,4	-0
1002,8	-0
1003,2	-0
1003,6	-0,001
1004	-0
1004,5	0
1004,9	0,001
1005,3	0,001
1005,7	0,001
1006,1	0,001
1006,6	0,001
1007	0,001
1007,4	0,001
1007,8	0,001
1008,2	0,001
1008,6	0
1009,1	0
1009,5	0
1009,9	0
1010,3	0
1010,7	0
1011,1	0
1011,6	0
1012	0
1012,4	0,001
1012,8	0,001
1013,2	0,001
1013,6	0
1014,1	0
1014,5	0,001
1014,9	0,001
1015,3	0,001
1015,7	0,001
1016,1	0,001
1016,6	0,001
1017	0,001
1017,4	0,001
1017,8	0,001
1018,2	0,001
1018,6	0,001
1019,1	0
1019,5	-0
1019,9	-0
1020,3	-0
1020,7	0
1021,1	0,001
1021,6	0,001
1022	0,002
1022,4	0,002
1022,8	0,002
1023,2	0,002
1023,6	0,002
1024,1	0,002
1024,5	0,001
1024,9	0,001
1025,3	0,002
1025,7	0,001
1026,1	0,002
1026,6	0,001
1027	0,002
1027,4	0,002
1027,8	0,002
1028,2	0,002
1028,6	0,003
1029	0,003
1029,5	0,002
1029,9	0,001
1030,3	0,001
1030,7	0
1031,1	-0
1031,5	-0,001
1032	-0,001
1032,4	-0
1032,8	-0
1033,2	0
1033,6	-0
1034	0
1034,4	0
1034,9	0
1035,3	0,001
1035,7	0,001
1036,1	0,002
1036,5	0,002
1036,9	0,002
1037,4	0,002
1037,8	0,002
1038,2	0,002
1038,6	0,002
1039	0,002
1039,4	0,002
1039,8	0,002
1040,3	0,003
1040,7	0,002
1041,1	0,002
1041,5	0,002
1041,9	0,003
1042,3	0,003
1042,7	0,003
1043,2	0,001
1043,6	0,001
1044	0,001
1044,4	0,001
1044,8	0,001
1045,2	0
1045,6	0,001
1046,1	0,002
1046,5	0,003
1046,9	0,002
1047,3	0,002
1047,7	0,001
1048,1	0,002
1048,5	0,001
1049	0,001
1049,4	0
1049,8	0,001
1050,2	0,002
1050,6	0,002
1051	0,002
1051,4	0,002
1051,9	0,002
1052,3	0,002
1052,7	0,002
1053,1	0,001
1053,5	0,001
1053,9	0,001
1054,3	0
1054,8	-0
1055,2	0,001
1055,6	0,001
1056	0,001
1056,4	0,001
1056,8	0
1057,2	0,001
1057,6	0
1058,1	-0
1058,5	-0,001
1058,9	-0,001
1059,3	-0,001
1059,7	-0,001
1060,1	-0,001
1060,5	-0,001
1061	-0,001
1061,4	-0,001
1061,8	-0
1062,2	0
1062,6	0
1063	0,001
1063,4	0
1063,8	-0,001
1064,3	-0
1064,7	-0
1065,1	-0,001
1065,5	-0,001
1065,9	-0,001
1066,3	0,001
1066,7	0,002
1067,1	0,001
1067,6	-0
1068	0
1068,4	0,001
1068,8	0
1069,2	-0,001
1069,6	-0,001
1070	-0
1070,4	0
1070,9	0,001
1071,3	0,001
1071,7	0,001
1072,1	0,001
1072,5	0,001
1072,9	0,001
1073,3	0,001
1073,7	0
1074,2	0,001
1074,6	0,002
1075	0,002
1075,4	0,001
1075,8	0,001
1076,2	0,001
1076,6	0,001
1077	0,001
1077,5	-0
1077,9	0
1078,3	0,001
1078,7	0
1079,1	0,001
1079,5	0,001
1079,9	0,002
1080,3	0,001
1080,7	-0
1081,2	-0
1081,6	0,002
1082	0,003
1082,4	0,001
1082,8	0,002
1083,2	0,003
1083,6	0,004
1084	0,003
1084,5	0
1084,9	0,001
1085,3	0,002
1085,7	0,002
1086,1	0,002
1086,5	0,002
1086,9	0,003
1087,3	0,004
1087,7	0,002
1088,2	0,004
1088,6	0,003
1089	0,002
1089,4	0,002
1089,8	-0
1090,2	-0,001
1090,6	0,001
1091	-0
1091,4	0,001
1091,9	0,001
1092,3	0,002
1092,7	0,005
1093,1	0,009
1093,5	0,008
1093,9	0,004
1094,3	0,001
1094,7	0,004
1095,1	0,003
1095,5	0,001
1096	-0
1096,4	0,001
1096,8	0,004
1097,2	0,007
1097,6	0,005
1098	0,007
1098,4	0,011
1098,8	0,014
1099,2	0,011
1099,6	0,006
1100,1	0,01
1100,5	0,011
1100,9	0,008
1101,3	0,007
1101,7	0
1102,1	-0,003
1102,5	0,002
1102,9	-0,001
1103,3	0,005
1103,7	0,003
1104,2	0
1104,6	0,005
1105	0,019
1105,4	0,015
1105,8	0,015
1106,2	0,007
1106,6	0,019
1107	0,041
1107,4	0,06
1107,8	0,043
1108,3	0,468
