Data from Absorbance_00018.txt Node
Date: Thu Aug 10 15:13:34 MSK 2023
User: vat
Spectrometer: MAYP114033
Trigger mode: 0
Integration Time (sec): 8,000000E-3
Scans to average: 10
Electric dark correction enabled: true
Nonlinearity correction enabled: false
Boxcar width: 3
XAxis mode: Wavelengths
Number of Pixels in Spectrum: 2068
>>>>>Begin Spectral Data<<<<<
199,4	-0
199,9	0,181
200,4	0,5
200,8	0,789
201,3	0,902
201,8	0,937
202,2	0,948
202,7	0,988
203,2	1,048
203,6	1,073
204,1	1,088
204,6	1,1
205	1,142
205,5	1,185
206	1,188
206,4	1,202
206,9	1,221
207,4	1,25
207,8	1,257
208,3	1,248
208,8	1,248
209,2	1,257
209,7	1,26
210,2	1,295
210,6	1,302
211,1	1,338
211,5	1,354
212	1,378
212,5	1,402
212,9	1,42
213,4	1,427
213,9	1,439
214,3	1,436
214,8	1,46
215,3	1,484
215,7	1,498
216,2	1,514
216,7	1,506
217,1	1,5
217,6	1,511
218,1	1,522
218,5	1,525
219	1,529
219,5	1,554
219,9	1,565
220,4	1,585
220,9	1,61
221,3	1,632
221,8	1,642
222,3	1,681
222,7	1,691
223,2	1,714
223,6	1,747
224,1	1,764
224,6	1,8
225	1,818
225,5	1,826
226	1,838
226,4	1,862
226,9	1,879
227,4	1,888
227,8	1,865
228,3	1,873
228,8	1,873
229,2	1,882
229,7	1,895
230,2	1,921
230,6	1,929
231,1	1,952
231,5	1,966
232	1,978
232,5	1,991
232,9	1,982
233,4	2,009
233,9	2,019
234,3	2,008
234,8	2,017
235,3	2,033
235,7	2,037
236,2	2,067
236,7	2,038
237,1	2,055
237,6	2,078
238,1	2,089
238,5	2,08
239	2,099
239,4	2,116
239,9	2,129
240,4	2,131
240,8	2,141
241,3	2,128
241,8	2,164
242,2	2,166
242,7	2,154
243,2	2,163
243,6	2,162
244,1	2,176
244,6	2,185
245	2,172
245,5	2,167
245,9	2,154
246,4	2,152
246,9	2,142
247,3	2,146
247,8	2,163
248,3	2,167
248,7	2,167
249,2	2,199
249,7	2,194
250,1	2,213
250,6	2,213
251	2,206
251,5	2,201
252	2,203
252,4	2,192
252,9	2,191
253,4	2,205
253,8	2,217
254,3	2,205
254,8	2,204
255,2	2,209
255,7	2,217
256,1	2,233
256,6	2,219
257,1	2,212
257,5	2,24
258	2,249
258,5	2,251
258,9	2,264
259,4	2,28
259,9	2,306
260,3	2,309
260,8	2,317
261,2	2,303
261,7	2,307
262,2	2,282
262,6	2,274
263,1	2,238
263,6	2,222
264	2,202
264,5	2,206
264,9	2,227
265,4	2,229
265,9	2,218
266,3	2,23
266,8	2,249
267,3	2,251
267,7	2,271
268,2	2,234
268,7	2,234
269,1	2,245
269,6	2,242
270	2,251
270,5	2,251
271	2,234
271,4	2,239
271,9	2,258
272,4	2,234
272,8	2,236
273,3	2,229
273,7	2,22
274,2	2,241
274,7	2,26
275,1	2,261
275,6	2,274
276,1	2,289
276,5	2,282
277	2,297
277,4	2,286
277,9	2,281
278,4	2,263
278,8	2,273
279,3	2,266
279,8	2,257
280,2	2,268
280,7	2,273
281,1	2,289
281,6	2,325
282,1	2,305
282,5	2,31
283	2,333
283,4	2,315
283,9	2,327
284,4	2,309
284,8	2,284
285,3	2,296
285,8	2,293
286,2	2,272
286,7	2,279
287,1	2,274
287,6	2,294
288,1	2,296
288,5	2,3
289	2,314
289,5	2,329
289,9	2,334
290,4	2,337
290,8	2,31
291,3	2,288
291,8	2,256
292,2	2,214
292,7	2,149
293,1	2,1
293,6	2,038
294,1	1,989
294,5	1,932
295	1,868
295,5	1,805
295,9	1,755
296,4	1,699
296,8	1,656
297,3	1,605
297,8	1,567
298,2	1,533
298,7	1,505
299,1	1,476
299,6	1,452
300,1	1,425
300,5	1,407
301	1,389
301,5	1,374
301,9	1,356
302,4	1,341
302,8	1,328
303,3	1,316
303,8	1,305
304,2	1,288
304,7	1,277
305,1	1,268
305,6	1,258
306,1	1,246
306,5	1,238
307	1,227
307,4	1,22
307,9	1,21
308,4	1,199
308,8	1,192
309,3	1,183
309,8	1,171
310,2	1,164
310,7	1,154
311,1	1,145
311,6	1,137
312,1	1,128
312,5	1,12
313	1,113
313,4	1,106
313,9	1,099
314,4	1,092
314,8	1,084
315,3	1,077
315,7	1,067
316,2	1,058
316,7	1,049
317,1	1,04
317,6	1,032
318	1,024
318,5	1,016
319	1,008
319,4	1,002
319,9	0,995
320,3	0,987
320,8	0,98
321,3	0,973
321,7	0,966
322,2	0,959
322,6	0,952
323,1	0,944
323,6	0,937
324	0,93
324,5	0,922
324,9	0,915
325,4	0,908
325,9	0,9
326,3	0,892
326,8	0,885
327,2	0,879
327,7	0,871
328,2	0,864
328,6	0,856
329,1	0,849
329,5	0,841
330	0,833
330,5	0,824
330,9	0,816
331,4	0,807
331,8	0,801
332,3	0,793
332,8	0,786
333,2	0,779
333,7	0,77
334,1	0,764
334,6	0,757
335,1	0,749
335,5	0,74
336	0,734
336,4	0,725
336,9	0,717
337,4	0,709
337,8	0,701
338,3	0,694
338,7	0,688
339,2	0,679
339,7	0,671
340,1	0,664
340,6	0,656
341	0,65
341,5	0,641
342	0,634
342,4	0,627
342,9	0,621
343,3	0,614
343,8	0,608
344,2	0,6
344,7	0,593
345,2	0,587
345,6	0,579
346,1	0,573
346,5	0,566
347	0,559
347,5	0,553
347,9	0,547
348,4	0,541
348,8	0,535
349,3	0,528
349,8	0,521
350,2	0,514
350,7	0,507
351,1	0,5
351,6	0,493
352	0,487
352,5	0,48
353	0,475
353,4	0,469
353,9	0,463
354,3	0,457
354,8	0,451
355,3	0,446
355,7	0,441
356,2	0,434
356,6	0,429
357,1	0,423
357,5	0,418
358	0,413
358,5	0,407
358,9	0,402
359,4	0,397
359,8	0,391
360,3	0,386
360,8	0,382
361,2	0,377
361,7	0,372
362,1	0,368
362,6	0,363
363	0,359
363,5	0,354
364	0,35
364,4	0,346
364,9	0,341
365,3	0,337
365,8	0,333
366,3	0,329
366,7	0,325
367,2	0,321
367,6	0,317
368,1	0,314
368,5	0,31
369	0,308
369,5	0,304
369,9	0,301
370,4	0,298
370,8	0,294
371,3	0,292
371,7	0,288
372,2	0,285
372,7	0,282
373,1	0,279
373,6	0,277
374	0,274
374,5	0,272
374,9	0,269
375,4	0,267
375,9	0,264
376,3	0,262
376,8	0,259
377,2	0,257
377,7	0,254
378,2	0,252
378,6	0,25
379,1	0,247
379,5	0,245
380	0,242
380,4	0,24
380,9	0,237
381,4	0,235
381,8	0,232
382,3	0,23
382,7	0,228
383,2	0,226
383,6	0,224
384,1	0,221
384,6	0,22
385	0,218
385,5	0,215
385,9	0,212
386,4	0,21
386,8	0,208
387,3	0,207
387,7	0,204
388,2	0,203
388,7	0,202
389,1	0,199
389,6	0,197
390	0,196
390,5	0,194
390,9	0,192
391,4	0,19
391,9	0,188
392,3	0,187
392,8	0,185
393,2	0,183
393,7	0,182
394,1	0,18
394,6	0,179
395,1	0,177
395,5	0,175
396	0,174
396,4	0,174
396,9	0,173
397,3	0,171
397,8	0,17
398,2	0,169
398,7	0,169
399,2	0,167
399,6	0,165
400,1	0,164
400,5	0,163
401	0,162
401,4	0,161
401,9	0,159
402,4	0,158
402,8	0,158
403,3	0,157
403,7	0,156
404,2	0,156
404,6	0,155
405,1	0,154
405,5	0,153
406	0,152
406,5	0,151
406,9	0,151
407,4	0,15
407,8	0,149
408,3	0,148
408,7	0,148
409,2	0,147
409,6	0,146
410,1	0,145
410,6	0,145
411	0,145
411,5	0,144
411,9	0,143
412,4	0,142
412,8	0,141
413,3	0,14
413,7	0,14
414,2	0,139
414,7	0,138
415,1	0,137
415,6	0,137
416	0,137
416,5	0,137
416,9	0,135
417,4	0,135
417,8	0,135
418,3	0,134
418,8	0,133
419,2	0,133
419,7	0,132
420,1	0,131
420,6	0,13
421	0,129
421,5	0,129
421,9	0,128
422,4	0,127
422,8	0,126
423,3	0,126
423,8	0,126
424,2	0,126
424,7	0,125
425,1	0,125
425,6	0,124
426	0,124
426,5	0,123
426,9	0,123
427,4	0,122
427,9	0,122
428,3	0,121
428,8	0,12
429,2	0,12
429,7	0,12
430,1	0,119
430,6	0,119
431	0,119
431,5	0,119
431,9	0,119
432,4	0,118
432,8	0,117
433,3	0,116
433,8	0,116
434,2	0,115
434,7	0,114
435,1	0,113
435,6	0,114
436	0,113
436,5	0,113
436,9	0,111
437,4	0,111
437,8	0,111
438,3	0,111
438,8	0,11
439,2	0,109
439,7	0,109
440,1	0,108
440,6	0,109
441	0,108
441,5	0,108
441,9	0,108
442,4	0,108
442,8	0,108
443,3	0,108
443,7	0,107
444,2	0,107
444,7	0,107
445,1	0,106
445,6	0,106
446	0,106
446,5	0,106
446,9	0,105
447,4	0,105
447,8	0,104
448,3	0,103
448,7	0,103
449,2	0,103
449,6	0,102
450,1	0,102
450,6	0,102
451	0,102
451,5	0,102
451,9	0,102
452,4	0,102
452,8	0,102
453,3	0,102
453,7	0,101
454,2	0,101
454,6	0,1
455,1	0,099
455,5	0,099
456	0,098
456,4	0,098
456,9	0,099
457,3	0,098
457,8	0,098
458,3	0,098
458,7	0,098
459,2	0,097
459,6	0,096
460,1	0,096
460,5	0,096
461	0,095
461,4	0,095
461,9	0,095
462,3	0,095
462,8	0,095
463,2	0,095
463,7	0,095
464,1	0,094
464,6	0,094
465	0,094
465,5	0,094
466	0,094
466,4	0,094
466,9	0,093
467,3	0,094
467,8	0,094
468,2	0,093
468,7	0,092
469,1	0,092
469,6	0,092
470	0,093
470,5	0,092
470,9	0,091
471,4	0,091
471,8	0,09
472,3	0,09
472,7	0,09
473,2	0,089
473,6	0,088
474,1	0,088
474,5	0,088
475	0,088
475,4	0,088
475,9	0,088
476,4	0,088
476,8	0,088
477,3	0,088
477,7	0,088
478,2	0,088
478,6	0,088
479,1	0,088
479,5	0,087
480	0,087
480,4	0,087
480,9	0,086
481,3	0,086
481,8	0,086
482,2	0,086
482,7	0,086
483,1	0,086
483,6	0,086
484	0,086
484,5	0,085
484,9	0,085
485,4	0,086
485,8	0,085
486,3	0,084
486,7	0,084
487,2	0,084
487,6	0,084
488,1	0,084
488,5	0,084
489	0,084
489,4	0,085
489,9	0,085
490,4	0,084
490,8	0,083
491,3	0,084
491,7	0,083
492,2	0,083
492,6	0,083
493,1	0,084
493,5	0,084
494	0,084
494,4	0,083
494,9	0,083
495,3	0,083
495,8	0,083
496,2	0,082
496,7	0,081
497,1	0,081
497,6	0,081
498	0,081
498,5	0,081
498,9	0,081
499,4	0,081
499,8	0,081
500,3	0,081
500,7	0,08
501,2	0,079
501,6	0,079
502,1	0,079
502,5	0,08
503	0,08
503,4	0,08
503,9	0,08
504,3	0,08
504,8	0,08
505,2	0,08
505,7	0,079
506,1	0,079
506,6	0,079
507	0,078
507,5	0,078
507,9	0,079
508,4	0,078
508,8	0,078
509,3	0,078
509,7	0,079
510,2	0,079
510,6	0,079
511,1	0,078
511,5	0,078
512	0,079
512,4	0,079
512,9	0,078
513,3	0,078
513,8	0,078
514,2	0,078
514,7	0,077
515,1	0,077
515,6	0,077
516	0,077
516,5	0,077
516,9	0,076
517,4	0,076
517,8	0,077
518,3	0,076
518,7	0,076
519,2	0,075
519,6	0,075
520,1	0,075
520,5	0,075
521	0,075
521,4	0,075
521,9	0,075
522,3	0,075
522,8	0,076
523,2	0,076
523,7	0,076
524,1	0,075
524,6	0,076
525	0,076
525,5	0,075
525,9	0,075
526,4	0,075
526,8	0,075
527,3	0,075
527,7	0,074
528,2	0,073
528,6	0,074
529,1	0,074
529,5	0,074
530	0,074
530,4	0,074
530,9	0,074
531,3	0,074
531,8	0,074
532,2	0,074
532,6	0,074
533,1	0,073
533,5	0,073
534	0,073
534,4	0,073
534,9	0,073
535,3	0,073
535,8	0,073
536,2	0,073
536,7	0,072
537,1	0,073
537,6	0,073
538	0,073
538,5	0,073
538,9	0,073
539,4	0,073
539,8	0,074
540,3	0,073
540,7	0,073
541,2	0,072
541,6	0,072
542,1	0,071
542,5	0,071
543	0,071
543,4	0,07
543,9	0,07
544,3	0,07
544,8	0,07
545,2	0,071
545,7	0,071
546,1	0,071
546,5	0,071
547	0,072
547,4	0,071
547,9	0,071
548,3	0,071
548,8	0,07
549,2	0,07
549,7	0,07
550,1	0,07
550,6	0,07
551	0,07
551,5	0,07
551,9	0,07
552,4	0,071
552,8	0,07
553,3	0,07
553,7	0,069
554,2	0,069
554,6	0,069
555,1	0,069
555,5	0,069
555,9	0,068
556,4	0,069
556,8	0,069
557,3	0,069
557,7	0,069
558,2	0,068
558,6	0,068
559,1	0,067
559,5	0,067
560	0,067
560,4	0,067
560,9	0,066
561,3	0,067
561,8	0,066
562,2	0,066
562,7	0,066
563,1	0,066
563,6	0,066
564	0,066
564,4	0,066
564,9	0,066
565,3	0,065
565,8	0,066
566,2	0,065
566,7	0,066
567,1	0,066
567,6	0,066
568	0,066
568,5	0,066
568,9	0,065
569,4	0,065
569,8	0,064
570,3	0,064
570,7	0,064
571,1	0,064
571,6	0,063
572	0,064
572,5	0,064
572,9	0,065
573,4	0,064
573,8	0,064
574,3	0,064
574,7	0,064
575,2	0,064
575,6	0,064
576,1	0,063
576,5	0,063
576,9	0,063
577,4	0,063
577,8	0,063
578,3	0,063
578,7	0,062
579,2	0,063
579,6	0,063
580,1	0,062
580,5	0,062
581	0,063
581,4	0,062
581,9	0,062
582,3	0,062
582,7	0,062
583,2	0,062
583,6	0,062
584,1	0,062
584,5	0,062
585	0,062
585,4	0,062
585,9	0,062
586,3	0,062
586,8	0,062
587,2	0,062
587,6	0,062
588,1	0,062
588,5	0,062
589	0,062
589,4	0,062
589,9	0,061
590,3	0,061
590,8	0,061
591,2	0,061
591,7	0,061
592,1	0,061
592,5	0,06
593	0,059
593,4	0,059
593,9	0,059
594,3	0,059
594,8	0,059
595,2	0,059
595,7	0,059
596,1	0,059
596,6	0,059
597	0,059
597,4	0,059
597,9	0,059
598,3	0,059
598,8	0,059
599,2	0,058
599,7	0,058
600,1	0,058
600,6	0,058
601	0,058
601,4	0,058
601,9	0,057
602,3	0,058
602,8	0,058
603,2	0,058
603,7	0,057
604,1	0,057
604,6	0,057
605	0,058
605,4	0,057
605,9	0,058
606,3	0,058
606,8	0,058
607,2	0,057
607,7	0,057
608,1	0,057
608,6	0,056
609	0,056
609,4	0,056
609,9	0,056
610,3	0,056
610,8	0,056
611,2	0,056
611,7	0,055
612,1	0,055
612,6	0,055
613	0,055
613,4	0,055
613,9	0,055
614,3	0,055
614,8	0,055
615,2	0,055
615,7	0,055
616,1	0,055
616,6	0,055
617	0,056
617,4	0,056
617,9	0,055
618,3	0,055
618,8	0,055
619,2	0,055
619,7	0,055
620,1	0,054
620,5	0,054
621	0,055
621,4	0,055
621,9	0,055
622,3	0,054
622,8	0,054
623,2	0,054
623,6	0,054
624,1	0,053
624,5	0,053
625	0,053
625,4	0,053
625,9	0,053
626,3	0,053
626,8	0,053
627,2	0,053
627,6	0,053
628,1	0,053
628,5	0,054
629	0,054
629,4	0,054
629,9	0,053
630,3	0,053
630,7	0,053
631,2	0,053
631,6	0,053
632,1	0,053
632,5	0,053
633	0,053
633,4	0,052
633,8	0,053
634,3	0,052
634,7	0,052
635,2	0,052
635,6	0,052
636,1	0,052
636,5	0,052
636,9	0,052
637,4	0,052
637,8	0,052
638,3	0,052
638,7	0,052
639,2	0,052
639,6	0,051
640	0,051
640,5	0,05
640,9	0,051
641,4	0,05
641,8	0,051
642,2	0,05
642,7	0,05
643,1	0,05
643,6	0,05
644	0,05
644,5	0,049
644,9	0,05
645,3	0,05
645,8	0,049
646,2	0,049
646,7	0,049
647,1	0,049
647,6	0,049
648	0,049
648,4	0,049
648,9	0,049
649,3	0,049
649,8	0,049
650,2	0,049
650,6	0,049
651,1	0,049
651,5	0,049
652	0,048
652,4	0,048
652,9	0,048
653,3	0,048
653,7	0,048
654,2	0,047
654,6	0,048
655,1	0,049
655,5	0,046
655,9	0,031
656,4	0,023
656,8	0,027
657,3	0,028
657,7	0,028
658,2	0,026
658,6	0,023
659	0,033
659,5	0,055
659,9	0,053
660,4	0,051
660,8	0,05
661,2	0,049
661,7	0,049
662,1	0,049
662,6	0,048
663	0,048
663,4	0,048
663,9	0,048
664,3	0,048
664,8	0,047
665,2	0,047
665,6	0,047
666,1	0,046
666,5	0,046
667	0,046
667,4	0,046
667,9	0,046
668,3	0,046
668,7	0,046
669,2	0,045
669,6	0,046
670,1	0,045
670,5	0,046
670,9	0,045
671,4	0,045
671,8	0,045
672,3	0,046
672,7	0,045
673,1	0,045
673,6	0,045
674	0,045
674,5	0,045
674,9	0,045
675,3	0,045
675,8	0,046
676,2	0,046
676,7	0,046
677,1	0,045
677,5	0,045
678	0,044
678,4	0,044
678,9	0,044
679,3	0,044
679,7	0,044
680,2	0,044
680,6	0,044
681,1	0,044
681,5	0,044
681,9	0,045
682,4	0,045
682,8	0,045
683,3	0,044
683,7	0,044
684,1	0,044
684,6	0,044
685	0,044
685,5	0,044
685,9	0,044
686,3	0,043
686,8	0,044
687,2	0,044
687,7	0,044
688,1	0,044
688,5	0,044
689	0,044
689,4	0,044
689,9	0,044
690,3	0,044
690,7	0,044
691,2	0,044
691,6	0,044
692	0,044
692,5	0,044
692,9	0,044
693,4	0,044
693,8	0,044
694,2	0,044
694,7	0,044
695,1	0,044
695,6	0,044
696	0,044
696,4	0,044
696,9	0,044
697,3	0,043
697,8	0,043
698,2	0,043
698,6	0,042
699,1	0,042
699,5	0,043
699,9	0,043
700,4	0,043
700,8	0,043
701,3	0,043
701,7	0,043
702,1	0,043
702,6	0,043
703	0,043
703,5	0,042
703,9	0,042
704,3	0,042
704,8	0,042
705,2	0,042
705,6	0,042
706,1	0,042
706,5	0,042
707	0,042
707,4	0,042
707,8	0,042
708,3	0,042
708,7	0,042
709,2	0,041
709,6	0,041
710	0,041
710,5	0,041
710,9	0,041
711,3	0,041
711,8	0,041
712,2	0,041
712,7	0,041
713,1	0,041
713,5	0,041
714	0,041
714,4	0,041
714,8	0,041
715,3	0,04
715,7	0,04
716,2	0,04
716,6	0,041
717	0,04
717,5	0,04
717,9	0,04
718,3	0,04
718,8	0,041
719,2	0,04
719,7	0,04
720,1	0,04
720,5	0,04
721	0,04
721,4	0,04
721,8	0,04
722,3	0,04
722,7	0,04
723,2	0,04
723,6	0,039
724	0,039
724,5	0,04
724,9	0,039
725,3	0,039
725,8	0,039
726,2	0,039
726,7	0,04
727,1	0,039
727,5	0,039
728	0,039
728,4	0,039
728,8	0,039
729,3	0,039
729,7	0,039
730,1	0,039
730,6	0,038
731	0,038
731,5	0,039
731,9	0,038
732,3	0,038
732,8	0,038
733,2	0,039
733,6	0,039
734,1	0,039
734,5	0,039
734,9	0,039
735,4	0,039
735,8	0,039
736,3	0,039
736,7	0,039
737,1	0,039
737,6	0,039
738	0,039
738,4	0,039
738,9	0,039
739,3	0,039
739,7	0,039
740,2	0,039
740,6	0,038
741,1	0,039
741,5	0,038
741,9	0,038
742,4	0,038
742,8	0,038
743,2	0,038
743,7	0,038
744,1	0,038
744,5	0,037
745	0,038
745,4	0,038
745,8	0,038
746,3	0,038
746,7	0,038
747,2	0,038
747,6	0,038
748	0,038
748,5	0,038
748,9	0,038
749,3	0,037
749,8	0,037
750,2	0,037
750,6	0,036
751,1	0,036
751,5	0,036
751,9	0,036
752,4	0,037
752,8	0,037
753,3	0,037
753,7	0,037
754,1	0,037
754,6	0,037
755	0,037
755,4	0,037
755,9	0,036
756,3	0,036
756,7	0,036
757,2	0,036
757,6	0,036
758	0,036
758,5	0,036
758,9	0,036
759,3	0,036
759,8	0,036
760,2	0,036
760,6	0,036
761,1	0,036
761,5	0,036
761,9	0,036
762,4	0,036
762,8	0,036
763,3	0,036
763,7	0,037
764,1	0,036
764,6	0,036
765	0,036
765,4	0,036
765,9	0,035
766,3	0,035
766,7	0,035
767,2	0,035
767,6	0,035
768	0,035
768,5	0,035
768,9	0,035
769,3	0,035
769,8	0,035
770,2	0,035
770,6	0,034
771,1	0,034
771,5	0,034
771,9	0,034
772,4	0,034
772,8	0,034
773,2	0,034
773,7	0,034
774,1	0,034
774,5	0,035
775	0,035
775,4	0,035
775,8	0,036
776,3	0,036
776,7	0,036
777,1	0,036
777,6	0,036
778	0,036
778,4	0,035
778,9	0,035
779,3	0,035
779,7	0,035
780,2	0,035
780,6	0,035
781	0,035
781,5	0,035
781,9	0,035
782,3	0,035
782,8	0,034
783,2	0,034
783,6	0,034
784,1	0,034
784,5	0,034
784,9	0,034
785,4	0,034
785,8	0,035
786,2	0,035
786,7	0,035
787,1	0,035
787,5	0,035
788	0,035
788,4	0,035
788,8	0,034
789,3	0,034
789,7	0,033
790,1	0,033
790,6	0,033
791	0,033
791,4	0,034
791,9	0,034
792,3	0,034
792,7	0,034
793,2	0,034
793,6	0,034
794	0,034
794,5	0,034
794,9	0,034
795,3	0,034
795,8	0,034
796,2	0,034
796,6	0,034
797,1	0,034
797,5	0,034
797,9	0,033
798,4	0,033
798,8	0,033
799,2	0,033
799,7	0,033
800,1	0,033
800,5	0,033
801	0,034
801,4	0,034
801,8	0,034
802,2	0,034
802,7	0,034
803,1	0,034
803,5	0,034
804	0,034
804,4	0,034
804,8	0,033
805,3	0,033
805,7	0,033
806,1	0,033
806,6	0,033
807	0,034
807,4	0,034
807,9	0,033
808,3	0,033
808,7	0,033
809,2	0,033
809,6	0,033
810	0,033
810,4	0,033
810,9	0,033
811,3	0,033
811,7	0,033
812,2	0,033
812,6	0,033
813	0,033
813,5	0,033
813,9	0,033
814,3	0,032
814,8	0,033
815,2	0,032
815,6	0,032
816,1	0,032
816,5	0,031
816,9	0,031
817,3	0,031
817,8	0,031
818,2	0,031
818,6	0,031
819,1	0,031
819,5	0,032
819,9	0,032
820,4	0,032
820,8	0,032
821,2	0,031
821,7	0,032
822,1	0,031
822,5	0,031
822,9	0,031
823,4	0,031
823,8	0,031
824,2	0,031
824,7	0,031
825,1	0,032
825,5	0,032
826	0,032
826,4	0,032
826,8	0,032
827,3	0,033
827,7	0,033
828,1	0,032
828,5	0,032
829	0,032
829,4	0,032
829,8	0,032
830,3	0,031
830,7	0,031
831,1	0,031
831,6	0,031
832	0,031
832,4	0,031
832,8	0,031
833,3	0,03
833,7	0,03
834,1	0,03
834,6	0,03
835	0,03
835,4	0,03
835,8	0,03
836,3	0,03
836,7	0,031
837,1	0,031
837,6	0,031
838	0,03
838,4	0,03
838,9	0,03
839,3	0,03
839,7	0,03
840,1	0,029
840,6	0,029
841	0,03
841,4	0,03
841,9	0,03
842,3	0,03
842,7	0,03
843,1	0,03
843,6	0,03
844	0,03
844,4	0,029
844,9	0,03
845,3	0,03
845,7	0,03
846,2	0,03
846,6	0,03
847	0,03
847,4	0,03
847,9	0,03
848,3	0,03
848,7	0,031
849,2	0,03
849,6	0,03
850	0,031
850,4	0,031
850,9	0,031
851,3	0,03
851,7	0,03
852,2	0,03
852,6	0,03
853	0,03
853,4	0,03
853,9	0,03
854,3	0,03
854,7	0,03
855,2	0,03
855,6	0,03
856	0,031
856,4	0,03
856,9	0,03
857,3	0,03
857,7	0,03
858,2	0,029
858,6	0,029
859	0,029
859,4	0,029
859,9	0,029
860,3	0,029
860,7	0,029
861,1	0,029
861,6	0,029
862	0,03
862,4	0,029
862,9	0,029
863,3	0,029
863,7	0,029
864,1	0,029
864,6	0,029
865	0,029
865,4	0,03
865,9	0,03
866,3	0,03
866,7	0,03
867,1	0,03
867,6	0,029
868	0,029
868,4	0,029
868,8	0,029
869,3	0,028
869,7	0,028
870,1	0,028
870,6	0,028
871	0,028
871,4	0,028
871,8	0,028
872,3	0,028
872,7	0,028
873,1	0,028
873,5	0,029
874	0,028
874,4	0,028
874,8	0,028
875,3	0,028
875,7	0,028
876,1	0,028
876,5	0,028
877	0,028
877,4	0,028
877,8	0,027
878,2	0,027
878,7	0,027
879,1	0,027
879,5	0,028
879,9	0,027
880,4	0,027
880,8	0,028
881,2	0,028
881,7	0,028
882,1	0,028
882,5	0,028
882,9	0,028
883,4	0,028
883,8	0,028
884,2	0,028
884,6	0,028
885,1	0,028
885,5	0,027
885,9	0,027
886,3	0,027
886,8	0,027
887,2	0,027
887,6	0,027
888	0,027
888,5	0,027
888,9	0,027
889,3	0,027
889,8	0,027
890,2	0,027
890,6	0,027
891	0,027
891,5	0,027
891,9	0,027
892,3	0,027
892,7	0,027
893,2	0,027
893,6	0,027
894	0,027
894,4	0,027
894,9	0,027
895,3	0,027
895,7	0,026
896,1	0,027
896,6	0,026
897	0,026
897,4	0,026
897,8	0,026
898,3	0,026
898,7	0,026
899,1	0,027
899,5	0,027
900	0,027
900,4	0,027
900,8	0,027
901,2	0,027
901,7	0,027
902,1	0,026
902,5	0,027
902,9	0,026
903,4	0,027
903,8	0,027
904,2	0,027
904,6	0,027
905,1	0,027
905,5	0,027
905,9	0,027
906,3	0,026
906,8	0,026
907,2	0,025
907,6	0,025
908	0,025
908,5	0,025
908,9	0,025
909,3	0,025
909,7	0,026
910,2	0,026
910,6	0,026
911	0,026
911,4	0,026
911,9	0,026
912,3	0,026
912,7	0,026
913,1	0,026
913,6	0,026
914	0,026
914,4	0,026
914,8	0,026
915,3	0,026
915,7	0,025
916,1	0,025
916,5	0,026
916,9	0,026
917,4	0,025
917,8	0,025
918,2	0,025
918,6	0,025
919,1	0,025
919,5	0,025
919,9	0,025
920,3	0,025
920,8	0,025
921,2	0,025
921,6	0,026
922	0,025
922,5	0,025
922,9	0,025
923,3	0,025
923,7	0,025
924,2	0,025
924,6	0,025
925	0,025
925,4	0,024
925,8	0,025
926,3	0,025
926,7	0,025
927,1	0,025
927,5	0,024
928	0,024
928,4	0,025
928,8	0,025
929,2	0,025
929,7	0,025
930,1	0,025
930,5	0,025
930,9	0,025
931,3	0,025
931,8	0,025
932,2	0,025
932,6	0,025
933	0,025
933,5	0,025
933,9	0,025
934,3	0,025
934,7	0,024
935,2	0,024
935,6	0,023
936	0,024
936,4	0,024
936,8	0,024
937,3	0,024
937,7	0,024
938,1	0,024
938,5	0,024
939	0,025
939,4	0,025
939,8	0,025
940,2	0,025
940,6	0,025
941,1	0,025
941,5	0,025
941,9	0,025
942,3	0,025
942,8	0,026
943,2	0,025
943,6	0,024
944	0,024
944,4	0,024
944,9	0,023
945,3	0,023
945,7	0,023
946,1	0,024
946,6	0,024
947	0,024
947,4	0,023
947,8	0,023
948,2	0,023
948,7	0,023
949,1	0,023
949,5	0,023
949,9	0,024
950,3	0,024
950,8	0,024
951,2	0,024
951,6	0,024
952	0,024
952,5	0,024
952,9	0,024
953,3	0,023
953,7	0,024
954,1	0,024
954,6	0,024
955	0,024
955,4	0,024
955,8	0,024
956,2	0,025
956,7	0,024
957,1	0,024
957,5	0,024
957,9	0,024
958,3	0,025
958,8	0,025
959,2	0,026
959,6	0,025
960	0,025
960,5	0,025
960,9	0,025
961,3	0,025
961,7	0,024
962,1	0,024
962,6	0,024
963	0,024
963,4	0,024
963,8	0,024
964,2	0,024
964,7	0,025
965,1	0,025
965,5	0,024
965,9	0,024
966,3	0,024
966,8	0,024
967,2	0,024
967,6	0,024
968	0,023
968,4	0,024
968,9	0,025
969,3	0,024
969,7	0,025
970,1	0,024
970,5	0,024
971	0,024
971,4	0,023
971,8	0,023
972,2	0,024
972,6	0,023
973,1	0,023
973,5	0,023
973,9	0,023
974,3	0,023
974,7	0,023
975,2	0,023
975,6	0,023
976	0,023
976,4	0,023
976,8	0,023
977,3	0,022
977,7	0,022
978,1	0,022
978,5	0,022
978,9	0,022
979,4	0,022
979,8	0,022
980,2	0,022
980,6	0,022
981	0,022
981,5	0,022
981,9	0,022
982,3	0,022
982,7	0,022
983,1	0,022
983,6	0,022
984	0,022
984,4	0,022
984,8	0,023
985,2	0,022
985,6	0,023
986,1	0,023
986,5	0,024
986,9	0,025
987,3	0,025
987,7	0,026
988,2	0,026
988,6	0,026
989	0,026
989,4	0,026
989,8	0,025
990,3	0,025
990,7	0,025
991,1	0,024
991,5	0,024
991,9	0,025
992,3	0,024
992,8	0,023
993,2	0,023
993,6	0,023
994	0,023
994,4	0,023
994,9	0,022
995,3	0,022
995,7	0,022
996,1	0,023
996,5	0,023
996,9	0,023
997,4	0,023
997,8	0,022
998,2	0,022
998,6	0,022
999	0,022
999,5	0,022
999,9	0,022
1000,3	0,022
1000,7	0,023
1001,1	0,022
1001,5	0,022
1002	0,022
1002,4	0,022
1002,8	0,022
1003,2	0,021
1003,6	0,02
1004	0,021
1004,5	0,021
1004,9	0,021
1005,3	0,021
1005,7	0,02
1006,1	0,021
1006,6	0,021
1007	0,021
1007,4	0,021
1007,8	0,021
1008,2	0,022
1008,6	0,022
1009,1	0,022
1009,5	0,022
1009,9	0,022
1010,3	0,022
1010,7	0,022
1011,1	0,021
1011,6	0,021
1012	0,021
1012,4	0,021
1012,8	0,021
1013,2	0,02
1013,6	0,02
1014,1	0,02
1014,5	0,02
1014,9	0,021
1015,3	0,021
1015,7	0,021
1016,1	0,022
1016,6	0,022
1017	0,022
1017,4	0,021
1017,8	0,021
1018,2	0,021
1018,6	0,021
1019,1	0,021
1019,5	0,021
1019,9	0,021
1020,3	0,021
1020,7	0,021
1021,1	0,021
1021,6	0,021
1022	0,02
1022,4	0,02
1022,8	0,02
1023,2	0,02
1023,6	0,02
1024,1	0,021
1024,5	0,021
1024,9	0,021
1025,3	0,02
1025,7	0,019
1026,1	0,019
1026,6	0,02
1027	0,019
1027,4	0,019
1027,8	0,018
1028,2	0,018
1028,6	0,018
1029	0,019
1029,5	0,019
1029,9	0,019
1030,3	0,019
1030,7	0,02
1031,1	0,02
1031,5	0,021
1032	0,021
1032,4	0,02
1032,8	0,02
1033,2	0,021
1033,6	0,021
1034	0,021
1034,4	0,02
1034,9	0,02
1035,3	0,02
1035,7	0,021
1036,1	0,02
1036,5	0,02
1036,9	0,02
1037,4	0,021
1037,8	0,021
1038,2	0,021
1038,6	0,021
1039	0,021
1039,4	0,021
1039,8	0,02
1040,3	0,02
1040,7	0,02
1041,1	0,02
1041,5	0,02
1041,9	0,021
1042,3	0,02
1042,7	0,02
1043,2	0,021
1043,6	0,02
1044	0,02
1044,4	0,02
1044,8	0,02
1045,2	0,02
1045,6	0,02
1046,1	0,02
1046,5	0,021
1046,9	0,021
1047,3	0,021
1047,7	0,02
1048,1	0,021
1048,5	0,02
1049	0,019
1049,4	0,019
1049,8	0,019
1050,2	0,02
1050,6	0,021
1051	0,021
1051,4	0,022
1051,9	0,022
1052,3	0,021
1052,7	0,02
1053,1	0,02
1053,5	0,019
1053,9	0,018
1054,3	0,018
1054,8	0,019
1055,2	0,019
1055,6	0,019
1056	0,02
1056,4	0,02
1056,8	0,02
1057,2	0,02
1057,6	0,02
1058,1	0,02
1058,5	0,02
1058,9	0,02
1059,3	0,02
1059,7	0,02
1060,1	0,019
1060,5	0,019
1061	0,02
1061,4	0,02
1061,8	0,019
1062,2	0,019
1062,6	0,02
1063	0,02
1063,4	0,02
1063,8	0,019
1064,3	0,021
1064,7	0,021
1065,1	0,02
1065,5	0,02
1065,9	0,019
1066,3	0,019
1066,7	0,02
1067,1	0,019
1067,6	0,02
1068	0,021
1068,4	0,02
1068,8	0,02
1069,2	0,019
1069,6	0,019
1070	0,018
1070,4	0,018
1070,9	0,016
1071,3	0,016
1071,7	0,017
1072,1	0,018
1072,5	0,018
1072,9	0,019
1073,3	0,019
1073,7	0,018
1074,2	0,018
1074,6	0,019
1075	0,019
1075,4	0,018
1075,8	0,018
1076,2	0,018
1076,6	0,019
1077	0,02
1077,5	0,019
1077,9	0,018
1078,3	0,016
1078,7	0,015
1079,1	0,015
1079,5	0,016
1079,9	0,014
1080,3	0,015
1080,7	0,015
1081,2	0,016
1081,6	0,017
1082	0,017
1082,4	0,018
1082,8	0,019
1083,2	0,019
1083,6	0,019
1084	0,019
1084,5	0,018
1084,9	0,017
1085,3	0,016
1085,7	0,016
1086,1	0,015
1086,5	0,015
1086,9	0,014
1087,3	0,015
1087,7	0,015
1088,2	0,014
1088,6	0,013
1089	0,013
1089,4	0,015
1089,8	0,015
1090,2	0,015
1090,6	0,014
1091	0,015
1091,4	0,017
1091,9	0,017
1092,3	0,014
1092,7	0,016
1093,1	0,015
1093,5	0,018
1093,9	0,019
1094,3	0,021
1094,7	0,02
1095,1	0,021
1095,5	0,019
1096	0,012
1096,4	0,007
1096,8	0,007
1097,2	0,008
1097,6	0,01
1098	0,011
1098,4	0,013
1098,8	0,02
1099,2	0,024
1099,6	0,023
1100,1	0,018
1100,5	0,013
1100,9	0,012
1101,3	0,014
1101,7	0,015
1102,1	0,009
1102,5	0,001
1102,9	0,01
1103,3	0,012
1103,7	0,017
1104,2	0,024
1104,6	0,015
1105	0,023
1105,4	0,031
1105,8	0,021
1106,2	0,028
1106,6	0,024
1107	-0,008
1107,4	0,004
1107,8	-0,008
1108,3	-0
