Data from Absorbance_00002.txt Node
Date: Thu Aug 10 15:54:53 MSK 2023
User: vat
Spectrometer: MAYP114033
Trigger mode: 0
Integration Time (sec): 8,000000E-3
Scans to average: 10
Electric dark correction enabled: true
Nonlinearity correction enabled: false
Boxcar width: 3
XAxis mode: Wavelengths
Number of Pixels in Spectrum: 2068
>>>>>Begin Spectral Data<<<<<
199,4	0,195
199,9	0,165
200,4	0,63
200,8	0,939
201,3	0,991
201,8	1,021
202,2	1,061
202,7	1,091
203,2	1,141
203,6	1,177
204,1	1,178
204,6	1,205
205	1,223
205,5	1,229
206	1,226
206,4	1,24
206,9	1,224
207,4	1,236
207,8	1,235
208,3	1,263
208,8	1,293
209,2	1,314
209,7	1,329
210,2	1,36
210,6	1,395
211,1	1,427
211,5	1,407
212	1,407
212,5	1,433
212,9	1,463
213,4	1,49
213,9	1,502
214,3	1,513
214,8	1,574
215,3	1,577
215,7	1,582
216,2	1,545
216,7	1,553
217,1	1,549
217,6	1,581
218,1	1,589
218,5	1,598
219	1,626
219,5	1,66
219,9	1,699
220,4	1,741
220,9	1,744
221,3	1,733
221,8	1,747
222,3	1,755
222,7	1,773
223,2	1,757
223,6	1,754
224,1	1,776
224,6	1,799
225	1,821
225,5	1,845
226	1,892
226,4	1,925
226,9	1,953
227,4	1,93
227,8	1,97
228,3	1,983
228,8	1,96
229,2	1,961
229,7	1,964
230,2	1,999
230,6	2,043
231,1	2,037
231,5	2,043
232	2,087
232,5	2,089
232,9	2,108
233,4	2,089
233,9	2,082
234,3	2,074
234,8	2,088
235,3	2,087
235,7	2,092
236,2	2,082
236,7	2,07
237,1	2,075
237,6	2,097
238,1	2,107
238,5	2,117
239	2,108
239,4	2,12
239,9	2,149
240,4	2,175
240,8	2,188
241,3	2,204
241,8	2,217
242,2	2,249
242,7	2,26
243,2	2,272
243,6	2,277
244,1	2,274
244,6	2,271
245	2,291
245,5	2,283
245,9	2,286
246,4	2,273
246,9	2,254
247,3	2,236
247,8	2,233
248,3	2,211
248,7	2,219
249,2	2,238
249,7	2,25
250,1	2,252
250,6	2,243
251	2,246
251,5	2,266
252	2,262
252,4	2,248
252,9	2,246
253,4	2,23
253,8	2,252
254,3	2,265
254,8	2,253
255,2	2,262
255,7	2,267
256,1	2,282
256,6	2,298
257,1	2,303
257,5	2,306
258	2,293
258,5	2,305
258,9	2,324
259,4	2,309
259,9	2,295
260,3	2,312
260,8	2,302
261,2	2,328
261,7	2,312
262,2	2,282
262,6	2,329
263,1	2,359
263,6	2,351
264	2,335
264,5	2,325
264,9	2,322
265,4	2,325
265,9	2,313
266,3	2,296
266,8	2,285
267,3	2,313
267,7	2,311
268,2	2,331
268,7	2,335
269,1	2,309
269,6	2,317
270	2,344
270,5	2,31
271	2,305
271,4	2,296
271,9	2,29
272,4	2,272
272,8	2,298
273,3	2,277
273,7	2,275
274,2	2,276
274,7	2,278
275,1	2,274
275,6	2,308
276,1	2,295
276,5	2,292
277	2,312
277,4	2,302
277,9	2,29
278,4	2,297
278,8	2,286
279,3	2,276
279,8	2,278
280,2	2,265
280,7	2,277
281,1	2,254
281,6	2,216
282,1	2,196
282,5	2,147
283	2,106
283,4	2,077
283,9	2,028
284,4	1,991
284,8	1,952
285,3	1,907
285,8	1,871
286,2	1,831
286,7	1,791
287,1	1,751
287,6	1,717
288,1	1,684
288,5	1,652
289	1,625
289,5	1,603
289,9	1,581
290,4	1,564
290,8	1,545
291,3	1,534
291,8	1,524
292,2	1,522
292,7	1,514
293,1	1,507
293,6	1,502
294,1	1,502
294,5	1,501
295	1,493
295,5	1,489
295,9	1,485
296,4	1,483
296,8	1,48
297,3	1,474
297,8	1,471
298,2	1,47
298,7	1,459
299,1	1,453
299,6	1,447
300,1	1,441
300,5	1,439
301	1,434
301,5	1,428
301,9	1,425
302,4	1,424
302,8	1,422
303,3	1,417
303,8	1,412
304,2	1,409
304,7	1,407
305,1	1,403
305,6	1,399
306,1	1,395
306,5	1,39
307	1,382
307,4	1,374
307,9	1,364
308,4	1,359
308,8	1,348
309,3	1,339
309,8	1,331
310,2	1,323
310,7	1,316
311,1	1,31
311,6	1,302
312,1	1,295
312,5	1,288
313	1,279
313,4	1,272
313,9	1,263
314,4	1,253
314,8	1,244
315,3	1,234
315,7	1,226
316,2	1,216
316,7	1,206
317,1	1,196
317,6	1,188
318	1,176
318,5	1,167
319	1,154
319,4	1,142
319,9	1,132
320,3	1,122
320,8	1,109
321,3	1,099
321,7	1,088
322,2	1,078
322,6	1,068
323,1	1,055
323,6	1,043
324	1,032
324,5	1,017
324,9	1,004
325,4	0,991
325,9	0,977
326,3	0,966
326,8	0,953
327,2	0,94
327,7	0,929
328,2	0,917
328,6	0,907
329,1	0,895
329,5	0,885
330	0,873
330,5	0,863
330,9	0,853
331,4	0,843
331,8	0,831
332,3	0,82
332,8	0,808
333,2	0,799
333,7	0,788
334,1	0,776
334,6	0,765
335,1	0,755
335,5	0,746
336	0,736
336,4	0,726
336,9	0,716
337,4	0,706
337,8	0,696
338,3	0,686
338,7	0,675
339,2	0,664
339,7	0,653
340,1	0,643
340,6	0,633
341	0,622
341,5	0,612
342	0,602
342,4	0,594
342,9	0,586
343,3	0,577
343,8	0,569
344,2	0,561
344,7	0,553
345,2	0,544
345,6	0,535
346,1	0,526
346,5	0,517
347	0,509
347,5	0,5
347,9	0,492
348,4	0,485
348,8	0,477
349,3	0,47
349,8	0,462
350,2	0,453
350,7	0,446
351,1	0,439
351,6	0,432
352	0,425
352,5	0,417
353	0,411
353,4	0,405
353,9	0,398
354,3	0,391
354,8	0,385
355,3	0,378
355,7	0,373
356,2	0,367
356,6	0,36
357,1	0,354
357,5	0,348
358	0,343
358,5	0,337
358,9	0,331
359,4	0,325
359,8	0,32
360,3	0,316
360,8	0,31
361,2	0,305
361,7	0,299
362,1	0,295
362,6	0,29
363	0,286
363,5	0,28
364	0,275
364,4	0,27
364,9	0,266
365,3	0,261
365,8	0,257
366,3	0,252
366,7	0,249
367,2	0,245
367,6	0,242
368,1	0,237
368,5	0,234
369	0,23
369,5	0,226
369,9	0,223
370,4	0,22
370,8	0,217
371,3	0,214
371,7	0,211
372,2	0,208
372,7	0,205
373,1	0,202
373,6	0,198
374	0,194
374,5	0,191
374,9	0,188
375,4	0,185
375,9	0,183
376,3	0,179
376,8	0,177
377,2	0,174
377,7	0,171
378,2	0,169
378,6	0,166
379,1	0,163
379,5	0,161
380	0,159
380,4	0,157
380,9	0,155
381,4	0,153
381,8	0,15
382,3	0,148
382,7	0,146
383,2	0,144
383,6	0,142
384,1	0,14
384,6	0,137
385	0,135
385,5	0,133
385,9	0,131
386,4	0,129
386,8	0,127
387,3	0,126
387,7	0,126
388,2	0,124
388,7	0,122
389,1	0,121
389,6	0,119
390	0,117
390,5	0,115
390,9	0,113
391,4	0,112
391,9	0,111
392,3	0,109
392,8	0,107
393,2	0,106
393,7	0,104
394,1	0,103
394,6	0,101
395,1	0,1
395,5	0,099
396	0,099
396,4	0,097
396,9	0,096
397,3	0,095
397,8	0,094
398,2	0,093
398,7	0,093
399,2	0,091
399,6	0,09
400,1	0,089
400,5	0,088
401	0,086
401,4	0,085
401,9	0,083
402,4	0,082
402,8	0,081
403,3	0,08
403,7	0,078
404,2	0,078
404,6	0,077
405,1	0,077
405,5	0,076
406	0,075
406,5	0,074
406,9	0,073
407,4	0,072
407,8	0,071
408,3	0,069
408,7	0,068
409,2	0,067
409,6	0,066
410,1	0,065
410,6	0,065
411	0,064
411,5	0,064
411,9	0,063
412,4	0,062
412,8	0,062
413,3	0,061
413,7	0,06
414,2	0,059
414,7	0,058
415,1	0,057
415,6	0,057
416	0,056
416,5	0,055
416,9	0,054
417,4	0,053
417,8	0,052
418,3	0,052
418,8	0,051
419,2	0,05
419,7	0,049
420,1	0,049
420,6	0,048
421	0,047
421,5	0,047
421,9	0,046
422,4	0,045
422,8	0,045
423,3	0,044
423,8	0,044
424,2	0,043
424,7	0,042
425,1	0,041
425,6	0,04
426	0,04
426,5	0,039
426,9	0,039
427,4	0,037
427,9	0,037
428,3	0,036
428,8	0,035
429,2	0,035
429,7	0,035
430,1	0,034
430,6	0,034
431	0,034
431,5	0,033
431,9	0,033
432,4	0,031
432,8	0,03
433,3	0,029
433,8	0,029
434,2	0,028
434,7	0,028
435,1	0,027
435,6	0,027
436	0,027
436,5	0,027
436,9	0,026
437,4	0,026
437,8	0,025
438,3	0,025
438,8	0,024
439,2	0,023
439,7	0,023
440,1	0,023
440,6	0,022
441	0,022
441,5	0,021
441,9	0,021
442,4	0,021
442,8	0,02
443,3	0,02
443,7	0,019
444,2	0,019
444,7	0,018
445,1	0,017
445,6	0,018
446	0,018
446,5	0,018
446,9	0,018
447,4	0,017
447,8	0,016
448,3	0,017
448,7	0,017
449,2	0,016
449,6	0,016
450,1	0,016
450,6	0,016
451	0,015
451,5	0,015
451,9	0,014
452,4	0,014
452,8	0,014
453,3	0,013
453,7	0,013
454,2	0,013
454,6	0,013
455,1	0,012
455,5	0,012
456	0,012
456,4	0,012
456,9	0,011
457,3	0,011
457,8	0,011
458,3	0,01
458,7	0,01
459,2	0,009
459,6	0,01
460,1	0,009
460,5	0,009
461	0,009
461,4	0,009
461,9	0,009
462,3	0,009
462,8	0,008
463,2	0,008
463,7	0,008
464,1	0,007
464,6	0,007
465	0,007
465,5	0,007
466	0,007
466,4	0,007
466,9	0,007
467,3	0,007
467,8	0,008
468,2	0,007
468,7	0,007
469,1	0,007
469,6	0,007
470	0,008
470,5	0,007
470,9	0,007
471,4	0,006
471,8	0,006
472,3	0,006
472,7	0,006
473,2	0,006
473,6	0,006
474,1	0,005
474,5	0,005
475	0,005
475,4	0,005
475,9	0,005
476,4	0,004
476,8	0,003
477,3	0,004
477,7	0,004
478,2	0,004
478,6	0,003
479,1	0,004
479,5	0,004
480	0,004
480,4	0,004
480,9	0,004
481,3	0,003
481,8	0,004
482,2	0,004
482,7	0,004
483,1	0,004
483,6	0,004
484	0,003
484,5	0,003
484,9	0,003
485,4	0,003
485,8	0,002
486,3	0,002
486,7	0,003
487,2	0,003
487,6	0,003
488,1	0,003
488,5	0,004
489	0,004
489,4	0,004
489,9	0,004
490,4	0,004
490,8	0,003
491,3	0,003
491,7	0,002
492,2	0,002
492,6	0,002
493,1	0,002
493,5	0,001
494	0,001
494,4	0,002
494,9	0,002
495,3	0,002
495,8	0,002
496,2	0,001
496,7	0,001
497,1	0,001
497,6	0,001
498	0,001
498,5	0,001
498,9	0,001
499,4	0,001
499,8	0,002
500,3	0,002
500,7	0,001
501,2	0,001
501,6	0,001
502,1	0,001
502,5	0,001
503	0,001
503,4	0,001
503,9	0,001
504,3	0,002
504,8	0,002
505,2	0,001
505,7	0,001
506,1	0,001
506,6	0,001
507	0,001
507,5	0,001
507,9	0
508,4	0
508,8	0
509,3	0
509,7	0,001
510,2	0,001
510,6	0,001
511,1	0,001
511,5	0,001
512	0
512,4	0
512,9	-0
513,3	-0,001
513,8	-0
514,2	0
514,7	0
515,1	0,001
515,6	0,001
516	0,001
516,5	0,001
516,9	0,001
517,4	0,001
517,8	0,001
518,3	0
518,7	-0
519,2	-0
519,6	-0
520,1	0
520,5	-0
521	0,001
521,4	0,001
521,9	0,001
522,3	0,001
522,8	0,001
523,2	0
523,7	0,001
524,1	0
524,6	-0
525	0
525,5	0
525,9	0
526,4	0
526,8	-0
527,3	-0
527,7	0
528,2	0
528,6	0,001
529,1	-0
529,5	-0
530	-0
530,4	-0
530,9	-0,001
531,3	-0,001
531,8	-0,002
532,2	-0,001
532,6	-0,002
533,1	-0,002
533,5	-0,001
534	-0,001
534,4	-0,001
534,9	-0
535,3	-0,001
535,8	-0,001
536,2	-0
536,7	-0
537,1	-0
537,6	-0
538	-0,001
538,5	-0
538,9	-0
539,4	-0
539,8	-0
540,3	-0,001
540,7	-0,001
541,2	-0,001
541,6	-0,001
542,1	-0,001
542,5	-0,001
543	-0,001
543,4	-0,001
543,9	-0
544,3	-0
544,8	-0,001
545,2	-0,001
545,7	-0,001
546,1	-0,001
546,5	-0,001
547	-0,001
547,4	-0,001
547,9	-0,001
548,3	-0,001
548,8	-0,001
549,2	-0,001
549,7	-0,001
550,1	-0,001
550,6	-0,001
551	-0,001
551,5	-0,001
551,9	-0,001
552,4	-0,001
552,8	-0,002
553,3	-0,002
553,7	-0,002
554,2	-0,001
554,6	-0
555,1	-0
555,5	-0
555,9	0
556,4	-0
556,8	0
557,3	-0,001
557,7	-0,001
558,2	-0,001
558,6	-0,002
559,1	-0,001
559,5	-0,001
560	-0,002
560,4	-0,002
560,9	-0,001
561,3	-0,002
561,8	-0,001
562,2	-0,002
562,7	-0,001
563,1	-0,001
563,6	-0,001
564	-0,001
564,4	-0,001
564,9	-0,001
565,3	-0,001
565,8	-0,001
566,2	-0,001
566,7	-0,001
567,1	-0,002
567,6	-0,002
568	-0,002
568,5	-0,002
568,9	-0,002
569,4	-0,002
569,8	-0,002
570,3	-0,001
570,7	-0,001
571,1	-0,001
571,6	-0,001
572	-0,001
572,5	-0,001
572,9	-0,001
573,4	-0,001
573,8	-0,001
574,3	-0,002
574,7	-0,001
575,2	-0,001
575,6	-0,002
576,1	-0,001
576,5	-0,001
576,9	-0,001
577,4	-0,001
577,8	-0,001
578,3	-0,001
578,7	-0,001
579,2	-0,002
579,6	-0,002
580,1	-0,002
580,5	-0,002
581	-0,002
581,4	-0,002
581,9	-0,001
582,3	-0,001
582,7	-0,001
583,2	-0,001
583,6	-0,001
584,1	-0,001
584,5	-0,001
585	-0,001
585,4	-0,001
585,9	-0,001
586,3	-0,001
586,8	-0,001
587,2	-0,001
587,6	-0,001
588,1	-0,001
588,5	-0,001
589	-0,001
589,4	-0,001
589,9	-0,001
590,3	-0,002
590,8	-0,001
591,2	-0,001
591,7	-0,001
592,1	-0,001
592,5	-0,001
593	-0,002
593,4	-0,001
593,9	-0,002
594,3	-0,001
594,8	-0,001
595,2	-0,001
595,7	-0,001
596,1	-0,001
596,6	-0,002
597	-0,001
597,4	-0,002
597,9	-0,002
598,3	-0,001
598,8	-0,002
599,2	-0,001
599,7	-0,001
600,1	-0,001
600,6	-0,001
601	-0,001
601,4	-0,001
601,9	-0,001
602,3	-0,001
602,8	-0,001
603,2	-0,001
603,7	-0,002
604,1	-0,001
604,6	-0,002
605	-0,002
605,4	-0,002
605,9	-0,002
606,3	-0,002
606,8	-0,001
607,2	-0,002
607,7	-0,001
608,1	-0,002
608,6	-0,002
609	-0,002
609,4	-0,002
609,9	-0,002
610,3	-0,002
610,8	-0,002
611,2	-0,002
611,7	-0,002
612,1	-0,001
612,6	-0,001
613	-0,001
613,4	-0,001
613,9	-0,001
614,3	-0,002
614,8	-0,002
615,2	-0,002
615,7	-0,002
616,1	-0,001
616,6	-0,001
617	-0,001
617,4	-0,001
617,9	-0,001
618,3	-0,001
618,8	-0,001
619,2	-0,002
619,7	-0,002
620,1	-0,002
620,5	-0,002
621	-0,002
621,4	-0,002
621,9	-0,002
622,3	-0,001
622,8	-0,001
623,2	-0,001
623,6	-0,001
624,1	-0,001
624,5	-0,001
625	-0,001
625,4	-0,001
625,9	-0,001
626,3	-0,001
626,8	-0,001
627,2	-0,001
627,6	-0,001
628,1	-0,002
628,5	-0,002
629	-0,002
629,4	-0,002
629,9	-0,002
630,3	-0,002
630,7	-0,002
631,2	-0,001
631,6	-0,001
632,1	-0,001
632,5	-0,001
633	-0,001
633,4	-0
633,8	-0,001
634,3	-0,001
634,7	-0,001
635,2	-0,001
635,6	-0,001
636,1	-0,002
636,5	-0,002
636,9	-0,002
637,4	-0,002
637,8	-0,002
638,3	-0,001
638,7	-0,001
639,2	-0,001
639,6	-0,001
640	-0,002
640,5	-0,002
640,9	-0,002
641,4	-0,002
641,8	-0,002
642,2	-0,002
642,7	-0,002
643,1	-0,001
643,6	-0,001
644	-0,001
644,5	-0,001
644,9	-0,001
645,3	-0,001
645,8	-0,001
646,2	-0,001
646,7	-0,001
647,1	-0,002
647,6	-0,001
648	-0,001
648,4	-0,001
648,9	-0,001
649,3	-0,001
649,8	-0,001
650,2	-0,001
650,6	-0,001
651,1	-0,001
651,5	-0,001
652	-0,002
652,4	-0,002
652,9	-0,002
653,3	-0,002
653,7	-0,002
654,2	-0,002
654,6	-0,002
655,1	-0,002
655,5	-0,001
655,9	-0,001
656,4	-0
656,8	-0
657,3	-0
657,7	-0
658,2	-0
658,6	-0
659	-0
659,5	-0
659,9	-0,001
660,4	-0,001
660,8	-0,001
661,2	-0,001
661,7	-0,001
662,1	-0,001
662,6	-0,001
663	-0,001
663,4	-0,002
663,9	-0,002
664,3	-0,002
664,8	-0,001
665,2	-0,001
665,6	-0,001
666,1	-0,001
666,5	-0,001
667	-0,001
667,4	-0,001
667,9	-0,001
668,3	-0,001
668,7	-0,001
669,2	-0,001
669,6	-0,001
670,1	-0,001
670,5	-0
670,9	-0,001
671,4	-0,001
671,8	-0,002
672,3	-0,002
672,7	-0,002
673,1	-0,002
673,6	-0,002
674	-0,002
674,5	-0,002
674,9	-0,001
675,3	-0,001
675,8	-0,001
676,2	-0,001
676,7	-0,002
677,1	-0,002
677,5	-0,002
678	-0,002
678,4	-0,002
678,9	-0,002
679,3	-0,001
679,7	-0,001
680,2	-0,001
680,6	-0,001
681,1	-0,002
681,5	-0,002
681,9	-0,002
682,4	-0,002
682,8	-0,002
683,3	-0,002
683,7	-0,002
684,1	-0,001
684,6	-0,001
685	-0,001
685,5	-0,001
685,9	-0,001
686,3	-0,001
686,8	-0,001
687,2	-0,001
687,7	-0,001
688,1	-0,001
688,5	-0,001
689	-0,001
689,4	-0,001
689,9	-0,001
690,3	-0,001
690,7	-0,001
691,2	-0,001
691,6	-0,001
692	-0,001
692,5	-0,001
692,9	-0,001
693,4	-0,001
693,8	-0,001
694,2	-0,001
694,7	-0,001
695,1	-0,001
695,6	-0,002
696	-0,002
696,4	-0,002
696,9	-0,002
697,3	-0,002
697,8	-0,002
698,2	-0,001
698,6	-0,001
699,1	-0,001
699,5	-0,001
699,9	-0,001
700,4	-0,001
700,8	-0,001
701,3	-0,002
701,7	-0,002
702,1	-0,001
702,6	-0,002
703	-0,002
703,5	-0,002
703,9	-0,002
704,3	-0,002
704,8	-0,002
705,2	-0,002
705,6	-0,002
706,1	-0,002
706,5	-0,001
707	-0,001
707,4	-0,001
707,8	-0
708,3	-0
708,7	-0,001
709,2	-0,001
709,6	-0,001
710	-0
710,5	-0,001
710,9	-0,001
711,3	-0,001
711,8	-0,001
712,2	-0,001
712,7	-0,001
713,1	-0,001
713,5	-0,001
714	-0,001
714,4	-0,001
714,8	-0,001
715,3	-0,001
715,7	-0,001
716,2	-0,001
716,6	-0,001
717	-0,001
717,5	-0,001
717,9	-0,001
718,3	-0,001
718,8	-0,001
719,2	-0,001
719,7	-0,001
720,1	-0,002
720,5	-0,002
721	-0,001
721,4	-0,002
721,8	-0,002
722,3	-0,001
722,7	-0,001
723,2	-0,001
723,6	-0,001
724	-0,001
724,5	-0,001
724,9	-0,002
725,3	-0,001
725,8	-0,002
726,2	-0,002
726,7	-0,002
727,1	-0,002
727,5	-0,002
728	-0,002
728,4	-0,002
728,8	-0,002
729,3	-0,002
729,7	-0,002
730,1	-0,002
730,6	-0,002
731	-0,002
731,5	-0,002
731,9	-0,002
732,3	-0,002
732,8	-0,001
733,2	-0,001
733,6	-0,001
734,1	-0,001
734,5	-0,001
734,9	-0,001
735,4	-0,001
735,8	-0,001
736,3	-0,002
736,7	-0,002
737,1	-0,002
737,6	-0,002
738	-0,002
738,4	-0,002
738,9	-0,002
739,3	-0,002
739,7	-0,002
740,2	-0,002
740,6	-0,002
741,1	-0,002
741,5	-0,002
741,9	-0,001
742,4	-0,001
742,8	-0,001
743,2	-0,001
743,7	-0,001
744,1	-0,001
744,5	-0,001
745	-0,001
745,4	-0,001
745,8	-0,001
746,3	-0,001
746,7	-0,001
747,2	-0,001
747,6	-0,001
748	-0,001
748,5	-0,002
748,9	-0,002
749,3	-0,002
749,8	-0,002
750,2	-0,002
750,6	-0,002
751,1	-0,002
751,5	-0,002
751,9	-0,001
752,4	-0,001
752,8	-0,001
753,3	-0,001
753,7	-0,001
754,1	-0,001
754,6	-0,002
755	-0,001
755,4	-0,001
755,9	-0,001
756,3	-0,001
756,7	-0,001
757,2	-0,001
757,6	-0,001
758	-0,001
758,5	-0,001
758,9	-0,001
759,3	-0,001
759,8	-0,001
760,2	-0,001
760,6	-0,001
761,1	-0,001
761,5	-0,001
761,9	-0,002
762,4	-0,002
762,8	-0,001
763,3	-0,001
763,7	-0,002
764,1	-0,001
764,6	-0,001
765	-0,001
765,4	-0,001
765,9	-0,001
766,3	-0,001
766,7	-0,001
767,2	-0,001
767,6	-0,001
768	-0,001
768,5	-0,001
768,9	-0,001
769,3	-0,001
769,8	-0,002
770,2	-0,002
770,6	-0,002
771,1	-0,002
771,5	-0,002
771,9	-0,001
772,4	-0,002
772,8	-0,001
773,2	-0,001
773,7	-0,001
774,1	-0,001
774,5	-0,002
775	-0,002
775,4	-0,001
775,8	-0,002
776,3	-0,001
776,7	-0,001
777,1	-0,001
777,6	-0,001
778	-0,001
778,4	-0
778,9	-0
779,3	-0
779,7	-0
780,2	-0,001
780,6	-0
781	-0
781,5	-0
781,9	-0
782,3	-0
782,8	-0,001
783,2	-0,001
783,6	-0,001
784,1	-0,001
784,5	-0,001
784,9	-0,001
785,4	-0,002
785,8	-0,002
786,2	-0,002
786,7	-0,001
787,1	-0,002
787,5	-0,002
788	-0,002
788,4	-0,002
788,8	-0,002
789,3	-0,002
789,7	-0,002
790,1	-0,002
790,6	-0,001
791	-0,001
791,4	-0,001
791,9	-0,001
792,3	-0,001
792,7	-0,001
793,2	-0,001
793,6	-0,001
794	-0,001
794,5	-0,001
794,9	-0,002
795,3	-0,001
795,8	-0,001
796,2	-0,001
796,6	-0,001
797,1	-0,001
797,5	-0,002
797,9	-0,002
798,4	-0,002
798,8	-0,002
799,2	-0,002
799,7	-0,002
800,1	-0,002
800,5	-0,002
801	-0,002
801,4	-0,001
801,8	-0,001
802,2	-0,001
802,7	-0,001
803,1	-0,001
803,5	-0,001
804	-0,001
804,4	-0,001
804,8	-0,002
805,3	-0,002
805,7	-0,002
806,1	-0,002
806,6	-0,002
807	-0,001
807,4	-0,001
807,9	-0
808,3	-0
808,7	-0
809,2	-0
809,6	-0
810	-0,001
810,4	-0
810,9	-0,001
811,3	-0,001
811,7	-0,001
812,2	-0,001
812,6	-0,001
813	-0,001
813,5	-0,002
813,9	-0,002
814,3	-0,002
814,8	-0,002
815,2	-0,002
815,6	-0,002
816,1	-0,002
816,5	-0,002
816,9	-0,002
817,3	-0,002
817,8	-0,002
818,2	-0,001
818,6	-0,001
819,1	-0,002
819,5	-0,002
819,9	-0,002
820,4	-0,002
820,8	-0,002
821,2	-0,002
821,7	-0,002
822,1	-0,002
822,5	-0,002
822,9	-0,002
823,4	-0,002
823,8	-0,002
824,2	-0,002
824,7	-0,002
825,1	-0,002
825,5	-0,002
826	-0,002
826,4	-0,002
826,8	-0,002
827,3	-0,002
827,7	-0,002
828,1	-0,002
828,5	-0,002
829	-0,003
829,4	-0,002
829,8	-0,002
830,3	-0,002
830,7	-0,002
831,1	-0,001
831,6	-0,001
832	-0,001
832,4	-0,001
832,8	-0,001
833,3	-0
833,7	-0,001
834,1	-0
834,6	-0
835	-0
835,4	-0,001
835,8	-0,001
836,3	-0,001
836,7	-0,001
837,1	-0,001
837,6	-0,001
838	-0,002
838,4	-0,002
838,9	-0,001
839,3	-0,001
839,7	-0,001
840,1	-0,001
840,6	-0,001
841	-0,001
841,4	-0,001
841,9	-0,002
842,3	-0,001
842,7	-0,001
843,1	-0,001
843,6	-0,001
844	-0,001
844,4	-0,001
844,9	-0,001
845,3	-0,001
845,7	-0,001
846,2	-0,001
846,6	-0,001
847	-0,001
847,4	-0,001
847,9	-0,001
848,3	-0,002
848,7	-0,001
849,2	-0,002
849,6	-0,001
850	-0,002
850,4	-0,001
850,9	-0,001
851,3	-0,001
851,7	-0,001
852,2	-0,001
852,6	-0,001
853	-0,001
853,4	-0,001
853,9	-0,001
854,3	-0,001
854,7	-0,001
855,2	-0,001
855,6	-0,001
856	-0,001
856,4	-0,001
856,9	-0,001
857,3	-0,001
857,7	-0,001
858,2	-0,001
858,6	-0,001
859	-0,001
859,4	-0,001
859,9	-0,001
860,3	-0,001
860,7	-0,001
861,1	-0,001
861,6	-0,001
862	-0,001
862,4	-0,001
862,9	-0,001
863,3	-0,001
863,7	-0,001
864,1	-0,001
864,6	-0,001
865	-0,001
865,4	-0
865,9	-0
866,3	-0
866,7	-0
867,1	-0
867,6	-0
868	-0
868,4	-0
868,8	-0,001
869,3	-0,001
869,7	-0,001
870,1	-0,001
870,6	-0,001
871	-0,001
871,4	-0,001
871,8	-0,001
872,3	-0,001
872,7	-0,001
873,1	-0,001
873,5	-0,001
874	-0,001
874,4	-0,001
874,8	-0,001
875,3	-0,001
875,7	-0,001
876,1	-0,001
876,5	-0,001
877	-0,002
877,4	-0,002
877,8	-0,002
878,2	-0,002
878,7	-0,002
879,1	-0,002
879,5	-0,002
879,9	-0,002
880,4	-0,001
880,8	-0,001
881,2	-0,001
881,7	-0,001
882,1	-0,002
882,5	-0,002
882,9	-0,001
883,4	-0,002
883,8	-0,002
884,2	-0,002
884,6	-0,002
885,1	-0,002
885,5	-0,002
885,9	-0,001
886,3	-0,001
886,8	-0,001
887,2	-0,001
887,6	-0
888	-0
888,5	-0
888,9	-0,001
889,3	-0,001
889,8	-0,001
890,2	-0,001
890,6	-0,001
891	-0,002
891,5	-0,002
891,9	-0,001
892,3	-0,002
892,7	-0,002
893,2	-0,002
893,6	-0,002
894	-0,002
894,4	-0,002
894,9	-0,002
895,3	-0,001
895,7	-0,001
896,1	-0,002
896,6	-0,001
897	-0,001
897,4	-0,001
897,8	-0,001
898,3	-0,001
898,7	-0,001
899,1	-0,001
899,5	-0,001
900	-0,001
900,4	-0,001
900,8	-0,002
901,2	-0,002
901,7	-0,002
902,1	-0,002
902,5	-0,003
902,9	-0,003
903,4	-0,002
903,8	-0,002
904,2	-0,002
904,6	-0,002
905,1	-0,002
905,5	-0,001
905,9	-0,001
906,3	-0,001
906,8	-0,002
907,2	-0,001
907,6	-0,001
908	-0,001
908,5	-0,001
908,9	-0,001
909,3	-0,001
909,7	-0,001
910,2	-0,001
910,6	-0,002
911	-0,002
911,4	-0,002
911,9	-0,002
912,3	-0,002
912,7	-0,002
913,1	-0,002
913,6	-0,002
914	-0,002
914,4	-0,002
914,8	-0,002
915,3	-0,002
915,7	-0,002
916,1	-0,001
916,5	-0,002
916,9	-0,002
917,4	-0,002
917,8	-0,002
918,2	-0,002
918,6	-0,002
919,1	-0,002
919,5	-0,002
919,9	-0,002
920,3	-0,002
920,8	-0,002
921,2	-0,002
921,6	-0,002
922	-0,002
922,5	-0,002
922,9	-0,002
923,3	-0,002
923,7	-0,002
924,2	-0,002
924,6	-0,001
925	-0,001
925,4	-0,001
925,8	-0,001
926,3	-0,001
926,7	-0,001
927,1	-0,001
927,5	-0,001
928	-0
928,4	-0
928,8	-0
929,2	-0,001
929,7	-0
930,1	-0
930,5	-0
930,9	-0,001
931,3	-0,001
931,8	-0,001
932,2	-0,001
932,6	-0,001
933	-0,002
933,5	-0,002
933,9	-0,002
934,3	-0,002
934,7	-0,002
935,2	-0,003
935,6	-0,002
936	-0,002
936,4	-0,001
936,8	-0,001
937,3	-0,001
937,7	-0,001
938,1	-0
938,5	-0,001
939	-0,001
939,4	-0,001
939,8	-0,001
940,2	-0,001
940,6	-0,001
941,1	-0,001
941,5	-0
941,9	-0,001
942,3	-0,001
942,8	-0,001
943,2	-0,002
943,6	-0,002
944	-0,002
944,4	-0,002
944,9	-0,002
945,3	-0,001
945,7	-0,002
946,1	-0,001
946,6	-0,002
947	-0,002
947,4	-0,001
947,8	-0,001
948,2	-0,002
948,7	-0,001
949,1	-0,001
949,5	-0,001
949,9	-0
950,3	-0,001
950,8	-0,001
951,2	-0,001
951,6	-0,002
952	-0,003
952,5	-0,002
952,9	-0,002
953,3	-0,002
953,7	-0,001
954,1	-0,001
954,6	-0,002
955	-0,001
955,4	-0,001
955,8	-0,002
956,2	-0,002
956,7	-0,002
957,1	-0,002
957,5	-0,002
957,9	-0,003
958,3	-0,002
958,8	-0,002
959,2	-0,002
959,6	-0,002
960	-0,001
960,5	-0,001
960,9	-0,001
961,3	-0,002
961,7	-0,001
962,1	-0,001
962,6	-0,002
963	-0,002
963,4	-0,002
963,8	-0,002
964,2	-0,001
964,7	-0
965,1	0
965,5	0
965,9	0
966,3	0
966,8	0
967,2	-0,001
967,6	-0,001
968	-0,002
968,4	-0,002
968,9	-0,002
969,3	-0,002
969,7	-0,001
970,1	-0,001
970,5	-0,001
971	-0,001
971,4	-0,001
971,8	-0,001
972,2	-0,001
972,6	-0,001
973,1	-0,001
973,5	-0,001
973,9	-0,002
974,3	-0,001
974,7	-0,002
975,2	-0,002
975,6	-0,002
976	-0,003
976,4	-0,003
976,8	-0,002
977,3	-0,002
977,7	-0,001
978,1	-0,001
978,5	-0,001
978,9	-0,002
979,4	-0,002
979,8	-0,002
980,2	-0,002
980,6	-0,002
981	-0,002
981,5	-0,002
981,9	-0,001
982,3	-0,001
982,7	-0
983,1	-0
983,6	-0
984	-0
984,4	-0,001
984,8	-0,001
985,2	-0,001
985,6	-0,001
986,1	-0,001
986,5	-0,001
986,9	-0,001
987,3	-0,001
987,7	-0,001
988,2	-0,001
988,6	-0
989	-0,001
989,4	-0,001
989,8	-0,001
990,3	-0,002
990,7	-0,002
991,1	-0,001
991,5	-0,002
991,9	-0,002
992,3	-0,002
992,8	-0,002
993,2	-0,002
993,6	-0,002
994	-0,002
994,4	-0,002
994,9	-0,002
995,3	-0,002
995,7	-0,002
996,1	-0,002
996,5	-0,002
996,9	-0,002
997,4	-0,003
997,8	-0,003
998,2	-0,003
998,6	-0,002
999	-0,002
999,5	-0,002
999,9	-0,002
1000,3	-0,002
1000,7	-0,002
1001,1	-0,001
1001,5	-0,001
1002	-0,002
1002,4	-0,002
1002,8	-0,002
1003,2	-0,002
1003,6	-0,003
1004	-0,003
1004,5	-0,002
1004,9	-0,002
1005,3	-0,002
1005,7	-0,002
1006,1	-0,002
1006,6	-0,001
1007	-0,001
1007,4	-0,002
1007,8	-0,002
1008,2	-0,002
1008,6	-0,002
1009,1	-0,002
1009,5	-0,002
1009,9	-0,002
1010,3	-0,002
1010,7	-0,002
1011,1	-0,002
1011,6	-0,002
1012	-0,002
1012,4	-0,002
1012,8	-0,002
1013,2	-0,001
1013,6	-0,001
1014,1	-0,001
1014,5	-0,001
1014,9	-0,001
1015,3	-0,002
1015,7	-0,002
1016,1	-0,002
1016,6	-0,002
1017	-0,002
1017,4	-0,002
1017,8	-0,002
1018,2	-0,002
1018,6	-0,002
1019,1	-0,003
1019,5	-0,003
1019,9	-0,003
1020,3	-0,003
1020,7	-0,003
1021,1	-0,003
1021,6	-0,003
1022	-0,002
1022,4	-0,002
1022,8	-0,001
1023,2	-0,002
1023,6	-0,001
1024,1	-0,001
1024,5	-0,001
1024,9	-0
1025,3	-0,001
1025,7	-0,001
1026,1	-0
1026,6	-0
1027	0
1027,4	-0
1027,8	-0,001
1028,2	-0,001
1028,6	0,001
1029	-0
1029,5	-0,001
1029,9	-0,001
1030,3	-0,001
1030,7	-0,001
1031,1	-0,002
1031,5	-0,002
1032	-0,002
1032,4	-0,002
1032,8	-0,002
1033,2	-0,002
1033,6	-0,002
1034	-0,002
1034,4	-0,001
1034,9	-0,001
1035,3	-0,001
1035,7	-0
1036,1	0
1036,5	-0,001
1036,9	-0
1037,4	-0
1037,8	-0
1038,2	0
1038,6	-0,001
1039	-0,001
1039,4	-0,001
1039,8	-0,001
1040,3	-0,001
1040,7	-0,001
1041,1	-0,002
1041,5	-0,001
1041,9	-0,001
1042,3	-0
1042,7	-0,001
1043,2	-0,002
1043,6	-0,002
1044	-0,002
1044,4	-0,002
1044,8	-0,002
1045,2	-0,003
1045,6	-0,002
1046,1	-0,001
1046,5	-0,001
1046,9	-0,002
1047,3	-0,002
1047,7	-0,002
1048,1	-0,002
1048,5	-0,002
1049	-0,002
1049,4	-0,001
1049,8	-0,001
1050,2	-0
1050,6	0,001
1051	0
1051,4	0
1051,9	-0,001
1052,3	-0,002
1052,7	-0,001
1053,1	-0,002
1053,5	-0,002
1053,9	-0,002
1054,3	-0,003
1054,8	-0,002
1055,2	-0,002
1055,6	-0,002
1056	-0,002
1056,4	-0,002
1056,8	-0,002
1057,2	-0,001
1057,6	-0
1058,1	0,001
1058,5	0,001
1058,9	0,001
1059,3	0,001
1059,7	0,001
1060,1	0
1060,5	-0
1061	-0,001
1061,4	-0
1061,8	-0
1062,2	-0
1062,6	0
1063	0,001
1063,4	0,001
1063,8	0,001
1064,3	0
1064,7	0,001
1065,1	0
1065,5	0
1065,9	-0
1066,3	0
1066,7	0,001
1067,1	0,001
1067,6	-0
1068	0
1068,4	0
1068,8	0
1069,2	0
1069,6	-0
1070	-0
1070,4	-0
1070,9	-0,001
1071,3	-0,001
1071,7	-0,002
1072,1	-0,003
1072,5	-0,003
1072,9	-0,003
1073,3	-0,003
1073,7	-0,003
1074,2	-0,003
1074,6	-0,001
1075	-0
1075,4	-0,001
1075,8	-0,001
1076,2	-0,001
1076,6	-0,001
1077	-0,002
1077,5	-0,002
1077,9	-0,002
1078,3	-0,003
1078,7	-0,003
1079,1	-0,003
1079,5	-0,002
1079,9	-0,001
1080,3	-0,003
1080,7	-0,004
1081,2	-0,003
1081,6	-0,001
1082	-0
1082,4	-0,003
1082,8	-0,003
1083,2	-0,002
1083,6	-0,001
1084	-0,002
1084,5	-0,004
1084,9	-0,003
1085,3	-0,002
1085,7	-0,002
1086,1	-0,002
1086,5	-0,003
1086,9	-0,002
1087,3	0
1087,7	-0,002
1088,2	-0
1088,6	-0,001
1089	-0,001
1089,4	0,001
1089,8	-0,001
1090,2	-0,002
1090,6	-0,001
1091	-0,002
1091,4	-0,001
1091,9	-0,002
1092,3	0,001
1092,7	0,003
1093,1	0,005
1093,5	0,001
1093,9	-0
1094,3	-0
1094,7	-0
1095,1	-0,002
1095,5	-0,004
1096	-0,005
1096,4	0,004
1096,8	0,003
1097,2	0,002
1097,6	0,001
1098	0,002
1098,4	0,009
1098,8	0,008
1099,2	0
1099,6	0,005
1100,1	0,01
1100,5	0,008
1100,9	0,001
1101,3	-0,004
1101,7	-0,004
1102,1	0,002
1102,5	0,001
1102,9	0,005
1103,3	0,015
1103,7	0,022
1104,2	0,023
1104,6	0,028
1105	0,019
1105,4	0,016
1105,8	0,013
1106,2	0,004
1106,6	0,005
1107	0,017
1107,4	0,006
1107,8	0,057
1108,3	0,579
