Data from Absorbance_00023.txt Node
Date: Thu Aug 10 16:29:10 MSK 2023
User: vat
Spectrometer: MAYP114033
Trigger mode: 0
Integration Time (sec): 8,000000E-3
Scans to average: 10
Electric dark correction enabled: true
Nonlinearity correction enabled: false
Boxcar width: 3
XAxis mode: Wavelengths
Number of Pixels in Spectrum: 2068
>>>>>Begin Spectral Data<<<<<
199,4	0,138
199,9	0,121
200,4	0,42
200,8	0,845
201,3	0,905
201,8	0,956
202,2	0,997
202,7	1,031
203,2	1,083
203,6	1,137
204,1	1,141
204,6	1,163
205	1,169
205,5	1,195
206	1,204
206,4	1,219
206,9	1,22
207,4	1,218
207,8	1,233
208,3	1,266
208,8	1,274
209,2	1,278
209,7	1,292
210,2	1,325
210,6	1,351
211,1	1,386
211,5	1,387
212	1,408
212,5	1,445
212,9	1,471
213,4	1,495
213,9	1,518
214,3	1,521
214,8	1,545
215,3	1,541
215,7	1,531
216,2	1,544
216,7	1,533
217,1	1,548
217,6	1,564
218,1	1,581
218,5	1,607
219	1,65
219,5	1,645
219,9	1,685
220,4	1,698
220,9	1,72
221,3	1,728
221,8	1,735
222,3	1,735
222,7	1,756
223,2	1,757
223,6	1,773
224,1	1,766
224,6	1,779
225	1,797
225,5	1,818
226	1,847
226,4	1,866
226,9	1,891
227,4	1,892
227,8	1,912
228,3	1,942
228,8	1,934
229,2	1,929
229,7	1,925
230,2	1,934
230,6	1,962
231,1	1,962
231,5	1,948
232	1,986
232,5	2
232,9	2,01
233,4	2,025
233,9	2,057
234,3	2,08
234,8	2,074
235,3	2,073
235,7	2,092
236,2	2,105
236,7	2,1
237,1	2,082
237,6	2,088
238,1	2,1
238,5	2,107
239	2,107
239,4	2,111
239,9	2,133
240,4	2,153
240,8	2,183
241,3	2,199
241,8	2,222
242,2	2,233
242,7	2,24
243,2	2,231
243,6	2,235
244,1	2,207
244,6	2,215
245	2,212
245,5	2,221
245,9	2,233
246,4	2,232
246,9	2,239
247,3	2,231
247,8	2,243
248,3	2,218
248,7	2,224
249,2	2,238
249,7	2,252
250,1	2,229
250,6	2,232
251	2,222
251,5	2,237
252	2,207
252,4	2,195
252,9	2,163
253,4	2,16
253,8	2,163
254,3	2,171
254,8	2,18
255,2	2,207
255,7	2,215
256,1	2,248
256,6	2,276
257,1	2,274
257,5	2,275
258	2,26
258,5	2,251
258,9	2,257
259,4	2,262
259,9	2,259
260,3	2,291
260,8	2,287
261,2	2,295
261,7	2,3
262,2	2,28
262,6	2,292
263,1	2,309
263,6	2,298
264	2,304
264,5	2,296
264,9	2,296
265,4	2,293
265,9	2,304
266,3	2,29
266,8	2,271
267,3	2,268
267,7	2,261
268,2	2,265
268,7	2,294
269,1	2,263
269,6	2,255
270	2,286
270,5	2,286
271	2,291
271,4	2,297
271,9	2,253
272,4	2,249
272,8	2,276
273,3	2,254
273,7	2,241
274,2	2,249
274,7	2,245
275,1	2,263
275,6	2,263
276,1	2,251
276,5	2,253
277	2,262
277,4	2,257
277,9	2,253
278,4	2,246
278,8	2,243
279,3	2,253
279,8	2,24
280,2	2,245
280,7	2,258
281,1	2,269
281,6	2,251
282,1	2,258
282,5	2,229
283	2,232
283,4	2,207
283,9	2,183
284,4	2,145
284,8	2,134
285,3	2,102
285,8	2,072
286,2	2,025
286,7	1,991
287,1	1,928
287,6	1,879
288,1	1,814
288,5	1,753
289	1,689
289,5	1,636
289,9	1,577
290,4	1,528
290,8	1,479
291,3	1,44
291,8	1,401
292,2	1,367
292,7	1,335
293,1	1,31
293,6	1,285
294,1	1,262
294,5	1,241
295	1,22
295,5	1,201
295,9	1,183
296,4	1,164
296,8	1,149
297,3	1,133
297,8	1,119
298,2	1,105
298,7	1,09
299,1	1,076
299,6	1,062
300,1	1,047
300,5	1,034
301	1,019
301,5	1,005
301,9	0,994
302,4	0,981
302,8	0,969
303,3	0,958
303,8	0,947
304,2	0,937
304,7	0,927
305,1	0,913
305,6	0,904
306,1	0,893
306,5	0,881
307	0,869
307,4	0,858
307,9	0,848
308,4	0,839
308,8	0,828
309,3	0,818
309,8	0,808
310,2	0,799
310,7	0,789
311,1	0,778
311,6	0,769
312,1	0,759
312,5	0,75
313	0,741
313,4	0,732
313,9	0,723
314,4	0,714
314,8	0,705
315,3	0,697
315,7	0,689
316,2	0,681
316,7	0,673
317,1	0,664
317,6	0,655
318	0,647
318,5	0,639
319	0,631
319,4	0,623
319,9	0,615
320,3	0,609
320,8	0,602
321,3	0,594
321,7	0,587
322,2	0,579
322,6	0,572
323,1	0,565
323,6	0,557
324	0,55
324,5	0,543
324,9	0,536
325,4	0,529
325,9	0,522
326,3	0,515
326,8	0,51
327,2	0,503
327,7	0,497
328,2	0,491
328,6	0,485
329,1	0,48
329,5	0,475
330	0,468
330,5	0,463
330,9	0,458
331,4	0,453
331,8	0,448
332,3	0,443
332,8	0,437
333,2	0,432
333,7	0,427
334,1	0,423
334,6	0,417
335,1	0,413
335,5	0,407
336	0,402
336,4	0,398
336,9	0,394
337,4	0,389
337,8	0,384
338,3	0,38
338,7	0,376
339,2	0,371
339,7	0,367
340,1	0,362
340,6	0,358
341	0,354
341,5	0,35
342	0,346
342,4	0,343
342,9	0,339
343,3	0,336
343,8	0,332
344,2	0,329
344,7	0,325
345,2	0,322
345,6	0,317
346,1	0,313
346,5	0,31
347	0,308
347,5	0,305
347,9	0,302
348,4	0,299
348,8	0,296
349,3	0,293
349,8	0,29
350,2	0,286
350,7	0,283
351,1	0,28
351,6	0,278
352	0,275
352,5	0,272
353	0,269
353,4	0,267
353,9	0,263
354,3	0,26
354,8	0,257
355,3	0,254
355,7	0,251
356,2	0,249
356,6	0,246
357,1	0,243
357,5	0,241
358	0,239
358,5	0,237
358,9	0,235
359,4	0,232
359,8	0,23
360,3	0,228
360,8	0,225
361,2	0,223
361,7	0,221
362,1	0,219
362,6	0,217
363	0,214
363,5	0,212
364	0,21
364,4	0,208
364,9	0,206
365,3	0,204
365,8	0,202
366,3	0,2
366,7	0,198
367,2	0,196
367,6	0,194
368,1	0,192
368,5	0,189
369	0,187
369,5	0,185
369,9	0,184
370,4	0,181
370,8	0,18
371,3	0,178
371,7	0,176
372,2	0,174
372,7	0,172
373,1	0,17
373,6	0,168
374	0,166
374,5	0,164
374,9	0,162
375,4	0,16
375,9	0,159
376,3	0,157
376,8	0,155
377,2	0,152
377,7	0,151
378,2	0,151
378,6	0,149
379,1	0,147
379,5	0,145
380	0,144
380,4	0,143
380,9	0,141
381,4	0,139
381,8	0,137
382,3	0,136
382,7	0,134
383,2	0,133
383,6	0,131
384,1	0,13
384,6	0,128
385	0,127
385,5	0,126
385,9	0,125
386,4	0,123
386,8	0,122
387,3	0,121
387,7	0,12
388,2	0,119
388,7	0,117
389,1	0,116
389,6	0,115
390	0,114
390,5	0,113
390,9	0,112
391,4	0,111
391,9	0,11
392,3	0,108
392,8	0,107
393,2	0,106
393,7	0,104
394,1	0,103
394,6	0,103
395,1	0,102
395,5	0,101
396	0,1
396,4	0,1
396,9	0,1
397,3	0,099
397,8	0,098
398,2	0,097
398,7	0,097
399,2	0,095
399,6	0,094
400,1	0,093
400,5	0,092
401	0,091
401,4	0,09
401,9	0,089
402,4	0,088
402,8	0,088
403,3	0,087
403,7	0,086
404,2	0,085
404,6	0,084
405,1	0,083
405,5	0,082
406	0,081
406,5	0,08
406,9	0,08
407,4	0,079
407,8	0,078
408,3	0,077
408,7	0,076
409,2	0,075
409,6	0,075
410,1	0,073
410,6	0,073
411	0,073
411,5	0,072
411,9	0,071
412,4	0,07
412,8	0,07
413,3	0,07
413,7	0,069
414,2	0,068
414,7	0,068
415,1	0,068
415,6	0,068
416	0,068
416,5	0,067
416,9	0,066
417,4	0,065
417,8	0,065
418,3	0,064
418,8	0,064
419,2	0,063
419,7	0,063
420,1	0,062
420,6	0,062
421	0,061
421,5	0,06
421,9	0,06
422,4	0,059
422,8	0,058
423,3	0,058
423,8	0,058
424,2	0,058
424,7	0,057
425,1	0,057
425,6	0,056
426	0,056
426,5	0,056
426,9	0,055
427,4	0,054
427,9	0,054
428,3	0,053
428,8	0,053
429,2	0,053
429,7	0,052
430,1	0,052
430,6	0,052
431	0,051
431,5	0,051
431,9	0,051
432,4	0,05
432,8	0,05
433,3	0,049
433,8	0,049
434,2	0,048
434,7	0,048
435,1	0,048
435,6	0,047
436	0,047
436,5	0,047
436,9	0,046
437,4	0,046
437,8	0,045
438,3	0,045
438,8	0,044
439,2	0,044
439,7	0,043
440,1	0,043
440,6	0,042
441	0,042
441,5	0,042
441,9	0,042
442,4	0,042
442,8	0,041
443,3	0,041
443,7	0,041
444,2	0,041
444,7	0,04
445,1	0,04
445,6	0,039
446	0,039
446,5	0,039
446,9	0,039
447,4	0,038
447,8	0,038
448,3	0,038
448,7	0,038
449,2	0,038
449,6	0,038
450,1	0,037
450,6	0,038
451	0,037
451,5	0,037
451,9	0,036
452,4	0,036
452,8	0,036
453,3	0,036
453,7	0,035
454,2	0,035
454,6	0,035
455,1	0,034
455,5	0,034
456	0,034
456,4	0,033
456,9	0,033
457,3	0,033
457,8	0,032
458,3	0,032
458,7	0,032
459,2	0,031
459,6	0,031
460,1	0,031
460,5	0,031
461	0,031
461,4	0,031
461,9	0,031
462,3	0,03
462,8	0,029
463,2	0,029
463,7	0,028
464,1	0,028
464,6	0,028
465	0,028
465,5	0,028
466	0,028
466,4	0,028
466,9	0,028
467,3	0,028
467,8	0,029
468,2	0,028
468,7	0,028
469,1	0,028
469,6	0,028
470	0,028
470,5	0,028
470,9	0,027
471,4	0,026
471,8	0,025
472,3	0,025
472,7	0,025
473,2	0,025
473,6	0,025
474,1	0,024
474,5	0,024
475	0,024
475,4	0,024
475,9	0,023
476,4	0,023
476,8	0,022
477,3	0,022
477,7	0,022
478,2	0,023
478,6	0,022
479,1	0,023
479,5	0,022
480	0,022
480,4	0,022
480,9	0,022
481,3	0,022
481,8	0,023
482,2	0,022
482,7	0,022
483,1	0,022
483,6	0,021
484	0,021
484,5	0,02
484,9	0,02
485,4	0,02
485,8	0,019
486,3	0,019
486,7	0,019
487,2	0,019
487,6	0,02
488,1	0,019
488,5	0,02
489	0,02
489,4	0,021
489,9	0,02
490,4	0,02
490,8	0,019
491,3	0,019
491,7	0,019
492,2	0,018
492,6	0,018
493,1	0,018
493,5	0,018
494	0,017
494,4	0,018
494,9	0,018
495,3	0,017
495,8	0,017
496,2	0,017
496,7	0,016
497,1	0,016
497,6	0,016
498	0,016
498,5	0,017
498,9	0,017
499,4	0,017
499,8	0,018
500,3	0,017
500,7	0,017
501,2	0,016
501,6	0,016
502,1	0,016
502,5	0,016
503	0,015
503,4	0,015
503,9	0,015
504,3	0,015
504,8	0,015
505,2	0,015
505,7	0,015
506,1	0,014
506,6	0,015
507	0,014
507,5	0,013
507,9	0,013
508,4	0,013
508,8	0,013
509,3	0,013
509,7	0,013
510,2	0,014
510,6	0,014
511,1	0,014
511,5	0,014
512	0,013
512,4	0,013
512,9	0,013
513,3	0,013
513,8	0,013
514,2	0,013
514,7	0,013
515,1	0,013
515,6	0,013
516	0,013
516,5	0,013
516,9	0,012
517,4	0,012
517,8	0,012
518,3	0,011
518,7	0,011
519,2	0,011
519,6	0,01
520,1	0,011
520,5	0,011
521	0,011
521,4	0,012
521,9	0,012
522,3	0,012
522,8	0,012
523,2	0,012
523,7	0,012
524,1	0,012
524,6	0,011
525	0,011
525,5	0,011
525,9	0,011
526,4	0,011
526,8	0,01
527,3	0,01
527,7	0,01
528,2	0,01
528,6	0,01
529,1	0,01
529,5	0,01
530	0,01
530,4	0,01
530,9	0,009
531,3	0,009
531,8	0,009
532,2	0,009
532,6	0,01
533,1	0,009
533,5	0,009
534	0,009
534,4	0,009
534,9	0,009
535,3	0,008
535,8	0,008
536,2	0,008
536,7	0,008
537,1	0,008
537,6	0,008
538	0,008
538,5	0,008
538,9	0,008
539,4	0,008
539,8	0,007
540,3	0,008
540,7	0,007
541,2	0,008
541,6	0,008
542,1	0,008
542,5	0,008
543	0,008
543,4	0,008
543,9	0,009
544,3	0,009
544,8	0,009
545,2	0,009
545,7	0,009
546,1	0,009
546,5	0,008
547	0,008
547,4	0,008
547,9	0,008
548,3	0,008
548,8	0,008
549,2	0,008
549,7	0,008
550,1	0,008
550,6	0,009
551	0,008
551,5	0,008
551,9	0,007
552,4	0,008
552,8	0,007
553,3	0,007
553,7	0,006
554,2	0,007
554,6	0,007
555,1	0,007
555,5	0,007
555,9	0,007
556,4	0,007
556,8	0,007
557,3	0,007
557,7	0,006
558,2	0,006
558,6	0,006
559,1	0,006
559,5	0,006
560	0,006
560,4	0,006
560,9	0,006
561,3	0,006
561,8	0,005
562,2	0,005
562,7	0,005
563,1	0,006
563,6	0,006
564	0,006
564,4	0,007
564,9	0,007
565,3	0,007
565,8	0,007
566,2	0,007
566,7	0,007
567,1	0,007
567,6	0,006
568	0,006
568,5	0,006
568,9	0,005
569,4	0,005
569,8	0,005
570,3	0,005
570,7	0,005
571,1	0,005
571,6	0,005
572	0,005
572,5	0,005
572,9	0,005
573,4	0,005
573,8	0,005
574,3	0,004
574,7	0,005
575,2	0,005
575,6	0,004
576,1	0,004
576,5	0,005
576,9	0,004
577,4	0,004
577,8	0,004
578,3	0,004
578,7	0,004
579,2	0,004
579,6	0,004
580,1	0,004
580,5	0,004
581	0,005
581,4	0,004
581,9	0,004
582,3	0,004
582,7	0,004
583,2	0,005
583,6	0,005
584,1	0,004
584,5	0,005
585	0,005
585,4	0,004
585,9	0,004
586,3	0,004
586,8	0,004
587,2	0,004
587,6	0,004
588,1	0,004
588,5	0,004
589	0,004
589,4	0,004
589,9	0,004
590,3	0,004
590,8	0,004
591,2	0,004
591,7	0,004
592,1	0,004
592,5	0,004
593	0,003
593,4	0,004
593,9	0,003
594,3	0,004
594,8	0,003
595,2	0,003
595,7	0,004
596,1	0,004
596,6	0,004
597	0,004
597,4	0,004
597,9	0,004
598,3	0,004
598,8	0,004
599,2	0,004
599,7	0,004
600,1	0,004
600,6	0,004
601	0,003
601,4	0,003
601,9	0,003
602,3	0,003
602,8	0,003
603,2	0,003
603,7	0,003
604,1	0,003
604,6	0,003
605	0,003
605,4	0,003
605,9	0,003
606,3	0,003
606,8	0,003
607,2	0,003
607,7	0,003
608,1	0,003
608,6	0,003
609	0,003
609,4	0,003
609,9	0,003
610,3	0,003
610,8	0,003
611,2	0,003
611,7	0,003
612,1	0,004
612,6	0,004
613	0,004
613,4	0,003
613,9	0,003
614,3	0,003
614,8	0,003
615,2	0,003
615,7	0,003
616,1	0,003
616,6	0,003
617	0,003
617,4	0,003
617,9	0,003
618,3	0,003
618,8	0,003
619,2	0,002
619,7	0,002
620,1	0,002
620,5	0,002
621	0,002
621,4	0,002
621,9	0,002
622,3	0,003
622,8	0,002
623,2	0,002
623,6	0,003
624,1	0,002
624,5	0,002
625	0,002
625,4	0,002
625,9	0,003
626,3	0,003
626,8	0,002
627,2	0,002
627,6	0,002
628,1	0,002
628,5	0,002
629	0,002
629,4	0,002
629,9	0,002
630,3	0,002
630,7	0,002
631,2	0,002
631,6	0,001
632,1	0,001
632,5	0,002
633	0,003
633,4	0,003
633,8	0,003
634,3	0,003
634,7	0,003
635,2	0,003
635,6	0,003
636,1	0,003
636,5	0,003
636,9	0,003
637,4	0,003
637,8	0,003
638,3	0,003
638,7	0,003
639,2	0,003
639,6	0,003
640	0,002
640,5	0,002
640,9	0,002
641,4	0,001
641,8	0,001
642,2	0,001
642,7	0,001
643,1	0,002
643,6	0,002
644	0,002
644,5	0,002
644,9	0,002
645,3	0,002
645,8	0,002
646,2	0,001
646,7	0,001
647,1	0,001
647,6	0,002
648	0,002
648,4	0,002
648,9	0,002
649,3	0,002
649,8	0,003
650,2	0,003
650,6	0,003
651,1	0,003
651,5	0,002
652	0,002
652,4	0,002
652,9	0,002
653,3	0,001
653,7	0,002
654,2	0,002
654,6	0,002
655,1	0,001
655,5	0,001
655,9	0,001
656,4	0
656,8	0,002
657,3	0,002
657,7	0,002
658,2	0,002
658,6	0,003
659	0,004
659,5	0,006
659,9	0,004
660,4	0,003
660,8	0,002
661,2	0,002
661,7	0,002
662,1	0,002
662,6	0,002
663	0,002
663,4	0,002
663,9	0,002
664,3	0,002
664,8	0,002
665,2	0,002
665,6	0,002
666,1	0,002
666,5	0,001
667	0,002
667,4	0,002
667,9	0,002
668,3	0,001
668,7	0,002
669,2	0,001
669,6	0,002
670,1	0,002
670,5	0,002
670,9	0,001
671,4	0,001
671,8	0
672,3	0
672,7	-0
673,1	-0
673,6	-0
674	0
674,5	0
674,9	0,001
675,3	0,001
675,8	0,001
676,2	0,001
676,7	0,001
677,1	0,001
677,5	0,001
678	0,001
678,4	0,001
678,9	0,001
679,3	0,001
679,7	0,002
680,2	0,002
680,6	0,002
681,1	0,002
681,5	0,002
681,9	0,001
682,4	0,001
682,8	0,001
683,3	0,001
683,7	0,001
684,1	0,001
684,6	0,001
685	0,001
685,5	0,001
685,9	0,001
686,3	0,001
686,8	0,001
687,2	0,001
687,7	0,001
688,1	0,001
688,5	0,001
689	0,001
689,4	0,001
689,9	0,001
690,3	0,001
690,7	0,001
691,2	0,001
691,6	0,001
692	0,001
692,5	0,001
692,9	0,001
693,4	0,001
693,8	0
694,2	0,001
694,7	0,001
695,1	0,001
695,6	0,001
696	0,001
696,4	0,001
696,9	0,001
697,3	0,001
697,8	0,001
698,2	0,001
698,6	0,001
699,1	0,001
699,5	0,001
699,9	0,001
700,4	0,001
700,8	0
701,3	0
701,7	-0
702,1	0
702,6	-0
703	0
703,5	0
703,9	0
704,3	0
704,8	0
705,2	0
705,6	0
706,1	0
706,5	0
707	0
707,4	0,001
707,8	0,001
708,3	0,001
708,7	0,001
709,2	0,002
709,6	0,002
710	0,002
710,5	0,002
710,9	0,002
711,3	0,002
711,8	0,002
712,2	0,002
712,7	0,002
713,1	0,002
713,5	0,002
714	0,001
714,4	0,001
714,8	0,001
715,3	0,001
715,7	0,001
716,2	0,001
716,6	0,001
717	0,002
717,5	0,001
717,9	0,001
718,3	0,001
718,8	0,001
719,2	0,001
719,7	0,001
720,1	0,001
720,5	0,001
721	0,001
721,4	0,002
721,8	0,002
722,3	0,002
722,7	0,002
723,2	0,002
723,6	0,002
724	0,002
724,5	0,001
724,9	0,001
725,3	0,001
725,8	0,001
726,2	0,001
726,7	0,001
727,1	0,001
727,5	0,001
728	0,001
728,4	0
728,8	0
729,3	-0
729,7	-0
730,1	-0
730,6	-0
731	-0
731,5	0
731,9	0,001
732,3	0,001
732,8	0,001
733,2	0,001
733,6	0,001
734,1	0,001
734,5	0,001
734,9	0,001
735,4	0,001
735,8	0,001
736,3	0,001
736,7	0,001
737,1	0,001
737,6	0,001
738	0,001
738,4	0,001
738,9	0,001
739,3	0,001
739,7	0,001
740,2	0,001
740,6	0
741,1	0
741,5	0
741,9	0,001
742,4	0
742,8	0,001
743,2	0,001
743,7	0,001
744,1	0
744,5	0
745	0
745,4	0
745,8	0,001
746,3	0,001
746,7	0,001
747,2	0,001
747,6	0,001
748	0,001
748,5	0,001
748,9	0,001
749,3	0,001
749,8	0,001
750,2	0,001
750,6	0
751,1	0
751,5	0,001
751,9	0,001
752,4	0,001
752,8	0,001
753,3	0,001
753,7	0,001
754,1	0,001
754,6	0,001
755	0
755,4	0
755,9	-0
756,3	0
756,7	0
757,2	0
757,6	0
758	0
758,5	0
758,9	0
759,3	0
759,8	0
760,2	0
760,6	0
761,1	-0
761,5	-0
761,9	-0
762,4	-0
762,8	-0,001
763,3	-0
763,7	-0,001
764,1	-0,001
764,6	-0,001
765	-0,001
765,4	-0,001
765,9	-0
766,3	-0,001
766,7	-0
767,2	0
767,6	0
768	0,001
768,5	0,001
768,9	0
769,3	0,001
769,8	0
770,2	0
770,6	0,001
771,1	0
771,5	0
771,9	0,001
772,4	0,001
772,8	0,001
773,2	0,001
773,7	0,001
774,1	0,001
774,5	0,001
775	0,001
775,4	0,001
775,8	0,001
776,3	0,001
776,7	0
777,1	0,001
777,6	0,001
778	0,001
778,4	0,001
778,9	0,001
779,3	0
779,7	0,001
780,2	0,001
780,6	0,001
781	0,001
781,5	0,001
781,9	0
782,3	0
782,8	-0
783,2	-0
783,6	-0
784,1	-0,001
784,5	-0
784,9	-0
785,4	-0
785,8	-0
786,2	-0
786,7	-0
787,1	-0
787,5	-0,001
788	-0,001
788,4	-0,001
788,8	-0,001
789,3	-0,001
789,7	-0,001
790,1	-0
790,6	0
791	0
791,4	0,001
791,9	0
792,3	0,001
792,7	0,001
793,2	0,001
793,6	0
794	0
794,5	0
794,9	0
795,3	0
795,8	0
796,2	0
796,6	0
797,1	0
797,5	0
797,9	0
798,4	0
798,8	0
799,2	0
799,7	0
800,1	0
800,5	0,001
801	0,001
801,4	0,001
801,8	0,001
802,2	0,001
802,7	0,001
803,1	0,001
803,5	0,001
804	0,001
804,4	0,001
804,8	0,001
805,3	0
805,7	-0
806,1	-0,001
806,6	-0
807	-0
807,4	0
807,9	0
808,3	0
808,7	0,001
809,2	0,001
809,6	0,001
810	0
810,4	0
810,9	0
811,3	0
811,7	0
812,2	0
812,6	0
813	0
813,5	0
813,9	-0
814,3	-0
814,8	-0,001
815,2	-0,001
815,6	-0,001
816,1	-0,001
816,5	-0,001
816,9	-0,001
817,3	-0,001
817,8	-0
818,2	-0
818,6	-0
819,1	-0
819,5	-0
819,9	-0
820,4	-0
820,8	0
821,2	0
821,7	-0
822,1	-0
822,5	-0
822,9	-0
823,4	-0
823,8	-0
824,2	-0
824,7	-0
825,1	-0
825,5	0
826	0
826,4	-0
826,8	-0
827,3	0
827,7	0
828,1	0
828,5	-0
829	-0
829,4	-0
829,8	-0
830,3	-0
830,7	-0
831,1	-0,001
831,6	-0
832	-0
832,4	-0
832,8	0
833,3	0
833,7	0
834,1	0
834,6	0
835	0,001
835,4	0,001
835,8	0
836,3	-0
836,7	-0,001
837,1	-0,001
837,6	-0,001
838	-0,001
838,4	-0,001
838,9	-0,001
839,3	-0,001
839,7	-0,002
840,1	-0,001
840,6	-0,001
841	-0,001
841,4	-0,001
841,9	-0,001
842,3	-0,001
842,7	-0,001
843,1	-0,001
843,6	-0,001
844	-0
844,4	-0
844,9	-0
845,3	0
845,7	-0
846,2	0,001
846,6	0
847	0,001
847,4	0,001
847,9	0
848,3	0
848,7	0,001
849,2	0
849,6	0
850	0
850,4	0
850,9	0
851,3	0
851,7	-0
852,2	-0
852,6	-0
853	-0
853,4	-0
853,9	0
854,3	0
854,7	0
855,2	0
855,6	0
856	0
856,4	0
856,9	0
857,3	-0
857,7	-0
858,2	-0
858,6	-0
859	-0
859,4	-0
859,9	-0
860,3	-0
860,7	-0
861,1	-0
861,6	-0
862	-0
862,4	0
862,9	0
863,3	0
863,7	0
864,1	0
864,6	0
865	0
865,4	0
865,9	0
866,3	0
866,7	0
867,1	0
867,6	0,001
868	0,001
868,4	0,001
868,8	0,001
869,3	0,001
869,7	0,001
870,1	0,001
870,6	0,001
871	0,001
871,4	0,001
871,8	0,001
872,3	0,001
872,7	0,001
873,1	0
873,5	0
874	0,001
874,4	0,001
874,8	0,001
875,3	0,001
875,7	0,001
876,1	0,001
876,5	0,001
877	0,001
877,4	0,001
877,8	0
878,2	0,001
878,7	0
879,1	0,001
879,5	0,001
879,9	0,001
880,4	0,001
880,8	0,001
881,2	0,001
881,7	0,001
882,1	0,001
882,5	0,001
882,9	0,001
883,4	0,001
883,8	0,001
884,2	0,001
884,6	0,001
885,1	0,001
885,5	0,001
885,9	0,001
886,3	0,001
886,8	0,001
887,2	0,001
887,6	0,001
888	0,001
888,5	0,001
888,9	0,001
889,3	0
889,8	0
890,2	0,001
890,6	0,001
891	0,001
891,5	0,001
891,9	0,001
892,3	0,001
892,7	0,001
893,2	0
893,6	0
894	0,001
894,4	0,001
894,9	0,001
895,3	0,001
895,7	0,001
896,1	0,001
896,6	0,001
897	0,001
897,4	0,001
897,8	0,001
898,3	0
898,7	0,001
899,1	0,001
899,5	0,001
900	0,001
900,4	0,001
900,8	0,001
901,2	0,002
901,7	0,002
902,1	0,001
902,5	0,001
902,9	0,001
903,4	0,001
903,8	0,001
904,2	0,001
904,6	0
905,1	0,001
905,5	0,001
905,9	0,001
906,3	0
906,8	0
907,2	-0
907,6	-0
908	-0,001
908,5	-0,001
908,9	-0,001
909,3	-0,002
909,7	-0,001
910,2	-0,002
910,6	-0,001
911	-0,001
911,4	-0,001
911,9	-0,001
912,3	-0
912,7	-0
913,1	-0
913,6	-0
914	0
914,4	0
914,8	-0
915,3	-0
915,7	0
916,1	0
916,5	0
916,9	-0
917,4	-0
917,8	0
918,2	0
918,6	-0
919,1	-0,001
919,5	-0,001
919,9	-0,001
920,3	-0
920,8	-0
921,2	-0
921,6	-0
922	0,001
922,5	0,001
922,9	0,001
923,3	0,001
923,7	0,001
924,2	0
924,6	0,001
925	0
925,4	0,001
925,8	0,001
926,3	0,001
926,7	0,001
927,1	0,001
927,5	0
928	0
928,4	-0
928,8	-0
929,2	-0,001
929,7	-0
930,1	-0
930,5	-0
930,9	-0
931,3	-0
931,8	-0,001
932,2	-0
932,6	-0
933	-0
933,5	-0,001
933,9	-0,001
934,3	-0,001
934,7	-0,001
935,2	-0,001
935,6	-0
936	0
936,4	0,001
936,8	0,001
937,3	0,002
937,7	0,002
938,1	0,002
938,5	0,002
939	0,002
939,4	0,002
939,8	0,002
940,2	0,002
940,6	0,001
941,1	0,001
941,5	0,001
941,9	0,001
942,3	0
942,8	0,001
943,2	-0
943,6	-0
944	-0
944,4	-0
944,9	0
945,3	0,001
945,7	0
946,1	0,001
946,6	0,001
947	0,001
947,4	0,001
947,8	0,001
948,2	0,001
948,7	0,001
949,1	0,001
949,5	0,001
949,9	0,002
950,3	0,001
950,8	0
951,2	0
951,6	0,001
952	-0
952,5	0,001
952,9	-0
953,3	0,001
953,7	0,001
954,1	0,001
954,6	0,001
955	0,001
955,4	0
955,8	0,001
956,2	0,001
956,7	0,001
957,1	0,001
957,5	0,001
957,9	0,001
958,3	0,001
958,8	0
959,2	0
959,6	-0
960	0
960,5	0
960,9	0
961,3	0
961,7	0,001
962,1	0
962,6	0
963	0,001
963,4	0,001
963,8	0,001
964,2	0,002
964,7	0,002
965,1	0,002
965,5	0,003
965,9	0,002
966,3	0,001
966,8	0,001
967,2	0
967,6	-0
968	0
968,4	0
968,9	0,001
969,3	0,002
969,7	0,002
970,1	0,002
970,5	0,002
971	0,002
971,4	0,001
971,8	0,001
972,2	0,001
972,6	0
973,1	0,001
973,5	0
973,9	0,001
974,3	0,001
974,7	0,001
975,2	0,001
975,6	0,001
976	0,001
976,4	0,001
976,8	0,001
977,3	0
977,7	0
978,1	-0
978,5	-0,001
978,9	-0,001
979,4	-0,001
979,8	-0,001
980,2	-0,001
980,6	-0,001
981	-0
981,5	-0,001
981,9	-0
982,3	-0
982,7	0
983,1	0
983,6	0,001
984	0,001
984,4	0,002
984,8	0,002
985,2	0,002
985,6	0,001
986,1	0,001
986,5	0,001
986,9	0,001
987,3	0,001
987,7	0,001
988,2	0,001
988,6	0,001
989	0,001
989,4	0,001
989,8	0
990,3	0
990,7	-0
991,1	-0
991,5	-0,001
991,9	-0
992,3	-0
992,8	-0,001
993,2	-0,001
993,6	-0,001
994	-0,001
994,4	-0,001
994,9	-0,001
995,3	-0,001
995,7	-0
996,1	0
996,5	0,001
996,9	0,001
997,4	0,001
997,8	0,001
998,2	0,001
998,6	0
999	0,001
999,5	0
999,9	-0
1000,3	0
1000,7	-0
1001,1	-0
1001,5	-0
1002	-0,001
1002,4	-0,001
1002,8	-0
1003,2	-0
1003,6	-0
1004	0,001
1004,5	0,001
1004,9	0,001
1005,3	0,001
1005,7	-0
1006,1	-0
1006,6	0
1007	-0,001
1007,4	-0,001
1007,8	-0
1008,2	-0
1008,6	-0,001
1009,1	-0,001
1009,5	-0,001
1009,9	-0,001
1010,3	-0,001
1010,7	-0,002
1011,1	-0,002
1011,6	-0,001
1012	-0,001
1012,4	-0,001
1012,8	-0,001
1013,2	-0
1013,6	-0
1014,1	-0
1014,5	-0
1014,9	-0
1015,3	-0,001
1015,7	-0
1016,1	-0
1016,6	-0
1017	-0
1017,4	-0
1017,8	-0
1018,2	-0
1018,6	0
1019,1	-0,001
1019,5	-0,001
1019,9	-0,001
1020,3	-0,001
1020,7	-0,001
1021,1	-0,001
1021,6	-0
1022	0
1022,4	-0
1022,8	0
1023,2	-0
1023,6	-0
1024,1	-0
1024,5	-0
1024,9	-0
1025,3	0
1025,7	-0
1026,1	0,001
1026,6	0,001
1027	0,002
1027,4	0,001
1027,8	0,001
1028,2	0,001
1028,6	0,002
1029	0,001
1029,5	0,001
1029,9	-0
1030,3	-0
1030,7	-0
1031,1	-0,001
1031,5	-0,002
1032	-0,002
1032,4	-0,002
1032,8	-0,001
1033,2	-0,001
1033,6	-0,001
1034	-0,001
1034,4	-0
1034,9	0
1035,3	0
1035,7	-0
1036,1	0
1036,5	0
1036,9	0,001
1037,4	0,001
1037,8	0
1038,2	0
1038,6	-0
1039	-0,001
1039,4	-0,001
1039,8	-0,002
1040,3	-0,001
1040,7	-0,002
1041,1	-0,002
1041,5	-0,002
1041,9	-0,001
1042,3	-0
1042,7	-0
1043,2	-0,001
1043,6	-0,001
1044	-0,001
1044,4	-0,001
1044,8	-0,001
1045,2	-0,002
1045,6	-0,001
1046,1	-0
1046,5	0,001
1046,9	0,001
1047,3	0,001
1047,7	0
1048,1	0
1048,5	0
1049	-0
1049,4	-0
1049,8	-0
1050,2	0
1050,6	0
1051	0
1051,4	0
1051,9	0
1052,3	-0,001
1052,7	0
1053,1	0
1053,5	0
1053,9	0,001
1054,3	0
1054,8	0
1055,2	0,001
1055,6	0,001
1056	0
1056,4	-0
1056,8	-0,002
1057,2	-0,001
1057,6	-0,001
1058,1	-0,001
1058,5	-0,001
1058,9	-0,001
1059,3	-0,001
1059,7	-0
1060,1	0,001
1060,5	0,001
1061	0
1061,4	-0
1061,8	-0
1062,2	0
1062,6	0
1063	0
1063,4	-0
1063,8	-0
1064,3	0
1064,7	0,001
1065,1	-0,001
1065,5	-0
1065,9	-0,001
1066,3	-0
1066,7	-0
1067,1	-0,001
1067,6	-0,002
1068	0,001
1068,4	-0
1068,8	0
1069,2	-0,001
1069,6	0
1070	0
1070,4	-0
1070,9	-0,001
1071,3	-0,002
1071,7	-0,002
1072,1	-0,002
1072,5	-0,002
1072,9	-0,002
1073,3	-0,002
1073,7	-0,002
1074,2	-0,002
1074,6	-0
1075	-0,001
1075,4	-0,001
1075,8	-0,001
1076,2	-0
1076,6	-0
1077	0
1077,5	-0,001
1077,9	-0
1078,3	-0
1078,7	-0
1079,1	-0
1079,5	0,001
1079,9	0,001
1080,3	0,002
1080,7	0,001
1081,2	0,001
1081,6	0,003
1082	0,004
1082,4	0,003
1082,8	0,001
1083,2	0,003
1083,6	0,003
1084	0,001
1084,5	-0,001
1084,9	-0,001
1085,3	0,001
1085,7	0,002
1086,1	0,001
1086,5	0
1086,9	0,004
1087,3	0,005
1087,7	0,004
1088,2	0,005
1088,6	0,004
1089	0,003
1089,4	0,004
1089,8	0,002
1090,2	-0,002
1090,6	-0,002
1091	-0,003
1091,4	-0,002
1091,9	0,001
1092,3	0,002
1092,7	0,003
1093,1	0,009
1093,5	0,006
1093,9	0,003
1094,3	0,002
1094,7	0,002
1095,1	0,003
1095,5	0,003
1096	0,001
1096,4	0,007
1096,8	0,007
1097,2	0,008
1097,6	0,006
1098	0,006
1098,4	0,011
1098,8	0,009
1099,2	0,002
1099,6	0,003
1100,1	0,005
1100,5	-0,001
1100,9	-0,007
1101,3	-0,007
1101,7	-0,006
1102,1	-0,005
1102,5	-0,009
1102,9	-0,006
1103,3	0,005
1103,7	0,01
1104,2	0,012
1104,6	0,016
1105	0,017
1105,4	0,015
1105,8	0,013
1106,2	0,012
1106,6	0,009
1107	0,01
1107,4	-0,011
1107,8	0,008
1108,3	0,667
