Data from Absorbance_00005.txt Node
Date: Thu Aug 10 15:35:39 MSK 2023
User: vat
Spectrometer: MAYP114033
Trigger mode: 0
Integration Time (sec): 8,000000E-3
Scans to average: 10
Electric dark correction enabled: true
Nonlinearity correction enabled: false
Boxcar width: 3
XAxis mode: Wavelengths
Number of Pixels in Spectrum: 2068
>>>>>Begin Spectral Data<<<<<
199,4	-0
199,9	0,329
200,4	0,613
200,8	0,909
201,3	0,949
201,8	1,002
202,2	0,99
202,7	1,011
203,2	1,079
203,6	1,094
204,1	1,095
204,6	1,095
205	1,107
205,5	1,147
206	1,17
206,4	1,192
206,9	1,209
207,4	1,242
207,8	1,271
208,3	1,269
208,8	1,274
209,2	1,286
209,7	1,274
210,2	1,287
210,6	1,279
211,1	1,299
211,5	1,322
212	1,341
212,5	1,348
212,9	1,349
213,4	1,377
213,9	1,393
214,3	1,392
214,8	1,43
215,3	1,433
215,7	1,46
216,2	1,488
216,7	1,501
217,1	1,52
217,6	1,53
218,1	1,519
218,5	1,53
219	1,537
219,5	1,559
219,9	1,547
220,4	1,566
220,9	1,601
221,3	1,627
221,8	1,652
222,3	1,673
222,7	1,689
223,2	1,729
223,6	1,744
224,1	1,748
224,6	1,774
225	1,789
225,5	1,794
226	1,802
226,4	1,813
226,9	1,827
227,4	1,848
227,8	1,824
228,3	1,852
228,8	1,862
229,2	1,882
229,7	1,905
230,2	1,937
230,6	1,932
231,1	1,973
231,5	1,968
232	1,984
232,5	1,992
232,9	1,983
233,4	2,007
233,9	2,019
234,3	2,009
234,8	2,017
235,3	2,041
235,7	2,037
236,2	2,039
236,7	2,013
237,1	2,034
237,6	2,061
238,1	2,067
238,5	2,081
239	2,099
239,4	2,138
239,9	2,159
240,4	2,166
240,8	2,152
241,3	2,156
241,8	2,159
242,2	2,156
242,7	2,129
243,2	2,145
243,6	2,141
244,1	2,163
244,6	2,173
245	2,172
245,5	2,166
245,9	2,157
246,4	2,15
246,9	2,138
247,3	2,146
247,8	2,152
248,3	2,138
248,7	2,144
249,2	2,192
249,7	2,173
250,1	2,194
250,6	2,194
251	2,201
251,5	2,206
252	2,214
252,4	2,211
252,9	2,217
253,4	2,236
253,8	2,236
254,3	2,224
254,8	2,232
255,2	2,248
255,7	2,233
256,1	2,246
256,6	2,228
257,1	2,214
257,5	2,21
258	2,2
258,5	2,2
258,9	2,217
259,4	2,223
259,9	2,235
260,3	2,234
260,8	2,266
261,2	2,279
261,7	2,268
262,2	2,244
262,6	2,277
263,1	2,261
263,6	2,257
264	2,225
264,5	2,22
264,9	2,23
265,4	2,24
265,9	2,2
266,3	2,183
266,8	2,187
267,3	2,205
267,7	2,22
268,2	2,212
268,7	2,229
269,1	2,245
269,6	2,266
270	2,292
270,5	2,286
271	2,264
271,4	2,277
271,9	2,271
272,4	2,256
272,8	2,259
273,3	2,25
273,7	2,257
274,2	2,285
274,7	2,279
275,1	2,269
275,6	2,283
276,1	2,289
276,5	2,288
277	2,296
277,4	2,284
277,9	2,295
278,4	2,293
278,8	2,283
279,3	2,276
279,8	2,27
280,2	2,264
280,7	2,267
281,1	2,273
281,6	2,29
282,1	2,288
282,5	2,303
283	2,3
283,4	2,289
283,9	2,289
284,4	2,269
284,8	2,25
285,3	2,265
285,8	2,262
286,2	2,25
286,7	2,254
287,1	2,242
287,6	2,224
288,1	2,212
288,5	2,173
289	2,135
289,5	2,093
289,9	2,044
290,4	2,005
290,8	1,971
291,3	1,927
291,8	1,883
292,2	1,847
292,7	1,814
293,1	1,785
293,6	1,751
294,1	1,726
294,5	1,706
295	1,685
295,5	1,665
295,9	1,65
296,4	1,633
296,8	1,622
297,3	1,606
297,8	1,593
298,2	1,58
298,7	1,566
299,1	1,556
299,6	1,545
300,1	1,532
300,5	1,521
301	1,506
301,5	1,496
301,9	1,486
302,4	1,473
302,8	1,464
303,3	1,452
303,8	1,441
304,2	1,429
304,7	1,418
305,1	1,408
305,6	1,395
306,1	1,379
306,5	1,369
307	1,353
307,4	1,341
307,9	1,328
308,4	1,314
308,8	1,301
309,3	1,291
309,8	1,275
310,2	1,264
310,7	1,25
311,1	1,236
311,6	1,222
312,1	1,212
312,5	1,197
313	1,186
313,4	1,172
313,9	1,161
314,4	1,149
314,8	1,136
315,3	1,122
315,7	1,108
316,2	1,094
316,7	1,082
317,1	1,067
317,6	1,054
318	1,04
318,5	1,026
319	1,013
319,4	1
319,9	0,985
320,3	0,973
320,8	0,96
321,3	0,948
321,7	0,935
322,2	0,923
322,6	0,91
323,1	0,899
323,6	0,886
324	0,873
324,5	0,859
324,9	0,846
325,4	0,834
325,9	0,821
326,3	0,808
326,8	0,796
327,2	0,782
327,7	0,769
328,2	0,754
328,6	0,74
329,1	0,728
329,5	0,715
330	0,701
330,5	0,688
330,9	0,676
331,4	0,665
331,8	0,654
332,3	0,641
332,8	0,63
333,2	0,618
333,7	0,606
334,1	0,595
334,6	0,584
335,1	0,573
335,5	0,561
336	0,55
336,4	0,539
336,9	0,528
337,4	0,517
337,8	0,506
338,3	0,495
338,7	0,485
339,2	0,475
339,7	0,465
340,1	0,455
340,6	0,446
341	0,437
341,5	0,427
342	0,417
342,4	0,408
342,9	0,401
343,3	0,393
343,8	0,385
344,2	0,377
344,7	0,369
345,2	0,363
345,6	0,355
346,1	0,347
346,5	0,34
347	0,333
347,5	0,326
347,9	0,32
348,4	0,313
348,8	0,306
349,3	0,301
349,8	0,295
350,2	0,288
350,7	0,282
351,1	0,277
351,6	0,271
352	0,266
352,5	0,26
353	0,255
353,4	0,25
353,9	0,245
354,3	0,24
354,8	0,236
355,3	0,231
355,7	0,227
356,2	0,222
356,6	0,218
357,1	0,214
357,5	0,21
358	0,206
358,5	0,201
358,9	0,197
359,4	0,193
359,8	0,19
360,3	0,186
360,8	0,182
361,2	0,179
361,7	0,176
362,1	0,173
362,6	0,169
363	0,165
363,5	0,162
364	0,159
364,4	0,156
364,9	0,153
365,3	0,151
365,8	0,148
366,3	0,146
366,7	0,142
367,2	0,14
367,6	0,138
368,1	0,135
368,5	0,132
369	0,13
369,5	0,128
369,9	0,125
370,4	0,123
370,8	0,12
371,3	0,117
371,7	0,114
372,2	0,112
372,7	0,109
373,1	0,107
373,6	0,105
374	0,102
374,5	0,101
374,9	0,1
375,4	0,098
375,9	0,097
376,3	0,095
376,8	0,093
377,2	0,092
377,7	0,09
378,2	0,089
378,6	0,086
379,1	0,085
379,5	0,083
380	0,083
380,4	0,081
380,9	0,08
381,4	0,078
381,8	0,077
382,3	0,075
382,7	0,074
383,2	0,072
383,6	0,071
384,1	0,069
384,6	0,069
385	0,068
385,5	0,066
385,9	0,066
386,4	0,064
386,8	0,062
387,3	0,062
387,7	0,061
388,2	0,059
388,7	0,058
389,1	0,057
389,6	0,056
390	0,056
390,5	0,055
390,9	0,055
391,4	0,054
391,9	0,053
392,3	0,053
392,8	0,052
393,2	0,051
393,7	0,05
394,1	0,048
394,6	0,048
395,1	0,047
395,5	0,046
396	0,045
396,4	0,045
396,9	0,044
397,3	0,043
397,8	0,042
398,2	0,041
398,7	0,041
399,2	0,04
399,6	0,038
400,1	0,038
400,5	0,037
401	0,037
401,4	0,036
401,9	0,035
402,4	0,035
402,8	0,035
403,3	0,035
403,7	0,034
404,2	0,034
404,6	0,034
405,1	0,033
405,5	0,033
406	0,032
406,5	0,031
406,9	0,031
407,4	0,03
407,8	0,029
408,3	0,029
408,7	0,029
409,2	0,028
409,6	0,028
410,1	0,027
410,6	0,027
411	0,027
411,5	0,026
411,9	0,026
412,4	0,025
412,8	0,024
413,3	0,024
413,7	0,024
414,2	0,024
414,7	0,023
415,1	0,023
415,6	0,023
416	0,023
416,5	0,022
416,9	0,021
417,4	0,021
417,8	0,02
418,3	0,02
418,8	0,02
419,2	0,019
419,7	0,019
420,1	0,019
420,6	0,018
421	0,018
421,5	0,018
421,9	0,017
422,4	0,017
422,8	0,016
423,3	0,016
423,8	0,016
424,2	0,015
424,7	0,015
425,1	0,015
425,6	0,015
426	0,014
426,5	0,014
426,9	0,013
427,4	0,013
427,9	0,013
428,3	0,013
428,8	0,013
429,2	0,013
429,7	0,014
430,1	0,013
430,6	0,013
431	0,014
431,5	0,013
431,9	0,013
432,4	0,013
432,8	0,012
433,3	0,012
433,8	0,011
434,2	0,011
434,7	0,01
435,1	0,01
435,6	0,01
436	0,009
436,5	0,01
436,9	0,009
437,4	0,009
437,8	0,01
438,3	0,01
438,8	0,009
439,2	0,01
439,7	0,009
440,1	0,008
440,6	0,009
441	0,008
441,5	0,007
441,9	0,007
442,4	0,007
442,8	0,007
443,3	0,007
443,7	0,007
444,2	0,007
444,7	0,007
445,1	0,008
445,6	0,008
446	0,008
446,5	0,008
446,9	0,007
447,4	0,007
447,8	0,007
448,3	0,006
448,7	0,006
449,2	0,005
449,6	0,005
450,1	0,006
450,6	0,005
451	0,006
451,5	0,006
451,9	0,007
452,4	0,006
452,8	0,007
453,3	0,007
453,7	0,006
454,2	0,006
454,6	0,006
455,1	0,005
455,5	0,006
456	0,005
456,4	0,005
456,9	0,005
457,3	0,005
457,8	0,005
458,3	0,005
458,7	0,005
459,2	0,005
459,6	0,005
460,1	0,004
460,5	0,005
461	0,004
461,4	0,005
461,9	0,004
462,3	0,004
462,8	0,004
463,2	0,004
463,7	0,004
464,1	0,004
464,6	0,004
465	0,005
465,5	0,005
466	0,005
466,4	0,004
466,9	0,005
467,3	0,005
467,8	0,004
468,2	0,004
468,7	0,004
469,1	0,004
469,6	0,003
470	0,003
470,5	0,003
470,9	0,003
471,4	0,003
471,8	0,003
472,3	0,002
472,7	0,002
473,2	0,002
473,6	0,002
474,1	0,001
474,5	0,002
475	0,001
475,4	0,001
475,9	0,001
476,4	0,001
476,8	0,001
477,3	0,001
477,7	0,002
478,2	0,002
478,6	0,002
479,1	0,002
479,5	0,002
480	0,002
480,4	0,003
480,9	0,002
481,3	0,002
481,8	0,002
482,2	0,002
482,7	0,002
483,1	0,002
483,6	0,002
484	0,002
484,5	0,001
484,9	0,001
485,4	0,001
485,8	0,002
486,3	0
486,7	0
487,2	0,001
487,6	0,001
488,1	0,001
488,5	0,001
489	0,001
489,4	0,003
489,9	0,003
490,4	0,002
490,8	0,002
491,3	0,002
491,7	0,001
492,2	0,001
492,6	0,001
493,1	0,001
493,5	0,001
494	0,001
494,4	0,001
494,9	0,001
495,3	0,001
495,8	0,001
496,2	0
496,7	0,001
497,1	-0
497,6	0
498	-0
498,5	-0
498,9	0
499,4	0
499,8	-0
500,3	0
500,7	-0
501,2	-0,001
501,6	-0
502,1	-0
502,5	-0
503	-0
503,4	0,001
503,9	0,001
504,3	0,002
504,8	0,001
505,2	0,001
505,7	0,001
506,1	0,001
506,6	0
507	-0
507,5	-0
507,9	0
508,4	-0,001
508,8	-0,001
509,3	-0,001
509,7	-0,001
510,2	-0
510,6	-0
511,1	-0,001
511,5	-0,001
512	-0
512,4	0
512,9	0
513,3	0
513,8	0
514,2	0,001
514,7	0,001
515,1	0,001
515,6	0
516	0
516,5	-0
516,9	0
517,4	0
517,8	0
518,3	0
518,7	0
519,2	0
519,6	0
520,1	-0,001
520,5	-0,001
521	-0,001
521,4	-0
521,9	-0
522,3	-0
522,8	-0
523,2	0
523,7	0
524,1	-0
524,6	-0
525	-0,001
525,5	-0
525,9	-0
526,4	0
526,8	0
527,3	0
527,7	0,001
528,2	0
528,6	0
529,1	0,001
529,5	0
530	-0
530,4	0,001
530,9	0,001
531,3	0,001
531,8	0,001
532,2	0,001
532,6	0,001
533,1	0
533,5	0
534	-0
534,4	-0
534,9	0
535,3	-0
535,8	-0
536,2	-0
536,7	-0
537,1	-0
537,6	-0
538	-0
538,5	0
538,9	0,001
539,4	0
539,8	0
540,3	0
540,7	0
541,2	-0
541,6	-0,001
542,1	-0,001
542,5	-0,001
543	-0,001
543,4	-0,001
543,9	-0,001
544,3	-0,001
544,8	-0,001
545,2	-0,001
545,7	-0,001
546,1	-0
546,5	0
547	0,001
547,4	0
547,9	0
548,3	0,001
548,8	0,001
549,2	0,001
549,7	0
550,1	0
550,6	0
551	0
551,5	0,001
551,9	0,001
552,4	0,001
552,8	0,001
553,3	0,001
553,7	0,001
554,2	0,001
554,6	0
555,1	0,001
555,5	0
555,9	0
556,4	0
556,8	-0
557,3	-0
557,7	-0
558,2	-0
558,6	0
559,1	-0
559,5	0
560	0,001
560,4	0,001
560,9	0
561,3	-0
561,8	0
562,2	-0
562,7	-0
563,1	-0,001
563,6	-0,001
564	-0
564,4	-0
564,9	-0,001
565,3	-0,001
565,8	-0,001
566,2	-0,001
566,7	-0
567,1	0
567,6	-0,001
568	-0
568,5	-0,001
568,9	-0,001
569,4	-0,001
569,8	-0,002
570,3	-0,002
570,7	-0,002
571,1	-0,002
571,6	-0,001
572	-0,001
572,5	-0,001
572,9	0
573,4	-0
573,8	-0
574,3	-0
574,7	-0,001
575,2	-0
575,6	-0
576,1	-0
576,5	-0
576,9	0
577,4	-0
577,8	-0,001
578,3	-0,001
578,7	-0,001
579,2	-0,001
579,6	-0,001
580,1	-0,001
580,5	-0,001
581	-0
581,4	-0,001
581,9	-0,002
582,3	-0,002
582,7	-0,002
583,2	-0,001
583,6	-0,001
584,1	-0,001
584,5	-0
585	0
585,4	0
585,9	0
586,3	0
586,8	-0
587,2	0
587,6	-0
588,1	-0
588,5	-0
589	-0
589,4	-0
589,9	-0,001
590,3	-0,001
590,8	-0
591,2	-0
591,7	-0
592,1	0
592,5	-0
593	-0
593,4	-0
593,9	-0,001
594,3	-0,001
594,8	-0,001
595,2	-0,001
595,7	-0,001
596,1	-0,001
596,6	-0,001
597	-0
597,4	-0,001
597,9	-0,001
598,3	-0
598,8	-0
599,2	-0
599,7	-0,001
600,1	-0,001
600,6	-0
601	-0
601,4	-0
601,9	-0
602,3	0
602,8	0
603,2	-0
603,7	-0,001
604,1	-0,001
604,6	-0,001
605	-0
605,4	-0,001
605,9	-0,001
606,3	-0
606,8	-0
607,2	-0
607,7	-0
608,1	-0,001
608,6	-0,001
609	-0,001
609,4	-0,001
609,9	-0,001
610,3	-0,001
610,8	-0,001
611,2	-0,001
611,7	-0,001
612,1	-0,001
612,6	-0,001
613	-0,001
613,4	-0,001
613,9	-0,001
614,3	-0,001
614,8	-0,001
615,2	-0,001
615,7	-0,001
616,1	-0,001
616,6	-0,001
617	-0
617,4	-0,001
617,9	-0,001
618,3	-0,001
618,8	-0,001
619,2	-0,001
619,7	-0,001
620,1	-0,001
620,5	-0,001
621	0
621,4	-0
621,9	0
622,3	-0
622,8	-0
623,2	-0
623,6	-0,001
624,1	-0,001
624,5	-0,001
625	-0,001
625,4	-0,001
625,9	-0,002
626,3	-0,001
626,8	-0,001
627,2	-0
627,6	0
628,1	0
628,5	0,001
629	0,001
629,4	0
629,9	-0
630,3	-0
630,7	-0
631,2	-0
631,6	-0
632,1	-0,001
632,5	-0
633	-0
633,4	-0
633,8	-0
634,3	-0
634,7	-0
635,2	-0,001
635,6	-0,001
636,1	-0,001
636,5	-0
636,9	-0
637,4	-0
637,8	-0
638,3	0
638,7	-0
639,2	-0,001
639,6	-0,001
640	-0,001
640,5	-0,001
640,9	-0,001
641,4	-0,001
641,8	-0,001
642,2	-0,001
642,7	-0
643,1	-0,001
643,6	-0,001
644	-0,001
644,5	-0,001
644,9	-0,001
645,3	-0,001
645,8	-0,001
646,2	-0,001
646,7	-0,001
647,1	-0,001
647,6	-0,001
648	-0,002
648,4	-0,002
648,9	-0,002
649,3	-0,002
649,8	-0,002
650,2	-0,002
650,6	-0,002
651,1	-0,001
651,5	-0,001
652	-0,002
652,4	-0,002
652,9	-0,002
653,3	-0,002
653,7	-0,002
654,2	-0,002
654,6	-0,002
655,1	0
655,5	0
655,9	0
656,4	0
656,8	0,003
657,3	0,003
657,7	0,004
658,2	0,004
658,6	0,005
659	0,007
659,5	0,011
659,9	0,007
660,4	0,004
660,8	0,003
661,2	0,002
661,7	0,001
662,1	0,001
662,6	0
663	0,001
663,4	0
663,9	0
664,3	0
664,8	-0
665,2	-0
665,6	-0
666,1	-0
666,5	-0
667	-0,001
667,4	-0,001
667,9	-0,001
668,3	-0,001
668,7	-0,001
669,2	-0,001
669,6	-0,001
670,1	-0,001
670,5	-0,001
670,9	-0,001
671,4	-0,001
671,8	-0,001
672,3	-0,001
672,7	-0,001
673,1	-0,001
673,6	-0,001
674	-0,001
674,5	-0,001
674,9	-0,001
675,3	-0
675,8	-0
676,2	-0
676,7	-0,001
677,1	-0,001
677,5	-0,001
678	-0,001
678,4	-0,001
678,9	-0,001
679,3	-0,001
679,7	-0,001
680,2	-0,001
680,6	-0,001
681,1	-0
681,5	-0
681,9	-0
682,4	-0
682,8	0
683,3	0
683,7	0
684,1	-0
684,6	-0,001
685	-0,001
685,5	-0,001
685,9	-0,001
686,3	-0,001
686,8	-0,001
687,2	-0,001
687,7	-0,001
688,1	-0,001
688,5	-0,001
689	-0,001
689,4	-0,001
689,9	-0,001
690,3	-0,001
690,7	-0,001
691,2	-0,001
691,6	-0,001
692	-0,001
692,5	-0
692,9	-0,001
693,4	-0,001
693,8	-0
694,2	-0,001
694,7	-0,001
695,1	-0,001
695,6	-0,001
696	-0,001
696,4	-0
696,9	-0
697,3	-0
697,8	-0
698,2	-0,001
698,6	-0,001
699,1	-0,001
699,5	-0,001
699,9	-0,001
700,4	-0,001
700,8	-0,001
701,3	-0
701,7	0
702,1	0
702,6	-0
703	0
703,5	-0
703,9	-0
704,3	-0
704,8	0
705,2	0
705,6	0
706,1	0
706,5	0
707	0
707,4	-0,001
707,8	-0,001
708,3	-0,001
708,7	-0,001
709,2	-0,001
709,6	-0,001
710	-0,001
710,5	-0
710,9	-0
711,3	-0
711,8	-0
712,2	0
712,7	-0
713,1	-0
713,5	-0
714	-0
714,4	-0,001
714,8	-0,001
715,3	-0,001
715,7	-0,001
716,2	-0,001
716,6	-0,001
717	-0,001
717,5	-0,001
717,9	-0,001
718,3	-0,001
718,8	-0
719,2	-0
719,7	-0
720,1	0
720,5	-0
721	-0
721,4	-0
721,8	-0
722,3	-0,001
722,7	-0,001
723,2	-0,001
723,6	-0,001
724	-0,001
724,5	-0,001
724,9	-0,002
725,3	-0,002
725,8	-0,001
726,2	-0,001
726,7	-0,001
727,1	-0,001
727,5	-0,001
728	-0,001
728,4	-0,001
728,8	-0
729,3	-0
729,7	-0
730,1	-0,001
730,6	-0,001
731	-0,001
731,5	-0
731,9	-0,001
732,3	-0,001
732,8	-0,001
733,2	-0,001
733,6	-0
734,1	-0,001
734,5	-0,001
734,9	-0,001
735,4	-0,001
735,8	-0,001
736,3	-0,001
736,7	-0,001
737,1	-0
737,6	-0
738	-0
738,4	-0
738,9	0
739,3	0
739,7	0
740,2	0
740,6	0
741,1	0
741,5	0
741,9	-0
742,4	-0
742,8	-0
743,2	-0
743,7	-0
744,1	-0
744,5	-0
745	-0
745,4	-0,001
745,8	-0
746,3	-0
746,7	-0
747,2	-0,001
747,6	-0,001
748	-0,001
748,5	-0,001
748,9	-0,001
749,3	-0,001
749,8	-0,001
750,2	-0,001
750,6	-0,001
751,1	-0,001
751,5	-0,001
751,9	-0,001
752,4	-0,001
752,8	-0,001
753,3	-0,001
753,7	-0,001
754,1	-0,001
754,6	-0,001
755	-0
755,4	-0
755,9	-0,001
756,3	-0,001
756,7	-0,001
757,2	-0,001
757,6	-0,001
758	-0,001
758,5	-0,002
758,9	-0,002
759,3	-0,002
759,8	-0,001
760,2	-0,002
760,6	-0,002
761,1	-0,002
761,5	-0,001
761,9	-0,001
762,4	-0,001
762,8	-0,001
763,3	-0,001
763,7	-0,001
764,1	-0,001
764,6	-0,001
765	-0,001
765,4	-0,001
765,9	-0,001
766,3	-0,001
766,7	-0,001
767,2	-0,001
767,6	-0,001
768	-0,001
768,5	-0,001
768,9	-0,001
769,3	-0,002
769,8	-0,002
770,2	-0,002
770,6	-0,002
771,1	-0,002
771,5	-0,002
771,9	-0,002
772,4	-0,002
772,8	-0,002
773,2	-0,002
773,7	-0,001
774,1	-0,001
774,5	-0,001
775	-0,001
775,4	-0,001
775,8	-0,001
776,3	-0,001
776,7	-0,001
777,1	-0
777,6	-0,001
778	-0,001
778,4	-0
778,9	-0
779,3	-0
779,7	-0,001
780,2	-0,001
780,6	-0,001
781	-0,001
781,5	-0,001
781,9	-0,001
782,3	-0,001
782,8	-0,001
783,2	-0,001
783,6	-0,001
784,1	-0,001
784,5	-0,001
784,9	-0,001
785,4	-0,001
785,8	-0
786,2	-0,001
786,7	-0
787,1	-0
787,5	-0
788	-0
788,4	-0,001
788,8	-0,001
789,3	-0,001
789,7	-0,001
790,1	-0,001
790,6	-0,002
791	-0,002
791,4	-0,001
791,9	-0,001
792,3	-0
792,7	-0,001
793,2	-0
793,6	0
794	0
794,5	-0
794,9	-0
795,3	-0
795,8	-0
796,2	0
796,6	-0
797,1	-0
797,5	-0
797,9	-0,001
798,4	-0,001
798,8	-0,001
799,2	-0,001
799,7	-0,002
800,1	-0,001
800,5	-0,001
801	-0,001
801,4	-0,001
801,8	-0,001
802,2	-0
802,7	-0
803,1	-0
803,5	-0
804	-0
804,4	-0
804,8	-0,001
805,3	-0,001
805,7	-0
806,1	0
806,6	0
807	0
807,4	0
807,9	0
808,3	-0
808,7	-0
809,2	-0,001
809,6	-0,001
810	-0,001
810,4	-0,001
810,9	-0,001
811,3	-0
811,7	-0
812,2	0
812,6	0
813	0
813,5	0,001
813,9	0
814,3	0
814,8	0,001
815,2	0
815,6	0
816,1	-0
816,5	-0,001
816,9	-0,001
817,3	-0,001
817,8	-0,002
818,2	-0,002
818,6	-0,002
819,1	-0,002
819,5	-0,002
819,9	-0,001
820,4	-0,001
820,8	-0,001
821,2	-0,001
821,7	-0,001
822,1	-0,001
822,5	-0,001
822,9	-0,001
823,4	-0,001
823,8	-0,001
824,2	-0,001
824,7	-0,001
825,1	-0,001
825,5	-0,001
826	-0
826,4	-0
826,8	-0
827,3	0
827,7	-0
828,1	0
828,5	0
829	-0
829,4	-0
829,8	-0
830,3	-0,001
830,7	-0,001
831,1	-0,001
831,6	-0,001
832	-0,001
832,4	-0,002
832,8	-0,002
833,3	-0,001
833,7	-0,001
834,1	-0,001
834,6	-0,002
835	-0,001
835,4	-0,001
835,8	-0,001
836,3	-0,001
836,7	-0,001
837,1	-0,001
837,6	-0,001
838	-0,001
838,4	-0,002
838,9	-0,001
839,3	-0,001
839,7	-0,001
840,1	-0,001
840,6	-0,001
841	-0,001
841,4	-0
841,9	-0,001
842,3	-0,001
842,7	-0,001
843,1	-0,001
843,6	-0,001
844	-0,001
844,4	-0,002
844,9	-0,001
845,3	-0,001
845,7	-0,001
846,2	-0,001
846,6	-0,001
847	-0,001
847,4	-0
847,9	-0,001
848,3	-0
848,7	-0
849,2	-0
849,6	-0
850	-0
850,4	-0
850,9	-0
851,3	-0
851,7	-0
852,2	0
852,6	0
853	0
853,4	0
853,9	0
854,3	-0
854,7	0
855,2	0
855,6	-0
856	-0
856,4	-0
856,9	-0,001
857,3	-0,001
857,7	-0,001
858,2	-0,001
858,6	-0,002
859	-0,002
859,4	-0,002
859,9	-0,001
860,3	-0,002
860,7	-0,002
861,1	-0,001
861,6	-0,001
862	-0,001
862,4	-0
862,9	-0
863,3	0
863,7	0
864,1	0
864,6	0
865	0
865,4	0,001
865,9	0,001
866,3	0,001
866,7	0,001
867,1	0
867,6	0
868	-0
868,4	-0,001
868,8	-0,001
869,3	-0,001
869,7	-0,001
870,1	-0,001
870,6	-0,001
871	-0,001
871,4	-0
871,8	-0
872,3	0
872,7	-0
873,1	0
873,5	0
874	-0
874,4	-0
874,8	-0
875,3	-0
875,7	0
876,1	-0
876,5	-0
877	0
877,4	0
877,8	0
878,2	-0
878,7	-0,001
879,1	-0,001
879,5	-0,001
879,9	-0,001
880,4	-0,001
880,8	-0,001
881,2	-0,001
881,7	-0,001
882,1	-0
882,5	-0
882,9	-0,001
883,4	-0,001
883,8	-0,001
884,2	-0,001
884,6	-0
885,1	-0,001
885,5	-0,001
885,9	-0,001
886,3	-0,001
886,8	-0,001
887,2	-0,001
887,6	-0,001
888	-0,001
888,5	-0,001
888,9	-0
889,3	-0
889,8	-0
890,2	-0
890,6	-0
891	-0
891,5	-0,001
891,9	-0,001
892,3	-0,001
892,7	-0
893,2	-0,001
893,6	-0,001
894	-0,001
894,4	-0,001
894,9	-0,001
895,3	-0,001
895,7	-0,001
896,1	-0,001
896,6	-0,001
897	-0,001
897,4	-0,001
897,8	-0,001
898,3	-0,002
898,7	-0,002
899,1	-0,002
899,5	-0,001
900	-0,001
900,4	-0,001
900,8	-0,001
901,2	-0
901,7	-0,001
902,1	-0,001
902,5	-0,001
902,9	-0,001
903,4	-0
903,8	-0
904,2	-0
904,6	-0
905,1	-0
905,5	-0,001
905,9	-0,001
906,3	-0,001
906,8	-0,002
907,2	-0,002
907,6	-0,002
908	-0,002
908,5	-0,002
908,9	-0,002
909,3	-0,002
909,7	-0,002
910,2	-0,001
910,6	-0,001
911	-0,001
911,4	-0,002
911,9	-0,001
912,3	-0,001
912,7	-0,001
913,1	-0,001
913,6	-0,001
914	-0,001
914,4	-0,001
914,8	-0,001
915,3	-0,002
915,7	-0,002
916,1	-0,002
916,5	-0,002
916,9	-0,002
917,4	-0,002
917,8	-0,002
918,2	-0,002
918,6	-0,002
919,1	-0,001
919,5	-0,001
919,9	-0,001
920,3	-0,001
920,8	-0,001
921,2	-0,001
921,6	-0,001
922	-0,001
922,5	-0,001
922,9	-0,002
923,3	-0,002
923,7	-0,002
924,2	-0,002
924,6	-0,002
925	-0,003
925,4	-0,003
925,8	-0,002
926,3	-0,002
926,7	-0,002
927,1	-0,002
927,5	-0,002
928	-0,001
928,4	-0,001
928,8	-0,001
929,2	-0,001
929,7	-0
930,1	0
930,5	-0
930,9	-0
931,3	-0
931,8	-0
932,2	-0,001
932,6	-0,001
933	-0,001
933,5	-0,001
933,9	-0,001
934,3	-0,001
934,7	-0,001
935,2	-0,001
935,6	-0,001
936	-0,001
936,4	-0,002
936,8	-0,002
937,3	-0,002
937,7	-0,002
938,1	-0,001
938,5	-0,001
939	-0,001
939,4	-0,001
939,8	-0,001
940,2	0
940,6	-0
941,1	-0
941,5	0
941,9	0
942,3	0,001
942,8	0,001
943,2	0,001
943,6	0,001
944	-0
944,4	-0
944,9	-0,001
945,3	-0,001
945,7	-0,002
946,1	-0,002
946,6	-0,002
947	-0,002
947,4	-0,002
947,8	-0,002
948,2	-0,002
948,7	-0,002
949,1	-0,002
949,5	-0,002
949,9	-0,002
950,3	-0,002
950,8	-0,002
951,2	-0,002
951,6	-0,002
952	-0,002
952,5	-0,002
952,9	-0,001
953,3	-0,001
953,7	-0,001
954,1	-0,001
954,6	-0
955	-0,001
955,4	-0,001
955,8	-0,001
956,2	-0,001
956,7	-0,001
957,1	-0
957,5	0
957,9	0,001
958,3	0
958,8	0,001
959,2	0,001
959,6	0
960	-0
960,5	-0,001
960,9	-0,001
961,3	-0,001
961,7	-0,002
962,1	-0,002
962,6	-0,001
963	-0,001
963,4	-0,001
963,8	-0,001
964,2	-0
964,7	0
965,1	0
965,5	0
965,9	-0
966,3	0
966,8	0
967,2	0
967,6	-0
968	-0
968,4	-0
968,9	0
969,3	-0
969,7	0
970,1	-0
970,5	-0
971	0
971,4	-0
971,8	-0
972,2	-0
972,6	-0,001
973,1	-0,001
973,5	-0,001
973,9	-0,001
974,3	-0,001
974,7	-0
975,2	-0
975,6	0
976	0
976,4	0,001
976,8	0,001
977,3	0
977,7	-0
978,1	0
978,5	0
978,9	0,001
979,4	0
979,8	0
980,2	0
980,6	0,001
981	0
981,5	-0
981,9	-0
982,3	0
982,7	0,001
983,1	0
983,6	-0
984	-0
984,4	-0
984,8	-0
985,2	-0,001
985,6	-0,001
986,1	-0,001
986,5	-0
986,9	0
987,3	0,001
987,7	0,001
988,2	0,001
988,6	0,001
989	0,001
989,4	0,001
989,8	0,001
990,3	0
990,7	0
991,1	0
991,5	0,001
991,9	0,001
992,3	-0
992,8	-0
993,2	-0
993,6	-0
994	-0,001
994,4	-0,001
994,9	-0,001
995,3	-0,001
995,7	-0
996,1	-0
996,5	-0
996,9	0
997,4	-0
997,8	-0
998,2	-0
998,6	-0
999	-0,001
999,5	-0,001
999,9	-0,001
1000,3	-0,001
1000,7	-0,002
1001,1	-0,002
1001,5	-0,003
1002	-0,002
1002,4	-0,003
1002,8	-0,003
1003,2	-0,004
1003,6	-0,004
1004	-0,004
1004,5	-0,003
1004,9	-0,003
1005,3	-0,003
1005,7	-0,002
1006,1	-0,002
1006,6	-0,001
1007	-0,001
1007,4	-0,001
1007,8	-0,002
1008,2	-0,001
1008,6	-0,002
1009,1	-0,002
1009,5	-0,002
1009,9	-0,001
1010,3	-0,001
1010,7	-0,001
1011,1	-0,001
1011,6	-0
1012	0
1012,4	0
1012,8	-0
1013,2	-0
1013,6	-0,001
1014,1	-0,001
1014,5	-0,001
1014,9	-0,001
1015,3	-0,001
1015,7	-0,001
1016,1	-0
1016,6	0
1017	0
1017,4	0
1017,8	-0,001
1018,2	-0,001
1018,6	-0
1019,1	-0,001
1019,5	-0,001
1019,9	-0,001
1020,3	-0,001
1020,7	-0,001
1021,1	-0
1021,6	-0,001
1022	-0,001
1022,4	-0,002
1022,8	-0,002
1023,2	-0,002
1023,6	-0,002
1024,1	-0,002
1024,5	-0,002
1024,9	-0,002
1025,3	-0,002
1025,7	-0,002
1026,1	-0,001
1026,6	-0,001
1027	-0,001
1027,4	-0,001
1027,8	-0,002
1028,2	-0,002
1028,6	-0,002
1029	-0,003
1029,5	-0,003
1029,9	-0,003
1030,3	-0,004
1030,7	-0,003
1031,1	-0,004
1031,5	-0,004
1032	-0,004
1032,4	-0,004
1032,8	-0,004
1033,2	-0,003
1033,6	-0,003
1034	-0,003
1034,4	-0,003
1034,9	-0,003
1035,3	-0,002
1035,7	-0,002
1036,1	-0,002
1036,5	-0,003
1036,9	-0,002
1037,4	-0,001
1037,8	-0,001
1038,2	-0,001
1038,6	-0
1039	-0
1039,4	-0
1039,8	-0,001
1040,3	-0,001
1040,7	-0,001
1041,1	-0,001
1041,5	-0,001
1041,9	-0,001
1042,3	-0,002
1042,7	-0,001
1043,2	-0,001
1043,6	-0,001
1044	-0,001
1044,4	-0
1044,8	-0
1045,2	0
1045,6	0
1046,1	-0
1046,5	0
1046,9	0
1047,3	-0
1047,7	-0
1048,1	0
1048,5	-0
1049	-0
1049,4	-0
1049,8	0
1050,2	0
1050,6	0,001
1051	0,001
1051,4	0,001
1051,9	-0
1052,3	-0,001
1052,7	-0,002
1053,1	-0,002
1053,5	-0,004
1053,9	-0,003
1054,3	-0,002
1054,8	-0,001
1055,2	-0,001
1055,6	-0,001
1056	-0,001
1056,4	-0,001
1056,8	-0,001
1057,2	-0,001
1057,6	-0,002
1058,1	-0,002
1058,5	-0,003
1058,9	-0,002
1059,3	-0,002
1059,7	-0,002
1060,1	-0,003
1060,5	-0,003
1061	-0,003
1061,4	-0,003
1061,8	-0,003
1062,2	-0,003
1062,6	-0,002
1063	-0
1063,4	-0
1063,8	-0,001
1064,3	0,001
1064,7	0,001
1065,1	0,001
1065,5	-0
1065,9	-0,001
1066,3	-0,001
1066,7	-0,001
1067,1	-0,002
1067,6	-0,001
1068	0
1068,4	0,001
1068,8	-0
1069,2	0
1069,6	0
1070	0,001
1070,4	-0,001
1070,9	-0,002
1071,3	-0,003
1071,7	-0,001
1072,1	0
1072,5	-0
1072,9	-0
1073,3	-0
1073,7	-0,001
1074,2	-0,001
1074,6	-0,002
1075	-0,003
1075,4	-0,003
1075,8	-0,003
1076,2	-0,003
1076,6	-0,003
1077	-0,002
1077,5	-0,002
1077,9	-0,003
1078,3	-0,002
1078,7	-0,003
1079,1	-0,003
1079,5	-0,002
1079,9	-0,002
1080,3	-0,003
1080,7	-0,002
1081,2	-0,003
1081,6	-0,003
1082	-0,001
1082,4	-0,002
1082,8	-0,002
1083,2	-0,001
1083,6	-0,002
1084	-0,001
1084,5	-0,001
1084,9	-0,002
1085,3	-0,001
1085,7	-0,001
1086,1	-0,002
1086,5	-0,003
1086,9	-0,002
1087,3	-0,002
1087,7	-0
1088,2	0
1088,6	0,001
1089	0,004
1089,4	0,008
1089,8	0,006
1090,2	0,005
1090,6	0,004
1091	0,002
1091,4	0,003
1091,9	0,003
1092,3	0,003
1092,7	0,008
1093,1	0,008
1093,5	0,011
1093,9	0,016
1094,3	0,02
1094,7	0,018
1095,1	0,018
1095,5	0,012
1096	0,011
1096,4	0,007
1096,8	0,006
1097,2	0,005
1097,6	0,006
1098	0,004
1098,4	0,011
1098,8	0,017
1099,2	0,017
1099,6	0,012
1100,1	0,005
1100,5	0,004
1100,9	-0,001
1101,3	-0,008
1101,7	-0,009
1102,1	-0,013
1102,5	-0,01
1102,9	-0,011
1103,3	-0,008
1103,7	0,004
1104,2	0,003
1104,6	-0,002
1105	0,002
1105,4	0,01
1105,8	0,015
1106,2	0,012
1106,6	0,006
1107	0,011
1107,4	0,021
1107,8	0,059
1108,3	0,903
