Data from Subt2_00009.txt Node
Date: Fri Jul 14 15:02:37 MSK 2023
User: vat
Spectrometer: MAYP114033
Trigger mode: 0
Integration Time (sec): 5,000000E-1
Scans to average: 5
Electric dark correction enabled: true
Nonlinearity correction enabled: false
Boxcar width: 0
XAxis mode: Wavelengths
Number of Pixels in Spectrum: 2068
>>>>>Begin Spectral Data<<<<<
199,4	2,967
199,9	-2,033
200,4	0,567
200,8	0,167
201,3	24,967
201,8	49,367
202,2	40,567
202,7	34,967
203,2	52,567
203,6	39,167
204,1	46,567
204,6	45,567
205	53,367
205,5	53,167
206	36,767
206,4	57,167
206,9	43,767
207,4	53,167
207,8	61,967
208,3	57,767
208,8	74,767
209,2	52,767
209,7	50,567
210,2	70,967
210,6	79,967
211,1	63,167
211,5	43,767
212	54,767
212,5	92,567
212,9	61,167
213,4	63,367
213,9	65,367
214,3	39,367
214,8	58,367
215,3	52,167
215,7	74,367
216,2	50,967
216,7	76,767
217,1	74,967
217,6	70,967
218,1	68,567
218,5	61,167
219	61,767
219,5	55,767
219,9	72,967
220,4	69,167
220,9	90,167
221,3	66,767
221,8	87,567
222,3	67,167
222,7	82,167
223,2	76,767
223,6	80,367
224,1	47,567
224,6	74,567
225	66,167
225,5	64,167
226	91,567
226,4	42,767
226,9	49,167
227,4	57,567
227,8	85,167
228,3	70,767
228,8	79,367
229,2	77,967
229,7	63,767
230,2	70,767
230,6	90,367
231,1	61,767
231,5	76,167
232	92,167
232,5	82,567
232,9	75,967
233,4	97,367
233,9	82,567
234,3	73,167
234,8	68,167
235,3	88,567
235,7	73,967
236,2	59,167
236,7	94,567
237,1	69,967
237,6	78,567
238,1	53,967
238,5	66,767
239	78,167
239,4	58,567
239,9	68,767
240,4	77,167
240,8	55,167
241,3	66,367
241,8	73,167
242,2	74,767
242,7	79,367
243,2	80,367
243,6	79,767
244,1	77,367
244,6	89,367
245	63,367
245,5	69,167
245,9	88,767
246,4	49,167
246,9	80,367
247,3	63,967
247,8	62,367
248,3	76,767
248,7	69,967
249,2	69,167
249,7	67,767
250,1	58,367
250,6	66,367
251	57,567
251,5	73,367
252	63,967
252,4	75,367
252,9	75,567
253,4	58,567
253,8	64,967
254,3	83,967
254,8	61,567
255,2	89,767
255,7	58,367
256,1	80,967
256,6	85,567
257,1	83,567
257,5	67,767
258	79,967
258,5	83,967
258,9	79,767
259,4	70,767
259,9	83,567
260,3	89,167
260,8	93,767
261,2	115,567
261,7	69,567
262,2	65,967
262,6	69,167
263,1	87,367
263,6	59,167
264	54,567
264,5	67,967
264,9	91,967
265,4	77,767
265,9	74,567
266,3	89,367
266,8	60,167
267,3	51,767
267,7	60,567
268,2	78,167
268,7	57,367
269,1	89,167
269,6	49,167
270	77,567
270,5	79,167
271	54,967
271,4	74,567
271,9	96,167
272,4	51,767
272,8	95,167
273,3	73,167
273,7	59,367
274,2	84,367
274,7	78,767
275,1	77,767
275,6	74,167
276,1	83,567
276,5	63,967
277	54,567
277,4	70,567
277,9	60,967
278,4	61,767
278,8	70,767
279,3	73,767
279,8	68,967
280,2	70,367
280,7	74,767
281,1	60,367
281,6	72,167
282,1	73,767
282,5	83,567
283	78,367
283,4	60,567
283,9	41,367
284,4	65,367
284,8	73,567
285,3	56,567
285,8	64,367
286,2	47,967
286,7	68,567
287,1	62,767
287,6	64,767
288,1	94,967
288,5	65,767
289	96,367
289,5	58,767
289,9	58,567
290,4	56,767
290,8	76,567
291,3	62,367
291,8	79,767
292,2	61,567
292,7	54,767
293,1	70,567
293,6	56,767
294,1	79,967
294,5	81,967
295	92,167
295,5	57,767
295,9	76,567
296,4	46,367
296,8	56,567
297,3	79,767
297,8	82,367
298,2	57,167
298,7	82,767
299,1	82,367
299,6	83,767
300,1	54,167
300,5	58,367
301	61,367
301,5	64,167
301,9	72,567
302,4	79,967
302,8	88,367
303,3	68,567
303,8	62,167
304,2	48,367
304,7	74,167
305,1	77,767
305,6	61,567
306,1	74,567
306,5	58,167
307	73,967
307,4	103,967
307,9	76,367
308,4	54,767
308,8	58,167
309,3	69,367
309,8	69,367
310,2	63,167
310,7	86,967
311,1	77,367
311,6	56,967
312,1	70,167
312,5	69,567
313	77,367
313,4	56,767
313,9	84,567
314,4	99,167
314,8	68,767
315,3	66,367
315,7	105,567
316,2	71,567
316,7	69,967
317,1	72,367
317,6	75,567
318	69,767
318,5	76,367
319	77,967
319,4	58,767
319,9	92,367
320,3	70,767
320,8	106,567
321,3	91,567
321,7	83,167
322,2	89,367
322,6	71,167
323,1	67,967
323,6	74,567
324	66,767
324,5	70,767
324,9	70,767
325,4	69,967
325,9	90,567
326,3	70,367
326,8	69,767
327,2	89,767
327,7	105,567
328,2	75,567
328,6	92,167
329,1	84,967
329,5	87,967
330	95,367
330,5	68,567
330,9	76,567
331,4	63,367
331,8	76,967
332,3	66,967
332,8	71,167
333,2	74,167
333,7	68,167
334,1	47,567
334,6	70,767
335,1	41,567
335,5	76,767
336	60,967
336,4	63,167
336,9	69,567
337,4	80,567
337,8	75,167
338,3	69,167
338,7	81,367
339,2	77,567
339,7	91,367
340,1	86,567
340,6	80,767
341	98,767
341,5	77,167
342	79,367
342,4	73,567
342,9	73,567
343,3	88,567
343,8	62,967
344,2	100,367
344,7	50,367
345,2	56,967
345,6	77,567
346,1	76,967
346,5	84,767
347	89,167
347,5	91,967
347,9	100,367
348,4	74,167
348,8	86,967
349,3	66,767
349,8	71,967
350,2	77,367
350,7	80,167
351,1	78,767
351,6	78,367
352	87,367
352,5	91,167
353	88,167
353,4	90,167
353,9	109,167
354,3	110,567
354,8	89,167
355,3	105,767
355,7	92,767
356,2	92,567
356,6	98,967
357,1	89,167
357,5	126,567
358	116,167
358,5	130,567
358,9	142,567
359,4	160,367
359,8	156,567
360,3	185,767
360,8	161,367
361,2	205,567
361,7	228,767
362,1	241,367
362,6	251,767
363	321,167
363,5	333,967
364	370,767
364,4	397,967
364,9	421,767
365,3	454,567
365,8	472,167
366,3	514,167
366,7	519,167
367,2	574,367
367,6	582,567
368,1	607,167
368,5	630,967
369	612,367
369,5	615,567
369,9	642,367
370,4	628,167
370,8	606,967
371,3	598,567
371,7	587,367
372,2	574,367
372,7	593,967
373,1	557,567
373,6	515,567
374	525,567
374,5	513,767
374,9	500,167
375,4	465,367
375,9	452,567
376,3	447,767
376,8	443,967
377,2	443,167
377,7	448,167
378,2	457,167
378,6	459,367
379,1	455,967
379,5	473,567
380	481,967
380,4	501,367
380,9	519,767
381,4	507,767
381,8	577,767
382,3	552,167
382,7	603,367
383,2	642,167
383,6	664,167
384,1	710,967
384,6	747,367
385	798,167
385,5	820,367
385,9	896,167
386,4	934,767
386,8	1021,367
387,3	1067,767
387,7	1129,567
388,2	1202,167
388,7	1294,367
389,1	1368,767
389,6	1450,767
390	1569,767
390,5	1622,367
390,9	1712,767
391,4	1797,767
391,9	1937,767
392,3	2045,167
392,8	2178,167
393,2	2294,367
393,7	2418,967
394,1	2549,167
394,6	2716,767
395,1	2871,167
395,5	3006,767
396	3166,167
396,4	3349,367
396,9	3493,567
397,3	3686,967
397,8	3852,567
398,2	4073,767
398,7	4258,767
399,2	4482,967
399,6	4661,567
400,1	4899,367
400,5	5145,567
401	5360,967
401,4	5616,967
401,9	5858,167
402,4	6119,967
402,8	6343,367
403,3	6596,967
403,7	6969,967
404,2	7178,167
404,6	7445,567
405,1	7757,567
405,5	8073,767
406	8366,167
406,5	8669,967
406,9	9005,367
407,4	9316,767
407,8	9650,767
408,3	10008,167
408,7	10351,367
409,2	10710,567
409,6	11098,567
410,1	11492,567
410,6	11778,967
411	12174,967
411,5	12576,367
411,9	12954,367
412,4	13350,167
412,8	13707,767
413,3	14214,567
413,7	14506,967
414,2	14940,167
414,7	15324,367
415,1	15790,767
415,6	16228,767
416	16642,767
416,5	17076,967
416,9	17458,367
417,4	17887,767
417,8	18411,167
418,3	18785,167
418,8	19181,167
419,2	19736,767
419,7	20192,567
420,1	20594,367
420,6	21065,967
421	21517,767
421,5	21921,767
421,9	22345,367
422,4	22897,367
422,8	23386,767
423,3	23778,167
423,8	24156,167
424,2	24642,367
424,7	25102,767
425,1	25501,367
425,6	26035,967
426	26461,367
426,5	26843,567
426,9	27295,967
427,4	27764,567
427,9	28198,167
428,3	28735,567
428,8	29129,767
429,2	29559,767
429,7	29920,567
430,1	30399,367
430,6	30861,367
431	31355,167
431,5	31773,967
431,9	32120,967
432,4	32546,967
432,8	33042,967
433,3	33383,967
433,8	33897,967
434,2	34198,967
434,7	34733,767
435,1	35107,567
435,6	35544,167
436	35879,167
436,5	36250,167
436,9	36716,167
437,4	37040,767
437,8	37370,567
438,3	37777,367
438,8	38030,567
439,2	38498,767
439,7	38827,767
440,1	39211,967
440,6	39488,767
441	39859,367
441,5	40085,967
441,9	40465,967
442,4	40676,367
442,8	41044,167
443,3	41316,167
443,7	41607,567
444,2	41969,767
444,7	42200,367
445,1	42332,967
445,6	42676,167
446	42907,767
446,5	43138,167
446,9	43430,567
447,4	43578,767
447,8	43721,567
448,3	44036,967
448,7	44222,367
449,2	44399,767
449,6	44512,967
450,1	44653,767
450,6	44844,367
451	45004,167
451,5	45208,567
451,9	45194,167
452,4	45408,967
452,8	45488,367
453,3	45668,567
453,7	45784,567
454,2	45862,967
454,6	45906,567
455,1	46094,167
455,5	46032,367
456	46086,367
456,4	46219,567
456,9	46183,167
457,3	46218,567
457,8	46341,767
458,3	46434,767
458,7	46474,967
459,2	46480,167
459,6	46471,567
460,1	46438,167
460,5	46579,767
461	46476,167
461,4	46429,967
461,9	46489,367
462,3	46457,767
462,8	46446,767
463,2	46399,767
463,7	46244,367
464,1	46280,767
464,6	46124,967
465	46181,967
465,5	46062,367
466	45964,367
466,4	45918,367
466,9	45832,167
467,3	45614,967
467,8	45481,767
468,2	45495,367
468,7	45319,767
469,1	45267,167
469,6	45147,567
470	45072,367
470,5	44881,367
470,9	44817,767
471,4	44615,967
471,8	44452,367
472,3	44383,167
472,7	44204,967
473,2	44000,967
473,6	43921,167
474,1	43729,767
474,5	43555,967
475	43340,967
475,4	43215,567
475,9	43014,367
476,4	42828,167
476,8	42777,767
477,3	42410,167
477,7	42324,567
478,2	42147,167
478,6	41993,967
479,1	41807,167
479,5	41562,967
480	41314,367
480,4	41049,767
480,9	40878,967
481,3	40622,967
481,8	40391,367
482,2	40300,167
482,7	40040,767
483,1	39822,367
483,6	39558,567
484	39274,167
484,5	39166,367
484,9	38851,967
485,4	38631,367
485,8	38472,767
486,3	38087,567
486,7	37721,767
487,2	37585,967
487,6	37284,567
488,1	37072,967
488,5	36906,967
489	36551,167
489,4	36358,767
489,9	36133,567
490,4	35898,367
490,8	35561,767
491,3	35351,167
491,7	35039,967
492,2	34819,967
492,6	34496,967
493,1	34182,567
493,5	33949,367
494	33616,567
494,4	33426,367
494,9	33175,167
495,3	32941,967
495,8	32758,767
496,2	32432,567
496,7	32055,367
497,1	31909,767
497,6	31667,967
498	31456,767
498,5	31129,367
498,9	30917,567
499,4	30726,767
499,8	30412,767
500,3	30241,367
500,7	29914,567
501,2	29720,967
501,6	29371,567
502,1	29238,967
502,5	28951,167
503	28788,967
503,4	28458,367
503,9	28304,367
504,3	28031,567
504,8	27735,367
505,2	27617,367
505,7	27319,967
506,1	27021,567
506,6	26851,767
507	26625,567
507,5	26355,767
507,9	26062,167
508,4	25876,967
508,8	25702,967
509,3	25559,567
509,7	25246,567
510,2	24971,167
510,6	24783,167
511,1	24563,767
511,5	24277,167
512	24075,967
512,4	23827,167
512,9	23628,967
513,3	23419,367
513,8	23193,167
514,2	22949,167
514,7	22746,967
515,1	22474,567
515,6	22317,967
516	22055,167
516,5	21869,967
516,9	21596,967
517,4	21401,967
517,8	21194,167
518,3	21019,367
518,7	20749,767
519,2	20510,967
519,6	20371,767
520,1	20070,967
520,5	19992,567
521	19752,367
521,4	19491,567
521,9	19349,967
522,3	19119,167
522,8	18933,967
523,2	18737,967
523,7	18579,367
524,1	18307,967
524,6	18154,167
525	18030,567
525,5	17848,767
525,9	17584,767
526,4	17381,767
526,8	17265,967
527,3	17035,167
527,7	16859,567
528,2	16738,367
528,6	16457,167
529,1	16317,167
529,5	16160,967
530	16002,167
530,4	15746,567
530,9	15561,167
531,3	15445,767
531,8	15246,767
532,2	15051,167
532,6	14896,967
533,1	14759,967
533,5	14658,767
534	14461,767
534,4	14240,767
534,9	14149,567
535,3	13985,367
535,8	13751,567
536,2	13704,367
536,7	13507,367
537,1	13322,967
537,6	13206,367
538	13027,567
538,5	12898,967
538,9	12720,167
539,4	12550,767
539,8	12477,767
540,3	12332,967
540,7	12175,567
541,2	12052,767
541,6	11920,167
542,1	11770,967
542,5	11658,167
543	11517,367
543,4	11362,767
543,9	11291,967
544,3	11118,367
544,8	10977,567
545,2	10897,767
545,7	10697,567
546,1	10593,967
546,5	10420,367
547	10365,167
547,4	10265,167
547,9	10101,767
548,3	9952,767
548,8	9855,367
549,2	9746,767
549,7	9617,167
550,1	9580,767
550,6	9463,567
551	9326,767
551,5	9221,567
551,9	9082,967
552,4	9019,367
552,8	8907,367
553,3	8774,367
553,7	8696,167
554,2	8651,967
554,6	8472,967
555,1	8373,167
555,5	8302,767
555,9	8220,967
556,4	8068,167
556,8	7991,767
557,3	7919,567
557,7	7813,367
558,2	7737,367
558,6	7605,567
559,1	7568,167
559,5	7431,767
560	7400,967
560,4	7274,567
560,9	7189,367
561,3	7103,367
561,8	6996,167
562,2	6989,767
562,7	6878,967
563,1	6777,367
563,6	6671,567
564	6628,367
564,4	6547,767
564,9	6454,767
565,3	6404,967
565,8	6312,567
566,2	6265,767
566,7	6145,367
567,1	6110,367
567,6	5986,967
568	6013,367
568,5	5878,167
568,9	5798,967
569,4	5700,967
569,8	5685,367
570,3	5565,567
570,7	5544,967
571,1	5457,167
571,6	5398,367
572	5342,167
572,5	5294,167
572,9	5196,967
573,4	5134,967
573,8	5063,767
574,3	5023,967
574,7	4930,567
575,2	4904,767
575,6	4820,367
576,1	4812,567
576,5	4733,367
576,9	4694,967
577,4	4644,167
577,8	4546,367
578,3	4462,767
578,7	4471,367
579,2	4384,767
579,6	4327,567
580,1	4288,567
580,5	4176,967
581	4162,767
581,4	4104,167
581,9	4086,567
582,3	4042,767
582,7	3962,367
583,2	3909,767
583,6	3870,967
584,1	3831,367
584,5	3745,967
585	3698,967
585,4	3720,567
585,9	3614,367
586,3	3605,367
586,8	3519,567
587,2	3493,367
587,6	3455,967
588,1	3394,967
588,5	3339,967
589	3353,167
589,4	3304,967
589,9	3243,767
590,3	3220,167
590,8	3144,967
591,2	3124,967
591,7	3105,567
592,1	3046,167
592,5	2996,167
593	2955,367
593,4	2937,567
593,9	2945,367
594,3	2871,967
594,8	2863,567
595,2	2830,167
595,7	2758,567
596,1	2777,367
596,6	2741,767
597	2678,567
597,4	2673,767
597,9	2588,967
598,3	2611,967
598,8	2566,367
599,2	2566,767
599,7	2496,367
600,1	2457,567
600,6	2404,767
601	2424,767
601,4	2387,167
601,9	2371,767
602,3	2314,967
602,8	2347,367
603,2	2292,167
603,7	2282,167
604,1	2209,567
604,6	2196,967
605	2200,967
605,4	2147,967
605,9	2093,567
606,3	2117,967
606,8	2079,567
607,2	2008,367
607,7	2043,567
608,1	1987,767
608,6	1980,567
609	1944,367
609,4	1936,567
609,9	1894,167
610,3	1903,567
610,8	1857,967
611,2	1856,767
611,7	1832,767
612,1	1807,167
612,6	1756,367
613	1752,967
613,4	1758,967
613,9	1704,567
614,3	1678,767
614,8	1672,967
615,2	1644,567
615,7	1626,767
616,1	1601,967
616,6	1556,967
617	1554,167
617,4	1567,167
617,9	1520,367
618,3	1518,967
618,8	1491,767
619,2	1487,967
619,7	1462,967
620,1	1417,367
620,5	1421,167
621	1396,367
621,4	1385,767
621,9	1372,967
622,3	1366,567
622,8	1332,567
623,2	1343,967
623,6	1322,167
624,1	1316,567
624,5	1277,367
625	1263,767
625,4	1261,367
625,9	1233,767
626,3	1240,967
626,8	1205,167
627,2	1178,567
627,6	1187,767
628,1	1168,567
628,5	1132,367
629	1137,167
629,4	1135,167
629,9	1090,367
630,3	1063,167
630,7	1053,567
631,2	1065,967
631,6	1056,567
632,1	1044,367
632,5	1020,767
633	1003,167
633,4	1027,367
633,8	1015,167
634,3	987,567
634,7	987,967
635,2	923,567
635,6	964,167
636,1	944,567
636,5	911,167
636,9	920,167
637,4	893,567
637,8	892,567
638,3	867,567
638,7	849,967
639,2	856,167
639,6	877,767
640	815,167
640,5	857,167
640,9	836,567
641,4	793,367
641,8	783,967
642,2	808,767
642,7	812,767
643,1	777,167
643,6	782,367
644	776,367
644,5	742,567
644,9	738,167
645,3	755,967
645,8	729,167
646,2	730,167
646,7	719,167
647,1	691,767
647,6	696,367
648	678,167
648,4	684,367
648,9	647,367
649,3	668,167
649,8	656,567
650,2	654,167
650,6	649,367
651,1	635,167
651,5	644,967
652	628,967
652,4	629,767
652,9	610,767
653,3	607,167
653,7	586,367
654,2	611,367
654,6	607,567
655,1	568,767
655,5	593,367
655,9	553,967
656,4	574,167
656,8	544,167
657,3	549,967
657,7	540,567
658,2	526,167
658,6	520,567
659	512,567
659,5	527,967
659,9	504,367
660,4	504,767
660,8	492,567
661,2	502,767
661,7	494,967
662,1	507,567
662,6	486,167
663	484,167
663,4	480,367
663,9	465,367
664,3	444,367
664,8	467,567
665,2	418,767
665,6	452,367
666,1	444,367
666,5	451,367
667	421,967
667,4	438,567
667,9	416,967
668,3	431,767
668,7	397,567
669,2	403,367
669,6	408,967
670,1	418,967
670,5	383,767
670,9	391,967
671,4	381,967
671,8	380,167
672,3	398,367
672,7	372,567
673,1	387,967
673,6	366,767
674	359,167
674,5	371,967
674,9	374,367
675,3	336,967
675,8	381,567
676,2	377,567
676,7	327,367
677,1	336,167
677,5	341,767
678	341,967
678,4	345,167
678,9	324,167
679,3	322,767
679,7	320,167
680,2	317,367
680,6	339,167
681,1	314,967
681,5	312,167
681,9	290,567
682,4	287,567
682,8	298,967
683,3	279,367
683,7	294,367
684,1	299,167
684,6	280,567
685	277,567
685,5	269,167
685,9	270,967
686,3	287,967
686,8	295,767
687,2	268,567
687,7	270,967
688,1	265,167
688,5	298,167
689	264,367
689,4	259,967
689,9	263,367
690,3	238,367
690,7	246,767
691,2	232,567
691,6	244,567
692	251,567
692,5	248,367
692,9	257,367
693,4	223,567
693,8	248,367
694,2	234,567
694,7	252,567
695,1	247,767
695,6	218,967
696	230,767
696,4	218,367
696,9	233,767
697,3	242,767
697,8	213,367
698,2	225,767
698,6	218,567
699,1	221,367
699,5	228,767
699,9	216,767
700,4	227,967
700,8	201,967
701,3	203,567
701,7	181,367
702,1	192,767
702,6	210,167
703	183,567
703,5	207,767
703,9	199,767
704,3	210,767
704,8	180,967
705,2	188,567
705,6	191,767
706,1	185,367
706,5	172,167
707	192,767
707,4	200,567
707,8	185,767
708,3	156,767
708,7	177,767
709,2	167,567
709,6	214,567
710	201,567
710,5	158,767
710,9	174,767
711,3	160,367
711,8	176,167
712,2	157,367
712,7	163,767
713,1	163,567
713,5	168,367
714	181,567
714,4	147,967
714,8	151,767
715,3	155,367
715,7	170,367
716,2	136,167
716,6	145,967
717	164,367
717,5	149,367
717,9	137,367
718,3	156,967
718,8	153,367
719,2	124,367
719,7	136,767
720,1	147,567
720,5	169,367
721	152,967
721,4	144,367
721,8	165,367
722,3	133,367
722,7	129,367
723,2	129,167
723,6	146,367
724	137,767
724,5	123,367
724,9	128,767
725,3	118,767
725,8	133,967
726,2	126,167
726,7	126,167
727,1	116,767
727,5	116,967
728	134,167
728,4	148,767
728,8	122,167
729,3	113,967
729,7	117,967
730,1	116,167
730,6	126,567
731	133,367
731,5	130,167
731,9	122,167
732,3	127,967
732,8	104,367
733,2	100,567
733,6	126,367
734,1	112,767
734,5	140,967
734,9	135,367
735,4	113,767
735,8	114,767
736,3	115,567
736,7	111,367
737,1	102,167
737,6	123,767
738	125,967
738,4	116,367
738,9	100,367
739,3	125,567
739,7	129,167
740,2	119,367
740,6	122,367
741,1	140,567
741,5	108,967
741,9	110,767
742,4	93,967
742,8	119,967
743,2	97,567
743,7	113,167
744,1	100,767
744,5	110,167
745	120,767
745,4	107,767
745,8	110,167
746,3	94,967
746,7	103,567
747,2	106,167
747,6	130,167
748	121,367
748,5	117,967
748,9	114,367
749,3	106,567
749,8	91,767
750,2	103,567
750,6	95,367
751,1	94,967
751,5	84,567
751,9	120,167
752,4	94,767
752,8	104,367
753,3	81,567
753,7	83,567
754,1	74,567
754,6	80,567
755	95,967
755,4	94,767
755,9	91,767
756,3	97,567
756,7	115,167
757,2	118,367
757,6	85,767
758	79,767
758,5	84,767
758,9	88,967
759,3	84,767
759,8	87,167
760,2	85,167
760,6	112,367
761,1	91,167
761,5	63,167
761,9	90,367
762,4	97,967
762,8	92,367
763,3	102,967
763,7	90,167
764,1	89,167
764,6	87,967
765	80,367
765,4	68,567
765,9	89,367
766,3	63,967
766,7	67,367
767,2	73,967
767,6	85,967
768	85,967
768,5	95,167
768,9	101,967
769,3	87,367
769,8	78,367
770,2	70,967
770,6	83,967
771,1	66,367
771,5	84,967
771,9	79,967
772,4	101,767
772,8	81,567
773,2	103,167
773,7	83,967
774,1	83,367
774,5	87,767
775	74,767
775,4	78,967
775,8	81,567
776,3	69,567
776,7	88,567
777,1	89,367
777,6	75,767
778	76,967
778,4	107,567
778,9	64,767
779,3	93,967
779,7	67,167
780,2	74,167
780,6	71,167
781	87,767
781,5	72,967
781,9	91,767
782,3	74,367
782,8	88,367
783,2	72,567
783,6	76,367
784,1	65,367
784,5	82,567
784,9	92,167
785,4	71,767
785,8	65,567
786,2	67,567
786,7	82,367
787,1	94,367
787,5	52,367
788	81,167
788,4	88,567
788,8	68,767
789,3	82,967
789,7	64,967
790,1	75,767
790,6	71,367
791	93,167
791,4	79,367
791,9	106,767
792,3	78,367
792,7	74,567
793,2	92,767
793,6	74,767
794	78,167
794,5	89,967
794,9	67,367
795,3	71,367
795,8	71,367
796,2	76,967
796,6	58,567
797,1	63,567
797,5	65,767
797,9	76,367
798,4	87,967
798,8	73,767
799,2	73,567
799,7	70,967
800,1	72,567
800,5	69,167
801	54,567
801,4	70,567
801,8	52,367
802,2	58,967
802,7	83,767
803,1	80,967
803,5	78,767
804	84,367
804,4	57,767
804,8	64,967
805,3	81,967
805,7	68,367
806,1	56,567
806,6	81,967
807	71,967
807,4	79,367
807,9	65,767
808,3	89,567
808,7	67,367
809,2	67,367
809,6	74,767
810	76,567
810,4	58,767
810,9	79,967
811,3	124,567
811,7	61,967
812,2	53,167
812,6	52,167
813	68,967
813,5	83,367
813,9	64,567
814,3	67,367
814,8	63,367
815,2	51,767
815,6	59,167
816,1	79,767
816,5	63,367
816,9	83,167
817,3	63,367
817,8	69,967
818,2	95,167
818,6	51,767
819,1	91,167
819,5	67,767
819,9	82,967
820,4	63,767
820,8	45,767
821,2	81,567
821,7	94,367
822,1	64,167
822,5	54,967
822,9	56,767
823,4	76,167
823,8	66,367
824,2	67,767
824,7	85,967
825,1	86,167
825,5	78,767
826	64,567
826,4	69,567
826,8	69,767
827,3	88,767
827,7	57,567
828,1	66,367
828,5	83,567
829	56,767
829,4	74,967
829,8	76,567
830,3	78,967
830,7	40,767
831,1	69,967
831,6	68,567
832	91,967
832,4	66,967
832,8	77,967
833,3	90,967
833,7	48,167
834,1	57,767
834,6	78,367
835	68,567
835,4	66,367
835,8	68,167
836,3	76,967
836,7	82,967
837,1	63,967
837,6	52,367
838	95,567
838,4	71,567
838,9	59,767
839,3	42,767
839,7	71,367
840,1	55,967
840,6	76,567
841	52,567
841,4	66,167
841,9	69,367
842,3	78,967
842,7	58,767
843,1	72,167
843,6	65,767
844	65,367
844,4	74,967
844,9	66,767
845,3	52,367
845,7	64,967
846,2	58,567
846,6	63,167
847	58,567
847,4	70,367
847,9	67,967
848,3	74,567
848,7	63,767
849,2	67,767
849,6	77,767
850	62,367
850,4	71,567
850,9	66,167
851,3	56,567
851,7	81,967
852,2	68,567
852,6	56,167
853	66,967
853,4	75,367
853,9	65,367
854,3	68,567
854,7	69,967
855,2	51,167
855,6	44,167
856	66,967
856,4	70,567
856,9	66,767
857,3	70,767
857,7	61,167
858,2	85,767
858,6	68,967
859	69,167
859,4	81,367
859,9	55,967
860,3	58,767
860,7	64,367
861,1	61,967
861,6	71,767
862	50,767
862,4	66,967
862,9	42,567
863,3	58,367
863,7	69,167
864,1	52,967
864,6	38,567
865	82,167
865,4	50,567
865,9	78,167
866,3	75,967
866,7	59,367
867,1	60,967
867,6	70,567
868	76,967
868,4	72,567
868,8	69,567
869,3	63,767
869,7	61,167
870,1	92,767
870,6	57,167
871	61,367
871,4	55,767
871,8	68,767
872,3	-137,833
872,7	86,167
873,1	74,367
873,5	48,767
874	56,167
874,4	74,567
874,8	63,167
875,3	70,767
875,7	80,567
876,1	83,967
876,5	56,767
877	69,367
877,4	66,567
877,8	57,167
878,2	59,767
878,7	39,367
879,1	58,767
879,5	70,367
879,9	38,167
880,4	60,367
880,8	57,567
881,2	67,367
881,7	75,767
882,1	61,567
882,5	46,567
882,9	55,767
883,4	69,567
883,8	55,367
884,2	50,367
884,6	80,167
885,1	52,367
885,5	86,167
885,9	66,367
886,3	75,767
886,8	58,767
887,2	83,767
887,6	63,567
888	57,767
888,5	46,967
888,9	62,567
889,3	65,367
889,8	61,967
890,2	79,567
890,6	74,567
891	68,567
891,5	59,367
891,9	54,767
892,3	50,567
892,7	50,167
893,2	57,567
893,6	65,767
894	71,167
894,4	50,367
894,9	64,967
895,3	44,367
895,7	68,567
896,1	69,367
896,6	78,967
897	64,767
897,4	89,167
897,8	62,967
898,3	57,767
898,7	56,567
899,1	47,567
899,5	71,367
900	56,767
900,4	53,967
900,8	67,767
901,2	54,567
901,7	77,967
902,1	80,567
902,5	71,167
902,9	62,967
903,4	39,567
903,8	77,367
904,2	55,167
904,6	66,367
905,1	61,767
905,5	27,367
905,9	91,567
906,3	41,967
906,8	85,567
907,2	54,167
907,6	72,167
908	37,767
908,5	67,567
908,9	52,767
909,3	71,367
909,7	56,367
910,2	70,167
910,6	71,567
911	52,167
911,4	67,967
911,9	58,967
912,3	57,967
912,7	77,767
913,1	45,967
913,6	66,367
914	48,367
914,4	69,767
914,8	63,567
915,3	42,567
915,7	67,367
916,1	50,567
916,5	56,367
916,9	65,167
917,4	69,767
917,8	78,567
918,2	72,167
918,6	55,167
919,1	67,767
919,5	66,767
919,9	49,767
920,3	53,167
920,8	61,967
921,2	84,567
921,6	65,567
922	74,767
922,5	54,767
922,9	56,767
923,3	61,567
923,7	68,767
924,2	59,767
924,6	62,167
925	56,967
925,4	55,367
925,8	60,167
926,3	65,567
926,7	39,567
927,1	82,967
927,5	39,167
928	56,567
928,4	80,167
928,8	52,567
929,2	64,367
929,7	68,167
930,1	40,567
930,5	46,567
930,9	61,767
931,3	67,967
931,8	42,567
932,2	65,767
932,6	68,967
933	66,167
933,5	60,767
933,9	61,567
934,3	75,567
934,7	59,967
935,2	73,967
935,6	51,567
936	60,167
936,4	56,567
936,8	66,967
937,3	65,567
937,7	84,567
938,1	64,567
938,5	75,767
939	74,967
939,4	85,967
939,8	81,167
940,2	37,767
940,6	57,167
941,1	61,767
941,5	64,567
941,9	58,967
942,3	48,967
942,8	64,367
943,2	71,967
943,6	68,167
944	63,367
944,4	72,167
944,9	71,767
945,3	49,367
945,7	40,767
946,1	63,567
946,6	61,167
947	59,367
947,4	65,967
947,8	59,767
948,2	67,967
948,7	49,167
949,1	57,367
949,5	71,967
949,9	62,167
950,3	61,367
950,8	58,367
951,2	69,367
951,6	65,767
952	53,767
952,5	74,167
952,9	63,167
953,3	49,767
953,7	49,767
954,1	44,967
954,6	60,367
955	54,167
955,4	73,167
955,8	42,367
956,2	81,367
956,7	35,767
957,1	78,167
957,5	44,567
957,9	71,167
958,3	73,167
958,8	75,567
959,2	46,167
959,6	72,367
960	42,967
960,5	84,367
960,9	40,767
961,3	80,167
961,7	73,367
962,1	69,367
962,6	64,767
963	61,167
963,4	94,767
963,8	59,767
964,2	72,567
964,7	41,967
965,1	70,367
965,5	43,167
965,9	65,967
966,3	90,767
966,8	82,567
967,2	53,167
967,6	62,967
968	57,767
968,4	47,767
968,9	71,167
969,3	76,567
969,7	73,567
970,1	53,567
970,5	74,767
971	58,767
971,4	51,567
971,8	51,367
972,2	41,367
972,6	71,767
973,1	62,367
973,5	36,967
973,9	62,967
974,3	69,167
974,7	58,167
975,2	85,567
975,6	51,767
976	46,367
976,4	72,967
976,8	70,367
977,3	53,167
977,7	62,167
978,1	72,567
978,5	54,767
978,9	63,167
979,4	80,967
979,8	52,767
980,2	51,367
980,6	77,767
981	61,767
981,5	48,167
981,9	51,967
982,3	49,167
982,7	70,967
983,1	74,767
983,6	68,567
984	60,767
984,4	43,767
984,8	64,767
985,2	65,367
985,6	79,367
986,1	49,567
986,5	45,367
986,9	74,167
987,3	63,567
987,7	55,967
988,2	88,167
988,6	71,167
989	64,567
989,4	85,367
989,8	73,567
990,3	71,967
990,7	74,367
991,1	43,167
991,5	63,767
991,9	41,967
992,3	63,767
992,8	72,167
993,2	62,767
993,6	68,167
994	77,367
994,4	56,567
994,9	49,167
995,3	79,367
995,7	44,967
996,1	88,167
996,5	64,367
996,9	63,367
997,4	64,567
997,8	68,167
998,2	74,167
998,6	60,567
999	66,167
999,5	39,567
999,9	66,967
1000,3	69,367
1000,7	68,967
1001,1	49,567
1001,5	67,767
1002	52,967
1002,4	68,967
1002,8	47,767
1003,2	89,367
1003,6	70,367
1004	67,167
1004,5	45,567
1004,9	74,967
1005,3	48,767
1005,7	49,367
1006,1	96,967
1006,6	65,567
1007	68,567
1007,4	76,767
1007,8	79,367
1008,2	63,567
1008,6	57,767
1009,1	67,967
1009,5	55,167
1009,9	61,567
1010,3	56,567
1010,7	70,767
1011,1	62,567
1011,6	70,767
1012	54,767
1012,4	59,967
1012,8	63,367
1013,2	68,367
1013,6	55,167
1014,1	71,567
1014,5	62,167
1014,9	56,967
1015,3	59,167
1015,7	50,967
1016,1	61,967
1016,6	66,967
1017	62,767
1017,4	84,367
1017,8	79,567
1018,2	66,167
1018,6	68,167
1019,1	68,367
1019,5	53,367
1019,9	85,167
1020,3	80,967
1020,7	76,167
1021,1	72,167
1021,6	74,167
1022	55,367
1022,4	67,367
1022,8	71,767
1023,2	76,567
1023,6	59,167
1024,1	71,567
1024,5	51,367
1024,9	43,567
1025,3	63,167
1025,7	59,767
1026,1	69,967
1026,6	74,167
1027	72,567
1027,4	56,367
1027,8	101,767
1028,2	65,967
1028,6	66,167
1029	76,167
1029,5	106,367
1029,9	43,767
1030,3	69,767
1030,7	70,567
1031,1	60,767
1031,5	63,567
1032	56,567
1032,4	88,567
1032,8	90,567
1033,2	76,767
1033,6	47,567
1034	82,367
1034,4	80,567
1034,9	58,567
1035,3	79,967
1035,7	79,967
1036,1	62,367
1036,5	85,967
1036,9	67,967
1037,4	81,367
1037,8	65,367
1038,2	75,767
1038,6	106,767
1039	100,767
1039,4	90,567
1039,8	60,967
1040,3	78,967
1040,7	71,367
1041,1	89,367
1041,5	72,367
1041,9	96,367
1042,3	91,767
1042,7	81,967
1043,2	57,967
1043,6	81,167
1044	73,567
1044,4	70,167
1044,8	96,567
1045,2	83,767
1045,6	63,767
1046,1	82,367
1046,5	90,767
1046,9	78,967
1047,3	87,767
1047,7	83,367
1048,1	83,567
1048,5	98,567
1049	74,167
1049,4	74,767
1049,8	80,567
1050,2	99,767
1050,6	78,767
1051	80,767
1051,4	69,767
1051,9	90,767
1052,3	85,367
1052,7	86,367
1053,1	89,367
1053,5	109,967
1053,9	76,167
1054,3	73,567
1054,8	63,367
1055,2	112,967
1055,6	87,967
1056	106,767
1056,4	65,767
1056,8	67,367
1057,2	68,367
1057,6	79,367
1058,1	62,567
1058,5	91,967
1058,9	82,567
1059,3	83,367
1059,7	88,767
1060,1	92,967
1060,5	89,567
1061	78,367
1061,4	70,767
1061,8	105,967
1062,2	64,367
1062,6	94,567
1063	82,367
1063,4	86,767
1063,8	71,767
1064,3	66,767
1064,7	74,767
1065,1	57,567
1065,5	73,167
1065,9	73,967
1066,3	84,567
1066,7	64,767
1067,1	105,567
1067,6	77,767
1068	56,967
1068,4	76,767
1068,8	55,767
1069,2	82,167
1069,6	80,567
1070	57,967
1070,4	61,967
1070,9	76,567
1071,3	64,567
1071,7	55,567
1072,1	59,367
1072,5	61,767
1072,9	71,567
1073,3	69,167
1073,7	57,567
1074,2	66,167
1074,6	50,967
1075	103,767
1075,4	77,367
1075,8	65,967
1076,2	55,367
1076,6	75,167
1077	68,167
1077,5	58,167
1077,9	55,767
1078,3	73,167
1078,7	72,967
1079,1	72,767
1079,5	73,767
1079,9	89,967
1080,3	69,967
1080,7	63,167
1081,2	56,767
1081,6	65,567
1082	70,967
1082,4	73,767
1082,8	75,367
1083,2	97,967
1083,6	73,967
1084	63,767
1084,5	61,167
1084,9	46,167
1085,3	88,767
1085,7	72,167
1086,1	65,967
1086,5	63,167
1086,9	65,167
1087,3	62,167
1087,7	64,567
1088,2	65,367
1088,6	54,767
1089	54,167
1089,4	46,567
1089,8	84,967
1090,2	54,367
1090,6	54,367
1091	68,167
1091,4	55,567
1091,9	73,967
1092,3	70,167
1092,7	46,967
1093,1	51,967
1093,5	52,767
1093,9	62,367
1094,3	50,367
1094,7	50,567
1095,1	41,167
1095,5	49,767
1096	76,367
1096,4	73,767
1096,8	72,967
1097,2	50,967
1097,6	49,767
1098	32,167
1098,4	50,567
1098,8	57,767
1099,2	43,767
1099,6	50,767
1100,1	60,767
1100,5	37,967
1100,9	42,367
1101,3	34,567
1101,7	45,767
1102,1	43,767
1102,5	39,367
1102,9	30,567
1103,3	42,967
1103,7	46,367
1104,2	65,167
1104,6	45,567
1105	48,967
1105,4	52,567
1105,8	43,967
1106,2	34,967
1106,6	29,367
1107	-1,633
1107,4	0,167
1107,8	-0,633
1108,3	1,367
