Data from Subt2_00002.txt Node
Date: Fri Jul 14 14:48:45 MSK 2023
User: vat
Spectrometer: MAYP114033
Trigger mode: 0
Integration Time (sec): 5,000000E-1
Scans to average: 5
Electric dark correction enabled: true
Nonlinearity correction enabled: false
Boxcar width: 0
XAxis mode: Wavelengths
Number of Pixels in Spectrum: 2068
>>>>>Begin Spectral Data<<<<<
199,4	5,6
199,9	0,6
200,4	-2
200,8	1,8
201,3	11
201,8	29,6
202,2	23,2
202,7	17
203,2	19
203,6	20,4
204,1	28,6
204,6	29,4
205	32,2
205,5	36,4
206	20,6
206,4	21,8
206,9	24,2
207,4	28,8
207,8	29,4
208,3	43,8
208,8	45,8
209,2	20,8
209,7	31
210,2	40,6
210,6	38,2
211,1	35,8
211,5	18,2
212	48,2
212,5	51
212,9	38
213,4	27,8
213,9	52,8
214,3	19,4
214,8	36,2
215,3	32
215,7	45,6
216,2	57,8
216,7	47,8
217,1	45,4
217,6	44
218,1	26,6
218,5	13,4
219	47
219,5	22,2
219,9	26,8
220,4	42,2
220,9	48,8
221,3	48,2
221,8	33
222,3	39,6
222,7	38,2
223,2	58,6
223,6	44,2
224,1	38,2
224,6	44,6
225	44,6
225,5	47
226	60,6
226,4	19,4
226,9	40,4
227,4	30,2
227,8	59
228,3	32,4
228,8	46,4
229,2	51,2
229,7	44,6
230,2	45
230,6	66,6
231,1	47,4
231,5	48,2
232	67,6
232,5	49,4
232,9	41,6
233,4	63
233,9	39,2
234,3	53,4
234,8	33,8
235,3	45,6
235,7	29,2
236,2	32,4
236,7	57,2
237,1	51,8
237,6	70,2
238,1	32
238,5	36,2
239	64,4
239,4	42,8
239,9	37,8
240,4	60,2
240,8	26,4
241,3	51,6
241,8	35,8
242,2	40,8
242,7	53,8
243,2	41
243,6	57
244,1	63
244,6	28,4
245	30,6
245,5	56,6
245,9	34,6
246,4	31,4
246,9	42,8
247,3	52
247,8	31,6
248,3	46
248,7	51,8
249,2	37,2
249,7	38,8
250,1	25,6
250,6	48,4
251	28,2
251,5	57,6
252	31,4
252,4	56,2
252,9	39,8
253,4	27,4
253,8	51,6
254,3	51
254,8	29,6
255,2	54
255,7	32,4
256,1	45
256,6	60,6
257,1	45,2
257,5	28,6
258	51,8
258,5	38,6
258,9	56,2
259,4	41,2
259,9	52,6
260,3	58,6
260,8	39,6
261,2	62
261,7	43,6
262,2	31,4
262,6	50,2
263,1	40
263,6	33,8
264	42,2
264,5	32,2
264,9	66,2
265,4	67,8
265,9	47,6
266,3	43,6
266,8	20,2
267,3	18,4
267,7	44
268,2	53,8
268,7	51,6
269,1	57,4
269,6	32
270	31
270,5	63,2
271	39,4
271,4	34,6
271,9	57
272,4	43
272,8	54,4
273,3	61,6
273,7	32,4
274,2	47,8
274,7	50
275,1	48,6
275,6	22,8
276,1	41
276,5	39,2
277	33,8
277,4	31,4
277,9	46,2
278,4	33,8
278,8	36,2
279,3	50,4
279,8	27,8
280,2	43,2
280,7	49
281,1	28,4
281,6	42,4
282,1	38,8
282,5	59,2
283	33,6
283,4	46,6
283,9	36,2
284,4	34,4
284,8	37,8
285,3	33,8
285,8	21,2
286,2	50
286,7	44,4
287,1	45,2
287,6	42,2
288,1	64,2
288,5	48
289	48
289,5	39,4
289,9	33,6
290,4	57,8
290,8	46,8
291,3	43,8
291,8	44,8
292,2	48,4
292,7	30,8
293,1	49,8
293,6	25,6
294,1	61
294,5	50,4
295	76,6
295,5	57,4
295,9	44,4
296,4	25,2
296,8	34,6
297,3	47,6
297,8	54,8
298,2	6,4
298,7	42,4
299,1	32,4
299,6	48
300,1	39,2
300,5	28,2
301	31,4
301,5	36
301,9	42
302,4	59
302,8	49,8
303,3	31,4
303,8	42
304,2	53
304,7	47,6
305,1	55
305,6	53,8
306,1	53,6
306,5	27,2
307	41,2
307,4	73,4
307,9	35
308,4	28,8
308,8	51,4
309,3	36
309,8	44,6
310,2	31,4
310,7	44,4
311,1	43,4
311,6	32,2
312,1	51,6
312,5	48
313	39
313,4	38
313,9	35,6
314,4	65,6
314,8	28,8
315,3	41,8
315,7	53,4
316,2	33,2
316,7	29,8
317,1	37,8
317,6	59
318	33,4
318,5	40
319	34,8
319,4	52,4
319,9	62,4
320,3	41,2
320,8	62,8
321,3	41,4
321,7	62,6
322,2	53
322,6	36,2
323,1	41,2
323,6	50,4
324	40
324,5	39,6
324,9	43,4
325,4	37
325,9	53,4
326,3	41,8
326,8	37
327,2	48,8
327,7	53,4
328,2	31,4
328,6	50,2
329,1	44
329,5	54,2
330	67,2
330,5	32,6
330,9	51,2
331,4	44
331,8	52,2
332,3	42,4
332,8	31,4
333,2	37,6
333,7	44,2
334,1	16,2
334,6	31,4
335,1	33,8
335,5	22,4
336	41,6
336,4	40,4
336,9	39,8
337,4	43
337,8	38
338,3	37,6
338,7	43,6
339,2	42,8
339,7	40
340,1	57
340,6	37,4
341	68,4
341,5	52,8
342	39,4
342,4	37,6
342,9	41
343,3	58,4
343,8	34,2
344,2	56,6
344,7	36,2
345,2	27,2
345,6	48,2
346,1	45,2
346,5	43
347	46,8
347,5	48,8
347,9	71,2
348,4	36,6
348,8	47,8
349,3	46,2
349,8	29,6
350,2	49
350,7	35
351,1	40,2
351,6	41,6
352	41,2
352,5	46,8
353	59,8
353,4	71,2
353,9	69,6
354,3	64,8
354,8	70
355,3	71,2
355,7	62,6
356,2	67,8
356,6	85
357,1	81,2
357,5	105,2
358	101,8
358,5	148,6
358,9	137,6
359,4	151
359,8	166,6
360,3	189,6
360,8	208,2
361,2	257,8
361,7	271
362,1	305,4
362,6	334,8
363	408,8
363,5	422,8
364	467,6
364,4	516,4
364,9	556,6
365,3	615,8
365,8	647,2
366,3	698,6
366,7	711,6
367,2	753,2
367,6	788
368,1	802,8
368,5	834,8
369	827,8
369,5	807,4
369,9	836,2
370,4	836
370,8	779,4
371,3	757
371,7	765,6
372,2	709,8
372,7	699
373,1	653,2
373,6	597,6
374	602,6
374,5	552
374,9	488,2
375,4	471,2
375,9	432
376,3	396,6
376,8	371
377,2	337,2
377,7	334,4
378,2	309,2
378,6	288
379,1	260,8
379,5	235,4
380	238,2
380,4	200,6
380,9	216,6
381,4	162,6
381,8	186,8
382,3	150,2
382,7	174,6
383,2	143,4
383,6	138,8
384,1	126,8
384,6	128,4
385	128,6
385,5	105,4
385,9	108,4
386,4	100
386,8	116,4
387,3	107,4
387,7	77,8
388,2	83,4
388,7	80,2
389,1	93,2
389,6	83,4
390	86,6
390,5	52,2
390,9	63,4
391,4	68,8
391,9	65,2
392,3	71,4
392,8	69,6
393,2	65,8
393,7	38,6
394,1	58,6
394,6	71,4
395,1	51,2
395,5	68,4
396	42,4
396,4	55,4
396,9	39,4
397,3	42
397,8	53
398,2	58
398,7	64,6
399,2	48,2
399,6	72,6
400,1	37,2
400,5	64,6
401	48,8
401,4	55,8
401,9	61,2
402,4	71,8
402,8	43
403,3	68,4
403,7	68,6
404,2	71,6
404,6	34,4
405,1	58,4
405,5	53,8
406	54,6
406,5	39,6
406,9	64,8
407,4	55,6
407,8	71
408,3	56,8
408,7	73,8
409,2	65,6
409,6	60,2
410,1	75,8
410,6	71,2
411	56,2
411,5	74,6
411,9	81,6
412,4	68
412,8	93
413,3	109,4
413,7	85,4
414,2	75,8
414,7	80,8
415,1	102,2
415,6	97,2
416	84,8
416,5	107,2
416,9	112
417,4	110
417,8	109
418,3	110,6
418,8	108,4
419,2	114,2
419,7	138,4
420,1	113,6
420,6	115,2
421	145,4
421,5	148,8
421,9	140,8
422,4	161,6
422,8	148
423,3	165
423,8	148,2
424,2	175,2
424,7	167,8
425,1	174
425,6	170,4
426	169,8
426,5	173,6
426,9	200,8
427,4	202,4
427,9	212,8
428,3	184,6
428,8	224
429,2	220
429,7	239,6
430,1	251,8
430,6	250,8
431	234,6
431,5	265,4
431,9	288,6
432,4	273
432,8	309,2
433,3	301,8
433,8	304,2
434,2	348,6
434,7	369,4
435,1	381,4
435,6	395
436	407,2
436,5	442,4
436,9	431
437,4	464,4
437,8	484,6
438,3	509,6
438,8	540,4
439,2	557,4
439,7	554,6
440,1	598,2
440,6	638,2
441	654,4
441,5	691
441,9	716,8
442,4	711,8
442,8	788
443,3	800,2
443,7	819,4
444,2	865,6
444,7	907,4
445,1	945,6
445,6	963
446	1022,2
446,5	1057,6
446,9	1125
447,4	1136,4
447,8	1211
448,3	1250
448,7	1296,2
449,2	1338
449,6	1376,6
450,1	1429,6
450,6	1503,4
451	1531,6
451,5	1590,2
451,9	1632,6
452,4	1666
452,8	1745,8
453,3	1783,2
453,7	1851,8
454,2	1917,6
454,6	1992,6
455,1	2028,4
455,5	2108
456	2138,8
456,4	2229,2
456,9	2275,2
457,3	2322,2
457,8	2384,2
458,3	2434
458,7	2528,6
459,2	2590,4
459,6	2690,8
460,1	2756
460,5	2803,4
461	2866,6
461,4	2987,4
461,9	3031,8
462,3	3052,4
462,8	3154
463,2	3225,2
463,7	3269,8
464,1	3351,6
464,6	3432,2
465	3513,2
465,5	3586,2
466	3641,4
466,4	3716,4
466,9	3792,6
467,3	3855,4
467,8	3920,4
468,2	4004,6
468,7	4068,2
469,1	4137,2
469,6	4202,4
470	4271,6
470,5	4331
470,9	4395,8
471,4	4457,2
471,8	4528,8
472,3	4606,6
472,7	4684,4
473,2	4754,4
473,6	4796,8
474,1	4890,8
474,5	4941,4
475	5007,6
475,4	5054,8
475,9	5123,4
476,4	5181,8
476,8	5236,8
477,3	5270,2
477,7	5387
478,2	5373
478,6	5484,8
479,1	5491,2
479,5	5547
480	5574,2
480,4	5638,4
480,9	5703,2
481,3	5744,2
481,8	5807,4
482,2	5856,8
482,7	5847,6
483,1	5915,2
483,6	5951,2
484	5978,8
484,5	6001,8
484,9	5994,4
485,4	5988
485,8	6092,4
486,3	6078,4
486,7	6156,4
487,2	6154
487,6	6167,8
488,1	6201,8
488,5	6229
489	6243
489,4	6213,6
489,9	6252
490,4	6253,4
490,8	6271,2
491,3	6258,6
491,7	6323,8
492,2	6272,2
492,6	6318,4
493,1	6265,6
493,5	6286,8
494	6293,6
494,4	6277,2
494,9	6247,4
495,3	6319,8
495,8	6327,4
496,2	6274,4
496,7	6222,6
497,1	6256
497,6	6216,4
498	6185,6
498,5	6217,8
498,9	6189,8
499,4	6194,4
499,8	6158,6
500,3	6152,4
500,7	6122,6
501,2	6115
501,6	6092,8
502,1	6102,4
502,5	6063,8
503	6047,4
503,4	6020,8
503,9	5949,2
504,3	6001,6
504,8	5929
505,2	5908,8
505,7	5899,4
506,1	5844,2
506,6	5855,4
507	5781,2
507,5	5744,6
507,9	5669,8
508,4	5656,8
508,8	5645,6
509,3	5643,6
509,7	5620,2
510,2	5549,8
510,6	5526,2
511,1	5499,4
511,5	5444,8
512	5444,6
512,4	5391,8
512,9	5330,8
513,3	5337,8
513,8	5251,6
514,2	5274,8
514,7	5180
515,1	5149,4
515,6	5129,4
516	5082,4
516,5	5029,6
516,9	5008
517,4	4985,6
517,8	4918,8
518,3	4908,2
518,7	4833
519,2	4785,8
519,6	4769,6
520,1	4714,8
520,5	4686,8
521	4639,6
521,4	4604,4
521,9	4549
522,3	4478,2
522,8	4469,2
523,2	4431
523,7	4390,2
524,1	4356,2
524,6	4307
525	4272,6
525,5	4227,6
525,9	4208,4
526,4	4199,6
526,8	4153
527,3	4117,8
527,7	4059,2
528,2	4008,8
528,6	3991
529,1	3949,2
529,5	3913,6
530	3923
530,4	3822,2
530,9	3838
531,3	3805,4
531,8	3757,8
532,2	3713
532,6	3673
533,1	3646,2
533,5	3648,8
534	3595,4
534,4	3561,4
534,9	3508
535,3	3458,6
535,8	3459,8
536,2	3440,6
536,7	3400
537,1	3330,8
537,6	3313,6
538	3315,6
538,5	3267,4
538,9	3254,2
539,4	3209,4
539,8	3166,6
540,3	3136
540,7	3112,8
541,2	3104,6
541,6	3058,2
542,1	3005
542,5	2994,8
543	2973,2
543,4	2971,2
543,9	2904,6
544,3	2891
544,8	2873
545,2	2865,4
545,7	2827,4
546,1	2819,6
546,5	2784
547	2728
547,4	2740
547,9	2708
548,3	2668
548,8	2637,8
549,2	2645,4
549,7	2596
550,1	2567,4
550,6	2571,2
551	2567,4
551,5	2516,4
551,9	2467,2
552,4	2505,8
552,8	2454,2
553,3	2443,6
553,7	2432,8
554,2	2400,4
554,6	2382,4
555,1	2336,2
555,5	2348,8
555,9	2342,8
556,4	2309,6
556,8	2328,8
557,3	2279
557,7	2263,4
558,2	2238
558,6	2232
559,1	2224
559,5	2156,2
560	2184,6
560,4	2158,6
560,9	2126,4
561,3	2120,2
561,8	2114,4
562,2	2096
562,7	2080,4
563,1	2047,6
563,6	2032
564	2016,8
564,4	1993,6
564,9	2015,8
565,3	1966,6
565,8	1957,2
566,2	1973,8
566,7	1904,2
567,1	1923,2
567,6	1908,4
568	1932
568,5	1915,2
568,9	1841,6
569,4	1850,4
569,8	1834,6
570,3	1829,4
570,7	1806,8
571,1	1807,6
571,6	1788
572	1815,2
572,5	1763,6
572,9	1749,4
573,4	1739,8
573,8	1723,2
574,3	1707,6
574,7	1708
575,2	1687,2
575,6	1704,2
576,1	1671,8
576,5	1631,6
576,9	1643,4
577,4	1640
577,8	1633,6
578,3	1630,8
578,7	1597,2
579,2	1614,6
579,6	1603,8
580,1	1568,6
580,5	1529,2
581	1522
581,4	1552,6
581,9	1516,4
582,3	1525,2
582,7	1510,8
583,2	1471,8
583,6	1491
584,1	1499,8
584,5	1479,6
585	1454
585,4	1446,6
585,9	1444
586,3	1419,8
586,8	1394
587,2	1416,2
587,6	1380,8
588,1	1407,4
588,5	1350
589	1381,4
589,4	1382,8
589,9	1357
590,3	1336,6
590,8	1329,6
591,2	1334
591,7	1288,2
592,1	1296,4
592,5	1322,2
593	1286,8
593,4	1286,6
593,9	1264,2
594,3	1310,8
594,8	1251,4
595,2	1281,4
595,7	1246,8
596,1	1235,2
596,6	1229,2
597	1221,6
597,4	1222
597,9	1193,2
598,3	1212,4
598,8	1220,8
599,2	1205,8
599,7	1179,6
600,1	1158,8
600,6	1164,8
601	1175
601,4	1165,4
601,9	1144,4
602,3	1128,2
602,8	1153,8
603,2	1137,4
603,7	1140,2
604,1	1099,6
604,6	1108,2
605	1134,4
605,4	1087,2
605,9	1075,2
606,3	1104,6
606,8	1066,8
607,2	1055,2
607,7	1062,4
608,1	1012,2
608,6	1043
609	1036,6
609,4	1052,4
609,9	1029,8
610,3	1054
610,8	1027,8
611,2	1011
611,7	1015,8
612,1	1022,4
612,6	977
613	1016,8
613,4	1013,2
613,9	972,6
614,3	950,4
614,8	975,4
615,2	968,6
615,7	949,2
616,1	946,2
616,6	911,6
617	952,4
617,4	946,4
617,9	923,6
618,3	911,2
618,8	919,4
619,2	918,8
619,7	900,6
620,1	908
620,5	897,8
621	873,8
621,4	900,6
621,9	904,4
622,3	901
622,8	872,2
623,2	881,2
623,6	855,6
624,1	871,4
624,5	830,4
625	865,8
625,4	827,6
625,9	830,6
626,3	799,4
626,8	835,2
627,2	823,4
627,6	819
628,1	809,8
628,5	810,4
629	795,2
629,4	782,8
629,9	766,8
630,3	779,4
630,7	776,4
631,2	777,2
631,6	790,4
632,1	772,8
632,5	748,6
633	749,4
633,4	766
633,8	741
634,3	763,8
634,7	751,4
635,2	737,8
635,6	750,4
636,1	745,4
636,5	722
636,9	713,8
637,4	727,8
637,8	711,6
638,3	706,4
638,7	687,6
639,2	699
639,6	701,2
640	678,4
640,5	685,6
640,9	682,2
641,4	682,4
641,8	675,6
642,2	691,4
642,7	649,6
643,1	660,2
643,6	681,8
644	680,4
644,5	633,2
644,9	659
645,3	639,2
645,8	640
646,2	625
646,7	651,4
647,1	613,4
647,6	636,6
648	640,8
648,4	614
648,9	615,4
649,3	621,6
649,8	615,4
650,2	620
650,6	604,8
651,1	601,8
651,5	628,4
652	601
652,4	597,4
652,9	585,8
653,3	580,6
653,7	595
654,2	574,8
654,6	589
655,1	551,8
655,5	587,6
655,9	546,4
656,4	569,4
656,8	557,8
657,3	579,2
657,7	576,4
658,2	539,6
658,6	537,2
659	537,2
659,5	557,4
659,9	532,6
660,4	539,4
660,8	552,8
661,2	539,8
661,7	543,6
662,1	544
662,6	528,8
663	528,4
663,4	524,6
663,9	524,8
664,3	503,8
664,8	519
665,2	473
665,6	494,6
666,1	506,8
666,5	518,8
667	478
667,4	495,8
667,9	498,2
668,3	480,2
668,7	476,6
669,2	467,2
669,6	481
670,1	478,6
670,5	476,6
670,9	457
671,4	469,2
671,8	468,6
672,3	493
672,7	460
673,1	474,6
673,6	440,6
674	454,6
674,5	445,8
674,9	473,4
675,3	435,6
675,8	464,8
676,2	457,4
676,7	437
677,1	426
677,5	438
678	457,4
678,4	465,2
678,9	427
679,3	425,6
679,7	411,6
680,2	430,4
680,6	421,4
681,1	399,8
681,5	422,6
681,9	407
682,4	407,6
682,8	401
683,3	396,8
683,7	390,4
684,1	411,2
684,6	398,4
685	379,4
685,5	398,2
685,9	390
686,3	392
686,8	413,8
687,2	388,8
687,7	373,8
688,1	386,2
688,5	375,8
689	402,2
689,4	387,8
689,9	375,4
690,3	373,4
690,7	382,8
691,2	344,2
691,6	386
692	374
692,5	376,6
692,9	384,8
693,4	364,4
693,8	380,8
694,2	351,2
694,7	369,2
695,1	357,2
695,6	348,6
696	334,4
696,4	339
696,9	334,6
697,3	364,6
697,8	343
698,2	344,4
698,6	357,8
699,1	361,6
699,5	362,4
699,9	332
700,4	343
700,8	344,4
701,3	334,4
701,7	322,2
702,1	314,8
702,6	341,6
703	331,2
703,5	319,8
703,9	335,2
704,3	327
704,8	324,4
705,2	328
705,6	331,4
706,1	315
706,5	300,6
707	331,6
707,4	299,8
707,8	298,2
708,3	289,6
708,7	295,8
709,2	305
709,6	321,8
710	313,4
710,5	315
710,9	286,4
711,3	306,2
711,8	294,2
712,2	278
712,7	298,6
713,1	294,4
713,5	285
714	286,8
714,4	299,6
714,8	296,6
715,3	266,8
715,7	281,6
716,2	275,6
716,6	284
717	274,4
717,5	287,8
717,9	281,2
718,3	273,6
718,8	287,2
719,2	259,2
719,7	239,6
720,1	269
720,5	282,8
721	268,2
721,4	264,2
721,8	280,2
722,3	255,2
722,7	259,4
723,2	271
723,6	245,4
724	242,4
724,5	253,6
724,9	262,6
725,3	259
725,8	263
726,2	246
726,7	249,4
727,1	252,8
727,5	233,8
728	237
728,4	263,6
728,8	235,6
729,3	228,8
729,7	227,8
730,1	221,2
730,6	249
731	244,8
731,5	245,4
731,9	220,4
732,3	249,4
732,8	232,4
733,2	228,8
733,6	218
734,1	234
734,5	246,2
734,9	239,4
735,4	235,6
735,8	230,8
736,3	229
736,7	222,2
737,1	229,8
737,6	233,8
738	232,6
738,4	206,6
738,9	232,8
739,3	234,2
739,7	225,8
740,2	229,6
740,6	211,2
741,1	227,8
741,5	214
741,9	221
742,4	215
742,8	224,2
743,2	211,4
743,7	221,8
744,1	220,2
744,5	234,6
745	204,2
745,4	211,6
745,8	210,6
746,3	205,8
746,7	207,4
747,2	202,6
747,6	238,4
748	215,4
748,5	210,6
748,9	213
749,3	180,8
749,8	203,4
750,2	217
750,6	197,8
751,1	202
751,5	193,4
751,9	198,8
752,4	179,2
752,8	179
753,3	201,8
753,7	194
754,1	180,6
754,6	172,6
755	190,4
755,4	186
755,9	187,4
756,3	202,4
756,7	217,8
757,2	177,6
757,6	181
758	182,8
758,5	180,4
758,9	172,4
759,3	177,8
759,8	174,2
760,2	169,6
760,6	181
761,1	175,6
761,5	176,2
761,9	164,6
762,4	181,4
762,8	164
763,3	202,8
763,7	180,4
764,1	170,8
764,6	173
765	162,2
765,4	160,4
765,9	170,6
766,3	138,2
766,7	153
767,2	157,6
767,6	174,4
768	160,2
768,5	192,4
768,9	172
769,3	164,8
769,8	154,2
770,2	152,8
770,6	154,4
771,1	136,8
771,5	165,6
771,9	150,2
772,4	168,6
772,8	156,6
773,2	162,6
773,7	170,8
774,1	172
774,5	149,4
775	145
775,4	144,4
775,8	148
776,3	171,4
776,7	161,2
777,1	159,8
777,6	135,4
778	147,8
778,4	169,6
778,9	140
779,3	152,6
779,7	149
780,2	153
780,6	136,8
781	150,6
781,5	154,8
781,9	142,6
782,3	140,6
782,8	143,8
783,2	126,2
783,6	142
784,1	127
784,5	144
784,9	150,6
785,4	139,6
785,8	112,2
786,2	142,8
786,7	139,2
787,1	138
787,5	132,6
788	132
788,4	131,4
788,8	147,8
789,3	151
789,7	139,4
790,1	153,2
790,6	116,4
791	150,4
791,4	127,2
791,9	150,4
792,3	133,6
792,7	121,4
793,2	136,8
793,6	130,2
794	131,8
794,5	130,2
794,9	115,4
795,3	143,2
795,8	135,8
796,2	126,4
796,6	117,2
797,1	128,6
797,5	120,2
797,9	123
798,4	124
798,8	122
799,2	118,6
799,7	110,8
800,1	122,8
800,5	138
801	101,4
801,4	113,2
801,8	106,8
802,2	108,2
802,7	124
803,1	115,2
803,5	135,4
804	112,2
804,4	113
804,8	111,4
805,3	118,8
805,7	92
806,1	103,4
806,6	119,2
807	112,4
807,4	119,6
807,9	109,8
808,3	120
808,7	109,8
809,2	109,8
809,6	107
810	114,6
810,4	119,6
810,9	99
811,3	153,6
811,7	97,6
812,2	92,6
812,6	74,2
813	106
813,5	116,6
813,9	106,4
814,3	94
814,8	112,2
815,2	93,8
815,6	96,6
816,1	99,2
816,5	109,8
816,9	111,8
817,3	98,8
817,8	108,8
818,2	124,2
818,6	96,8
819,1	119,8
819,5	96
819,9	118,2
820,4	81
820,8	93,4
821,2	108,6
821,7	116
822,1	89,4
822,5	78,2
822,9	93
823,4	78,2
823,8	86,4
824,2	85,2
824,7	108,6
825,1	101
825,5	83,6
826	87
826,4	98,6
826,8	99,2
827,3	104,6
827,7	80,6
828,1	96,6
828,5	109,6
829	90,6
829,4	110,8
829,8	79,6
830,3	92
830,7	65,6
831,1	85,4
831,6	88,6
832	91,2
832,4	84,8
832,8	87,8
833,3	94,4
833,7	66
834,1	87
834,6	101,8
835	79,2
835,4	69,8
835,8	74,4
836,3	65,4
836,7	116
837,1	67,8
837,6	79,2
838	92,8
838,4	84
838,9	71,8
839,3	63,4
839,7	77,6
840,1	60
840,6	102,2
841	72,2
841,4	53,6
841,9	86,2
842,3	92,2
842,7	76,2
843,1	88,8
843,6	77,4
844	74,8
844,4	66,4
844,9	80,4
845,3	61,4
845,7	95,8
846,2	61,6
846,6	78,6
847	77,6
847,4	80,8
847,9	83,6
848,3	84,6
848,7	85,2
849,2	87,6
849,6	80,8
850	78,2
850,4	74,2
850,9	64,8
851,3	75,6
851,7	80,4
852,2	62,4
852,6	76,2
853	54,4
853,4	89,8
853,9	65,2
854,3	84,8
854,7	67,8
855,2	63,4
855,6	50,8
856	68,4
856,4	91,8
856,9	85,4
857,3	62,2
857,7	77,6
858,2	72
858,6	70,2
859	76,6
859,4	82,8
859,9	56
860,3	58,4
860,7	80,6
861,1	48,8
861,6	80,6
862	55,4
862,4	70,6
862,9	53,6
863,3	54,8
863,7	78
864,1	69,4
864,6	53
865	90,2
865,4	71,8
865,9	76,2
866,3	74,6
866,7	54,2
867,1	74
867,6	59,8
868	68,2
868,4	82,2
868,8	65,2
869,3	74
869,7	47,2
870,1	83,4
870,6	54,2
871	59,6
871,4	74
871,8	68,4
872,3	327,4
872,7	50,2
873,1	64
873,5	67,8
874	57
874,4	79,4
874,8	71,2
875,3	76,2
875,7	76,2
876,1	72,2
876,5	59
877	64,8
877,4	48,6
877,8	78,2
878,2	52,8
878,7	54,6
879,1	67,6
879,5	65,8
879,9	46,4
880,4	69,2
880,8	58,2
881,2	48,6
881,7	56,2
882,1	58,2
882,5	38,6
882,9	59,4
883,4	70,8
883,8	48,4
884,2	63,4
884,6	65,4
885,1	57
885,5	68
885,9	52,2
886,3	61,2
886,8	35,4
887,2	39,6
887,6	51,8
888	56
888,5	49,4
888,9	53
889,3	47,4
889,8	66,4
890,2	58,4
890,6	69,4
891	66,6
891,5	72,6
891,9	53
892,3	47,6
892,7	57,8
893,2	67
893,6	40
894	60
894,4	29,6
894,9	65,8
895,3	48,8
895,7	51,6
896,1	53,2
896,6	67,8
897	44,6
897,4	86,6
897,8	51,4
898,3	54
898,7	50,6
899,1	48
899,5	60,4
900	50,6
900,4	59,6
900,8	51,6
901,2	64,4
901,7	67,4
902,1	52,4
902,5	60,8
902,9	50,8
903,4	41,4
903,8	47
904,2	52,4
904,6	65
905,1	41,4
905,5	26,4
905,9	67
906,3	41
906,8	69
907,2	41,6
907,6	50,2
908	33,4
908,5	47,2
908,9	32,4
909,3	63
909,7	43
910,2	65,6
910,6	59
911	41,2
911,4	34
911,9	49
912,3	49,8
912,7	66,2
913,1	35,8
913,6	48,8
914	31,4
914,4	60,8
914,8	48
915,3	44,6
915,7	62,2
916,1	37,4
916,5	33
916,9	37
917,4	51
917,8	64,2
918,2	62,6
918,6	30,4
919,1	57,2
919,5	52,2
919,9	52,8
920,3	34,8
920,8	59,4
921,2	49,6
921,6	47,6
922	48,6
922,5	38,2
922,9	40,4
923,3	43,4
923,7	57,4
924,2	32
924,6	40
925	52
925,4	48,8
925,8	48,6
926,3	52,6
926,7	31,6
927,1	56,2
927,5	30,4
928	52,2
928,4	53,4
928,8	28,2
929,2	50,6
929,7	43,6
930,1	43,4
930,5	28,8
930,9	57,2
931,3	58,8
931,8	30,2
932,2	55,8
932,6	50
933	46,8
933,5	55,6
933,9	55,2
934,3	49,6
934,7	44,4
935,2	50,6
935,6	48,2
936	43,8
936,4	37,8
936,8	39,4
937,3	52
937,7	53
938,1	35,8
938,5	50,8
939	58
939,4	49,6
939,8	53
940,2	26,4
940,6	51,4
941,1	40,8
941,5	31,4
941,9	41,4
942,3	34,8
942,8	47,2
943,2	52,6
943,6	42
944	64,6
944,4	46,6
944,9	45,4
945,3	48,8
945,7	46,4
946,1	47,6
946,6	33,8
947	33,2
947,4	51
947,8	52
948,2	58,2
948,7	48,4
949,1	44,6
949,5	56,4
949,9	49,4
950,3	45,2
950,8	49
951,2	43
951,6	62,6
952	45,2
952,5	50,2
952,9	41,4
953,3	22
953,7	33,8
954,1	41,6
954,6	38,6
955	48,4
955,4	48,8
955,8	32,2
956,2	49,8
956,7	15
957,1	46,2
957,5	20,8
957,9	54
958,3	55,6
958,8	30,2
959,2	46,4
959,6	62,8
960	22
960,5	48,8
960,9	22,4
961,3	45
961,7	65,2
962,1	35,2
962,6	40,6
963	46,8
963,4	62,6
963,8	40,8
964,2	46,8
964,7	34,6
965,1	45,6
965,5	50,4
965,9	44,2
966,3	65,2
966,8	54
967,2	36,8
967,6	40,2
968	42,8
968,4	41,4
968,9	50,8
969,3	40,6
969,7	41,8
970,1	44
970,5	61,2
971	40,6
971,4	31
971,8	30,2
972,2	29,2
972,6	54
973,1	55,8
973,5	26,8
973,9	34,6
974,3	53
974,7	41,2
975,2	60,4
975,6	18
976	37,8
976,4	60,8
976,8	31,8
977,3	40,2
977,7	34,8
978,1	54,2
978,5	34,4
978,9	29,2
979,4	52,4
979,8	33,2
980,2	38
980,6	50,2
981	35,8
981,5	27
981,9	37,8
982,3	13
982,7	57
983,1	29,2
983,6	31,6
984	32,2
984,4	23,2
984,8	42
985,2	54,8
985,6	52,8
986,1	46,6
986,5	17,6
986,9	57,2
987,3	53
987,7	46,8
988,2	51,4
988,6	58
989	62,6
989,4	67,2
989,8	45,8
990,3	48,2
990,7	35,4
991,1	39,4
991,5	45,6
991,9	36,2
992,3	48,6
992,8	35,2
993,2	39,4
993,6	47,8
994	38,6
994,4	47,2
994,9	35,8
995,3	47,8
995,7	48,4
996,1	38,4
996,5	46,8
996,9	45,6
997,4	49
997,8	47,2
998,2	43,8
998,6	63,6
999	44,6
999,5	28
999,9	56,6
1000,3	56
1000,7	61,4
1001,1	36,2
1001,5	46,6
1002	33,4
1002,4	47,2
1002,8	48,6
1003,2	58,2
1003,6	68,2
1004	41
1004,5	55,8
1004,9	64,8
1005,3	39
1005,7	29
1006,1	55,8
1006,6	54,4
1007	63,4
1007,4	55,4
1007,8	39,6
1008,2	45,2
1008,6	40,4
1009,1	53
1009,5	34
1009,9	43,6
1010,3	42,4
1010,7	44,8
1011,1	37,4
1011,6	58,2
1012	20,8
1012,4	47,2
1012,8	32
1013,2	40,8
1013,6	20,2
1014,1	35,4
1014,5	54
1014,9	39,4
1015,3	39,2
1015,7	30,2
1016,1	52
1016,6	52,4
1017	32,6
1017,4	63,2
1017,8	50,6
1018,2	55,2
1018,6	54,6
1019,1	59,6
1019,5	32,2
1019,9	67,4
1020,3	41
1020,7	69,6
1021,1	52
1021,6	33,2
1022	36,8
1022,4	45
1022,8	42,8
1023,2	60,4
1023,6	45,8
1024,1	50,4
1024,5	32,6
1024,9	36,4
1025,3	38,8
1025,7	31,6
1026,1	28,8
1026,6	44,6
1027	58
1027,4	36,6
1027,8	56,4
1028,2	56,6
1028,6	51,8
1029	53,6
1029,5	60,8
1029,9	34,8
1030,3	49
1030,7	39,8
1031,1	22,8
1031,5	40,4
1032	38,4
1032,4	61,4
1032,8	52
1033,2	26
1033,6	29,2
1034	52
1034,4	48,8
1034,9	33,2
1035,3	39,8
1035,7	41,2
1036,1	38,6
1036,5	42,8
1036,9	47
1037,4	41,6
1037,8	40
1038,2	47,8
1038,6	68,4
1039	49,6
1039,4	43,6
1039,8	33
1040,3	57
1040,7	41
1041,1	56,2
1041,5	40,6
1041,9	61,6
1042,3	52,2
1042,7	55,6
1043,2	25,8
1043,6	65
1044	41
1044,4	55,6
1044,8	58,2
1045,2	53,2
1045,6	58,4
1046,1	48,6
1046,5	34,4
1046,9	51,6
1047,3	66,2
1047,7	60,8
1048,1	52,4
1048,5	73,4
1049	56,6
1049,4	51
1049,8	54
1050,2	59,4
1050,6	36
1051	44,6
1051,4	38,4
1051,9	65,4
1052,3	49
1052,7	56,6
1053,1	62,6
1053,5	72,8
1053,9	50,8
1054,3	48,6
1054,8	32,2
1055,2	60
1055,6	61,4
1056	72
1056,4	41,4
1056,8	43,6
1057,2	49,8
1057,6	57,6
1058,1	45,4
1058,5	84
1058,9	43
1059,3	45,2
1059,7	51,8
1060,1	59,8
1060,5	43,2
1061	58,4
1061,4	51,6
1061,8	60,4
1062,2	52,6
1062,6	59,8
1063	46,8
1063,4	55,2
1063,8	42,2
1064,3	32,2
1064,7	44
1065,1	56,4
1065,5	66
1065,9	54,4
1066,3	44,4
1066,7	31
1067,1	51,4
1067,6	71,8
1068	33,8
1068,4	49
1068,8	29,2
1069,2	43,4
1069,6	33,2
1070	31,2
1070,4	50,2
1070,9	38,8
1071,3	46,6
1071,7	39,2
1072,1	47,6
1072,5	31,4
1072,9	55
1073,3	45,4
1073,7	40,6
1074,2	44
1074,6	24,2
1075	67,6
1075,4	52,6
1075,8	36,2
1076,2	39,2
1076,6	42,4
1077	48
1077,5	50,8
1077,9	37,6
1078,3	50,8
1078,7	46,6
1079,1	55
1079,5	66,4
1079,9	65,4
1080,3	62,2
1080,7	57,6
1081,2	36,8
1081,6	26
1082	46,6
1082,4	46,4
1082,8	48,8
1083,2	50
1083,6	34,2
1084	40,8
1084,5	40,2
1084,9	30,8
1085,3	64,8
1085,7	65,8
1086,1	38,6
1086,5	59,2
1086,9	39,6
1087,3	47,4
1087,7	34,2
1088,2	27,4
1088,6	28
1089	54,2
1089,4	23,2
1089,8	47,4
1090,2	42,8
1090,6	25,8
1091	50,6
1091,4	17
1091,9	46,4
1092,3	44
1092,7	38,2
1093,1	24,2
1093,5	29,6
1093,9	27,8
1094,3	34,4
1094,7	30,8
1095,1	40
1095,5	42,2
1096	38,8
1096,4	60,6
1096,8	44,6
1097,2	45
1097,6	43,6
1098	23,6
1098,4	32,6
1098,8	39,4
1099,2	32,4
1099,6	27,2
1100,1	36,4
1100,5	35,4
1100,9	16,6
1101,3	31
1101,7	33,4
1102,1	28
1102,5	41,4
1102,9	31,4
1103,3	16,2
1103,7	23
1104,2	55,8
1104,6	27,8
1105	30,2
1105,4	33,2
1105,8	32,8
1106,2	20,2
1106,6	10,6
1107	0,8
1107,4	-1,2
1107,8	-0,2
1108,3	0,8
