Data from Subt2_00005.txt Node
Date: Fri Jul 14 14:53:25 MSK 2023
User: vat
Spectrometer: MAYP114033
Trigger mode: 0
Integration Time (sec): 5,000000E-1
Scans to average: 5
Electric dark correction enabled: true
Nonlinearity correction enabled: false
Boxcar width: 0
XAxis mode: Wavelengths
Number of Pixels in Spectrum: 2068
>>>>>Begin Spectral Data<<<<<
199,4	4,433
199,9	-1,367
200,4	-0,767
200,8	2,033
201,3	9,233
201,8	38,433
202,2	30,233
202,7	23,633
203,2	35,433
203,6	22,033
204,1	30,033
204,6	40,033
205	52,233
205,5	29,833
206	27,233
206,4	40,033
206,9	28,233
207,4	37,033
207,8	50,633
208,3	34,633
208,8	58,233
209,2	37,433
209,7	32,633
210,2	72,433
210,6	32,433
211,1	38,633
211,5	35,633
212	50,833
212,5	59,433
212,9	37,833
213,4	59,833
213,9	47,033
214,3	26,833
214,8	34,233
215,3	38,633
215,7	67,433
216,2	46,433
216,7	39,233
217,1	47,433
217,6	51,033
218,1	57,433
218,5	41,833
219	54,433
219,5	47,433
219,9	56,233
220,4	47,233
220,9	68,033
221,3	54,433
221,8	55,033
222,3	37,433
222,7	49,633
223,2	65,233
223,6	42,233
224,1	42,233
224,6	49,233
225	58,833
225,5	39,433
226	64,433
226,4	36,833
226,9	42,833
227,4	35,433
227,8	57,833
228,3	45,033
228,8	53,633
229,2	64,233
229,7	45,633
230,2	48,633
230,6	68,633
231,1	39,833
231,5	36,833
232	59,033
232,5	56,033
232,9	57,033
233,4	66,233
233,9	62,433
234,3	44,633
234,8	58,633
235,3	44,833
235,7	53,633
236,2	40,633
236,7	67,233
237,1	57,233
237,6	60,833
238,1	56,833
238,5	57,033
239	63,233
239,4	47,833
239,9	56,633
240,4	72,433
240,8	28,033
241,3	50,233
241,8	41,833
242,2	48,033
242,7	55,033
243,2	49,233
243,6	55,233
244,1	58,833
244,6	69,033
245	46,233
245,5	54,633
245,9	53,233
246,4	57,633
246,9	66,033
247,3	39,433
247,8	32,033
248,3	63,633
248,7	50,833
249,2	30,633
249,7	48,033
250,1	42,633
250,6	49,233
251	44,233
251,5	67,433
252	35,433
252,4	71,233
252,9	50,433
253,4	44,033
253,8	57,633
254,3	51,233
254,8	30,233
255,2	56,633
255,7	71,033
256,1	53,633
256,6	62,433
257,1	56,833
257,5	47,033
258	59,433
258,5	59,633
258,9	60,233
259,4	62,633
259,9	42,433
260,3	67,433
260,8	65,233
261,2	69,433
261,7	40,633
262,2	61,033
262,6	56,633
263,1	51,033
263,6	54,633
264	40,233
264,5	46,433
264,9	70,633
265,4	61,233
265,9	43,233
266,3	36,833
266,8	34,233
267,3	25,433
267,7	32,633
268,2	67,033
268,7	51,633
269,1	56,633
269,6	32,233
270	46,433
270,5	63,433
271	60,833
271,4	42,633
271,9	54,433
272,4	36,233
272,8	55,033
273,3	64,833
273,7	36,033
274,2	49,633
274,7	60,033
275,1	73,633
275,6	35,833
276,1	56,033
276,5	39,833
277	51,833
277,4	56,433
277,9	47,233
278,4	39,233
278,8	53,033
279,3	61,633
279,8	47,833
280,2	47,833
280,7	57,433
281,1	48,033
281,6	41,033
282,1	45,433
282,5	57,433
283	51,433
283,4	45,833
283,9	44,233
284,4	33,033
284,8	47,633
285,3	26,033
285,8	48,833
286,2	51,033
286,7	64,633
287,1	30,633
287,6	45,233
288,1	75,433
288,5	38,233
289	65,633
289,5	38,033
289,9	38,033
290,4	48,233
290,8	62,033
291,3	51,233
291,8	50,633
292,2	52,633
292,7	58,833
293,1	52,033
293,6	50,033
294,1	57,433
294,5	58,833
295	87,633
295,5	55,233
295,9	62,833
296,4	18,433
296,8	39,833
297,3	45,433
297,8	63,233
298,2	31,433
298,7	58,233
299,1	48,233
299,6	43,233
300,1	45,433
300,5	38,433
301	46,033
301,5	40,233
301,9	54,433
302,4	67,833
302,8	66,633
303,3	48,233
303,8	44,233
304,2	59,433
304,7	53,233
305,1	43,033
305,6	58,433
306,1	52,633
306,5	44,433
307	57,033
307,4	70,633
307,9	51,633
308,4	41,833
308,8	33,033
309,3	51,833
309,8	50,033
310,2	37,433
310,7	61,833
311,1	58,833
311,6	35,433
312,1	52,833
312,5	44,633
313	50,033
313,4	39,433
313,9	54,233
314,4	81,433
314,8	48,433
315,3	46,033
315,7	69,633
316,2	49,433
316,7	58,033
317,1	57,433
317,6	51,233
318	56,233
318,5	64,833
319	38,233
319,4	58,633
319,9	57,833
320,3	57,833
320,8	57,433
321,3	48,633
321,7	56,233
322,2	67,033
322,6	41,033
323,1	49,233
323,6	43,833
324	45,633
324,5	56,833
324,9	47,433
325,4	49,233
325,9	55,633
326,3	65,233
326,8	44,033
327,2	70,433
327,7	62,633
328,2	42,033
328,6	52,033
329,1	50,833
329,5	63,233
330	66,633
330,5	52,233
330,9	59,833
331,4	21,233
331,8	59,233
332,3	55,833
332,8	50,233
333,2	50,033
333,7	65,633
334,1	30,833
334,6	40,033
335,1	25,833
335,5	53,033
336	41,633
336,4	52,633
336,9	54,833
337,4	42,033
337,8	44,833
338,3	47,433
338,7	45,033
339,2	49,233
339,7	53,233
340,1	45,833
340,6	48,433
341	76,033
341,5	51,033
342	41,233
342,4	46,833
342,9	50,833
343,3	50,833
343,8	50,633
344,2	61,833
344,7	36,633
345,2	41,033
345,6	57,033
346,1	38,633
346,5	59,633
347	64,833
347,5	45,633
347,9	71,833
348,4	53,833
348,8	67,233
349,3	46,633
349,8	38,433
350,2	33,233
350,7	42,633
351,1	51,633
351,6	40,833
352	71,033
352,5	59,233
353	58,633
353,4	84,233
353,9	77,233
354,3	63,633
354,8	56,033
355,3	68,433
355,7	81,233
356,2	64,833
356,6	86,433
357,1	68,033
357,5	99,833
358	76,033
358,5	129,433
358,9	114,833
359,4	135,433
359,8	144,833
360,3	154,633
360,8	158,433
361,2	205,633
361,7	211,233
362,1	237,633
362,6	253,833
363	304,633
363,5	314,833
364	356,033
364,4	388,233
364,9	410,433
365,3	443,833
365,8	487,833
366,3	508,033
366,7	523,233
367,2	557,433
367,6	571,433
368,1	608,833
368,5	619,033
369	615,433
369,5	606,033
369,9	627,033
370,4	588,633
370,8	576,633
371,3	570,633
371,7	564,233
372,2	522,433
372,7	520,033
373,1	483,433
373,6	447,033
374	443,433
374,5	417,433
374,9	395,633
375,4	364,433
375,9	331,833
376,3	306,233
376,8	299,433
377,2	272,633
377,7	255,633
378,2	245,833
378,6	228,233
379,1	205,833
379,5	188,433
380	183,633
380,4	163,633
380,9	177,433
381,4	156,033
381,8	161,433
382,3	132,033
382,7	138,633
383,2	124,633
383,6	115,233
384,1	126,433
384,6	101,033
385	111,433
385,5	79,033
385,9	110,033
386,4	81,033
386,8	107,633
387,3	112,233
387,7	86,033
388,2	82,633
388,7	80,233
389,1	75,033
389,6	69,433
390	89,033
390,5	48,033
390,9	64,633
391,4	63,033
391,9	70,833
392,3	65,833
392,8	82,433
393,2	72,433
393,7	37,233
394,1	68,833
394,6	69,233
395,1	59,433
395,5	76,233
396	38,433
396,4	73,233
396,9	69,833
397,3	55,233
397,8	57,033
398,2	46,833
398,7	65,233
399,2	53,033
399,6	69,833
400,1	44,233
400,5	63,833
401	57,233
401,4	58,233
401,9	54,633
402,4	97,033
402,8	54,033
403,3	53,033
403,7	74,033
404,2	62,833
404,6	59,433
405,1	36,033
405,5	72,233
406	54,833
406,5	51,433
406,9	65,433
407,4	64,633
407,8	70,233
408,3	63,033
408,7	67,633
409,2	66,833
409,6	74,633
410,1	71,433
410,6	75,433
411	61,033
411,5	58,433
411,9	92,433
412,4	72,033
412,8	81,233
413,3	104,633
413,7	98,033
414,2	83,233
414,7	87,833
415,1	106,833
415,6	96,833
416	71,433
416,5	127,633
416,9	102,633
417,4	110,833
417,8	112,633
418,3	119,033
418,8	92,233
419,2	123,633
419,7	126,033
420,1	112,833
420,6	115,433
421	142,033
421,5	127,433
421,9	126,633
422,4	151,433
422,8	145,833
423,3	137,833
423,8	128,633
424,2	169,633
424,7	148,233
425,1	136,633
425,6	150,033
426	146,033
426,5	154,233
426,9	186,833
427,4	179,433
427,9	180,433
428,3	187,433
428,8	209,233
429,2	220,833
429,7	213,033
430,1	227,433
430,6	212,433
431	229,033
431,5	246,633
431,9	250,833
432,4	263,433
432,8	286,433
433,3	262,233
433,8	281,633
434,2	311,433
434,7	322,833
435,1	338,633
435,6	344,633
436	335,633
436,5	387,633
436,9	406,433
437,4	394,033
437,8	415,633
438,3	438,833
438,8	463,433
439,2	458,833
439,7	492,433
440,1	511,633
440,6	554,833
441	554,433
441,5	616,433
441,9	619,433
442,4	644,433
442,8	666,433
443,3	685,633
443,7	721,433
444,2	756,233
444,7	776,233
445,1	796,233
445,6	831,233
446	857,033
446,5	912,433
446,9	967,833
447,4	981,233
447,8	1028,033
448,3	1054,233
448,7	1092,233
449,2	1113,633
449,6	1170,633
450,1	1217,233
450,6	1255,233
451	1282,433
451,5	1341,633
451,9	1378,833
452,4	1423,433
452,8	1499,433
453,3	1505,633
453,7	1589,033
454,2	1611,033
454,6	1690,633
455,1	1725,233
455,5	1779,633
456	1817,433
456,4	1883,633
456,9	1942,233
457,3	1997,833
457,8	2047,633
458,3	2096,633
458,7	2156,833
459,2	2217,833
459,6	2279,433
460,1	2345,833
460,5	2410,633
461	2417,633
461,4	2511,633
461,9	2600,833
462,3	2628,233
462,8	2683,433
463,2	2737,633
463,7	2819,033
464,1	2853,833
464,6	2931,233
465	2972,633
465,5	3067,633
466	3146,633
466,4	3168,433
466,9	3233,033
467,3	3287,633
467,8	3389,833
468,2	3425,033
468,7	3486,633
469,1	3569,033
469,6	3626,433
470	3672,033
470,5	3754,833
470,9	3807,633
471,4	3869,833
471,8	3896,833
472,3	3967,433
472,7	4031,633
473,2	4100,633
473,6	4162,033
474,1	4220,033
474,5	4258,633
475	4318,433
475,4	4370,633
475,9	4414,433
476,4	4480,233
476,8	4515,033
477,3	4581,033
477,7	4635,433
478,2	4664,633
478,6	4781,233
479,1	4769,833
479,5	4844,833
480	4842,633
480,4	4881,833
480,9	4951,233
481,3	4969,433
481,8	5059,633
482,2	5063,433
482,7	5113,633
483,1	5138,433
483,6	5191,033
484	5211,033
484,5	5281,033
484,9	5261,033
485,4	5285,833
485,8	5332,233
486,3	5365,033
486,7	5349,433
487,2	5381,233
487,6	5435,433
488,1	5424,033
488,5	5488,233
489	5476,233
489,4	5483,033
489,9	5503,633
490,4	5489,833
490,8	5498,233
491,3	5527,433
491,7	5553,633
492,2	5542,433
492,6	5542,233
493,1	5545,233
493,5	5547,433
494	5500,833
494,4	5547,233
494,9	5536,433
495,3	5530,833
495,8	5547,833
496,2	5531,833
496,7	5505,633
497,1	5517,233
497,6	5520,633
498	5501,433
498,5	5489,633
498,9	5450,833
499,4	5474,433
499,8	5410,033
500,3	5389,033
500,7	5408,233
501,2	5440,433
501,6	5370,233
502,1	5409,833
502,5	5355,433
503	5298,033
503,4	5306,233
503,9	5289,633
504,3	5287,033
504,8	5272,233
505,2	5240,433
505,7	5200,033
506,1	5207,233
506,6	5123,033
507	5119,233
507,5	5093,833
507,9	5020,033
508,4	5080,433
508,8	5034,233
509,3	5052,233
509,7	5000,833
510,2	4946,633
510,6	4915,633
511,1	4915,833
511,5	4862,833
512	4827,833
512,4	4842,433
512,9	4782,433
513,3	4733,433
513,8	4721,033
514,2	4699,233
514,7	4649,833
515,1	4596,433
515,6	4596,033
516	4524,233
516,5	4492,433
516,9	4473,233
517,4	4412,633
517,8	4396,233
518,3	4366,433
518,7	4360,433
519,2	4305,633
519,6	4296,033
520,1	4229,833
520,5	4206,433
521	4197,433
521,4	4146,433
521,9	4091,833
522,3	4039,433
522,8	4010,033
523,2	4031,433
523,7	3978,633
524,1	3939,433
524,6	3893,233
525	3884,233
525,5	3834,233
525,9	3834,233
526,4	3792,233
526,8	3773,833
527,3	3721,833
527,7	3696,833
528,2	3646,033
528,6	3646,633
529,1	3613,033
529,5	3600,833
530	3580,633
530,4	3507,433
530,9	3496,633
531,3	3465,433
531,8	3457,633
532,2	3399,633
532,6	3374,233
533,1	3364,433
533,5	3351,633
534	3317,033
534,4	3264,633
534,9	3231,833
535,3	3213,233
535,8	3202,433
536,2	3163,833
536,7	3163,633
537,1	3106,233
537,6	3077,833
538	3034,233
538,5	3036,433
538,9	3001,033
539,4	2971,833
539,8	2963,833
540,3	2928,033
540,7	2941,033
541,2	2884,633
541,6	2875,033
542,1	2847,833
542,5	2837,233
543	2797,833
543,4	2782,033
543,9	2781,233
544,3	2761,833
544,8	2701,233
545,2	2702,633
545,7	2713,633
546,1	2671,033
546,5	2627,833
547	2615,233
547,4	2612,233
547,9	2564,833
548,3	2568,233
548,8	2547,433
549,2	2524,033
549,7	2485,033
550,1	2503,233
550,6	2502,633
551	2440,833
551,5	2423,033
551,9	2424,233
552,4	2416,233
552,8	2380,233
553,3	2406,433
553,7	2362,833
554,2	2344,233
554,6	2331,833
555,1	2316,433
555,5	2270,633
555,9	2294,633
556,4	2270,633
556,8	2228,633
557,3	2219,433
557,7	2224,233
558,2	2213,433
558,6	2163,233
559,1	2202,633
559,5	2139,633
560	2183,433
560,4	2130,233
560,9	2140,233
561,3	2134,033
561,8	2093,633
562,2	2099,433
562,7	2082,833
563,1	2063,833
563,6	2017,433
564	2016,833
564,4	2010,633
564,9	2010,233
565,3	1988,633
565,8	1976,633
566,2	1984,233
566,7	1936,833
567,1	1992,433
567,6	1946,433
568	1970,033
568,5	1958,433
568,9	1885,633
569,4	1889,633
569,8	1869,433
570,3	1845,233
570,7	1874,833
571,1	1861,633
571,6	1809,433
572	1865,033
572,5	1843,033
572,9	1817,433
573,4	1807,433
573,8	1771,833
574,3	1792,833
574,7	1753,233
575,2	1774,233
575,6	1774,233
576,1	1766,433
576,5	1737,233
576,9	1723,233
577,4	1700,633
577,8	1705,633
578,3	1680,433
578,7	1689,233
579,2	1671,233
579,6	1673,033
580,1	1649,833
580,5	1635,633
581	1638,233
581,4	1635,433
581,9	1628,033
582,3	1625,433
582,7	1610,233
583,2	1597,633
583,6	1569,833
584,1	1577,633
584,5	1556,233
585	1534,233
585,4	1561,833
585,9	1524,233
586,3	1539,633
586,8	1521,033
587,2	1506,433
587,6	1521,033
588,1	1495,233
588,5	1469,233
589	1485,033
589,4	1492,633
589,9	1471,833
590,3	1445,033
590,8	1457,233
591,2	1426,433
591,7	1405,633
592,1	1430,233
592,5	1390,033
593	1395,833
593,4	1399,433
593,9	1403,433
594,3	1413,233
594,8	1404,033
595,2	1392,433
595,7	1367,033
596,1	1372,433
596,6	1364,633
597	1364,633
597,4	1351,633
597,9	1348,633
598,3	1325,233
598,8	1320,833
599,2	1334,833
599,7	1311,833
600,1	1315,433
600,6	1295,833
601	1291,233
601,4	1289,233
601,9	1292,433
602,3	1272,433
602,8	1281,633
603,2	1295,233
603,7	1293,033
604,1	1251,233
604,6	1268,833
605	1237,633
605,4	1252,033
605,9	1240,633
606,3	1254,833
606,8	1223,233
607,2	1220,033
607,7	1204,633
608,1	1203,233
608,6	1179,233
609	1215,833
609,4	1193,633
609,9	1148,633
610,3	1172,233
610,8	1202,433
611,2	1157,233
611,7	1185,033
612,1	1170,433
612,6	1136,833
613	1135,433
613,4	1142,633
613,9	1134,633
614,3	1112,433
614,8	1122,833
615,2	1114,433
615,7	1111,233
616,1	1088,233
616,6	1087,633
617	1089,233
617,4	1084,033
617,9	1078,833
618,3	1066,833
618,8	1063,833
619,2	1059,433
619,7	1071,033
620,1	1042,433
620,5	1027,433
621	1025,833
621,4	1051,033
621,9	1040,433
622,3	1031,833
622,8	1028,433
623,2	1029,033
623,6	998,433
624,1	1013,233
624,5	995,833
625	1013,233
625,4	976,833
625,9	970,033
626,3	974,833
626,8	979,033
627,2	957,033
627,6	995,233
628,1	952,833
628,5	969,233
629	953,833
629,4	936,633
629,9	906,033
630,3	917,233
630,7	914,633
631,2	906,433
631,6	918,833
632,1	913,633
632,5	897,033
633	887,433
633,4	928,633
633,8	895,233
634,3	879,033
634,7	896,033
635,2	871,233
635,6	884,033
636,1	873,633
636,5	869,433
636,9	843,833
637,4	844,633
637,8	855,033
638,3	842,833
638,7	815,433
639,2	838,833
639,6	841,833
640	828,233
640,5	839,633
640,9	814,233
641,4	822,233
641,8	804,633
642,2	805,633
642,7	797,433
643,1	804,833
643,6	813,233
644	827,233
644,5	780,233
644,9	796,433
645,3	785,833
645,8	782,033
646,2	795,633
646,7	791,833
647,1	761,633
647,6	772,033
648	781,833
648,4	761,833
648,9	726,633
649,3	744,833
649,8	769,233
650,2	742,433
650,6	773,033
651,1	732,433
651,5	740,433
652	725,433
652,4	744,233
652,9	713,233
653,3	718,033
653,7	714,833
654,2	710,633
654,6	722,233
655,1	684,833
655,5	715,233
655,9	700,233
656,4	697,433
656,8	672,033
657,3	687,233
657,7	687,633
658,2	671,433
658,6	670,233
659	679,033
659,5	662,633
659,9	669,233
660,4	666,033
660,8	658,233
661,2	682,433
661,7	662,833
662,1	678,033
662,6	641,033
663	654,233
663,4	649,033
663,9	646,233
664,3	610,433
664,8	630,033
665,2	596,433
665,6	630,233
666,1	629,833
666,5	635,433
667	598,433
667,4	611,833
667,9	603,033
668,3	624,433
668,7	596,433
669,2	585,233
669,6	593,633
670,1	607,833
670,5	589,033
670,9	583,433
671,4	583,233
671,8	592,633
672,3	598,233
672,7	573,033
673,1	580,033
673,6	576,833
674	563,833
674,5	560,033
674,9	576,233
675,3	549,433
675,8	564,033
676,2	566,233
676,7	541,833
677,1	524,433
677,5	538,233
678	563,233
678,4	536,033
678,9	530,233
679,3	531,033
679,7	519,833
680,2	519,033
680,6	539,233
681,1	519,833
681,5	521,033
681,9	500,633
682,4	514,633
682,8	526,233
683,3	515,033
683,7	502,433
684,1	510,033
684,6	501,633
685	485,033
685,5	495,033
685,9	495,833
686,3	509,833
686,8	502,633
687,2	479,433
687,7	469,633
688,1	484,633
688,5	489,833
689	487,033
689,4	455,233
689,9	453,633
690,3	473,033
690,7	468,033
691,2	444,233
691,6	477,033
692	466,433
692,5	470,833
692,9	454,433
693,4	458,833
693,8	449,633
694,2	440,433
694,7	466,433
695,1	437,233
695,6	431,233
696	428,033
696,4	421,833
696,9	438,033
697,3	423,033
697,8	427,633
698,2	458,033
698,6	428,433
699,1	416,633
699,5	446,433
699,9	422,033
700,4	432,033
700,8	407,233
701,3	418,433
701,7	398,233
702,1	409,233
702,6	426,033
703	421,033
703,5	399,233
703,9	413,433
704,3	410,233
704,8	401,633
705,2	407,033
705,6	386,833
706,1	390,433
706,5	379,033
707	385,633
707,4	386,033
707,8	384,233
708,3	367,433
708,7	385,833
709,2	372,833
709,6	406,833
710	387,033
710,5	361,833
710,9	367,833
711,3	376,833
711,8	383,633
712,2	367,633
712,7	371,633
713,1	349,033
713,5	377,033
714	368,833
714,4	373,033
714,8	360,233
715,3	342,233
715,7	355,233
716,2	343,233
716,6	328,633
717	353,033
717,5	357,033
717,9	337,033
718,3	339,033
718,8	343,433
719,2	329,433
719,7	338,633
720,1	349,833
720,5	354,633
721	343,633
721,4	322,833
721,8	329,233
722,3	303,033
722,7	314,033
723,2	321,633
723,6	331,033
724	329,433
724,5	328,233
724,9	324,833
725,3	310,833
725,8	305,633
726,2	297,233
726,7	318,833
727,1	321,033
727,5	308,033
728	303,633
728,4	322,633
728,8	288,033
729,3	298,233
729,7	283,233
730,1	286,433
730,6	304,833
731	306,233
731,5	303,633
731,9	281,833
732,3	320,633
732,8	288,633
733,2	286,033
733,6	284,433
734,1	274,433
734,5	282,433
734,9	298,033
735,4	293,233
735,8	293,633
736,3	282,233
736,7	290,633
737,1	280,633
737,6	276,233
738	272,033
738,4	279,033
738,9	268,433
739,3	277,033
739,7	282,633
740,2	283,433
740,6	277,833
741,1	272,033
741,5	258,833
741,9	266,433
742,4	260,033
742,8	279,833
743,2	258,233
743,7	271,433
744,1	263,433
744,5	286,033
745	273,433
745,4	248,633
745,8	269,433
746,3	240,833
746,7	250,833
747,2	243,033
747,6	258,833
748	268,233
748,5	249,833
748,9	256,633
749,3	250,433
749,8	258,233
750,2	244,433
750,6	241,233
751,1	238,433
751,5	238,033
751,9	247,033
752,4	237,633
752,8	236,433
753,3	235,633
753,7	250,633
754,1	230,433
754,6	227,233
755	238,033
755,4	223,833
755,9	215,433
756,3	246,033
756,7	234,233
757,2	227,833
757,6	228,433
758	217,433
758,5	229,233
758,9	209,633
759,3	218,233
759,8	220,633
760,2	205,833
760,6	220,233
761,1	229,033
761,5	206,833
761,9	218,033
762,4	212,233
762,8	221,033
763,3	210,433
763,7	213,233
764,1	215,433
764,6	216,433
765	195,033
765,4	209,433
765,9	208,033
766,3	192,233
766,7	205,833
767,2	206,833
767,6	217,233
768	196,233
768,5	225,233
768,9	183,433
769,3	214,033
769,8	188,433
770,2	172,833
770,6	207,833
771,1	180,033
771,5	204,433
771,9	197,433
772,4	200,233
772,8	178,233
773,2	209,833
773,7	222,433
774,1	209,633
774,5	200,033
775	165,033
775,4	202,433
775,8	181,633
776,3	186,433
776,7	191,033
777,1	194,233
777,6	171,433
778	178,433
778,4	195,233
778,9	178,833
779,3	176,633
779,7	176,833
780,2	191,833
780,6	177,433
781	193,433
781,5	170,033
781,9	194,233
782,3	196,033
782,8	170,833
783,2	168,633
783,6	164,433
784,1	175,833
784,5	159,033
784,9	184,233
785,4	156,833
785,8	167,633
786,2	150,833
786,7	154,033
787,1	166,033
787,5	164,233
788	174,233
788,4	167,633
788,8	166,233
789,3	179,633
789,7	154,033
790,1	168,433
790,6	165,833
791	172,233
791,4	166,833
791,9	177,033
792,3	192,033
792,7	159,433
793,2	151,233
793,6	154,033
794	158,033
794,5	158,233
794,9	137,233
795,3	158,833
795,8	141,033
796,2	165,633
796,6	131,033
797,1	146,033
797,5	147,233
797,9	147,633
798,4	155,033
798,8	143,433
799,2	164,433
799,7	139,433
800,1	136,833
800,5	141,833
801	137,433
801,4	133,233
801,8	127,433
802,2	145,433
802,7	157,033
803,1	132,233
803,5	151,433
804	160,833
804,4	125,033
804,8	146,433
805,3	147,633
805,7	113,033
806,1	114,233
806,6	139,433
807	149,833
807,4	144,633
807,9	135,233
808,3	143,633
808,7	115,233
809,2	132,433
809,6	136,633
810	135,433
810,4	133,633
810,9	124,233
811,3	152,633
811,7	143,633
812,2	117,033
812,6	117,433
813	125,033
813,5	127,433
813,9	127,633
814,3	119,233
814,8	121,233
815,2	110,233
815,6	122,033
816,1	121,033
816,5	121,233
816,9	120,233
817,3	104,233
817,8	127,033
818,2	123,033
818,6	102,433
819,1	129,233
819,5	135,433
819,9	123,633
820,4	113,433
820,8	121,233
821,2	135,633
821,7	127,833
822,1	117,833
822,5	118,833
822,9	89,233
823,4	118,233
823,8	104,033
824,2	113,233
824,7	123,033
825,1	118,433
825,5	101,033
826	89,633
826,4	105,633
826,8	126,033
827,3	114,233
827,7	87,633
828,1	111,033
828,5	109,433
829	87,033
829,4	123,633
829,8	102,233
830,3	100,833
830,7	86,233
831,1	125,433
831,6	93,033
832	99,233
832,4	98,033
832,8	114,833
833,3	107,233
833,7	81,833
834,1	92,833
834,6	109,033
835	114,233
835,4	95,833
835,8	100,233
836,3	106,833
836,7	115,233
837,1	91,033
837,6	87,633
838	113,633
838,4	105,433
838,9	96,233
839,3	82,433
839,7	95,033
840,1	84,233
840,6	87,833
841	93,433
841,4	74,033
841,9	115,433
842,3	120,233
842,7	88,633
843,1	94,833
843,6	95,033
844	74,433
844,4	82,633
844,9	93,233
845,3	88,233
845,7	81,233
846,2	85,433
846,6	110,033
847	90,233
847,4	110,833
847,9	95,433
848,3	93,833
848,7	84,033
849,2	92,233
849,6	103,633
850	85,433
850,4	84,833
850,9	70,833
851,3	78,833
851,7	105,833
852,2	86,633
852,6	77,033
853	85,433
853,4	109,233
853,9	55,833
854,3	88,833
854,7	99,233
855,2	77,033
855,6	78,833
856	69,433
856,4	90,833
856,9	90,233
857,3	95,033
857,7	100,433
858,2	93,033
858,6	84,633
859	79,033
859,4	95,633
859,9	66,033
860,3	62,633
860,7	97,433
861,1	74,233
861,6	94,233
862	79,433
862,4	76,233
862,9	69,233
863,3	83,033
863,7	81,233
864,1	85,833
864,6	56,633
865	88,633
865,4	63,833
865,9	88,633
866,3	79,633
866,7	76,033
867,1	89,233
867,6	74,433
868	83,633
868,4	97,233
868,8	67,633
869,3	83,033
869,7	69,633
870,1	114,433
870,6	63,633
871	73,233
871,4	86,633
871,8	81,433
872,3	372,233
872,7	74,233
873,1	84,233
873,5	78,433
874	69,433
874,4	83,833
874,8	82,633
875,3	94,433
875,7	76,033
876,1	88,833
876,5	71,833
877	81,433
877,4	68,433
877,8	79,033
878,2	65,833
878,7	58,233
879,1	82,833
879,5	64,633
879,9	44,833
880,4	71,833
880,8	91,433
881,2	71,433
881,7	78,033
882,1	54,033
882,5	50,033
882,9	61,433
883,4	82,233
883,8	46,233
884,2	71,633
884,6	70,033
885,1	64,833
885,5	97,033
885,9	75,433
886,3	73,633
886,8	64,233
887,2	79,033
887,6	62,033
888	69,433
888,5	54,233
888,9	76,433
889,3	55,233
889,8	81,233
890,2	64,233
890,6	58,833
891	70,233
891,5	69,033
891,9	61,033
892,3	52,233
892,7	51,433
893,2	55,033
893,6	59,633
894	71,233
894,4	51,633
894,9	74,033
895,3	63,233
895,7	71,633
896,1	69,033
896,6	77,833
897	70,633
897,4	82,233
897,8	53,833
898,3	92,433
898,7	41,633
899,1	79,433
899,5	54,233
900	65,633
900,4	67,233
900,8	73,633
901,2	61,833
901,7	67,433
902,1	82,833
902,5	80,633
902,9	67,233
903,4	63,433
903,8	59,033
904,2	57,433
904,6	57,433
905,1	48,633
905,5	25,833
905,9	82,633
906,3	36,233
906,8	78,233
907,2	69,633
907,6	65,833
908	42,233
908,5	64,233
908,9	57,833
909,3	77,033
909,7	41,033
910,2	66,433
910,6	78,833
911	51,633
911,4	68,833
911,9	58,033
912,3	49,033
912,7	71,033
913,1	36,633
913,6	68,233
914	41,033
914,4	81,433
914,8	58,633
915,3	44,233
915,7	71,633
916,1	64,033
916,5	50,233
916,9	67,233
917,4	53,633
917,8	62,833
918,2	68,233
918,6	63,233
919,1	55,633
919,5	61,033
919,9	45,033
920,3	41,833
920,8	54,833
921,2	68,633
921,6	49,033
922	75,833
922,5	64,233
922,9	54,633
923,3	52,833
923,7	51,233
924,2	40,633
924,6	35,833
925	68,433
925,4	58,833
925,8	48,033
926,3	72,033
926,7	40,033
927,1	66,033
927,5	47,633
928	64,433
928,4	72,433
928,8	61,433
929,2	57,633
929,7	50,433
930,1	68,233
930,5	38,233
930,9	60,633
931,3	63,033
931,8	60,033
932,2	71,633
932,6	68,633
933	52,833
933,5	45,633
933,9	45,233
934,3	57,433
934,7	50,433
935,2	73,233
935,6	34,033
936	52,633
936,4	50,033
936,8	66,233
937,3	51,833
937,7	52,033
938,1	40,433
938,5	61,633
939	46,033
939,4	63,233
939,8	73,033
940,2	33,433
940,6	68,433
941,1	52,033
941,5	47,233
941,9	46,433
942,3	50,033
942,8	51,433
943,2	81,433
943,6	72,633
944	68,633
944,4	46,633
944,9	56,833
945,3	61,033
945,7	53,833
946,1	47,233
946,6	45,633
947	57,833
947,4	53,233
947,8	67,433
948,2	56,233
948,7	44,833
949,1	65,633
949,5	54,833
949,9	68,633
950,3	52,433
950,8	60,233
951,2	54,433
951,6	70,433
952	54,233
952,5	52,433
952,9	24,633
953,3	45,833
953,7	22,033
954,1	56,233
954,6	50,633
955	52,233
955,4	70,633
955,8	40,633
956,2	63,433
956,7	32,833
957,1	80,833
957,5	27,633
957,9	50,833
958,3	73,433
958,8	51,633
959,2	44,833
959,6	60,233
960	40,233
960,5	55,433
960,9	36,033
961,3	36,433
961,7	72,033
962,1	55,433
962,6	39,633
963	56,833
963,4	67,833
963,8	46,433
964,2	67,433
964,7	38,833
965,1	69,633
965,5	35,833
965,9	59,433
966,3	71,433
966,8	57,633
967,2	32,033
967,6	54,233
968	71,633
968,4	38,833
968,9	67,833
969,3	59,633
969,7	55,833
970,1	39,433
970,5	73,033
971	46,033
971,4	49,833
971,8	48,233
972,2	48,633
972,6	64,433
973,1	48,233
973,5	26,033
973,9	51,233
974,3	65,233
974,7	43,033
975,2	84,633
975,6	59,633
976	36,433
976,4	54,033
976,8	49,633
977,3	43,833
977,7	63,833
978,1	64,633
978,5	49,433
978,9	36,833
979,4	54,633
979,8	50,433
980,2	42,433
980,6	65,833
981	61,633
981,5	37,833
981,9	33,433
982,3	32,633
982,7	60,633
983,1	49,033
983,6	42,833
984	43,833
984,4	26,833
984,8	52,833
985,2	54,833
985,6	52,433
986,1	40,633
986,5	43,033
986,9	63,233
987,3	53,633
987,7	65,033
988,2	67,033
988,6	59,033
989	64,233
989,4	63,033
989,8	47,633
990,3	79,633
990,7	44,233
991,1	53,233
991,5	58,433
991,9	56,633
992,3	60,633
992,8	36,633
993,2	55,033
993,6	64,033
994	54,233
994,4	69,633
994,9	35,433
995,3	42,433
995,7	44,633
996,1	44,833
996,5	63,433
996,9	48,233
997,4	43,433
997,8	52,033
998,2	52,633
998,6	55,433
999	43,033
999,5	31,633
999,9	61,233
1000,3	49,433
1000,7	66,433
1001,1	49,633
1001,5	54,633
1002	45,633
1002,4	50,033
1002,8	38,233
1003,2	67,433
1003,6	61,833
1004	55,433
1004,5	55,633
1004,9	78,633
1005,3	33,633
1005,7	46,233
1006,1	59,433
1006,6	53,633
1007	51,633
1007,4	51,833
1007,8	49,233
1008,2	43,033
1008,6	47,433
1009,1	50,633
1009,5	45,433
1009,9	44,833
1010,3	54,033
1010,7	64,033
1011,1	56,433
1011,6	56,633
1012	31,033
1012,4	39,033
1012,8	58,833
1013,2	46,033
1013,6	42,233
1014,1	52,433
1014,5	47,233
1014,9	38,233
1015,3	47,633
1015,7	47,833
1016,1	60,033
1016,6	76,833
1017	58,233
1017,4	71,833
1017,8	58,033
1018,2	58,433
1018,6	61,033
1019,1	68,633
1019,5	51,233
1019,9	63,233
1020,3	71,433
1020,7	76,633
1021,1	59,833
1021,6	63,033
1022	49,233
1022,4	63,233
1022,8	55,433
1023,2	73,633
1023,6	61,833
1024,1	55,233
1024,5	47,833
1024,9	49,433
1025,3	41,433
1025,7	67,433
1026,1	43,433
1026,6	56,233
1027	65,233
1027,4	42,433
1027,8	55,433
1028,2	67,633
1028,6	47,633
1029	69,233
1029,5	73,633
1029,9	50,033
1030,3	42,033
1030,7	55,833
1031,1	49,833
1031,5	60,833
1032	59,433
1032,4	54,233
1032,8	65,633
1033,2	50,233
1033,6	43,833
1034	55,233
1034,4	43,833
1034,9	49,233
1035,3	55,033
1035,7	55,233
1036,1	54,433
1036,5	52,833
1036,9	63,433
1037,4	67,233
1037,8	52,433
1038,2	61,433
1038,6	88,233
1039	86,633
1039,4	65,233
1039,8	37,033
1040,3	55,633
1040,7	58,033
1041,1	50,633
1041,5	70,633
1041,9	65,033
1042,3	76,233
1042,7	60,633
1043,2	37,833
1043,6	67,633
1044	35,833
1044,4	54,033
1044,8	56,433
1045,2	40,033
1045,6	53,633
1046,1	66,433
1046,5	66,233
1046,9	80,833
1047,3	75,633
1047,7	73,633
1048,1	63,033
1048,5	60,233
1049	60,033
1049,4	81,833
1049,8	55,833
1050,2	76,033
1050,6	66,033
1051	69,033
1051,4	39,233
1051,9	68,033
1052,3	53,833
1052,7	62,033
1053,1	69,033
1053,5	77,633
1053,9	62,633
1054,3	48,633
1054,8	61,833
1055,2	99,833
1055,6	70,433
1056	60,633
1056,4	50,633
1056,8	68,633
1057,2	55,433
1057,6	61,833
1058,1	52,033
1058,5	83,433
1058,9	54,033
1059,3	49,433
1059,7	90,433
1060,1	70,433
1060,5	52,233
1061	46,833
1061,4	64,233
1061,8	78,033
1062,2	67,233
1062,6	52,433
1063	52,233
1063,4	67,833
1063,8	69,833
1064,3	63,433
1064,7	56,833
1065,1	59,233
1065,5	55,633
1065,9	64,033
1066,3	59,233
1066,7	50,033
1067,1	77,233
1067,6	55,833
1068	38,833
1068,4	63,433
1068,8	44,433
1069,2	54,233
1069,6	56,833
1070	46,033
1070,4	44,033
1070,9	59,633
1071,3	66,233
1071,7	45,633
1072,1	68,633
1072,5	49,433
1072,9	57,433
1073,3	57,033
1073,7	41,033
1074,2	54,833
1074,6	41,433
1075	78,833
1075,4	49,033
1075,8	65,833
1076,2	59,633
1076,6	51,233
1077	55,433
1077,5	51,433
1077,9	45,233
1078,3	66,033
1078,7	63,233
1079,1	50,433
1079,5	74,433
1079,9	69,633
1080,3	60,033
1080,7	50,833
1081,2	38,233
1081,6	51,433
1082	41,633
1082,4	64,033
1082,8	53,033
1083,2	73,233
1083,6	49,033
1084	48,833
1084,5	50,033
1084,9	34,433
1085,3	61,233
1085,7	43,633
1086,1	49,433
1086,5	55,433
1086,9	48,833
1087,3	45,833
1087,7	39,033
1088,2	42,833
1088,6	49,033
1089	59,233
1089,4	56,433
1089,8	59,433
1090,2	57,833
1090,6	32,433
1091	50,833
1091,4	31,433
1091,9	63,833
1092,3	60,433
1092,7	40,433
1093,1	39,233
1093,5	41,033
1093,9	60,033
1094,3	33,433
1094,7	52,233
1095,1	43,833
1095,5	52,433
1096	62,033
1096,4	54,833
1096,8	40,633
1097,2	40,833
1097,6	35,833
1098	29,233
1098,4	33,433
1098,8	53,233
1099,2	22,433
1099,6	47,833
1100,1	32,833
1100,5	36,033
1100,9	43,233
1101,3	34,233
1101,7	44,833
1102,1	33,433
1102,5	44,033
1102,9	44,433
1103,3	33,033
1103,7	44,433
1104,2	56,833
1104,6	25,433
1105	22,833
1105,4	31,433
1105,8	38,033
1106,2	25,833
1106,6	26,233
1107	0,233
1107,4	-0,567
1107,8	1,033
1108,3	-1,967
