Data from Subt2_00008.txt Node
Date: Fri Jul 14 14:57:20 MSK 2023
User: vat
Spectrometer: MAYP114033
Trigger mode: 0
Integration Time (sec): 5,000000E-1
Scans to average: 5
Electric dark correction enabled: true
Nonlinearity correction enabled: false
Boxcar width: 0
XAxis mode: Wavelengths
Number of Pixels in Spectrum: 2068
>>>>>Begin Spectral Data<<<<<
199,4	3,867
199,9	-0,533
200,4	0,467
200,8	1,267
201,3	20,067
201,8	39,667
202,2	33,067
202,7	27,067
203,2	54,667
203,6	26,467
204,1	25,267
204,6	38,267
205	29,267
205,5	45,467
206	25,867
206,4	30,867
206,9	39,867
207,4	41,467
207,8	44,467
208,3	60,267
208,8	62,067
209,2	45,667
209,7	38,667
210,2	61,667
210,6	46,467
211,1	36,267
211,5	50,067
212	69,267
212,5	65,067
212,9	48,067
213,4	28,067
213,9	46,667
214,3	20,067
214,8	48,267
215,3	35,667
215,7	61,867
216,2	47,267
216,7	46,867
217,1	56,867
217,6	50,867
218,1	43,267
218,5	41,067
219	53,867
219,5	58,467
219,9	29,067
220,4	57,867
220,9	58,067
221,3	59,867
221,8	66,267
222,3	60,667
222,7	58,067
223,2	47,467
223,6	52,467
224,1	41,067
224,6	67,467
225	60,267
225,5	67,067
226	77,667
226,4	42,667
226,9	53,267
227,4	26,867
227,8	65,467
228,3	38,867
228,8	54,867
229,2	62,667
229,7	57,267
230,2	47,267
230,6	62,467
231,1	65,667
231,5	63,667
232	58,467
232,5	54,667
232,9	76,067
233,4	56,267
233,9	71,467
234,3	49,467
234,8	56,667
235,3	63,867
235,7	47,667
236,2	41,667
236,7	84,867
237,1	52,467
237,6	80,667
238,1	52,667
238,5	56,067
239	52,267
239,4	47,467
239,9	55,267
240,4	72,267
240,8	33,467
241,3	58,067
241,8	41,067
242,2	58,467
242,7	65,667
243,2	46,867
243,6	61,667
244,1	73,067
244,6	60,467
245	43,667
245,5	74,667
245,9	66,667
246,4	52,267
246,9	87,267
247,3	62,267
247,8	45,067
248,3	68,867
248,7	60,667
249,2	38,067
249,7	61,467
250,1	38,667
250,6	54,467
251	23,467
251,5	73,267
252	49,067
252,4	78,867
252,9	59,467
253,4	36,267
253,8	58,467
254,3	56,067
254,8	58,867
255,2	66,067
255,7	71,867
256,1	62,067
256,6	72,467
257,1	77,267
257,5	61,467
258	61,667
258,5	68,667
258,9	69,867
259,4	56,267
259,9	72,867
260,3	94,067
260,8	62,867
261,2	73,267
261,7	60,267
262,2	66,467
262,6	55,267
263,1	57,467
263,6	51,867
264	50,667
264,5	57,867
264,9	81,867
265,4	69,867
265,9	61,867
266,3	61,267
266,8	65,867
267,3	37,267
267,7	42,267
268,2	49,067
268,7	48,667
269,1	55,467
269,6	40,867
270	58,067
270,5	77,067
271	46,067
271,4	56,267
271,9	58,867
272,4	52,667
272,8	71,867
273,3	55,267
273,7	54,267
274,2	56,467
274,7	73,867
275,1	72,867
275,6	49,067
276,1	64,867
276,5	43,667
277	51,267
277,4	63,667
277,9	70,467
278,4	49,867
278,8	41,867
279,3	71,467
279,8	46,067
280,2	55,667
280,7	33,267
281,1	54,467
281,6	69,667
282,1	49,267
282,5	64,267
283	50,867
283,4	65,667
283,9	33,067
284,4	44,467
284,8	50,067
285,3	32,467
285,8	67,467
286,2	42,867
286,7	55,667
287,1	32,267
287,6	50,267
288,1	84,467
288,5	38,867
289	76,267
289,5	47,067
289,9	43,467
290,4	68,667
290,8	54,067
291,3	61,267
291,8	64,067
292,2	41,467
292,7	54,667
293,1	81,667
293,6	30,267
294,1	78,267
294,5	76,067
295	90,667
295,5	57,667
295,9	56,067
296,4	40,467
296,8	51,267
297,3	75,267
297,8	66,467
298,2	41,667
298,7	55,667
299,1	44,067
299,6	73,267
300,1	42,467
300,5	53,067
301	49,267
301,5	59,267
301,9	42,467
302,4	60,067
302,8	71,067
303,3	47,667
303,8	48,867
304,2	54,667
304,7	70,267
305,1	62,667
305,6	57,467
306,1	47,867
306,5	40,067
307	58,267
307,4	97,867
307,9	65,067
308,4	47,267
308,8	55,467
309,3	58,867
309,8	76,667
310,2	46,867
310,7	65,067
311,1	71,667
311,6	30,067
312,1	57,067
312,5	59,267
313	63,867
313,4	39,267
313,9	62,667
314,4	67,867
314,8	42,667
315,3	62,867
315,7	78,267
316,2	60,667
316,7	59,067
317,1	52,467
317,6	58,667
318	64,867
318,5	73,267
319	52,067
319,4	56,067
319,9	84,867
320,3	67,467
320,8	66,667
321,3	54,267
321,7	84,467
322,2	74,667
322,6	38,867
323,1	44,067
323,6	58,267
324	62,267
324,5	62,467
324,9	56,067
325,4	55,667
325,9	38,467
326,3	66,267
326,8	46,467
327,2	59,867
327,7	63,067
328,2	64,067
328,6	71,467
329,1	46,467
329,5	77,467
330	79,667
330,5	52,867
330,9	70,867
331,4	36,867
331,8	54,067
332,3	59,267
332,8	60,667
333,2	43,667
333,7	62,267
334,1	42,467
334,6	58,867
335,1	34,267
335,5	59,667
336	47,067
336,4	51,867
336,9	58,667
337,4	50,467
337,8	54,867
338,3	52,467
338,7	42,067
339,2	64,067
339,7	62,667
340,1	62,067
340,6	55,867
341	76,067
341,5	59,067
342	40,467
342,4	56,867
342,9	50,867
343,3	61,867
343,8	46,667
344,2	71,267
344,7	32,867
345,2	43,467
345,6	71,267
346,1	45,267
346,5	50,467
347	48,267
347,5	61,067
347,9	87,667
348,4	48,267
348,8	56,667
349,3	59,267
349,8	43,867
350,2	52,667
350,7	50,267
351,1	58,067
351,6	55,667
352	63,267
352,5	54,267
353	66,667
353,4	76,067
353,9	68,667
354,3	59,267
354,8	75,467
355,3	67,067
355,7	80,467
356,2	69,867
356,6	80,667
357,1	72,867
357,5	91,867
358	82,067
358,5	118,067
358,9	113,267
359,4	123,267
359,8	134,867
360,3	153,467
360,8	144,867
361,2	182,267
361,7	190,467
362,1	202,267
362,6	228,067
363	288,067
363,5	284,667
364	323,867
364,4	346,867
364,9	359,467
365,3	403,667
365,8	426,667
366,3	436,467
366,7	494,867
367,2	498,067
367,6	514,667
368,1	522,467
368,5	548,667
369	533,667
369,5	545,067
369,9	559,267
370,4	521,667
370,8	517,867
371,3	513,667
371,7	495,867
372,2	452,067
372,7	466,267
373,1	444,667
373,6	418,667
374	404,867
374,5	386,067
374,9	349,267
375,4	323,067
375,9	286,267
376,3	277,867
376,8	286,467
377,2	267,067
377,7	251,067
378,2	229,067
378,6	221,267
379,1	211,867
379,5	171,667
380	187,867
380,4	173,267
380,9	187,067
381,4	148,067
381,8	158,267
382,3	128,867
382,7	131,067
383,2	124,867
383,6	116,867
384,1	124,267
384,6	121,267
385	112,067
385,5	90,067
385,9	104,267
386,4	95,267
386,8	119,867
387,3	94,867
387,7	79,467
388,2	80,867
388,7	99,067
389,1	91,867
389,6	89,067
390	96,067
390,5	76,667
390,9	62,267
391,4	79,867
391,9	69,867
392,3	72,067
392,8	67,867
393,2	77,667
393,7	54,667
394,1	78,867
394,6	76,467
395,1	55,467
395,5	66,267
396	58,867
396,4	54,067
396,9	52,667
397,3	55,867
397,8	54,867
398,2	50,067
398,7	86,467
399,2	64,867
399,6	66,467
400,1	52,867
400,5	73,467
401	69,267
401,4	55,267
401,9	58,867
402,4	87,467
402,8	57,467
403,3	53,667
403,7	82,067
404,2	67,267
404,6	54,667
405,1	50,267
405,5	59,267
406	51,867
406,5	50,467
406,9	78,267
407,4	72,867
407,8	68,267
408,3	72,267
408,7	81,867
409,2	64,867
409,6	56,467
410,1	100,467
410,6	61,667
411	45,467
411,5	77,667
411,9	78,467
412,4	45,067
412,8	73,667
413,3	109,267
413,7	79,667
414,2	77,267
414,7	91,667
415,1	75,867
415,6	77,067
416	60,867
416,5	110,667
416,9	86,067
417,4	94,667
417,8	95,467
418,3	110,267
418,8	63,467
419,2	105,067
419,7	100,667
420,1	97,267
420,6	81,867
421	125,867
421,5	97,267
421,9	97,067
422,4	138,267
422,8	110,067
423,3	110,067
423,8	99,067
424,2	102,867
424,7	102,467
425,1	104,867
425,6	104,667
426	97,267
426,5	107,667
426,9	128,067
427,4	111,067
427,9	122,067
428,3	94,267
428,8	123,867
429,2	108,667
429,7	110,867
430,1	139,267
430,6	107,267
431	91,667
431,5	115,867
431,9	124,867
432,4	116,067
432,8	134,867
433,3	120,867
433,8	121,267
434,2	146,867
434,7	125,867
435,1	146,667
435,6	137,667
436	160,867
436,5	173,067
436,9	151,267
437,4	163,067
437,8	161,467
438,3	167,867
438,8	174,867
439,2	161,067
439,7	160,867
440,1	197,667
440,6	206,067
441	196,267
441,5	217,667
441,9	221,067
442,4	206,667
442,8	221,867
443,3	221,867
443,7	234,067
444,2	236,467
444,7	260,267
445,1	258,867
445,6	249,467
446	277,267
446,5	284,067
446,9	305,467
447,4	289,067
447,8	326,267
448,3	326,267
448,7	343,267
449,2	343,267
449,6	373,867
450,1	371,067
450,6	395,867
451	395,867
451,5	403,867
451,9	428,467
452,4	423,867
452,8	453,867
453,3	426,667
453,7	470,667
454,2	471,467
454,6	514,467
455,1	531,867
455,5	529,467
456	553,867
456,4	561,467
456,9	564,867
457,3	612,467
457,8	609,867
458,3	603,067
458,7	634,867
459,2	671,067
459,6	696,267
460,1	699,067
460,5	718,467
461	748,467
461,4	758,467
461,9	787,467
462,3	801,867
462,8	834,067
463,2	820,467
463,7	855,067
464,1	868,867
464,6	927,867
465	918,467
465,5	945,467
466	975,067
466,4	980,067
466,9	1011,667
467,3	1017,467
467,8	1065,667
468,2	1102,467
468,7	1100,267
469,1	1126,867
469,6	1158,267
470	1155,267
470,5	1206,867
470,9	1220,467
471,4	1260,867
471,8	1272,467
472,3	1286,067
472,7	1332,067
473,2	1347,667
473,6	1370,667
474,1	1373,867
474,5	1421,667
475	1463,467
475,4	1452,867
475,9	1484,667
476,4	1555,467
476,8	1517,267
477,3	1551,267
477,7	1589,067
478,2	1596,467
478,6	1638,467
479,1	1647,467
479,5	1651,867
480	1671,667
480,4	1694,867
480,9	1693,067
481,3	1734,067
481,8	1743,067
482,2	1776,667
482,7	1790,267
483,1	1798,467
483,6	1841,267
484	1843,467
484,5	1885,267
484,9	1865,867
485,4	1899,067
485,8	1912,667
486,3	1956,067
486,7	1900,467
487,2	1927,467
487,6	1935,667
488,1	1977,267
488,5	2003,667
489	2015,667
489,4	2021,467
489,9	2028,467
490,4	2035,067
490,8	2048,667
491,3	2083,267
491,7	2040,867
492,2	2034,667
492,6	2069,667
493,1	2055,467
493,5	2101,467
494	2060,067
494,4	2109,867
494,9	2087,067
495,3	2135,467
495,8	2111,667
496,2	2070,467
496,7	2103,867
497,1	2101,467
497,6	2082,067
498	2114,867
498,5	2105,467
498,9	2126,267
499,4	2130,067
499,8	2075,267
500,3	2102,667
500,7	2108,467
501,2	2117,667
501,6	2115,267
502,1	2110,467
502,5	2076,467
503	2106,467
503,4	2111,267
503,9	2083,467
504,3	2106,867
504,8	2083,067
505,2	2107,467
505,7	2093,667
506,1	2057,867
506,6	2061,867
507	2080,667
507,5	2032,467
507,9	2034,667
508,4	2018,467
508,8	2051,067
509,3	2015,467
509,7	2027,867
510,2	2004,267
510,6	1996,867
511,1	2030,267
511,5	1996,067
512	1990,467
512,4	2014,067
512,9	1999,267
513,3	1961,267
513,8	1947,067
514,2	1944,667
514,7	1947,867
515,1	1932,067
515,6	1964,467
516	1913,667
516,5	1917,067
516,9	1901,067
517,4	1931,467
517,8	1888,667
518,3	1910,867
518,7	1876,267
519,2	1869,267
519,6	1872,067
520,1	1844,267
520,5	1849,067
521	1836,667
521,4	1833,467
521,9	1811,467
522,3	1773,067
522,8	1836,067
523,2	1822,867
523,7	1812,267
524,1	1794,467
524,6	1813,667
525	1775,267
525,5	1738,067
525,9	1753,267
526,4	1793,267
526,8	1756,467
527,3	1756,467
527,7	1765,667
528,2	1725,667
528,6	1739,067
529,1	1698,867
529,5	1757,467
530	1719,867
530,4	1706,467
530,9	1731,067
531,3	1736,867
531,8	1712,267
532,2	1725,267
532,6	1688,667
533,1	1705,667
533,5	1694,667
534	1683,067
534,4	1693,467
534,9	1684,867
535,3	1652,267
535,8	1670,867
536,2	1661,867
536,7	1673,867
537,1	1643,067
537,6	1641,067
538	1646,867
538,5	1635,667
538,9	1653,067
539,4	1657,867
539,8	1630,067
540,3	1643,067
540,7	1620,467
541,2	1625,067
541,6	1621,467
542,1	1635,067
542,5	1613,067
543	1641,667
543,4	1592,067
543,9	1595,667
544,3	1590,667
544,8	1633,267
545,2	1623,867
545,7	1581,867
546,1	1600,667
546,5	1596,267
547	1591,467
547,4	1597,667
547,9	1585,467
548,3	1590,067
548,8	1580,667
549,2	1567,867
549,7	1581,467
550,1	1552,467
550,6	1569,467
551	1574,467
551,5	1595,667
551,9	1550,067
552,4	1591,667
552,8	1564,267
553,3	1568,067
553,7	1575,467
554,2	1580,267
554,6	1544,267
555,1	1513,067
555,5	1525,467
555,9	1568,467
556,4	1538,667
556,8	1554,667
557,3	1537,867
557,7	1535,267
558,2	1526,867
558,6	1537,067
559,1	1557,267
559,5	1538,067
560	1552,667
560,4	1570,667
560,9	1530,267
561,3	1524,467
561,8	1510,667
562,2	1530,067
562,7	1511,067
563,1	1522,667
563,6	1513,067
564	1510,467
564,4	1507,467
564,9	1532,067
565,3	1523,667
565,8	1513,867
566,2	1506,667
566,7	1519,667
567,1	1522,867
567,6	1521,867
568	1534,267
568,5	1509,067
568,9	1456,867
569,4	1496,067
569,8	1474,667
570,3	1461,667
570,7	1507,667
571,1	1482,667
571,6	1491,267
572	1493,267
572,5	1489,067
572,9	1479,867
573,4	1460,467
573,8	1477,067
574,3	1495,867
574,7	1455,467
575,2	1471,467
575,6	1485,867
576,1	1449,867
576,5	1458,267
576,9	1460,667
577,4	1465,867
577,8	1426,667
578,3	1435,667
578,7	1442,067
579,2	1472,067
579,6	1439,867
580,1	1457,067
580,5	1402,067
581	1404,667
581,4	1405,667
581,9	1418,467
582,3	1429,267
582,7	1428,667
583,2	1400,867
583,6	1387,467
584,1	1393,667
584,5	1408,467
585	1384,867
585,4	1382,067
585,9	1375,267
586,3	1409,067
586,8	1352,267
587,2	1381,867
587,6	1351,867
588,1	1359,067
588,5	1352,067
589	1340,267
589,4	1361,467
589,9	1363,867
590,3	1350,267
590,8	1313,467
591,2	1330,467
591,7	1330,467
592,1	1325,467
592,5	1316,067
593	1323,067
593,4	1309,667
593,9	1335,067
594,3	1322,667
594,8	1309,267
595,2	1311,667
595,7	1293,867
596,1	1302,467
596,6	1287,867
597	1276,067
597,4	1270,267
597,9	1274,467
598,3	1270,067
598,8	1260,867
599,2	1274,467
599,7	1263,267
600,1	1255,267
600,6	1245,467
601	1253,667
601,4	1275,267
601,9	1239,267
602,3	1233,267
602,8	1257,267
603,2	1240,467
603,7	1250,867
604,1	1240,867
604,6	1226,067
605	1215,467
605,4	1206,467
605,9	1205,867
606,3	1232,467
606,8	1188,067
607,2	1181,467
607,7	1201,867
608,1	1171,867
608,6	1191,267
609	1154,867
609,4	1179,867
609,9	1163,667
610,3	1173,867
610,8	1165,467
611,2	1163,867
611,7	1163,867
612,1	1169,467
612,6	1124,067
613	1143,267
613,4	1123,067
613,9	1129,667
614,3	1114,667
614,8	1106,467
615,2	1154,267
615,7	1095,867
616,1	1091,467
616,6	1089,667
617	1089,467
617,4	1095,467
617,9	1091,467
618,3	1053,667
618,8	1052,067
619,2	1075,067
619,7	1061,867
620,1	1043,467
620,5	1049,467
621	1074,867
621,4	1077,467
621,9	1069,667
622,3	1039,667
622,8	1050,467
623,2	1028,867
623,6	1000,067
624,1	1031,067
624,5	1004,467
625	1012,267
625,4	1005,067
625,9	986,667
626,3	1006,067
626,8	974,067
627,2	965,067
627,6	982,067
628,1	964,867
628,5	967,467
629	941,667
629,4	953,467
629,9	943,467
630,3	934,667
630,7	916,667
631,2	910,867
631,6	932,267
632,1	918,467
632,5	943,467
633	910,867
633,4	939,267
633,8	934,067
634,3	900,867
634,7	891,467
635,2	842,467
635,6	893,067
636,1	878,467
636,5	867,467
636,9	853,267
637,4	866,267
637,8	840,267
638,3	855,467
638,7	851,867
639,2	833,267
639,6	851,667
640	798,467
640,5	838,067
640,9	830,467
641,4	836,667
641,8	823,667
642,2	801,267
642,7	796,667
643,1	794,667
643,6	806,267
644	831,667
644,5	796,867
644,9	787,667
645,3	781,267
645,8	797,867
646,2	761,667
646,7	791,067
647,1	750,467
647,6	778,467
648	781,867
648,4	748,067
648,9	722,067
649,3	748,467
649,8	740,467
650,2	741,467
650,6	707,467
651,1	714,467
651,5	737,267
652	706,867
652,4	726,467
652,9	708,467
653,3	724,267
653,7	706,067
654,2	707,867
654,6	709,467
655,1	664,667
655,5	691,867
655,9	668,467
656,4	688,267
656,8	654,067
657,3	678,267
657,7	653,067
658,2	642,267
658,6	649,267
659	636,667
659,5	653,667
659,9	631,467
660,4	648,067
660,8	658,467
661,2	630,267
661,7	623,867
662,1	647,867
662,6	629,467
663	632,667
663,4	621,867
663,9	629,067
664,3	580,267
664,8	598,667
665,2	582,867
665,6	605,067
666,1	584,267
666,5	600,067
667	583,267
667,4	576,267
667,9	581,267
668,3	578,867
668,7	561,067
669,2	566,667
669,6	564,467
670,1	561,267
670,5	550,267
670,9	548,667
671,4	528,867
671,8	525,667
672,3	568,067
672,7	538,667
673,1	522,267
673,6	540,467
674	530,667
674,5	539,667
674,9	541,867
675,3	510,467
675,8	555,267
676,2	519,667
676,7	497,867
677,1	497,667
677,5	519,067
678	509,867
678,4	506,467
678,9	468,467
679,3	484,467
679,7	502,667
680,2	480,867
680,6	494,067
681,1	474,667
681,5	468,467
681,9	446,267
682,4	462,867
682,8	454,267
683,3	454,467
683,7	462,867
684,1	473,267
684,6	437,867
685	451,467
685,5	440,867
685,9	420,867
686,3	456,067
686,8	448,667
687,2	431,667
687,7	421,867
688,1	439,867
688,5	434,667
689	425,667
689,4	406,667
689,9	400,267
690,3	413,467
690,7	414,267
691,2	415,867
691,6	427,467
692	398,667
692,5	403,667
692,9	415,867
693,4	396,867
693,8	408,667
694,2	374,667
694,7	378,867
695,1	390,267
695,6	386,667
696	371,067
696,4	382,467
696,9	387,467
697,3	391,267
697,8	364,467
698,2	382,867
698,6	362,867
699,1	372,667
699,5	379,267
699,9	372,467
700,4	382,667
700,8	354,867
701,3	348,067
701,7	344,867
702,1	359,867
702,6	354,867
703	346,467
703,5	362,667
703,9	365,667
704,3	360,267
704,8	344,467
705,2	328,467
705,6	335,267
706,1	326,867
706,5	324,467
707	340,067
707,4	327,267
707,8	332,867
708,3	309,067
708,7	311,667
709,2	327,467
709,6	327,267
710	330,267
710,5	322,267
710,9	310,467
711,3	297,267
711,8	322,467
712,2	310,667
712,7	304,267
713,1	304,867
713,5	318,667
714	293,067
714,4	286,067
714,8	302,667
715,3	285,067
715,7	276,267
716,2	279,267
716,6	273,867
717	291,067
717,5	290,867
717,9	282,667
718,3	286,467
718,8	293,467
719,2	246,867
719,7	250,467
720,1	277,667
720,5	286,067
721	270,667
721,4	272,867
721,8	279,867
722,3	258,667
722,7	250,267
723,2	255,667
723,6	264,667
724	255,667
724,5	268,667
724,9	266,867
725,3	241,467
725,8	249,467
726,2	241,867
726,7	252,867
727,1	267,867
727,5	228,667
728	235,467
728,4	285,267
728,8	226,867
729,3	227,467
729,7	238,267
730,1	230,667
730,6	241,467
731	245,067
731,5	228,467
731,9	239,267
732,3	236,267
732,8	223,667
733,2	227,867
733,6	233,867
734,1	227,467
734,5	225,667
734,9	244,667
735,4	244,667
735,8	219,867
736,3	226,867
736,7	224,467
737,1	225,867
737,6	210,067
738	222,667
738,4	216,867
738,9	219,467
739,3	239,267
739,7	223,467
740,2	238,467
740,6	209,267
741,1	233,667
741,5	212,467
741,9	213,067
742,4	205,067
742,8	216,467
743,2	188,067
743,7	213,067
744,1	224,067
744,5	207,467
745	248,467
745,4	199,667
745,8	210,667
746,3	205,067
746,7	196,067
747,2	187,267
747,6	216,067
748	213,667
748,5	195,267
748,9	196,867
749,3	169,667
749,8	176,867
750,2	198,267
750,6	185,267
751,1	202,867
751,5	177,267
751,9	206,667
752,4	177,467
752,8	192,267
753,3	189,867
753,7	183,467
754,1	175,667
754,6	174,067
755	181,667
755,4	161,867
755,9	179,067
756,3	189,667
756,7	198,067
757,2	164,667
757,6	185,467
758	170,267
758,5	181,867
758,9	165,067
759,3	162,867
759,8	169,467
760,2	162,267
760,6	170,467
761,1	173,667
761,5	152,067
761,9	180,467
762,4	180,467
762,8	163,067
763,3	164,067
763,7	167,667
764,1	165,667
764,6	171,067
765	169,867
765,4	150,067
765,9	164,067
766,3	141,267
766,7	172,867
767,2	155,667
767,6	163,667
768	154,067
768,5	165,867
768,9	163,467
769,3	158,267
769,8	152,267
770,2	144,867
770,6	149,267
771,1	144,067
771,5	147,867
771,9	155,267
772,4	152,867
772,8	131,067
773,2	175,667
773,7	144,467
774,1	152,467
774,5	155,467
775	135,467
775,4	152,267
775,8	144,667
776,3	142,267
776,7	153,667
777,1	152,267
777,6	129,667
778	154,467
778,4	156,467
778,9	123,867
779,3	147,467
779,7	126,267
780,2	137,267
780,6	133,067
781	134,467
781,5	127,667
781,9	139,667
782,3	139,067
782,8	137,067
783,2	140,267
783,6	121,667
784,1	125,867
784,5	118,467
784,9	144,267
785,4	140,667
785,8	131,667
786,2	116,667
786,7	134,067
787,1	143,667
787,5	125,067
788	139,467
788,4	144,267
788,8	131,467
789,3	141,267
789,7	136,867
790,1	144,867
790,6	105,067
791	133,067
791,4	125,067
791,9	153,067
792,3	138,867
792,7	110,067
793,2	137,667
793,6	119,467
794	120,067
794,5	140,467
794,9	103,267
795,3	110,067
795,8	115,667
796,2	132,867
796,6	121,267
797,1	131,667
797,5	109,867
797,9	140,067
798,4	120,267
798,8	118,867
799,2	115,067
799,7	123,667
800,1	106,667
800,5	102,267
801	101,267
801,4	100,467
801,8	106,467
802,2	120,067
802,7	116,867
803,1	115,067
803,5	122,067
804	123,467
804,4	96,067
804,8	130,667
805,3	111,667
805,7	110,467
806,1	88,067
806,6	126,867
807	111,067
807,4	115,667
807,9	106,267
808,3	123,867
808,7	85,867
809,2	114,267
809,6	103,667
810	111,467
810,4	126,267
810,9	99,067
811,3	157,867
811,7	90,667
812,2	78,067
812,6	99,867
813	106,467
813,5	108,867
813,9	89,867
814,3	85,867
814,8	84,467
815,2	97,267
815,6	89,067
816,1	117,867
816,5	95,267
816,9	109,467
817,3	102,067
817,8	98,867
818,2	100,267
818,6	93,067
819,1	115,867
819,5	112,867
819,9	94,267
820,4	101,067
820,8	91,467
821,2	87,667
821,7	108,067
822,1	91,467
822,5	102,267
822,9	71,667
823,4	87,467
823,8	91,267
824,2	63,267
824,7	97,467
825,1	107,667
825,5	84,867
826	82,067
826,4	85,267
826,8	84,867
827,3	110,067
827,7	65,667
828,1	86,467
828,5	90,067
829	79,867
829,4	115,067
829,8	93,667
830,3	91,467
830,7	57,267
831,1	87,267
831,6	80,867
832	82,667
832,4	82,467
832,8	93,467
833,3	95,067
833,7	80,267
834,1	83,467
834,6	89,067
835	78,267
835,4	85,867
835,8	96,667
836,3	87,467
836,7	101,267
837,1	74,467
837,6	84,467
838	81,267
838,4	81,867
838,9	86,067
839,3	61,267
839,7	68,467
840,1	69,867
840,6	85,867
841	66,267
841,4	59,467
841,9	83,467
842,3	80,467
842,7	85,267
843,1	88,867
843,6	85,267
844	72,267
844,4	80,267
844,9	77,667
845,3	81,867
845,7	92,467
846,2	69,067
846,6	95,267
847	81,067
847,4	86,467
847,9	80,467
848,3	80,667
848,7	83,867
849,2	70,467
849,6	73,667
850	74,867
850,4	78,867
850,9	67,667
851,3	78,867
851,7	82,067
852,2	82,867
852,6	70,867
853	70,467
853,4	93,467
853,9	72,667
854,3	68,067
854,7	71,667
855,2	74,467
855,6	60,867
856	73,067
856,4	87,067
856,9	81,667
857,3	75,467
857,7	76,867
858,2	66,667
858,6	71,867
859	82,867
859,4	86,667
859,9	64,267
860,3	63,267
860,7	69,267
861,1	62,267
861,6	72,267
862	64,867
862,4	87,267
862,9	71,667
863,3	58,267
863,7	63,467
864,1	53,467
864,6	60,867
865	87,667
865,4	65,267
865,9	80,867
866,3	82,867
866,7	66,467
867,1	71,867
867,6	75,067
868	68,067
868,4	75,267
868,8	63,267
869,3	87,267
869,7	51,867
870,1	93,467
870,6	61,867
871	55,467
871,4	68,867
871,8	77,467
872,3	114,867
872,7	71,467
873,1	79,867
873,5	63,667
874	67,667
874,4	72,067
874,8	51,467
875,3	71,267
875,7	86,667
876,1	80,067
876,5	68,467
877	79,067
877,4	72,667
877,8	70,867
878,2	56,467
878,7	63,067
879,1	57,867
879,5	58,867
879,9	59,467
880,4	54,667
880,8	74,267
881,2	69,267
881,7	77,067
882,1	55,867
882,5	48,667
882,9	71,867
883,4	67,867
883,8	53,067
884,2	55,467
884,6	70,467
885,1	69,867
885,5	76,267
885,9	54,867
886,3	57,467
886,8	53,867
887,2	63,267
887,6	71,267
888	56,867
888,5	51,067
888,9	72,667
889,3	47,667
889,8	75,067
890,2	69,867
890,6	77,467
891	76,867
891,5	80,267
891,9	57,067
892,3	61,867
892,7	67,867
893,2	63,267
893,6	56,067
894	73,067
894,4	55,467
894,9	63,867
895,3	45,467
895,7	71,067
896,1	52,667
896,6	76,267
897	60,267
897,4	86,067
897,8	62,067
898,3	85,867
898,7	40,067
899,1	71,467
899,5	80,067
900	65,067
900,4	70,267
900,8	65,067
901,2	55,667
901,7	70,867
902,1	59,267
902,5	61,667
902,9	60,867
903,4	44,067
903,8	69,067
904,2	49,067
904,6	62,467
905,1	40,667
905,5	39,267
905,9	75,667
906,3	43,067
906,8	73,667
907,2	55,267
907,6	60,067
908	44,667
908,5	60,467
908,9	60,667
909,3	61,867
909,7	44,667
910,2	74,867
910,6	67,467
911	51,667
911,4	74,667
911,9	46,867
912,3	48,467
912,7	72,667
913,1	43,467
913,6	61,867
914	59,867
914,4	65,667
914,8	58,867
915,3	47,467
915,7	79,067
916,1	54,867
916,5	47,467
916,9	69,267
917,4	62,667
917,8	70,467
918,2	53,667
918,6	60,267
919,1	51,867
919,5	66,867
919,9	41,067
920,3	52,467
920,8	64,267
921,2	69,867
921,6	64,467
922	73,067
922,5	57,467
922,9	57,467
923,3	67,267
923,7	66,867
924,2	49,867
924,6	63,267
925	63,067
925,4	57,867
925,8	54,667
926,3	60,667
926,7	51,667
927,1	57,267
927,5	37,867
928	52,667
928,4	72,667
928,8	52,667
929,2	63,067
929,7	49,867
930,1	60,867
930,5	52,667
930,9	54,267
931,3	66,467
931,8	55,267
932,2	54,467
932,6	66,867
933	61,267
933,5	48,267
933,9	60,067
934,3	61,667
934,7	64,067
935,2	75,667
935,6	45,467
936	57,267
936,4	54,667
936,8	75,067
937,3	60,667
937,7	70,067
938,1	56,667
938,5	62,667
939	65,067
939,4	72,867
939,8	72,067
940,2	43,867
940,6	59,067
941,1	50,467
941,5	53,067
941,9	58,267
942,3	35,067
942,8	71,867
943,2	95,667
943,6	66,067
944	74,267
944,4	62,867
944,9	47,867
945,3	63,667
945,7	56,467
946,1	54,867
946,6	59,267
947	67,667
947,4	67,667
947,8	49,067
948,2	70,267
948,7	54,867
949,1	53,867
949,5	73,667
949,9	48,467
950,3	59,867
950,8	52,467
951,2	70,667
951,6	57,867
952	55,667
952,5	72,467
952,9	56,467
953,3	42,467
953,7	51,267
954,1	49,067
954,6	47,667
955	60,667
955,4	68,867
955,8	48,667
956,2	70,267
956,7	46,067
957,1	71,067
957,5	39,667
957,9	65,867
958,3	92,467
958,8	25,267
959,2	54,667
959,6	68,667
960	36,067
960,5	56,867
960,9	37,667
961,3	70,467
961,7	70,867
962,1	61,067
962,6	46,867
963	56,667
963,4	106,467
963,8	48,067
964,2	75,267
964,7	47,067
965,1	83,267
965,5	43,867
965,9	72,067
966,3	73,867
966,8	79,067
967,2	55,267
967,6	45,467
968	66,267
968,4	55,467
968,9	60,267
969,3	59,467
969,7	44,067
970,1	71,867
970,5	65,667
971	46,467
971,4	49,467
971,8	43,267
972,2	30,067
972,6	61,467
973,1	66,667
973,5	45,467
973,9	61,267
974,3	64,867
974,7	48,667
975,2	68,067
975,6	50,067
976	38,267
976,4	64,867
976,8	45,467
977,3	54,867
977,7	58,867
978,1	43,867
978,5	43,067
978,9	71,267
979,4	63,667
979,8	43,067
980,2	58,667
980,6	71,467
981	44,867
981,5	39,067
981,9	53,867
982,3	41,867
982,7	61,867
983,1	56,467
983,6	40,067
984	50,667
984,4	46,667
984,8	54,667
985,2	67,067
985,6	56,867
986,1	50,467
986,5	28,867
986,9	78,067
987,3	50,067
987,7	60,067
988,2	70,867
988,6	73,067
989	81,267
989,4	65,067
989,8	76,667
990,3	90,467
990,7	44,467
991,1	54,467
991,5	48,267
991,9	54,667
992,3	46,267
992,8	46,267
993,2	52,667
993,6	48,667
994	47,467
994,4	60,467
994,9	51,067
995,3	60,067
995,7	52,667
996,1	56,667
996,5	61,467
996,9	60,067
997,4	47,467
997,8	75,067
998,2	68,467
998,6	67,667
999	48,067
999,5	32,267
999,9	77,067
1000,3	61,267
1000,7	83,467
1001,1	60,467
1001,5	43,667
1002	55,867
1002,4	58,267
1002,8	52,267
1003,2	76,667
1003,6	71,867
1004	47,267
1004,5	57,067
1004,9	67,067
1005,3	40,667
1005,7	48,867
1006,1	58,067
1006,6	50,067
1007	65,067
1007,4	72,867
1007,8	70,867
1008,2	52,067
1008,6	47,467
1009,1	69,867
1009,5	53,867
1009,9	56,067
1010,3	55,267
1010,7	64,067
1011,1	49,267
1011,6	79,667
1012	35,667
1012,4	60,867
1012,8	61,667
1013,2	54,067
1013,6	59,667
1014,1	52,667
1014,5	59,267
1014,9	62,867
1015,3	59,067
1015,7	51,667
1016,1	72,467
1016,6	71,067
1017	60,667
1017,4	65,067
1017,8	65,467
1018,2	55,667
1018,6	73,067
1019,1	82,067
1019,5	46,467
1019,9	90,867
1020,3	48,667
1020,7	88,667
1021,1	66,667
1021,6	47,667
1022	50,867
1022,4	85,867
1022,8	67,267
1023,2	84,867
1023,6	64,667
1024,1	49,267
1024,5	70,267
1024,9	58,067
1025,3	40,067
1025,7	60,467
1026,1	53,667
1026,6	63,667
1027	86,067
1027,4	49,267
1027,8	77,467
1028,2	72,067
1028,6	80,067
1029	88,667
1029,5	86,267
1029,9	42,667
1030,3	80,067
1030,7	76,267
1031,1	41,667
1031,5	69,667
1032	58,867
1032,4	62,667
1032,8	73,467
1033,2	51,467
1033,6	53,867
1034	61,267
1034,4	61,867
1034,9	53,267
1035,3	68,267
1035,7	67,667
1036,1	58,267
1036,5	60,467
1036,9	63,067
1037,4	53,467
1037,8	58,667
1038,2	62,867
1038,6	90,067
1039	82,667
1039,4	65,267
1039,8	51,667
1040,3	72,267
1040,7	54,267
1041,1	65,067
1041,5	60,467
1041,9	87,667
1042,3	75,067
1042,7	76,267
1043,2	47,467
1043,6	66,667
1044	54,667
1044,4	72,267
1044,8	60,267
1045,2	69,067
1045,6	64,667
1046,1	71,467
1046,5	74,667
1046,9	73,067
1047,3	73,467
1047,7	85,867
1048,1	68,667
1048,5	94,667
1049	83,267
1049,4	93,267
1049,8	70,267
1050,2	69,467
1050,6	71,067
1051	78,467
1051,4	42,867
1051,9	72,667
1052,3	62,267
1052,7	88,067
1053,1	72,067
1053,5	97,267
1053,9	83,267
1054,3	79,067
1054,8	68,867
1055,2	93,867
1055,6	97,667
1056	68,267
1056,4	53,267
1056,8	87,267
1057,2	69,067
1057,6	82,667
1058,1	82,667
1058,5	80,867
1058,9	62,667
1059,3	81,267
1059,7	71,867
1060,1	80,867
1060,5	70,467
1061	64,467
1061,4	53,067
1061,8	97,667
1062,2	71,667
1062,6	89,067
1063	87,067
1063,4	79,067
1063,8	64,267
1064,3	70,667
1064,7	67,867
1065,1	88,267
1065,5	67,067
1065,9	65,067
1066,3	66,667
1066,7	59,067
1067,1	64,867
1067,6	66,067
1068	51,267
1068,4	61,867
1068,8	47,667
1069,2	68,067
1069,6	57,267
1070	59,467
1070,4	65,667
1070,9	54,067
1071,3	59,467
1071,7	66,667
1072,1	62,267
1072,5	36,667
1072,9	77,267
1073,3	75,667
1073,7	54,067
1074,2	63,067
1074,6	53,667
1075	83,667
1075,4	72,467
1075,8	72,267
1076,2	54,267
1076,6	53,667
1077	58,867
1077,5	69,867
1077,9	46,667
1078,3	73,667
1078,7	63,667
1079,1	86,667
1079,5	73,467
1079,9	69,667
1080,3	78,667
1080,7	55,667
1081,2	43,667
1081,6	63,067
1082	61,467
1082,4	74,267
1082,8	62,067
1083,2	74,667
1083,6	46,467
1084	56,067
1084,5	48,467
1084,9	39,867
1085,3	69,667
1085,7	59,467
1086,1	58,867
1086,5	76,667
1086,9	65,667
1087,3	51,067
1087,7	55,667
1088,2	48,267
1088,6	25,067
1089	55,067
1089,4	55,067
1089,8	71,267
1090,2	51,267
1090,6	50,267
1091	69,467
1091,4	28,467
1091,9	62,667
1092,3	71,267
1092,7	52,867
1093,1	30,067
1093,5	51,667
1093,9	54,267
1094,3	52,867
1094,7	47,667
1095,1	58,667
1095,5	39,467
1096	50,667
1096,4	79,467
1096,8	51,467
1097,2	52,667
1097,6	54,667
1098	37,467
1098,4	51,267
1098,8	40,267
1099,2	33,667
1099,6	50,467
1100,1	47,867
1100,5	55,067
1100,9	29,267
1101,3	56,667
1101,7	31,667
1102,1	35,867
1102,5	39,267
1102,9	41,067
1103,3	35,067
1103,7	43,667
1104,2	48,467
1104,6	45,267
1105	36,267
1105,4	44,067
1105,8	41,867
1106,2	35,067
1106,6	19,067
1107	0,467
1107,4	-1,933
1107,8	0,267
1108,3	-0,533
