Data from Subt2_00066.txt Node
Date: Fri Aug 11 16:25:32 MSK 2023
User: vat
Spectrometer: MAYP114033
Trigger mode: 0
Integration Time (sec): 5,000000E-1
Scans to average: 5
Electric dark correction enabled: true
Nonlinearity correction enabled: false
Boxcar width: 2
XAxis mode: Wavelengths
Number of Pixels in Spectrum: 2068
>>>>>Begin Spectral Data<<<<<
199,4	0
199,9	0,133
200,4	-4,067
200,8	-5,547
201,3	-14,627
201,8	-18,387
202,2	-20,107
202,7	-22,827
203,2	-28,027
203,6	-24,947
204,1	-27,507
204,6	-31,507
205	-30,307
205,5	-33,867
206	-32,947
206,4	-31,347
206,9	-31,587
207,4	-34,387
207,8	-29,507
208,3	-29,147
208,8	-27,667
209,2	-33,027
209,7	-35,107
210,2	-32,827
210,6	-38,027
211,1	-46,467
211,5	-41,587
212	-38,867
212,5	-39,107
212,9	-37,507
213,4	-35,507
213,9	-36,427
214,3	-36,067
214,8	-40,907
215,3	-37,267
215,7	-38,867
216,2	-35,987
216,7	-38,787
217,1	-39,067
217,6	-43,467
218,1	-39,227
218,5	-45,747
219	-39,747
219,5	-36,987
219,9	-38,107
220,4	-39,867
220,9	-40,507
221,3	-43,987
221,8	-41,467
222,3	-42,307
222,7	-40,307
223,2	-35,907
223,6	-41,427
224,1	-47,187
224,6	-47,347
225	-53,907
225,5	-52,387
226	-47,867
226,4	-45,707
226,9	-43,467
227,4	-37,347
227,8	-41,147
228,3	-43,787
228,8	-50,747
229,2	-48,747
229,7	-53,107
230,2	-54,307
230,6	-50,747
231,1	-44,667
231,5	-47,587
232	-47,787
232,5	-46,667
232,9	-48,787
233,4	-45,627
233,9	-44,907
234,3	-40,267
234,8	-34,427
235,3	-38,947
235,7	-43,547
236,2	-44,907
236,7	-45,187
237,1	-53,427
237,6	-47,227
238,1	-48,547
238,5	-46,347
239	-46,747
239,4	-43,347
239,9	-39,547
240,4	-36,187
240,8	-35,747
241,3	-35,547
241,8	-37,707
242,2	-41,667
242,7	-42,267
243,2	-39,787
243,6	-40,627
244,1	-38,667
244,6	-41,867
245	-43,187
245,5	-46,507
245,9	-49,027
246,4	-46,707
246,9	-46,107
247,3	-47,987
247,8	-50,667
248,3	-46,707
248,7	-53,827
249,2	-53,947
249,7	-56,987
250,1	-58,267
250,6	-64,427
251	-60,747
251,5	-62,387
252	-63,987
252,4	-63,827
252,9	-57,387
253,4	-55,867
253,8	-49,227
254,3	-43,667
254,8	-44,907
255,2	-42,467
255,7	-43,707
256,1	-46,707
256,6	-48,027
257,1	-45,267
257,5	-48,827
258	-44,867
258,5	-45,427
258,9	-40,707
259,4	-35,587
259,9	-34,907
260,3	-42,747
260,8	-40,707
261,2	-39,747
261,7	-41,187
262,2	-44,707
262,6	-40,227
263,1	-38,867
263,6	-40,827
264	-42,347
264,5	-42,307
264,9	-41,787
265,4	-45,547
265,9	-45,667
266,3	-45,827
266,8	-38,627
267,3	-42,067
267,7	-40,027
268,2	-34,907
268,7	-33,507
269,1	-38,787
269,6	-37,267
270	-40,427
270,5	-46,707
271	-47,107
271,4	-44,267
271,9	-43,547
272,4	-42,307
272,8	-42,347
273,3	-49,067
273,7	-52,427
274,2	-47,187
274,7	-45,787
275,1	-46,827
275,6	-40,947
276,1	-37,027
276,5	-42,587
277	-45,187
277,4	-42,227
277,9	-42,947
278,4	-44,027
278,8	-42,427
279,3	-41,547
279,8	-47,427
280,2	-47,627
280,7	-49,827
281,1	-45,467
281,6	-39,547
282,1	-35,067
282,5	-39,147
283	-36,827
283,4	-41,907
283,9	-47,707
284,4	-48,027
284,8	-42,867
285,3	-41,427
285,8	-41,347
286,2	-40,707
286,7	-39,547
287,1	-40,667
287,6	-44,427
288,1	-41,387
288,5	-37,627
289	-37,947
289,5	-37,827
289,9	-37,267
290,4	-37,587
290,8	-39,627
291,3	-43,627
291,8	-44,747
292,2	-43,867
292,7	-44,107
293,1	-46,067
293,6	-44,787
294,1	-45,067
294,5	-51,747
295	-48,227
295,5	-42,587
295,9	-42,107
296,4	-36,587
296,8	-30,507
297,3	-35,827
297,8	-43,387
298,2	-44,067
298,7	-49,587
299,1	-53,147
299,6	-46,267
300,1	-43,547
300,5	-40,467
301	-40,027
301,5	-38,867
301,9	-49,707
302,4	-50,827
302,8	-53,627
303,3	-53,347
303,8	-55,507
304,2	-55,147
304,7	-50,507
305,1	-45,667
305,6	-41,907
306,1	-39,747
306,5	-36,987
307	-38,347
307,4	-37,427
307,9	-40,667
308,4	-34,907
308,8	-31,947
309,3	-33,107
309,8	-34,427
310,2	-34,307
310,7	-40,307
311,1	-47,787
311,6	-43,107
312,1	-44,907
312,5	-44,347
313	-45,667
313,4	-44,507
313,9	-49,267
314,4	-45,947
314,8	-46,107
315,3	-43,707
315,7	-42,827
316,2	-46,907
316,7	-52,827
317,1	-54,307
317,6	-58,387
318	-51,027
318,5	-49,067
319	-48,667
319,4	-47,107
319,9	-38,747
320,3	-41,347
320,8	-38,867
321,3	-38,027
321,7	-34,227
322,2	-42,067
322,6	-44,427
323,1	-50,507
323,6	-52,227
324	-51,107
324,5	-49,747
324,9	-54,507
325,4	-48,707
325,9	-47,747
326,3	-49,427
326,8	-48,307
327,2	-45,547
327,7	-47,827
328,2	-45,507
328,6	-46,187
329,1	-46,107
329,5	-38,307
330	-36,827
330,5	-40,667
330,9	-40,187
331,4	-35,627
331,8	-48,107
332,3	-49,387
332,8	-50,907
333,2	-57,307
333,7	-60,267
334,1	-53,467
334,6	-54,867
335,1	-50,427
335,5	-49,867
336	-48,467
336,4	-50,067
336,9	-45,907
337,4	-46,827
337,8	-41,587
338,3	-42,107
338,7	-39,547
339,2	-37,347
339,7	-34,747
340,1	-40,027
340,6	-41,867
341	-41,307
341,5	-44,387
342	-46,267
342,4	-43,547
342,9	-45,667
343,3	-49,707
343,8	-49,107
344,2	-42,907
344,7	-39,427
345,2	-35,547
345,6	-38,347
346,1	-39,587
346,5	-42,147
347	-49,627
347,5	-51,387
347,9	-41,787
348,4	-37,467
348,8	-41,147
349,3	-37,867
349,8	-35,747
350,2	-35,707
350,7	-40,667
351,1	-43,027
351,6	-37,067
352	-35,707
352,5	-33,347
353	-30,867
353,4	-27,667
353,9	-20,827
354,3	-20,627
354,8	-24,987
355,3	-12,707
355,7	-6,067
356,2	-10,387
356,6	1,133
357,1	16,413
357,5	22,413
358	37,253
358,5	58,133
358,9	74,333
359,4	90,013
359,8	105,733
360,3	129,333
360,8	150,693
361,2	182,613
361,7	215,453
362,1	259,653
362,6	299,613
363	341,173
363,5	383,613
364	426,733
364,4	476,133
364,9	529,653
365,3	580,093
365,8	627,053
366,3	680,093
366,7	719,293
367,2	750,573
367,6	777,933
368,1	805,533
368,5	816,133
369	820,373
369,5	817,093
369,9	815,533
370,4	792,973
370,8	782,013
371,3	759,813
371,7	737,973
372,2	707,053
372,7	674,533
373,1	630,693
373,6	585,773
374	547,573
374,5	511,533
374,9	471,973
375,4	433,373
375,9	403,933
376,3	367,213
376,8	334,573
377,2	309,373
377,7	282,893
378,2	257,293
378,6	232,813
379,1	203,213
379,5	177,893
380	157,693
380,4	141,453
380,9	125,613
381,4	116,893
381,8	108,173
382,3	102,093
382,7	86,333
383,2	77,533
383,6	70,853
384,1	61,493
384,6	50,173
385	45,013
385,5	43,813
385,9	35,053
386,4	30,053
386,8	22,013
387,3	20,053
387,7	14,133
388,2	6,493
388,7	9,533
389,1	8,573
389,6	2,373
390	-4,147
390,5	-5,147
390,9	-13,347
391,4	-16,667
391,9	-15,067
392,3	-16,147
392,8	-11,067
393,2	-12,387
393,7	-6,787
394,1	-8,547
394,6	-7,587
395,1	-11,987
395,5	-10,707
396	-14,587
396,4	-21,987
396,9	-19,667
397,3	-16,747
397,8	-19,867
398,2	-16,347
398,7	-5,707
399,2	-10,107
399,6	-14,947
400,1	-10,587
400,5	-19,307
401	-24,627
401,4	-25,427
401,9	-22,467
402,4	-27,827
402,8	-23,027
403,3	-27,427
403,7	-24,387
404,2	-24,787
404,6	-21,187
405,1	-16,387
405,5	-8,107
406	-10,587
406,5	-12,187
406,9	-14,787
407,4	-16,187
407,8	-14,427
408,3	-5,787
408,7	-1,707
409,2	1,733
409,6	2,493
410,1	7,293
410,6	6,013
411	5,893
411,5	10,813
411,9	17,213
412,4	19,573
412,8	18,173
413,3	25,253
413,7	37,413
414,2	37,413
414,7	44,213
415,1	55,253
415,6	51,533
416	50,733
416,5	52,693
416,9	58,573
417,4	58,893
417,8	69,453
418,3	76,533
418,8	85,813
419,2	89,973
419,7	101,133
420,1	106,613
420,6	108,013
421	113,013
421,5	108,213
421,9	116,253
422,4	123,373
422,8	132,533
423,3	137,733
423,8	151,413
424,2	154,933
424,7	166,413
425,1	171,093
425,6	179,653
426	184,693
426,5	188,453
426,9	194,893
427,4	202,413
427,9	217,413
428,3	223,093
428,8	232,973
429,2	241,653
429,7	256,813
430,1	262,813
430,6	277,093
431	284,413
431,5	297,373
431,9	302,053
432,4	313,213
432,8	331,053
433,3	351,093
433,8	358,213
434,2	369,653
434,7	378,973
435,1	387,613
435,6	403,893
436	427,453
436,5	448,613
436,9	471,773
437,4	497,333
437,8	515,213
438,3	532,253
438,8	553,213
439,2	571,213
439,7	595,453
440,1	613,013
440,6	631,493
441	657,253
441,5	680,013
441,9	694,613
442,4	716,013
442,8	737,533
443,3	754,693
443,7	778,333
444,2	805,733
444,7	828,893
445,1	859,893
445,6	881,253
446	905,933
446,5	931,893
446,9	961,933
447,4	979,973
447,8	1008,413
448,3	1036,253
448,7	1056,733
449,2	1077,693
449,6	1113,333
450,1	1139,773
450,6	1168,013
451	1200,973
451,5	1230,133
451,9	1250,413
452,4	1285,533
452,8	1313,173
453,3	1335,053
453,7	1371,813
454,2	1405,413
454,6	1433,653
455,1	1465,453
455,5	1500,693
456	1523,653
456,4	1545,893
456,9	1582,093
457,3	1609,853
457,8	1634,733
458,3	1666,013
458,7	1701,413
459,2	1722,053
459,6	1758,253
460,1	1781,813
460,5	1808,373
461	1829,413
461,4	1862,053
461,9	1884,493
462,3	1916,493
462,8	1945,013
463,2	1984,533
463,7	1999,533
464,1	2025,373
464,6	2059,453
465	2082,533
465,5	2102,813
466	2131,213
466,4	2154,053
466,9	2167,893
467,3	2195,533
467,8	2223,773
468,2	2248,373
468,7	2269,573
469,1	2292,293
469,6	2309,573
470	2321,973
470,5	2348,733
470,9	2363,853
471,4	2377,773
471,8	2401,973
472,3	2419,653
472,7	2428,693
473,2	2451,013
473,6	2464,573
474,1	2470,653
474,5	2477,733
475	2490,133
475,4	2497,453
475,9	2515,253
476,4	2530,773
476,8	2543,053
477,3	2553,933
477,7	2571,013
478,2	2582,893
478,6	2593,613
479,1	2612,133
479,5	2617,053
480	2623,333
480,4	2631,853
480,9	2635,373
481,3	2633,693
481,8	2643,373
482,2	2639,533
482,7	2636,613
483,1	2637,213
483,6	2632,773
484	2633,573
484,5	2640,093
484,9	2641,493
485,4	2640,693
485,8	2646,973
486,3	2644,853
486,7	2639,733
487,2	2631,573
487,6	2625,053
488,1	2625,853
488,5	2614,493
489	2612,093
489,4	2610,413
489,9	2600,973
490,4	2590,213
490,8	2584,533
491,3	2577,213
491,7	2573,973
492,2	2572,053
492,6	2552,573
493,1	2541,213
493,5	2528,253
494	2508,933
494,4	2494,053
494,9	2490,493
495,3	2483,133
495,8	2470,733
496,2	2460,493
496,7	2450,893
497,1	2437,573
497,6	2422,893
498	2404,573
498,5	2388,853
498,9	2372,853
499,4	2365,173
499,8	2353,493
500,3	2336,893
500,7	2323,013
501,2	2309,813
501,6	2289,773
502,1	2279,053
502,5	2273,093
503	2260,253
503,4	2246,253
503,9	2235,533
504,3	2214,853
504,8	2194,573
505,2	2181,373
505,7	2170,893
506,1	2156,853
506,6	2145,653
507	2128,293
507,5	2115,973
507,9	2099,853
508,4	2078,293
508,8	2063,453
509,3	2049,373
509,7	2027,333
510,2	2010,813
510,6	2001,693
511,1	1975,093
511,5	1960,053
512	1943,733
512,4	1924,213
512,9	1903,653
513,3	1895,053
513,8	1883,013
514,2	1868,173
514,7	1846,093
515,1	1824,453
515,6	1802,773
516	1781,893
516,5	1766,013
516,9	1755,533
517,4	1742,813
517,8	1728,853
518,3	1709,573
518,7	1693,653
519,2	1673,693
519,6	1645,373
520,1	1624,453
520,5	1613,173
521	1594,533
521,4	1571,653
521,9	1559,253
522,3	1543,693
522,8	1526,573
523,2	1514,093
523,7	1505,373
524,1	1489,893
524,6	1470,853
525	1455,133
525,5	1429,533
525,9	1407,293
526,4	1394,773
526,8	1373,813
527,3	1352,733
527,7	1338,453
528,2	1330,213
528,6	1314,253
529,1	1311,573
529,5	1302,213
530	1290,853
530,4	1277,693
530,9	1265,013
531,3	1248,733
531,8	1236,453
532,2	1222,333
532,6	1205,413
533,1	1190,413
533,5	1177,493
534	1157,413
534,4	1144,613
534,9	1128,773
535,3	1114,733
535,8	1101,053
536,2	1083,973
536,7	1069,973
537,1	1056,053
537,6	1046,093
538	1031,173
538,5	1020,333
538,9	1006,813
539,4	995,933
539,8	990,253
540,3	974,253
540,7	964,533
541,2	954,653
541,6	944,693
542,1	919,973
542,5	910,253
543	899,013
543,4	882,773
543,9	868,653
544,3	859,093
544,8	849,293
545,2	831,933
545,7	820,293
546,1	811,693
546,5	802,453
547	792,813
547,4	785,773
547,9	778,773
548,3	764,853
548,8	757,693
549,2	751,253
549,7	746,373
550,1	739,173
550,6	732,773
551	721,013
551,5	706,413
551,9	692,573
552,4	683,533
552,8	672,133
553,3	669,933
553,7	664,173
554,2	656,733
554,6	648,213
555,1	643,813
555,5	632,333
555,9	626,053
556,4	617,693
556,8	615,813
557,3	606,933
557,7	596,253
558,2	589,573
558,6	584,613
559,1	570,733
559,5	559,293
560	555,453
560,4	542,013
560,9	535,493
561,3	529,333
561,8	531,293
562,2	521,573
562,7	522,893
563,1	520,893
563,6	511,093
564	499,573
564,4	492,173
564,9	480,093
565,3	466,413
565,8	461,093
566,2	458,013
566,7	451,573
567,1	441,173
567,6	438,253
568	433,093
568,5	425,693
568,9	422,933
569,4	421,173
569,8	415,053
570,3	416,093
570,7	411,053
571,1	407,533
571,6	406,933
572	404,253
572,5	398,453
572,9	390,413
573,4	387,093
573,8	376,493
574,3	373,093
574,7	364,133
575,2	361,133
575,6	355,373
576,1	351,293
576,5	343,493
576,9	341,293
577,4	336,173
577,8	331,693
578,3	332,933
578,7	335,253
579,2	328,133
579,6	324,693
580,1	316,973
580,5	310,813
581	300,573
581,4	297,773
581,9	290,773
582,3	289,973
582,7	282,893
583,2	280,613
583,6	278,093
584,1	275,293
584,5	269,573
585	267,933
585,4	264,293
585,9	261,853
586,3	258,653
586,8	254,093
587,2	252,733
587,6	245,973
588,1	240,533
588,5	239,053
589	234,493
589,4	227,653
589,9	224,333
590,3	223,693
590,8	224,133
591,2	219,733
591,7	228,413
592,1	233,053
592,5	224,853
593	216,733
593,4	216,333
593,9	201,493
594,3	195,493
594,8	193,533
595,2	196,093
595,7	189,293
596,1	191,253
596,6	188,453
597	188,053
597,4	181,933
597,9	187,693
598,3	186,493
598,8	183,253
599,2	185,213
599,7	185,693
600,1	187,973
600,6	186,053
601	179,053
601,4	176,813
601,9	177,173
602,3	170,733
602,8	168,973
603,2	169,733
603,7	165,973
604,1	162,293
604,6	162,133
605	166,333
605,4	169,053
605,9	165,093
606,3	163,013
606,8	160,093
607,2	148,853
607,7	143,053
608,1	145,933
608,6	147,013
609	148,413
609,4	145,053
609,9	145,973
610,3	139,573
610,8	137,053
611,2	128,133
611,7	131,093
612,1	126,653
612,6	127,173
613	122,893
613,4	128,653
613,9	126,333
614,3	126,093
614,8	123,653
615,2	126,373
615,7	115,653
616,1	112,373
616,6	109,413
617	108,573
617,4	107,973
617,9	118,213
618,3	120,253
618,8	121,693
619,2	125,093
619,7	123,533
620,1	112,293
620,5	109,493
621	108,933
621,4	105,333
621,9	99,933
622,3	102,613
622,8	107,093
623,2	103,933
623,6	105,973
624,1	102,573
624,5	98,373
625	91,013
625,4	87,413
625,9	83,133
626,3	88,613
626,8	90,413
627,2	89,693
627,6	91,133
628,1	90,133
628,5	82,893
629	84,613
629,4	86,133
629,9	87,173
630,3	83,293
630,7	82,133
631,2	78,573
631,6	75,893
632,1	76,253
632,5	80,573
633	81,173
633,4	78,453
633,8	76,973
634,3	75,093
634,7	71,893
635,2	72,893
635,6	71,853
636,1	74,773
636,5	78,533
636,9	77,013
637,4	79,733
637,8	79,533
638,3	74,413
638,7	65,173
639,2	61,213
639,6	61,253
640	59,173
640,5	58,853
640,9	60,933
641,4	61,213
641,8	53,133
642,2	56,133
642,7	54,053
643,1	60,453
643,6	58,013
644	61,533
644,5	62,213
644,9	68,773
645,3	59,093
645,8	57,973
646,2	52,973
646,7	51,813
647,1	51,093
647,6	53,333
648	55,613
648,4	61,053
648,9	61,253
649,3	50,533
649,8	54,733
650,2	57,613
650,6	53,213
651,1	54,773
651,5	59,333
652	58,853
652,4	57,853
652,9	56,613
653,3	55,613
653,7	59,293
654,2	55,173
654,6	57,413
655,1	61,653
655,5	58,093
655,9	54,013
656,4	55,373
656,8	47,813
657,3	43,093
657,7	44,613
658,2	41,533
658,6	38,573
659	43,213
659,5	43,253
659,9	36,813
660,4	40,293
660,8	41,173
661,2	36,213
661,7	34,053
662,1	37,933
662,6	36,413
663	31,253
663,4	34,933
663,9	34,493
664,3	32,053
664,8	30,013
665,2	33,573
665,6	39,173
666,1	44,253
666,5	41,893
667	47,373
667,4	43,333
667,9	34,973
668,3	29,613
668,7	34,773
669,2	31,013
669,6	36,093
670,1	37,893
670,5	39,453
670,9	37,493
671,4	35,973
671,8	30,853
672,3	30,253
672,7	34,453
673,1	32,253
673,6	31,573
674	35,493
674,5	33,453
674,9	26,653
675,3	27,053
675,8	26,053
676,2	24,133
676,7	22,813
677,1	24,893
677,5	25,533
678	22,293
678,4	24,453
678,9	25,453
679,3	25,133
679,7	25,933
680,2	30,693
680,6	23,933
681,1	23,893
681,5	26,413
681,9	25,973
682,4	25,213
682,8	28,333
683,3	28,613
683,7	20,613
684,1	18,933
684,6	21,813
685	26,693
685,5	24,213
685,9	30,213
686,3	30,293
686,8	23,773
687,2	14,773
687,7	15,493
688,1	15,373
688,5	15,053
689	18,413
689,4	19,933
689,9	19,653
690,3	16,333
690,7	16,293
691,2	16,573
691,6	18,853
692	19,973
692,5	21,173
692,9	19,773
693,4	17,053
693,8	17,853
694,2	21,573
694,7	18,693
695,1	19,253
695,6	20,893
696	19,093
696,4	14,693
696,9	22,333
697,3	25,893
697,8	22,413
698,2	20,773
698,6	17,653
699,1	11,613
699,5	7,893
699,9	9,493
700,4	12,053
700,8	19,293
701,3	11,333
701,7	8,573
702,1	3,573
702,6	-2,187
703	-4,547
703,5	0,253
703,9	0,293
704,3	8,973
704,8	11,013
705,2	7,733
705,6	17,333
706,1	21,133
706,5	18,013
707	22,853
707,4	21,773
707,8	8,213
708,3	7,733
708,7	9,653
709,2	1,253
709,6	0,013
710	4,093
710,5	2,813
710,9	-5,787
711,3	-9,107
711,8	-11,427
712,2	-6,027
712,7	-8,947
713,1	-0,907
713,5	10,413
714	11,253
714,4	3,053
714,8	8,973
715,3	11,893
715,7	11,733
716,2	14,853
716,6	15,933
717	17,213
717,5	12,413
717,9	9,813
718,3	8,013
718,8	12,493
719,2	6,173
719,7	4,413
720,1	0,573
720,5	-0,787
721	-1,667
721,4	-4,227
721,8	-6,747
722,3	-3,587
722,7	-4,827
723,2	-7,867
723,6	-5,467
724	-4,347
724,5	-7,507
724,9	-1,427
725,3	1,493
725,8	1,773
726,2	-0,227
726,7	2,573
727,1	-0,147
727,5	-2,227
728	-3,867
728,4	-2,307
728,8	-4,467
729,3	-5,507
729,7	-2,227
730,1	-3,787
730,6	-4,427
731	-1,107
731,5	0,813
731,9	0,133
732,3	4,173
732,8	6,333
733,2	3,453
733,6	6,253
734,1	7,213
734,5	6,253
734,9	9,093
735,4	6,293
735,8	1,213
736,3	-3,347
736,7	-6,707
737,1	-8,067
737,6	-5,027
738	-6,947
738,4	-4,627
738,9	-1,347
739,3	-7,187
739,7	-9,227
740,2	-9,867
740,6	-10,907
741,1	-13,427
741,5	-7,307
741,9	-2,547
742,4	-4,107
742,8	-3,427
743,2	0,533
743,7	-4,027
744,1	-4,507
744,5	-2,827
745	-2,067
745,4	-2,147
745,8	1,893
746,3	-1,107
746,7	-5,267
747,2	-9,147
747,6	-11,547
748	-13,067
748,5	-7,027
748,9	-5,307
749,3	-1,507
749,8	-6,347
750,2	-10,947
750,6	-15,067
751,1	-16,027
751,5	-19,587
751,9	-11,867
752,4	-8,587
752,8	-10,307
753,3	-7,027
753,7	-7,187
754,1	-10,907
754,6	-9,067
755	-8,267
755,4	-6,147
755,9	-4,227
756,3	-4,747
756,7	-3,827
757,2	-8,707
757,6	-10,227
758	-9,307
758,5	-7,267
758,9	-8,867
759,3	-9,147
759,8	-6,307
760,2	-8,387
760,6	-10,747
761,1	-14,507
761,5	-7,587
761,9	-10,107
762,4	-10,707
762,8	-10,307
763,3	-12,787
763,7	-15,267
764,1	-13,787
764,6	-10,707
765	-4,667
765,4	-3,427
765,9	-4,507
766,3	-5,987
766,7	-11,787
767,2	-13,467
767,6	-15,307
768	-14,067
768,5	-15,547
768,9	-10,707
769,3	-13,187
769,8	-9,747
770,2	-13,147
770,6	-10,747
771,1	-11,667
771,5	-15,707
771,9	-10,907
772,4	-8,667
772,8	-6,827
773,2	-9,067
773,7	-9,507
774,1	-12,547
774,5	-13,907
775	-20,707
775,4	-18,667
775,8	-14,107
776,3	-15,187
776,7	-12,787
777,1	-8,387
777,6	-9,267
778	-14,427
778,4	-10,547
778,9	-12,507
779,3	-18,627
779,7	-15,707
780,2	-15,387
780,6	-21,587
781	-20,587
781,5	-14,907
781,9	-19,907
782,3	-21,467
782,8	-18,507
783,2	-17,627
783,6	-15,467
784,1	-18,507
784,5	-18,107
784,9	-20,667
785,4	-17,547
785,8	-18,307
786,2	-20,427
786,7	-15,707
787,1	-18,027
787,5	-26,107
788	-24,987
788,4	-20,187
788,8	-20,707
789,3	-14,667
789,7	-12,707
790,1	-15,907
790,6	-17,147
791	-24,947
791,4	-24,307
791,9	-23,507
792,3	-27,987
792,7	-27,027
793,2	-17,387
793,6	-25,947
794	-24,787
794,5	-20,787
794,9	-17,027
795,3	-18,827
795,8	-12,747
796,2	-14,307
796,6	-16,987
797,1	-24,227
797,5	-29,667
797,9	-29,227
798,4	-28,667
798,8	-25,347
799,2	-20,227
799,7	-16,667
800,1	-16,787
800,5	-13,467
801	-17,667
801,4	-19,387
801,8	-20,987
802,2	-19,707
802,7	-21,067
803,1	-23,107
803,5	-24,867
804	-21,827
804,4	-23,987
804,8	-25,787
805,3	-18,667
805,7	-19,707
806,1	-17,547
806,6	-16,067
807	-20,747
807,4	-28,067
807,9	-20,747
808,3	-22,187
808,7	-28,227
809,2	-21,907
809,6	-17,267
810	-23,387
810,4	-26,267
810,9	-25,067
811,3	-28,667
811,7	-30,227
812,2	-23,307
812,6	-24,867
813	-20,987
813,5	-16,787
813,9	-16,067
814,3	-14,067
814,8	-6,467
815,2	-13,787
815,6	-23,107
816,1	-19,227
816,5	-27,267
816,9	-33,187
817,3	-27,907
817,8	-30,347
818,2	-37,187
818,6	-37,547
819,1	-38,987
819,5	-39,187
819,9	-30,707
820,4	-29,587
820,8	-31,147
821,2	-33,627
821,7	-26,707
822,1	-27,427
822,5	-26,187
822,9	-30,587
823,4	-24,627
823,8	-29,707
824,2	-33,947
824,7	-35,627
825,1	-28,747
825,5	-34,747
826	-37,387
826,4	-33,627
826,8	-32,067
827,3	-34,907
827,7	-36,387
828,1	-33,747
828,5	-34,987
829	-34,987
829,4	-34,707
829,8	-35,547
830,3	-34,027
830,7	-30,347
831,1	-33,747
831,6	-28,307
832	-22,787
832,4	-30,667
832,8	-31,187
833,3	-28,947
833,7	-28,467
834,1	-30,787
834,6	-29,787
835	-31,147
835,4	-28,387
835,8	-27,787
836,3	-26,227
836,7	-20,907
837,1	-28,307
837,6	-30,587
838	-33,467
838,4	-36,387
838,9	-41,787
839,3	-36,667
839,7	-37,027
840,1	-33,827
840,6	-35,347
841	-33,507
841,4	-33,427
841,9	-28,507
842,3	-34,267
842,7	-29,187
843,1	-30,867
843,6	-36,627
844	-41,347
844,4	-37,347
844,9	-36,747
845,3	-32,707
845,7	-26,907
846,2	-27,347
846,6	-29,707
847	-33,867
847,4	-41,547
847,9	-40,027
848,3	-44,147
848,7	-46,867
849,2	-42,227
849,6	-38,547
850	-38,587
850,4	-34,427
850,9	-35,227
851,3	-39,427
851,7	-38,067
852,2	-37,267
852,6	-37,867
853	-36,787
853,4	-34,147
853,9	-32,387
854,3	-32,707
854,7	-29,707
855,2	-25,547
855,6	-26,747
856	-27,387
856,4	-28,187
856,9	-31,987
857,3	-34,947
857,7	-35,707
858,2	-34,627
858,6	-34,267
859	-33,067
859,4	-28,947
859,9	-25,947
860,3	-27,227
860,7	-24,667
861,1	-21,667
861,6	-24,427
862	-29,427
862,4	-27,947
862,9	-32,027
863,3	-33,827
863,7	-37,827
864,1	-32,227
864,6	-33,667
865	-31,027
865,4	-30,147
865,9	-24,747
866,3	-24,707
866,7	-28,867
867,1	-30,827
867,6	-37,267
868	-39,467
868,4	-39,387
868,8	-37,427
869,3	-36,947
869,7	-32,267
870,1	-34,827
870,6	-38,307
871	-30,907
871,4	17,373
871,8	13,333
872,3	14,493
872,7	17,453
873,1	16,373
873,5	-31,347
874	-27,187
874,4	-27,427
874,8	-31,987
875,3	-34,027
875,7	-34,827
876,1	-36,507
876,5	-34,947
877	-32,547
877,4	-31,627
877,8	-31,827
878,2	-29,947
878,7	-28,627
879,1	-24,387
879,5	-27,467
879,9	-30,747
880,4	-27,707
880,8	-33,587
881,2	-34,747
881,7	-39,107
882,1	-33,987
882,5	-39,867
882,9	-34,507
883,4	-36,347
883,8	-34,347
884,2	-35,907
884,6	-32,307
885,1	-33,547
885,5	-33,667
885,9	-31,987
886,3	-31,227
886,8	-27,707
887,2	-28,867
887,6	-24,667
888	-30,987
888,5	-30,587
888,9	-31,907
889,3	-29,867
889,8	-34,707
890,2	-29,787
890,6	-29,587
891	-38,107
891,5	-40,507
891,9	-43,227
892,3	-39,827
892,7	-41,667
893,2	-31,747
893,6	-30,267
894	-27,667
894,4	-31,627
894,9	-34,827
895,3	-38,267
895,7	-38,667
896,1	-36,307
896,6	-37,107
897	-34,587
897,4	-36,507
897,8	-33,187
898,3	-41,787
898,7	-34,067
899,1	-33,747
899,5	-34,347
900	-39,387
900,4	-31,307
900,8	-37,707
901,2	-38,187
901,7	-38,227
902,1	-37,547
902,5	-39,427
902,9	-37,987
903,4	-33,627
903,8	-34,067
904,2	-31,307
904,6	-34,667
905,1	-34,547
905,5	-37,787
905,9	-38,147
906,3	-37,107
906,8	-32,787
907,2	-34,947
907,6	-36,627
908	-35,267
908,5	-41,107
908,9	-44,747
909,3	-44,547
909,7	-42,027
910,2	-41,547
910,6	-43,667
911	-41,667
911,4	-45,587
911,9	-49,387
912,3	-49,387
912,7	-45,227
913,1	-45,187
913,6	-38,747
914	-43,427
914,4	-46,987
914,8	-48,027
915,3	-49,787
915,7	-49,827
916,1	-47,307
916,5	-39,707
916,9	-33,147
917,4	-32,187
917,8	-37,227
918,2	-29,147
918,6	-34,467
919,1	-36,827
919,5	-41,027
919,9	-31,867
920,3	-38,507
920,8	-31,827
921,2	-36,467
921,6	-33,547
922	-41,907
922,5	-36,587
922,9	-45,067
923,3	-40,787
923,7	-42,267
924,2	-36,467
924,6	-41,187
925	-37,027
925,4	-36,787
925,8	-37,667
926,3	-43,227
926,7	-45,107
927,1	-44,267
927,5	-52,907
928	-51,347
928,4	-48,107
928,8	-43,147
929,2	-44,627
929,7	-35,547
930,1	-29,587
930,5	-26,627
930,9	-28,987
931,3	-31,267
931,8	-39,947
932,2	-43,747
932,6	-52,467
933	-51,147
933,5	-49,907
933,9	-39,307
934,3	-42,347
934,7	-38,107
935,2	-32,987
935,6	-33,387
936	-40,347
936,4	-46,947
936,8	-49,107
937,3	-55,427
937,7	-56,107
938,1	-57,987
938,5	-47,387
939	-50,307
939,4	-49,467
939,8	-46,507
940,2	-39,587
940,6	-44,627
941,1	-42,147
941,5	-41,467
941,9	-46,667
942,3	-48,427
942,8	-48,907
943,2	-43,267
943,6	-48,027
944	-46,187
944,4	-54,467
944,9	-50,387
945,3	-52,547
945,7	-50,587
946,1	-52,307
946,6	-49,667
947	-44,987
947,4	-51,507
947,8	-49,227
948,2	-46,267
948,7	-39,507
949,1	-38,467
949,5	-30,707
949,9	-34,187
950,3	-29,387
950,8	-32,987
951,2	-36,427
951,6	-40,947
952	-36,267
952,5	-41,707
952,9	-40,707
953,3	-46,907
953,7	-42,107
954,1	-45,027
954,6	-43,187
955	-36,987
955,4	-29,947
955,8	-28,747
956,2	-28,907
956,7	-38,347
957,1	-46,067
957,5	-55,907
957,9	-58,147
958,3	-58,267
958,8	-52,227
959,2	-49,307
959,6	-46,547
960	-47,347
960,5	-47,667
960,9	-49,947
961,3	-52,227
961,7	-43,027
962,1	-42,227
962,6	-39,787
963	-32,027
963,4	-27,947
963,8	-29,907
964,2	-34,427
964,7	-35,787
965,1	-41,707
965,5	-49,427
965,9	-51,147
966,3	-48,027
966,8	-47,787
967,2	-46,667
967,6	-43,707
968	-46,067
968,4	-40,947
968,9	-43,867
969,3	-37,707
969,7	-40,387
970,1	-43,267
970,5	-46,627
971	-39,987
971,4	-44,107
971,8	-41,067
972,2	-37,907
972,6	-41,987
973,1	-46,987
973,5	-46,507
973,9	-50,947
974,3	-52,907
974,7	-49,027
975,2	-49,547
975,6	-48,947
976	-44,267
976,4	-41,387
976,8	-41,507
977,3	-40,827
977,7	-37,867
978,1	-34,187
978,5	-37,707
978,9	-39,867
979,4	-33,027
979,8	-34,027
980,2	-34,507
980,6	-30,587
981	-22,907
981,5	-24,947
981,9	-27,747
982,3	-30,347
982,7	-31,107
983,1	-36,467
983,6	-36,467
984	-34,547
984,4	-33,747
984,8	-33,267
985,2	-30,027
985,6	-34,027
986,1	-41,987
986,5	-38,387
986,9	-36,987
987,3	-47,027
987,7	-44,507
988,2	-40,587
988,6	-45,347
989	-50,747
989,4	-50,347
989,8	-57,467
990,3	-58,547
990,7	-61,547
991,1	-54,947
991,5	-45,907
991,9	-40,867
992,3	-37,387
992,8	-30,907
993,2	-34,547
993,6	-37,067
994	-37,587
994,4	-42,987
994,9	-41,027
995,3	-44,547
995,7	-47,947
996,1	-45,667
996,5	-40,987
996,9	-53,547
997,4	-49,467
997,8	-51,147
998,2	-53,107
998,6	-57,587
999	-48,147
999,5	-49,307
999,9	-50,067
1000,3	-51,227
1000,7	-46,787
1001,1	-48,347
1001,5	-44,467
1002	-46,707
1002,4	-47,187
1002,8	-49,587
1003,2	-51,107
1003,6	-53,027
1004	-43,267
1004,5	-41,867
1004,9	-38,827
1005,3	-39,987
1005,7	-43,347
1006,1	-46,827
1006,6	-44,947
1007	-47,227
1007,4	-42,947
1007,8	-38,707
1008,2	-39,827
1008,6	-41,027
1009,1	-38,507
1009,5	-40,507
1009,9	-44,707
1010,3	-39,227
1010,7	-40,787
1011,1	-42,227
1011,6	-39,507
1012	-38,027
1012,4	-47,707
1012,8	-47,267
1013,2	-50,187
1013,6	-53,867
1014,1	-54,187
1014,5	-45,747
1014,9	-39,707
1015,3	-33,107
1015,7	-30,187
1016,1	-37,227
1016,6	-42,707
1017	-46,627
1017,4	-47,027
1017,8	-48,147
1018,2	-39,107
1018,6	-39,987
1019,1	-39,547
1019,5	-40,507
1019,9	-41,347
1020,3	-42,707
1020,7	-44,387
1021,1	-46,827
1021,6	-49,427
1022	-47,907
1022,4	-46,387
1022,8	-39,347
1023,2	-40,587
1023,6	-42,267
1024,1	-41,307
1024,5	-45,947
1024,9	-48,267
1025,3	-46,987
1025,7	-44,867
1026,1	-47,227
1026,6	-42,747
1027	-40,467
1027,4	-40,707
1027,8	-37,627
1028,2	-38,267
1028,6	-41,227
1029	-43,427
1029,5	-44,107
1029,9	-47,267
1030,3	-47,107
1030,7	-49,467
1031,1	-51,267
1031,5	-52,867
1032	-53,947
1032,4	-58,827
1032,8	-56,027
1033,2	-60,707
1033,6	-59,587
1034	-59,107
1034,4	-55,587
1034,9	-56,947
1035,3	-51,947
1035,7	-53,387
1036,1	-55,227
1036,5	-50,947
1036,9	-43,507
1037,4	-43,587
1037,8	-37,467
1038,2	-32,827
1038,6	-37,387
1039	-42,347
1039,4	-41,107
1039,8	-50,667
1040,3	-57,587
1040,7	-59,387
1041,1	-68,787
1041,5	-69,987
1041,9	-66,867
1042,3	-67,467
1042,7	-66,907
1043,2	-57,787
1043,6	-59,707
1044	-61,347
1044,4	-55,947
1044,8	-49,387
1045,2	-51,307
1045,6	-46,187
1046,1	-40,907
1046,5	-37,827
1046,9	-48,747
1047,3	-48,027
1047,7	-54,387
1048,1	-62,067
1048,5	-66,867
1049	-58,507
1049,4	-58,867
1049,8	-53,507
1050,2	-39,547
1050,6	-35,027
1051	-36,907
1051,4	-37,587
1051,9	-44,827
1052,3	-56,147
1052,7	-68,227
1053,1	-66,547
1053,5	-70,427
1053,9	-63,747
1054,3	-63,867
1054,8	-62,467
1055,2	-63,627
1055,6	-62,027
1056	-61,667
1056,4	-60,267
1056,8	-48,107
1057,2	-46,347
1057,6	-43,547
1058,1	-53,947
1058,5	-52,627
1058,9	-59,547
1059,3	-61,067
1059,7	-57,467
1060,1	-52,667
1060,5	-53,507
1061	-50,587
1061,4	-52,507
1061,8	-47,547
1062,2	-44,547
1062,6	-44,307
1063	-47,707
1063,4	-47,507
1063,8	-54,027
1064,3	-51,147
1064,7	-53,827
1065,1	-53,307
1065,5	-47,107
1065,9	-48,307
1066,3	-51,787
1066,7	-53,627
1067,1	-55,627
1067,6	-60,467
1068	-60,027
1068,4	-58,187
1068,8	-51,187
1069,2	-47,067
1069,6	-48,547
1070	-41,787
1070,4	-44,227
1070,9	-49,667
1071,3	-51,707
1071,7	-46,547
1072,1	-54,947
1072,5	-49,307
1072,9	-44,027
1073,3	-42,747
1073,7	-49,507
1074,2	-55,027
1074,6	-56,267
1075	-56,307
1075,4	-54,547
1075,8	-54,787
1076,2	-49,267
1076,6	-48,107
1077	-49,187
1077,5	-55,907
1077,9	-52,867
1078,3	-51,027
1078,7	-51,627
1079,1	-55,227
1079,5	-50,667
1079,9	-49,187
1080,3	-50,507
1080,7	-47,827
1081,2	-50,587
1081,6	-46,467
1082	-49,467
1082,4	-48,547
1082,8	-49,507
1083,2	-38,467
1083,6	-40,587
1084	-30,787
1084,5	-32,947
1084,9	-37,747
1085,3	-39,107
1085,7	-42,987
1086,1	-48,067
1086,5	-53,067
1086,9	-57,507
1087,3	-61,347
1087,7	-56,467
1088,2	-58,547
1088,6	-50,787
1089	-46,027
1089,4	-46,867
1089,8	-47,347
1090,2	-49,587
1090,6	-45,587
1091	-44,707
1091,4	-38,427
1091,9	-38,427
1092,3	-38,987
1092,7	-38,387
1093,1	-38,827
1093,5	-42,547
1093,9	-42,907
1094,3	-37,827
1094,7	-38,707
1095,1	-37,827
1095,5	-41,307
1096	-39,787
1096,4	-42,867
1096,8	-45,587
1097,2	-46,467
1097,6	-39,027
1098	-33,507
1098,4	-31,427
1098,8	-25,707
1099,2	-23,227
1099,6	-28,947
1100,1	-32,187
1100,5	-27,867
1100,9	-33,907
1101,3	-33,947
1101,7	-29,427
1102,1	-32,627
1102,5	-34,307
1102,9	-35,387
1103,3	-32,507
1103,7	-30,547
1104,2	-28,947
1104,6	-31,907
1105	-30,627
1105,4	-32,307
1105,8	-32,627
1106,2	-26,667
1106,6	-19,227
1107	-10,547
1107,4	-4,627
1107,8	0,033
1108,3	-0,133
