Data from Subt2_00036.txt Node
Date: Fri Aug 11 15:51:23 MSK 2023
User: vat
Spectrometer: MAYP114033
Trigger mode: 0
Integration Time (sec): 5,000000E-1
Scans to average: 5
Electric dark correction enabled: true
Nonlinearity correction enabled: false
Boxcar width: 2
XAxis mode: Wavelengths
Number of Pixels in Spectrum: 2068
>>>>>Begin Spectral Data<<<<<
199,4	-1,033
199,9	-0,467
200,4	-14,487
200,8	-26,007
201,3	-39,727
201,8	-50,567
202,2	-61,847
202,7	-59,607
203,2	-56,927
203,6	-55,127
204,1	-55,447
204,6	-58,087
205	-64,207
205,5	-74,767
206	-73,767
206,4	-78,607
206,9	-82,167
207,4	-82,767
207,8	-78,247
208,3	-82,447
208,8	-78,527
209,2	-80,367
209,7	-84,927
210,2	-90,687
210,6	-91,047
211,1	-98,207
211,5	-91,527
212	-87,167
212,5	-81,967
212,9	-82,007
213,4	-75,887
213,9	-81,887
214,3	-80,127
214,8	-88,367
215,3	-84,367
215,7	-90,847
216,2	-95,407
216,7	-100,007
217,1	-93,727
217,6	-102,247
218,1	-97,767
218,5	-94,287
219	-90,447
219,5	-90,967
219,9	-87,927
220,4	-83,247
220,9	-79,727
221,3	-77,967
221,8	-78,607
222,3	-79,647
222,7	-89,207
223,2	-88,007
223,6	-91,487
224,1	-89,927
224,6	-93,967
225	-94,687
225,5	-101,647
226	-101,327
226,4	-100,487
226,9	-93,287
227,4	-87,887
227,8	-84,087
228,3	-83,687
228,8	-87,887
229,2	-90,647
229,7	-100,087
230,2	-105,927
230,6	-105,287
231,1	-107,647
231,5	-108,927
232	-105,847
232,5	-100,367
232,9	-104,047
233,4	-105,727
233,9	-109,887
234,3	-110,447
234,8	-110,047
235,3	-106,687
235,7	-104,167
236,2	-97,887
236,7	-102,527
237,1	-104,167
237,6	-103,687
238,1	-101,807
238,5	-103,447
239	-98,447
239,4	-97,767
239,9	-99,727
240,4	-102,207
240,8	-99,447
241,3	-97,927
241,8	-103,287
242,2	-104,367
242,7	-98,487
243,2	-102,127
243,6	-105,327
244,1	-103,967
244,6	-98,687
245	-97,887
245,5	-101,087
245,9	-95,247
246,4	-92,367
246,9	-97,287
247,3	-105,207
247,8	-97,847
248,3	-94,967
248,7	-92,287
249,2	-88,127
249,7	-79,927
250,1	-88,327
250,6	-94,527
251	-94,327
251,5	-99,447
252	-103,567
252,4	-97,847
252,9	-95,727
253,4	-99,447
253,8	-98,687
254,3	-103,327
254,8	-109,327
255,2	-106,447
255,7	-104,927
256,1	-96,927
256,6	-89,407
257,1	-89,207
257,5	-92,567
258	-90,247
258,5	-93,087
258,9	-93,847
259,4	-92,207
259,9	-90,607
260,3	-93,167
260,8	-95,487
261,2	-99,167
261,7	-96,807
262,2	-102,007
262,6	-103,727
263,1	-105,367
263,6	-102,967
264	-101,367
264,5	-95,927
264,9	-93,167
265,4	-96,087
265,9	-94,767
266,3	-91,247
266,8	-87,007
267,3	-91,447
267,7	-86,567
268,2	-85,487
268,7	-90,207
269,1	-94,727
269,6	-92,167
270	-87,207
270,5	-91,487
271	-94,687
271,4	-94,327
271,9	-97,927
272,4	-106,047
272,8	-107,847
273,3	-107,647
273,7	-110,167
274,2	-107,367
274,7	-105,087
275,1	-100,927
275,6	-98,167
276,1	-102,007
276,5	-102,967
277	-105,487
277,4	-109,447
277,9	-105,887
278,4	-101,727
278,8	-97,487
279,3	-95,007
279,8	-92,447
280,2	-97,127
280,7	-98,607
281,1	-97,167
281,6	-95,887
282,1	-98,087
282,5	-102,727
283	-104,127
283,4	-105,407
283,9	-107,807
284,4	-103,287
284,8	-95,487
285,3	-91,527
285,8	-88,447
286,2	-87,447
286,7	-89,647
287,1	-90,727
287,6	-95,367
288,1	-103,007
288,5	-104,007
289	-103,007
289,5	-104,047
289,9	-97,767
290,4	-93,887
290,8	-89,767
291,3	-87,767
291,8	-87,847
292,2	-92,007
292,7	-90,567
293,1	-96,167
293,6	-104,767
294,1	-98,167
294,5	-99,887
295	-100,007
295,5	-91,807
295,9	-80,447
296,4	-95,007
296,8	-95,567
297,3	-95,607
297,8	-104,567
298,2	-106,127
298,7	-105,287
299,1	-96,087
299,6	-93,287
300,1	-90,687
300,5	-90,207
301	-76,607
301,5	-85,327
301,9	-87,807
302,4	-86,207
302,8	-89,447
303,3	-96,847
303,8	-96,407
304,2	-99,647
304,7	-106,447
305,1	-105,207
305,6	-102,047
306,1	-99,807
306,5	-104,727
307	-94,927
307,4	-95,447
307,9	-94,847
308,4	-92,167
308,8	-85,687
309,3	-87,767
309,8	-87,367
310,2	-88,007
310,7	-85,927
311,1	-85,287
311,6	-85,647
312,1	-84,967
312,5	-87,167
313	-87,527
313,4	-85,287
313,9	-82,407
314,4	-85,287
314,8	-87,007
315,3	-92,567
315,7	-96,407
316,2	-101,487
316,7	-102,567
317,1	-100,447
317,6	-96,967
318	-92,927
318,5	-97,487
319	-95,567
319,4	-99,887
319,9	-99,567
320,3	-97,727
320,8	-101,407
321,3	-101,887
321,7	-92,207
322,2	-88,647
322,6	-89,927
323,1	-82,167
323,6	-76,327
324	-77,767
324,5	-81,647
324,9	-84,007
325,4	-77,847
325,9	-79,607
326,3	-83,767
326,8	-77,807
327,2	-79,847
327,7	-87,407
328,2	-90,607
328,6	-92,487
329,1	-101,567
329,5	-97,647
330	-93,807
330,5	-92,567
330,9	-89,247
331,4	-85,167
331,8	-88,487
332,3	-88,327
332,8	-89,087
333,2	-89,767
333,7	-91,327
334,1	-89,767
334,6	-86,007
335,1	-82,287
335,5	-77,447
336	-80,447
336,4	-79,207
336,9	-84,647
337,4	-85,327
337,8	-87,167
338,3	-81,327
338,7	-82,087
339,2	-81,047
339,7	-82,567
340,1	-86,487
340,6	-85,967
341	-81,807
341,5	-83,447
342	-82,607
342,4	-78,007
342,9	-78,887
343,3	-80,527
343,8	-80,167
344,2	-78,687
344,7	-73,127
345,2	-70,887
345,6	-74,967
346,1	-70,327
346,5	-74,047
347	-78,367
347,5	-78,487
347,9	-64,887
348,4	-57,487
348,8	-46,807
349,3	-34,447
349,8	-21,127
350,2	-16,807
350,7	-11,887
351,1	2,353
351,6	14,793
352	33,233
352,5	70,593
353	127,353
353,4	176,113
353,9	239,353
354,3	313,153
354,8	390,353
355,3	479,593
355,7	600,513
356,2	738,753
356,6	891,553
357,1	1080,553
357,5	1292,873
358	1524,993
358,5	1792,993
358,9	2108,673
359,4	2452,913
359,8	2841,193
360,3	3288,473
360,8	3786,313
361,2	4326,353
361,7	4930,393
362,1	5600,513
362,6	6327,513
363	7102,513
363,5	7935,913
364	8794,153
364,4	9683,753
364,9	10556,833
365,3	11429,953
365,8	12254,873
366,3	13029,153
366,7	13718,393
367,2	14309,193
367,6	14780,193
368,1	15149,633
368,5	15398,753
369	15492,593
369,5	15493,993
369,9	15354,833
370,4	15074,273
370,8	14688,793
371,3	14222,073
371,7	13641,593
372,2	13005,433
372,7	12342,353
373,1	11631,113
373,6	10898,873
374	10173,033
374,5	9464,033
374,9	8762,593
375,4	8096,153
375,9	7467,713
376,3	6872,953
376,8	6296,233
377,2	5768,673
377,7	5262,193
378,2	4788,673
378,6	4356,233
379,1	3969,113
379,5	3606,553
380	3275,633
380,4	2979,433
380,9	2706,953
381,4	2468,993
381,8	2249,073
382,3	2065,633
382,7	1888,153
383,2	1744,233
383,6	1599,953
384,1	1476,073
384,6	1357,593
385	1258,033
385,5	1163,153
385,9	1077,193
386,4	993,553
386,8	916,593
387,3	837,593
387,7	759,993
388,2	698,033
388,7	640,753
389,1	581,113
389,6	532,833
390	482,833
390,5	434,193
390,9	389,953
391,4	349,753
391,9	312,033
392,3	286,993
392,8	259,113
393,2	237,593
393,7	215,033
394,1	200,673
394,6	171,713
395,1	158,473
395,5	136,513
396	125,233
396,4	104,673
396,9	95,313
397,3	77,473
397,8	66,913
398,2	58,313
398,7	49,753
399,2	40,153
399,6	35,233
400,1	29,913
400,5	21,033
401	19,473
401,4	15,553
401,9	9,553
402,4	-0,327
402,8	-9,847
403,3	-16,767
403,7	-18,167
404,2	-24,887
404,6	-30,567
405,1	-27,407
405,5	-30,967
406	-36,407
406,5	-41,447
406,9	-38,367
407,4	-44,207
407,8	-48,527
408,3	-48,807
408,7	-46,887
409,2	-47,607
409,6	-50,247
410,1	-51,607
410,6	-55,967
411	-57,207
411,5	-61,887
411,9	-60,887
412,4	-55,847
412,8	-58,047
413,3	-63,127
413,7	-51,087
414,2	-48,687
414,7	-55,167
415,1	-47,727
415,6	-40,127
416	-51,207
416,5	-54,167
416,9	-50,327
417,4	-52,967
417,8	-51,767
418,3	-48,727
418,8	-41,207
419,2	-40,407
419,7	-38,367
420,1	-48,487
420,6	-51,967
421	-63,447
421,5	-61,607
421,9	-59,127
422,4	-54,127
422,8	-52,607
423,3	-47,447
423,8	-48,847
424,2	-56,847
424,7	-50,167
425,1	-47,047
425,6	-45,327
426	-49,447
426,5	-45,647
426,9	-57,287
427,4	-55,767
427,9	-62,687
428,3	-60,487
428,8	-68,887
429,2	-67,767
429,7	-70,247
430,1	-65,087
430,6	-70,687
431	-68,847
431,5	-61,447
431,9	-69,567
432,4	-74,367
432,8	-72,287
433,3	-63,327
433,8	-71,287
434,2	-68,327
434,7	-66,247
435,1	-66,767
435,6	-74,607
436	-75,767
436,5	-73,727
436,9	-71,287
437,4	-69,007
437,8	-72,567
438,3	-70,167
438,8	-75,447
439,2	-80,847
439,7	-82,207
440,1	-79,447
440,6	-85,167
441	-87,727
441,5	-88,527
441,9	-89,207
442,4	-91,007
442,8	-84,807
443,3	-82,447
443,7	-84,767
444,2	-82,287
444,7	-82,767
445,1	-83,447
445,6	-75,207
446	-68,007
446,5	-66,327
446,9	-58,567
447,4	-58,207
447,8	-66,887
448,3	-72,327
448,7	-76,847
449,2	-78,447
449,6	-80,967
450,1	-76,047
450,6	-79,967
451	-83,087
451,5	-92,487
451,9	-96,167
452,4	-96,207
452,8	-84,247
453,3	-86,527
453,7	-85,567
454,2	-80,887
454,6	-86,007
455,1	-96,407
455,5	-86,167
456	-80,167
456,4	-84,807
456,9	-84,527
457,3	-77,967
457,8	-81,727
458,3	-80,167
458,7	-77,127
459,2	-70,847
459,6	-77,887
460,1	-78,247
460,5	-79,407
461	-72,247
461,4	-75,527
461,9	-68,047
462,3	-65,367
462,8	-62,087
463,2	-62,367
463,7	-67,327
464,1	-66,567
464,6	-68,607
465	-69,767
465,5	-73,247
466	-67,487
466,4	-65,847
466,9	-66,567
467,3	-67,567
467,8	-72,887
468,2	-69,007
468,7	-73,167
469,1	-72,807
469,6	-71,967
470	-64,007
470,5	-69,727
470,9	-70,247
471,4	-68,487
471,8	-71,447
472,3	-74,527
472,7	-75,967
473,2	-79,287
473,6	-82,007
474,1	-80,407
474,5	-83,607
475	-82,447
475,4	-79,087
475,9	-72,807
476,4	-69,487
476,8	-66,567
477,3	-60,687
477,7	-61,407
478,2	-68,727
478,6	-75,607
479,1	-69,407
479,5	-71,567
480	-72,527
480,4	-70,567
480,9	-69,847
481,3	-70,247
481,8	-70,287
482,2	-66,847
482,7	-67,647
483,1	-68,687
483,6	-71,767
484	-67,327
484,5	-68,447
484,9	-65,847
485,4	-65,647
485,8	-68,487
486,3	-75,487
486,7	-73,567
487,2	-74,447
487,6	-71,487
488,1	-71,367
488,5	-67,887
489	-59,247
489,4	-55,367
489,9	-57,567
490,4	-60,767
490,8	-57,327
491,3	-65,007
491,7	-61,967
492,2	-55,367
492,6	-50,847
493,1	-48,807
493,5	-48,967
494	-51,727
494,4	-54,887
494,9	-55,567
495,3	-61,527
495,8	-63,247
496,2	-62,567
496,7	-60,847
497,1	-59,527
497,6	-58,567
498	-59,767
498,5	-65,447
498,9	-70,687
499,4	-67,807
499,8	-67,887
500,3	-65,327
500,7	-61,927
501,2	-54,727
501,6	-51,767
502,1	-46,367
502,5	-48,687
503	-43,767
503,4	-51,887
503,9	-50,007
504,3	-54,207
504,8	-52,047
505,2	-53,967
505,7	-48,087
506,1	-54,927
506,6	-55,487
507	-56,567
507,5	-54,287
507,9	-55,007
508,4	-52,047
508,8	-47,647
509,3	-41,207
509,7	-45,567
510,2	-40,527
510,6	-36,967
511,1	-41,847
511,5	-47,727
512	-46,487
512,4	-46,727
512,9	-46,487
513,3	-44,687
513,8	-40,687
514,2	-35,247
514,7	-40,327
515,1	-46,127
515,6	-53,087
516	-48,127
516,5	-60,127
516,9	-58,527
517,4	-61,207
517,8	-54,967
518,3	-56,047
518,7	-42,087
519,2	-42,687
519,6	-35,167
520,1	-33,007
520,5	-33,847
521	-42,887
521,4	-42,767
521,9	-41,847
522,3	-46,607
522,8	-48,847
523,2	-41,087
523,7	-32,447
524,1	-32,407
524,6	-26,727
525	-23,807
525,5	-28,767
525,9	-30,647
526,4	-37,767
526,8	-41,847
527,3	-45,367
527,7	-47,207
528,2	-48,407
528,6	-43,887
529,1	-43,807
529,5	-45,447
530	-45,567
530,4	-44,207
530,9	-42,287
531,3	-37,727
531,8	-30,687
532,2	-29,807
532,6	-30,807
533,1	-35,247
533,5	-39,247
534	-44,727
534,4	-43,087
534,9	-47,767
535,3	-36,247
535,8	-39,087
536,2	-37,287
536,7	-41,127
537,1	-43,287
537,6	-54,367
538	-51,167
538,5	-59,287
538,9	-54,927
539,4	-47,287
539,8	-45,327
540,3	-46,167
540,7	-35,367
541,2	-41,167
541,6	-40,607
542,1	-37,007
542,5	-31,607
543	-34,767
543,4	-32,847
543,9	-35,087
544,3	-37,727
544,8	-40,567
545,2	-33,367
545,7	-27,807
546,1	-28,847
546,5	-24,887
547	-27,647
547,4	-33,407
547,9	-33,887
548,3	-35,007
548,8	-41,047
549,2	-36,527
549,7	-37,567
550,1	-38,247
550,6	-38,167
551	-38,287
551,5	-38,247
551,9	-38,127
552,4	-39,247
552,8	-37,127
553,3	-35,807
553,7	-34,807
554,2	-34,287
554,6	-26,007
555,1	-31,727
555,5	-30,887
555,9	-30,447
556,4	-27,087
556,8	-35,447
557,3	-33,287
557,7	-35,367
558,2	-34,407
558,6	-37,727
559,1	-34,927
559,5	-35,887
560	-36,047
560,4	-38,287
560,9	-36,527
561,3	-38,807
561,8	-37,047
562,2	-36,727
562,7	-39,527
563,1	-43,647
563,6	-43,007
564	-35,047
564,4	-29,287
564,9	-26,887
565,3	-27,727
565,8	-27,567
566,2	-32,327
566,7	-33,927
567,1	-33,927
567,6	-32,527
568	-28,967
568,5	-30,207
568,9	-34,967
569,4	-29,487
569,8	-26,167
570,3	-28,167
570,7	-22,847
571,1	-27,607
571,6	-35,007
572	-34,607
572,5	-38,847
572,9	-43,647
573,4	-32,847
573,8	-33,287
574,3	-34,327
574,7	-25,687
575,2	-28,407
575,6	-30,247
576,1	-27,447
576,5	-34,087
576,9	-42,447
577,4	-37,287
577,8	-41,407
578,3	-45,327
578,7	-43,087
579,2	-41,007
579,6	-44,127
580,1	-41,527
580,5	-37,407
581	-34,607
581,4	-37,887
581,9	-42,247
582,3	-44,607
582,7	-43,487
583,2	-51,967
583,6	-47,167
584,1	-45,447
584,5	-52,687
585	-57,247
585,4	-55,967
585,9	-58,287
586,3	-60,447
586,8	-54,247
587,2	-57,247
587,6	-47,767
588,1	-48,567
588,5	-42,887
589	-40,167
589,4	-39,087
589,9	-41,367
590,3	-43,487
590,8	-45,647
591,2	-52,807
591,7	-53,247
592,1	-49,927
592,5	-49,327
593	-56,167
593,4	-54,367
593,9	-51,567
594,3	-59,967
594,8	-66,407
595,2	-61,047
595,7	-52,047
596,1	-47,207
596,6	-39,447
597	-34,407
597,4	-30,487
597,9	-31,367
598,3	-33,647
598,8	-31,887
599,2	-33,847
599,7	-39,087
600,1	-40,847
600,6	-46,127
601	-57,047
601,4	-54,327
601,9	-55,327
602,3	-61,487
602,8	-59,887
603,2	-59,167
603,7	-60,007
604,1	-61,447
604,6	-56,967
605	-55,727
605,4	-59,287
605,9	-59,487
606,3	-51,967
606,8	-52,767
607,2	-51,887
607,7	-50,367
608,1	-50,407
608,6	-49,527
609	-50,647
609,4	-54,087
609,9	-49,967
610,3	-50,847
610,8	-54,607
611,2	-57,247
611,7	-54,327
612,1	-54,527
612,6	-55,847
613	-60,607
613,4	-53,687
613,9	-55,847
614,3	-57,767
614,8	-54,807
615,2	-52,887
615,7	-55,287
616,1	-52,287
616,6	-51,807
617	-48,767
617,4	-49,367
617,9	-50,447
618,3	-55,887
618,8	-59,327
619,2	-61,887
619,7	-59,247
620,1	-65,567
620,5	-62,687
621	-60,887
621,4	-59,287
621,9	-61,567
622,3	-63,567
622,8	-62,007
623,2	-68,047
623,6	-70,567
624,1	-67,487
624,5	-61,207
625	-63,647
625,4	-59,607
625,9	-60,407
626,3	-61,407
626,8	-59,007
627,2	-60,767
627,6	-55,207
628,1	-58,647
628,5	-61,047
629	-62,367
629,4	-62,007
629,9	-61,767
630,3	-60,487
630,7	-61,127
631,2	-64,247
631,6	-66,927
632,1	-62,367
632,5	-60,007
633	-58,407
633,4	-59,927
633,8	-58,647
634,3	-65,767
634,7	-66,207
635,2	-72,287
635,6	-70,807
636,1	-71,527
636,5	-68,327
636,9	-73,247
637,4	-70,127
637,8	-65,647
638,3	-66,687
638,7	-71,487
639,2	-66,327
639,6	-67,967
640	-69,727
640,5	-64,607
640,9	-63,127
641,4	-68,807
641,8	-69,727
642,2	-69,447
642,7	-76,207
643,1	-84,767
643,6	-84,567
644	-78,327
644,5	-84,447
644,9	-77,567
645,3	-72,047
645,8	-68,527
646,2	-74,207
646,7	-70,647
647,1	-75,647
647,6	-76,167
648	-81,247
648,4	-72,207
648,9	-71,367
649,3	-77,767
649,8	-73,007
650,2	-60,327
650,6	-67,127
651,1	-69,567
651,5	-57,007
652	-57,407
652,4	-69,007
652,9	-73,807
653,3	-70,687
653,7	-77,647
654,2	-83,567
654,6	-77,767
655,1	-77,567
655,5	-80,847
655,9	-75,607
656,4	-77,207
656,8	-83,567
657,3	-80,887
657,7	-81,887
658,2	-86,567
658,6	-80,927
659	-78,607
659,5	-76,447
659,9	-74,007
660,4	-74,527
660,8	-78,887
661,2	-77,447
661,7	-75,327
662,1	-75,607
662,6	-79,807
663	-76,607
663,4	-74,447
663,9	-76,327
664,3	-78,487
664,8	-64,327
665,2	-62,687
665,6	-71,327
666,1	-74,647
666,5	-77,567
667	-83,687
667,4	-84,327
667,9	-74,087
668,3	-73,367
668,7	-70,007
669,2	-71,207
669,6	-72,207
670,1	-76,527
670,5	-74,087
670,9	-75,527
671,4	-84,487
671,8	-84,687
672,3	-83,327
672,7	-84,327
673,1	-83,327
673,6	-77,967
674	-76,407
674,5	-74,927
674,9	-76,967
675,3	-80,487
675,8	-80,047
676,2	-82,687
676,7	-82,527
677,1	-81,687
677,5	-82,247
678	-78,487
678,4	-70,567
678,9	-78,807
679,3	-80,247
679,7	-73,487
680,2	-73,807
680,6	-87,607
681,1	-83,007
681,5	-79,407
681,9	-85,247
682,4	-87,247
682,8	-86,407
683,3	-86,607
683,7	-88,327
684,1	-81,647
684,6	-82,967
685	-84,047
685,5	-88,967
685,9	-96,567
686,3	-99,927
686,8	-101,487
687,2	-97,287
687,7	-98,207
688,1	-89,007
688,5	-87,047
689	-87,407
689,4	-85,527
689,9	-80,847
690,3	-78,767
690,7	-86,567
691,2	-76,727
691,6	-86,207
692	-79,887
692,5	-79,887
692,9	-70,447
693,4	-76,127
693,8	-65,967
694,2	-71,807
694,7	-69,807
695,1	-75,327
695,6	-76,847
696	-77,567
696,4	-79,447
696,9	-81,167
697,3	-75,767
697,8	-78,287
698,2	-79,847
698,6	-83,087
699,1	-86,287
699,5	-95,567
699,9	-90,047
700,4	-93,647
700,8	-89,847
701,3	-89,327
701,7	-78,807
702,1	-77,927
702,6	-75,607
703	-72,527
703,5	-74,807
703,9	-82,207
704,3	-84,767
704,8	-82,207
705,2	-80,887
705,6	-83,767
706,1	-88,327
706,5	-92,807
707	-96,087
707,4	-97,487
707,8	-94,167
708,3	-82,327
708,7	-84,167
709,2	-85,927
709,6	-89,007
710	-89,207
710,5	-94,527
710,9	-95,767
711,3	-89,247
711,8	-86,407
712,2	-84,607
712,7	-87,087
713,1	-86,447
713,5	-85,567
714	-89,727
714,4	-90,687
714,8	-89,167
715,3	-81,047
715,7	-80,967
716,2	-83,087
716,6	-86,007
717	-85,167
717,5	-87,447
717,9	-90,007
718,3	-87,967
718,8	-80,487
719,2	-84,767
719,7	-88,687
720,1	-88,727
720,5	-87,127
721	-97,127
721,4	-89,687
721,8	-90,407
722,3	-94,727
722,7	-101,687
723,2	-92,727
723,6	-99,007
724	-97,287
724,5	-92,807
724,9	-83,167
725,3	-90,367
725,8	-91,527
726,2	-89,007
726,7	-91,167
727,1	-99,167
727,5	-100,007
728	-97,047
728,4	-106,327
728,8	-101,367
729,3	-91,527
729,7	-84,127
730,1	-81,007
730,6	-74,367
731	-78,767
731,5	-83,687
731,9	-91,687
732,3	-91,927
732,8	-96,287
733,2	-90,367
733,6	-86,887
734,1	-83,167
734,5	-87,247
734,9	-77,727
735,4	-85,687
735,8	-83,207
736,3	-85,367
736,7	-84,487
737,1	-87,607
737,6	-83,527
738	-91,127
738,4	-92,967
738,9	-94,047
739,3	-94,687
739,7	-103,767
740,2	-107,527
740,6	-105,047
741,1	-103,767
741,5	-103,647
741,9	-95,487
742,4	-86,567
742,8	-87,567
743,2	-88,207
743,7	-88,487
744,1	-90,767
744,5	-94,127
745	-93,607
745,4	-87,567
745,8	-85,527
746,3	-80,967
746,7	-82,767
747,2	-84,727
747,6	-92,327
748	-96,407
748,5	-99,927
748,9	-94,727
749,3	-89,967
749,8	-87,647
750,2	-86,807
750,6	-88,727
751,1	-94,287
751,5	-98,927
751,9	-95,647
752,4	-93,327
752,8	-95,807
753,3	-90,407
753,7	-87,167
754,1	-91,767
754,6	-88,647
755	-80,527
755,4	-82,887
755,9	-88,167
756,3	-89,247
756,7	-88,087
757,2	-96,247
757,6	-98,207
758	-94,527
758,5	-91,127
758,9	-97,167
759,3	-91,847
759,8	-92,207
760,2	-90,527
760,6	-88,487
761,1	-86,247
761,5	-93,687
761,9	-97,567
762,4	-94,847
762,8	-98,567
763,3	-99,847
763,7	-97,247
764,1	-96,567
764,6	-96,167
765	-95,887
765,4	-96,887
765,9	-89,687
766,3	-88,407
766,7	-90,727
767,2	-91,447
767,6	-98,967
768	-106,527
768,5	-103,087
768,9	-103,927
769,3	-103,487
769,8	-93,287
770,2	-86,567
770,6	-89,807
771,1	-91,247
771,5	-92,927
771,9	-97,327
772,4	-103,087
772,8	-102,407
773,2	-103,367
773,7	-97,207
774,1	-92,647
774,5	-88,687
775	-85,567
775,4	-82,567
775,8	-89,687
776,3	-95,167
776,7	-94,367
777,1	-86,807
777,6	-88,647
778	-83,647
778,4	-77,647
778,9	-77,167
779,3	-95,127
779,7	-91,127
780,2	-96,007
780,6	-98,287
781	-102,167
781,5	-93,567
781,9	-106,887
782,3	-99,527
782,8	-100,167
783,2	-93,607
783,6	-95,247
784,1	-89,167
784,5	-95,967
784,9	-98,407
785,4	-103,287
785,8	-106,447
786,2	-105,247
786,7	-101,527
787,1	-98,367
787,5	-99,407
788	-93,887
788,4	-97,687
788,8	-100,567
789,3	-99,807
789,7	-98,247
790,1	-103,367
790,6	-95,807
791	-92,607
791,4	-94,407
791,9	-92,967
792,3	-95,007
792,7	-90,887
793,2	-92,607
793,6	-94,607
794	-93,247
794,5	-83,447
794,9	-90,767
795,3	-96,927
795,8	-93,207
796,2	-99,567
796,6	-99,487
797,1	-98,847
797,5	-97,047
797,9	-99,567
798,4	-98,967
798,8	-102,007
799,2	-97,167
799,7	-92,167
800,1	-91,047
800,5	-89,127
801	-89,687
801,4	-91,127
801,8	-86,927
802,2	-89,127
802,7	-85,167
803,1	-86,327
803,5	-86,447
804	-90,927
804,4	-93,887
804,8	-95,167
805,3	-94,327
805,7	-103,407
806,1	-98,607
806,6	-94,087
807	-99,487
807,4	-100,487
807,9	-88,967
808,3	-92,407
808,7	-93,287
809,2	-87,527
809,6	-90,447
810	-93,527
810,4	-98,807
810,9	-97,407
811,3	-98,927
811,7	-98,927
812,2	-105,127
812,6	-103,407
813	-103,087
813,5	-97,767
813,9	-91,887
814,3	-84,967
814,8	-80,607
815,2	-82,167
815,6	-86,047
816,1	-88,567
816,5	-92,047
816,9	-92,087
817,3	-95,927
817,8	-98,087
818,2	-100,087
818,6	-101,527
819,1	-110,007
819,5	-104,007
819,9	-101,847
820,4	-95,527
820,8	-92,047
821,2	-84,887
821,7	-86,247
822,1	-83,047
822,5	-88,567
822,9	-89,967
823,4	-93,567
823,8	-97,007
824,2	-106,087
824,7	-105,327
825,1	-103,287
825,5	-99,207
826	-96,527
826,4	-91,047
826,8	-92,527
827,3	-92,127
827,7	-90,687
828,1	-89,767
828,5	-93,967
829	-93,127
829,4	-96,287
829,8	-98,367
830,3	-93,687
830,7	-94,287
831,1	-94,247
831,6	-98,487
832	-98,727
832,4	-102,487
832,8	-100,767
833,3	-98,287
833,7	-92,127
834,1	-92,367
834,6	-98,287
835	-103,767
835,4	-106,847
835,8	-102,607
836,3	-104,447
836,7	-100,247
837,1	-96,767
837,6	-97,847
838	-104,407
838,4	-106,887
838,9	-104,527
839,3	-102,847
839,7	-99,687
840,1	-105,727
840,6	-103,287
841	-103,527
841,4	-105,847
841,9	-103,007
842,3	-96,127
842,7	-95,727
843,1	-102,087
843,6	-95,647
844	-105,527
844,4	-104,327
844,9	-110,087
845,3	-98,447
845,7	-98,727
846,2	-90,727
846,6	-90,127
847	-87,127
847,4	-95,687
847,9	-103,167
848,3	-100,167
848,7	-100,687
849,2	-95,727
849,6	-92,207
850	-86,447
850,4	-91,047
850,9	-94,847
851,3	-94,927
851,7	-100,687
852,2	-102,967
852,6	-105,167
853	-102,807
853,4	-107,167
853,9	-107,847
854,3	-109,287
854,7	-99,527
855,2	-97,447
855,6	-95,767
856	-93,487
856,4	-90,687
856,9	-96,407
857,3	-97,847
857,7	-101,007
858,2	-99,407
858,6	-104,007
859	-103,647
859,4	-108,087
859,9	-107,487
860,3	-103,207
860,7	-93,607
861,1	-94,367
861,6	-86,487
862	-80,927
862,4	-85,007
862,9	-90,127
863,3	-90,447
863,7	-96,927
864,1	-97,287
864,6	-92,847
865	-91,807
865,4	-89,167
865,9	-83,767
866,3	-89,127
866,7	-94,287
867,1	-96,127
867,6	-97,047
868	-99,527
868,4	-97,487
868,8	-97,087
869,3	-103,407
869,7	-105,247
870,1	-102,767
870,6	-97,607
871	-95,087
871,4	-100,647
871,8	-99,247
872,3	-108,447
872,7	-111,047
873,1	-117,007
873,5	-107,487
874	-105,007
874,4	-104,287
874,8	-104,007
875,3	-97,767
875,7	-94,047
876,1	-99,287
876,5	-93,927
877	-99,567
877,4	-100,607
877,8	-98,607
878,2	-96,247
878,7	-100,087
879,1	-92,807
879,5	-89,247
879,9	-90,527
880,4	-93,127
880,8	-91,327
881,2	-95,447
881,7	-102,207
882,1	-100,127
882,5	-97,407
882,9	-85,887
883,4	-81,447
883,8	-80,927
884,2	-89,767
884,6	-94,527
885,1	-101,127
885,5	-107,407
885,9	-103,487
886,3	-101,007
886,8	-98,687
887,2	-105,287
887,6	-102,167
888	-109,687
888,5	-104,567
888,9	-102,967
889,3	-105,527
889,8	-107,527
890,2	-98,327
890,6	-98,687
891	-94,807
891,5	-87,927
891,9	-85,047
892,3	-86,167
892,7	-84,767
893,2	-89,727
893,6	-83,647
894	-87,007
894,4	-89,447
894,9	-91,607
895,3	-93,007
895,7	-100,967
896,1	-93,727
896,6	-95,007
897	-96,407
897,4	-93,807
897,8	-91,607
898,3	-98,647
898,7	-96,047
899,1	-96,247
899,5	-91,087
900	-95,247
900,4	-88,487
900,8	-92,247
901,2	-93,847
901,7	-100,767
902,1	-100,807
902,5	-102,487
902,9	-97,407
903,4	-99,007
903,8	-101,287
904,2	-96,087
904,6	-97,127
905,1	-94,927
905,5	-92,447
905,9	-86,967
906,3	-87,247
906,8	-89,687
907,2	-94,847
907,6	-93,287
908	-94,687
908,5	-88,927
908,9	-86,007
909,3	-87,407
909,7	-84,647
910,2	-81,887
910,6	-85,007
911	-82,607
911,4	-78,807
911,9	-86,087
912,3	-86,567
912,7	-89,727
913,1	-97,487
913,6	-102,047
914	-98,087
914,4	-103,167
914,8	-104,847
915,3	-102,647
915,7	-98,327
916,1	-102,487
916,5	-100,447
916,9	-98,967
917,4	-98,407
917,8	-97,887
918,2	-88,967
918,6	-86,087
919,1	-85,447
919,5	-87,167
919,9	-88,487
920,3	-95,127
920,8	-102,687
921,2	-100,087
921,6	-102,767
922	-102,807
922,5	-96,607
922,9	-102,127
923,3	-98,727
923,7	-91,487
924,2	-91,007
924,6	-91,967
925	-75,007
925,4	-81,807
925,8	-86,007
926,3	-95,087
926,7	-88,527
927,1	-96,647
927,5	-96,847
928	-88,007
928,4	-76,127
928,8	-87,207
929,2	-85,567
929,7	-84,167
930,1	-92,087
930,5	-96,407
930,9	-96,247
931,3	-96,047
931,8	-101,407
932,2	-98,327
932,6	-100,327
933	-98,207
933,5	-96,047
933,9	-94,727
934,3	-100,847
934,7	-97,807
935,2	-99,327
935,6	-102,767
936	-102,647
936,4	-104,247
936,8	-103,807
937,3	-102,167
937,7	-110,727
938,1	-108,927
938,5	-101,927
939	-106,807
939,4	-108,687
939,8	-103,207
940,2	-101,487
940,6	-107,807
941,1	-100,687
941,5	-100,127
941,9	-92,967
942,3	-99,287
942,8	-97,767
943,2	-106,687
943,6	-107,767
944	-107,927
944,4	-108,447
944,9	-104,447
945,3	-101,927
945,7	-101,687
946,1	-106,967
946,6	-102,647
947	-101,887
947,4	-101,087
947,8	-102,447
948,2	-93,887
948,7	-87,687
949,1	-87,567
949,5	-87,047
949,9	-76,327
950,3	-87,847
950,8	-91,607
951,2	-90,407
951,6	-93,207
952	-100,927
952,5	-94,367
952,9	-94,927
953,3	-101,287
953,7	-98,847
954,1	-91,287
954,6	-94,767
955	-97,847
955,4	-96,847
955,8	-89,527
956,2	-101,207
956,7	-95,407
957,1	-89,567
957,5	-86,007
957,9	-95,847
958,3	-96,767
958,8	-101,647
959,2	-100,047
959,6	-107,647
960	-108,167
960,5	-103,287
960,9	-99,527
961,3	-104,087
961,7	-96,687
962,1	-89,527
962,6	-92,527
963	-95,567
963,4	-97,607
963,8	-101,167
964,2	-108,687
964,7	-105,687
965,1	-105,687
965,5	-107,207
965,9	-106,447
966,3	-100,327
966,8	-98,807
967,2	-96,127
967,6	-94,807
968	-89,887
968,4	-88,767
968,9	-92,927
969,3	-100,447
969,7	-100,247
970,1	-107,527
970,5	-107,087
971	-101,087
971,4	-99,527
971,8	-95,047
972,2	-92,207
972,6	-91,727
973,1	-94,287
973,5	-86,367
973,9	-92,967
974,3	-91,687
974,7	-91,887
975,2	-94,287
975,6	-101,927
976	-92,367
976,4	-89,247
976,8	-94,287
977,3	-96,167
977,7	-89,207
978,1	-90,727
978,5	-97,287
978,9	-95,967
979,4	-93,207
979,8	-98,887
980,2	-106,727
980,6	-100,927
981	-101,207
981,5	-102,727
981,9	-102,687
982,3	-96,847
982,7	-95,887
983,1	-91,967
983,6	-82,527
984	-81,567
984,4	-88,327
984,8	-91,687
985,2	-98,327
985,6	-110,247
986,1	-105,887
986,5	-98,167
986,9	-97,527
987,3	-98,887
987,7	-94,407
988,2	-96,247
988,6	-99,767
989	-102,767
989,4	-105,767
989,8	-112,087
990,3	-115,447
990,7	-114,607
991,1	-119,447
991,5	-109,527
991,9	-101,687
992,3	-99,767
992,8	-94,167
993,2	-86,887
993,6	-86,167
994	-87,767
994,4	-87,287
994,9	-92,567
995,3	-92,327
995,7	-94,407
996,1	-91,407
996,5	-95,047
996,9	-97,527
997,4	-101,327
997,8	-106,207
998,2	-107,207
998,6	-103,647
999	-105,167
999,5	-105,087
999,9	-103,607
1000,3	-104,887
1000,7	-105,047
1001,1	-102,247
1001,5	-97,607
1002	-94,367
1002,4	-97,767
1002,8	-98,007
1003,2	-93,767
1003,6	-94,527
1004	-97,487
1004,5	-95,287
1004,9	-91,847
1005,3	-98,447
1005,7	-100,807
1006,1	-93,767
1006,6	-95,967
1007	-91,527
1007,4	-88,407
1007,8	-85,927
1008,2	-91,247
1008,6	-89,487
1009,1	-99,807
1009,5	-100,727
1009,9	-105,407
1010,3	-104,167
1010,7	-106,887
1011,1	-99,367
1011,6	-99,047
1012	-97,727
1012,4	-100,647
1012,8	-102,767
1013,2	-104,047
1013,6	-103,047
1014,1	-103,927
1014,5	-98,087
1014,9	-89,047
1015,3	-89,727
1015,7	-88,327
1016,1	-88,327
1016,6	-92,487
1017	-98,767
1017,4	-107,727
1017,8	-116,887
1018,2	-117,927
1018,6	-115,927
1019,1	-114,647
1019,5	-107,727
1019,9	-102,967
1020,3	-96,807
1020,7	-98,967
1021,1	-103,527
1021,6	-102,287
1022	-100,287
1022,4	-104,247
1022,8	-99,007
1023,2	-98,487
1023,6	-100,727
1024,1	-101,527
1024,5	-105,887
1024,9	-113,247
1025,3	-109,687
1025,7	-111,607
1026,1	-112,207
1026,6	-109,767
1027	-108,247
1027,4	-111,967
1027,8	-115,487
1028,2	-118,567
1028,6	-118,687
1029	-118,327
1029,5	-117,007
1029,9	-115,007
1030,3	-115,727
1030,7	-114,007
1031,1	-120,727
1031,5	-115,167
1032	-117,807
1032,4	-118,047
1032,8	-117,407
1033,2	-115,567
1033,6	-116,887
1034	-114,047
1034,4	-115,447
1034,9	-119,367
1035,3	-115,927
1035,7	-124,687
1036,1	-122,447
1036,5	-119,927
1036,9	-116,127
1037,4	-121,807
1037,8	-114,807
1038,2	-119,207
1038,6	-119,887
1039	-116,647
1039,4	-110,407
1039,8	-109,087
1040,3	-105,287
1040,7	-107,847
1041,1	-113,967
1041,5	-119,647
1041,9	-123,167
1042,3	-124,087
1042,7	-116,927
1043,2	-114,607
1043,6	-109,047
1044	-109,127
1044,4	-110,487
1044,8	-113,047
1045,2	-119,647
1045,6	-124,847
1046,1	-123,527
1046,5	-126,927
1046,9	-124,727
1047,3	-113,887
1047,7	-108,567
1048,1	-110,167
1048,5	-109,127
1049	-105,407
1049,4	-117,247
1049,8	-120,407
1050,2	-121,487
1050,6	-117,247
1051	-129,567
1051,4	-123,927
1051,9	-123,847
1052,3	-125,447
1052,7	-133,607
1053,1	-133,407
1053,5	-126,967
1053,9	-123,687
1054,3	-127,927
1054,8	-118,727
1055,2	-110,767
1055,6	-114,487
1056	-115,167
1056,4	-101,327
1056,8	-106,167
1057,2	-111,327
1057,6	-118,887
1058,1	-118,847
1058,5	-126,167
1058,9	-123,607
1059,3	-118,767
1059,7	-112,967
1060,1	-118,207
1060,5	-118,327
1061	-118,727
1061,4	-120,327
1061,8	-119,247
1062,2	-119,407
1062,6	-120,727
1063	-125,047
1063,4	-122,127
1063,8	-126,127
1064,3	-116,567
1064,7	-110,447
1065,1	-109,607
1065,5	-110,087
1065,9	-108,887
1066,3	-113,887
1066,7	-119,207
1067,1	-114,687
1067,6	-117,287
1068	-113,647
1068,4	-110,927
1068,8	-106,327
1069,2	-102,927
1069,6	-103,567
1070	-105,527
1070,4	-108,567
1070,9	-109,247
1071,3	-107,647
1071,7	-103,087
1072,1	-97,607
1072,5	-100,327
1072,9	-96,567
1073,3	-101,047
1073,7	-106,687
1074,2	-115,447
1074,6	-106,927
1075	-113,407
1075,4	-115,807
1075,8	-109,887
1076,2	-99,927
1076,6	-99,207
1077	-94,767
1077,5	-94,367
1077,9	-96,207
1078,3	-95,487
1078,7	-98,327
1079,1	-95,087
1079,5	-93,687
1079,9	-96,327
1080,3	-100,767
1080,7	-104,527
1081,2	-105,567
1081,6	-101,927
1082	-99,527
1082,4	-102,007
1082,8	-102,287
1083,2	-106,087
1083,6	-107,007
1084	-106,887
1084,5	-103,487
1084,9	-101,927
1085,3	-97,327
1085,7	-96,247
1086,1	-94,247
1086,5	-91,807
1086,9	-89,047
1087,3	-95,607
1087,7	-91,327
1088,2	-89,407
1088,6	-87,447
1089	-88,727
1089,4	-82,527
1089,8	-85,207
1090,2	-90,767
1090,6	-93,327
1091	-92,007
1091,4	-95,527
1091,9	-98,367
1092,3	-98,007
1092,7	-98,687
1093,1	-100,367
1093,5	-98,327
1093,9	-98,407
1094,3	-95,007
1094,7	-94,447
1095,1	-92,407
1095,5	-94,007
1096	-90,047
1096,4	-92,007
1096,8	-87,487
1097,2	-88,407
1097,6	-83,127
1098	-86,607
1098,4	-81,567
1098,8	-90,967
1099,2	-86,367
1099,6	-84,327
1100,1	-76,687
1100,5	-76,927
1100,9	-69,007
1101,3	-65,087
1101,7	-68,287
1102,1	-73,167
1102,5	-69,687
1102,9	-65,087
1103,3	-70,087
1103,7	-64,447
1104,2	-59,247
1104,6	-62,407
1105	-66,927
1105,4	-62,287
1105,8	-60,287
1106,2	-49,607
1106,6	-33,527
1107	-19,047
1107,4	-8,207
1107,8	-0,267
1108,3	1,1
