Data from Subt2_00083.txt Node
Date: Fri Aug 11 16:43:42 MSK 2023
User: vat
Spectrometer: MAYP114033
Trigger mode: 0
Integration Time (sec): 5,000000E-1
Scans to average: 5
Electric dark correction enabled: true
Nonlinearity correction enabled: false
Boxcar width: 2
XAxis mode: Wavelengths
Number of Pixels in Spectrum: 2068
>>>>>Begin Spectral Data<<<<<
199,4	1,667
199,9	1,067
200,4	-0,653
200,8	-1,813
201,3	-4,093
201,8	-5,173
202,2	-9,533
202,7	-8,933
203,2	-11,013
203,6	-9,613
204,1	-12,093
204,6	-9,453
205	-10,813
205,5	-11,973
206	-13,533
206,4	-14,973
206,9	-10,933
207,4	-10,653
207,8	-8,893
208,3	-7,053
208,8	-1,973
209,2	-0,453
209,7	-1,053
210,2	3,307
210,6	0,387
211,1	-1,333
211,5	-7,973
212	-7,453
212,5	-12,933
212,9	-10,213
213,4	-12,493
213,9	-12,053
214,3	-11,293
214,8	-14,853
215,3	-16,133
215,7	-19,293
216,2	-17,773
216,7	-19,533
217,1	-16,173
217,6	-18,453
218,1	-12,613
218,5	-11,933
219	-9,093
219,5	-3,813
219,9	-6,053
220,4	-2,493
220,9	-3,173
221,3	-4,853
221,8	-13,093
222,3	-7,893
222,7	-13,253
223,2	-16,693
223,6	-18,333
224,1	-11,573
224,6	-4,853
225	-8,413
225,5	-7,333
226	-3,813
226,4	-10,653
226,9	-20,093
227,4	-16,413
227,8	-15,653
228,3	-21,213
228,8	-15,813
229,2	-17,093
229,7	-18,213
230,2	-17,693
230,6	-13,813
231,1	-13,013
231,5	-6,893
232	-2,933
232,5	-4,813
232,9	-7,373
233,4	-10,693
233,9	-13,173
234,3	-13,573
234,8	-10,413
235,3	-10,613
235,7	-10,013
236,2	-11,733
236,7	-12,973
237,1	-12,933
237,6	-10,293
238,1	-7,053
238,5	-9,853
239	-12,653
239,4	-15,333
239,9	-11,813
240,4	-12,373
240,8	-5,573
241,3	-1,573
241,8	-2,453
242,2	-6,373
242,7	-10,733
243,2	-18,893
243,6	-18,253
244,1	-21,973
244,6	-25,893
245	-24,573
245,5	-22,693
245,9	-22,373
246,4	-17,013
246,9	-9,453
247,3	-7,133
247,8	-9,933
248,3	-14,013
248,7	-14,293
249,2	-17,093
249,7	-21,893
250,1	-17,493
250,6	-16,453
251	-16,733
251,5	-18,653
252	-11,813
252,4	-7,933
252,9	-7,373
253,4	-7,013
253,8	-8,093
254,3	-11,213
254,8	-9,613
255,2	-11,373
255,7	-8,173
256,1	-8,813
256,6	-7,973
257,1	-6,693
257,5	-5,813
258	-5,453
258,5	-6,293
258,9	-11,013
259,4	-16,773
259,9	-14,413
260,3	-15,733
260,8	-10,453
261,2	-3,293
261,7	-8,133
262,2	-16,773
262,6	-20,253
263,1	-21,653
263,6	-21,173
264	-18,973
264,5	-15,613
264,9	-14,053
265,4	-19,413
265,9	-18,693
266,3	-14,773
266,8	-8,213
267,3	-6,493
267,7	-1,813
268,2	-6,053
268,7	-7,293
269,1	-10,333
269,6	-13,413
270	-14,653
270,5	-19,253
271	-19,973
271,4	-21,373
271,9	-24,093
272,4	-21,213
272,8	-19,373
273,3	-17,133
273,7	-13,093
274,2	-7,053
274,7	-3,733
275,1	-1,373
275,6	-2,693
276,1	-9,853
276,5	-13,853
277	-18,253
277,4	-21,173
277,9	-15,013
278,4	-13,853
278,8	-11,293
279,3	-13,173
279,8	-8,693
280,2	-12,253
280,7	-7,893
281,1	-9,893
281,6	-11,373
282,1	-12,853
282,5	-14,053
283	-9,093
283,4	-7,413
283,9	-2,413
284,4	-2,053
284,8	-6,413
285,3	-11,013
285,8	-8,493
286,2	-13,013
286,7	-15,493
287,1	-13,093
287,6	-11,373
288,1	-15,533
288,5	-10,373
289	-9,613
289,5	-12,613
289,9	-13,453
290,4	-16,053
290,8	-16,373
291,3	-14,613
291,8	-6,773
292,2	-7,453
292,7	-4,493
293,1	-6,253
293,6	-3,813
294,1	-4,573
294,5	-2,933
295	2,587
295,5	1,267
295,9	-1,213
296,4	-2,973
296,8	-7,533
297,3	-16,453
297,8	-9,973
298,2	-8,413
298,7	-7,893
299,1	-7,773
299,6	-1,013
300,1	-10,813
300,5	-10,173
301	-11,453
301,5	-9,733
301,9	-15,293
302,4	-13,333
302,8	-16,293
303,3	-13,373
303,8	-16,053
304,2	-8,893
304,7	-6,733
305,1	-5,653
305,6	-6,933
306,1	-2,813
306,5	-6,853
307	-1,293
307,4	-3,733
307,9	-10,893
308,4	-11,813
308,8	-10,253
309,3	-14,613
309,8	-11,653
310,2	-7,173
310,7	-9,173
311,1	-12,733
311,6	-12,773
312,1	-8,893
312,5	-4,333
313	-3,813
313,4	-3,493
313,9	-3,613
314,4	-9,733
314,8	-18,893
315,3	-18,453
315,7	-21,813
316,2	-23,413
316,7	-28,293
317,1	-25,413
317,6	-27,453
318	-19,173
318,5	-11,613
319	-12,653
319,4	-7,493
319,9	-9,173
320,3	-13,093
320,8	-23,333
321,3	-11,573
321,7	-12,333
322,2	-3,893
322,6	-5,293
323,1	-1,773
323,6	-10,453
324	-12,053
324,5	-17,253
324,9	-10,893
325,4	-11,693
325,9	-5,253
326,3	-0,613
326,8	3,347
327,2	-5,573
327,7	-5,413
328,2	-9,773
328,6	-16,293
329,1	-17,053
329,5	-9,733
330	-6,773
330,5	-0,453
330,9	-1,053
331,4	-7,933
331,8	-9,933
332,3	-8,933
332,8	-13,693
333,2	-11,333
333,7	-7,413
334,1	-7,453
334,6	-14,613
335,1	-8,613
335,5	-10,773
336	-10,373
336,4	-11,413
336,9	-8,773
337,4	-17,533
337,8	-14,853
338,3	-9,493
338,7	-7,293
339,2	-4,533
339,7	-1,093
340,1	-3,213
340,6	-3,493
341	-0,413
341,5	4,027
342	-0,053
342,4	1,427
342,9	-1,213
343,3	-9,253
343,8	-15,213
344,2	-9,453
344,7	-10,093
345,2	-15,973
345,6	-9,453
346,1	-11,013
346,5	-8,853
347	-4,813
347,5	-0,893
347,9	-0,653
348,4	4,987
348,8	1,707
349,3	-1,413
349,8	1,387
350,2	1,107
350,7	-0,453
351,1	-1,133
351,6	2,347
352	0,707
352,5	0,227
353	3,707
353,4	8,067
353,9	8,147
354,3	10,947
354,8	11,867
355,3	10,027
355,7	10,507
356,2	15,227
356,6	20,867
357,1	32,227
357,5	43,467
358	55,787
358,5	66,147
358,9	77,547
359,4	87,867
359,8	105,387
360,3	125,307
360,8	146,187
361,2	170,987
361,7	203,867
362,1	232,627
362,6	268,147
363	307,107
363,5	343,707
364	380,787
364,4	420,947
364,9	460,427
365,3	502,147
365,8	539,387
366,3	575,867
366,7	612,627
367,2	639,587
367,6	657,467
368,1	681,467
368,5	693,147
369	694,387
369,5	698,227
369,9	693,827
370,4	683,427
370,8	665,187
371,3	642,987
371,7	616,427
372,2	584,027
372,7	548,987
373,1	520,667
373,6	491,587
374	461,707
374,5	437,547
374,9	411,507
375,4	380,067
375,9	356,187
376,3	330,507
376,8	304,907
377,2	279,427
377,7	258,827
378,2	234,987
378,6	211,427
379,1	196,067
379,5	182,507
380	170,107
380,4	155,347
380,9	144,027
381,4	127,747
381,8	116,347
382,3	104,267
382,7	98,187
383,2	85,907
383,6	81,467
384,1	72,427
384,6	64,267
385	53,827
385,5	50,027
385,9	39,627
386,4	36,827
386,8	38,987
387,3	35,947
387,7	33,027
388,2	38,307
388,7	32,827
389,1	23,427
389,6	25,147
390	25,627
390,5	20,507
390,9	20,987
391,4	19,667
391,9	15,347
392,3	11,667
392,8	7,747
393,2	8,147
393,7	8,867
394,1	7,267
394,6	4,627
395,1	0,827
395,5	-1,813
396	0,227
396,4	1,427
396,9	2,587
397,3	8,507
397,8	7,147
398,2	4,627
398,7	5,307
399,2	2,947
399,6	4,227
400,1	1,907
400,5	5,787
401	0,907
401,4	-1,333
401,9	-4,173
402,4	3,027
402,8	-2,893
403,3	-0,133
403,7	1,507
404,2	2,347
404,6	-3,333
405,1	0,867
405,5	0,547
406	2,267
406,5	-0,293
406,9	1,547
407,4	1,227
407,8	-0,893
408,3	2,107
408,7	3,507
409,2	3,747
409,6	4,507
410,1	9,427
410,6	13,587
411	17,067
411,5	19,147
411,9	18,627
412,4	23,147
412,8	23,747
413,3	24,867
413,7	25,907
414,2	32,867
414,7	28,787
415,1	26,507
415,6	22,747
416	22,427
416,5	16,507
416,9	23,227
417,4	26,707
417,8	39,907
418,3	44,947
418,8	49,267
419,2	52,467
419,7	51,707
420,1	46,467
420,6	46,587
421	46,587
421,5	47,027
421,9	46,267
422,4	49,267
422,8	50,947
423,3	52,907
423,8	50,067
424,2	57,067
424,7	52,827
425,1	54,907
425,6	57,627
426	63,667
426,5	62,147
426,9	69,667
427,4	71,147
427,9	72,187
428,3	71,227
428,8	76,947
429,2	79,387
429,7	85,467
430,1	90,907
430,6	99,307
431	102,027
431,5	106,867
431,9	109,307
432,4	106,427
432,8	106,547
433,3	110,707
433,8	116,227
434,2	116,267
434,7	129,307
435,1	132,107
435,6	138,667
436	139,467
436,5	151,467
436,9	157,067
437,4	168,547
437,8	171,667
438,3	175,627
438,8	174,907
439,2	181,307
439,7	185,547
440,1	197,867
440,6	211,267
441	225,187
441,5	230,347
441,9	237,307
442,4	244,907
442,8	257,427
443,3	270,347
443,7	283,547
444,2	303,907
444,7	319,267
445,1	334,267
445,6	352,267
446	370,387
446,5	375,187
446,9	391,347
447,4	400,987
447,8	410,027
448,3	423,827
448,7	449,147
449,2	461,747
449,6	480,827
450,1	497,467
450,6	510,147
451	523,227
451,5	534,667
451,9	550,027
452,4	570,907
452,8	596,227
453,3	617,307
453,7	644,627
454,2	668,947
454,6	687,907
455,1	706,947
455,5	729,667
456	742,747
456,4	767,227
456,9	787,107
457,3	804,747
457,8	824,427
458,3	847,987
458,7	864,347
459,2	892,547
459,6	919,147
460,1	937,867
460,5	974,667
461	1000,427
461,4	1023,707
461,9	1047,427
462,3	1075,187
462,8	1096,547
463,2	1125,907
463,7	1153,067
464,1	1182,347
464,6	1201,947
465	1230,787
465,5	1249,907
466	1273,747
466,4	1295,427
466,9	1330,627
467,3	1348,187
467,8	1381,107
468,2	1409,187
468,7	1436,667
469,1	1460,307
469,6	1492,107
470	1514,867
470,5	1538,547
470,9	1566,067
471,4	1586,787
471,8	1617,627
472,3	1643,427
472,7	1669,227
473,2	1691,347
473,6	1730,107
474,1	1750,307
474,5	1772,227
475	1798,347
475,4	1830,867
475,9	1841,467
476,4	1863,427
476,8	1892,307
477,3	1912,907
477,7	1929,667
478,2	1964,067
478,6	1987,467
479,1	2005,787
479,5	2024,347
480	2045,147
480,4	2053,347
480,9	2070,107
481,3	2090,227
481,8	2114,427
482,2	2132,307
482,7	2155,587
483,1	2171,827
483,6	2186,467
484	2194,067
484,5	2206,547
484,9	2226,307
485,4	2240,587
485,8	2256,947
486,3	2276,347
486,7	2296,347
487,2	2309,467
487,6	2326,507
488,1	2332,867
488,5	2333,387
489	2344,427
489,4	2343,307
489,9	2348,147
490,4	2357,267
490,8	2374,027
491,3	2375,067
491,7	2394,867
492,2	2397,947
492,6	2409,307
493,1	2412,347
493,5	2418,547
494	2411,947
494,4	2423,947
494,9	2420,787
495,3	2421,267
495,8	2418,427
496,2	2425,347
496,7	2420,707
497,1	2421,587
497,6	2428,027
498	2435,107
498,5	2438,267
498,9	2436,267
499,4	2434,707
499,8	2437,787
500,3	2433,027
500,7	2428,867
501,2	2436,827
501,6	2444,587
502,1	2435,027
502,5	2435,347
503	2433,227
503,4	2418,507
503,9	2407,467
504,3	2407,707
504,8	2409,267
505,2	2400,827
505,7	2403,387
506,1	2403,907
506,6	2398,507
507	2387,587
507,5	2381,467
507,9	2373,267
508,4	2364,107
508,8	2356,387
509,3	2355,307
509,7	2356,867
510,2	2353,427
510,6	2349,587
511,1	2338,387
511,5	2325,027
512	2310,467
512,4	2299,267
512,9	2294,587
513,3	2294,987
513,8	2297,587
514,2	2298,827
514,7	2291,627
515,1	2282,747
515,6	2278,347
516	2265,667
516,5	2256,907
516,9	2249,507
517,4	2244,707
517,8	2234,467
518,3	2226,987
518,7	2214,547
519,2	2211,907
519,6	2192,547
520,1	2187,107
520,5	2181,587
521	2174,867
521,4	2165,067
521,9	2166,627
522,3	2159,987
522,8	2154,547
523,2	2150,507
523,7	2143,467
524,1	2142,227
524,6	2130,227
525	2119,387
525,5	2115,027
525,9	2118,067
526,4	2102,187
526,8	2095,907
527,3	2091,227
527,7	2082,187
528,2	2070,747
528,6	2068,627
529,1	2069,067
529,5	2063,027
530	2060,867
530,4	2052,787
530,9	2047,507
531,3	2033,347
531,8	2025,027
532,2	2014,267
532,6	2008,947
533,1	2005,227
533,5	2003,987
534	2006,747
534,4	2003,387
534,9	2002,587
535,3	1997,507
535,8	2000,267
536,2	1993,307
536,7	1990,707
537,1	1989,227
537,6	1985,347
538	1983,227
538,5	1979,267
538,9	1980,307
539,4	1970,947
539,8	1972,427
540,3	1964,307
540,7	1953,147
541,2	1945,587
541,6	1943,347
542,1	1937,467
542,5	1938,307
543	1940,827
543,4	1938,427
543,9	1938,747
544,3	1936,187
544,8	1933,667
545,2	1936,347
545,7	1930,227
546,1	1927,827
546,5	1918,987
547	1908,107
547,4	1903,947
547,9	1906,707
548,3	1902,387
548,8	1899,587
549,2	1894,587
549,7	1878,707
550,1	1866,867
550,6	1861,707
551	1862,107
551,5	1866,747
551,9	1878,147
552,4	1879,227
552,8	1874,667
553,3	1876,227
553,7	1877,947
554,2	1865,907
554,6	1867,467
555,1	1866,267
555,5	1875,187
555,9	1867,667
556,4	1873,707
556,8	1871,227
557,3	1872,947
557,7	1859,267
558,2	1860,107
558,6	1853,147
559,1	1848,387
559,5	1839,707
560	1837,187
560,4	1832,067
560,9	1836,347
561,3	1838,427
561,8	1844,507
562,2	1845,587
562,7	1849,267
563,1	1849,387
563,6	1840,747
564	1837,947
564,4	1831,467
564,9	1821,467
565,3	1814,787
565,8	1816,547
566,2	1817,747
566,7	1815,707
567,1	1811,667
567,6	1811,307
568	1808,667
568,5	1800,747
568,9	1799,707
569,4	1804,587
569,8	1800,347
570,3	1801,947
570,7	1800,147
571,1	1787,707
571,6	1782,107
572	1776,827
572,5	1765,587
572,9	1762,987
573,4	1768,667
573,8	1765,667
574,3	1767,147
574,7	1767,707
575,2	1768,747
575,6	1770,987
576,1	1770,147
576,5	1759,907
576,9	1758,307
577,4	1745,827
577,8	1731,067
578,3	1729,867
578,7	1736,787
579,2	1735,387
579,6	1733,627
580,1	1735,867
580,5	1723,627
581	1713,787
581,4	1704,227
581,9	1704,267
582,3	1700,267
582,7	1700,427
583,2	1697,787
583,6	1698,547
584,1	1695,267
584,5	1696,947
585	1692,067
585,4	1684,867
585,9	1680,907
586,3	1674,907
586,8	1660,387
587,2	1653,947
587,6	1647,907
588,1	1642,707
588,5	1637,027
589	1637,547
589,4	1630,507
589,9	1627,747
590,3	1626,147
590,8	1623,747
591,2	1622,467
591,7	1622,187
592,1	1622,787
592,5	1617,347
593	1608,867
593,4	1601,467
593,9	1600,667
594,3	1596,507
594,8	1589,707
595,2	1583,667
595,7	1578,987
596,1	1571,667
596,6	1563,907
597	1562,707
597,4	1564,507
597,9	1561,027
598,3	1564,107
598,8	1559,947
599,2	1548,387
599,7	1543,547
600,1	1533,667
600,6	1517,827
601	1509,627
601,4	1514,747
601,9	1517,027
602,3	1521,747
602,8	1519,747
603,2	1523,387
603,7	1509,827
604,1	1498,507
604,6	1496,347
605	1498,787
605,4	1485,627
605,9	1480,707
606,3	1476,147
606,8	1465,907
607,2	1453,587
607,7	1452,307
608,1	1447,547
608,6	1441,147
609	1435,587
609,4	1435,387
609,9	1425,827
610,3	1422,867
610,8	1418,027
611,2	1408,107
611,7	1395,627
612,1	1393,867
612,6	1383,387
613	1378,747
613,4	1372,947
613,9	1372,867
614,3	1360,987
614,8	1358,467
615,2	1350,387
615,7	1347,587
616,1	1338,187
616,6	1335,867
617	1331,147
617,4	1325,707
617,9	1319,227
618,3	1314,947
618,8	1313,027
619,2	1309,387
619,7	1301,587
620,1	1295,147
620,5	1284,747
621	1273,747
621,4	1264,547
621,9	1258,587
622,3	1259,547
622,8	1262,147
623,2	1256,267
623,6	1251,987
624,1	1243,987
624,5	1232,827
625	1228,907
625,4	1227,067
625,9	1222,587
626,3	1220,667
626,8	1216,747
627,2	1208,467
627,6	1200,307
628,1	1194,547
628,5	1187,227
629	1182,227
629,4	1173,787
629,9	1167,107
630,3	1157,947
630,7	1161,987
631,2	1144,347
631,6	1135,067
632,1	1130,147
632,5	1118,987
633	1106,227
633,4	1113,667
633,8	1110,147
634,3	1103,387
634,7	1109,867
635,2	1104,707
635,6	1092,307
636,1	1083,787
636,5	1081,467
636,9	1067,787
637,4	1057,787
637,8	1048,307
638,3	1036,707
638,7	1031,387
639,2	1031,427
639,6	1029,107
640	1026,667
640,5	1030,267
640,9	1026,547
641,4	1015,147
641,8	1003,627
642,2	999,587
642,7	992,947
643,1	993,387
643,6	988,507
644	985,867
644,5	981,747
644,9	975,307
645,3	963,107
645,8	954,947
646,2	953,827
646,7	943,987
647,1	945,107
647,6	938,547
648	934,947
648,4	923,387
648,9	919,907
649,3	910,467
649,8	906,267
650,2	905,867
650,6	906,627
651,1	908,787
651,5	905,307
652	896,187
652,4	894,227
652,9	880,067
653,3	868,747
653,7	859,267
654,2	858,027
654,6	852,587
655,1	852,427
655,5	846,827
655,9	844,107
656,4	835,987
656,8	823,987
657,3	819,227
657,7	814,507
658,2	809,747
658,6	806,907
659	806,667
659,5	803,507
659,9	802,307
660,4	800,187
660,8	794,227
661,2	787,307
661,7	783,227
662,1	777,147
662,6	769,027
663	764,187
663,4	762,907
663,9	757,147
664,3	751,067
664,8	748,667
665,2	745,627
665,6	744,067
666,1	740,147
666,5	740,067
667	737,147
667,4	736,107
667,9	722,347
668,3	716,627
668,7	710,507
669,2	703,307
669,6	694,947
670,1	694,587
670,5	687,827
670,9	684,787
671,4	681,947
671,8	677,627
672,3	670,827
672,7	671,427
673,1	663,347
673,6	653,627
674	645,347
674,5	638,827
674,9	631,987
675,3	631,187
675,8	629,787
676,2	627,347
676,7	629,147
677,1	624,667
677,5	618,347
678	615,947
678,4	613,467
678,9	603,667
679,3	601,227
679,7	600,627
680,2	590,827
680,6	584,907
681,1	589,787
681,5	583,187
681,9	575,747
682,4	583,147
682,8	585,587
683,3	576,987
683,7	573,987
684,1	567,907
684,6	557,867
685	549,867
685,5	550,227
685,9	548,587
686,3	547,067
686,8	545,467
687,2	541,547
687,7	535,307
688,1	530,107
688,5	530,627
689	530,027
689,4	529,587
689,9	519,227
690,3	516,747
690,7	507,347
691,2	497,907
691,6	489,667
692	495,347
692,5	492,307
692,9	489,107
693,4	489,427
693,8	492,147
694,2	484,627
694,7	482,307
695,1	477,427
695,6	467,747
696	458,347
696,4	452,387
696,9	447,747
697,3	447,227
697,8	450,507
698,2	453,787
698,6	455,827
699,1	454,747
699,5	453,907
699,9	448,387
700,4	440,267
700,8	438,667
701,3	430,347
701,7	427,707
702,1	426,547
702,6	429,867
703	421,187
703,5	418,787
703,9	412,027
704,3	412,467
704,8	405,027
705,2	405,787
705,6	404,947
706,1	405,627
706,5	395,947
707	395,107
707,4	395,147
707,8	393,587
708,3	391,387
708,7	395,627
709,2	390,067
709,6	383,987
710	382,107
710,5	376,867
710,9	371,987
711,3	371,467
711,8	368,947
712,2	370,947
712,7	365,507
713,1	356,107
713,5	353,027
714	348,907
714,4	341,547
714,8	340,787
715,3	345,067
715,7	345,227
716,2	343,947
716,6	339,707
717	339,747
717,5	334,667
717,9	330,707
718,3	322,827
718,8	323,307
719,2	319,387
719,7	313,067
720,1	308,467
720,5	311,227
721	304,707
721,4	302,187
721,8	300,787
722,3	302,347
722,7	303,627
723,2	304,547
723,6	303,427
724	298,387
724,5	291,307
724,9	284,707
725,3	283,267
725,8	282,347
726,2	284,907
726,7	281,707
727,1	283,347
727,5	278,787
728	271,147
728,4	269,667
728,8	268,587
729,3	261,627
729,7	259,267
730,1	264,307
730,6	263,107
731	261,827
731,5	261,307
731,9	261,427
732,3	257,427
732,8	247,747
733,2	244,787
733,6	237,427
734,1	238,067
734,5	230,747
734,9	236,547
735,4	235,747
735,8	240,067
736,3	241,227
736,7	245,947
737,1	242,547
737,6	245,627
738	248,187
738,4	245,987
738,9	238,667
739,3	242,467
739,7	225,827
740,2	222,747
740,6	215,427
741,1	215,867
741,5	210,427
741,9	223,507
742,4	222,027
742,8	222,067
743,2	224,387
743,7	221,947
744,1	215,427
744,5	214,747
745	213,707
745,4	210,107
745,8	206,787
746,3	202,267
746,7	200,187
747,2	197,227
747,6	195,547
748	198,587
748,5	198,227
748,9	192,067
749,3	187,107
749,8	188,707
750,2	190,747
750,6	190,547
751,1	194,067
751,5	198,947
751,9	193,387
752,4	186,587
752,8	190,067
753,3	189,627
753,7	184,467
754,1	187,907
754,6	190,147
755	186,507
755,4	183,507
755,9	178,667
756,3	171,227
756,7	166,587
757,2	166,267
757,6	157,587
758	166,707
758,5	169,787
758,9	169,387
759,3	160,627
759,8	165,227
760,2	156,107
760,6	153,587
761,1	150,107
761,5	155,587
761,9	154,747
762,4	155,147
762,8	156,547
763,3	156,867
763,7	153,387
764,1	152,067
764,6	152,347
765	146,667
765,4	145,267
765,9	140,107
766,3	136,547
766,7	138,507
767,2	136,907
767,6	141,747
768	151,667
768,5	151,267
768,9	148,867
769,3	151,387
769,8	147,067
770,2	136,027
770,6	139,747
771,1	137,667
771,5	136,547
771,9	130,707
772,4	133,547
772,8	129,387
773,2	129,427
773,7	131,067
774,1	133,147
774,5	131,107
775	127,787
775,4	120,707
775,8	117,107
776,3	115,387
776,7	113,787
777,1	110,707
777,6	112,907
778	112,467
778,4	109,747
778,9	115,467
779,3	119,067
779,7	115,947
780,2	110,547
780,6	108,907
781	102,947
781,5	100,547
781,9	101,627
782,3	102,067
782,8	98,027
783,2	95,987
783,6	93,387
784,1	94,307
784,5	94,987
784,9	100,307
785,4	102,627
785,8	103,987
786,2	106,827
786,7	101,747
787,1	99,987
787,5	100,227
788	98,587
788,4	96,707
788,8	99,947
789,3	93,947
789,7	86,827
790,1	86,227
790,6	83,387
791	80,827
791,4	89,787
791,9	94,987
792,3	92,307
792,7	89,187
793,2	89,067
793,6	83,027
794	83,627
794,5	83,547
794,9	83,827
795,3	85,387
795,8	88,027
796,2	81,747
796,6	81,627
797,1	76,387
797,5	73,547
797,9	72,427
798,4	69,667
798,8	71,627
799,2	77,787
799,7	77,587
800,1	73,067
800,5	79,307
801	80,427
801,4	76,707
801,8	76,027
802,2	79,147
802,7	78,907
803,1	77,707
803,5	75,627
804	75,107
804,4	77,867
804,8	72,507
805,3	67,667
805,7	67,067
806,1	63,507
806,6	55,747
807	52,987
807,4	55,947
807,9	57,707
808,3	56,267
808,7	56,787
809,2	59,907
809,6	57,947
810	62,787
810,4	63,547
810,9	64,547
811,3	67,627
811,7	63,387
812,2	55,107
812,6	55,147
813	53,467
813,5	51,787
813,9	55,187
814,3	57,307
814,8	58,867
815,2	60,587
815,6	56,547
816,1	50,227
816,5	54,267
816,9	52,147
817,3	50,347
817,8	51,307
818,2	52,787
818,6	49,507
819,1	44,907
819,5	43,107
819,9	40,107
820,4	40,787
820,8	40,947
821,2	49,227
821,7	50,427
822,1	48,307
822,5	49,867
822,9	48,307
823,4	43,747
823,8	37,307
824,2	42,467
824,7	46,267
825,1	41,587
825,5	40,067
826	46,227
826,4	45,027
826,8	44,707
827,3	43,867
827,7	42,907
828,1	37,827
828,5	34,907
829	30,347
829,4	29,787
829,8	30,827
830,3	37,147
830,7	37,827
831,1	37,347
831,6	42,307
832	43,107
832,4	43,187
832,8	43,347
833,3	41,107
833,7	43,147
834,1	40,547
834,6	39,547
835	36,507
835,4	35,747
835,8	27,867
836,3	30,707
836,7	26,587
837,1	28,627
837,6	34,707
838	35,747
838,4	36,827
838,9	37,827
839,3	37,667
839,7	37,387
840,1	41,787
840,6	33,227
841	29,707
841,4	28,987
841,9	20,667
842,3	16,027
842,7	19,707
843,1	18,467
843,6	15,827
844	21,027
844,4	21,387
844,9	25,787
845,3	31,587
845,7	37,187
846,2	37,987
846,6	37,547
847	34,187
847,4	30,027
847,9	27,147
848,3	23,227
848,7	24,227
849,2	25,187
849,6	28,827
850	26,667
850,4	29,547
850,9	30,827
851,3	28,547
851,7	21,907
852,2	22,587
852,6	17,707
853	16,387
853,4	18,307
853,9	22,147
854,3	20,067
854,7	22,627
855,2	17,787
855,6	14,947
856	9,867
856,4	14,907
856,9	9,787
857,3	10,027
857,7	16,267
858,2	20,227
858,6	19,827
859	28,787
859,4	30,147
859,9	23,827
860,3	26,427
860,7	19,387
861,1	12,387
861,6	8,347
862	11,747
862,4	6,587
862,9	8,827
863,3	6,307
863,7	10,347
864,1	9,027
864,6	14,667
865	17,347
865,4	18,147
865,9	15,347
866,3	12,227
866,7	6,307
867,1	7,307
867,6	10,227
868	10,467
868,4	14,867
868,8	17,627
869,3	19,467
869,7	15,347
870,1	19,827
870,6	18,347
871	18,867
871,4	-51,093
871,8	-41,933
872,3	-49,613
872,7	-57,973
873,1	-60,413
873,5	2,267
874	-3,613
874,4	3,587
874,8	8,667
875,3	8,147
875,7	11,307
876,1	13,227
876,5	9,867
877	8,787
877,4	12,867
877,8	12,267
878,2	8,907
878,7	11,587
879,1	12,787
879,5	8,027
879,9	5,787
880,4	10,307
880,8	10,147
881,2	9,227
881,7	6,867
882,1	0,107
882,5	-3,693
882,9	-3,613
883,4	-3,573
883,8	-0,253
884,2	4,227
884,6	7,267
885,1	3,067
885,5	0,107
885,9	-1,813
886,3	-0,293
886,8	-8,373
887,2	-6,613
887,6	-1,293
888	-0,133
888,5	2,587
888,9	9,067
889,3	8,427
889,8	3,827
890,2	-0,413
890,6	-2,893
891	-7,493
891,5	-4,573
891,9	-0,373
892,3	-1,653
892,7	1,987
893,2	7,347
893,6	3,467
894	1,707
894,4	7,627
894,9	6,347
895,3	5,987
895,7	7,907
896,1	10,027
896,6	12,267
897	11,907
897,4	6,667
897,8	7,547
898,3	5,147
898,7	2,587
899,1	1,427
899,5	4,107
900	1,507
900,4	5,307
900,8	-0,333
901,2	-3,373
901,7	0,587
902,1	2,347
902,5	-1,093
902,9	2,747
903,4	4,867
903,8	-0,613
904,2	-3,133
904,6	-3,933
905,1	-0,493
905,5	0,867
905,9	1,107
906,3	-0,653
906,8	-3,133
907,2	-5,053
907,6	-6,573
908	-6,613
908,5	-6,973
908,9	-2,973
909,3	-6,093
909,7	-5,653
910,2	-2,773
910,6	1,627
911	-1,613
911,4	3,467
911,9	-1,053
912,3	-3,973
912,7	-3,213
913,1	-3,613
913,6	-3,213
914	-1,893
914,4	-3,893
914,8	-5,693
915,3	-4,333
915,7	-6,573
916,1	-0,533
916,5	-2,093
916,9	-6,013
917,4	-3,093
917,8	-4,413
918,2	-8,573
918,6	-9,053
919,1	-6,133
919,5	-11,813
919,9	-10,653
920,3	-10,533
920,8	-3,373
921,2	-6,653
921,6	-0,693
922	-4,413
922,5	-4,293
922,9	-6,013
923,3	-3,333
923,7	-2,893
924,2	-6,373
924,6	-6,933
925	-3,573
925,4	-0,613
925,8	-4,133
926,3	-1,893
926,7	-2,333
927,1	-4,853
927,5	-8,653
928	-11,253
928,4	-10,213
928,8	-10,693
929,2	-11,093
929,7	-9,213
930,1	-4,573
930,5	3,267
930,9	7,747
931,3	4,227
931,8	5,067
932,2	-0,013
932,6	-6,453
933	-8,253
933,5	-4,213
933,9	-9,733
934,3	-0,813
934,7	2,507
935,2	2,027
935,6	-3,533
936	-2,853
936,4	-10,253
936,8	-13,413
937,3	-11,053
937,7	-11,133
938,1	-11,253
938,5	-7,733
939	-2,293
939,4	-4,893
939,8	-2,373
940,2	-0,333
940,6	0,467
941,1	-2,853
941,5	-3,173
941,9	-4,893
942,3	-9,413
942,8	-11,373
943,2	-7,253
943,6	-7,453
944	-5,573
944,4	-3,813
944,9	-3,973
945,3	-8,813
945,7	-4,533
946,1	-0,213
946,6	2,547
947	1,027
947,4	-3,693
947,8	-13,013
948,2	-15,133
948,7	-12,453
949,1	-14,853
949,5	-12,653
949,9	-9,533
950,3	-8,653
950,8	-10,613
951,2	-10,013
951,6	-7,373
952	-8,493
952,5	-11,933
952,9	-9,573
953,3	-8,053
953,7	-6,253
954,1	-4,733
954,6	-2,413
955	-5,573
955,4	-4,253
955,8	-10,733
956,2	-8,493
956,7	-10,813
957,1	-7,453
957,5	-12,093
957,9	-8,933
958,3	-10,853
958,8	-9,453
959,2	-10,333
959,6	-6,333
960	-6,493
960,5	-3,213
960,9	-3,253
961,3	-5,853
961,7	-5,453
962,1	-3,773
962,6	-5,813
963	-6,453
963,4	-7,413
963,8	-5,453
964,2	-6,373
964,7	-1,973
965,1	0,387
965,5	0,827
965,9	-2,333
966,3	-2,973
966,8	-7,653
967,2	-14,253
967,6	-12,173
968	-12,213
968,4	-12,533
968,9	-14,893
969,3	-7,293
969,7	-6,053
970,1	-10,573
970,5	-8,573
971	-5,413
971,4	-12,173
971,8	-17,573
972,2	-13,693
972,6	-17,093
973,1	-19,213
973,5	-14,573
973,9	-9,933
974,3	-13,413
974,7	-12,413
975,2	-5,213
975,6	-8,813
976	-11,893
976,4	-7,173
976,8	-5,693
977,3	-12,573
977,7	-7,293
978,1	-9,133
978,5	-13,373
978,9	-17,573
979,4	-13,933
979,8	-11,693
980,2	-8,093
980,6	-1,653
981	3,267
981,5	-3,453
981,9	-5,413
982,3	-1,333
982,7	-9,373
983,1	-12,533
983,6	-6,653
984	-11,253
984,4	-19,453
984,8	-16,733
985,2	-16,013
985,6	-21,533
986,1	-17,573
986,5	-11,213
986,9	-8,053
987,3	-4,373
987,7	-1,733
988,2	-3,533
988,6	-8,733
989	-6,173
989,4	-11,853
989,8	-8,333
990,3	-9,653
990,7	-6,333
991,1	-6,253
991,5	-5,373
991,9	-6,933
992,3	-10,053
992,8	-13,093
993,2	-17,453
993,6	-12,613
994	-13,893
994,4	-6,853
994,9	-6,733
995,3	-11,893
995,7	-15,973
996,1	-13,853
996,5	-18,813
996,9	-17,493
997,4	-8,213
997,8	-9,573
998,2	-12,333
998,6	-13,373
999	-14,533
999,5	-19,093
999,9	-15,053
1000,3	-16,613
1000,7	-11,893
1001,1	-11,813
1001,5	-6,733
1002	-9,373
1002,4	-4,333
1002,8	-9,653
1003,2	-3,053
1003,6	-3,613
1004	-4,013
1004,5	-8,133
1004,9	-1,573
1005,3	-4,573
1005,7	-4,453
1006,1	-3,493
1006,6	-4,493
1007	-5,413
1007,4	-7,493
1007,8	-6,373
1008,2	-8,653
1008,6	-3,253
1009,1	-8,013
1009,5	-5,853
1009,9	-9,293
1010,3	-10,333
1010,7	-15,853
1011,1	-11,853
1011,6	-15,453
1012	-14,733
1012,4	-13,093
1012,8	-9,693
1013,2	-10,693
1013,6	-10,813
1014,1	-13,093
1014,5	-11,973
1014,9	-15,853
1015,3	-18,453
1015,7	-18,693
1016,1	-16,453
1016,6	-15,573
1017	-11,493
1017,4	-12,653
1017,8	-7,453
1018,2	-13,493
1018,6	-6,573
1019,1	-7,213
1019,5	-8,413
1019,9	-19,533
1020,3	-19,413
1020,7	-28,453
1021,1	-26,013
1021,6	-25,933
1022	-18,533
1022,4	-16,173
1022,8	-12,253
1023,2	-15,973
1023,6	-13,613
1024,1	-14,613
1024,5	-8,173
1024,9	-4,533
1025,3	-9,333
1025,7	-6,293
1026,1	-3,573
1026,6	-11,853
1027	-12,293
1027,4	-4,133
1027,8	-6,693
1028,2	-9,973
1028,6	-7,653
1029	-12,373
1029,5	-12,853
1029,9	-7,533
1030,3	-3,333
1030,7	-2,573
1031,1	-5,213
1031,5	-11,813
1032	-16,213
1032,4	-19,853
1032,8	-17,013
1033,2	-12,213
1033,6	-6,813
1034	-4,613
1034,4	-5,173
1034,9	-6,493
1035,3	-13,733
1035,7	-10,133
1036,1	-14,013
1036,5	-16,333
1036,9	-16,373
1037,4	-17,813
1037,8	-25,213
1038,2	-23,773
1038,6	-18,613
1039	-19,653
1039,4	-10,893
1039,8	-10,573
1040,3	-12,213
1040,7	-12,893
1041,1	-14,173
1041,5	-16,333
1041,9	-14,053
1042,3	-15,133
1042,7	-15,373
1043,2	-15,173
1043,6	-17,253
1044	-12,733
1044,4	-14,973
1044,8	-17,813
1045,2	-15,293
1045,6	-12,093
1046,1	-20,173
1046,5	-18,293
1046,9	-13,653
1047,3	-12,893
1047,7	-15,173
1048,1	-9,533
1048,5	-10,853
1049	-12,013
1049,4	-14,613
1049,8	-11,893
1050,2	-8,453
1050,6	-2,773
1051	-4,613
1051,4	-8,813
1051,9	-13,413
1052,3	-21,373
1052,7	-22,333
1053,1	-27,293
1053,5	-23,373
1053,9	-18,533
1054,3	-16,213
1054,8	-20,253
1055,2	-12,733
1055,6	-12,733
1056	-17,413
1056,4	-15,613
1056,8	-12,013
1057,2	-15,013
1057,6	-15,053
1058,1	-11,853
1058,5	-18,253
1058,9	-16,133
1059,3	-13,453
1059,7	-9,533
1060,1	-7,973
1060,5	-1,773
1061	-3,373
1061,4	-4,053
1061,8	-8,933
1062,2	-10,533
1062,6	-14,813
1063	-15,813
1063,4	-19,973
1063,8	-16,773
1064,3	-17,533
1064,7	-16,173
1065,1	-14,333
1065,5	-6,253
1065,9	-10,573
1066,3	-11,453
1066,7	-7,573
1067,1	-5,733
1067,6	-13,733
1068	-13,133
1068,4	-12,213
1068,8	-16,253
1069,2	-23,053
1069,6	-20,653
1070	-15,733
1070,4	-16,333
1070,9	-6,973
1071,3	-1,493
1071,7	-2,813
1072,1	-7,653
1072,5	-1,893
1072,9	-11,093
1073,3	-9,213
1073,7	-1,813
1074,2	2,307
1074,6	-6,253
1075	-4,853
1075,4	-13,333
1075,8	-14,013
1076,2	-5,013
1076,6	2,107
1077	-2,333
1077,5	1,227
1077,9	-4,213
1078,3	-18,293
1078,7	-24,813
1079,1	-20,693
1079,5	-14,933
1079,9	-12,813
1080,3	-3,293
1080,7	3,507
1081,2	2,747
1081,6	-1,453
1082	-0,213
1082,4	-9,173
1082,8	-11,853
1083,2	-14,653
1083,6	-19,733
1084	-17,373
1084,5	-17,093
1084,9	-12,853
1085,3	-7,893
1085,7	3,147
1086,1	-1,493
1086,5	-1,173
1086,9	-6,333
1087,3	-12,013
1087,7	-21,213
1088,2	-20,813
1088,6	-14,493
1089	-15,253
1089,4	-8,573
1089,8	-1,053
1090,2	0,987
1090,6	-4,893
1091	-8,373
1091,4	-10,573
1091,9	-13,853
1092,3	-14,573
1092,7	-11,413
1093,1	-8,133
1093,5	-11,333
1093,9	-8,453
1094,3	-10,973
1094,7	-12,373
1095,1	-10,293
1095,5	-9,693
1096	-12,773
1096,4	-7,493
1096,8	-3,653
1097,2	-1,613
1097,6	-4,253
1098	-7,573
1098,4	-14,813
1098,8	-19,893
1099,2	-24,013
1099,6	-18,213
1100,1	-13,173
1100,5	-9,253
1100,9	-5,213
1101,3	-9,693
1101,7	-9,893
1102,1	-9,453
1102,5	-9,373
1102,9	-11,133
1103,3	-6,493
1103,7	-5,573
1104,2	-10,053
1104,6	-10,853
1105	-11,733
1105,4	-11,853
1105,8	-11,373
1106,2	-8,133
1106,6	-5,653
1107	-2,973
1107,4	-0,333
1107,8	0,367
1108,3	0,6
