Data from Subt2_00040.txt Node
Date: Fri Aug 11 16:00:55 MSK 2023
User: vat
Spectrometer: MAYP114033
Trigger mode: 0
Integration Time (sec): 5,000000E-1
Scans to average: 5
Electric dark correction enabled: true
Nonlinearity correction enabled: false
Boxcar width: 2
XAxis mode: Wavelengths
Number of Pixels in Spectrum: 2068
>>>>>Begin Spectral Data<<<<<
199,4	-0,167
199,9	0,083
200,4	-2,807
200,8	-3,167
201,3	-5,007
201,8	-5,687
202,2	0,193
202,7	2,313
203,2	1,513
203,6	2,993
204,1	0,633
204,6	-4,647
205	-2,487
205,5	-1,367
206	1,073
206,4	3,633
206,9	3,273
207,4	3,913
207,8	7,273
208,3	4,753
208,8	2,393
209,2	1,313
209,7	-6,527
210,2	-5,727
210,6	-8,647
211,1	-6,447
211,5	-5,007
212	2,873
212,5	-0,207
212,9	2,033
213,4	0,993
213,9	1,753
214,3	-3,007
214,8	-4,407
215,3	-0,727
215,7	0,113
216,2	0,753
216,7	-0,567
217,1	-2,247
217,6	-4,927
218,1	-7,127
218,5	-14,367
219	-6,047
219,5	-3,767
219,9	-6,607
220,4	-5,567
220,9	0,873
221,3	-5,127
221,8	-5,927
222,3	-4,807
222,7	0,513
223,2	-0,367
223,6	-5,727
224,1	-7,287
224,6	-6,847
225	-12,807
225,5	-10,527
226	-0,487
226,4	4,913
226,9	3,433
227,4	4,033
227,8	3,193
228,3	-1,087
228,8	-5,127
229,2	-4,647
229,7	-7,687
230,2	-4,247
230,6	-7,247
231,1	-7,127
231,5	-2,487
232	2,553
232,5	-5,047
232,9	-1,167
233,4	-0,447
233,9	-6,247
234,3	-7,847
234,8	-5,567
235,3	-5,607
235,7	-3,927
236,2	-1,207
236,7	-6,007
237,1	-13,767
237,6	-15,927
238,1	-20,127
238,5	-17,367
239	-8,567
239,4	-3,567
239,9	-1,127
240,4	1,833
240,8	2,433
241,3	-1,167
241,8	0,273
242,2	4,993
242,7	7,193
243,2	3,193
243,6	11,513
244,1	11,193
244,6	6,473
245	5,273
245,5	2,673
245,9	-4,447
246,4	1,513
246,9	2,113
247,3	-1,007
247,8	-0,807
248,3	-2,887
248,7	-10,607
249,2	-18,207
249,7	-18,447
250,1	-14,247
250,6	-14,767
251	-11,887
251,5	-2,807
252	-2,447
252,4	-9,607
252,9	-0,887
253,4	-5,687
253,8	-6,007
254,3	0,273
254,8	5,673
255,2	8,593
255,7	16,073
256,1	14,313
256,6	11,993
257,1	11,393
257,5	4,353
258	2,393
258,5	1,953
258,9	2,513
259,4	5,673
259,9	2,393
260,3	1,713
260,8	4,273
261,2	1,233
261,7	3,193
262,2	1,913
262,6	5,833
263,1	7,953
263,6	3,353
264	0,073
264,5	-2,127
264,9	-4,167
265,4	-10,927
265,9	-6,527
266,3	-5,607
266,8	2,713
267,3	-0,087
267,7	1,553
268,2	3,433
268,7	3,833
269,1	-2,327
269,6	-4,607
270	-2,607
270,5	-3,447
271	-5,967
271,4	-4,847
271,9	-2,727
272,4	-3,047
272,8	-6,127
273,3	-5,567
273,7	-1,247
274,2	4,113
274,7	1,673
275,1	1,793
275,6	1,393
276,1	-4,047
276,5	-5,767
277	-5,887
277,4	-4,407
277,9	-6,167
278,4	-2,247
278,8	-4,967
279,3	-0,047
279,8	-0,407
280,2	-0,847
280,7	-4,807
281,1	-2,487
281,6	-4,847
282,1	-1,447
282,5	-3,087
283	1,313
283,4	-2,247
283,9	-4,047
284,4	-7,567
284,8	-2,087
285,3	-2,967
285,8	-4,687
286,2	-5,967
286,7	-8,007
287,1	-9,127
287,6	-11,807
288,1	-5,567
288,5	0,953
289	2,633
289,5	2,633
289,9	4,833
290,4	4,513
290,8	-1,087
291,3	0,993
291,8	-1,647
292,2	2,233
292,7	-0,287
293,1	1,273
293,6	-2,567
294,1	1,113
294,5	-6,447
295	1,193
295,5	4,793
295,9	7,113
296,4	3,393
296,8	8,753
297,3	-3,967
297,8	-12,647
298,2	-15,527
298,7	-11,927
299,1	-18,247
299,6	-8,567
300,1	-3,327
300,5	1,193
301	3,673
301,5	5,193
301,9	-0,567
302,4	-7,567
302,8	-9,687
303,3	-15,567
303,8	-14,767
304,2	-18,367
304,7	-14,887
305,1	-13,447
305,6	-11,527
306,1	-10,127
306,5	-6,207
307	-4,847
307,4	-4,607
307,9	-2,247
308,4	0,673
308,8	4,433
309,3	7,593
309,8	8,753
310,2	7,993
310,7	4,313
311,1	-2,087
311,6	-1,207
312,1	1,793
312,5	-1,887
313	-2,927
313,4	-6,047
313,9	-10,767
314,4	-16,727
314,8	-13,807
315,3	-10,767
315,7	-6,647
316,2	-8,807
316,7	-10,007
317,1	-11,247
317,6	-15,047
318	-6,087
318,5	-4,247
319	-7,767
319,4	-15,047
319,9	-10,807
320,3	-14,327
320,8	-10,407
321,3	-2,207
321,7	7,153
322,2	4,713
322,6	2,033
323,1	-5,487
323,6	-11,247
324	-9,007
324,5	-10,967
324,9	-11,127
325,4	-1,407
325,9	5,953
326,3	5,633
326,8	6,633
327,2	2,393
327,7	-0,807
328,2	-8,047
328,6	-7,247
329,1	-8,807
329,5	-3,087
330	-2,207
330,5	-2,207
330,9	-8,647
331,4	-4,847
331,8	-5,007
332,3	-7,047
332,8	-6,007
333,2	-7,647
333,7	-8,047
334,1	-11,367
334,6	-10,007
335,1	-7,967
335,5	-2,887
336	-0,727
336,4	3,953
336,9	1,793
337,4	0,633
337,8	2,993
338,3	-1,807
338,7	-4,887
339,2	-2,007
339,7	4,553
340,1	2,273
340,6	0,993
341	1,393
341,5	-2,287
342	-4,247
342,4	-2,047
342,9	2,633
343,3	-0,967
343,8	-1,007
344,2	-4,287
344,7	-9,087
345,2	-13,287
345,6	-11,007
346,1	-7,447
346,5	-5,207
347	-4,447
347,5	-5,807
347,9	-1,607
348,4	-5,167
348,8	-8,527
349,3	-8,087
349,8	-6,087
350,2	-4,367
350,7	2,753
351,1	4,313
351,6	4,953
352	8,353
352,5	8,153
353	4,513
353,4	10,393
353,9	19,313
354,3	25,113
354,8	22,953
355,3	31,313
355,7	33,513
356,2	31,793
356,6	38,713
357,1	50,913
357,5	60,113
358	73,353
358,5	92,513
358,9	106,953
359,4	123,393
359,8	133,593
360,3	157,393
360,8	175,073
361,2	201,433
361,7	231,513
362,1	270,313
362,6	304,553
363	339,353
363,5	382,153
364	421,753
364,4	469,313
364,9	512,393
365,3	562,193
365,8	602,633
366,3	651,953
366,7	683,433
367,2	714,873
367,6	739,793
368,1	761,393
368,5	762,913
369	767,873
369,5	764,393
369,9	763,153
370,4	748,313
370,8	739,673
371,3	724,953
371,7	706,993
372,2	672,873
372,7	642,673
373,1	606,433
373,6	570,593
374	535,433
374,5	504,473
374,9	474,993
375,4	442,153
375,9	410,313
376,3	374,233
376,8	346,593
377,2	317,993
377,7	292,993
378,2	262,993
378,6	239,553
379,1	216,353
379,5	192,873
380	173,193
380,4	160,993
380,9	150,713
381,4	139,913
381,8	134,753
382,3	124,353
382,7	118,113
383,2	113,833
383,6	103,793
384,1	89,473
384,6	85,033
385	74,873
385,5	69,153
385,9	66,113
386,4	61,353
386,8	54,673
387,3	54,953
387,7	44,393
388,2	36,553
388,7	29,353
389,1	23,393
389,6	18,513
390	17,113
390,5	15,713
390,9	18,953
391,4	20,753
391,9	17,833
392,3	15,753
392,8	18,753
393,2	17,433
393,7	19,033
394,1	20,113
394,6	22,513
395,1	25,113
395,5	26,113
396	21,113
396,4	17,313
396,9	12,713
397,3	6,553
397,8	6,113
398,2	12,553
398,7	15,633
399,2	19,433
399,6	19,393
400,1	20,753
400,5	13,673
401	14,113
401,4	10,433
401,9	11,273
402,4	4,113
402,8	4,833
403,3	3,193
403,7	3,193
404,2	4,953
404,6	10,433
405,1	16,513
405,5	20,273
406	20,353
406,5	21,113
406,9	21,073
407,4	20,513
407,8	18,793
408,3	27,593
408,7	23,873
409,2	27,913
409,6	26,633
410,1	32,473
410,6	34,633
411	40,113
411,5	42,233
411,9	51,593
412,4	52,993
412,8	50,793
413,3	54,153
413,7	57,833
414,2	59,673
414,7	62,273
415,1	69,633
415,6	71,393
416	81,233
416,5	83,313
416,9	92,713
417,4	98,233
417,8	106,033
418,3	105,113
418,8	110,073
419,2	116,193
419,7	123,393
420,1	133,793
420,6	140,793
421	148,193
421,5	149,073
421,9	162,273
422,4	166,593
422,8	178,673
423,3	187,873
423,8	201,193
424,2	207,953
424,7	220,353
425,1	228,633
425,6	235,993
426	246,913
426,5	256,073
426,9	272,633
427,4	285,513
427,9	304,073
428,3	321,553
428,8	337,833
429,2	349,833
429,7	370,273
430,1	389,193
430,6	404,113
431	414,633
431,5	438,633
431,9	448,913
432,4	472,473
432,8	497,593
433,3	523,673
433,8	541,593
434,2	572,953
434,7	595,753
435,1	619,633
435,6	653,233
436	690,833
436,5	721,313
436,9	748,233
437,4	783,073
437,8	817,713
438,3	846,033
438,8	885,073
439,2	932,913
439,7	974,273
440,1	1007,793
440,6	1048,513
441	1090,953
441,5	1137,833
441,9	1176,433
442,4	1227,833
442,8	1278,713
443,3	1330,513
443,7	1376,633
444,2	1434,193
444,7	1487,193
445,1	1547,713
445,6	1600,273
446	1649,233
446,5	1708,793
446,9	1770,393
447,4	1821,913
447,8	1882,593
448,3	1951,713
448,7	2016,673
449,2	2079,473
449,6	2153,633
450,1	2215,873
450,6	2285,553
451	2353,033
451,5	2424,273
451,9	2486,953
452,4	2558,153
452,8	2633,553
453,3	2699,153
453,7	2770,953
454,2	2851,753
454,6	2934,193
455,1	3003,153
455,5	3078,313
456	3154,553
456,4	3219,713
456,9	3298,353
457,3	3379,233
457,8	3462,833
458,3	3542,633
458,7	3616,193
459,2	3695,153
459,6	3775,353
460,1	3850,913
460,5	3925,193
461	4014,353
461,4	4094,113
461,9	4170,753
462,3	4250,393
462,8	4323,593
463,2	4403,993
463,7	4464,553
464,1	4534,233
464,6	4609,353
465	4689,153
465,5	4761,593
466	4840,793
466,4	4907,193
466,9	4979,913
467,3	5052,633
467,8	5124,433
468,2	5200,073
468,7	5272,993
469,1	5329,913
469,6	5393,593
470	5449,473
470,5	5508,273
470,9	5567,473
471,4	5633,873
471,8	5692,353
472,3	5749,273
472,7	5809,353
473,2	5869,633
473,6	5909,993
474,1	5943,193
474,5	5987,673
475	6030,073
475,4	6075,873
475,9	6126,833
476,4	6181,953
476,8	6231,353
477,3	6273,593
477,7	6314,073
478,2	6353,433
478,6	6390,753
479,1	6424,873
479,5	6450,313
480	6473,313
480,4	6498,073
480,9	6507,793
481,3	6527,833
481,8	6552,913
482,2	6571,513
482,7	6593,393
483,1	6622,353
483,6	6638,993
484	6654,753
484,5	6654,793
484,9	6657,073
485,4	6660,833
485,8	6664,513
486,3	6659,633
486,7	6676,153
487,2	6680,273
487,6	6688,073
488,1	6687,993
488,5	6678,153
489	6679,953
489,4	6681,913
489,9	6666,633
490,4	6644,073
490,8	6635,313
491,3	6605,393
491,7	6582,273
492,2	6564,473
492,6	6553,713
493,1	6534,273
493,5	6520,873
494	6493,713
494,4	6470,833
494,9	6444,913
495,3	6413,393
495,8	6376,793
496,2	6344,193
496,7	6314,673
497,1	6284,313
497,6	6255,993
498	6227,833
498,5	6201,633
498,9	6181,273
499,4	6144,193
499,8	6115,913
500,3	6074,313
500,7	6040,953
501,2	5996,393
501,6	5969,113
502,1	5933,993
502,5	5901,313
503	5858,833
503,4	5821,033
503,9	5785,513
504,3	5739,713
504,8	5701,473
505,2	5666,953
505,7	5620,393
506,1	5583,113
506,6	5543,433
507	5492,513
507,5	5446,793
507,9	5400,433
508,4	5337,673
508,8	5295,673
509,3	5262,953
509,7	5217,793
510,2	5186,593
510,6	5146,313
511,1	5088,313
511,5	5033,593
512	4987,673
512,4	4929,753
512,9	4880,833
513,3	4845,873
513,8	4804,153
514,2	4751,633
514,7	4712,393
515,1	4667,833
515,6	4623,193
516	4578,553
516,5	4539,113
516,9	4485,233
517,4	4436,433
517,8	4381,033
518,3	4332,473
518,7	4283,753
519,2	4233,913
519,6	4186,553
520,1	4141,153
520,5	4092,873
521	4048,233
521,4	4002,553
521,9	3960,353
522,3	3921,593
522,8	3880,033
523,2	3832,793
523,7	3795,513
524,1	3747,753
524,6	3696,153
525	3649,193
525,5	3602,793
525,9	3556,193
526,4	3516,193
526,8	3476,513
527,3	3442,153
527,7	3406,353
528,2	3370,673
528,6	3331,553
529,1	3303,313
529,5	3262,313
530	3225,073
530,4	3180,833
530,9	3134,673
531,3	3085,153
531,8	3045,393
532,2	3005,033
532,6	2968,993
533,1	2934,233
533,5	2901,073
534	2865,753
534,4	2825,793
534,9	2792,553
535,3	2766,153
535,8	2733,873
536,2	2696,993
536,7	2666,433
537,1	2633,273
537,6	2596,793
538	2563,553
538,5	2538,713
538,9	2506,193
539,4	2467,073
539,8	2442,993
540,3	2411,353
540,7	2366,873
541,2	2336,753
541,6	2310,193
542,1	2271,833
542,5	2239,193
543	2217,513
543,4	2188,633
543,9	2161,073
544,3	2131,273
544,8	2108,273
545,2	2080,473
545,7	2053,473
546,1	2038,353
546,5	2014,833
547	1982,433
547,4	1962,673
547,9	1934,393
548,3	1899,393
548,8	1872,433
549,2	1852,313
549,7	1828,593
550,1	1816,313
550,6	1792,993
551	1768,993
551,5	1747,353
551,9	1720,073
552,4	1690,273
552,8	1664,833
553,3	1646,393
553,7	1631,793
554,2	1605,553
554,6	1586,673
555,1	1576,993
555,5	1566,313
555,9	1545,153
556,4	1530,753
556,8	1522,633
557,3	1494,473
557,7	1474,153
558,2	1455,833
558,6	1449,033
559,1	1422,273
559,5	1412,553
560	1397,313
560,4	1380,193
560,9	1359,633
561,3	1347,033
561,8	1332,873
562,2	1312,153
562,7	1298,353
563,1	1281,513
563,6	1263,193
564	1245,833
564,4	1227,953
564,9	1213,313
565,3	1192,353
565,8	1178,553
566,2	1165,033
566,7	1153,993
567,1	1138,753
567,6	1129,153
568	1122,393
568,5	1108,673
568,9	1095,113
569,4	1079,313
569,8	1063,753
570,3	1044,873
570,7	1031,353
571,1	1024,833
571,6	1021,713
572	1012,273
572,5	1006,393
572,9	995,513
573,4	980,793
573,8	959,273
574,3	955,633
574,7	934,233
575,2	921,793
575,6	908,633
576,1	897,113
576,5	880,353
576,9	872,593
577,4	863,593
577,8	853,953
578,3	846,913
578,7	837,913
579,2	826,553
579,6	811,313
580,1	802,753
580,5	795,393
581	782,833
581,4	779,313
581,9	774,793
582,3	767,633
582,7	755,073
583,2	748,473
583,6	740,273
584,1	731,993
584,5	729,033
585	723,793
585,4	715,113
585,9	709,273
586,3	705,233
586,8	691,873
587,2	678,993
587,6	674,793
588,1	659,393
588,5	648,513
589	641,153
589,4	635,033
589,9	629,033
590,3	627,673
590,8	619,993
591,2	610,153
591,7	610,473
592,1	603,113
592,5	595,433
593	587,793
593,4	585,873
593,9	576,233
594,3	571,353
594,8	563,753
595,2	559,713
595,7	549,793
596,1	547,433
596,6	539,593
597	536,233
597,4	532,153
597,9	530,193
598,3	531,233
598,8	530,793
599,2	533,473
599,7	533,913
600,1	531,353
600,6	519,273
601	514,153
601,4	508,953
601,9	500,793
602,3	491,633
602,8	488,113
603,2	483,073
603,7	473,833
604,1	471,993
604,6	476,433
605	478,113
605,4	473,953
605,9	470,073
606,3	464,273
606,8	453,833
607,2	442,753
607,7	437,673
608,1	436,633
608,6	435,313
609	432,393
609,4	433,033
609,9	428,073
610,3	424,993
610,8	416,073
611,2	409,513
611,7	402,673
612,1	401,753
612,6	390,193
613	393,353
613,4	397,033
613,9	400,593
614,3	394,033
614,8	397,833
615,2	393,233
615,7	384,473
616,1	379,153
616,6	378,713
617	370,073
617,4	366,033
617,9	363,833
618,3	356,073
618,8	351,033
619,2	353,713
619,7	353,913
620,1	347,593
620,5	343,073
621	342,393
621,4	336,953
621,9	327,833
622,3	330,713
622,8	337,913
623,2	336,593
623,6	337,753
624,1	336,033
624,5	326,633
625	312,793
625,4	304,873
625,9	297,593
626,3	298,913
626,8	299,713
627,2	300,633
627,6	302,393
628,1	306,793
628,5	301,193
629	305,313
629,4	302,233
629,9	297,113
630,3	292,833
630,7	294,433
631,2	288,073
631,6	290,193
632,1	290,113
632,5	287,113
633	284,153
633,4	282,033
633,8	275,393
634,3	274,113
634,7	270,393
635,2	267,633
635,6	264,473
636,1	266,433
636,5	267,993
636,9	264,833
637,4	267,473
637,8	264,033
638,3	257,193
638,7	251,713
639,2	251,313
639,6	244,193
640	243,713
640,5	245,833
640,9	242,193
641,4	241,473
641,8	239,113
642,2	239,113
642,7	235,953
643,1	237,033
643,6	230,633
644	225,393
644,5	236,273
644,9	244,233
645,3	241,713
645,8	239,033
646,2	243,833
646,7	232,193
647,1	228,113
647,6	228,953
648	230,633
648,4	228,473
648,9	232,313
649,3	222,073
649,8	216,153
650,2	219,873
650,6	218,033
651,1	212,113
651,5	209,353
652	218,513
652,4	212,873
652,9	212,273
653,3	210,353
653,7	215,473
654,2	208,553
654,6	209,753
655,1	209,953
655,5	207,033
655,9	204,873
656,4	203,593
656,8	197,673
657,3	192,273
657,7	198,753
658,2	198,233
658,6	192,713
659	197,193
659,5	203,473
659,9	192,913
660,4	190,633
660,8	193,313
661,2	189,913
661,7	181,793
662,1	182,993
662,6	184,713
663	180,193
663,4	178,633
663,9	173,153
664,3	175,353
664,8	170,953
665,2	173,393
665,6	179,233
666,1	186,513
666,5	178,553
667	181,273
667,4	175,593
667,9	167,473
668,3	161,433
668,7	168,353
669,2	164,713
669,6	167,353
670,1	168,913
670,5	172,553
670,9	167,113
671,4	164,873
671,8	163,833
672,3	163,073
672,7	161,553
673,1	160,993
673,6	158,433
674	160,513
674,5	157,833
674,9	155,393
675,3	155,793
675,8	153,113
676,2	149,833
676,7	151,353
677,1	150,753
677,5	148,713
678	153,673
678,4	157,313
678,9	156,113
679,3	153,393
679,7	148,913
680,2	145,993
680,6	135,633
681,1	132,713
681,5	134,233
681,9	140,793
682,4	141,673
682,8	147,353
683,3	150,793
683,7	152,393
684,1	146,673
684,6	150,713
685	147,193
685,5	142,153
685,9	140,673
686,3	142,713
686,8	136,113
687,2	131,953
687,7	133,953
688,1	135,833
688,5	136,433
689	135,873
689,4	133,353
689,9	127,913
690,3	118,713
690,7	116,113
691,2	115,113
691,6	120,473
692	122,273
692,5	125,513
692,9	126,913
693,4	127,153
693,8	131,713
694,2	134,953
694,7	132,713
695,1	125,473
695,6	125,073
696	122,913
696,4	120,993
696,9	124,553
697,3	128,273
697,8	128,233
698,2	124,153
698,6	121,513
699,1	118,513
699,5	118,673
699,9	116,353
700,4	112,673
700,8	111,593
701,3	107,193
701,7	105,793
702,1	100,993
702,6	99,833
703	101,433
703,5	104,953
703,9	102,433
704,3	109,233
704,8	113,273
705,2	110,073
705,6	113,913
706,1	112,473
706,5	109,393
707	108,753
707,4	112,433
707,8	100,273
708,3	101,073
708,7	98,513
709,2	95,873
709,6	92,713
710	94,513
710,5	95,473
710,9	95,153
711,3	90,393
711,8	89,513
712,2	92,673
712,7	89,833
713,1	91,433
713,5	100,593
714	101,233
714,4	101,393
714,8	102,553
715,3	107,753
715,7	104,513
716,2	105,633
716,6	104,633
717	110,753
717,5	104,313
717,9	101,193
718,3	95,593
718,8	98,513
719,2	92,073
719,7	90,713
720,1	92,113
720,5	89,433
721	83,153
721,4	79,753
721,8	74,873
722,3	76,313
722,7	74,633
723,2	79,993
723,6	81,873
724	83,753
724,5	81,073
724,9	90,313
725,3	85,113
725,8	86,033
726,2	82,073
726,7	78,393
727,1	77,033
727,5	80,353
728	75,513
728,4	81,073
728,8	85,073
729,3	80,753
729,7	77,793
730,1	77,113
730,6	78,193
731	79,113
731,5	83,673
731,9	86,673
732,3	95,073
732,8	94,593
733,2	91,633
733,6	91,313
734,1	87,473
734,5	84,633
734,9	84,473
735,4	80,953
735,8	73,113
736,3	72,553
736,7	69,193
737,1	69,153
737,6	72,633
738	73,913
738,4	74,793
738,9	75,553
739,3	72,473
739,7	69,313
740,2	68,793
740,6	68,393
741,1	71,153
741,5	70,593
741,9	71,633
742,4	69,793
742,8	69,353
743,2	69,513
743,7	66,793
744,1	70,833
744,5	69,473
745	65,233
745,4	64,273
745,8	66,473
746,3	62,593
746,7	62,113
747,2	60,593
747,6	58,313
748	53,873
748,5	55,633
748,9	57,953
749,3	61,673
749,8	56,313
750,2	59,353
750,6	58,393
751,1	55,833
751,5	56,513
751,9	59,713
752,4	60,753
752,8	60,753
753,3	61,193
753,7	61,393
754,1	58,793
754,6	57,633
755	55,313
755,4	59,353
755,9	60,233
756,3	59,873
756,7	61,553
757,2	54,913
757,6	55,313
758	56,233
758,5	54,553
758,9	56,393
759,3	64,513
759,8	64,113
760,2	56,673
760,6	60,793
761,1	52,913
761,5	51,593
761,9	50,233
762,4	49,713
762,8	48,313
763,3	54,553
763,7	55,273
764,1	49,833
764,6	53,913
765	58,313
765,4	55,673
765,9	53,913
766,3	62,153
766,7	58,513
767,2	57,153
767,6	58,433
768	56,953
768,5	51,953
768,9	54,673
769,3	53,873
769,8	48,713
770,2	47,793
770,6	46,473
771,1	45,033
771,5	41,393
771,9	50,713
772,4	51,793
772,8	59,673
773,2	61,153
773,7	61,713
774,1	56,633
774,5	54,873
775	49,553
775,4	47,313
775,8	47,393
776,3	45,273
776,7	49,713
777,1	43,473
777,6	52,753
778	50,113
778,4	50,913
778,9	46,953
779,3	46,393
779,7	39,393
780,2	38,513
780,6	38,273
781	40,033
781,5	42,593
781,9	39,873
782,3	40,153
782,8	40,073
783,2	41,593
783,6	42,513
784,1	42,353
784,5	43,033
784,9	43,953
785,4	44,313
785,8	47,513
786,2	45,833
786,7	46,473
787,1	42,233
787,5	38,233
788	40,113
788,4	45,033
788,8	48,953
789,3	53,433
789,7	48,633
790,1	45,673
790,6	45,113
791	37,793
791,4	40,433
791,9	39,633
792,3	38,153
792,7	34,633
793,2	36,153
793,6	30,153
794	35,313
794,5	37,073
794,9	40,593
795,3	39,633
795,8	42,953
796,2	41,073
796,6	36,153
797,1	27,593
797,5	27,913
797,9	25,393
798,4	28,473
798,8	31,753
799,2	34,833
799,7	31,953
800,1	32,873
800,5	25,793
801	21,433
801,4	19,073
801,8	23,393
802,2	27,433
802,7	32,753
803,1	32,873
803,5	35,113
804	36,033
804,4	29,473
804,8	25,153
805,3	31,633
805,7	35,953
806,1	33,433
806,6	31,033
807	26,953
807,4	23,153
807,9	19,553
808,3	20,833
808,7	20,993
809,2	31,553
809,6	29,833
810	28,953
810,4	27,713
810,9	32,873
811,3	25,913
811,7	28,433
812,2	32,353
812,6	26,433
813	25,313
813,5	30,833
813,9	28,513
814,3	33,713
814,8	40,473
815,2	32,033
815,6	28,273
816,1	27,313
816,5	20,553
816,9	20,753
817,3	24,633
817,8	27,193
818,2	26,913
818,6	27,273
819,1	28,273
819,5	31,073
819,9	29,593
820,4	28,833
820,8	25,433
821,2	20,153
821,7	21,713
822,1	21,993
822,5	19,273
822,9	16,393
823,4	18,473
823,8	18,473
824,2	14,193
824,7	17,513
825,1	21,033
825,5	22,713
826	19,713
826,4	20,753
826,8	21,673
827,3	20,033
827,7	14,513
828,1	16,313
828,5	17,753
829	18,553
829,4	22,793
829,8	28,073
830,3	28,233
830,7	27,913
831,1	22,793
831,6	21,353
832	18,593
832,4	17,393
832,8	16,873
833,3	22,913
833,7	25,193
834,1	20,513
834,6	14,953
835	16,753
835,4	18,753
835,8	15,353
836,3	19,793
836,7	26,153
837,1	21,113
837,6	16,033
838	13,513
838,4	13,113
838,9	5,273
839,3	5,553
839,7	4,153
840,1	10,873
840,6	14,273
841	26,673
841,4	31,233
841,9	28,073
842,3	17,713
842,7	14,553
843,1	5,033
843,6	-4,727
844	0,673
844,4	4,993
844,9	3,553
845,3	10,033
845,7	15,353
846,2	14,313
846,6	16,553
847	13,393
847,4	3,033
847,9	6,113
848,3	2,873
848,7	2,313
849,2	8,113
849,6	12,633
850	20,553
850,4	21,393
850,9	19,953
851,3	18,873
851,7	16,513
852,2	8,793
852,6	9,153
853	6,473
853,4	11,113
853,9	14,753
854,3	13,753
854,7	18,913
855,2	20,913
855,6	15,753
856	15,793
856,4	18,153
856,9	14,473
857,3	14,593
857,7	15,353
858,2	15,313
858,6	11,193
859	12,073
859,4	15,633
859,9	12,713
860,3	8,953
860,7	9,993
861,1	15,473
861,6	15,513
862	16,033
862,4	18,273
862,9	12,633
863,3	7,073
863,7	4,153
864,1	6,033
864,6	7,193
865	17,353
865,4	15,993
865,9	13,473
866,3	9,033
866,7	8,313
867,1	3,153
867,6	-1,007
868	2,473
868,4	11,993
868,8	9,793
869,3	8,033
869,7	11,313
870,1	7,873
870,6	3,473
871	10,153
871,4	44,793
871,8	42,153
872,3	43,033
872,7	39,953
873,1	41,113
873,5	12,553
874	17,993
874,4	18,873
874,8	17,873
875,3	16,273
875,7	17,713
876,1	10,913
876,5	10,753
877	17,713
877,4	11,953
877,8	5,393
878,2	12,473
878,7	17,233
879,1	12,833
879,5	14,193
879,9	18,393
880,4	17,273
880,8	7,353
881,2	9,913
881,7	8,193
882,1	3,913
882,5	1,553
882,9	1,793
883,4	2,713
883,8	5,793
884,2	12,233
884,6	13,353
885,1	18,993
885,5	16,393
885,9	11,993
886,3	4,233
886,8	3,313
887,2	2,273
887,6	-0,567
888	0,073
888,5	0,713
888,9	6,153
889,3	6,873
889,8	7,713
890,2	7,993
890,6	12,713
891	6,393
891,5	4,633
891,9	5,513
892,3	7,593
892,7	5,273
893,2	7,953
893,6	10,633
894	5,273
894,4	-0,087
894,9	-2,047
895,3	-5,247
895,7	-3,647
896,1	2,233
896,6	9,713
897	8,113
897,4	7,353
897,8	7,873
898,3	4,033
898,7	11,153
899,1	10,353
899,5	13,913
900	2,953
900,4	9,633
900,8	-0,647
901,2	5,993
901,7	8,553
902,1	14,793
902,5	13,233
902,9	13,273
903,4	10,353
903,8	2,673
904,2	6,593
904,6	2,073
905,1	1,273
905,5	-1,967
905,9	3,153
906,3	0,193
906,8	0,833
907,2	-0,367
907,6	-2,527
908	-0,607
908,5	-0,207
908,9	1,073
909,3	0,513
909,7	8,513
910,2	5,513
910,6	2,153
911	3,993
911,4	4,153
911,9	1,273
912,3	2,513
912,7	3,273
913,1	0,913
913,6	3,553
914	-2,527
914,4	-9,767
914,8	-7,647
915,3	-6,607
915,7	-5,447
916,1	-2,887
916,5	7,073
916,9	7,313
917,4	8,233
917,8	7,833
918,2	11,833
918,6	7,313
919,1	6,073
919,5	-4,607
919,9	-1,767
920,3	-5,287
920,8	-3,687
921,2	-6,887
921,6	0,873
922	-6,207
922,5	-0,727
922,9	-5,327
923,3	1,953
923,7	5,713
924,2	8,873
924,6	0,593
925	5,713
925,4	4,433
925,8	2,153
926,3	4,753
926,7	5,793
927,1	5,593
927,5	0,393
928	-3,607
928,4	-9,767
928,8	-4,847
929,2	-7,727
929,7	-2,807
930,1	5,993
930,5	11,953
930,9	13,633
931,3	12,313
931,8	9,713
932,2	3,313
932,6	0,953
933	-3,167
933,5	-2,847
933,9	-2,487
934,3	-4,647
934,7	-7,567
935,2	-0,927
935,6	-0,407
936	-0,567
936,4	-1,847
936,8	-0,887
937,3	-7,687
937,7	-8,847
938,1	-8,407
938,5	-6,047
939	-7,527
939,4	-6,527
939,8	-6,007
940,2	-5,087
940,6	-6,647
941,1	-7,367
941,5	-9,687
941,9	-9,767
942,3	-6,767
942,8	-7,047
943,2	2,193
943,6	3,193
944	3,273
944,4	-5,367
944,9	-0,647
945,3	-3,407
945,7	-3,487
946,1	-5,487
946,6	-5,847
947	-5,367
947,4	-7,647
947,8	-3,767
948,2	-3,087
948,7	4,433
949,1	3,273
949,5	1,673
949,9	-1,847
950,3	0,753
950,8	-5,047
951,2	-5,367
951,6	-4,407
952	-4,887
952,5	-6,807
952,9	-6,167
953,3	-7,207
953,7	-7,487
954,1	-8,527
954,6	-5,007
955	-0,247
955,4	-0,247
955,8	2,153
956,2	3,473
956,7	-0,807
957,1	-5,727
957,5	-7,447
957,9	-10,927
958,3	-10,847
958,8	-5,807
959,2	-4,247
959,6	-3,687
960	-2,807
960,5	-1,927
960,9	-8,327
961,3	-10,167
961,7	-6,687
962,1	-6,967
962,6	-2,527
963	2,033
963,4	4,633
963,8	8,553
964,2	4,033
964,7	0,233
965,1	-3,487
965,5	-9,447
965,9	-16,687
966,3	-7,407
966,8	-9,007
967,2	-6,527
967,6	-0,967
968	-0,767
968,4	-5,927
968,9	-4,167
969,3	3,393
969,7	2,273
970,1	-0,207
970,5	-0,447
971	1,033
971,4	-4,287
971,8	-4,287
972,2	2,073
972,6	0,033
973,1	-8,927
973,5	-13,447
973,9	-13,167
974,3	-19,127
974,7	-16,047
975,2	-10,287
975,6	-8,167
976	-7,767
976,4	-9,407
976,8	-7,367
977,3	-6,167
977,7	-2,367
978,1	-0,567
978,5	6,513
978,9	-2,367
979,4	4,233
979,8	2,233
980,2	1,993
980,6	1,393
981	12,313
981,5	11,233
981,9	12,433
982,3	11,713
982,7	7,313
983,1	4,113
983,6	1,993
984	4,633
984,4	6,433
984,8	6,193
985,2	8,633
985,6	7,033
986,1	-3,607
986,5	-3,847
986,9	0,073
987,3	0,513
987,7	-2,447
988,2	1,593
988,6	-0,327
989	-3,527
989,4	-12,647
989,8	-15,287
990,3	-15,087
990,7	-16,647
991,1	-11,247
991,5	-4,407
991,9	-1,327
992,3	2,833
992,8	5,673
993,2	4,553
993,6	4,473
994	6,153
994,4	6,873
994,9	10,193
995,3	8,393
995,7	2,193
996,1	4,793
996,5	8,713
996,9	0,673
997,4	-2,647
997,8	0,473
998,2	-4,407
998,6	-18,447
999	-11,767
999,5	-9,887
999,9	-13,607
1000,3	-13,887
1000,7	-5,247
1001,1	-9,887
1001,5	-11,007
1002	-11,207
1002,4	-8,847
1002,8	-13,607
1003,2	-11,047
1003,6	-7,087
1004	1,553
1004,5	-0,127
1004,9	1,113
1005,3	-2,887
1005,7	-5,407
1006,1	-9,607
1006,6	-9,007
1007	-4,647
1007,4	-1,167
1007,8	0,033
1008,2	-2,127
1008,6	-3,807
1009,1	-10,767
1009,5	-10,807
1009,9	-11,607
1010,3	-7,927
1010,7	-5,247
1011,1	1,113
1011,6	-0,047
1012	-1,687
1012,4	-4,247
1012,8	-4,807
1013,2	-11,247
1013,6	-15,767
1014,1	-15,047
1014,5	-8,887
1014,9	-6,887
1015,3	-0,127
1015,7	9,073
1016,1	5,273
1016,6	-1,327
1017	-5,487
1017,4	-5,447
1017,8	-10,727
1018,2	-1,407
1018,6	-0,087
1019,1	-0,287
1019,5	-2,887
1019,9	1,153
1020,3	-6,007
1020,7	-3,567
1021,1	-1,887
1021,6	-0,487
1022	-5,727
1022,4	-4,607
1022,8	-4,287
1023,2	-5,207
1023,6	-6,887
1024,1	-6,087
1024,5	-9,567
1024,9	-12,087
1025,3	-11,007
1025,7	-11,087
1026,1	-4,247
1026,6	2,633
1027	8,913
1027,4	8,073
1027,8	6,233
1028,2	1,593
1028,6	1,233
1029	-1,607
1029,5	0,713
1029,9	4,273
1030,3	2,313
1030,7	2,273
1031,1	-2,847
1031,5	-6,727
1032	-10,567
1032,4	-9,887
1032,8	-12,327
1033,2	-6,487
1033,6	-5,887
1034	-2,887
1034,4	-5,447
1034,9	-6,847
1035,3	-19,247
1035,7	-18,567
1036,1	-19,007
1036,5	-12,247
1036,9	-6,367
1037,4	2,953
1037,8	9,593
1038,2	13,553
1038,6	4,873
1039	-3,847
1039,4	-0,687
1039,8	-11,887
1040,3	-18,247
1040,7	-11,327
1041,1	-6,767
1041,5	-11,767
1041,9	-7,047
1042,3	-9,927
1042,7	-10,287
1043,2	-9,887
1043,6	-6,207
1044	-2,927
1044,4	7,393
1044,8	7,393
1045,2	7,433
1045,6	6,793
1046,1	5,033
1046,5	0,873
1046,9	-6,887
1047,3	-3,407
1047,7	0,153
1048,1	-1,247
1048,5	-3,487
1049	1,073
1049,4	0,393
1049,8	0,353
1050,2	6,753
1050,6	9,713
1051	13,473
1051,4	8,593
1051,9	4,553
1052,3	-4,407
1052,7	-5,567
1053,1	-7,847
1053,5	-11,327
1053,9	-10,487
1054,3	-10,567
1054,8	-11,527
1055,2	-11,607
1055,6	-7,887
1056	-5,407
1056,4	-0,487
1056,8	2,953
1057,2	9,793
1057,6	14,433
1058,1	5,713
1058,5	1,473
1058,9	-5,327
1059,3	-5,447
1059,7	-8,807
1060,1	-5,007
1060,5	-4,807
1061	-0,607
1061,4	-7,167
1061,8	-1,487
1062,2	-3,247
1062,6	-0,567
1063	-1,367
1063,4	-2,727
1063,8	-3,127
1064,3	2,033
1064,7	0,233
1065,1	-2,727
1065,5	1,913
1065,9	-1,087
1066,3	-1,327
1066,7	-0,447
1067,1	1,633
1067,6	-1,647
1068	-6,807
1068,4	-3,247
1068,8	-7,087
1069,2	-8,087
1069,6	-12,367
1070	-4,327
1070,4	-16,847
1070,9	-18,327
1071,3	-15,807
1071,7	-9,487
1072,1	-18,007
1072,5	-8,807
1072,9	-6,887
1073,3	-7,607
1073,7	-10,807
1074,2	-10,527
1074,6	-13,087
1075	-5,127
1075,4	0,713
1075,8	-3,647
1076,2	3,313
1076,6	8,073
1077	0,953
1077,5	-6,247
1077,9	0,073
1078,3	-2,087
1078,7	-7,447
1079,1	-6,287
1079,5	-2,607
1079,9	-3,327
1080,3	-8,647
1080,7	-7,007
1081,2	-10,007
1081,6	-10,407
1082	-10,287
1082,4	-3,007
1082,8	-2,287
1083,2	6,033
1083,6	6,313
1084	9,073
1084,5	4,113
1084,9	5,113
1085,3	3,393
1085,7	-4,247
1086,1	-5,407
1086,5	-5,447
1086,9	-9,287
1087,3	-12,327
1087,7	-4,927
1088,2	-5,527
1088,6	-3,887
1089	-3,247
1089,4	-0,447
1089,8	-5,007
1090,2	-8,047
1090,6	-3,607
1091	1,113
1091,4	-0,967
1091,9	2,433
1092,3	4,593
1092,7	-1,927
1093,1	-3,727
1093,5	-2,047
1093,9	-2,927
1094,3	-4,407
1094,7	-1,487
1095,1	-2,607
1095,5	-2,607
1096	-1,887
1096,4	-3,087
1096,8	-3,767
1097,2	-5,007
1097,6	-2,167
1098	0,993
1098,4	3,473
1098,8	8,593
1099,2	9,353
1099,6	7,713
1100,1	5,353
1100,5	9,193
1100,9	4,513
1101,3	-1,047
1101,7	-7,087
1102,1	-11,887
1102,5	-16,647
1102,9	-19,767
1103,3	-14,967
1103,7	-13,167
1104,2	-8,287
1104,6	-7,927
1105	-4,647
1105,4	-1,487
1105,8	0,953
1106,2	0,153
1106,6	1,153
1107	1,753
1107,4	-0,527
1107,8	-0,367
1108,3	-0,633
