Data from Subt2_00077.txt Node
Date: Fri Aug 11 16:36:22 MSK 2023
User: vat
Spectrometer: MAYP114033
Trigger mode: 0
Integration Time (sec): 5,000000E-1
Scans to average: 5
Electric dark correction enabled: true
Nonlinearity correction enabled: false
Boxcar width: 2
XAxis mode: Wavelengths
Number of Pixels in Spectrum: 2068
>>>>>Begin Spectral Data<<<<<
199,4	1,733
199,9	0,883
200,4	1,213
200,8	0,973
201,3	-0,467
201,8	-2,387
202,2	-5,147
202,7	-3,147
203,2	-4,787
203,6	-2,147
204,1	-1,147
204,6	4,053
205	1,373
205,5	5,053
206	3,373
206,4	1,693
206,9	-1,067
207,4	1,533
207,8	0,653
208,3	2,493
208,8	7,253
209,2	8,173
209,7	5,213
210,2	2,613
210,6	5,293
211,1	5,773
211,5	5,053
212	6,053
212,5	6,373
212,9	3,213
213,4	2,493
213,9	-2,267
214,3	-5,107
214,8	-5,427
215,3	-7,747
215,7	-12,347
216,2	-8,227
216,7	-9,867
217,1	-13,867
217,6	-16,667
218,1	-17,827
218,5	-12,547
219	-6,307
219,5	0,373
219,9	5,253
220,4	14,453
220,9	11,293
221,3	6,173
221,8	3,813
222,3	3,133
222,7	-2,667
223,2	-1,147
223,6	3,013
224,1	5,093
224,6	9,173
225	5,533
225,5	-1,387
226	1,293
226,4	-8,147
226,9	-14,667
227,4	-13,507
227,8	-12,907
228,3	-24,667
228,8	-16,387
229,2	-18,387
229,7	-16,067
230,2	-8,467
230,6	-1,427
231,1	-2,467
231,5	2,053
232	14,293
232,5	12,653
232,9	12,773
233,4	16,533
233,9	17,093
234,3	5,733
234,8	5,693
235,3	3,653
235,7	2,453
236,2	2,013
236,7	1,453
237,1	0,093
237,6	3,053
238,1	4,973
238,5	3,733
239	5,893
239,4	2,893
239,9	5,693
240,4	3,893
240,8	8,253
241,3	9,693
241,8	10,413
242,2	5,613
242,7	3,493
243,2	-1,667
243,6	-2,827
244,1	-8,827
244,6	-9,227
245	-9,627
245,5	-5,027
245,9	-4,547
246,4	6,613
246,9	15,373
247,3	18,013
247,8	11,173
248,3	12,013
248,7	5,693
249,2	-3,547
249,7	-5,947
250,1	-1,267
250,6	-5,827
251	-5,747
251,5	1,293
252	1,853
252,4	5,413
252,9	6,133
253,4	7,973
253,8	3,573
254,3	6,773
254,8	5,693
255,2	6,853
255,7	10,893
256,1	6,973
256,6	2,133
257,1	6,413
257,5	2,813
258	0,693
258,5	1,973
258,9	1,093
259,4	-6,187
259,9	-2,307
260,3	-2,147
260,8	0,653
261,2	4,893
261,7	0,453
262,2	-3,667
262,6	-5,947
263,1	-8,907
263,6	-6,787
264	-4,787
264,5	-4,667
264,9	0,493
265,4	0,413
265,9	-1,867
266,3	-0,707
266,8	4,453
267,3	2,573
267,7	6,093
268,2	6,453
268,7	7,973
269,1	7,333
269,6	6,013
270	3,693
270,5	-2,987
271	-7,787
271,4	-11,667
271,9	-15,587
272,4	-12,547
272,8	-5,907
273,3	-2,507
273,7	2,173
274,2	7,533
274,7	9,773
275,1	9,333
275,6	7,413
276,1	1,653
276,5	-1,507
277	-3,907
277,4	-4,627
277,9	2,853
278,4	3,853
278,8	5,173
279,3	6,213
279,8	5,493
280,2	2,453
280,7	3,893
281,1	3,413
281,6	-0,907
282,1	2,013
282,5	-0,827
283	2,333
283,4	0,853
283,9	4,533
284,4	5,813
284,8	3,293
285,3	-0,707
285,8	-0,947
286,2	-3,947
286,7	-8,747
287,1	-6,907
287,6	-7,787
288,1	-3,707
288,5	1,733
289	-1,547
289,5	-1,427
289,9	-2,027
290,4	-4,747
290,8	-4,027
291,3	-1,187
291,8	2,773
292,2	6,453
292,7	7,613
293,1	1,013
293,6	0,493
294,1	-4,667
294,5	-6,987
295	-5,307
295,5	-1,547
295,9	0,853
296,4	6,653
296,8	5,453
297,3	1,573
297,8	-0,307
298,2	-1,507
298,7	-4,147
299,1	-6,467
299,6	-7,467
300,1	-8,387
300,5	-4,787
301	-5,587
301,5	0,933
301,9	2,693
302,4	5,573
302,8	0,813
303,3	4,053
303,8	0,613
304,2	3,573
304,7	3,653
305,1	3,493
305,6	1,413
306,1	1,093
306,5	0,253
307	-1,747
307,4	0,013
307,9	-5,027
308,4	0,333
308,8	-1,627
309,3	1,693
309,8	4,693
310,2	7,093
310,7	6,453
311,1	2,373
311,6	-0,427
312,1	-1,587
312,5	-1,107
313	-5,787
313,4	-1,787
313,9	-1,027
314,4	-3,027
314,8	-5,907
315,3	-4,987
315,7	-3,667
316,2	-5,267
316,7	-7,427
317,1	-7,227
317,6	-10,267
318	-7,307
318,5	-3,707
319	-6,547
319,4	0,693
319,9	1,253
320,3	-5,827
320,8	-10,947
321,3	-1,387
321,7	-0,987
322,2	1,933
322,6	0,733
323,1	0,213
323,6	-3,507
324	-4,147
324,5	-0,187
324,9	7,093
325,4	6,333
325,9	9,053
326,3	7,653
326,8	8,653
327,2	10,293
327,7	10,613
328,2	7,893
328,6	13,733
329,1	7,333
329,5	-0,547
330	3,573
330,5	6,253
330,9	-1,507
331,4	-3,627
331,8	-0,747
332,3	-1,507
332,8	-5,667
333,2	-7,627
333,7	-4,587
334,1	-4,267
334,6	-7,627
335,1	-5,267
335,5	-4,227
336	-0,747
336,4	-4,667
336,9	-0,307
337,4	-5,387
337,8	-1,307
338,3	-2,907
338,7	-0,107
339,2	-0,307
339,7	4,933
340,1	1,373
340,6	2,493
341	5,173
341,5	6,933
342	1,573
342,4	3,733
342,9	1,453
343,3	-2,867
343,8	-6,947
344,2	-3,667
344,7	-10,987
345,2	-11,987
345,6	-7,707
346,1	-8,347
346,5	-3,867
347	3,533
347,5	5,173
347,9	5,853
348,4	9,333
348,8	2,933
349,3	1,133
349,8	4,653
350,2	4,853
350,7	2,893
351,1	8,813
351,6	12,133
352	2,613
352,5	0,733
353	5,453
353,4	8,613
353,9	8,213
354,3	19,813
354,8	18,013
355,3	19,173
355,7	22,613
356,2	35,453
356,6	42,533
357,1	58,653
357,5	67,413
358	73,173
358,5	76,733
358,9	89,373
359,4	109,813
359,8	136,613
360,3	165,933
360,8	194,173
361,2	222,933
361,7	248,133
362,1	279,173
362,6	311,693
363	359,453
363,5	400,613
364	441,693
364,4	486,213
364,9	536,373
365,3	576,013
365,8	617,973
366,3	662,333
366,7	698,533
367,2	724,853
367,6	746,893
368,1	770,093
368,5	783,373
369	790,933
369,5	794,053
369,9	791,853
370,4	773,893
370,8	757,373
371,3	734,053
371,7	706,413
372,2	673,013
372,7	642,453
373,1	605,213
373,6	572,253
374	537,293
374,5	504,573
374,9	473,573
375,4	442,133
375,9	405,133
376,3	374,733
376,8	346,973
377,2	318,333
377,7	294,533
378,2	270,693
378,6	251,733
379,1	229,053
379,5	213,013
380	194,133
380,4	174,333
380,9	155,973
381,4	142,053
381,8	131,813
382,3	122,053
382,7	118,693
383,2	104,453
383,6	94,013
384,1	77,613
384,6	69,253
385	57,253
385,5	56,813
385,9	57,173
386,4	58,213
386,8	54,533
387,3	57,733
387,7	52,013
388,2	48,053
388,7	44,933
389,1	40,573
389,6	35,253
390	35,893
390,5	32,333
390,9	28,973
391,4	27,693
391,9	25,933
392,3	20,333
392,8	19,293
393,2	20,653
393,7	20,573
394,1	17,853
394,6	20,253
395,1	13,653
395,5	14,413
396	11,773
396,4	11,853
396,9	8,293
397,3	13,373
397,8	9,653
398,2	6,213
398,7	9,093
399,2	9,373
399,6	9,773
400,1	7,733
400,5	11,333
401	8,613
401,4	7,933
401,9	8,733
402,4	14,093
402,8	17,373
403,3	13,653
403,7	13,893
404,2	12,893
404,6	8,293
405,1	9,853
405,5	14,613
406	18,293
406,5	6,973
406,9	8,293
407,4	7,893
407,8	8,373
408,3	8,853
408,7	16,173
409,2	11,293
409,6	13,733
410,1	16,613
410,6	15,573
411	20,413
411,5	23,333
411,9	17,933
412,4	19,013
412,8	21,093
413,3	24,333
413,7	27,613
414,2	29,453
414,7	27,653
415,1	26,973
415,6	26,173
416	24,333
416,5	26,213
416,9	28,253
417,4	33,173
417,8	37,693
418,3	42,373
418,8	47,413
419,2	48,533
419,7	50,813
420,1	49,893
420,6	52,013
421	52,053
421,5	48,813
421,9	45,853
422,4	42,373
422,8	45,653
423,3	39,893
423,8	44,933
424,2	46,573
424,7	52,573
425,1	50,493
425,6	58,773
426	55,933
426,5	57,933
426,9	56,173
427,4	63,173
427,9	60,213
428,3	64,013
428,8	66,373
429,2	69,893
429,7	69,853
430,1	73,413
430,6	80,453
431	82,933
431,5	82,853
431,9	86,933
432,4	87,493
432,8	90,373
433,3	96,693
433,8	107,173
434,2	105,173
434,7	114,213
435,1	112,973
435,6	116,293
436	115,093
436,5	127,253
436,9	131,853
437,4	141,093
437,8	137,893
438,3	145,533
438,8	143,693
439,2	150,053
439,7	157,093
440,1	170,893
440,6	178,693
441	186,493
441,5	189,253
441,9	193,933
442,4	204,293
442,8	209,853
443,3	226,413
443,7	242,933
444,2	259,173
444,7	272,053
445,1	287,413
445,6	297,293
446	305,173
446,5	307,693
446,9	316,133
447,4	327,973
447,8	337,293
448,3	352,853
448,7	378,053
449,2	386,173
449,6	398,453
450,1	415,853
450,6	428,373
451	431,293
451,5	449,053
451,9	462,053
452,4	477,173
452,8	496,293
453,3	520,453
453,7	543,253
454,2	562,213
454,6	582,373
455,1	593,133
455,5	614,893
456	627,213
456,4	648,933
456,9	664,133
457,3	685,213
457,8	695,733
458,3	717,013
458,7	734,573
459,2	758,653
459,6	782,053
460,1	802,893
460,5	830,053
461	849,133
461,4	869,293
461,9	893,613
462,3	917,253
462,8	938,653
463,2	970,213
463,7	991,613
464,1	1014,013
464,6	1038,293
465	1063,693
465,5	1079,573
466	1099,093
466,4	1123,013
466,9	1143,813
467,3	1151,893
467,8	1174,213
468,2	1200,293
468,7	1218,893
469,1	1240,173
469,6	1269,493
470	1296,733
470,5	1319,293
470,9	1342,493
471,4	1366,093
471,8	1393,373
472,3	1408,933
472,7	1431,453
473,2	1454,213
473,6	1481,813
474,1	1497,213
474,5	1520,213
475	1545,453
475,4	1566,573
475,9	1590,093
476,4	1617,813
476,8	1641,413
477,3	1658,213
477,7	1685,893
478,2	1703,013
478,6	1720,573
479,1	1743,653
479,5	1759,653
480	1772,493
480,4	1786,933
480,9	1811,213
481,3	1826,933
481,8	1844,573
482,2	1868,493
482,7	1882,213
483,1	1890,013
483,6	1906,813
484	1925,093
484,5	1932,133
484,9	1956,613
485,4	1969,973
485,8	1979,053
486,3	1988,573
486,7	1998,573
487,2	2014,413
487,6	2023,613
488,1	2028,773
488,5	2035,333
489	2039,853
489,4	2040,333
489,9	2045,933
490,4	2059,453
490,8	2067,013
491,3	2077,693
491,7	2093,053
492,2	2099,573
492,6	2107,493
493,1	2122,693
493,5	2126,693
494	2113,893
494,4	2130,093
494,9	2130,973
495,3	2130,493
495,8	2133,013
496,2	2140,573
496,7	2136,333
497,1	2141,733
497,6	2146,613
498	2151,493
498,5	2151,653
498,9	2153,213
499,4	2146,773
499,8	2138,373
500,3	2136,333
500,7	2141,573
501,2	2134,573
501,6	2140,133
502,1	2143,933
502,5	2146,813
503	2139,533
503,4	2138,613
503,9	2138,173
504,3	2128,973
504,8	2127,333
505,2	2125,653
505,7	2129,013
506,1	2121,093
506,6	2132,493
507	2126,613
507,5	2123,133
507,9	2117,453
508,4	2118,333
508,8	2101,093
509,3	2095,653
509,7	2094,253
510,2	2089,253
510,6	2088,973
511,1	2083,293
511,5	2077,453
512	2071,333
512,4	2071,373
512,9	2057,933
513,3	2059,653
513,8	2059,133
514,2	2055,293
514,7	2047,093
515,1	2043,613
515,6	2042,933
516	2037,213
516,5	2038,773
516,9	2034,413
517,4	2035,613
517,8	2028,133
518,3	2025,093
518,7	2020,413
519,2	2018,173
519,6	2011,973
520,1	2006,253
520,5	1999,853
521	1992,573
521,4	1987,333
521,9	1980,453
522,3	1977,893
522,8	1976,533
523,2	1974,293
523,7	1973,013
524,1	1972,813
524,6	1962,733
525	1958,013
525,5	1949,653
525,9	1943,133
526,4	1937,973
526,8	1940,813
527,3	1936,933
527,7	1932,533
528,2	1929,253
528,6	1930,933
529,1	1934,853
529,5	1937,533
530	1941,453
530,4	1947,173
530,9	1942,453
531,3	1931,773
531,8	1928,013
532,2	1923,053
532,6	1919,653
533,1	1918,453
533,5	1913,693
534	1908,973
534,4	1906,773
534,9	1903,573
535,3	1909,253
535,8	1913,013
536,2	1912,373
536,7	1912,813
537,1	1910,333
537,6	1893,373
538	1898,413
538,5	1898,573
538,9	1898,453
539,4	1896,013
539,8	1903,133
540,3	1894,453
540,7	1895,213
541,2	1896,853
541,6	1893,933
542,1	1895,933
542,5	1901,573
543	1897,413
543,4	1895,253
543,9	1899,613
544,3	1901,173
544,8	1902,293
545,2	1905,253
545,7	1901,893
546,1	1899,413
546,5	1895,893
547	1885,493
547,4	1882,653
547,9	1880,453
548,3	1876,693
548,8	1867,693
549,2	1869,253
549,7	1862,573
550,1	1863,973
550,6	1863,253
551	1865,413
551,5	1864,093
551,9	1869,813
552,4	1862,693
552,8	1859,533
553,3	1855,853
553,7	1858,173
554,2	1857,933
554,6	1863,733
555,1	1864,213
555,5	1875,373
555,9	1878,613
556,4	1886,773
556,8	1882,773
557,3	1886,933
557,7	1879,493
558,2	1881,333
558,6	1872,533
559,1	1881,653
559,5	1874,173
560	1879,613
560,4	1872,333
560,9	1869,053
561,3	1863,413
561,8	1870,413
562,2	1865,093
562,7	1866,733
563,1	1869,453
563,6	1866,093
564	1868,653
564,4	1869,333
564,9	1873,813
565,3	1871,213
565,8	1877,053
566,2	1873,213
566,7	1865,653
567,1	1859,333
567,6	1861,773
568	1859,453
568,5	1862,733
568,9	1867,493
569,4	1865,493
569,8	1861,413
570,3	1864,933
570,7	1859,053
571,1	1849,373
571,6	1845,893
572	1846,053
572,5	1832,573
572,9	1824,933
573,4	1828,093
573,8	1826,613
574,3	1830,973
574,7	1833,973
575,2	1846,613
575,6	1841,213
576,1	1849,853
576,5	1831,013
576,9	1822,813
577,4	1801,133
577,8	1799,293
578,3	1782,453
578,7	1793,213
579,2	1796,733
579,6	1799,533
580,1	1798,253
580,5	1790,133
581	1783,733
581,4	1774,173
581,9	1769,253
582,3	1768,533
582,7	1772,893
583,2	1767,053
583,6	1758,293
584,1	1759,893
584,5	1755,453
585	1754,773
585,4	1746,613
585,9	1742,693
586,3	1734,373
586,8	1729,693
587,2	1715,213
587,6	1709,773
588,1	1710,293
588,5	1707,373
589	1701,453
589,4	1701,933
589,9	1702,333
590,3	1697,813
590,8	1697,453
591,2	1691,413
591,7	1688,093
592,1	1684,613
592,5	1684,173
593	1673,653
593,4	1674,693
593,9	1671,973
594,3	1667,813
594,8	1666,493
595,2	1670,093
595,7	1664,773
596,1	1662,613
596,6	1657,693
597	1655,133
597,4	1648,333
597,9	1646,333
598,3	1641,333
598,8	1635,053
599,2	1625,493
599,7	1617,533
600,1	1604,573
600,6	1600,213
601	1592,973
601,4	1590,013
601,9	1588,333
602,3	1586,853
602,8	1578,333
603,2	1577,133
603,7	1561,493
604,1	1559,013
604,6	1557,333
605	1552,933
605,4	1552,453
605,9	1555,493
606,3	1543,533
606,8	1541,293
607,2	1536,733
607,7	1524,733
608,1	1521,133
608,6	1519,373
609	1509,493
609,4	1507,013
609,9	1506,373
610,3	1498,933
610,8	1489,493
611,2	1483,133
611,7	1475,293
612,1	1468,373
612,6	1459,413
613	1454,693
613,4	1449,733
613,9	1446,213
614,3	1433,533
614,8	1433,093
615,2	1436,093
615,7	1424,933
616,1	1412,533
616,6	1411,493
617	1401,813
617,4	1389,813
617,9	1389,333
618,3	1389,133
618,8	1380,333
619,2	1376,333
619,7	1360,173
620,1	1352,933
620,5	1341,373
621	1338,253
621,4	1330,573
621,9	1334,093
622,3	1330,893
622,8	1328,613
623,2	1314,453
623,6	1308,333
624,1	1300,093
624,5	1288,173
625	1279,293
625,4	1279,733
625,9	1277,613
626,3	1267,893
626,8	1264,133
627,2	1258,973
627,6	1251,013
628,1	1245,893
628,5	1240,093
629	1232,533
629,4	1224,853
629,9	1217,933
630,3	1206,013
630,7	1204,013
631,2	1196,693
631,6	1191,693
632,1	1189,773
632,5	1183,573
633	1172,253
633,4	1163,893
633,8	1156,333
634,3	1149,133
634,7	1138,653
635,2	1137,773
635,6	1131,933
636,1	1124,373
636,5	1119,613
636,9	1118,893
637,4	1109,053
637,8	1103,213
638,3	1096,813
638,7	1090,173
639,2	1092,093
639,6	1093,653
640	1089,573
640,5	1084,693
640,9	1078,293
641,4	1062,373
641,8	1048,853
642,2	1047,893
642,7	1039,893
643,1	1028,973
643,6	1023,093
644	1019,533
644,5	1008,333
644,9	1010,973
645,3	1011,293
645,8	1004,213
646,2	1003,693
646,7	995,413
647,1	989,653
647,6	984,253
648	985,453
648,4	976,373
648,9	975,733
649,3	968,213
649,8	964,373
650,2	956,853
650,6	947,773
651,1	945,373
651,5	935,413
652	928,933
652,4	929,613
652,9	922,613
653,3	916,773
653,7	915,773
654,2	910,533
654,6	894,653
655,1	895,813
655,5	887,773
655,9	883,573
656,4	874,973
656,8	880,213
657,3	870,293
657,7	860,493
658,2	855,333
658,6	855,133
659	843,013
659,5	842,053
659,9	841,373
660,4	838,893
660,8	831,693
661,2	826,253
661,7	815,533
662,1	807,333
662,6	794,893
663	791,053
663,4	788,093
663,9	785,013
664,3	788,493
664,8	790,893
665,2	785,733
665,6	783,453
666,1	779,413
666,5	770,253
667	764,813
667,4	761,013
667,9	752,613
668,3	744,333
668,7	740,253
669,2	726,413
669,6	720,053
670,1	718,373
670,5	717,613
670,9	710,733
671,4	713,773
671,8	710,613
672,3	703,293
672,7	697,853
673,1	695,653
673,6	686,853
674	674,613
674,5	668,133
674,9	663,493
675,3	658,293
675,8	657,733
676,2	662,613
676,7	659,453
677,1	655,493
677,5	647,373
678	639,053
678,4	629,013
678,9	617,933
679,3	615,293
679,7	611,933
680,2	610,973
680,6	605,413
681,1	609,973
681,5	604,093
681,9	601,733
682,4	601,693
682,8	601,893
683,3	595,053
683,7	592,013
684,1	583,813
684,6	570,333
685	561,413
685,5	559,773
685,9	556,573
686,3	556,933
686,8	555,413
687,2	556,053
687,7	545,933
688,1	538,773
688,5	540,813
689	540,853
689,4	538,093
689,9	537,293
690,3	533,413
690,7	519,333
691,2	510,013
691,6	506,213
692	503,133
692,5	508,333
692,9	512,213
693,4	511,333
693,8	505,893
694,2	504,693
694,7	496,453
695,1	489,653
695,6	490,413
696	487,693
696,4	483,533
696,9	478,173
697,3	476,493
697,8	469,853
698,2	468,333
698,6	463,373
699,1	463,213
699,5	457,333
699,9	456,613
700,4	451,733
700,8	454,253
701,3	447,573
701,7	445,813
702,1	442,573
702,6	442,173
703	431,053
703,5	425,613
703,9	419,573
704,3	416,133
704,8	406,533
705,2	410,333
705,6	411,893
706,1	408,853
706,5	405,053
707	410,733
707,4	403,573
707,8	397,573
708,3	401,253
708,7	400,133
709,2	388,093
709,6	388,133
710	386,453
710,5	380,533
710,9	376,733
711,3	379,693
711,8	376,773
712,2	385,733
712,7	379,333
713,1	374,733
713,5	373,013
714	363,973
714,4	353,213
714,8	359,253
715,3	359,813
715,7	358,933
716,2	357,773
716,6	351,973
717	346,973
717,5	342,173
717,9	336,933
718,3	334,853
718,8	336,613
719,2	328,293
719,7	322,893
720,1	320,333
720,5	323,733
721	312,853
721,4	314,053
721,8	315,173
722,3	316,773
722,7	315,013
723,2	315,493
723,6	314,573
724	309,173
724,5	299,813
724,9	293,893
725,3	296,413
725,8	291,813
726,2	289,173
726,7	284,413
727,1	283,573
727,5	274,413
728	270,893
728,4	269,493
728,8	273,853
729,3	275,293
729,7	281,973
730,1	278,533
730,6	281,013
731	273,053
731,5	272,093
731,9	264,893
732,3	266,213
732,8	257,253
733,2	257,773
733,6	252,613
734,1	254,853
734,5	252,893
734,9	259,213
735,4	260,493
735,8	258,173
736,3	257,733
736,7	256,893
737,1	248,173
737,6	249,253
738	246,573
738,4	245,773
738,9	245,373
739,3	244,773
739,7	234,413
740,2	235,253
740,6	227,693
741,1	223,613
741,5	222,853
741,9	227,573
742,4	227,173
742,8	230,413
743,2	228,973
743,7	231,533
744,1	224,453
744,5	221,053
745	219,173
745,4	215,533
745,8	205,093
746,3	203,613
746,7	201,293
747,2	198,853
747,6	205,053
748	216,373
748,5	217,573
748,9	218,093
749,3	212,333
749,8	207,813
750,2	208,133
750,6	205,693
751,1	206,653
751,5	208,533
751,9	208,693
752,4	200,533
752,8	203,853
753,3	197,093
753,7	197,213
754,1	196,973
754,6	194,453
755	191,493
755,4	193,093
755,9	188,333
756,3	185,933
756,7	183,853
757,2	180,493
757,6	175,453
758	182,133
758,5	182,493
758,9	184,773
759,3	181,053
759,8	186,493
760,2	179,573
760,6	175,013
761,1	170,133
761,5	169,653
761,9	165,333
762,4	159,453
762,8	157,373
763,3	152,853
763,7	156,213
764,1	149,973
764,6	152,933
765	151,373
765,4	153,733
765,9	149,133
766,3	150,533
766,7	147,853
767,2	142,613
767,6	147,693
768	150,893
768,5	152,693
768,9	148,813
769,3	157,453
769,8	155,173
770,2	150,733
770,6	154,973
771,1	157,253
771,5	150,853
771,9	144,733
772,4	147,133
772,8	135,853
773,2	133,893
773,7	136,493
774,1	137,013
774,5	130,773
775	131,933
775,4	131,573
775,8	129,693
776,3	124,133
776,7	127,733
777,1	125,173
777,6	125,613
778	125,293
778,4	129,253
778,9	129,293
779,3	130,813
779,7	130,093
780,2	126,213
780,6	125,613
781	123,093
781,5	125,373
781,9	124,293
782,3	123,733
782,8	112,893
783,2	107,813
783,6	99,973
784,1	95,293
784,5	88,573
784,9	98,493
785,4	102,773
785,8	104,773
786,2	110,533
786,7	116,053
787,1	116,013
787,5	109,773
788	108,453
788,4	104,093
788,8	103,173
789,3	94,853
789,7	92,813
790,1	94,773
790,6	92,773
791	89,173
791,4	95,293
791,9	100,413
792,3	98,533
792,7	99,253
793,2	99,893
793,6	97,293
794	97,893
794,5	96,493
794,9	97,813
795,3	99,693
795,8	97,693
796,2	94,973
796,6	94,933
797,1	89,373
797,5	84,693
797,9	86,893
798,4	83,813
798,8	87,533
799,2	85,653
799,7	86,653
800,1	82,093
800,5	80,733
801	78,053
801,4	83,893
801,8	83,053
802,2	88,333
802,7	94,853
803,1	90,733
803,5	87,333
804	84,493
804,4	79,693
804,8	73,533
805,3	71,093
805,7	69,053
806,1	69,893
806,6	69,293
807	65,093
807,4	66,453
807,9	69,933
808,3	70,853
808,7	71,493
809,2	77,973
809,6	75,933
810	72,853
810,4	72,493
810,9	71,413
811,3	70,373
811,7	70,813
812,2	69,053
812,6	67,293
813	64,373
813,5	62,293
813,9	58,293
814,3	59,773
814,8	62,293
815,2	66,373
815,6	63,693
816,1	65,493
816,5	64,813
816,9	61,333
817,3	56,533
817,8	58,013
818,2	59,933
818,6	59,253
819,1	52,053
819,5	53,893
819,9	50,893
820,4	50,453
820,8	49,333
821,2	56,493
821,7	54,373
822,1	53,053
822,5	47,493
822,9	49,773
823,4	51,213
823,8	55,213
824,2	58,893
824,7	62,173
825,1	62,453
825,5	55,133
826	51,333
826,4	53,093
826,8	55,253
827,3	49,093
827,7	52,533
828,1	50,093
828,5	46,253
829	41,413
829,4	36,893
829,8	36,533
830,3	43,693
830,7	47,573
831,1	50,813
831,6	59,373
832	61,453
832,4	59,533
832,8	54,773
833,3	51,573
833,7	49,893
834,1	42,453
834,6	39,973
835	37,773
835,4	35,573
835,8	32,173
836,3	34,893
836,7	33,053
837,1	35,773
837,6	39,293
838	44,693
838,4	48,093
838,9	46,053
839,3	45,573
839,7	50,093
840,1	50,733
840,6	44,533
841	38,293
841,4	34,093
841,9	30,653
842,3	25,893
842,7	31,013
843,1	36,773
843,6	33,493
844	33,173
844,4	34,053
844,9	34,893
845,3	36,693
845,7	42,813
846,2	39,693
846,6	36,013
847	32,293
847,4	27,293
847,9	26,613
848,3	28,013
848,7	34,533
849,2	35,333
849,6	37,373
850	39,853
850,4	35,253
850,9	33,733
851,3	30,253
851,7	25,013
852,2	19,453
852,6	22,773
853	16,573
853,4	17,093
853,9	22,613
854,3	22,933
854,7	22,813
855,2	29,413
855,6	29,333
856	29,293
856,4	33,573
856,9	29,893
857,3	25,853
857,7	34,813
858,2	35,093
858,6	30,573
859	34,733
859,4	32,533
859,9	24,933
860,3	24,853
860,7	19,813
861,1	21,173
861,6	20,413
862	22,933
862,4	22,373
862,9	29,733
863,3	21,973
863,7	22,013
864,1	20,973
864,6	24,333
865	23,373
865,4	19,453
865,9	18,253
866,3	16,493
866,7	13,373
867,1	14,253
867,6	22,253
868	22,893
868,4	20,373
868,8	21,173
869,3	24,333
869,7	23,413
870,1	26,533
870,6	32,933
871	31,573
871,4	-34,347
871,8	-32,227
872,3	-38,147
872,7	-47,427
873,1	-47,947
873,5	13,933
874	11,893
874,4	16,573
874,8	17,253
875,3	16,733
875,7	16,853
876,1	17,413
876,5	14,733
877	14,533
877,4	12,933
877,8	12,733
878,2	14,693
878,7	18,213
879,1	22,693
879,5	26,053
879,9	25,093
880,4	22,933
880,8	22,613
881,2	19,893
881,7	15,373
882,1	12,173
882,5	13,053
882,9	9,093
883,4	10,053
883,8	14,813
884,2	13,973
884,6	12,493
885,1	12,053
885,5	8,893
885,9	4,093
886,3	8,373
886,8	4,453
887,2	4,893
887,6	6,853
888	9,333
888,5	6,613
888,9	10,653
889,3	11,533
889,8	11,693
890,2	10,773
890,6	11,213
891	9,773
891,5	11,893
891,9	13,053
892,3	12,213
892,7	12,333
893,2	13,733
893,6	11,693
894	13,493
894,4	8,813
894,9	12,613
895,3	13,333
895,7	16,013
896,1	15,093
896,6	23,453
897	22,813
897,4	19,653
897,8	17,053
898,3	14,453
898,7	8,653
899,1	5,213
899,5	7,053
900	5,893
900,4	6,933
900,8	2,853
901,2	1,213
901,7	4,813
902,1	6,373
902,5	7,813
902,9	12,293
903,4	14,373
903,8	7,053
904,2	-0,627
904,6	-0,667
905,1	-0,347
905,5	-1,347
905,9	4,773
906,3	10,133
906,8	6,813
907,2	11,333
907,6	12,013
908	11,613
908,5	9,693
908,9	9,133
909,3	-2,627
909,7	-2,067
910,2	-4,187
910,6	1,253
911	2,773
911,4	12,573
911,9	8,253
912,3	5,053
912,7	4,173
913,1	4,813
913,6	1,253
914	2,733
914,4	0,493
914,8	0,613
915,3	0,573
915,7	0,453
916,1	0,813
916,5	5,773
916,9	3,373
917,4	3,053
917,8	3,973
918,2	7,013
918,6	5,693
919,1	3,133
919,5	0,613
919,9	2,893
920,3	1,693
920,8	7,813
921,2	6,093
921,6	8,893
922	2,933
922,5	5,333
922,9	-1,267
923,3	0,653
923,7	1,133
924,2	2,413
924,6	-4,387
925	-0,027
925,4	0,333
925,8	-1,627
926,3	-3,587
926,7	-4,987
927,1	-6,467
927,5	-1,307
928	-2,907
928,4	2,693
928,8	6,453
929,2	4,493
929,7	-2,067
930,1	1,453
930,5	1,853
930,9	-0,867
931,3	-4,947
931,8	0,133
932,2	-1,987
932,6	-5,667
933	-4,707
933,5	-0,387
933,9	-5,707
934,3	-1,707
934,7	4,853
935,2	4,693
935,6	1,013
936	0,613
936,4	-4,027
936,8	-8,987
937,3	-0,627
937,7	-0,907
938,1	2,973
938,5	6,453
939	13,293
939,4	3,693
939,8	6,973
940,2	5,813
940,6	5,773
941,1	1,653
941,5	7,573
941,9	1,573
942,3	5,413
942,8	3,173
943,2	3,813
943,6	4,613
944	10,253
944,4	4,653
944,9	4,573
945,3	6,493
945,7	9,093
946,1	14,333
946,6	14,853
947	16,213
947,4	8,293
947,8	1,613
948,2	-5,587
948,7	-0,387
949,1	-1,547
949,5	-2,747
949,9	-2,187
950,3	3,573
950,8	0,293
951,2	-0,107
951,6	4,213
952	-0,027
952,5	-8,747
952,9	-9,627
953,3	-10,507
953,7	-8,307
954,1	-8,067
954,6	3,173
955	6,613
955,4	3,653
955,8	-1,547
956,2	3,853
956,7	-3,067
957,1	0,693
957,5	4,413
957,9	6,413
958,3	0,493
958,8	-0,187
959,2	-3,547
959,6	-4,667
960	-1,467
960,5	1,453
960,9	1,093
961,3	-0,627
961,7	3,093
962,1	7,773
962,6	8,453
963	9,373
963,4	7,293
963,8	3,933
964,2	-0,707
964,7	3,133
965,1	5,173
965,5	8,093
965,9	11,413
966,3	11,013
966,8	7,693
967,2	1,133
967,6	0,413
968	1,013
968,4	0,373
968,9	-4,747
969,3	0,413
969,7	-1,627
970,1	-6,667
970,5	-12,507
971	-6,027
971,4	-10,747
971,8	-10,587
972,2	-3,827
972,6	3,253
973,1	5,053
973,5	11,413
973,9	11,333
974,3	4,533
974,7	6,093
975,2	10,213
975,6	12,413
976	14,773
976,4	18,013
976,8	14,653
977,3	7,933
977,7	7,453
978,1	5,413
978,5	5,493
978,9	3,333
979,4	5,893
979,8	3,093
980,2	6,293
980,6	7,613
981	8,693
981,5	1,573
981,9	7,813
982,3	5,253
982,7	-1,787
983,1	-0,347
983,6	7,013
984	0,373
984,4	-2,307
984,8	-1,427
985,2	0,373
985,6	-7,667
986,1	-7,587
986,5	-5,147
986,9	-4,027
987,3	-8,307
987,7	-5,067
988,2	-8,507
988,6	-10,347
989	-7,467
989,4	-1,707
989,8	-1,187
990,3	0,773
990,7	2,173
991,1	6,213
991,5	3,733
991,9	1,933
992,3	0,053
992,8	-5,547
993,2	-13,987
993,6	-13,787
994	-7,947
994,4	-1,667
994,9	3,533
995,3	4,773
995,7	1,333
996,1	-3,147
996,5	-4,867
996,9	-4,467
997,4	3,213
997,8	0,533
998,2	3,133
998,6	-2,267
999	-5,027
999,5	-7,947
999,9	-9,227
1000,3	-12,267
1000,7	-3,547
1001,1	-3,347
1001,5	-4,947
1002	3,893
1002,4	2,373
1002,8	-1,067
1003,2	0,573
1003,6	1,813
1004	-1,387
1004,5	2,893
1004,9	4,453
1005,3	7,573
1005,7	10,133
1006,1	8,533
1006,6	8,933
1007	9,733
1007,4	2,213
1007,8	1,493
1008,2	-1,907
1008,6	-0,787
1009,1	-6,547
1009,5	1,853
1009,9	-3,347
1010,3	-1,827
1010,7	-7,227
1011,1	-2,947
1011,6	-7,427
1012	-2,067
1012,4	3,813
1012,8	8,653
1013,2	7,613
1013,6	5,413
1014,1	2,053
1014,5	-2,587
1014,9	-5,387
1015,3	-9,307
1015,7	-2,307
1016,1	-1,187
1016,6	1,213
1017	1,373
1017,4	2,173
1017,8	1,013
1018,2	0,213
1018,6	0,333
1019,1	-6,387
1019,5	-5,347
1019,9	-11,347
1020,3	-12,987
1020,7	-19,187
1021,1	-11,267
1021,6	-12,107
1022	-6,027
1022,4	-6,707
1022,8	4,213
1023,2	5,853
1023,6	8,973
1024,1	10,853
1024,5	14,253
1024,9	10,293
1025,3	4,533
1025,7	1,733
1026,1	-4,707
1026,6	-10,507
1027	-6,747
1027,4	-2,307
1027,8	0,653
1028,2	3,693
1028,6	6,133
1029	-2,587
1029,5	-2,827
1029,9	-0,227
1030,3	2,493
1030,7	6,493
1031,1	11,013
1031,5	12,133
1032	13,013
1032,4	12,653
1032,8	8,613
1033,2	8,693
1033,6	9,133
1034	2,653
1034,4	0,173
1034,9	1,413
1035,3	-6,147
1035,7	-0,347
1036,1	0,853
1036,5	0,373
1036,9	-1,307
1037,4	-1,307
1037,8	-14,747
1038,2	-13,787
1038,6	-11,427
1039	-14,467
1039,4	-7,747
1039,8	-2,387
1040,3	-6,227
1040,7	-7,347
1041,1	-2,507
1041,5	-2,307
1041,9	-0,307
1042,3	-0,827
1042,7	-1,147
1043,2	0,893
1043,6	-2,227
1044	0,333
1044,4	2,893
1044,8	-1,987
1045,2	-1,147
1045,6	2,693
1046,1	-0,627
1046,5	-4,227
1046,9	0,293
1047,3	-1,307
1047,7	-10,067
1048,1	-9,547
1048,5	-4,787
1049	-11,587
1049,4	-15,907
1049,8	-7,067
1050,2	-5,387
1050,6	-4,347
1051	3,093
1051,4	7,613
1051,9	6,773
1052,3	2,013
1052,7	-3,827
1053,1	-8,387
1053,5	-5,707
1053,9	-4,787
1054,3	-6,387
1054,8	-2,787
1055,2	-2,627
1055,6	-9,467
1056	-11,347
1056,4	-4,747
1056,8	-2,707
1057,2	2,333
1057,6	4,373
1058,1	5,293
1058,5	-0,787
1058,9	-1,347
1059,3	-1,987
1059,7	-2,467
1060,1	-0,107
1060,5	6,213
1061	3,133
1061,4	5,813
1061,8	6,893
1062,2	1,933
1062,6	-4,667
1063	-1,747
1063,4	-5,507
1063,8	-9,547
1064,3	-5,747
1064,7	-5,747
1065,1	-5,307
1065,5	-8,867
1065,9	-8,747
1066,3	-13,427
1066,7	-7,867
1067,1	-7,947
1067,6	-8,067
1068	-4,107
1068,4	1,333
1068,8	-7,787
1069,2	-11,267
1069,6	-10,147
1070	-5,387
1070,4	-6,027
1070,9	6,493
1071,3	7,613
1071,7	9,453
1072,1	2,253
1072,5	0,373
1072,9	-10,547
1073,3	-4,507
1073,7	-0,947
1074,2	0,733
1074,6	-1,787
1075	-3,667
1075,4	-7,907
1075,8	-5,547
1076,2	0,613
1076,6	2,973
1077	9,133
1077,5	6,613
1077,9	-1,267
1078,3	-11,067
1078,7	-13,067
1079,1	-10,067
1079,5	-6,507
1079,9	-3,307
1080,3	3,413
1080,7	11,893
1081,2	13,333
1081,6	16,533
1082	23,533
1082,4	18,493
1082,8	7,893
1083,2	2,733
1083,6	-3,747
1084	-10,667
1084,5	-9,387
1084,9	-0,547
1085,3	-0,387
1085,7	2,813
1086,1	-0,667
1086,5	1,693
1086,9	-3,307
1087,3	-7,387
1087,7	-8,827
1088,2	-5,307
1088,6	-4,707
1089	-7,707
1089,4	1,653
1089,8	0,733
1090,2	-0,387
1090,6	-4,867
1091	-3,107
1091,4	-10,707
1091,9	-13,667
1092,3	-17,187
1092,7	-14,147
1093,1	-10,867
1093,5	-8,947
1093,9	-6,227
1094,3	-1,467
1094,7	3,453
1095,1	3,653
1095,5	6,533
1096	5,253
1096,4	8,813
1096,8	3,573
1097,2	2,253
1097,6	-3,827
1098	-1,907
1098,4	-8,547
1098,8	-7,707
1099,2	-8,347
1099,6	0,013
1100,1	0,653
1100,5	4,133
1100,9	7,013
1101,3	3,013
1101,7	-0,747
1102,1	3,933
1102,5	3,453
1102,9	5,973
1103,3	9,973
1103,7	12,173
1104,2	8,333
1104,6	5,813
1105	0,053
1105,4	-1,347
1105,8	-3,587
1106,2	-4,147
1106,6	-2,187
1107	-1,987
1107,4	-0,227
1107,8	0,033
1108,3	0,333
