Data from Subt2_00018.txt Node
Date: Fri Aug 11 15:32:28 MSK 2023
User: vat
Spectrometer: MAYP114033
Trigger mode: 0
Integration Time (sec): 5,000000E-1
Scans to average: 5
Electric dark correction enabled: true
Nonlinearity correction enabled: false
Boxcar width: 2
XAxis mode: Wavelengths
Number of Pixels in Spectrum: 2068
>>>>>Begin Spectral Data<<<<<
199,4	-0,633
199,9	-0,567
200,4	-5,687
200,8	-11,647
201,3	-17,807
201,8	-22,327
202,2	-22,447
202,7	-22,087
203,2	-20,607
203,6	-21,647
204,1	-20,687
204,6	-28,567
205	-35,327
205,5	-43,167
206	-37,487
206,4	-42,087
206,9	-46,527
207,4	-44,967
207,8	-38,087
208,3	-41,087
208,8	-41,127
209,2	-37,807
209,7	-33,407
210,2	-37,447
210,6	-40,087
211,1	-39,207
211,5	-32,287
212	-32,807
212,5	-32,127
212,9	-36,127
213,4	-37,047
213,9	-41,287
214,3	-42,487
214,8	-42,927
215,3	-36,327
215,7	-36,607
216,2	-42,447
216,7	-46,247
217,1	-45,967
217,6	-46,927
218,1	-44,807
218,5	-41,607
219	-38,327
219,5	-39,247
219,9	-44,367
220,4	-42,367
220,9	-44,247
221,3	-40,327
221,8	-40,807
222,3	-37,487
222,7	-47,487
223,2	-41,007
223,6	-51,047
224,1	-45,087
224,6	-49,527
225	-41,607
225,5	-44,927
226	-35,967
226,4	-36,607
226,9	-32,247
227,4	-32,527
227,8	-31,727
228,3	-35,727
228,8	-36,567
229,2	-42,007
229,7	-47,527
230,2	-51,807
230,6	-52,207
231,1	-58,687
231,5	-57,727
232	-54,887
232,5	-51,687
232,9	-51,447
233,4	-49,167
233,9	-42,967
234,3	-47,287
234,8	-45,607
235,3	-48,567
235,7	-45,447
236,2	-51,167
236,7	-50,647
237,1	-52,607
237,6	-48,167
238,1	-52,967
238,5	-49,247
239	-46,287
239,4	-41,327
239,9	-40,327
240,4	-39,047
240,8	-42,687
241,3	-47,367
241,8	-53,567
242,2	-57,407
242,7	-55,887
243,2	-49,807
243,6	-47,207
244,1	-47,287
244,6	-46,127
245	-44,047
245,5	-46,527
245,9	-42,607
246,4	-45,847
246,9	-46,767
247,3	-50,407
247,8	-51,607
248,3	-47,727
248,7	-39,727
249,2	-34,567
249,7	-31,367
250,1	-29,927
250,6	-38,047
251	-39,927
251,5	-43,167
252	-41,807
252,4	-43,807
252,9	-39,287
253,4	-42,247
253,8	-46,767
254,3	-55,047
254,8	-55,807
255,2	-59,087
255,7	-55,367
256,1	-44,247
256,6	-38,447
257,1	-45,727
257,5	-42,567
258	-43,367
258,5	-44,207
258,9	-45,327
259,4	-37,527
259,9	-39,167
260,3	-40,367
260,8	-42,487
261,2	-44,327
261,7	-42,047
262,2	-43,647
262,6	-51,007
263,1	-57,887
263,6	-53,207
264	-55,927
264,5	-51,287
264,9	-44,687
265,4	-43,887
265,9	-41,967
266,3	-37,727
266,8	-35,807
267,3	-41,527
267,7	-38,407
268,2	-44,487
268,7	-45,127
269,1	-48,687
269,6	-43,487
270	-36,967
270,5	-34,327
271	-42,807
271,4	-41,567
271,9	-42,527
272,4	-48,927
272,8	-51,847
273,3	-45,967
273,7	-44,847
274,2	-44,047
274,7	-40,367
275,1	-33,487
275,6	-29,847
276,1	-33,847
276,5	-36,287
277	-38,847
277,4	-47,407
277,9	-53,967
278,4	-54,087
278,8	-52,527
279,3	-55,487
279,8	-50,927
280,2	-44,367
280,7	-50,007
281,1	-45,407
281,6	-44,087
282,1	-42,687
282,5	-53,607
283	-48,687
283,4	-51,487
283,9	-50,887
284,4	-53,927
284,8	-46,447
285,3	-40,687
285,8	-39,847
286,2	-44,527
286,7	-44,727
287,1	-44,167
287,6	-51,807
288,1	-53,807
288,5	-48,407
289	-47,447
289,5	-49,807
289,9	-43,127
290,4	-42,327
290,8	-40,407
291,3	-38,327
291,8	-35,647
292,2	-38,007
292,7	-37,567
293,1	-40,927
293,6	-45,687
294,1	-44,087
294,5	-48,007
295	-48,207
295,5	-46,407
295,9	-41,367
296,4	-47,567
296,8	-45,247
297,3	-39,887
297,8	-43,847
298,2	-42,087
298,7	-45,407
299,1	-43,047
299,6	-48,567
300,1	-44,647
300,5	-48,527
301	-38,127
301,5	-40,887
301,9	-42,567
302,4	-43,407
302,8	-45,007
303,3	-46,687
303,8	-49,967
304,2	-50,127
304,7	-59,647
305,1	-64,567
305,6	-68,127
306,1	-63,647
306,5	-66,607
307	-56,967
307,4	-48,447
307,9	-48,087
308,4	-47,287
308,8	-44,007
309,3	-47,687
309,8	-46,407
310,2	-41,767
310,7	-43,567
311,1	-40,367
311,6	-36,687
312,1	-40,287
312,5	-40,847
313	-40,967
313,4	-42,047
313,9	-44,607
314,4	-37,047
314,8	-42,367
315,3	-41,367
315,7	-45,087
316,2	-43,607
316,7	-51,607
317,1	-51,407
317,6	-55,647
318	-52,367
318,5	-54,447
319	-50,727
319,4	-55,367
319,9	-49,927
320,3	-48,647
320,8	-50,047
321,3	-53,247
321,7	-41,447
322,2	-37,207
322,6	-37,207
323,1	-34,447
323,6	-34,447
324	-40,487
324,5	-44,727
324,9	-46,087
325,4	-39,687
325,9	-37,567
326,3	-36,487
326,8	-29,487
327,2	-33,807
327,7	-39,127
328,2	-40,927
328,6	-39,407
329,1	-42,407
329,5	-36,567
330	-35,367
330,5	-30,367
330,9	-36,207
331,4	-41,687
331,8	-37,487
332,3	-40,367
332,8	-42,727
333,2	-44,487
333,7	-45,687
334,1	-49,767
334,6	-45,047
335,1	-46,847
335,5	-33,887
336	-35,487
336,4	-35,487
336,9	-44,527
337,4	-44,567
337,8	-53,287
338,3	-46,247
338,7	-43,687
339,2	-36,887
339,7	-37,087
340,1	-38,167
340,6	-40,687
341	-44,447
341,5	-45,367
342	-46,527
342,4	-43,047
342,9	-44,407
343,3	-48,567
343,8	-49,327
344,2	-52,287
344,7	-53,007
345,2	-49,807
345,6	-42,247
346,1	-42,847
346,5	-35,647
347	-34,407
347,5	-35,847
347,9	-35,767
348,4	-32,407
348,8	-30,767
349,3	-28,047
349,8	-30,527
350,2	-33,127
350,7	-34,727
351,1	-38,647
351,6	-42,007
352	-41,327
352,5	-34,527
353	-26,367
353,4	-23,167
353,9	-17,887
354,3	-14,247
354,8	-15,407
355,3	-12,127
355,7	-0,407
356,2	5,593
356,6	14,153
357,1	27,633
357,5	40,673
358	47,153
358,5	62,313
358,9	87,153
359,4	113,233
359,8	131,593
360,3	166,753
360,8	202,953
361,2	234,913
361,7	263,793
362,1	311,473
362,6	358,113
363	413,313
363,5	466,713
364	532,153
364,4	587,913
364,9	645,673
365,3	699,353
365,8	759,313
366,3	811,593
366,7	858,753
367,2	897,593
367,6	926,353
368,1	953,873
368,5	968,153
369	969,913
369,5	970,473
369,9	968,753
370,4	950,873
370,8	927,153
371,3	907,393
371,7	872,353
372,2	833,073
372,7	786,833
373,1	744,553
373,6	695,153
374	645,953
374,5	601,673
374,9	562,153
375,4	518,153
375,9	482,433
376,3	449,953
376,8	405,473
377,2	366,513
377,7	328,553
378,2	295,673
378,6	261,313
379,1	241,673
379,5	220,313
380	202,033
380,4	185,913
380,9	171,833
381,4	150,273
381,8	130,233
382,3	117,393
382,7	98,753
383,2	86,433
383,6	77,153
384,1	68,273
384,6	59,473
385	58,393
385,5	53,953
385,9	52,793
386,4	54,273
386,8	50,553
387,3	39,153
387,7	32,113
388,2	29,593
388,7	24,353
389,1	17,033
389,6	15,353
390	14,433
390,5	13,673
390,9	9,033
391,4	8,153
391,9	2,433
392,3	0,913
392,8	-5,047
393,2	-5,487
393,7	-8,687
394,1	-4,767
394,6	-10,687
395,1	-13,727
395,5	-18,847
396	-17,767
396,4	-21,447
396,9	-21,807
397,3	-24,407
397,8	-23,927
398,2	-20,207
398,7	-18,087
399,2	-21,887
399,6	-16,287
400,1	-13,927
400,5	-12,567
401	-13,527
401,4	-7,487
401,9	-8,407
402,4	-9,647
402,8	-17,847
403,3	-17,367
403,7	-22,047
404,2	-25,807
404,6	-26,687
405,1	-19,207
405,5	-19,607
406	-13,167
406,5	-11,807
406,9	-7,287
407,4	-9,687
407,8	-9,287
408,3	-8,007
408,7	-8,727
409,2	-2,127
409,6	0,353
410,1	-0,047
410,6	-5,847
411	-2,967
411,5	-7,727
411,9	-3,767
412,4	1,833
412,8	10,153
413,3	7,193
413,7	13,393
414,2	15,273
414,7	16,473
415,1	20,473
415,6	28,793
416	30,433
416,5	31,553
416,9	37,513
417,4	44,113
417,8	48,873
418,3	50,633
418,8	53,833
419,2	56,553
419,7	61,873
420,1	59,873
420,6	63,633
421	60,313
421,5	65,113
421,9	61,953
422,4	70,553
422,8	77,153
423,3	84,473
423,8	92,313
424,2	97,793
424,7	108,793
425,1	114,033
425,6	128,393
426	124,313
426,5	132,273
426,9	126,993
427,4	133,193
427,9	130,553
428,3	143,673
428,8	141,353
429,2	152,833
429,7	156,433
430,1	163,953
430,6	164,553
431	181,033
431,5	191,273
431,9	193,553
432,4	207,713
432,8	218,753
433,3	230,633
433,8	237,793
434,2	251,193
434,7	259,833
435,1	271,273
435,6	276,073
436	285,953
436,5	296,313
436,9	306,313
437,4	324,353
437,8	337,433
438,3	348,873
438,8	362,273
439,2	375,833
439,7	382,193
440,1	399,673
440,6	417,553
441	435,353
441,5	451,393
441,9	474,353
442,4	484,593
442,8	502,073
443,3	519,913
443,7	532,793
444,2	550,713
444,7	573,753
445,1	594,473
445,6	614,113
446	645,193
446,5	672,633
446,9	698,913
447,4	722,353
447,8	749,153
448,3	772,273
448,7	792,793
449,2	814,393
449,6	841,513
450,1	865,353
450,6	886,553
451	907,433
451,5	932,793
451,9	957,153
452,4	986,433
452,8	1015,553
453,3	1040,193
453,7	1067,753
454,2	1091,833
454,6	1116,513
455,1	1136,553
455,5	1171,633
456	1198,073
456,4	1227,753
456,9	1250,193
457,3	1286,593
457,8	1318,593
458,3	1354,273
458,7	1381,153
459,2	1415,993
459,6	1439,193
460,1	1461,433
460,5	1486,433
461	1521,873
461,4	1555,833
461,9	1590,433
462,3	1621,433
462,8	1660,353
463,2	1686,393
463,7	1711,393
464,1	1745,593
464,6	1780,593
465	1799,833
465,5	1827,513
466	1860,073
466,4	1889,873
466,9	1915,793
467,3	1946,833
467,8	1980,193
468,2	2010,553
468,7	2033,353
469,1	2054,153
469,6	2085,113
470	2106,593
470,5	2125,233
470,9	2153,153
471,4	2176,073
471,8	2193,553
472,3	2225,153
472,7	2249,273
473,2	2268,673
473,6	2298,793
474,1	2319,433
474,5	2337,873
475	2356,393
475,4	2374,753
475,9	2393,433
476,4	2414,913
476,8	2431,433
477,3	2453,993
477,7	2479,993
478,2	2494,993
478,6	2517,793
479,1	2534,473
479,5	2556,313
480	2568,673
480,4	2584,753
480,9	2592,953
481,3	2614,833
481,8	2625,873
482,2	2637,553
482,7	2645,913
483,1	2655,073
483,6	2653,553
484	2659,193
484,5	2665,993
484,9	2671,713
485,4	2677,273
485,8	2682,233
486,3	2683,273
486,7	2688,473
487,2	2691,513
487,6	2697,313
488,1	2708,593
488,5	2716,993
489	2722,313
489,4	2727,873
489,9	2725,153
490,4	2715,353
490,8	2710,913
491,3	2701,553
491,7	2698,673
492,2	2695,993
492,6	2699,753
493,1	2695,993
493,5	2690,673
494	2693,753
494,4	2683,513
494,9	2669,513
495,3	2670,513
495,8	2678,033
496,2	2671,433
496,7	2673,553
497,1	2673,073
497,6	2655,313
498	2636,673
498,5	2633,633
498,9	2629,553
499,4	2620,793
499,8	2616,353
500,3	2612,953
500,7	2587,313
501,2	2569,833
501,6	2559,033
502,1	2546,193
502,5	2532,393
503	2529,793
503,4	2519,553
503,9	2512,793
504,3	2508,953
504,8	2497,673
505,2	2485,833
505,7	2476,433
506,1	2462,353
506,6	2449,553
507	2430,233
507,5	2418,473
507,9	2409,273
508,4	2400,473
508,8	2392,633
509,3	2394,273
509,7	2379,473
510,2	2368,113
510,6	2353,153
511,1	2333,833
511,5	2321,393
512	2307,953
512,4	2299,593
512,9	2290,473
513,3	2277,433
513,8	2263,673
514,2	2253,593
514,7	2230,753
515,1	2218,953
515,6	2198,833
516	2182,153
516,5	2156,073
516,9	2146,873
517,4	2121,953
517,8	2118,473
518,3	2100,833
518,7	2100,393
519,2	2086,513
519,6	2081,953
520,1	2068,753
520,5	2057,673
521	2044,753
521,4	2024,913
521,9	2010,513
522,3	1990,233
522,8	1982,033
523,2	1963,713
523,7	1964,233
524,1	1950,113
524,6	1938,513
525	1924,153
525,5	1918,033
525,9	1899,673
526,4	1885,953
526,8	1871,833
527,3	1858,353
527,7	1844,313
528,2	1833,193
528,6	1825,353
529,1	1815,713
529,5	1801,833
530	1786,793
530,4	1781,553
530,9	1769,793
531,3	1762,473
531,8	1759,033
532,2	1750,913
532,6	1737,873
533,1	1727,633
533,5	1715,793
534	1699,713
534,4	1693,233
534,9	1680,593
535,3	1675,313
535,8	1669,193
536,2	1660,433
536,7	1649,953
537,1	1638,473
537,6	1622,153
538	1610,353
538,5	1601,553
538,9	1595,393
539,4	1591,513
539,8	1591,953
540,3	1582,633
540,7	1572,953
541,2	1560,393
541,6	1552,953
542,1	1543,473
542,5	1540,793
543	1538,513
543,4	1534,913
543,9	1526,313
544,3	1523,113
544,8	1517,953
545,2	1513,633
545,7	1505,873
546,1	1495,993
546,5	1489,153
547	1479,153
547,4	1466,593
547,9	1463,113
548,3	1461,113
548,8	1450,673
549,2	1446,193
549,7	1439,393
550,1	1432,473
550,6	1426,073
551	1414,233
551,5	1412,553
551,9	1410,793
552,4	1401,313
552,8	1394,553
553,3	1393,833
553,7	1384,313
554,2	1384,033
554,6	1385,873
555,1	1389,553
555,5	1388,073
555,9	1383,913
556,4	1373,473
556,8	1360,993
557,3	1350,553
557,7	1339,073
558,2	1341,633
558,6	1336,713
559,1	1335,553
559,5	1328,593
560	1326,433
560,4	1310,913
560,9	1309,033
561,3	1304,553
561,8	1296,393
562,2	1290,273
562,7	1287,593
563,1	1276,193
563,6	1270,313
564	1270,073
564,4	1269,673
564,9	1264,913
565,3	1260,793
565,8	1255,233
566,2	1243,713
566,7	1236,513
567,1	1231,273
567,6	1232,753
568	1233,553
568,5	1235,873
568,9	1227,433
569,4	1220,233
569,8	1212,913
570,3	1203,473
570,7	1197,193
571,1	1191,233
571,6	1191,033
572	1188,513
572,5	1185,433
572,9	1179,153
573,4	1177,633
573,8	1172,753
574,3	1166,353
574,7	1163,833
575,2	1164,193
575,6	1157,913
576,1	1153,313
576,5	1146,953
576,9	1143,633
577,4	1133,793
577,8	1130,113
578,3	1124,513
578,7	1118,313
579,2	1108,393
579,6	1105,073
580,1	1102,593
580,5	1100,513
581	1096,673
581,4	1094,793
581,9	1086,313
582,3	1079,713
582,7	1069,993
583,2	1064,353
583,6	1059,313
584,1	1055,753
584,5	1042,713
585	1033,153
585,4	1023,513
585,9	1018,433
586,3	1009,393
586,8	1012,433
587,2	1007,193
587,6	1010,833
588,1	1008,153
588,5	1008,953
589	1009,513
589,4	1013,913
589,9	1012,353
590,3	997,273
590,8	991,433
591,2	980,073
591,7	973,313
592,1	968,753
592,5	972,353
593	961,233
593,4	958,713
593,9	954,753
594,3	942,513
594,8	936,633
595,2	940,553
595,7	941,233
596,1	942,313
596,6	946,393
597	950,313
597,4	942,473
597,9	934,633
598,3	928,953
598,8	922,793
599,2	908,473
599,7	908,633
600,1	906,753
600,6	899,713
601	886,153
601,4	885,793
601,9	880,433
602,3	870,313
602,8	863,073
603,2	863,713
603,7	864,313
604,1	859,913
604,6	856,473
605	856,113
605,4	852,033
605,9	841,113
606,3	842,393
606,8	839,073
607,2	837,833
607,7	831,833
608,1	826,753
608,6	829,553
609	828,233
609,4	818,273
609,9	812,793
610,3	807,793
610,8	793,433
611,2	785,033
611,7	785,153
612,1	780,673
612,6	779,353
613	771,913
613,4	772,633
613,9	763,273
614,3	762,353
614,8	760,353
615,2	755,113
615,7	755,553
616,1	750,553
616,6	741,873
617	735,033
617,4	732,753
617,9	722,873
618,3	710,953
618,8	708,073
619,2	702,313
619,7	696,713
620,1	692,033
620,5	699,113
621	692,913
621,4	696,073
621,9	690,673
622,3	683,673
622,8	676,873
623,2	672,473
623,6	663,713
624,1	656,993
624,5	652,113
625	656,673
625,4	654,313
625,9	645,833
626,3	647,553
626,8	644,513
627,2	633,233
627,6	632,633
628,1	630,713
628,5	627,153
629	625,833
629,4	619,353
629,9	613,953
630,3	608,713
630,7	598,713
631,2	591,753
631,6	591,313
632,1	590,473
632,5	583,193
633	588,033
633,4	584,713
633,8	572,113
634,3	569,513
634,7	567,633
635,2	555,553
635,6	552,753
636,1	557,073
636,5	554,273
636,9	546,593
637,4	548,393
637,8	541,233
638,3	530,073
638,7	517,953
639,2	525,473
639,6	515,753
640	515,953
640,5	512,233
640,9	513,873
641,4	497,713
641,8	494,753
642,2	493,513
642,7	491,473
643,1	482,673
643,6	487,953
644	488,753
644,5	477,353
644,9	478,433
645,3	477,553
645,8	472,473
646,2	465,673
646,7	464,593
647,1	461,913
647,6	457,393
648	449,913
648,4	451,673
648,9	456,753
649,3	452,113
649,8	454,553
650,2	466,753
650,6	462,673
651,1	453,233
651,5	449,833
652	444,993
652,4	429,673
652,9	418,313
653,3	411,833
653,7	412,473
654,2	406,313
654,6	408,233
655,1	405,073
655,5	403,833
655,9	397,513
656,4	392,393
656,8	383,273
657,3	385,513
657,7	383,313
658,2	382,513
658,6	385,873
659	380,273
659,5	374,753
659,9	372,153
660,4	368,033
660,8	357,633
661,2	359,633
661,7	359,713
662,1	359,433
662,6	349,633
663	350,753
663,4	344,393
663,9	343,513
664,3	339,913
664,8	345,433
665,2	342,033
665,6	341,313
666,1	336,753
666,5	331,713
667	328,833
667,4	326,713
667,9	325,233
668,3	317,993
668,7	317,553
669,2	313,113
669,6	308,833
670,1	306,953
670,5	311,553
670,9	307,273
671,4	298,313
671,8	301,113
672,3	299,033
672,7	292,233
673,1	291,793
673,6	296,673
674	289,553
674,5	284,113
674,9	279,633
675,3	271,553
675,8	263,713
676,2	257,433
676,7	259,113
677,1	259,073
677,5	258,793
678	265,353
678,4	273,433
678,9	265,353
679,3	265,433
679,7	259,953
680,2	257,673
680,6	244,353
681,1	241,713
681,5	240,153
681,9	243,753
682,4	239,953
682,8	235,993
683,3	236,433
683,7	234,873
684,1	233,153
684,6	226,553
685	228,193
685,5	224,473
685,9	217,713
686,3	217,073
686,8	214,593
687,2	218,073
687,7	214,353
688,1	219,433
688,5	218,313
689	214,553
689,4	217,393
689,9	216,033
690,3	213,353
690,7	203,233
691,2	208,833
691,6	193,473
692	194,393
692,5	193,553
692,9	192,993
693,4	189,713
693,8	196,433
694,2	197,913
694,7	197,793
695,1	204,473
695,6	204,753
696	197,873
696,4	194,033
696,9	188,673
697,3	182,473
697,8	176,033
698,2	176,313
698,6	171,673
699,1	165,313
699,5	159,993
699,9	161,673
700,4	162,633
700,8	164,393
701,3	163,913
701,7	172,073
702,1	170,793
702,6	170,073
703	168,473
703,5	166,593
703,9	157,153
704,3	155,233
704,8	149,513
705,2	148,713
705,6	148,313
706,1	148,953
706,5	148,113
707	148,073
707,4	147,113
707,8	142,313
708,3	144,713
708,7	140,873
709,2	139,073
709,6	133,473
710	137,113
710,5	131,073
710,9	128,433
711,3	130,153
711,8	134,713
712,2	134,513
712,7	130,793
713,1	127,433
713,5	127,153
714	119,753
714,4	113,393
714,8	112,233
715,3	111,233
715,7	108,113
716,2	100,993
716,6	105,033
717	107,833
717,5	110,033
717,9	107,633
718,3	114,313
718,8	112,953
719,2	101,993
719,7	97,273
720,1	93,593
720,5	95,873
721	93,233
721,4	102,953
721,8	105,593
722,3	102,033
722,7	93,473
723,2	95,273
723,6	89,833
724	86,833
724,5	94,473
724,9	96,313
725,3	90,953
725,8	87,713
726,2	86,753
726,7	81,473
727,1	76,593
727,5	76,553
728	75,313
728,4	66,273
728,8	65,273
729,3	69,633
729,7	71,353
730,1	74,233
730,6	82,113
731	80,273
731,5	79,113
731,9	73,953
732,3	75,233
732,8	74,073
733,2	78,193
733,6	80,793
734,1	77,113
734,5	73,033
734,9	80,073
735,4	76,713
735,8	75,153
736,3	81,593
736,7	84,553
737,1	78,033
737,6	76,033
738	68,153
738,4	60,673
738,9	52,633
739,3	44,993
739,7	41,033
740,2	36,233
740,6	38,793
741,1	43,553
741,5	48,553
741,9	52,673
742,4	62,993
742,8	60,313
743,2	54,553
743,7	49,633
744,1	47,353
744,5	42,873
745	45,873
745,4	57,153
745,8	58,313
746,3	58,953
746,7	53,913
747,2	47,033
747,6	34,913
748	36,473
748,5	31,033
748,9	36,393
749,3	41,033
749,8	45,193
750,2	38,313
750,6	41,353
751,1	43,673
751,5	46,233
751,9	43,313
752,4	46,313
752,8	42,673
753,3	41,393
753,7	36,873
754,1	33,513
754,6	34,313
755	38,713
755,4	35,713
755,9	32,233
756,3	33,073
756,7	37,913
757,2	34,473
757,6	26,553
758	27,833
758,5	34,433
758,9	33,353
759,3	41,473
759,8	43,873
760,2	45,993
760,6	36,793
761,1	30,393
761,5	24,313
761,9	24,153
762,4	21,513
762,8	20,833
763,3	15,673
763,7	7,193
764,1	7,673
764,6	10,073
765	18,273
765,4	25,113
765,9	36,673
766,3	39,033
766,7	37,753
767,2	30,913
767,6	29,153
768	18,393
768,5	19,113
768,9	20,593
769,3	22,113
769,8	23,473
770,2	23,833
770,6	19,593
771,1	12,673
771,5	8,833
771,9	8,713
772,4	8,273
772,8	9,913
773,2	10,673
773,7	12,593
774,1	10,353
774,5	13,993
775	12,353
775,4	14,233
775,8	14,153
776,3	9,233
776,7	10,793
777,1	13,273
777,6	5,833
778	6,873
778,4	13,233
778,9	8,313
779,3	2,713
779,7	8,673
780,2	9,713
780,6	5,673
781	3,913
781,5	7,593
781,9	7,513
782,3	8,153
782,8	7,313
783,2	16,113
783,6	20,073
784,1	13,673
784,5	8,033
784,9	6,233
785,4	-1,527
785,8	-1,927
786,2	1,113
786,7	3,273
787,1	3,793
787,5	2,913
788	-3,527
788,4	-5,727
788,8	-9,367
789,3	-7,607
789,7	-8,047
790,1	-1,847
790,6	3,593
791	4,353
791,4	3,433
791,9	10,033
792,3	2,393
792,7	5,473
793,2	10,713
793,6	13,193
794	12,033
794,5	17,433
794,9	7,553
795,3	-2,047
795,8	-5,607
796,2	-16,247
796,6	-18,007
797,1	-12,647
797,5	-14,127
797,9	-12,847
798,4	-5,367
798,8	-6,407
799,2	-4,727
799,7	3,433
800,1	-1,247
800,5	-2,447
801	-8,527
801,4	-10,207
801,8	-7,207
802,2	-7,247
802,7	-7,447
803,1	-2,767
803,5	-3,287
804	-8,727
804,4	-7,327
804,8	-5,807
805,3	-3,087
805,7	-10,487
806,1	-9,887
806,6	-7,047
807	-12,607
807,4	-20,967
807,9	-13,047
808,3	-16,367
808,7	-17,647
809,2	-12,727
809,6	-10,527
810	-13,527
810,4	-11,407
810,9	-13,407
811,3	-17,487
811,7	-20,367
812,2	-14,927
812,6	-19,207
813	-18,687
813,5	-13,447
813,9	-5,607
814,3	-10,487
814,8	-3,367
815,2	-5,407
815,6	-10,207
816,1	-8,847
816,5	-12,727
816,9	-15,807
817,3	-15,247
817,8	-15,287
818,2	-21,167
818,6	-25,127
819,1	-26,687
819,5	-23,087
819,9	-22,567
820,4	-20,287
820,8	-13,367
821,2	-15,567
821,7	-19,847
822,1	-15,887
822,5	-20,887
822,9	-15,567
823,4	-17,527
823,8	-18,487
824,2	-20,447
824,7	-16,887
825,1	-21,967
825,5	-16,087
826	-10,647
826,4	-13,207
826,8	-17,487
827,3	-14,807
827,7	-15,407
828,1	-15,607
828,5	-20,567
829	-15,927
829,4	-17,527
829,8	-19,847
830,3	-25,967
830,7	-24,727
831,1	-24,887
831,6	-29,327
832	-32,607
832,4	-28,127
832,8	-25,487
833,3	-28,727
833,7	-25,927
834,1	-28,007
834,6	-32,447
835	-37,207
835,4	-37,327
835,8	-35,327
836,3	-27,247
836,7	-22,647
837,1	-23,087
837,6	-23,287
838	-25,047
838,4	-34,047
838,9	-38,767
839,3	-34,247
839,7	-33,527
840,1	-41,367
840,6	-39,487
841	-36,527
841,4	-35,927
841,9	-38,207
842,3	-32,007
842,7	-28,727
843,1	-28,367
843,6	-29,087
844	-29,167
844,4	-31,047
844,9	-31,367
845,3	-29,247
845,7	-27,647
846,2	-26,327
846,6	-19,567
847	-18,047
847,4	-25,687
847,9	-25,527
848,3	-27,287
848,7	-27,367
849,2	-30,767
849,6	-27,327
850	-26,327
850,4	-20,287
850,9	-28,527
851,3	-22,127
851,7	-26,727
852,2	-24,967
852,6	-31,367
853	-24,447
853,4	-32,327
853,9	-30,727
854,3	-36,927
854,7	-30,927
855,2	-36,087
855,6	-32,207
856	-30,247
856,4	-28,847
856,9	-29,367
857,3	-28,807
857,7	-27,567
858,2	-22,367
858,6	-25,807
859	-26,647
859,4	-31,607
859,9	-34,607
860,3	-39,767
860,7	-29,727
861,1	-36,167
861,6	-28,447
862	-28,447
862,4	-26,687
862,9	-32,927
863,3	-25,887
863,7	-27,727
864,1	-30,087
864,6	-28,247
865	-30,407
865,4	-29,567
865,9	-31,567
866,3	-31,687
866,7	-36,487
867,1	-36,767
867,6	-40,647
868	-41,487
868,4	-41,207
868,8	-39,447
869,3	-43,087
869,7	-42,167
870,1	-42,207
870,6	-37,167
871	-34,087
871,4	-32,207
871,8	-34,567
872,3	-34,647
872,7	-33,167
873,1	-35,967
873,5	-34,527
874	-39,207
874,4	-37,407
874,8	-43,127
875,3	-41,407
875,7	-38,447
876,1	-32,887
876,5	-32,407
877	-36,447
877,4	-37,007
877,8	-32,887
878,2	-30,487
878,7	-34,687
879,1	-29,607
879,5	-26,807
879,9	-30,567
880,4	-35,527
880,8	-35,887
881,2	-38,207
881,7	-40,447
882,1	-37,167
882,5	-36,487
882,9	-28,247
883,4	-23,447
883,8	-26,687
884,2	-34,447
884,6	-39,887
885,1	-45,487
885,5	-49,047
885,9	-46,127
886,3	-47,487
886,8	-40,367
887,2	-42,527
887,6	-43,487
888	-48,327
888,5	-41,967
888,9	-40,207
889,3	-39,687
889,8	-37,167
890,2	-32,327
890,6	-32,407
891	-30,367
891,5	-23,527
891,9	-21,287
892,3	-18,367
892,7	-17,007
893,2	-22,167
893,6	-23,087
894	-26,007
894,4	-32,447
894,9	-34,647
895,3	-33,847
895,7	-41,047
896,1	-39,327
896,6	-39,887
897	-36,367
897,4	-34,767
897,8	-30,367
898,3	-31,167
898,7	-29,447
899,1	-33,087
899,5	-27,927
900	-31,847
900,4	-34,047
900,8	-34,167
901,2	-35,007
901,7	-40,967
902,1	-41,007
902,5	-40,847
902,9	-38,167
903,4	-40,607
903,8	-45,367
904,2	-45,527
904,6	-40,847
905,1	-40,407
905,5	-38,487
905,9	-34,367
906,3	-28,687
906,8	-33,887
907,2	-33,967
907,6	-36,807
908	-38,367
908,5	-40,407
908,9	-41,087
909,3	-44,327
909,7	-41,687
910,2	-38,567
910,6	-39,647
911	-33,167
911,4	-31,887
911,9	-34,247
912,3	-33,807
912,7	-35,847
913,1	-41,367
913,6	-48,367
914	-48,207
914,4	-48,887
914,8	-41,967
915,3	-39,287
915,7	-36,487
916,1	-32,967
916,5	-32,647
916,9	-38,887
917,4	-45,007
917,8	-41,727
918,2	-43,127
918,6	-41,727
919,1	-39,327
919,5	-37,007
919,9	-38,647
920,3	-41,007
920,8	-51,687
921,2	-50,767
921,6	-51,647
922	-52,647
922,5	-51,927
922,9	-51,727
923,3	-47,807
923,7	-41,887
924,2	-46,087
924,6	-46,487
925	-31,407
925,4	-40,847
925,8	-39,367
926,3	-37,047
926,7	-35,007
927,1	-39,127
927,5	-36,727
928	-38,727
928,4	-34,167
928,8	-32,327
929,2	-35,407
929,7	-30,247
930,1	-31,727
930,5	-34,687
930,9	-36,407
931,3	-35,327
931,8	-42,767
932,2	-41,567
932,6	-42,847
933	-41,967
933,5	-43,127
933,9	-41,527
934,3	-43,007
934,7	-39,767
935,2	-41,167
935,6	-40,807
936	-40,807
936,4	-45,327
936,8	-42,967
937,3	-43,367
937,7	-49,007
938,1	-45,607
938,5	-40,527
939	-40,047
939,4	-38,087
939,8	-37,247
940,2	-41,047
940,6	-41,767
941,1	-45,087
941,5	-47,087
941,9	-44,087
942,3	-41,687
942,8	-49,007
943,2	-50,727
943,6	-53,367
944	-52,767
944,4	-55,567
944,9	-50,327
945,3	-49,287
945,7	-51,367
946,1	-49,407
946,6	-49,167
947	-41,127
947,4	-44,167
947,8	-43,607
948,2	-47,287
948,7	-39,327
949,1	-44,527
949,5	-45,167
949,9	-34,447
950,3	-35,327
950,8	-36,607
951,2	-37,447
951,6	-36,287
952	-43,127
952,5	-43,127
952,9	-46,487
953,3	-48,487
953,7	-44,327
954,1	-42,207
954,6	-39,327
955	-42,647
955,4	-44,567
955,8	-39,487
956,2	-44,047
956,7	-43,167
957,1	-38,167
957,5	-32,567
957,9	-42,047
958,3	-41,927
958,8	-43,927
959,2	-46,927
959,6	-53,807
960	-54,127
960,5	-53,287
960,9	-52,407
961,3	-53,727
961,7	-51,767
962,1	-48,207
962,6	-46,447
963	-51,327
963,4	-51,167
963,8	-52,047
964,2	-51,727
964,7	-54,367
965,1	-50,367
965,5	-50,567
965,9	-50,127
966,3	-51,447
966,8	-46,487
967,2	-46,767
967,6	-47,207
968	-40,567
968,4	-36,247
968,9	-41,767
969,3	-46,167
969,7	-48,327
970,1	-56,007
970,5	-55,967
971	-54,167
971,4	-50,487
971,8	-44,367
972,2	-35,567
972,6	-38,807
973,1	-36,687
973,5	-35,207
973,9	-37,287
974,3	-43,647
974,7	-40,407
975,2	-41,007
975,6	-43,407
976	-39,087
976,4	-36,127
976,8	-44,407
977,3	-49,447
977,7	-46,687
978,1	-51,327
978,5	-53,687
978,9	-49,647
979,4	-44,567
979,8	-44,487
980,2	-39,127
980,6	-36,607
981	-34,807
981,5	-38,687
981,9	-37,047
982,3	-44,407
982,7	-42,287
983,1	-45,047
983,6	-36,007
984	-37,847
984,4	-37,247
984,8	-35,287
985,2	-35,247
985,6	-43,727
986,1	-42,967
986,5	-37,967
986,9	-44,767
987,3	-44,567
987,7	-41,567
988,2	-39,847
988,6	-39,247
989	-37,007
989,4	-40,247
989,8	-43,727
990,3	-48,927
990,7	-55,047
991,1	-58,087
991,5	-52,207
991,9	-49,047
992,3	-44,487
992,8	-40,047
993,2	-38,087
993,6	-38,847
994	-40,167
994,4	-39,367
994,9	-42,247
995,3	-41,247
995,7	-45,527
996,1	-42,847
996,5	-47,447
996,9	-45,247
997,4	-48,007
997,8	-43,287
998,2	-43,687
998,6	-40,487
999	-44,887
999,5	-48,007
999,9	-53,047
1000,3	-53,487
1000,7	-55,847
1001,1	-52,087
1001,5	-46,247
1002	-38,167
1002,4	-39,767
1002,8	-39,127
1003,2	-40,687
1003,6	-38,927
1004	-47,687
1004,5	-46,087
1004,9	-44,127
1005,3	-45,167
1005,7	-49,207
1006,1	-38,647
1006,6	-39,487
1007	-38,647
1007,4	-39,687
1007,8	-38,007
1008,2	-43,887
1008,6	-46,927
1009,1	-49,487
1009,5	-45,767
1009,9	-48,607
1010,3	-48,207
1010,7	-43,647
1011,1	-45,807
1011,6	-50,487
1012	-49,487
1012,4	-49,607
1012,8	-56,327
1013,2	-46,207
1013,6	-43,927
1014,1	-44,767
1014,5	-45,767
1014,9	-38,447
1015,3	-44,047
1015,7	-41,647
1016,1	-39,527
1016,6	-33,247
1017	-37,247
1017,4	-40,447
1017,8	-40,687
1018,2	-43,887
1018,6	-45,247
1019,1	-42,567
1019,5	-40,407
1019,9	-44,487
1020,3	-40,367
1020,7	-43,047
1021,1	-47,847
1021,6	-49,887
1022	-48,007
1022,4	-48,487
1022,8	-48,487
1023,2	-46,287
1023,6	-46,567
1024,1	-51,087
1024,5	-55,327
1024,9	-60,007
1025,3	-58,887
1025,7	-57,847
1026,1	-54,207
1026,6	-44,487
1027	-41,807
1027,4	-46,567
1027,8	-50,487
1028,2	-46,607
1028,6	-54,007
1029	-51,407
1029,5	-48,927
1029,9	-39,927
1030,3	-45,567
1030,7	-45,767
1031,1	-50,527
1031,5	-47,487
1032	-57,567
1032,4	-58,287
1032,8	-61,087
1033,2	-60,087
1033,6	-57,567
1034	-51,847
1034,4	-51,127
1034,9	-48,807
1035,3	-46,407
1035,7	-51,367
1036,1	-51,287
1036,5	-47,367
1036,9	-46,127
1037,4	-47,407
1037,8	-46,487
1038,2	-50,207
1038,6	-49,647
1039	-50,967
1039,4	-49,567
1039,8	-47,607
1040,3	-43,847
1040,7	-41,327
1041,1	-41,207
1041,5	-41,807
1041,9	-44,087
1042,3	-49,207
1042,7	-50,287
1043,2	-50,647
1043,6	-47,647
1044	-48,967
1044,4	-44,447
1044,8	-49,687
1045,2	-51,567
1045,6	-61,367
1046,1	-55,527
1046,5	-60,687
1046,9	-53,967
1047,3	-48,207
1047,7	-42,047
1048,1	-46,647
1048,5	-45,767
1049	-47,487
1049,4	-48,287
1049,8	-49,767
1050,2	-50,687
1050,6	-48,127
1051	-56,207
1051,4	-58,687
1051,9	-61,407
1052,3	-66,287
1052,7	-69,727
1053,1	-69,807
1053,5	-70,967
1053,9	-65,167
1054,3	-58,087
1054,8	-52,607
1055,2	-47,807
1055,6	-45,247
1056	-48,007
1056,4	-46,887
1056,8	-44,687
1057,2	-47,687
1057,6	-54,967
1058,1	-56,127
1058,5	-58,007
1058,9	-62,767
1059,3	-61,447
1059,7	-54,607
1060,1	-56,407
1060,5	-54,127
1061	-50,327
1061,4	-44,487
1061,8	-43,047
1062,2	-39,327
1062,6	-36,967
1063	-40,007
1063,4	-42,727
1063,8	-50,687
1064,3	-48,447
1064,7	-52,447
1065,1	-54,207
1065,5	-56,727
1065,9	-49,767
1066,3	-51,407
1066,7	-55,767
1067,1	-55,647
1067,6	-51,727
1068	-51,807
1068,4	-55,887
1068,8	-51,487
1069,2	-50,647
1069,6	-50,687
1070	-50,927
1070,4	-48,367
1070,9	-45,087
1071,3	-45,607
1071,7	-43,407
1072,1	-42,407
1072,5	-42,847
1072,9	-47,327
1073,3	-40,527
1073,7	-42,727
1074,2	-51,447
1074,6	-42,647
1075	-46,287
1075,4	-49,527
1075,8	-57,167
1076,2	-51,407
1076,6	-56,207
1077	-50,127
1077,5	-52,607
1077,9	-45,127
1078,3	-37,007
1078,7	-36,567
1079,1	-36,047
1079,5	-35,687
1079,9	-38,287
1080,3	-39,407
1080,7	-42,167
1081,2	-40,807
1081,6	-42,287
1082	-39,047
1082,4	-42,207
1082,8	-39,767
1083,2	-44,927
1083,6	-39,687
1084	-44,407
1084,5	-44,647
1084,9	-54,767
1085,3	-46,207
1085,7	-52,407
1086,1	-49,367
1086,5	-51,207
1086,9	-40,447
1087,3	-48,807
1087,7	-39,247
1088,2	-40,007
1088,6	-34,287
1089	-34,647
1089,4	-28,567
1089,8	-32,967
1090,2	-34,087
1090,6	-36,647
1091	-36,807
1091,4	-41,887
1091,9	-48,167
1092,3	-45,967
1092,7	-46,327
1093,1	-46,607
1093,5	-41,607
1093,9	-38,767
1094,3	-40,847
1094,7	-42,887
1095,1	-44,287
1095,5	-47,887
1096	-45,927
1096,4	-40,447
1096,8	-39,847
1097,2	-42,127
1097,6	-36,967
1098	-37,087
1098,4	-37,287
1098,8	-38,327
1099,2	-35,727
1099,6	-33,647
1100,1	-27,847
1100,5	-27,407
1100,9	-23,887
1101,3	-20,087
1101,7	-24,967
1102,1	-29,887
1102,5	-31,527
1102,9	-31,567
1103,3	-35,407
1103,7	-33,927
1104,2	-30,607
1104,6	-33,927
1105	-34,367
1105,4	-30,167
1105,8	-27,407
1106,2	-23,687
1106,6	-13,527
1107	-6,687
1107,4	-2,647
1107,8	-0,117
1108,3	1,367
