Data from Subt2_00062.txt Node
Date: Fri Aug 11 16:21:37 MSK 2023
User: vat
Spectrometer: MAYP114033
Trigger mode: 0
Integration Time (sec): 5,000000E-1
Scans to average: 5
Electric dark correction enabled: true
Nonlinearity correction enabled: false
Boxcar width: 2
XAxis mode: Wavelengths
Number of Pixels in Spectrum: 2068
>>>>>Begin Spectral Data<<<<<
199,4	-0,367
199,9	-0,067
200,4	-5,447
200,8	-10,447
201,3	-18,287
201,8	-23,607
202,2	-26,567
202,7	-26,407
203,2	-25,167
203,6	-21,167
204,1	-21,367
204,6	-25,487
205	-25,047
205,5	-26,847
206	-26,527
206,4	-26,007
206,9	-23,247
207,4	-25,327
207,8	-24,567
208,3	-26,967
208,8	-30,847
209,2	-32,247
209,7	-35,047
210,2	-36,887
210,6	-42,287
211,1	-42,327
211,5	-42,007
212	-38,807
212,5	-38,287
212,9	-32,247
213,4	-34,927
213,9	-34,887
214,3	-34,167
214,8	-35,247
215,3	-36,967
215,7	-31,687
216,2	-30,527
216,7	-38,407
217,1	-37,447
217,6	-35,007
218,1	-40,287
218,5	-44,967
219	-32,687
219,5	-32,967
219,9	-35,727
220,4	-29,327
220,9	-29,647
221,3	-32,087
221,8	-30,287
222,3	-33,527
222,7	-34,007
223,2	-31,447
223,6	-37,287
224,1	-38,047
224,6	-32,327
225	-36,847
225,5	-31,327
226	-24,927
226,4	-27,047
226,9	-30,767
227,4	-27,167
227,8	-30,327
228,3	-35,407
228,8	-37,087
229,2	-33,567
229,7	-43,287
230,2	-47,047
230,6	-52,087
231,1	-52,367
231,5	-54,367
232	-43,967
232,5	-39,007
232,9	-34,487
233,4	-33,127
233,9	-39,047
234,3	-36,567
234,8	-37,127
235,3	-40,047
235,7	-36,087
236,2	-30,207
236,7	-35,607
237,1	-41,767
237,6	-35,607
238,1	-36,887
238,5	-38,247
239	-36,967
239,4	-33,247
239,9	-33,247
240,4	-32,127
240,8	-33,567
241,3	-33,607
241,8	-33,167
242,2	-30,847
242,7	-33,807
243,2	-27,047
243,6	-26,087
244,1	-27,847
244,6	-35,007
245	-31,287
245,5	-34,167
245,9	-38,167
246,4	-34,607
246,9	-32,207
247,3	-36,567
247,8	-37,007
248,3	-30,087
248,7	-36,247
249,2	-43,647
249,7	-42,207
250,1	-42,447
250,6	-45,247
251	-43,767
251,5	-37,447
252	-43,127
252,4	-44,407
252,9	-43,687
253,4	-45,207
253,8	-41,887
254,3	-35,327
254,8	-36,567
255,2	-34,967
255,7	-28,967
256,1	-34,167
256,6	-36,367
257,1	-38,407
257,5	-41,647
258	-48,407
258,5	-46,447
258,9	-43,327
259,4	-36,167
259,9	-38,567
260,3	-37,927
260,8	-30,007
261,2	-30,607
261,7	-28,127
262,2	-27,007
262,6	-22,647
263,1	-24,047
263,6	-23,567
264	-30,007
264,5	-29,247
264,9	-28,527
265,4	-34,527
265,9	-35,887
266,3	-31,927
266,8	-31,567
267,3	-36,847
267,7	-36,127
268,2	-32,127
268,7	-35,127
269,1	-32,967
269,6	-35,487
270	-36,767
270,5	-45,647
271	-47,807
271,4	-47,727
271,9	-44,967
272,4	-43,487
272,8	-42,607
273,3	-44,447
273,7	-44,287
274,2	-37,287
274,7	-37,847
275,1	-32,167
275,6	-31,847
276,1	-32,607
276,5	-34,327
277	-32,007
277,4	-35,647
277,9	-33,247
278,4	-34,527
278,8	-39,967
279,3	-40,527
279,8	-43,767
280,2	-43,567
280,7	-44,487
281,1	-44,367
281,6	-43,047
282,1	-31,447
282,5	-31,287
283	-30,247
283,4	-31,607
283,9	-31,287
284,4	-41,167
284,8	-38,047
285,3	-38,047
285,8	-33,127
286,2	-35,887
286,7	-33,567
287,1	-39,527
287,6	-41,847
288,1	-40,767
288,5	-35,407
289	-37,847
289,5	-37,967
289,9	-37,927
290,4	-42,207
290,8	-43,767
291,3	-38,727
291,8	-35,567
292,2	-34,607
292,7	-29,807
293,1	-33,967
293,6	-36,047
294,1	-33,647
294,5	-38,647
295	-37,247
295,5	-33,167
295,9	-32,127
296,4	-38,327
296,8	-31,887
297,3	-34,687
297,8	-39,407
298,2	-45,487
298,7	-42,567
299,1	-42,727
299,6	-39,567
300,1	-37,087
300,5	-32,407
301	-29,567
301,5	-31,327
301,9	-34,087
302,4	-38,127
302,8	-40,607
303,3	-40,567
303,8	-42,207
304,2	-45,647
304,7	-40,167
305,1	-35,047
305,6	-37,167
306,1	-32,047
306,5	-32,607
307	-32,007
307,4	-33,367
307,9	-31,687
308,4	-34,047
308,8	-25,967
309,3	-26,567
309,8	-25,607
310,2	-26,047
310,7	-28,447
311,1	-36,687
311,6	-38,727
312,1	-37,727
312,5	-40,967
313	-41,767
313,4	-41,367
313,9	-42,487
314,4	-43,207
314,8	-43,007
315,3	-40,087
315,7	-40,847
316,2	-40,647
316,7	-42,327
317,1	-44,407
317,6	-46,527
318	-42,567
318,5	-41,367
319	-44,367
319,4	-47,767
319,9	-44,647
320,3	-45,687
320,8	-43,687
321,3	-44,607
321,7	-37,527
322,2	-38,887
322,6	-41,007
323,1	-51,007
323,6	-51,127
324	-49,407
324,5	-54,967
324,9	-52,047
325,4	-39,687
325,9	-32,967
326,3	-27,887
326,8	-23,607
327,2	-27,727
327,7	-34,767
328,2	-39,047
328,6	-43,647
329,1	-44,287
329,5	-37,087
330	-34,127
330,5	-37,607
330,9	-39,487
331,4	-37,967
331,8	-46,527
332,3	-46,527
332,8	-43,647
333,2	-48,647
333,7	-47,967
334,1	-39,847
334,6	-42,687
335,1	-41,607
335,5	-34,407
336	-34,927
336,4	-36,527
336,9	-38,167
337,4	-36,967
337,8	-36,727
338,3	-35,167
338,7	-34,647
339,2	-33,607
339,7	-31,887
340,1	-37,607
340,6	-38,607
341	-39,847
341,5	-38,487
342	-36,167
342,4	-30,647
342,9	-31,767
343,3	-34,847
343,8	-35,087
344,2	-36,967
344,7	-40,927
345,2	-40,247
345,6	-39,287
346,1	-35,767
346,5	-37,687
347	-40,847
347,5	-42,487
347,9	-38,527
348,4	-37,847
348,8	-37,567
349,3	-35,767
349,8	-33,567
350,2	-32,487
350,7	-34,047
351,1	-38,007
351,6	-31,527
352	-30,647
352,5	-28,607
353	-28,367
353,4	-21,527
353,9	-14,807
354,3	-7,287
354,8	-6,607
355,3	4,873
355,7	13,113
356,2	9,513
356,6	16,193
357,1	28,873
357,5	39,913
358	52,193
358,5	80,033
358,9	102,313
359,4	125,593
359,8	147,353
360,3	182,273
360,8	210,513
361,2	244,593
361,7	283,233
362,1	329,553
362,6	374,393
363	422,113
363,5	475,313
364	530,793
364,4	589,513
364,9	645,753
365,3	707,953
365,8	763,433
366,3	820,313
366,7	865,993
367,2	911,513
367,6	943,873
368,1	974,073
368,5	985,673
369	996,553
369,5	994,593
369,9	990,953
370,4	974,353
370,8	961,033
371,3	934,353
371,7	899,233
372,2	864,193
372,7	821,993
373,1	774,873
373,6	728,233
374	683,553
374,5	635,513
374,9	589,993
375,4	543,753
375,9	501,873
376,3	458,273
376,8	419,793
377,2	388,753
377,7	356,113
378,2	322,153
378,6	294,193
379,1	262,953
379,5	230,513
380	202,673
380,4	183,633
380,9	161,753
381,4	148,713
381,8	138,233
382,3	132,353
382,7	118,993
383,2	110,553
383,6	99,953
384,1	86,993
384,6	72,473
385	61,873
385,5	61,273
385,9	53,393
386,4	43,273
386,8	37,473
387,3	35,513
387,7	27,513
388,2	20,153
388,7	24,233
389,1	20,113
389,6	16,113
390	8,073
390,5	8,113
390,9	0,433
391,4	-1,527
391,9	-3,727
392,3	-1,367
392,8	-2,167
393,2	-1,487
393,7	0,353
394,1	-1,087
394,6	-4,167
395,1	-6,287
395,5	-9,287
396	-14,967
396,4	-23,487
396,9	-24,687
397,3	-24,447
397,8	-23,647
398,2	-20,647
398,7	-16,687
399,2	-14,727
399,6	-19,407
400,1	-14,927
400,5	-18,047
401	-17,967
401,4	-24,847
401,9	-23,367
402,4	-30,807
402,8	-29,287
403,3	-30,367
403,7	-23,287
404,2	-20,687
404,6	-22,167
405,1	-21,727
405,5	-17,487
406	-18,367
406,5	-23,847
406,9	-20,047
407,4	-18,127
407,8	-17,527
408,3	-14,967
408,7	-10,767
409,2	-8,567
409,6	-14,047
410,1	-13,527
410,6	-8,767
411	-12,407
411,5	-11,127
411,9	5,793
412,4	15,153
412,8	9,113
413,3	13,833
413,7	24,393
414,2	19,433
414,7	18,793
415,1	28,913
415,6	34,193
416	39,793
416,5	40,593
416,9	47,713
417,4	48,473
417,8	53,273
418,3	49,553
418,8	59,673
419,2	61,673
419,7	73,073
420,1	82,313
420,6	86,473
421	90,393
421,5	93,753
421,9	96,553
422,4	105,713
422,8	116,913
423,3	123,473
423,8	130,993
424,2	141,753
424,7	148,353
425,1	157,753
425,6	166,913
426	176,753
426,5	186,633
426,9	199,513
427,4	209,633
427,9	224,513
428,3	236,833
428,8	245,473
429,2	263,353
429,7	280,993
430,1	296,833
430,6	317,753
431	336,033
431,5	352,313
431,9	365,433
432,4	389,513
432,8	412,913
433,3	433,593
433,8	452,593
434,2	479,633
434,7	495,193
435,1	517,993
435,6	548,073
436	577,073
436,5	604,273
436,9	629,633
437,4	668,113
437,8	698,673
438,3	733,873
438,8	767,433
439,2	810,313
439,7	842,873
440,1	880,793
440,6	913,553
441	962,993
441,5	1009,033
441,9	1052,153
442,4	1100,233
442,8	1157,633
443,3	1207,353
443,7	1259,113
444,2	1319,753
444,7	1376,473
445,1	1438,673
445,6	1496,633
446	1550,873
446,5	1612,193
446,9	1677,993
447,4	1732,993
447,8	1796,033
448,3	1872,113
448,7	1935,313
449,2	2007,033
449,6	2086,513
450,1	2164,753
450,6	2245,233
451	2325,153
451,5	2409,313
451,9	2485,673
452,4	2557,513
452,8	2636,153
453,3	2718,113
453,7	2804,033
454,2	2900,193
454,6	3005,193
455,1	3101,593
455,5	3204,513
456	3293,793
456,4	3376,793
456,9	3470,593
457,3	3569,153
457,8	3672,553
458,3	3775,033
458,7	3891,073
459,2	3999,913
459,6	4113,033
460,1	4219,633
460,5	4331,673
461	4439,153
461,4	4548,473
461,9	4658,713
462,3	4770,553
462,8	4886,753
463,2	5006,873
463,7	5121,233
464,1	5233,593
464,6	5351,273
465	5462,433
465,5	5581,313
466	5701,113
466,4	5810,793
466,9	5927,113
467,3	6046,033
467,8	6157,953
468,2	6270,913
468,7	6385,273
469,1	6494,513
469,6	6594,593
470	6699,433
470,5	6808,713
470,9	6921,993
471,4	7019,153
471,8	7141,913
472,3	7253,313
472,7	7361,753
473,2	7469,953
473,6	7577,673
474,1	7674,353
474,5	7763,593
475	7863,833
475,4	7960,073
475,9	8055,313
476,4	8147,753
476,8	8243,673
477,3	8330,833
477,7	8414,393
478,2	8493,393
478,6	8566,553
479,1	8643,313
479,5	8700,753
480	8760,513
480,4	8823,993
480,9	8892,353
481,3	8954,953
481,8	9022,193
482,2	9085,153
482,7	9149,993
483,1	9194,553
483,6	9233,393
484	9283,553
484,5	9321,993
484,9	9363,913
485,4	9405,673
485,8	9448,433
486,3	9469,393
486,7	9504,873
487,2	9519,953
487,6	9537,793
488,1	9562,393
488,5	9584,393
489	9590,753
489,4	9605,553
489,9	9618,993
490,4	9615,513
490,8	9599,673
491,3	9594,273
491,7	9579,873
492,2	9562,633
492,6	9538,873
493,1	9533,153
493,5	9509,753
494	9485,033
494,4	9452,553
494,9	9417,593
495,3	9377,113
495,8	9341,433
496,2	9316,833
496,7	9287,193
497,1	9261,073
497,6	9228,833
498	9193,073
498,5	9134,593
498,9	9093,793
499,4	9051,713
499,8	9019,633
500,3	8963,033
500,7	8926,153
501,2	8886,193
501,6	8836,713
502,1	8777,073
502,5	8742,913
503	8694,313
503,4	8631,033
503,9	8573,393
504,3	8504,273
504,8	8451,393
505,2	8376,513
505,7	8306,993
506,1	8248,313
506,6	8195,793
507	8119,193
507,5	8066,433
507,9	8003,873
508,4	7921,553
508,8	7852,153
509,3	7782,393
509,7	7697,873
510,2	7637,993
510,6	7580,393
511,1	7500,673
511,5	7428,353
512	7349,673
512,4	7273,553
512,9	7202,553
513,3	7141,833
513,8	7064,393
514,2	7004,673
514,7	6923,393
515,1	6842,713
515,6	6769,473
516	6703,393
516,5	6638,553
516,9	6573,593
517,4	6507,393
517,8	6434,553
518,3	6371,713
518,7	6296,273
519,2	6225,553
519,6	6149,593
520,1	6084,153
520,5	6012,273
521	5955,593
521,4	5886,873
521,9	5820,713
522,3	5742,953
522,8	5673,833
523,2	5595,153
523,7	5532,073
524,1	5485,193
524,6	5429,393
525	5370,073
525,5	5314,433
525,9	5260,553
526,4	5199,633
526,8	5139,753
527,3	5082,033
527,7	5028,153
528,2	4963,273
528,6	4894,153
529,1	4846,033
529,5	4794,113
530	4740,713
530,4	4689,593
530,9	4642,033
531,3	4583,753
531,8	4528,753
532,2	4477,073
532,6	4425,713
533,1	4378,833
533,5	4327,313
534	4277,393
534,4	4230,073
534,9	4188,113
535,3	4140,873
535,8	4100,553
536,2	4053,993
536,7	4011,753
537,1	3959,953
537,6	3921,153
538	3879,233
538,5	3851,393
538,9	3807,833
539,4	3768,913
539,8	3723,873
540,3	3686,033
540,7	3636,753
541,2	3594,153
541,6	3561,793
542,1	3517,233
542,5	3471,793
543	3425,113
543,4	3395,433
543,9	3354,193
544,3	3323,033
544,8	3295,193
545,2	3259,953
545,7	3216,313
546,1	3185,033
546,5	3151,073
547	3114,553
547,4	3088,513
547,9	3060,233
548,3	3029,873
548,8	3002,033
549,2	2981,633
549,7	2960,233
550,1	2933,793
550,6	2910,273
551	2880,193
551,5	2846,953
551,9	2815,713
552,4	2789,473
552,8	2759,073
553,3	2736,353
553,7	2721,473
554,2	2697,753
554,6	2677,873
555,1	2659,993
555,5	2638,913
555,9	2609,593
556,4	2591,193
556,8	2570,313
557,3	2542,593
557,7	2516,433
558,2	2491,713
558,6	2464,153
559,1	2432,113
559,5	2423,393
560	2407,313
560,4	2389,353
560,9	2369,993
561,3	2361,393
561,8	2335,873
562,2	2318,353
562,7	2299,113
563,1	2287,833
563,6	2265,633
564	2245,113
564,4	2226,633
564,9	2209,033
565,3	2182,153
565,8	2171,233
566,2	2148,753
566,7	2129,873
567,1	2118,593
567,6	2108,273
568	2089,793
568,5	2081,953
568,9	2065,033
569,4	2044,233
569,8	2031,233
570,3	2009,953
570,7	1996,393
571,1	1980,433
571,6	1972,993
572	1956,473
572,5	1949,353
572,9	1925,553
573,4	1917,953
573,8	1899,873
574,3	1888,633
574,7	1871,913
575,2	1857,953
575,6	1838,873
576,1	1824,153
576,5	1810,513
576,9	1800,033
577,4	1789,513
577,8	1782,353
578,3	1764,673
578,7	1761,793
579,2	1741,033
579,6	1734,713
580,1	1723,193
580,5	1712,633
581	1686,113
581,4	1677,233
581,9	1666,793
582,3	1650,593
582,7	1642,553
583,2	1635,353
583,6	1625,753
584,1	1609,473
584,5	1601,633
585	1586,993
585,4	1572,833
585,9	1562,953
586,3	1552,993
586,8	1546,713
587,2	1533,473
587,6	1525,513
588,1	1506,953
588,5	1496,513
589	1480,993
589,4	1468,033
589,9	1455,913
590,3	1456,993
590,8	1450,513
591,2	1435,833
591,7	1435,473
592,1	1426,433
592,5	1418,953
593	1402,073
593,4	1397,793
593,9	1383,393
594,3	1377,353
594,8	1367,873
595,2	1368,873
595,7	1357,633
596,1	1359,353
596,6	1356,993
597	1346,833
597,4	1333,473
597,9	1327,633
598,3	1318,073
598,8	1308,393
599,2	1301,113
599,7	1300,113
600,1	1298,913
600,6	1287,953
601	1279,713
601,4	1274,553
601,9	1264,553
602,3	1250,513
602,8	1240,193
603,2	1233,473
603,7	1225,993
604,1	1218,753
604,6	1211,873
605	1213,313
605,4	1204,993
605,9	1199,993
606,3	1195,433
606,8	1189,353
607,2	1177,353
607,7	1168,553
608,1	1159,233
608,6	1150,873
609	1152,073
609,4	1147,153
609,9	1142,233
610,3	1133,513
610,8	1119,433
611,2	1100,153
611,7	1092,353
612,1	1085,193
612,6	1080,633
613	1087,873
613,4	1087,433
613,9	1084,393
614,3	1075,433
614,8	1065,593
615,2	1048,273
615,7	1038,273
616,1	1026,873
616,6	1020,873
617	1013,073
617,4	1014,273
617,9	1009,673
618,3	1003,713
618,8	997,353
619,2	994,153
619,7	987,673
620,1	978,553
620,5	970,673
621	966,593
621,4	962,633
621,9	947,673
622,3	942,593
622,8	943,073
623,2	935,313
623,6	928,673
624,1	926,473
624,5	920,713
625	901,713
625,4	890,593
625,9	886,113
626,3	884,073
626,8	878,913
627,2	879,833
627,6	880,913
628,1	870,553
628,5	860,233
629	857,073
629,4	858,873
629,9	847,673
630,3	842,593
630,7	833,953
631,2	828,913
631,6	816,073
632,1	814,993
632,5	810,753
633	808,273
633,4	797,513
633,8	788,113
634,3	778,273
634,7	772,833
635,2	764,833
635,6	758,793
636,1	761,673
636,5	765,953
636,9	757,633
637,4	757,313
637,8	755,833
638,3	743,873
638,7	731,433
639,2	724,713
639,6	714,193
640	704,753
640,5	704,633
640,9	703,433
641,4	697,913
641,8	695,353
642,2	699,153
642,7	695,553
643,1	688,753
643,6	682,873
644	678,313
644,5	675,113
644,9	673,433
645,3	666,233
645,8	660,353
646,2	650,273
646,7	640,913
647,1	634,433
647,6	635,593
648	635,353
648,4	641,313
648,9	638,433
649,3	617,073
649,8	611,313
650,2	608,873
650,6	598,593
651,1	596,593
651,5	600,473
652	597,673
652,4	591,873
652,9	583,833
653,3	577,513
653,7	577,233
654,2	568,953
654,6	570,033
655,1	574,353
655,5	566,153
655,9	561,353
656,4	558,393
656,8	549,233
657,3	545,273
657,7	543,913
658,2	540,753
658,6	532,553
659	531,273
659,5	524,753
659,9	516,713
660,4	510,753
660,8	509,153
661,2	499,913
661,7	498,233
662,1	497,713
662,6	493,273
663	485,153
663,4	484,473
663,9	478,833
664,3	470,193
664,8	476,473
665,2	476,913
665,6	477,393
666,1	474,553
666,5	473,993
667	469,393
667,4	458,993
667,9	447,073
668,3	442,313
668,7	444,913
669,2	434,953
669,6	437,553
670,1	441,153
670,5	436,753
670,9	431,033
671,4	429,993
671,8	429,473
672,3	424,673
672,7	427,313
673,1	418,713
673,6	411,753
674	408,913
674,5	407,033
674,9	399,913
675,3	400,673
675,8	398,153
676,2	391,393
676,7	386,633
677,1	377,953
677,5	371,633
678	370,993
678,4	372,833
678,9	367,113
679,3	368,273
679,7	366,033
680,2	359,393
680,6	350,873
681,1	349,633
681,5	349,153
681,9	349,233
682,4	348,633
682,8	349,593
683,3	348,393
683,7	340,513
684,1	338,153
684,6	338,353
685	335,793
685,5	329,113
685,9	327,553
686,3	322,753
686,8	317,073
687,2	311,433
687,7	313,873
688,1	314,073
688,5	314,073
689	312,753
689,4	310,913
689,9	302,593
690,3	295,953
690,7	291,593
691,2	290,753
691,6	290,153
692	292,473
692,5	293,353
692,9	291,353
693,4	291,033
693,8	287,553
694,2	283,993
694,7	281,753
695,1	274,153
695,6	262,953
696	259,833
696,4	258,793
696,9	259,393
697,3	261,393
697,8	262,753
698,2	260,073
698,6	257,033
699,1	250,473
699,5	249,673
699,9	249,713
700,4	247,353
700,8	242,353
701,3	234,593
701,7	233,473
702,1	228,393
702,6	225,993
703	228,113
703,5	236,513
703,9	232,513
704,3	237,273
704,8	235,913
705,2	233,873
705,6	229,353
706,1	226,633
706,5	218,033
707	221,913
707,4	220,793
707,8	212,593
708,3	213,553
708,7	216,713
709,2	201,353
709,6	193,753
710	196,673
710,5	193,073
710,9	184,233
711,3	187,873
711,8	189,753
712,2	193,033
712,7	188,873
713,1	193,593
713,5	192,473
714	188,353
714,4	179,393
714,8	179,673
715,3	174,953
715,7	178,953
716,2	179,033
716,6	179,353
717	181,433
717,5	181,793
717,9	179,553
718,3	178,873
718,8	183,673
719,2	178,593
719,7	176,313
720,1	171,913
720,5	170,353
721	161,513
721,4	156,593
721,8	153,913
722,3	150,713
722,7	144,673
723,2	146,033
723,6	148,793
724	145,153
724,5	146,033
724,9	153,313
725,3	146,993
725,8	145,513
726,2	148,033
726,7	144,553
727,1	140,553
727,5	143,873
728	140,753
728,4	139,753
728,8	141,953
729,3	142,473
729,7	138,313
730,1	138,153
730,6	136,633
731	134,153
731,5	134,793
731,9	138,433
732,3	136,793
732,8	134,073
733,2	131,633
733,6	131,993
734,1	128,473
734,5	129,833
734,9	131,793
735,4	133,313
735,8	122,673
736,3	122,393
736,7	115,193
737,1	117,273
737,6	120,353
738	124,073
738,4	126,113
738,9	126,793
739,3	123,073
739,7	116,553
740,2	111,873
740,6	106,033
741,1	109,393
741,5	106,713
741,9	109,833
742,4	111,593
742,8	110,993
743,2	111,073
743,7	110,113
744,1	106,113
744,5	102,753
745	103,233
745,4	106,873
745,8	107,793
746,3	104,393
746,7	101,473
747,2	98,873
747,6	95,873
748	89,273
748,5	94,873
748,9	98,313
749,3	97,393
749,8	86,953
750,2	88,153
750,6	85,553
751,1	80,313
751,5	81,473
751,9	89,833
752,4	92,713
752,8	88,273
753,3	92,633
753,7	93,473
754,1	87,833
754,6	88,993
755	90,513
755,4	93,313
755,9	90,593
756,3	84,713
756,7	83,153
757,2	78,953
757,6	73,953
758	76,753
758,5	82,593
758,9	79,673
759,3	80,953
759,8	78,953
760,2	69,433
760,6	67,753
761,1	65,393
761,5	65,273
761,9	67,433
762,4	70,353
762,8	70,033
763,3	69,193
763,7	68,793
764,1	70,953
764,6	72,513
765	73,153
765,4	72,873
765,9	70,913
766,3	68,473
766,7	63,393
767,2	63,593
767,6	62,433
768	64,993
768,5	63,913
768,9	68,233
769,3	59,153
769,8	62,993
770,2	58,833
770,6	57,273
771,1	58,513
771,5	61,153
771,9	62,633
772,4	66,553
772,8	71,393
773,2	63,553
773,7	64,033
774,1	59,313
774,5	53,833
775	46,713
775,4	50,593
775,8	54,113
776,3	49,553
776,7	50,873
777,1	49,913
777,6	48,473
778	41,313
778,4	47,793
778,9	44,193
779,3	41,273
779,7	40,753
780,2	50,113
780,6	40,953
781	45,833
781,5	46,673
781,9	41,033
782,3	35,833
782,8	39,513
783,2	39,433
783,6	42,793
784,1	49,073
784,5	40,913
784,9	36,513
785,4	37,193
785,8	37,553
786,2	27,113
786,7	34,393
787,1	34,113
787,5	32,793
788	31,873
788,4	36,273
788,8	34,353
789,3	41,153
789,7	41,673
790,1	38,313
790,6	42,033
791	39,313
791,4	37,473
791,9	31,033
792,3	31,113
792,7	29,073
793,2	30,513
793,6	26,513
794	26,873
794,5	25,313
794,9	27,753
795,3	23,313
795,8	24,593
796,2	28,353
796,6	26,953
797,1	22,273
797,5	28,273
797,9	26,353
798,4	21,633
798,8	24,273
799,2	28,033
799,7	23,073
800,1	26,993
800,5	30,153
801	24,713
801,4	21,113
801,8	22,313
802,2	24,073
802,7	24,433
803,1	20,553
803,5	21,353
804	22,833
804,4	16,633
804,8	11,153
805,3	15,393
805,7	11,113
806,1	10,473
806,6	10,673
807	10,113
807,4	13,873
807,9	17,873
808,3	16,913
808,7	14,233
809,2	17,473
809,6	14,313
810	14,513
810,4	14,713
810,9	15,033
811,3	11,073
811,7	12,633
812,2	11,993
812,6	3,153
813	8,753
813,5	13,833
813,9	14,553
814,3	15,993
814,8	25,993
815,2	18,753
815,6	12,353
816,1	13,153
816,5	10,953
816,9	11,433
817,3	11,153
817,8	11,873
818,2	8,713
818,6	8,033
819,1	6,473
819,5	9,793
819,9	13,793
820,4	14,833
820,8	14,833
821,2	13,553
821,7	18,873
822,1	16,953
822,5	12,033
822,9	8,673
823,4	6,873
823,8	1,673
824,2	-2,727
824,7	-0,927
825,1	-2,647
825,5	-2,447
826	-7,567
826,4	-7,687
826,8	-8,167
827,3	-5,167
827,7	-11,407
828,1	-8,607
828,5	-5,967
829	-7,007
829,4	-3,367
829,8	0,473
830,3	2,913
830,7	1,433
831,1	-0,527
831,6	-3,207
832	-2,607
832,4	-7,527
832,8	-5,447
833,3	3,073
833,7	4,873
834,1	3,193
834,6	2,073
835	4,593
835,4	-1,927
835,8	-4,167
836,3	-1,527
836,7	1,073
837,1	-6,367
837,6	-4,247
838	-6,327
838,4	-10,007
838,9	-17,087
839,3	-15,647
839,7	-18,647
840,1	-14,927
840,6	-14,007
841	-4,567
841,4	-4,207
841,9	-5,967
842,3	-9,407
842,7	-6,047
843,1	-6,247
843,6	-11,767
844	-8,967
844,4	-11,327
844,9	-14,367
845,3	-17,447
845,7	-11,047
846,2	-12,447
846,6	-11,927
847	-12,767
847,4	-17,367
847,9	-16,447
848,3	-19,687
848,7	-18,967
849,2	-19,127
849,6	-18,887
850	-15,007
850,4	-11,527
850,9	-13,367
851,3	-10,527
851,7	-11,527
852,2	-17,367
852,6	-19,287
853	-17,367
853,4	-16,487
853,9	-13,367
854,3	-12,727
854,7	-10,727
855,2	-12,487
855,6	-16,567
856	-14,647
856,4	-17,207
856,9	-19,527
857,3	-20,727
857,7	-16,767
858,2	-19,807
858,6	-17,167
859	-19,447
859,4	-12,807
859,9	-14,487
860,3	-12,487
860,7	-18,007
861,1	-11,607
861,6	-16,487
862	-23,527
862,4	-24,047
862,9	-18,887
863,3	-24,927
863,7	-21,847
864,1	-17,287
864,6	-16,087
865	-12,567
865,4	-13,047
865,9	-15,407
866,3	-15,927
866,7	-17,767
867,1	-19,687
867,6	-17,567
868	-14,647
868,4	-10,047
868,8	-10,127
869,3	-12,847
869,7	-10,767
870,1	-18,647
870,6	-24,167
871	-22,927
871,4	-47,567
871,8	-55,567
872,3	-52,687
872,7	-51,967
873,1	-50,327
873,5	-25,727
874	-22,567
874,4	-18,847
874,8	-22,367
875,3	-21,207
875,7	-20,527
876,1	-20,287
876,5	-24,967
877	-18,527
877,4	-25,087
877,8	-27,367
878,2	-23,647
878,7	-22,527
879,1	-27,207
879,5	-24,847
879,9	-29,047
880,4	-28,807
880,8	-30,207
881,2	-32,647
881,7	-37,967
882,1	-35,927
882,5	-37,327
882,9	-33,167
883,4	-28,447
883,8	-23,287
884,2	-22,087
884,6	-22,007
885,1	-23,727
885,5	-25,007
885,9	-27,047
886,3	-30,527
886,8	-29,687
887,2	-28,607
887,6	-27,687
888	-32,367
888,5	-26,127
888,9	-24,687
889,3	-26,527
889,8	-26,287
890,2	-20,767
890,6	-19,607
891	-27,687
891,5	-26,447
891,9	-27,127
892,3	-24,847
892,7	-26,847
893,2	-21,047
893,6	-20,967
894	-20,287
894,4	-26,047
894,9	-28,167
895,3	-28,247
895,7	-24,127
896,1	-27,487
896,6	-23,407
897	-22,447
897,4	-24,007
897,8	-29,527
898,3	-32,527
898,7	-25,407
899,1	-26,447
899,5	-25,967
900	-30,247
900,4	-22,167
900,8	-35,767
901,2	-31,527
901,7	-30,287
902,1	-27,367
902,5	-31,127
902,9	-23,407
903,4	-23,767
903,8	-26,647
904,2	-23,447
904,6	-22,447
905,1	-21,327
905,5	-25,887
905,9	-19,887
906,3	-23,487
906,8	-23,207
907,2	-29,007
907,6	-29,127
908	-30,487
908,5	-33,407
908,9	-32,407
909,3	-35,207
909,7	-35,487
910,2	-37,607
910,6	-35,967
911	-36,047
911,4	-33,127
911,9	-33,087
912,3	-32,927
912,7	-32,087
913,1	-30,807
913,6	-32,167
914	-35,207
914,4	-37,567
914,8	-38,687
915,3	-45,127
915,7	-38,647
916,1	-37,807
916,5	-31,447
916,9	-28,327
917,4	-21,287
917,8	-21,487
918,2	-15,127
918,6	-20,407
919,1	-18,527
919,5	-27,647
919,9	-27,967
920,3	-28,927
920,8	-27,367
921,2	-36,047
921,6	-35,127
922	-41,287
922,5	-43,807
922,9	-50,967
923,3	-41,167
923,7	-37,727
924,2	-35,287
924,6	-32,727
925	-25,247
925,4	-28,207
925,8	-28,487
926,3	-25,807
926,7	-32,047
927,1	-29,007
927,5	-35,247
928	-36,527
928,4	-41,487
928,8	-34,807
929,2	-41,967
929,7	-30,807
930,1	-26,487
930,5	-21,007
930,9	-22,887
931,3	-21,447
931,8	-35,047
932,2	-37,887
932,6	-43,087
933	-45,807
933,5	-47,327
933,9	-36,087
934,3	-37,407
934,7	-32,567
935,2	-29,207
935,6	-29,607
936	-41,807
936,4	-46,927
936,8	-53,167
937,3	-57,207
937,7	-55,247
938,1	-46,167
938,5	-43,647
939	-45,567
939,4	-45,247
939,8	-45,327
940,2	-45,967
940,6	-43,447
941,1	-41,447
941,5	-38,087
941,9	-41,167
942,3	-36,887
942,8	-38,207
943,2	-32,767
943,6	-38,887
944	-34,447
944,4	-40,687
944,9	-39,847
945,3	-39,967
945,7	-39,607
946,1	-42,207
946,6	-43,487
947	-38,487
947,4	-41,847
947,8	-33,927
948,2	-34,367
948,7	-33,887
949,1	-35,727
949,5	-30,927
949,9	-36,647
950,3	-35,127
950,8	-32,047
951,2	-34,727
951,6	-37,327
952	-35,567
952,5	-32,807
952,9	-28,207
953,3	-32,607
953,7	-35,887
954,1	-30,687
954,6	-30,847
955	-31,287
955,4	-25,887
955,8	-17,447
956,2	-26,047
956,7	-27,967
957,1	-33,447
957,5	-37,247
957,9	-44,247
958,3	-36,847
958,8	-36,007
959,2	-38,967
959,6	-37,527
960	-36,447
960,5	-37,287
960,9	-39,927
961,3	-35,247
961,7	-28,847
962,1	-31,047
962,6	-33,687
963	-28,167
963,4	-25,967
963,8	-28,007
964,2	-31,327
964,7	-31,487
965,1	-39,367
965,5	-50,607
965,9	-53,727
966,3	-43,687
966,8	-41,127
967,2	-36,287
967,6	-27,287
968	-29,127
968,4	-32,127
968,9	-37,607
969,3	-29,847
969,7	-32,567
970,1	-32,687
970,5	-36,807
971	-32,367
971,4	-41,327
971,8	-41,087
972,2	-39,167
972,6	-38,487
973,1	-43,207
973,5	-46,207
973,9	-49,207
974,3	-46,247
974,7	-43,927
975,2	-46,247
975,6	-46,207
976	-40,327
976,4	-42,407
976,8	-37,447
977,3	-33,807
977,7	-25,247
978,1	-24,087
978,5	-23,247
978,9	-33,247
979,4	-26,407
979,8	-29,007
980,2	-25,967
980,6	-24,287
981	-15,807
981,5	-19,407
981,9	-20,767
982,3	-27,207
982,7	-31,367
983,1	-34,967
983,6	-31,087
984	-29,967
984,4	-30,047
984,8	-27,327
985,2	-30,887
985,6	-31,807
986,1	-39,287
986,5	-36,527
986,9	-37,647
987,3	-39,247
987,7	-45,127
988,2	-41,967
988,6	-45,007
989	-45,927
989,4	-42,847
989,8	-42,687
990,3	-42,927
990,7	-43,167
991,1	-40,327
991,5	-36,327
991,9	-35,927
992,3	-34,687
992,8	-32,607
993,2	-34,087
993,6	-33,447
994	-33,487
994,4	-31,647
994,9	-27,687
995,3	-32,287
995,7	-37,327
996,1	-35,967
996,5	-37,087
996,9	-43,487
997,4	-42,047
997,8	-42,047
998,2	-45,927
998,6	-46,047
999	-44,047
999,5	-43,727
999,9	-44,047
1000,3	-39,447
1000,7	-38,327
1001,1	-39,247
1001,5	-34,327
1002	-33,687
1002,4	-37,287
1002,8	-38,527
1003,2	-38,967
1003,6	-39,207
1004	-31,567
1004,5	-31,727
1004,9	-31,087
1005,3	-35,087
1005,7	-42,207
1006,1	-47,927
1006,6	-49,647
1007	-54,087
1007,4	-49,927
1007,8	-42,167
1008,2	-49,247
1008,6	-42,367
1009,1	-43,367
1009,5	-42,207
1009,9	-45,807
1010,3	-36,567
1010,7	-38,247
1011,1	-30,127
1011,6	-29,167
1012	-33,087
1012,4	-35,447
1012,8	-38,167
1013,2	-40,767
1013,6	-46,527
1014,1	-39,087
1014,5	-34,847
1014,9	-32,047
1015,3	-31,687
1015,7	-27,647
1016,1	-34,687
1016,6	-43,087
1017	-41,207
1017,4	-41,047
1017,8	-39,207
1018,2	-29,767
1018,6	-28,167
1019,1	-32,527
1019,5	-32,447
1019,9	-29,167
1020,3	-37,727
1020,7	-39,207
1021,1	-39,927
1021,6	-37,087
1022	-38,087
1022,4	-34,007
1022,8	-30,367
1023,2	-29,687
1023,6	-40,847
1024,1	-40,807
1024,5	-42,727
1024,9	-45,687
1025,3	-48,607
1025,7	-40,367
1026,1	-41,287
1026,6	-38,687
1027	-36,727
1027,4	-34,087
1027,8	-33,167
1028,2	-38,527
1028,6	-36,007
1029	-37,687
1029,5	-42,007
1029,9	-44,487
1030,3	-42,607
1030,7	-45,887
1031,1	-47,247
1031,5	-48,967
1032	-51,607
1032,4	-49,127
1032,8	-49,767
1033,2	-48,967
1033,6	-47,287
1034	-45,887
1034,4	-46,367
1034,9	-48,487
1035,3	-44,487
1035,7	-43,007
1036,1	-45,687
1036,5	-46,807
1036,9	-41,407
1037,4	-46,327
1037,8	-38,767
1038,2	-37,327
1038,6	-40,927
1039	-44,567
1039,4	-38,047
1039,8	-44,967
1040,3	-46,767
1040,7	-44,687
1041,1	-44,007
1041,5	-47,527
1041,9	-48,087
1042,3	-51,287
1042,7	-51,487
1043,2	-55,007
1043,6	-53,887
1044	-49,127
1044,4	-37,287
1044,8	-30,527
1045,2	-32,047
1045,6	-32,287
1046,1	-32,727
1046,5	-34,527
1046,9	-40,007
1047,3	-34,447
1047,7	-32,567
1048,1	-38,647
1048,5	-45,487
1049	-44,687
1049,4	-48,327
1049,8	-46,047
1050,2	-36,727
1050,6	-29,527
1051	-31,167
1051,4	-31,247
1051,9	-37,687
1052,3	-45,807
1052,7	-53,247
1053,1	-54,127
1053,5	-56,727
1053,9	-58,887
1054,3	-58,607
1054,8	-56,727
1055,2	-50,367
1055,6	-44,127
1056	-40,607
1056,4	-41,127
1056,8	-37,087
1057,2	-43,127
1057,6	-41,367
1058,1	-43,527
1058,5	-43,407
1058,9	-44,207
1059,3	-44,967
1059,7	-46,847
1060,1	-46,207
1060,5	-47,207
1061	-42,967
1061,4	-45,727
1061,8	-45,407
1062,2	-44,167
1062,6	-42,407
1063	-50,847
1063,4	-50,167
1063,8	-49,327
1064,3	-47,087
1064,7	-43,487
1065,1	-41,047
1065,5	-33,327
1065,9	-38,447
1066,3	-44,527
1066,7	-46,007
1067,1	-48,807
1067,6	-52,967
1068	-52,727
1068,4	-44,647
1068,8	-45,367
1069,2	-40,527
1069,6	-41,127
1070	-32,167
1070,4	-43,127
1070,9	-46,167
1071,3	-49,007
1071,7	-48,647
1072,1	-56,447
1072,5	-48,367
1072,9	-45,727
1073,3	-45,367
1073,7	-46,767
1074,2	-48,847
1074,6	-45,167
1075	-45,447
1075,4	-41,687
1075,8	-41,927
1076,2	-40,327
1076,6	-39,887
1077	-35,287
1077,5	-37,407
1077,9	-35,727
1078,3	-34,407
1078,7	-35,927
1079,1	-39,807
1079,5	-41,367
1079,9	-40,007
1080,3	-44,527
1080,7	-45,927
1081,2	-52,247
1081,6	-44,567
1082	-47,727
1082,4	-41,607
1082,8	-40,847
1083,2	-29,407
1083,6	-32,607
1084	-26,647
1084,5	-28,327
1084,9	-28,847
1085,3	-32,047
1085,7	-34,487
1086,1	-39,407
1086,5	-39,687
1086,9	-43,247
1087,3	-44,407
1087,7	-42,527
1088,2	-41,727
1088,6	-41,407
1089	-38,087
1089,4	-39,687
1089,8	-43,607
1090,2	-48,687
1090,6	-44,687
1091	-47,607
1091,4	-46,047
1091,9	-40,807
1092,3	-36,407
1092,7	-39,447
1093,1	-36,887
1093,5	-37,447
1093,9	-43,447
1094,3	-39,287
1094,7	-38,367
1095,1	-39,087
1095,5	-36,687
1096	-35,447
1096,4	-38,407
1096,8	-36,087
1097,2	-32,967
1097,6	-28,327
1098	-23,007
1098,4	-18,847
1098,8	-18,007
1099,2	-17,887
1099,6	-20,087
1100,1	-23,127
1100,5	-22,367
1100,9	-23,887
1101,3	-24,727
1101,7	-28,247
1102,1	-26,767
1102,5	-28,967
1102,9	-29,687
1103,3	-32,607
1103,7	-30,487
1104,2	-30,847
1104,6	-33,047
1105	-32,087
1105,4	-28,727
1105,8	-27,247
1106,2	-21,607
1106,6	-14,807
1107	-9,807
1107,4	-4,567
1107,8	-0,317
1108,3	-0,433
