Data from Subt2_00003.txt Node
Date: Fri Aug 11 15:14:40 MSK 2023
User: vat
Spectrometer: MAYP114033
Trigger mode: 0
Integration Time (sec): 5,000000E-1
Scans to average: 5
Electric dark correction enabled: true
Nonlinearity correction enabled: false
Boxcar width: 2
XAxis mode: Wavelengths
Number of Pixels in Spectrum: 2068
>>>>>Begin Spectral Data<<<<<
199,4	-2,467
199,9	-1,883
200,4	-5,173
200,8	-7,613
201,3	-10,853
201,8	-17,173
202,2	-21,013
202,7	-19,533
203,2	-17,613
203,6	-17,533
204,1	-13,453
204,6	-15,013
205	-14,573
205,5	-17,453
206	-16,333
206,4	-17,133
206,9	-11,533
207,4	-13,213
207,8	-13,693
208,3	-13,773
208,8	-15,413
209,2	-24,973
209,7	-28,293
210,2	-31,453
210,6	-29,573
211,1	-32,693
211,5	-28,293
212	-28,733
212,5	-28,333
212,9	-31,573
213,4	-25,573
213,9	-24,413
214,3	-25,213
214,8	-25,933
215,3	-28,653
215,7	-30,693
216,2	-30,053
216,7	-26,733
217,1	-29,053
217,6	-28,053
218,1	-25,853
218,5	-31,053
219	-29,133
219,5	-29,613
219,9	-32,173
220,4	-38,573
220,9	-34,253
221,3	-39,533
221,8	-36,813
222,3	-36,453
222,7	-36,133
223,2	-35,533
223,6	-38,413
224,1	-34,373
224,6	-31,533
225	-27,013
225,5	-33,333
226	-29,053
226,4	-32,053
226,9	-29,373
227,4	-34,573
227,8	-29,773
228,3	-31,893
228,8	-31,453
229,2	-31,773
229,7	-30,293
230,2	-31,533
230,6	-25,053
231,1	-23,573
231,5	-30,253
232	-28,813
232,5	-32,253
232,9	-33,613
233,4	-28,853
233,9	-25,533
234,3	-22,453
234,8	-18,853
235,3	-29,013
235,7	-34,293
236,2	-33,373
236,7	-33,653
237,1	-37,573
237,6	-31,893
238,1	-29,093
238,5	-31,773
239	-30,773
239,4	-27,693
239,9	-24,133
240,4	-24,133
240,8	-21,053
241,3	-23,693
241,8	-17,013
242,2	-18,213
242,7	-17,773
243,2	-17,973
243,6	-11,973
244,1	-17,813
244,6	-23,373
245	-27,013
245,5	-32,093
245,9	-44,653
246,4	-44,253
246,9	-44,453
247,3	-45,413
247,8	-42,293
248,3	-30,453
248,7	-29,053
249,2	-22,093
249,7	-24,053
250,1	-27,653
250,6	-35,053
251	-37,133
251,5	-42,813
252	-45,293
252,4	-41,093
252,9	-40,173
253,4	-40,853
253,8	-35,133
254,3	-33,253
254,8	-31,573
255,2	-35,933
255,7	-36,253
256,1	-34,573
256,6	-31,973
257,1	-38,533
257,5	-30,693
258	-32,453
258,5	-34,053
258,9	-29,453
259,4	-25,053
259,9	-27,093
260,3	-19,133
260,8	-19,453
261,2	-24,413
261,7	-19,853
262,2	-16,933
262,6	-24,413
263,1	-27,613
263,6	-29,533
264	-39,133
264,5	-49,053
264,9	-44,493
265,4	-39,773
265,9	-41,013
266,3	-31,653
266,8	-23,853
267,3	-28,293
267,7	-27,253
268,2	-18,213
268,7	-20,093
269,1	-20,133
269,6	-18,613
270	-19,213
270,5	-26,733
271	-28,253
271,4	-30,333
271,9	-32,013
272,4	-27,613
272,8	-29,853
273,3	-23,093
273,7	-24,133
274,2	-19,493
274,7	-30,853
275,1	-27,133
275,6	-28,853
276,1	-26,253
276,5	-27,453
277	-23,053
277,4	-18,173
277,9	-25,613
278,4	-29,053
278,8	-24,173
279,3	-21,653
279,8	-21,613
280,2	-19,013
280,7	-12,493
281,1	-15,253
281,6	-15,573
282,1	-20,093
282,5	-19,373
283	-18,653
283,4	-20,093
283,9	-23,093
284,4	-16,133
284,8	-14,573
285,3	-17,853
285,8	-20,853
286,2	-20,613
286,7	-23,373
287,1	-26,213
287,6	-26,453
288,1	-26,133
288,5	-17,853
289	-21,893
289,5	-21,173
289,9	-21,213
290,4	-20,933
290,8	-26,813
291,3	-27,493
291,8	-27,653
292,2	-28,333
292,7	-27,213
293,1	-29,413
293,6	-32,053
294,1	-37,773
294,5	-39,733
295	-43,173
295,5	-37,813
295,9	-27,413
296,4	-24,333
296,8	-21,893
297,3	-16,653
297,8	-24,253
298,2	-34,493
298,7	-31,013
299,1	-30,173
299,6	-33,333
300,1	-29,373
300,5	-23,213
301	-22,293
301,5	-25,373
301,9	-22,453
302,4	-20,333
302,8	-18,413
303,3	-20,973
303,8	-20,213
304,2	-21,053
304,7	-28,133
305,1	-33,853
305,6	-34,613
306,1	-34,413
306,5	-34,213
307	-28,213
307,4	-23,973
307,9	-24,773
308,4	-23,493
308,8	-20,613
309,3	-24,333
309,8	-29,613
310,2	-29,493
310,7	-31,253
311,1	-39,213
311,6	-36,533
312,1	-34,653
312,5	-28,253
313	-28,773
313,4	-24,613
313,9	-30,773
314,4	-31,133
314,8	-32,293
315,3	-29,373
315,7	-27,333
316,2	-18,373
316,7	-18,853
317,1	-20,893
317,6	-24,453
318	-25,413
318,5	-29,613
319	-25,893
319,4	-28,013
319,9	-25,613
320,3	-22,733
320,8	-21,973
321,3	-21,493
321,7	-14,453
322,2	-12,813
322,6	-18,293
323,1	-22,813
323,6	-25,653
324	-30,733
324,5	-31,613
324,9	-28,253
325,4	-23,773
325,9	-25,573
326,3	-26,693
326,8	-29,293
327,2	-27,813
327,7	-30,213
328,2	-26,933
328,6	-25,813
329,1	-24,293
329,5	-23,013
330	-18,573
330,5	-19,693
330,9	-22,653
331,4	-23,413
331,8	-25,413
332,3	-24,653
332,8	-21,813
333,2	-23,373
333,7	-19,333
334,1	-21,413
334,6	-28,813
335,1	-27,533
335,5	-20,213
336	-30,053
336,4	-31,933
336,9	-30,453
337,4	-28,973
337,8	-36,853
338,3	-33,093
338,7	-32,293
339,2	-28,653
339,7	-33,573
340,1	-28,733
340,6	-26,693
341	-23,813
341,5	-26,773
342	-32,013
342,4	-33,373
342,9	-33,813
343,3	-37,533
343,8	-40,733
344,2	-37,813
344,7	-37,653
345,2	-34,093
345,6	-28,613
346,1	-22,293
346,5	-18,333
347	-24,733
347,5	-26,813
347,9	-29,733
348,4	-36,653
348,8	-36,973
349,3	-32,293
349,8	-32,693
350,2	-36,293
350,7	-25,893
351,1	-28,733
351,6	-23,173
352	-20,133
352,5	-16,333
353	-18,133
353,4	-14,493
353,9	-12,413
354,3	-8,373
354,8	-1,573
355,3	-1,173
355,7	6,507
356,2	11,227
356,6	18,107
357,1	24,787
357,5	35,507
358	39,427
358,5	50,867
358,9	59,827
359,4	71,947
359,8	90,267
360,3	116,587
360,8	137,987
361,2	162,387
361,7	192,507
362,1	215,147
362,6	242,587
363	273,667
363,5	311,787
364	348,267
364,4	393,947
364,9	430,867
365,3	470,387
365,8	505,587
366,3	537,547
366,7	561,667
367,2	587,067
367,6	608,107
368,1	622,667
368,5	642,107
369	659,587
369,5	664,547
369,9	659,187
370,4	649,747
370,8	625,707
371,3	602,787
371,7	577,907
372,2	555,387
372,7	526,507
373,1	499,587
373,6	467,787
374	437,307
374,5	406,587
374,9	382,187
375,4	353,507
375,9	323,867
376,3	296,867
376,8	270,227
377,2	243,507
377,7	223,387
378,2	206,627
378,6	193,267
379,1	178,187
379,5	163,987
380	150,107
380,4	137,907
380,9	121,587
381,4	112,587
381,8	102,747
382,3	87,427
382,7	85,227
383,2	79,947
383,6	73,107
384,1	72,227
384,6	68,987
385	56,947
385,5	52,347
385,9	45,107
386,4	37,227
386,8	36,947
387,3	34,227
387,7	22,987
388,2	22,667
388,7	20,947
389,1	18,507
389,6	15,987
390	20,387
390,5	22,067
390,9	20,507
391,4	12,867
391,9	7,867
392,3	6,267
392,8	3,187
393,2	-0,413
393,7	-0,893
394,1	3,987
394,6	10,307
395,1	10,147
395,5	8,987
396	14,587
396,4	4,827
396,9	-0,453
397,3	-3,813
397,8	1,827
398,2	5,707
398,7	11,067
399,2	10,627
399,6	11,147
400,1	5,027
400,5	-1,933
401	-2,053
401,4	-3,693
401,9	-6,053
402,4	-5,013
402,8	-1,053
403,3	-0,653
403,7	-1,933
404,2	-4,093
404,6	-4,773
405,1	-9,853
405,5	-2,973
406	-2,773
406,5	3,187
406,9	-0,653
407,4	1,387
407,8	-8,893
408,3	-13,853
408,7	-19,493
409,2	-17,933
409,6	-18,333
410,1	-8,333
410,6	2,147
411	6,707
411,5	14,987
411,9	17,267
412,4	17,667
412,8	19,307
413,3	20,227
413,7	13,387
414,2	13,627
414,7	5,267
415,1	0,387
415,6	-0,853
416	5,587
416,5	8,747
416,9	10,827
417,4	16,147
417,8	12,747
418,3	16,027
418,8	20,747
419,2	27,587
419,7	23,987
420,1	32,947
420,6	32,147
421	26,347
421,5	29,707
421,9	34,787
422,4	31,427
422,8	28,827
423,3	26,827
423,8	30,387
424,2	34,827
424,7	43,107
425,1	46,507
425,6	53,587
426	44,907
426,5	40,307
426,9	39,147
427,4	42,267
427,9	45,787
428,3	48,267
428,8	49,187
429,2	51,187
429,7	48,307
430,1	46,907
430,6	49,147
431	49,507
431,5	47,347
431,9	52,107
432,4	57,667
432,8	62,627
433,3	77,587
433,8	85,347
434,2	87,187
434,7	86,627
435,1	91,027
435,6	92,707
436	94,827
436,5	102,787
436,9	112,467
437,4	114,067
437,8	112,987
438,3	120,707
438,8	127,347
439,2	137,267
439,7	142,747
440,1	153,907
440,6	158,987
441	164,467
441,5	168,947
441,9	182,427
442,4	182,147
442,8	191,267
443,3	200,867
443,7	202,507
444,2	208,707
444,7	221,587
445,1	225,227
445,6	239,067
446	256,587
446,5	269,987
446,9	282,507
447,4	297,387
447,8	302,787
448,3	308,907
448,7	322,947
449,2	335,987
449,6	351,507
450,1	362,627
450,6	375,307
451	386,307
451,5	395,387
451,9	412,827
452,4	429,907
452,8	446,067
453,3	455,787
453,7	478,667
454,2	487,627
454,6	508,027
455,1	525,027
455,5	548,507
456	561,467
456,4	578,987
456,9	589,027
457,3	611,667
457,8	625,347
458,3	649,667
458,7	673,427
459,2	698,747
459,6	718,747
460,1	737,507
460,5	756,427
461	771,467
461,4	792,187
461,9	814,707
462,3	840,907
462,8	861,187
463,2	886,307
463,7	906,507
464,1	931,547
464,6	959,387
465	985,547
465,5	1011,707
466	1033,947
466,4	1056,387
466,9	1080,027
467,3	1107,187
467,8	1130,867
468,2	1155,627
468,7	1168,947
469,1	1186,827
469,6	1206,427
470	1229,107
470,5	1256,947
470,9	1279,587
471,4	1308,347
471,8	1334,547
472,3	1359,227
472,7	1382,947
473,2	1414,587
473,6	1437,547
474,1	1464,387
474,5	1494,347
475	1515,107
475,4	1531,987
475,9	1552,507
476,4	1566,147
476,8	1585,547
477,3	1606,027
477,7	1631,987
478,2	1658,587
478,6	1679,507
479,1	1696,427
479,5	1719,107
480	1740,747
480,4	1754,107
480,9	1774,787
481,3	1786,227
481,8	1805,827
482,2	1827,627
482,7	1837,027
483,1	1850,227
483,6	1861,227
484	1870,387
484,5	1875,467
484,9	1891,027
485,4	1906,667
485,8	1930,147
486,3	1938,787
486,7	1953,947
487,2	1969,667
487,6	1975,427
488,1	1978,227
488,5	1991,267
489	1994,507
489,4	2002,547
489,9	2008,667
490,4	2015,387
490,8	2016,947
491,3	2019,867
491,7	2018,027
492,2	2020,507
492,6	2026,067
493,1	2031,387
493,5	2028,747
494	2033,267
494,4	2035,787
494,9	2029,987
495,3	2028,947
495,8	2036,787
496,2	2024,707
496,7	2018,787
497,1	2021,987
497,6	2013,027
498	2005,707
498,5	2016,867
498,9	2011,867
499,4	2004,107
499,8	2000,347
500,3	1995,227
500,7	1986,107
501,2	1990,147
501,6	1985,627
502,1	1983,587
502,5	1975,787
503	1961,467
503,4	1949,747
503,9	1939,667
504,3	1923,907
504,8	1921,147
505,2	1925,307
505,7	1911,827
506,1	1912,267
506,6	1908,867
507	1898,107
507,5	1881,747
507,9	1875,587
508,4	1865,067
508,8	1861,907
509,3	1847,627
509,7	1833,187
510,2	1832,387
510,6	1823,867
511,1	1811,827
511,5	1808,547
512	1797,067
512,4	1787,707
512,9	1768,267
513,3	1756,187
513,8	1742,827
514,2	1742,787
514,7	1724,547
515,1	1724,067
515,6	1709,827
516	1709,987
516,5	1699,547
516,9	1678,627
517,4	1668,987
517,8	1661,267
518,3	1641,747
518,7	1624,467
519,2	1629,027
519,6	1614,467
520,1	1610,067
520,5	1602,027
521	1595,147
521,4	1579,587
521,9	1568,667
522,3	1554,347
522,8	1548,387
523,2	1541,867
523,7	1541,827
524,1	1532,747
524,6	1525,107
525	1511,587
525,5	1502,947
525,9	1495,187
526,4	1492,707
526,8	1485,747
527,3	1482,707
527,7	1472,547
528,2	1461,667
528,6	1452,587
529,1	1445,187
529,5	1438,307
530	1435,507
530,4	1427,987
530,9	1425,427
531,3	1422,907
531,8	1412,347
532,2	1413,667
532,6	1415,547
533,1	1410,707
533,5	1407,947
534	1403,067
534,4	1396,147
534,9	1392,187
535,3	1385,827
535,8	1379,387
536,2	1384,307
536,7	1381,467
537,1	1367,147
537,6	1357,187
538	1348,747
538,5	1337,507
538,9	1320,667
539,4	1319,907
539,8	1324,147
540,3	1326,787
540,7	1326,267
541,2	1326,027
541,6	1324,107
542,1	1320,147
542,5	1320,907
543	1313,067
543,4	1312,907
543,9	1313,387
544,3	1309,267
544,8	1300,187
545,2	1298,707
545,7	1299,707
546,1	1289,267
546,5	1286,627
547	1281,347
547,4	1286,147
547,9	1274,267
548,3	1273,907
548,8	1272,947
549,2	1272,267
549,7	1262,547
550,1	1265,267
550,6	1263,547
551	1253,467
551,5	1250,667
551,9	1252,787
552,4	1249,067
552,8	1254,267
553,3	1255,987
553,7	1261,507
554,2	1261,947
554,6	1260,387
555,1	1244,227
555,5	1244,227
555,9	1236,427
556,4	1223,467
556,8	1233,387
557,3	1235,667
557,7	1231,547
558,2	1232,627
558,6	1238,227
559,1	1227,267
559,5	1222,187
560	1223,787
560,4	1218,187
560,9	1214,627
561,3	1214,347
561,8	1219,067
562,2	1210,307
562,7	1201,267
563,1	1194,027
563,6	1188,227
564	1186,427
564,4	1191,267
564,9	1205,707
565,3	1209,387
565,8	1204,827
566,2	1199,787
566,7	1192,107
567,1	1182,707
567,6	1174,067
568	1175,667
568,5	1178,867
568,9	1174,427
569,4	1169,467
569,8	1171,267
570,3	1176,427
570,7	1171,747
571,1	1177,827
571,6	1175,547
572	1174,587
572,5	1166,107
572,9	1168,907
573,4	1158,427
573,8	1160,827
574,3	1152,507
574,7	1150,387
575,2	1143,027
575,6	1144,587
576,1	1136,907
576,5	1142,587
576,9	1133,907
577,4	1124,227
577,8	1117,707
578,3	1117,147
578,7	1115,107
579,2	1120,067
579,6	1116,987
580,1	1118,747
580,5	1113,427
581	1109,427
581,4	1108,467
581,9	1107,867
582,3	1105,427
582,7	1100,467
583,2	1092,907
583,6	1082,987
584,1	1076,427
584,5	1073,147
585	1073,347
585,4	1068,827
585,9	1066,947
586,3	1065,547
586,8	1062,187
587,2	1056,547
587,6	1058,787
588,1	1054,467
588,5	1059,907
589	1050,867
589,4	1048,627
589,9	1045,667
590,3	1038,507
590,8	1027,107
591,2	1037,387
591,7	1035,307
592,1	1030,507
592,5	1036,427
593	1036,307
593,4	1023,107
593,9	1019,507
594,3	1016,987
594,8	1013,547
595,2	1011,347
595,7	1008,707
596,1	1009,067
596,6	1007,587
597	999,387
597,4	995,387
597,9	987,667
598,3	975,387
598,8	968,187
599,2	963,427
599,7	963,507
600,1	966,107
600,6	964,747
601	963,667
601,4	960,027
601,9	947,627
602,3	940,747
602,8	946,147
603,2	943,627
603,7	946,947
604,1	949,867
604,6	948,507
605	935,027
605,4	928,947
605,9	920,547
606,3	916,867
606,8	912,067
607,2	906,827
607,7	903,227
608,1	899,107
608,6	890,987
609	887,667
609,4	884,867
609,9	880,427
610,3	872,667
610,8	875,467
611,2	878,107
611,7	875,987
612,1	871,027
612,6	873,307
613	866,387
613,4	854,387
613,9	851,107
614,3	843,467
614,8	840,587
615,2	835,547
615,7	836,187
616,1	840,587
616,6	837,627
617	833,587
617,4	828,467
617,9	820,307
618,3	810,147
618,8	803,507
619,2	796,427
619,7	791,587
620,1	790,907
620,5	786,067
621	784,387
621,4	778,947
621,9	773,907
622,3	765,387
622,8	759,507
623,2	750,187
623,6	752,187
624,1	747,587
624,5	744,267
625	742,787
625,4	752,067
625,9	738,387
626,3	739,707
626,8	731,827
627,2	724,867
627,6	713,987
628,1	712,107
628,5	701,907
629	703,027
629,4	700,587
629,9	700,667
630,3	695,387
630,7	695,027
631,2	686,067
631,6	685,627
632,1	679,827
632,5	676,107
633	674,587
633,4	672,187
633,8	661,587
634,3	656,947
634,7	650,547
635,2	636,467
635,6	633,107
636,1	627,907
636,5	620,587
636,9	615,667
637,4	611,707
637,8	612,187
638,3	611,147
638,7	602,507
639,2	603,227
639,6	606,387
640	604,547
640,5	602,827
640,9	609,027
641,4	607,387
641,8	602,427
642,2	593,467
642,7	588,587
643,1	577,987
643,6	574,027
644	572,267
644,5	566,067
644,9	557,347
645,3	554,467
645,8	546,387
646,2	537,507
646,7	533,827
647,1	537,667
647,6	533,547
648	529,107
648,4	532,627
648,9	530,467
649,3	521,707
649,8	518,827
650,2	522,187
650,6	516,707
651,1	514,307
651,5	507,067
652	506,587
652,4	505,307
652,9	497,827
653,3	492,267
653,7	498,547
654,2	496,987
654,6	487,347
655,1	483,107
655,5	483,507
655,9	471,227
656,4	462,747
656,8	463,027
657,3	464,907
657,7	456,667
658,2	458,067
658,6	457,307
659	451,667
659,5	447,387
659,9	450,307
660,4	448,467
660,8	447,067
661,2	445,907
661,7	437,507
662,1	429,947
662,6	421,787
663	412,867
663,4	408,627
663,9	411,307
664,3	410,027
664,8	408,667
665,2	413,947
665,6	409,467
666,1	403,987
666,5	395,827
667	397,267
667,4	391,747
667,9	388,387
668,3	386,987
668,7	388,627
669,2	376,907
669,6	368,507
670,1	370,947
670,5	363,867
670,9	357,387
671,4	358,067
671,8	357,827
672,3	347,587
672,7	351,867
673,1	347,707
673,6	346,587
674	347,427
674,5	351,627
674,9	347,027
675,3	343,547
675,8	340,907
676,2	333,347
676,7	323,907
677,1	319,867
677,5	320,387
678	318,707
678,4	317,387
678,9	313,307
679,3	308,667
679,7	304,947
680,2	305,347
680,6	300,107
681,1	299,467
681,5	293,587
681,9	290,467
682,4	285,947
682,8	286,707
683,3	284,387
683,7	289,627
684,1	288,947
684,6	285,427
685	284,907
685,5	282,707
685,9	277,147
686,3	275,827
686,8	267,427
687,2	266,187
687,7	268,787
688,1	265,267
688,5	262,707
689	265,147
689,4	258,627
689,9	254,027
690,3	249,947
690,7	246,467
691,2	250,347
691,6	245,067
692	242,947
692,5	247,667
692,9	246,587
693,4	238,747
693,8	242,227
694,2	236,587
694,7	231,187
695,1	231,747
695,6	229,387
696	221,947
696,4	220,267
696,9	220,227
697,3	211,187
697,8	210,987
698,2	214,827
698,6	211,747
699,1	210,427
699,5	211,467
699,9	207,507
700,4	199,347
700,8	200,587
701,3	197,627
701,7	202,307
702,1	202,147
702,6	198,907
703	195,747
703,5	189,947
703,9	185,267
704,3	183,067
704,8	186,907
705,2	184,667
705,6	183,827
706,1	186,347
706,5	178,227
707	179,707
707,4	180,387
707,8	181,547
708,3	177,987
708,7	183,867
709,2	176,187
709,6	178,827
710	178,787
710,5	174,067
710,9	168,507
711,3	169,027
711,8	163,707
712,2	155,067
712,7	151,867
713,1	156,067
713,5	155,947
714	152,107
714,4	154,347
714,8	150,667
715,3	142,067
715,7	147,307
716,2	145,547
716,6	144,707
717	144,307
717,5	143,107
717,9	137,587
718,3	141,147
718,8	141,107
719,2	142,547
719,7	138,907
720,1	130,427
720,5	121,987
721	119,147
721,4	115,947
721,8	120,467
722,3	121,587
722,7	123,547
723,2	122,587
723,6	122,667
724	119,107
724,5	123,267
724,9	126,147
725,3	125,387
725,8	118,387
726,2	122,227
726,7	123,067
727,1	114,307
727,5	111,187
728	110,827
728,4	105,147
728,8	96,107
729,3	93,187
729,7	93,027
730,1	94,747
730,6	98,507
731	98,467
731,5	103,387
731,9	99,667
732,3	96,507
732,8	88,867
733,2	90,507
733,6	89,227
734,1	88,747
734,5	93,067
734,9	94,907
735,4	92,947
735,8	89,147
736,3	94,987
736,7	93,387
737,1	93,507
737,6	90,267
738	93,347
738,4	84,187
738,9	84,747
739,3	85,187
739,7	86,467
740,2	81,907
740,6	91,427
741,1	88,387
741,5	87,387
741,9	84,987
742,4	83,147
742,8	73,227
743,2	68,827
743,7	65,947
744,1	64,507
744,5	66,827
745	65,627
745,4	69,787
745,8	72,907
746,3	73,707
746,7	70,187
747,2	69,787
747,6	69,307
748	65,307
748,5	67,627
748,9	67,507
749,3	70,627
749,8	69,147
750,2	68,947
750,6	62,387
751,1	57,067
751,5	57,427
751,9	57,507
752,4	51,067
752,8	54,747
753,3	56,467
753,7	53,387
754,1	51,507
754,6	53,307
755	50,187
755,4	56,507
755,9	49,947
756,3	43,787
756,7	46,747
757,2	43,147
757,6	38,187
758	44,867
758,5	52,987
758,9	52,147
759,3	56,587
759,8	58,227
760,2	59,027
760,6	53,107
761,1	58,467
761,5	58,147
761,9	58,347
762,4	56,267
762,8	52,427
763,3	46,907
763,7	50,467
764,1	49,987
764,6	49,547
765	51,147
765,4	45,627
765,9	45,027
766,3	44,987
766,7	43,547
767,2	46,787
767,6	44,827
768	40,987
768,5	33,867
768,9	35,387
769,3	29,827
769,8	29,947
770,2	29,147
770,6	33,067
771,1	30,947
771,5	33,067
771,9	38,027
772,4	38,787
772,8	44,587
773,2	37,827
773,7	41,347
774,1	36,707
774,5	29,947
775	25,547
775,4	34,507
775,8	33,227
776,3	36,427
776,7	36,747
777,1	35,107
777,6	28,827
778	23,547
778,4	28,467
778,9	31,627
779,3	32,347
779,7	33,747
780,2	35,787
780,6	33,987
781	34,307
781,5	34,787
781,9	34,307
782,3	34,827
782,8	28,227
783,2	21,787
783,6	18,147
784,1	15,147
784,5	11,667
784,9	11,827
785,4	16,627
785,8	11,467
786,2	12,867
786,7	16,867
787,1	17,627
787,5	12,827
788	18,547
788,4	19,427
788,8	16,107
789,3	20,427
789,7	20,507
790,1	17,947
790,6	14,747
791	20,227
791,4	16,747
791,9	19,547
792,3	19,507
792,7	22,067
793,2	17,627
793,6	19,227
794	15,707
794,5	17,987
794,9	21,067
795,3	23,267
795,8	23,067
796,2	25,387
796,6	22,067
797,1	16,787
797,5	13,707
797,9	8,107
798,4	2,987
798,8	5,907
799,2	1,427
799,7	-8,893
800,1	-6,733
800,5	1,467
801	-3,333
801,4	-2,053
801,8	6,627
802,2	7,747
802,7	13,187
803,1	13,107
803,5	17,627
804	18,027
804,4	12,627
804,8	1,227
805,3	-0,053
805,7	-0,053
806,1	-4,013
806,6	4,187
807	10,187
807,4	12,827
807,9	8,667
808,3	12,107
808,7	4,627
809,2	2,947
809,6	1,187
810	2,187
810,4	-0,373
810,9	-1,093
811,3	-7,173
811,7	-5,013
812,2	-9,613
812,6	-11,133
813	-7,893
813,5	-2,773
813,9	-0,813
814,3	3,587
814,8	7,107
815,2	6,787
815,6	4,347
816,1	9,467
816,5	8,267
816,9	7,027
817,3	4,587
817,8	6,587
818,2	0,147
818,6	1,707
819,1	2,667
819,5	4,147
819,9	-3,333
820,4	-7,733
820,8	-7,013
821,2	-11,653
821,7	-11,213
822,1	-11,293
822,5	-3,893
822,9	-5,693
823,4	0,867
823,8	0,867
824,2	2,867
824,7	0,907
825,1	2,227
825,5	-3,733
826	-3,333
826,4	1,587
826,8	-4,013
827,3	-2,693
827,7	-2,453
828,1	-10,893
828,5	-14,413
829	-14,853
829,4	-15,653
829,8	-7,013
830,3	-1,173
830,7	2,067
831,1	5,307
831,6	2,467
832	-1,813
832,4	-3,693
832,8	-4,733
833,3	-3,853
833,7	0,467
834,1	-0,133
834,6	0,187
835	-4,813
835,4	-11,333
835,8	-17,493
836,3	-21,813
836,7	-18,333
837,1	-21,453
837,6	-14,933
838	-15,613
838,4	-11,773
838,9	-12,293
839,3	-7,933
839,7	-7,093
840,1	-6,733
840,6	-12,413
841	-16,013
841,4	-19,053
841,9	-18,013
842,3	-16,853
842,7	-14,733
843,1	-13,973
843,6	-5,533
844	-10,493
844,4	-6,293
844,9	-5,813
845,3	-4,213
845,7	-13,173
846,2	-15,173
846,6	-15,573
847	-22,493
847,4	-22,893
847,9	-22,173
848,3	-22,173
848,7	-23,373
849,2	-18,813
849,6	-20,613
850	-11,293
850,4	-11,413
850,9	-7,573
851,3	-1,773
851,7	1,827
852,2	-9,773
852,6	-12,653
853	-14,733
853,4	-16,293
853,9	-20,533
854,3	-12,213
854,7	-6,493
855,2	-7,173
855,6	-6,813
856	-7,413
856,4	-11,093
856,9	-11,613
857,3	-14,933
857,7	-14,853
858,2	-10,773
858,6	-10,413
859	-9,173
859,4	-11,413
859,9	-11,493
860,3	-14,893
860,7	-11,293
861,1	-16,493
861,6	-11,333
862	-9,733
862,4	-12,213
862,9	-12,573
863,3	-9,333
863,7	-12,133
864,1	-16,213
864,6	-16,053
865	-24,253
865,4	-23,693
865,9	-25,733
866,3	-25,133
866,7	-22,253
867,1	-19,173
867,6	-25,213
868	-20,533
868,4	-19,773
868,8	-30,333
869,3	-28,933
869,7	-27,653
870,1	-25,093
870,6	-24,573
871	-13,333
871,4	-12,413
871,8	-11,813
872,3	-16,093
872,7	-12,933
873,1	-10,973
873,5	-11,173
874	-10,493
874,4	-11,053
874,8	-20,893
875,3	-18,053
875,7	-20,493
876,1	-22,533
876,5	-22,013
877	-16,413
877,4	-17,493
877,8	-13,213
878,2	-11,733
878,7	-18,653
879,1	-20,093
879,5	-28,253
879,9	-32,973
880,4	-32,453
880,8	-26,013
881,2	-29,573
881,7	-31,533
882,1	-28,853
882,5	-22,693
882,9	-27,693
883,4	-27,853
883,8	-24,533
884,2	-22,493
884,6	-31,533
885,1	-30,773
885,5	-27,613
885,9	-29,933
886,3	-28,573
886,8	-24,133
887,2	-22,893
887,6	-22,373
888	-23,933
888,5	-27,173
888,9	-31,133
889,3	-28,133
889,8	-27,893
890,2	-29,693
890,6	-33,533
891	-25,293
891,5	-31,813
891,9	-30,493
892,3	-22,573
892,7	-21,973
893,2	-31,293
893,6	-22,893
894	-22,693
894,4	-23,733
894,9	-21,733
895,3	-14,293
895,7	-14,813
896,1	-21,093
896,6	-22,173
897	-19,813
897,4	-25,813
897,8	-25,773
898,3	-26,253
898,7	-24,973
899,1	-22,933
899,5	-18,213
900	-23,093
900,4	-15,013
900,8	-15,893
901,2	-22,293
901,7	-22,093
902,1	-16,613
902,5	-25,493
902,9	-21,653
903,4	-19,893
903,8	-19,973
904,2	-24,333
904,6	-23,293
905,1	-33,533
905,5	-37,253
905,9	-40,093
906,3	-45,293
906,8	-42,533
907,2	-32,213
907,6	-28,613
908	-28,853
908,5	-29,173
908,9	-26,733
909,3	-29,693
909,7	-25,453
910,2	-22,173
910,6	-11,373
911	-7,293
911,4	-1,733
911,9	-5,333
912,3	-7,333
912,7	-15,613
913,1	-22,613
913,6	-26,053
914	-24,733
914,4	-22,533
914,8	-20,493
915,3	-19,933
915,7	-24,573
916,1	-28,613
916,5	-25,173
916,9	-22,613
917,4	-20,533
917,8	-19,693
918,2	-17,613
918,6	-30,933
919,1	-34,173
919,5	-34,213
919,9	-36,453
920,3	-37,373
920,8	-31,573
921,2	-31,813
921,6	-30,293
922	-28,333
922,5	-29,293
922,9	-24,733
923,3	-23,333
923,7	-25,973
924,2	-31,173
924,6	-28,093
925	-30,693
925,4	-30,093
925,8	-29,733
926,3	-25,813
926,7	-26,693
927,1	-26,413
927,5	-26,013
928	-22,853
928,4	-20,693
928,8	-25,773
929,2	-30,773
929,7	-32,453
930,1	-38,173
930,5	-41,893
930,9	-40,853
931,3	-36,853
931,8	-37,613
932,2	-38,053
932,6	-32,973
933	-35,173
933,5	-35,253
933,9	-38,293
934,3	-33,813
934,7	-37,133
935,2	-35,373
935,6	-37,013
936	-31,973
936,4	-37,013
936,8	-30,493
937,3	-26,613
937,7	-27,093
938,1	-27,373
938,5	-20,493
939	-21,813
939,4	-25,933
939,8	-24,413
940,2	-25,733
940,6	-28,333
941,1	-31,173
941,5	-27,133
941,9	-32,653
942,3	-40,893
942,8	-39,933
943,2	-37,413
943,6	-37,293
944	-31,813
944,4	-24,613
944,9	-28,053
945,3	-30,813
945,7	-35,933
946,1	-34,093
946,6	-28,653
947	-26,973
947,4	-25,333
947,8	-18,053
948,2	-17,733
948,7	-19,093
949,1	-14,853
949,5	-16,613
949,9	-15,933
950,3	-20,613
950,8	-24,333
951,2	-30,133
951,6	-32,693
952	-35,373
952,5	-34,173
952,9	-37,933
953,3	-36,093
953,7	-32,893
954,1	-28,573
954,6	-26,413
955	-23,253
955,4	-26,373
955,8	-29,133
956,2	-31,853
956,7	-31,613
957,1	-25,693
957,5	-27,213
957,9	-21,053
958,3	-23,533
958,8	-19,693
959,2	-25,853
959,6	-19,653
960	-26,413
960,5	-32,213
960,9	-33,173
961,3	-29,733
961,7	-35,093
962,1	-29,693
962,6	-20,853
963	-23,733
963,4	-29,773
963,8	-23,093
964,2	-27,413
964,7	-29,093
965,1	-30,573
965,5	-18,893
965,9	-26,053
966,3	-30,693
966,8	-33,933
967,2	-34,293
967,6	-43,293
968	-39,853
968,4	-36,173
968,9	-27,333
969,3	-32,293
969,7	-22,773
970,1	-20,293
970,5	-18,453
971	-29,013
971,4	-18,733
971,8	-31,813
972,2	-31,213
972,6	-30,373
973,1	-27,533
973,5	-30,173
973,9	-22,133
974,3	-28,813
974,7	-25,053
975,2	-21,173
975,6	-23,653
976	-25,613
976,4	-15,373
976,8	-22,173
977,3	-26,053
977,7	-23,333
978,1	-25,093
978,5	-33,173
978,9	-35,933
979,4	-32,933
979,8	-34,893
980,2	-34,653
980,6	-30,973
981	-25,413
981,5	-29,893
981,9	-29,613
982,3	-26,573
982,7	-27,373
983,1	-25,013
983,6	-21,573
984	-23,213
984,4	-26,173
984,8	-31,813
985,2	-35,733
985,6	-38,213
986,1	-31,013
986,5	-29,893
986,9	-22,973
987,3	-24,653
987,7	-25,453
988,2	-31,813
988,6	-27,573
989	-29,973
989,4	-29,093
989,8	-28,413
990,3	-21,173
990,7	-22,133
991,1	-24,413
991,5	-24,533
991,9	-21,013
992,3	-25,733
992,8	-32,853
993,2	-26,933
993,6	-23,493
994	-29,293
994,4	-33,773
994,9	-36,173
995,3	-44,133
995,7	-44,373
996,1	-38,173
996,5	-33,573
996,9	-29,013
997,4	-21,373
997,8	-23,973
998,2	-21,773
998,6	-26,573
999	-19,693
999,5	-23,093
999,9	-21,013
1000,3	-25,853
1000,7	-21,213
1001,1	-23,493
1001,5	-26,533
1002	-30,933
1002,4	-31,093
1002,8	-32,533
1003,2	-34,013
1003,6	-31,893
1004	-25,773
1004,5	-24,933
1004,9	-23,053
1005,3	-26,893
1005,7	-26,573
1006,1	-29,973
1006,6	-26,133
1007	-31,133
1007,4	-28,413
1007,8	-30,533
1008,2	-30,933
1008,6	-36,333
1009,1	-37,933
1009,5	-37,973
1009,9	-36,013
1010,3	-33,133
1010,7	-31,813
1011,1	-29,173
1011,6	-26,973
1012	-29,533
1012,4	-28,853
1012,8	-29,333
1013,2	-30,733
1013,6	-32,773
1014,1	-26,413
1014,5	-31,933
1014,9	-34,213
1015,3	-27,893
1015,7	-32,493
1016,1	-35,773
1016,6	-37,253
1017	-34,733
1017,4	-42,893
1017,8	-35,453
1018,2	-40,253
1018,6	-37,813
1019,1	-39,213
1019,5	-36,653
1019,9	-38,973
1020,3	-38,973
1020,7	-39,093
1021,1	-38,573
1021,6	-30,333
1022	-34,933
1022,4	-28,133
1022,8	-19,493
1023,2	-22,333
1023,6	-24,653
1024,1	-18,773
1024,5	-19,013
1024,9	-26,653
1025,3	-21,373
1025,7	-27,653
1026,1	-36,733
1026,6	-42,133
1027	-40,333
1027,4	-41,973
1027,8	-39,533
1028,2	-27,653
1028,6	-26,533
1029	-29,133
1029,5	-28,533
1029,9	-29,573
1030,3	-35,373
1030,7	-32,893
1031,1	-28,213
1031,5	-30,133
1032	-37,533
1032,4	-35,733
1032,8	-36,893
1033,2	-39,413
1033,6	-36,013
1034	-29,493
1034,4	-32,453
1034,9	-30,213
1035,3	-28,213
1035,7	-33,573
1036,1	-36,613
1036,5	-35,573
1036,9	-30,493
1037,4	-40,213
1037,8	-29,373
1038,2	-21,813
1038,6	-17,293
1039	-23,173
1039,4	-11,053
1039,8	-21,653
1040,3	-29,693
1040,7	-33,493
1041,1	-39,453
1041,5	-48,813
1041,9	-51,053
1042,3	-44,253
1042,7	-50,693
1043,2	-41,733
1043,6	-39,533
1044	-27,973
1044,4	-26,733
1044,8	-21,213
1045,2	-30,533
1045,6	-29,693
1046,1	-36,653
1046,5	-39,373
1046,9	-40,653
1047,3	-37,973
1047,7	-34,213
1048,1	-35,173
1048,5	-38,533
1049	-35,573
1049,4	-32,533
1049,8	-38,413
1050,2	-35,733
1050,6	-39,293
1051	-34,133
1051,4	-33,093
1051,9	-28,333
1052,3	-27,813
1052,7	-19,773
1053,1	-29,053
1053,5	-28,013
1053,9	-28,453
1054,3	-32,373
1054,8	-42,613
1055,2	-44,013
1055,6	-45,373
1056	-45,373
1056,4	-43,173
1056,8	-37,813
1057,2	-32,013
1057,6	-37,973
1058,1	-41,333
1058,5	-43,853
1058,9	-38,093
1059,3	-36,653
1059,7	-28,733
1060,1	-24,133
1060,5	-19,893
1061	-21,373
1061,4	-21,173
1061,8	-24,613
1062,2	-24,893
1062,6	-34,413
1063	-36,133
1063,4	-37,253
1063,8	-37,773
1064,3	-43,813
1064,7	-32,293
1065,1	-30,733
1065,5	-32,933
1065,9	-32,733
1066,3	-32,413
1066,7	-37,893
1067,1	-37,653
1067,6	-40,973
1068	-35,333
1068,4	-31,773
1068,8	-27,453
1069,2	-24,773
1069,6	-19,253
1070	-19,773
1070,4	-21,373
1070,9	-21,373
1071,3	-27,293
1071,7	-27,773
1072,1	-32,413
1072,5	-30,853
1072,9	-36,333
1073,3	-29,533
1073,7	-23,573
1074,2	-24,053
1074,6	-23,013
1075	-15,053
1075,4	-15,973
1075,8	-23,333
1076,2	-22,093
1076,6	-19,093
1077	-22,053
1077,5	-21,453
1077,9	-19,173
1078,3	-22,733
1078,7	-21,853
1079,1	-23,053
1079,5	-27,573
1079,9	-29,413
1080,3	-26,173
1080,7	-31,333
1081,2	-31,333
1081,6	-27,133
1082	-27,773
1082,4	-27,973
1082,8	-23,093
1083,2	-21,293
1083,6	-27,533
1084	-25,333
1084,5	-27,653
1084,9	-26,493
1085,3	-31,053
1085,7	-27,613
1086,1	-27,893
1086,5	-30,413
1086,9	-31,813
1087,3	-28,933
1087,7	-25,893
1088,2	-26,373
1088,6	-17,413
1089	-20,133
1089,4	-19,493
1089,8	-19,853
1090,2	-19,973
1090,6	-26,493
1091	-27,253
1091,4	-30,613
1091,9	-30,333
1092,3	-31,053
1092,7	-25,773
1093,1	-25,573
1093,5	-27,653
1093,9	-29,573
1094,3	-30,933
1094,7	-30,453
1095,1	-28,973
1095,5	-25,853
1096	-30,453
1096,4	-28,053
1096,8	-28,733
1097,2	-28,213
1097,6	-27,373
1098	-23,093
1098,4	-21,413
1098,8	-24,773
1099,2	-23,853
1099,6	-27,893
1100,1	-25,773
1100,5	-21,573
1100,9	-23,493
1101,3	-24,493
1101,7	-16,053
1102,1	-20,733
1102,5	-28,853
1102,9	-19,733
1103,3	-18,133
1103,7	-19,413
1104,2	-17,493
1104,6	-15,693
1105	-17,773
1105,4	-16,453
1105,8	-18,493
1106,2	-13,013
1106,6	-7,493
1107	-5,773
1107,4	-4,293
1107,8	0,917
1108,3	0,8
