Data from Subt2_00007.txt Node
Date: Fri Aug 11 15:18:35 MSK 2023
User: vat
Spectrometer: MAYP114033
Trigger mode: 0
Integration Time (sec): 5,000000E-1
Scans to average: 5
Electric dark correction enabled: true
Nonlinearity correction enabled: false
Boxcar width: 2
XAxis mode: Wavelengths
Number of Pixels in Spectrum: 2068
>>>>>Begin Spectral Data<<<<<
199,4	-2,767
199,9	-1,55
200,4	-9,42
200,8	-12,78
201,3	-21,58
201,8	-24,86
202,2	-27,86
202,7	-24,82
203,2	-24,5
203,6	-19,94
204,1	-24,3
204,6	-30,78
205	-32,7
205,5	-37,06
206	-37,1
206,4	-36,82
206,9	-34,78
207,4	-37,66
207,8	-36,58
208,3	-38,14
208,8	-35,86
209,2	-40,02
209,7	-42,5
210,2	-46,62
210,6	-47,42
211,1	-55,02
211,5	-51,34
212	-48,7
212,5	-45,7
212,9	-42,82
213,4	-31,94
213,9	-30,9
214,3	-31,7
214,8	-30,42
215,3	-31,22
215,7	-38,22
216,2	-33,66
216,7	-33,14
217,1	-34,9
217,6	-36,98
218,1	-34,94
218,5	-40,5
219	-36,7
219,5	-40,7
219,9	-46,3
220,4	-45,66
220,9	-45,3
221,3	-44,74
221,8	-41,14
222,3	-38,98
222,7	-39,82
223,2	-40,26
223,6	-45,86
224,1	-47,62
224,6	-43,3
225	-39,94
225,5	-38,94
226	-37,78
226,4	-37,3
226,9	-39,7
227,4	-49,58
227,8	-49,94
228,3	-53,18
228,8	-54,34
229,2	-54,5
229,7	-46,22
230,2	-51,38
230,6	-44,54
231,1	-42,42
231,5	-45,26
232	-46,78
232,5	-52,7
232,9	-54,78
233,4	-49,78
233,9	-44,98
234,3	-46,06
234,8	-35,94
235,3	-38,9
235,7	-38,54
236,2	-43,54
236,7	-45,02
237,1	-44,7
237,6	-41,18
238,1	-42,1
238,5	-43,94
239	-47,58
239,4	-49,94
239,9	-48,18
240,4	-52,18
240,8	-48,06
241,3	-40,82
241,8	-39,38
242,2	-43,7
242,7	-45,9
243,2	-43,54
243,6	-49,86
244,1	-52,14
244,6	-54,9
245	-48,66
245,5	-54,94
245,9	-56,78
246,4	-55,94
246,9	-55,7
247,3	-60,98
247,8	-54,82
248,3	-39,54
248,7	-39,14
249,2	-35,9
249,7	-34,94
250,1	-39,98
250,6	-49,1
251	-48,94
251,5	-55,98
252	-60,18
252,4	-54,7
252,9	-57,34
253,4	-53,66
253,8	-40,86
254,3	-43,5
254,8	-44,58
255,2	-42,3
255,7	-46,18
256,1	-51,38
256,6	-43,82
257,1	-51,58
257,5	-51,38
258	-55,5
258,5	-58,22
258,9	-58,02
259,4	-48,14
259,9	-47,42
260,3	-41,02
260,8	-40,7
261,2	-43,86
261,7	-47,14
262,2	-45,46
262,6	-52,06
263,1	-51,62
263,6	-52,38
264	-57,5
264,5	-61,86
264,9	-51,9
265,4	-45,9
265,9	-47,82
266,3	-40,26
266,8	-40,9
267,3	-45,86
267,7	-48,62
268,2	-46,02
268,7	-47,5
269,1	-40,62
269,6	-40,58
270	-43,7
270,5	-38,94
271	-42,86
271,4	-47,7
271,9	-48,5
272,4	-41,26
272,8	-47,02
273,3	-39,74
273,7	-41,78
274,2	-37,22
274,7	-44,66
275,1	-40,38
275,6	-38,78
276,1	-39,1
276,5	-40,22
277	-34,46
277,4	-34,5
277,9	-46,46
278,4	-48,78
278,8	-50,42
279,3	-51,26
279,8	-51,46
280,2	-44,7
280,7	-38,1
281,1	-38,86
281,6	-38,9
282,1	-42,82
282,5	-42,06
283	-45,78
283,4	-43,54
283,9	-44,94
284,4	-44,86
284,8	-45,98
285,3	-41,62
285,8	-45,5
286,2	-45,42
286,7	-40,58
287,1	-41,26
287,6	-43,74
288,1	-45,02
288,5	-42,58
289	-45,78
289,5	-50,06
289,9	-45,26
290,4	-42,7
290,8	-44,54
291,3	-39,82
291,8	-32,34
292,2	-44,38
292,7	-42,7
293,1	-40,38
293,6	-43,22
294,1	-52,14
294,5	-49,22
295	-47,98
295,5	-46,98
295,9	-44,58
296,4	-37,18
296,8	-29,38
297,3	-31,46
297,8	-35,3
298,2	-45,02
298,7	-50,94
299,1	-53,58
299,6	-53,5
300,1	-55,62
300,5	-48,46
301	-44,22
301,5	-43,9
301,9	-41,06
302,4	-37,06
302,8	-38,46
303,3	-39,38
303,8	-42,02
304,2	-40,86
304,7	-42,94
305,1	-40,82
305,6	-39,5
306,1	-41,66
306,5	-50,38
307	-49,46
307,4	-47,06
307,9	-45,86
308,4	-42,26
308,8	-38,78
309,3	-40,9
309,8	-46,94
310,2	-50,22
310,7	-51,5
311,1	-52,94
311,6	-55,66
312,1	-48,18
312,5	-47,58
313	-42,66
313,4	-43,14
313,9	-42,26
314,4	-43,9
314,8	-37,46
315,3	-40,66
315,7	-41,58
316,2	-31,86
316,7	-35,78
317,1	-39,18
317,6	-40,66
318	-35,06
318,5	-44,42
319	-41,42
319,4	-46,7
319,9	-41,74
320,3	-42,9
320,8	-41,22
321,3	-40,3
321,7	-29,78
322,2	-32,3
322,6	-37,18
323,1	-37,66
323,6	-42,14
324	-47,54
324,5	-46,58
324,9	-41,94
325,4	-39,82
325,9	-42,22
326,3	-39,42
326,8	-43,98
327,2	-42,86
327,7	-46,54
328,2	-44,06
328,6	-49,06
329,1	-48,98
329,5	-51,58
330	-47,9
330,5	-45,86
330,9	-44,94
331,4	-42,1
331,8	-38,94
332,3	-39,1
332,8	-35,14
333,2	-37,14
333,7	-37,22
334,1	-36,62
334,6	-38,86
335,1	-42,7
335,5	-36,5
336	-42,3
336,4	-44,3
336,9	-41,46
337,4	-37,7
337,8	-42,98
338,3	-39,9
338,7	-44,14
339,2	-47,58
339,7	-51,86
340,1	-50,9
340,6	-49,7
341	-46,3
341,5	-43,3
342	-40,82
342,4	-43,46
342,9	-40,94
343,3	-45,74
343,8	-51,94
344,2	-54,18
344,7	-51,5
345,2	-49,18
345,6	-43,38
346,1	-37,06
346,5	-37,94
347	-37,82
347,5	-43,34
347,9	-41,38
348,4	-41,94
348,8	-37,34
349,3	-38,06
349,8	-35,74
350,2	-38,06
350,7	-35,26
351,1	-36,94
351,6	-31,7
352	-28,34
352,5	-20,5
353	-14,98
353,4	-6,82
353,9	8,26
354,3	25,78
354,8	40,1
355,3	53,94
355,7	77,42
356,2	95,14
356,6	119,66
357,1	149,1
357,5	187,46
358	223,18
358,5	265,9
358,9	310,94
359,4	366,42
359,8	428,58
360,3	501,18
360,8	581,78
361,2	663,62
361,7	756,42
362,1	852,18
362,6	955,9
363	1068,5
363,5	1204,66
364	1344,62
364,4	1479,62
364,9	1620,18
365,3	1760,74
365,8	1887,86
366,3	1993,5
366,7	2099,34
367,2	2190,86
367,6	2261,42
368,1	2308,26
368,5	2348,02
369	2362,82
369,5	2350,18
369,9	2324,06
370,4	2279,06
370,8	2216,38
371,3	2152,34
371,7	2065,86
372,2	1968,5
372,7	1864,1
373,1	1758,34
373,6	1640,7
374	1521,34
374,5	1417,42
374,9	1312,34
375,4	1204,02
375,9	1106,38
376,3	1023,94
376,8	931,38
377,2	852,14
377,7	777,1
378,2	705,42
378,6	637,1
379,1	574,9
379,5	522,86
380	473,06
380,4	431,3
380,9	393,54
381,4	359,74
381,8	324,22
382,3	293,34
382,7	264,1
383,2	241,5
383,6	218,42
384,1	202,26
384,6	185,38
385	172,38
385,5	159,66
385,9	145,86
386,4	129,02
386,8	125,18
387,3	110,5
387,7	93,46
388,2	85,06
388,7	75,06
389,1	62,78
389,6	56,42
390	50,94
390,5	37,7
390,9	30,78
391,4	20,18
391,9	7,46
392,3	1,02
392,8	0,94
393,2	-3,82
393,7	-5,94
394,1	-2,06
394,6	3,14
395,1	0,62
395,5	-0,14
396	1,14
396,4	-4,54
396,9	-6,62
397,3	-9,98
397,8	-7,74
398,2	-15,1
398,7	-11,86
399,2	-17,46
399,6	-19,26
400,1	-29,54
400,5	-28,54
401	-32,66
401,4	-27,94
401,9	-25,78
402,4	-24,14
402,8	-22,74
403,3	-17,42
403,7	-26,9
404,2	-30,34
404,6	-31,3
405,1	-36,18
405,5	-37,5
406	-35,42
406,5	-26,86
406,9	-27,18
407,4	-22,46
407,8	-23,7
408,3	-26,9
408,7	-38,14
409,2	-37,78
409,6	-38,98
410,1	-36,66
410,6	-28,26
411	-24,62
411,5	-18,38
411,9	-17,78
412,4	-16,5
412,8	-14,06
413,3	-14,74
413,7	-18,78
414,2	-13,9
414,7	-22,38
415,1	-30,5
415,6	-24,9
416	-18,62
416,5	-19,14
416,9	-17,62
417,4	-13,46
417,8	-9,46
418,3	-7,14
418,8	-7,22
419,2	-1,94
419,7	-2,42
420,1	-8,54
420,6	-13,54
421	-12,22
421,5	-12,82
421,9	-12,02
422,4	-9,46
422,8	-8,9
423,3	-17,82
423,8	-9,66
424,2	-10,3
424,7	-11,18
425,1	-12,46
425,6	-9,34
426	-16,7
426,5	-13,1
426,9	-12,06
427,4	-10,06
427,9	-4,7
428,3	-9,14
428,8	-16,46
429,2	-17,42
429,7	-14,74
430,1	-17,02
430,6	-11,78
431	-11,1
431,5	-11,86
431,9	-13,06
432,4	-16,02
432,8	-11,7
433,3	-3,9
433,8	-2,66
434,2	-6,86
434,7	-2,5
435,1	-7,42
435,6	-7,78
436	-8,5
436,5	-0,18
436,9	3,1
437,4	3,1
437,8	1,86
438,3	3,3
438,8	-0,5
439,2	5,06
439,7	6,02
440,1	10,22
440,6	13,3
441	13,58
441,5	14,26
441,9	16,66
442,4	16,38
442,8	19,1
443,3	24,14
443,7	16,02
444,2	20,02
444,7	20,62
445,1	17,98
445,6	21,94
446	31,54
446,5	34,7
446,9	36,82
447,4	41,14
447,8	39,38
448,3	35,9
448,7	37,74
449,2	42,82
449,6	44,98
450,1	46,82
450,6	53,26
451	56,06
451,5	52,18
451,9	57,78
452,4	65,58
452,8	70,62
453,3	73,86
453,7	80,94
454,2	81,9
454,6	84,54
455,1	85,94
455,5	92,78
456	95,58
456,4	96,46
456,9	92,38
457,3	97,42
457,8	92,42
458,3	103,46
458,7	113,06
459,2	125,14
459,6	134,86
460,1	137,22
460,5	134,34
461	134,34
461,4	140,78
461,9	133,5
462,3	145,02
462,8	152,46
463,2	159,02
463,7	157,46
464,1	165,82
464,6	172,38
465	181,06
465,5	187,54
466	195,5
466,4	201,62
466,9	207,1
467,3	211,18
467,8	213,98
468,2	216,3
468,7	214,86
469,1	216,78
469,6	219,82
470	227,9
470,5	233,62
470,9	242,38
471,4	242,1
471,8	242,5
472,3	240,94
472,7	248,78
473,2	251,3
473,6	260,5
474,1	273,9
474,5	280,78
475	278,98
475,4	280,9
475,9	278,86
476,4	273,06
476,8	278,9
477,3	279,98
477,7	288,14
478,2	292,86
478,6	292,58
479,1	294,82
479,5	299,54
480	302,1
480,4	304,98
480,9	309,14
481,3	309,42
481,8	313,38
482,2	314,9
482,7	313,42
483,1	318,38
483,6	316,74
484	319,66
484,5	317,42
484,9	318,54
485,4	316,78
485,8	323,7
486,3	325,7
486,7	331,58
487,2	335,14
487,6	337,98
488,1	336,02
488,5	332,46
489	332,42
489,4	329,9
489,9	328,7
490,4	331,3
490,8	331,34
491,3	330,74
491,7	338,38
492,2	340,38
492,6	345,62
493,1	346,54
493,5	347,78
494	344,38
494,4	342,78
494,9	332,02
495,3	332,14
495,8	325,82
496,2	321,18
496,7	321,82
497,1	327,38
497,6	325,94
498	332,14
498,5	340,66
498,9	337,82
499,4	331,98
499,8	328,58
500,3	315,86
500,7	315,02
501,2	320,46
501,6	318,1
502,1	322,26
502,5	332,78
503	323,86
503,4	314,14
503,9	315,9
504,3	306,02
504,8	297,98
505,2	303,54
505,7	304,38
506,1	305,62
506,6	309,26
507	309,22
507,5	308,7
507,9	300,34
508,4	298,78
508,8	297,02
509,3	289,62
509,7	282,7
510,2	287,06
510,6	282,42
511,1	281,82
511,5	284,78
512	280,74
512,4	277,18
512,9	270,82
513,3	263,06
513,8	263,74
514,2	265,58
514,7	260,46
515,1	264,58
515,6	266,62
516	266,3
516,5	260,34
516,9	257,94
517,4	254,02
517,8	256,26
518,3	253,34
518,7	247,26
519,2	258,78
519,6	255,46
520,1	252,3
520,5	247,46
521	245,26
521,4	233,86
521,9	226,06
522,3	217,34
522,8	218,22
523,2	224,14
523,7	226,82
524,1	222,66
524,6	223,18
525	211,22
525,5	200,3
525,9	197,94
526,4	198,78
526,8	196,22
527,3	194,82
527,7	197,78
528,2	192,54
528,6	191,06
529,1	184,3
529,5	189,18
530	186,58
530,4	181,14
530,9	186,06
531,3	192,26
531,8	188,06
532,2	185,38
532,6	189,18
533,1	186,14
533,5	182,26
534	175,26
534,4	172,98
534,9	167,66
535,3	164,66
535,8	162,78
536,2	167,9
536,7	164,3
537,1	158,86
537,6	155,26
538	154,3
538,5	153,26
538,9	152,94
539,4	156,58
539,8	153,42
540,3	150,58
540,7	148,94
541,2	146,02
541,6	144,06
542,1	142,3
542,5	142,86
543	142,78
543,4	144,7
543,9	146,3
544,3	147,1
544,8	139,94
545,2	134,78
545,7	127,78
546,1	119,42
546,5	115,54
547	120,86
547,4	120,54
547,9	119,94
548,3	119,02
548,8	128,42
549,2	122,5
549,7	123,18
550,1	125,78
550,6	121,22
551	110,74
551,5	113,78
551,9	111,62
552,4	107,42
552,8	111,7
553,3	109,26
553,7	109,26
554,2	106,38
554,6	110,02
555,1	109,14
555,5	118,38
555,9	110,46
556,4	108,42
556,8	112,38
557,3	111,26
557,7	102,06
558,2	104,7
558,6	107,3
559,1	98,98
559,5	95,26
560	96,42
560,4	94,46
560,9	96,02
561,3	100,22
561,8	97,18
562,2	92,58
562,7	84,3
563,1	76,1
563,6	67,42
564	70,82
564,4	73,18
564,9	83,42
565,3	87,18
565,8	86,22
566,2	86,98
566,7	82,58
567,1	75,06
567,6	69,54
568	69,54
568,5	70,78
568,9	70,74
569,4	74,46
569,8	78,26
570,3	84,54
570,7	85,7
571,1	90,66
571,6	88,9
572	87,1
572,5	77,22
572,9	72,1
573,4	65,42
573,8	67,06
574,3	62,46
574,7	66,82
575,2	64,58
575,6	61,46
576,1	57,78
576,5	61,78
576,9	56,98
577,4	53,38
577,8	56,82
578,3	59,18
578,7	58,1
579,2	61,9
579,6	63,78
580,1	62,02
580,5	57,1
581	55,54
581,4	52,1
581,9	49,74
582,3	48,74
582,7	49,22
583,2	44,02
583,6	46,26
584,1	48,78
584,5	50,14
585	51,5
585,4	53,22
585,9	50,26
586,3	47,94
586,8	45,98
587,2	42,7
587,6	46,42
588,1	48,54
588,5	54,78
589	52,94
589,4	50,82
589,9	49,62
590,3	42,9
590,8	32,58
591,2	30,62
591,7	38,66
592,1	38,62
592,5	43,62
593	47,46
593,4	50,54
593,9	44,38
594,3	41,78
594,8	41,22
595,2	43,18
595,7	45,66
596,1	48,82
596,6	52,06
597	47,34
597,4	46,3
597,9	44,06
598,3	31,02
598,8	30,7
599,2	29,66
599,7	31,62
600,1	27,06
600,6	26,7
601	25,54
601,4	29,34
601,9	22,66
602,3	21,3
602,8	31,3
603,2	27,78
603,7	24,1
604,1	27,18
604,6	33,7
605	30,86
605,4	27,62
605,9	32,98
606,3	30,22
606,8	27,3
607,2	22,82
607,7	26,34
608,1	18,7
608,6	16,78
609	11,18
609,4	13,26
609,9	9,82
610,3	10,26
610,8	13,38
611,2	11,58
611,7	12,74
612,1	12,1
612,6	9,94
613	8,26
613,4	15,26
613,9	8,86
614,3	6,66
614,8	13,62
615,2	12,22
615,7	8,9
616,1	18,94
616,6	19,26
617	14,06
617,4	14,46
617,9	18,98
618,3	17,82
618,8	20,3
619,2	21,82
619,7	24,98
620,1	22,26
620,5	16,42
621	11,58
621,4	15,1
621,9	7,82
622,3	-0,06
622,8	1,06
623,2	0,82
623,6	3,38
624,1	3,06
624,5	8,58
625	3,82
625,4	6,3
625,9	-4,42
626,3	2,02
626,8	-3,86
627,2	-0,06
627,6	3,18
628,1	0,26
628,5	-8,34
629	-4,34
629,4	-3,54
629,9	-2,9
630,3	2,66
630,7	6,02
631,2	5,82
631,6	3,1
632,1	5,54
632,5	1,3
633	-1,46
633,4	-0,14
633,8	-1,78
634,3	-7,06
634,7	-3,86
635,2	-3,02
635,6	-3,06
636,1	-0,14
636,5	-9,34
636,9	-11,58
637,4	-13,54
637,8	-11,22
638,3	-13,06
638,7	-5,02
639,2	-0,26
639,6	10,78
640	7,06
640,5	8,82
640,9	8,42
641,4	11,38
641,8	4,98
642,2	4,46
642,7	1,82
643,1	-3,5
643,6	-11,46
644	-6,1
644,5	-4,58
644,9	-5,06
645,3	-5,98
645,8	-1,98
646,2	-8,02
646,7	-9,5
647,1	-6,5
647,6	-4,5
648	-7,18
648,4	-3,82
648,9	-4,46
649,3	-5,06
649,8	-3,78
650,2	-0,14
650,6	-1,26
651,1	-2,38
651,5	-1,78
652	-3,18
652,4	-4,22
652,9	-4,86
653,3	-0,38
653,7	-3,06
654,2	-1,86
654,6	-4,86
655,1	-12,26
655,5	-12,82
655,9	-6,7
656,4	-0,38
656,8	1,22
657,3	4,06
657,7	3,38
658,2	1,74
658,6	-3,58
659	-3,82
659,5	3,22
659,9	1,86
660,4	-4,66
660,8	-2,1
661,2	-3,94
661,7	-8,82
662,1	-15,02
662,6	-11,82
663	-18,82
663,4	-18,62
663,9	-19,02
664,3	-15,62
664,8	-17,42
665,2	-13,66
665,6	-11,34
666,1	-10,98
666,5	-10,18
667	-9,22
667,4	-11,58
667,9	-12,22
668,3	-12,9
668,7	-8,18
669,2	-14,18
669,6	-12,42
670,1	-10,22
670,5	-14,22
670,9	-20,9
671,4	-14,9
671,8	-16,58
672,3	-22,38
672,7	-13,14
673,1	-10,1
673,6	-10,74
674	-10,14
674,5	-9,9
674,9	-19,06
675,3	-21,74
675,8	-20,3
676,2	-17,54
676,7	-16,86
677,1	-12,46
677,5	-8,06
678	-12,58
678,4	-14,34
678,9	-19,82
679,3	-18,74
679,7	-24,98
680,2	-17,06
680,6	-15,3
681,1	-13,06
681,5	-14,3
681,9	-13,02
682,4	-18,66
682,8	-25,74
683,3	-19,18
683,7	-23,66
684,1	-21,22
684,6	-15,94
685	-9,3
685,5	-16,18
685,9	-12,3
686,3	-11,62
686,8	-21,98
687,2	-23,26
687,7	-15,7
688,1	-18,38
688,5	-21,74
689	-22,74
689,4	-23,98
689,9	-30,78
690,3	-26,06
690,7	-27,42
691,2	-13,34
691,6	-12,58
692	-8,42
692,5	-7,58
692,9	-2,94
693,4	-12,66
693,8	-9,34
694,2	-12,26
694,7	-14,74
695,1	-18,02
695,6	-20,02
696	-20,5
696,4	-20,02
696,9	-19,9
697,3	-18,26
697,8	-12,82
698,2	-15,86
698,6	-16,62
699,1	-17,66
699,5	-22,42
699,9	-24,82
700,4	-29,06
700,8	-27,82
701,3	-31,9
701,7	-28,06
702,1	-27,86
702,6	-28,3
703	-27,9
703,5	-26,5
703,9	-28,02
704,3	-28,42
704,8	-24,98
705,2	-26,34
705,6	-24,3
706,1	-16,9
706,5	-20,98
707	-19,34
707,4	-20,18
707,8	-16,86
708,3	-21,46
708,7	-15,58
709,2	-22,3
709,6	-15,94
710	-21,1
710,5	-21,38
710,9	-24,42
711,3	-21,22
711,8	-23,02
712,2	-20,9
712,7	-24,14
713,1	-19,02
713,5	-14,22
714	-22,34
714,4	-21,98
714,8	-21,02
715,3	-28,9
715,7	-23,82
716,2	-19,74
716,6	-23,22
717	-23,58
717,5	-22,78
717,9	-28,38
718,3	-24,66
718,8	-20,7
719,2	-15,94
719,7	-17,98
720,1	-22,1
720,5	-26,3
721	-32,46
721,4	-33,86
721,8	-25,5
722,3	-17,86
722,7	-19,06
723,2	-17,06
723,6	-19,38
724	-21,82
724,5	-25,9
724,9	-18,78
725,3	-18,42
725,8	-17,14
726,2	-19,5
726,7	-18,86
727,1	-24,3
727,5	-16,62
728	-18,14
728,4	-19,78
728,8	-19,9
729,3	-22,38
729,7	-28,54
730,1	-27,78
730,6	-26,26
731	-25,5
731,5	-23,06
731,9	-21,62
732,3	-20,94
732,8	-23,34
733,2	-28,34
733,6	-28,94
734,1	-30,5
734,5	-31,02
734,9	-27,94
735,4	-27,18
735,8	-24,58
736,3	-23,22
736,7	-24,82
737,1	-25,54
737,6	-26,78
738	-31,66
738,4	-39,34
738,9	-38,26
739,3	-34,94
739,7	-35,9
740,2	-30,7
740,6	-22,18
741,1	-22,7
741,5	-22,7
741,9	-19,7
742,4	-23,5
742,8	-30,18
743,2	-35,26
743,7	-37,26
744,1	-35,14
744,5	-35,7
745	-32,9
745,4	-27,54
745,8	-25,7
746,3	-29,1
746,7	-31,02
747,2	-31,82
747,6	-28,14
748	-29,62
748,5	-27,5
748,9	-25,7
749,3	-22,42
749,8	-24,62
750,2	-25,06
750,6	-29,94
751,1	-33,54
751,5	-36,3
751,9	-35,74
752,4	-35,22
752,8	-30,14
753,3	-27,26
753,7	-24,38
754,1	-31,54
754,6	-32,3
755	-33,98
755,4	-31,18
755,9	-38,94
756,3	-37,9
756,7	-35,58
757,2	-36,98
757,6	-38,94
758	-35,5
758,5	-27,06
758,9	-26,42
759,3	-27,74
759,8	-26,74
760,2	-22,3
760,6	-33,62
761,1	-36,3
761,5	-31,58
761,9	-31,58
762,4	-30,74
762,8	-30,5
763,3	-24,82
763,7	-26,38
764,1	-26,06
764,6	-32,98
765	-24,5
765,4	-31,38
765,9	-27,34
766,3	-28,82
766,7	-22,06
767,2	-26,82
767,6	-31,1
768	-27,74
768,5	-29,06
768,9	-29,5
769,3	-25,58
769,8	-23,9
770,2	-29,26
770,6	-27,5
771,1	-28,62
771,5	-29,54
771,9	-26,14
772,4	-29,46
772,8	-23,06
773,2	-29,14
773,7	-28,82
774,1	-31,86
774,5	-34,22
775	-40,22
775,4	-36,38
775,8	-40,3
776,3	-37,34
776,7	-39,78
777,1	-41,1
777,6	-43,38
778	-42,82
778,4	-38,34
778,9	-34,7
779,3	-31,86
779,7	-31,18
780,2	-25,66
780,6	-31,02
781	-30,06
781,5	-33,22
781,9	-38,42
782,3	-44,58
782,8	-41,46
783,2	-43,58
783,6	-41,62
784,1	-37,74
784,5	-42,34
784,9	-46,14
785,4	-41,46
785,8	-44,06
786,2	-42,06
786,7	-32,3
787,1	-27,7
787,5	-27,58
788	-27,9
788,4	-29,62
788,8	-34,18
789,3	-33,22
789,7	-34,46
790,1	-34,3
790,6	-27,54
791	-29,54
791,4	-28,7
791,9	-30,9
792,3	-32,74
792,7	-38,9
793,2	-38,1
793,6	-45,9
794	-45,5
794,5	-42,42
794,9	-35,18
795,3	-29,9
795,8	-24,62
796,2	-24,02
796,6	-23,78
797,1	-28,26
797,5	-33,34
797,9	-38,62
798,4	-42,7
798,8	-41,3
799,2	-43,3
799,7	-42,7
800,1	-38,66
800,5	-35,66
801	-40,5
801,4	-42,46
801,8	-43,14
802,2	-45,54
802,7	-36,34
803,1	-33,06
803,5	-31,78
804	-30,98
804,4	-33,5
804,8	-44,26
805,3	-44,42
805,7	-44,26
806,1	-42,82
806,6	-41,38
807	-37,3
807,4	-28,54
807,9	-28,74
808,3	-26,06
808,7	-24,66
809,2	-23,42
809,6	-30,86
810	-28,62
810,4	-32,22
810,9	-36,86
811,3	-37,34
811,7	-38,18
812,2	-42,1
812,6	-45,9
813	-34,1
813,5	-33,7
813,9	-34,06
814,3	-31,86
814,8	-27,46
815,2	-37,18
815,6	-42,46
816,1	-42,3
816,5	-43,78
816,9	-46,06
817,3	-43,46
817,8	-41,22
818,2	-37,94
818,6	-41,1
819,1	-36,02
819,5	-33,02
819,9	-38,98
820,4	-43,26
820,8	-36,98
821,2	-36,86
821,7	-38,38
822,1	-36,66
822,5	-33,38
822,9	-31,1
823,4	-32,5
823,8	-33,78
824,2	-31,46
824,7	-33,38
825,1	-36,9
825,5	-39,34
826	-34,46
826,4	-31,78
826,8	-28,86
827,3	-26,58
827,7	-28,14
828,1	-37,14
828,5	-38,06
829	-47,18
829,4	-51,02
829,8	-46,42
830,3	-40,14
830,7	-40,14
831,1	-33,78
831,6	-31,98
832	-33,7
832,4	-37,18
832,8	-34,14
833,3	-32,58
833,7	-32,06
834,1	-30,9
834,6	-33,98
835	-33,86
835,4	-40,74
835,8	-43,58
836,3	-48,58
836,7	-47,1
837,1	-53,78
837,6	-45,86
838	-45,26
838,4	-41,98
838,9	-40,22
839,3	-37,58
839,7	-38,38
840,1	-39,22
840,6	-44,02
841	-38,98
841,4	-43,7
841,9	-38,54
842,3	-38,42
842,7	-38,7
843,1	-42,74
843,6	-32,06
844	-42,7
844,4	-38,78
844,9	-36,22
845,3	-33,78
845,7	-45,06
846,2	-42,42
846,6	-40,9
847	-45,3
847,4	-48,38
847,9	-48,5
848,3	-46,94
848,7	-48,74
849,2	-43,38
849,6	-40,46
850	-29,42
850,4	-29,1
850,9	-27,86
851,3	-26,38
851,7	-28,74
852,2	-34,62
852,6	-43,9
853	-43,42
853,4	-44,22
853,9	-46,98
854,3	-37,9
854,7	-26,02
855,2	-30,14
855,6	-30,3
856	-31,98
856,4	-43,22
856,9	-46,58
857,3	-48,18
857,7	-46,22
858,2	-39,34
858,6	-40,14
859	-39,5
859,4	-39,98
859,9	-41,58
860,3	-45,54
860,7	-43,14
861,1	-45,18
861,6	-40,46
862	-39,06
862,4	-41,22
862,9	-37,54
863,3	-40,38
863,7	-39,14
864,1	-43,94
864,6	-43,22
865	-49,78
865,4	-42,82
865,9	-44,1
866,3	-40,9
866,7	-43,06
867,1	-40,14
867,6	-52,22
868	-48,06
868,4	-47,7
868,8	-46,3
869,3	-46,98
869,7	-39,02
870,1	-41,14
870,6	-41,5
871	-38,14
871,4	27,9
871,8	25,3
872,3	16,58
872,7	21,82
873,1	22,18
873,5	-44,62
874	-39,34
874,4	-31,98
874,8	-38,62
875,3	-36,78
875,7	-37,94
876,1	-38,1
876,5	-40,94
877	-36,7
877,4	-38,98
877,8	-30,82
878,2	-33,54
878,7	-34,62
879,1	-34,86
879,5	-37,22
879,9	-40,7
880,4	-35,74
880,8	-37,98
881,2	-44,1
881,7	-45,7
882,1	-43,14
882,5	-40,9
882,9	-41,74
883,4	-39,02
883,8	-34,26
884,2	-33,62
884,6	-44,1
885,1	-37,3
885,5	-38,34
885,9	-42,14
886,3	-46,58
886,8	-43,62
887,2	-50,3
887,6	-45,34
888	-46,14
888,5	-50,06
888,9	-51,34
889,3	-46,34
889,8	-48,26
890,2	-49,18
890,6	-47,22
891	-42,74
891,5	-46,38
891,9	-46,78
892,3	-43,06
892,7	-43,06
893,2	-50,7
893,6	-43,5
894	-43,82
894,4	-47,18
894,9	-44,9
895,3	-37,78
895,7	-37,78
896,1	-43,62
896,6	-43,62
897	-42,26
897,4	-40,74
897,8	-41,9
898,3	-38,02
898,7	-36,5
899,1	-38,58
899,5	-43,78
900	-49,5
900,4	-45,7
900,8	-45,9
901,2	-50,34
901,7	-46,94
902,1	-40,5
902,5	-47,42
902,9	-43,42
903,4	-40,66
903,8	-47,54
904,2	-50,38
904,6	-49,3
905,1	-54,14
905,5	-56,7
905,9	-53,34
906,3	-56,06
906,8	-51,86
907,2	-46,86
907,6	-41,94
908	-40,86
908,5	-43,54
908,9	-44,74
909,3	-43,74
909,7	-43,06
910,2	-43,26
910,6	-41,46
911	-39,98
911,4	-38,3
911,9	-37,14
912,3	-38,3
912,7	-34,86
913,1	-37,66
913,6	-40,46
914	-42,62
914,4	-38,14
914,8	-40,62
915,3	-36,06
915,7	-41,46
916,1	-41,62
916,5	-41,98
916,9	-37,54
917,4	-41,02
917,8	-37,66
918,2	-36,02
918,6	-38,38
919,1	-39,98
919,5	-39,9
919,9	-42,06
920,3	-43,06
920,8	-44,02
921,2	-45,42
921,6	-42,98
922	-44,02
922,5	-41,62
922,9	-42,82
923,3	-43,58
923,7	-44,9
924,2	-43,3
924,6	-42,98
925	-39,46
925,4	-41,42
925,8	-46,02
926,3	-46,1
926,7	-49,94
927,1	-53,5
927,5	-48,14
928	-43,38
928,4	-41,34
928,8	-41,86
929,2	-43,58
929,7	-48,02
930,1	-54,94
930,5	-60,78
930,9	-64,14
931,3	-59,86
931,8	-64,78
932,2	-60,18
932,6	-55,3
933	-57,22
933,5	-54,54
933,9	-48,54
934,3	-43,14
934,7	-44,54
935,2	-40,54
935,6	-44,26
936	-47,42
936,4	-51,98
936,8	-50,78
937,3	-45,1
937,7	-47,42
938,1	-39,7
938,5	-37,38
939	-36,98
939,4	-45,18
939,8	-40,1
940,2	-41,98
940,6	-45,66
941,1	-46,86
941,5	-48,38
941,9	-57,46
942,3	-67,94
942,8	-62,46
943,2	-59,14
943,6	-60,06
944	-55,02
944,4	-48,7
944,9	-54,1
945,3	-58,18
945,7	-56,74
946,1	-56,86
946,6	-58,06
947	-58,1
947,4	-55,86
947,8	-49,46
948,2	-46,7
948,7	-45,14
949,1	-34,74
949,5	-29,54
949,9	-28,26
950,3	-24,82
950,8	-22,1
951,2	-29,42
951,6	-36,94
952	-37,46
952,5	-40,02
952,9	-43,3
953,3	-47,06
953,7	-38,74
954,1	-34,5
954,6	-40,1
955	-38,02
955,4	-38,22
955,8	-43,54
956,2	-44,42
956,7	-42,54
957,1	-40,78
957,5	-43,54
957,9	-43,3
958,3	-47,06
958,8	-39,5
959,2	-45,1
959,6	-37,86
960	-38,9
960,5	-43,42
960,9	-48,34
961,3	-42,74
961,7	-46,74
962,1	-47,22
962,6	-49,06
963	-49,58
963,4	-54,9
963,8	-48,54
964,2	-49,46
964,7	-43,1
965,1	-43,66
965,5	-37,94
965,9	-52,86
966,3	-54,7
966,8	-59,9
967,2	-60,86
967,6	-67,14
968	-55,26
968,4	-54,06
968,9	-49,98
969,3	-51,3
969,7	-43,58
970,1	-42,1
970,5	-42,02
971	-43,58
971,4	-39,82
971,8	-43,9
972,2	-49,98
972,6	-47,42
973,1	-45,54
973,5	-45,46
973,9	-45,86
974,3	-43,82
974,7	-45,54
975,2	-42,5
975,6	-49,34
976	-46,5
976,4	-41,06
976,8	-39,38
977,3	-42,94
977,7	-34,42
978,1	-39,5
978,5	-42,34
978,9	-49,54
979,4	-42,86
979,8	-46,1
980,2	-40,98
980,6	-41,54
981	-32,7
981,5	-41,5
981,9	-38,58
982,3	-39,38
982,7	-37,34
983,1	-40,9
983,6	-37,82
984	-42,78
984,4	-44,58
984,8	-46,14
985,2	-44,94
985,6	-45,18
986,1	-42,14
986,5	-41,82
986,9	-43,58
987,3	-45,86
987,7	-45,54
988,2	-48,3
988,6	-47,9
989	-46,78
989,4	-48,66
989,8	-50,82
990,3	-47,94
990,7	-50,74
991,1	-49,22
991,5	-48,9
991,9	-44,26
992,3	-46,82
992,8	-44,98
993,2	-43,86
993,6	-42,42
994	-50,34
994,4	-52,06
994,9	-52,02
995,3	-54,86
995,7	-48,94
996,1	-43,98
996,5	-43,1
996,9	-45,02
997,4	-44,74
997,8	-50,34
998,2	-48,62
998,6	-43,38
999	-42,94
999,5	-41,74
999,9	-41,38
1000,3	-42,86
1000,7	-46,82
1001,1	-43,14
1001,5	-46,98
1002	-44,42
1002,4	-40,38
1002,8	-37,14
1003,2	-43,14
1003,6	-42,54
1004	-41,86
1004,5	-45,18
1004,9	-47,06
1005,3	-46,38
1005,7	-48,7
1006,1	-50,18
1006,6	-50,94
1007	-50,5
1007,4	-43,66
1007,8	-38,9
1008,2	-42,1
1008,6	-43,58
1009,1	-42,02
1009,5	-43,06
1009,9	-44,78
1010,3	-38,26
1010,7	-37,9
1011,1	-42,86
1011,6	-42,14
1012	-46,54
1012,4	-52,14
1012,8	-53,06
1013,2	-45,82
1013,6	-43,78
1014,1	-37,54
1014,5	-34,38
1014,9	-36,14
1015,3	-34,38
1015,7	-41,38
1016,1	-43,86
1016,6	-48,26
1017	-43,3
1017,4	-51,22
1017,8	-47,98
1018,2	-51,86
1018,6	-49,58
1019,1	-60,46
1019,5	-60,1
1019,9	-58,86
1020,3	-54,94
1020,7	-55,18
1021,1	-50,82
1021,6	-46,34
1022	-52,7
1022,4	-51,34
1022,8	-52,02
1023,2	-49,82
1023,6	-49,86
1024,1	-42,46
1024,5	-41,54
1024,9	-35,66
1025,3	-33,06
1025,7	-37,26
1026,1	-42,7
1026,6	-45,78
1027	-55,54
1027,4	-56,58
1027,8	-59,78
1028,2	-58,1
1028,6	-56,54
1029	-52,38
1029,5	-51,14
1029,9	-44,86
1030,3	-45,46
1030,7	-44,74
1031,1	-43,02
1031,5	-42,34
1032	-50,42
1032,4	-50,9
1032,8	-52,74
1033,2	-51,98
1033,6	-55,22
1034	-50,54
1034,4	-50,14
1034,9	-50,42
1035,3	-50,3
1035,7	-58,9
1036,1	-61,9
1036,5	-60,74
1036,9	-53,54
1037,4	-58,66
1037,8	-52,46
1038,2	-46,74
1038,6	-43,34
1039	-52,14
1039,4	-46,5
1039,8	-44,74
1040,3	-55,18
1040,7	-57,34
1041,1	-54,22
1041,5	-58,86
1041,9	-60,82
1042,3	-50,98
1042,7	-57,3
1043,2	-54,26
1043,6	-50,66
1044	-44,34
1044,4	-44,66
1044,8	-36,46
1045,2	-47,02
1045,6	-56,3
1046,1	-54,82
1046,5	-53,66
1046,9	-58,18
1047,3	-52,98
1047,7	-47,34
1048,1	-55,86
1048,5	-62,86
1049	-57,38
1049,4	-57,22
1049,8	-55,14
1050,2	-46,18
1050,6	-45,7
1051	-47,54
1051,4	-49,02
1051,9	-52,3
1052,3	-58,62
1052,7	-54,34
1053,1	-66,74
1053,5	-61,38
1053,9	-57,46
1054,3	-61,54
1054,8	-66,82
1055,2	-56,98
1055,6	-55,06
1056	-56,06
1056,4	-52,26
1056,8	-48,62
1057,2	-49,34
1057,6	-60,5
1058,1	-62,62
1058,5	-61,38
1058,9	-58,38
1059,3	-58,26
1059,7	-48,06
1060,1	-46,02
1060,5	-46,86
1061	-46,38
1061,4	-43,42
1061,8	-48,78
1062,2	-50,18
1062,6	-53,42
1063	-59,54
1063,4	-62,18
1063,8	-61,86
1064,3	-64,62
1064,7	-57,9
1065,1	-57,42
1065,5	-54,54
1065,9	-55,42
1066,3	-50,06
1066,7	-51,98
1067,1	-48,1
1067,6	-54,46
1068	-53,58
1068,4	-53,1
1068,8	-51,62
1069,2	-57,62
1069,6	-56,34
1070	-53,74
1070,4	-55,74
1070,9	-59,3
1071,3	-52,82
1071,7	-49,78
1072,1	-49,22
1072,5	-50,1
1072,9	-44,06
1073,3	-39,86
1073,7	-38,5
1074,2	-40,66
1074,6	-39,42
1075	-36,02
1075,4	-39,58
1075,8	-38,82
1076,2	-32,58
1076,6	-28,66
1077	-33,54
1077,5	-36,86
1077,9	-37,94
1078,3	-46,14
1078,7	-45,42
1079,1	-46,14
1079,5	-43,26
1079,9	-45,38
1080,3	-47,74
1080,7	-50,18
1081,2	-52,22
1081,6	-52,34
1082	-55,06
1082,4	-49,58
1082,8	-48,66
1083,2	-45,54
1083,6	-53,78
1084	-49,06
1084,5	-51,9
1084,9	-50,7
1085,3	-54,1
1085,7	-43,02
1086,1	-50,34
1086,5	-46,78
1086,9	-45,26
1087,3	-45,34
1087,7	-49,7
1088,2	-44,9
1088,6	-43,02
1089	-47,62
1089,4	-48,34
1089,8	-41,58
1090,2	-38,26
1090,6	-38,7
1091	-44,9
1091,4	-41,34
1091,9	-44,7
1092,3	-42,82
1092,7	-42,78
1093,1	-36,22
1093,5	-40,78
1093,9	-39,9
1094,3	-43,42
1094,7	-38,34
1095,1	-40,74
1095,5	-38,18
1096	-42,26
1096,4	-42,06
1096,8	-47,82
1097,2	-40,1
1097,6	-39,38
1098	-31,06
1098,4	-28,3
1098,8	-30,98
1099,2	-31,82
1099,6	-32,42
1100,1	-37,9
1100,5	-36,18
1100,9	-34,18
1101,3	-34,22
1101,7	-30,34
1102,1	-32,66
1102,5	-33,9
1102,9	-27,06
1103,3	-28,22
1103,7	-26,94
1104,2	-23,34
1104,6	-26,7
1105	-30,3
1105,4	-27,06
1105,8	-26,74
1106,2	-20,38
1106,6	-11,9
1107	-6,7
1107,4	-4,14
1107,8	-0
1108,3	-0,033
