Data from Subt2_00010.txt Node
Date: Fri Aug 11 15:22:03 MSK 2023
User: vat
Spectrometer: MAYP114033
Trigger mode: 0
Integration Time (sec): 5,000000E-1
Scans to average: 5
Electric dark correction enabled: true
Nonlinearity correction enabled: false
Boxcar width: 2
XAxis mode: Wavelengths
Number of Pixels in Spectrum: 2068
>>>>>Begin Spectral Data<<<<<
199,4	0,067
199,9	0,283
200,4	-1,107
200,8	-6,227
201,3	-8,067
201,8	-10,507
202,2	-9,347
202,7	-11,707
203,2	-9,707
203,6	-10,227
204,1	-7,387
204,6	-8,627
205	-9,667
205,5	-12,507
206	-7,907
206,4	-10,747
206,9	-16,387
207,4	-13,147
207,8	-4,787
208,3	-5,907
208,8	-3,987
209,2	-0,427
209,7	-3,827
210,2	-12,267
210,6	-16,707
211,1	-17,787
211,5	-13,067
212	-11,387
212,5	-10,267
212,9	-8,787
213,4	-10,467
213,9	-11,667
214,3	-7,667
214,8	-8,147
215,3	-5,867
215,7	-4,467
216,2	-10,227
216,7	-14,627
217,1	-12,787
217,6	-12,547
218,1	-15,147
218,5	-7,627
219	-3,947
219,5	-5,027
219,9	-6,387
220,4	0,653
220,9	-4,067
221,3	-7,467
221,8	-0,747
222,3	-2,947
222,7	-3,547
223,2	-2,667
223,6	-2,347
224,1	-6,387
224,6	-7,387
225	-15,507
225,5	-18,627
226	-18,107
226,4	-16,587
226,9	-14,347
227,4	-7,747
227,8	-2,267
228,3	0,693
228,8	-0,587
229,2	-1,747
229,7	-3,707
230,2	-10,227
230,6	-13,307
231,1	-16,627
231,5	-15,387
232	-15,667
232,5	-12,027
232,9	-9,947
233,4	-7,467
233,9	-7,187
234,3	-10,867
234,8	-7,147
235,3	-13,507
235,7	-15,147
236,2	-18,347
236,7	-15,827
237,1	-18,507
237,6	-13,707
238,1	-12,187
238,5	-13,507
239	-11,547
239,4	-7,547
239,9	-4,307
240,4	-7,107
240,8	-1,107
241,3	-3,947
241,8	-16,107
242,2	-21,187
242,7	-18,307
243,2	-20,907
243,6	-16,307
244,1	-12,307
244,6	-6,387
245	-4,347
245,5	-3,787
245,9	-3,067
246,4	-0,467
246,9	-6,867
247,3	-10,067
247,8	-9,507
248,3	-9,627
248,7	-7,027
249,2	-4,227
249,7	-2,867
250,1	-5,547
250,6	-7,307
251	-10,707
251,5	-10,267
252	-10,747
252,4	-2,387
252,9	-4,427
253,4	-8,347
253,8	-12,027
254,3	-17,947
254,8	-23,427
255,2	-19,907
255,7	-13,227
256,1	-6,067
256,6	5,213
257,1	2,213
257,5	3,533
258	4,973
258,5	5,693
258,9	2,133
259,4	6,573
259,9	1,933
260,3	-3,587
260,8	-10,307
261,2	-14,747
261,7	-18,587
262,2	-19,707
262,6	-19,667
263,1	-18,907
263,6	-15,507
264	-13,427
264,5	-9,787
264,9	-7,387
265,4	-4,267
265,9	-0,947
266,3	-1,307
266,8	-2,747
267,3	-3,267
267,7	-0,707
268,2	-2,747
268,7	-3,547
269,1	-1,467
269,6	-4,027
270	-4,227
270,5	-9,707
271	-13,747
271,4	-14,147
271,9	-13,507
272,4	-12,667
272,8	-10,107
273,3	-8,347
273,7	-11,227
274,2	-10,507
274,7	-19,427
275,1	-11,707
275,6	-8,307
276,1	-9,827
276,5	-12,947
277	-9,987
277,4	-22,307
277,9	-24,547
278,4	-18,947
278,8	-18,547
279,3	-15,787
279,8	-11,187
280,2	-6,627
280,7	-11,427
281,1	-8,387
281,6	-10,347
282,1	-9,267
282,5	-14,387
283	-17,467
283,4	-20,307
283,9	-20,147
284,4	-16,347
284,8	-10,067
285,3	-6,307
285,8	-2,667
286,2	-7,587
286,7	-8,627
287,1	-13,027
287,6	-18,387
288,1	-20,347
288,5	-15,827
289	-18,907
289,5	-22,667
289,9	-15,667
290,4	-10,387
290,8	-9,707
291,3	-8,747
291,8	-2,787
292,2	-5,107
292,7	-9,107
293,1	-5,987
293,6	-12,307
294,1	-10,867
294,5	-10,987
295	-7,627
295,5	-10,787
295,9	-5,667
296,4	-11,587
296,8	-9,787
297,3	-5,987
297,8	-6,867
298,2	-2,067
298,7	-5,147
299,1	-4,907
299,6	-10,747
300,1	-8,747
300,5	-14,307
301	-6,067
301,5	-5,947
301,9	-8,307
302,4	-7,147
302,8	-4,467
303,3	-7,787
303,8	-9,467
304,2	-11,387
304,7	-17,747
305,1	-19,547
305,6	-17,787
306,1	-20,467
306,5	-18,547
307	-8,747
307,4	-6,827
307,9	-11,827
308,4	-8,747
308,8	-8,267
309,3	-11,587
309,8	-9,867
310,2	-2,827
310,7	-7,907
311,1	-4,067
311,6	-3,147
312,1	-4,307
312,5	-4,627
313	0,213
313,4	-0,947
313,9	-0,547
314,4	-2,467
314,8	-6,867
315,3	-5,787
315,7	-7,307
316,2	-12,107
316,7	-17,107
317,1	-20,707
317,6	-22,067
318	-20,107
318,5	-19,147
319	-13,627
319,4	-14,227
319,9	-9,267
320,3	-7,987
320,8	-15,547
321,3	-15,307
321,7	-6,627
322,2	-5,347
322,6	-6,187
323,1	-2,667
323,6	2,053
324	-0,387
324,5	-6,347
324,9	-7,507
325,4	-0,707
325,9	-3,587
326,3	-3,667
326,8	-2,427
327,2	-6,187
327,7	-13,787
328,2	-17,507
328,6	-18,187
329,1	-15,907
329,5	-13,907
330	-7,667
330,5	-2,507
330,9	-8,267
331,4	-14,667
331,8	-11,867
332,3	-14,187
332,8	-20,587
333,2	-12,907
333,7	-11,107
334,1	-12,507
334,6	-12,227
335,1	-8,707
335,5	-6,227
336	-8,307
336,4	-7,147
336,9	-10,547
337,4	-9,627
337,8	-13,707
338,3	-8,907
338,7	-6,947
339,2	-4,627
339,7	-7,667
340,1	-5,907
340,6	-5,307
341	-4,747
341,5	-5,707
342	-5,107
342,4	0,813
342,9	2,973
343,3	0,853
343,8	3,053
344,2	0,373
344,7	-6,027
345,2	-12,907
345,6	-9,187
346,1	-11,747
346,5	-10,707
347	-10,827
347,5	-11,747
347,9	-12,507
348,4	-7,187
348,8	-4,627
349,3	-3,987
349,8	3,333
350,2	-1,547
350,7	-0,627
351,1	2,053
351,6	0,133
352	-0,947
352,5	6,253
353	13,693
353,4	12,013
353,9	16,253
354,3	16,613
354,8	23,173
355,3	21,133
355,7	29,253
356,2	28,853
356,6	31,853
357,1	27,653
357,5	35,253
358	37,213
358,5	52,093
358,9	65,853
359,4	79,933
359,8	82,573
360,3	100,613
360,8	115,973
361,2	130,693
361,7	150,013
362,1	179,053
362,6	208,773
363	243,613
363,5	277,973
364	310,533
364,4	349,333
364,9	379,133
365,3	401,773
365,8	433,053
366,3	460,893
366,7	479,893
367,2	499,933
367,6	523,733
368,1	542,573
368,5	554,693
369	558,373
369,5	564,853
369,9	561,693
370,4	549,213
370,8	538,093
371,3	523,173
371,7	501,573
372,2	478,013
372,7	453,933
373,1	428,013
373,6	404,933
374	373,693
374,5	346,413
374,9	321,853
375,4	295,213
375,9	277,173
376,3	261,093
376,8	237,733
377,2	221,933
377,7	201,933
378,2	178,973
378,6	162,173
379,1	153,333
379,5	135,333
380	125,893
380,4	122,013
380,9	113,773
381,4	101,693
381,8	90,573
382,3	81,053
382,7	73,973
383,2	67,013
383,6	58,653
384,1	53,133
384,6	51,333
385	45,693
385,5	37,933
385,9	42,293
386,4	49,533
386,8	47,053
387,3	42,053
387,7	38,973
388,2	32,613
388,7	25,773
389,1	19,933
389,6	16,613
390	18,173
390,5	18,413
390,9	17,853
391,4	16,613
391,9	7,333
392,3	3,893
392,8	0,373
393,2	-1,347
393,7	1,933
394,1	11,413
394,6	11,533
395,1	17,373
395,5	21,533
396	19,573
396,4	15,293
396,9	10,773
397,3	9,733
397,8	2,973
398,2	7,773
398,7	10,733
399,2	11,733
399,6	5,973
400,1	7,093
400,5	1,973
401	0,173
401,4	5,293
401,9	5,173
402,4	3,293
402,8	3,373
403,3	5,213
403,7	4,693
404,2	2,973
404,6	1,493
405,1	5,453
405,5	3,293
406	5,173
406,5	6,493
406,9	10,013
407,4	4,293
407,8	4,213
408,3	1,293
408,7	1,013
409,2	6,093
409,6	7,133
410,1	5,573
410,6	5,333
411	10,013
411,5	9,013
411,9	9,573
412,4	16,053
412,8	19,333
413,3	13,133
413,7	16,613
414,2	22,773
414,7	21,453
415,1	22,333
415,6	31,933
416	29,493
416,5	32,653
416,9	36,613
417,4	46,893
417,8	50,573
418,3	47,293
418,8	50,533
419,2	50,333
419,7	49,933
420,1	47,573
420,6	52,413
421	47,933
421,5	57,133
421,9	55,253
422,4	56,773
422,8	59,813
423,3	63,853
423,8	59,813
424,2	59,093
424,7	67,573
425,1	71,973
425,6	77,653
426	73,693
426,5	80,213
426,9	72,893
427,4	76,853
427,9	74,373
428,3	83,453
428,8	80,253
429,2	87,533
429,7	90,773
430,1	94,973
430,6	93,653
431	103,293
431,5	111,853
431,9	103,933
432,4	107,373
432,8	118,453
433,3	122,933
433,8	124,933
434,2	137,773
434,7	147,013
435,1	149,333
435,6	149,493
436	151,573
436,5	160,733
436,9	163,493
437,4	176,133
437,8	183,653
438,3	188,293
438,8	194,293
439,2	200,373
439,7	198,973
440,1	211,613
440,6	221,413
441	225,373
441,5	235,373
441,9	248,693
442,4	252,773
442,8	268,453
443,3	285,973
443,7	298,813
444,2	312,373
444,7	330,333
445,1	336,293
445,6	349,853
446	368,253
446,5	383,773
446,9	399,693
447,4	417,053
447,8	428,413
448,3	438,293
448,7	451,653
449,2	462,733
449,6	482,493
450,1	504,813
450,6	519,933
451	533,813
451,5	551,853
451,9	563,333
452,4	575,093
452,8	593,613
453,3	610,533
453,7	629,493
454,2	651,493
454,6	667,933
455,1	688,613
455,5	714,453
456	728,373
456,4	750,693
456,9	768,413
457,3	791,573
457,8	809,293
458,3	843,373
458,7	868,333
459,2	898,173
459,6	914,493
460,1	938,413
460,5	949,893
461	970,373
461,4	995,693
461,9	1022,253
462,3	1046,973
462,8	1078,613
463,2	1101,533
463,7	1119,093
464,1	1146,293
464,6	1166,173
465	1189,893
465,5	1211,413
466	1234,173
466,4	1253,893
466,9	1284,773
467,3	1304,373
467,8	1330,973
468,2	1365,933
468,7	1388,133
469,1	1407,373
469,6	1430,333
470	1455,653
470,5	1473,573
470,9	1501,213
471,4	1520,253
471,8	1541,213
472,3	1561,453
472,7	1581,013
473,2	1600,573
473,6	1628,533
474,1	1654,893
474,5	1673,373
475	1697,213
475,4	1718,613
475,9	1741,933
476,4	1763,293
476,8	1789,213
477,3	1812,213
477,7	1834,253
478,2	1845,973
478,6	1865,013
479,1	1885,933
479,5	1902,133
480	1916,053
480,4	1939,213
480,9	1960,293
481,3	1973,573
481,8	1995,973
482,2	2010,933
482,7	2018,733
483,1	2036,213
483,6	2051,533
484	2056,533
484,5	2077,733
484,9	2092,093
485,4	2090,773
485,8	2095,813
486,3	2102,933
486,7	2107,693
487,2	2118,053
487,6	2128,973
488,1	2140,893
488,5	2152,813
489	2160,853
489,4	2170,613
489,9	2175,813
490,4	2183,013
490,8	2194,973
491,3	2199,093
491,7	2207,813
492,2	2211,813
492,6	2211,973
493,1	2215,893
493,5	2227,173
494	2225,893
494,4	2228,973
494,9	2228,693
495,3	2224,933
495,8	2219,373
496,2	2217,453
496,7	2218,213
497,1	2223,053
497,6	2215,973
498	2205,973
498,5	2200,413
498,9	2192,133
499,4	2188,053
499,8	2185,853
500,3	2185,613
500,7	2181,893
501,2	2187,693
501,6	2186,253
502,1	2183,733
502,5	2178,453
503	2181,453
503,4	2169,053
503,9	2164,533
504,3	2159,853
504,8	2159,973
505,2	2153,893
505,7	2153,213
506,1	2148,493
506,6	2142,173
507	2126,733
507,5	2115,613
507,9	2114,653
508,4	2106,613
508,8	2100,413
509,3	2106,453
509,7	2100,733
510,2	2086,893
510,6	2075,333
511,1	2065,973
511,5	2056,253
512	2048,973
512,4	2046,693
512,9	2034,253
513,3	2028,013
513,8	2027,853
514,2	2019,253
514,7	2000,533
515,1	1996,013
515,6	1990,133
516	1973,173
516,5	1963,173
516,9	1955,213
517,4	1945,613
517,8	1929,773
518,3	1926,893
518,7	1925,053
519,2	1916,373
519,6	1913,973
520,1	1907,413
520,5	1891,253
521	1877,333
521,4	1873,013
521,9	1861,933
522,3	1854,013
522,8	1848,413
523,2	1851,133
523,7	1847,453
524,1	1835,733
524,6	1830,893
525	1823,773
525,5	1810,333
525,9	1800,973
526,4	1792,453
526,8	1781,253
527,3	1776,213
527,7	1767,613
528,2	1759,533
528,6	1762,773
529,1	1763,493
529,5	1755,893
530	1753,493
530,4	1753,333
530,9	1742,813
531,3	1731,133
531,8	1728,893
532,2	1717,453
532,6	1706,813
533,1	1701,813
533,5	1698,253
534	1691,693
534,4	1692,173
534,9	1684,773
535,3	1686,933
535,8	1686,693
536,2	1676,453
536,7	1668,333
537,1	1667,453
537,6	1661,813
538	1656,413
538,5	1651,653
538,9	1646,653
539,4	1647,533
539,8	1640,293
540,3	1631,453
540,7	1628,893
541,2	1622,413
541,6	1614,013
542,1	1611,453
542,5	1617,213
543	1612,613
543,4	1605,213
543,9	1605,053
544,3	1600,173
544,8	1590,133
545,2	1592,013
545,7	1595,653
546,1	1591,493
546,5	1594,093
547	1595,933
547,4	1593,893
547,9	1592,053
548,3	1591,893
548,8	1583,853
549,2	1572,733
549,7	1566,493
550,1	1564,013
550,6	1560,493
551	1555,293
551,5	1556,013
551,9	1551,733
552,4	1551,653
552,8	1538,733
553,3	1536,253
553,7	1533,773
554,2	1534,493
554,6	1529,933
555,1	1538,613
555,5	1538,613
555,9	1534,413
556,4	1535,013
556,8	1534,373
557,3	1520,133
557,7	1517,573
558,2	1521,933
558,6	1518,613
559,1	1506,813
559,5	1513,133
560	1515,013
560,4	1509,493
560,9	1502,173
561,3	1501,933
561,8	1498,493
562,2	1488,693
562,7	1482,653
563,1	1485,933
563,6	1486,813
564	1493,573
564,4	1495,213
564,9	1499,333
565,3	1492,853
565,8	1494,893
566,2	1483,893
566,7	1480,213
567,1	1476,733
567,6	1469,733
568	1467,733
568,5	1463,213
568,9	1455,653
569,4	1447,133
569,8	1452,933
570,3	1446,893
570,7	1441,893
571,1	1445,533
571,6	1448,973
572	1441,733
572,5	1435,493
572,9	1443,773
573,4	1436,373
573,8	1431,333
574,3	1429,933
574,7	1437,533
575,2	1419,733
575,6	1423,973
576,1	1420,413
576,5	1411,013
576,9	1395,413
577,4	1403,173
577,8	1388,893
578,3	1382,693
578,7	1378,813
579,2	1381,693
579,6	1372,853
580,1	1372,973
580,5	1371,413
581	1365,893
581,4	1360,053
581,9	1354,893
582,3	1346,933
582,7	1342,213
583,2	1340,853
583,6	1333,893
584,1	1329,773
584,5	1328,493
585	1323,053
585,4	1321,973
585,9	1325,813
586,3	1324,253
586,8	1318,413
587,2	1313,373
587,6	1307,813
588,1	1291,493
588,5	1287,053
589	1289,093
589,4	1285,693
589,9	1287,133
590,3	1287,773
590,8	1287,213
591,2	1274,973
591,7	1273,453
592,1	1267,893
592,5	1267,533
593	1254,893
593,4	1252,413
593,9	1246,093
594,3	1234,573
594,8	1226,373
595,2	1225,133
595,7	1231,453
596,1	1228,573
596,6	1226,533
597	1228,493
597,4	1230,773
597,9	1228,013
598,3	1226,333
598,8	1227,613
599,2	1221,893
599,7	1209,973
600,1	1201,613
600,6	1193,253
601	1184,973
601,4	1173,573
601,9	1173,573
602,3	1166,493
602,8	1168,013
603,2	1164,133
603,7	1165,333
604,1	1156,293
604,6	1150,773
605	1142,533
605,4	1135,813
605,9	1129,813
606,3	1131,333
606,8	1131,013
607,2	1132,133
607,7	1124,133
608,1	1120,333
608,6	1122,013
609	1111,213
609,4	1094,933
609,9	1096,333
610,3	1091,413
610,8	1078,293
611,2	1079,613
611,7	1081,053
612,1	1075,293
612,6	1072,173
613	1070,213
613,4	1066,013
613,9	1058,613
614,3	1054,493
614,8	1048,853
615,2	1045,733
615,7	1036,093
616,1	1034,973
616,6	1030,173
617	1026,053
617,4	1011,893
617,9	1010,853
618,3	995,813
618,8	986,253
619,2	978,093
619,7	973,613
620,1	966,893
620,5	970,453
621	967,093
621,4	969,253
621,9	969,693
622,3	959,293
622,8	955,813
623,2	949,613
623,6	938,093
624,1	934,853
624,5	927,653
625	922,093
625,4	922,053
625,9	918,013
626,3	916,293
626,8	913,373
627,2	906,973
627,6	897,893
628,1	893,133
628,5	884,253
629	880,693
629,4	874,133
629,9	873,093
630,3	867,813
630,7	859,053
631,2	854,133
631,6	850,453
632,1	846,213
632,5	838,933
633	836,613
633,4	833,653
633,8	823,733
634,3	815,533
634,7	804,653
635,2	792,453
635,6	784,893
636,1	786,533
636,5	781,293
636,9	779,253
637,4	780,853
637,8	775,053
638,3	768,053
638,7	764,213
639,2	765,293
639,6	757,253
640	755,653
640,5	754,853
640,9	747,093
641,4	740,413
641,8	733,173
642,2	728,973
642,7	719,453
643,1	714,853
643,6	712,493
644	709,373
644,5	705,413
644,9	701,773
645,3	707,573
645,8	705,573
646,2	700,853
646,7	696,573
647,1	687,053
647,6	674,813
648	663,133
648,4	662,133
648,9	658,653
649,3	661,773
649,8	662,133
650,2	664,533
650,6	664,493
651,1	658,253
651,5	653,933
652	648,973
652,4	638,973
652,9	626,413
653,3	624,053
653,7	624,173
654,2	614,853
654,6	618,213
655,1	614,493
655,5	610,773
655,9	598,533
656,4	597,173
656,8	588,413
657,3	589,893
657,7	583,293
658,2	580,133
658,6	582,133
659	581,893
659,5	574,493
659,9	573,533
660,4	567,293
660,8	554,453
661,2	544,133
661,7	543,173
662,1	536,773
662,6	532,973
663	527,813
663,4	525,773
663,9	520,773
664,3	519,213
664,8	525,573
665,2	518,453
665,6	512,973
666,1	511,013
666,5	505,533
667	495,573
667,4	498,493
667,9	500,693
668,3	494,213
668,7	487,453
669,2	486,693
669,6	483,173
670,1	475,053
670,5	471,653
670,9	469,293
671,4	463,253
671,8	460,733
672,3	463,413
672,7	462,333
673,1	463,613
673,6	461,493
674	457,813
674,5	454,333
674,9	449,693
675,3	443,213
675,8	438,973
676,2	437,173
676,7	429,293
677,1	428,373
677,5	423,253
678	424,853
678,4	419,493
678,9	419,133
679,3	415,773
679,7	415,573
680,2	410,813
680,6	409,013
681,1	402,973
681,5	398,693
681,9	391,693
682,4	386,453
682,8	379,973
683,3	380,333
683,7	378,173
684,1	383,373
684,6	380,533
685	377,933
685,5	368,413
685,9	364,933
686,3	360,493
686,8	350,853
687,2	349,693
687,7	348,013
688,1	351,933
688,5	350,893
689	353,413
689,4	355,053
689,9	354,733
690,3	349,973
690,7	343,213
691,2	343,773
691,6	331,613
692	334,733
692,5	328,373
692,9	330,213
693,4	327,573
693,8	335,453
694,2	330,493
694,7	335,973
695,1	330,933
695,6	324,693
696	316,693
696,4	311,573
696,9	302,773
697,3	301,613
697,8	303,373
698,2	297,053
698,6	295,693
699,1	285,453
699,5	277,373
699,9	273,653
700,4	275,813
700,8	271,173
701,3	273,213
701,7	278,613
702,1	277,773
702,6	281,013
703	282,413
703,5	279,533
703,9	268,533
704,3	265,013
704,8	260,213
705,2	257,373
705,6	258,413
706,1	261,133
706,5	256,333
707	254,573
707,4	253,533
707,8	252,213
708,3	253,293
708,7	252,973
709,2	247,653
709,6	241,933
710	238,893
710,5	233,573
710,9	230,933
711,3	234,053
711,8	232,693
712,2	235,013
712,7	230,573
713,1	225,333
713,5	227,213
714	225,773
714,4	216,053
714,8	214,093
715,3	216,653
715,7	208,213
716,2	204,653
716,6	209,453
717	210,133
717,5	210,173
717,9	212,533
718,3	214,813
718,8	212,733
719,2	210,293
719,7	211,293
720,1	208,173
720,5	207,733
721	203,533
721,4	201,853
721,8	197,133
722,3	192,133
722,7	185,573
723,2	184,133
723,6	182,533
724	179,253
724,5	183,413
724,9	187,613
725,3	185,173
725,8	177,853
726,2	174,893
726,7	168,133
727,1	157,813
727,5	159,453
728	165,373
728,4	159,853
728,8	159,293
729,3	169,253
729,7	167,413
730,1	167,773
730,6	173,813
731	171,013
731,5	163,293
731,9	157,733
732,3	152,973
732,8	148,733
733,2	153,813
733,6	152,733
734,1	155,373
734,5	154,173
734,9	157,773
735,4	153,453
735,8	157,093
736,3	153,013
736,7	156,213
737,1	152,293
737,6	152,373
738	149,413
738,4	152,053
738,9	148,813
739,3	145,893
739,7	138,853
740,2	134,933
740,6	134,253
741,1	136,573
741,5	137,653
741,9	138,533
742,4	138,493
742,8	135,693
743,2	125,253
743,7	128,573
744,1	130,333
744,5	129,133
745	129,733
745,4	138,893
745,8	131,533
746,3	131,373
746,7	127,333
747,2	122,453
747,6	113,693
748	112,053
748,5	105,773
748,9	109,093
749,3	112,773
749,8	118,333
750,2	115,693
750,6	118,093
751,1	118,213
751,5	117,973
751,9	113,333
752,4	117,853
752,8	118,173
753,3	117,813
753,7	108,853
754,1	107,333
754,6	109,453
755	111,533
755,4	110,133
755,9	112,813
756,3	115,053
756,7	119,173
757,2	111,973
757,6	110,893
758	110,573
758,5	110,813
758,9	100,493
759,3	105,413
759,8	102,093
760,2	99,573
760,6	91,653
761,1	89,253
761,5	81,973
761,9	79,813
762,4	83,453
762,8	84,093
763,3	85,533
763,7	84,053
764,1	85,413
764,6	87,013
765	91,093
765,4	90,933
765,9	95,413
766,3	95,893
766,7	93,133
767,2	87,893
767,6	86,453
768	83,333
768,5	81,733
768,9	83,893
769,3	89,533
769,8	88,693
770,2	87,653
770,6	91,213
771,1	83,573
771,5	75,373
771,9	77,453
772,4	78,853
772,8	72,093
773,2	75,333
773,7	78,613
774,1	74,773
774,5	72,413
775	76,173
775,4	73,973
775,8	76,693
776,3	78,533
776,7	81,853
777,1	80,293
777,6	80,013
778	76,493
778,4	80,053
778,9	82,893
779,3	75,533
779,7	75,453
780,2	71,573
780,6	61,973
781	51,933
781,5	59,853
781,9	53,973
782,3	53,133
782,8	59,933
783,2	67,653
783,6	64,973
784,1	68,453
784,5	70,293
784,9	63,693
785,4	55,053
785,8	51,453
786,2	46,533
786,7	44,133
787,1	46,493
787,5	47,413
788	46,133
788,4	45,853
788,8	47,413
789,3	48,213
789,7	45,453
790,1	51,533
790,6	60,733
791	61,053
791,4	58,573
791,9	64,573
792,3	54,093
792,7	53,093
793,2	55,533
793,6	55,733
794	55,853
794,5	62,293
794,9	52,293
795,3	46,493
795,8	46,453
796,2	42,373
796,6	43,333
797,1	48,453
797,5	46,893
797,9	47,013
798,4	45,373
798,8	45,693
799,2	44,173
799,7	45,213
800,1	41,693
800,5	45,573
801	41,013
801,4	44,013
801,8	50,253
802,2	51,213
802,7	50,533
803,1	52,973
803,5	47,733
804	47,573
804,4	43,053
804,8	40,853
805,3	42,893
805,7	46,453
806,1	41,093
806,6	48,133
807	46,453
807,4	35,933
807,9	38,253
808,3	35,333
808,7	33,573
809,2	35,333
809,6	40,533
810	37,213
810,4	44,893
810,9	43,853
811,3	42,773
811,7	43,853
812,2	44,253
812,6	35,173
813	37,093
813,5	39,933
813,9	41,533
814,3	35,973
814,8	41,013
815,2	32,253
815,6	25,733
816,1	23,973
816,5	24,293
816,9	21,213
817,3	24,133
817,8	25,653
818,2	29,533
818,6	28,453
819,1	28,893
819,5	32,373
819,9	32,333
820,4	27,293
820,8	30,413
821,2	31,413
821,7	29,373
822,1	32,733
822,5	27,573
822,9	28,093
823,4	24,453
823,8	23,293
824,2	19,253
824,7	22,653
825,1	21,253
825,5	23,173
826	20,293
826,4	17,933
826,8	15,373
827,3	17,413
827,7	18,053
828,1	20,173
828,5	18,053
829	19,293
829,4	15,253
829,8	15,813
830,3	16,413
830,7	22,053
831,1	21,733
831,6	21,613
832	22,053
832,4	27,053
832,8	22,813
833,3	21,493
833,7	25,773
834,1	18,373
834,6	7,213
835	4,533
835,4	7,573
835,8	6,733
836,3	9,973
836,7	11,693
837,1	14,693
837,6	10,053
838	6,093
838,4	1,213
838,9	5,693
839,3	6,453
839,7	7,773
840,1	7,373
840,6	10,653
841	9,493
841,4	4,173
841,9	7,493
842,3	8,853
842,7	6,453
843,1	1,773
843,6	10,053
844	3,533
844,4	4,893
844,9	4,173
845,3	8,613
845,7	6,533
846,2	11,493
846,6	8,773
847	12,453
847,4	8,853
847,9	5,133
848,3	4,453
848,7	8,133
849,2	5,973
849,6	5,293
850	12,093
850,4	12,813
850,9	11,133
851,3	18,973
851,7	17,933
852,2	12,933
852,6	10,853
853	6,373
853,4	1,253
853,9	6,693
854,3	6,853
854,7	10,533
855,2	13,813
855,6	14,173
856	10,613
856,4	12,933
856,9	12,613
857,3	14,653
857,7	10,573
858,2	14,053
858,6	8,293
859	6,573
859,4	-0,987
859,9	3,693
860,3	2,133
860,7	9,693
861,1	7,893
861,6	11,573
862	9,293
862,4	13,733
862,9	7,813
863,3	9,733
863,7	9,973
864,1	8,773
864,6	7,413
865	6,413
865,4	7,693
865,9	8,253
866,3	9,973
866,7	3,853
867,1	2,493
867,6	-1,907
868	-5,547
868,4	-2,787
868,8	-0,667
869,3	-3,147
869,7	0,293
870,1	0,573
870,6	0,613
871	5,133
871,4	-39,267
871,8	-40,947
872,3	-40,427
872,7	-41,907
873,1	-45,467
873,5	2,253
874	1,173
874,4	0,213
874,8	-1,987
875,3	-3,107
875,7	0,093
876,1	-1,867
876,5	0,573
877	-0,427
877,4	0,213
877,8	-2,547
878,2	1,333
878,7	-0,147
879,1	-4,067
879,5	-0,747
879,9	3,013
880,4	-1,067
880,8	-3,347
881,2	-0,107
881,7	-7,587
882,1	-5,427
882,5	-5,147
882,9	2,373
883,4	6,933
883,8	11,013
884,2	4,493
884,6	2,053
885,1	-2,027
885,5	-8,187
885,9	-3,707
886,3	-1,107
886,8	-2,627
887,2	-1,387
887,6	-1,427
888	-9,307
888,5	-8,667
888,9	-1,187
889,3	-11,907
889,8	-10,307
890,2	-6,507
890,6	-6,827
891	-11,187
891,5	-0,987
891,9	-1,627
892,3	2,573
892,7	3,933
893,2	5,493
893,6	5,813
894	1,213
894,4	-8,307
894,9	-5,867
895,3	-9,747
895,7	-13,947
896,1	-4,907
896,6	-1,347
897	-4,507
897,4	0,293
897,8	1,253
898,3	-0,227
898,7	2,053
899,1	3,093
899,5	5,653
900	5,253
900,4	6,493
900,8	7,453
901,2	4,293
901,7	1,373
902,1	0,853
902,5	-4,507
902,9	-4,467
903,4	-2,227
903,8	-6,347
904,2	-1,667
904,6	2,133
905,1	2,333
905,5	-0,307
905,9	4,653
906,3	5,733
906,8	8,893
907,2	9,413
907,6	5,413
908	5,733
908,5	4,173
908,9	-1,907
909,3	-1,307
909,7	4,933
910,2	5,813
910,6	6,093
911	11,573
911,4	8,293
911,9	5,373
912,3	0,333
912,7	-0,987
913,1	-7,307
913,6	-11,587
914	-9,067
914,4	-5,787
914,8	-2,587
915,3	0,933
915,7	3,813
916,1	0,813
916,5	3,813
916,9	-0,547
917,4	-4,067
917,8	-1,067
918,2	4,013
918,6	1,213
919,1	5,373
919,5	3,093
919,9	-5,147
920,3	-10,427
920,8	-13,307
921,2	-13,267
921,6	-10,507
922	-6,707
922,5	-7,107
922,9	-11,467
923,3	-10,147
923,7	-5,787
924,2	-4,747
924,6	1,493
925	15,253
925,4	6,733
925,8	2,533
926,3	7,053
926,7	8,613
927,1	-0,387
927,5	4,573
928	4,573
928,4	-0,227
928,8	-6,507
929,2	-5,747
929,7	-6,907
930,1	-9,307
930,5	-6,827
930,9	-6,467
931,3	-6,107
931,8	-3,467
932,2	0,573
932,6	-4,467
933	-2,947
933,5	1,133
933,9	-6,227
934,3	-4,107
934,7	-3,547
935,2	-1,467
935,6	-3,147
936	-1,867
936,4	-7,867
936,8	-4,667
937,3	-5,267
937,7	-10,587
938,1	-9,667
938,5	-3,987
939	-4,507
939,4	-6,747
939,8	-7,227
940,2	-7,267
940,6	-10,507
941,1	-8,747
941,5	-8,867
941,9	-7,667
942,3	-8,187
942,8	-13,467
943,2	-17,147
943,6	-20,427
944	-21,027
944,4	-16,467
944,9	-12,387
945,3	-12,387
945,7	-15,187
946,1	-10,227
946,6	-13,947
947	-10,667
947,4	-10,587
947,8	-3,307
948,2	-4,787
948,7	-3,027
949,1	-3,507
949,5	-4,427
949,9	-1,347
950,3	-3,787
950,8	-3,987
951,2	-6,147
951,6	-2,867
952	-10,307
952,5	-7,947
952,9	-8,907
953,3	-9,387
953,7	-12,907
954,1	-3,787
954,6	-8,627
955	-9,427
955,4	-9,387
955,8	-7,667
956,2	-12,227
956,7	-7,307
957,1	-3,627
957,5	0,653
957,9	-2,747
958,3	-6,707
958,8	-6,747
959,2	-7,387
959,6	-8,907
960	-10,507
960,5	-13,387
960,9	-13,667
961,3	-14,187
961,7	-18,667
962,1	-13,107
962,6	-5,667
963	-11,547
963,4	-16,907
963,8	-16,427
964,2	-16,627
964,7	-21,547
965,1	-16,947
965,5	-16,027
965,9	-13,427
966,3	-14,627
966,8	-16,147
967,2	-16,307
967,6	-12,507
968	-10,867
968,4	-7,947
968,9	-2,107
969,3	-6,947
969,7	-12,227
970,1	-18,587
970,5	-16,867
971	-18,987
971,4	-13,187
971,8	-9,587
972,2	-2,387
972,6	-7,067
973,1	-10,947
973,5	-11,587
973,9	-13,427
974,3	-17,867
974,7	-13,467
975,2	-8,387
975,6	-10,627
976	-6,547
976,4	-6,187
976,8	-10,667
977,3	-16,267
977,7	-13,587
978,1	-10,227
978,5	-10,827
978,9	-9,827
979,4	-12,827
979,8	-12,347
980,2	-19,987
980,6	-14,667
981	-13,987
981,5	-7,267
981,9	-4,587
982,3	0,773
982,7	1,973
983,1	2,333
983,6	7,573
984	4,533
984,4	-0,147
984,8	-3,507
985,2	-5,107
985,6	-11,667
986,1	-12,027
986,5	-7,867
986,9	-9,667
987,3	-8,187
987,7	-9,667
988,2	-8,467
988,6	-9,747
989	-9,907
989,4	-11,507
989,8	-9,067
990,3	-13,427
990,7	-14,547
991,1	-17,987
991,5	-19,827
991,9	-20,067
992,3	-17,427
992,8	-16,827
993,2	-11,907
993,6	-10,467
994	-8,027
994,4	-3,547
994,9	1,853
995,3	1,893
995,7	5,173
996,1	5,773
996,5	1,693
996,9	-3,867
997,4	-5,867
997,8	-13,187
998,2	-10,227
998,6	-12,387
999	-13,427
999,5	-14,987
999,9	-10,867
1000,3	-14,747
1000,7	-14,147
1001,1	-12,307
1001,5	-5,347
1002	-7,707
1002,4	-8,027
1002,8	-6,467
1003,2	-3,947
1003,6	-7,027
1004	-7,107
1004,5	-7,187
1004,9	-2,987
1005,3	-8,507
1005,7	-10,227
1006,1	-3,227
1006,6	-5,987
1007	-7,067
1007,4	-9,587
1007,8	-11,267
1008,2	-14,867
1008,6	-16,347
1009,1	-19,147
1009,5	-11,947
1009,9	-14,347
1010,3	-15,307
1010,7	-11,867
1011,1	-10,867
1011,6	-13,307
1012	-9,227
1012,4	-9,787
1012,8	-12,947
1013,2	-13,787
1013,6	-12,867
1014,1	-10,827
1014,5	-6,187
1014,9	-3,747
1015,3	-4,467
1015,7	-6,387
1016,1	-8,387
1016,6	-5,627
1017	-0,947
1017,4	-4,707
1017,8	-7,747
1018,2	-6,907
1018,6	-7,747
1019,1	-11,707
1019,5	-3,067
1019,9	2,133
1020,3	5,013
1020,7	3,613
1021,1	-3,787
1021,6	-2,787
1022	-4,587
1022,4	-8,827
1022,8	-9,867
1023,2	-1,307
1023,6	-3,427
1024,1	-5,867
1024,5	-10,667
1024,9	-18,907
1025,3	-23,787
1025,7	-32,427
1026,1	-30,107
1026,6	-25,747
1027	-21,227
1027,4	-23,507
1027,8	-18,467
1028,2	-19,227
1028,6	-18,547
1029	-14,987
1029,5	-13,027
1029,9	-7,867
1030,3	-10,107
1030,7	-7,627
1031,1	-12,947
1031,5	-5,107
1032	-11,227
1032,4	-14,427
1032,8	-12,507
1033,2	-8,307
1033,6	-8,587
1034	-5,347
1034,4	3,453
1034,9	-4,627
1035,3	-6,667
1035,7	-15,267
1036,1	-16,067
1036,5	-14,947
1036,9	-13,027
1037,4	-14,147
1037,8	-13,387
1038,2	-10,627
1038,6	-18,627
1039	-16,387
1039,4	-9,667
1039,8	-6,427
1040,3	-11,747
1040,7	-4,067
1041,1	-5,787
1041,5	-12,627
1041,9	-10,907
1042,3	-12,547
1042,7	-13,627
1043,2	-13,027
1043,6	-13,947
1044	-11,147
1044,4	-11,467
1044,8	-16,227
1045,2	-16,387
1045,6	-21,787
1046,1	-26,787
1046,5	-28,787
1046,9	-26,667
1047,3	-22,347
1047,7	-10,947
1048,1	-10,907
1048,5	-6,587
1049	-0,027
1049,4	-4,587
1049,8	-4,667
1050,2	-5,907
1050,6	-6,867
1051	-13,827
1051,4	-10,427
1051,9	-16,787
1052,3	-17,707
1052,7	-19,987
1053,1	-26,067
1053,5	-25,387
1053,9	-19,707
1054,3	-16,107
1054,8	-5,027
1055,2	0,973
1055,6	-1,867
1056	-3,027
1056,4	-3,867
1056,8	-9,667
1057,2	-3,347
1057,6	-9,507
1058,1	-11,747
1058,5	-9,267
1058,9	-12,707
1059,3	-18,707
1059,7	-10,187
1060,1	-11,827
1060,5	-16,627
1061	-14,787
1061,4	-12,347
1061,8	-9,107
1062,2	-0,827
1062,6	3,133
1063	4,413
1063,4	3,653
1063,8	-8,507
1064,3	-7,547
1064,7	-3,867
1065,1	-2,747
1065,5	-5,947
1065,9	2,613
1066,3	-3,547
1066,7	-14,027
1067,1	-15,067
1067,6	-13,147
1068	-13,387
1068,4	-13,467
1068,8	-2,267
1069,2	-4,827
1069,6	-9,227
1070	-10,707
1070,4	-10,707
1070,9	-13,627
1071,3	-8,067
1071,7	-3,107
1072,1	-2,187
1072,5	-3,867
1072,9	-5,787
1073,3	-5,467
1073,7	-13,547
1074,2	-19,067
1074,6	-12,787
1075	-16,987
1075,4	-17,627
1075,8	-10,547
1076,2	-7,147
1076,6	-8,747
1077	-2,947
1077,5	-12,067
1077,9	-6,827
1078,3	-1,667
1078,7	-5,067
1079,1	-5,307
1079,5	-4,187
1079,9	-8,667
1080,3	-11,987
1080,7	-11,947
1081,2	-14,147
1081,6	-13,267
1082	-16,627
1082,4	-18,027
1082,8	-20,227
1083,2	-19,547
1083,6	-14,987
1084	-13,947
1084,5	-12,987
1084,9	-14,627
1085,3	-9,947
1085,7	-11,547
1086,1	-4,667
1086,5	-5,907
1086,9	0,133
1087,3	-8,427
1087,7	-9,587
1088,2	-17,507
1088,6	-13,627
1089	-12,987
1089,4	-8,507
1089,8	-5,627
1090,2	-3,347
1090,6	-8,267
1091	-14,267
1091,4	-15,587
1091,9	-18,227
1092,3	-15,827
1092,7	-14,227
1093,1	-13,867
1093,5	-11,107
1093,9	-12,907
1094,3	-14,307
1094,7	-13,267
1095,1	-11,587
1095,5	-17,067
1096	-12,507
1096,4	-15,347
1096,8	-11,387
1097,2	-8,347
1097,6	-2,307
1098	-3,867
1098,4	1,933
1098,8	-8,547
1099,2	-10,347
1099,6	-13,827
1100,1	-16,667
1100,5	-18,867
1100,9	-8,387
1101,3	-5,467
1101,7	-4,587
1102,1	-3,387
1102,5	-7,587
1102,9	-4,267
1103,3	-9,107
1103,7	-6,227
1104,2	-2,707
1104,6	-0,707
1105	-6,667
1105,4	-2,187
1105,8	-0,787
1106,2	-1,187
1106,6	3,013
1107	3,333
1107,4	2,773
1107,8	0,033
1108,3	1,067
