Data from Subt2_00001.txt Node
Date: Fri Aug 11 15:12:23 MSK 2023
User: vat
Spectrometer: MAYP114033
Trigger mode: 0
Integration Time (sec): 5,000000E-1
Scans to average: 5
Electric dark correction enabled: true
Nonlinearity correction enabled: false
Boxcar width: 2
XAxis mode: Wavelengths
Number of Pixels in Spectrum: 2068
>>>>>Begin Spectral Data<<<<<
199,4	-1
199,9	-0,933
200,4	-3,533
200,8	-1,853
201,3	-3,813
201,8	-5,653
202,2	-8,773
202,7	-6,373
203,2	-8,893
203,6	-11,253
204,1	-11,853
204,6	-9,053
205	-10,293
205,5	-13,573
206	-9,173
206,4	-7,053
206,9	-4,693
207,4	-8,053
207,8	-6,093
208,3	-11,093
208,8	-14,733
209,2	-23,533
209,7	-26,853
210,2	-30,173
210,6	-26,413
211,1	-30,293
211,5	-27,973
212	-24,053
212,5	-17,493
212,9	-16,973
213,4	-8,893
213,9	-5,013
214,3	-5,293
214,8	-12,933
215,3	-12,373
215,7	-13,293
216,2	-15,653
216,7	-13,613
217,1	-7,813
217,6	-10,693
218,1	-15,573
218,5	-17,933
219	-18,133
219,5	-23,373
219,9	-26,253
220,4	-26,853
220,9	-24,213
221,3	-21,973
221,8	-20,893
222,3	-23,013
222,7	-21,253
223,2	-24,613
223,6	-30,533
224,1	-25,573
224,6	-21,733
225	-18,573
225,5	-16,293
226	-12,933
226,4	-16,213
226,9	-12,733
227,4	-21,453
227,8	-24,693
228,3	-27,933
228,8	-28,933
229,2	-27,373
229,7	-20,773
230,2	-20,813
230,6	-14,413
231,1	-9,853
231,5	-13,533
232	-11,173
232,5	-6,093
232,9	-9,813
233,4	-12,013
233,9	-13,413
234,3	-14,293
234,8	-16,933
235,3	-19,413
235,7	-16,293
236,2	-16,533
236,7	-22,373
237,1	-22,093
237,6	-21,293
238,1	-26,813
238,5	-30,133
239	-27,493
239,4	-30,853
239,9	-27,933
240,4	-26,053
240,8	-21,773
241,3	-21,133
241,8	-17,333
242,2	-21,973
242,7	-22,813
243,2	-16,973
243,6	-12,253
244,1	-10,573
244,6	-10,173
245	-9,613
245,5	-17,733
245,9	-26,133
246,4	-29,573
246,9	-31,453
247,3	-34,373
247,8	-26,133
248,3	-16,213
248,7	-14,853
249,2	-6,093
249,7	-2,133
250,1	-10,933
250,6	-12,613
251	-13,493
251,5	-20,453
252	-24,053
252,4	-15,493
252,9	-21,133
253,4	-13,933
253,8	-9,253
254,3	-12,533
254,8	-14,813
255,2	-15,013
255,7	-18,493
256,1	-20,973
256,6	-17,973
257,1	-29,773
257,5	-24,573
258	-32,413
258,5	-32,973
258,9	-27,813
259,4	-14,533
259,9	-15,613
260,3	-5,693
260,8	-6,813
261,2	-9,253
261,7	-11,773
262,2	-12,453
262,6	-13,453
263,1	-14,613
263,6	-16,293
264	-22,333
264,5	-25,093
264,9	-27,093
265,4	-19,453
265,9	-21,653
266,3	-13,453
266,8	-10,373
267,3	-8,973
267,7	-8,493
268,2	-2,693
268,7	-3,853
269,1	-1,253
269,6	-4,413
270	-8,693
270,5	-7,813
271	-11,253
271,4	-15,533
271,9	-16,373
272,4	-10,653
272,8	-18,493
273,3	-9,133
273,7	-10,373
274,2	-9,013
274,7	-16,053
275,1	-11,853
275,6	-18,613
276,1	-16,613
276,5	-15,733
277	-7,253
277,4	-6,893
277,9	-14,293
278,4	-14,253
278,8	-11,733
279,3	-18,093
279,8	-18,253
280,2	-15,013
280,7	-13,213
281,1	-14,853
281,6	-14,213
282,1	-18,613
282,5	-12,413
283	-12,893
283,4	-9,173
283,9	-6,853
284,4	-2,173
284,8	-4,053
285,3	-4,533
285,8	-8,373
286,2	-10,733
286,7	-10,093
287,1	-9,533
287,6	-13,213
288,1	-19,493
288,5	-17,413
289	-20,693
289,5	-25,213
289,9	-20,373
290,4	-17,653
290,8	-21,213
291,3	-20,773
291,8	-20,333
292,2	-25,693
292,7	-21,733
293,1	-23,373
293,6	-24,893
294,1	-29,773
294,5	-31,253
295	-38,493
295,5	-32,133
295,9	-27,693
296,4	-16,213
296,8	-14,333
297,3	-5,533
297,8	-12,213
298,2	-16,333
298,7	-21,493
299,1	-17,453
299,6	-20,573
300,1	-19,453
300,5	-17,813
301	-22,293
301,5	-23,253
301,9	-24,173
302,4	-16,653
302,8	-13,973
303,3	-13,173
303,8	-12,493
304,2	-13,213
304,7	-19,213
305,1	-24,093
305,6	-17,813
306,1	-18,653
306,5	-16,653
307	-17,093
307,4	-10,133
307,9	-14,133
308,4	-16,613
308,8	-18,333
309,3	-16,333
309,8	-20,573
310,2	-22,613
310,7	-22,613
311,1	-24,533
311,6	-29,133
312,1	-25,133
312,5	-23,573
313	-21,733
313,4	-18,693
313,9	-19,453
314,4	-22,853
314,8	-13,933
315,3	-12,973
315,7	-13,693
316,2	-6,973
316,7	-6,333
317,1	-13,333
317,6	-15,253
318	-15,173
318,5	-18,493
319	-16,013
319,4	-20,533
319,9	-17,653
320,3	-14,373
320,8	-13,453
321,3	-15,413
321,7	-4,293
322,2	-6,093
322,6	-14,293
323,1	-19,973
323,6	-23,853
324	-26,933
324,5	-28,453
324,9	-21,853
325,4	-20,333
325,9	-17,053
326,3	-20,133
326,8	-19,813
327,2	-18,133
327,7	-12,813
328,2	-16,653
328,6	-15,013
329,1	-19,493
329,5	-20,853
330	-21,693
330,5	-20,493
330,9	-25,533
331,4	-23,173
331,8	-25,813
332,3	-26,213
332,8	-23,813
333,2	-26,813
333,7	-20,733
334,1	-17,253
334,6	-21,853
335,1	-22,093
335,5	-11,533
336	-18,293
336,4	-23,533
336,9	-22,453
337,4	-22,013
337,8	-26,733
338,3	-23,653
338,7	-22,893
339,2	-18,613
339,7	-16,453
340,1	-15,293
340,6	-17,533
341	-10,533
341,5	-14,133
342	-14,453
342,4	-15,853
342,9	-14,333
343,3	-20,093
343,8	-20,413
344,2	-23,493
344,7	-21,493
345,2	-18,253
345,6	-17,053
346,1	-15,093
346,5	-12,973
347	-13,653
347,5	-15,853
347,9	-13,133
348,4	-12,813
348,8	-10,693
349,3	-12,533
349,8	-10,813
350,2	-13,853
350,7	-7,373
351,1	-16,333
351,6	-13,373
352	-14,013
352,5	-10,973
353	-16,453
353,4	-4,693
353,9	3,987
354,3	15,987
354,8	22,187
355,3	30,267
355,7	39,787
356,2	45,147
356,6	53,227
357,1	62,747
357,5	77,907
358	91,907
358,5	109,747
358,9	125,187
359,4	151,267
359,8	177,227
360,3	210,547
360,8	245,747
361,2	285,667
361,7	328,507
362,1	372,467
362,6	419,947
363	471,427
363,5	535,667
364	596,307
364,4	659,827
364,9	719,947
365,3	777,107
365,8	833,547
366,3	885,827
366,7	942,627
367,2	990,307
367,6	1027,507
368,1	1049,467
368,5	1074,507
369	1079,787
369,5	1080,747
369,9	1077,147
370,4	1065,787
370,8	1035,907
371,3	1011,987
371,7	972,987
372,2	928,307
372,7	880,467
373,1	834,347
373,6	782,547
374	728,987
374,5	687,227
374,9	637,227
375,4	594,427
375,9	545,587
376,3	504,987
376,8	460,667
377,2	424,187
377,7	386,987
378,2	356,027
378,6	332,387
379,1	307,627
379,5	284,627
380	260,707
380,4	237,467
380,9	215,787
381,4	196,907
381,8	180,587
382,3	163,147
382,7	153,507
383,2	142,227
383,6	133,027
384,1	123,707
384,6	118,507
385	104,467
385,5	94,787
385,9	86,747
386,4	78,547
386,8	75,307
387,3	70,267
387,7	62,987
388,2	59,467
388,7	54,267
389,1	43,947
389,6	42,267
390	39,947
390,5	36,667
390,9	32,747
391,4	31,827
391,9	29,267
392,3	24,747
392,8	24,787
393,2	26,907
393,7	24,227
394,1	21,947
394,6	34,147
395,1	32,667
395,5	34,987
396	41,947
396,4	38,187
396,9	29,467
397,3	21,867
397,8	18,587
398,2	9,827
398,7	14,667
399,2	8,547
399,6	12,467
400,1	9,147
400,5	5,267
401	7,347
401,4	9,347
401,9	11,267
402,4	14,867
402,8	15,907
403,3	16,587
403,7	10,027
404,2	0,787
404,6	-0,973
405,1	-0,813
405,5	5,787
406	15,067
406,5	20,947
406,9	17,467
407,4	23,827
407,8	13,387
408,3	9,707
408,7	6,267
409,2	4,587
409,6	-0,053
410,1	-0,653
410,6	6,667
411	7,467
411,5	18,027
411,9	22,387
412,4	27,587
412,8	29,467
413,3	31,507
413,7	18,587
414,2	22,667
414,7	14,707
415,1	4,027
415,6	5,027
416	18,307
416,5	18,947
416,9	20,147
417,4	29,627
417,8	35,667
418,3	35,467
418,8	38,467
419,2	42,147
419,7	36,667
420,1	37,307
420,6	33,147
421	32,227
421,5	34,587
421,9	39,347
422,4	35,347
422,8	41,987
423,3	37,507
423,8	44,987
424,2	44,587
424,7	43,147
425,1	38,987
425,6	43,347
426	37,067
426,5	37,547
426,9	43,827
427,4	45,627
427,9	46,347
428,3	48,747
428,8	48,187
429,2	46,827
429,7	52,307
430,1	48,987
430,6	49,307
431	51,067
431,5	52,547
431,9	45,387
432,4	52,547
432,8	56,147
433,3	63,507
433,8	64,867
434,2	67,547
434,7	67,227
435,1	71,307
435,6	72,187
436	76,467
436,5	86,627
436,9	95,467
437,4	94,587
437,8	99,947
438,3	107,787
438,8	111,427
439,2	119,307
439,7	124,827
440,1	126,307
440,6	123,827
441	125,347
441,5	124,907
441,9	134,827
442,4	149,627
442,8	163,227
443,3	175,787
443,7	184,427
444,2	191,067
444,7	192,827
445,1	197,547
445,6	206,707
446	212,187
446,5	225,867
446,9	232,467
447,4	241,507
447,8	248,387
448,3	256,867
448,7	270,627
449,2	284,227
449,6	299,027
450,1	308,787
450,6	315,987
451	319,987
451,5	329,547
451,9	340,667
452,4	350,107
452,8	368,347
453,3	379,107
453,7	394,067
454,2	404,587
454,6	423,507
455,1	431,307
455,5	449,747
456	462,187
456,4	477,867
456,9	488,747
457,3	515,947
457,8	529,187
458,3	551,747
458,7	567,467
459,2	587,147
459,6	599,547
460,1	616,907
460,5	627,387
461	642,747
461,4	659,547
461,9	671,507
462,3	689,347
462,8	707,587
463,2	727,147
463,7	750,187
464,1	776,267
464,6	796,667
465	819,387
465,5	836,627
466	852,827
466,4	875,347
466,9	892,267
467,3	919,627
467,8	941,307
468,2	960,947
468,7	976,107
469,1	998,427
469,6	1010,387
470	1034,147
470,5	1056,587
470,9	1075,987
471,4	1098,107
471,8	1118,587
472,3	1136,187
472,7	1157,347
473,2	1179,907
473,6	1203,107
474,1	1230,227
474,5	1253,547
475	1269,227
475,4	1284,787
475,9	1298,547
476,4	1310,627
476,8	1331,507
477,3	1359,307
477,7	1380,427
478,2	1397,787
478,6	1409,787
479,1	1427,307
479,5	1433,267
480	1449,707
480,4	1472,627
480,9	1492,067
481,3	1504,427
481,8	1527,107
482,2	1548,987
482,7	1557,067
483,1	1573,307
483,6	1584,627
484	1593,267
484,5	1594,907
484,9	1606,747
485,4	1615,987
485,8	1633,987
486,3	1648,627
486,7	1665,827
487,2	1676,987
487,6	1686,027
488,1	1688,587
488,5	1692,227
489	1695,547
489,4	1699,987
489,9	1710,707
490,4	1715,387
490,8	1720,147
491,3	1724,627
491,7	1726,707
492,2	1730,027
492,6	1736,147
493,1	1734,507
493,5	1735,627
494	1736,387
494,4	1730,427
494,9	1731,547
495,3	1735,787
495,8	1737,987
496,2	1737,827
496,7	1741,867
497,1	1737,347
497,6	1734,507
498	1735,187
498,5	1738,107
498,9	1732,947
499,4	1729,827
499,8	1722,547
500,3	1711,907
500,7	1707,827
501,2	1706,547
501,6	1701,867
502,1	1706,907
502,5	1699,547
503	1696,307
503,4	1692,787
503,9	1684,467
504,3	1671,107
504,8	1675,587
505,2	1666,707
505,7	1659,907
506,1	1662,187
506,6	1660,667
507	1651,187
507,5	1648,267
507,9	1632,867
508,4	1625,747
508,8	1622,747
509,3	1612,907
509,7	1604,667
510,2	1605,827
510,6	1589,947
511,1	1577,187
511,5	1570,987
512	1561,907
512,4	1546,987
512,9	1539,707
513,3	1524,587
513,8	1514,147
514,2	1515,907
514,7	1510,707
515,1	1508,427
515,6	1506,507
516	1504,187
516,5	1485,707
516,9	1482,267
517,4	1469,827
517,8	1470,507
518,3	1465,267
518,7	1453,227
519,2	1450,347
519,6	1447,067
520,1	1436,987
520,5	1423,027
521	1416,387
521,4	1403,667
521,9	1395,867
522,3	1385,867
522,8	1380,267
523,2	1382,507
523,7	1380,987
524,1	1378,947
524,6	1370,547
525	1363,867
525,5	1351,027
525,9	1345,107
526,4	1339,747
526,8	1339,147
527,3	1333,267
527,7	1335,387
528,2	1328,987
528,6	1321,307
529,1	1316,187
529,5	1317,947
530	1309,027
530,4	1301,387
530,9	1303,867
531,3	1305,827
531,8	1298,187
532,2	1295,827
532,6	1296,347
533,1	1283,987
533,5	1268,907
534	1260,827
534,4	1256,907
534,9	1249,627
535,3	1245,187
535,8	1247,027
536,2	1250,267
536,7	1243,867
537,1	1240,587
537,6	1239,187
538	1233,467
538,5	1229,347
538,9	1226,947
539,4	1224,147
539,8	1227,147
540,3	1228,787
540,7	1231,267
541,2	1233,387
541,6	1235,907
542,1	1231,907
542,5	1231,707
543	1221,867
543,4	1219,347
543,9	1213,267
544,3	1202,227
544,8	1197,707
545,2	1198,067
545,7	1193,987
546,1	1190,827
546,5	1197,107
547	1192,707
547,4	1193,907
547,9	1186,427
548,3	1182,307
548,8	1188,947
549,2	1191,347
549,7	1191,547
550,1	1195,547
550,6	1190,387
551	1176,347
551,5	1173,867
551,9	1171,787
552,4	1168,907
552,8	1178,227
553,3	1175,027
553,7	1166,347
554,2	1163,347
554,6	1164,867
555,1	1162,587
555,5	1165,907
555,9	1162,747
556,4	1156,747
556,8	1161,507
557,3	1162,027
557,7	1164,227
558,2	1162,307
558,6	1166,547
559,1	1155,947
559,5	1150,987
560	1146,307
560,4	1153,787
560,9	1154,147
561,3	1165,067
561,8	1161,267
562,2	1158,987
562,7	1150,067
563,1	1145,227
563,6	1132,467
564	1132,587
564,4	1138,307
564,9	1147,707
565,3	1140,707
565,8	1134,987
566,2	1132,067
566,7	1124,187
567,1	1120,867
567,6	1120,027
568	1125,227
568,5	1125,987
568,9	1125,307
569,4	1118,947
569,8	1120,307
570,3	1119,467
570,7	1121,907
571,1	1125,787
571,6	1124,827
572	1127,627
572,5	1122,627
572,9	1117,587
573,4	1107,827
573,8	1108,947
574,3	1102,747
574,7	1109,707
575,2	1101,347
575,6	1100,227
576,1	1099,507
576,5	1103,427
576,9	1090,747
577,4	1087,947
577,8	1087,387
578,3	1084,227
578,7	1082,347
579,2	1089,867
579,6	1090,667
580,1	1086,907
580,5	1082,787
581	1068,147
581,4	1060,467
581,9	1055,667
582,3	1047,787
582,7	1038,467
583,2	1044,867
583,6	1040,427
584,1	1039,867
584,5	1043,627
585	1046,307
585,4	1041,427
585,9	1040,627
586,3	1036,827
586,8	1030,267
587,2	1026,387
587,6	1026,867
588,1	1021,227
588,5	1025,947
589	1021,907
589,4	1022,947
589,9	1012,187
590,3	1009,907
590,8	996,707
591,2	999,507
591,7	997,587
592,1	1000,907
592,5	996,027
593	998,307
593,4	993,547
593,9	983,667
594,3	981,627
594,8	985,067
595,2	979,427
595,7	980,787
596,1	984,307
596,6	980,427
597	973,147
597,4	972,867
597,9	961,507
598,3	955,867
598,8	958,147
599,2	953,787
599,7	955,987
600,1	958,027
600,6	944,347
601	937,627
601,4	934,107
601,9	921,267
602,3	915,747
602,8	924,067
603,2	917,027
603,7	913,707
604,1	914,627
604,6	912,787
605	906,987
605,4	906,387
605,9	903,707
606,3	901,427
606,8	897,667
607,2	894,267
607,7	890,227
608,1	887,707
608,6	883,787
609	882,587
609,4	880,147
609,9	879,907
610,3	876,627
610,8	877,227
611,2	873,707
611,7	877,387
612,1	866,787
612,6	860,707
613	850,987
613,4	845,987
613,9	828,387
614,3	827,427
614,8	824,947
615,2	816,667
615,7	811,267
616,1	816,707
616,6	807,187
617	807,307
617,4	811,347
617,9	811,587
618,3	809,627
618,8	803,987
619,2	797,027
619,7	793,147
620,1	781,107
620,5	772,587
621	773,587
621,4	767,907
621,9	759,507
622,3	754,787
622,8	753,747
623,2	748,227
623,6	746,307
624,1	747,347
624,5	749,987
625	744,827
625,4	744,947
625,9	731,547
626,3	721,827
626,8	711,667
627,2	705,667
627,6	702,627
628,1	700,227
628,5	697,627
629	696,427
629,4	692,107
629,9	685,067
630,3	684,947
630,7	682,987
631,2	678,747
631,6	676,387
632,1	670,147
632,5	664,267
633	661,667
633,4	659,667
633,8	646,347
634,3	641,507
634,7	641,827
635,2	632,987
635,6	628,547
636,1	631,347
636,5	628,227
636,9	621,067
637,4	618,387
637,8	615,507
638,3	613,147
638,7	612,507
639,2	613,307
639,6	613,587
640	610,347
640,5	609,947
640,9	603,427
641,4	602,827
641,8	590,027
642,2	580,787
642,7	575,547
643,1	571,987
643,6	562,347
644	568,347
644,5	569,907
644,9	565,907
645,3	559,987
645,8	561,627
646,2	555,067
646,7	550,427
647,1	549,187
647,6	546,387
648	532,947
648,4	531,507
648,9	526,067
649,3	515,227
649,8	515,787
650,2	516,347
650,6	512,147
651,1	508,467
651,5	506,267
652	502,187
652,4	505,227
652,9	496,627
653,3	501,347
653,7	504,267
654,2	502,747
654,6	493,747
655,1	486,827
655,5	482,547
655,9	477,387
656,4	477,827
656,8	481,027
657,3	487,147
657,7	474,747
658,2	470,507
658,6	461,307
659	452,187
659,5	447,627
659,9	453,347
660,4	449,987
660,8	448,467
661,2	441,547
661,7	438,987
662,1	434,307
662,6	426,347
663	416,187
663,4	414,707
663,9	412,067
664,3	407,547
664,8	405,387
665,2	409,227
665,6	405,587
666,1	401,947
666,5	397,947
667	397,787
667,4	393,467
667,9	395,947
668,3	391,107
668,7	393,627
669,2	387,027
669,6	381,867
670,1	382,907
670,5	377,347
670,9	364,347
671,4	367,067
671,8	358,547
672,3	350,547
672,7	356,547
673,1	361,387
673,6	354,667
674	359,587
674,5	358,267
674,9	343,867
675,3	331,427
675,8	333,787
676,2	331,107
676,7	328,187
677,1	336,267
677,5	338,867
678	327,507
678,4	327,307
678,9	319,987
679,3	314,627
679,7	312,387
680,2	316,747
680,6	307,307
681,1	307,947
681,5	304,587
681,9	301,787
682,4	296,827
682,8	298,907
683,3	298,467
683,7	297,227
684,1	293,427
684,6	294,307
685	291,787
685,5	284,147
685,9	282,507
686,3	284,307
686,8	279,707
687,2	276,827
687,7	279,867
688,1	275,707
688,5	267,947
689	263,027
689,4	258,307
689,9	254,267
690,3	251,787
690,7	251,067
691,2	256,547
691,6	255,267
692	251,667
692,5	249,867
692,9	250,347
693,4	246,267
693,8	247,307
694,2	244,467
694,7	245,827
695,1	245,827
695,6	244,307
696	244,907
696,4	245,147
696,9	238,947
697,3	234,707
697,8	228,027
698,2	224,307
698,6	221,947
699,1	225,547
699,5	223,427
699,9	221,827
700,4	218,507
700,8	214,787
701,3	207,347
701,7	206,347
702,1	204,947
702,6	202,987
703	206,867
703,5	199,667
703,9	196,827
704,3	199,427
704,8	196,227
705,2	189,827
705,6	189,147
706,1	190,827
706,5	175,547
707	173,227
707,4	173,267
707,8	179,587
708,3	172,787
708,7	180,107
709,2	179,227
709,6	178,227
710	177,107
710,5	180,267
710,9	180,507
711,3	177,747
711,8	177,987
712,2	170,587
712,7	166,627
713,1	166,387
713,5	163,827
714	155,027
714,4	154,027
714,8	151,147
715,3	147,467
715,7	153,747
716,2	155,627
716,6	155,227
717	152,067
717,5	145,907
717,9	143,747
718,3	148,067
718,8	146,827
719,2	149,067
719,7	150,827
720,1	145,107
720,5	136,747
721	133,947
721,4	129,947
721,8	133,547
722,3	134,107
722,7	129,347
723,2	127,827
723,6	131,107
724	126,067
724,5	125,387
724,9	130,107
725,3	134,867
725,8	131,827
726,2	131,267
726,7	129,707
727,1	130,027
727,5	128,667
728	122,827
728,4	115,627
728,8	110,587
729,3	102,587
729,7	100,747
730,1	105,027
730,6	107,347
731	108,787
731,5	113,667
731,9	108,627
732,3	105,107
732,8	103,427
733,2	99,107
733,6	96,307
734,1	95,347
734,5	96,387
734,9	100,667
735,4	102,027
735,8	101,107
736,3	103,987
736,7	107,427
737,1	104,187
737,6	102,067
738	104,427
738,4	99,347
738,9	87,867
739,3	92,187
739,7	90,627
740,2	86,387
740,6	85,627
741,1	88,307
741,5	82,747
741,9	82,707
742,4	84,147
742,8	84,467
743,2	81,667
743,7	79,227
744,1	79,627
744,5	79,147
745	77,427
745,4	79,947
745,8	85,187
746,3	86,667
746,7	82,987
747,2	76,427
747,6	79,147
748	75,507
748,5	74,827
748,9	73,107
749,3	80,147
749,8	79,227
750,2	74,307
750,6	74,667
751,1	73,787
751,5	75,187
751,9	72,427
752,4	74,547
752,8	71,827
753,3	67,827
753,7	61,827
754,1	57,307
754,6	52,507
755	52,107
755,4	59,547
755,9	55,547
756,3	54,147
756,7	58,467
757,2	54,987
757,6	50,507
758	49,267
758,5	62,227
758,9	60,067
759,3	62,267
759,8	62,587
760,2	67,907
760,6	54,947
761,1	57,187
761,5	61,907
761,9	63,947
762,4	66,067
762,8	63,667
763,3	64,107
763,7	58,267
764,1	52,987
764,6	52,707
765	57,787
765,4	49,427
765,9	50,147
766,3	53,107
766,7	51,987
767,2	51,827
767,6	51,027
768	52,507
768,5	50,227
768,9	46,707
769,3	43,387
769,8	44,227
770,2	43,187
770,6	43,587
771,1	44,427
771,5	49,787
771,9	50,467
772,4	45,787
772,8	48,187
773,2	43,587
773,7	39,387
774,1	38,347
774,5	37,787
775	33,027
775,4	34,107
775,8	30,147
776,3	33,747
776,7	28,507
777,1	28,427
777,6	30,067
778	31,667
778,4	34,427
778,9	38,907
779,3	36,467
779,7	35,667
780,2	39,947
780,6	37,467
781	36,827
781,5	40,147
781,9	36,867
782,3	35,667
782,8	34,787
783,2	32,387
783,6	33,907
784,1	32,187
784,5	25,827
784,9	21,787
785,4	23,787
785,8	15,907
786,2	24,307
786,7	25,907
787,1	26,907
787,5	24,547
788	26,547
788,4	24,147
788,8	24,907
789,3	25,947
789,7	27,067
790,1	30,627
790,6	30,587
791	34,547
791,4	34,667
791,9	34,627
792,3	28,747
792,7	24,467
793,2	20,067
793,6	14,987
794	17,947
794,5	23,347
794,9	25,187
795,3	29,347
795,8	33,387
796,2	29,667
796,6	26,507
797,1	25,347
797,5	18,067
797,9	17,307
798,4	16,827
798,8	17,427
799,2	15,707
799,7	13,067
800,1	16,587
800,5	15,187
801	16,507
801,4	16,387
801,8	20,547
802,2	15,947
802,7	26,707
803,1	24,267
803,5	29,867
804	28,427
804,4	27,987
804,8	21,587
805,3	18,787
805,7	13,787
806,1	11,147
806,6	9,467
807	9,947
807,4	15,667
807,9	12,707
808,3	21,067
808,7	21,227
809,2	17,067
809,6	13,787
810	17,307
810,4	11,667
810,9	8,787
811,3	7,587
811,7	7,387
812,2	2,107
812,6	-0,373
813	6,467
813,5	9,947
813,9	5,707
814,3	9,787
814,8	12,267
815,2	8,827
815,6	4,227
816,1	11,707
816,5	9,027
816,9	6,907
817,3	5,507
817,8	11,827
818,2	6,387
818,6	5,267
819,1	8,827
819,5	8,987
819,9	1,867
820,4	-1,213
820,8	1,627
821,2	-4,173
821,7	0,187
822,1	-1,133
822,5	5,387
822,9	7,627
823,4	14,467
823,8	7,547
824,2	7,467
824,7	2,947
825,1	-1,813
825,5	-6,013
826	-10,213
826,4	-4,613
826,8	0,947
827,3	5,227
827,7	4,267
828,1	9,587
828,5	6,067
829	2,067
829,4	1,347
829,8	5,987
830,3	8,827
830,7	9,867
831,1	8,147
831,6	6,987
832	4,907
832,4	3,547
832,8	4,827
833,3	5,507
833,7	6,627
834,1	5,547
834,6	4,107
835	-3,493
835,4	-5,773
835,8	-11,213
836,3	-12,933
836,7	-14,333
837,1	-8,293
837,6	-4,933
838	-6,973
838,4	-4,133
838,9	-5,173
839,3	-7,653
839,7	-8,093
840,1	-3,853
840,6	-8,773
841	-4,613
841,4	-7,453
841,9	-7,453
842,3	-7,573
842,7	-5,653
843,1	-7,493
843,6	-1,733
844	-6,813
844,4	-5,613
844,9	-5,773
845,3	-2,653
845,7	-10,533
846,2	-7,373
846,6	-6,733
847	-15,453
847,4	-17,853
847,9	-14,013
848,3	-16,653
848,7	-13,413
849,2	-6,333
849,6	-4,893
850	2,787
850,4	7,147
850,9	4,147
851,3	5,227
851,7	5,547
852,2	-2,693
852,6	-7,253
853	-6,693
853,4	-6,293
853,9	-15,293
854,3	-9,493
854,7	-7,253
855,2	-8,773
855,6	-11,213
856	-11,613
856,4	-17,653
856,9	-19,173
857,3	-19,893
857,7	-14,533
858,2	-6,213
858,6	-2,693
859	-0,693
859,4	-9,173
859,9	-9,933
860,3	-12,173
860,7	-9,773
861,1	-4,613
861,6	2,387
862	1,227
862,4	1,627
862,9	0,147
863,3	-8,093
863,7	-3,213
864,1	-4,213
864,6	-5,413
865	-10,973
865,4	-3,693
865,9	-6,333
866,3	-5,173
866,7	-8,253
867,1	-8,333
867,6	-14,733
868	-10,933
868,4	-14,333
868,8	-14,213
869,3	-9,773
869,7	-8,093
870,1	-11,853
870,6	-8,853
871	-5,733
871,4	-6,493
871,8	-6,253
872,3	-9,133
872,7	-4,413
873,1	-5,213
873,5	-4,693
874	-1,413
874,4	6,027
874,8	-2,293
875,3	2,587
875,7	1,747
876,1	-0,973
876,5	-7,693
877	-3,133
877,4	-5,373
877,8	0,267
878,2	0,507
878,7	-1,173
879,1	-3,573
879,5	-9,053
879,9	-17,773
880,4	-15,133
880,8	-11,613
881,2	-12,773
881,7	-13,533
882,1	-8,173
882,5	-7,213
882,9	-10,173
883,4	-10,893
883,8	-11,493
884,2	-10,453
884,6	-19,453
885,1	-18,813
885,5	-20,733
885,9	-14,653
886,3	-15,133
886,8	-10,653
887,2	-13,093
887,6	-10,173
888	-15,413
888,5	-18,973
888,9	-25,093
889,3	-18,493
889,8	-19,213
890,2	-22,493
890,6	-22,893
891	-16,253
891,5	-20,013
891,9	-20,693
892,3	-11,373
892,7	-10,413
893,2	-15,493
893,6	-13,773
894	-9,893
894,4	-16,733
894,9	-14,773
895,3	-4,333
895,7	-7,533
896,1	-13,333
896,6	-6,413
897	-9,733
897,4	-11,733
897,8	-9,093
898,3	-6,453
898,7	-10,293
899,1	-2,613
899,5	-9,653
900	-12,613
900,4	-15,533
900,8	-10,173
901,2	-15,733
901,7	-9,813
902,1	-5,333
902,5	-5,053
902,9	-6,373
903,4	-9,773
903,8	-12,973
904,2	-14,453
904,6	-10,893
905,1	-19,133
905,5	-18,373
905,9	-16,653
906,3	-22,253
906,8	-21,773
907,2	-13,933
907,6	-15,973
908	-21,053
908,5	-17,573
908,9	-18,333
909,3	-20,933
909,7	-15,853
910,2	-19,853
910,6	-17,653
911	-16,213
911,4	-13,933
911,9	-13,973
912,3	-5,613
912,7	-9,173
913,1	-13,093
913,6	-15,093
914	-16,813
914,4	-17,653
914,8	-18,213
915,3	-16,933
915,7	-20,493
916,1	-23,333
916,5	-21,173
916,9	-19,173
917,4	-18,853
917,8	-15,373
918,2	-7,613
918,6	-7,333
919,1	-8,733
919,5	-5,973
919,9	-6,453
920,3	-9,133
920,8	-11,373
921,2	-6,893
921,6	-9,853
922	-11,733
922,5	-10,133
922,9	-6,493
923,3	-14,213
923,7	-10,693
924,2	-11,813
924,6	-14,853
925	-20,693
925,4	-16,413
925,8	-22,573
926,3	-22,693
926,7	-23,093
927,1	-21,973
927,5	-22,653
928	-19,493
928,4	-11,733
928,8	-8,693
929,2	-5,773
929,7	-9,253
930,1	-15,413
930,5	-19,493
930,9	-27,133
931,3	-30,853
931,8	-30,773
932,2	-24,813
932,6	-25,053
933	-24,293
933,5	-23,853
933,9	-23,053
934,3	-20,973
934,7	-24,333
935,2	-22,293
935,6	-24,013
936	-28,853
936,4	-31,653
936,8	-26,853
937,3	-22,013
937,7	-20,693
938,1	-4,093
938,5	0,067
939	-5,773
939,4	-12,613
939,8	-12,013
940,2	-20,373
940,6	-24,893
941,1	-19,973
941,5	-19,813
941,9	-24,093
942,3	-26,333
942,8	-21,453
943,2	-22,333
943,6	-24,773
944	-23,053
944,4	-26,453
944,9	-35,613
945,3	-38,533
945,7	-39,053
946,1	-33,173
946,6	-26,253
947	-24,653
947,4	-21,253
947,8	-14,813
948,2	-22,213
948,7	-24,253
949,1	-16,013
949,5	-12,773
949,9	-8,333
950,3	-5,373
950,8	-5,013
951,2	-9,413
951,6	-15,013
952	-21,533
952,5	-20,893
952,9	-24,173
953,3	-28,213
953,7	-25,413
954,1	-20,813
954,6	-24,293
955	-23,493
955,4	-21,253
955,8	-23,333
956,2	-29,253
956,7	-28,853
957,1	-25,133
957,5	-28,213
957,9	-25,093
958,3	-20,373
958,8	-8,693
959,2	-15,213
959,6	-11,613
960	-16,453
960,5	-23,773
960,9	-26,773
961,3	-24,293
961,7	-18,453
962,1	-16,893
962,6	-12,293
963	-15,413
963,4	-18,253
963,8	-22,413
964,2	-21,893
964,7	-22,213
965,1	-27,733
965,5	-18,293
965,9	-23,573
966,3	-23,573
966,8	-26,493
967,2	-22,013
967,6	-28,453
968	-22,813
968,4	-21,733
968,9	-17,853
969,3	-21,733
969,7	-15,893
970,1	-14,493
970,5	-15,213
971	-19,493
971,4	-14,653
971,8	-18,213
972,2	-19,173
972,6	-17,853
973,1	-10,333
973,5	-12,853
973,9	-10,453
974,3	-14,693
974,7	-10,733
975,2	-9,373
975,6	-9,333
976	-12,413
976,4	-6,533
976,8	-8,933
977,3	-11,693
977,7	-10,373
978,1	-12,373
978,5	-14,213
978,9	-14,933
979,4	-9,053
979,8	-5,693
980,2	-4,133
980,6	-3,973
981	-6,093
981,5	-16,333
981,9	-17,093
982,3	-13,413
982,7	-16,213
983,1	-15,253
983,6	-12,733
984	-17,973
984,4	-20,333
984,8	-19,573
985,2	-23,773
985,6	-25,373
986,1	-21,093
986,5	-20,453
986,9	-18,133
987,3	-15,693
987,7	-15,173
988,2	-18,173
988,6	-20,213
989	-24,253
989,4	-26,493
989,8	-28,853
990,3	-26,293
990,7	-28,173
991,1	-23,933
991,5	-24,973
991,9	-20,733
992,3	-21,013
992,8	-17,093
993,2	-15,333
993,6	-8,453
994	-9,253
994,4	-9,533
994,9	-8,693
995,3	-14,613
995,7	-15,693
996,1	-12,933
996,5	-16,893
996,9	-17,973
997,4	-12,693
997,8	-16,773
998,2	-18,773
998,6	-17,853
999	-19,053
999,5	-16,693
999,9	-15,413
1000,3	-18,293
1000,7	-14,373
1001,1	-13,253
1001,5	-22,173
1002	-21,973
1002,4	-17,373
1002,8	-16,533
1003,2	-15,853
1003,6	-14,493
1004	-12,853
1004,5	-13,773
1004,9	-17,333
1005,3	-17,373
1005,7	-17,773
1006,1	-24,293
1006,6	-20,013
1007	-19,813
1007,4	-16,533
1007,8	-12,733
1008,2	-10,053
1008,6	-12,973
1009,1	-14,293
1009,5	-15,053
1009,9	-14,533
1010,3	-10,533
1010,7	-11,453
1011,1	-10,973
1011,6	-13,173
1012	-18,133
1012,4	-20,813
1012,8	-21,773
1013,2	-19,253
1013,6	-18,813
1014,1	-16,693
1014,5	-14,733
1014,9	-21,893
1015,3	-16,813
1015,7	-20,733
1016,1	-21,733
1016,6	-19,933
1017	-18,533
1017,4	-31,573
1017,8	-32,053
1018,2	-31,053
1018,6	-33,173
1019,1	-28,293
1019,5	-21,613
1019,9	-17,133
1020,3	-13,173
1020,7	-14,173
1021,1	-16,133
1021,6	-17,013
1022	-23,573
1022,4	-24,853
1022,8	-21,333
1023,2	-22,653
1023,6	-18,773
1024,1	-14,253
1024,5	-11,053
1024,9	-12,373
1025,3	-9,933
1025,7	-15,413
1026,1	-14,693
1026,6	-18,653
1027	-24,053
1027,4	-22,213
1027,8	-16,013
1028,2	-15,853
1028,6	-20,133
1029	-17,693
1029,5	-19,493
1029,9	-23,133
1030,3	-24,613
1030,7	-23,653
1031,1	-18,173
1031,5	-17,053
1032	-21,933
1032,4	-25,813
1032,8	-25,413
1033,2	-27,813
1033,6	-28,573
1034	-26,013
1034,4	-23,173
1034,9	-21,293
1035,3	-19,773
1035,7	-22,933
1036,1	-23,853
1036,5	-21,053
1036,9	-18,093
1037,4	-18,573
1037,8	-13,853
1038,2	-9,253
1038,6	-10,893
1039	-16,413
1039,4	-18,173
1039,8	-22,333
1040,3	-31,213
1040,7	-29,693
1041,1	-28,613
1041,5	-33,853
1041,9	-33,173
1042,3	-25,213
1042,7	-30,053
1043,2	-23,573
1043,6	-16,813
1044	-8,773
1044,4	-7,293
1044,8	-2,573
1045,2	-14,053
1045,6	-15,893
1046,1	-25,093
1046,5	-27,693
1046,9	-22,333
1047,3	-19,973
1047,7	-21,973
1048,1	-20,573
1048,5	-22,773
1049	-25,893
1049,4	-20,413
1049,8	-19,573
1050,2	-19,493
1050,6	-23,173
1051	-19,253
1051,4	-21,333
1051,9	-21,413
1052,3	-23,613
1052,7	-18,133
1053,1	-31,253
1053,5	-23,133
1053,9	-18,973
1054,3	-16,293
1054,8	-19,453
1055,2	-13,733
1055,6	-21,053
1056	-25,933
1056,4	-25,893
1056,8	-25,773
1057,2	-28,493
1057,6	-33,453
1058,1	-33,213
1058,5	-36,733
1058,9	-30,293
1059,3	-29,093
1059,7	-21,573
1060,1	-22,293
1060,5	-17,293
1061	-21,173
1061,4	-17,853
1061,8	-15,053
1062,2	-11,493
1062,6	-21,213
1063	-21,253
1063,4	-25,293
1063,8	-29,733
1064,3	-35,773
1064,7	-24,173
1065,1	-20,973
1065,5	-13,573
1065,9	-21,253
1066,3	-20,373
1066,7	-25,333
1067,1	-25,053
1067,6	-34,013
1068	-28,133
1068,4	-23,733
1068,8	-23,573
1069,2	-26,293
1069,6	-19,253
1070	-14,853
1070,4	-14,213
1070,9	-13,693
1071,3	-7,133
1071,7	-8,573
1072,1	-15,333
1072,5	-19,973
1072,9	-18,093
1073,3	-23,813
1073,7	-19,413
1074,2	-18,613
1074,6	-12,653
1075	-6,573
1075,4	-6,373
1075,8	-10,293
1076,2	-3,253
1076,6	-4,053
1077	-9,573
1077,5	-6,453
1077,9	-5,293
1078,3	-11,413
1078,7	-12,373
1079,1	-11,453
1079,5	-14,773
1079,9	-19,533
1080,3	-21,493
1080,7	-25,013
1081,2	-29,173
1081,6	-28,693
1082	-21,733
1082,4	-16,013
1082,8	-12,173
1083,2	-7,453
1083,6	-7,133
1084	-13,453
1084,5	-18,053
1084,9	-15,373
1085,3	-17,733
1085,7	-19,573
1086,1	-19,733
1086,5	-17,813
1086,9	-16,733
1087,3	-20,613
1087,7	-19,973
1088,2	-17,573
1088,6	-16,533
1089	-21,293
1089,4	-16,453
1089,8	-13,613
1090,2	-14,653
1090,6	-12,133
1091	-12,653
1091,4	-13,573
1091,9	-14,333
1092,3	-12,373
1092,7	-16,213
1093,1	-15,733
1093,5	-18,773
1093,9	-20,133
1094,3	-19,453
1094,7	-16,453
1095,1	-17,893
1095,5	-16,013
1096	-16,893
1096,4	-23,813
1096,8	-23,373
1097,2	-18,853
1097,6	-16,173
1098	-14,733
1098,4	-7,333
1098,8	-12,253
1099,2	-11,533
1099,6	-15,173
1100,1	-14,773
1100,5	-14,613
1100,9	-15,053
1101,3	-21,813
1101,7	-14,653
1102,1	-19,453
1102,5	-23,173
1102,9	-15,613
1103,3	-9,573
1103,7	-12,133
1104,2	-5,013
1104,6	-1,213
1105	-10,773
1105,4	-12,213
1105,8	-14,613
1106,2	-14,493
1106,6	-13,653
1107	-5,413
1107,4	-3,653
1107,8	0,417
1108,3	0,133
