Data from Subt2_00050.txt Node
Date: Fri Aug 11 16:10:12 MSK 2023
User: vat
Spectrometer: MAYP114033
Trigger mode: 0
Integration Time (sec): 5,000000E-1
Scans to average: 5
Electric dark correction enabled: true
Nonlinearity correction enabled: false
Boxcar width: 2
XAxis mode: Wavelengths
Number of Pixels in Spectrum: 2068
>>>>>Begin Spectral Data<<<<<
199,4	0,567
199,9	0,4
200,4	-4,9
200,8	-5,62
201,3	-7,66
201,8	-8,82
202,2	-5,18
202,7	-1,3
203,2	-4,7
203,6	-5,62
204,1	-5,9
204,6	-14,38
205	-16,9
205,5	-13,06
206	-8,26
206,4	-7,78
206,9	-5,54
207,4	-3,1
207,8	-6,54
208,3	-9,46
208,8	-11,9
209,2	-15,82
209,7	-18,62
210,2	-16,54
210,6	-19,98
211,1	-21,54
211,5	-16,14
212	-16,14
212,5	-17,74
212,9	-19,46
213,4	-21,78
213,9	-23,66
214,3	-23,9
214,8	-26,06
215,3	-22,82
215,7	-18,58
216,2	-15,06
216,7	-17,38
217,1	-17,78
217,6	-16,94
218,1	-22,5
218,5	-28,34
219	-24,14
219,5	-18,02
219,9	-16,3
220,4	-14,54
220,9	-12,54
221,3	-16,02
221,8	-18,3
222,3	-21,98
222,7	-14,14
223,2	-12,1
223,6	-9,94
224,1	-11,94
224,6	-13,06
225	-22,02
225,5	-22,74
226	-21,62
226,4	-21,46
226,9	-19,58
227,4	-12,3
227,8	-11,9
228,3	-15,78
228,8	-15,98
229,2	-20,3
229,7	-25,66
230,2	-22,54
230,6	-22,3
231,1	-23,14
231,5	-19,86
232	-19,22
232,5	-25,1
232,9	-24,06
233,4	-23,14
233,9	-24,86
234,3	-22,74
234,8	-16,5
235,3	-15,14
235,7	-13,06
236,2	-12,5
236,7	-15,14
237,1	-26,1
237,6	-24,94
238,1	-28,26
238,5	-28,58
239	-30,22
239,4	-24,58
239,9	-17,74
240,4	-16,94
240,8	-13,58
241,3	-6,62
241,8	-1,22
242,2	-6,82
242,7	-1,5
243,2	-1,18
243,6	-4,38
244,1	-11,78
244,6	-15,86
245	-20,82
245,5	-20,5
245,9	-21,42
246,4	-16,1
246,9	-18,94
247,3	-18,34
247,8	-25,38
248,3	-21,9
248,7	-31,1
249,2	-28,62
249,7	-32,7
250,1	-30,66
250,6	-38,38
251	-36,98
251,5	-35,38
252	-37,66
252,4	-37,02
252,9	-32,7
253,4	-29,82
253,8	-28,26
254,3	-20,1
254,8	-22,1
255,2	-14,34
255,7	-11,42
256,1	-17,82
256,6	-19,5
257,1	-19,74
257,5	-28,94
258	-30,22
258,5	-23,54
258,9	-23,3
259,4	-17,7
259,9	-17,38
260,3	-13,34
260,8	-12,22
261,2	-12,02
261,7	-9,78
262,2	-8,66
262,6	-11,54
263,1	-10,3
263,6	-11,42
264	-14,62
264,5	-19,58
264,9	-18,3
265,4	-21,7
265,9	-18,42
266,3	-21,86
266,8	-15,86
267,3	-17,14
267,7	-17,54
268,2	-19,94
268,7	-14,26
269,1	-13,94
269,6	-16,82
270	-21,78
270,5	-24,1
271	-30,34
271,4	-33,98
271,9	-35,3
272,4	-29,3
272,8	-28,78
273,3	-27,9
273,7	-20,42
274,2	-12,22
274,7	-13,62
275,1	-14,46
275,6	-8,9
276,1	-16,78
276,5	-23,14
277	-24,3
277,4	-24,18
277,9	-27,66
278,4	-23,38
278,8	-22,42
279,3	-20,22
279,8	-19,14
280,2	-17,74
280,7	-19,66
281,1	-20,22
281,6	-21,46
282,1	-11,54
282,5	-15,26
283	-13,94
283,4	-15,86
283,9	-15,74
284,4	-20,66
284,8	-16,06
285,3	-13,94
285,8	-13,42
286,2	-9,54
286,7	-14,78
287,1	-17,26
287,6	-21,1
288,1	-16,86
288,5	-20,26
289	-21,06
289,5	-23,9
289,9	-19,5
290,4	-19,34
290,8	-14,74
291,3	-13,7
291,8	-15,78
292,2	-14,14
292,7	-17,9
293,1	-23,14
293,6	-20,58
294,1	-12,98
294,5	-22,22
295	-15,86
295,5	-12,78
295,9	-14,66
296,4	-14,94
296,8	-4,98
297,3	-9,18
297,8	-12,5
298,2	-14,7
298,7	-14,54
299,1	-20,78
299,6	-17,54
300,1	-18,66
300,5	-15,46
301	-18,14
301,5	-19,14
301,9	-25,7
302,4	-23,34
302,8	-30,34
303,3	-27,62
303,8	-28,82
304,2	-32,42
304,7	-33,3
305,1	-29,22
305,6	-31,82
306,1	-26,86
306,5	-23,78
307	-24,22
307,4	-18,86
307,9	-20,38
308,4	-21,58
308,8	-14,94
309,3	-15,94
309,8	-18,86
310,2	-16,26
310,7	-18,98
311,1	-28,5
311,6	-24,42
312,1	-23,66
312,5	-26,22
313	-25,54
313,4	-21,66
313,9	-20,06
314,4	-17,82
314,8	-14,78
315,3	-16,86
315,7	-16,9
316,2	-19,62
316,7	-22,18
317,1	-24,54
317,6	-25,42
318	-21,78
318,5	-21,94
319	-27,26
319,4	-27,94
319,9	-17,06
320,3	-17,42
320,8	-13,22
321,3	-6,42
321,7	0,14
322,2	-8,3
322,6	-11,46
323,1	-19,06
323,6	-20,58
324	-22,42
324,5	-22,9
324,9	-22,82
325,4	-15,06
325,9	-18,46
326,3	-18,06
326,8	-19,18
327,2	-18,38
327,7	-25,5
328,2	-25,5
328,6	-29,26
329,1	-25,5
329,5	-18,54
330	-17,42
330,5	-17,94
330,9	-14,78
331,4	-13,9
331,8	-26,22
332,3	-28,34
332,8	-29,78
333,2	-36,18
333,7	-38,1
334,1	-28,66
334,6	-27,5
335,1	-19,06
335,5	-15,78
336	-11,14
336,4	-15,42
336,9	-13,9
337,4	-19,78
337,8	-17,78
338,3	-19,1
338,7	-21,94
339,2	-22,54
339,7	-17,74
340,1	-22,7
340,6	-24,1
341	-18,42
341,5	-14,94
342	-13,34
342,4	-8,9
342,9	-13,78
343,3	-20,66
343,8	-21,66
344,2	-21,06
344,7	-20,46
345,2	-17,58
345,6	-12,58
346,1	-14,5
346,5	-16,54
347	-20,54
347,5	-21,54
347,9	-18,06
348,4	-12,3
348,8	-17,66
349,3	-14,3
349,8	-11,58
350,2	-8,9
350,7	-18,18
351,1	-14,34
351,6	-9,9
352	-8,54
352,5	-8,98
353	-7,82
353,4	-2,54
353,9	1,22
354,3	7,22
354,8	6,54
355,3	21,06
355,7	24,18
356,2	23,62
356,6	22,02
357,1	32,82
357,5	40,74
358	52,74
358,5	69,94
358,9	89,86
359,4	100,5
359,8	114,74
360,3	134,3
360,8	154,1
361,2	181,98
361,7	212,54
362,1	240,34
362,6	276,3
363	314,86
363,5	353,62
364	396,42
364,4	452,18
364,9	496,26
365,3	543,06
365,8	584,14
366,3	625,22
366,7	655,74
367,2	682,82
367,6	702,18
368,1	722,06
368,5	725,78
369	732,34
369,5	734,5
369,9	733,46
370,4	721,3
370,8	709,78
371,3	686,14
371,7	662,62
372,2	630,98
372,7	593,82
373,1	565,58
373,6	531,38
374	493,54
374,5	461,38
374,9	431,26
375,4	399,26
375,9	369,98
376,3	344,02
376,8	315,22
377,2	292,94
377,7	265,34
378,2	239,94
378,6	209,82
379,1	186,26
379,5	165,78
380	146,22
380,4	129,66
380,9	119,1
381,4	108,26
381,8	102,3
382,3	100,5
382,7	90,98
383,2	81,98
383,6	82,46
384,1	72,66
384,6	62,94
385	56,3
385,5	57,26
385,9	49,46
386,4	43,46
386,8	37,58
387,3	37,7
387,7	33,66
388,2	23,54
388,7	20,82
389,1	16,62
389,6	10,26
390	4,74
390,5	4,5
390,9	0,78
391,4	-4,66
391,9	-1,42
392,3	-3,14
392,8	1,46
393,2	0,74
393,7	3,62
394,1	2,7
394,6	4,94
395,1	3,98
395,5	7,02
396	9,22
396,4	4,82
396,9	4,14
397,3	-0,54
397,8	-8,22
398,2	-6,06
398,7	-3,1
399,2	-4,5
399,6	-6,06
400,1	1,58
400,5	-5,7
401	-4,3
401,4	-5,66
401,9	-1,46
402,4	-7,02
402,8	2,22
403,3	1,06
403,7	3,3
404,2	3,78
404,6	4,98
405,1	2,66
405,5	3,54
406	5,58
406,5	6,54
406,9	7,1
407,4	6,7
407,8	11,58
408,3	14,46
408,7	13,94
409,2	21,78
409,6	20,9
410,1	22,7
410,6	25,1
411	23,7
411,5	22,46
411,9	33,9
412,4	37,06
412,8	36,98
413,3	43,7
413,7	52,58
414,2	50,26
414,7	53,82
415,1	61,98
415,6	69,94
416	72,3
416,5	80,22
416,9	89,3
417,4	92,98
417,8	93,54
418,3	99,42
418,8	105,58
419,2	106,38
419,7	117,14
420,1	131,86
420,6	136,82
421	145,62
421,5	150,98
421,9	153,98
422,4	161,26
422,8	175,66
423,3	186,02
423,8	199,42
424,2	214,1
424,7	225,46
425,1	232,42
425,6	243,22
426	261,94
426,5	276,18
426,9	290,94
427,4	309,78
427,9	328,06
428,3	340,06
428,8	356,58
429,2	376,18
429,7	399,66
430,1	419,26
430,6	439,66
431	457,7
431,5	481,42
431,9	494,06
432,4	524,7
432,8	557,1
433,3	581,26
433,8	603,1
434,2	632,94
434,7	658,34
435,1	683,22
435,6	723,9
436	764,3
436,5	805,02
436,9	840,06
437,4	883,26
437,8	921,94
438,3	957,18
438,8	994,46
439,2	1040,82
439,7	1085,58
440,1	1125,46
440,6	1174,5
441	1227,06
441,5	1278,42
441,9	1321,66
442,4	1380,54
442,8	1434,1
443,3	1488,26
443,7	1546,78
444,2	1617,62
444,7	1678,22
445,1	1745,3
445,6	1809,82
446	1869,34
446,5	1939,58
446,9	2009,82
447,4	2077,7
447,8	2150,02
448,3	2220,18
448,7	2290,66
449,2	2360,54
449,6	2437,06
450,1	2517,98
450,6	2605,46
451	2676,74
451,5	2761,58
451,9	2837,42
452,4	2914,46
452,8	3002,26
453,3	3088,82
453,7	3178,34
454,2	3270,98
454,6	3368,86
455,1	3446,9
455,5	3537,14
456	3617,62
456,4	3700,7
456,9	3776,1
457,3	3864,18
457,8	3951,3
458,3	4034,14
458,7	4127,42
459,2	4220,14
459,6	4312,74
460,1	4395,5
460,5	4485,94
461	4566,02
461,4	4664,26
461,9	4761,02
462,3	4847,9
462,8	4940,5
463,2	5042,98
463,7	5121,34
464,1	5203,58
464,6	5300,58
465	5392,82
465,5	5476,82
466	5563,66
466,4	5641,7
466,9	5726,3
467,3	5803,5
467,8	5873,38
468,2	5950,5
468,7	6026,66
469,1	6092,14
469,6	6164,7
470	6243,14
470,5	6323,38
470,9	6384,98
471,4	6452,3
471,8	6519,94
472,3	6589,74
472,7	6649,62
473,2	6713,14
473,6	6772,94
474,1	6826,7
474,5	6866,46
475	6914,86
475,4	6963,9
475,9	7012,5
476,4	7061,22
476,8	7122,18
477,3	7169,34
477,7	7227,06
478,2	7279,54
478,6	7313,5
479,1	7335,3
479,5	7362,18
480	7381,18
480,4	7409,5
480,9	7444,38
481,3	7472,06
481,8	7497,18
482,2	7524,66
482,7	7534,58
483,1	7548,82
483,6	7566,34
484	7570,9
484,5	7584,1
484,9	7595,1
485,4	7602,86
485,8	7599,9
486,3	7612,46
486,7	7605,22
487,2	7601,22
487,6	7590,62
488,1	7590,54
488,5	7573,82
489	7562,22
489,4	7549,3
489,9	7535,58
490,4	7512,74
490,8	7498,94
491,3	7486,58
491,7	7460,42
492,2	7426,82
492,6	7410,22
493,1	7376,58
493,5	7340,58
494	7306,02
494,4	7288,9
494,9	7257,74
495,3	7228,66
495,8	7188,58
496,2	7155,34
496,7	7122,3
497,1	7080,26
497,6	7042,66
498	7001,18
498,5	6969,94
498,9	6929,82
499,4	6896,58
499,8	6852,54
500,3	6815,38
500,7	6768,34
501,2	6720,82
501,6	6666,02
502,1	6632,9
502,5	6591,82
503	6537,38
503,4	6500,86
503,9	6463,78
504,3	6409,74
504,8	6368,02
505,2	6330,38
505,7	6272,82
506,1	6223,14
506,6	6174,14
507	6115,98
507,5	6065,26
507,9	6009,54
508,4	5949,66
508,8	5896,1
509,3	5844,22
509,7	5786,58
510,2	5739,26
510,6	5681,38
511,1	5616,62
511,5	5557,18
512	5500,5
512,4	5441,54
512,9	5393,22
513,3	5347,14
513,8	5300,82
514,2	5247,58
514,7	5192,06
515,1	5135,5
515,6	5078,3
516	5024,38
516,5	4970,54
516,9	4921,5
517,4	4869,34
517,8	4812,66
518,3	4756,1
518,7	4709,78
519,2	4651,82
519,6	4597,22
520,1	4547,78
520,5	4497,66
521	4439,82
521,4	4378,18
521,9	4322,14
522,3	4276,46
522,8	4220,82
523,2	4178,22
523,7	4133,38
524,1	4091,86
524,6	4035,42
525	3979,46
525,5	3922,26
525,9	3876,98
526,4	3825,26
526,8	3773,02
527,3	3739,58
527,7	3687,78
528,2	3640,22
528,6	3599,06
529,1	3558,58
529,5	3515,42
530	3479,3
530,4	3435,14
530,9	3383,62
531,3	3344,22
531,8	3293,42
532,2	3247,66
532,6	3209,9
533,1	3176,5
533,5	3139,5
534	3092,78
534,4	3055,98
534,9	3005,42
535,3	2965,38
535,8	2929,58
536,2	2898,66
536,7	2859,9
537,1	2835,3
537,6	2800,54
538	2754,66
538,5	2724,58
538,9	2690,1
539,4	2652,86
539,8	2614,22
540,3	2581,78
540,7	2540,26
541,2	2504,66
541,6	2472,34
542,1	2438,98
542,5	2408,62
543	2372,18
543,4	2339,66
543,9	2304,3
544,3	2278,34
544,8	2249,66
545,2	2221,62
545,7	2191,5
546,1	2167,86
546,5	2137,18
547	2100,14
547,4	2074,5
547,9	2047,46
548,3	2020,58
548,8	1992,1
549,2	1972,66
549,7	1954,26
550,1	1931,86
550,6	1900,02
551	1876,38
551,5	1851,18
551,9	1822,94
552,4	1797,66
552,8	1775,34
553,3	1753,9
553,7	1735,94
554,2	1712,58
554,6	1694,82
555,1	1679,74
555,5	1656,3
555,9	1634,78
556,4	1609,86
556,8	1588,82
557,3	1569,26
557,7	1553,18
558,2	1528,74
558,6	1519,94
559,1	1497,34
559,5	1477,66
560	1461,58
560,4	1442,1
560,9	1416,22
561,3	1403,22
561,8	1384,38
562,2	1358,94
562,7	1349,74
563,1	1336,94
563,6	1319,58
564	1303,74
564,4	1289,42
564,9	1272,58
565,3	1254,3
565,8	1235,02
566,2	1216,62
566,7	1201,54
567,1	1186,06
567,6	1170,78
568	1160,98
568,5	1146,38
568,9	1133,94
569,4	1116,66
569,8	1109,14
570,3	1093,9
570,7	1088,7
571,1	1077,54
571,6	1069,94
572	1050,62
572,5	1040,82
572,9	1025,06
573,4	1013,02
573,8	995,82
574,3	990,98
574,7	974,78
575,2	956,9
575,6	946,42
576,1	934,82
576,5	918,62
576,9	912,46
577,4	907,66
577,8	892,94
578,3	882,58
578,7	873,06
579,2	851,98
579,6	843,46
580,1	833,22
580,5	828,26
581	813,3
581,4	808,78
581,9	793,98
582,3	786,66
582,7	765,86
583,2	756,9
583,6	752,22
584,1	738,38
584,5	730,82
585	726,74
585,4	723,22
585,9	713,5
586,3	710,94
586,8	703,3
587,2	698,1
587,6	690,34
588,1	678,58
588,5	669,74
589	656,54
589,4	647,7
589,9	638,06
590,3	632,58
590,8	624,38
591,2	620,34
591,7	614,94
592,1	611,9
592,5	606,06
593	601,94
593,4	596,14
593,9	589,74
594,3	586,5
594,8	585,58
595,2	577,86
595,7	569,38
596,1	567,62
596,6	561,38
597	549,14
597,4	548,22
597,9	544,5
598,3	540,38
598,8	534,06
599,2	534,26
599,7	528,5
600,1	527,46
600,6	515,26
601	509,54
601,4	504,34
601,9	495,78
602,3	487,18
602,8	486,3
603,2	484,78
603,7	485,54
604,1	483,42
604,6	480,22
605	480,82
605,4	471,86
605,9	455,54
606,3	449,38
606,8	445,1
607,2	431,86
607,7	430,02
608,1	430,5
608,6	429,3
609	423,42
609,4	427,94
609,9	422,94
610,3	419,9
610,8	420,7
611,2	416,22
611,7	408,3
612,1	407,54
612,6	403,94
613	397,02
613,4	399,74
613,9	398,98
614,3	396,58
614,8	398,98
615,2	399,38
615,7	389,66
616,1	381,9
616,6	371,74
617	356,78
617,4	353,18
617,9	352,7
618,3	355,66
618,8	352,7
619,2	357,3
619,7	351,9
620,1	342,78
620,5	331,46
621	336,18
621,4	334,5
621,9	333,42
622,3	335,78
622,8	342,9
623,2	334,66
623,6	330,62
624,1	324,98
624,5	322,3
625	310,86
625,4	303,62
625,9	300,1
626,3	299,78
626,8	302,9
627,2	300,38
627,6	302,14
628,1	297,66
628,5	291,18
629	286,06
629,4	289,46
629,9	281,74
630,3	277,18
630,7	274,74
631,2	268,82
631,6	263,58
632,1	268,5
632,5	271,94
633	266,3
633,4	264,94
633,8	263,46
634,3	261,18
634,7	258,22
635,2	261,42
635,6	259,7
636,1	261,58
636,5	262,38
636,9	258,54
637,4	262,66
637,8	260,7
638,3	250,74
638,7	246,5
639,2	241,98
639,6	232,38
640	229,1
640,5	232,42
640,9	228,42
641,4	228,14
641,8	228,5
642,2	227,38
642,7	223,14
643,1	228,06
643,6	224,42
644	219,18
644,5	220,46
644,9	225,14
645,3	216,86
645,8	214,1
646,2	212,14
646,7	206,78
647,1	205,3
647,6	204,22
648	207,9
648,4	209,42
648,9	211,1
649,3	203,3
649,8	200,26
650,2	200,78
650,6	194,62
651,1	198,58
651,5	195,46
652	195,3
652,4	186,74
652,9	183,9
653,3	176,46
653,7	181,34
654,2	181,14
654,6	189,18
655,1	194,1
655,5	192,98
655,9	188,46
656,4	186,14
656,8	183,46
657,3	179,82
657,7	180,38
658,2	178,38
658,6	176,98
659	177,7
659,5	183,14
659,9	179,54
660,4	180,94
660,8	187,22
661,2	180,1
661,7	176,9
662,1	178,02
662,6	177,58
663	167,14
663,4	169,42
663,9	160,14
664,3	158,66
664,8	155,38
665,2	158,18
665,6	163,22
666,1	166,1
666,5	162,02
667	165,9
667,4	159,58
667,9	147,86
668,3	147,94
668,7	156,98
669,2	151,98
669,6	153,86
670,1	159,1
670,5	156,78
670,9	148,46
671,4	149,06
671,8	149,42
672,3	145,46
672,7	150,3
673,1	146,5
673,6	136,18
674	135,7
674,5	133,1
674,9	125,18
675,3	126,5
675,8	129,42
676,2	129,5
676,7	133,94
677,1	130,26
677,5	131,38
678	131,14
678,4	130,22
678,9	121,54
679,3	125,14
679,7	125,06
680,2	125,78
680,6	121,42
681,1	123,1
681,5	125,58
681,9	121,3
682,4	119,22
682,8	120,46
683,3	121,42
683,7	121,78
684,1	119,3
684,6	122,06
685	122,3
685,5	119,74
685,9	117,3
686,3	113,7
686,8	109,86
687,2	107,3
687,7	110,94
688,1	110,18
688,5	113,46
689	113,06
689,4	109,38
689,9	103,46
690,3	99,14
690,7	102,82
691,2	103,82
691,6	109,5
692	109,9
692,5	110,02
692,9	105,94
693,4	103,74
693,8	101,98
694,2	104,42
694,7	106,86
695,1	105,14
695,6	104,74
696	104,9
696,4	105,98
696,9	109,34
697,3	112,9
697,8	117,02
698,2	117,74
698,6	113,38
699,1	108,62
699,5	103,22
699,9	95,74
700,4	90,26
700,8	86,7
701,3	82,26
701,7	82,34
702,1	82,3
702,6	84,14
703	91,38
703,5	88,62
703,9	88,26
704,3	90,38
704,8	90,14
705,2	84,98
705,6	94,7
706,1	90,78
706,5	87,46
707	85,9
707,4	84,98
707,8	73,62
708,3	78,86
708,7	79,42
709,2	72,38
709,6	72,94
710	77,22
710,5	73,3
710,9	66,26
711,3	65,58
711,8	62,26
712,2	65,9
712,7	63,38
713,1	71,06
713,5	76,58
714	76,3
714,4	70,02
714,8	76,62
715,3	78,46
715,7	75,94
716,2	65,5
716,6	66,82
717	63,74
717,5	63,58
717,9	63,34
718,3	69,86
718,8	72,06
719,2	69,46
719,7	61,98
720,1	63,58
720,5	64,18
721	58,7
721,4	55,78
721,8	58,82
722,3	54,58
722,7	55,1
723,2	58,06
723,6	61,38
724	58,62
724,5	61,22
724,9	62,74
725,3	59,98
725,8	58,1
726,2	56,74
726,7	56,66
727,1	57,78
727,5	58,82
728	55,82
728,4	59,98
728,8	58,46
729,3	57,3
729,7	54,02
730,1	54,22
730,6	54,46
731	53,9
731,5	54,26
731,9	58,3
732,3	62,26
732,8	57,5
733,2	55,14
733,6	57,58
734,1	53,9
734,5	51,46
734,9	53,82
735,4	54,78
735,8	49,42
736,3	51,06
736,7	51,5
737,1	52,06
737,6	53,7
738	49,7
738,4	47,02
738,9	46,62
739,3	45,02
739,7	37,06
740,2	37,1
740,6	40,22
741,1	38,42
741,5	40,9
741,9	47,9
742,4	49,94
742,8	48,14
743,2	50,94
743,7	46,14
744,1	47,18
744,5	46,1
745	45,42
745,4	43,18
745,8	48,54
746,3	48,42
746,7	45,86
747,2	41,06
747,6	43,46
748	35,14
748,5	36,5
748,9	38,46
749,3	41,62
749,8	35,86
750,2	37,54
750,6	36,78
751,1	39,02
751,5	42,58
751,9	46,58
752,4	50,18
752,8	49,94
753,3	48,74
753,7	47,34
754,1	44,58
754,6	49,06
755	44,3
755,4	44,86
755,9	44,74
756,3	42,34
756,7	35,98
757,2	33,98
757,6	34,66
758	35,26
758,5	36,46
758,9	37,66
759,3	40,54
759,8	37,54
760,2	31,86
760,6	33,1
761,1	25,82
761,5	25,7
761,9	29,26
762,4	28,82
762,8	24,26
763,3	26,86
763,7	26,26
764,1	21,62
764,6	28,3
765	32,86
765,4	31,98
765,9	29,98
766,3	34,34
766,7	31,42
767,2	31,78
767,6	34,74
768	36,42
768,5	30,82
768,9	29,74
769,3	27,26
769,8	25,3
770,2	25,74
770,6	32,22
771,1	36,18
771,5	31,94
771,9	35,42
772,4	32,62
772,8	32,3
773,2	25,66
773,7	31,94
774,1	32,9
774,5	33,22
775	27,34
775,4	26,5
775,8	26,74
776,3	24,18
776,7	27,86
777,1	29,06
777,6	32,62
778	30,78
778,4	32,62
778,9	29,26
779,3	25,54
779,7	25,34
780,2	26,42
780,6	19,82
781	18,82
781,5	22,58
781,9	17,02
782,3	12,3
782,8	13,42
783,2	18,02
783,6	20,3
784,1	21,14
784,5	19,7
784,9	13,14
785,4	10,82
785,8	11,62
786,2	8,1
786,7	10,54
787,1	14,74
787,5	10,26
788	7,1
788,4	10,14
788,8	11,62
789,3	16,26
789,7	18,26
790,1	19,3
790,6	18,82
791	14,58
791,4	15,38
791,9	11,38
792,3	8,02
792,7	9,74
793,2	18,62
793,6	11,66
794	19,74
794,5	21,5
794,9	22,5
795,3	14,5
795,8	22,66
796,2	16,78
796,6	10,9
797,1	7,78
797,5	5,66
797,9	0,86
798,4	1,7
798,8	6,78
799,2	8,46
799,7	10,62
800,1	8,82
800,5	10,78
801	5,7
801,4	6,18
801,8	7,7
802,2	14,02
802,7	12,18
803,1	15,98
803,5	15,54
804	15,26
804,4	13,5
804,8	11,54
805,3	14,18
805,7	12,42
806,1	16,54
806,6	13,78
807	9,7
807,4	4,82
807,9	7,66
808,3	2,62
808,7	0,78
809,2	10,26
809,6	10,46
810	5,7
810,4	8,74
810,9	12,42
811,3	5,54
811,7	7,1
812,2	11,82
812,6	3,58
813	2,82
813,5	5,22
813,9	5,3
814,3	8,02
814,8	16,58
815,2	9,42
815,6	8,7
816,1	5,02
816,5	1,86
816,9	-2,18
817,3	1,94
817,8	0,42
818,2	4,58
818,6	0,9
819,1	0,26
819,5	3,1
819,9	4,78
820,4	-2,1
820,8	1,26
821,2	0,86
821,7	1,98
822,1	2,74
822,5	8,22
822,9	2,02
823,4	4,42
823,8	3,78
824,2	-1,9
824,7	-3,66
825,1	-0,1
825,5	-4,18
826	-12,22
826,4	-11,3
826,8	-9,66
827,3	-12,3
827,7	-13,74
828,1	-7,22
828,5	-4,94
829	-5,94
829,4	-2,86
829,8	-1,3
830,3	-1,5
830,7	2,86
831,1	-4,02
831,6	-4,3
832	-0,9
832,4	-0,86
832,8	-6,22
833,3	2,18
833,7	1,9
834,1	-1,7
834,6	-3,46
835	-3,5
835,4	-3,5
835,8	-1,42
836,3	1,22
836,7	-1,1
837,1	-0,54
837,6	-3,5
838	-6,54
838,4	-10,18
838,9	-12,34
839,3	-14,46
839,7	-12,22
840,1	-5,34
840,6	-1,9
841	7,34
841,4	13,66
841,9	13,98
842,3	5,62
842,7	5,62
843,1	3,22
843,6	-8,58
844	-13,34
844,4	-9,42
844,9	-8,5
845,3	-7,34
845,7	-0,86
846,2	3,02
846,6	5,22
847	0,94
847,4	-7,98
847,9	-5,7
848,3	-9,7
848,7	-16,74
849,2	-16,02
849,6	-16,26
850	-14,26
850,4	-13,42
850,9	-14,18
851,3	-11,58
851,7	-10,62
852,2	-11,66
852,6	-10,78
853	-9,9
853,4	-9,58
853,9	-9,7
854,3	-6,46
854,7	-2,82
855,2	2,86
855,6	-0,26
856	-0,38
856,4	-3,66
856,9	-10,34
857,3	-13,78
857,7	-8,9
858,2	-2,7
858,6	-9,78
859	-5,94
859,4	-2,18
859,9	-5,3
860,3	-6,9
860,7	-6,86
861,1	-4,38
861,6	-8,14
862	-13,02
862,4	-18,82
862,9	-14,38
863,3	-19,82
863,7	-18,74
864,1	-12,98
864,6	-10,9
865	-6,3
865,4	-5,46
865,9	-8,02
866,3	-11,1
866,7	-9,02
867,1	-12,78
867,6	-12,62
868	-12,54
868,4	-8,3
868,8	-7,38
869,3	-9,5
869,7	-11,06
870,1	-13,26
870,6	-17,7
871	-12,66
871,4	-16,62
871,8	-18,26
872,3	-16,34
872,7	-19,7
873,1	-24,06
873,5	-16,14
874	-9,94
874,4	-9,06
874,8	-8,1
875,3	-8,34
875,7	-9,14
876,1	-11,1
876,5	-10,62
877	-2,22
877,4	-7,9
877,8	-11,66
878,2	-9,86
878,7	-8,26
879,1	-10,34
879,5	-6,94
879,9	-4,82
880,4	-2,94
880,8	-9,62
881,2	-12,74
881,7	-12,98
882,1	-11,18
882,5	-13,7
882,9	-6,7
883,4	-2,9
883,8	1,3
884,2	1,06
884,6	1,1
885,1	-1,78
885,5	-1,42
885,9	-5,14
886,3	-5,02
886,8	-6,54
887,2	-6,98
887,6	-10,02
888	-17,74
888,5	-17,18
888,9	-15,86
889,3	-12,86
889,8	-10,02
890,2	-5,02
890,6	-3,78
891	-6,66
891,5	-9,1
891,9	-9,14
892,3	-9,22
892,7	-11,22
893,2	-5,54
893,6	-4,42
894	-8,94
894,4	-10,42
894,9	-16,78
895,3	-17,9
895,7	-18,5
896,1	-16,34
896,6	-10,5
897	-8,82
897,4	-13,22
897,8	-12,02
898,3	-15,18
898,7	-10,26
899,1	-10,62
899,5	-9,22
900	-13,18
900,4	-5,9
900,8	-14,02
901,2	-9,78
901,7	-5,82
902,1	-3,42
902,5	-6,1
902,9	-8,86
903,4	-6,78
903,8	-12,7
904,2	-11,1
904,6	-16,7
905,1	-11,06
905,5	-16,42
905,9	-12,98
906,3	-16,82
906,8	-15,62
907,2	-18,98
907,6	-19,1
908	-19,5
908,5	-17,94
908,9	-17,02
909,3	-21,66
909,7	-17,58
910,2	-19,26
910,6	-18,98
911	-15,98
911,4	-12,7
911,9	-18,5
912,3	-18,74
912,7	-20,3
913,1	-25,22
913,6	-25,46
914	-26,22
914,4	-31,78
914,8	-30,5
915,3	-30,18
915,7	-27,22
916,1	-23,02
916,5	-15,62
916,9	-13,38
917,4	-9,54
917,8	-8,3
918,2	-9,34
918,6	-13,06
919,1	-15,5
919,5	-22,18
919,9	-21,78
920,3	-20,02
920,8	-18,3
921,2	-21,82
921,6	-18,54
922	-23,14
922,5	-23,66
922,9	-24,94
923,3	-19,94
923,7	-17,7
924,2	-13,66
924,6	-14,7
925	-13,62
925,4	-13,78
925,8	-19,66
926,3	-19,3
926,7	-20,82
927,1	-19,5
927,5	-23,1
928	-19,26
928,4	-21,9
928,8	-18,46
929,2	-19,54
929,7	-17,74
930,1	-14,86
930,5	-10,86
930,9	-10,14
931,3	-9,58
931,8	-14,5
932,2	-17,34
932,6	-24,3
933	-26,94
933,5	-27,98
933,9	-17,54
934,3	-21,9
934,7	-21,18
935,2	-17,34
935,6	-16,42
936	-24,78
936,4	-25,46
936,8	-23,26
937,3	-27,98
937,7	-29,9
938,1	-30,02
938,5	-24,06
939	-25,02
939,4	-25,78
939,8	-20,62
940,2	-15,46
940,6	-16,78
941,1	-17,5
941,5	-13,46
941,9	-22,82
942,3	-21,3
942,8	-20,9
943,2	-18,14
943,6	-21,78
944	-18,94
944,4	-24,58
944,9	-24,02
945,3	-23,18
945,7	-21,7
946,1	-22,86
946,6	-25,34
947	-25,3
947,4	-23,78
947,8	-21,22
948,2	-19,66
948,7	-14,54
949,1	-11,66
949,5	-12,34
949,9	-14,46
950,3	-10,98
950,8	-11,1
951,2	-11,58
951,6	-14,26
952	-16,7
952,5	-18,22
952,9	-15,02
953,3	-22,1
953,7	-23,38
954,1	-19,58
954,6	-20,66
955	-19,06
955,4	-11,82
955,8	-12,02
956,2	-15,94
956,7	-17,14
957,1	-23,1
957,5	-26,02
957,9	-23,7
958,3	-13,66
958,8	-10,5
959,2	-10,54
959,6	-11,26
960	-11,66
960,5	-18,22
960,9	-21,22
961,3	-20,62
961,7	-17,54
962,1	-16,42
962,6	-13,86
963	-9,82
963,4	-13,46
963,8	-9,94
964,2	-18,02
964,7	-19,58
965,1	-25,22
965,5	-27,46
965,9	-32,1
966,3	-22,66
966,8	-20,58
967,2	-16,7
967,6	-8,66
968	-8,38
968,4	-10,94
968,9	-17,34
969,3	-16,58
969,7	-19,78
970,1	-19,86
970,5	-19,18
971	-15,1
971,4	-14,38
971,8	-13,94
972,2	-18,34
972,6	-22,18
973,1	-28,18
973,5	-33,78
973,9	-36,38
974,3	-31,5
974,7	-25,1
975,2	-23,62
975,6	-20,38
976	-15,46
976,4	-18,46
976,8	-17,78
977,3	-20,26
977,7	-17,18
978,1	-18,94
978,5	-19,58
978,9	-25,94
979,4	-17,82
979,8	-15,98
980,2	-14,7
980,6	-9,3
981	-2,74
981,5	-4,78
981,9	-10,62
982,3	-9,82
982,7	-14,42
983,1	-20,3
983,6	-15,18
984	-12,1
984,4	-16,46
984,8	-12,38
985,2	-6,22
985,6	-9,74
986,1	-13,26
986,5	-8,1
986,9	-12,5
987,3	-15,62
987,7	-17,86
988,2	-19,38
988,6	-20,22
989	-20,06
989,4	-26,5
989,8	-28,86
990,3	-28,82
990,7	-31,3
991,1	-28,26
991,5	-20,66
991,9	-20,62
992,3	-19,26
992,8	-14,1
993,2	-17,62
993,6	-19,58
994	-18,9
994,4	-17,7
994,9	-18,14
995,3	-19,86
995,7	-20,18
996,1	-16,82
996,5	-13,86
996,9	-25,54
997,4	-28,9
997,8	-38,62
998,2	-42,66
998,6	-48,1
999	-39,18
999,5	-33,1
999,9	-24,38
1000,3	-22,98
1000,7	-20,62
1001,1	-21,22
1001,5	-20,86
1002	-24,1
1002,4	-25,02
1002,8	-25,58
1003,2	-25,02
1003,6	-23,34
1004	-16,1
1004,5	-18,42
1004,9	-14,74
1005,3	-19,94
1005,7	-21,54
1006,1	-25,02
1006,6	-20,82
1007	-23,62
1007,4	-21,78
1007,8	-20,02
1008,2	-23,34
1008,6	-25,66
1009,1	-22,86
1009,5	-20,02
1009,9	-20,22
1010,3	-14,06
1010,7	-10,58
1011,1	-8,94
1011,6	-2,46
1012	-4,1
1012,4	-10,3
1012,8	-10,9
1013,2	-15,58
1013,6	-25,1
1014,1	-26,98
1014,5	-20,18
1014,9	-17,94
1015,3	-18,38
1015,7	-19,74
1016,1	-19,62
1016,6	-25,34
1017	-27,86
1017,4	-23,14
1017,8	-19,94
1018,2	-12,58
1018,6	-16,86
1019,1	-16,78
1019,5	-15,5
1019,9	-9,7
1020,3	-17,82
1020,7	-13,86
1021,1	-17,1
1021,6	-22,06
1022	-25,78
1022,4	-26,86
1022,8	-25,46
1023,2	-20,66
1023,6	-19,9
1024,1	-21,02
1024,5	-20,62
1024,9	-22,9
1025,3	-30,7
1025,7	-27,54
1026,1	-24,94
1026,6	-21,9
1027	-16,78
1027,4	-13,58
1027,8	-14,14
1028,2	-15,78
1028,6	-13,62
1029	-16,06
1029,5	-16,58
1029,9	-19,18
1030,3	-21,62
1030,7	-22,9
1031,1	-22,74
1031,5	-26,78
1032	-29,74
1032,4	-33,58
1032,8	-34,54
1033,2	-34,26
1033,6	-33,94
1034	-30,22
1034,4	-29,38
1034,9	-28,98
1035,3	-32,94
1035,7	-29,26
1036,1	-31,78
1036,5	-31,46
1036,9	-32,98
1037,4	-31,34
1037,8	-25,82
1038,2	-26,06
1038,6	-21,3
1039	-19,82
1039,4	-15,58
1039,8	-24,82
1040,3	-27,58
1040,7	-27,3
1041,1	-27,9
1041,5	-28,1
1041,9	-23,66
1042,3	-26,02
1042,7	-27,34
1043,2	-25,34
1043,6	-29,82
1044	-27,1
1044,4	-22,34
1044,8	-18,9
1045,2	-25,82
1045,6	-22,5
1046,1	-22,38
1046,5	-16,86
1046,9	-23,18
1047,3	-14,58
1047,7	-17,06
1048,1	-23,02
1048,5	-28,98
1049	-26,02
1049,4	-29,26
1049,8	-26,42
1050,2	-14,14
1050,6	-14,86
1051	-15,06
1051,4	-16,74
1051,9	-22,26
1052,3	-31,98
1052,7	-28,9
1053,1	-33,02
1053,5	-35,26
1053,9	-30,54
1054,3	-32,42
1054,8	-34,78
1055,2	-27,46
1055,6	-23,46
1056	-23,42
1056,4	-20,1
1056,8	-16,02
1057,2	-15,1
1057,6	-9,34
1058,1	-7,14
1058,5	-10,38
1058,9	-12,74
1059,3	-13,02
1059,7	-19,58
1060,1	-24,1
1060,5	-23,78
1061	-25,38
1061,4	-28,62
1061,8	-27,82
1062,2	-28,5
1062,6	-18,46
1063	-18,38
1063,4	-19,94
1063,8	-18,82
1064,3	-14,46
1064,7	-16,9
1065,1	-13,9
1065,5	-7,22
1065,9	-11,22
1066,3	-14,74
1066,7	-20,54
1067,1	-22,1
1067,6	-26,74
1068	-23,38
1068,4	-17,26
1068,8	-17,58
1069,2	-13,5
1069,6	-16,58
1070	-12,46
1070,4	-19,1
1070,9	-27,02
1071,3	-29,78
1071,7	-26,26
1072,1	-33,94
1072,5	-31,98
1072,9	-26,86
1073,3	-26,3
1073,7	-28,7
1074,2	-28,94
1074,6	-27,54
1075	-23,74
1075,4	-21,02
1075,8	-22,98
1076,2	-22,58
1076,6	-21,58
1077	-23,66
1077,5	-31,46
1077,9	-28,18
1078,3	-21,98
1078,7	-25,62
1079,1	-23,5
1079,5	-21,86
1079,9	-21,5
1080,3	-26,78
1080,7	-21,78
1081,2	-24,78
1081,6	-18,98
1082	-21,06
1082,4	-17,06
1082,8	-17,86
1083,2	-8,14
1083,6	-8,3
1084	-4,02
1084,5	-7,38
1084,9	-10,14
1085,3	-17,74
1085,7	-24,74
1086,1	-30,7
1086,5	-33,98
1086,9	-36,5
1087,3	-37,1
1087,7	-32,9
1088,2	-31,38
1088,6	-29,5
1089	-28,86
1089,4	-26,1
1089,8	-28,86
1090,2	-27,38
1090,6	-18,62
1091	-15,18
1091,4	-12,78
1091,9	-7,86
1092,3	-7,82
1092,7	-12,94
1093,1	-9,1
1093,5	-10,14
1093,9	-11,78
1094,3	-10,14
1094,7	-11,5
1095,1	-16,54
1095,5	-17,66
1096	-18,22
1096,4	-19,94
1096,8	-16,46
1097,2	-12,9
1097,6	-9,82
1098	-7,86
1098,4	-7,54
1098,8	-6,1
1099,2	-9,26
1099,6	-8,34
1100,1	-7,42
1100,5	-5,58
1100,9	-8,98
1101,3	-6,06
1101,7	-11,9
1102,1	-17,3
1102,5	-14,74
1102,9	-12,66
1103,3	-17,5
1103,7	-15,46
1104,2	-13,1
1104,6	-18,98
1105	-19,1
1105,4	-18,9
1105,8	-19,38
1106,2	-15,74
1106,6	-10,58
1107	-9,5
1107,4	-3,5
1107,8	-0,05
1108,3	-0,233
