Data from Subt2_00097.txt Node
Date: Fri Aug 11 16:57:22 MSK 2023
User: vat
Spectrometer: MAYP114033
Trigger mode: 0
Integration Time (sec): 5,000000E-1
Scans to average: 5
Electric dark correction enabled: true
Nonlinearity correction enabled: false
Boxcar width: 2
XAxis mode: Wavelengths
Number of Pixels in Spectrum: 2068
>>>>>Begin Spectral Data<<<<<
199,4	0,5
199,9	0,717
200,4	-4,513
200,8	-6,833
201,3	-12,873
201,8	-16,393
202,2	-25,113
202,7	-22,433
203,2	-23,873
203,6	-20,913
204,1	-19,833
204,6	-14,353
205	-17,913
205,5	-18,233
206	-17,513
206,4	-18,273
206,9	-19,873
207,4	-20,913
207,8	-22,713
208,3	-24,873
208,8	-22,273
209,2	-22,473
209,7	-20,753
210,2	-14,273
210,6	-13,313
211,1	-15,353
211,5	-17,393
212	-14,673
212,5	-21,273
212,9	-19,193
213,4	-21,553
213,9	-24,713
214,3	-30,153
214,8	-28,913
215,3	-30,913
215,7	-36,633
216,2	-31,633
216,7	-31,033
217,1	-30,633
217,6	-34,553
218,1	-29,593
218,5	-27,873
219	-25,033
219,5	-27,713
219,9	-25,113
220,4	-22,593
220,9	-24,113
221,3	-21,673
221,8	-22,953
222,3	-20,633
222,7	-25,073
223,2	-25,713
223,6	-26,353
224,1	-19,873
224,6	-19,553
225	-20,553
225,5	-19,673
226	-20,633
226,4	-33,273
226,9	-37,673
227,4	-37,353
227,8	-40,273
228,3	-43,993
228,8	-32,753
229,2	-31,393
229,7	-36,713
230,2	-29,633
230,6	-28,753
231,1	-33,993
231,5	-31,433
232	-18,473
232,5	-18,113
232,9	-13,633
233,4	-11,593
233,9	-12,113
234,3	-13,673
234,8	-21,273
235,3	-25,873
235,7	-29,193
236,2	-31,033
236,7	-33,753
237,1	-28,993
237,6	-26,953
238,1	-22,113
238,5	-26,033
239	-28,153
239,4	-31,633
239,9	-30,713
240,4	-27,953
240,8	-21,433
241,3	-16,113
241,8	-21,593
242,2	-24,513
242,7	-29,993
243,2	-35,153
243,6	-39,953
244,1	-37,913
244,6	-42,753
245	-40,433
245,5	-41,593
245,9	-41,713
246,4	-35,153
246,9	-26,473
247,3	-26,913
247,8	-28,553
248,3	-28,313
248,7	-32,473
249,2	-33,673
249,7	-36,673
250,1	-32,793
250,6	-37,633
251	-35,993
251,5	-39,553
252	-36,193
252,4	-34,833
252,9	-27,473
253,4	-27,393
253,8	-23,473
254,3	-21,353
254,8	-17,073
255,2	-19,193
255,7	-19,953
256,1	-23,033
256,6	-24,713
257,1	-28,193
257,5	-30,113
258	-30,433
258,5	-28,313
258,9	-31,753
259,4	-36,233
259,9	-33,833
260,3	-33,433
260,8	-34,353
261,2	-25,953
261,7	-25,993
262,2	-29,513
262,6	-33,313
263,1	-35,353
263,6	-37,393
264	-33,273
264,5	-27,873
264,9	-22,113
265,4	-24,153
265,9	-26,433
266,3	-27,753
266,8	-28,073
267,3	-24,353
267,7	-23,993
268,2	-24,073
268,7	-22,153
269,1	-25,593
269,6	-27,153
270	-29,553
270,5	-31,193
271	-35,753
271,4	-36,313
271,9	-38,833
272,4	-34,553
272,8	-35,593
273,3	-33,193
273,7	-32,153
274,2	-31,713
274,7	-25,833
275,1	-26,873
275,6	-28,473
276,1	-28,433
276,5	-25,193
277	-27,353
277,4	-27,793
277,9	-16,113
278,4	-17,633
278,8	-21,753
279,3	-24,473
279,8	-19,233
280,2	-22,913
280,7	-18,913
281,1	-19,673
281,6	-22,353
282,1	-26,033
282,5	-35,873
283	-32,833
283,4	-32,393
283,9	-29,353
284,4	-24,633
284,8	-27,393
285,3	-29,993
285,8	-29,233
286,2	-34,113
286,7	-35,793
287,1	-31,353
287,6	-33,233
288,1	-37,313
288,5	-32,353
289	-33,313
289,5	-30,833
289,9	-29,393
290,4	-25,073
290,8	-23,033
291,3	-25,473
291,8	-17,713
292,2	-18,273
292,7	-20,753
293,1	-20,713
293,6	-19,633
294,1	-31,233
294,5	-31,433
295	-25,953
295,5	-27,753
295,9	-25,633
296,4	-24,473
296,8	-27,273
297,3	-32,593
297,8	-30,993
298,2	-30,473
298,7	-29,033
299,1	-29,593
299,6	-27,633
300,1	-32,353
300,5	-31,113
301	-30,193
301,5	-28,393
301,9	-29,593
302,4	-26,553
302,8	-31,993
303,3	-35,473
303,8	-36,353
304,2	-31,513
304,7	-28,353
305,1	-23,953
305,6	-21,193
306,1	-18,633
306,5	-24,353
307	-25,633
307,4	-27,113
307,9	-28,553
308,4	-25,873
308,8	-25,153
309,3	-26,033
309,8	-26,193
310,2	-26,553
310,7	-26,153
311,1	-30,673
311,6	-35,113
312,1	-31,513
312,5	-28,033
313	-35,273
313,4	-28,073
313,9	-20,913
314,4	-26,753
314,8	-27,193
315,3	-22,353
315,7	-22,953
316,2	-20,313
316,7	-25,193
317,1	-30,273
317,6	-33,673
318	-30,833
318,5	-30,873
319	-27,633
319,4	-24,673
319,9	-22,273
320,3	-29,873
320,8	-35,193
321,3	-29,113
321,7	-25,353
322,2	-23,433
322,6	-23,113
323,1	-25,953
323,6	-30,073
324	-30,913
324,5	-34,913
324,9	-33,913
325,4	-34,073
325,9	-28,953
326,3	-25,713
326,8	-26,433
327,2	-24,793
327,7	-27,153
328,2	-25,553
328,6	-28,913
329,1	-27,593
329,5	-24,313
330	-16,073
330,5	-20,673
330,9	-21,873
331,4	-25,793
331,8	-33,553
332,3	-37,393
332,8	-31,353
333,2	-34,433
333,7	-30,593
334,1	-26,753
334,6	-29,433
335,1	-34,833
335,5	-30,713
336	-31,393
336,4	-33,993
336,9	-28,433
337,4	-31,873
337,8	-30,873
338,3	-26,553
338,7	-20,713
339,2	-26,593
339,7	-21,113
340,1	-22,633
340,6	-22,153
341	-21,553
341,5	-15,913
342	-19,113
342,4	-17,233
342,9	-22,273
343,3	-25,433
343,8	-29,433
344,2	-26,793
344,7	-28,993
345,2	-26,753
345,6	-24,233
346,1	-21,913
346,5	-22,793
347	-19,473
347,5	-15,793
347,9	-10,873
348,4	-6,353
348,8	-8,313
349,3	-3,673
349,8	-1,913
350,2	-3,273
350,7	-3,713
351,1	0,367
351,6	2,367
352	1,607
352,5	7,087
353	17,967
353,4	31,727
353,9	35,727
354,3	52,967
354,8	62,727
355,3	76,647
355,7	95,887
356,2	128,367
356,6	156,887
357,1	202,167
357,5	242,527
358	289,367
358,5	335,487
358,9	396,807
359,4	458,487
359,8	533,127
360,3	616,447
360,8	716,247
361,2	820,047
361,7	934,167
362,1	1058,727
362,6	1194,567
363	1341,207
363,5	1492,807
364	1652,527
364,4	1811,527
364,9	1976,847
365,3	2132,287
365,8	2290,207
366,3	2432,607
366,7	2564,367
367,2	2673,247
367,6	2761,887
368,1	2821,807
368,5	2870,767
369	2890,687
369,5	2885,087
369,9	2854,647
370,4	2799,367
370,8	2717,567
371,3	2624,367
371,7	2518,007
372,2	2395,167
372,7	2267,447
373,1	2138,167
373,6	2009,127
374	1872,247
374,5	1746,247
374,9	1620,727
375,4	1493,607
375,9	1369,567
376,3	1261,087
376,8	1158,047
377,2	1060,127
377,7	973,367
378,2	891,367
378,6	809,047
379,1	734,807
379,5	673,527
380	606,927
380,4	544,727
380,9	496,687
381,4	449,767
381,8	404,687
382,3	370,607
382,7	342,207
383,2	310,687
383,6	282,647
384,1	253,087
384,6	229,607
385	209,127
385,5	186,487
385,9	169,407
386,4	161,927
386,8	152,527
387,3	140,487
387,7	131,327
388,2	121,167
388,7	106,127
389,1	90,647
389,6	80,487
390	73,527
390,5	62,287
390,9	56,887
391,4	52,447
391,9	43,207
392,3	33,607
392,8	34,967
393,2	33,567
393,7	26,927
394,1	26,647
394,6	28,327
395,1	17,167
395,5	11,247
396	8,007
396,4	5,847
396,9	0,727
397,3	4,367
397,8	3,367
398,2	4,367
398,7	7,007
399,2	6,327
399,6	2,407
400,1	-2,713
400,5	-1,873
401	-7,193
401,4	-8,633
401,9	-4,833
402,4	-0,233
402,8	-7,513
403,3	-8,873
403,7	-13,993
404,2	-20,393
404,6	-20,753
405,1	-10,713
405,5	-8,513
406	-6,233
406,5	-2,753
406,9	-8,713
407,4	-13,673
407,8	-17,193
408,3	-13,993
408,7	-13,553
409,2	-9,993
409,6	-6,113
410,1	-1,193
410,6	0,527
411	-5,113
411,5	-4,313
411,9	-4,993
412,4	-5,353
412,8	-4,753
413,3	2,167
413,7	4,287
414,2	5,487
414,7	6,327
415,1	10,767
415,6	8,087
416	7,607
416,5	2,087
416,9	0,807
417,4	-3,713
417,8	3,167
418,3	5,207
418,8	12,007
419,2	14,127
419,7	13,567
420,1	16,967
420,6	16,967
421	10,967
421,5	9,767
421,9	10,287
422,4	6,447
422,8	6,847
423,3	8,287
423,8	4,807
424,2	6,687
424,7	6,167
425,1	1,007
425,6	-0,713
426	6,807
426,5	5,447
426,9	3,647
427,4	11,807
427,9	12,447
428,3	5,087
428,8	5,167
429,2	2,927
429,7	-0,273
430,1	4,087
430,6	8,727
431	7,647
431,5	7,967
431,9	5,647
432,4	0,247
432,8	1,847
433,3	2,727
433,8	4,167
434,2	3,047
434,7	7,567
435,1	6,447
435,6	3,767
436	1,527
436,5	4,127
436,9	2,327
437,4	-2,433
437,8	-4,193
438,3	-3,513
438,8	-10,273
439,2	-13,513
439,7	-12,513
440,1	-9,153
440,6	-5,713
441	-0,513
441,5	1,047
441,9	-1,513
442,4	-4,273
442,8	-9,233
443,3	-5,033
443,7	-3,633
444,2	2,807
444,7	8,887
445,1	14,327
445,6	12,007
446	14,287
446,5	15,327
446,9	14,047
447,4	11,207
447,8	5,847
448,3	6,207
448,7	5,447
449,2	5,247
449,6	4,487
450,1	7,807
450,6	4,127
451	1,967
451,5	-3,033
451,9	-4,953
452,4	3,087
452,8	6,727
453,3	7,967
453,7	16,567
454,2	25,167
454,6	13,967
455,1	12,047
455,5	15,607
456	9,167
456,4	6,607
456,9	10,687
457,3	10,807
457,8	6,807
458,3	5,967
458,7	0,567
459,2	3,287
459,6	2,647
460,1	1,447
460,5	7,527
461	9,807
461,4	6,887
461,9	8,647
462,3	12,047
462,8	12,287
463,2	16,887
463,7	20,167
464,1	21,927
464,6	21,967
465	21,687
465,5	22,127
466	19,687
466,4	19,807
466,9	20,927
467,3	16,887
467,8	15,207
468,2	17,647
468,7	14,247
469,1	9,927
469,6	17,887
470	17,247
470,5	12,487
470,9	17,207
471,4	16,367
471,8	10,607
472,3	10,367
472,7	18,047
473,2	16,487
473,6	22,767
474,1	20,007
474,5	21,647
475	21,647
475,4	20,327
475,9	22,007
476,4	21,767
476,8	19,047
477,3	16,207
477,7	19,007
478,2	18,407
478,6	23,087
479,1	25,487
479,5	26,407
480	21,687
480,4	20,687
480,9	25,047
481,3	26,047
481,8	21,727
482,2	26,727
482,7	23,567
483,1	15,567
483,6	14,887
484	14,047
484,5	11,967
484,9	15,327
485,4	18,007
485,8	17,367
486,3	16,247
486,7	11,807
487,2	13,567
487,6	19,727
488,1	16,367
488,5	15,207
489	24,767
489,4	20,567
489,9	12,767
490,4	18,087
490,8	23,007
491,3	16,127
491,7	22,287
492,2	23,887
492,6	23,407
493,1	23,607
493,5	28,847
494	21,687
494,4	25,767
494,9	25,207
495,3	27,287
495,8	25,967
496,2	30,247
496,7	27,727
497,1	29,407
497,6	26,767
498	24,727
498,5	20,127
498,9	21,407
499,4	13,847
499,8	18,247
500,3	15,087
500,7	19,007
501,2	12,647
501,6	20,207
502,1	17,807
502,5	21,967
503	16,727
503,4	19,687
503,9	17,247
504,3	12,447
504,8	12,927
505,2	12,847
505,7	13,167
506,1	12,767
506,6	22,287
507	19,167
507,5	16,687
507,9	14,447
508,4	19,767
508,8	10,647
509,3	7,127
509,7	11,087
510,2	11,607
510,6	7,327
511,1	5,287
511,5	8,127
512	4,487
512,4	6,567
512,9	1,167
513,3	4,567
513,8	9,527
514,2	10,607
514,7	6,087
515,1	11,847
515,6	13,327
516	8,487
516,5	10,807
516,9	10,407
517,4	7,527
517,8	7,847
518,3	11,807
518,7	14,447
519,2	18,207
519,6	17,807
520,1	16,287
520,5	12,527
521	11,487
521,4	12,087
521,9	12,047
522,3	12,447
522,8	8,487
523,2	3,967
523,7	1,887
524,1	-0,873
524,6	1,607
525	5,327
525,5	7,927
525,9	11,207
526,4	7,327
526,8	-3,713
527,3	-6,153
527,7	-6,993
528,2	-8,393
528,6	-0,073
529,1	8,767
529,5	12,927
530	15,247
530,4	10,487
530,9	2,927
531,3	1,567
531,8	1,767
532,2	-8,913
532,6	-4,393
533,1	1,967
533,5	-3,793
534	-8,553
534,4	-3,073
534,9	-2,513
535,3	0,247
535,8	-1,353
536,2	1,127
536,7	4,647
537,1	0,567
537,6	-2,193
538	8,887
538,5	8,527
538,9	-0,153
539,4	-0,113
539,8	-7,553
540,3	-12,873
540,7	-13,673
541,2	-5,313
541,6	-6,953
542,1	2,247
542,5	3,807
543	3,647
543,4	-2,473
543,9	-0,913
544,3	-4,793
544,8	-5,433
545,2	-3,233
545,7	0,647
546,1	6,767
546,5	2,687
547	-0,033
547,4	-4,073
547,9	-6,273
548,3	-13,873
548,8	-17,793
549,2	-21,193
549,7	-24,433
550,1	-25,033
550,6	-28,513
551	-23,273
551,5	-20,313
551,9	-17,473
552,4	-21,713
552,8	-18,673
553,3	-17,913
553,7	-15,073
554,2	-19,233
554,6	-11,673
555,1	-14,073
555,5	-8,193
555,9	-10,353
556,4	-5,033
556,8	-9,993
557,3	-5,193
557,7	-16,953
558,2	-19,833
558,6	-17,873
559,1	-17,393
559,5	-21,953
560	-18,833
560,4	-20,193
560,9	-23,553
561,3	-22,833
561,8	-18,233
562,2	-18,073
562,7	-13,633
563,1	-12,313
563,6	-13,513
564	-16,233
564,4	-18,353
564,9	-16,313
565,3	-21,433
565,8	-16,753
566,2	-15,113
566,7	-13,513
567,1	-19,873
567,6	-18,233
568	-19,153
568,5	-20,553
568,9	-21,913
569,4	-18,273
569,8	-20,873
570,3	-23,393
570,7	-24,513
571,1	-26,313
571,6	-29,033
572	-24,393
572,5	-25,273
572,9	-19,673
573,4	-13,473
573,8	-9,473
574,3	-9,953
574,7	-7,393
575,2	-7,793
575,6	-11,753
576,1	-10,313
576,5	-8,793
576,9	-12,433
577,4	-22,073
577,8	-21,313
578,3	-20,153
578,7	-18,193
579,2	-14,193
579,6	-12,193
580,1	-8,593
580,5	-15,713
581	-16,153
581,4	-18,113
581,9	-16,473
582,3	-14,513
582,7	-9,953
583,2	-15,433
583,6	-17,673
584,1	-15,233
584,5	-18,993
585	-20,433
585,4	-18,353
585,9	-15,993
586,3	-15,513
586,8	-21,233
587,2	-24,273
587,6	-21,433
588,1	-20,153
588,5	-19,793
589	-10,993
589,4	-4,553
589,9	-6,113
590,3	-7,793
590,8	-7,673
591,2	-11,793
591,7	-14,633
592,1	-16,753
592,5	-15,713
593	-17,433
593,4	-15,873
593,9	-16,033
594,3	-10,793
594,8	-10,273
595,2	-14,513
595,7	-12,473
596,1	-16,353
596,6	-20,873
597	-18,633
597,4	-16,673
597,9	-19,273
598,3	-13,273
598,8	-16,673
599,2	-22,073
599,7	-18,433
600,1	-22,993
600,6	-25,593
601	-25,553
601,4	-26,593
601,9	-28,273
602,3	-23,233
602,8	-28,033
603,2	-23,953
603,7	-25,433
604,1	-22,953
604,6	-21,033
605	-15,393
605,4	-13,153
605,9	-8,873
606,3	-8,713
606,8	-9,553
607,2	-10,273
607,7	-11,913
608,1	-14,713
608,6	-14,713
609	-12,553
609,4	-12,753
609,9	-12,873
610,3	-10,793
610,8	-11,113
611,2	-17,033
611,7	-19,393
612,1	-18,073
612,6	-20,553
613	-22,673
613,4	-20,953
613,9	-16,673
614,3	-28,313
614,8	-23,513
615,2	-23,793
615,7	-24,113
616,1	-30,593
616,6	-23,553
617	-29,833
617,4	-34,633
617,9	-35,073
618,3	-34,033
618,8	-33,513
619,2	-25,913
619,7	-22,473
620,1	-22,033
620,5	-23,753
621	-19,273
621,4	-23,833
621,9	-25,553
622,3	-27,593
622,8	-20,593
623,2	-31,353
623,6	-30,113
624,1	-33,233
624,5	-31,073
625	-34,793
625,4	-26,073
625,9	-20,793
626,3	-18,073
626,8	-19,153
627,2	-17,153
627,6	-23,713
628,1	-29,193
628,5	-27,993
629	-23,273
629,4	-22,433
629,9	-19,513
630,3	-19,193
630,7	-16,353
631,2	-19,793
631,6	-17,833
632,1	-12,913
632,5	-16,713
633	-16,433
633,4	-14,793
633,8	-19,113
634,3	-21,873
634,7	-16,193
635,2	-16,513
635,6	-24,073
636,1	-20,433
636,5	-20,793
636,9	-20,513
637,4	-23,753
637,8	-18,233
638,3	-23,553
638,7	-24,073
639,2	-24,353
639,6	-22,313
640	-26,953
640,5	-25,833
640,9	-21,033
641,4	-23,873
641,8	-25,113
642,2	-23,633
642,7	-20,873
643,1	-26,393
643,6	-29,113
644	-29,233
644,5	-31,993
644,9	-30,553
645,3	-31,713
645,8	-33,993
646,2	-31,033
646,7	-33,033
647,1	-31,473
647,6	-32,833
648	-26,793
648,4	-27,433
648,9	-21,553
649,3	-24,393
649,8	-23,873
650,2	-23,713
650,6	-24,753
651,1	-23,833
651,5	-30,993
652	-30,273
652,4	-23,273
652,9	-27,633
653,3	-29,153
653,7	-28,633
654,2	-29,873
654,6	-39,433
655,1	-38,833
655,5	-38,233
655,9	-34,793
656,4	-31,433
656,8	-28,513
657,3	-25,833
657,7	-25,193
658,2	-22,473
658,6	-19,153
659	-19,753
659,5	-17,233
659,9	-15,433
660,4	-12,233
660,8	-9,353
661,2	-9,553
661,7	-13,913
662,1	-13,033
662,6	-18,593
663	-24,633
663,4	-23,233
663,9	-20,473
664,3	-19,473
664,8	-20,033
665,2	-20,313
665,6	-17,953
666,1	-16,353
666,5	-19,833
667	-13,753
667,4	-12,833
667,9	-14,993
668,3	-17,393
668,7	-15,993
669,2	-23,473
669,6	-22,113
670,1	-21,353
670,5	-17,553
670,9	-16,953
671,4	-15,793
671,8	-20,233
672,3	-23,153
672,7	-24,433
673,1	-27,993
673,6	-26,393
674	-21,913
674,5	-25,913
674,9	-25,713
675,3	-23,233
675,8	-21,393
676,2	-21,673
676,7	-19,833
677,1	-23,593
677,5	-24,833
678	-28,273
678,4	-30,833
678,9	-27,353
679,3	-26,873
679,7	-26,233
680,2	-24,633
680,6	-27,353
681,1	-24,033
681,5	-22,993
681,9	-23,313
682,4	-23,033
682,8	-18,233
683,3	-24,913
683,7	-27,153
684,1	-25,713
684,6	-27,553
685	-30,033
685,5	-30,953
685,9	-29,393
686,3	-30,313
686,8	-28,593
687,2	-28,353
687,7	-26,393
688,1	-28,633
688,5	-26,953
689	-29,073
689,4	-24,633
689,9	-26,673
690,3	-23,753
690,7	-24,753
691,2	-27,873
691,6	-31,873
692	-30,513
692,5	-27,393
692,9	-26,473
693,4	-21,513
693,8	-19,793
694,2	-16,473
694,7	-18,473
695,1	-23,153
695,6	-22,033
696	-24,513
696,4	-29,473
696,9	-31,833
697,3	-29,673
697,8	-34,313
698,2	-24,473
698,6	-21,753
699,1	-21,393
699,5	-20,553
699,9	-16,073
700,4	-26,433
700,8	-21,113
701,3	-21,513
701,7	-22,353
702,1	-17,553
702,6	-16,073
703	-19,993
703,5	-19,673
703,9	-20,193
704,3	-18,913
704,8	-20,433
705,2	-21,833
705,6	-18,633
706,1	-18,673
706,5	-32,273
707	-26,673
707,4	-27,513
707,8	-32,073
708,3	-27,313
708,7	-20,033
709,2	-26,113
709,6	-24,433
710	-18,273
710,5	-22,633
710,9	-23,233
711,3	-16,473
711,8	-16,473
712,2	-12,593
712,7	-14,793
713,1	-17,633
713,5	-22,113
714	-28,513
714,4	-32,833
714,8	-28,873
715,3	-23,993
715,7	-20,673
716,2	-16,233
716,6	-19,153
717	-21,953
717,5	-20,113
717,9	-21,513
718,3	-22,753
718,8	-21,473
719,2	-19,033
719,7	-23,113
720,1	-25,553
720,5	-21,433
721	-24,393
721,4	-24,353
721,8	-25,793
722,3	-20,593
722,7	-20,153
723,2	-25,353
723,6	-23,233
724	-23,993
724,5	-32,193
724,9	-34,753
725,3	-27,273
725,8	-31,473
726,2	-29,113
726,7	-30,593
727,1	-30,953
727,5	-37,913
728	-35,593
728,4	-39,153
728,8	-33,233
729,3	-30,673
729,7	-22,073
730,1	-24,273
730,6	-18,593
731	-20,393
731,5	-20,273
731,9	-24,353
732,3	-21,313
732,8	-27,593
733,2	-32,793
733,6	-34,313
734,1	-32,873
734,5	-40,913
734,9	-32,953
735,4	-26,793
735,8	-25,673
736,3	-21,393
736,7	-13,233
737,1	-20,233
737,6	-16,433
738	-17,113
738,4	-20,473
738,9	-24,553
739,3	-23,713
739,7	-34,873
740,2	-34,113
740,6	-38,553
741,1	-37,193
741,5	-35,793
741,9	-26,673
742,4	-29,153
742,8	-26,513
743,2	-26,313
743,7	-23,193
744,1	-25,393
744,5	-22,753
745	-21,233
745,4	-21,113
745,8	-29,233
746,3	-33,153
746,7	-39,913
747,2	-39,073
747,6	-32,753
748	-29,953
748,5	-25,833
748,9	-20,193
749,3	-24,153
749,8	-29,553
750,2	-21,633
750,6	-22,833
751,1	-20,793
751,5	-16,913
751,9	-15,913
752,4	-16,873
752,8	-13,553
753,3	-15,393
753,7	-16,953
754,1	-15,393
754,6	-17,593
755	-20,193
755,4	-13,953
755,9	-20,553
756,3	-20,753
756,7	-26,753
757,2	-29,553
757,6	-37,273
758	-24,953
758,5	-26,273
758,9	-20,953
759,3	-21,433
759,8	-20,153
760,2	-26,793
760,6	-26,873
761,1	-26,953
761,5	-24,353
761,9	-26,073
762,4	-26,273
762,8	-25,433
763,3	-26,793
763,7	-26,473
764,1	-25,073
764,6	-23,633
765	-27,913
765,4	-29,433
765,9	-29,593
766,3	-31,913
766,7	-35,033
767,2	-31,353
767,6	-29,193
768	-23,553
768,5	-21,833
768,9	-18,473
769,3	-19,033
769,8	-16,753
770,2	-22,953
770,6	-16,313
771,1	-11,913
771,5	-10,793
771,9	-12,513
772,4	-13,793
772,8	-17,433
773,2	-17,553
773,7	-13,473
774,1	-15,153
774,5	-12,193
775	-19,593
775,4	-25,233
775,8	-28,113
776,3	-19,633
776,7	-21,713
777,1	-16,713
777,6	-17,073
778	-18,873
778,4	-26,833
778,9	-21,073
779,3	-23,433
779,7	-20,713
780,2	-22,713
780,6	-23,993
781	-30,913
781,5	-28,073
781,9	-36,153
782,3	-37,553
782,8	-44,913
783,2	-48,113
783,6	-50,353
784,1	-40,753
784,5	-43,393
784,9	-31,033
785,4	-23,873
785,8	-23,793
786,2	-21,913
786,7	-15,113
787,1	-19,273
787,5	-24,153
788	-20,753
788,4	-27,513
788,8	-30,273
789,3	-36,073
789,7	-36,313
790,1	-36,433
790,6	-33,833
791	-35,393
791,4	-25,793
791,9	-22,353
792,3	-25,353
792,7	-28,273
793,2	-24,433
793,6	-32,633
794	-32,833
794,5	-29,313
794,9	-27,793
795,3	-28,313
795,8	-23,233
796,2	-23,273
796,6	-27,913
797,1	-28,073
797,5	-32,713
797,9	-28,953
798,4	-29,713
798,8	-24,033
799,2	-25,393
799,7	-18,753
800,1	-26,233
800,5	-20,553
801	-17,513
801,4	-19,713
801,8	-21,793
802,2	-12,353
802,7	-11,273
803,1	-15,393
803,5	-12,513
804	-9,633
804,4	-13,393
804,8	-21,793
805,3	-28,313
805,7	-30,073
806,1	-37,713
806,6	-38,513
807	-38,393
807,4	-33,473
807,9	-26,113
808,3	-21,193
808,7	-27,473
809,2	-23,393
809,6	-24,393
810	-26,433
810,4	-29,753
810,9	-23,513
811,3	-20,193
811,7	-21,993
812,2	-20,713
812,6	-16,553
813	-17,113
813,5	-20,633
813,9	-16,513
814,3	-21,313
814,8	-17,873
815,2	-15,833
815,6	-19,393
816,1	-25,633
816,5	-20,553
816,9	-27,433
817,3	-29,233
817,8	-22,953
818,2	-21,953
818,6	-22,473
819,1	-27,073
819,5	-29,153
819,9	-36,473
820,4	-29,593
820,8	-33,153
821,2	-25,833
821,7	-28,753
822,1	-29,873
822,5	-35,833
822,9	-33,633
823,4	-36,593
823,8	-32,953
824,2	-26,353
824,7	-21,353
825,1	-25,073
825,5	-25,993
826	-26,513
826,4	-25,953
826,8	-29,473
827,3	-30,073
827,7	-28,673
828,1	-28,833
828,5	-29,513
829	-27,473
829,4	-26,993
829,8	-25,153
830,3	-20,273
830,7	-22,793
831,1	-24,033
831,6	-25,513
832	-27,233
832,4	-27,873
832,8	-22,913
833,3	-21,793
833,7	-13,233
834,1	-11,513
834,6	-16,033
835	-22,513
835,4	-27,953
835,8	-32,593
836,3	-33,113
836,7	-27,833
837,1	-28,473
837,6	-25,273
838	-24,553
838,4	-24,513
838,9	-31,113
839,3	-27,793
839,7	-17,313
840,1	-16,153
840,6	-19,193
841	-23,033
841,4	-28,113
841,9	-39,233
842,3	-44,913
842,7	-45,313
843,1	-40,513
843,6	-41,793
844	-38,073
844,4	-35,473
844,9	-29,473
845,3	-24,793
845,7	-16,033
846,2	-16,393
846,6	-18,153
847	-22,273
847,4	-29,873
847,9	-27,673
848,3	-30,313
848,7	-27,913
849,2	-27,433
849,6	-20,873
850	-25,393
850,4	-30,073
850,9	-27,553
851,3	-24,753
851,7	-31,353
852,2	-32,153
852,6	-26,353
853	-24,953
853,4	-27,433
853,9	-27,113
854,3	-27,073
854,7	-25,073
855,2	-30,233
855,6	-32,153
856	-25,393
856,4	-22,153
856,9	-28,513
857,3	-31,193
857,7	-25,193
858,2	-28,913
858,6	-33,473
859	-26,473
859,4	-19,473
859,9	-28,193
860,3	-28,593
860,7	-31,553
861,1	-31,353
861,6	-33,993
862	-29,393
862,4	-27,673
862,9	-23,313
863,3	-30,553
863,7	-34,993
864,1	-33,153
864,6	-29,633
865	-30,873
865,4	-29,433
865,9	-28,033
866,3	-27,873
866,7	-32,713
867,1	-27,633
867,6	-27,593
868	-26,393
868,4	-27,433
868,8	-25,033
869,3	-25,793
869,7	-21,953
870,1	-17,633
870,6	-16,873
871	-14,193
871,4	-35,193
871,8	-34,033
872,3	-37,553
872,7	-45,993
873,1	-50,353
873,5	-35,353
874	-40,073
874,4	-32,153
874,8	-26,233
875,3	-29,833
875,7	-26,353
876,1	-23,433
876,5	-32,313
877	-33,073
877,4	-26,313
877,8	-24,193
878,2	-26,553
878,7	-20,393
879,1	-16,913
879,5	-18,313
879,9	-17,793
880,4	-15,873
880,8	-17,433
881,2	-20,073
881,7	-21,233
882,1	-28,273
882,5	-27,793
882,9	-25,073
883,4	-24,673
883,8	-27,793
884,2	-27,713
884,6	-24,953
885,1	-32,713
885,5	-34,873
885,9	-36,873
886,3	-36,993
886,8	-39,753
887,2	-37,753
887,6	-31,833
888	-26,913
888,5	-23,273
888,9	-25,993
889,3	-25,993
889,8	-30,753
890,2	-28,793
890,6	-27,353
891	-23,273
891,5	-24,713
891,9	-18,033
892,3	-23,033
892,7	-23,633
893,2	-21,673
893,6	-22,753
894	-24,113
894,4	-23,673
894,9	-27,713
895,3	-28,993
895,7	-29,233
896,1	-27,393
896,6	-22,713
897	-13,313
897,4	-19,553
897,8	-13,993
898,3	-15,153
898,7	-17,833
899,1	-20,633
899,5	-20,233
900	-22,633
900,4	-27,753
900,8	-28,873
901,2	-37,233
901,7	-33,913
902,1	-32,953
902,5	-29,633
902,9	-29,353
903,4	-20,713
903,8	-22,113
904,2	-25,513
904,6	-25,633
905,1	-22,273
905,5	-26,473
905,9	-26,113
906,3	-24,513
906,8	-27,753
907,2	-33,193
907,6	-32,433
908	-29,393
908,5	-30,313
908,9	-30,753
909,3	-29,273
909,7	-30,073
910,2	-32,153
910,6	-31,233
911	-28,233
911,4	-26,073
911,9	-26,833
912,3	-30,353
912,7	-28,873
913,1	-30,713
913,6	-32,033
914	-32,193
914,4	-28,073
914,8	-29,713
915,3	-27,273
915,7	-27,713
916,1	-24,993
916,5	-30,193
916,9	-29,713
917,4	-30,753
917,8	-25,713
918,2	-24,073
918,6	-20,113
919,1	-19,273
919,5	-23,553
919,9	-23,153
920,3	-21,153
920,8	-19,473
921,2	-20,513
921,6	-16,553
922	-23,633
922,5	-28,233
922,9	-30,153
923,3	-31,673
923,7	-33,553
924,2	-34,593
924,6	-33,753
925	-27,793
925,4	-26,033
925,8	-25,633
926,3	-27,553
926,7	-28,553
927,1	-32,633
927,5	-34,193
928	-34,313
928,4	-30,233
928,8	-30,513
929,2	-30,033
929,7	-27,273
930,1	-27,073
930,5	-22,753
930,9	-19,993
931,3	-20,753
931,8	-19,913
932,2	-22,033
932,6	-25,433
933	-30,873
933,5	-28,433
933,9	-30,033
934,3	-26,753
934,7	-22,553
935,2	-19,753
935,6	-26,553
936	-30,753
936,4	-31,993
936,8	-39,513
937,3	-36,753
937,7	-33,593
938,1	-29,833
938,5	-27,713
939	-20,313
939,4	-23,953
939,8	-27,393
940,2	-25,913
940,6	-25,593
941,1	-28,753
941,5	-27,073
941,9	-21,793
942,3	-24,513
942,8	-26,553
943,2	-24,353
943,6	-24,033
944	-23,273
944,4	-26,553
944,9	-23,673
945,3	-22,113
945,7	-18,113
946,1	-19,473
946,6	-18,753
947	-20,753
947,4	-25,833
947,8	-29,673
948,2	-33,873
948,7	-26,193
949,1	-27,033
949,5	-27,673
949,9	-25,033
950,3	-18,273
950,8	-23,713
951,2	-26,153
951,6	-24,193
952	-28,033
952,5	-34,553
952,9	-32,233
953,3	-32,433
953,7	-28,353
954,1	-27,993
954,6	-24,193
955	-24,993
955,4	-24,713
955,8	-31,473
956,2	-30,193
956,7	-32,553
957,1	-32,393
957,5	-25,113
957,9	-21,993
958,3	-28,913
958,8	-24,473
959,2	-20,713
959,6	-24,793
960	-26,233
960,5	-22,593
960,9	-29,033
961,3	-29,913
961,7	-27,753
962,1	-20,633
962,6	-15,753
963	-10,393
963,4	-16,233
963,8	-15,633
964,2	-21,513
964,7	-16,993
965,1	-16,993
965,5	-15,153
965,9	-18,473
966,3	-18,233
966,8	-22,873
967,2	-27,433
967,6	-23,353
968	-24,073
968,4	-25,673
968,9	-32,593
969,3	-31,553
969,7	-35,913
970,1	-35,433
970,5	-33,473
971	-31,073
971,4	-31,473
971,8	-34,713
972,2	-31,873
972,6	-31,713
973,1	-28,193
973,5	-24,073
973,9	-18,313
974,3	-22,553
974,7	-23,273
975,2	-17,353
975,6	-19,313
976	-19,233
976,4	-16,833
976,8	-15,073
977,3	-19,313
977,7	-15,873
978,1	-24,073
978,5	-27,673
978,9	-34,753
979,4	-38,153
979,8	-39,873
980,2	-34,953
980,6	-31,113
981	-24,593
981,5	-27,473
981,9	-26,913
982,3	-23,833
982,7	-28,193
983,1	-26,393
983,6	-23,873
984	-27,793
984,4	-34,193
984,8	-34,073
985,2	-32,073
985,6	-36,873
986,1	-33,913
986,5	-27,833
986,9	-24,073
987,3	-27,153
987,7	-21,313
988,2	-27,433
988,6	-29,873
989	-32,033
989,4	-35,873
989,8	-34,953
990,3	-32,193
990,7	-31,553
991,1	-34,713
991,5	-30,273
991,9	-29,393
992,3	-32,073
992,8	-33,673
993,2	-32,353
993,6	-34,233
994	-32,913
994,4	-27,113
994,9	-27,473
995,3	-28,833
995,7	-30,553
996,1	-32,553
996,5	-34,073
996,9	-30,913
997,4	-25,033
997,8	-23,313
998,2	-25,833
998,6	-26,833
999	-30,513
999,5	-31,273
999,9	-32,833
1000,3	-33,833
1000,7	-25,913
1001,1	-24,993
1001,5	-21,953
1002	-20,873
1002,4	-22,353
1002,8	-25,193
1003,2	-22,193
1003,6	-26,313
1004	-29,313
1004,5	-26,793
1004,9	-26,713
1005,3	-30,193
1005,7	-24,193
1006,1	-21,953
1006,6	-17,473
1007	-22,033
1007,4	-19,873
1007,8	-21,233
1008,2	-20,113
1008,6	-18,473
1009,1	-16,553
1009,5	-19,953
1009,9	-25,473
1010,3	-29,313
1010,7	-36,073
1011,1	-33,593
1011,6	-27,473
1012	-26,313
1012,4	-25,353
1012,8	-24,433
1013,2	-30,153
1013,6	-34,913
1014,1	-38,793
1014,5	-38,753
1014,9	-45,713
1015,3	-45,033
1015,7	-36,753
1016,1	-27,113
1016,6	-29,953
1017	-21,913
1017,4	-24,353
1017,8	-29,593
1018,2	-37,793
1018,6	-33,233
1019,1	-38,713
1019,5	-34,593
1019,9	-41,153
1020,3	-36,313
1020,7	-40,433
1021,1	-32,433
1021,6	-31,113
1022	-25,153
1022,4	-25,713
1022,8	-17,233
1023,2	-25,033
1023,6	-28,353
1024,1	-29,473
1024,5	-31,073
1024,9	-33,593
1025,3	-33,873
1025,7	-34,513
1026,1	-32,353
1026,6	-36,513
1027	-37,713
1027,4	-34,393
1027,8	-32,553
1028,2	-34,553
1028,6	-34,073
1029	-37,273
1029,5	-33,873
1029,9	-33,353
1030,3	-28,273
1030,7	-24,433
1031,1	-25,273
1031,5	-28,793
1032	-28,393
1032,4	-31,473
1032,8	-27,953
1033,2	-23,993
1033,6	-23,673
1034	-20,393
1034,4	-23,313
1034,9	-24,993
1035,3	-28,353
1035,7	-22,833
1036,1	-29,273
1036,5	-24,513
1036,9	-26,953
1037,4	-31,193
1037,8	-37,073
1038,2	-35,793
1038,6	-36,593
1039	-36,593
1039,4	-31,273
1039,8	-31,753
1040,3	-32,193
1040,7	-37,793
1041,1	-34,273
1041,5	-34,073
1041,9	-31,913
1042,3	-31,513
1042,7	-29,393
1043,2	-30,473
1043,6	-31,633
1044	-28,433
1044,4	-30,553
1044,8	-34,393
1045,2	-35,433
1045,6	-27,153
1046,1	-34,913
1046,5	-37,073
1046,9	-31,273
1047,3	-35,913
1047,7	-45,113
1048,1	-37,553
1048,5	-33,753
1049	-38,193
1049,4	-33,593
1049,8	-32,993
1050,2	-32,713
1050,6	-30,633
1051	-31,633
1051,4	-32,473
1051,9	-28,233
1052,3	-34,793
1052,7	-41,073
1053,1	-36,953
1053,5	-40,193
1053,9	-42,233
1054,3	-41,553
1054,8	-37,553
1055,2	-37,633
1055,6	-33,633
1056	-38,033
1056,4	-31,993
1056,8	-27,713
1057,2	-30,713
1057,6	-33,433
1058,1	-28,953
1058,5	-34,873
1058,9	-37,393
1059,3	-33,513
1059,7	-29,593
1060,1	-27,073
1060,5	-23,993
1061	-23,473
1061,4	-23,673
1061,8	-29,073
1062,2	-35,673
1062,6	-34,553
1063	-37,073
1063,4	-34,953
1063,8	-35,633
1064,3	-28,593
1064,7	-33,113
1065,1	-29,153
1065,5	-35,673
1065,9	-34,753
1066,3	-40,233
1066,7	-36,713
1067,1	-35,353
1067,6	-32,793
1068	-28,993
1068,4	-24,873
1068,8	-26,593
1069,2	-34,273
1069,6	-35,433
1070	-34,193
1070,4	-36,753
1070,9	-33,473
1071,3	-32,433
1071,7	-35,153
1072,1	-34,353
1072,5	-35,073
1072,9	-35,633
1073,3	-30,313
1073,7	-20,753
1074,2	-24,793
1074,6	-24,193
1075	-32,393
1075,4	-34,673
1075,8	-34,153
1076,2	-26,913
1076,6	-19,833
1077	-14,633
1077,5	-19,673
1077,9	-26,833
1078,3	-34,273
1078,7	-40,633
1079,1	-36,953
1079,5	-27,153
1079,9	-22,873
1080,3	-16,633
1080,7	-11,233
1081,2	-15,673
1081,6	-17,313
1082	-15,993
1082,4	-21,073
1082,8	-28,393
1083,2	-25,153
1083,6	-27,273
1084	-26,073
1084,5	-28,793
1084,9	-25,753
1085,3	-26,273
1085,7	-22,393
1086,1	-27,793
1086,5	-24,393
1086,9	-27,993
1087,3	-31,393
1087,7	-36,753
1088,2	-32,553
1088,6	-27,873
1089	-27,353
1089,4	-24,833
1089,8	-21,873
1090,2	-26,353
1090,6	-32,153
1091	-30,353
1091,4	-33,353
1091,9	-34,153
1092,3	-30,633
1092,7	-27,513
1093,1	-25,913
1093,5	-24,593
1093,9	-23,753
1094,3	-23,593
1094,7	-22,393
1095,1	-22,753
1095,5	-26,073
1096	-26,193
1096,4	-27,553
1096,8	-26,113
1097,2	-24,953
1097,6	-23,433
1098	-28,633
1098,4	-29,273
1098,8	-34,233
1099,2	-34,553
1099,6	-29,433
1100,1	-22,313
1100,5	-20,833
1100,9	-17,473
1101,3	-19,393
1101,7	-21,713
1102,1	-20,593
1102,5	-20,873
1102,9	-19,753
1103,3	-18,473
1103,7	-14,193
1104,2	-17,153
1104,6	-19,273
1105	-18,433
1105,4	-18,793
1105,8	-19,713
1106,2	-15,913
1106,6	-9,233
1107	-9,593
1107,4	-4,033
1107,8	-1,033
1108,3	-1,1
