Data from Subt2_00054.txt Node
Date: Fri Aug 11 16:13:25 MSK 2023
User: vat
Spectrometer: MAYP114033
Trigger mode: 0
Integration Time (sec): 5,000000E-1
Scans to average: 5
Electric dark correction enabled: true
Nonlinearity correction enabled: false
Boxcar width: 2
XAxis mode: Wavelengths
Number of Pixels in Spectrum: 2068
>>>>>Begin Spectral Data<<<<<
199,4	-0,333
199,9	0,267
200,4	-5,773
200,8	-7,213
201,3	-13,853
201,8	-17,213
202,2	-16,933
202,7	-15,853
203,2	-19,333
203,6	-16,173
204,1	-18,133
204,6	-24,293
205	-22,693
205,5	-19,693
206	-16,413
206,4	-9,773
206,9	-6,093
207,4	-7,253
207,8	-13,333
208,3	-14,573
208,8	-19,173
209,2	-24,293
209,7	-29,893
210,2	-24,773
210,6	-29,453
211,1	-29,653
211,5	-21,173
212	-13,653
212,5	-14,373
212,9	-11,493
213,4	-15,413
213,9	-22,453
214,3	-22,253
214,8	-23,213
215,3	-21,213
215,7	-19,933
216,2	-15,253
216,7	-23,173
217,1	-25,653
217,6	-24,933
218,1	-25,133
218,5	-33,453
219	-22,893
219,5	-17,413
219,9	-20,973
220,4	-21,533
220,9	-16,733
221,3	-22,373
221,8	-25,173
222,3	-29,053
222,7	-24,573
223,2	-21,053
223,6	-23,853
224,1	-27,413
224,6	-22,133
225	-22,653
225,5	-22,773
226	-15,653
226,4	-13,733
226,9	-20,893
227,4	-19,613
227,8	-22,693
228,3	-31,013
228,8	-34,853
229,2	-33,653
229,7	-42,053
230,2	-37,293
230,6	-33,493
231,1	-30,733
231,5	-24,373
232	-21,853
232,5	-22,653
232,9	-27,933
233,4	-27,493
233,9	-31,173
234,3	-28,093
234,8	-29,773
235,3	-27,453
235,7	-21,253
236,2	-16,653
236,7	-15,133
237,1	-22,053
237,6	-16,973
238,1	-22,293
238,5	-24,293
239	-25,373
239,4	-24,773
239,9	-18,493
240,4	-17,533
240,8	-14,573
241,3	-9,453
241,8	-3,133
242,2	-8,373
242,7	-6,213
243,2	-10,373
243,6	-13,693
244,1	-15,253
244,6	-18,933
245	-21,253
245,5	-20,253
245,9	-23,613
246,4	-24,853
246,9	-23,533
247,3	-24,533
247,8	-28,453
248,3	-28,933
248,7	-31,133
249,2	-35,333
249,7	-33,613
250,1	-33,013
250,6	-34,813
251	-34,933
251,5	-25,933
252	-30,213
252,4	-27,533
252,9	-24,933
253,4	-24,493
253,8	-28,093
254,3	-20,893
254,8	-21,293
255,2	-15,133
255,7	-8,813
256,1	-12,453
256,6	-17,213
257,1	-19,693
257,5	-24,853
258	-28,493
258,5	-24,133
258,9	-19,013
259,4	-15,933
259,9	-16,693
260,3	-18,493
260,8	-19,493
261,2	-25,293
261,7	-23,893
262,2	-25,253
262,6	-23,053
263,1	-19,373
263,6	-15,813
264	-14,893
264,5	-15,413
264,9	-15,853
265,4	-21,133
265,9	-22,293
266,3	-23,853
266,8	-20,693
267,3	-23,773
267,7	-25,013
268,2	-23,253
268,7	-18,493
269,1	-17,933
269,6	-21,253
270	-23,293
270,5	-27,853
271	-36,813
271,4	-41,453
271,9	-35,333
272,4	-32,253
272,8	-33,213
273,3	-30,133
273,7	-23,013
274,2	-21,733
274,7	-23,293
275,1	-24,613
275,6	-27,773
276,1	-30,533
276,5	-33,253
277	-32,653
277,4	-31,093
277,9	-27,093
278,4	-30,773
278,8	-32,493
279,3	-29,213
279,8	-29,173
280,2	-30,293
280,7	-26,853
281,1	-23,013
281,6	-20,493
282,1	-10,533
282,5	-10,173
283	-12,413
283,4	-15,413
283,9	-18,533
284,4	-29,973
284,8	-28,733
285,3	-20,173
285,8	-19,253
286,2	-22,213
286,7	-14,573
287,1	-17,133
287,6	-26,133
288,1	-26,053
288,5	-21,573
289	-24,653
289,5	-24,773
289,9	-22,453
290,4	-20,773
290,8	-22,013
291,3	-21,413
291,8	-22,533
292,2	-24,173
292,7	-25,013
293,1	-24,973
293,6	-25,533
294,1	-26,173
294,5	-27,173
295	-20,253
295,5	-18,093
295,9	-17,893
296,4	-18,853
296,8	-15,773
297,3	-24,853
297,8	-29,253
298,2	-31,773
298,7	-26,373
299,1	-31,413
299,6	-23,533
300,1	-22,613
300,5	-18,853
301	-19,173
301,5	-15,533
301,9	-26,373
302,4	-26,493
302,8	-27,133
303,3	-30,133
303,8	-28,533
304,2	-28,333
304,7	-31,453
305,1	-35,333
305,6	-32,453
306,1	-33,413
306,5	-30,493
307	-28,533
307,4	-25,333
307,9	-27,053
308,4	-26,813
308,8	-21,973
309,3	-17,613
309,8	-19,933
310,2	-17,813
310,7	-18,493
311,1	-28,293
311,6	-30,693
312,1	-25,773
312,5	-26,733
313	-29,893
313,4	-27,653
313,9	-28,693
314,4	-30,813
314,8	-30,413
315,3	-27,013
315,7	-21,933
316,2	-28,373
316,7	-29,173
317,1	-31,853
317,6	-34,533
318	-30,533
318,5	-23,053
319	-23,733
319,4	-25,013
319,9	-24,453
320,3	-25,853
320,8	-24,333
321,3	-25,413
321,7	-17,853
322,2	-14,733
322,6	-14,093
323,1	-21,093
323,6	-17,773
324	-24,573
324,5	-30,253
324,9	-34,813
325,4	-26,933
325,9	-25,733
326,3	-19,253
326,8	-15,733
327,2	-20,813
327,7	-27,173
328,2	-29,333
328,6	-32,813
329,1	-31,733
329,5	-22,173
330	-16,133
330,5	-18,813
330,9	-19,253
331,4	-18,693
331,8	-22,773
332,3	-25,693
332,8	-24,213
333,2	-29,933
333,7	-31,853
334,1	-35,213
334,6	-39,013
335,1	-37,373
335,5	-34,573
336	-32,053
336,4	-29,453
336,9	-24,853
337,4	-27,253
337,8	-23,093
338,3	-24,373
338,7	-21,893
339,2	-19,733
339,7	-13,053
340,1	-17,973
340,6	-15,853
341	-11,933
341,5	-14,253
342	-16,133
342,4	-12,573
342,9	-18,133
343,3	-25,213
343,8	-22,893
344,2	-20,053
344,7	-16,413
345,2	-14,133
345,6	-14,533
346,1	-14,373
346,5	-20,453
347	-29,013
347,5	-28,813
347,9	-23,173
348,4	-24,253
348,8	-26,453
349,3	-21,253
349,8	-17,373
350,2	-17,533
350,7	-18,133
351,1	-13,613
351,6	-12,773
352	-12,293
352,5	-8,813
353	-5,773
353,4	-0,453
353,9	10,587
354,3	19,107
354,8	20,787
355,3	33,987
355,7	44,387
356,2	50,427
356,6	63,107
357,1	90,867
357,5	109,587
358	138,067
358,5	173,627
358,9	204,707
359,4	238,867
359,8	279,947
360,3	326,227
360,8	371,267
361,2	434,267
361,7	498,627
362,1	569,907
362,6	647,507
363	739,627
363,5	826,427
364	914,627
364,4	1012,067
364,9	1108,347
365,3	1201,187
365,8	1295,067
366,3	1387,427
366,7	1466,667
367,2	1543,747
367,6	1598,227
368,1	1645,747
368,5	1667,347
369	1681,987
369,5	1671,707
369,9	1670,027
370,4	1639,907
370,8	1609,507
371,3	1565,707
371,7	1513,547
372,2	1441,667
372,7	1369,507
373,1	1295,587
373,6	1211,427
374	1136,947
374,5	1060,627
374,9	990,267
375,4	915,947
375,9	851,707
376,3	778,867
376,8	716,267
377,2	656,827
377,7	603,547
378,2	552,507
378,6	501,947
379,1	455,227
379,5	413,387
380	375,427
380,4	340,427
380,9	312,627
381,4	285,867
381,8	261,347
382,3	240,987
382,7	222,347
383,2	203,147
383,6	188,627
384,1	171,027
384,6	153,707
385	136,147
385,5	128,187
385,9	113,987
386,4	107,067
386,8	98,267
387,3	95,867
387,7	88,187
388,2	77,307
388,7	67,307
389,1	59,147
389,6	50,147
390	43,467
390,5	43,387
390,9	41,667
391,4	37,267
391,9	29,907
392,3	25,307
392,8	19,747
393,2	18,507
393,7	19,107
394,1	25,547
394,6	27,227
395,1	29,987
395,5	24,467
396	21,187
396,4	11,547
396,9	9,987
397,3	9,547
397,8	9,307
398,2	11,627
398,7	12,667
399,2	9,787
399,6	4,067
400,1	1,147
400,5	-3,893
401	-3,173
401,4	-2,333
401,9	-2,573
402,4	-5,893
402,8	-6,693
403,3	-9,733
403,7	-13,213
404,2	-9,093
404,6	-6,093
405,1	-0,933
405,5	3,427
406	4,187
406,5	-2,893
406,9	-4,493
407,4	-8,133
407,8	-9,173
408,3	-6,493
408,7	-5,853
409,2	-0,893
409,6	-0,693
410,1	-0,253
410,6	1,227
411	5,547
411,5	3,947
411,9	10,987
412,4	11,667
412,8	8,187
413,3	10,187
413,7	19,667
414,2	15,947
414,7	21,587
415,1	26,347
415,6	26,507
416	30,827
416,5	32,267
416,9	39,907
417,4	40,187
417,8	38,547
418,3	35,547
418,8	42,747
419,2	40,267
419,7	49,787
420,1	61,347
420,6	63,707
421	69,267
421,5	70,827
421,9	75,387
422,4	77,587
422,8	84,667
423,3	89,547
423,8	94,947
424,2	99,387
424,7	104,587
425,1	108,867
425,6	112,307
426	115,827
426,5	123,787
426,9	132,387
427,4	137,827
427,9	149,787
428,3	156,547
428,8	161,147
429,2	175,147
429,7	189,547
430,1	191,907
430,6	203,147
431	210,147
431,5	221,387
431,9	226,147
432,4	244,947
432,8	268,307
433,3	288,387
433,8	297,467
434,2	315,627
434,7	330,627
435,1	346,947
435,6	365,507
436	388,827
436,5	413,987
436,9	431,307
437,4	454,187
437,8	477,987
438,3	506,827
438,8	532,707
439,2	563,707
439,7	593,187
440,1	620,547
440,6	644,827
441	682,667
441,5	720,387
441,9	753,467
442,4	787,107
442,8	830,547
443,3	864,027
443,7	905,627
444,2	948,347
444,7	994,147
445,1	1036,707
445,6	1079,187
446	1122,507
446,5	1173,707
446,9	1234,667
447,4	1284,747
447,8	1343,187
448,3	1400,467
448,7	1451,827
449,2	1500,987
449,6	1567,387
450,1	1625,467
450,6	1694,067
451	1761,387
451,5	1836,987
451,9	1905,387
452,4	1977,867
452,8	2048,467
453,3	2117,987
453,7	2190,107
454,2	2263,587
454,6	2350,507
455,1	2422,107
455,5	2506,347
456	2581,067
456,4	2665,467
456,9	2746,707
457,3	2845,267
457,8	2937,507
458,3	3035,827
458,7	3134,867
459,2	3230,547
459,6	3323,947
460,1	3419,747
460,5	3517,947
461	3607,187
461,4	3705,467
461,9	3804,907
462,3	3910,547
462,8	4014,347
463,2	4127,907
463,7	4228,147
464,1	4335,387
464,6	4442,827
465	4542,987
465,5	4649,147
466	4761,147
466,4	4864,027
466,9	4965,787
467,3	5078,347
467,8	5180,547
468,2	5280,147
468,7	5395,867
469,1	5495,987
469,6	5604,227
470	5716,227
470,5	5833,547
470,9	5928,427
471,4	6035,867
471,8	6138,467
472,3	6237,147
472,7	6326,227
473,2	6433,547
473,6	6529,027
474,1	6628,627
474,5	6721,947
475	6815,747
475,4	6910,947
475,9	7012,147
476,4	7100,467
476,8	7177,267
477,3	7264,627
477,7	7328,427
478,2	7411,027
478,6	7479,227
479,1	7564,107
479,5	7630,107
480	7707,467
480,4	7767,307
480,9	7829,747
481,3	7893,667
481,8	7961,307
482,2	8013,987
482,7	8067,187
483,1	8124,107
483,6	8159,307
484	8199,627
484,5	8247,707
484,9	8287,227
485,4	8320,707
485,8	8360,347
486,3	8389,947
486,7	8416,027
487,2	8427,507
487,6	8452,067
488,1	8463,987
488,5	8482,907
489	8494,707
489,4	8515,747
489,9	8515,227
490,4	8527,427
490,8	8521,547
491,3	8519,147
491,7	8505,307
492,2	8501,707
492,6	8487,587
493,1	8482,227
493,5	8458,547
494	8437,187
494,4	8419,747
494,9	8384,747
495,3	8346,907
495,8	8334,067
496,2	8313,027
496,7	8281,187
497,1	8258,987
497,6	8229,467
498	8183,307
498,5	8137,427
498,9	8089,907
499,4	8051,027
499,8	8019,707
500,3	7983,867
500,7	7948,867
501,2	7909,547
501,6	7859,587
502,1	7801,747
502,5	7748,387
503	7700,227
503,4	7654,347
503,9	7608,387
504,3	7555,547
504,8	7508,107
505,2	7455,907
505,7	7404,827
506,1	7359,147
506,6	7305,747
507	7237,867
507,5	7182,547
507,9	7119,507
508,4	7054,547
508,8	7002,267
509,3	6946,107
509,7	6876,427
510,2	6814,307
510,6	6751,267
511,1	6681,387
511,5	6625,227
512	6562,947
512,4	6493,187
512,9	6428,027
513,3	6370,347
513,8	6305,667
514,2	6239,387
514,7	6186,107
515,1	6120,467
515,6	6056,267
516	5990,747
516,5	5934,307
516,9	5863,507
517,4	5811,467
517,8	5744,227
518,3	5678,387
518,7	5616,787
519,2	5559,467
519,6	5485,867
520,1	5438,267
520,5	5383,947
521	5334,267
521,4	5276,427
521,9	5232,627
522,3	5170,867
522,8	5112,507
523,2	5055,827
523,7	5000,107
524,1	4940,707
524,6	4882,427
525	4834,707
525,5	4783,627
525,9	4733,427
526,4	4687,587
526,8	4635,587
527,3	4587,227
527,7	4537,147
528,2	4490,707
528,6	4434,307
529,1	4395,907
529,5	4352,507
530	4297,707
530,4	4253,987
530,9	4214,387
531,3	4160,387
531,8	4117,187
532,2	4078,747
532,6	4029,267
533,1	3977,547
533,5	3941,587
534	3881,907
534,4	3839,427
534,9	3796,107
535,3	3759,987
535,8	3720,827
536,2	3693,187
536,7	3651,267
537,1	3623,507
537,6	3591,227
538	3555,627
538,5	3517,027
538,9	3487,507
539,4	3445,067
539,8	3403,187
540,3	3372,467
540,7	3338,547
541,2	3299,747
541,6	3272,387
542,1	3238,227
542,5	3197,467
543	3162,747
543,4	3130,827
543,9	3097,187
544,3	3073,027
544,8	3044,627
545,2	3017,947
545,7	2992,027
546,1	2953,387
546,5	2920,427
547	2901,267
547,4	2867,707
547,9	2834,307
548,3	2815,427
548,8	2793,027
549,2	2765,307
549,7	2751,307
550,1	2734,107
550,6	2715,107
551	2690,947
551,5	2660,747
551,9	2632,547
552,4	2604,107
552,8	2576,107
553,3	2562,267
553,7	2541,387
554,2	2521,867
554,6	2509,987
555,1	2496,267
555,5	2472,107
555,9	2460,987
556,4	2439,187
556,8	2425,467
557,3	2404,627
557,7	2384,907
558,2	2356,587
558,6	2344,067
559,1	2312,747
559,5	2294,187
560	2277,187
560,4	2262,547
560,9	2246,147
561,3	2233,067
561,8	2220,587
562,2	2202,667
562,7	2184,587
563,1	2166,067
563,6	2149,147
564	2121,067
564,4	2108,547
564,9	2096,707
565,3	2081,307
565,8	2062,747
566,2	2050,987
566,7	2028,347
567,1	2013,387
567,6	1994,987
568	1986,187
568,5	1976,987
568,9	1964,987
569,4	1953,627
569,8	1939,267
570,3	1921,307
570,7	1908,747
571,1	1894,987
571,6	1880,227
572	1865,827
572,5	1862,427
572,9	1851,387
573,4	1841,747
573,8	1821,867
574,3	1818,067
574,7	1797,267
575,2	1768,907
575,6	1753,907
576,1	1744,667
576,5	1733,947
576,9	1725,827
577,4	1728,027
577,8	1716,507
578,3	1702,587
578,7	1687,987
579,2	1668,707
579,6	1654,467
580,1	1638,747
580,5	1631,347
581	1617,867
581,4	1616,187
581,9	1602,947
582,3	1599,147
582,7	1586,547
583,2	1573,787
583,6	1559,867
584,1	1550,787
584,5	1537,347
585	1530,107
585,4	1520,787
585,9	1507,987
586,3	1493,787
586,8	1490,547
587,2	1475,187
587,6	1463,107
588,1	1452,467
588,5	1447,267
589	1427,027
589,4	1416,627
589,9	1414,547
590,3	1414,547
590,8	1410,107
591,2	1405,547
591,7	1408,227
592,1	1397,427
592,5	1386,627
593	1373,107
593,4	1366,067
593,9	1357,827
594,3	1345,147
594,8	1337,867
595,2	1335,307
595,7	1326,827
596,1	1320,107
596,6	1314,867
597	1301,067
597,4	1295,467
597,9	1289,107
598,3	1280,027
598,8	1275,467
599,2	1277,187
599,7	1270,187
600,1	1272,467
600,6	1261,907
601	1252,587
601,4	1241,787
601,9	1229,267
602,3	1207,507
602,8	1204,147
603,2	1195,747
603,7	1191,547
604,1	1183,947
604,6	1177,747
605	1173,667
605,4	1170,867
605,9	1153,427
606,3	1147,227
606,8	1145,707
607,2	1126,227
607,7	1117,147
608,1	1122,227
608,6	1114,067
609	1107,107
609,4	1111,427
609,9	1110,067
610,3	1099,867
610,8	1096,787
611,2	1083,427
611,7	1077,307
612,1	1067,107
612,6	1058,067
613	1049,507
613,4	1054,027
613,9	1051,187
614,3	1039,227
614,8	1029,387
615,2	1019,347
615,7	1001,867
616,1	988,467
616,6	986,267
617	985,747
617,4	984,787
617,9	990,307
618,3	982,147
618,8	973,067
619,2	968,587
619,7	962,107
620,1	944,707
620,5	936,387
621	935,107
621,4	921,227
621,9	909,027
622,3	907,227
622,8	911,507
623,2	905,267
623,6	910,347
624,1	913,187
624,5	908,507
625	893,867
625,4	884,747
625,9	872,787
626,3	865,107
626,8	860,067
627,2	849,827
627,6	843,107
628,1	838,747
628,5	830,867
629	826,827
629,4	826,147
629,9	818,867
630,3	812,067
630,7	803,107
631,2	792,387
631,6	789,587
632,1	789,587
632,5	782,907
633	780,147
633,4	778,387
633,8	767,667
634,3	761,587
634,7	757,467
635,2	751,987
635,6	744,947
636,1	741,827
636,5	739,827
636,9	732,227
637,4	728,307
637,8	728,387
638,3	719,387
638,7	707,627
639,2	700,227
639,6	692,627
640	684,387
640,5	680,667
640,9	675,467
641,4	672,467
641,8	671,747
642,2	669,227
642,7	667,827
643,1	669,827
643,6	661,267
644	654,987
644,5	648,827
644,9	646,987
645,3	634,747
645,8	631,707
646,2	623,067
646,7	615,547
647,1	610,507
647,6	613,147
648	610,627
648,4	609,387
648,9	607,307
649,3	590,627
649,8	582,427
650,2	576,947
650,6	571,987
651,1	570,347
651,5	578,627
652	577,107
652,4	576,627
652,9	570,467
653,3	563,947
653,7	563,587
654,2	563,827
654,6	566,907
655,1	568,147
655,5	562,707
655,9	559,747
656,4	548,347
656,8	539,627
657,3	536,987
657,7	537,187
658,2	527,067
658,6	524,787
659	523,267
659,5	518,907
659,9	506,827
660,4	506,347
660,8	502,907
661,2	494,147
661,7	485,707
662,1	483,227
662,6	472,467
663	466,667
663,4	462,667
663,9	456,827
664,3	458,747
664,8	459,707
665,2	461,067
665,6	463,147
666,1	461,867
666,5	456,387
667	453,907
667,4	441,947
667,9	429,507
668,3	432,347
668,7	429,347
669,2	423,907
669,6	426,347
670,1	431,587
670,5	422,587
670,9	423,587
671,4	425,147
671,8	426,067
672,3	415,867
672,7	418,507
673,1	414,787
673,6	399,827
674	396,347
674,5	392,547
674,9	386,547
675,3	384,387
675,8	387,387
676,2	378,667
676,7	378,787
677,1	371,667
677,5	364,227
678	359,747
678,4	360,707
678,9	358,107
679,3	358,467
679,7	357,227
680,2	355,947
680,6	346,547
681,1	344,507
681,5	346,707
681,9	342,947
682,4	340,267
682,8	341,827
683,3	344,707
683,7	332,667
684,1	331,787
684,6	329,267
685	328,947
685,5	316,187
685,9	316,787
686,3	310,707
686,8	308,147
687,2	301,907
687,7	304,387
688,1	303,467
688,5	307,027
689	303,747
689,4	299,707
689,9	295,227
690,3	291,507
690,7	288,027
691,2	287,747
691,6	289,627
692	286,787
692,5	286,667
692,9	279,827
693,4	277,667
693,8	278,827
694,2	283,027
694,7	274,947
695,1	273,587
695,6	269,627
696	263,987
696,4	255,467
696,9	265,787
697,3	266,547
697,8	266,427
698,2	265,987
698,6	265,467
699,1	253,147
699,5	253,227
699,9	254,787
700,4	252,307
700,8	250,547
701,3	247,307
701,7	239,227
702,1	232,587
702,6	223,627
703	229,107
703,5	234,627
703,9	234,707
704,3	236,147
704,8	240,667
705,2	231,627
705,6	233,907
706,1	228,347
706,5	220,867
707	226,987
707,4	228,027
707,8	218,907
708,3	220,307
708,7	228,307
709,2	214,107
709,6	206,507
710	203,907
710,5	199,827
710,9	187,787
711,3	184,387
711,8	185,587
712,2	185,867
712,7	182,627
713,1	188,187
713,5	195,427
714	193,907
714,4	192,307
714,8	197,507
715,3	195,427
715,7	190,627
716,2	187,027
716,6	178,907
717	179,067
717,5	177,987
717,9	179,307
718,3	174,147
718,8	184,147
719,2	181,587
719,7	175,267
720,1	171,427
720,5	174,947
721	165,187
721,4	158,867
721,8	156,867
722,3	157,827
722,7	153,347
723,2	150,667
723,6	150,707
724	154,067
724,5	150,827
724,9	155,827
725,3	159,067
725,8	158,347
726,2	150,187
726,7	146,667
727,1	143,587
727,5	140,467
728	140,147
728,4	139,267
728,8	138,747
729,3	135,667
729,7	136,627
730,1	134,787
730,6	136,827
731	137,027
731,5	140,347
731,9	139,907
732,3	145,147
732,8	142,347
733,2	140,787
733,6	139,987
734,1	138,947
734,5	129,667
734,9	133,627
735,4	132,347
735,8	130,987
736,3	131,947
736,7	129,547
737,1	128,627
737,6	132,667
738	126,147
738,4	127,387
738,9	131,227
739,3	128,227
739,7	121,547
740,2	122,987
740,6	120,387
741,1	119,147
741,5	119,827
741,9	122,707
742,4	119,107
742,8	112,827
743,2	112,747
743,7	107,387
744,1	108,907
744,5	110,227
745	111,987
745,4	109,987
745,8	116,467
746,3	110,787
746,7	110,627
747,2	109,587
747,6	106,907
748	98,947
748,5	101,747
748,9	97,867
749,3	95,507
749,8	93,907
750,2	93,107
750,6	89,387
751,1	90,587
751,5	87,827
751,9	89,427
752,4	90,067
752,8	92,707
753,3	93,547
753,7	98,467
754,1	98,547
754,6	100,587
755	94,587
755,4	94,987
755,9	94,107
756,3	92,347
756,7	91,827
757,2	89,387
757,6	89,507
758	89,187
758,5	88,027
758,9	88,267
759,3	88,827
759,8	84,947
760,2	78,867
760,6	78,347
761,1	76,427
761,5	79,067
761,9	80,067
762,4	75,547
762,8	78,587
763,3	73,267
763,7	70,827
764,1	69,427
764,6	77,187
765	72,947
765,4	76,067
765,9	75,627
766,3	75,067
766,7	73,467
767,2	74,427
767,6	72,387
768	75,187
768,5	69,827
768,9	66,627
769,3	64,067
769,8	61,907
770,2	56,587
770,6	63,347
771,1	63,387
771,5	65,227
771,9	71,187
772,4	70,587
772,8	70,947
773,2	71,907
773,7	69,987
774,1	65,987
774,5	68,787
775	65,267
775,4	68,507
775,8	69,827
776,3	64,987
776,7	64,107
777,1	67,867
777,6	60,187
778	56,747
778,4	61,347
778,9	59,747
779,3	57,867
779,7	61,147
780,2	64,427
780,6	61,507
781	63,187
781,5	59,067
781,9	50,067
782,3	42,027
782,8	42,147
783,2	39,867
783,6	41,867
784,1	47,467
784,5	49,427
784,9	51,387
785,4	49,507
785,8	46,147
786,2	38,147
786,7	37,747
787,1	33,787
787,5	32,827
788	35,627
788,4	43,547
788,8	42,987
789,3	45,907
789,7	50,227
790,1	45,547
790,6	44,467
791	42,107
791,4	38,107
791,9	35,147
792,3	38,347
792,7	38,987
793,2	46,347
793,6	40,907
794	43,067
794,5	42,667
794,9	37,827
795,3	31,347
795,8	38,987
796,2	34,347
796,6	28,827
797,1	31,747
797,5	27,067
797,9	23,347
798,4	24,467
798,8	26,187
799,2	25,187
799,7	29,187
800,1	32,027
800,5	30,187
801	29,787
801,4	29,747
801,8	32,747
802,2	30,907
802,7	31,867
803,1	30,667
803,5	28,907
804	25,387
804,4	26,707
804,8	24,547
805,3	23,027
805,7	23,347
806,1	23,587
806,6	28,307
807	24,987
807,4	29,667
807,9	35,827
808,3	37,627
808,7	26,427
809,2	28,387
809,6	21,787
810	13,227
810,4	9,187
810,9	13,867
811,3	13,307
811,7	20,307
812,2	25,227
812,6	21,747
813	24,627
813,5	29,827
813,9	23,347
814,3	21,067
814,8	26,307
815,2	21,307
815,6	13,707
816,1	19,707
816,5	16,147
816,9	18,947
817,3	21,147
817,8	22,067
818,2	13,747
818,6	14,947
819,1	9,867
819,5	11,147
819,9	8,787
820,4	13,467
820,8	12,547
821,2	13,467
821,7	17,347
822,1	22,587
822,5	21,827
822,9	18,387
823,4	17,187
823,8	13,587
824,2	13,107
824,7	13,747
825,1	18,267
825,5	19,747
826	10,467
826,4	3,387
826,8	1,147
827,3	4,107
827,7	1,227
828,1	5,707
828,5	6,547
829	8,427
829,4	7,107
829,8	3,467
830,3	5,547
830,7	9,387
831,1	7,227
831,6	9,387
832	14,467
832,4	11,707
832,8	12,627
833,3	14,307
833,7	14,027
834,1	16,147
834,6	12,227
835	15,267
835,4	17,067
835,8	13,227
836,3	10,307
836,7	16,187
837,1	8,387
837,6	4,307
838	2,987
838,4	0,907
838,9	-10,253
839,3	-8,413
839,7	-6,733
840,1	-7,493
840,6	-9,613
841	2,667
841,4	3,627
841,9	5,107
842,3	6,067
842,7	8,907
843,1	6,707
843,6	1,307
844	-3,893
844,4	-5,373
844,9	-9,053
845,3	-11,413
845,7	-5,893
846,2	-5,533
846,6	1,547
847	1,507
847,4	-1,853
847,9	-1,413
848,3	-1,053
848,7	-7,933
849,2	-1,653
849,6	-3,573
850	-3,973
850,4	-3,413
850,9	-5,293
851,3	-11,253
851,7	-12,413
852,2	-12,413
852,6	-14,013
853	-10,533
853,4	-6,533
853,9	-2,373
854,3	-1,413
854,7	-1,773
855,2	-0,813
855,6	-0,413
856	0,307
856,4	-1,213
856,9	-0,693
857,3	-4,573
857,7	-3,253
858,2	-1,613
858,6	-0,133
859	0,027
859,4	5,347
859,9	2,987
860,3	4,467
860,7	0,667
861,1	2,467
861,6	-6,013
862	-11,893
862,4	-13,773
862,9	-10,933
863,3	-13,053
863,7	-8,973
864,1	-2,493
864,6	-3,693
865	-5,373
865,4	-8,573
865,9	-10,693
866,3	-16,453
866,7	-16,693
867,1	-13,693
867,6	-8,493
868	-5,773
868,4	-0,053
868,8	3,307
869,3	1,027
869,7	-2,253
870,1	-6,013
870,6	-11,933
871	-12,573
871,4	14,427
871,8	8,907
872,3	10,627
872,7	9,547
873,1	10,387
873,5	-13,653
874	-5,813
874,4	-4,413
874,8	-3,173
875,3	-6,493
875,7	-10,693
876,1	-13,813
876,5	-14,853
877	-10,693
877,4	-14,213
877,8	-14,733
878,2	-14,213
878,7	-12,733
879,1	-13,613
879,5	-8,973
879,9	-10,013
880,4	-5,853
880,8	-9,933
881,2	-9,093
881,7	-15,493
882,1	-13,693
882,5	-19,613
882,9	-15,973
883,4	-12,213
883,8	-6,053
884,2	-6,333
884,6	-2,973
885,1	-2,773
885,5	-7,413
885,9	-11,613
886,3	-11,373
886,8	-10,573
887,2	-12,453
887,6	-10,133
888	-7,573
888,5	-9,653
888,9	-7,333
889,3	-7,613
889,8	-10,253
890,2	-13,053
890,6	-8,533
891	-18,693
891,5	-17,653
891,9	-17,573
892,3	-15,293
892,7	-16,333
893,2	-4,333
893,6	-4,533
894	-3,493
894,4	-6,933
894,9	-14,613
895,3	-19,853
895,7	-19,893
896,1	-20,053
896,6	-13,813
897	-10,213
897,4	-9,653
897,8	-8,733
898,3	-10,413
898,7	-6,293
899,1	-4,613
899,5	-10,893
900	-16,493
900,4	-14,013
900,8	-18,573
901,2	-18,213
901,7	-15,453
902,1	-7,253
902,5	-7,373
902,9	-8,373
903,4	-9,213
903,8	-6,293
904,2	-5,253
904,6	-7,053
905,1	-6,973
905,5	-9,653
905,9	-11,373
906,3	-19,413
906,8	-17,533
907,2	-18,973
907,6	-16,933
908	-16,093
908,5	-9,373
908,9	-11,013
909,3	-13,773
909,7	-10,853
910,2	-9,413
910,6	-16,853
911	-15,493
911,4	-17,933
911,9	-20,173
912,3	-19,693
912,7	-18,213
913,1	-18,813
913,6	-15,533
914	-19,853
914,4	-27,373
914,8	-28,613
915,3	-30,893
915,7	-27,893
916,1	-27,173
916,5	-16,613
916,9	-10,933
917,4	-8,773
917,8	-10,213
918,2	-2,973
918,6	-8,413
919,1	-8,613
919,5	-13,773
919,9	-9,053
920,3	-12,093
920,8	-8,013
921,2	-14,333
921,6	-12,613
922	-20,653
922,5	-18,693
922,9	-29,533
923,3	-23,653
923,7	-21,893
924,2	-20,453
924,6	-24,933
925	-18,093
925,4	-21,773
925,8	-20,853
926,3	-15,933
926,7	-16,093
927,1	-9,293
927,5	-10,173
928	-14,373
928,4	-19,053
928,8	-13,813
929,2	-23,333
929,7	-21,573
930,1	-18,933
930,5	-13,573
930,9	-14,293
931,3	-13,733
931,8	-17,773
932,2	-14,933
932,6	-23,013
933	-27,613
933,5	-25,053
933,9	-18,693
934,3	-23,613
934,7	-21,213
935,2	-14,893
935,6	-17,733
936	-21,853
936,4	-27,013
936,8	-30,293
937,3	-35,453
937,7	-30,653
938,1	-28,573
938,5	-24,013
939	-21,333
939,4	-25,693
939,8	-27,733
940,2	-28,413
940,6	-27,733
941,1	-31,573
941,5	-27,373
941,9	-32,013
942,3	-31,133
942,8	-34,813
943,2	-29,453
943,6	-34,053
944	-29,093
944,4	-32,413
944,9	-28,173
945,3	-25,733
945,7	-22,293
946,1	-29,293
946,6	-31,293
947	-27,773
947,4	-30,173
947,8	-25,813
948,2	-18,333
948,7	-15,653
949,1	-12,293
949,5	-11,013
949,9	-15,093
950,3	-17,973
950,8	-15,813
951,2	-22,973
951,6	-24,733
952	-27,053
952,5	-25,613
952,9	-21,213
953,3	-20,253
953,7	-17,773
954,1	-15,973
954,6	-15,253
955	-17,773
955,4	-15,613
955,8	-15,693
956,2	-16,213
956,7	-21,093
957,1	-20,933
957,5	-27,453
957,9	-28,373
958,3	-28,373
958,8	-22,933
959,2	-26,413
959,6	-20,053
960	-23,333
960,5	-21,453
960,9	-27,253
961,3	-22,773
961,7	-23,253
962,1	-23,373
962,6	-22,533
963	-13,733
963,4	-14,773
963,8	-14,053
964,2	-19,293
964,7	-21,573
965,1	-27,173
965,5	-37,133
965,9	-40,213
966,3	-34,253
966,8	-31,893
967,2	-36,093
967,6	-26,133
968	-25,693
968,4	-22,213
968,9	-27,613
969,3	-15,973
969,7	-21,213
970,1	-23,333
970,5	-25,613
971	-19,253
971,4	-23,093
971,8	-21,413
972,2	-17,533
972,6	-20,093
973,1	-22,693
973,5	-27,173
973,9	-31,413
974,3	-34,853
974,7	-31,133
975,2	-30,933
975,6	-29,693
976	-25,373
976,4	-21,573
976,8	-19,453
977,3	-22,053
977,7	-20,173
978,1	-18,293
978,5	-16,613
978,9	-24,413
979,4	-17,733
979,8	-12,453
980,2	-11,813
980,6	-11,333
981	-5,413
981,5	-6,573
981,9	-13,213
982,3	-17,693
982,7	-23,333
983,1	-27,933
983,6	-26,693
984	-23,133
984,4	-20,693
984,8	-22,493
985,2	-15,893
985,6	-24,013
986,1	-29,973
986,5	-30,253
986,9	-26,893
987,3	-34,893
987,7	-30,613
988,2	-28,573
988,6	-27,293
989	-28,493
989,4	-23,573
989,8	-29,093
990,3	-35,213
990,7	-40,053
991,1	-36,293
991,5	-36,653
991,9	-29,293
992,3	-20,733
992,8	-13,573
993,2	-15,013
993,6	-13,413
994	-16,533
994,4	-22,533
994,9	-18,693
995,3	-18,853
995,7	-20,653
996,1	-17,733
996,5	-8,733
996,9	-18,453
997,4	-24,093
997,8	-30,253
998,2	-30,413
998,6	-37,693
999	-36,093
999,5	-32,053
999,9	-26,693
1000,3	-23,773
1000,7	-22,093
1001,1	-21,813
1001,5	-20,333
1002	-23,533
1002,4	-27,653
1002,8	-31,573
1003,2	-36,813
1003,6	-37,253
1004	-31,573
1004,5	-35,573
1004,9	-30,493
1005,3	-32,613
1005,7	-37,653
1006,1	-39,213
1006,6	-37,773
1007	-41,493
1007,4	-32,613
1007,8	-27,733
1008,2	-32,293
1008,6	-31,573
1009,1	-30,253
1009,5	-32,373
1009,9	-33,893
1010,3	-27,053
1010,7	-28,773
1011,1	-20,893
1011,6	-18,053
1012	-17,573
1012,4	-21,773
1012,8	-22,533
1013,2	-34,213
1013,6	-37,573
1014,1	-34,053
1014,5	-32,173
1014,9	-25,293
1015,3	-19,773
1015,7	-19,053
1016,1	-22,653
1016,6	-24,893
1017	-27,333
1017,4	-24,573
1017,8	-19,893
1018,2	-14,093
1018,6	-15,813
1019,1	-13,493
1019,5	-16,333
1019,9	-16,613
1020,3	-24,053
1020,7	-21,293
1021,1	-27,213
1021,6	-30,413
1022	-30,373
1022,4	-26,933
1022,8	-29,813
1023,2	-27,973
1023,6	-30,053
1024,1	-33,173
1024,5	-32,293
1024,9	-34,973
1025,3	-36,213
1025,7	-26,733
1026,1	-26,173
1026,6	-30,653
1027	-22,133
1027,4	-21,693
1027,8	-27,853
1028,2	-29,773
1028,6	-21,773
1029	-23,573
1029,5	-20,573
1029,9	-17,373
1030,3	-12,813
1030,7	-18,493
1031,1	-17,533
1031,5	-22,413
1032	-25,733
1032,4	-28,733
1032,8	-28,733
1033,2	-33,453
1033,6	-29,773
1034	-29,493
1034,4	-32,653
1034,9	-30,493
1035,3	-30,093
1035,7	-35,013
1036,1	-35,053
1036,5	-33,053
1036,9	-33,573
1037,4	-31,333
1037,8	-20,413
1038,2	-21,493
1038,6	-23,373
1039	-25,293
1039,4	-15,973
1039,8	-24,133
1040,3	-19,733
1040,7	-14,413
1041,1	-10,853
1041,5	-22,893
1041,9	-22,133
1042,3	-27,213
1042,7	-29,733
1043,2	-35,253
1043,6	-34,613
1044	-32,013
1044,4	-25,733
1044,8	-22,013
1045,2	-18,613
1045,6	-12,013
1046,1	-17,893
1046,5	-14,813
1046,9	-24,773
1047,3	-27,413
1047,7	-27,293
1048,1	-25,333
1048,5	-37,613
1049	-31,573
1049,4	-33,413
1049,8	-34,533
1050,2	-28,653
1050,6	-19,293
1051	-20,773
1051,4	-16,293
1051,9	-22,293
1052,3	-31,533
1052,7	-38,133
1053,1	-37,973
1053,5	-46,493
1053,9	-42,613
1054,3	-41,213
1054,8	-43,933
1055,2	-39,373
1055,6	-35,733
1056	-36,653
1056,4	-37,373
1056,8	-31,093
1057,2	-29,253
1057,6	-21,213
1058,1	-21,053
1058,5	-16,173
1058,9	-19,293
1059,3	-26,013
1059,7	-32,173
1060,1	-30,173
1060,5	-31,573
1061	-26,573
1061,4	-27,813
1061,8	-25,053
1062,2	-30,293
1062,6	-34,293
1063	-42,093
1063,4	-39,573
1063,8	-38,293
1064,3	-33,253
1064,7	-29,173
1065,1	-21,933
1065,5	-20,973
1065,9	-24,653
1066,3	-26,373
1066,7	-26,853
1067,1	-32,813
1067,6	-36,773
1068	-37,213
1068,4	-32,773
1068,8	-31,773
1069,2	-30,533
1069,6	-28,093
1070	-21,093
1070,4	-31,053
1070,9	-36,733
1071,3	-31,893
1071,7	-28,093
1072,1	-35,053
1072,5	-30,573
1072,9	-25,693
1073,3	-31,893
1073,7	-33,613
1074,2	-35,333
1074,6	-33,773
1075	-35,133
1075,4	-26,853
1075,8	-32,173
1076,2	-29,773
1076,6	-23,733
1077	-19,693
1077,5	-24,173
1077,9	-21,213
1078,3	-17,533
1078,7	-21,853
1079,1	-25,373
1079,5	-26,653
1079,9	-25,613
1080,3	-28,573
1080,7	-30,013
1081,2	-28,333
1081,6	-24,213
1082	-25,973
1082,4	-22,773
1082,8	-22,453
1083,2	-19,253
1083,6	-20,453
1084	-15,653
1084,5	-19,773
1084,9	-22,093
1085,3	-25,413
1085,7	-29,533
1086,1	-30,213
1086,5	-34,093
1086,9	-32,613
1087,3	-31,933
1087,7	-27,773
1088,2	-24,853
1088,6	-21,933
1089	-21,173
1089,4	-21,133
1089,8	-24,693
1090,2	-34,693
1090,6	-29,373
1091	-29,293
1091,4	-28,653
1091,9	-22,613
1092,3	-17,653
1092,7	-22,253
1093,1	-22,293
1093,5	-22,893
1093,9	-24,493
1094,3	-22,533
1094,7	-20,013
1095,1	-21,133
1095,5	-18,813
1096	-21,053
1096,4	-23,733
1096,8	-22,733
1097,2	-18,813
1097,6	-18,133
1098	-18,933
1098,4	-14,333
1098,8	-9,653
1099,2	-13,333
1099,6	-13,773
1100,1	-9,973
1100,5	-8,093
1100,9	-12,573
1101,3	-14,093
1101,7	-18,253
1102,1	-22,093
1102,5	-26,613
1102,9	-27,653
1103,3	-27,493
1103,7	-24,533
1104,2	-22,853
1104,6	-21,373
1105	-17,013
1105,4	-12,853
1105,8	-12,253
1106,2	-7,253
1106,6	-4,933
1107	-5,453
1107,4	-3,053
1107,8	-0,283
1108,3	-1,133
