Data from Subt2_00078.txt Node
Date: Fri Aug 11 16:37:40 MSK 2023
User: vat
Spectrometer: MAYP114033
Trigger mode: 0
Integration Time (sec): 5,000000E-1
Scans to average: 5
Electric dark correction enabled: true
Nonlinearity correction enabled: false
Boxcar width: 2
XAxis mode: Wavelengths
Number of Pixels in Spectrum: 2068
>>>>>Begin Spectral Data<<<<<
199,4	0,9
199,9	0,25
200,4	0,38
200,8	-0,3
201,3	-1,7
201,8	-1,58
202,2	-5,46
202,7	-4,82
203,2	-2,66
203,6	-3,18
204,1	-1,98
204,6	2,7
205	1,38
205,5	-0,74
206	-2,34
206,4	-4,58
206,9	-5,58
207,4	-0,94
207,8	0,26
208,3	3,22
208,8	5,18
209,2	5,82
209,7	2,7
210,2	5,94
210,6	5,3
211,1	5,58
211,5	4,34
212	2,9
212,5	-4,26
212,9	-3,14
213,4	-3,78
213,9	-6,58
214,3	-4,7
214,8	-5,78
215,3	-8,74
215,7	-11,82
216,2	-12,42
216,7	-17,74
217,1	-16,14
217,6	-16,34
218,1	-14,54
218,5	-9,86
219	-6,02
219,5	-3,74
219,9	-2,94
220,4	2,22
220,9	2,94
221,3	3,74
221,8	1,9
222,3	0,9
222,7	-5,5
223,2	-8,54
223,6	-5,94
224,1	0,18
224,6	3,98
225	5,06
225,5	4,06
226	4,46
226,4	-6,18
226,9	-10,3
227,4	-9,02
227,8	-11,7
228,3	-17,78
228,8	-11,82
229,2	-11,34
229,7	-14,58
230,2	-4,3
230,6	-5,78
231,1	-4,02
231,5	-2,9
232	3,22
232,5	0,1
232,9	0,18
233,4	-4,14
233,9	-3,22
234,3	-5,3
234,8	-5,1
235,3	-2,9
235,7	-1,02
236,2	0,66
236,7	-5,58
237,1	-9,18
237,6	-8,94
238,1	-1,18
238,5	-4,7
239	-1,78
239,4	2,42
239,9	8,9
240,4	2,42
240,8	11,3
241,3	11,58
241,8	8,06
242,2	1,26
242,7	0,98
243,2	-4,94
243,6	-2,7
244,1	-6,26
244,6	-11,18
245	-9,66
245,5	-12,34
245,9	-9,14
246,4	-3,06
246,9	0,06
247,3	0,26
247,8	-2,46
248,3	-4,14
248,7	-9,66
249,2	-9,86
249,7	-14,1
250,1	-12,02
250,6	-18,38
251	-16,78
251,5	-13,9
252	-6,86
252,4	1,46
252,9	9,22
253,4	7,58
253,8	10,34
254,3	5,06
254,8	-0,14
255,2	-8,54
255,7	-2,34
256,1	-7,18
256,6	-4,62
257,1	-3,54
257,5	-1,94
258	-6,46
258,5	-4,74
258,9	-9,9
259,4	-11,7
259,9	-5,66
260,3	-7,7
260,8	-6,86
261,2	-4,74
261,7	-6,94
262,2	-9,78
262,6	-6,18
263,1	-9,78
263,6	-4,34
264	2,1
264,5	1,1
264,9	1,98
265,4	4,58
265,9	3,86
266,3	1,38
266,8	5,02
267,3	6,14
267,7	10,74
268,2	5,38
268,7	1,7
269,1	-1,66
269,6	-2,7
270	-10,86
270,5	-9,1
271	-6,78
271,4	-9,06
271,9	-8,26
272,4	-6,34
272,8	-7,66
273,3	-6,18
273,7	1,5
274,2	1,34
274,7	5,86
275,1	8,7
275,6	3,7
276,1	-4,18
276,5	-5,02
277	-8,46
277,4	-11,46
277,9	0,5
278,4	2,42
278,8	3,1
279,3	6,02
279,8	6,66
280,2	-0,34
280,7	1,02
281,1	-2,86
281,6	-9,02
282,1	-9,26
282,5	-13,1
283	-11,9
283,4	-5,66
283,9	1,22
284,4	1,94
284,8	2,34
285,3	4,5
285,8	-0,62
286,2	-3,46
286,7	-4,46
287,1	-1,62
287,6	-4,18
288,1	-4,42
288,5	-3,58
289	-4,58
289,5	-6,46
289,9	-8,7
290,4	-9,62
290,8	-6,86
291,3	-6,34
291,8	0,42
292,2	4,82
292,7	5,78
293,1	2,38
293,6	5,38
294,1	-4,86
294,5	-6,3
295	1,02
295,5	0,62
295,9	-3,14
296,4	-2,54
296,8	-11,66
297,3	-16,58
297,8	-12,74
298,2	-11,26
298,7	-7,94
299,1	-3,3
299,6	-3,5
300,1	-10,38
300,5	-2,42
301	-2,94
301,5	-1,38
301,9	-5,66
302,4	-4,74
302,8	-12,38
303,3	-11,3
303,8	-12,82
304,2	-4,58
304,7	1,86
305,1	0,22
305,6	3,14
306,1	5,1
306,5	0,54
307	1,54
307,4	6,26
307,9	0,9
308,4	4,82
308,8	5,02
309,3	2,06
309,8	-0,14
310,2	4,02
310,7	2,26
311,1	-0,7
311,6	-7,5
312,1	-1,5
312,5	-4,9
313	-7,22
313,4	-2,86
313,9	5,3
314,4	-6,86
314,8	-8,74
315,3	-6,78
315,7	-9,34
316,2	-7,82
316,7	-7,46
317,1	-6,26
317,6	-8,38
318	-4,54
318,5	-6,54
319	-3,02
319,4	1,74
319,9	-1,18
320,3	-3,58
320,8	-8,78
321,3	-1,34
321,7	-2,02
322,2	1,34
322,6	0,18
323,1	2,74
323,6	-2,02
324	-0,78
324,5	-3,22
324,9	-5,74
325,4	-6,54
325,9	-2,9
326,3	-4,34
326,8	-1,82
327,2	3,54
327,7	5,3
328,2	-0,1
328,6	-1,82
329,1	-0,1
329,5	-0,26
330	1,54
330,5	3,94
330,9	2,74
331,4	-0,86
331,8	-5,78
332,3	-8,22
332,8	-10,66
333,2	-9,62
333,7	-6,22
334,1	-0,62
334,6	-7,38
335,1	-5,26
335,5	-8,34
336	-9,38
336,4	-13,86
336,9	-8,54
337,4	-11,42
337,8	-6,3
338,3	-6,7
338,7	-2,42
339,2	-3,38
339,7	4,42
340,1	2,1
340,6	4,62
341	4,62
341,5	9,06
342	-1,14
342,4	1,9
342,9	0,86
343,3	-3,82
343,8	-6,42
344,2	2,22
344,7	-4,7
345,2	-4,3
345,6	-0,62
346,1	-4,46
346,5	-1,42
347	2,54
347,5	0,42
347,9	1,42
348,4	13,34
348,8	3,58
349,3	4,34
349,8	5,94
350,2	7,46
350,7	-2,18
351,1	3,26
351,6	8,3
352	8,18
352,5	4,22
353	8,94
353,4	11,9
353,9	9,18
354,3	9,1
354,8	13,3
355,3	19,98
355,7	22,1
356,2	33,42
356,6	43,74
357,1	63,34
357,5	72,1
358	84,34
358,5	98,66
358,9	117,78
359,4	127,86
359,8	154,94
360,3	178,1
360,8	200,54
361,2	228,02
361,7	262,06
362,1	294,58
362,6	340,1
363	389,9
363,5	437,06
364	484,86
364,4	527,42
364,9	578,06
365,3	629,46
365,8	672,62
366,3	716,58
366,7	763,42
367,2	795,7
367,6	817,14
368,1	846,26
368,5	866,78
369	876,06
369,5	876,94
369,9	873,5
370,4	858,74
370,8	835,66
371,3	808,7
371,7	778,78
372,2	739,66
372,7	703,38
373,1	661,98
373,6	628,42
374	592,5
374,5	553,86
374,9	512,7
375,4	479,1
375,9	442,46
376,3	403,02
376,8	379,1
377,2	350,86
377,7	320,78
378,2	288,78
378,6	264,98
379,1	238,26
379,5	220,34
380	204,06
380,4	186,66
380,9	168,78
381,4	153,14
381,8	138,54
382,3	131,46
382,7	122,5
383,2	111,86
383,6	103,34
384,1	92,94
384,6	78,14
385	68,38
385,5	62,58
385,9	54,14
386,4	52,82
386,8	52,58
387,3	50,06
387,7	47,38
388,2	47,46
388,7	40,58
389,1	32,18
389,6	31,26
390	32,58
390,5	26,94
390,9	26,34
391,4	26,26
391,9	19,46
392,3	15,34
392,8	17,98
393,2	16,66
393,7	14,94
394,1	17,7
394,6	17,9
395,1	11,82
395,5	13,82
396	14,5
396,4	14,66
396,9	14,7
397,3	18,5
397,8	12,5
398,2	10,98
398,7	9,78
399,2	10,62
399,6	10,58
400,1	13,18
400,5	16,78
401	13,9
401,4	9,62
401,9	8,86
402,4	9,1
402,8	6,3
403,3	6,26
403,7	7,02
404,2	4,54
404,6	-0,82
405,1	5,38
405,5	5,94
406	5,5
406,5	4,06
406,9	5,34
407,4	2,46
407,8	-0,3
408,3	-2,3
408,7	3,78
409,2	8,82
409,6	10,74
410,1	13,7
410,6	24,06
411	27,66
411,5	22,86
411,9	18,22
412,4	24,54
412,8	20,46
413,3	14,66
413,7	21,06
414,2	25,3
414,7	25,14
415,1	25,26
415,6	27,74
416	26,7
416,5	27,34
416,9	28,1
417,4	30,14
417,8	35,94
418,3	39,42
418,8	40,02
419,2	41,02
419,7	44,82
420,1	43,5
420,6	43,02
421	39,62
421,5	35,78
421,9	31,06
422,4	27,94
422,8	27,14
423,3	26,22
423,8	30,58
424,2	31,78
424,7	30,58
425,1	26,9
425,6	32,82
426	32,78
426,5	39,82
426,9	41,82
427,4	50,98
427,9	47,82
428,3	46,06
428,8	44,78
429,2	46,06
429,7	45,7
430,1	48,58
430,6	57,9
431	56,94
431,5	60,86
431,9	61,1
432,4	66,86
432,8	64,5
433,3	63,62
433,8	67,54
434,2	68,1
434,7	67,86
435,1	69,7
435,6	77,18
436	76,34
436,5	87,54
436,9	88,46
437,4	91,78
437,8	87,7
438,3	95,9
438,8	88,18
439,2	93,82
439,7	98,7
440,1	108,18
440,6	110,5
441	118,66
441,5	121,62
441,9	125,54
442,4	128,82
442,8	128,3
443,3	137,46
443,7	147,66
444,2	158,38
444,7	167,14
445,1	178,02
445,6	186,14
446	194,62
446,5	194,46
446,9	201,14
447,4	206,14
447,8	215,54
448,3	222,42
448,7	237,3
449,2	242,82
449,6	258,62
450,1	267,94
450,6	272,94
451	281,54
451,5	290,38
451,9	298,42
452,4	310,74
452,8	324,94
453,3	341,06
453,7	355,98
454,2	370,18
454,6	378,62
455,1	394,46
455,5	404,66
456	418,06
456,4	430,14
456,9	443,34
457,3	453,86
457,8	464,02
458,3	477,74
458,7	487,18
459,2	502,86
459,6	520,26
460,1	532,62
460,5	553,22
461	572,78
461,4	585,54
461,9	601,14
462,3	619,66
462,8	638,58
463,2	656,62
463,7	679,3
464,1	693,78
464,6	712,46
465	724,98
465,5	738,3
466	747,34
466,4	764,14
466,9	779,7
467,3	800,46
467,8	821,7
468,2	841,62
468,7	857,86
469,1	874,5
469,6	887,26
470	905,62
470,5	920,82
470,9	941,86
471,4	956,78
471,8	976,14
472,3	985,82
472,7	1011,42
473,2	1027,02
473,6	1051,42
474,1	1069,86
474,5	1092,02
475	1105,22
475,4	1123,34
475,9	1135,74
476,4	1145,06
476,8	1160,86
477,3	1176,14
477,7	1190,74
478,2	1212,74
478,6	1236,14
479,1	1253,74
479,5	1268,18
480	1283,86
480,4	1296,86
480,9	1309,94
481,3	1325,22
481,8	1339,66
482,2	1351,78
482,7	1362,46
483,1	1379,14
483,6	1394,7
484	1410,42
484,5	1421,54
484,9	1434,1
485,4	1435,1
485,8	1445,38
486,3	1452,82
486,7	1464,74
487,2	1475,66
487,6	1488,74
488,1	1490,7
488,5	1493,26
489	1503,02
489,4	1506,14
489,9	1515,94
490,4	1530,66
490,8	1540,18
491,3	1547,5
491,7	1568,06
492,2	1575,94
492,6	1582,62
493,1	1591,3
493,5	1595,86
494	1582,06
494,4	1585,46
494,9	1580,3
495,3	1586,5
495,8	1586,7
496,2	1602,34
496,7	1606,7
497,1	1616,94
497,6	1621,06
498	1624,78
498,5	1622,58
498,9	1628,38
499,4	1623,74
499,8	1628,7
500,3	1636,22
500,7	1637,46
501,2	1636,26
501,6	1645,66
502,1	1643,82
502,5	1638,66
503	1641,94
503,4	1640,74
503,9	1640,38
504,3	1635,3
504,8	1641,9
505,2	1642,66
505,7	1647,14
506,1	1648,98
506,6	1659,02
507	1663,42
507,5	1662,46
507,9	1663,62
508,4	1661,7
508,8	1654,02
509,3	1651,78
509,7	1656,02
510,2	1647,26
510,6	1646,18
511,1	1649,26
511,5	1644,46
512	1638,18
512,4	1643,26
512,9	1647,54
513,3	1648,26
513,8	1653,1
514,2	1658,58
514,7	1663,46
515,1	1660,18
515,6	1660,42
516	1653,46
516,5	1657,54
516,9	1654,06
517,4	1653,38
517,8	1652,06
518,3	1654,5
518,7	1647,82
519,2	1640,3
519,6	1641,02
520,1	1643,46
520,5	1642,66
521	1640,98
521,4	1646,1
521,9	1644,58
522,3	1646,62
522,8	1647,7
523,2	1651,22
523,7	1647,74
524,1	1652,74
524,6	1648,5
525	1648,86
525,5	1649,98
525,9	1658,62
526,4	1652,14
526,8	1646,66
527,3	1651,82
527,7	1648,9
528,2	1650,62
528,6	1661,38
529,1	1669,3
529,5	1670,22
530	1673,98
530,4	1670,18
530,9	1658,38
531,3	1658,38
531,8	1659,82
532,2	1654,26
532,6	1656,54
533,1	1665,18
533,5	1659,5
534	1654,62
534,4	1662,1
534,9	1668,74
535,3	1668,14
535,8	1671,42
536,2	1677,46
536,7	1677,3
537,1	1674,66
537,6	1678,5
538	1686,82
538,5	1687,5
538,9	1690,7
539,4	1685,5
539,8	1690,14
540,3	1685,94
540,7	1684,26
541,2	1685,02
541,6	1693,54
542,1	1690,94
542,5	1696,78
543	1694,38
543,4	1697,82
543,9	1698,46
544,3	1703,1
544,8	1711,38
545,2	1720,5
545,7	1718,78
546,1	1722,26
546,5	1723,06
547	1713,9
547,4	1707,06
547,9	1706,42
548,3	1703,58
548,8	1699,98
549,2	1702,82
549,7	1706,62
550,1	1714,46
550,6	1714,06
551	1719,46
551,5	1722,46
551,9	1727,34
552,4	1720,1
552,8	1727,14
553,3	1728,1
553,7	1736,46
554,2	1731,26
554,6	1737,82
555,1	1737,42
555,5	1743,22
555,9	1738,18
556,4	1746,58
556,8	1745,94
557,3	1750,62
557,7	1751,34
558,2	1754,1
558,6	1752,66
559,1	1763,14
559,5	1761,82
560	1758,54
560,4	1762,26
560,9	1767,1
561,3	1759,74
561,8	1760,02
562,2	1763,7
562,7	1763,1
563,1	1769,26
563,6	1774,98
564	1778,18
564,4	1778,9
564,9	1787,5
565,3	1777,9
565,8	1781,98
566,2	1784,42
566,7	1783,26
567,1	1776,14
567,6	1784,86
568	1781,74
568,5	1778,74
568,9	1780,98
569,4	1779,74
569,8	1779,1
570,3	1777,3
570,7	1771,9
571,1	1759,94
571,6	1762,18
572	1760,7
572,5	1758,42
572,9	1762,38
573,4	1767,1
573,8	1762,9
574,3	1754,82
574,7	1758,02
575,2	1762,62
575,6	1761,98
576,1	1765,7
576,5	1772,74
576,9	1770,74
577,4	1762,7
577,8	1755,9
578,3	1748,7
578,7	1746,02
579,2	1747,78
579,6	1744,3
580,1	1745,58
580,5	1740,14
581	1738,1
581,4	1736,62
581,9	1734,94
582,3	1742,5
582,7	1744,18
583,2	1740,78
583,6	1730,02
584,1	1732,58
584,5	1723,58
585	1721,62
585,4	1715,34
585,9	1706,14
586,3	1697,78
586,8	1692,46
587,2	1688,78
587,6	1684,26
588,1	1688,1
588,5	1684,38
589	1689,3
589,4	1689,62
589,9	1695,38
590,3	1692,34
590,8	1687,5
591,2	1678,58
591,7	1673,66
592,1	1665,46
592,5	1658,7
593	1657,22
593,4	1659,22
593,9	1656,74
594,3	1655,78
594,8	1654,22
595,2	1657,58
595,7	1651,58
596,1	1641,02
596,6	1637,82
597	1635,66
597,4	1623,74
597,9	1618,02
598,3	1625,22
598,8	1618,34
599,2	1612,82
599,7	1612,7
600,1	1602,5
600,6	1593,26
601	1588,86
601,4	1582,54
601,9	1583,18
602,3	1591,02
602,8	1585,42
603,2	1584,82
603,7	1584,54
604,1	1572,66
604,6	1568,74
605	1566,54
605,4	1560,26
605,9	1559,34
606,3	1561,54
606,8	1557,34
607,2	1553,22
607,7	1546,98
608,1	1535,58
608,6	1528,94
609	1517,38
609,4	1511,38
609,9	1510,06
610,3	1507,1
610,8	1503,82
611,2	1505,7
611,7	1505,3
612,1	1494,54
612,6	1487,02
613	1477,02
613,4	1467,74
613,9	1454,66
614,3	1445,1
614,8	1444,74
615,2	1442,62
615,7	1433,14
616,1	1426,1
616,6	1424,34
617	1414,3
617,4	1403,86
617,9	1399,66
618,3	1394,98
618,8	1385,14
619,2	1383,06
619,7	1376,58
620,1	1376,34
620,5	1374,78
621	1374,82
621,4	1364,54
621,9	1358,86
622,3	1348,06
622,8	1337,02
623,2	1329,42
623,6	1324,1
624,1	1315,66
624,5	1310,86
625	1310,86
625,4	1304,9
625,9	1303,34
626,3	1298,42
626,8	1289,78
627,2	1280,62
627,6	1264,9
628,1	1260,62
628,5	1253,66
629	1249,5
629,4	1241,78
629,9	1246,42
630,3	1235,22
630,7	1232,46
631,2	1221,7
631,6	1214,02
632,1	1214,22
632,5	1210,22
633	1199,26
633,4	1193,98
633,8	1185,06
634,3	1168,98
634,7	1167,1
635,2	1169,06
635,6	1158,3
636,1	1160,22
636,5	1151,54
636,9	1135,26
637,4	1128,42
637,8	1126,94
638,3	1117,22
638,7	1120,94
639,2	1120,82
639,6	1113,86
640	1108,14
640,5	1102,42
640,9	1096,98
641,4	1093,98
641,8	1082,06
642,2	1075,26
642,7	1065,7
643,1	1056,02
643,6	1043,86
644	1043,5
644,5	1040,5
644,9	1041,5
645,3	1037,54
645,8	1031,82
646,2	1023,62
646,7	1010,38
647,1	1005,26
647,6	999,62
648	996,34
648,4	992,14
648,9	992,82
649,3	984,78
649,8	979,66
650,2	969,34
650,6	965,9
651,1	967,3
651,5	959,66
652	950,14
652,4	955,94
652,9	947,58
653,3	937,7
653,7	930,62
654,2	924,5
654,6	915,58
655,1	909,02
655,5	903,3
655,9	903,58
656,4	903,5
656,8	897,3
657,3	897,18
657,7	893,14
658,2	886,78
658,6	882,7
659	871,9
659,5	865,82
659,9	863,86
660,4	861,9
660,8	857,78
661,2	855,78
661,7	851,98
662,1	836,1
662,6	829,74
663	822,26
663,4	813,86
663,9	810,86
664,3	812,5
664,8	808,1
665,2	803,5
665,6	806,22
666,1	798,1
666,5	791,54
667	788,82
667,4	782,22
667,9	767,7
668,3	761,94
668,7	761,26
669,2	747,9
669,6	747,5
670,1	746,62
670,5	744,74
670,9	735,98
671,4	736,02
671,8	723,14
672,3	721,58
672,7	713,14
673,1	712,58
673,6	706,22
674	702,14
674,5	694,66
674,9	689,38
675,3	679,22
675,8	677,66
676,2	674,78
676,7	671,3
677,1	665,58
677,5	655,82
678	647,7
678,4	644,26
678,9	640,98
679,3	635,1
679,7	638,02
680,2	639,3
680,6	632,62
681,1	630,14
681,5	629,66
681,9	623,06
682,4	615,38
682,8	616,38
683,3	605,7
683,7	598,1
684,1	596,86
684,6	588,38
685	581,5
685,5	582,94
685,9	584,82
686,3	578,82
686,8	577,14
687,2	570,9
687,7	562,14
688,1	555,3
688,5	552,82
689	552,14
689,4	552,18
689,9	547,26
690,3	541,9
690,7	535,34
691,2	529,78
691,6	524,78
692	525,66
692,5	525,94
692,9	526,66
693,4	522,78
693,8	521,46
694,2	514,38
694,7	510,46
695,1	502,58
695,6	502,62
696	495,9
696,4	494,26
696,9	490,5
697,3	494,3
697,8	487,94
698,2	486,1
698,6	487,42
699,1	485,82
699,5	483,34
699,9	478,1
700,4	475,02
700,8	473,3
701,3	467,02
701,7	455,7
702,1	457,3
702,6	453,38
703	447,66
703,5	442,34
703,9	438,86
704,3	435,78
704,8	434,02
705,2	432,9
705,6	435,58
706,1	434,94
706,5	423,98
707	422,18
707,4	419,26
707,8	411,5
708,3	413,3
708,7	416,66
709,2	410,94
709,6	404,86
710	405,94
710,5	401,54
710,9	397,5
711,3	395,34
711,8	392,94
712,2	392,38
712,7	382,86
713,1	376,7
713,5	377,3
714	372,78
714,4	362,66
714,8	365,94
715,3	366,06
715,7	361,46
716,2	358,78
716,6	358,82
717	356,5
717,5	355,9
717,9	348,42
718,3	342,26
718,8	340,14
719,2	334,78
719,7	330,06
720,1	332,66
720,5	333,06
721	324,5
721,4	319,5
721,8	313,82
722,3	316,14
722,7	315,78
723,2	316,7
723,6	322,82
724	322,82
724,5	308,38
724,9	305,62
725,3	305,86
725,8	301,54
726,2	302,94
726,7	302,5
727,1	299,9
727,5	293,82
728	288,06
728,4	284,7
728,8	281,3
729,3	278,14
729,7	281,78
730,1	281,3
730,6	281,7
731	282,82
731,5	282,62
731,9	275,34
732,3	273,98
732,8	264,98
733,2	261,18
733,6	261,38
734,1	266,02
734,5	260,02
734,9	266,94
735,4	268,34
735,8	266,9
736,3	268,38
736,7	271,5
737,1	263,98
737,6	268,02
738	263,34
738,4	258,58
738,9	251,86
739,3	249,38
739,7	240,18
740,2	244,9
740,6	241,94
741,1	242,42
741,5	241,9
741,9	244,26
742,4	239,22
742,8	242,18
743,2	242,98
743,7	240,14
744,1	232,22
744,5	233,54
745	222,82
745,4	220,18
745,8	218,86
746,3	216,82
746,7	212,7
747,2	214,34
747,6	215,66
748	217,94
748,5	219,26
748,9	216,42
749,3	211,78
749,8	208,1
750,2	210,18
750,6	209,18
751,1	207,98
751,5	210,02
751,9	209,86
752,4	204,42
752,8	203,7
753,3	202,98
753,7	199,98
754,1	202,82
754,6	203,62
755	203,42
755,4	204,22
755,9	202,1
756,3	200,06
756,7	191,62
757,2	192,26
757,6	185,78
758	192,78
758,5	188,22
758,9	194,78
759,3	187,38
759,8	191,46
760,2	183,02
760,6	180,14
761,1	175,54
761,5	172,54
761,9	169,7
762,4	167,22
762,8	167,26
763,3	163,38
763,7	168,54
764,1	164,98
764,6	167,42
765	164,06
765,4	161,66
765,9	157,38
766,3	156,82
766,7	152,94
767,2	156,18
767,6	159,18
768	167,58
768,5	163,18
768,9	163,26
769,3	163,62
769,8	159,14
770,2	153,02
770,6	162,46
771,1	161,02
771,5	154,98
771,9	152,5
772,4	150,22
772,8	144,78
773,2	145,26
773,7	146,54
774,1	151,38
774,5	146,42
775	139,62
775,4	137,34
775,8	136,42
776,3	135,46
776,7	136,3
777,1	138,5
777,6	138,1
778	132,98
778,4	134,86
778,9	139,22
779,3	135,06
779,7	130,42
780,2	132,54
780,6	126,06
781	119,66
781,5	120,5
781,9	124,54
782,3	118,3
782,8	114,18
783,2	112,74
783,6	116,42
784,1	116,22
784,5	116,9
784,9	120,42
785,4	119,74
785,8	113,26
786,2	110,94
786,7	112,9
787,1	115,78
787,5	119,66
788	122,34
788,4	122,74
788,8	124,86
789,3	114,38
789,7	111,14
790,1	108,38
790,6	107,18
791	101,22
791,4	111,46
791,9	110,9
792,3	111,22
792,7	106,7
793,2	106,58
793,6	101,14
794	97,74
794,5	94,5
794,9	97,22
795,3	97,26
795,8	92,66
796,2	90,86
796,6	94,94
797,1	88,3
797,5	86,9
797,9	91,14
798,4	94,14
798,8	93,82
799,2	93,62
799,7	90,38
800,1	85,82
800,5	85,82
801	81,82
801,4	83,82
801,8	89,94
802,2	91,66
802,7	91,7
803,1	89,78
803,5	90,14
804	87,22
804,4	82,78
804,8	77,9
805,3	74,7
805,7	70,06
806,1	66,3
806,6	69,58
807	69,54
807,4	71,46
807,9	73,94
808,3	71,74
808,7	64,22
809,2	66,94
809,6	67,26
810	68,5
810,4	73,78
810,9	80,42
811,3	76,94
811,7	74,06
812,2	75,42
812,6	71,34
813	71,98
813,5	72,62
813,9	77,3
814,3	71,74
814,8	76,78
815,2	77,26
815,6	73,7
816,1	66,54
816,5	72,74
816,9	65,5
817,3	59,9
817,8	62,86
818,2	66,94
818,6	63,5
819,1	58,78
819,5	58,5
819,9	55,54
820,4	55,46
820,8	55,34
821,2	66,42
821,7	65,26
822,1	61,86
822,5	59,86
822,9	57,74
823,4	50,5
823,8	51,54
824,2	54,26
824,7	51,66
825,1	53,02
825,5	51,9
826	52,46
826,4	54,86
826,8	58,62
827,3	59,26
827,7	61,66
828,1	58,62
828,5	58,58
829	52,38
829,4	46,98
829,8	44,18
830,3	46,06
830,7	46,66
831,1	48,38
831,6	51,46
832	53,9
832,4	58,14
832,8	58,02
833,3	58,66
833,7	61,78
834,1	57,18
834,6	55,18
835	49,86
835,4	47,82
835,8	42,18
836,3	45,94
836,7	43,98
837,1	41,46
837,6	43,34
838	43,9
838,4	45,82
838,9	45,02
839,3	49,18
839,7	51,18
840,1	50,82
840,6	46,38
841	37,14
841,4	32,3
841,9	26,06
842,3	25,42
842,7	22,38
843,1	27,5
843,6	27,38
844	32,58
844,4	34,02
844,9	41,1
845,3	41,5
845,7	44,14
846,2	41,9
846,6	36,74
847	32,54
847,4	31,22
847,9	34,7
848,3	29,38
848,7	30,42
849,2	30,62
849,6	32,1
850	30,42
850,4	35,14
850,9	37,5
851,3	34,98
851,7	35,5
852,2	27,94
852,6	23,38
853	22,46
853,4	24,58
853,9	23,26
854,3	27,78
854,7	30,86
855,2	27,3
855,6	20,06
856	22,9
856,4	23,9
856,9	22,46
857,3	19,9
857,7	27,78
858,2	25,3
858,6	23,14
859	27,58
859,4	36,18
859,9	33,26
860,3	33,3
860,7	28,94
861,1	28,42
861,6	18,54
862	18,26
862,4	13,22
862,9	14,86
863,3	10,9
863,7	11,38
864,1	14,18
864,6	19,46
865	24,42
865,4	25,98
865,9	30,46
866,3	29,54
866,7	27,86
867,1	28,9
867,6	28,34
868	22,82
868,4	19,42
868,8	22,06
869,3	24,78
869,7	19,78
870,1	26,58
870,6	31,34
871	26,98
871,4	27,06
871,8	31,98
872,3	24,86
872,7	15,3
873,1	18,42
873,5	10,94
874	7,98
874,4	16,7
874,8	22,82
875,3	17,14
875,7	19,78
876,1	21,34
876,5	14,14
877	10,58
877,4	13,5
877,8	15,82
878,2	15,5
878,7	26,78
879,1	32,62
879,5	37,38
879,9	34,06
880,4	34,86
880,8	27,94
881,2	21,82
881,7	18,06
882,1	10,42
882,5	7,54
882,9	7,66
883,4	15,26
883,8	13,3
884,2	20,3
884,6	24,7
885,1	21,02
885,5	8,98
885,9	8,22
886,3	7,74
886,8	6,74
887,2	11,06
887,6	18,66
888	20,34
888,5	23,18
888,9	22,94
889,3	17,5
889,8	16,58
890,2	14,7
890,6	11,7
891	10,74
891,5	15,82
891,9	16,26
892,3	14,82
892,7	14,38
893,2	11,58
893,6	7,02
894	8,3
894,4	6,94
894,9	8,98
895,3	7,26
895,7	9,86
896,1	12,18
896,6	16,9
897	16,38
897,4	19,82
897,8	17,02
898,3	14,46
898,7	14,58
899,1	16,18
899,5	11,5
900	12,9
900,4	12,62
900,8	6,14
901,2	0,54
901,7	6,54
902,1	5,02
902,5	3,02
902,9	8,82
903,4	9,78
903,8	9,38
904,2	7,5
904,6	11,46
905,1	10,54
905,5	8,54
905,9	5,02
906,3	4,78
906,8	-1,46
907,2	2,1
907,6	3,7
908	8,26
908,5	10,02
908,9	12,7
909,3	2,82
909,7	2,5
910,2	0,9
910,6	3,7
911	-2,06
911,4	7,66
911,9	2,46
912,3	-0,82
912,7	-2,82
913,1	1,7
913,6	-5,5
914	-2,38
914,4	-1,66
914,8	-4,06
915,3	-1,42
915,7	2,14
916,1	6,98
916,5	4,78
916,9	6,74
917,4	6,94
917,8	6,82
918,2	8,22
918,6	11,7
919,1	13,42
919,5	8,1
919,9	9,74
920,3	7,14
920,8	9,42
921,2	7,34
921,6	11,7
922	7,22
922,5	4,54
922,9	5,62
923,3	3,94
923,7	0,38
924,2	-1,18
924,6	-0,5
925	-1,86
925,4	-0,02
925,8	0,5
926,3	1,46
926,7	4,9
927,1	2,34
927,5	1,3
928	-1,82
928,4	1,42
928,8	-4,94
929,2	-0,58
929,7	1,98
930,1	4,02
930,5	6,46
930,9	10,86
931,3	8,58
931,8	8,26
932,2	6,74
932,6	-0,14
933	0,1
933,5	-0,18
933,9	0,1
934,3	4,98
934,7	12,54
935,2	6,98
935,6	2,5
936	-3,78
936,4	-8,42
936,8	-14,5
937,3	-8,62
937,7	-7,26
938,1	-1,9
938,5	3,9
939	9,22
939,4	5,98
939,8	7,58
940,2	3,26
940,6	2,26
941,1	-2,42
941,5	1,46
941,9	-4,02
942,3	-4,94
942,8	-6,9
943,2	-2,3
943,6	-3,3
944	2,18
944,4	5,02
944,9	7,54
945,3	4,18
945,7	4,98
946,1	4,7
946,6	7,22
947	3,86
947,4	3,38
947,8	1,22
948,2	0,22
948,7	1,38
949,1	0,3
949,5	-1,86
949,9	0,18
950,3	4,62
950,8	1,02
951,2	-1,26
951,6	4,22
952	3,26
952,5	-2,66
952,9	-0,74
953,3	0,62
953,7	-1,26
954,1	-5,34
954,6	-0,42
955	-0,38
955,4	-1,42
955,8	-5,66
956,2	-1,14
956,7	-7,66
957,1	-7,14
957,5	1,42
957,9	4,54
958,3	0,34
958,8	3,34
959,2	5,66
959,6	-1,1
960	-0,54
960,5	1,3
960,9	-0,5
961,3	-1,06
961,7	3,18
962,1	4,66
962,6	8,86
963	13,42
963,4	7,78
963,8	4,86
964,2	3,1
964,7	4,22
965,1	0,26
965,5	1,06
965,9	-0,74
966,3	-3,62
966,8	-10,94
967,2	-13,46
967,6	-8,3
968	-4,9
968,4	-0,74
968,9	-0,58
969,3	2,66
969,7	-2,54
970,1	-4,42
970,5	-4,94
971	-0,54
971,4	-2,26
971,8	-3,7
972,2	0,74
972,6	-0,02
973,1	-2,82
973,5	1,38
973,9	1,86
974,3	-2,66
974,7	-3,26
975,2	2,18
975,6	0,26
976	-0,42
976,4	3,06
976,8	1,38
977,3	-3,62
977,7	-2,78
978,1	-3,94
978,5	-7,86
978,9	-9,18
979,4	-9,14
979,8	-8,78
980,2	-2,42
980,6	-1,82
981	-1,02
981,5	-4,86
981,9	-1,9
982,3	-0,34
982,7	-3,78
983,1	-1,14
983,6	3,98
984	-2,1
984,4	-5,3
984,8	-4,26
985,2	-3,94
985,6	-6,9
986,1	-4,22
986,5	-0,86
986,9	-1,74
987,3	-1,34
987,7	-1,74
988,2	-2,42
988,6	-8,02
989	-6,38
989,4	-4,14
989,8	-3,9
990,3	-7,06
990,7	-5,58
991,1	-2,74
991,5	-5,94
991,9	-4,5
992,3	-5,34
992,8	-10,62
993,2	-13,78
993,6	-12,82
994	-7,06
994,4	-0,1
994,9	3,46
995,3	2,5
995,7	0,86
996,1	-2,38
996,5	-5,78
996,9	-3,02
997,4	4,06
997,8	3,66
998,2	4,46
998,6	4,78
999	5,06
999,5	3,9
999,9	4,9
1000,3	-1,26
1000,7	0,98
1001,1	-1,38
1001,5	-0,86
1002	2,54
1002,4	2,42
1002,8	2,54
1003,2	3,7
1003,6	1,9
1004	-6,74
1004,5	-2,42
1004,9	-2,26
1005,3	-3,26
1005,7	-0,02
1006,1	8,1
1006,6	10,14
1007	10,74
1007,4	11,22
1007,8	11,06
1008,2	8,46
1008,6	5,54
1009,1	0,94
1009,5	0,66
1009,9	-3,62
1010,3	-5,58
1010,7	-4,78
1011,1	-2,7
1011,6	-3,34
1012	-5,54
1012,4	-6,34
1012,8	-2,94
1013,2	-2,38
1013,6	-4,38
1014,1	-4,7
1014,5	-3,98
1014,9	-14,74
1015,3	-19,86
1015,7	-15,7
1016,1	-16,02
1016,6	-18,98
1017	-14,66
1017,4	-9,54
1017,8	-9,06
1018,2	-10,66
1018,6	-5,54
1019,1	-7,94
1019,5	-14,18
1019,9	-21,46
1020,3	-18,74
1020,7	-24,3
1021,1	-18,22
1021,6	-12,46
1022	-4,3
1022,4	-3,78
1022,8	1,98
1023,2	2,66
1023,6	1,22
1024,1	-1,46
1024,5	4,86
1024,9	8,02
1025,3	9,54
1025,7	10,58
1026,1	11,5
1026,6	3,62
1027	-0,18
1027,4	-4,02
1027,8	-8,26
1028,2	-6,62
1028,6	-7,18
1029	-6,46
1029,5	-7,98
1029,9	-3,42
1030,3	-4,18
1030,7	-0,46
1031,1	0,7
1031,5	2,7
1032	6,62
1032,4	4,22
1032,8	6,1
1033,2	1,94
1033,6	1,66
1034	-1,46
1034,4	-3,22
1034,9	-3,26
1035,3	-3,02
1035,7	2,06
1036,1	0,7
1036,5	0,7
1036,9	-3,06
1037,4	-6,26
1037,8	-10,98
1038,2	-13,58
1038,6	-9,3
1039	-9,54
1039,4	-6,18
1039,8	-6,42
1040,3	-4,82
1040,7	-9,38
1041,1	-4,78
1041,5	-3,54
1041,9	-0,5
1042,3	0,58
1042,7	7,62
1043,2	1,18
1043,6	3,66
1044	6,42
1044,4	3,14
1044,8	-2,5
1045,2	3,34
1045,6	-0,06
1046,1	-5,46
1046,5	-3,46
1046,9	-0,18
1047,3	-2,9
1047,7	-1,78
1048,1	-4,74
1048,5	-8,22
1049	-15,14
1049,4	-13,02
1049,8	-14,38
1050,2	-11,7
1050,6	-1,66
1051	-1,58
1051,4	-2,5
1051,9	1,62
1052,3	-1,1
1052,7	-8,5
1053,1	-5,86
1053,5	-8,74
1053,9	-11,06
1054,3	-11,78
1054,8	-12,34
1055,2	-9,42
1055,6	-9,34
1056	-13,3
1056,4	-9,5
1056,8	-8,94
1057,2	-13,7
1057,6	-12,34
1058,1	-7,1
1058,5	-9,82
1058,9	-6,78
1059,3	-3,14
1059,7	-4,78
1060,1	-2,14
1060,5	4,9
1061	4,14
1061,4	4,26
1061,8	5,94
1062,2	-2,1
1062,6	-6,06
1063	-3,54
1063,4	0,9
1063,8	-0,06
1064,3	6,26
1064,7	-0,22
1065,1	-2,86
1065,5	-5,06
1065,9	-2,14
1066,3	-3,18
1066,7	5,82
1067,1	8,1
1067,6	5,18
1068	2,7
1068,4	-2,1
1068,8	-6,62
1069,2	-9,26
1069,6	-11,02
1070	-7,5
1070,4	2,98
1070,9	9,62
1071,3	5,02
1071,7	7,06
1072,1	2,22
1072,5	-3,34
1072,9	-12,78
1073,3	-10,66
1073,7	-5,9
1074,2	-2,06
1074,6	-2,94
1075	-8,66
1075,4	-6,74
1075,8	-3,58
1076,2	-2,62
1076,6	1,86
1077	5,66
1077,5	5,74
1077,9	-4,58
1078,3	-10,3
1078,7	-17,1
1079,1	-10,06
1079,5	-1,62
1079,9	0,54
1080,3	6,5
1080,7	13,1
1081,2	9,22
1081,6	1,1
1082	6,22
1082,4	1,38
1082,8	-6,1
1083,2	-8,26
1083,6	-8,1
1084	-12,74
1084,5	-14,06
1084,9	-8,82
1085,3	-5,26
1085,7	-2,82
1086,1	-3,22
1086,5	0,14
1086,9	-2,62
1087,3	-3,14
1087,7	-5,18
1088,2	-2,26
1088,6	-0,78
1089	-4,86
1089,4	-1,42
1089,8	3,9
1090,2	4,54
1090,6	-0,98
1091	1,94
1091,4	-2,06
1091,9	-8,62
1092,3	-9,94
1092,7	-9,78
1093,1	-6,66
1093,5	-5,9
1093,9	0,3
1094,3	-1,98
1094,7	2,82
1095,1	-1,1
1095,5	6,1
1096	3,22
1096,4	5,58
1096,8	8,1
1097,2	11,82
1097,6	1,66
1098	0,1
1098,4	-4,82
1098,8	-9,7
1099,2	-9,78
1099,6	-3,3
1100,1	-3,5
1100,5	-0,98
1100,9	2,14
1101,3	0,78
1101,7	-2,22
1102,1	-2,1
1102,5	-1,9
1102,9	-2,46
1103,3	-4,82
1103,7	-3,06
1104,2	-2,78
1104,6	-2,14
1105	-2,94
1105,4	-2,34
1105,8	-2,74
1106,2	-2,78
1106,6	-1,1
1107	-1,78
1107,4	0,3
1107,8	0,35
1108,3	0,1
