Data from Subt2_00073.txt Node
Date: Fri Aug 11 16:30:47 MSK 2023
User: vat
Spectrometer: MAYP114033
Trigger mode: 0
Integration Time (sec): 5,000000E-1
Scans to average: 5
Electric dark correction enabled: true
Nonlinearity correction enabled: false
Boxcar width: 2
XAxis mode: Wavelengths
Number of Pixels in Spectrum: 2068
>>>>>Begin Spectral Data<<<<<
199,4	0,333
199,9	0,133
200,4	-7,107
200,8	-11,307
201,3	-19,187
201,8	-22,627
202,2	-27,627
202,7	-28,347
203,2	-31,267
203,6	-30,387
204,1	-34,867
204,6	-36,067
205	-35,627
205,5	-34,387
206	-29,867
206,4	-28,107
206,9	-28,707
207,4	-26,467
207,8	-25,507
208,3	-27,227
208,8	-27,027
209,2	-30,587
209,7	-35,827
210,2	-36,347
210,6	-43,427
211,1	-45,587
211,5	-39,987
212	-38,507
212,5	-38,027
212,9	-37,347
213,4	-39,467
213,9	-42,067
214,3	-40,907
214,8	-45,507
215,3	-44,827
215,7	-41,267
216,2	-40,467
216,7	-44,547
217,1	-39,627
217,6	-38,747
218,1	-44,107
218,5	-48,467
219	-42,347
219,5	-44,707
219,9	-45,547
220,4	-43,667
220,9	-44,227
221,3	-48,467
221,8	-54,987
222,3	-55,947
222,7	-54,627
223,2	-55,907
223,6	-57,867
224,1	-53,067
224,6	-51,507
225	-56,667
225,5	-48,267
226	-42,027
226,4	-39,107
226,9	-38,187
227,4	-32,067
227,8	-41,707
228,3	-48,907
228,8	-55,827
229,2	-56,867
229,7	-67,107
230,2	-57,027
230,6	-56,267
231,1	-55,107
231,5	-52,347
232	-44,587
232,5	-51,027
232,9	-50,107
233,4	-48,827
233,9	-52,947
234,3	-52,867
234,8	-48,907
235,3	-49,947
235,7	-50,667
236,2	-49,067
236,7	-50,107
237,1	-54,347
237,6	-55,827
238,1	-52,267
238,5	-55,307
239	-53,747
239,4	-55,867
239,9	-44,787
240,4	-42,147
240,8	-38,507
241,3	-34,587
241,8	-29,027
242,2	-37,867
242,7	-37,147
243,2	-36,347
243,6	-40,427
244,1	-43,867
244,6	-43,827
245	-51,267
245,5	-49,707
245,9	-47,787
246,4	-45,787
246,9	-45,387
247,3	-45,907
247,8	-52,387
248,3	-55,827
248,7	-56,667
249,2	-57,467
249,7	-56,747
250,1	-53,507
250,6	-53,907
251	-51,987
251,5	-49,907
252	-54,187
252,4	-55,387
252,9	-50,227
253,4	-54,427
253,8	-56,347
254,3	-49,827
254,8	-50,507
255,2	-49,347
255,7	-45,747
256,1	-46,107
256,6	-45,387
257,1	-48,147
257,5	-49,427
258	-53,067
258,5	-49,307
258,9	-47,707
259,4	-44,707
259,9	-49,387
260,3	-49,387
260,8	-44,147
261,2	-43,707
261,7	-38,507
262,2	-42,587
262,6	-40,467
263,1	-49,867
263,6	-53,667
264	-58,107
264,5	-57,427
264,9	-56,427
265,4	-54,587
265,9	-52,187
266,3	-50,187
266,8	-41,627
267,3	-44,867
267,7	-48,107
268,2	-44,667
268,7	-44,947
269,1	-47,987
269,6	-48,187
270	-47,627
270,5	-55,427
271	-56,867
271,4	-62,187
271,9	-57,347
272,4	-53,227
272,8	-50,067
273,3	-49,347
273,7	-43,947
274,2	-39,147
274,7	-40,587
275,1	-42,187
275,6	-38,347
276,1	-41,307
276,5	-46,827
277	-44,507
277,4	-44,467
277,9	-51,387
278,4	-45,307
278,8	-43,627
279,3	-46,627
279,8	-46,907
280,2	-48,987
280,7	-52,027
281,1	-52,667
281,6	-51,547
282,1	-43,387
282,5	-43,827
283	-42,707
283,4	-49,187
283,9	-45,867
284,4	-53,547
284,8	-47,107
285,3	-45,227
285,8	-43,667
286,2	-42,267
286,7	-42,027
287,1	-47,067
287,6	-49,387
288,1	-42,427
288,5	-45,107
289	-43,787
289,5	-38,667
289,9	-36,907
290,4	-41,547
290,8	-43,827
291,3	-45,027
291,8	-43,267
292,2	-42,427
292,7	-41,667
293,1	-39,067
293,6	-37,987
294,1	-44,987
294,5	-53,067
295	-50,147
295,5	-47,707
295,9	-49,107
296,4	-45,347
296,8	-36,507
297,3	-40,507
297,8	-45,627
298,2	-49,547
298,7	-49,827
299,1	-51,227
299,6	-46,227
300,1	-48,627
300,5	-44,667
301	-40,707
301,5	-45,467
301,9	-53,747
302,4	-50,267
302,8	-49,747
303,3	-53,987
303,8	-57,307
304,2	-55,987
304,7	-56,627
305,1	-55,347
305,6	-52,667
306,1	-45,067
306,5	-44,187
307	-41,427
307,4	-40,667
307,9	-40,347
308,4	-38,107
308,8	-32,747
309,3	-30,827
309,8	-34,107
310,2	-31,867
310,7	-40,547
311,1	-47,307
311,6	-52,747
312,1	-49,547
312,5	-56,867
313	-53,267
313,4	-51,387
313,9	-47,987
314,4	-49,587
314,8	-47,067
315,3	-46,307
315,7	-46,747
316,2	-52,147
316,7	-51,507
317,1	-51,907
317,6	-52,467
318	-48,067
318,5	-43,507
319	-47,187
319,4	-47,787
319,9	-44,867
320,3	-45,147
320,8	-43,067
321,3	-41,387
321,7	-35,027
322,2	-37,147
322,6	-37,747
323,1	-44,427
323,6	-43,307
324	-44,867
324,5	-50,387
324,9	-53,787
325,4	-47,347
325,9	-45,667
326,3	-41,587
326,8	-37,707
327,2	-39,187
327,7	-46,467
328,2	-45,627
328,6	-52,987
329,1	-52,187
329,5	-44,627
330	-36,387
330,5	-44,347
330,9	-43,667
331,4	-42,667
331,8	-48,347
332,3	-50,147
332,8	-47,667
333,2	-56,667
333,7	-56,507
334,1	-58,067
334,6	-60,027
335,1	-56,867
335,5	-46,027
336	-42,387
336,4	-35,507
336,9	-36,587
337,4	-38,227
337,8	-35,827
338,3	-39,187
338,7	-43,547
339,2	-37,267
339,7	-30,547
340,1	-35,027
340,6	-34,507
341	-28,667
341,5	-30,027
342	-28,347
342,4	-31,987
342,9	-33,227
343,3	-38,267
343,8	-42,627
344,2	-41,067
344,7	-32,507
345,2	-28,307
345,6	-26,987
346,1	-20,107
346,5	-20,267
347	-19,787
347,5	-19,587
347,9	-13,107
348,4	-8,067
348,8	-4,427
349,3	-3,747
349,8	5,813
350,2	16,813
350,7	25,533
351,1	33,173
351,6	58,173
352	77,333
352,5	105,773
353	139,653
353,4	188,653
353,9	246,093
354,3	311,813
354,8	384,773
355,3	489,013
355,7	600,293
356,2	720,453
356,6	869,613
357,1	1041,733
357,5	1227,733
358	1451,613
358,5	1714,333
358,9	2004,373
359,4	2332,973
359,8	2702,653
360,3	3118,253
360,8	3577,733
361,2	4102,253
361,7	4686,293
362,1	5323,533
362,6	6016,493
363	6758,733
363,5	7548,653
364	8365,853
364,4	9207,093
364,9	10056,813
365,3	10901,973
365,8	11723,133
366,3	12494,653
366,7	13194,173
367,2	13779,453
367,6	14264,693
368,1	14634,533
368,5	14871,813
369	14978,133
369,5	14976,893
369,9	14847,573
370,4	14582,933
370,8	14225,733
371,3	13785,253
371,7	13274,733
372,2	12685,373
372,7	12048,933
373,1	11383,453
373,6	10695,693
374	9999,933
374,5	9320,093
374,9	8656,413
375,4	8002,853
375,9	7377,253
376,3	6786,013
376,8	6235,253
377,2	5705,413
377,7	5224,613
378,2	4768,453
378,6	4337,893
379,1	3934,893
379,5	3585,373
380	3259,373
380,4	2976,613
380,9	2722,093
381,4	2498,133
381,8	2295,533
382,3	2112,333
382,7	1936,973
383,2	1784,693
383,6	1644,533
384,1	1515,653
384,6	1395,533
385	1293,013
385,5	1198,733
385,9	1105,253
386,4	1018,613
386,8	938,853
387,3	870,213
387,7	795,893
388,2	733,573
388,7	678,013
389,1	619,973
389,6	561,253
390	514,133
390,5	470,933
390,9	424,053
391,4	389,133
391,9	360,173
392,3	330,973
392,8	304,813
393,2	278,773
393,7	257,533
394,1	233,293
394,6	218,733
395,1	200,773
395,5	186,133
396	172,453
396,4	156,293
396,9	141,493
397,3	125,293
397,8	116,653
398,2	107,933
398,7	99,933
399,2	87,653
399,6	84,653
400,1	75,253
400,5	62,373
401	56,973
401,4	49,813
401,9	41,333
402,4	30,573
402,8	31,733
403,3	27,813
403,7	22,293
404,2	21,013
404,6	19,333
405,1	15,413
405,5	14,173
406	14,853
406,5	5,813
406,9	3,613
407,4	-2,387
407,8	-2,867
408,3	-3,987
408,7	-3,347
409,2	-0,027
409,6	6,213
410,1	7,493
410,6	5,413
411	4,013
411,5	2,853
411,9	5,613
412,4	3,493
412,8	1,613
413,3	0,853
413,7	9,613
414,2	0,773
414,7	1,413
415,1	0,813
415,6	1,453
416	-3,747
416,5	-3,947
416,9	-1,107
417,4	4,693
417,8	8,493
418,3	8,493
418,8	13,413
419,2	20,093
419,7	23,413
420,1	30,813
420,6	27,973
421	30,293
421,5	21,213
421,9	19,733
422,4	19,773
422,8	24,613
423,3	24,053
423,8	29,773
424,2	33,493
424,7	33,733
425,1	38,293
425,6	40,013
426	42,813
426,5	46,093
426,9	48,533
427,4	52,653
427,9	61,653
428,3	59,213
428,8	59,693
429,2	64,853
429,7	68,533
430,1	71,333
430,6	76,173
431	79,093
431,5	87,533
431,9	86,733
432,4	97,493
432,8	111,493
433,3	125,893
433,8	132,453
434,2	141,413
434,7	139,973
435,1	148,533
435,6	153,133
436	164,293
436,5	178,893
436,9	191,133
437,4	203,973
437,8	220,813
438,3	232,373
438,8	245,933
439,2	267,773
439,7	282,013
440,1	289,933
440,6	300,293
441	317,453
441,5	330,933
441,9	342,733
442,4	358,453
442,8	379,853
443,3	389,253
443,7	404,133
444,2	423,773
444,7	447,613
445,1	468,093
445,6	486,453
446	505,733
446,5	536,133
446,9	561,173
447,4	586,693
447,8	620,253
448,3	647,453
448,7	666,293
449,2	691,493
449,6	713,733
450,1	739,613
450,6	773,213
451	792,373
451,5	819,533
451,9	843,333
452,4	876,693
452,8	904,133
453,3	942,093
453,7	979,653
454,2	1025,293
454,6	1062,493
455,1	1090,133
455,5	1134,093
456	1167,813
456,4	1197,413
456,9	1231,493
457,3	1284,693
457,8	1317,773
458,3	1358,333
458,7	1394,893
459,2	1435,053
459,6	1471,813
460,1	1513,253
460,5	1555,173
461	1602,373
461,4	1652,013
461,9	1688,733
462,3	1735,773
462,8	1775,733
463,2	1826,413
463,7	1858,693
464,1	1910,773
464,6	1952,413
465	2001,493
465,5	2041,373
466	2085,213
466,4	2127,933
466,9	2170,813
467,3	2208,853
467,8	2254,293
468,2	2305,013
468,7	2339,973
469,1	2379,893
469,6	2417,733
470	2449,973
470,5	2493,253
470,9	2538,093
471,4	2571,213
471,8	2617,253
472,3	2662,533
472,7	2693,893
473,2	2732,093
473,6	2770,013
474,1	2803,933
474,5	2835,693
475	2865,013
475,4	2894,813
475,9	2929,573
476,4	2959,333
476,8	2982,773
477,3	3014,533
477,7	3036,653
478,2	3062,853
478,6	3082,333
479,1	3116,013
479,5	3133,813
480	3171,373
480,4	3190,493
480,9	3209,053
481,3	3219,053
481,8	3246,093
482,2	3250,533
482,7	3263,293
483,1	3272,973
483,6	3280,613
484	3288,413
484,5	3296,613
484,9	3311,813
485,4	3330,453
485,8	3349,013
486,3	3350,453
486,7	3359,253
487,2	3360,493
487,6	3355,893
488,1	3357,653
488,5	3350,853
489	3348,013
489,4	3346,773
489,9	3345,653
490,4	3337,173
490,8	3339,933
491,3	3328,133
491,7	3313,373
492,2	3310,533
492,6	3291,893
493,1	3285,173
493,5	3276,573
494	3262,133
494,4	3243,893
494,9	3228,933
495,3	3208,893
495,8	3188,813
496,2	3187,413
496,7	3176,293
497,1	3163,293
497,6	3149,773
498	3135,493
498,5	3110,173
498,9	3086,173
499,4	3077,093
499,8	3059,853
500,3	3041,253
500,7	3022,973
501,2	3005,853
501,6	2984,173
502,1	2963,053
502,5	2937,533
503	2910,293
503,4	2891,013
503,9	2866,573
504,3	2840,533
504,8	2824,373
505,2	2808,613
505,7	2785,093
506,1	2768,493
506,6	2747,773
507	2724,893
507,5	2697,693
507,9	2671,093
508,4	2640,613
508,8	2620,613
509,3	2595,413
509,7	2572,013
510,2	2553,733
510,6	2527,293
511,1	2500,573
511,5	2479,653
512	2454,613
512,4	2429,653
512,9	2411,413
513,3	2386,093
513,8	2363,493
514,2	2346,013
514,7	2320,413
515,1	2299,373
515,6	2282,493
516	2256,333
516,5	2231,693
516,9	2210,293
517,4	2189,013
517,8	2156,573
518,3	2138,533
518,7	2107,093
519,2	2086,053
519,6	2050,933
520,1	2036,493
520,5	2017,133
521	2003,253
521,4	1970,813
521,9	1956,133
522,3	1931,453
522,8	1902,133
523,2	1882,853
523,7	1869,453
524,1	1844,693
524,6	1820,173
525	1804,933
525,5	1780,173
525,9	1767,133
526,4	1756,533
526,8	1737,413
527,3	1711,613
527,7	1697,333
528,2	1676,133
528,6	1650,893
529,1	1639,173
529,5	1630,333
530	1608,893
530,4	1593,053
530,9	1575,933
531,3	1560,213
531,8	1542,973
532,2	1534,813
532,6	1515,733
533,1	1499,613
533,5	1477,773
534	1451,333
534,4	1429,413
534,9	1410,053
535,3	1395,533
535,8	1381,493
536,2	1376,573
536,7	1358,133
537,1	1351,573
537,6	1343,053
538	1334,893
538,5	1319,573
538,9	1319,253
539,4	1294,973
539,8	1277,053
540,3	1262,693
540,7	1245,973
541,2	1226,213
541,6	1223,413
542,1	1210,333
542,5	1195,213
543	1181,653
543,4	1166,573
543,9	1146,893
544,3	1139,493
544,8	1131,333
545,2	1120,453
545,7	1110,053
546,1	1102,253
546,5	1088,573
547	1079,013
547,4	1064,613
547,9	1060,293
548,3	1055,493
548,8	1046,493
549,2	1034,213
549,7	1035,013
550,1	1027,013
550,6	1012,053
551	1000,853
551,5	989,853
551,9	975,013
552,4	963,773
552,8	954,813
553,3	952,013
553,7	946,533
554,2	942,453
554,6	925,893
555,1	917,013
555,5	913,013
555,9	902,173
556,4	884,533
556,8	887,733
557,3	877,933
557,7	866,093
558,2	855,173
558,6	853,733
559,1	836,133
559,5	834,173
560	824,493
560,4	820,093
560,9	816,093
561,3	815,173
561,8	805,933
562,2	797,613
562,7	792,253
563,1	788,773
563,6	781,613
564	780,733
564,4	773,013
564,9	764,933
565,3	752,973
565,8	746,013
566,2	739,373
566,7	738,013
567,1	733,293
567,6	721,973
568	714,773
568,5	707,893
568,9	697,093
569,4	692,653
569,8	695,133
570,3	690,533
570,7	685,013
571,1	681,453
571,6	674,293
572	665,613
572,5	663,053
572,9	650,893
573,4	649,933
573,8	645,173
574,3	651,053
574,7	640,773
575,2	634,413
575,6	622,373
576,1	616,213
576,5	600,493
576,9	597,973
577,4	593,693
577,8	588,893
578,3	581,533
578,7	578,133
579,2	570,733
579,6	567,733
580,1	564,653
580,5	567,173
581	561,973
581,4	560,533
581,9	557,493
582,3	557,293
582,7	544,173
583,2	537,533
583,6	534,893
584,1	530,053
584,5	525,173
585	525,213
585,4	526,613
585,9	519,853
586,3	512,973
586,8	508,213
587,2	507,413
587,6	499,333
588,1	492,853
588,5	490,333
589	481,733
589,4	473,613
589,9	478,373
590,3	482,773
590,8	477,533
591,2	477,773
591,7	481,613
592,1	469,813
592,5	462,253
593	460,293
593,4	454,213
593,9	439,533
594,3	434,373
594,8	429,733
595,2	429,973
595,7	428,413
596,1	434,053
596,6	436,053
597	432,693
597,4	426,693
597,9	424,093
598,3	421,413
598,8	417,333
599,2	414,053
599,7	412,453
600,1	411,293
600,6	405,133
601	398,133
601,4	397,493
601,9	391,093
602,3	384,293
602,8	380,373
603,2	380,733
603,7	381,253
604,1	387,333
604,6	388,453
605	394,893
605,4	395,653
605,9	389,413
606,3	387,573
606,8	381,493
607,2	370,293
607,7	369,253
608,1	367,413
608,6	360,613
609	360,653
609,4	360,253
609,9	353,493
610,3	353,893
610,8	351,493
611,2	341,653
611,7	337,813
612,1	335,133
612,6	323,533
613	325,413
613,4	332,373
613,9	333,493
614,3	328,773
614,8	333,053
615,2	330,293
615,7	321,653
616,1	313,733
616,6	311,933
617	300,133
617,4	297,373
617,9	307,293
618,3	306,653
618,8	300,893
619,2	313,173
619,7	307,573
620,1	290,973
620,5	287,053
621	293,453
621,4	281,293
621,9	278,893
622,3	277,493
622,8	282,253
623,2	281,013
623,6	286,093
624,1	285,653
624,5	285,773
625	272,693
625,4	263,333
625,9	253,933
626,3	251,933
626,8	251,133
627,2	253,373
627,6	254,773
628,1	255,333
628,5	250,653
629	257,653
629,4	257,893
629,9	254,813
630,3	253,213
630,7	252,573
631,2	243,693
631,6	239,573
632,1	240,213
632,5	236,613
633	232,133
633,4	227,053
633,8	223,813
634,3	218,293
634,7	218,453
635,2	215,493
635,6	213,573
636,1	223,173
636,5	229,413
636,9	228,373
637,4	235,173
637,8	236,813
638,3	223,253
638,7	212,893
639,2	210,333
639,6	201,173
640	191,213
640,5	193,213
640,9	195,133
641,4	192,213
641,8	191,053
642,2	195,333
642,7	190,213
643,1	184,053
643,6	177,293
644	176,773
644,5	175,613
644,9	183,253
645,3	187,093
645,8	186,773
646,2	183,253
646,7	182,093
647,1	181,733
647,6	174,133
648	180,253
648,4	186,533
648,9	187,173
649,3	174,213
649,8	178,093
650,2	176,653
650,6	164,533
651,1	160,613
651,5	163,493
652	163,533
652,4	158,093
652,9	158,133
653,3	162,293
653,7	159,133
654,2	160,493
654,6	162,333
655,1	162,413
655,5	156,293
655,9	160,333
656,4	154,293
656,8	150,573
657,3	150,613
657,7	152,293
658,2	145,733
658,6	140,573
659	140,493
659,5	141,373
659,9	139,333
660,4	139,613
660,8	144,133
661,2	139,573
661,7	134,453
662,1	130,773
662,6	131,213
663	123,053
663,4	126,813
663,9	123,933
664,3	121,213
664,8	119,253
665,2	123,093
665,6	125,973
666,1	131,133
666,5	128,773
667	129,093
667,4	125,373
667,9	120,893
668,3	115,493
668,7	117,933
669,2	115,453
669,6	114,653
670,1	110,013
670,5	115,053
670,9	112,333
671,4	109,053
671,8	110,853
672,3	110,933
672,7	109,693
673,1	107,773
673,6	103,613
674	104,373
674,5	104,333
674,9	97,773
675,3	98,573
675,8	99,933
676,2	92,693
676,7	94,173
677,1	94,933
677,5	97,853
678	98,093
678,4	106,013
678,9	103,013
679,3	98,533
679,7	93,013
680,2	94,653
680,6	80,693
681,1	74,253
681,5	79,693
681,9	78,373
682,4	77,213
682,8	84,613
683,3	89,413
683,7	83,893
684,1	85,253
684,6	86,853
685	88,133
685,5	85,413
685,9	86,933
686,3	81,773
686,8	74,293
687,2	66,133
687,7	63,093
688,1	67,933
688,5	68,973
689	70,493
689,4	71,613
689,9	75,733
690,3	67,613
690,7	71,613
691,2	72,413
691,6	69,293
692	69,533
692,5	71,573
692,9	65,893
693,4	62,653
693,8	72,373
694,2	71,413
694,7	67,493
695,1	65,613
695,6	64,933
696	58,693
696,4	53,453
696,9	61,373
697,3	66,653
697,8	63,213
698,2	65,653
698,6	67,933
699,1	61,813
699,5	61,133
699,9	60,653
700,4	58,493
700,8	55,893
701,3	51,573
701,7	47,453
702,1	50,333
702,6	46,853
703	49,093
703,5	54,813
703,9	55,533
704,3	54,853
704,8	59,773
705,2	56,853
705,6	57,733
706,1	50,133
706,5	45,813
707	42,773
707,4	42,733
707,8	30,293
708,3	39,733
708,7	41,893
709,2	32,253
709,6	29,373
710	35,453
710,5	35,693
710,9	29,893
711,3	31,573
711,8	33,613
712,2	36,653
712,7	29,973
713,1	37,013
713,5	47,373
714	45,333
714,4	40,653
714,8	40,373
715,3	39,373
715,7	35,213
716,2	31,733
716,6	29,973
717	31,613
717,5	30,813
717,9	26,893
718,3	27,893
718,8	33,213
719,2	31,173
719,7	30,373
720,1	31,133
720,5	35,053
721	25,013
721,4	23,413
721,8	23,933
722,3	23,053
722,7	20,333
723,2	27,773
723,6	28,573
724	22,493
724,5	24,253
724,9	26,773
725,3	18,973
725,8	20,853
726,2	24,653
726,7	19,773
727,1	17,973
727,5	20,373
728	16,493
728,4	18,453
728,8	20,053
729,3	19,373
729,7	20,333
730,1	20,653
730,6	19,453
731	18,573
731,5	18,813
731,9	20,733
732,3	23,813
732,8	20,493
733,2	18,213
733,6	19,733
734,1	14,133
734,5	13,613
734,9	14,173
735,4	16,773
735,8	11,613
736,3	13,093
736,7	9,373
737,1	12,453
737,6	14,613
738	14,893
738,4	17,893
738,9	16,893
739,3	16,173
739,7	9,173
740,2	8,893
740,6	6,453
741,1	10,493
741,5	11,773
741,9	19,133
742,4	14,493
742,8	12,173
743,2	13,813
743,7	9,693
744,1	9,333
744,5	13,333
745	16,693
745,4	16,013
745,8	19,653
746,3	17,333
746,7	13,453
747,2	11,013
747,6	4,133
748	-0,987
748,5	0,173
748,9	1,373
749,3	-1,147
749,8	-2,227
750,2	-2,187
750,6	-3,667
751,1	-4,387
751,5	-1,987
751,9	1,573
752,4	5,973
752,8	4,693
753,3	9,533
753,7	11,253
754,1	10,693
754,6	7,453
755	6,093
755,4	9,413
755,9	11,613
756,3	7,293
756,7	9,773
757,2	5,653
757,6	-2,587
758	-1,227
758,5	2,493
758,9	-1,547
759,3	-0,627
759,8	3,933
760,2	-0,227
760,6	-0,027
761,1	0,053
761,5	1,973
761,9	2,093
762,4	-6,627
762,8	-2,467
763,3	-3,747
763,7	-0,427
764,1	-4,987
764,6	0,773
765	0,013
765,4	-0,027
765,9	-6,627
766,3	-4,627
766,7	-7,547
767,2	-8,867
767,6	-10,107
768	-4,507
768,5	-7,067
768,9	-4,107
769,3	-9,227
769,8	-8,467
770,2	-13,747
770,6	-13,227
771,1	-8,187
771,5	-5,307
771,9	-1,227
772,4	-1,787
772,8	-0,347
773,2	-5,987
773,7	-8,587
774,1	-10,787
774,5	-10,307
775	-13,827
775,4	-14,267
775,8	-13,867
776,3	-13,587
776,7	-13,907
777,1	-10,907
777,6	-8,467
778	-9,387
778,4	-8,587
778,9	-8,667
779,3	-13,307
779,7	-15,267
780,2	-12,667
780,6	-18,427
781	-13,067
781,5	-6,427
781,9	-13,547
782,3	-14,227
782,8	-10,987
783,2	-11,267
783,6	-12,867
784,1	-6,107
784,5	-12,427
784,9	-13,107
785,4	-12,707
785,8	-11,867
786,2	-21,147
786,7	-15,467
787,1	-18,867
787,5	-26,467
788	-24,387
788,4	-20,147
788,8	-24,387
789,3	-18,147
789,7	-13,347
790,1	-18,227
790,6	-11,347
791	-13,667
791,4	-13,907
791,9	-17,347
792,3	-17,347
792,7	-19,107
793,2	-14,387
793,6	-22,667
794	-19,067
794,5	-18,107
794,9	-14,307
795,3	-20,467
795,8	-14,467
796,2	-15,347
796,6	-19,907
797,1	-24,627
797,5	-22,627
797,9	-25,027
798,4	-26,107
798,8	-25,827
799,2	-23,707
799,7	-21,747
800,1	-19,867
800,5	-17,467
801	-20,587
801,4	-24,387
801,8	-20,147
802,2	-18,747
802,7	-18,987
803,1	-19,827
803,5	-20,307
804	-21,307
804,4	-23,867
804,8	-26,347
805,3	-21,507
805,7	-17,267
806,1	-16,987
806,6	-17,587
807	-19,987
807,4	-20,787
807,9	-22,747
808,3	-25,467
808,7	-26,987
809,2	-25,467
809,6	-24,427
810	-27,227
810,4	-27,387
810,9	-28,147
811,3	-28,427
811,7	-25,027
812,2	-21,627
812,6	-26,867
813	-22,667
813,5	-18,827
813,9	-21,147
814,3	-19,267
814,8	-12,387
815,2	-15,267
815,6	-24,587
816,1	-27,187
816,5	-32,507
816,9	-29,147
817,3	-28,547
817,8	-23,547
818,2	-25,107
818,6	-23,067
819,1	-29,467
819,5	-30,307
819,9	-30,787
820,4	-30,147
820,8	-31,627
821,2	-33,227
821,7	-29,267
822,1	-25,027
822,5	-23,907
822,9	-26,667
823,4	-21,947
823,8	-25,187
824,2	-28,707
824,7	-30,227
825,1	-29,987
825,5	-34,627
826	-36,107
826,4	-37,427
826,8	-31,107
827,3	-31,227
827,7	-32,387
828,1	-28,787
828,5	-31,267
829	-34,947
829,4	-34,827
829,8	-33,227
830,3	-32,827
830,7	-26,267
831,1	-32,587
831,6	-32,507
832	-29,187
832,4	-33,547
832,8	-39,027
833,3	-31,387
833,7	-25,907
834,1	-26,827
834,6	-29,467
835	-26,787
835,4	-26,867
835,8	-26,907
836,3	-28,707
836,7	-25,387
837,1	-29,467
837,6	-31,827
838	-37,907
838,4	-39,667
838,9	-41,867
839,3	-42,427
839,7	-44,267
840,1	-39,467
840,6	-38,267
841	-36,467
841,4	-35,827
841,9	-32,947
842,3	-38,827
842,7	-39,107
843,1	-35,627
843,6	-38,187
844	-41,507
844,4	-38,427
844,9	-41,787
845,3	-43,747
845,7	-41,267
846,2	-40,027
846,6	-36,747
847	-35,147
847,4	-39,907
847,9	-36,867
848,3	-38,947
848,7	-44,747
849,2	-42,987
849,6	-43,907
850	-43,187
850,4	-41,427
850,9	-39,987
851,3	-41,347
851,7	-42,467
852,2	-46,027
852,6	-48,467
853	-43,547
853,4	-43,467
853,9	-39,707
854,3	-35,587
854,7	-32,187
855,2	-35,507
855,6	-31,667
856	-33,387
856,4	-37,907
856,9	-39,867
857,3	-41,347
857,7	-44,987
858,2	-40,347
858,6	-40,267
859	-42,307
859,4	-34,387
859,9	-35,267
860,3	-35,587
860,7	-32,667
861,1	-27,947
861,6	-33,107
862	-38,507
862,4	-41,467
862,9	-43,947
863,3	-45,067
863,7	-47,787
864,1	-38,547
864,6	-34,347
865	-33,747
865,4	-33,427
865,9	-32,507
866,3	-34,867
866,7	-39,147
867,1	-36,907
867,6	-44,187
868	-43,427
868,4	-40,387
868,8	-35,947
869,3	-33,867
869,7	-32,867
870,1	-30,867
870,6	-35,987
871	-33,627
871,4	10,973
871,8	10,573
872,3	8,013
872,7	7,053
873,1	7,693
873,5	-41,507
874	-36,547
874,4	-35,427
874,8	-33,667
875,3	-38,547
875,7	-35,747
876,1	-34,427
876,5	-40,467
877	-37,387
877,4	-40,347
877,8	-42,667
878,2	-44,267
878,7	-42,107
879,1	-41,267
879,5	-37,787
879,9	-40,747
880,4	-35,107
880,8	-33,867
881,2	-38,747
881,7	-44,067
882,1	-41,627
882,5	-46,587
882,9	-44,667
883,4	-41,627
883,8	-35,987
884,2	-41,187
884,6	-42,227
885,1	-44,547
885,5	-42,307
885,9	-44,227
886,3	-40,187
886,8	-36,867
887,2	-37,107
887,6	-41,267
888	-50,907
888,5	-51,907
888,9	-52,347
889,3	-48,587
889,8	-49,827
890,2	-39,747
890,6	-33,107
891	-36,307
891,5	-41,387
891,9	-40,027
892,3	-40,747
892,7	-48,227
893,2	-44,027
893,6	-41,987
894	-43,267
894,4	-44,067
894,9	-40,227
895,3	-43,467
895,7	-43,787
896,1	-41,067
896,6	-41,587
897	-42,347
897,4	-39,947
897,8	-37,067
898,3	-39,387
898,7	-30,707
899,1	-31,147
899,5	-32,507
900	-38,347
900,4	-35,627
900,8	-46,547
901,2	-43,147
901,7	-45,347
902,1	-42,587
902,5	-42,147
902,9	-39,867
903,4	-43,307
903,8	-41,707
904,2	-37,387
904,6	-42,387
905,1	-38,107
905,5	-36,227
905,9	-39,467
906,3	-43,067
906,8	-39,027
907,2	-44,667
907,6	-46,467
908	-41,827
908,5	-39,147
908,9	-38,867
909,3	-43,467
909,7	-42,027
910,2	-42,187
910,6	-47,747
911	-48,947
911,4	-46,627
911,9	-49,067
912,3	-46,627
912,7	-44,027
913,1	-45,627
913,6	-42,187
914	-43,947
914,4	-52,067
914,8	-50,867
915,3	-48,307
915,7	-46,107
916,1	-45,947
916,5	-37,507
916,9	-39,987
917,4	-35,187
917,8	-40,827
918,2	-32,307
918,6	-34,667
919,1	-30,587
919,5	-36,187
919,9	-27,667
920,3	-33,227
920,8	-36,267
921,2	-44,547
921,6	-47,547
922	-57,187
922,5	-53,427
922,9	-55,667
923,3	-46,187
923,7	-43,947
924,2	-37,427
924,6	-41,267
925	-37,587
925,4	-41,027
925,8	-39,867
926,3	-41,667
926,7	-47,707
927,1	-42,947
927,5	-46,107
928	-47,827
928,4	-50,227
928,8	-41,267
929,2	-49,867
929,7	-45,107
930,1	-41,387
930,5	-38,067
930,9	-37,667
931,3	-35,827
931,8	-40,467
932,2	-44,427
932,6	-45,987
933	-48,947
933,5	-45,627
933,9	-38,227
934,3	-40,667
934,7	-39,787
935,2	-33,547
935,6	-34,827
936	-42,747
936,4	-44,947
936,8	-44,427
937,3	-51,987
937,7	-52,947
938,1	-52,987
938,5	-49,547
939	-53,227
939,4	-55,627
939,8	-52,507
940,2	-49,587
940,6	-49,147
941,1	-46,707
941,5	-44,387
941,9	-48,467
942,3	-50,147
942,8	-52,107
943,2	-52,027
943,6	-57,907
944	-57,667
944,4	-60,347
944,9	-53,827
945,3	-56,547
945,7	-50,227
946,1	-50,507
946,6	-46,947
947	-50,267
947,4	-46,387
947,8	-47,067
948,2	-47,467
948,7	-46,707
949,1	-41,027
949,5	-38,387
949,9	-42,547
950,3	-40,387
950,8	-40,027
951,2	-45,667
951,6	-50,187
952	-47,787
952,5	-48,947
952,9	-49,507
953,3	-51,787
953,7	-49,547
954,1	-46,467
954,6	-44,827
955	-38,747
955,4	-39,947
955,8	-35,027
956,2	-33,307
956,7	-34,067
957,1	-43,667
957,5	-44,107
957,9	-50,347
958,3	-52,187
958,8	-52,067
959,2	-52,747
959,6	-48,987
960	-52,707
960,5	-51,707
960,9	-57,307
961,3	-52,627
961,7	-46,547
962,1	-41,107
962,6	-41,187
963	-32,867
963,4	-30,187
963,8	-33,427
964,2	-39,907
964,7	-40,147
965,1	-48,867
965,5	-61,507
965,9	-62,827
966,3	-55,987
966,8	-55,507
967,2	-54,627
967,6	-44,827
968	-44,907
968,4	-43,147
968,9	-47,667
969,3	-38,347
969,7	-38,507
970,1	-40,747
970,5	-44,747
971	-40,747
971,4	-41,387
971,8	-43,387
972,2	-39,987
972,6	-42,227
973,1	-46,627
973,5	-52,987
973,9	-52,707
974,3	-57,427
974,7	-51,507
975,2	-45,707
975,6	-43,947
976	-40,867
976,4	-36,907
976,8	-35,547
977,3	-35,547
977,7	-32,467
978,1	-36,907
978,5	-39,507
978,9	-50,467
979,4	-51,187
979,8	-54,227
980,2	-51,027
980,6	-49,427
981	-40,227
981,5	-38,107
981,9	-38,547
982,3	-36,827
982,7	-38,427
983,1	-39,707
983,6	-40,667
984	-35,907
984,4	-40,827
984,8	-39,707
985,2	-41,427
985,6	-41,307
986,1	-53,787
986,5	-52,187
986,9	-53,147
987,3	-58,747
987,7	-61,227
988,2	-55,947
988,6	-55,587
989	-52,547
989,4	-55,107
989,8	-58,707
990,3	-60,947
990,7	-61,547
991,1	-60,267
991,5	-49,027
991,9	-46,387
992,3	-44,707
992,8	-41,787
993,2	-43,027
993,6	-44,587
994	-47,507
994,4	-45,107
994,9	-45,067
995,3	-47,667
995,7	-49,467
996,1	-45,147
996,5	-40,787
996,9	-48,667
997,4	-58,507
997,8	-61,227
998,2	-61,707
998,6	-65,547
999	-61,947
999,5	-56,627
999,9	-59,027
1000,3	-62,347
1000,7	-60,547
1001,1	-56,587
1001,5	-50,867
1002	-48,067
1002,4	-45,107
1002,8	-49,307
1003,2	-54,507
1003,6	-54,947
1004	-49,707
1004,5	-53,347
1004,9	-46,227
1005,3	-47,667
1005,7	-52,267
1006,1	-58,227
1006,6	-55,627
1007	-61,867
1007,4	-58,307
1007,8	-54,867
1008,2	-54,907
1008,6	-50,787
1009,1	-47,467
1009,5	-43,507
1009,9	-47,427
1010,3	-44,347
1010,7	-47,947
1011,1	-47,947
1011,6	-47,907
1012	-43,347
1012,4	-45,907
1012,8	-48,467
1013,2	-51,827
1013,6	-55,827
1014,1	-55,067
1014,5	-53,027
1014,9	-44,507
1015,3	-42,947
1015,7	-42,347
1016,1	-49,987
1016,6	-49,067
1017	-57,227
1017,4	-48,547
1017,8	-46,587
1018,2	-36,347
1018,6	-40,867
1019,1	-39,867
1019,5	-50,027
1019,9	-46,747
1020,3	-55,947
1020,7	-56,667
1021,1	-58,027
1021,6	-49,547
1022	-51,947
1022,4	-49,027
1022,8	-45,867
1023,2	-46,267
1023,6	-53,027
1024,1	-55,627
1024,5	-56,027
1024,9	-55,627
1025,3	-60,187
1025,7	-61,907
1026,1	-59,347
1026,6	-52,707
1027	-51,427
1027,4	-46,707
1027,8	-44,867
1028,2	-47,067
1028,6	-51,067
1029	-50,187
1029,5	-48,227
1029,9	-51,587
1030,3	-53,347
1030,7	-54,387
1031,1	-62,387
1031,5	-67,107
1032	-64,587
1032,4	-62,427
1032,8	-63,587
1033,2	-60,507
1033,6	-56,387
1034	-56,267
1034,4	-60,547
1034,9	-61,267
1035,3	-62,827
1035,7	-64,507
1036,1	-63,707
1036,5	-62,267
1036,9	-57,867
1037,4	-55,387
1037,8	-49,267
1038,2	-50,867
1038,6	-53,027
1039	-54,987
1039,4	-50,427
1039,8	-56,187
1040,3	-58,587
1040,7	-55,787
1041,1	-53,987
1041,5	-57,027
1041,9	-54,707
1042,3	-53,027
1042,7	-51,907
1043,2	-53,547
1043,6	-51,627
1044	-50,067
1044,4	-45,867
1044,8	-42,587
1045,2	-44,107
1045,6	-44,987
1046,1	-45,067
1046,5	-47,307
1046,9	-57,827
1047,3	-52,707
1047,7	-54,107
1048,1	-60,267
1048,5	-65,267
1049	-55,947
1049,4	-63,187
1049,8	-62,107
1050,2	-57,747
1050,6	-51,747
1051	-50,187
1051,4	-49,147
1051,9	-53,907
1052,3	-56,987
1052,7	-63,027
1053,1	-71,227
1053,5	-77,587
1053,9	-76,187
1054,3	-82,547
1054,8	-81,707
1055,2	-80,027
1055,6	-72,187
1056	-67,947
1056,4	-60,387
1056,8	-59,147
1057,2	-57,627
1057,6	-52,427
1058,1	-57,347
1058,5	-58,027
1058,9	-59,307
1059,3	-57,347
1059,7	-62,667
1060,1	-57,147
1060,5	-60,507
1061	-58,427
1061,4	-59,787
1061,8	-57,587
1062,2	-59,027
1062,6	-51,627
1063	-52,707
1063,4	-55,827
1063,8	-55,947
1064,3	-54,307
1064,7	-54,427
1065,1	-56,547
1065,5	-48,867
1065,9	-47,147
1066,3	-50,507
1066,7	-54,147
1067,1	-50,827
1067,6	-55,107
1068	-54,907
1068,4	-54,867
1068,8	-53,827
1069,2	-51,347
1069,6	-55,947
1070	-50,747
1070,4	-53,307
1070,9	-59,747
1071,3	-59,827
1071,7	-53,947
1072,1	-65,307
1072,5	-64,067
1072,9	-57,147
1073,3	-57,227
1073,7	-60,427
1074,2	-63,267
1074,6	-59,747
1075	-59,467
1075,4	-53,827
1075,8	-58,027
1076,2	-51,507
1076,6	-49,867
1077	-47,547
1077,5	-55,347
1077,9	-44,867
1078,3	-43,027
1078,7	-42,347
1079,1	-47,867
1079,5	-43,627
1079,9	-45,227
1080,3	-44,667
1080,7	-42,427
1081,2	-43,067
1081,6	-42,387
1082	-44,787
1082,4	-43,067
1082,8	-46,507
1083,2	-40,387
1083,6	-40,147
1084	-34,267
1084,5	-37,787
1084,9	-38,987
1085,3	-44,147
1085,7	-48,827
1086,1	-52,267
1086,5	-55,747
1086,9	-55,867
1087,3	-55,187
1087,7	-53,427
1088,2	-55,267
1088,6	-51,867
1089	-56,387
1089,4	-54,227
1089,8	-55,947
1090,2	-58,347
1090,6	-55,867
1091	-52,787
1091,4	-49,587
1091,9	-43,267
1092,3	-42,787
1092,7	-41,547
1093,1	-38,627
1093,5	-43,427
1093,9	-45,547
1094,3	-41,867
1094,7	-43,587
1095,1	-42,987
1095,5	-41,347
1096	-44,427
1096,4	-43,107
1096,8	-42,907
1097,2	-41,987
1097,6	-32,347
1098	-30,187
1098,4	-29,787
1098,8	-24,667
1099,2	-23,667
1099,6	-28,707
1100,1	-26,907
1100,5	-26,827
1100,9	-30,187
1101,3	-31,027
1101,7	-38,227
1102,1	-39,227
1102,5	-39,987
1102,9	-38,587
1103,3	-40,427
1103,7	-36,547
1104,2	-36,907
1104,6	-38,747
1105	-40,267
1105,4	-36,187
1105,8	-31,227
1106,2	-23,787
1106,6	-15,067
1107	-8,947
1107,4	-4,347
1107,8	0,033
1108,3	-0,067
