Data from Subt2_00082.txt Node
Date: Fri Aug 11 16:42:32 MSK 2023
User: vat
Spectrometer: MAYP114033
Trigger mode: 0
Integration Time (sec): 5,000000E-1
Scans to average: 5
Electric dark correction enabled: true
Nonlinearity correction enabled: false
Boxcar width: 2
XAxis mode: Wavelengths
Number of Pixels in Spectrum: 2068
>>>>>Begin Spectral Data<<<<<
199,4	2,4
199,9	1,617
200,4	3,907
200,8	1,867
201,3	1,707
201,8	2,427
202,2	-0,733
202,7	-3,333
203,2	-4,493
203,6	-8,213
204,1	-11,253
204,6	-9,013
205	-11,653
205,5	-8,373
206	-7,253
206,4	-5,253
206,9	-4,413
207,4	-1,333
207,8	-3,173
208,3	-3,053
208,8	-0,293
209,2	2,987
209,7	0,347
210,2	3,347
210,6	4,267
211,1	1,547
211,5	-3,373
212	-3,453
212,5	-8,453
212,9	-7,293
213,4	-8,773
213,9	-13,933
214,3	-13,453
214,8	-13,493
215,3	-19,293
215,7	-24,413
216,2	-18,213
216,7	-20,013
217,1	-21,453
217,6	-22,093
218,1	-19,293
218,5	-20,773
219	-15,133
219,5	-7,413
219,9	-2,653
220,4	3,307
220,9	4,467
221,3	3,067
221,8	-5,173
222,3	-7,973
222,7	-13,373
223,2	-15,613
223,6	-16,493
224,1	-11,213
224,6	-1,253
225	-1,533
225,5	0,387
226	3,787
226,4	-3,133
226,9	-9,253
227,4	-8,653
227,8	-12,013
228,3	-18,453
228,8	-11,133
229,2	-15,733
229,7	-13,653
230,2	-6,853
230,6	-10,013
231,1	-9,053
231,5	-1,893
232	-1,973
232,5	-3,893
232,9	-4,973
233,4	-6,333
233,9	-13,293
234,3	-12,493
234,8	-14,333
235,3	-12,973
235,7	-14,253
236,2	-11,773
236,7	-16,493
237,1	-13,053
237,6	-8,653
238,1	-5,693
238,5	-8,653
239	-8,533
239,4	-13,613
239,9	-10,213
240,4	-13,013
240,8	-4,053
241,3	0,107
241,8	0,427
242,2	-6,493
242,7	-5,573
243,2	-12,973
243,6	-12,173
244,1	-14,933
244,6	-14,813
245	-16,293
245,5	-13,733
245,9	-15,573
246,4	-8,293
246,9	-3,613
247,3	-5,333
247,8	-10,333
248,3	-13,253
248,7	-14,613
249,2	-15,693
249,7	-16,133
250,1	-12,893
250,6	-13,973
251	-18,653
251,5	-15,293
252	-8,053
252,4	-4,213
252,9	1,507
253,4	2,627
253,8	-2,613
254,3	-8,333
254,8	-12,413
255,2	-17,253
255,7	-13,693
256,1	-13,613
256,6	-12,613
257,1	-8,533
257,5	-6,453
258	-6,853
258,5	-6,333
258,9	-11,533
259,4	-16,333
259,9	-12,093
260,3	-13,733
260,8	-9,453
261,2	-4,093
261,7	-0,373
262,2	-11,413
262,6	-14,613
263,1	-21,533
263,6	-19,053
264	-16,493
264,5	-9,253
264,9	-3,533
265,4	-1,213
265,9	-5,373
266,3	-7,533
266,8	-4,733
267,3	-5,173
267,7	-2,293
268,2	1,067
268,7	0,707
269,1	-4,173
269,6	-7,533
270	-11,733
270,5	-13,213
271	-13,413
271,4	-10,253
271,9	-5,653
272,4	-3,653
272,8	-1,693
273,3	-2,293
273,7	0,947
274,2	0,987
274,7	4,547
275,1	1,827
275,6	-1,133
276,1	-7,573
276,5	-8,173
277	-9,693
277,4	-11,293
277,9	-3,493
278,4	-6,973
278,8	-5,613
279,3	-7,853
279,8	-1,293
280,2	-8,053
280,7	1,747
281,1	-5,653
281,6	-4,733
282,1	-12,133
282,5	-11,333
283	-12,653
283,4	-8,413
283,9	-6,933
284,4	2,227
284,8	0,787
285,3	-2,413
285,8	-5,813
286,2	-7,733
286,7	-14,133
287,1	-9,213
287,6	-8,493
288,1	-5,613
288,5	-5,573
289	-12,093
289,5	-17,453
289,9	-16,253
290,4	-15,413
290,8	-14,933
291,3	-7,333
291,8	3,747
292,2	2,227
292,7	0,987
293,1	0,707
293,6	-3,573
294,1	-15,573
294,5	-13,973
295	-12,613
295,5	-12,813
295,9	-10,333
296,4	-7,413
296,8	-9,173
297,3	-9,973
297,8	-6,493
298,2	-7,453
298,7	-9,573
299,1	-13,093
299,6	-12,173
300,1	-19,493
300,5	-17,093
301	-12,253
301,5	-9,173
301,9	-13,853
302,4	-10,253
302,8	-12,653
303,3	-15,773
303,8	-18,013
304,2	-11,173
304,7	-5,613
305,1	-5,253
305,6	-3,853
306,1	-2,013
306,5	-7,213
307	-11,813
307,4	-5,493
307,9	-7,973
308,4	-5,413
308,8	-5,213
309,3	-3,093
309,8	-8,013
310,2	-3,813
310,7	-7,933
311,1	-11,533
311,6	-18,093
312,1	-17,053
312,5	-19,453
313	-19,973
313,4	-14,893
313,9	-5,253
314,4	-8,733
314,8	-12,893
315,3	-10,013
315,7	-14,333
316,2	-17,933
316,7	-21,893
317,1	-18,413
317,6	-19,533
318	-14,173
318,5	-14,293
319	-10,893
319,4	-7,973
319,9	-11,333
320,3	-11,213
320,8	-14,813
321,3	-4,733
321,7	-2,373
322,2	2,627
322,6	-3,213
323,1	-5,893
323,6	-14,493
324	-17,173
324,5	-15,373
324,9	-12,693
325,4	-9,173
325,9	-3,893
326,3	-2,813
326,8	-6,773
327,2	-1,933
327,7	-3,653
328,2	-6,973
328,6	-8,813
329,1	-4,933
329,5	-5,133
330	2,987
330,5	4,947
330,9	-0,933
331,4	-6,333
331,8	-12,653
332,3	-18,933
332,8	-21,133
333,2	-16,973
333,7	-11,653
334,1	-6,933
334,6	-11,653
335,1	-10,093
335,5	-10,973
336	-15,173
336,4	-18,813
336,9	-11,573
337,4	-18,493
337,8	-16,733
338,3	-9,933
338,7	-4,893
339,2	-8,053
339,7	-0,813
340,1	-0,253
340,6	-3,733
341	-0,333
341,5	1,627
342	-2,173
342,4	1,387
342,9	2,467
343,3	-5,293
343,8	-7,053
344,2	-4,213
344,7	-8,813
345,2	-11,253
345,6	-8,573
346,1	-9,293
346,5	-8,413
347	-8,453
347,5	-5,093
347,9	-7,733
348,4	-0,373
348,8	-6,773
349,3	-5,773
349,8	-5,493
350,2	-5,093
350,7	-10,173
351,1	-7,053
351,6	-3,973
352	-10,893
352,5	-7,053
353	2,707
353,4	8,587
353,9	8,507
354,3	15,707
354,8	17,067
355,3	14,507
355,7	19,707
356,2	28,707
356,6	36,027
357,1	48,907
357,5	63,627
358	71,867
358,5	88,467
358,9	111,107
359,4	128,987
359,8	145,667
360,3	170,907
360,8	193,827
361,2	219,507
361,7	249,707
362,1	284,947
362,6	330,107
363	376,027
363,5	423,907
364	470,587
364,4	519,147
364,9	570,387
365,3	618,747
365,8	658,027
366,3	702,347
366,7	743,227
367,2	772,827
367,6	797,267
368,1	823,747
368,5	835,587
369	843,187
369,5	841,427
369,9	837,307
370,4	823,027
370,8	804,347
371,3	779,907
371,7	752,627
372,2	716,507
372,7	676,147
373,1	641,667
373,6	600,027
374	558,547
374,5	522,027
374,9	491,067
375,4	453,867
375,9	423,747
376,3	395,747
376,8	364,867
377,2	333,907
377,7	312,147
378,2	287,107
378,6	261,867
379,1	237,547
379,5	220,867
380	196,507
380,4	176,067
380,9	158,027
381,4	141,547
381,8	129,787
382,3	124,587
382,7	119,227
383,2	108,907
383,6	101,747
384,1	85,427
384,6	72,827
385	62,147
385,5	53,427
385,9	47,627
386,4	52,747
386,8	53,307
387,3	48,187
387,7	48,827
388,2	46,827
388,7	37,187
389,1	27,027
389,6	24,347
390	24,427
390,5	24,027
390,9	23,187
391,4	22,907
391,9	19,227
392,3	11,827
392,8	12,347
393,2	9,347
393,7	11,627
394,1	9,507
394,6	8,947
395,1	0,187
395,5	-0,133
396	-2,533
396,4	3,147
396,9	4,747
397,3	5,667
397,8	7,587
398,2	3,227
398,7	-1,333
399,2	0,787
399,6	5,067
400,1	0,227
400,5	4,787
401	6,867
401,4	2,547
401,9	3,587
402,4	5,747
402,8	0,387
403,3	0,027
403,7	-1,173
404,2	-2,693
404,6	-4,813
405,1	1,307
405,5	0,147
406	1,667
406,5	-3,333
406,9	-4,413
407,4	-3,533
407,8	-8,893
408,3	-6,093
408,7	-4,573
409,2	-1,413
409,6	0,947
410,1	7,627
410,6	11,467
411	14,667
411,5	15,067
411,9	12,587
412,4	16,307
412,8	14,187
413,3	21,667
413,7	25,147
414,2	27,147
414,7	26,987
415,1	30,747
415,6	23,107
416	20,547
416,5	16,867
416,9	18,347
417,4	16,027
417,8	21,907
418,3	30,267
418,8	35,307
419,2	36,827
419,7	37,987
420,1	38,627
420,6	39,747
421	40,627
421,5	34,987
421,9	32,987
422,4	28,907
422,8	26,867
423,3	23,827
423,8	28,867
424,2	32,427
424,7	36,507
425,1	31,587
425,6	36,027
426	37,387
426,5	35,067
426,9	35,907
427,4	40,387
427,9	37,067
428,3	36,267
428,8	39,947
429,2	39,987
429,7	40,307
430,1	40,907
430,6	47,427
431	44,667
431,5	47,027
431,9	49,787
432,4	51,667
432,8	53,387
433,3	58,627
433,8	65,507
434,2	66,307
434,7	76,147
435,1	72,627
435,6	79,467
436	76,027
436,5	80,747
436,9	81,307
437,4	85,987
437,8	82,667
438,3	87,547
438,8	88,107
439,2	90,987
439,7	96,787
440,1	107,107
440,6	112,747
441	117,907
441,5	122,427
441,9	125,107
442,4	129,707
442,8	132,027
443,3	145,227
443,7	153,907
444,2	163,827
444,7	172,867
445,1	183,027
445,6	188,227
446	198,187
446,5	200,347
446,9	206,547
447,4	215,027
447,8	216,227
448,3	224,347
448,7	241,707
449,2	247,467
449,6	256,667
450,1	272,707
450,6	279,467
451	286,667
451,5	298,147
451,9	311,227
452,4	323,587
452,8	338,907
453,3	351,307
453,7	366,547
454,2	375,227
454,6	384,307
455,1	392,947
455,5	410,107
456	420,147
456,4	435,747
456,9	452,267
457,3	463,627
457,8	476,107
458,3	494,267
458,7	507,787
459,2	524,787
459,6	540,227
460,1	554,667
460,5	575,507
461	588,267
461,4	602,907
461,9	622,027
462,3	638,827
462,8	653,827
463,2	671,627
463,7	686,347
464,1	701,707
464,6	715,347
465	727,867
465,5	749,467
466	762,507
466,4	781,147
466,9	799,067
467,3	811,347
467,8	823,187
468,2	840,747
468,7	853,587
469,1	869,347
469,6	893,307
470	920,187
470,5	942,627
470,9	962,147
471,4	973,827
471,8	988,987
472,3	995,187
472,7	1007,107
473,2	1022,987
473,6	1048,387
474,1	1061,907
474,5	1082,547
475	1111,187
475,4	1132,307
475,9	1147,947
476,4	1164,947
476,8	1179,347
477,3	1187,947
477,7	1207,987
478,2	1223,947
478,6	1243,787
479,1	1263,187
479,5	1268,907
480	1279,947
480,4	1293,987
480,9	1307,547
481,3	1328,307
481,8	1347,747
482,2	1365,107
482,7	1374,707
483,1	1385,347
483,6	1391,627
484	1407,547
484,5	1414,787
484,9	1435,027
485,4	1447,307
485,8	1459,707
486,3	1470,867
486,7	1478,707
487,2	1490,707
487,6	1497,027
488,1	1501,987
488,5	1507,107
489	1521,347
489,4	1520,707
489,9	1531,827
490,4	1542,027
490,8	1547,107
491,3	1551,467
491,7	1562,787
492,2	1564,107
492,6	1572,947
493,1	1587,587
493,5	1597,627
494	1601,947
494,4	1613,507
494,9	1614,227
495,3	1617,427
495,8	1613,267
496,2	1623,747
496,7	1626,107
497,1	1634,267
497,6	1637,307
498	1648,067
498,5	1638,507
498,9	1643,067
499,4	1639,747
499,8	1640,347
500,3	1638,947
500,7	1648,907
501,2	1647,627
501,6	1654,427
502,1	1660,787
502,5	1667,747
503	1665,907
503,4	1671,307
503,9	1668,107
504,3	1664,307
504,8	1670,267
505,2	1675,227
505,7	1678,787
506,1	1685,947
506,6	1690,147
507	1685,907
507,5	1678,427
507,9	1673,787
508,4	1673,987
508,8	1668,827
509,3	1667,187
509,7	1673,027
510,2	1676,387
510,6	1675,747
511,1	1678,027
511,5	1677,947
512	1676,227
512,4	1674,667
512,9	1669,107
513,3	1666,587
513,8	1667,227
514,2	1671,827
514,7	1667,147
515,1	1667,267
515,6	1664,907
516	1662,627
516,5	1656,067
516,9	1656,467
517,4	1655,147
517,8	1659,347
518,3	1654,667
518,7	1656,747
519,2	1651,347
519,6	1647,947
520,1	1642,147
520,5	1643,987
521	1642,827
521,4	1651,747
521,9	1654,027
522,3	1652,227
522,8	1649,787
523,2	1645,787
523,7	1647,147
524,1	1651,907
524,6	1655,467
525	1653,267
525,5	1655,267
525,9	1647,787
526,4	1641,467
526,8	1633,707
527,3	1633,587
527,7	1629,907
528,2	1626,587
528,6	1628,827
529,1	1642,947
529,5	1650,867
530	1656,707
530,4	1659,627
530,9	1655,147
531,3	1648,667
531,8	1644,027
532,2	1632,947
532,6	1634,507
533,1	1633,547
533,5	1630,427
534	1628,947
534,4	1637,347
534,9	1639,107
535,3	1649,507
535,8	1648,867
536,2	1653,387
536,7	1654,867
537,1	1658,347
537,6	1648,747
538	1657,427
538,5	1657,747
538,9	1661,267
539,4	1654,627
539,8	1658,707
540,3	1653,667
540,7	1648,587
541,2	1644,827
541,6	1648,507
542,1	1654,427
542,5	1653,947
543	1652,747
543,4	1654,307
543,9	1657,747
544,3	1661,347
544,8	1667,707
545,2	1675,307
545,7	1678,347
546,1	1679,067
546,5	1671,427
547	1667,507
547,4	1664,467
547,9	1659,747
548,3	1658,307
548,8	1666,627
549,2	1667,467
549,7	1663,667
550,1	1667,987
550,6	1667,907
551	1668,427
551,5	1669,267
551,9	1678,427
552,4	1672,147
552,8	1671,787
553,3	1664,547
553,7	1669,587
554,2	1666,747
554,6	1675,227
555,1	1685,987
555,5	1691,187
555,9	1692,347
556,4	1692,747
556,8	1687,667
557,3	1682,507
557,7	1678,067
558,2	1674,827
558,6	1674,987
559,1	1678,187
559,5	1677,027
560	1676,747
560,4	1679,427
560,9	1681,507
561,3	1685,667
561,8	1681,747
562,2	1682,747
562,7	1687,907
563,1	1693,827
563,6	1695,667
564	1702,347
564,4	1704,907
564,9	1704,307
565,3	1693,267
565,8	1686,827
566,2	1684,067
566,7	1683,547
567,1	1674,947
567,6	1682,467
568	1679,947
568,5	1681,467
568,9	1678,707
569,4	1688,187
569,8	1683,667
570,3	1688,067
570,7	1689,227
571,1	1685,787
571,6	1678,707
572	1684,467
572,5	1681,907
572,9	1681,347
573,4	1686,907
573,8	1689,507
574,3	1684,467
574,7	1690,867
575,2	1686,187
575,6	1680,547
576,1	1685,027
576,5	1682,707
576,9	1677,387
577,4	1667,427
577,8	1661,627
578,3	1656,747
578,7	1654,067
579,2	1658,307
579,6	1664,347
580,1	1673,987
580,5	1662,707
581	1661,787
581,4	1656,507
581,9	1653,307
582,3	1652,467
582,7	1662,147
583,2	1663,347
583,6	1658,427
584,1	1656,387
584,5	1648,427
585	1634,987
585,4	1621,987
585,9	1614,907
586,3	1610,947
586,8	1606,387
587,2	1604,707
587,6	1612,347
588,1	1608,987
588,5	1610,107
589	1609,547
589,4	1605,267
589,9	1596,507
590,3	1593,787
590,8	1588,907
591,2	1585,227
591,7	1586,467
592,1	1581,267
592,5	1584,187
593	1579,267
593,4	1572,507
593,9	1560,587
594,3	1556,427
594,8	1544,627
595,2	1539,747
595,7	1539,387
596,1	1548,427
596,6	1550,187
597	1558,147
597,4	1556,147
597,9	1554,587
598,3	1548,507
598,8	1550,667
599,2	1540,587
599,7	1534,067
600,1	1522,347
600,6	1512,827
601	1501,987
601,4	1497,427
601,9	1496,667
602,3	1496,987
602,8	1491,267
603,2	1494,427
603,7	1491,107
604,1	1489,667
604,6	1496,507
605	1498,067
605,4	1484,947
605,9	1481,707
606,3	1478,627
606,8	1470,187
607,2	1463,107
607,7	1463,427
608,1	1461,107
608,6	1458,587
609	1454,067
609,4	1453,227
609,9	1446,467
610,3	1435,627
610,8	1428,387
611,2	1420,107
611,7	1411,227
612,1	1409,627
612,6	1406,787
613	1397,387
613,4	1395,427
613,9	1398,707
614,3	1386,787
614,8	1387,507
615,2	1387,627
615,7	1381,067
616,1	1370,027
616,6	1367,187
617	1356,187
617,4	1343,867
617,9	1341,147
618,3	1336,027
618,8	1333,907
619,2	1327,827
619,7	1327,347
620,1	1321,427
620,5	1311,307
621	1305,667
621,4	1296,907
621,9	1285,907
622,3	1279,827
622,8	1282,067
623,2	1270,787
623,6	1270,187
624,1	1265,147
624,5	1253,907
625	1244,307
625,4	1244,387
625,9	1238,187
626,3	1234,307
626,8	1234,507
627,2	1230,587
627,6	1217,227
628,1	1218,627
628,5	1212,627
629	1208,507
629,4	1203,227
629,9	1198,307
630,3	1184,387
630,7	1176,347
631,2	1158,947
631,6	1153,027
632,1	1150,827
632,5	1143,507
633	1144,987
633,4	1147,187
633,8	1140,547
634,3	1139,947
634,7	1142,947
635,2	1138,107
635,6	1131,627
636,1	1124,227
636,5	1113,387
636,9	1103,907
637,4	1094,667
637,8	1086,907
638,3	1083,427
638,7	1076,667
639,2	1069,907
639,6	1064,827
640	1058,307
640,5	1053,707
640,9	1052,467
641,4	1048,787
641,8	1044,027
642,2	1042,187
642,7	1036,147
643,1	1036,187
643,6	1029,027
644	1020,267
644,5	1018,227
644,9	1011,347
645,3	1000,747
645,8	992,947
646,2	996,867
646,7	980,667
647,1	976,827
647,6	970,507
648	973,387
648,4	962,267
648,9	961,187
649,3	957,427
649,8	956,467
650,2	948,867
650,6	942,107
651,1	949,307
651,5	943,627
652	933,587
652,4	929,667
652,9	922,987
653,3	909,907
653,7	903,147
654,2	900,067
654,6	897,707
655,1	891,947
655,5	887,827
655,9	884,627
656,4	879,987
656,8	872,227
657,3	873,907
657,7	867,627
658,2	864,467
658,6	863,307
659	858,587
659,5	846,187
659,9	843,547
660,4	838,187
660,8	832,107
661,2	822,187
661,7	827,747
662,1	822,987
662,6	816,267
663	813,987
663,4	817,387
663,9	809,187
664,3	804,547
664,8	800,867
665,2	791,947
665,6	787,547
666,1	776,347
666,5	767,027
667	767,347
667,4	764,107
667,9	756,227
668,3	751,507
668,7	751,267
669,2	741,507
669,6	741,427
670,1	736,267
670,5	737,147
670,9	731,787
671,4	731,427
671,8	717,707
672,3	710,787
672,7	711,747
673,1	708,547
673,6	704,507
674	704,707
674,5	698,547
674,9	693,427
675,3	689,307
675,8	683,747
676,2	679,507
676,7	678,347
677,1	669,307
677,5	665,787
678	658,187
678,4	652,987
678,9	645,187
679,3	643,507
679,7	638,067
680,2	636,067
680,6	627,747
681,1	630,707
681,5	624,467
681,9	617,387
682,4	614,187
682,8	615,987
683,3	606,507
683,7	602,907
684,1	601,947
684,6	591,147
685	583,827
685,5	582,267
685,9	578,347
686,3	572,947
686,8	569,107
687,2	567,387
687,7	558,867
688,1	557,387
688,5	556,827
689	559,987
689,4	558,387
689,9	552,467
690,3	546,307
690,7	540,187
691,2	536,467
691,6	525,987
692	532,067
692,5	531,907
692,9	532,067
693,4	525,907
693,8	527,267
694,2	517,027
694,7	513,907
695,1	505,587
695,6	501,947
696	498,907
696,4	500,787
696,9	493,707
697,3	494,627
697,8	494,027
698,2	497,187
698,6	497,707
699,1	498,787
699,5	498,827
699,9	497,747
700,4	486,107
700,8	481,587
701,3	477,187
701,7	472,387
702,1	468,747
702,6	467,707
703	460,867
703,5	455,547
703,9	445,027
704,3	446,227
704,8	445,867
705,2	445,747
705,6	448,467
706,1	447,747
706,5	439,147
707	436,027
707,4	434,747
707,8	430,587
708,3	430,267
708,7	431,747
709,2	427,827
709,6	420,587
710	417,267
710,5	412,267
710,9	409,587
711,3	406,027
711,8	405,267
712,2	403,747
712,7	398,747
713,1	391,347
713,5	388,907
714	382,907
714,4	376,147
714,8	381,027
715,3	382,627
715,7	386,627
716,2	387,387
716,6	382,107
717	375,667
717,5	371,227
717,9	360,387
718,3	355,827
718,8	359,027
719,2	356,547
719,7	351,747
720,1	355,027
720,5	351,067
721	340,387
721,4	342,467
721,8	338,227
722,3	335,307
722,7	337,387
723,2	338,027
723,6	334,347
724	331,027
724,5	322,147
724,9	315,547
725,3	315,267
725,8	305,707
726,2	306,267
726,7	303,827
727,1	301,947
727,5	297,547
728	301,107
728,4	300,907
728,8	298,587
729,3	300,467
729,7	299,347
730,1	293,507
730,6	289,307
731	288,067
731,5	284,467
731,9	287,267
732,3	290,827
732,8	281,107
733,2	276,147
733,6	276,787
734,1	276,507
734,5	265,867
734,9	271,387
735,4	276,547
735,8	274,227
736,3	271,827
736,7	276,507
737,1	271,667
737,6	268,267
738	265,107
738,4	263,587
738,9	260,907
739,3	260,467
739,7	257,027
740,2	260,267
740,6	252,747
741,1	252,147
741,5	254,667
741,9	256,267
742,4	247,387
742,8	249,227
743,2	250,267
743,7	249,307
744,1	247,507
744,5	252,187
745	247,507
745,4	241,427
745,8	234,547
746,3	232,187
746,7	225,787
747,2	225,387
747,6	229,067
748	235,427
748,5	233,427
748,9	229,187
749,3	223,827
749,8	218,387
750,2	214,587
750,6	213,547
751,1	218,267
751,5	219,827
751,9	222,467
752,4	218,107
752,8	218,747
753,3	218,867
753,7	220,027
754,1	213,907
754,6	214,427
755	211,427
755,4	210,347
755,9	204,667
756,3	204,907
756,7	202,747
757,2	199,867
757,6	192,467
758	196,907
758,5	198,827
758,9	205,427
759,3	202,947
759,8	203,827
760,2	201,027
760,6	198,427
761,1	187,027
761,5	185,347
761,9	187,467
762,4	184,747
762,8	180,307
763,3	184,467
763,7	186,187
764,1	180,907
764,6	184,307
765	185,907
765,4	179,747
765,9	175,787
766,3	175,067
766,7	168,747
767,2	166,067
767,6	169,307
768	169,427
768,5	166,347
768,9	165,387
769,3	169,987
769,8	167,227
770,2	169,827
770,6	174,467
771,1	174,947
771,5	170,587
771,9	166,747
772,4	167,347
772,8	160,787
773,2	161,867
773,7	165,307
774,1	166,307
774,5	159,667
775	155,747
775,4	150,667
775,8	145,627
776,3	143,467
776,7	141,147
777,1	142,827
777,6	143,947
778	140,107
778,4	143,947
778,9	149,227
779,3	150,187
779,7	146,667
780,2	144,867
780,6	139,107
781	131,747
781,5	128,707
781,9	128,147
782,3	124,107
782,8	119,507
783,2	119,547
783,6	121,427
784,1	122,307
784,5	121,307
784,9	120,627
785,4	118,707
785,8	118,907
786,2	120,587
786,7	118,027
787,1	124,587
787,5	129,027
788	122,387
788,4	120,667
788,8	122,947
789,3	114,907
789,7	109,187
790,1	109,947
790,6	103,587
791	99,707
791,4	103,387
791,9	105,467
792,3	108,147
792,7	110,827
793,2	111,267
793,6	107,707
794	105,147
794,5	100,347
794,9	99,747
795,3	104,187
795,8	102,307
796,2	103,907
796,6	101,907
797,1	98,507
797,5	91,827
797,9	92,587
798,4	93,587
798,8	97,107
799,2	96,667
799,7	96,387
800,1	93,907
800,5	89,867
801	89,627
801,4	90,227
801,8	94,747
802,2	100,787
802,7	104,587
803,1	105,227
803,5	102,467
804	101,067
804,4	96,707
804,8	88,547
805,3	79,627
805,7	79,467
806,1	76,347
806,6	77,307
807	73,347
807,4	77,867
807,9	78,307
808,3	75,667
808,7	68,827
809,2	74,467
809,6	72,427
810	72,787
810,4	74,267
810,9	79,787
811,3	79,507
811,7	76,027
812,2	74,507
812,6	76,307
813	71,947
813,5	69,147
813,9	71,147
814,3	70,827
814,8	69,107
815,2	71,507
815,6	72,947
816,1	67,147
816,5	65,787
816,9	66,427
817,3	61,987
817,8	63,027
818,2	66,867
818,6	67,947
819,1	59,907
819,5	59,987
819,9	52,227
820,4	54,547
820,8	52,027
821,2	57,307
821,7	57,907
822,1	60,787
822,5	56,627
822,9	59,827
823,4	57,547
823,8	58,227
824,2	60,387
824,7	60,907
825,1	60,387
825,5	58,987
826	59,947
826,4	61,907
826,8	63,947
827,3	56,027
827,7	60,707
828,1	53,187
828,5	51,227
829	48,187
829,4	50,427
829,8	47,907
830,3	53,507
830,7	53,307
831,1	54,707
831,6	55,347
832	56,747
832,4	61,667
832,8	61,107
833,3	58,827
833,7	61,587
834,1	55,547
834,6	49,227
835	46,787
835,4	44,227
835,8	39,387
836,3	43,907
836,7	44,347
837,1	39,027
837,6	47,547
838	48,667
838,4	51,627
838,9	47,627
839,3	52,107
839,7	53,707
840,1	51,147
840,6	39,787
841	40,867
841,4	40,427
841,9	32,307
842,3	32,187
842,7	37,627
843,1	34,627
843,6	27,667
844	24,347
844,4	28,027
844,9	27,587
845,3	29,747
845,7	36,467
846,2	42,867
846,6	36,907
847	37,587
847,4	36,147
847,9	38,347
848,3	29,347
848,7	34,587
849,2	31,187
849,6	32,187
850	26,707
850,4	31,747
850,9	33,427
851,3	33,947
851,7	31,787
852,2	31,787
852,6	31,267
853	27,627
853,4	30,427
853,9	34,507
854,3	34,707
854,7	35,987
855,2	33,547
855,6	31,387
856	30,027
856,4	29,267
856,9	28,627
857,3	28,467
857,7	28,627
858,2	28,667
858,6	30,307
859	30,587
859,4	35,707
859,9	26,987
860,3	22,547
860,7	20,547
861,1	22,627
861,6	18,547
862	30,027
862,4	29,347
862,9	29,707
863,3	24,827
863,7	24,427
864,1	21,347
864,6	26,347
865	29,307
865,4	25,427
865,9	19,787
866,3	24,987
866,7	23,227
867,1	22,667
867,6	29,987
868	33,987
868,4	26,267
868,8	21,667
869,3	24,347
869,7	19,187
870,1	19,147
870,6	19,547
871	22,587
871,4	3,867
871,8	7,387
872,3	2,107
872,7	1,467
873,1	-0,453
873,5	7,667
874	5,827
874,4	12,947
874,8	16,107
875,3	14,427
875,7	20,267
876,1	20,987
876,5	18,907
877	14,747
877,4	20,347
877,8	19,147
878,2	16,347
878,7	21,667
879,1	22,547
879,5	21,587
879,9	17,667
880,4	17,067
880,8	11,027
881,2	8,147
881,7	5,547
882,1	0,787
882,5	2,107
882,9	4,107
883,4	3,587
883,8	2,907
884,2	8,987
884,6	11,067
885,1	4,987
885,5	1,987
885,9	0,947
886,3	3,747
886,8	0,707
887,2	7,067
887,6	12,547
888	13,787
888,5	16,867
888,9	16,627
889,3	12,187
889,8	12,987
890,2	11,427
890,6	8,507
891	8,507
891,5	12,067
891,9	10,987
892,3	11,667
892,7	7,947
893,2	8,907
893,6	4,827
894	1,947
894,4	1,507
894,9	2,627
895,3	3,067
895,7	2,947
896,1	7,907
896,6	7,387
897	7,587
897,4	2,187
897,8	7,067
898,3	6,747
898,7	6,267
899,1	7,947
899,5	6,067
900	2,427
900,4	-0,013
900,8	-2,453
901,2	-7,573
901,7	-0,413
902,1	1,627
902,5	1,667
902,9	7,627
903,4	10,587
903,8	9,747
904,2	4,747
904,6	7,147
905,1	3,347
905,5	5,307
905,9	3,267
906,3	4,627
906,8	1,347
907,2	2,507
907,6	0,187
908	3,067
908,5	4,507
908,9	6,747
909,3	-0,173
909,7	-3,293
910,2	-5,893
910,6	-1,653
911	-4,173
911,4	2,427
911,9	0,467
912,3	-2,333
912,7	-5,973
913,1	-7,333
913,6	-9,253
914	-8,853
914,4	-6,453
914,8	-9,093
915,3	-10,533
915,7	-7,813
916,1	-0,333
916,5	-1,253
916,9	0,027
917,4	4,667
917,8	5,147
918,2	4,707
918,6	3,827
919,1	10,187
919,5	7,987
919,9	6,867
920,3	3,387
920,8	12,667
921,2	5,827
921,6	9,347
922	7,467
922,5	5,947
922,9	-3,813
923,3	-4,893
923,7	-10,813
924,2	-13,013
924,6	-16,733
925	-13,413
925,4	-11,213
925,8	-6,933
926,3	-5,013
926,7	-0,413
927,1	3,387
927,5	2,507
928	-2,053
928,4	-0,093
928,8	-3,933
929,2	-10,053
929,7	-10,133
930,1	-4,653
930,5	-3,613
930,9	2,587
931,3	2,027
931,8	2,547
932,2	1,627
932,6	-0,053
933	-5,493
933,5	-1,533
933,9	-3,973
934,3	-3,213
934,7	-2,093
935,2	0,187
935,6	-9,173
936	-10,213
936,4	-14,773
936,8	-18,133
937,3	-11,253
937,7	-2,853
938,1	-3,773
938,5	0,747
939	3,867
939,4	-2,773
939,8	-3,733
940,2	1,987
940,6	-0,853
941,1	-3,613
941,5	-2,893
941,9	-9,053
942,3	-11,213
942,8	-13,973
943,2	-7,653
943,6	-8,133
944	-3,853
944,4	-10,053
944,9	-9,293
945,3	-10,373
945,7	-7,293
946,1	-1,773
946,6	5,147
947	2,627
947,4	1,787
947,8	-6,613
948,2	-10,493
948,7	-6,293
949,1	-1,093
949,5	-4,773
949,9	1,627
950,3	7,347
950,8	3,987
951,2	0,827
951,6	5,427
952	-2,253
952,5	-10,933
952,9	-13,053
953,3	-15,213
953,7	-15,293
954,1	-8,293
954,6	-6,093
955	-2,373
955,4	-0,173
955,8	-5,213
956,2	-5,533
956,7	-10,293
957,1	-12,813
957,5	-9,053
957,9	-4,413
958,3	-12,333
958,8	-7,653
959,2	-5,653
959,6	-7,453
960	-3,573
960,5	5,747
960,9	4,267
961,3	2,907
961,7	3,907
962,1	-2,333
962,6	-2,213
963	-2,573
963,4	-7,173
963,8	-6,773
964,2	-9,493
964,7	-4,973
965,1	-2,493
965,5	0,627
965,9	2,587
966,3	3,547
966,8	-1,093
967,2	-5,653
967,6	-2,453
968	-1,693
968,4	0,667
968,9	-0,173
969,3	3,747
969,7	-4,573
970,1	-10,773
970,5	-10,893
971	-10,453
971,4	-11,653
971,8	-8,573
972,2	-4,773
972,6	-8,093
973,1	-9,053
973,5	-5,653
973,9	-4,253
974,3	-8,173
974,7	-9,333
975,2	-0,133
975,6	-0,373
976	-4,573
976,4	-1,173
976,8	2,867
977,3	-8,973
977,7	-6,613
978,1	-6,133
978,5	-8,493
978,9	-14,413
979,4	-9,093
979,8	-13,013
980,2	-10,133
980,6	-10,173
981	-7,053
981,5	-16,573
981,9	-14,653
982,3	-16,413
982,7	-18,213
983,1	-15,453
983,6	-8,293
984	-10,213
984,4	-11,213
984,8	-11,613
985,2	-11,413
985,6	-16,253
986,1	-15,573
986,5	-9,533
986,9	-5,693
987,3	-5,133
987,7	-2,093
988,2	-2,173
988,6	-1,053
989	2,587
989,4	-3,173
989,8	-4,533
990,3	-6,693
990,7	-13,613
991,1	-13,933
991,5	-8,653
991,9	-10,093
992,3	-13,013
992,8	-11,773
993,2	-18,013
993,6	-20,293
994	-17,693
994,4	-11,893
994,9	-11,013
995,3	-11,893
995,7	-11,213
996,1	-7,693
996,5	-12,533
996,9	-10,053
997,4	-6,533
997,8	-8,813
998,2	-10,413
998,6	-12,533
999	-16,453
999,5	-15,853
999,9	-14,413
1000,3	-19,973
1000,7	-11,333
1001,1	-10,733
1001,5	-8,373
1002	-9,093
1002,4	-6,773
1002,8	-8,453
1003,2	-6,253
1003,6	-5,613
1004	-3,973
1004,5	2,227
1004,9	3,067
1005,3	2,587
1005,7	3,707
1006,1	5,907
1006,6	4,107
1007	2,787
1007,4	4,747
1007,8	2,947
1008,2	4,147
1008,6	5,347
1009,1	3,427
1009,5	-0,933
1009,9	-6,333
1010,3	-10,973
1010,7	-19,853
1011,1	-15,573
1011,6	-16,053
1012	-12,573
1012,4	-12,213
1012,8	-6,053
1013,2	-8,773
1013,6	-7,093
1014,1	-6,133
1014,5	-8,853
1014,9	-12,333
1015,3	-15,893
1015,7	-15,373
1016,1	-18,053
1016,6	-16,893
1017	-17,453
1017,4	-17,893
1017,8	-13,093
1018,2	-13,093
1018,6	-8,813
1019,1	-8,653
1019,5	-9,453
1019,9	-18,173
1020,3	-19,493
1020,7	-24,533
1021,1	-19,613
1021,6	-13,213
1022	-6,253
1022,4	-2,333
1022,8	5,467
1023,2	2,867
1023,6	-3,533
1024,1	-2,333
1024,5	-6,733
1024,9	-11,053
1025,3	-11,453
1025,7	-8,213
1026,1	-10,853
1026,6	-11,093
1027	-7,373
1027,4	-2,493
1027,8	-4,773
1028,2	-7,813
1028,6	-1,453
1029	-5,333
1029,5	-5,413
1029,9	-4,573
1030,3	0,987
1030,7	-3,533
1031,1	-6,133
1031,5	-10,053
1032	-5,893
1032,4	-10,053
1032,8	-5,813
1033,2	-3,253
1033,6	-6,013
1034	-8,773
1034,4	-9,333
1034,9	-15,293
1035,3	-19,853
1035,7	-12,373
1036,1	-12,813
1036,5	-10,053
1036,9	-6,333
1037,4	-8,573
1037,8	-16,373
1038,2	-16,813
1038,6	-18,493
1039	-25,773
1039,4	-22,693
1039,8	-19,373
1040,3	-16,493
1040,7	-16,333
1041,1	-9,373
1041,5	-9,093
1041,9	-7,933
1042,3	-15,933
1042,7	-14,853
1043,2	-20,973
1043,6	-19,173
1044	-13,093
1044,4	-8,693
1044,8	-12,053
1045,2	-5,493
1045,6	-2,493
1046,1	-8,133
1046,5	-8,093
1046,9	-1,493
1047,3	-4,933
1047,7	-11,613
1048,1	-13,653
1048,5	-15,133
1049	-23,253
1049,4	-19,613
1049,8	-14,933
1050,2	-12,413
1050,6	-5,413
1051	-5,213
1051,4	-9,613
1051,9	-13,813
1052,3	-17,973
1052,7	-24,893
1053,1	-23,853
1053,5	-23,533
1053,9	-18,333
1054,3	-16,613
1054,8	-16,653
1055,2	-15,453
1055,6	-12,973
1056	-16,773
1056,4	-10,293
1056,8	-4,933
1057,2	-1,533
1057,6	-6,093
1058,1	-6,573
1058,5	-17,493
1058,9	-20,493
1059,3	-18,373
1059,7	-11,373
1060,1	-2,613
1060,5	4,987
1061	7,307
1061,4	4,107
1061,8	-1,533
1062,2	-4,853
1062,6	-6,173
1063	-5,773
1063,4	-5,253
1063,8	-2,053
1064,3	-3,973
1064,7	-8,773
1065,1	-12,093
1065,5	-13,773
1065,9	-14,733
1066,3	-16,093
1066,7	-7,693
1067,1	-5,933
1067,6	-7,293
1068	-7,133
1068,4	-8,613
1068,8	-12,973
1069,2	-15,373
1069,6	-12,373
1070	-9,373
1070,4	-7,253
1070,9	-5,573
1071,3	-7,053
1071,7	-10,133
1072,1	-9,853
1072,5	-7,333
1072,9	-10,893
1073,3	-8,573
1073,7	-4,853
1074,2	-6,573
1074,6	-8,693
1075	-12,533
1075,4	-13,733
1075,8	-12,573
1076,2	-10,093
1076,6	-6,493
1077	-3,253
1077,5	-3,533
1077,9	-5,933
1078,3	-10,693
1078,7	-16,453
1079,1	-17,013
1079,5	-12,173
1079,9	-10,533
1080,3	-6,453
1080,7	-0,853
1081,2	1,867
1081,6	2,827
1082	9,347
1082,4	7,227
1082,8	4,307
1083,2	2,187
1083,6	-4,093
1084	-10,693
1084,5	-9,013
1084,9	-7,693
1085,3	-6,813
1085,7	-5,853
1086,1	-10,093
1086,5	-11,933
1086,9	-13,733
1087,3	-16,933
1087,7	-15,773
1088,2	-13,813
1088,6	-13,213
1089	-10,293
1089,4	-5,653
1089,8	-1,573
1090,2	-1,933
1090,6	-1,733
1091	-7,053
1091,4	-7,053
1091,9	-11,973
1092,3	-10,893
1092,7	-12,853
1093,1	-10,213
1093,5	-7,933
1093,9	-3,493
1094,3	-7,733
1094,7	-2,853
1095,1	-0,773
1095,5	-6,533
1096	-5,813
1096,4	-0,133
1096,8	-1,453
1097,2	1,387
1097,6	-0,173
1098	-6,053
1098,4	-8,493
1098,8	-13,213
1099,2	-14,213
1099,6	-8,013
1100,1	-4,413
1100,5	-5,893
1100,9	-0,693
1101,3	-5,653
1101,7	-6,893
1102,1	-7,093
1102,5	-3,573
1102,9	-4,333
1103,3	-3,133
1103,7	-2,293
1104,2	-3,373
1104,6	-9,253
1105	-7,813
1105,4	-5,893
1105,8	-4,253
1106,2	-2,773
1106,6	3,187
1107	0,867
1107,4	0,387
1107,8	-0,333
1108,3	-0,333
