Data from Subt2_00056.txt Node
Date: Fri Aug 11 16:14:57 MSK 2023
User: vat
Spectrometer: MAYP114033
Trigger mode: 0
Integration Time (sec): 5,000000E-1
Scans to average: 5
Electric dark correction enabled: true
Nonlinearity correction enabled: false
Boxcar width: 2
XAxis mode: Wavelengths
Number of Pixels in Spectrum: 2068
>>>>>Begin Spectral Data<<<<<
199,4	-0,8
199,9	-0,667
200,4	-6,707
200,8	-10,387
201,3	-17,227
201,8	-19,547
202,2	-21,627
202,7	-20,227
203,2	-16,707
203,6	-15,267
204,1	-17,107
204,6	-22,147
205	-18,867
205,5	-20,987
206	-13,947
206,4	-13,627
206,9	-8,747
207,4	-11,907
207,8	-13,587
208,3	-19,867
208,8	-22,427
209,2	-25,547
209,7	-29,907
210,2	-29,347
210,6	-33,907
211,1	-31,827
211,5	-27,307
212	-20,267
212,5	-19,707
212,9	-14,827
213,4	-17,147
213,9	-17,747
214,3	-19,787
214,8	-25,707
215,3	-24,347
215,7	-19,827
216,2	-18,787
216,7	-23,627
217,1	-17,707
217,6	-14,827
218,1	-17,267
218,5	-25,227
219	-14,467
219,5	-16,907
219,9	-21,827
220,4	-22,147
220,9	-18,907
221,3	-25,507
221,8	-24,427
222,3	-27,787
222,7	-25,587
223,2	-23,947
223,6	-25,587
224,1	-30,707
224,6	-25,547
225	-29,627
225,5	-28,667
226	-24,747
226,4	-19,627
226,9	-21,227
227,4	-16,067
227,8	-22,747
228,3	-28,507
228,8	-33,747
229,2	-32,227
229,7	-38,347
230,2	-30,947
230,6	-29,467
231,1	-26,467
231,5	-28,747
232	-25,827
232,5	-23,387
232,9	-21,667
233,4	-19,067
233,9	-21,587
234,3	-18,507
234,8	-21,107
235,3	-21,947
235,7	-22,147
236,2	-19,107
236,7	-22,747
237,1	-30,307
237,6	-30,387
238,1	-29,867
238,5	-31,227
239	-29,667
239,4	-27,987
239,9	-24,027
240,4	-25,507
240,8	-23,547
241,3	-25,947
241,8	-19,947
242,2	-20,627
242,7	-18,747
243,2	-17,987
243,6	-9,827
244,1	-15,147
244,6	-19,027
245	-24,027
245,5	-26,747
245,9	-33,587
246,4	-32,707
246,9	-34,707
247,3	-33,187
247,8	-32,027
248,3	-32,347
248,7	-30,347
249,2	-28,507
249,7	-26,507
250,1	-29,307
250,6	-29,067
251	-28,667
251,5	-27,867
252	-35,907
252,4	-32,627
252,9	-31,987
253,4	-32,827
253,8	-32,987
254,3	-20,947
254,8	-21,907
255,2	-17,827
255,7	-16,907
256,1	-16,867
256,6	-20,947
257,1	-25,547
257,5	-26,827
258	-31,947
258,5	-34,027
258,9	-32,147
259,4	-25,787
259,9	-29,987
260,3	-30,747
260,8	-27,587
261,2	-27,227
261,7	-25,187
262,2	-27,907
262,6	-21,587
263,1	-23,107
263,6	-24,027
264	-27,307
264,5	-28,027
264,9	-27,627
265,4	-27,067
265,9	-25,867
266,3	-23,787
266,8	-16,907
267,3	-19,067
267,7	-19,547
268,2	-18,427
268,7	-18,347
269,1	-16,787
269,6	-18,787
270	-18,347
270,5	-22,827
271	-25,347
271,4	-30,187
271,9	-26,547
272,4	-25,387
272,8	-25,467
273,3	-24,147
273,7	-18,827
274,2	-15,387
274,7	-19,547
275,1	-19,107
275,6	-21,707
276,1	-29,667
276,5	-32,987
277	-31,547
277,4	-33,107
277,9	-31,467
278,4	-28,267
278,8	-28,347
279,3	-27,907
279,8	-31,307
280,2	-32,547
280,7	-31,187
281,1	-31,387
281,6	-31,747
282,1	-16,467
282,5	-13,267
283	-13,187
283,4	-18,747
283,9	-13,907
284,4	-22,867
284,8	-23,987
285,3	-19,747
285,8	-15,827
286,2	-19,067
286,7	-21,667
287,1	-26,507
287,6	-33,587
288,1	-33,587
288,5	-31,747
289	-27,547
289,5	-24,147
289,9	-23,667
290,4	-24,827
290,8	-21,747
291,3	-22,467
291,8	-22,147
292,2	-19,587
292,7	-17,347
293,1	-22,867
293,6	-22,347
294,1	-22,147
294,5	-24,227
295	-20,267
295,5	-12,147
295,9	-14,347
296,4	-11,547
296,8	-4,867
297,3	-10,587
297,8	-20,547
298,2	-22,627
298,7	-24,467
299,1	-30,787
299,6	-25,627
300,1	-24,947
300,5	-22,587
301	-20,387
301,5	-22,867
301,9	-29,107
302,4	-32,107
302,8	-36,147
303,3	-39,987
303,8	-40,827
304,2	-41,627
304,7	-33,947
305,1	-27,467
305,6	-26,147
306,1	-20,547
306,5	-18,787
307	-21,027
307,4	-22,867
307,9	-21,227
308,4	-21,147
308,8	-16,147
309,3	-12,267
309,8	-8,467
310,2	-13,267
310,7	-18,067
311,1	-29,027
311,6	-31,307
312,1	-36,667
312,5	-36,907
313	-35,147
313,4	-32,267
313,9	-30,067
314,4	-25,827
314,8	-22,867
315,3	-20,667
315,7	-19,547
316,2	-27,387
316,7	-30,427
317,1	-31,307
317,6	-37,187
318	-30,827
318,5	-24,827
319	-30,067
319,4	-31,227
319,9	-26,907
320,3	-25,267
320,8	-20,387
321,3	-17,747
321,7	-13,187
322,2	-13,347
322,6	-14,427
323,1	-26,907
323,6	-26,387
324	-24,307
324,5	-26,467
324,9	-31,827
325,4	-21,587
325,9	-18,707
326,3	-17,467
326,8	-16,627
327,2	-17,947
327,7	-24,627
328,2	-24,827
328,6	-27,427
329,1	-22,107
329,5	-14,587
330	-10,307
330,5	-12,987
330,9	-12,307
331,4	-17,307
331,8	-24,307
332,3	-24,347
332,8	-19,827
333,2	-26,307
333,7	-23,987
334,1	-22,547
334,6	-22,707
335,1	-23,267
335,5	-16,827
336	-15,067
336,4	-13,587
336,9	-12,907
337,4	-11,707
337,8	-15,347
338,3	-15,747
338,7	-14,427
339,2	-14,507
339,7	-15,147
340,1	-15,227
340,6	-16,747
341	-13,227
341,5	-12,147
342	-15,667
342,4	-11,867
342,9	-12,547
343,3	-16,107
343,8	-17,147
344,2	-9,427
344,7	-10,347
345,2	-6,747
345,6	-10,507
346,1	-7,907
346,5	-6,667
347	-5,907
347,5	-4,467
347,9	3,093
348,4	8,333
348,8	5,573
349,3	10,573
349,8	17,893
350,2	30,733
350,7	38,253
351,1	53,213
351,6	71,333
352	87,013
352,5	110,853
353	139,333
353,4	180,573
353,9	225,933
354,3	287,253
354,8	351,653
355,3	441,853
355,7	531,853
356,2	634,773
356,6	759,773
357,1	907,973
357,5	1073,493
358	1264,853
358,5	1493,573
358,9	1741,853
359,4	2013,013
359,8	2321,893
360,3	2681,093
360,8	3074,173
361,2	3505,973
361,7	3994,573
362,1	4528,453
362,6	5107,773
363	5722,693
363,5	6380,053
364	7063,573
364,4	7763,853
364,9	8467,693
365,3	9158,573
365,8	9837,093
366,3	10459,813
366,7	11015,293
367,2	11492,293
367,6	11875,173
368,1	12167,133
368,5	12350,653
369	12423,333
369,5	12392,213
369,9	12288,133
370,4	12056,173
370,8	11753,613
371,3	11378,133
371,7	10939,093
372,2	10435,373
372,7	9900,693
373,1	9342,653
373,6	8777,053
374	8206,973
374,5	7638,493
374,9	7085,133
375,4	6549,773
375,9	6034,773
376,3	5542,133
376,8	5091,013
377,2	4668,533
377,7	4275,693
378,2	3907,253
378,6	3566,893
379,1	3248,053
379,5	2957,733
380	2686,253
380,4	2450,053
380,9	2237,053
381,4	2044,333
381,8	1881,493
382,3	1737,293
382,7	1602,533
383,2	1474,933
383,6	1366,093
384,1	1256,893
384,6	1159,413
385	1062,333
385,5	985,933
385,9	909,173
386,4	834,933
386,8	766,733
387,3	712,613
387,7	658,293
388,2	603,613
388,7	561,693
389,1	514,613
389,6	476,333
390	435,573
390,5	396,933
390,9	360,813
391,4	332,533
391,9	302,053
392,3	275,013
392,8	260,773
393,2	238,133
393,7	221,773
394,1	205,733
394,6	192,533
395,1	175,333
395,5	167,213
396	150,613
396,4	134,933
396,9	125,453
397,3	117,893
397,8	106,733
398,2	106,013
398,7	98,013
399,2	88,933
399,6	77,373
400,1	75,093
400,5	65,253
401	60,653
401,4	59,493
401,9	55,533
402,4	43,693
402,8	41,253
403,3	35,333
403,7	27,973
404,2	26,333
404,6	29,453
405,1	27,613
405,5	29,253
406	29,293
406,5	26,413
406,9	18,413
407,4	18,493
407,8	19,453
408,3	19,933
408,7	14,253
409,2	16,413
409,6	12,613
410,1	11,773
410,6	14,813
411	16,453
411,5	17,733
411,9	21,613
412,4	26,493
412,8	17,893
413,3	19,573
413,7	25,493
414,2	18,693
414,7	19,093
415,1	24,413
415,6	22,733
416	20,053
416,5	27,533
416,9	21,533
417,4	21,813
417,8	25,373
418,3	24,093
418,8	22,853
419,2	31,493
419,7	35,533
420,1	40,853
420,6	45,173
421	50,453
421,5	43,733
421,9	46,013
422,4	50,773
422,8	52,053
423,3	50,493
423,8	58,413
424,2	58,453
424,7	59,253
425,1	64,053
425,6	64,693
426	66,893
426,5	70,093
426,9	73,653
427,4	81,773
427,9	92,013
428,3	93,293
428,8	99,853
429,2	104,973
429,7	106,133
430,1	111,093
430,6	119,533
431	127,653
431,5	137,133
431,9	137,133
432,4	145,413
432,8	156,493
433,3	164,293
433,8	167,453
434,2	182,893
434,7	188,693
435,1	195,893
435,6	205,253
436	218,333
436,5	228,453
436,9	237,453
437,4	254,333
437,8	266,453
438,3	279,693
438,8	295,653
439,2	311,813
439,7	322,573
440,1	330,533
440,6	339,493
441	354,693
441,5	373,053
441,9	380,693
442,4	394,693
442,8	412,733
443,3	425,053
443,7	441,973
444,2	465,533
444,7	487,413
445,1	510,973
445,6	528,693
446	542,613
446,5	561,093
446,9	583,053
447,4	598,253
447,8	618,973
448,3	641,613
448,7	661,773
449,2	683,293
449,6	704,213
450,1	727,933
450,6	753,853
451	772,893
451,5	799,013
451,9	822,933
452,4	843,413
452,8	866,413
453,3	892,573
453,7	917,653
454,2	950,773
454,6	982,333
455,1	1010,813
455,5	1044,093
456	1067,853
456,4	1089,613
456,9	1122,733
457,3	1157,173
457,8	1184,493
458,3	1216,213
458,7	1247,173
459,2	1272,173
459,6	1296,773
460,1	1324,653
460,5	1355,973
461	1388,373
461,4	1418,253
461,9	1450,333
462,3	1483,693
462,8	1511,413
463,2	1547,773
463,7	1569,893
464,1	1598,573
464,6	1629,613
465	1654,533
465,5	1677,093
466	1709,853
466,4	1731,933
466,9	1759,093
467,3	1790,573
467,8	1816,933
468,2	1847,173
468,7	1877,093
469,1	1895,293
469,6	1919,613
470	1939,973
470,5	1956,653
470,9	1975,573
471,4	1994,893
471,8	2026,013
472,3	2043,573
472,7	2068,853
473,2	2095,293
473,6	2117,933
474,1	2128,173
474,5	2147,493
475	2161,533
475,4	2172,173
475,9	2192,053
476,4	2201,253
476,8	2221,613
477,3	2240,693
477,7	2253,533
478,2	2264,773
478,6	2279,453
479,1	2293,613
479,5	2294,693
480	2306,413
480,4	2316,533
480,9	2325,853
481,3	2325,333
481,8	2340,733
482,2	2338,613
482,7	2337,813
483,1	2334,533
483,6	2337,533
484	2335,253
484,5	2340,253
484,9	2339,773
485,4	2348,973
485,8	2349,733
486,3	2337,573
486,7	2338,893
487,2	2336,573
487,6	2330,133
488,1	2329,773
488,5	2332,853
489	2327,133
489,4	2328,093
489,9	2312,173
490,4	2294,893
490,8	2284,413
491,3	2270,973
491,7	2248,853
492,2	2240,493
492,6	2233,533
493,1	2218,693
493,5	2213,493
494	2204,053
494,4	2192,213
494,9	2176,093
495,3	2169,173
495,8	2143,853
496,2	2135,853
496,7	2130,573
497,1	2124,973
497,6	2110,293
498	2095,973
498,5	2077,973
498,9	2061,573
499,4	2036,853
499,8	2021,453
500,3	2008,213
500,7	1988,613
501,2	1971,253
501,6	1961,213
502,1	1944,253
502,5	1931,173
503	1913,533
503,4	1892,253
503,9	1875,573
504,3	1856,933
504,8	1839,213
505,2	1829,253
505,7	1818,693
506,1	1804,693
506,6	1787,133
507	1766,093
507,5	1748,893
507,9	1726,973
508,4	1698,493
508,8	1690,253
509,3	1675,613
509,7	1658,493
510,2	1644,333
510,6	1638,053
511,1	1613,013
511,5	1600,973
512	1578,133
512,4	1562,093
512,9	1545,853
513,3	1535,373
513,8	1519,133
514,2	1506,653
514,7	1493,693
515,1	1469,933
515,6	1447,333
516	1428,413
516,5	1417,373
516,9	1403,893
517,4	1392,613
517,8	1377,173
518,3	1361,973
518,7	1347,813
519,2	1327,333
519,6	1309,933
520,1	1301,933
520,5	1290,013
521	1268,093
521,4	1250,333
521,9	1238,253
522,3	1223,933
522,8	1212,013
523,2	1205,973
523,7	1198,333
524,1	1178,773
524,6	1162,253
525	1144,213
525,5	1125,533
525,9	1109,093
526,4	1104,853
526,8	1088,933
527,3	1073,653
527,7	1064,573
528,2	1049,333
528,6	1034,133
529,1	1031,213
529,5	1026,733
530	1018,053
530,4	1009,733
530,9	998,093
531,3	986,933
531,8	979,853
532,2	967,893
532,6	960,613
533,1	947,293
533,5	936,413
534	917,413
534,4	906,013
534,9	890,133
535,3	884,173
535,8	870,933
536,2	859,573
536,7	848,733
537,1	844,853
537,6	836,613
538	828,293
538,5	828,213
538,9	817,893
539,4	807,253
539,8	796,093
540,3	787,533
540,7	768,813
541,2	762,093
541,6	754,373
542,1	740,133
542,5	727,653
543	721,373
543,4	705,853
543,9	691,733
544,3	687,733
544,8	682,893
545,2	672,973
545,7	669,493
546,1	667,093
546,5	660,493
547	653,853
547,4	646,853
547,9	639,533
548,3	632,453
548,8	629,973
549,2	622,133
549,7	624,733
550,1	622,293
550,6	611,733
551	597,413
551,5	590,373
551,9	573,773
552,4	565,613
552,8	563,453
553,3	561,733
553,7	556,413
554,2	552,453
554,6	543,813
555,1	539,453
555,5	540,333
555,9	534,493
556,4	527,853
556,8	527,253
557,3	521,613
557,7	510,093
558,2	505,813
558,6	506,093
559,1	494,653
559,5	489,493
560	484,533
560,4	482,133
560,9	476,733
561,3	478,293
561,8	470,733
562,2	469,373
562,7	462,893
563,1	457,653
563,6	451,973
564	451,453
564,4	445,253
564,9	439,773
565,3	438,533
565,8	432,973
566,2	426,733
566,7	423,293
567,1	418,613
567,6	416,133
568	416,493
568,5	414,213
568,9	408,653
569,4	405,893
569,8	401,813
570,3	395,893
570,7	390,253
571,1	394,453
571,6	395,373
572	386,653
572,5	389,133
572,9	380,693
573,4	372,213
573,8	362,373
574,3	360,813
574,7	350,573
575,2	347,013
575,6	340,173
576,1	334,613
576,5	334,013
576,9	332,253
577,4	332,493
577,8	327,413
578,3	323,133
578,7	320,253
579,2	312,493
579,6	312,293
580,1	315,213
580,5	320,733
581	316,813
581,4	316,213
581,9	309,573
582,3	308,453
582,7	300,333
583,2	296,093
583,6	294,013
584,1	290,533
584,5	287,333
585	283,933
585,4	283,733
585,9	280,413
586,3	278,413
586,8	272,853
587,2	275,413
587,6	271,373
588,1	269,893
588,5	267,493
589	266,413
589,4	257,533
589,9	253,733
590,3	252,573
590,8	251,413
591,2	246,573
591,7	250,933
592,1	249,053
592,5	246,253
593	239,933
593,4	240,813
593,9	229,133
594,3	229,333
594,8	225,933
595,2	233,013
595,7	222,573
596,1	232,173
596,6	229,573
597	229,293
597,4	222,653
597,9	230,413
598,3	227,333
598,8	226,813
599,2	226,213
599,7	222,453
600,1	218,813
600,6	217,093
601	212,453
601,4	211,413
601,9	212,773
602,3	212,253
602,8	207,533
603,2	205,813
603,7	207,293
604,1	205,813
604,6	199,093
605	204,573
605,4	207,693
605,9	198,173
606,3	197,293
606,8	198,573
607,2	190,573
607,7	183,733
608,1	188,973
608,6	186,973
609	192,373
609,4	190,733
609,9	195,733
610,3	195,373
610,8	197,093
611,2	180,333
611,7	180,333
612,1	173,613
612,6	168,213
613	167,933
613,4	171,453
613,9	169,653
614,3	167,693
614,8	168,373
615,2	162,693
615,7	165,653
616,1	164,973
616,6	162,853
617	158,653
617,4	159,293
617,9	155,893
618,3	156,613
618,8	152,613
619,2	157,533
619,7	163,693
620,1	161,173
620,5	151,973
621	159,173
621,4	153,053
621,9	146,173
622,3	144,853
622,8	155,613
623,2	153,013
623,6	156,733
624,1	151,533
624,5	155,253
625	146,613
625,4	139,893
625,9	135,813
626,3	139,533
626,8	135,093
627,2	133,693
627,6	140,693
628,1	136,693
628,5	131,333
629	132,893
629,4	132,293
629,9	123,693
630,3	124,533
630,7	123,533
631,2	120,133
631,6	119,213
632,1	118,693
632,5	117,853
633	117,973
633,4	114,733
633,8	114,933
634,3	112,813
634,7	117,253
635,2	112,253
635,6	112,773
636,1	115,693
636,5	122,093
636,9	113,133
637,4	119,933
637,8	120,613
638,3	114,413
638,7	110,893
639,2	113,413
639,6	111,333
640	108,773
640,5	110,333
640,9	109,013
641,4	106,693
641,8	104,773
642,2	108,533
642,7	107,213
643,1	108,613
643,6	99,053
644	96,093
644,5	96,493
644,9	100,053
645,3	101,093
645,8	110,973
646,2	105,333
646,7	100,653
647,1	96,093
647,6	95,613
648	91,213
648,4	97,413
648,9	98,893
649,3	95,413
649,8	94,013
650,2	96,773
650,6	89,893
651,1	91,213
651,5	93,493
652	93,693
652,4	88,373
652,9	96,973
653,3	92,653
653,7	94,973
654,2	94,653
654,6	103,253
655,1	97,813
655,5	97,173
655,9	93,013
656,4	83,573
656,8	75,133
657,3	73,693
657,7	77,493
658,2	79,133
658,6	81,373
659	83,453
659,5	84,533
659,9	81,093
660,4	78,493
660,8	79,173
661,2	75,773
661,7	78,573
662,1	76,933
662,6	74,533
663	71,893
663,4	71,493
663,9	62,373
664,3	62,093
664,8	61,693
665,2	64,773
665,6	73,093
666,1	75,453
666,5	75,373
667	81,973
667,4	77,293
667,9	66,893
668,3	68,813
668,7	68,973
669,2	62,093
669,6	63,773
670,1	68,093
670,5	68,653
670,9	65,693
671,4	66,373
671,8	68,333
672,3	68,053
672,7	70,253
673,1	68,973
673,6	65,093
674	62,213
674,5	57,453
674,9	55,533
675,3	57,213
675,8	57,333
676,2	56,493
676,7	59,293
677,1	52,373
677,5	54,653
678	56,373
678,4	63,373
678,9	58,213
679,3	61,133
679,7	59,253
680,2	60,773
680,6	48,253
681,1	46,973
681,5	51,573
681,9	48,933
682,4	43,973
682,8	50,853
683,3	55,093
683,7	48,573
684,1	46,773
684,6	52,053
685	52,453
685,5	52,133
685,9	55,373
686,3	57,493
686,8	51,813
687,2	47,213
687,7	47,453
688,1	46,053
688,5	47,773
689	49,453
689,4	49,333
689,9	48,613
690,3	49,373
690,7	46,253
691,2	47,493
691,6	45,973
692	47,813
692,5	50,613
692,9	50,693
693,4	50,533
693,8	54,413
694,2	51,133
694,7	44,773
695,1	42,293
695,6	39,173
696	39,373
696,4	41,013
696,9	45,093
697,3	48,133
697,8	49,813
698,2	45,933
698,6	45,613
699,1	38,533
699,5	42,653
699,9	42,333
700,4	45,053
700,8	44,653
701,3	47,453
701,7	41,533
702,1	40,253
702,6	34,573
703	41,133
703,5	42,573
703,9	39,053
704,3	41,533
704,8	49,453
705,2	38,173
705,6	38,853
706,1	36,533
706,5	30,773
707	30,693
707,4	37,253
707,8	30,653
708,3	35,533
708,7	39,493
709,2	30,533
709,6	23,733
710	27,413
710,5	26,693
710,9	24,333
711,3	22,493
711,8	24,253
712,2	26,573
712,7	21,533
713,1	26,493
713,5	34,253
714	34,733
714,4	32,653
714,8	39,853
715,3	36,933
715,7	34,773
716,2	34,053
716,6	31,813
717	34,613
717,5	32,573
717,9	33,013
718,3	31,333
718,8	35,213
719,2	27,893
719,7	24,693
720,1	23,493
720,5	25,133
721	19,573
721,4	20,133
721,8	23,693
722,3	23,333
722,7	19,533
723,2	21,493
723,6	21,013
724	20,893
724,5	22,373
724,9	30,333
725,3	26,773
725,8	31,093
726,2	28,453
726,7	28,853
727,1	24,173
727,5	30,253
728	28,293
728,4	29,813
728,8	27,133
729,3	29,093
729,7	26,973
730,1	25,453
730,6	27,653
731	31,333
731,5	30,413
731,9	31,733
732,3	31,973
732,8	32,133
733,2	29,773
733,6	30,813
734,1	28,413
734,5	27,373
734,9	24,773
735,4	23,013
735,8	18,213
736,3	17,493
736,7	19,093
737,1	23,973
737,6	27,133
738	31,493
738,4	36,453
738,9	34,173
739,3	31,293
739,7	28,653
740,2	19,933
740,6	11,453
741,1	12,693
741,5	11,093
741,9	13,213
742,4	14,133
742,8	15,493
743,2	14,693
743,7	15,173
744,1	16,573
744,5	14,533
745	19,453
745,4	19,413
745,8	19,613
746,3	17,693
746,7	22,253
747,2	19,173
747,6	17,013
748	15,933
748,5	17,373
748,9	17,093
749,3	16,933
749,8	19,773
750,2	16,373
750,6	12,573
751,1	15,733
751,5	12,853
751,9	15,573
752,4	19,053
752,8	21,533
753,3	18,853
753,7	25,253
754,1	19,493
754,6	20,813
755	17,413
755,4	18,933
755,9	18,133
756,3	19,613
756,7	18,013
757,2	15,533
757,6	13,893
758	13,693
758,5	14,533
758,9	12,133
759,3	15,293
759,8	15,373
760,2	9,253
760,6	6,093
761,1	6,813
761,5	7,213
761,9	7,133
762,4	10,293
762,8	12,293
763,3	10,613
763,7	6,573
764,1	5,693
764,6	8,133
765	10,653
765,4	8,973
765,9	10,133
766,3	6,173
766,7	-0,307
767,2	-3,227
767,6	-0,627
768	2,693
768,5	2,293
768,9	5,773
769,3	5,453
769,8	4,013
770,2	0,293
770,6	5,013
771,1	6,973
771,5	1,773
771,9	9,933
772,4	10,893
772,8	14,853
773,2	10,573
773,7	18,453
774,1	10,933
774,5	7,813
775	2,333
775,4	7,933
775,8	4,493
776,3	4,853
776,7	9,813
777,1	10,653
777,6	7,093
778	8,853
778,4	12,613
778,9	8,853
779,3	5,013
779,7	5,093
780,2	6,013
780,6	0,453
781	5,533
781,5	8,813
781,9	6,213
782,3	-0,227
782,8	1,293
783,2	-1,227
783,6	0,373
784,1	-0,307
784,5	0,453
784,9	0,573
785,4	5,293
785,8	7,653
786,2	1,373
786,7	4,853
787,1	-1,147
787,5	-9,907
788	-12,107
788,4	-5,027
788,8	-6,907
789,3	1,773
789,7	9,053
790,1	4,373
790,6	1,133
791	-2,027
791,4	-1,587
791,9	-9,507
792,3	-7,067
792,7	-4,907
793,2	-1,427
793,6	-8,747
794	-4,587
794,5	-4,987
794,9	-1,107
795,3	-1,347
795,8	4,253
796,2	0,093
796,6	-1,267
797,1	-8,667
797,5	-10,467
797,9	-11,307
798,4	-10,187
798,8	-7,707
799,2	-5,027
799,7	-8,107
800,1	-8,467
800,5	-5,947
801	-10,067
801,4	-8,587
801,8	-2,427
802,2	-4,147
802,7	-2,987
803,1	-2,067
803,5	-6,907
804	-7,107
804,4	-8,187
804,8	-12,827
805,3	-9,627
805,7	-4,547
806,1	-6,747
806,6	-4,627
807	-6,107
807,4	-7,627
807,9	-5,627
808,3	-5,547
808,7	-10,147
809,2	-3,707
809,6	-0,827
810	-6,147
810,4	-6,107
810,9	-7,307
811,3	-12,787
811,7	-15,627
812,2	-9,867
812,6	-14,307
813	-9,827
813,5	-2,307
813,9	-6,547
814,3	-12,987
814,8	-6,987
815,2	-12,827
815,6	-23,587
816,1	-19,907
816,5	-16,627
816,9	-15,027
817,3	-10,587
817,8	-9,387
818,2	-10,787
818,6	-7,867
819,1	-15,347
819,5	-11,507
819,9	-6,827
820,4	-7,507
820,8	-9,707
821,2	-7,147
821,7	-6,987
822,1	-6,947
822,5	-7,347
822,9	-12,467
823,4	-6,067
823,8	-13,667
824,2	-16,787
824,7	-19,827
825,1	-16,947
825,5	-23,947
826	-23,307
826,4	-28,667
826,8	-24,427
827,3	-25,747
827,7	-27,427
828,1	-27,187
828,5	-22,667
829	-21,187
829,4	-20,907
829,8	-18,827
830,3	-16,907
830,7	-13,227
831,1	-19,507
831,6	-14,907
832	-11,587
832,4	-10,707
832,8	-13,227
833,3	-9,387
833,7	-9,827
834,1	-19,587
834,6	-22,227
835	-22,267
835,4	-21,707
835,8	-23,907
836,3	-16,067
836,7	-13,347
837,1	-16,107
837,6	-16,627
838	-17,627
838,4	-21,627
838,9	-24,307
839,3	-24,827
839,7	-22,467
840,1	-19,387
840,6	-21,507
841	-20,067
841,4	-14,747
841,9	-17,267
842,3	-21,507
842,7	-18,827
843,1	-15,547
843,6	-26,587
844	-23,267
844,4	-20,427
844,9	-17,387
845,3	-22,347
845,7	-11,027
846,2	-12,227
846,6	-12,387
847	-14,947
847,4	-17,787
847,9	-16,907
848,3	-23,027
848,7	-25,987
849,2	-23,747
849,6	-19,867
850	-20,507
850,4	-15,867
850,9	-15,987
851,3	-16,787
851,7	-19,787
852,2	-21,387
852,6	-20,387
853	-17,907
853,4	-14,987
853,9	-10,907
854,3	-7,467
854,7	-4,507
855,2	-4,147
855,6	-8,067
856	-7,787
856,4	-17,947
856,9	-23,827
857,3	-26,867
857,7	-24,467
858,2	-23,987
858,6	-19,307
859	-16,187
859,4	-12,547
859,9	-16,147
860,3	-17,347
860,7	-18,107
861,1	-20,027
861,6	-22,827
862	-24,747
862,4	-26,267
862,9	-24,227
863,3	-25,347
863,7	-24,147
864,1	-18,947
864,6	-19,267
865	-17,267
865,4	-18,787
865,9	-21,667
866,3	-26,147
866,7	-21,707
867,1	-21,587
867,6	-23,667
868	-24,267
868,4	-19,427
868,8	-20,947
869,3	-24,787
869,7	-20,347
870,1	-21,347
870,6	-26,627
871	-25,547
871,4	-38,147
871,8	-40,707
872,3	-35,707
872,7	-32,947
873,1	-29,467
873,5	-14,387
874	-8,187
874,4	-7,827
874,8	-9,787
875,3	-13,707
875,7	-10,667
876,1	-15,387
876,5	-18,547
877	-11,667
877,4	-15,987
877,8	-16,107
878,2	-13,467
878,7	-7,547
879,1	-11,547
879,5	-6,987
879,9	-8,867
880,4	-7,027
880,8	-12,547
881,2	-13,387
881,7	-16,827
882,1	-19,427
882,5	-22,067
882,9	-17,747
883,4	-18,107
883,8	-17,107
884,2	-12,707
884,6	-10,867
885,1	-14,187
885,5	-12,107
885,9	-13,227
886,3	-19,067
886,8	-19,187
887,2	-16,587
887,6	-17,027
888	-20,987
888,5	-19,547
888,9	-21,147
889,3	-23,627
889,8	-29,307
890,2	-22,347
890,6	-21,427
891	-23,667
891,5	-23,707
891,9	-21,387
892,3	-25,027
892,7	-25,907
893,2	-19,587
893,6	-18,227
894	-14,987
894,4	-18,387
894,9	-19,187
895,3	-23,347
895,7	-20,947
896,1	-18,627
896,6	-11,587
897	-8,387
897,4	-8,867
897,8	-12,067
898,3	-15,347
898,7	-13,747
899,1	-18,747
899,5	-19,747
900	-25,227
900,4	-23,387
900,8	-28,547
901,2	-19,627
901,7	-20,507
902,1	-18,387
902,5	-18,787
902,9	-18,227
903,4	-22,227
903,8	-20,467
904,2	-10,787
904,6	-16,187
905,1	-15,507
905,5	-21,227
905,9	-21,387
906,3	-28,387
906,8	-22,587
907,2	-20,307
907,6	-18,307
908	-19,187
908,5	-18,067
908,9	-20,387
909,3	-26,267
909,7	-26,827
910,2	-23,627
910,6	-27,427
911	-24,427
911,4	-25,907
911,9	-25,307
912,3	-23,707
912,7	-21,067
913,1	-23,587
913,6	-20,667
914	-23,467
914,4	-29,187
914,8	-35,427
915,3	-35,507
915,7	-32,187
916,1	-28,427
916,5	-24,027
916,9	-18,547
917,4	-16,587
917,8	-15,507
918,2	-15,227
918,6	-22,347
919,1	-19,787
919,5	-23,907
919,9	-22,067
920,3	-22,227
920,8	-13,307
921,2	-19,507
921,6	-19,387
922	-27,467
922,5	-25,987
922,9	-32,947
923,3	-24,707
923,7	-22,667
924,2	-19,387
924,6	-24,747
925	-24,187
925,4	-28,907
925,8	-31,547
926,3	-28,027
926,7	-28,347
927,1	-24,547
927,5	-28,267
928	-32,227
928,4	-37,707
928,8	-30,147
929,2	-36,067
929,7	-27,507
930,1	-20,427
930,5	-10,867
930,9	-11,067
931,3	-9,067
931,8	-21,187
932,2	-20,667
932,6	-33,027
933	-37,907
933,5	-35,667
933,9	-21,507
934,3	-28,387
934,7	-23,027
935,2	-16,467
935,6	-17,107
936	-26,467
936,4	-25,027
936,8	-29,067
937,3	-36,387
937,7	-32,187
938,1	-28,987
938,5	-27,627
939	-28,987
939,4	-25,267
939,8	-29,907
940,2	-30,747
940,6	-33,307
941,1	-32,747
941,5	-36,027
941,9	-36,907
942,3	-34,507
942,8	-32,987
943,2	-29,307
943,6	-33,787
944	-34,947
944,4	-40,627
944,9	-39,307
945,3	-38,547
945,7	-32,907
946,1	-31,507
946,6	-31,547
947	-27,827
947,4	-30,427
947,8	-24,787
948,2	-24,347
948,7	-20,827
949,1	-14,947
949,5	-13,827
949,9	-20,187
950,3	-16,547
950,8	-13,707
951,2	-20,187
951,6	-21,947
952	-17,947
952,5	-22,947
952,9	-23,947
953,3	-29,787
953,7	-24,027
954,1	-24,467
954,6	-20,427
955	-18,987
955,4	-14,107
955,8	-11,987
956,2	-15,427
956,7	-17,147
957,1	-27,387
957,5	-28,267
957,9	-32,387
958,3	-31,067
958,8	-32,227
959,2	-26,627
959,6	-25,587
960	-23,827
960,5	-22,187
960,9	-19,827
961,3	-17,787
961,7	-15,907
962,1	-18,307
962,6	-18,507
963	-20,467
963,4	-20,707
963,8	-20,947
964,2	-25,947
964,7	-27,627
965,1	-30,547
965,5	-36,987
965,9	-42,987
966,3	-33,867
966,8	-29,107
967,2	-27,987
967,6	-25,027
968	-21,987
968,4	-24,467
968,9	-31,267
969,3	-23,147
969,7	-22,667
970,1	-25,747
970,5	-30,067
971	-29,507
971,4	-33,347
971,8	-28,347
972,2	-27,107
972,6	-28,467
973,1	-27,507
973,5	-34,067
973,9	-39,387
974,3	-36,147
974,7	-29,707
975,2	-27,867
975,6	-24,827
976	-22,147
976,4	-23,547
976,8	-22,427
977,3	-24,507
977,7	-21,267
978,1	-18,507
978,5	-17,707
978,9	-22,987
979,4	-19,707
979,8	-22,107
980,2	-26,867
980,6	-22,507
981	-21,267
981,5	-20,867
981,9	-24,067
982,3	-21,507
982,7	-26,147
983,1	-21,387
983,6	-22,227
984	-15,747
984,4	-16,787
984,8	-19,467
985,2	-20,267
985,6	-21,107
986,1	-24,907
986,5	-20,627
986,9	-16,227
987,3	-22,667
987,7	-20,347
988,2	-22,987
988,6	-21,347
989	-23,747
989,4	-26,827
989,8	-32,987
990,3	-32,667
990,7	-44,747
991,1	-43,107
991,5	-32,467
991,9	-32,187
992,3	-28,667
992,8	-18,307
993,2	-17,707
993,6	-22,547
994	-22,347
994,4	-18,147
994,9	-17,027
995,3	-23,907
995,7	-27,067
996,1	-24,387
996,5	-25,227
996,9	-30,787
997,4	-29,667
997,8	-26,907
998,2	-23,387
998,6	-29,147
999	-28,027
999,5	-26,547
999,9	-22,387
1000,3	-28,507
1000,7	-30,147
1001,1	-32,467
1001,5	-33,867
1002	-41,827
1002,4	-42,827
1002,8	-46,907
1003,2	-43,507
1003,6	-39,067
1004	-31,867
1004,5	-31,227
1004,9	-22,187
1005,3	-30,067
1005,7	-32,707
1006,1	-36,587
1006,6	-38,267
1007	-39,027
1007,4	-28,707
1007,8	-29,347
1008,2	-27,907
1008,6	-19,467
1009,1	-21,347
1009,5	-27,187
1009,9	-26,787
1010,3	-25,827
1010,7	-29,627
1011,1	-24,307
1011,6	-18,547
1012	-14,147
1012,4	-16,307
1012,8	-17,427
1013,2	-21,907
1013,6	-26,907
1014,1	-26,987
1014,5	-22,907
1014,9	-22,587
1015,3	-21,867
1015,7	-17,547
1016,1	-25,067
1016,6	-30,827
1017	-29,947
1017,4	-24,947
1017,8	-30,787
1018,2	-25,867
1018,6	-32,587
1019,1	-33,147
1019,5	-31,227
1019,9	-26,707
1020,3	-26,467
1020,7	-20,987
1021,1	-21,747
1021,6	-27,227
1022	-30,387
1022,4	-31,027
1022,8	-23,747
1023,2	-24,067
1023,6	-27,307
1024,1	-28,627
1024,5	-30,387
1024,9	-34,027
1025,3	-35,307
1025,7	-32,347
1026,1	-27,347
1026,6	-28,507
1027	-29,427
1027,4	-28,107
1027,8	-23,787
1028,2	-34,547
1028,6	-26,707
1029	-25,107
1029,5	-22,427
1029,9	-29,267
1030,3	-23,147
1030,7	-27,627
1031,1	-30,627
1031,5	-33,147
1032	-34,027
1032,4	-29,227
1032,8	-30,187
1033,2	-25,987
1033,6	-26,547
1034	-24,747
1034,4	-30,547
1034,9	-31,707
1035,3	-37,467
1035,7	-40,427
1036,1	-44,107
1036,5	-38,547
1036,9	-33,907
1037,4	-30,387
1037,8	-23,667
1038,2	-22,787
1038,6	-27,587
1039	-31,187
1039,4	-28,907
1039,8	-35,467
1040,3	-38,267
1040,7	-35,787
1041,1	-37,987
1041,5	-42,627
1041,9	-43,507
1042,3	-38,227
1042,7	-37,387
1043,2	-33,867
1043,6	-30,707
1044	-28,387
1044,4	-24,867
1044,8	-22,027
1045,2	-25,987
1045,6	-22,667
1046,1	-20,067
1046,5	-22,427
1046,9	-26,547
1047,3	-20,467
1047,7	-24,427
1048,1	-28,147
1048,5	-32,387
1049	-34,667
1049,4	-38,187
1049,8	-38,227
1050,2	-33,947
1050,6	-23,707
1051	-18,547
1051,4	-20,107
1051,9	-24,707
1052,3	-29,747
1052,7	-43,547
1053,1	-52,307
1053,5	-53,867
1053,9	-49,667
1054,3	-47,227
1054,8	-44,427
1055,2	-41,387
1055,6	-35,387
1056	-36,187
1056,4	-33,987
1056,8	-30,627
1057,2	-27,587
1057,6	-25,627
1058,1	-29,267
1058,5	-32,747
1058,9	-32,147
1059,3	-33,587
1059,7	-38,587
1060,1	-32,587
1060,5	-32,387
1061	-29,467
1061,4	-27,467
1061,8	-23,147
1062,2	-27,507
1062,6	-25,427
1063	-30,987
1063,4	-30,507
1063,8	-30,227
1064,3	-24,467
1064,7	-23,587
1065,1	-18,587
1065,5	-16,587
1065,9	-22,507
1066,3	-29,267
1066,7	-33,547
1067,1	-38,347
1067,6	-36,707
1068	-34,227
1068,4	-25,827
1068,8	-24,227
1069,2	-18,587
1069,6	-25,067
1070	-18,467
1070,4	-24,867
1070,9	-24,707
1071,3	-27,187
1071,7	-23,987
1072,1	-32,747
1072,5	-29,107
1072,9	-28,987
1073,3	-29,267
1073,7	-30,507
1074,2	-31,747
1074,6	-31,827
1075	-30,427
1075,4	-28,787
1075,8	-31,147
1076,2	-27,987
1076,6	-26,147
1077	-26,987
1077,5	-28,387
1077,9	-26,267
1078,3	-28,427
1078,7	-27,747
1079,1	-27,667
1079,5	-32,147
1079,9	-30,707
1080,3	-30,307
1080,7	-31,627
1081,2	-33,947
1081,6	-24,427
1082	-29,347
1082,4	-25,947
1082,8	-25,467
1083,2	-17,667
1083,6	-25,947
1084	-13,747
1084,5	-14,387
1084,9	-16,427
1085,3	-17,147
1085,7	-14,427
1086,1	-24,867
1086,5	-26,907
1086,9	-31,427
1087,3	-37,347
1087,7	-36,587
1088,2	-31,147
1088,6	-30,067
1089	-29,827
1089,4	-27,347
1089,8	-30,347
1090,2	-33,707
1090,6	-31,667
1091	-23,147
1091,4	-21,227
1091,9	-11,627
1092,3	-11,107
1092,7	-9,587
1093,1	-11,347
1093,5	-10,387
1093,9	-21,947
1094,3	-21,267
1094,7	-20,747
1095,1	-21,107
1095,5	-24,347
1096	-19,027
1096,4	-22,227
1096,8	-22,667
1097,2	-24,027
1097,6	-17,787
1098	-15,667
1098,4	-14,587
1098,8	-13,867
1099,2	-13,227
1099,6	-16,347
1100,1	-16,107
1100,5	-11,307
1100,9	-13,027
1101,3	-12,267
1101,7	-14,867
1102,1	-17,307
1102,5	-19,467
1102,9	-22,907
1103,3	-23,987
1103,7	-20,947
1104,2	-21,467
1104,6	-21,947
1105	-17,507
1105,4	-20,787
1105,8	-19,987
1106,2	-14,907
1106,6	-11,427
1107	-7,747
1107,4	-0,867
1107,8	0,583
1108,3	0,667
