Data from Subt2_00023.txt Node
Date: Fri Aug 11 15:37:43 MSK 2023
User: vat
Spectrometer: MAYP114033
Trigger mode: 0
Integration Time (sec): 5,000000E-1
Scans to average: 5
Electric dark correction enabled: true
Nonlinearity correction enabled: false
Boxcar width: 2
XAxis mode: Wavelengths
Number of Pixels in Spectrum: 2068
>>>>>Begin Spectral Data<<<<<
199,4	1,067
199,9	0,717
200,4	-9,133
200,8	-15,293
201,3	-26,693
201,8	-32,493
202,2	-36,573
202,7	-35,613
203,2	-37,613
203,6	-35,333
204,1	-37,813
204,6	-43,653
205	-46,653
205,5	-51,813
206	-47,933
206,4	-49,973
206,9	-55,093
207,4	-57,093
207,8	-48,813
208,3	-49,053
208,8	-49,773
209,2	-45,213
209,7	-40,973
210,2	-48,613
210,6	-49,813
211,1	-50,413
211,5	-49,293
212	-52,533
212,5	-51,053
212,9	-57,453
213,4	-52,933
213,9	-54,573
214,3	-52,293
214,8	-54,893
215,3	-47,853
215,7	-52,493
216,2	-55,733
216,7	-53,813
217,1	-53,573
217,6	-61,053
218,1	-59,733
218,5	-54,733
219	-55,653
219,5	-54,693
219,9	-52,333
220,4	-51,933
220,9	-52,253
221,3	-52,893
221,8	-51,613
222,3	-53,493
222,7	-57,413
223,2	-59,253
223,6	-62,293
224,1	-65,333
224,6	-67,973
225	-65,893
225,5	-68,173
226	-66,533
226,4	-60,893
226,9	-54,013
227,4	-51,573
227,8	-49,213
228,3	-52,093
228,8	-55,373
229,2	-58,813
229,7	-63,813
230,2	-65,733
230,6	-63,893
231,1	-65,493
231,5	-61,733
232	-52,933
232,5	-46,973
232,9	-43,373
233,4	-42,293
233,9	-44,053
234,3	-50,053
234,8	-56,053
235,3	-59,173
235,7	-61,173
236,2	-65,573
236,7	-71,253
237,1	-67,693
237,6	-69,493
238,1	-67,413
238,5	-66,373
239	-65,053
239,4	-66,893
239,9	-61,973
240,4	-62,573
240,8	-57,053
241,3	-57,813
241,8	-60,573
242,2	-63,373
242,7	-62,933
243,2	-61,733
243,6	-60,173
244,1	-55,373
244,6	-51,293
245	-49,013
245,5	-54,293
245,9	-50,413
246,4	-52,773
246,9	-60,693
247,3	-64,773
247,8	-67,533
248,3	-68,613
248,7	-60,893
249,2	-54,453
249,7	-49,973
250,1	-47,933
250,6	-47,453
251	-55,853
251,5	-59,613
252	-64,333
252,4	-60,773
252,9	-63,253
253,4	-62,013
253,8	-62,813
254,3	-63,493
254,8	-67,053
255,2	-66,093
255,7	-67,773
256,1	-58,053
256,6	-48,853
257,1	-50,413
257,5	-47,213
258	-42,293
258,5	-46,093
258,9	-50,773
259,4	-47,653
259,9	-51,933
260,3	-58,573
260,8	-60,093
261,2	-63,453
261,7	-66,613
262,2	-63,133
262,6	-62,373
263,1	-71,173
263,6	-68,213
264	-67,853
264,5	-64,693
264,9	-64,533
265,4	-63,853
265,9	-61,013
266,3	-56,973
266,8	-59,213
267,3	-54,653
267,7	-45,613
268,2	-49,733
268,7	-49,373
269,1	-53,853
269,6	-56,733
270	-53,933
270,5	-54,773
271	-61,973
271,4	-58,053
271,9	-58,653
272,4	-64,133
272,8	-66,173
273,3	-65,973
273,7	-69,133
274,2	-68,893
274,7	-70,133
275,1	-68,213
275,6	-63,053
276,1	-66,933
276,5	-71,773
277	-71,613
277,4	-77,693
277,9	-80,053
278,4	-73,693
278,8	-69,173
279,3	-69,053
279,8	-62,133
280,2	-57,893
280,7	-61,293
281,1	-58,173
281,6	-58,613
282,1	-59,973
282,5	-70,013
283	-69,693
283,4	-70,893
283,9	-65,733
284,4	-61,933
284,8	-51,293
285,3	-50,013
285,8	-51,413
286,2	-58,613
286,7	-60,133
287,1	-62,773
287,6	-65,373
288,1	-62,413
288,5	-58,493
289	-57,773
289,5	-57,613
289,9	-51,373
290,4	-52,773
290,8	-51,533
291,3	-50,213
291,8	-50,253
292,2	-55,093
292,7	-60,573
293,1	-63,253
293,6	-72,333
294,1	-68,773
294,5	-70,693
295	-63,573
295,5	-60,693
295,9	-52,133
296,4	-61,173
296,8	-63,333
297,3	-61,213
297,8	-64,573
298,2	-64,093
298,7	-65,133
299,1	-55,293
299,6	-58,533
300,1	-56,573
300,5	-55,733
301	-47,693
301,5	-53,053
301,9	-56,853
302,4	-55,413
302,8	-60,053
303,3	-63,373
303,8	-63,773
304,2	-59,813
304,7	-69,213
305,1	-68,933
305,6	-70,973
306,1	-72,413
306,5	-77,893
307	-65,893
307,4	-61,973
307,9	-55,013
308,4	-52,413
308,8	-51,613
309,3	-60,173
309,8	-61,133
310,2	-61,933
310,7	-63,933
311,1	-57,413
311,6	-53,173
312,1	-51,613
312,5	-53,813
313	-45,333
313,4	-48,213
313,9	-46,533
314,4	-54,733
314,8	-56,693
315,3	-63,093
315,7	-62,093
316,2	-66,133
316,7	-62,813
317,1	-63,693
317,6	-61,973
318	-62,893
318,5	-58,573
319	-58,933
319,4	-58,013
319,9	-55,733
320,3	-53,893
320,8	-65,213
321,3	-64,173
321,7	-55,933
322,2	-52,053
322,6	-52,973
323,1	-43,253
323,6	-40,133
324	-46,413
324,5	-50,693
324,9	-54,213
325,4	-49,893
325,9	-48,693
326,3	-48,133
326,8	-43,813
327,2	-41,493
327,7	-49,773
328,2	-53,413
328,6	-54,013
329,1	-60,333
329,5	-57,213
330	-49,173
330,5	-47,053
330,9	-50,533
331,4	-53,093
331,8	-56,213
332,3	-61,573
332,8	-62,493
333,2	-58,333
333,7	-56,133
334,1	-52,493
334,6	-46,173
335,1	-45,133
335,5	-44,573
336	-45,653
336,4	-46,933
336,9	-53,253
337,4	-54,893
337,8	-54,773
338,3	-51,773
338,7	-55,333
339,2	-56,533
339,7	-55,693
340,1	-62,333
340,6	-61,613
341	-58,373
341,5	-50,973
342	-49,053
342,4	-42,573
342,9	-46,253
343,3	-47,053
343,8	-51,373
344,2	-54,453
344,7	-55,133
345,2	-51,613
345,6	-47,533
346,1	-45,773
346,5	-41,893
347	-42,173
347,5	-45,733
347,9	-46,133
348,4	-43,653
348,8	-41,253
349,3	-34,893
349,8	-25,493
350,2	-18,813
350,7	-12,573
351,1	-5,293
351,6	0,707
352	10,707
352,5	27,467
353	54,827
353,4	78,227
353,9	107,467
354,3	140,227
354,8	182,787
355,3	230,547
355,7	291,107
356,2	362,987
356,6	441,547
357,1	525,227
357,5	624,947
358	732,987
358,5	866,027
358,9	1018,107
359,4	1188,307
359,8	1373,427
360,3	1591,627
360,8	1830,587
361,2	2106,827
361,7	2407,187
362,1	2736,107
362,6	3099,027
363	3486,227
363,5	3886,587
364	4304,107
364,4	4729,227
364,9	5152,547
365,3	5575,627
365,8	5977,307
366,3	6352,427
366,7	6694,307
367,2	6992,987
367,6	7228,027
368,1	7415,787
368,5	7534,027
369	7588,067
369,5	7583,947
369,9	7511,307
370,4	7376,307
370,8	7202,787
371,3	6974,827
371,7	6702,387
372,2	6407,627
372,7	6084,107
373,1	5738,627
373,6	5389,187
374	5029,267
374,5	4677,587
374,9	4339,067
375,4	4013,587
375,9	3700,587
376,3	3410,427
376,8	3128,427
377,2	2860,107
377,7	2607,387
378,2	2376,987
378,6	2164,307
379,1	1976,547
379,5	1799,467
380	1641,307
380,4	1496,707
380,9	1368,267
381,4	1243,947
381,8	1136,107
382,3	1039,867
382,7	955,067
383,2	874,067
383,6	803,267
384,1	738,907
384,6	682,107
385	625,787
385,5	575,907
385,9	529,707
386,4	489,187
386,8	451,547
387,3	412,947
387,7	374,227
388,2	343,067
388,7	319,187
389,1	285,107
389,6	259,427
390	237,987
390,5	212,987
390,9	186,947
391,4	167,067
391,9	148,547
392,3	131,427
392,8	116,387
393,2	103,427
393,7	90,507
394,1	82,827
394,6	68,507
395,1	63,707
395,5	55,107
396	52,227
396,4	44,627
396,9	38,307
397,3	28,187
397,8	16,307
398,2	7,307
398,7	0,387
399,2	-5,933
399,6	-6,493
400,1	-10,653
400,5	-8,453
401	-9,173
401,4	-6,893
401,9	-10,053
402,4	-10,253
402,8	-18,213
403,3	-18,693
403,7	-21,693
404,2	-25,453
404,6	-31,893
405,1	-32,373
405,5	-36,293
406	-32,853
406,5	-37,853
406,9	-29,733
407,4	-30,733
407,8	-31,453
408,3	-34,573
408,7	-35,133
409,2	-36,573
409,6	-40,173
410,1	-47,853
410,6	-49,133
411	-46,493
411,5	-45,373
411,9	-38,893
412,4	-26,293
412,8	-26,733
413,3	-32,333
413,7	-30,493
414,2	-27,213
414,7	-36,333
415,1	-29,693
415,6	-19,933
416	-16,133
416,5	-16,613
416,9	-11,813
417,4	-13,453
417,8	-10,933
418,3	-14,973
418,8	-15,693
419,2	-16,453
419,7	-10,853
420,1	-16,693
420,6	-15,733
421	-19,293
421,5	-14,173
421,9	-17,413
422,4	-10,533
422,8	-8,453
423,3	-1,253
423,8	2,387
424,2	5,347
424,7	8,067
425,1	12,427
425,6	11,627
426	10,867
426,5	7,547
426,9	-3,413
427,4	-3,773
427,9	-4,253
428,3	-3,893
428,8	-3,893
429,2	3,787
429,7	8,347
430,1	9,547
430,6	9,187
431	18,027
431,5	25,747
431,9	18,547
432,4	24,387
432,8	30,907
433,3	35,387
433,8	35,827
434,2	43,147
434,7	48,107
435,1	49,987
435,6	48,147
436	50,467
436,5	57,787
436,9	59,667
437,4	71,027
437,8	80,387
438,3	84,507
438,8	86,707
439,2	89,947
439,7	87,907
440,1	92,867
440,6	98,947
441	105,227
441,5	113,507
441,9	122,267
442,4	127,267
442,8	137,587
443,3	142,667
443,7	147,747
444,2	158,547
444,7	167,747
445,1	177,747
445,6	193,867
446	211,427
446,5	225,667
446,9	238,187
447,4	247,667
447,8	248,787
448,3	255,107
448,7	257,467
449,2	263,987
449,6	273,147
450,1	292,427
450,6	296,987
451	310,667
451,5	320,947
451,9	335,187
452,4	351,747
452,8	369,307
453,3	382,227
453,7	391,787
454,2	401,227
454,6	406,907
455,1	417,947
455,5	434,667
456	450,387
456,4	471,787
456,9	486,587
457,3	507,547
457,8	517,947
458,3	542,267
458,7	552,267
459,2	573,067
459,6	587,827
460,1	607,507
460,5	622,227
461	645,507
461,4	663,067
461,9	685,547
462,3	703,467
462,8	721,907
463,2	736,027
463,7	749,547
464,1	764,227
464,6	780,787
465	793,507
465,5	811,627
466	823,467
466,4	838,187
466,9	855,307
467,3	877,427
467,8	897,147
468,2	920,467
468,7	937,587
469,1	948,507
469,6	965,267
470	977,307
470,5	989,947
470,9	1010,187
471,4	1027,267
471,8	1035,187
472,3	1048,147
472,7	1057,747
473,2	1066,547
473,6	1086,307
474,1	1101,627
474,5	1116,067
475	1135,547
475,4	1150,787
475,9	1158,947
476,4	1179,347
476,8	1191,507
477,3	1209,467
477,7	1219,427
478,2	1229,787
478,6	1237,227
479,1	1252,267
479,5	1257,827
480	1266,947
480,4	1282,507
480,9	1285,987
481,3	1295,387
481,8	1305,107
482,2	1309,987
482,7	1312,907
483,1	1318,267
483,6	1320,627
484	1325,907
484,5	1333,187
484,9	1334,067
485,4	1341,227
485,8	1342,387
486,3	1344,147
486,7	1342,907
487,2	1343,547
487,6	1345,667
488,1	1346,027
488,5	1357,867
489	1371,387
489,4	1382,467
489,9	1382,267
490,4	1381,067
490,8	1369,547
491,3	1360,147
491,7	1361,227
492,2	1363,827
492,6	1367,747
493,1	1374,107
493,5	1370,667
494	1360,507
494,4	1354,067
494,9	1350,787
495,3	1334,227
495,8	1335,107
496,2	1336,347
496,7	1335,547
497,1	1325,227
497,6	1323,947
498	1310,907
498,5	1301,067
498,9	1294,747
499,4	1296,547
499,8	1292,667
500,3	1294,907
500,7	1291,867
501,2	1282,947
501,6	1270,227
502,1	1271,027
502,5	1266,507
503	1260,587
503,4	1251,947
503,9	1246,347
504,3	1237,267
504,8	1220,347
505,2	1208,587
505,7	1205,027
506,1	1201,387
506,6	1190,907
507	1185,387
507,5	1182,907
507,9	1169,627
508,4	1161,107
508,8	1149,147
509,3	1146,507
509,7	1133,627
510,2	1130,587
510,6	1122,427
511,1	1116,347
511,5	1111,227
512	1101,707
512,4	1095,227
512,9	1087,267
513,3	1079,027
513,8	1074,907
514,2	1071,587
514,7	1059,187
515,1	1044,387
515,6	1032,787
516	1022,827
516,5	1008,587
516,9	1004,227
517,4	996,587
517,8	990,347
518,3	976,147
518,7	974,427
519,2	960,107
519,6	954,867
520,1	948,107
520,5	942,547
521	932,067
521,4	925,227
521,9	915,387
522,3	906,627
522,8	892,227
523,2	890,147
523,7	890,387
524,1	884,467
524,6	877,467
525	871,587
525,5	860,787
525,9	847,827
526,4	840,267
526,8	824,907
527,3	815,027
527,7	799,707
528,2	784,667
528,6	777,107
529,1	775,427
529,5	773,587
530	769,307
530,4	770,627
530,9	766,627
531,3	760,627
531,8	751,507
532,2	741,787
532,6	733,987
533,1	720,827
533,5	711,787
534	702,187
534,4	691,827
534,9	682,587
535,3	684,867
535,8	672,507
536,2	662,427
536,7	662,427
537,1	650,827
537,6	636,347
538	633,027
538,5	626,627
538,9	622,427
539,4	622,827
539,8	617,987
540,3	612,547
540,7	616,627
541,2	600,947
541,6	594,147
542,1	589,907
542,5	586,267
543	573,587
543,4	576,227
543,9	571,987
544,3	565,307
544,8	559,267
545,2	558,107
545,7	548,827
546,1	547,467
546,5	545,667
547	541,227
547,4	532,627
547,9	528,787
548,3	519,147
548,8	510,187
549,2	502,587
549,7	496,587
550,1	489,787
550,6	482,347
551	474,907
551,5	471,707
551,9	472,947
552,4	469,787
552,8	467,107
553,3	464,267
553,7	462,427
554,2	456,027
554,6	457,947
555,1	454,267
555,5	455,787
555,9	451,827
556,4	452,147
556,8	446,747
557,3	441,307
557,7	432,227
558,2	428,587
558,6	423,507
559,1	418,347
559,5	415,827
560	412,147
560,4	409,627
560,9	402,947
561,3	399,067
561,8	396,987
562,2	392,427
562,7	385,067
563,1	380,507
563,6	380,027
564	384,267
564,4	386,787
564,9	393,507
565,3	388,747
565,8	381,667
566,2	371,747
566,7	365,547
567,1	351,827
567,6	350,107
568	353,227
568,5	348,947
568,9	343,067
569,4	348,307
569,8	348,307
570,3	342,867
570,7	343,827
571,1	342,867
571,6	335,627
572	333,427
572,5	326,347
572,9	321,987
573,4	327,707
573,8	326,707
574,3	321,227
574,7	324,307
575,2	315,467
575,6	304,947
576,1	304,507
576,5	295,187
576,9	289,987
577,4	291,827
577,8	288,667
578,3	286,387
578,7	293,427
579,2	289,107
579,6	285,267
580,1	282,067
580,5	274,227
581	273,667
581,4	271,667
581,9	273,427
582,3	270,587
582,7	268,947
583,2	257,267
583,6	255,387
584,1	248,067
584,5	245,187
585	244,147
585,4	242,267
585,9	244,707
586,3	247,227
586,8	247,667
587,2	243,627
587,6	252,067
588,1	244,907
588,5	239,427
589	243,987
589,4	242,147
589,9	238,907
590,3	233,827
590,8	234,867
591,2	221,027
591,7	224,627
592,1	225,107
592,5	227,907
593	219,347
593,4	220,307
593,9	212,827
594,3	203,427
594,8	195,547
595,2	200,347
595,7	209,587
596,1	215,027
596,6	223,547
597	234,747
597,4	237,187
597,9	228,307
598,3	223,787
598,8	216,067
599,2	208,427
599,7	202,187
600,1	202,987
600,6	201,467
601	195,067
601,4	194,547
601,9	193,227
602,3	190,107
602,8	189,187
603,2	184,987
603,7	181,947
604,1	174,027
604,6	178,467
605	179,507
605,4	184,467
605,9	185,747
606,3	195,587
606,8	195,667
607,2	193,787
607,7	195,187
608,1	193,387
608,6	191,427
609	184,387
609,4	177,267
609,9	170,787
610,3	165,547
610,8	164,267
611,2	162,467
611,7	167,427
612,1	166,067
612,6	168,667
613	162,867
613,4	166,147
613,9	161,147
614,3	162,227
614,8	162,027
615,2	162,427
615,7	163,987
616,1	164,307
616,6	162,627
617	157,987
617,4	152,507
617,9	149,707
618,3	141,827
618,8	137,747
619,2	139,067
619,7	144,467
620,1	140,147
620,5	146,987
621	147,587
621,4	149,787
621,9	146,667
622,3	143,787
622,8	144,787
623,2	142,147
623,6	140,507
624,1	140,747
624,5	143,747
625	142,107
625,4	146,067
625,9	140,987
626,3	144,867
626,8	143,347
627,2	142,187
627,6	143,547
628,1	141,507
628,5	137,827
629	134,787
629,4	123,987
629,9	117,947
630,3	120,867
630,7	119,547
631,2	114,867
631,6	120,107
632,1	120,907
632,5	120,547
633	118,187
633,4	120,587
633,8	113,907
634,3	116,507
634,7	111,627
635,2	102,747
635,6	102,227
636,1	107,987
636,5	102,427
636,9	99,387
637,4	106,587
637,8	108,027
638,3	103,427
638,7	101,747
639,2	108,387
639,6	105,227
640	102,667
640,5	106,587
640,9	100,627
641,4	88,467
641,8	85,707
642,2	86,827
642,7	84,667
643,1	82,667
643,6	86,707
644	91,707
644,5	85,307
644,9	86,187
645,3	89,507
645,8	92,307
646,2	91,387
646,7	90,427
647,1	87,987
647,6	86,307
648	83,467
648,4	82,347
648,9	82,987
649,3	77,667
649,8	82,027
650,2	88,947
650,6	86,427
651,1	85,547
651,5	92,347
652	98,147
652,4	85,267
652,9	78,987
653,3	78,747
653,7	77,347
654,2	70,307
654,6	78,987
655,1	81,987
655,5	82,947
655,9	82,267
656,4	79,067
656,8	70,027
657,3	67,667
657,7	63,747
658,2	62,307
658,6	62,107
659	64,227
659,5	64,107
659,9	64,907
660,4	61,827
660,8	62,827
661,2	65,027
661,7	66,427
662,1	69,907
662,6	62,467
663	60,267
663,4	56,827
663,9	55,907
664,3	55,267
664,8	66,267
665,2	64,187
665,6	63,987
666,1	63,027
666,5	58,107
667	55,787
667,4	56,347
667,9	60,347
668,3	60,947
668,7	58,667
669,2	54,227
669,6	57,147
670,1	56,227
670,5	54,827
670,9	53,987
671,4	50,147
671,8	42,587
672,3	41,667
672,7	40,547
673,1	40,387
673,6	44,947
674	49,987
674,5	46,387
674,9	46,747
675,3	43,427
675,8	43,307
676,2	40,027
676,7	41,587
677,1	45,867
677,5	46,867
678	47,827
678,4	54,827
678,9	51,427
679,3	46,467
679,7	52,307
680,2	50,787
680,6	42,107
681,1	41,907
681,5	41,267
681,9	36,947
682,4	35,707
682,8	35,427
683,3	38,667
683,7	42,907
684,1	46,107
684,6	45,387
685	42,787
685,5	35,427
685,9	28,827
686,3	30,827
686,8	31,427
687,2	39,707
687,7	39,987
688,1	47,427
688,5	49,467
689	53,067
689,4	50,107
689,9	50,787
690,3	49,427
690,7	40,387
691,2	38,507
691,6	32,387
692	36,147
692,5	35,467
692,9	38,507
693,4	38,987
693,8	47,827
694,2	50,987
694,7	47,547
695,1	44,747
695,6	40,987
696	33,987
696,4	30,987
696,9	35,307
697,3	38,187
697,8	35,427
698,2	34,707
698,6	26,947
699,1	15,187
699,5	11,907
699,9	12,987
700,4	13,827
700,8	17,267
701,3	21,107
701,7	30,227
702,1	34,027
702,6	37,027
703	39,867
703,5	36,787
703,9	27,867
704,3	26,267
704,8	21,987
705,2	20,987
705,6	23,107
706,1	22,027
706,5	14,147
707	15,787
707,4	17,427
707,8	20,547
708,3	23,707
708,7	26,987
709,2	23,627
709,6	20,747
710	17,987
710,5	15,347
710,9	10,467
711,3	12,307
711,8	17,947
712,2	19,427
712,7	19,867
713,1	25,547
713,5	27,827
714	16,187
714,4	11,587
714,8	8,347
715,3	8,707
715,7	12,867
716,2	17,307
716,6	18,547
717	21,027
717,5	19,627
717,9	14,667
718,3	10,827
718,8	19,307
719,2	14,067
719,7	16,067
720,1	14,987
720,5	19,107
721	11,667
721,4	19,947
721,8	17,547
722,3	16,267
722,7	7,427
723,2	7,427
723,6	1,267
724	-0,613
724,5	1,907
724,9	9,347
725,3	10,547
725,8	11,587
726,2	13,787
726,7	11,867
727,1	4,027
727,5	-4,213
728	-4,693
728,4	-10,413
728,8	-11,333
729,3	-2,413
729,7	5,507
730,1	7,307
730,6	16,067
731	14,187
731,5	13,707
731,9	10,907
732,3	7,307
732,8	0,227
733,2	2,067
733,6	0,427
734,1	-2,093
734,5	2,267
734,9	11,387
735,4	9,067
735,8	11,187
736,3	15,747
736,7	13,347
737,1	4,027
737,6	6,627
738	2,427
738,4	1,747
738,9	-2,253
739,3	-1,853
739,7	-6,413
740,2	-7,893
740,6	-14,253
741,1	-12,293
741,5	-10,973
741,9	-8,093
742,4	-7,813
742,8	-3,933
743,2	-6,093
743,7	-5,093
744,1	-12,573
744,5	-10,813
745	-11,373
745,4	-6,373
745,8	-4,733
746,3	3,547
746,7	-1,053
747,2	-2,453
747,6	-9,093
748	-14,693
748,5	-16,333
748,9	-9,373
749,3	-8,853
749,8	-3,253
750,2	-3,773
750,6	-6,813
751,1	-6,893
751,5	-4,653
751,9	-3,333
752,4	2,067
752,8	6,307
753,3	4,067
753,7	3,547
754,1	1,787
754,6	-0,573
755	-1,093
755,4	-1,173
755,9	-4,093
756,3	-5,653
756,7	-1,573
757,2	-4,653
757,6	-11,573
758	-12,373
758,5	-10,333
758,9	-11,893
759,3	-6,493
759,8	-3,973
760,2	-4,933
760,6	-12,253
761,1	-17,573
761,5	-19,213
761,9	-16,493
762,4	-11,973
762,8	-7,573
763,3	-6,493
763,7	-15,373
764,1	-22,573
764,6	-22,733
765	-20,093
765,4	-15,093
765,9	-4,413
766,3	3,027
766,7	2,947
767,2	-1,173
767,6	-12,733
768	-23,573
768,5	-21,573
768,9	-22,133
769,3	-21,613
769,8	-16,333
770,2	-10,373
770,6	-11,533
771,1	-14,533
771,5	-21,613
771,9	-21,053
772,4	-23,053
772,8	-27,133
773,2	-27,693
773,7	-21,093
774,1	-21,013
774,5	-22,533
775	-20,093
775,4	-22,093
775,8	-21,693
776,3	-23,573
776,7	-21,133
777,1	-16,253
777,6	-15,413
778	-17,493
778,4	-16,293
778,9	-15,293
779,3	-27,773
779,7	-25,573
780,2	-27,813
780,6	-26,133
781	-30,653
781,5	-25,813
781,9	-30,453
782,3	-26,493
782,8	-28,133
783,2	-19,213
783,6	-19,453
784,1	-21,653
784,5	-23,653
784,9	-24,933
785,4	-30,853
785,8	-31,093
786,2	-28,093
786,7	-25,053
787,1	-21,973
787,5	-25,693
788	-26,373
788,4	-27,493
788,8	-30,013
789,3	-32,413
789,7	-33,413
790,1	-28,413
790,6	-22,933
791	-21,573
791,4	-18,093
791,9	-14,213
792,3	-25,133
792,7	-24,813
793,2	-24,693
793,6	-30,253
794	-26,573
794,5	-16,933
794,9	-23,933
795,3	-26,293
795,8	-25,013
796,2	-30,253
796,6	-34,653
797,1	-28,093
797,5	-34,493
797,9	-33,013
798,4	-29,213
798,8	-25,613
799,2	-25,413
799,7	-18,333
800,1	-23,053
800,5	-25,773
801	-29,533
801,4	-35,533
801,8	-33,813
802,2	-34,853
802,7	-35,853
803,1	-34,533
803,5	-30,573
804	-35,693
804,4	-33,573
804,8	-28,013
805,3	-25,213
805,7	-31,853
806,1	-29,093
806,6	-25,293
807	-31,453
807,4	-39,973
807,9	-31,853
808,3	-34,053
808,7	-36,253
809,2	-38,653
809,6	-35,333
810	-37,253
810,4	-37,413
810,9	-41,573
811,3	-37,733
811,7	-38,053
812,2	-38,533
812,6	-37,493
813	-36,373
813,5	-32,653
813,9	-24,933
814,3	-25,613
814,8	-26,333
815,2	-25,293
815,6	-31,213
816,1	-37,093
816,5	-39,133
816,9	-35,253
817,3	-34,653
817,8	-32,133
818,2	-35,213
818,6	-37,333
819,1	-43,653
819,5	-42,053
819,9	-44,853
820,4	-43,693
820,8	-38,533
821,2	-37,253
821,7	-34,213
822,1	-28,653
822,5	-27,333
822,9	-27,493
823,4	-27,693
823,8	-34,733
824,2	-40,293
824,7	-42,133
825,1	-44,933
825,5	-41,613
826	-41,453
826,4	-42,013
826,8	-40,653
827,3	-41,773
827,7	-40,213
828,1	-37,693
828,5	-42,253
829	-47,573
829,4	-48,253
829,8	-51,133
830,3	-49,813
830,7	-44,973
831,1	-45,733
831,6	-49,613
832	-49,653
832,4	-53,693
832,8	-54,493
833,3	-50,173
833,7	-45,333
834,1	-51,613
834,6	-57,733
835	-61,613
835,4	-58,933
835,8	-55,453
836,3	-49,373
836,7	-43,333
837,1	-35,813
837,6	-37,573
838	-40,013
838,4	-46,613
838,9	-45,333
839,3	-45,413
839,7	-43,093
840,1	-49,493
840,6	-41,653
841	-41,693
841,4	-52,293
841,9	-55,533
842,3	-51,093
842,7	-57,893
843,1	-58,813
843,6	-48,013
844	-48,933
844,4	-46,413
844,9	-49,173
845,3	-43,453
845,7	-45,093
846,2	-43,613
846,6	-42,493
847	-37,533
847,4	-46,853
847,9	-49,333
848,3	-50,413
848,7	-52,293
849,2	-51,733
849,6	-48,413
850	-44,533
850,4	-44,973
850,9	-46,773
851,3	-43,653
851,7	-46,733
852,2	-48,093
852,6	-50,773
853	-49,133
853,4	-53,613
853,9	-52,053
854,3	-59,253
854,7	-52,973
855,2	-55,093
855,6	-57,373
856	-58,813
856,4	-55,933
856,9	-55,453
857,3	-53,013
857,7	-48,133
858,2	-48,293
858,6	-50,253
859	-53,013
859,4	-54,933
859,9	-55,413
860,3	-56,293
860,7	-52,733
861,1	-54,093
861,6	-51,333
862	-53,333
862,4	-49,333
862,9	-48,373
863,3	-45,013
863,7	-44,693
864,1	-46,493
864,6	-42,213
865	-45,853
865,4	-47,413
865,9	-51,933
866,3	-53,373
866,7	-59,973
867,1	-58,973
867,6	-58,773
868	-59,253
868,4	-58,813
868,8	-58,253
869,3	-64,093
869,7	-63,293
870,1	-61,653
870,6	-59,413
871	-51,893
871,4	-51,133
871,8	-53,573
872,3	-54,493
872,7	-51,573
873,1	-58,133
873,5	-57,453
874	-58,933
874,4	-60,213
874,8	-65,493
875,3	-63,613
875,7	-54,613
876,1	-56,253
876,5	-54,333
877	-55,453
877,4	-55,653
877,8	-59,333
878,2	-54,773
878,7	-52,493
879,1	-51,773
879,5	-51,453
879,9	-47,053
880,4	-49,973
880,8	-55,973
881,2	-53,893
881,7	-57,253
882,1	-57,173
882,5	-58,333
882,9	-49,133
883,4	-44,773
883,8	-44,173
884,2	-50,813
884,6	-51,773
885,1	-61,013
885,5	-67,013
885,9	-63,613
886,3	-65,773
886,8	-64,213
887,2	-63,413
887,6	-60,733
888	-68,333
888,5	-69,293
888,9	-71,853
889,3	-76,693
889,8	-73,733
890,2	-69,133
890,6	-61,733
891	-55,373
891,5	-45,573
891,9	-43,733
892,3	-41,413
892,7	-40,693
893,2	-42,973
893,6	-45,773
894	-53,773
894,4	-60,053
894,9	-60,693
895,3	-61,853
895,7	-61,613
896,1	-55,693
896,6	-54,133
897	-51,453
897,4	-48,893
897,8	-47,293
898,3	-50,013
898,7	-45,133
899,1	-52,773
899,5	-50,573
900	-54,533
900,4	-56,493
900,8	-60,853
901,2	-61,013
901,7	-62,133
902,1	-63,613
902,5	-56,853
902,9	-52,893
903,4	-53,733
903,8	-60,293
904,2	-59,853
904,6	-63,453
905,1	-62,333
905,5	-57,693
905,9	-53,293
906,3	-49,173
906,8	-48,533
907,2	-52,013
907,6	-53,413
908	-54,573
908,5	-51,413
908,9	-48,653
909,3	-50,173
909,7	-49,133
910,2	-44,453
910,6	-45,893
911	-47,533
911,4	-40,493
911,9	-49,413
912,3	-54,093
912,7	-55,613
913,1	-57,333
913,6	-65,893
914	-55,973
914,4	-56,933
914,8	-54,173
915,3	-54,813
915,7	-51,853
916,1	-51,293
916,5	-45,733
916,9	-49,013
917,4	-49,893
917,8	-50,653
918,2	-49,933
918,6	-52,213
919,1	-54,613
919,5	-57,533
919,9	-54,933
920,3	-60,733
920,8	-64,333
921,2	-58,733
921,6	-55,773
922	-60,653
922,5	-54,493
922,9	-55,853
923,3	-55,213
923,7	-54,373
924,2	-53,693
924,6	-53,933
925	-42,213
925,4	-47,853
925,8	-51,133
926,3	-52,853
926,7	-51,453
927,1	-60,053
927,5	-59,813
928	-58,373
928,4	-54,213
928,8	-65,613
929,2	-60,613
929,7	-57,853
930,1	-57,053
930,5	-49,053
930,9	-46,853
931,3	-50,533
931,8	-59,453
932,2	-54,813
932,6	-64,093
933	-62,413
933,5	-60,093
933,9	-53,893
934,3	-59,053
934,7	-57,973
935,2	-57,893
935,6	-62,093
936	-63,173
936,4	-63,453
936,8	-66,533
937,3	-62,973
937,7	-64,573
938,1	-65,013
938,5	-61,053
939	-59,693
939,4	-61,533
939,8	-61,253
940,2	-59,453
940,6	-62,933
941,1	-63,613
941,5	-63,693
941,9	-58,693
942,3	-62,333
942,8	-68,453
943,2	-70,013
943,6	-68,613
944	-69,973
944,4	-69,613
944,9	-64,653
945,3	-64,933
945,7	-68,693
946,1	-66,013
946,6	-63,413
947	-60,573
947,4	-56,933
947,8	-53,653
948,2	-59,533
948,7	-56,653
949,1	-58,573
949,5	-58,293
949,9	-53,973
950,3	-53,133
950,8	-54,573
951,2	-50,573
951,6	-55,013
952	-61,293
952,5	-60,413
952,9	-60,213
953,3	-67,933
953,7	-64,133
954,1	-58,213
954,6	-60,253
955	-63,213
955,4	-59,933
955,8	-52,653
956,2	-59,533
956,7	-57,573
957,1	-54,333
957,5	-50,573
957,9	-64,653
958,3	-61,733
958,8	-65,533
959,2	-64,533
959,6	-72,173
960	-66,653
960,5	-67,773
960,9	-60,253
961,3	-58,253
961,7	-56,853
962,1	-52,933
962,6	-50,253
963	-58,613
963,4	-63,013
963,8	-60,893
964,2	-67,053
964,7	-67,893
965,1	-65,333
965,5	-69,613
965,9	-74,573
966,3	-68,973
966,8	-69,933
967,2	-68,053
967,6	-63,733
968	-55,093
968,4	-53,053
968,9	-57,453
969,3	-61,093
969,7	-62,053
970,1	-61,733
970,5	-65,413
971	-59,333
971,4	-56,693
971,8	-50,053
972,2	-51,293
972,6	-49,893
973,1	-54,773
973,5	-52,653
973,9	-62,893
974,3	-65,373
974,7	-64,853
975,2	-62,053
975,6	-63,613
976	-58,093
976,4	-55,933
976,8	-57,333
977,3	-61,293
977,7	-61,693
978,1	-58,773
978,5	-61,573
978,9	-63,733
979,4	-64,413
979,8	-62,293
980,2	-64,293
980,6	-59,813
981	-59,253
981,5	-56,693
981,9	-56,613
982,3	-53,853
982,7	-52,813
983,1	-46,453
983,6	-39,613
984	-41,973
984,4	-46,933
984,8	-46,853
985,2	-52,573
985,6	-56,693
986,1	-55,933
986,5	-51,733
986,9	-55,133
987,3	-59,813
987,7	-60,093
988,2	-53,253
988,6	-56,533
989	-60,093
989,4	-58,053
989,8	-64,773
990,3	-72,733
990,7	-70,693
991,1	-71,373
991,5	-67,693
991,9	-63,533
992,3	-60,853
992,8	-64,413
993,2	-59,893
993,6	-58,533
994	-55,333
994,4	-56,653
994,9	-51,373
995,3	-56,893
995,7	-58,653
996,1	-56,133
996,5	-58,173
996,9	-61,493
997,4	-62,493
997,8	-66,173
998,2	-68,173
998,6	-64,373
999	-70,333
999,5	-69,093
999,9	-67,853
1000,3	-71,773
1000,7	-73,693
1001,1	-65,933
1001,5	-60,253
1002	-58,813
1002,4	-55,733
1002,8	-55,333
1003,2	-55,213
1003,6	-54,333
1004	-53,973
1004,5	-54,333
1004,9	-52,573
1005,3	-59,573
1005,7	-59,973
1006,1	-56,453
1006,6	-58,653
1007	-58,333
1007,4	-54,813
1007,8	-61,053
1008,2	-62,493
1008,6	-60,613
1009,1	-67,213
1009,5	-64,973
1009,9	-62,133
1010,3	-62,813
1010,7	-63,733
1011,1	-57,373
1011,6	-59,613
1012	-59,533
1012,4	-59,613
1012,8	-63,573
1013,2	-61,853
1013,6	-61,533
1014,1	-65,253
1014,5	-63,133
1014,9	-52,133
1015,3	-54,413
1015,7	-52,453
1016,1	-45,613
1016,6	-47,373
1017	-53,813
1017,4	-61,733
1017,8	-63,133
1018,2	-69,333
1018,6	-68,693
1019,1	-70,613
1019,5	-64,733
1019,9	-67,693
1020,3	-61,173
1020,7	-60,333
1021,1	-64,693
1021,6	-62,093
1022	-60,213
1022,4	-64,933
1022,8	-67,253
1023,2	-64,173
1023,6	-63,893
1024,1	-65,733
1024,5	-70,413
1024,9	-72,973
1025,3	-73,373
1025,7	-79,813
1026,1	-80,613
1026,6	-76,253
1027	-76,653
1027,4	-78,973
1027,8	-79,533
1028,2	-76,373
1028,6	-73,093
1029	-67,093
1029,5	-68,013
1029,9	-63,613
1030,3	-63,693
1030,7	-66,053
1031,1	-74,693
1031,5	-69,093
1032	-68,853
1032,4	-76,133
1032,8	-79,733
1033,2	-75,773
1033,6	-68,413
1034	-68,373
1034,4	-61,933
1034,9	-61,533
1035,3	-58,333
1035,7	-68,653
1036,1	-69,533
1036,5	-68,093
1036,9	-62,133
1037,4	-70,133
1037,8	-67,933
1038,2	-71,013
1038,6	-73,013
1039	-74,253
1039,4	-70,933
1039,8	-66,013
1040,3	-65,413
1040,7	-67,453
1041,1	-72,973
1041,5	-72,973
1041,9	-79,333
1042,3	-75,373
1042,7	-72,013
1043,2	-69,413
1043,6	-69,573
1044	-66,653
1044,4	-70,053
1044,8	-71,733
1045,2	-74,013
1045,6	-79,213
1046,1	-79,053
1046,5	-79,453
1046,9	-77,813
1047,3	-69,773
1047,7	-64,693
1048,1	-64,453
1048,5	-67,013
1049	-63,653
1049,4	-67,013
1049,8	-65,053
1050,2	-67,893
1050,6	-65,253
1051	-72,453
1051,4	-72,533
1051,9	-76,013
1052,3	-80,933
1052,7	-88,013
1053,1	-88,213
1053,5	-84,653
1053,9	-79,413
1054,3	-80,053
1054,8	-66,453
1055,2	-56,413
1055,6	-57,653
1056	-57,253
1056,4	-48,893
1056,8	-52,773
1057,2	-57,253
1057,6	-66,133
1058,1	-71,413
1058,5	-69,973
1058,9	-75,933
1059,3	-79,933
1059,7	-74,693
1060,1	-72,893
1060,5	-75,653
1061	-66,973
1061,4	-64,133
1061,8	-63,013
1062,2	-61,613
1062,6	-63,893
1063	-68,613
1063,4	-69,213
1063,8	-74,213
1064,3	-74,613
1064,7	-77,493
1065,1	-77,413
1065,5	-78,573
1065,9	-68,933
1066,3	-70,253
1066,7	-66,613
1067,1	-67,573
1067,6	-66,493
1068	-74,213
1068,4	-73,493
1068,8	-70,133
1069,2	-68,653
1069,6	-68,733
1070	-65,493
1070,4	-64,413
1070,9	-61,253
1071,3	-60,093
1071,7	-58,333
1072,1	-55,493
1072,5	-61,533
1072,9	-63,973
1073,3	-60,173
1073,7	-64,973
1074,2	-77,213
1074,6	-66,333
1075	-67,413
1075,4	-73,293
1075,8	-68,813
1076,2	-57,093
1076,6	-56,173
1077	-52,933
1077,5	-53,493
1077,9	-56,173
1078,3	-53,533
1078,7	-56,213
1079,1	-53,813
1079,5	-49,213
1079,9	-50,493
1080,3	-49,973
1080,7	-49,613
1081,2	-57,053
1081,6	-59,693
1082	-53,453
1082,4	-57,573
1082,8	-61,213
1083,2	-59,013
1083,6	-56,373
1084	-62,613
1084,5	-66,333
1084,9	-69,933
1085,3	-67,933
1085,7	-70,013
1086,1	-65,293
1086,5	-61,373
1086,9	-55,533
1087,3	-60,573
1087,7	-55,533
1088,2	-51,413
1088,6	-52,253
1089	-51,453
1089,4	-45,333
1089,8	-49,333
1090,2	-55,053
1090,6	-55,253
1091	-57,693
1091,4	-62,373
1091,9	-62,133
1092,3	-62,173
1092,7	-56,733
1093,1	-59,573
1093,5	-57,373
1093,9	-62,973
1094,3	-61,933
1094,7	-65,213
1095,1	-63,853
1095,5	-67,693
1096	-57,413
1096,4	-58,773
1096,8	-57,133
1097,2	-56,293
1097,6	-47,813
1098	-54,253
1098,4	-48,693
1098,8	-54,253
1099,2	-47,893
1099,6	-50,013
1100,1	-46,973
1100,5	-50,573
1100,9	-46,813
1101,3	-46,693
1101,7	-48,613
1102,1	-48,053
1102,5	-47,053
1102,9	-42,813
1103,3	-48,053
1103,7	-44,133
1104,2	-45,453
1104,6	-42,933
1105	-45,213
1105,4	-40,533
1105,8	-38,093
1106,2	-28,373
1106,6	-20,053
1107	-11,853
1107,4	-4,733
1107,8	-0,483
1108,3	1,067
