Data from Subt2_00032.txt Node
Date: Fri Aug 11 15:47:03 MSK 2023
User: vat
Spectrometer: MAYP114033
Trigger mode: 0
Integration Time (sec): 5,000000E-1
Scans to average: 5
Electric dark correction enabled: true
Nonlinearity correction enabled: false
Boxcar width: 2
XAxis mode: Wavelengths
Number of Pixels in Spectrum: 2068
>>>>>Begin Spectral Data<<<<<
199,4	-1,333
199,9	-0,533
200,4	-11,453
200,8	-20,973
201,3	-37,093
201,8	-44,173
202,2	-54,773
202,7	-57,573
203,2	-58,773
203,6	-51,653
204,1	-58,853
204,6	-61,453
205	-61,333
205,5	-65,773
206	-62,253
206,4	-63,053
206,9	-66,613
207,4	-69,773
207,8	-64,813
208,3	-69,173
208,8	-70,773
209,2	-70,453
209,7	-69,533
210,2	-75,853
210,6	-79,773
211,1	-79,293
211,5	-77,693
212	-80,733
212,5	-79,053
212,9	-83,413
213,4	-81,213
213,9	-88,133
214,3	-80,773
214,8	-88,413
215,3	-82,653
215,7	-86,333
216,2	-84,253
216,7	-91,133
217,1	-86,333
217,6	-90,693
218,1	-91,413
218,5	-89,053
219	-92,613
219,5	-93,453
219,9	-97,013
220,4	-87,253
220,9	-86,293
221,3	-80,653
221,8	-78,493
222,3	-74,053
222,7	-81,573
223,2	-80,893
223,6	-83,293
224,1	-83,213
224,6	-87,293
225	-86,733
225,5	-90,533
226	-91,253
226,4	-87,093
226,9	-79,093
227,4	-79,493
227,8	-76,733
228,3	-75,573
228,8	-80,453
229,2	-83,933
229,7	-85,973
230,2	-90,493
230,6	-91,173
231,1	-95,853
231,5	-100,333
232	-101,133
232,5	-94,533
232,9	-91,573
233,4	-94,853
233,9	-93,253
234,3	-93,733
234,8	-94,453
235,3	-94,013
235,7	-87,213
236,2	-84,533
236,7	-85,933
237,1	-88,613
237,6	-91,013
238,1	-88,053
238,5	-95,733
239	-97,253
239,4	-95,173
239,9	-92,813
240,4	-96,813
240,8	-87,453
241,3	-85,053
241,8	-92,333
242,2	-96,613
242,7	-92,853
243,2	-96,693
243,6	-99,293
244,1	-96,373
244,6	-92,773
245	-89,013
245,5	-88,013
245,9	-79,853
246,4	-79,053
246,9	-80,453
247,3	-86,613
247,8	-89,093
248,3	-89,373
248,7	-81,933
249,2	-81,333
249,7	-80,173
250,1	-80,813
250,6	-87,133
251	-89,893
251,5	-93,493
252	-97,733
252,4	-92,813
252,9	-86,173
253,4	-93,853
253,8	-91,333
254,3	-90,653
254,8	-97,093
255,2	-100,893
255,7	-95,933
256,1	-87,133
256,6	-81,533
257,1	-81,173
257,5	-81,133
258	-80,093
258,5	-82,013
258,9	-81,173
259,4	-75,293
259,9	-79,453
260,3	-83,933
260,8	-87,333
261,2	-93,413
261,7	-95,373
262,2	-96,333
262,6	-93,293
263,1	-99,573
263,6	-96,133
264	-93,493
264,5	-85,173
264,9	-84,173
265,4	-86,773
265,9	-83,813
266,3	-89,253
266,8	-88,413
267,3	-96,573
267,7	-84,093
268,2	-91,933
268,7	-86,373
269,1	-85,253
269,6	-79,413
270	-79,213
270,5	-72,453
271	-81,213
271,4	-84,373
271,9	-86,773
272,4	-92,773
272,8	-101,413
273,3	-100,133
273,7	-100,333
274,2	-102,933
274,7	-102,573
275,1	-90,133
275,6	-87,253
276,1	-92,973
276,5	-90,533
277	-92,733
277,4	-106,133
277,9	-104,333
278,4	-100,093
278,8	-95,213
279,3	-92,293
279,8	-81,333
280,2	-78,813
280,7	-81,933
281,1	-81,733
281,6	-84,013
282,1	-90,653
282,5	-100,653
283	-97,333
283,4	-97,693
283,9	-97,293
284,4	-94,973
284,8	-88,693
285,3	-90,093
285,8	-86,013
286,2	-87,933
286,7	-89,853
287,1	-92,133
287,6	-91,253
288,1	-96,853
288,5	-97,293
289	-96,813
289,5	-92,693
289,9	-88,973
290,4	-84,733
290,8	-83,453
291,3	-81,093
291,8	-82,813
292,2	-89,293
292,7	-91,133
293,1	-92,133
293,6	-94,413
294,1	-93,773
294,5	-93,933
295	-93,853
295,5	-88,173
295,9	-80,733
296,4	-87,333
296,8	-88,053
297,3	-83,373
297,8	-91,013
298,2	-92,813
298,7	-95,133
299,1	-88,373
299,6	-90,413
300,1	-84,653
300,5	-87,533
301	-70,893
301,5	-77,853
301,9	-82,053
302,4	-85,413
302,8	-82,333
303,3	-88,813
303,8	-86,853
304,2	-87,213
304,7	-90,293
305,1	-92,973
305,6	-100,333
306,1	-98,453
306,5	-100,973
307	-92,453
307,4	-91,733
307,9	-83,813
308,4	-83,093
308,8	-82,373
309,3	-86,653
309,8	-89,213
310,2	-89,413
310,7	-91,653
311,1	-89,293
311,6	-86,573
312,1	-82,973
312,5	-80,093
313	-71,533
313,4	-67,093
313,9	-60,893
314,4	-63,773
314,8	-72,893
315,3	-79,133
315,7	-84,773
316,2	-92,813
316,7	-96,733
317,1	-92,213
317,6	-89,373
318	-83,373
318,5	-86,453
319	-80,853
319,4	-85,453
319,9	-88,213
320,3	-96,773
320,8	-95,973
321,3	-96,053
321,7	-83,133
322,2	-78,653
322,6	-70,253
323,1	-63,893
323,6	-65,213
324	-68,013
324,5	-70,333
324,9	-73,973
325,4	-75,213
325,9	-71,773
326,3	-71,573
326,8	-70,533
327,2	-72,693
327,7	-77,773
328,2	-82,333
328,6	-88,493
329,1	-92,013
329,5	-85,853
330	-82,093
330,5	-78,853
330,9	-81,093
331,4	-87,573
331,8	-94,573
332,3	-91,813
332,8	-91,173
333,2	-88,893
333,7	-83,693
334,1	-79,893
334,6	-82,773
335,1	-83,413
335,5	-86,373
336	-86,213
336,4	-84,973
336,9	-89,293
337,4	-89,213
337,8	-86,213
338,3	-83,493
338,7	-85,533
339,2	-79,093
339,7	-83,493
340,1	-83,813
340,6	-84,453
341	-81,853
341,5	-85,133
342	-82,893
342,4	-76,773
342,9	-76,893
343,3	-79,613
343,8	-82,253
344,2	-82,573
344,7	-80,533
345,2	-79,213
345,6	-77,413
346,1	-73,653
346,5	-72,213
347	-78,333
347,5	-77,533
347,9	-72,093
348,4	-63,653
348,8	-60,453
349,3	-49,893
349,8	-44,173
350,2	-43,253
350,7	-41,773
351,1	-34,653
351,6	-31,053
352	-16,293
352,5	5,467
353	33,947
353,4	61,707
353,9	97,587
354,3	133,147
354,8	171,027
355,3	221,947
355,7	286,267
356,2	361,547
356,6	441,347
357,1	540,867
357,5	652,347
358	771,387
358,5	906,107
358,9	1071,387
359,4	1256,227
359,8	1449,467
360,3	1682,627
360,8	1947,707
361,2	2231,387
361,7	2544,827
362,1	2891,547
362,6	3274,467
363	3668,787
363,5	4086,627
364	4523,707
364,4	4976,347
364,9	5427,427
365,3	5883,187
365,8	6321,907
366,3	6728,987
366,7	7087,387
367,2	7394,467
367,6	7627,387
368,1	7810,107
368,5	7924,187
369	7958,347
369,5	7932,467
369,9	7859,187
370,4	7708,427
370,8	7498,067
371,3	7254,987
371,7	6965,307
372,2	6639,347
372,7	6285,387
373,1	5926,227
373,6	5559,507
374	5184,387
374,5	4815,547
374,9	4469,627
375,4	4128,387
375,9	3797,507
376,3	3483,747
376,8	3180,347
377,2	2903,267
377,7	2641,187
378,2	2407,907
378,6	2190,347
379,1	2000,427
379,5	1808,787
380	1643,467
380,4	1497,747
380,9	1364,747
381,4	1242,827
381,8	1140,187
382,3	1046,147
382,7	955,387
383,2	874,587
383,6	796,987
384,1	729,387
384,6	661,587
385	602,907
385,5	558,187
385,9	513,947
386,4	471,387
386,8	439,187
387,3	400,667
387,7	359,507
388,2	326,747
388,7	297,947
389,1	260,667
389,6	236,187
390	211,707
390,5	191,027
390,9	164,507
391,4	146,387
391,9	125,907
392,3	110,587
392,8	93,027
393,2	82,947
393,7	68,587
394,1	64,227
394,6	47,467
395,1	39,587
395,5	28,387
396	27,067
396,4	17,907
396,9	16,907
397,3	8,907
397,8	6,787
398,2	0,707
398,7	-7,693
399,2	-16,733
399,6	-20,213
400,1	-23,693
400,5	-24,133
401	-28,413
401,4	-29,653
401,9	-31,533
402,4	-41,733
402,8	-53,333
403,3	-49,693
403,7	-48,133
404,2	-51,173
404,6	-50,093
405,1	-47,573
405,5	-53,493
406	-55,013
406,5	-55,253
406,9	-50,493
407,4	-49,053
407,8	-48,893
408,3	-47,333
408,7	-47,933
409,2	-45,453
409,6	-44,613
410,1	-48,773
410,6	-56,813
411	-60,773
411,5	-65,293
411,9	-64,533
412,4	-61,093
412,8	-59,813
413,3	-57,453
413,7	-53,093
414,2	-54,333
414,7	-57,373
415,1	-51,293
415,6	-49,733
416	-51,693
416,5	-48,693
416,9	-40,973
417,4	-42,853
417,8	-38,373
418,3	-37,053
418,8	-33,253
419,2	-35,373
419,7	-28,613
420,1	-40,333
420,6	-42,293
421	-54,333
421,5	-51,453
421,9	-52,933
422,4	-45,453
422,8	-39,093
423,3	-32,333
423,8	-34,173
424,2	-40,013
424,7	-37,453
425,1	-42,013
425,6	-41,173
426	-45,053
426,5	-43,573
426,9	-51,933
427,4	-50,373
427,9	-53,733
428,3	-50,733
428,8	-55,373
429,2	-49,733
429,7	-50,373
430,1	-52,293
430,6	-61,053
431	-58,773
431,5	-55,853
431,9	-63,493
432,4	-62,933
432,8	-54,533
433,3	-50,213
433,8	-50,453
434,2	-52,493
434,7	-51,093
435,1	-52,213
435,6	-57,973
436	-62,933
436,5	-59,173
436,9	-58,853
437,4	-57,693
437,8	-53,173
438,3	-52,493
438,8	-53,813
439,2	-57,453
439,7	-61,893
440,1	-61,333
440,6	-70,413
441	-70,893
441,5	-70,973
441,9	-72,053
442,4	-73,733
442,8	-61,613
443,3	-60,493
443,7	-65,973
444,2	-59,613
444,7	-62,373
445,1	-65,493
445,6	-61,133
446	-48,213
446,5	-43,213
446,9	-39,733
447,4	-37,453
447,8	-40,973
448,3	-48,933
448,7	-59,413
449,2	-56,893
449,6	-53,173
450,1	-51,493
450,6	-52,333
451	-48,773
451,5	-58,213
451,9	-68,693
452,4	-67,613
452,8	-61,773
453,3	-62,413
453,7	-59,213
454,2	-53,693
454,6	-55,093
455,1	-63,813
455,5	-58,653
456	-57,653
456,4	-62,973
456,9	-67,093
457,3	-56,293
457,8	-58,533
458,3	-53,173
458,7	-48,013
459,2	-41,133
459,6	-49,053
460,1	-51,813
460,5	-56,933
461	-51,173
461,4	-51,733
461,9	-43,173
462,3	-40,853
462,8	-33,653
463,2	-30,693
463,7	-30,853
464,1	-27,373
464,6	-29,653
465	-34,573
465,5	-42,373
466	-39,173
466,4	-39,453
466,9	-40,213
467,3	-39,293
467,8	-38,573
468,2	-38,853
468,7	-41,573
469,1	-36,453
469,6	-31,173
470	-29,733
470,5	-31,053
470,9	-28,693
471,4	-29,693
471,8	-33,213
472,3	-35,373
472,7	-35,653
473,2	-41,453
473,6	-38,973
474,1	-40,813
474,5	-39,293
475	-36,293
475,4	-35,653
475,9	-35,373
476,4	-30,693
476,8	-31,013
477,3	-33,213
477,7	-31,453
478,2	-35,533
478,6	-38,573
479,1	-30,573
479,5	-29,253
480	-29,933
480,4	-30,373
480,9	-34,333
481,3	-34,413
481,8	-35,173
482,2	-31,493
482,7	-30,413
483,1	-25,813
483,6	-32,653
484	-27,373
484,5	-28,253
484,9	-29,973
485,4	-33,613
485,8	-33,253
486,3	-36,053
486,7	-32,093
487,2	-28,973
487,6	-25,973
488,1	-24,173
488,5	-23,893
489	-22,053
489,4	-20,653
489,9	-21,013
490,4	-22,173
490,8	-22,533
491,3	-28,333
491,7	-25,253
492,2	-27,173
492,6	-28,373
493,1	-22,933
493,5	-20,973
494	-20,813
494,4	-17,213
494,9	-16,293
495,3	-23,693
495,8	-27,973
496,2	-27,253
496,7	-22,093
497,1	-23,533
497,6	-27,413
498	-30,533
498,5	-39,133
498,9	-42,053
499,4	-38,333
499,8	-33,533
500,3	-25,813
500,7	-20,973
501,2	-23,253
501,6	-26,373
502,1	-23,133
502,5	-31,373
503	-30,373
503,4	-32,653
503,9	-28,333
504,3	-31,893
504,8	-30,493
505,2	-31,933
505,7	-28,813
506,1	-26,613
506,6	-27,173
507	-28,013
507,5	-26,173
507,9	-29,813
508,4	-35,453
508,8	-30,213
509,3	-25,373
509,7	-26,613
510,2	-19,853
510,6	-14,853
511,1	-20,813
511,5	-21,813
512	-19,293
512,4	-25,773
512,9	-27,773
513,3	-29,413
513,8	-17,413
514,2	-21,413
514,7	-23,053
515,1	-22,733
515,6	-20,333
516	-29,013
516,5	-28,813
516,9	-26,013
517,4	-33,693
517,8	-35,373
518,3	-32,613
518,7	-24,253
519,2	-23,613
519,6	-17,573
520,1	-14,453
520,5	-12,213
521	-16,613
521,4	-18,213
521,9	-18,693
522,3	-22,813
522,8	-24,893
523,2	-23,973
523,7	-18,693
524,1	-11,973
524,6	-6,693
525	-9,333
525,5	-7,773
525,9	-6,493
526,4	-12,573
526,8	-20,893
527,3	-22,773
527,7	-29,613
528,2	-33,613
528,6	-34,053
529,1	-32,053
529,5	-30,693
530	-29,653
530,4	-25,533
530,9	-24,853
531,3	-17,573
531,8	-12,893
532,2	-17,613
532,6	-18,693
533,1	-21,693
533,5	-25,053
534	-28,013
534,4	-23,093
534,9	-26,413
535,3	-17,013
535,8	-21,693
536,2	-26,853
536,7	-25,853
537,1	-26,613
537,6	-37,213
538	-33,933
538,5	-35,293
538,9	-34,213
539,4	-28,173
539,8	-23,253
540,3	-27,333
540,7	-23,453
541,2	-26,333
541,6	-27,133
542,1	-25,933
542,5	-18,413
543	-20,293
543,4	-20,933
543,9	-21,813
544,3	-20,813
544,8	-19,293
545,2	-13,653
545,7	-9,893
546,1	-12,253
546,5	-10,733
547	-15,453
547,4	-20,933
547,9	-23,333
548,3	-26,493
548,8	-29,333
549,2	-29,493
549,7	-29,293
550,1	-23,133
550,6	-20,253
551	-23,133
551,5	-22,293
551,9	-25,093
552,4	-31,573
552,8	-31,693
553,3	-28,253
553,7	-26,893
554,2	-22,133
554,6	-16,213
555,1	-18,333
555,5	-18,333
555,9	-17,093
556,4	-14,053
556,8	-17,693
557,3	-16,493
557,7	-20,133
558,2	-14,813
558,6	-17,533
559,1	-21,373
559,5	-19,613
560	-20,933
560,4	-23,533
560,9	-21,733
561,3	-16,773
561,8	-15,093
562,2	-9,693
562,7	-14,693
563,1	-13,773
563,6	-11,093
564	-12,133
564,4	-11,533
564,9	-6,613
565,3	-10,853
565,8	-19,053
566,2	-23,813
566,7	-26,293
567,1	-34,053
567,6	-32,853
568	-21,613
568,5	-19,893
568,9	-25,053
569,4	-16,253
569,8	-19,533
570,3	-21,293
570,7	-18,973
571,1	-18,653
571,6	-20,173
572	-14,813
572,5	-20,893
572,9	-22,573
573,4	-15,573
573,8	-19,973
574,3	-26,893
574,7	-21,573
575,2	-25,613
575,6	-28,973
576,1	-28,533
576,5	-29,093
576,9	-28,573
577,4	-22,413
577,8	-23,613
578,3	-25,733
578,7	-19,733
579,2	-22,053
579,6	-22,453
580,1	-26,853
580,5	-25,293
581	-28,253
581,4	-32,213
581,9	-36,013
582,3	-34,533
582,7	-33,293
583,2	-34,973
583,6	-35,733
584,1	-35,653
584,5	-34,933
585	-40,253
585,4	-43,933
585,9	-44,053
586,3	-45,013
586,8	-43,413
587,2	-40,613
587,6	-28,533
588,1	-29,293
588,5	-27,853
589	-27,853
589,4	-23,133
589,9	-25,293
590,3	-25,293
590,8	-24,773
591,2	-26,853
591,7	-30,853
592,1	-27,373
592,5	-26,413
593	-32,973
593,4	-36,653
593,9	-37,893
594,3	-45,453
594,8	-49,493
595,2	-43,533
595,7	-34,093
596,1	-31,813
596,6	-25,373
597	-19,733
597,4	-18,173
597,9	-22,173
598,3	-24,373
598,8	-30,093
599,2	-31,693
599,7	-32,773
600,1	-31,973
600,6	-32,493
601	-36,613
601,4	-35,053
601,9	-35,813
602,3	-41,413
602,8	-44,133
603,2	-44,173
603,7	-45,733
604,1	-50,533
604,6	-44,893
605	-37,813
605,4	-45,213
605,9	-52,453
606,3	-46,413
606,8	-45,733
607,2	-44,813
607,7	-37,573
608,1	-31,853
608,6	-26,453
609	-27,933
609,4	-30,053
609,9	-29,933
610,3	-32,213
610,8	-39,733
611,2	-48,333
611,7	-48,973
612,1	-52,013
612,6	-52,853
613	-55,893
613,4	-46,053
613,9	-50,533
614,3	-44,253
614,8	-41,853
615,2	-39,333
615,7	-37,653
616,1	-38,253
616,6	-48,213
617	-49,053
617,4	-51,333
617,9	-54,973
618,3	-58,253
618,8	-55,373
619,2	-53,413
619,7	-44,653
620,1	-47,613
620,5	-41,453
621	-39,173
621,4	-38,533
621,9	-43,333
622,3	-45,813
622,8	-41,853
623,2	-45,493
623,6	-43,493
624,1	-45,453
624,5	-40,933
625	-45,813
625,4	-40,053
625,9	-46,293
626,3	-46,093
626,8	-45,213
627,2	-46,013
627,6	-47,053
628,1	-45,053
628,5	-43,533
629	-42,133
629,4	-47,613
629,9	-45,253
630,3	-46,453
630,7	-46,253
631,2	-53,493
631,6	-53,653
632,1	-52,133
632,5	-49,133
633	-53,813
633,4	-50,053
633,8	-51,613
634,3	-50,933
634,7	-54,733
635,2	-56,613
635,6	-57,733
636,1	-48,973
636,5	-49,893
636,9	-57,773
637,4	-51,613
637,8	-47,733
638,3	-58,253
638,7	-66,613
639,2	-54,213
639,6	-56,133
640	-56,813
640,5	-46,493
640,9	-47,893
641,4	-59,653
641,8	-62,493
642,2	-64,453
642,7	-72,093
643,1	-72,213
643,6	-64,573
644	-62,813
644,5	-67,653
644,9	-61,693
645,3	-53,613
645,8	-57,733
646,2	-58,133
646,7	-55,573
647,1	-58,853
647,6	-64,013
648	-62,093
648,4	-56,373
648,9	-55,133
649,3	-55,973
649,8	-50,933
650,2	-42,133
650,6	-45,733
651,1	-48,693
651,5	-44,613
652	-47,293
652,4	-58,693
652,9	-67,293
653,3	-68,093
653,7	-71,133
654,2	-75,733
654,6	-71,773
655,1	-72,613
655,5	-70,773
655,9	-68,133
656,4	-64,933
656,8	-74,933
657,3	-67,173
657,7	-66,813
658,2	-73,333
658,6	-67,613
659	-57,733
659,5	-66,493
659,9	-69,333
660,4	-68,733
660,8	-72,333
661,2	-72,573
661,7	-63,293
662,1	-58,093
662,6	-63,133
663	-69,653
663,4	-68,453
663,9	-71,053
664,3	-73,253
664,8	-62,253
665,2	-59,613
665,6	-63,293
666,1	-63,973
666,5	-64,973
667	-67,253
667,4	-70,093
667,9	-65,133
668,3	-64,533
668,7	-67,133
669,2	-66,253
669,6	-58,973
670,1	-57,453
670,5	-56,653
670,9	-57,613
671,4	-65,053
671,8	-68,893
672,3	-70,773
672,7	-68,573
673,1	-65,373
673,6	-57,293
674	-55,893
674,5	-56,173
674,9	-60,053
675,3	-61,693
675,8	-60,493
676,2	-60,693
676,7	-63,893
677,1	-61,653
677,5	-58,773
678	-62,013
678,4	-57,053
678,9	-61,093
679,3	-65,173
679,7	-65,293
680,2	-65,933
680,6	-70,453
681,1	-73,093
681,5	-68,413
681,9	-72,653
682,4	-74,773
682,8	-84,453
683,3	-78,533
683,7	-86,573
684,1	-77,373
684,6	-76,253
685	-72,373
685,5	-75,733
685,9	-70,733
686,3	-73,413
686,8	-79,053
687,2	-78,053
687,7	-80,453
688,1	-77,413
688,5	-80,013
689	-68,653
689,4	-68,693
689,9	-66,853
690,3	-66,533
690,7	-69,453
691,2	-69,533
691,6	-74,133
692	-69,533
692,5	-68,333
692,9	-65,453
693,4	-72,573
693,8	-64,653
694,2	-65,613
694,7	-63,733
695,1	-64,933
695,6	-59,933
696	-68,133
696,4	-69,333
696,9	-71,653
697,3	-69,093
697,8	-78,333
698,2	-72,293
698,6	-74,893
699,1	-81,413
699,5	-85,253
699,9	-79,413
700,4	-80,493
700,8	-79,853
701,3	-78,573
701,7	-76,533
702,1	-70,653
702,6	-67,493
703	-64,253
703,5	-65,453
703,9	-69,093
704,3	-79,293
704,8	-83,853
705,2	-88,253
705,6	-91,253
706,1	-89,413
706,5	-89,093
707	-83,253
707,4	-79,693
707,8	-74,253
708,3	-71,733
708,7	-73,333
709,2	-81,213
709,6	-83,133
710	-83,173
710,5	-84,093
710,9	-81,493
711,3	-74,133
711,8	-70,453
712,2	-68,053
712,7	-73,813
713,1	-70,133
713,5	-69,133
714	-74,213
714,4	-77,493
714,8	-74,453
715,3	-74,773
715,7	-73,773
716,2	-78,213
716,6	-81,653
717	-81,533
717,5	-80,573
717,9	-82,293
718,3	-72,293
718,8	-61,053
719,2	-67,533
719,7	-73,613
720,1	-77,533
720,5	-81,533
721	-89,293
721,4	-82,853
721,8	-77,053
722,3	-77,213
722,7	-80,893
723,2	-81,293
723,6	-84,733
724	-90,013
724,5	-86,133
724,9	-86,373
725,3	-85,933
725,8	-85,853
726,2	-85,613
726,7	-86,013
727,1	-87,213
727,5	-89,453
728	-86,333
728,4	-85,733
728,8	-87,493
729,3	-78,373
729,7	-72,693
730,1	-67,253
730,6	-64,613
731	-68,053
731,5	-75,973
731,9	-84,093
732,3	-89,293
732,8	-93,413
733,2	-86,693
733,6	-83,493
734,1	-84,053
734,5	-84,893
734,9	-79,653
735,4	-88,893
735,8	-85,093
736,3	-80,533
736,7	-78,653
737,1	-80,413
737,6	-73,693
738	-79,693
738,4	-82,413
738,9	-82,093
739,3	-80,813
739,7	-90,453
740,2	-96,653
740,6	-94,533
741,1	-97,573
741,5	-98,133
741,9	-89,893
742,4	-78,453
742,8	-80,453
743,2	-77,653
743,7	-76,173
744,1	-79,373
744,5	-85,293
745	-83,893
745,4	-83,973
745,8	-85,773
746,3	-81,613
746,7	-81,213
747,2	-79,093
747,6	-80,173
748	-83,533
748,5	-87,973
748,9	-83,813
749,3	-80,533
749,8	-79,693
750,2	-81,333
750,6	-82,173
751,1	-82,413
751,5	-85,213
751,9	-86,333
752,4	-79,933
752,8	-77,253
753,3	-77,773
753,7	-80,173
754,1	-80,653
754,6	-83,213
755	-77,213
755,4	-76,613
755,9	-79,133
756,3	-79,973
756,7	-70,813
757,2	-80,253
757,6	-84,493
758	-81,213
758,5	-77,813
758,9	-83,493
759,3	-75,533
759,8	-72,493
760,2	-75,733
760,6	-76,693
761,1	-77,773
761,5	-84,173
761,9	-88,733
762,4	-87,493
762,8	-91,013
763,3	-94,813
763,7	-94,253
764,1	-93,093
764,6	-87,053
765	-82,653
765,4	-79,133
765,9	-74,893
766,3	-76,013
766,7	-80,573
767,2	-81,853
767,6	-86,893
768	-93,973
768,5	-92,173
768,9	-87,973
769,3	-91,973
769,8	-87,533
770,2	-81,533
770,6	-80,093
771,1	-84,453
771,5	-89,813
771,9	-91,373
772,4	-95,373
772,8	-96,213
773,2	-97,373
773,7	-84,933
774,1	-86,853
774,5	-84,813
775	-82,813
775,4	-83,493
775,8	-86,973
776,3	-87,373
776,7	-92,213
777,1	-87,413
777,6	-84,773
778	-84,413
778,4	-76,813
778,9	-70,653
779,3	-79,373
779,7	-81,013
780,2	-82,373
780,6	-88,813
781	-91,413
781,5	-83,173
781,9	-87,213
782,3	-86,813
782,8	-87,133
783,2	-81,973
783,6	-87,893
784,1	-86,693
784,5	-85,653
784,9	-86,213
785,4	-91,053
785,8	-91,493
786,2	-90,253
786,7	-89,973
787,1	-83,973
787,5	-88,493
788	-85,293
788,4	-87,253
788,8	-93,333
789,3	-97,253
789,7	-92,053
790,1	-93,453
790,6	-87,293
791	-82,173
791,4	-80,533
791,9	-75,053
792,3	-84,573
792,7	-83,333
793,2	-80,133
793,6	-84,093
794	-83,573
794,5	-68,013
794,9	-77,453
795,3	-83,733
795,8	-85,013
796,2	-93,933
796,6	-99,013
797,1	-89,693
797,5	-97,013
797,9	-90,213
798,4	-84,053
798,8	-82,733
799,2	-86,613
799,7	-72,213
800,1	-73,333
800,5	-73,773
801	-75,533
801,4	-71,973
801,8	-72,933
802,2	-77,613
802,7	-77,573
803,1	-77,213
803,5	-78,333
804	-80,133
804,4	-80,853
804,8	-83,813
805,3	-78,133
805,7	-84,253
806,1	-84,693
806,6	-78,293
807	-77,413
807,4	-86,613
807,9	-75,933
808,3	-75,173
808,7	-82,413
809,2	-85,213
809,6	-85,173
810	-89,133
810,4	-92,373
810,9	-87,213
811,3	-86,333
811,7	-87,733
812,2	-92,013
812,6	-95,733
813	-101,493
813,5	-96,853
813,9	-86,813
814,3	-84,773
814,8	-78,733
815,2	-75,533
815,6	-75,853
816,1	-81,693
816,5	-83,493
816,9	-80,493
817,3	-83,293
817,8	-83,133
818,2	-78,893
818,6	-79,373
819,1	-82,013
819,5	-73,373
819,9	-76,173
820,4	-80,813
820,8	-76,973
821,2	-77,973
821,7	-81,413
822,1	-74,893
822,5	-74,173
822,9	-76,733
823,4	-80,613
823,8	-84,893
824,2	-92,013
824,7	-93,813
825,1	-93,333
825,5	-87,933
826	-85,693
826,4	-86,373
826,8	-89,253
827,3	-85,053
827,7	-81,973
828,1	-81,253
828,5	-82,773
829	-80,973
829,4	-87,733
829,8	-91,733
830,3	-88,693
830,7	-84,893
831,1	-85,453
831,6	-89,213
832	-93,173
832,4	-93,773
832,8	-92,933
833,3	-90,533
833,7	-82,253
834,1	-83,653
834,6	-88,493
835	-87,573
835,4	-88,213
835,8	-85,413
836,3	-79,373
836,7	-75,213
837,1	-82,613
837,6	-81,573
838	-86,093
838,4	-90,933
838,9	-92,333
839,3	-87,253
839,7	-87,573
840,1	-91,693
840,6	-88,173
841	-86,533
841,4	-92,653
841,9	-93,693
842,3	-88,493
842,7	-92,573
843,1	-99,653
843,6	-88,693
844	-90,133
844,4	-91,373
844,9	-91,093
845,3	-79,653
845,7	-84,893
846,2	-82,573
846,6	-77,093
847	-75,853
847,4	-77,653
847,9	-75,853
848,3	-76,813
848,7	-82,893
849,2	-81,213
849,6	-86,813
850	-84,213
850,4	-82,733
850,9	-82,853
851,3	-77,333
851,7	-82,093
852,2	-87,453
852,6	-92,013
853	-88,853
853,4	-96,893
853,9	-90,053
854,3	-89,333
854,7	-80,093
855,2	-83,813
855,6	-84,653
856	-90,853
856,4	-92,293
856,9	-93,093
857,3	-88,653
857,7	-85,293
858,2	-78,933
858,6	-85,053
859	-87,373
859,4	-97,293
859,9	-96,893
860,3	-99,173
860,7	-86,493
861,1	-89,613
861,6	-80,413
862	-84,253
862,4	-81,413
862,9	-84,453
863,3	-79,133
863,7	-84,973
864,1	-84,573
864,6	-85,213
865	-87,053
865,4	-89,933
865,9	-85,573
866,3	-84,333
866,7	-91,533
867,1	-93,533
867,6	-98,933
868	-102,893
868,4	-103,253
868,8	-96,173
869,3	-98,733
869,7	-92,293
870,1	-86,933
870,6	-83,533
871	-81,133
871,4	-124,773
871,8	-124,413
872,3	-130,253
872,7	-128,453
873,1	-132,773
873,5	-87,173
874	-92,733
874,4	-93,493
874,8	-97,093
875,3	-99,613
875,7	-97,933
876,1	-98,813
876,5	-92,133
877	-93,333
877,4	-88,773
877,8	-85,613
878,2	-79,493
878,7	-83,053
879,1	-79,173
879,5	-80,533
879,9	-84,173
880,4	-87,173
880,8	-86,453
881,2	-93,453
881,7	-95,493
882,1	-92,213
882,5	-92,493
882,9	-85,933
883,4	-81,093
883,8	-77,173
884,2	-79,173
884,6	-81,973
885,1	-84,333
885,5	-87,693
885,9	-85,973
886,3	-90,413
886,8	-92,173
887,2	-91,733
887,6	-91,773
888	-96,893
888,5	-91,733
888,9	-89,053
889,3	-97,733
889,8	-94,133
890,2	-89,173
890,6	-87,573
891	-81,533
891,5	-74,573
891,9	-71,333
892,3	-69,413
892,7	-71,333
893,2	-78,093
893,6	-78,053
894	-83,933
894,4	-87,493
894,9	-86,173
895,3	-84,013
895,7	-85,613
896,1	-79,733
896,6	-84,853
897	-83,213
897,4	-81,333
897,8	-78,333
898,3	-84,373
898,7	-83,653
899,1	-85,093
899,5	-84,653
900	-91,853
900,4	-88,413
900,8	-89,133
901,2	-92,693
901,7	-96,133
902,1	-96,013
902,5	-93,573
902,9	-91,533
903,4	-92,053
903,8	-91,253
904,2	-90,493
904,6	-95,013
905,1	-89,293
905,5	-85,453
905,9	-88,493
906,3	-82,653
906,8	-81,333
907,2	-85,133
907,6	-88,973
908	-85,613
908,5	-87,293
908,9	-86,173
909,3	-90,893
909,7	-93,413
910,2	-88,693
910,6	-89,133
911	-84,013
911,4	-76,893
911,9	-73,773
912,3	-74,533
912,7	-74,333
913,1	-83,173
913,6	-89,973
914	-89,773
914,4	-87,933
914,8	-87,773
915,3	-84,253
915,7	-77,253
916,1	-77,173
916,5	-78,493
916,9	-82,213
917,4	-79,053
917,8	-79,093
918,2	-79,453
918,6	-82,653
919,1	-75,813
919,5	-83,813
919,9	-88,053
920,3	-81,733
920,8	-85,973
921,2	-91,853
921,6	-89,453
922	-90,293
922,5	-92,373
922,9	-93,293
923,3	-89,853
923,7	-87,093
924,2	-88,133
924,6	-90,453
925	-77,493
925,4	-84,253
925,8	-90,053
926,3	-90,773
926,7	-84,853
927,1	-94,213
927,5	-92,013
928	-86,053
928,4	-80,933
928,8	-87,613
929,2	-85,213
929,7	-81,773
930,1	-85,013
930,5	-86,573
930,9	-85,133
931,3	-83,973
931,8	-91,013
932,2	-91,933
932,6	-94,493
933	-93,373
933,5	-93,773
933,9	-93,053
934,3	-91,893
934,7	-90,733
935,2	-92,893
935,6	-97,173
936	-96,533
936,4	-94,653
936,8	-90,613
937,3	-89,213
937,7	-88,693
938,1	-79,613
938,5	-80,613
939	-86,093
939,4	-91,133
939,8	-90,493
940,2	-95,453
940,6	-97,453
941,1	-94,293
941,5	-91,893
941,9	-92,413
942,3	-96,733
942,8	-97,013
943,2	-98,293
943,6	-96,853
944	-97,133
944,4	-95,853
944,9	-92,893
945,3	-96,773
945,7	-99,453
946,1	-96,213
946,6	-96,093
947	-92,453
947,4	-91,213
947,8	-89,293
948,2	-89,653
948,7	-80,173
949,1	-83,533
949,5	-79,573
949,9	-75,053
950,3	-80,173
950,8	-89,133
951,2	-84,333
951,6	-90,893
952	-93,093
952,5	-87,653
952,9	-83,333
953,3	-90,373
953,7	-85,933
954,1	-85,893
954,6	-89,213
955	-93,933
955,4	-95,453
955,8	-85,853
956,2	-88,813
956,7	-86,093
957,1	-81,573
957,5	-77,653
957,9	-87,453
958,3	-88,093
958,8	-84,693
959,2	-81,573
959,6	-87,373
960	-85,893
960,5	-86,733
960,9	-87,613
961,3	-91,773
961,7	-92,333
962,1	-86,773
962,6	-82,853
963	-87,853
963,4	-88,493
963,8	-83,373
964,2	-96,613
964,7	-95,693
965,1	-91,853
965,5	-96,013
965,9	-99,653
966,3	-89,733
966,8	-89,653
967,2	-87,973
967,6	-89,133
968	-83,013
968,4	-78,533
968,9	-82,053
969,3	-85,533
969,7	-84,493
970,1	-85,213
970,5	-89,813
971	-83,133
971,4	-85,853
971,8	-81,093
972,2	-75,373
972,6	-77,973
973,1	-81,533
973,5	-78,773
973,9	-79,493
974,3	-89,453
974,7	-85,173
975,2	-89,453
975,6	-90,853
976	-88,933
976,4	-86,053
976,8	-90,533
977,3	-89,893
977,7	-87,733
978,1	-86,293
978,5	-82,493
978,9	-82,893
979,4	-84,933
979,8	-88,213
980,2	-91,013
980,6	-92,373
981	-91,733
981,5	-87,293
981,9	-86,253
982,3	-84,333
982,7	-81,613
983,1	-79,053
983,6	-77,973
984	-73,533
984,4	-80,373
984,8	-85,413
985,2	-89,653
985,6	-94,773
986,1	-94,373
986,5	-86,893
986,9	-83,333
987,3	-87,533
987,7	-82,373
988,2	-81,493
988,6	-84,493
989	-91,093
989,4	-87,413
989,8	-92,693
990,3	-100,213
990,7	-97,413
991,1	-100,933
991,5	-97,533
991,9	-93,133
992,3	-90,133
992,8	-91,213
993,2	-86,853
993,6	-87,453
994	-85,373
994,4	-83,013
994,9	-84,973
995,3	-82,453
995,7	-80,933
996,1	-77,533
996,5	-81,573
996,9	-79,133
997,4	-82,573
997,8	-90,893
998,2	-93,693
998,6	-92,773
999	-100,653
999,5	-97,053
999,9	-96,133
1000,3	-98,613
1000,7	-100,973
1001,1	-98,213
1001,5	-97,813
1002	-91,813
1002,4	-91,453
1002,8	-86,093
1003,2	-81,853
1003,6	-79,213
1004	-77,213
1004,5	-77,293
1004,9	-77,293
1005,3	-78,853
1005,7	-81,093
1006,1	-78,213
1006,6	-81,133
1007	-76,573
1007,4	-76,253
1007,8	-75,653
1008,2	-82,093
1008,6	-84,653
1009,1	-94,213
1009,5	-92,373
1009,9	-100,613
1010,3	-100,213
1010,7	-96,253
1011,1	-90,853
1011,6	-92,773
1012	-86,493
1012,4	-90,973
1012,8	-97,453
1013,2	-98,573
1013,6	-97,973
1014,1	-101,893
1014,5	-95,693
1014,9	-90,813
1015,3	-94,293
1015,7	-93,933
1016,1	-92,493
1016,6	-97,653
1017	-94,573
1017,4	-94,613
1017,8	-102,613
1018,2	-106,133
1018,6	-102,453
1019,1	-105,653
1019,5	-103,693
1019,9	-99,293
1020,3	-91,653
1020,7	-88,253
1021,1	-94,413
1021,6	-90,853
1022	-85,693
1022,4	-88,453
1022,8	-94,533
1023,2	-91,133
1023,6	-91,253
1024,1	-94,373
1024,5	-101,053
1024,9	-97,573
1025,3	-96,773
1025,7	-101,973
1026,1	-108,573
1026,6	-101,133
1027	-98,773
1027,4	-100,813
1027,8	-105,693
1028,2	-96,933
1028,6	-100,533
1029	-99,133
1029,5	-99,373
1029,9	-92,813
1030,3	-98,013
1030,7	-98,693
1031,1	-107,733
1031,5	-105,053
1032	-108,973
1032,4	-113,253
1032,8	-104,413
1033,2	-96,133
1033,6	-93,053
1034	-88,973
1034,4	-84,893
1034,9	-96,493
1035,3	-98,053
1035,7	-112,093
1036,1	-107,173
1036,5	-101,253
1036,9	-96,373
1037,4	-104,853
1037,8	-93,693
1038,2	-103,693
1038,6	-109,253
1039	-103,693
1039,4	-96,653
1039,8	-96,973
1040,3	-98,293
1040,7	-96,853
1041,1	-105,933
1041,5	-107,453
1041,9	-110,293
1042,3	-109,133
1042,7	-106,693
1043,2	-104,333
1043,6	-103,373
1044	-100,373
1044,4	-98,533
1044,8	-101,893
1045,2	-104,413
1045,6	-111,533
1046,1	-109,693
1046,5	-107,093
1046,9	-109,293
1047,3	-101,293
1047,7	-99,853
1048,1	-98,693
1048,5	-102,573
1049	-95,933
1049,4	-104,613
1049,8	-103,293
1050,2	-107,293
1050,6	-99,053
1051	-106,133
1051,4	-102,413
1051,9	-100,493
1052,3	-107,013
1052,7	-121,053
1053,1	-125,373
1053,5	-120,093
1053,9	-120,213
1054,3	-115,893
1054,8	-105,813
1055,2	-98,413
1055,6	-102,773
1056	-98,973
1056,4	-94,573
1056,8	-94,653
1057,2	-94,773
1057,6	-99,413
1058,1	-104,053
1058,5	-100,893
1058,9	-103,333
1059,3	-104,773
1059,7	-99,613
1060,1	-99,893
1060,5	-102,293
1061	-99,613
1061,4	-95,853
1061,8	-94,013
1062,2	-93,133
1062,6	-93,773
1063	-97,813
1063,4	-100,813
1063,8	-103,293
1064,3	-99,053
1064,7	-98,973
1065,1	-96,333
1065,5	-94,933
1065,9	-96,453
1066,3	-101,933
1066,7	-111,253
1067,1	-109,613
1067,6	-113,493
1068	-112,413
1068,4	-108,173
1068,8	-99,213
1069,2	-101,733
1069,6	-97,973
1070	-96,893
1070,4	-98,253
1070,9	-95,773
1071,3	-98,693
1071,7	-98,893
1072,1	-97,213
1072,5	-99,453
1072,9	-100,293
1073,3	-90,933
1073,7	-95,413
1074,2	-99,613
1074,6	-97,573
1075	-102,973
1075,4	-110,013
1075,8	-101,373
1076,2	-98,933
1076,6	-94,253
1077	-88,653
1077,5	-88,413
1077,9	-92,933
1078,3	-84,013
1078,7	-84,653
1079,1	-79,893
1079,5	-76,013
1079,9	-72,853
1080,3	-78,373
1080,7	-81,653
1081,2	-84,533
1081,6	-88,693
1082	-87,053
1082,4	-89,333
1082,8	-86,613
1083,2	-90,693
1083,6	-86,013
1084	-88,453
1084,5	-87,093
1084,9	-93,453
1085,3	-87,733
1085,7	-90,373
1086,1	-85,133
1086,5	-87,373
1086,9	-82,493
1087,3	-87,893
1087,7	-86,973
1088,2	-86,293
1088,6	-77,653
1089	-79,533
1089,4	-75,493
1089,8	-73,533
1090,2	-77,173
1090,6	-84,733
1091	-84,173
1091,4	-87,813
1091,9	-88,773
1092,3	-89,173
1092,7	-90,613
1093,1	-88,453
1093,5	-92,013
1093,9	-95,773
1094,3	-92,733
1094,7	-88,893
1095,1	-92,013
1095,5	-85,613
1096	-78,453
1096,4	-84,893
1096,8	-81,653
1097,2	-77,493
1097,6	-70,973
1098	-81,293
1098,4	-74,773
1098,8	-83,413
1099,2	-82,493
1099,6	-84,293
1100,1	-74,893
1100,5	-75,453
1100,9	-64,733
1101,3	-62,373
1101,7	-66,813
1102,1	-64,773
1102,5	-64,093
1102,9	-63,213
1103,3	-66,773
1103,7	-60,333
1104,2	-56,773
1104,6	-57,533
1105	-62,413
1105,4	-59,293
1105,8	-58,813
1106,2	-50,413
1106,6	-36,533
1107	-22,013
1107,4	-9,573
1107,8	-0,733
1108,3	-0,133
