Data from Subt2_00016.txt Node
Date: Fri Aug 11 15:30:03 MSK 2023
User: vat
Spectrometer: MAYP114033
Trigger mode: 0
Integration Time (sec): 5,000000E-1
Scans to average: 5
Electric dark correction enabled: true
Nonlinearity correction enabled: false
Boxcar width: 2
XAxis mode: Wavelengths
Number of Pixels in Spectrum: 2068
>>>>>Begin Spectral Data<<<<<
199,4	-0,733
199,9	-0,117
200,4	-3,947
200,8	-7,267
201,3	-13,027
201,8	-16,827
202,2	-18,147
202,7	-20,427
203,2	-20,627
203,6	-19,547
204,1	-18,587
204,6	-19,547
205	-21,947
205,5	-30,187
206	-27,867
206,4	-34,587
206,9	-45,827
207,4	-47,307
207,8	-39,227
208,3	-38,147
208,8	-35,987
209,2	-29,307
209,7	-27,787
210,2	-34,147
210,6	-42,307
211,1	-40,987
211,5	-42,307
212	-40,867
212,5	-38,107
212,9	-35,267
213,4	-35,947
213,9	-36,467
214,3	-32,147
214,8	-35,467
215,3	-34,987
215,7	-37,347
216,2	-40,867
216,7	-46,107
217,1	-42,907
217,6	-43,547
218,1	-38,187
218,5	-34,067
219	-36,467
219,5	-36,107
219,9	-35,027
220,4	-31,667
220,9	-28,787
221,3	-23,507
221,8	-22,867
222,3	-24,707
222,7	-34,467
223,2	-34,987
223,6	-43,467
224,1	-41,427
224,6	-41,907
225	-41,827
225,5	-44,227
226	-38,347
226,4	-40,467
226,9	-37,827
227,4	-32,107
227,8	-30,987
228,3	-27,667
228,8	-25,827
229,2	-27,187
229,7	-33,627
230,2	-31,827
230,6	-36,707
231,1	-46,307
231,5	-50,827
232	-47,427
232,5	-49,707
232,9	-45,107
233,4	-37,027
233,9	-35,147
234,3	-36,307
234,8	-33,027
235,3	-31,987
235,7	-38,507
236,2	-36,267
236,7	-41,507
237,1	-45,107
237,6	-51,507
238,1	-44,147
238,5	-41,947
239	-40,867
239,4	-38,747
239,9	-34,347
240,4	-38,507
240,8	-37,747
241,3	-38,867
241,8	-42,227
242,2	-44,307
242,7	-43,307
243,2	-45,067
243,6	-37,667
244,1	-37,667
244,6	-27,827
245	-24,027
245,5	-27,187
245,9	-30,267
246,4	-27,267
246,9	-37,227
247,3	-45,227
247,8	-41,347
248,3	-39,027
248,7	-39,787
249,2	-38,507
249,7	-33,627
250,1	-34,827
250,6	-33,467
251	-30,307
251,5	-29,867
252	-29,507
252,4	-25,827
252,9	-26,907
253,4	-33,347
253,8	-35,267
254,3	-38,747
254,8	-46,627
255,2	-43,187
255,7	-38,427
256,1	-33,227
256,6	-26,387
257,1	-19,747
257,5	-20,907
258	-21,187
258,5	-21,147
258,9	-21,707
259,4	-19,467
259,9	-24,867
260,3	-26,347
260,8	-26,907
261,2	-31,707
261,7	-38,147
262,2	-34,467
262,6	-40,547
263,1	-50,547
263,6	-48,587
264	-47,387
264,5	-46,147
264,9	-42,507
265,4	-38,667
265,9	-34,467
266,3	-34,267
266,8	-34,627
267,3	-34,427
267,7	-31,267
268,2	-35,907
268,7	-31,227
269,1	-32,827
269,6	-31,787
270	-27,067
270,5	-25,187
271	-31,347
271,4	-32,107
271,9	-33,267
272,4	-33,547
272,8	-38,627
273,3	-39,347
273,7	-35,707
274,2	-34,667
274,7	-38,827
275,1	-31,227
275,6	-25,587
276,1	-31,387
276,5	-35,987
277	-37,507
277,4	-46,827
277,9	-50,507
278,4	-48,307
278,8	-43,507
279,3	-41,547
279,8	-35,827
280,2	-31,707
280,7	-32,867
281,1	-26,107
281,6	-25,987
282,1	-27,227
282,5	-36,027
283	-31,067
283,4	-34,867
283,9	-39,187
284,4	-38,027
284,8	-25,867
285,3	-28,627
285,8	-26,427
286,2	-26,387
286,7	-27,747
287,1	-37,067
287,6	-39,427
288,1	-44,827
288,5	-41,907
289	-41,987
289,5	-38,307
289,9	-33,547
290,4	-33,827
290,8	-34,107
291,3	-30,667
291,8	-32,347
292,2	-36,467
292,7	-35,707
293,1	-35,987
293,6	-38,667
294,1	-32,947
294,5	-32,707
295	-32,747
295,5	-27,787
295,9	-26,707
296,4	-31,147
296,8	-33,587
297,3	-26,627
297,8	-33,267
298,2	-29,067
298,7	-37,947
299,1	-30,107
299,6	-35,507
300,1	-34,507
300,5	-40,547
301	-27,707
301,5	-29,627
301,9	-31,107
302,4	-26,147
302,8	-24,827
303,3	-30,227
303,8	-35,507
304,2	-36,667
304,7	-46,627
305,1	-48,027
305,6	-47,067
306,1	-47,667
306,5	-50,627
307	-39,747
307,4	-37,827
307,9	-38,147
308,4	-34,467
308,8	-30,507
309,3	-38,387
309,8	-35,787
310,2	-32,867
310,7	-37,587
311,1	-32,427
311,6	-22,667
312,1	-24,187
312,5	-21,787
313	-14,907
313,4	-20,507
313,9	-21,387
314,4	-21,547
314,8	-28,347
315,3	-28,587
315,7	-26,587
316,2	-32,627
316,7	-33,187
317,1	-37,707
317,6	-41,027
318	-35,907
318,5	-36,387
319	-38,867
319,4	-39,187
319,9	-36,707
320,3	-41,747
320,8	-41,867
321,3	-40,627
321,7	-32,347
322,2	-32,907
322,6	-32,587
323,1	-33,827
323,6	-33,027
324	-32,387
324,5	-29,507
324,9	-27,907
325,4	-25,587
325,9	-25,147
326,3	-26,267
326,8	-22,827
327,2	-26,627
327,7	-27,107
328,2	-23,227
328,6	-29,787
329,1	-33,147
329,5	-29,747
330	-26,587
330,5	-24,307
330,9	-22,067
331,4	-23,307
331,8	-23,427
332,3	-24,267
332,8	-28,627
333,2	-24,267
333,7	-26,467
334,1	-26,827
334,6	-26,067
335,1	-21,027
335,5	-22,467
336	-27,467
336,4	-30,667
336,9	-32,627
337,4	-39,027
337,8	-39,787
338,3	-32,187
338,7	-27,707
339,2	-24,467
339,7	-24,307
340,1	-23,867
340,6	-23,987
341	-24,867
341,5	-27,587
342	-25,027
342,4	-18,387
342,9	-19,547
343,3	-23,907
343,8	-21,667
344,2	-23,667
344,7	-26,907
345,2	-27,947
345,6	-22,347
346,1	-24,027
346,5	-25,067
347	-25,467
347,5	-24,587
347,9	-24,747
348,4	-22,827
348,8	-19,347
349,3	-12,227
349,8	-5,067
350,2	2,693
350,7	10,933
351,1	20,213
351,6	24,053
352	39,213
352,5	57,333
353	79,893
353,4	104,733
353,9	137,373
354,3	169,333
354,8	205,453
355,3	250,653
355,7	310,253
356,2	369,893
356,6	443,973
357,1	532,773
357,5	637,533
358	749,533
358,5	889,013
358,9	1043,973
359,4	1217,933
359,8	1400,813
360,3	1620,613
360,8	1855,693
361,2	2119,733
361,7	2403,413
362,1	2725,093
362,6	3063,653
363	3448,813
363,5	3835,613
364	4257,493
364,4	4674,973
364,9	5101,533
365,3	5501,013
365,8	5904,893
366,3	6270,773
366,7	6600,053
367,2	6885,333
367,6	7116,253
368,1	7282,533
368,5	7392,573
369	7430,933
369,5	7409,613
369,9	7332,373
370,4	7200,293
370,8	7001,013
371,3	6778,933
371,7	6512,013
372,2	6216,813
372,7	5883,813
373,1	5547,213
373,6	5201,133
374	4850,893
374,5	4515,133
374,9	4200,733
375,4	3888,333
375,9	3588,573
376,3	3302,253
376,8	3008,533
377,2	2745,453
377,7	2500,853
378,2	2281,373
378,6	2076,533
379,1	1901,853
379,5	1726,093
380	1577,773
380,4	1434,133
380,9	1302,493
381,4	1187,093
381,8	1091,493
382,3	1001,013
382,7	922,413
383,2	858,573
383,6	796,053
384,1	733,293
384,6	673,493
385	621,973
385,5	569,173
385,9	526,173
386,4	491,933
386,8	459,453
387,3	425,573
387,7	389,693
388,2	360,373
388,7	330,053
389,1	298,453
389,6	272,053
390	254,813
390,5	233,013
390,9	208,813
391,4	193,613
391,9	173,613
392,3	157,733
392,8	140,573
393,2	128,493
393,7	116,413
394,1	113,933
394,6	106,493
395,1	105,893
395,5	100,413
396	93,813
396,4	82,413
396,9	70,813
397,3	59,773
397,8	51,293
398,2	50,093
398,7	49,413
399,2	46,653
399,6	43,413
400,1	41,773
400,5	37,413
401	29,693
401,4	31,973
401,9	27,053
402,4	21,013
402,8	16,653
403,3	14,693
403,7	12,853
404,2	10,813
404,6	8,653
405,1	7,733
405,5	5,333
406	-0,947
406,5	1,933
406,9	7,893
407,4	4,613
407,8	3,933
408,3	6,733
408,7	4,453
409,2	5,053
409,6	5,133
410,1	6,373
410,6	5,973
411	0,733
411,5	0,173
411,9	2,573
412,4	4,493
412,8	-0,867
413,3	-2,747
413,7	-2,667
414,2	-0,027
414,7	-1,067
415,1	7,613
415,6	14,613
416	13,093
416,5	11,293
416,9	14,213
417,4	12,253
417,8	9,093
418,3	6,013
418,8	7,693
419,2	9,093
419,7	13,613
420,1	18,093
420,6	15,253
421	5,173
421,5	2,533
421,9	1,173
422,4	-1,507
422,8	7,053
423,3	19,773
423,8	21,813
424,2	17,173
424,7	25,853
425,1	26,093
425,6	26,813
426	19,453
426,5	20,093
426,9	12,813
427,4	9,093
427,9	1,133
428,3	2,533
428,8	-1,347
429,2	-3,867
429,7	-3,027
430,1	-2,907
430,6	-2,827
431	-1,867
431,5	6,213
431,9	-2,867
432,4	-2,587
432,8	1,093
433,3	3,653
433,8	-6,307
434,2	-1,427
434,7	0,613
435,1	-0,227
435,6	-4,307
436	-4,027
436,5	2,373
436,9	-2,147
437,4	-1,027
437,8	0,413
438,3	-2,827
438,8	-10,947
439,2	-12,067
439,7	-13,587
440,1	-15,587
440,6	-12,067
441	-5,707
441,5	-6,667
441,9	-7,787
442,4	-7,747
442,8	-9,267
443,3	-15,587
443,7	-15,027
444,2	-10,787
444,7	-13,427
445,1	-9,227
445,6	-2,827
446	3,493
446,5	5,653
446,9	13,773
447,4	14,613
447,8	15,373
448,3	11,453
448,7	6,693
449,2	7,173
449,6	4,533
450,1	4,253
450,6	1,933
451	-4,347
451,5	-9,867
451,9	-12,427
452,4	-13,107
452,8	-6,627
453,3	-1,587
453,7	4,333
454,2	8,453
454,6	3,413
455,1	-2,707
455,5	0,093
456	-2,547
456,4	-5,267
456,9	-0,667
457,3	47,013
457,8	42,693
458,3	46,293
458,7	49,733
459,2	51,093
459,6	4,573
460,1	8,173
460,5	1,133
461	6,013
461,4	6,213
461,9	14,493
462,3	17,493
462,8	32,013
463,2	33,413
463,7	34,093
464,1	34,173
464,6	33,893
465	27,853
465,5	26,453
466	26,653
466,4	29,053
466,9	27,573
467,3	29,053
467,8	25,613
468,2	30,053
468,7	31,653
469,1	34,533
469,6	37,293
470	38,213
470,5	41,413
470,9	36,773
471,4	35,693
471,8	30,573
472,3	34,933
472,7	26,413
473,2	27,293
473,6	29,133
474,1	30,253
474,5	25,853
475	30,653
475,4	28,613
475,9	29,613
476,4	31,093
476,8	36,093
477,3	39,333
477,7	37,693
478,2	32,213
478,6	33,213
479,1	30,133
479,5	26,093
480	28,373
480,4	29,613
480,9	25,973
481,3	32,773
481,8	33,773
482,2	34,293
482,7	36,413
483,1	38,053
483,6	33,813
484	38,213
484,5	38,893
484,9	37,693
485,4	35,173
485,8	32,613
486,3	28,533
486,7	33,493
487,2	36,053
487,6	39,413
488,1	43,453
488,5	43,293
489	44,053
489,4	44,333
489,9	41,373
490,4	37,453
490,8	42,093
491,3	40,053
491,7	38,333
492,2	42,173
492,6	43,693
493,1	42,613
493,5	42,133
494	45,533
494,4	44,453
494,9	45,093
495,3	40,373
495,8	45,613
496,2	47,453
496,7	51,613
497,1	50,053
497,6	53,013
498	42,053
498,5	40,853
498,9	35,373
499,4	36,053
499,8	39,453
500,3	46,733
500,7	48,493
501,2	51,813
501,6	50,733
502,1	50,333
502,5	49,133
503	47,173
503,4	44,053
503,9	50,053
504,3	43,813
504,8	41,413
505,2	41,453
505,7	45,373
506,1	42,733
506,6	43,133
507	43,173
507,5	41,293
507,9	39,293
508,4	37,613
508,8	39,053
509,3	41,533
509,7	44,213
510,2	44,973
510,6	45,973
511,1	46,053
511,5	44,653
512	43,853
512,4	43,413
512,9	43,133
513,3	40,893
513,8	50,373
514,2	50,533
514,7	50,613
515,1	52,293
515,6	51,333
516	45,813
516,5	44,773
516,9	45,893
517,4	41,893
517,8	46,373
518,3	41,413
518,7	50,453
519,2	51,533
519,6	56,133
520,1	54,493
520,5	60,853
521	52,133
521,4	50,333
521,9	53,173
522,3	54,453
522,8	53,773
523,2	60,413
523,7	66,693
524,1	61,453
524,6	60,333
525	60,573
525,5	60,213
525,9	59,493
526,4	62,133
526,8	59,133
527,3	57,013
527,7	53,093
528,2	47,373
528,6	49,853
529,1	57,333
529,5	60,613
530	61,933
530,4	71,053
530,9	70,133
531,3	68,853
531,8	71,613
532,2	67,093
532,6	63,373
533,1	56,933
533,5	53,133
534	51,093
534,4	51,813
534,9	49,613
535,3	60,573
535,8	65,373
536,2	59,533
536,7	58,973
537,1	56,053
537,6	49,573
538	47,093
538,5	40,893
538,9	42,413
539,4	48,533
539,8	52,733
540,3	50,493
540,7	59,053
541,2	58,333
541,6	57,093
542,1	56,133
542,5	62,333
543	63,893
543,4	62,773
543,9	59,773
544,3	59,013
544,8	61,333
545,2	67,413
545,7	72,253
546,1	72,733
546,5	77,533
547	68,893
547,4	63,773
547,9	61,333
548,3	60,453
548,8	56,893
549,2	59,733
549,7	54,013
550,1	59,213
550,6	59,973
551	60,613
551,5	61,733
551,9	69,093
552,4	63,413
552,8	65,493
553,3	61,493
553,7	62,973
554,2	57,733
554,6	64,973
555,1	61,293
555,5	62,293
555,9	63,533
556,4	67,413
556,8	65,413
557,3	65,653
557,7	64,813
558,2	66,893
558,6	64,173
559,1	58,413
559,5	60,733
560	61,853
560,4	56,013
560,9	58,893
561,3	60,333
561,8	64,373
562,2	66,973
562,7	67,173
563,1	66,853
563,6	72,733
564	76,813
564,4	76,493
564,9	78,413
565,3	74,413
565,8	69,253
566,2	56,373
566,7	53,533
567,1	53,333
567,6	53,733
568	56,853
568,5	58,293
568,9	53,533
569,4	54,013
569,8	55,213
570,3	50,613
570,7	53,973
571,1	57,573
571,6	57,693
572	60,093
572,5	60,813
572,9	61,853
573,4	67,693
573,8	65,853
574,3	63,413
574,7	66,653
575,2	64,053
575,6	60,133
576,1	56,773
576,5	50,533
576,9	49,533
577,4	57,933
577,8	57,213
578,3	61,093
578,7	61,373
579,2	61,453
579,6	55,693
580,1	49,973
580,5	52,333
581	57,493
581,4	55,173
581,9	57,613
582,3	62,093
582,7	62,453
583,2	58,493
583,6	56,933
584,1	49,573
584,5	47,613
585	43,213
585,4	47,253
585,9	49,493
586,3	53,213
586,8	53,893
587,2	50,933
587,6	49,333
588,1	48,773
588,5	47,373
589	50,013
589,4	53,693
589,9	58,413
590,3	51,853
590,8	50,173
591,2	45,293
591,7	45,093
592,1	45,813
592,5	50,333
593	48,133
593,4	49,373
593,9	47,493
594,3	38,293
594,8	32,573
595,2	38,613
595,7	47,053
596,1	50,053
596,6	55,933
597	64,453
597,4	62,333
597,9	55,813
598,3	53,813
598,8	55,213
599,2	52,093
599,7	48,533
600,1	46,013
600,6	43,693
601	29,373
601,4	25,773
601,9	27,893
602,3	25,253
602,8	25,333
603,2	33,173
603,7	41,133
604,1	37,253
604,6	39,253
605	40,533
605,4	40,373
605,9	34,293
606,3	39,173
606,8	46,413
607,2	46,813
607,7	47,853
608,1	48,333
608,6	51,413
609	42,013
609,4	38,333
609,9	34,173
610,3	33,253
610,8	30,813
611,2	31,853
611,7	32,133
612,1	29,333
612,6	31,853
613	24,053
613,4	28,493
613,9	33,133
614,3	37,293
614,8	33,373
615,2	38,653
615,7	40,453
616,1	40,573
616,6	39,973
617	37,373
617,4	30,933
617,9	23,013
618,3	12,893
618,8	13,413
619,2	15,653
619,7	19,973
620,1	14,973
620,5	18,053
621	11,893
621,4	16,413
621,9	12,333
622,3	14,293
622,8	18,773
623,2	20,533
623,6	17,413
624,1	20,773
624,5	22,893
625	21,253
625,4	24,373
625,9	23,173
626,3	26,453
626,8	29,333
627,2	24,733
627,6	23,373
628,1	21,453
628,5	17,013
629	13,813
629,4	15,493
629,9	19,213
630,3	18,373
630,7	16,653
631,2	16,133
631,6	12,293
632,1	15,573
632,5	16,733
633	20,173
633,4	19,613
633,8	18,573
634,3	13,893
634,7	14,613
635,2	6,853
635,6	4,653
636,1	7,573
636,5	7,533
636,9	2,173
637,4	8,053
637,8	14,093
638,3	10,093
638,7	11,413
639,2	19,493
639,6	20,053
640	15,653
640,5	19,133
640,9	13,613
641,4	5,613
641,8	1,053
642,2	2,613
642,7	7,733
643,1	6,093
643,6	7,773
644	11,813
644,5	5,693
644,9	2,933
645,3	6,533
645,8	8,653
646,2	6,173
646,7	9,493
647,1	4,653
647,6	1,333
648	-1,867
648,4	0,213
648,9	2,253
649,3	-2,267
649,8	-0,107
650,2	7,533
650,6	5,933
651,1	1,413
651,5	11,253
652	16,293
652,4	7,573
652,9	-1,267
653,3	2,413
653,7	-0,627
654,2	-9,547
654,6	-5,107
655,1	-2,947
655,5	-5,707
655,9	-9,427
656,4	-11,067
656,8	-13,827
657,3	-11,867
657,7	-7,107
658,2	-1,067
658,6	6,213
659	2,613
659,5	2,693
659,9	0,733
660,4	-2,547
660,8	-5,947
661,2	-1,507
661,7	-0,587
662,1	-0,467
662,6	-9,427
663	-10,827
663,4	-10,587
663,9	-10,987
664,3	-13,147
664,8	0,773
665,2	2,973
665,6	-1,067
666,1	4,093
666,5	1,453
667	-3,707
667,4	-8,227
667,9	-2,707
668,3	-9,347
668,7	-6,987
669,2	-9,787
669,6	-1,267
670,1	-5,187
670,5	-6,027
670,9	-7,587
671,4	-12,627
671,8	-18,547
672,3	-17,627
672,7	-19,267
673,1	-17,747
673,6	-13,667
674	-13,707
674,5	-12,027
674,9	-13,347
675,3	-16,907
675,8	-17,907
676,2	-19,187
676,7	-22,387
677,1	-16,347
677,5	-14,347
678	-15,507
678,4	-11,707
678,9	-11,987
679,3	-16,587
679,7	-16,667
680,2	-13,787
680,6	-15,427
681,1	-19,027
681,5	-15,747
681,9	-18,827
682,4	-19,667
682,8	-25,587
683,3	-21,547
683,7	-24,507
684,1	-16,227
684,6	-15,947
685	-18,947
685,5	-23,987
685,9	-22,187
686,3	-27,867
686,8	-28,467
687,2	-20,827
687,7	-21,307
688,1	-17,547
688,5	-13,267
689	-15,147
689,4	-15,187
689,9	-13,667
690,3	-14,747
690,7	-19,107
691,2	-13,347
691,6	-18,067
692	-8,707
692,5	-4,667
692,9	-1,387
693,4	-4,747
693,8	0,133
694,2	-3,187
694,7	-7,147
695,1	-10,307
695,6	-7,387
696	-13,627
696,4	-20,547
696,9	-21,707
697,3	-24,227
697,8	-28,707
698,2	-24,987
698,6	-26,867
699,1	-33,187
699,5	-30,467
699,9	-27,267
700,4	-27,827
700,8	-25,147
701,3	-21,507
701,7	-15,027
702,1	-17,027
702,6	-15,267
703	-15,787
703,5	-15,187
703,9	-26,387
704,3	-25,387
704,8	-28,347
705,2	-24,787
705,6	-24,027
706,1	-21,467
706,5	-21,787
707	-21,227
707,4	-20,347
707,8	-20,627
708,3	-16,707
708,7	-18,067
709,2	-19,987
709,6	-21,707
710	-20,867
710,5	-25,347
710,9	-29,947
711,3	-24,147
711,8	-27,307
712,2	-26,027
712,7	-24,147
713,1	-25,467
713,5	-24,547
714	-22,467
714,4	-24,707
714,8	-21,627
715,3	-18,187
715,7	-23,947
716,2	-24,707
716,6	-27,747
717	-30,907
717,5	-28,947
717,9	-22,187
718,3	-23,827
718,8	-19,747
719,2	-25,707
719,7	-24,427
720,1	-33,147
720,5	-26,107
721	-28,587
721,4	-22,587
721,8	-23,627
722,3	-24,627
722,7	-32,787
723,2	-30,867
723,6	-36,547
724	-33,827
724,5	-23,747
724,9	-22,547
725,3	-20,587
725,8	-14,387
726,2	-16,627
726,7	-27,547
727,1	-24,787
727,5	-29,467
728	-32,387
728,4	-39,827
728,8	-34,147
729,3	-34,947
729,7	-30,747
730,1	-25,947
730,6	-22,107
731	-22,027
731,5	-20,507
731,9	-24,627
732,3	-26,507
732,8	-26,827
733,2	-21,827
733,6	-21,827
734,1	-22,147
734,5	-24,427
734,9	-18,827
735,4	-25,227
735,8	-25,147
736,3	-21,547
736,7	-18,187
737,1	-18,387
737,6	-17,187
738	-18,387
738,4	-25,307
738,9	-27,227
739,3	-31,467
739,7	-36,267
740,2	-40,107
740,6	-37,387
741,1	-35,907
741,5	-31,867
741,9	-26,427
742,4	-21,547
742,8	-22,307
743,2	-32,227
743,7	-32,667
744,1	-34,027
744,5	-36,307
745	-35,947
745,4	-24,467
745,8	-26,507
746,3	-25,787
746,7	-28,227
747,2	-27,587
747,6	-36,627
748	-36,027
748,5	-36,787
748,9	-33,587
749,3	-29,387
749,8	-20,387
750,2	-24,987
750,6	-31,507
751,1	-30,147
751,5	-31,387
751,9	-36,147
752,4	-24,667
752,8	-22,627
753,3	-25,067
753,7	-23,747
754,1	-23,867
754,6	-33,187
755	-22,747
755,4	-20,907
755,9	-23,867
756,3	-22,467
756,7	-15,787
757,2	-23,107
757,6	-27,707
758	-31,427
758,5	-30,067
758,9	-36,707
759,3	-29,107
759,8	-27,587
760,2	-28,067
760,6	-31,627
761,1	-30,467
761,5	-39,347
761,9	-41,147
762,4	-31,347
762,8	-30,587
763,3	-31,507
763,7	-33,267
764,1	-31,507
764,6	-36,507
765	-36,107
765,4	-31,587
765,9	-25,987
766,3	-26,587
766,7	-26,267
767,2	-27,067
767,6	-35,467
768	-43,787
768,5	-39,507
768,9	-37,107
769,3	-34,027
769,8	-31,107
770,2	-25,547
770,6	-25,507
771,1	-33,107
771,5	-40,547
771,9	-41,307
772,4	-35,907
772,8	-41,467
773,2	-36,667
773,7	-29,667
774,1	-26,827
774,5	-28,827
775	-25,427
775,4	-28,027
775,8	-31,427
776,3	-26,587
776,7	-28,067
777,1	-28,587
777,6	-24,507
778	-23,347
778,4	-27,107
778,9	-26,947
779,3	-31,587
779,7	-32,267
780,2	-29,987
780,6	-32,387
781	-34,667
781,5	-32,827
781,9	-32,907
782,3	-32,427
782,8	-30,107
783,2	-27,067
783,6	-24,787
784,1	-27,027
784,5	-31,707
784,9	-33,427
785,4	-35,627
785,8	-36,307
786,2	-40,667
786,7	-39,947
787,1	-39,747
787,5	-41,107
788	-38,307
788,4	-34,827
788,8	-38,067
789,3	-38,147
789,7	-38,507
790,1	-38,307
790,6	-33,267
791	-30,907
791,4	-30,787
791,9	-28,187
792,3	-35,907
792,7	-37,147
793,2	-31,947
793,6	-37,267
794	-36,947
794,5	-28,667
794,9	-34,547
795,3	-40,347
795,8	-38,147
796,2	-37,347
796,6	-38,667
797,1	-32,947
797,5	-35,947
797,9	-35,667
798,4	-39,267
798,8	-34,227
799,2	-34,947
799,7	-30,547
800,1	-29,387
800,5	-24,787
801	-30,467
801,4	-29,467
801,8	-25,787
802,2	-27,547
802,7	-31,187
803,1	-32,027
803,5	-36,507
804	-40,587
804,4	-43,467
804,8	-39,747
805,3	-34,747
805,7	-40,787
806,1	-38,387
806,6	-29,147
807	-31,627
807,4	-41,907
807,9	-32,147
808,3	-34,747
808,7	-43,987
809,2	-41,227
809,6	-38,107
810	-42,467
810,4	-36,867
810,9	-30,067
811,3	-35,587
811,7	-38,627
812,2	-36,307
812,6	-45,987
813	-48,987
813,5	-41,267
813,9	-34,307
814,3	-34,907
814,8	-28,187
815,2	-30,587
815,6	-36,387
816,1	-38,387
816,5	-39,867
816,9	-42,147
817,3	-37,747
817,8	-38,867
818,2	-41,467
818,6	-42,267
819,1	-39,587
819,5	-38,387
819,9	-37,227
820,4	-34,267
820,8	-26,387
821,2	-26,187
821,7	-27,507
822,1	-23,827
822,5	-27,187
822,9	-32,867
823,4	-34,027
823,8	-40,067
824,2	-41,147
824,7	-38,227
825,1	-34,347
825,5	-32,467
826	-27,947
826,4	-27,587
826,8	-28,027
827,3	-32,267
827,7	-31,587
828,1	-27,627
828,5	-32,107
829	-30,907
829,4	-30,267
829,8	-30,907
830,3	-29,267
830,7	-25,987
831,1	-28,347
831,6	-31,587
832	-33,627
832,4	-33,467
832,8	-37,227
833,3	-38,387
833,7	-35,067
834,1	-40,787
834,6	-49,747
835	-50,307
835,4	-43,907
835,8	-43,027
836,3	-35,747
836,7	-32,907
837,1	-32,507
837,6	-38,347
838	-41,867
838,4	-49,827
838,9	-51,667
839,3	-50,227
839,7	-45,307
840,1	-47,067
840,6	-42,547
841	-42,627
841,4	-42,627
841,9	-42,947
842,3	-39,067
842,7	-41,627
843,1	-41,827
843,6	-38,467
844	-46,387
844,4	-46,307
844,9	-46,627
845,3	-38,467
845,7	-42,667
846,2	-33,867
846,6	-29,307
847	-24,787
847,4	-29,947
847,9	-31,467
848,3	-38,227
848,7	-43,027
849,2	-43,867
849,6	-41,987
850	-38,867
850,4	-37,347
850,9	-39,067
851,3	-33,987
851,7	-38,467
852,2	-36,987
852,6	-41,947
853	-38,667
853,4	-45,867
853,9	-41,347
854,3	-43,907
854,7	-33,027
855,2	-33,827
855,6	-30,147
856	-28,427
856,4	-27,987
856,9	-29,987
857,3	-28,507
857,7	-32,227
858,2	-38,747
858,6	-40,347
859	-43,987
859,4	-49,587
859,9	-50,467
860,3	-44,107
860,7	-41,987
861,1	-39,427
861,6	-35,027
862	-34,987
862,4	-37,187
862,9	-39,147
863,3	-38,307
863,7	-40,187
864,1	-38,227
864,6	-32,827
865	-30,387
865,4	-29,107
865,9	-28,787
866,3	-27,187
866,7	-32,107
867,1	-36,467
867,6	-36,867
868	-38,707
868,4	-42,227
868,8	-43,267
869,3	-42,427
869,7	-43,667
870,1	-39,707
870,6	-34,987
871	-31,987
871,4	-34,067
871,8	-39,947
872,3	-43,907
872,7	-45,347
873,1	-47,387
873,5	-43,347
874	-38,987
874,4	-37,227
874,8	-39,267
875,3	-37,827
875,7	-34,627
876,1	-35,467
876,5	-31,267
877	-28,907
877,4	-29,307
877,8	-29,347
878,2	-26,427
878,7	-27,747
879,1	-27,867
879,5	-28,787
879,9	-28,067
880,4	-32,427
880,8	-34,707
881,2	-37,867
881,7	-37,587
882,1	-35,267
882,5	-38,507
882,9	-35,267
883,4	-26,227
883,8	-30,547
884,2	-38,627
884,6	-33,387
885,1	-34,627
885,5	-47,027
885,9	-36,267
886,3	-33,987
886,8	-35,467
887,2	-37,747
887,6	-36,587
888	-47,587
888,5	-44,027
888,9	-44,427
889,3	-51,147
889,8	-45,387
890,2	-41,987
890,6	-44,147
891	-44,387
891,5	-35,547
891,9	-35,867
892,3	-28,307
892,7	-27,427
893,2	-20,707
893,6	-25,027
894	-27,147
894,4	-34,867
894,9	-31,627
895,3	-36,387
895,7	-35,867
896,1	-32,627
896,6	-36,027
897	-36,587
897,4	-34,467
897,8	-32,907
898,3	-34,347
898,7	-31,947
899,1	-38,587
899,5	-36,467
900	-35,147
900,4	-34,107
900,8	-37,107
901,2	-35,067
901,7	-38,507
902,1	-40,467
902,5	-40,547
902,9	-35,107
903,4	-35,827
903,8	-44,787
904,2	-44,147
904,6	-39,667
905,1	-35,107
905,5	-36,947
905,9	-25,707
906,3	-21,707
906,8	-25,707
907,2	-31,467
907,6	-26,507
908	-28,467
908,5	-29,747
908,9	-30,747
909,3	-33,307
909,7	-37,827
910,2	-34,027
910,6	-32,427
911	-28,347
911,4	-22,867
911,9	-25,307
912,3	-27,507
912,7	-32,467
913,1	-38,787
913,6	-46,387
914	-40,187
914,4	-41,987
914,8	-37,347
915,3	-36,547
915,7	-33,547
916,1	-37,427
916,5	-37,947
916,9	-39,147
917,4	-38,987
917,8	-38,267
918,2	-34,347
918,6	-34,467
919,1	-35,947
919,5	-37,507
919,9	-36,147
920,3	-38,387
920,8	-45,667
921,2	-47,187
921,6	-49,387
922	-52,987
922,5	-49,467
922,9	-50,267
923,3	-46,707
923,7	-42,387
924,2	-42,667
924,6	-43,507
925	-26,587
925,4	-32,667
925,8	-35,627
926,3	-34,587
926,7	-32,907
927,1	-39,827
927,5	-35,707
928	-29,667
928,4	-23,107
928,8	-26,827
929,2	-29,507
929,7	-25,907
930,1	-28,427
930,5	-30,747
930,9	-31,867
931,3	-26,907
931,8	-31,507
932,2	-34,827
932,6	-37,627
933	-38,747
933,5	-40,867
933,9	-44,587
934,3	-45,547
934,7	-46,267
935,2	-43,267
935,6	-44,147
936	-44,947
936,4	-39,547
936,8	-39,987
937,3	-38,627
937,7	-41,907
938,1	-34,867
938,5	-37,467
939	-36,787
939,4	-36,747
939,8	-35,387
940,2	-37,307
940,6	-36,307
941,1	-30,787
941,5	-32,147
941,9	-28,467
942,3	-30,147
942,8	-39,827
943,2	-44,147
943,6	-42,747
944	-44,067
944,4	-42,827
944,9	-31,107
945,3	-32,787
945,7	-36,067
946,1	-38,707
946,6	-39,867
947	-41,827
947,4	-40,587
947,8	-38,067
948,2	-34,947
948,7	-34,467
949,1	-37,667
949,5	-44,507
949,9	-41,987
950,3	-50,547
950,8	-48,867
951,2	-44,907
951,6	-39,707
952	-44,387
952,5	-37,507
952,9	-38,467
953,3	-41,307
953,7	-39,787
954,1	-31,587
954,6	-35,147
955	-35,387
955,4	-35,907
955,8	-31,907
956,2	-43,707
956,7	-41,107
957,1	-40,907
957,5	-37,387
957,9	-43,787
958,3	-38,147
958,8	-38,387
959,2	-35,747
959,6	-36,987
960	-36,347
960,5	-39,947
960,9	-37,947
961,3	-41,227
961,7	-43,627
962,1	-38,387
962,6	-36,827
963	-39,227
963,4	-40,867
963,8	-40,107
964,2	-42,307
964,7	-44,267
965,1	-43,467
965,5	-42,107
965,9	-45,867
966,3	-44,347
966,8	-40,987
967,2	-39,267
967,6	-42,907
968	-32,987
968,4	-32,267
968,9	-33,547
969,3	-37,907
969,7	-36,907
970,1	-42,667
970,5	-40,987
971	-40,427
971,4	-37,587
971,8	-32,347
972,2	-32,747
972,6	-36,787
973,1	-36,747
973,5	-36,187
973,9	-41,147
974,3	-37,227
974,7	-34,587
975,2	-37,627
975,6	-41,107
976	-37,867
976,4	-41,187
976,8	-44,747
977,3	-42,667
977,7	-37,147
978,1	-34,667
978,5	-30,267
978,9	-29,507
979,4	-32,387
979,8	-36,907
980,2	-36,587
980,6	-37,147
981	-38,547
981,5	-37,427
981,9	-36,147
982,3	-38,987
982,7	-40,467
983,1	-37,507
983,6	-32,187
984	-31,627
984,4	-35,067
984,8	-34,347
985,2	-38,987
985,6	-42,107
986,1	-41,707
986,5	-33,667
986,9	-37,787
987,3	-42,067
987,7	-36,347
988,2	-35,867
988,6	-38,227
989	-38,547
989,4	-35,067
989,8	-37,747
990,3	-41,947
990,7	-41,987
991,1	-41,667
991,5	-38,907
991,9	-39,547
992,3	-35,187
992,8	-35,547
993,2	-34,067
993,6	-32,587
994	-32,467
994,4	-31,347
994,9	-30,507
995,3	-27,907
995,7	-27,467
996,1	-26,147
996,5	-32,427
996,9	-34,947
997,4	-39,867
997,8	-46,587
998,2	-47,387
998,6	-42,427
999	-47,867
999,5	-46,947
999,9	-39,467
1000,3	-39,707
1000,7	-40,747
1001,1	-34,387
1001,5	-32,467
1002	-33,227
1002,4	-36,787
1002,8	-32,707
1003,2	-32,307
1003,6	-31,907
1004	-30,907
1004,5	-27,587
1004,9	-32,907
1005,3	-32,427
1005,7	-32,227
1006,1	-32,907
1006,6	-34,667
1007	-30,507
1007,4	-32,547
1007,8	-32,467
1008,2	-34,627
1008,6	-35,947
1009,1	-40,467
1009,5	-40,747
1009,9	-42,747
1010,3	-42,467
1010,7	-41,467
1011,1	-35,747
1011,6	-37,227
1012	-39,387
1012,4	-39,707
1012,8	-45,067
1013,2	-42,827
1013,6	-38,667
1014,1	-38,587
1014,5	-34,707
1014,9	-29,147
1015,3	-30,987
1015,7	-32,747
1016,1	-28,627
1016,6	-33,307
1017	-31,707
1017,4	-37,227
1017,8	-39,587
1018,2	-45,147
1018,6	-38,467
1019,1	-38,507
1019,5	-34,267
1019,9	-31,827
1020,3	-22,107
1020,7	-30,187
1021,1	-35,307
1021,6	-35,387
1022	-36,187
1022,4	-39,547
1022,8	-32,547
1023,2	-29,747
1023,6	-31,907
1024,1	-35,827
1024,5	-41,667
1024,9	-47,227
1025,3	-50,707
1025,7	-49,427
1026,1	-47,667
1026,6	-42,587
1027	-39,027
1027,4	-41,187
1027,8	-46,427
1028,2	-45,027
1028,6	-50,827
1029	-55,507
1029,5	-50,787
1029,9	-42,507
1030,3	-43,307
1030,7	-40,987
1031,1	-42,627
1031,5	-40,747
1032	-43,747
1032,4	-44,147
1032,8	-46,067
1033,2	-44,347
1033,6	-42,747
1034	-46,467
1034,4	-45,907
1034,9	-42,507
1035,3	-40,507
1035,7	-48,987
1036,1	-43,147
1036,5	-42,227
1036,9	-43,227
1037,4	-46,267
1037,8	-40,467
1038,2	-48,027
1038,6	-57,067
1039	-56,547
1039,4	-53,627
1039,8	-54,827
1040,3	-53,067
1040,7	-44,147
1041,1	-48,467
1041,5	-47,347
1041,9	-50,627
1042,3	-48,347
1042,7	-50,627
1043,2	-42,107
1043,6	-44,507
1044	-42,947
1044,4	-47,827
1044,8	-48,267
1045,2	-54,067
1045,6	-57,987
1046,1	-55,587
1046,5	-53,547
1046,9	-49,387
1047,3	-40,107
1047,7	-36,947
1048,1	-30,867
1048,5	-30,627
1049	-31,107
1049,4	-44,067
1049,8	-44,747
1050,2	-46,387
1050,6	-46,747
1051	-55,987
1051,4	-49,467
1051,9	-51,027
1052,3	-57,787
1052,7	-63,987
1053,1	-55,987
1053,5	-51,107
1053,9	-45,227
1054,3	-44,747
1054,8	-32,627
1055,2	-28,987
1055,6	-33,947
1056	-33,227
1056,4	-30,307
1056,8	-32,587
1057,2	-40,387
1057,6	-42,227
1058,1	-43,267
1058,5	-43,827
1058,9	-41,467
1059,3	-42,947
1059,7	-41,187
1060,1	-45,227
1060,5	-44,507
1061	-46,987
1061,4	-40,667
1061,8	-39,147
1062,2	-32,587
1062,6	-32,827
1063	-37,387
1063,4	-36,787
1063,8	-39,867
1064,3	-40,187
1064,7	-38,307
1065,1	-33,547
1065,5	-36,147
1065,9	-34,147
1066,3	-36,307
1066,7	-41,627
1067,1	-42,907
1067,6	-40,667
1068	-42,467
1068,4	-42,107
1068,8	-37,667
1069,2	-37,747
1069,6	-36,587
1070	-37,747
1070,4	-42,667
1070,9	-43,627
1071,3	-43,507
1071,7	-44,267
1072,1	-41,627
1072,5	-44,467
1072,9	-45,027
1073,3	-41,987
1073,7	-46,387
1074,2	-55,907
1074,6	-47,227
1075	-46,867
1075,4	-47,267
1075,8	-41,027
1076,2	-26,627
1076,6	-26,267
1077	-28,387
1077,5	-34,747
1077,9	-39,067
1078,3	-40,067
1078,7	-42,107
1079,1	-37,587
1079,5	-31,267
1079,9	-32,147
1080,3	-35,067
1080,7	-33,587
1081,2	-31,627
1081,6	-36,827
1082	-36,747
1082,4	-39,707
1082,8	-40,387
1083,2	-48,107
1083,6	-46,267
1084	-46,747
1084,5	-46,867
1084,9	-54,907
1085,3	-48,187
1085,7	-48,907
1086,1	-40,547
1086,5	-39,387
1086,9	-29,627
1087,3	-33,307
1087,7	-30,707
1088,2	-34,987
1088,6	-30,907
1089	-35,667
1089,4	-30,907
1089,8	-30,787
1090,2	-31,387
1090,6	-35,547
1091	-33,747
1091,4	-39,667
1091,9	-45,787
1092,3	-47,027
1092,7	-48,107
1093,1	-50,907
1093,5	-45,827
1093,9	-42,827
1094,3	-41,187
1094,7	-38,307
1095,1	-34,627
1095,5	-38,267
1096	-31,747
1096,4	-31,027
1096,8	-24,467
1097,2	-21,147
1097,6	-14,747
1098	-21,467
1098,4	-19,067
1098,8	-31,827
1099,2	-34,827
1099,6	-35,947
1100,1	-34,227
1100,5	-32,067
1100,9	-23,947
1101,3	-20,507
1101,7	-24,987
1102,1	-20,387
1102,5	-25,307
1102,9	-20,787
1103,3	-24,747
1103,7	-17,067
1104,2	-17,627
1104,6	-19,067
1105	-21,827
1105,4	-21,867
1105,8	-24,907
1106,2	-22,107
1106,6	-13,387
1107	-9,707
1107,4	-3,187
1107,8	-0,817
1108,3	0,467
