Data from Subt2_00080.txt Node
Date: Fri Aug 11 16:40:10 MSK 2023
User: vat
Spectrometer: MAYP114033
Trigger mode: 0
Integration Time (sec): 5,000000E-1
Scans to average: 5
Electric dark correction enabled: true
Nonlinearity correction enabled: false
Boxcar width: 2
XAxis mode: Wavelengths
Number of Pixels in Spectrum: 2068
>>>>>Begin Spectral Data<<<<<
199,4	1,3
199,9	1,067
200,4	1,367
200,8	0,647
201,3	-0,033
201,8	-2,273
202,2	-6,953
202,7	-8,553
203,2	-8,993
203,6	-11,673
204,1	-9,833
204,6	-5,673
205	-4,593
205,5	-3,473
206	-4,713
206,4	-6,873
206,9	-6,913
207,4	-4,233
207,8	-5,713
208,3	-2,233
208,8	3,727
209,2	7,327
209,7	3,487
210,2	5,607
210,6	8,167
211,1	4,487
211,5	-0,713
212	-1,753
212,5	-6,953
212,9	-11,113
213,4	-11,393
213,9	-12,473
214,3	-7,953
214,8	-9,713
215,3	-11,233
215,7	-20,033
216,2	-19,633
216,7	-26,793
217,1	-25,553
217,6	-24,273
218,1	-16,993
218,5	-11,153
219	-4,553
219,5	-1,753
219,9	0,447
220,4	4,327
220,9	0,527
221,3	-0,273
221,8	-4,353
222,3	-4,193
222,7	-8,313
223,2	-9,673
223,6	-11,193
224,1	-3,193
224,6	-0,433
225	-0,433
225,5	-1,033
226	2,567
226,4	-8,113
226,9	-11,913
227,4	-12,313
227,8	-16,153
228,3	-19,873
228,8	-13,713
229,2	-15,593
229,7	-17,513
230,2	-10,833
230,6	-15,073
231,1	-9,153
231,5	-5,313
232	-0,153
232,5	-0,513
232,9	-0,793
233,4	-7,113
233,9	-6,753
234,3	-9,033
234,8	-11,833
235,3	-9,033
235,7	-9,633
236,2	-15,193
236,7	-18,033
237,1	-12,473
237,6	-12,153
238,1	-7,593
238,5	-2,393
239	-0,193
239,4	-1,593
239,9	1,047
240,4	-0,993
240,8	0,207
241,3	0,767
241,8	-4,993
242,2	-11,753
242,7	-13,193
243,2	-18,473
243,6	-16,873
244,1	-18,433
244,6	-12,873
245	-13,593
245,5	-10,073
245,9	-11,553
246,4	-2,233
246,9	0,647
247,3	0,007
247,8	-3,793
248,3	-5,033
248,7	-9,273
249,2	-13,713
249,7	-17,433
250,1	-19,713
250,6	-21,593
251	-25,193
251,5	-25,313
252	-19,273
252,4	-9,753
252,9	-5,753
253,4	-4,473
253,8	-4,993
254,3	-3,033
254,8	-4,193
255,2	-5,673
255,7	-1,513
256,1	-0,713
256,6	-3,313
257,1	-3,713
257,5	-4,033
258	-1,153
258,5	-6,793
258,9	-9,913
259,4	-14,513
259,9	-10,633
260,3	-18,353
260,8	-8,713
261,2	-5,273
261,7	-5,593
262,2	-11,153
262,6	-10,753
263,1	-17,153
263,6	-11,753
264	-9,353
264,5	-7,113
264,9	-2,073
265,4	-0,913
265,9	-5,393
266,3	-6,233
266,8	-4,953
267,3	-9,153
267,7	-6,353
268,2	-6,433
268,7	-1,713
269,1	-1,913
269,6	-0,513
270	-2,833
270,5	-4,433
271	-16,313
271,4	-19,993
271,9	-21,713
272,4	-26,113
272,8	-23,593
273,3	-15,673
273,7	-11,033
274,2	-10,753
274,7	-1,273
275,1	-1,073
275,6	0,087
276,1	-7,513
276,5	-4,193
277	-7,833
277,4	-13,233
277,9	-12,153
278,4	-5,673
278,8	-5,353
279,3	-2,473
279,8	0,207
280,2	-3,593
280,7	-4,673
281,1	-13,993
281,6	-20,673
282,1	-15,993
282,5	-16,313
283	-14,553
283,4	-11,193
283,9	-8,233
284,4	-10,593
284,8	-12,513
285,3	-12,513
285,8	-8,273
286,2	-7,553
286,7	-8,353
287,1	-6,753
287,6	-4,713
288,1	-4,353
288,5	-2,753
289	-5,913
289,5	-5,793
289,9	-11,793
290,4	-11,393
290,8	-12,993
291,3	-11,753
291,8	-3,993
292,2	-1,793
292,7	-2,553
293,1	-5,153
293,6	-5,433
294,1	-12,113
294,5	-9,513
295	-5,313
295,5	-4,673
295,9	-9,633
296,4	-8,953
296,8	-9,593
297,3	-16,353
297,8	-15,793
298,2	-7,953
298,7	-10,593
299,1	-13,113
299,6	-12,753
300,1	-16,833
300,5	-11,553
301	-8,233
301,5	-6,873
301,9	-8,633
302,4	-4,873
302,8	-11,273
303,3	-10,153
303,8	-14,273
304,2	-10,633
304,7	-2,673
305,1	-1,033
305,6	-3,833
306,1	3,007
306,5	-0,833
307	-7,033
307,4	-9,753
307,9	-9,073
308,4	-6,033
308,8	-2,753
309,3	0,687
309,8	2,167
310,2	-1,233
310,7	-8,033
311,1	-11,073
311,6	-20,673
312,1	-17,193
312,5	-11,993
313	-11,273
313,4	-6,233
313,9	0,967
314,4	-6,953
314,8	-10,233
315,3	-9,473
315,7	-11,953
316,2	-11,313
316,7	-12,073
317,1	-13,433
317,6	-15,033
318	-9,593
318,5	-8,713
319	-8,473
319,4	-3,313
319,9	-3,673
320,3	-10,193
320,8	-17,113
321,3	-6,073
321,7	-4,473
322,2	-2,113
322,6	-4,953
323,1	2,047
323,6	-5,953
324	-8,393
324,5	-11,673
324,9	-7,633
325,4	-13,753
325,9	-9,833
326,3	-8,753
326,8	-6,913
327,2	-8,073
327,7	-5,713
328,2	-6,193
328,6	-4,593
329,1	-3,993
329,5	-0,073
330	1,607
330,5	-0,433
330,9	-4,553
331,4	-11,793
331,8	-15,473
332,3	-14,233
332,8	-14,473
333,2	-15,113
333,7	-8,313
334,1	-7,513
334,6	-13,393
335,1	-13,833
335,5	-14,913
336	-15,193
336,4	-18,433
336,9	-11,593
337,4	-14,993
337,8	-14,473
338,3	-12,553
338,7	-5,393
339,2	-9,993
339,7	-4,073
340,1	-0,593
340,6	0,647
341	3,007
341,5	7,967
342	6,287
342,4	4,287
342,9	-0,033
343,3	-8,353
343,8	-7,833
344,2	-2,233
344,7	-4,353
345,2	-7,633
345,6	-2,273
346,1	-5,673
346,5	-7,713
347	-1,433
347,5	3,567
347,9	0,247
348,4	-1,393
348,8	-7,193
349,3	-13,033
349,8	-7,393
350,2	-6,193
350,7	-4,593
351,1	-3,153
351,6	-1,473
352	-7,513
352,5	-7,953
353	-5,433
353,4	1,167
353,9	4,967
354,3	8,807
354,8	8,567
355,3	11,167
355,7	12,527
356,2	15,327
356,6	24,207
357,1	39,487
357,5	48,487
358	57,007
358,5	75,407
358,9	89,087
359,4	103,047
359,8	126,487
360,3	149,567
360,8	170,767
361,2	192,167
361,7	220,807
362,1	252,207
362,6	285,687
363	322,247
363,5	366,087
364	406,327
364,4	440,407
364,9	486,887
365,3	532,567
365,8	571,287
366,3	607,287
366,7	645,247
367,2	675,927
367,6	692,527
368,1	714,167
368,5	732,887
369	742,967
369,5	742,007
369,9	743,167
370,4	726,207
370,8	709,887
371,3	687,607
371,7	660,807
372,2	626,367
372,7	597,367
373,1	564,807
373,6	527,527
374	494,647
374,5	465,407
374,9	437,887
375,4	405,287
375,9	379,567
376,3	352,327
376,8	327,047
377,2	302,567
377,7	275,327
378,2	251,887
378,6	230,127
379,1	205,487
379,5	186,567
380	172,327
380,4	154,287
380,9	137,047
381,4	123,087
381,8	109,287
382,3	101,407
382,7	97,247
383,2	88,767
383,6	87,967
384,1	79,447
384,6	69,487
385	57,887
385,5	52,607
385,9	42,607
386,4	41,527
386,8	39,167
387,3	38,007
387,7	32,367
388,2	32,367
388,7	26,847
389,1	21,047
389,6	17,447
390	26,207
390,5	23,367
390,9	20,367
391,4	19,607
391,9	21,607
392,3	11,967
392,8	12,847
393,2	15,887
393,7	20,527
394,1	16,287
394,6	14,647
395,1	3,167
395,5	3,087
396	1,167
396,4	1,567
396,9	7,407
397,3	14,927
397,8	15,087
398,2	9,047
398,7	10,807
399,2	3,247
399,6	4,567
400,1	-3,793
400,5	0,407
401	-2,273
401,4	2,047
401,9	2,087
402,4	4,167
402,8	2,807
403,3	2,807
403,7	2,167
404,2	0,247
404,6	-0,073
405,1	-0,153
405,5	-1,553
406	-3,353
406,5	-2,913
406,9	-2,753
407,4	1,447
407,8	0,727
408,3	3,767
408,7	1,727
409,2	3,527
409,6	1,687
410,1	6,487
410,6	10,287
411	14,007
411,5	13,967
411,9	9,287
412,4	10,087
412,8	9,687
413,3	11,327
413,7	13,007
414,2	23,167
414,7	20,847
415,1	20,087
415,6	16,127
416	18,287
416,5	13,167
416,9	21,527
417,4	23,047
417,8	35,447
418,3	39,847
418,8	42,247
419,2	39,007
419,7	37,287
420,1	32,367
420,6	34,047
421	33,447
421,5	30,807
421,9	29,687
422,4	28,687
422,8	28,567
423,3	26,447
423,8	31,807
424,2	35,087
424,7	34,967
425,1	32,927
425,6	37,647
426	33,887
426,5	32,927
426,9	38,927
427,4	43,087
427,9	42,727
428,3	47,727
428,8	51,087
429,2	47,567
429,7	47,407
430,1	46,567
430,6	50,487
431	51,767
431,5	56,167
431,9	57,887
432,4	60,527
432,8	61,447
433,3	59,767
433,8	60,887
434,2	55,407
434,7	57,967
435,1	58,647
435,6	66,767
436	68,887
436,5	79,247
436,9	82,847
437,4	84,247
437,8	80,767
438,3	81,207
438,8	77,447
439,2	84,927
439,7	89,007
440,1	96,447
440,6	99,687
441	106,527
441,5	107,127
441,9	110,247
442,4	113,967
442,8	122,167
443,3	131,047
443,7	134,487
444,2	143,967
444,7	155,087
445,1	162,167
445,6	169,007
446	185,007
446,5	190,967
446,9	204,767
447,4	211,927
447,8	217,807
448,3	220,727
448,7	232,047
449,2	232,487
449,6	241,887
450,1	254,127
450,6	263,007
451	267,287
451,5	275,527
451,9	287,687
452,4	300,927
452,8	317,047
453,3	334,647
453,7	350,527
454,2	363,167
454,6	376,847
455,1	385,727
455,5	401,167
456	410,327
456,4	426,407
456,9	434,367
457,3	449,167
457,8	458,167
458,3	470,487
458,7	480,607
459,2	497,807
459,6	508,207
460,1	522,087
460,5	548,247
461	563,167
461,4	575,367
461,9	596,287
462,3	613,447
462,8	628,447
463,2	644,887
463,7	660,807
464,1	678,967
464,6	696,167
465	706,047
465,5	718,607
466	736,327
466,4	749,487
466,9	771,087
467,3	791,247
467,8	814,247
468,2	831,447
468,7	849,447
469,1	858,247
469,6	880,207
470	902,087
470,5	921,007
470,9	939,207
471,4	954,567
471,8	970,087
472,3	983,127
472,7	1003,007
473,2	1018,127
473,6	1049,007
474,1	1062,807
474,5	1077,447
475	1091,967
475,4	1112,887
475,9	1127,367
476,4	1144,407
476,8	1161,527
477,3	1175,167
477,7	1185,447
478,2	1201,847
478,6	1219,647
479,1	1236,927
479,5	1259,767
480	1277,007
480,4	1285,367
480,9	1300,207
481,3	1322,207
481,8	1330,407
482,2	1348,407
482,7	1360,207
483,1	1365,087
483,6	1369,247
484	1375,247
484,5	1384,607
484,9	1408,127
485,4	1424,247
485,8	1432,487
486,3	1450,927
486,7	1454,847
487,2	1458,007
487,6	1468,487
488,1	1475,487
488,5	1483,047
489	1500,647
489,4	1506,967
489,9	1515,127
490,4	1529,607
490,8	1537,967
491,3	1537,847
491,7	1546,327
492,2	1548,487
492,6	1554,967
493,1	1561,927
493,5	1574,047
494	1572,367
494,4	1589,527
494,9	1589,247
495,3	1593,927
495,8	1603,407
496,2	1618,247
496,7	1615,407
497,1	1623,047
497,6	1627,247
498	1630,007
498,5	1629,087
498,9	1637,687
499,4	1633,687
499,8	1641,927
500,3	1641,007
500,7	1645,487
501,2	1647,647
501,6	1656,687
502,1	1655,847
502,5	1658,527
503	1655,807
503,4	1654,927
503,9	1659,567
504,3	1664,287
504,8	1668,367
505,2	1674,767
505,7	1675,647
506,1	1679,367
506,6	1684,647
507	1687,007
507,5	1682,967
507,9	1684,887
508,4	1684,887
508,8	1674,207
509,3	1672,167
509,7	1678,527
510,2	1677,967
510,6	1672,927
511,1	1671,767
511,5	1664,527
512	1659,647
512,4	1660,087
512,9	1666,007
513,3	1671,207
513,8	1679,727
514,2	1687,127
514,7	1681,887
515,1	1681,607
515,6	1680,407
516	1679,967
516,5	1677,247
516,9	1687,327
517,4	1677,287
517,8	1679,127
518,3	1675,567
518,7	1675,887
519,2	1675,447
519,6	1682,767
520,1	1688,607
520,5	1690,487
521	1685,327
521,4	1687,807
521,9	1687,647
522,3	1682,047
522,8	1685,607
523,2	1691,207
523,7	1691,327
524,1	1695,567
524,6	1694,047
525	1686,727
525,5	1686,967
525,9	1683,767
526,4	1678,447
526,8	1682,687
527,3	1691,007
527,7	1688,567
528,2	1681,967
528,6	1692,847
529,1	1694,567
529,5	1698,447
530	1698,487
530,4	1708,167
530,9	1706,927
531,3	1706,407
531,8	1703,127
532,2	1714,607
532,6	1710,807
533,1	1708,807
533,5	1706,807
534	1708,927
534,4	1705,087
534,9	1714,047
535,3	1712,927
535,8	1721,287
536,2	1726,567
536,7	1722,807
537,1	1724,647
537,6	1728,727
538	1732,807
538,5	1738,927
538,9	1750,727
539,4	1744,887
539,8	1749,727
540,3	1746,367
540,7	1739,327
541,2	1738,047
541,6	1742,527
542,1	1743,367
542,5	1751,407
543	1753,767
543,4	1753,207
543,9	1754,367
544,3	1757,967
544,8	1754,047
545,2	1756,767
545,7	1760,087
546,1	1767,447
546,5	1766,767
547	1767,087
547,4	1767,687
547,9	1770,647
548,3	1765,047
548,8	1769,087
549,2	1775,687
549,7	1772,527
550,1	1776,487
550,6	1780,327
551	1779,407
551,5	1778,247
551,9	1786,127
552,4	1785,967
552,8	1788,287
553,3	1791,887
553,7	1798,727
554,2	1799,527
554,6	1805,127
555,1	1813,647
555,5	1820,527
555,9	1817,487
556,4	1819,007
556,8	1812,167
557,3	1810,047
557,7	1804,967
558,2	1803,567
558,6	1802,607
559,1	1815,167
559,5	1816,487
560	1823,447
560,4	1828,847
560,9	1841,807
561,3	1833,167
561,8	1838,727
562,2	1838,647
562,7	1839,847
563,1	1841,367
563,6	1842,767
564	1840,087
564,4	1839,047
564,9	1841,927
565,3	1833,207
565,8	1837,647
566,2	1835,847
566,7	1835,007
567,1	1834,407
567,6	1838,047
568	1835,367
568,5	1831,247
568,9	1832,527
569,4	1833,967
569,8	1830,847
570,3	1829,527
570,7	1835,407
571,1	1825,287
571,6	1820,407
572	1825,887
572,5	1825,127
572,9	1825,727
573,4	1833,727
573,8	1834,007
574,3	1828,367
574,7	1831,247
575,2	1833,647
575,6	1830,967
576,1	1838,967
576,5	1837,807
576,9	1838,407
577,4	1828,647
577,8	1823,767
578,3	1811,327
578,7	1813,527
579,2	1810,487
579,6	1811,247
580,1	1813,887
580,5	1813,447
581	1814,007
581,4	1817,527
581,9	1816,727
582,3	1819,287
582,7	1819,207
583,2	1812,527
583,6	1799,447
584,1	1791,247
584,5	1786,647
585	1782,287
585,4	1778,727
585,9	1779,647
586,3	1783,207
586,8	1778,927
587,2	1773,887
587,6	1770,127
588,1	1761,887
588,5	1755,527
589	1754,007
589,4	1752,007
589,9	1741,767
590,3	1740,127
590,8	1734,647
591,2	1728,287
591,7	1728,447
592,1	1732,207
592,5	1729,167
593	1728,887
593,4	1726,407
593,9	1719,167
594,3	1715,487
594,8	1718,087
595,2	1711,047
595,7	1711,367
596,1	1707,967
596,6	1704,367
597	1700,927
597,4	1698,687
597,9	1693,207
598,3	1695,167
598,8	1687,167
599,2	1676,967
599,7	1672,807
600,1	1665,127
600,6	1659,727
601	1657,727
601,4	1657,967
601,9	1661,087
602,3	1655,647
602,8	1645,167
603,2	1644,247
603,7	1639,327
604,1	1633,567
604,6	1632,567
605	1631,847
605,4	1624,687
605,9	1626,087
606,3	1623,207
606,8	1618,927
607,2	1613,687
607,7	1613,647
608,1	1604,647
608,6	1595,767
609	1594,927
609,4	1587,687
609,9	1577,127
610,3	1569,327
610,8	1569,207
611,2	1561,167
611,7	1557,047
612,1	1552,447
612,6	1543,967
613	1529,087
613,4	1518,287
613,9	1515,487
614,3	1509,327
614,8	1508,767
615,2	1507,527
615,7	1499,687
616,1	1487,727
616,6	1481,287
617	1473,407
617,4	1466,487
617,9	1463,647
618,3	1463,447
618,8	1457,527
619,2	1450,687
619,7	1441,327
620,1	1431,727
620,5	1422,967
621	1420,047
621,4	1410,047
621,9	1402,047
622,3	1406,727
622,8	1401,727
623,2	1388,327
623,6	1386,767
624,1	1376,407
624,5	1362,687
625	1355,367
625,4	1355,287
625,9	1350,087
626,3	1349,647
626,8	1343,527
627,2	1344,047
627,6	1334,167
628,1	1331,487
628,5	1324,887
629	1320,327
629,4	1309,687
629,9	1306,847
630,3	1294,047
630,7	1290,487
631,2	1282,367
631,6	1275,327
632,1	1269,967
632,5	1263,767
633	1261,487
633,4	1257,247
633,8	1252,567
634,3	1241,127
634,7	1240,447
635,2	1235,207
635,6	1225,927
636,1	1216,967
636,5	1213,927
636,9	1206,287
637,4	1196,127
637,8	1192,647
638,3	1181,807
638,7	1175,047
639,2	1170,647
639,6	1164,847
640	1157,967
640,5	1160,527
640,9	1160,687
641,4	1145,007
641,8	1132,407
642,2	1123,367
642,7	1112,087
643,1	1105,967
643,6	1101,407
644	1104,447
644,5	1103,007
644,9	1104,407
645,3	1090,007
645,8	1083,487
646,2	1079,527
646,7	1069,807
647,1	1060,927
647,6	1057,367
648	1060,047
648,4	1049,687
648,9	1045,527
649,3	1044,607
649,8	1044,967
650,2	1039,407
650,6	1031,127
651,1	1033,567
651,5	1023,807
652	1018,647
652,4	1014,927
652,9	1009,407
653,3	999,167
653,7	994,087
654,2	986,927
654,6	974,527
655,1	972,007
655,5	962,247
655,9	952,687
656,4	944,007
656,8	942,607
657,3	937,207
657,7	934,967
658,2	926,407
658,6	924,807
659	919,207
659,5	909,767
659,9	912,047
660,4	913,207
660,8	909,087
661,2	905,927
661,7	906,687
662,1	896,687
662,6	891,287
663	887,967
663,4	878,727
663,9	871,927
664,3	867,287
664,8	862,327
665,2	851,727
665,6	848,767
666,1	841,527
666,5	833,007
667	827,847
667,4	820,247
667,9	813,447
668,3	807,807
668,7	798,567
669,2	786,607
669,6	785,847
670,1	782,247
670,5	781,847
670,9	780,647
671,4	782,887
671,8	776,247
672,3	767,327
672,7	759,287
673,1	755,567
673,6	742,567
674	735,007
674,5	730,047
674,9	723,527
675,3	721,647
675,8	721,447
676,2	722,367
676,7	723,087
677,1	713,407
677,5	705,327
678	701,407
678,4	692,047
678,9	679,407
679,3	679,927
679,7	675,087
680,2	670,887
680,6	665,207
681,1	673,727
681,5	672,007
681,9	663,567
682,4	658,087
682,8	657,527
683,3	639,887
683,7	637,567
684,1	638,767
684,6	637,047
685	630,367
685,5	635,447
685,9	625,247
686,3	621,687
686,8	613,247
687,2	609,247
687,7	600,927
688,1	601,367
688,5	597,487
689	599,247
689,4	598,887
689,9	591,087
690,3	581,727
690,7	572,367
691,2	562,247
691,6	557,247
692	556,487
692,5	563,327
692,9	562,967
693,4	567,087
693,8	566,767
694,2	563,007
694,7	553,607
695,1	551,247
695,6	545,487
696	536,927
696,4	532,847
696,9	525,607
697,3	522,567
697,8	514,487
698,2	516,047
698,6	516,727
699,1	518,847
699,5	517,567
699,9	514,767
700,4	502,967
700,8	504,247
701,3	501,487
701,7	494,847
702,1	496,487
702,6	496,447
703	483,567
703,5	473,527
703,9	469,727
704,3	465,847
704,8	462,367
705,2	465,487
705,6	470,127
706,1	466,127
706,5	461,847
707	464,487
707,4	459,207
707,8	453,687
708,3	452,447
708,7	453,727
709,2	448,527
709,6	445,647
710	440,087
710,5	434,567
710,9	428,807
711,3	423,647
711,8	422,207
712,2	423,207
712,7	416,527
713,1	409,967
713,5	409,767
714	398,327
714,4	392,487
714,8	399,687
715,3	399,647
715,7	399,327
716,2	405,047
716,6	404,527
717	395,207
717,5	394,407
717,9	383,127
718,3	378,767
718,8	375,807
719,2	371,127
719,7	360,847
720,1	358,607
720,5	351,927
721	343,327
721,4	344,167
721,8	344,687
722,3	350,967
722,7	353,287
723,2	353,767
723,6	351,807
724	342,327
724,5	329,847
724,9	323,407
725,3	319,487
725,8	321,327
726,2	328,367
726,7	323,967
727,1	322,967
727,5	318,367
728	314,527
728,4	313,447
728,8	319,087
729,3	320,447
729,7	323,727
730,1	320,247
730,6	322,847
731	315,207
731,5	312,687
731,9	312,287
732,3	311,607
732,8	298,247
733,2	299,287
733,6	295,167
734,1	293,927
734,5	288,407
734,9	292,647
735,4	289,807
735,8	286,647
736,3	287,487
736,7	283,847
737,1	280,407
737,6	283,327
738	283,847
738,4	279,367
738,9	276,647
739,3	270,407
739,7	261,967
740,2	265,927
740,6	257,287
741,1	261,647
741,5	266,167
741,9	270,167
742,4	266,087
742,8	266,527
743,2	264,207
743,7	263,167
744,1	257,847
744,5	251,687
745	251,007
745,4	246,127
745,8	240,407
746,3	236,047
746,7	235,047
747,2	233,727
747,6	239,647
748	240,207
748,5	245,207
748,9	241,447
749,3	238,767
749,8	233,527
750,2	237,007
750,6	233,727
751,1	234,967
751,5	234,487
751,9	234,207
752,4	228,047
752,8	226,807
753,3	227,807
753,7	223,607
754,1	220,207
754,6	218,807
755	214,527
755,4	213,327
755,9	215,927
756,3	214,487
756,7	212,687
757,2	215,607
757,6	207,767
758	208,047
758,5	207,847
758,9	209,407
759,3	205,607
759,8	205,287
760,2	202,807
760,6	197,767
761,1	188,927
761,5	190,367
761,9	191,687
762,4	186,487
762,8	189,727
763,3	191,527
763,7	186,047
764,1	182,807
764,6	183,727
765	178,607
765,4	179,287
765,9	180,087
766,3	175,687
766,7	173,567
767,2	173,767
767,6	175,767
768	173,887
768,5	170,887
768,9	169,247
769,3	169,527
769,8	167,727
770,2	165,367
770,6	175,927
771,1	174,287
771,5	168,647
771,9	166,407
772,4	164,647
772,8	158,207
773,2	158,007
773,7	160,487
774,1	158,367
774,5	154,087
775	150,847
775,4	148,367
775,8	147,847
776,3	145,047
776,7	146,927
777,1	147,287
777,6	143,847
778	143,647
778,4	146,127
778,9	146,407
779,3	145,487
779,7	148,807
780,2	145,847
780,6	138,287
781	142,407
781,5	139,407
781,9	136,727
782,3	132,247
782,8	130,647
783,2	122,487
783,6	123,167
784,1	125,407
784,5	121,127
784,9	122,167
785,4	122,847
785,8	120,967
786,2	123,527
786,7	124,407
787,1	123,847
787,5	120,927
788	118,447
788,4	112,727
788,8	118,167
789,3	112,687
789,7	112,127
790,1	115,287
790,6	106,647
791	101,967
791,4	110,167
791,9	110,767
792,3	106,007
792,7	114,207
793,2	112,007
793,6	105,487
794	107,127
794,5	105,727
794,9	105,207
795,3	109,847
795,8	107,567
796,2	106,087
796,6	109,687
797,1	102,207
797,5	93,727
797,9	97,007
798,4	94,807
798,8	94,567
799,2	95,727
799,7	100,967
800,1	96,167
800,5	97,167
801	96,407
801,4	96,727
801,8	94,447
802,2	100,327
802,7	99,207
803,1	97,207
803,5	99,527
804	97,887
804,4	94,247
804,8	91,527
805,3	82,247
805,7	75,887
806,1	74,887
806,6	70,967
807	67,207
807,4	73,967
807,9	82,927
808,3	85,247
808,7	84,127
809,2	86,167
809,6	88,407
810	81,927
810,4	79,287
810,9	84,167
811,3	86,887
811,7	76,527
812,2	73,927
812,6	75,247
813	73,687
813,5	67,847
813,9	71,687
814,3	77,807
814,8	76,927
815,2	75,767
815,6	78,647
816,1	79,487
816,5	80,767
816,9	82,967
817,3	82,487
817,8	81,047
818,2	79,127
818,6	71,847
819,1	59,167
819,5	58,047
819,9	54,927
820,4	57,007
820,8	58,847
821,2	65,247
821,7	65,247
822,1	64,887
822,5	61,727
822,9	57,047
823,4	60,167
823,8	57,567
824,2	56,767
824,7	60,087
825,1	60,527
825,5	53,287
826	52,487
826,4	54,607
826,8	50,887
827,3	50,247
827,7	52,527
828,1	48,687
828,5	50,007
829	46,567
829,4	42,327
829,8	43,207
830,3	48,007
830,7	53,607
831,1	53,927
831,6	55,727
832	55,447
832,4	56,967
832,8	51,647
833,3	55,327
833,7	63,327
834,1	59,167
834,6	57,927
835	54,327
835,4	50,007
835,8	43,767
836,3	46,647
836,7	47,767
837,1	52,287
837,6	58,167
838	59,407
838,4	59,087
838,9	55,047
839,3	49,167
839,7	46,567
840,1	45,247
840,6	41,607
841	39,607
841,4	39,887
841,9	35,727
842,3	27,927
842,7	27,687
843,1	23,927
843,6	15,727
844	18,887
844,4	23,767
844,9	27,007
845,3	30,287
845,7	38,807
846,2	37,247
846,6	35,887
847	32,207
847,4	31,567
847,9	32,127
848,3	31,607
848,7	35,407
849,2	35,727
849,6	36,247
850	31,527
850,4	28,967
850,9	30,247
851,3	28,927
851,7	26,927
852,2	27,247
852,6	30,247
853	31,287
853,4	30,727
853,9	30,807
854,3	30,847
854,7	28,327
855,2	22,127
855,6	20,127
856	19,727
856,4	20,207
856,9	21,167
857,3	16,727
857,7	26,367
858,2	27,527
858,6	25,007
859	27,687
859,4	34,847
859,9	29,047
860,3	28,607
860,7	26,567
861,1	17,087
861,6	12,047
862	12,527
862,4	11,927
862,9	14,207
863,3	17,407
863,7	18,207
864,1	13,607
864,6	13,047
865	19,167
865,4	16,887
865,9	14,687
866,3	19,167
866,7	18,367
867,1	18,487
867,6	20,007
868	23,167
868,4	19,167
868,8	22,047
869,3	24,927
869,7	23,927
870,1	26,847
870,6	26,047
871	22,927
871,4	-28,713
871,8	-19,753
872,3	-26,593
872,7	-27,513
873,1	-25,673
873,5	15,167
874	8,407
874,4	15,127
874,8	19,207
875,3	17,847
875,7	20,927
876,1	18,367
876,5	12,887
877	9,247
877,4	9,047
877,8	10,887
878,2	13,247
878,7	16,687
879,1	18,407
879,5	19,047
879,9	17,687
880,4	18,887
880,8	17,567
881,2	15,007
881,7	14,167
882,1	5,327
882,5	0,527
882,9	-1,753
883,4	2,727
883,8	0,807
884,2	2,207
884,6	8,327
885,1	6,407
885,5	1,287
885,9	6,007
886,3	12,087
886,8	8,727
887,2	9,887
887,6	16,807
888	12,127
888,5	16,807
888,9	18,007
889,3	15,687
889,8	11,407
890,2	13,327
890,6	6,367
891	5,207
891,5	10,367
891,9	9,927
892,3	9,567
892,7	10,207
893,2	8,847
893,6	4,727
894	9,327
894,4	8,567
894,9	8,247
895,3	11,127
895,7	14,047
896,1	12,207
896,6	17,207
897	21,287
897,4	16,167
897,8	14,687
898,3	13,407
898,7	5,487
899,1	2,727
899,5	1,887
900	1,807
900,4	-1,913
900,8	-7,473
901,2	-13,193
901,7	-8,513
902,1	-8,113
902,5	-0,753
902,9	6,687
903,4	12,367
903,8	8,327
904,2	6,847
904,6	6,047
905,1	-0,953
905,5	-4,593
905,9	-0,393
906,3	-0,273
906,8	-6,953
907,2	3,087
907,6	3,567
908	5,727
908,5	2,327
908,9	8,087
909,3	2,127
909,7	0,647
910,2	0,367
910,6	7,047
911	1,087
911,4	10,247
911,9	10,647
912,3	5,767
912,7	6,007
913,1	8,007
913,6	-0,793
914	-0,153
914,4	0,967
914,8	-2,433
915,3	-2,993
915,7	0,807
916,1	0,527
916,5	-0,633
916,9	-2,353
917,4	-2,673
917,8	-4,153
918,2	-0,073
918,6	0,247
919,1	-1,433
919,5	-2,793
919,9	3,287
920,3	-0,033
920,8	5,727
921,2	10,167
921,6	13,927
922	5,847
922,5	4,967
922,9	0,167
923,3	-1,833
923,7	-7,233
924,2	-11,193
924,6	-11,633
925	-9,273
925,4	-7,993
925,8	-3,313
926,3	-6,233
926,7	-5,353
927,1	-5,673
927,5	-7,553
928	-13,233
928,4	-5,673
928,8	-7,913
929,2	-5,393
929,7	-4,713
930,1	1,047
930,5	4,287
930,9	5,207
931,3	-0,353
931,8	5,247
932,2	2,087
932,6	-0,353
933	-5,113
933,5	-4,953
933,9	-12,793
934,3	-7,193
934,7	-5,433
935,2	-3,593
935,6	-6,153
936	-9,033
936,4	-14,193
936,8	-16,393
937,3	-11,713
937,7	-5,713
938,1	-0,433
938,5	4,847
939	9,727
939,4	9,047
939,8	7,487
940,2	6,287
940,6	5,087
941,1	0,007
941,5	3,607
941,9	-1,633
942,3	-2,673
942,8	-4,153
943,2	-0,393
943,6	-2,993
944	5,527
944,4	4,967
944,9	2,967
945,3	-2,313
945,7	0,847
946,1	0,167
946,6	3,007
947	3,847
947,4	8,207
947,8	-0,873
948,2	-8,393
948,7	-6,433
949,1	-7,153
949,5	-12,513
949,9	-4,473
950,3	0,047
950,8	-3,593
951,2	-8,673
951,6	-4,153
952	-7,033
952,5	-8,313
952,9	-7,353
953,3	-4,793
953,7	-3,873
954,1	-2,953
954,6	0,607
955	1,807
955,4	4,607
955,8	0,927
956,2	5,327
956,7	-6,873
957,1	-5,193
957,5	-4,233
957,9	-2,393
958,3	-11,953
958,8	-2,473
959,2	-1,113
959,6	-1,753
960	-0,593
960,5	6,047
960,9	3,207
961,3	0,407
961,7	2,167
962,1	1,767
962,6	2,927
963	4,927
963,4	-0,633
963,8	-1,753
964,2	-4,033
964,7	-1,993
965,1	-3,953
965,5	-1,593
965,9	-5,593
966,3	-5,793
966,8	-13,393
967,2	-13,553
967,6	-8,273
968	-4,633
968,4	-6,753
968,9	-7,833
969,3	-5,353
969,7	-6,393
970,1	-12,193
970,5	-6,153
971	-5,153
971,4	-5,433
971,8	-10,713
972,2	0,047
972,6	-5,273
973,1	-5,673
973,5	-6,593
973,9	-6,993
974,3	-13,673
974,7	-13,073
975,2	-9,193
975,6	-9,073
976	-7,393
976,4	-3,993
976,8	-0,153
977,3	0,047
977,7	4,807
978,1	6,247
978,5	6,367
978,9	-2,993
979,4	-1,193
979,8	-5,513
980,2	-6,473
980,6	-6,673
981	1,087
981,5	-8,313
981,9	-2,833
982,3	2,167
982,7	-5,153
983,1	-4,513
983,6	3,847
984	-4,473
984,4	-8,233
984,8	-6,753
985,2	-7,353
985,6	-11,153
986,1	-6,593
986,5	-6,473
986,9	-6,833
987,3	-6,113
987,7	-5,913
988,2	-3,593
988,6	-5,873
989	-5,153
989,4	-4,273
989,8	-0,633
990,3	-9,993
990,7	-9,713
991,1	-6,913
991,5	-10,073
991,9	-14,713
992,3	-18,313
992,8	-21,353
993,2	-22,753
993,6	-20,553
994	-20,553
994,4	-5,913
994,9	-5,633
995,3	-9,993
995,7	-10,233
996,1	-5,433
996,5	-10,433
996,9	-6,993
997,4	5,687
997,8	0,447
998,2	-0,233
998,6	-4,593
999	-4,913
999,5	-10,913
999,9	-9,153
1000,3	-16,233
1000,7	-10,953
1001,1	-13,153
1001,5	-12,593
1002	-12,073
1002,4	-8,753
1002,8	-7,873
1003,2	-6,113
1003,6	-6,433
1004	-7,753
1004,5	-5,433
1004,9	-8,393
1005,3	-9,633
1005,7	-6,753
1006,1	-5,233
1006,6	-5,713
1007	-0,473
1007,4	1,767
1007,8	1,487
1008,2	3,007
1008,6	4,247
1009,1	-5,153
1009,5	-6,153
1009,9	-10,033
1010,3	-12,673
1010,7	-14,553
1011,1	-6,913
1011,6	-7,753
1012	-6,673
1012,4	-3,073
1012,8	-0,913
1013,2	-3,993
1013,6	-1,473
1014,1	-3,553
1014,5	-5,913
1014,9	-12,433
1015,3	-15,833
1015,7	-11,793
1016,1	-10,953
1016,6	-11,233
1017	-10,073
1017,4	-4,913
1017,8	-7,113
1018,2	-13,753
1018,6	-12,273
1019,1	-10,393
1019,5	-18,673
1019,9	-24,753
1020,3	-20,633
1020,7	-24,673
1021,1	-22,353
1021,6	-15,073
1022	-11,753
1022,4	-11,033
1022,8	-6,873
1023,2	-7,993
1023,6	-13,033
1024,1	-9,153
1024,5	-4,393
1024,9	-7,473
1025,3	-7,433
1025,7	-3,273
1026,1	-9,753
1026,6	-14,753
1027	-10,473
1027,4	-10,913
1027,8	-11,793
1028,2	-8,393
1028,6	-6,633
1029	-10,953
1029,5	-7,513
1029,9	-5,913
1030,3	-3,073
1030,7	-1,713
1031,1	2,047
1031,5	-1,633
1032	-4,913
1032,4	-8,673
1032,8	-9,233
1033,2	-12,793
1033,6	-10,313
1034	-9,753
1034,4	-8,673
1034,9	-6,673
1035,3	-6,833
1035,7	-4,473
1036,1	-5,313
1036,5	-7,353
1036,9	-10,873
1037,4	-14,153
1037,8	-19,273
1038,2	-22,193
1038,6	-17,993
1039	-18,393
1039,4	-9,873
1039,8	-8,193
1040,3	-2,673
1040,7	-10,313
1041,1	-5,953
1041,5	-7,873
1041,9	-7,673
1042,3	-7,793
1042,7	1,127
1043,2	-7,633
1043,6	-7,913
1044	-4,513
1044,4	-11,273
1044,8	-18,553
1045,2	-11,633
1045,6	-8,153
1046,1	-10,953
1046,5	-5,553
1046,9	-3,913
1047,3	-6,193
1047,7	-12,513
1048,1	-15,113
1048,5	-12,913
1049	-12,833
1049,4	-10,873
1049,8	-6,753
1050,2	-4,953
1050,6	-0,913
1051	-0,833
1051,4	-6,233
1051,9	-7,113
1052,3	-7,713
1052,7	-12,393
1053,1	-11,913
1053,5	-7,953
1053,9	-10,113
1054,3	-10,433
1054,8	-15,713
1055,2	-10,433
1055,6	-10,633
1056	-9,913
1056,4	-7,273
1056,8	-3,553
1057,2	-10,033
1057,6	-8,993
1058,1	-12,153
1058,5	-20,193
1058,9	-16,913
1059,3	-9,913
1059,7	-11,913
1060,1	-4,473
1060,5	4,927
1061	2,327
1061,4	-3,353
1061,8	-1,113
1062,2	-10,153
1062,6	-18,353
1063	-16,473
1063,4	-11,993
1063,8	-10,633
1064,3	-4,753
1064,7	-0,353
1065,1	-2,913
1065,5	-3,233
1065,9	-4,953
1066,3	-7,393
1066,7	-3,193
1067,1	0,087
1067,6	-8,633
1068	-7,193
1068,4	-4,153
1068,8	-7,553
1069,2	-7,753
1069,6	-5,393
1070	-0,993
1070,4	-0,433
1070,9	5,847
1071,3	0,207
1071,7	2,327
1072,1	-6,233
1072,5	-2,553
1072,9	-13,473
1073,3	-7,553
1073,7	-2,433
1074,2	-0,033
1074,6	-8,073
1075	-6,913
1075,4	-10,713
1075,8	-10,113
1076,2	-3,313
1076,6	1,167
1077	2,567
1077,5	2,687
1077,9	-1,273
1078,3	-8,753
1078,7	-10,353
1079,1	-10,833
1079,5	-6,193
1079,9	-3,993
1080,3	1,247
1080,7	3,287
1081,2	5,527
1081,6	5,087
1082	2,967
1082,4	-2,673
1082,8	-4,633
1083,2	-9,673
1083,6	-14,873
1084	-14,233
1084,5	-17,633
1084,9	-15,433
1085,3	-9,313
1085,7	-7,633
1086,1	-7,993
1086,5	-2,793
1086,9	-7,273
1087,3	-10,633
1087,7	-12,393
1088,2	-12,713
1088,6	-9,833
1089	-11,113
1089,4	-8,833
1089,8	-8,553
1090,2	-9,233
1090,6	-13,073
1091	-12,433
1091,4	-15,953
1091,9	-19,153
1092,3	-18,153
1092,7	-18,993
1093,1	-18,073
1093,5	-18,473
1093,9	-12,353
1094,3	-16,353
1094,7	-14,793
1095,1	-12,273
1095,5	-8,313
1096	-6,073
1096,4	0,687
1096,8	1,927
1097,2	2,847
1097,6	0,007
1098	-3,073
1098,4	-8,713
1098,8	-7,513
1099,2	-9,273
1099,6	-2,393
1100,1	-4,193
1100,5	-2,633
1100,9	-3,833
1101,3	-3,673
1101,7	-9,753
1102,1	-5,073
1102,5	-1,953
1102,9	0,447
1103,3	-2,033
1103,7	2,447
1104,2	-0,113
1104,6	-2,353
1105	-3,153
1105,4	0,367
1105,8	-2,473
1106,2	-1,233
1106,6	0,287
1107	-2,033
1107,4	-1,793
1107,8	-0,183
1108,3	-0,1
