Data from Subt2_00021.txt Node
Date: Fri Aug 11 15:35:28 MSK 2023
User: vat
Spectrometer: MAYP114033
Trigger mode: 0
Integration Time (sec): 5,000000E-1
Scans to average: 5
Electric dark correction enabled: true
Nonlinearity correction enabled: false
Boxcar width: 2
XAxis mode: Wavelengths
Number of Pixels in Spectrum: 2068
>>>>>Begin Spectral Data<<<<<
199,4	0,367
199,9	0,683
200,4	-4,327
200,8	-10,887
201,3	-17,927
201,8	-22,807
202,2	-27,887
202,7	-31,447
203,2	-30,047
203,6	-33,567
204,1	-33,367
204,6	-35,847
205	-37,847
205,5	-44,887
206	-36,527
206,4	-39,207
206,9	-39,207
207,4	-38,687
207,8	-30,527
208,3	-33,527
208,8	-35,127
209,2	-33,487
209,7	-36,247
210,2	-44,807
210,6	-48,927
211,1	-50,607
211,5	-54,127
212	-53,447
212,5	-55,607
212,9	-58,727
213,4	-57,207
213,9	-58,607
214,3	-54,567
214,8	-52,127
215,3	-43,847
215,7	-45,967
216,2	-49,007
216,7	-53,967
217,1	-49,687
217,6	-54,287
218,1	-52,767
218,5	-51,167
219	-49,687
219,5	-56,847
219,9	-59,407
220,4	-55,007
220,9	-48,447
221,3	-44,807
221,8	-39,007
222,3	-39,807
222,7	-45,287
223,2	-46,567
223,6	-51,447
224,1	-48,727
224,6	-48,767
225	-49,607
225,5	-52,807
226	-47,767
226,4	-53,167
226,9	-47,087
227,4	-40,727
227,8	-41,807
228,3	-43,727
228,8	-40,687
229,2	-50,527
229,7	-55,327
230,2	-57,047
230,6	-58,967
231,1	-59,487
231,5	-56,927
232	-60,247
232,5	-55,407
232,9	-53,207
233,4	-58,327
233,9	-57,727
234,3	-57,167
234,8	-61,207
235,3	-59,927
235,7	-58,247
236,2	-57,207
236,7	-56,727
237,1	-54,447
237,6	-58,527
238,1	-59,607
238,5	-59,007
239	-57,607
239,4	-50,647
239,9	-44,407
240,4	-43,207
240,8	-42,247
241,3	-45,487
241,8	-54,807
242,2	-62,327
242,7	-63,607
243,2	-64,047
243,6	-60,967
244,1	-63,607
244,6	-57,127
245	-52,087
245,5	-51,727
245,9	-48,407
246,4	-46,487
246,9	-52,607
247,3	-58,967
247,8	-57,527
248,3	-54,087
248,7	-44,007
249,2	-42,287
249,7	-33,967
250,1	-36,127
250,6	-44,567
251	-49,247
251,5	-45,967
252	-52,607
252,4	-54,687
252,9	-50,287
253,4	-58,047
253,8	-59,807
254,3	-62,887
254,8	-61,727
255,2	-61,487
255,7	-57,647
256,1	-54,127
256,6	-42,487
257,1	-42,927
257,5	-45,807
258	-41,127
258,5	-43,607
258,9	-45,767
259,4	-46,927
259,9	-47,487
260,3	-50,727
260,8	-54,167
261,2	-58,887
261,7	-56,527
262,2	-53,247
262,6	-54,247
263,1	-59,407
263,6	-60,927
264	-59,767
264,5	-62,767
264,9	-61,567
265,4	-54,887
265,9	-52,287
266,3	-53,447
266,8	-50,167
267,3	-54,287
267,7	-51,127
268,2	-54,207
268,7	-52,087
269,1	-52,807
269,6	-51,487
270	-48,367
270,5	-46,727
271	-53,127
271,4	-54,047
271,9	-55,247
272,4	-62,207
272,8	-65,967
273,3	-59,687
273,7	-60,447
274,2	-59,407
274,7	-58,807
275,1	-50,407
275,6	-51,727
276,1	-55,567
276,5	-56,367
277	-55,607
277,4	-61,967
277,9	-58,887
278,4	-54,567
278,8	-51,287
279,3	-52,247
279,8	-49,767
280,2	-51,927
280,7	-52,327
281,1	-53,527
281,6	-50,007
282,1	-52,967
282,5	-59,407
283	-63,247
283,4	-59,407
283,9	-61,807
284,4	-56,607
284,8	-48,047
285,3	-43,687
285,8	-44,487
286,2	-49,207
286,7	-53,047
287,1	-58,647
287,6	-60,207
288,1	-60,207
288,5	-56,047
289	-53,647
289,5	-52,007
289,9	-46,887
290,4	-48,687
290,8	-47,607
291,3	-47,967
291,8	-45,687
292,2	-53,527
292,7	-51,847
293,1	-49,207
293,6	-50,767
294,1	-51,607
294,5	-49,607
295	-52,687
295,5	-55,327
295,9	-50,727
296,4	-53,607
296,8	-51,527
297,3	-41,927
297,8	-48,047
298,2	-44,847
298,7	-48,287
299,1	-49,527
299,6	-56,247
300,1	-48,287
300,5	-51,567
301	-39,287
301,5	-44,207
301,9	-46,607
302,4	-47,047
302,8	-48,687
303,3	-54,727
303,8	-50,927
304,2	-51,367
304,7	-59,807
305,1	-58,687
305,6	-64,327
306,1	-61,927
306,5	-64,607
307	-55,527
307,4	-55,527
307,9	-53,007
308,4	-51,247
308,8	-50,727
309,3	-52,127
309,8	-53,807
310,2	-52,407
310,7	-58,687
311,1	-55,887
311,6	-56,927
312,1	-51,887
312,5	-49,207
313	-41,967
313,4	-37,607
313,9	-38,327
314,4	-42,127
314,8	-46,247
315,3	-49,527
315,7	-50,967
316,2	-53,047
316,7	-57,727
317,1	-60,127
317,6	-62,727
318	-63,487
318,5	-62,047
319	-59,567
319,4	-61,127
319,9	-56,047
320,3	-56,327
320,8	-59,807
321,3	-61,367
321,7	-51,327
322,2	-46,647
322,6	-44,727
323,1	-44,207
323,6	-36,407
324	-39,127
324,5	-46,527
324,9	-52,887
325,4	-41,767
325,9	-45,527
326,3	-47,047
326,8	-41,127
327,2	-37,447
327,7	-44,567
328,2	-46,207
328,6	-41,767
329,1	-44,647
329,5	-42,807
330	-41,607
330,5	-40,287
330,9	-47,767
331,4	-52,807
331,8	-55,127
332,3	-56,367
332,8	-57,207
333,2	-54,647
333,7	-54,167
334,1	-54,807
334,6	-49,887
335,1	-46,207
335,5	-46,127
336	-48,967
336,4	-44,647
336,9	-54,127
337,4	-55,007
337,8	-52,847
338,3	-48,327
338,7	-53,407
339,2	-47,447
339,7	-50,447
340,1	-55,447
340,6	-46,927
341	-48,487
341,5	-50,687
342	-49,647
342,4	-42,087
342,9	-54,007
343,3	-53,887
343,8	-53,807
344,2	-56,927
344,7	-57,167
345,2	-50,367
345,6	-47,287
346,1	-42,647
346,5	-42,847
347	-44,887
347,5	-46,367
347,9	-44,527
348,4	-46,807
348,8	-46,247
349,3	-44,527
349,8	-46,007
350,2	-49,247
350,7	-51,487
351,1	-48,927
351,6	-51,807
352	-50,647
352,5	-45,647
353	-34,127
353,4	-35,447
353,9	-34,767
354,3	-30,327
354,8	-28,887
355,3	-28,807
355,7	-18,527
356,2	-6,807
356,6	-8,847
357,1	-0,647
357,5	7,433
358	14,393
358,5	28,673
358,9	55,873
359,4	80,993
359,8	93,633
360,3	125,633
360,8	146,073
361,2	173,273
361,7	192,273
362,1	231,473
362,6	262,313
363	303,833
363,5	339,353
364	389,153
364,4	433,793
364,9	476,593
365,3	519,513
365,8	561,713
366,3	602,673
366,7	635,193
367,2	661,673
367,6	686,273
368,1	709,393
368,5	720,753
369	719,633
369,5	723,993
369,9	718,113
370,4	703,473
370,8	685,873
371,3	669,553
371,7	644,913
372,2	611,593
372,7	579,353
373,1	544,513
373,6	507,553
374	468,233
374,5	441,753
374,9	408,633
375,4	377,633
375,9	350,833
376,3	320,433
376,8	284,513
377,2	255,393
377,7	221,473
378,2	201,473
378,6	184,153
379,1	167,553
379,5	149,473
380	139,473
380,4	122,353
380,9	105,153
381,4	93,873
381,8	81,233
382,3	68,433
382,7	59,953
383,2	54,913
383,6	43,953
384,1	37,353
384,6	28,033
385	18,713
385,5	12,913
385,9	14,913
386,4	14,113
386,8	16,473
387,3	10,313
387,7	4,473
388,2	-6,807
388,7	-8,167
389,1	-15,047
389,6	-12,367
390	-12,847
390,5	-11,127
390,9	-12,567
391,4	-18,487
391,9	-27,967
392,3	-33,527
392,8	-35,767
393,2	-40,567
393,7	-38,207
394,1	-28,407
394,6	-29,207
395,1	-32,367
395,5	-32,407
396	-30,367
396,4	-37,807
396,9	-37,727
397,3	-35,367
397,8	-41,327
398,2	-41,007
398,7	-40,087
399,2	-43,767
399,6	-43,007
400,1	-39,967
400,5	-36,127
401	-38,407
401,4	-33,687
401,9	-33,847
402,4	-36,207
402,8	-49,287
403,3	-45,967
403,7	-44,487
404,2	-48,167
404,6	-46,087
405,1	-39,487
405,5	-38,367
406	-38,287
406,5	-35,247
406,9	-29,887
407,4	-31,207
407,8	-29,007
408,3	-23,767
408,7	-21,327
409,2	-16,167
409,6	-9,287
410,1	-8,687
410,6	-14,207
411	-11,607
411,5	-14,167
411,9	-11,767
412,4	-5,687
412,8	0,993
413,3	-6,367
413,7	2,993
414,2	11,353
414,7	15,153
415,1	21,873
415,6	39,233
416	40,193
416,5	39,713
416,9	45,713
417,4	50,073
417,8	56,433
418,3	56,033
418,8	68,553
419,2	71,793
419,7	84,833
420,1	83,873
420,6	97,553
421	94,553
421,5	97,553
421,9	97,673
422,4	109,273
422,8	116,473
423,3	130,833
423,8	149,353
424,2	157,953
424,7	171,953
425,1	185,193
425,6	195,753
426	195,593
426,5	210,873
426,9	214,153
427,4	225,953
427,9	238,273
428,3	260,233
428,8	271,513
429,2	293,633
429,7	311,073
430,1	325,393
430,6	337,073
431	361,153
431,5	382,513
431,9	394,753
432,4	419,433
432,8	448,113
433,3	474,153
433,8	495,033
434,2	522,273
434,7	548,913
435,1	574,393
435,6	593,473
436	618,913
436,5	657,233
436,9	688,993
437,4	724,273
437,8	759,833
438,3	798,233
438,8	825,433
439,2	863,673
439,7	901,033
440,1	944,313
440,6	984,553
441	1031,033
441,5	1072,113
441,9	1120,233
442,4	1169,153
442,8	1219,753
443,3	1271,513
443,7	1327,233
444,2	1380,153
444,7	1432,993
445,1	1492,113
445,6	1556,673
446	1614,553
446,5	1677,673
446,9	1744,113
447,4	1804,953
447,8	1860,113
448,3	1923,113
448,7	1989,513
449,2	2053,353
449,6	2124,753
450,1	2199,273
450,6	2267,353
451	2333,073
451,5	2399,233
451,9	2469,513
452,4	2547,873
452,8	2628,313
453,3	2703,833
453,7	2780,913
454,2	2860,953
454,6	2932,873
455,1	3008,633
455,5	3097,673
456	3176,393
456,4	3256,793
456,9	3333,513
457,3	3416,753
457,8	3490,713
458,3	3587,113
458,7	3664,153
459,2	3763,873
459,6	3849,233
460,1	3934,913
460,5	4016,553
461	4107,273
461,4	4184,673
461,9	4270,473
462,3	4356,913
462,8	4442,273
463,2	4536,433
463,7	4609,473
464,1	4693,393
464,6	4763,553
465	4846,193
465,5	4915,433
466	4991,193
466,4	5072,153
466,9	5155,593
467,3	5218,473
467,8	5288,833
468,2	5372,153
468,7	5446,273
469,1	5518,153
469,6	5595,753
470	5670,753
470,5	5742,193
470,9	5808,633
471,4	5878,473
471,8	5935,953
472,3	5999,353
472,7	6053,833
473,2	6103,593
473,6	6158,753
474,1	6228,873
474,5	6268,633
475	6320,793
475,4	6377,233
475,9	6427,673
476,4	6468,913
476,8	6528,673
477,3	6574,633
477,7	6616,913
478,2	6657,473
478,6	6686,913
479,1	6722,753
479,5	6762,713
480	6785,793
480,4	6815,153
480,9	6851,393
481,3	6882,193
481,8	6903,193
482,2	6932,713
482,7	6958,073
483,1	6978,313
483,6	6989,033
484	7008,633
484,5	7025,713
484,9	7036,473
485,4	7038,233
485,8	7048,113
486,3	7043,833
486,7	7049,353
487,2	7043,433
487,6	7059,113
488,1	7056,993
488,5	7063,793
489	7059,033
489,4	7063,113
489,9	7038,833
490,4	7023,993
490,8	7004,433
491,3	6987,753
491,7	6971,153
492,2	6953,153
492,6	6936,553
493,1	6921,873
493,5	6903,673
494	6872,073
494,4	6846,473
494,9	6813,633
495,3	6773,593
495,8	6737,873
496,2	6710,993
496,7	6682,993
497,1	6656,393
497,6	6630,153
498	6598,873
498,5	6574,793
498,9	6545,793
499,4	6515,153
499,8	6480,273
500,3	6442,473
500,7	6399,073
501,2	6362,033
501,6	6316,633
502,1	6287,793
502,5	6251,073
503	6211,593
503,4	6170,313
503,9	6146,353
504,3	6094,153
504,8	6052,473
505,2	6007,393
505,7	5961,473
506,1	5907,233
506,6	5869,153
507	5820,313
507,5	5776,433
507,9	5729,393
508,4	5678,833
508,8	5627,633
509,3	5585,833
509,7	5536,273
510,2	5495,713
510,6	5448,513
511,1	5404,713
511,5	5354,593
512	5301,193
512,4	5238,593
512,9	5189,833
513,3	5134,793
513,8	5086,913
514,2	5037,193
514,7	4986,033
515,1	4934,713
515,6	4888,753
516	4832,193
516,5	4774,953
516,9	4730,753
517,4	4668,993
517,8	4610,673
518,3	4564,313
518,7	4528,193
519,2	4480,113
519,6	4437,433
520,1	4388,633
520,5	4337,593
521	4286,473
521,4	4232,153
521,9	4192,193
522,3	4142,953
522,8	4091,353
523,2	4042,753
523,7	4005,073
524,1	3958,673
524,6	3912,993
525	3864,353
525,5	3816,913
525,9	3763,873
526,4	3717,913
526,8	3675,433
527,3	3628,113
527,7	3579,593
528,2	3536,073
528,6	3490,033
529,1	3446,793
529,5	3407,553
530	3373,393
530,4	3332,993
530,9	3289,393
531,3	3251,833
531,8	3219,233
532,2	3177,393
532,6	3142,753
533,1	3103,913
533,5	3059,593
534	3020,273
534,4	2979,113
534,9	2930,713
535,3	2902,113
535,8	2865,953
536,2	2822,793
536,7	2782,393
537,1	2757,513
537,6	2713,953
538	2681,313
538,5	2647,393
538,9	2615,633
539,4	2581,433
539,8	2549,673
540,3	2512,673
540,7	2485,913
541,2	2449,553
541,6	2414,313
542,1	2394,633
542,5	2365,273
543	2333,353
543,4	2310,113
543,9	2285,793
544,3	2241,793
544,8	2215,113
545,2	2194,993
545,7	2173,913
546,1	2151,233
546,5	2136,633
547	2104,673
547,4	2069,993
547,9	2043,273
548,3	2003,633
548,8	1968,633
549,2	1952,313
549,7	1921,393
550,1	1894,433
550,6	1880,753
551	1859,153
551,5	1833,193
551,9	1816,633
552,4	1794,073
552,8	1768,153
553,3	1745,313
553,7	1722,913
554,2	1696,113
554,6	1680,993
555,1	1661,513
555,5	1641,993
555,9	1631,353
556,4	1620,753
556,8	1597,793
557,3	1573,713
557,7	1550,993
558,2	1533,593
558,6	1518,513
559,1	1494,993
559,5	1482,313
560	1465,953
560,4	1435,633
560,9	1408,953
561,3	1389,913
561,8	1369,993
562,2	1359,553
562,7	1342,313
563,1	1332,513
563,6	1326,193
564	1319,113
564,4	1302,753
564,9	1295,313
565,3	1277,513
565,8	1254,313
566,2	1229,233
566,7	1208,673
567,1	1188,113
567,6	1170,553
568	1165,353
568,5	1149,353
568,9	1135,433
569,4	1126,953
569,8	1114,913
570,3	1094,473
570,7	1085,633
571,1	1075,793
571,6	1063,873
572	1053,353
572,5	1037,553
572,9	1026,433
573,4	1018,193
573,8	1006,953
574,3	989,233
574,7	982,273
575,2	966,673
575,6	947,753
576,1	933,793
576,5	925,753
576,9	908,913
577,4	904,833
577,8	896,953
578,3	882,153
578,7	873,153
579,2	869,953
579,6	855,913
580,1	840,913
580,5	834,473
581	824,433
581,4	810,633
581,9	802,873
582,3	792,553
582,7	784,953
583,2	771,353
583,6	767,993
584,1	758,353
584,5	751,473
585	739,313
585,4	735,153
585,9	725,313
586,3	718,513
586,8	713,273
587,2	704,353
587,6	700,313
588,1	694,073
588,5	685,073
589	680,553
589,4	671,113
589,9	665,833
590,3	652,673
590,8	645,513
591,2	634,833
591,7	634,473
592,1	628,793
592,5	627,393
593	614,673
593,4	605,673
593,9	595,553
594,3	578,673
594,8	564,233
595,2	566,433
595,7	571,073
596,1	568,433
596,6	567,513
597	569,033
597,4	562,513
597,9	554,313
598,3	548,513
598,8	548,233
599,2	540,833
599,7	535,873
600,1	528,473
600,6	522,673
601	505,553
601,4	499,993
601,9	496,753
602,3	490,273
602,8	485,793
603,2	486,633
603,7	484,033
604,1	471,753
604,6	470,793
605	473,953
605,4	466,153
605,9	461,273
606,3	461,513
606,8	457,273
607,2	448,913
607,7	453,513
608,1	448,273
608,6	451,313
609	446,593
609,4	439,393
609,9	433,593
610,3	426,553
610,8	416,433
611,2	407,873
611,7	406,433
612,1	399,353
612,6	403,873
613	396,833
613,4	400,793
613,9	398,313
614,3	398,993
614,8	391,233
615,2	390,353
615,7	386,833
616,1	379,553
616,6	367,313
617	362,793
617,4	355,553
617,9	346,673
618,3	338,353
618,8	342,673
619,2	343,633
619,7	342,913
620,1	338,393
620,5	342,273
621	334,313
621,4	336,113
621,9	330,913
622,3	330,793
622,8	328,393
623,2	323,953
623,6	313,833
624,1	315,673
624,5	313,793
625	311,833
625,4	312,073
625,9	309,153
626,3	311,553
626,8	308,793
627,2	302,913
627,6	302,313
628,1	298,393
628,5	290,033
629	286,833
629,4	283,793
629,9	282,953
630,3	278,593
630,7	275,193
631,2	273,593
631,6	270,073
632,1	266,993
632,5	267,393
633	264,033
633,4	262,433
633,8	256,753
634,3	255,153
634,7	254,473
635,2	249,753
635,6	245,033
636,1	246,353
636,5	247,553
636,9	237,873
637,4	238,313
637,8	240,873
638,3	238,913
638,7	230,993
639,2	241,793
639,6	241,233
640	237,033
640,5	239,433
640,9	238,713
641,4	228,113
641,8	222,993
642,2	221,833
642,7	215,713
643,1	205,313
643,6	202,873
644	206,433
644,5	198,273
644,9	203,633
645,3	210,313
645,8	209,513
646,2	204,273
646,7	208,713
647,1	202,433
647,6	199,033
648	198,033
648,4	205,113
648,9	202,753
649,3	202,233
649,8	207,793
650,2	215,873
650,6	209,913
651,1	205,313
651,5	205,913
652	202,033
652,4	187,793
652,9	177,673
653,3	176,113
653,7	171,273
654,2	166,473
654,6	168,873
655,1	169,753
655,5	171,393
655,9	174,553
656,4	169,313
656,8	165,073
657,3	167,673
657,7	168,273
658,2	161,913
658,6	165,913
659	166,833
659,5	164,353
659,9	158,313
660,4	158,313
660,8	159,233
661,2	161,513
661,7	164,113
662,1	174,833
662,6	166,873
663	159,873
663,4	159,033
663,9	154,873
664,3	142,513
664,8	151,513
665,2	155,793
665,6	152,273
666,1	150,633
666,5	152,353
667	149,993
667,4	144,793
667,9	147,673
668,3	146,233
668,7	142,993
669,2	139,233
669,6	142,073
670,1	138,393
670,5	140,473
670,9	134,833
671,4	130,353
671,8	128,233
672,3	126,993
672,7	124,353
673,1	126,473
673,6	131,913
674	128,393
674,5	127,113
674,9	126,993
675,3	121,513
675,8	117,393
676,2	114,073
676,7	115,073
677,1	110,033
677,5	113,793
678	115,633
678,4	122,313
678,9	117,153
679,3	122,353
679,7	123,913
680,2	116,793
680,6	111,033
681,1	109,313
681,5	105,433
681,9	102,153
682,4	108,033
682,8	102,513
683,3	105,033
683,7	102,433
684,1	104,393
684,6	100,433
685	99,873
685,5	97,873
685,9	97,793
686,3	95,833
686,8	92,273
687,2	96,593
687,7	90,633
688,1	94,593
688,5	102,673
689	105,953
689,4	104,313
689,9	103,273
690,3	100,473
690,7	92,873
691,2	93,473
691,6	90,433
692	98,473
692,5	99,433
692,9	97,633
693,4	92,233
693,8	96,553
694,2	90,553
694,7	92,713
695,1	91,473
695,6	94,233
696	88,633
696,4	89,073
696,9	85,433
697,3	85,433
697,8	76,873
698,2	77,953
698,6	75,953
699,1	66,553
699,5	62,273
699,9	69,273
700,4	67,473
700,8	65,153
701,3	67,753
701,7	73,993
702,1	72,153
702,6	74,393
703	77,433
703,5	80,553
703,9	72,273
704,3	71,393
704,8	66,153
705,2	67,873
705,6	64,473
706,1	64,513
706,5	59,553
707	58,073
707,4	54,353
707,8	52,473
708,3	54,753
708,7	56,633
709,2	59,793
709,6	55,993
710	55,473
710,5	53,833
710,9	51,433
711,3	52,233
711,8	55,073
712,2	59,353
712,7	54,593
713,1	57,673
713,5	58,193
714	59,073
714,4	56,393
714,8	61,953
715,3	62,873
715,7	64,593
716,2	64,113
716,6	62,353
717	62,233
717,5	61,593
717,9	56,313
718,3	53,433
718,8	58,393
719,2	49,873
719,7	47,473
720,1	45,193
720,5	44,673
721	39,833
721,4	47,993
721,8	47,833
722,3	47,113
722,7	38,073
723,2	35,833
723,6	31,673
724	29,393
724,5	33,073
724,9	44,513
725,3	45,793
725,8	40,713
726,2	42,673
726,7	38,033
727,1	23,713
727,5	18,673
728	20,873
728,4	13,753
728,8	20,073
729,3	33,113
729,7	39,353
730,1	47,313
730,6	53,993
731	48,073
731,5	43,793
731,9	38,033
732,3	31,713
732,8	24,033
733,2	26,313
733,6	23,913
734,1	27,393
734,5	28,073
734,9	37,833
735,4	33,393
735,8	37,593
736,3	36,393
736,7	35,793
737,1	31,233
737,6	36,673
738	32,433
738,4	28,153
738,9	28,953
739,3	24,953
739,7	18,433
740,2	16,313
740,6	21,753
741,1	21,713
741,5	27,153
741,9	28,753
742,4	30,793
742,8	27,073
743,2	23,073
743,7	18,753
744,1	19,753
744,5	19,313
745	18,633
745,4	26,953
745,8	29,553
746,3	29,553
746,7	25,553
747,2	23,593
747,6	11,273
748	7,913
748,5	3,873
748,9	12,993
749,3	18,513
749,8	23,833
750,2	21,553
750,6	21,673
751,1	14,993
751,5	11,273
751,9	8,873
752,4	14,673
752,8	14,753
753,3	21,833
753,7	19,873
754,1	21,993
754,6	18,073
755	20,793
755,4	16,953
755,9	15,793
756,3	9,633
756,7	12,513
757,2	8,153
757,6	2,913
758	4,913
758,5	15,153
758,9	12,273
759,3	13,753
759,8	13,753
760,2	12,233
760,6	2,073
761,1	3,513
761,5	0,233
761,9	-5,447
762,4	1,673
762,8	2,033
763,3	0,553
763,7	-1,167
764,1	3,153
764,6	-0,607
765	4,153
765,4	2,793
765,9	9,753
766,3	10,753
766,7	8,433
767,2	2,993
767,6	1,393
768	-7,927
768,5	-6,047
768,9	-3,887
769,3	-0,727
769,8	-0,487
770,2	5,273
770,6	5,993
771,1	2,593
771,5	-6,967
771,9	-4,567
772,4	-3,207
772,8	-9,607
773,2	-9,167
773,7	-0,127
774,1	-1,727
774,5	-4,447
775	-2,327
775,4	-3,167
775,8	-6,727
776,3	-5,127
776,7	-4,047
777,1	4,793
777,6	3,153
778	10,033
778,4	6,673
778,9	6,753
779,3	-4,447
779,7	0,633
780,2	-7,007
780,6	-7,967
781	-12,447
781,5	-4,127
781,9	-9,407
782,3	-11,527
782,8	-9,687
783,2	-3,127
783,6	-7,007
784,1	-8,047
784,5	-2,927
784,9	-4,767
785,4	-8,127
785,8	-11,527
786,2	-16,367
786,7	-15,967
787,1	-12,207
787,5	-18,567
788	-14,127
788,4	-4,367
788,8	-9,967
789,3	-16,247
789,7	-13,647
790,1	-13,847
790,6	-14,327
791	-11,647
791,4	-9,287
791,9	-3,007
792,3	-12,567
792,7	-12,727
793,2	-8,527
793,6	-11,247
794	-10,247
794,5	-2,607
794,9	-14,367
795,3	-20,847
795,8	-20,127
796,2	-24,447
796,6	-20,887
797,1	-15,767
797,5	-17,967
797,9	-16,287
798,4	-20,047
798,8	-22,287
799,2	-19,327
799,7	-14,087
800,1	-17,887
800,5	-11,647
801	-16,887
801,4	-19,567
801,8	-21,167
802,2	-15,687
802,7	-16,967
803,1	-15,327
803,5	-11,927
804	-12,127
804,4	-14,687
804,8	-13,127
805,3	-7,767
805,7	-16,927
806,1	-16,607
806,6	-14,287
807	-18,007
807,4	-28,167
807,9	-19,407
808,3	-19,887
808,7	-24,847
809,2	-27,887
809,6	-22,887
810	-24,687
810,4	-21,967
810,9	-23,127
811,3	-16,887
811,7	-24,727
812,2	-24,967
812,6	-30,607
813	-29,047
813,5	-29,847
813,9	-22,047
814,3	-27,927
814,8	-21,167
815,2	-18,407
815,6	-22,847
816,1	-21,807
816,5	-18,367
816,9	-22,007
817,3	-25,887
817,8	-28,047
818,2	-31,727
818,6	-31,967
819,1	-31,567
819,5	-29,567
819,9	-26,047
820,4	-21,847
820,8	-19,807
821,2	-18,767
821,7	-18,807
822,1	-15,527
822,5	-21,567
822,9	-14,367
823,4	-16,407
823,8	-20,007
824,2	-22,807
824,7	-22,407
825,1	-29,967
825,5	-31,647
826	-31,967
826,4	-35,007
826,8	-34,047
827,3	-34,967
827,7	-33,287
828,1	-30,607
828,5	-32,567
829	-36,247
829,4	-36,727
829,8	-33,167
830,3	-30,447
830,7	-29,527
831,1	-26,927
831,6	-29,047
832	-37,647
832,4	-37,007
832,8	-30,167
833,3	-30,647
833,7	-26,287
834,1	-24,087
834,6	-31,767
835	-39,287
835,4	-42,687
835,8	-42,847
836,3	-37,607
836,7	-32,847
837,1	-38,047
837,6	-35,167
838	-35,607
838,4	-43,687
838,9	-47,847
839,3	-39,687
839,7	-35,087
840,1	-38,047
840,6	-32,047
841	-28,007
841,4	-35,087
841,9	-39,407
842,3	-40,047
842,7	-45,167
843,1	-46,087
843,6	-38,447
844	-39,487
844,4	-35,847
844,9	-41,047
845,3	-34,967
845,7	-37,807
846,2	-39,047
846,6	-40,367
847	-33,927
847,4	-39,527
847,9	-43,007
848,3	-41,607
848,7	-39,127
849,2	-36,527
849,6	-36,927
850	-29,927
850,4	-25,407
850,9	-24,927
851,3	-22,687
851,7	-25,487
852,2	-27,807
852,6	-33,167
853	-35,887
853,4	-42,967
853,9	-43,887
854,3	-44,887
854,7	-38,687
855,2	-39,447
855,6	-37,367
856	-37,287
856,4	-39,527
856,9	-38,607
857,3	-36,767
857,7	-34,687
858,2	-30,887
858,6	-34,487
859	-37,967
859,4	-46,287
859,9	-49,167
860,3	-53,327
860,7	-42,887
861,1	-45,687
861,6	-40,847
862	-41,767
862,4	-37,447
862,9	-42,287
863,3	-39,207
863,7	-37,127
864,1	-34,407
864,6	-35,567
865	-39,047
865,4	-38,887
865,9	-41,807
866,3	-47,847
866,7	-50,527
867,1	-48,447
867,6	-54,247
868	-54,807
868,4	-52,607
868,8	-51,527
869,3	-55,167
869,7	-48,287
870,1	-46,647
870,6	-45,767
871	-41,487
871,4	-27,087
871,8	-33,607
872,3	-39,567
872,7	-36,247
873,1	-40,287
873,5	-52,207
874	-51,687
874,4	-50,447
874,8	-55,567
875,3	-58,247
875,7	-54,887
876,1	-54,207
876,5	-49,127
877	-48,047
877,4	-43,407
877,8	-42,847
878,2	-38,007
878,7	-36,727
879,1	-33,167
879,5	-27,967
879,9	-29,647
880,4	-30,407
880,8	-33,167
881,2	-35,447
881,7	-38,327
882,1	-36,207
882,5	-43,767
882,9	-41,327
883,4	-39,447
883,8	-45,327
884,2	-47,127
884,6	-45,567
885,1	-51,167
885,5	-60,407
885,9	-54,527
886,3	-57,567
886,8	-55,967
887,2	-50,607
887,6	-43,007
888	-48,607
888,5	-43,727
888,9	-41,727
889,3	-47,887
889,8	-46,367
890,2	-47,447
890,6	-46,527
891	-46,167
891,5	-42,727
891,9	-41,287
892,3	-35,287
892,7	-34,927
893,2	-36,367
893,6	-33,967
894	-43,087
894,4	-45,567
894,9	-48,047
895,3	-48,047
895,7	-51,887
896,1	-43,847
896,6	-43,447
897	-43,727
897,4	-41,367
897,8	-37,807
898,3	-40,487
898,7	-43,847
899,1	-44,727
899,5	-43,967
900	-48,527
900,4	-49,127
900,8	-48,407
901,2	-56,327
901,7	-60,967
902,1	-57,767
902,5	-53,167
902,9	-52,407
903,4	-44,167
903,8	-44,727
904,2	-44,807
904,6	-42,847
905,1	-39,887
905,5	-42,567
905,9	-41,407
906,3	-42,167
906,8	-49,607
907,2	-47,047
907,6	-45,447
908	-47,047
908,5	-45,327
908,9	-41,927
909,3	-46,607
909,7	-45,087
910,2	-40,767
910,6	-37,007
911	-35,247
911,4	-32,567
911,9	-35,087
912,3	-37,287
912,7	-40,487
913,1	-45,487
913,6	-53,927
914	-55,527
914,4	-57,087
914,8	-59,287
915,3	-55,247
915,7	-51,007
916,1	-49,047
916,5	-44,087
916,9	-44,687
917,4	-46,207
917,8	-42,407
918,2	-37,527
918,6	-40,447
919,1	-36,847
919,5	-36,887
919,9	-38,167
920,3	-42,727
920,8	-44,247
921,2	-43,167
921,6	-46,007
922	-50,447
922,5	-50,927
922,9	-53,807
923,3	-53,807
923,7	-52,967
924,2	-51,447
924,6	-48,367
925	-36,167
925,4	-44,407
925,8	-42,567
926,3	-44,607
926,7	-44,767
927,1	-51,687
927,5	-49,447
928	-49,567
928,4	-51,767
928,8	-52,447
929,2	-54,487
929,7	-49,887
930,1	-56,447
930,5	-47,487
930,9	-48,927
931,3	-46,687
931,8	-53,207
932,2	-47,647
932,6	-54,887
933	-50,327
933,5	-48,167
933,9	-44,327
934,3	-41,807
934,7	-38,127
935,2	-45,887
935,6	-50,607
936	-58,167
936,4	-58,567
936,8	-57,967
937,3	-53,447
937,7	-55,087
938,1	-46,967
938,5	-47,887
939	-50,007
939,4	-56,247
939,8	-55,327
940,2	-56,407
940,6	-60,487
941,1	-60,887
941,5	-57,647
941,9	-56,727
942,3	-58,127
942,8	-60,367
943,2	-62,207
943,6	-64,847
944	-71,327
944,4	-73,607
944,9	-67,127
945,3	-62,087
945,7	-62,807
946,1	-51,007
946,6	-45,727
947	-47,407
947,4	-52,247
947,8	-53,367
948,2	-58,047
948,7	-54,687
949,1	-58,247
949,5	-55,287
949,9	-43,367
950,3	-44,687
950,8	-47,287
951,2	-42,727
951,6	-46,367
952	-55,047
952,5	-52,927
952,9	-56,527
953,3	-59,207
953,7	-57,127
954,1	-47,927
954,6	-50,407
955	-52,047
955,4	-49,167
955,8	-47,647
956,2	-57,567
956,7	-52,607
957,1	-48,207
957,5	-49,727
957,9	-51,687
958,3	-50,967
958,8	-58,167
959,2	-55,887
959,6	-59,807
960	-58,087
960,5	-59,127
960,9	-55,047
961,3	-59,127
961,7	-58,287
962,1	-56,887
962,6	-50,567
963	-56,247
963,4	-58,487
963,8	-55,847
964,2	-62,047
964,7	-63,327
965,1	-58,007
965,5	-57,807
965,9	-63,847
966,3	-56,447
966,8	-56,287
967,2	-56,687
967,6	-56,527
968	-45,647
968,4	-48,247
968,9	-52,727
969,3	-58,487
969,7	-59,647
970,1	-66,087
970,5	-62,607
971	-58,167
971,4	-54,247
971,8	-49,407
972,2	-45,967
972,6	-49,367
973,1	-51,607
973,5	-54,887
973,9	-57,607
974,3	-55,447
974,7	-52,887
975,2	-55,487
975,6	-48,847
976	-47,687
976,4	-47,287
976,8	-51,287
977,3	-47,287
977,7	-48,047
978,1	-46,887
978,5	-55,007
978,9	-54,607
979,4	-63,567
979,8	-64,847
980,2	-68,327
980,6	-64,687
981	-65,607
981,5	-61,527
981,9	-62,927
982,3	-58,927
982,7	-52,807
983,1	-50,127
983,6	-47,087
984	-45,567
984,4	-50,167
984,8	-55,527
985,2	-57,207
985,6	-59,727
986,1	-53,807
986,5	-51,727
986,9	-56,007
987,3	-58,647
987,7	-56,087
988,2	-58,567
988,6	-61,367
989	-57,567
989,4	-57,367
989,8	-58,247
990,3	-65,527
990,7	-58,527
991,1	-60,327
991,5	-53,567
991,9	-52,967
992,3	-49,447
992,8	-53,367
993,2	-53,887
993,6	-53,247
994	-50,007
994,4	-43,127
994,9	-42,847
995,3	-37,407
995,7	-41,047
996,1	-41,567
996,5	-47,967
996,9	-50,127
997,4	-58,487
997,8	-63,967
998,2	-66,527
998,6	-64,927
999	-62,607
999,5	-60,847
999,9	-59,287
1000,3	-58,607
1000,7	-61,487
1001,1	-63,447
1001,5	-57,127
1002	-51,407
1002,4	-50,367
1002,8	-50,127
1003,2	-46,287
1003,6	-45,567
1004	-47,847
1004,5	-45,087
1004,9	-42,567
1005,3	-46,207
1005,7	-49,567
1006,1	-45,727
1006,6	-51,287
1007	-47,727
1007,4	-46,927
1007,8	-43,527
1008,2	-47,087
1008,6	-49,847
1009,1	-53,967
1009,5	-51,287
1009,9	-60,207
1010,3	-63,967
1010,7	-62,607
1011,1	-60,327
1011,6	-60,167
1012	-54,647
1012,4	-52,047
1012,8	-55,127
1013,2	-54,127
1013,6	-56,847
1014,1	-57,847
1014,5	-50,727
1014,9	-45,487
1015,3	-50,487
1015,7	-52,487
1016,1	-50,447
1016,6	-55,807
1017	-60,367
1017,4	-56,447
1017,8	-54,887
1018,2	-58,367
1018,6	-56,127
1019,1	-52,527
1019,5	-52,847
1019,9	-54,807
1020,3	-47,727
1020,7	-51,727
1021,1	-57,647
1021,6	-53,567
1022	-52,647
1022,4	-57,407
1022,8	-54,887
1023,2	-49,487
1023,6	-53,247
1024,1	-56,047
1024,5	-58,767
1024,9	-61,567
1025,3	-64,647
1025,7	-67,247
1026,1	-66,647
1026,6	-60,887
1027	-59,567
1027,4	-59,647
1027,8	-62,607
1028,2	-60,607
1028,6	-68,967
1029	-65,767
1029,5	-66,767
1029,9	-60,887
1030,3	-59,247
1030,7	-51,527
1031,1	-63,007
1031,5	-58,967
1032	-68,047
1032,4	-73,167
1032,8	-72,807
1033,2	-63,727
1033,6	-59,247
1034	-52,847
1034,4	-44,887
1034,9	-51,007
1035,3	-49,567
1035,7	-59,367
1036,1	-56,807
1036,5	-60,767
1036,9	-62,607
1037,4	-71,647
1037,8	-63,167
1038,2	-70,727
1038,6	-70,127
1039	-65,647
1039,4	-60,367
1039,8	-61,727
1040,3	-63,127
1040,7	-67,567
1041,1	-75,887
1041,5	-74,127
1041,9	-78,407
1042,3	-69,087
1042,7	-64,447
1043,2	-55,327
1043,6	-55,007
1044	-54,247
1044,4	-58,367
1044,8	-59,687
1045,2	-60,127
1045,6	-64,727
1046,1	-57,207
1046,5	-61,407
1046,9	-62,687
1047,3	-62,087
1047,7	-59,287
1048,1	-67,527
1048,5	-62,687
1049	-57,847
1049,4	-59,007
1049,8	-60,327
1050,2	-62,087
1050,6	-69,367
1051	-73,847
1051,4	-75,847
1051,9	-78,967
1052,3	-80,327
1052,7	-78,367
1053,1	-79,687
1053,5	-76,127
1053,9	-71,967
1054,3	-66,287
1054,8	-60,047
1055,2	-55,607
1055,6	-57,247
1056	-54,327
1056,4	-54,447
1056,8	-55,167
1057,2	-58,327
1057,6	-64,647
1058,1	-66,447
1058,5	-67,527
1058,9	-69,607
1059,3	-64,247
1059,7	-55,887
1060,1	-63,607
1060,5	-58,967
1061	-57,527
1061,4	-60,807
1061,8	-60,887
1062,2	-49,967
1062,6	-55,007
1063	-57,327
1063,4	-55,727
1063,8	-60,527
1064,3	-59,887
1064,7	-56,527
1065,1	-51,967
1065,5	-53,007
1065,9	-46,727
1066,3	-51,087
1066,7	-55,687
1067,1	-60,727
1067,6	-64,327
1068	-68,687
1068,4	-68,727
1068,8	-66,807
1069,2	-68,327
1069,6	-64,207
1070	-64,407
1070,4	-68,047
1070,9	-65,647
1071,3	-60,727
1071,7	-59,287
1072,1	-53,727
1072,5	-54,807
1072,9	-51,527
1073,3	-48,807
1073,7	-52,607
1074,2	-62,767
1074,6	-56,727
1075	-63,527
1075,4	-66,487
1075,8	-64,167
1076,2	-59,047
1076,6	-57,007
1077	-53,247
1077,5	-56,727
1077,9	-53,527
1078,3	-47,847
1078,7	-46,247
1079,1	-41,327
1079,5	-38,367
1079,9	-47,647
1080,3	-51,007
1080,7	-56,247
1081,2	-60,087
1081,6	-60,847
1082	-48,967
1082,4	-53,967
1082,8	-53,087
1083,2	-55,807
1083,6	-54,007
1084	-57,127
1084,5	-52,927
1084,9	-60,687
1085,3	-57,487
1085,7	-59,447
1086,1	-56,927
1086,5	-55,727
1086,9	-47,967
1087,3	-50,047
1087,7	-45,407
1088,2	-48,847
1088,6	-48,527
1089	-46,887
1089,4	-46,407
1089,8	-50,727
1090,2	-49,607
1090,6	-48,767
1091	-49,087
1091,4	-51,087
1091,9	-53,367
1092,3	-52,207
1092,7	-53,247
1093,1	-53,767
1093,5	-51,567
1093,9	-51,887
1094,3	-50,127
1094,7	-47,567
1095,1	-47,807
1095,5	-50,247
1096	-45,087
1096,4	-52,327
1096,8	-53,007
1097,2	-56,807
1097,6	-49,967
1098	-51,607
1098,4	-45,727
1098,8	-54,407
1099,2	-49,967
1099,6	-48,447
1100,1	-43,767
1100,5	-47,287
1100,9	-39,447
1101,3	-34,567
1101,7	-41,847
1102,1	-43,887
1102,5	-44,887
1102,9	-38,407
1103,3	-45,487
1103,7	-37,167
1104,2	-36,567
1104,6	-36,007
1105	-38,687
1105,4	-34,767
1105,8	-34,127
1106,2	-27,007
1106,6	-15,807
1107	-10,487
1107,4	-3,007
1107,8	-0,367
1108,3	1,033
