Data from Subt2_00096.txt Node
Date: Fri Aug 11 16:56:22 MSK 2023
User: vat
Spectrometer: MAYP114033
Trigger mode: 0
Integration Time (sec): 5,000000E-1
Scans to average: 5
Electric dark correction enabled: true
Nonlinearity correction enabled: false
Boxcar width: 2
XAxis mode: Wavelengths
Number of Pixels in Spectrum: 2068
>>>>>Begin Spectral Data<<<<<
199,4	0,833
199,9	0,517
200,4	-0,433
200,8	-1,473
201,3	-5,393
201,8	-7,153
202,2	-12,273
202,7	-12,273
203,2	-13,713
203,6	-15,593
204,1	-16,473
204,6	-16,153
205	-19,353
205,5	-20,393
206	-16,593
206,4	-19,033
206,9	-17,753
207,4	-20,553
207,8	-22,393
208,3	-24,673
208,8	-19,993
209,2	-15,193
209,7	-14,953
210,2	-12,193
210,6	-10,833
211,1	-11,873
211,5	-16,873
212	-11,433
212,5	-15,193
212,9	-16,553
213,4	-19,913
213,9	-23,153
214,3	-25,993
214,8	-26,473
215,3	-29,433
215,7	-30,833
216,2	-27,033
216,7	-30,273
217,1	-28,833
217,6	-30,513
218,1	-31,593
218,5	-33,233
219	-28,473
219,5	-27,353
219,9	-25,073
220,4	-17,273
220,9	-17,273
221,3	-19,273
221,8	-23,113
222,3	-20,753
222,7	-25,473
223,2	-25,353
223,6	-19,153
224,1	-14,033
224,6	-13,473
225	-17,273
225,5	-20,713
226	-26,593
226,4	-33,433
226,9	-32,353
227,4	-30,353
227,8	-28,033
228,3	-30,673
228,8	-21,473
229,2	-27,153
229,7	-26,193
230,2	-22,433
230,6	-23,313
231,1	-26,553
231,5	-18,633
232	-16,073
232,5	-16,193
232,9	-14,273
233,4	-16,113
233,9	-22,153
234,3	-22,593
234,8	-25,633
235,3	-24,553
235,7	-25,873
236,2	-19,153
236,7	-23,033
237,1	-21,993
237,6	-24,393
238,1	-16,833
238,5	-23,713
239	-25,633
239,4	-23,433
239,9	-18,633
240,4	-18,673
240,8	-14,713
241,3	-11,713
241,8	-15,913
242,2	-20,313
242,7	-24,833
243,2	-29,273
243,6	-28,153
244,1	-31,113
244,6	-35,953
245	-33,473
245,5	-30,633
245,9	-27,313
246,4	-20,273
246,9	-11,593
247,3	-12,393
247,8	-17,313
248,3	-19,793
248,7	-21,713
249,2	-20,913
249,7	-28,793
250,1	-29,113
250,6	-34,073
251	-37,833
251,5	-37,913
252	-34,073
252,4	-29,833
252,9	-22,873
253,4	-22,113
253,8	-22,793
254,3	-20,593
254,8	-20,313
255,2	-24,313
255,7	-19,153
256,1	-24,353
256,6	-22,153
257,1	-19,873
257,5	-19,233
258	-19,073
258,5	-19,353
258,9	-25,433
259,4	-31,153
259,9	-29,953
260,3	-37,033
260,8	-29,753
261,2	-23,513
261,7	-22,193
262,2	-27,993
262,6	-25,873
263,1	-32,553
263,6	-35,913
264	-31,593
264,5	-25,633
264,9	-22,153
265,4	-19,513
265,9	-19,153
266,3	-19,673
266,8	-13,113
267,3	-15,273
267,7	-18,753
268,2	-15,673
268,7	-13,153
269,1	-21,393
269,6	-19,953
270	-20,753
270,5	-24,193
271	-31,033
271,4	-29,913
271,9	-27,833
272,4	-23,433
272,8	-20,953
273,3	-18,793
273,7	-14,353
274,2	-13,793
274,7	-8,353
275,1	-9,873
275,6	-11,993
276,1	-22,913
276,5	-24,393
277	-33,673
277,4	-36,473
277,9	-27,953
278,4	-30,153
278,8	-25,953
279,3	-20,273
279,8	-18,873
280,2	-18,513
280,7	-7,193
281,1	-13,953
281,6	-18,393
282,1	-15,073
282,5	-21,513
283	-22,313
283,4	-23,993
283,9	-17,033
284,4	-13,553
284,8	-16,313
285,3	-19,473
285,8	-19,793
286,2	-27,673
286,7	-34,073
287,1	-34,553
287,6	-33,073
288,1	-30,553
288,5	-25,033
289	-24,313
289,5	-25,353
289,9	-27,793
290,4	-29,473
290,8	-28,673
291,3	-27,593
291,8	-17,673
292,2	-17,233
292,7	-16,953
293,1	-21,553
293,6	-22,713
294,1	-31,873
294,5	-33,473
295	-27,873
295,5	-24,753
295,9	-26,833
296,4	-23,713
296,8	-18,513
297,3	-23,233
297,8	-20,913
298,2	-17,713
298,7	-20,113
299,1	-22,993
299,6	-22,553
300,1	-27,313
300,5	-25,593
301	-22,593
301,5	-23,193
301,9	-26,953
302,4	-25,393
302,8	-25,553
303,3	-27,513
303,8	-29,033
304,2	-25,193
304,7	-20,913
305,1	-22,753
305,6	-25,393
306,1	-21,793
306,5	-22,833
307	-25,833
307,4	-26,793
307,9	-24,113
308,4	-22,273
308,8	-18,393
309,3	-18,313
309,8	-14,833
310,2	-14,233
310,7	-16,273
311,1	-22,553
311,6	-24,873
312,1	-25,553
312,5	-23,953
313	-26,953
313,4	-20,393
313,9	-16,953
314,4	-22,713
314,8	-23,233
315,3	-20,953
315,7	-22,833
316,2	-23,153
316,7	-22,593
317,1	-30,193
317,6	-30,873
318	-28,313
318,5	-26,233
319	-29,033
319,4	-20,033
319,9	-18,433
320,3	-22,513
320,8	-30,473
321,3	-21,513
321,7	-19,393
322,2	-16,673
322,6	-16,393
323,1	-15,153
323,6	-17,113
324	-19,793
324,5	-24,993
324,9	-25,073
325,4	-24,753
325,9	-23,873
326,3	-17,673
326,8	-11,873
327,2	-12,033
327,7	-10,753
328,2	-13,313
328,6	-19,913
329,1	-25,313
329,5	-21,473
330	-17,993
330,5	-14,553
330,9	-17,953
331,4	-19,993
331,8	-25,993
332,3	-25,193
332,8	-23,513
333,2	-21,433
333,7	-20,313
334,1	-13,713
334,6	-20,513
335,1	-24,433
335,5	-23,393
336	-20,473
336,4	-25,753
336,9	-16,153
337,4	-22,073
337,8	-22,113
338,3	-20,313
338,7	-14,713
339,2	-21,113
339,7	-15,873
340,1	-14,633
340,6	-17,513
341	-20,913
341,5	-18,273
342	-22,873
342,4	-22,033
342,9	-23,913
343,3	-28,873
343,8	-32,393
344,2	-27,593
344,7	-33,073
345,2	-32,873
345,6	-27,993
346,1	-30,353
346,5	-26,513
347	-24,513
347,5	-22,193
347,9	-17,833
348,4	-14,033
348,8	-15,273
349,3	-10,553
349,8	-6,033
350,2	-10,353
350,7	-12,833
351,1	-16,273
351,6	-16,833
352	-19,393
352,5	-18,593
353	-13,993
353,4	-9,673
353,9	-5,833
354,3	-4,473
354,8	-8,473
355,3	-4,513
355,7	-3,073
356,2	-0,593
356,6	3,367
357,1	20,607
357,5	33,207
358	48,687
358,5	63,647
358,9	83,167
359,4	96,647
359,8	114,487
360,3	133,247
360,8	153,087
361,2	177,327
361,7	212,527
362,1	245,807
362,6	281,847
363	324,487
363,5	366,047
364	407,007
364,4	447,047
364,9	490,527
365,3	536,487
365,8	582,207
366,3	613,087
366,7	651,447
367,2	686,447
367,6	704,447
368,1	717,927
368,5	738,807
369	744,407
369,5	737,247
369,9	739,607
370,4	728,007
370,8	710,007
371,3	683,807
371,7	663,127
372,2	624,767
372,7	593,287
373,1	557,367
373,6	523,327
374	488,847
374,5	460,927
374,9	424,407
375,4	392,927
375,9	366,487
376,3	334,247
376,8	307,527
377,2	286,807
377,7	262,207
378,2	239,167
378,6	218,687
379,1	194,567
379,5	177,927
380	162,847
380,4	140,847
380,9	124,847
381,4	112,167
381,8	96,527
382,3	89,407
382,7	84,247
383,2	77,567
383,6	68,967
384,1	61,767
384,6	52,167
385	45,367
385,5	39,767
385,9	34,447
386,4	35,247
386,8	31,727
387,3	27,807
387,7	22,727
388,2	23,607
388,7	17,167
389,1	13,847
389,6	14,007
390	14,967
390,5	5,647
390,9	5,207
391,4	3,047
391,9	1,407
392,3	-1,953
392,8	0,727
393,2	-4,393
393,7	-5,473
394,1	-13,993
394,6	-15,273
395,1	-18,113
395,5	-13,673
396	-14,113
396,4	-9,993
396,9	-8,393
397,3	-7,433
397,8	-10,633
398,2	-16,273
398,7	-12,233
399,2	-15,873
399,6	-13,673
400,1	-13,033
400,5	-9,553
401	-12,993
401,4	-14,273
401,9	-12,593
402,4	-14,473
402,8	-16,553
403,3	-17,353
403,7	-16,953
404,2	-22,153
404,6	-24,033
405,1	-15,273
405,5	-16,113
406	-10,433
406,5	-13,993
406,9	-11,393
407,4	-14,913
407,8	-10,553
408,3	-16,473
408,7	-11,153
409,2	-13,313
409,6	-8,113
410,1	-5,353
410,6	2,647
411	5,087
411,5	9,687
411,9	6,887
412,4	9,087
412,8	11,607
413,3	16,687
413,7	23,887
414,2	28,847
414,7	32,647
415,1	32,367
415,6	29,807
416	31,687
416,5	33,287
416,9	35,927
417,4	40,407
417,8	54,847
418,3	59,967
418,8	63,407
419,2	65,407
419,7	72,367
420,1	72,167
420,6	78,687
421	82,927
421,5	85,567
421,9	88,247
422,4	89,447
422,8	88,127
423,3	93,007
423,8	98,087
424,2	104,687
424,7	117,447
425,1	127,127
425,6	138,487
426	151,567
426,5	163,447
426,9	170,647
427,4	183,287
427,9	191,087
428,3	200,927
428,8	205,807
429,2	212,727
429,7	223,607
430,1	231,647
430,6	244,367
431	256,527
431,5	266,407
431,9	282,407
432,4	296,647
432,8	313,647
433,3	330,327
433,8	356,327
434,2	368,127
434,7	389,127
435,1	405,207
435,6	426,727
436	442,087
436,5	469,327
436,9	495,487
437,4	520,247
437,8	546,087
438,3	576,687
438,8	600,967
439,2	630,567
439,7	663,767
440,1	689,607
440,6	722,327
441	754,647
441,5	787,167
441,9	818,567
442,4	865,167
442,8	899,807
443,3	943,287
443,7	983,647
444,2	1029,367
444,7	1073,367
445,1	1120,047
445,6	1167,527
446	1218,767
446,5	1267,887
446,9	1317,807
447,4	1372,167
447,8	1419,847
448,3	1476,847
448,7	1533,167
449,2	1589,767
449,6	1648,487
450,1	1710,527
450,6	1764,327
451	1822,407
451,5	1885,407
451,9	1949,967
452,4	2017,847
452,8	2082,767
453,3	2157,847
453,7	2228,567
454,2	2298,767
454,6	2368,287
455,1	2444,607
455,5	2510,647
456	2573,847
456,4	2644,327
456,9	2716,807
457,3	2787,887
457,8	2869,327
458,3	2950,487
458,7	3026,447
459,2	3106,167
459,6	3197,007
460,1	3271,367
460,5	3355,767
461	3439,487
461,4	3521,607
461,9	3597,407
462,3	3688,407
462,8	3775,447
463,2	3861,327
463,7	3947,967
464,1	4042,967
464,6	4121,567
465	4201,607
465,5	4285,127
466	4369,807
466,4	4444,167
466,9	4527,967
467,3	4612,487
467,8	4684,007
468,2	4763,647
468,7	4838,847
469,1	4915,407
469,6	4998,087
470	5092,967
470,5	5168,127
470,9	5259,007
471,4	5343,327
471,8	5418,767
472,3	5491,287
472,7	5570,927
473,2	5640,287
473,6	5714,327
474,1	5784,487
474,5	5862,367
475	5936,327
475,4	6006,247
475,9	6072,127
476,4	6149,967
476,8	6208,767
477,3	6270,167
477,7	6331,447
478,2	6394,727
478,6	6447,207
479,1	6508,647
479,5	6569,247
480	6623,287
480,4	6664,647
480,9	6714,367
481,3	6755,967
481,8	6785,287
482,2	6837,407
482,7	6880,567
483,1	6921,167
483,6	6955,327
484	6998,727
484,5	7015,167
484,9	7044,727
485,4	7057,127
485,8	7091,807
486,3	7112,847
486,7	7133,327
487,2	7160,367
487,6	7188,207
488,1	7197,247
488,5	7198,927
489	7213,847
489,4	7218,207
489,9	7224,247
490,4	7237,447
490,8	7257,247
491,3	7256,967
491,7	7265,567
492,2	7255,487
492,6	7247,647
493,1	7238,607
493,5	7236,927
494	7217,487
494,4	7213,327
494,9	7197,887
495,3	7189,967
495,8	7162,767
496,2	7147,767
496,7	7123,047
497,1	7102,687
497,6	7080,327
498	7068,127
498,5	7048,967
498,9	7035,447
499,4	7010,567
499,8	6985,207
500,3	6954,727
500,7	6920,967
501,2	6894,167
501,6	6858,367
502,1	6820,727
502,5	6793,767
503	6768,047
503,4	6719,567
503,9	6695,047
504,3	6662,367
504,8	6635,807
505,2	6595,407
505,7	6570,087
506,1	6530,447
506,6	6499,767
507	6444,967
507,5	6412,087
507,9	6361,567
508,4	6331,287
508,8	6276,207
509,3	6238,767
509,7	6183,127
510,2	6141,567
510,6	6082,527
511,1	6036,367
511,5	5982,327
512	5928,967
512,4	5889,967
512,9	5840,247
513,3	5788,087
513,8	5743,167
514,2	5713,447
514,7	5648,567
515,1	5591,767
515,6	5553,767
516	5505,047
516,5	5445,967
516,9	5408,647
517,4	5366,887
517,8	5309,047
518,3	5260,567
518,7	5214,847
519,2	5163,927
519,6	5115,247
520,1	5069,047
520,5	5017,527
521	4965,967
521,4	4925,967
521,9	4873,687
522,3	4820,247
522,8	4774,407
523,2	4722,567
523,7	4663,567
524,1	4623,847
524,6	4579,007
525	4528,967
525,5	4486,207
525,9	4440,727
526,4	4384,567
526,8	4340,247
527,3	4289,967
527,7	4237,567
528,2	4193,287
528,6	4154,487
529,1	4117,087
529,5	4078,887
530	4046,887
530,4	4004,687
530,9	3962,647
531,3	3922,287
531,8	3886,687
532,2	3837,447
532,6	3801,607
533,1	3762,287
533,5	3708,367
534	3663,927
534,4	3625,047
534,9	3580,807
535,3	3550,207
535,8	3514,967
536,2	3475,807
536,7	3435,527
537,1	3397,687
537,6	3347,327
538	3323,967
538,5	3286,207
538,9	3262,207
539,4	3229,567
539,8	3198,647
540,3	3154,887
540,7	3126,367
541,2	3085,327
541,6	3051,007
542,1	3029,767
542,5	3010,047
543	2978,967
543,4	2954,527
543,9	2922,127
544,3	2881,647
544,8	2850,767
545,2	2826,247
545,7	2795,847
546,1	2782,927
546,5	2758,527
547	2724,247
547,4	2684,007
547,9	2657,527
548,3	2620,047
548,8	2581,687
549,2	2557,647
549,7	2535,447
550,1	2507,367
550,6	2480,647
551	2460,447
551,5	2436,327
551,9	2417,007
552,4	2389,727
552,8	2375,447
553,3	2355,007
553,7	2331,527
554,2	2303,327
554,6	2288,527
555,1	2259,647
555,5	2252,567
555,9	2234,007
556,4	2216,167
556,8	2191,207
557,3	2175,047
557,7	2143,127
558,2	2122,087
558,6	2113,287
559,1	2101,127
559,5	2076,007
560	2062,767
560,4	2042,607
560,9	2017,367
561,3	1997,447
561,8	1989,527
562,2	1969,487
562,7	1955,327
563,1	1940,367
563,6	1916,807
564	1894,407
564,4	1873,047
564,9	1857,367
565,3	1833,887
565,8	1819,487
566,2	1801,087
566,7	1792,767
567,1	1771,447
567,6	1763,967
568	1752,647
568,5	1738,007
568,9	1718,967
569,4	1706,967
569,8	1686,367
570,3	1671,647
570,7	1658,487
571,1	1645,807
571,6	1635,287
572	1631,767
572,5	1614,887
572,9	1604,607
573,4	1596,767
573,8	1575,927
574,3	1552,607
574,7	1544,247
575,2	1534,247
575,6	1520,207
576,1	1518,167
576,5	1513,647
576,9	1503,727
577,4	1482,447
577,8	1465,487
578,3	1451,847
578,7	1440,407
579,2	1431,807
579,6	1425,367
580,1	1416,047
580,5	1399,527
581	1384,407
581,4	1366,527
581,9	1361,127
582,3	1351,607
582,7	1343,207
583,2	1338,807
583,6	1329,967
584,1	1313,047
584,5	1306,247
585	1300,727
585,4	1284,367
585,9	1271,327
586,3	1268,447
586,8	1257,727
587,2	1242,487
587,6	1238,807
588,1	1233,647
588,5	1220,047
589	1209,847
589,4	1202,887
589,9	1196,727
590,3	1184,247
590,8	1174,807
591,2	1164,487
591,7	1158,567
592,1	1139,607
592,5	1135,407
593	1126,247
593,4	1120,527
593,9	1106,647
594,3	1105,567
594,8	1095,607
595,2	1092,967
595,7	1085,287
596,1	1084,687
596,6	1080,567
597	1080,647
597,4	1067,887
597,9	1060,127
598,3	1048,367
598,8	1037,087
599,2	1023,607
599,7	1020,847
600,1	1015,567
600,6	1012,767
601	1004,167
601,4	1000,527
601,9	994,687
602,3	987,927
602,8	979,447
603,2	977,847
603,7	969,567
604,1	960,047
604,6	951,847
605	946,287
605,4	937,527
605,9	932,687
606,3	931,087
606,8	927,407
607,2	924,887
607,7	919,727
608,1	913,447
608,6	909,567
609	903,167
609,4	893,167
609,9	885,287
610,3	882,047
610,8	875,287
611,2	868,847
611,7	865,687
612,1	862,287
612,6	850,847
613	839,007
613,4	836,487
613,9	831,607
614,3	819,927
614,8	821,447
615,2	821,087
615,7	814,887
616,1	803,687
616,6	803,727
617	793,567
617,4	781,407
617,9	771,567
618,3	770,007
618,8	762,007
619,2	760,247
619,7	756,127
620,1	752,247
620,5	747,767
621	746,607
621,4	739,087
621,9	734,727
622,3	729,927
622,8	726,127
623,2	714,447
623,6	709,327
624,1	705,447
624,5	706,247
625	699,167
625,4	702,527
625,9	700,967
626,3	692,487
626,8	681,287
627,2	680,407
627,6	670,527
628,1	664,767
628,5	662,687
629	661,727
629,4	652,607
629,9	646,767
630,3	642,407
630,7	637,487
631,2	632,007
631,6	628,687
632,1	630,367
632,5	623,967
633	622,847
633,4	617,167
633,8	611,927
634,3	606,687
634,7	604,847
635,2	600,007
635,6	593,687
636,1	586,167
636,5	583,647
636,9	578,927
637,4	576,047
637,8	573,647
638,3	569,567
638,7	559,567
639,2	556,967
639,6	553,447
640	549,567
640,5	549,367
640,9	553,207
641,4	548,047
641,8	545,527
642,2	539,687
642,7	530,967
643,1	523,487
643,6	514,247
644	511,767
644,5	509,247
644,9	515,127
645,3	516,487
645,8	513,167
646,2	512,007
646,7	508,367
647,1	504,207
647,6	494,327
648	495,007
648,4	486,967
648,9	485,167
649,3	479,167
649,8	475,207
650,2	468,807
650,6	463,487
651,1	467,567
651,5	465,087
652	460,887
652,4	465,967
652,9	462,367
653,3	451,487
653,7	446,967
654,2	446,287
654,6	441,607
655,1	434,447
655,5	429,567
655,9	429,767
656,4	427,287
656,8	422,247
657,3	424,687
657,7	426,287
658,2	419,527
658,6	414,847
659	411,407
659,5	407,847
659,9	402,367
660,4	408,767
660,8	410,407
661,2	409,927
661,7	412,527
662,1	412,967
662,6	399,887
663	395,807
663,4	388,567
663,9	379,887
664,3	378,687
664,8	380,807
665,2	378,247
665,6	382,207
666,1	376,647
666,5	367,727
667	364,247
667,4	359,487
667,9	353,767
668,3	355,847
668,7	358,567
669,2	348,847
669,6	351,207
670,1	348,007
670,5	344,567
670,9	341,567
671,4	345,967
671,8	337,727
672,3	335,327
672,7	333,407
673,1	329,727
673,6	325,567
674	321,727
674,5	316,287
674,9	313,607
675,3	314,127
675,8	316,167
676,2	315,367
676,7	312,607
677,1	307,407
677,5	301,247
678	293,447
678,4	295,487
678,9	290,567
679,3	291,647
679,7	289,007
680,2	288,847
680,6	280,727
681,1	289,287
681,5	288,647
681,9	288,807
682,4	290,327
682,8	294,287
683,3	283,127
683,7	278,247
684,1	275,047
684,6	262,567
685	259,407
685,5	262,487
685,9	264,407
686,3	266,127
686,8	272,727
687,2	271,727
687,7	263,807
688,1	261,247
688,5	258,727
689	253,207
689,4	253,487
689,9	254,567
690,3	251,047
690,7	245,967
691,2	242,087
691,6	233,847
692	232,607
692,5	232,287
692,9	228,167
693,4	233,207
693,8	234,327
694,2	232,127
694,7	228,887
695,1	232,447
695,6	230,207
696	221,767
696,4	222,447
696,9	224,527
697,3	218,767
697,8	213,367
698,2	218,167
698,6	215,487
699,1	216,447
699,5	216,727
699,9	214,247
700,4	209,767
700,8	210,807
701,3	205,447
701,7	203,367
702,1	205,087
702,6	203,807
703	197,687
703,5	191,007
703,9	190,447
704,3	193,007
704,8	188,327
705,2	191,767
705,6	194,367
706,1	192,567
706,5	180,967
707	188,087
707,4	183,607
707,8	183,007
708,3	182,167
708,7	186,167
709,2	177,887
709,6	178,047
710	178,247
710,5	176,847
710,9	181,127
711,3	184,527
711,8	183,967
712,2	184,727
712,7	175,247
713,1	163,127
713,5	163,967
714	160,007
714,4	153,127
714,8	160,847
715,3	165,327
715,7	166,207
716,2	165,727
716,6	166,927
717	161,887
717,5	160,807
717,9	152,327
718,3	147,327
718,8	145,047
719,2	144,607
719,7	138,887
720,1	143,327
720,5	147,447
721	142,327
721,4	147,087
721,8	150,887
722,3	150,887
722,7	147,727
723,2	148,207
723,6	142,367
724	138,407
724,5	128,407
724,9	127,767
725,3	129,647
725,8	129,007
726,2	132,727
726,7	130,527
727,1	129,967
727,5	121,287
728	120,967
728,4	114,887
728,8	118,047
729,3	117,287
729,7	122,847
730,1	122,207
730,6	120,967
731	118,927
731,5	117,647
731,9	119,527
732,3	119,007
732,8	113,967
733,2	112,047
733,6	111,567
734,1	109,407
734,5	102,927
734,9	112,327
735,4	115,767
735,8	114,567
736,3	114,407
736,7	117,287
737,1	109,767
737,6	109,007
738	106,407
738,4	103,607
738,9	95,727
739,3	92,327
739,7	86,407
740,2	86,727
740,6	86,407
741,1	93,247
741,5	98,647
741,9	102,567
742,4	101,687
742,8	96,567
743,2	100,927
743,7	96,887
744,1	94,767
744,5	96,087
745	99,967
745,4	93,887
745,8	90,727
746,3	88,287
746,7	81,447
747,2	78,727
747,6	79,967
748	85,647
748,5	84,487
748,9	87,207
749,3	82,447
749,8	80,927
750,2	82,727
750,6	81,087
751,1	81,407
751,5	87,247
751,9	83,527
752,4	78,847
752,8	82,487
753,3	82,607
753,7	82,967
754,1	88,047
754,6	84,847
755	83,927
755,4	87,767
755,9	83,127
756,3	78,207
756,7	79,647
757,2	80,207
757,6	75,087
758	79,247
758,5	79,367
758,9	80,367
759,3	75,567
759,8	75,207
760,2	69,607
760,6	71,647
761,1	68,647
761,5	68,007
761,9	68,527
762,4	70,687
762,8	65,967
763,3	63,087
763,7	65,847
764,1	62,327
764,6	63,447
765	64,207
765,4	64,687
765,9	64,727
766,3	66,727
766,7	64,127
767,2	62,167
767,6	64,687
768	61,847
768,5	56,527
768,9	55,087
769,3	57,807
769,8	59,887
770,2	56,527
770,6	61,767
771,1	61,607
771,5	58,287
771,9	53,687
772,4	58,607
772,8	58,247
773,2	60,247
773,7	64,727
774,1	66,087
774,5	62,207
775	56,367
775,4	50,127
775,8	46,407
776,3	43,967
776,7	40,767
777,1	43,607
777,6	46,487
778	50,487
778,4	53,727
778,9	56,287
779,3	56,727
779,7	54,567
780,2	50,967
780,6	43,847
781	47,607
781,5	49,047
781,9	48,087
782,3	43,327
782,8	40,287
783,2	35,647
783,6	32,647
784,1	35,607
784,5	34,447
784,9	41,487
785,4	47,527
785,8	48,247
786,2	44,527
786,7	49,687
787,1	49,607
787,5	43,487
788	36,927
788,4	40,367
788,8	37,047
789,3	25,647
789,7	20,927
790,1	24,687
790,6	19,327
791	13,927
791,4	22,447
791,9	25,447
792,3	21,647
792,7	21,367
793,2	22,447
793,6	22,967
794	26,207
794,5	27,927
794,9	33,407
795,3	39,607
795,8	38,767
796,2	36,127
796,6	36,007
797,1	30,567
797,5	27,007
797,9	25,647
798,4	25,687
798,8	30,687
799,2	31,167
799,7	29,047
800,1	25,887
800,5	26,487
801	24,807
801,4	24,407
801,8	26,767
802,2	34,447
802,7	35,887
803,1	30,607
803,5	31,647
804	31,927
804,4	23,967
804,8	18,807
805,3	15,367
805,7	13,287
806,1	10,447
806,6	12,087
807	10,087
807,4	17,127
807,9	18,847
808,3	18,567
808,7	22,207
809,2	26,167
809,6	22,207
810	23,247
810,4	17,567
810,9	16,927
811,3	14,887
811,7	15,967
812,2	13,847
812,6	19,967
813	14,807
813,5	16,767
813,9	11,607
814,3	9,767
814,8	11,327
815,2	15,007
815,6	11,287
816,1	13,887
816,5	16,167
816,9	13,487
817,3	12,007
817,8	16,447
818,2	16,327
818,6	13,167
819,1	8,127
819,5	8,087
819,9	2,687
820,4	6,327
820,8	8,167
821,2	15,247
821,7	14,727
822,1	14,887
822,5	11,847
822,9	10,687
823,4	6,127
823,8	4,527
824,2	8,007
824,7	6,447
825,1	6,847
825,5	6,367
826	7,607
826,4	5,567
826,8	9,687
827,3	6,767
827,7	5,927
828,1	5,407
828,5	5,047
829	0,927
829,4	-1,593
829,8	1,527
830,3	4,127
830,7	5,367
831,1	10,647
831,6	16,247
832	17,087
832,4	18,047
832,8	17,687
833,3	13,847
833,7	14,367
834,1	10,847
834,6	7,127
835	4,447
835,4	0,607
835,8	-5,313
836,3	-1,993
836,7	-2,033
837,1	-0,393
837,6	4,407
838	4,927
838,4	7,607
838,9	9,127
839,3	11,047
839,7	15,807
840,1	20,407
840,6	10,927
841	6,087
841,4	-2,273
841,9	-12,713
842,3	-18,353
842,7	-13,273
843,1	-15,033
843,6	-15,713
844	-11,753
844,4	-6,553
844,9	-3,913
845,3	2,407
845,7	11,007
846,2	11,367
846,6	6,927
847	3,487
847,4	-0,353
847,9	-3,193
848,3	-9,593
848,7	-6,033
849,2	-6,353
849,6	-2,873
850	-4,633
850,4	-1,633
850,9	0,127
851,3	1,047
851,7	-8,793
852,2	-7,513
852,6	-12,833
853	-13,393
853,4	-12,553
853,9	-4,113
854,3	-8,153
854,7	-3,233
855,2	-8,113
855,6	-13,913
856	-14,033
856,4	-11,593
856,9	-12,913
857,3	-15,393
857,7	-7,233
858,2	-7,993
858,6	-5,273
859	1,327
859,4	3,447
859,9	-1,713
860,3	-5,073
860,7	-14,833
861,1	-20,433
861,6	-19,593
862	-19,353
862,4	-21,193
862,9	-17,313
863,3	-16,553
863,7	-15,553
864,1	-16,033
864,6	-7,753
865	-0,913
865,4	-2,393
865,9	-7,113
866,3	-0,713
866,7	-5,553
867,1	-3,873
867,6	3,847
868	7,287
868,4	-0,713
868,8	-0,073
869,3	0,327
869,7	-7,153
870,1	-6,073
870,6	-4,793
871	-2,953
871,4	-54,193
871,8	-49,233
872,3	-55,193
872,7	-56,473
873,1	-58,913
873,5	-16,393
874	-19,873
874,4	-13,433
874,8	-9,433
875,3	-10,793
875,7	-8,153
876,1	-7,713
876,5	-11,513
877	-16,673
877,4	-14,593
877,8	-9,633
878,2	-7,433
878,7	0,127
879,1	2,447
879,5	3,967
879,9	-0,033
880,4	0,807
880,8	-4,593
881,2	-4,353
881,7	-9,353
882,1	-14,473
882,5	-21,753
882,9	-19,673
883,4	-22,593
883,8	-21,753
884,2	-16,793
884,6	-10,793
885,1	-11,513
885,5	-12,713
885,9	-9,913
886,3	-9,393
886,8	-12,913
887,2	-15,193
887,6	-11,433
888	-11,753
888,5	-8,633
888,9	-5,873
889,3	-9,313
889,8	-10,513
890,2	-13,753
890,6	-17,393
891	-22,193
891,5	-18,193
891,9	-15,793
892,3	-18,153
892,7	-17,633
893,2	-14,713
893,6	-15,193
894	-15,553
894,4	-10,993
894,9	-10,073
895,3	-9,993
895,7	-15,353
896,1	-12,593
896,6	-13,153
897	-11,193
897,4	-18,593
897,8	-10,193
898,3	-13,193
898,7	-13,593
899,1	-16,113
899,5	-13,473
900	-19,273
900,4	-20,233
900,8	-26,273
901,2	-32,753
901,7	-28,073
902,1	-20,753
902,5	-22,673
902,9	-16,273
903,4	-10,953
903,8	-12,433
904,2	-20,753
904,6	-15,633
905,1	-16,673
905,5	-19,633
905,9	-19,233
906,3	-14,193
906,8	-19,393
907,2	-15,593
907,6	-16,633
908	-16,993
908,5	-17,273
908,9	-16,193
909,3	-26,553
909,7	-26,553
910,2	-26,033
910,6	-26,233
911	-26,953
911,4	-22,953
911,9	-21,073
912,3	-20,873
912,7	-20,193
913,1	-16,513
913,6	-13,033
914	-17,873
914,4	-20,593
914,8	-26,353
915,3	-29,913
915,7	-31,113
916,1	-22,633
916,5	-24,513
916,9	-21,913
917,4	-22,593
917,8	-20,713
918,2	-22,833
918,6	-20,473
919,1	-19,593
919,5	-22,633
919,9	-23,673
920,3	-23,793
920,8	-20,993
921,2	-22,873
921,6	-19,673
922	-21,273
922,5	-20,833
922,9	-24,793
923,3	-23,113
923,7	-23,033
924,2	-28,033
924,6	-31,393
925	-22,873
925,4	-21,553
925,8	-18,233
926,3	-17,913
926,7	-19,513
927,1	-21,753
927,5	-24,433
928	-28,873
928,4	-25,873
928,8	-24,513
929,2	-25,313
929,7	-25,593
930,1	-23,113
930,5	-22,473
930,9	-22,713
931,3	-31,393
931,8	-28,993
932,2	-33,433
932,6	-31,353
933	-32,673
933,5	-24,873
933,9	-26,033
934,3	-21,953
934,7	-20,313
935,2	-16,713
935,6	-22,513
936	-22,833
936,4	-28,313
936,8	-31,193
937,3	-29,513
937,7	-29,193
938,1	-30,713
938,5	-25,873
939	-27,113
939,4	-31,033
939,8	-26,913
940,2	-27,313
940,6	-23,193
941,1	-23,073
941,5	-23,473
941,9	-26,673
942,3	-27,593
942,8	-32,673
943,2	-28,113
943,6	-24,273
944	-21,633
944,4	-22,353
944,9	-21,273
945,3	-23,793
945,7	-21,233
946,1	-19,633
946,6	-14,873
947	-15,633
947,4	-18,353
947,8	-25,593
948,2	-27,993
948,7	-24,313
949,1	-23,233
949,5	-20,793
949,9	-17,873
950,3	-13,793
950,8	-17,513
951,2	-22,073
951,6	-16,393
952	-15,473
952,5	-22,393
952,9	-20,913
953,3	-16,633
953,7	-20,713
954,1	-22,513
954,6	-16,473
955	-19,313
955,4	-19,233
955,8	-22,913
956,2	-18,393
956,7	-21,193
957,1	-17,593
957,5	-18,553
957,9	-19,153
958,3	-27,913
958,8	-27,913
959,2	-30,273
959,6	-29,033
960	-21,073
960,5	-15,153
960,9	-20,953
961,3	-19,313
961,7	-17,353
962,1	-23,993
962,6	-24,833
963	-17,033
963,4	-22,993
963,8	-27,393
964,2	-26,513
964,7	-23,753
965,1	-22,473
965,5	-19,033
965,9	-17,753
966,3	-15,713
966,8	-19,993
967,2	-25,793
967,6	-25,673
968	-21,913
968,4	-22,993
968,9	-21,673
969,3	-21,113
969,7	-19,713
970,1	-22,393
970,5	-23,753
971	-25,353
971,4	-21,753
971,8	-27,913
972,2	-27,833
972,6	-24,953
973,1	-21,473
973,5	-21,233
973,9	-14,073
974,3	-16,953
974,7	-18,553
975,2	-15,473
975,6	-16,553
976	-17,913
976,4	-15,793
976,8	-17,033
977,3	-20,833
977,7	-20,593
978,1	-27,633
978,5	-28,993
978,9	-32,073
979,4	-32,233
979,8	-33,393
980,2	-29,393
980,6	-23,073
981	-18,433
981,5	-24,193
981,9	-24,273
982,3	-21,393
982,7	-29,553
983,1	-31,473
983,6	-27,953
984	-30,233
984,4	-31,153
984,8	-29,033
985,2	-26,473
985,6	-29,353
986,1	-27,553
986,5	-26,673
986,9	-25,113
987,3	-28,713
987,7	-23,393
988,2	-25,513
988,6	-27,113
989	-24,473
989,4	-27,313
989,8	-25,833
990,3	-23,833
990,7	-20,633
991,1	-22,113
991,5	-17,593
991,9	-22,953
992,3	-29,153
992,8	-30,033
993,2	-29,473
993,6	-26,913
994	-19,433
994,4	-11,553
994,9	-18,713
995,3	-25,113
995,7	-26,833
996,1	-33,913
996,5	-37,753
996,9	-30,513
997,4	-26,193
997,8	-30,193
998,2	-28,553
998,6	-28,393
999	-34,033
999,5	-36,153
999,9	-34,233
1000,3	-36,553
1000,7	-31,073
1001,1	-26,513
1001,5	-26,073
1002	-24,513
1002,4	-23,793
1002,8	-23,113
1003,2	-23,753
1003,6	-22,753
1004	-25,953
1004,5	-27,033
1004,9	-27,553
1005,3	-29,193
1005,7	-24,073
1006,1	-20,993
1006,6	-18,273
1007	-19,513
1007,4	-19,913
1007,8	-22,913
1008,2	-20,273
1008,6	-15,193
1009,1	-20,313
1009,5	-17,353
1009,9	-21,433
1010,3	-28,313
1010,7	-38,593
1011,1	-33,513
1011,6	-34,433
1012	-30,313
1012,4	-24,553
1012,8	-20,313
1013,2	-20,193
1013,6	-22,953
1014,1	-25,233
1014,5	-29,353
1014,9	-33,793
1015,3	-36,433
1015,7	-35,993
1016,1	-33,753
1016,6	-33,313
1017	-28,233
1017,4	-27,313
1017,8	-21,873
1018,2	-25,993
1018,6	-24,913
1019,1	-27,233
1019,5	-31,073
1019,9	-38,473
1020,3	-34,753
1020,7	-34,913
1021,1	-31,673
1021,6	-30,673
1022	-28,553
1022,4	-27,113
1022,8	-23,273
1023,2	-22,793
1023,6	-19,953
1024,1	-19,553
1024,5	-20,433
1024,9	-25,993
1025,3	-26,033
1025,7	-29,593
1026,1	-28,833
1026,6	-32,873
1027	-24,553
1027,4	-24,713
1027,8	-25,873
1028,2	-26,513
1028,6	-24,473
1029	-28,233
1029,5	-29,113
1029,9	-20,713
1030,3	-15,513
1030,7	-16,113
1031,1	-17,673
1031,5	-18,953
1032	-26,153
1032,4	-27,233
1032,8	-23,033
1033,2	-22,153
1033,6	-23,073
1034	-22,633
1034,4	-23,953
1034,9	-26,673
1035,3	-29,233
1035,7	-27,633
1036,1	-23,713
1036,5	-24,873
1036,9	-26,193
1037,4	-32,793
1037,8	-35,033
1038,2	-38,913
1038,6	-40,753
1039	-44,473
1039,4	-38,873
1039,8	-38,393
1040,3	-41,593
1040,7	-42,553
1041,1	-35,673
1041,5	-33,073
1041,9	-33,193
1042,3	-29,873
1042,7	-25,033
1043,2	-30,313
1043,6	-28,193
1044	-19,073
1044,4	-23,633
1044,8	-31,953
1045,2	-25,633
1045,6	-26,473
1046,1	-38,793
1046,5	-38,553
1046,9	-34,993
1047,3	-41,993
1047,7	-51,073
1048,1	-42,993
1048,5	-36,793
1049	-37,073
1049,4	-37,073
1049,8	-33,073
1050,2	-33,833
1050,6	-30,073
1051	-30,473
1051,4	-30,673
1051,9	-31,113
1052,3	-35,193
1052,7	-40,953
1053,1	-40,873
1053,5	-40,113
1053,9	-35,193
1054,3	-35,753
1054,8	-37,313
1055,2	-35,513
1055,6	-37,433
1056	-41,673
1056,4	-39,153
1056,8	-33,273
1057,2	-34,033
1057,6	-31,833
1058,1	-29,233
1058,5	-32,473
1058,9	-34,833
1059,3	-34,073
1059,7	-30,433
1060,1	-28,553
1060,5	-24,473
1061	-24,353
1061,4	-21,233
1061,8	-23,833
1062,2	-27,753
1062,6	-26,913
1063	-22,793
1063,4	-23,793
1063,8	-27,273
1064,3	-25,713
1064,7	-30,553
1065,1	-36,993
1065,5	-36,473
1065,9	-32,713
1066,3	-36,353
1066,7	-28,593
1067,1	-23,033
1067,6	-29,673
1068	-29,953
1068,4	-22,473
1068,8	-26,753
1069,2	-33,793
1069,6	-34,273
1070	-32,273
1070,4	-31,193
1070,9	-27,673
1071,3	-30,793
1071,7	-27,273
1072,1	-27,953
1072,5	-27,593
1072,9	-30,873
1073,3	-17,993
1073,7	-11,633
1074,2	-15,313
1074,6	-21,313
1075	-21,793
1075,4	-31,073
1075,8	-32,713
1076,2	-26,833
1076,6	-22,193
1077	-25,513
1077,5	-23,833
1077,9	-27,673
1078,3	-31,233
1078,7	-36,713
1079,1	-34,033
1079,5	-29,713
1079,9	-28,153
1080,3	-22,553
1080,7	-20,833
1081,2	-21,673
1081,6	-25,513
1082	-22,193
1082,4	-27,313
1082,8	-27,233
1083,2	-27,193
1083,6	-27,953
1084	-30,473
1084,5	-29,113
1084,9	-25,273
1085,3	-21,313
1085,7	-20,033
1086,1	-21,393
1086,5	-21,273
1086,9	-20,673
1087,3	-22,513
1087,7	-20,753
1088,2	-18,673
1088,6	-16,233
1089	-18,593
1089,4	-16,513
1089,8	-14,393
1090,2	-18,033
1090,6	-22,833
1091	-23,713
1091,4	-31,753
1091,9	-35,033
1092,3	-32,353
1092,7	-31,673
1093,1	-33,713
1093,5	-27,353
1093,9	-23,033
1094,3	-26,633
1094,7	-25,513
1095,1	-27,553
1095,5	-26,913
1096	-29,473
1096,4	-24,753
1096,8	-19,353
1097,2	-13,513
1097,6	-16,913
1098	-18,793
1098,4	-21,913
1098,8	-29,273
1099,2	-28,513
1099,6	-20,593
1100,1	-17,553
1100,5	-12,953
1100,9	-5,473
1101,3	-5,473
1101,7	-11,473
1102,1	-10,073
1102,5	-12,873
1102,9	-15,233
1103,3	-16,833
1103,7	-15,073
1104,2	-14,993
1104,6	-16,753
1105	-17,473
1105,4	-19,793
1105,8	-16,393
1106,2	-15,313
1106,6	-9,353
1107	-6,233
1107,4	-0,273
1107,8	0,067
1108,3	-0,033
