Data from Subt2_00008.txt Node
Date: Fri Aug 11 15:20:00 MSK 2023
User: vat
Spectrometer: MAYP114033
Trigger mode: 0
Integration Time (sec): 5,000000E-1
Scans to average: 5
Electric dark correction enabled: true
Nonlinearity correction enabled: false
Boxcar width: 2
XAxis mode: Wavelengths
Number of Pixels in Spectrum: 2068
>>>>>Begin Spectral Data<<<<<
199,4	0,333
199,9	0,983
200,4	0,213
200,8	-2,987
201,3	-4,507
201,8	-6,627
202,2	-1,707
202,7	-3,747
203,2	-2,667
203,6	-3,107
204,1	4,573
204,6	-2,427
205	-4,827
205,5	-4,187
206	-0,987
206,4	-6,987
206,9	-9,067
207,4	-10,987
207,8	-9,147
208,3	-8,427
208,8	-8,507
209,2	-5,827
209,7	0,653
210,2	-1,987
210,6	-2,987
211,1	-5,267
211,5	-3,587
212	-4,147
212,5	-3,147
212,9	-6,067
213,4	-1,267
213,9	-2,987
214,3	-0,547
214,8	-2,787
215,3	0,573
215,7	-2,787
216,2	-5,587
216,7	-13,427
217,1	-11,267
217,6	-10,947
218,1	-11,547
218,5	-4,747
219	4,213
219,5	5,213
219,9	1,853
220,4	10,893
220,9	10,653
221,3	8,133
221,8	7,413
222,3	12,373
222,7	3,813
223,2	5,533
223,6	3,133
224,1	7,013
224,6	-1,587
225	-0,347
225,5	-8,027
226	-7,507
226,4	-12,507
226,9	-6,347
227,4	-8,027
227,8	-5,787
228,3	-4,787
228,8	-1,227
229,2	-3,747
229,7	-2,787
230,2	-5,347
230,6	-6,987
231,1	-13,107
231,5	-16,827
232	-18,587
232,5	-13,427
232,9	-11,147
233,4	-5,267
233,9	-2,947
234,3	-4,627
234,8	-11,067
235,3	-13,387
235,7	-18,267
236,2	-15,867
236,7	-11,507
237,1	-9,427
237,6	-9,427
238,1	-6,947
238,5	-7,747
239	-7,787
239,4	-0,747
239,9	3,253
240,4	4,053
240,8	6,093
241,3	1,733
241,8	-9,107
242,2	-12,627
242,7	-11,307
243,2	-10,147
243,6	-4,787
244,1	-0,707
244,6	5,573
245	6,173
245,5	3,213
245,9	2,973
246,4	7,573
246,9	-0,107
247,3	-3,507
247,8	2,453
248,3	2,893
248,7	1,973
249,2	3,053
249,7	8,293
250,1	2,853
250,6	1,373
251	2,413
251,5	9,213
252	-0,827
252,4	2,293
252,9	2,213
253,4	-3,627
253,8	-13,347
254,3	-15,067
254,8	-21,107
255,2	-25,387
255,7	-23,867
256,1	-10,747
256,6	1,093
257,1	2,653
257,5	7,973
258	9,013
258,5	4,213
258,9	-0,667
259,4	3,613
259,9	1,173
260,3	-0,467
260,8	-2,547
261,2	0,133
261,7	-0,467
262,2	0,573
262,6	5,693
263,1	0,693
263,6	4,293
264	2,333
264,5	5,453
264,9	0,453
265,4	3,173
265,9	0,613
266,3	-2,307
266,8	-1,227
267,3	-3,547
267,7	2,493
268,2	0,333
268,7	2,573
269,1	-1,827
269,6	4,333
270	4,133
270,5	4,533
271	-0,067
271,4	2,213
271,9	1,493
272,4	0,453
272,8	-3,267
273,3	4,413
273,7	1,213
274,2	-5,507
274,7	-7,747
275,1	-1,947
275,6	-5,427
276,1	-9,987
276,5	-7,267
277	-11,027
277,4	-22,987
277,9	-21,587
278,4	-16,587
278,8	-11,107
279,3	-11,227
279,8	-3,907
280,2	-5,227
280,7	-4,667
281,1	-6,467
281,6	-3,107
282,1	-1,547
282,5	-8,107
283	-5,667
283,4	-5,187
283,9	-4,627
284,4	-6,307
284,8	2,693
285,3	-0,947
285,8	-2,227
286,2	-6,107
286,7	-6,467
287,1	-4,227
287,6	-5,147
288,1	-6,067
288,5	-4,627
289	-2,987
289,5	-5,707
289,9	1,573
290,4	2,893
290,8	7,013
291,3	5,013
291,8	4,493
292,2	0,413
292,7	1,053
293,1	-0,467
293,6	-2,627
294,1	-2,107
294,5	-6,227
295	-4,507
295,5	-3,867
295,9	2,053
296,4	-0,707
296,8	1,013
297,3	5,293
297,8	2,973
298,2	6,213
298,7	-0,267
299,1	0,333
299,6	-7,667
300,1	-7,667
300,5	-12,387
301	-1,787
301,5	-2,027
301,9	-1,987
302,4	0,453
302,8	1,773
303,3	-1,387
303,8	-0,987
304,2	1,933
304,7	-3,507
305,1	-6,027
305,6	-4,067
306,1	-6,707
306,5	-8,907
307	-0,827
307,4	-0,267
307,9	-4,587
308,4	2,933
308,8	-0,827
309,3	-2,947
309,8	2,733
310,2	9,493
310,7	1,413
311,1	3,333
311,6	-0,947
312,1	-4,627
312,5	-6,067
313	0,213
313,4	3,253
313,9	8,733
314,4	6,773
314,8	-1,067
315,3	-5,867
315,7	-6,547
316,2	-10,427
316,7	-15,507
317,1	-11,507
317,6	-10,947
318	-12,507
318,5	-15,427
319	-7,627
319,4	-10,427
319,9	-3,867
320,3	0,693
320,8	1,813
321,3	0,133
321,7	7,493
322,2	7,333
322,6	5,613
323,1	4,573
323,6	5,893
324	8,813
324,5	1,493
324,9	-2,907
325,4	4,533
325,9	4,493
326,3	-1,467
326,8	4,813
327,2	8,293
327,7	2,093
328,2	4,853
328,6	1,333
329,1	-3,907
329,5	0,373
330	3,733
330,5	3,613
330,9	3,573
331,4	2,053
331,8	-3,387
332,3	-7,347
332,8	-10,467
333,2	-7,867
333,7	-6,787
334,1	-3,987
334,6	0,293
335,1	2,293
335,5	5,773
336	5,933
336,4	4,653
336,9	-0,347
337,4	-3,027
337,8	-6,587
338,3	-2,307
338,7	0,173
339,2	-0,267
339,7	-2,267
340,1	-5,747
340,6	-3,667
341	-5,747
341,5	-3,787
342	-6,347
342,4	5,613
342,9	-1,067
343,3	-1,427
343,8	-1,267
344,2	1,813
344,7	-7,667
345,2	-3,747
345,6	-0,467
346,1	-0,147
346,5	0,453
347	1,773
347,5	2,493
347,9	0,653
348,4	4,973
348,8	5,053
349,3	8,413
349,8	9,093
350,2	9,733
350,7	2,293
351,1	5,373
351,6	1,533
352	2,453
352,5	6,253
353	15,613
353,4	15,973
353,9	20,213
354,3	22,653
354,8	22,333
355,3	25,053
355,7	35,293
356,2	43,413
356,6	49,773
357,1	59,373
357,5	77,853
358	84,693
358,5	101,093
358,9	124,613
359,4	147,813
359,8	153,653
360,3	183,613
360,8	209,893
361,2	232,813
361,7	258,813
362,1	307,053
362,6	344,093
363	387,173
363,5	433,453
364	484,373
364,4	531,653
364,9	577,933
365,3	626,693
365,8	672,533
366,3	714,413
366,7	747,253
367,2	774,173
367,6	790,813
368,1	812,213
368,5	826,413
369	830,613
369,5	837,213
369,9	837,213
370,4	816,173
370,8	791,813
371,3	766,413
371,7	737,413
372,2	703,973
372,7	672,453
373,1	636,213
373,6	600,453
374	553,733
374,5	516,333
374,9	479,133
375,4	439,573
375,9	411,893
376,3	387,093
376,8	350,813
377,2	319,893
377,7	293,813
378,2	266,293
378,6	243,573
379,1	230,013
379,5	214,013
380	201,893
380,4	188,093
380,9	172,973
381,4	153,613
381,8	139,293
382,3	127,013
382,7	111,413
383,2	101,813
383,6	93,493
384,1	85,253
384,6	77,573
385	73,733
385,5	68,093
385,9	69,013
386,4	69,053
386,8	73,253
387,3	64,853
387,7	56,693
388,2	53,533
388,7	50,573
389,1	40,013
389,6	39,293
390	43,973
390,5	40,293
390,9	38,453
391,4	35,813
391,9	33,093
392,3	28,733
392,8	24,453
393,2	28,813
393,7	25,333
394,1	26,173
394,6	20,653
395,1	25,693
395,5	18,013
396	18,853
396,4	21,213
396,9	18,773
397,3	14,813
397,8	11,693
398,2	10,373
398,7	3,333
399,2	7,293
399,6	5,013
400,1	4,733
400,5	9,253
401	8,853
401,4	7,693
401,9	13,653
402,4	14,293
402,8	7,453
403,3	10,293
403,7	12,093
404,2	7,813
404,6	-2,147
405,1	1,013
405,5	0,533
406	-0,987
406,5	-3,147
406,9	8,653
407,4	7,213
407,8	6,453
408,3	9,933
408,7	10,893
409,2	15,693
409,6	16,813
410,1	13,373
410,6	11,853
411	12,493
411,5	12,653
411,9	15,693
412,4	26,053
412,8	21,293
413,3	17,093
413,7	15,333
414,2	15,573
414,7	10,133
415,1	18,133
415,6	27,613
416	25,813
416,5	28,933
416,9	36,973
417,4	39,813
417,8	39,253
418,3	39,813
418,8	40,933
419,2	34,413
419,7	34,653
420,1	32,173
420,6	29,253
421	23,613
421,5	27,973
421,9	28,693
422,4	31,773
422,8	38,493
423,3	43,613
423,8	45,813
424,2	39,973
424,7	40,733
425,1	40,093
425,6	38,733
426	32,573
426,5	36,053
426,9	30,973
427,4	33,173
427,9	26,453
428,3	25,933
428,8	19,253
429,2	17,013
429,7	11,813
430,1	12,013
430,6	13,613
431	18,813
431,5	23,253
431,9	13,853
432,4	18,693
432,8	16,373
433,3	18,733
433,8	19,453
434,2	21,893
434,7	22,893
435,1	19,293
435,6	15,133
436	9,613
436,5	16,413
436,9	13,013
437,4	19,453
437,8	18,533
438,3	18,333
438,8	16,093
439,2	17,173
439,7	14,653
440,1	15,733
440,6	10,733
441	9,373
441,5	1,613
441,9	1,173
442,4	-5,707
442,8	0,813
443,3	-2,227
443,7	2,853
444,2	2,253
444,7	7,693
445,1	7,573
445,6	14,133
446	20,133
446,5	25,533
446,9	27,773
447,4	30,253
447,8	31,053
448,3	23,413
448,7	24,733
449,2	25,093
449,6	28,373
450,1	27,813
450,6	30,813
451	24,733
451,5	25,813
451,9	15,493
452,4	19,453
452,8	20,973
453,3	20,573
453,7	14,573
454,2	20,573
454,6	17,173
455,1	13,893
455,5	18,333
456	21,613
456,4	22,893
456,9	18,013
457,3	20,493
457,8	18,693
458,3	23,053
458,7	25,773
459,2	29,933
459,6	29,053
460,1	32,253
460,5	27,853
461	30,253
461,4	31,053
461,9	35,533
462,3	34,733
462,8	36,493
463,2	35,573
463,7	34,213
464,1	37,933
464,6	35,533
465	37,733
465,5	35,213
466	37,893
466,4	38,213
466,9	39,933
467,3	42,733
467,8	41,693
468,2	46,213
468,7	40,213
469,1	40,213
469,6	42,773
470	43,893
470,5	36,093
470,9	44,093
471,4	43,573
471,8	39,573
472,3	41,973
472,7	40,373
473,2	35,693
473,6	38,413
474,1	36,613
474,5	34,173
475	38,213
475,4	39,853
475,9	37,733
476,4	39,973
476,8	43,253
477,3	45,773
477,7	42,773
478,2	43,133
478,6	44,733
479,1	45,653
479,5	44,613
480	45,413
480,4	43,293
480,9	40,173
481,3	43,693
481,8	47,013
482,2	46,773
482,7	46,653
483,1	49,933
483,6	42,533
484	39,973
484,5	42,093
484,9	42,933
485,4	37,973
485,8	38,733
486,3	36,573
486,7	32,893
487,2	40,653
487,6	46,213
488,1	48,093
488,5	53,533
489	56,293
489,4	50,253
489,9	45,413
490,4	42,573
490,8	39,573
491,3	35,093
491,7	38,453
492,2	40,333
492,6	39,933
493,1	41,853
493,5	44,533
494	41,253
494,4	46,453
494,9	48,773
495,3	41,853
495,8	47,413
496,2	51,413
496,7	43,013
497,1	41,133
497,6	42,333
498	32,293
498,5	28,893
498,9	32,773
499,4	35,413
499,8	32,293
500,3	38,333
500,7	39,893
501,2	43,213
501,6	42,013
502,1	50,333
502,5	51,813
503	51,253
503,4	44,973
503,9	48,613
504,3	43,613
504,8	37,173
505,2	39,373
505,7	40,693
506,1	36,773
506,6	42,253
507	44,973
507,5	44,933
507,9	44,173
508,4	45,293
508,8	43,173
509,3	47,253
509,7	42,333
510,2	41,973
510,6	44,533
511,1	46,093
511,5	45,973
512	47,413
512,4	48,653
512,9	42,653
513,3	42,133
513,8	44,013
514,2	47,213
514,7	43,093
515,1	45,453
515,6	42,213
516	41,773
516,5	42,293
516,9	46,253
517,4	43,653
517,8	47,573
518,3	48,973
518,7	47,733
519,2	43,933
519,6	48,533
520,1	48,333
520,5	47,133
521	50,653
521,4	53,253
521,9	49,693
522,3	45,453
522,8	46,493
523,2	44,853
523,7	46,133
524,1	44,493
524,6	48,413
525	42,653
525,5	46,213
525,9	48,733
526,4	49,333
526,8	50,053
527,3	52,293
527,7	41,973
528,2	37,133
528,6	42,733
529,1	41,253
529,5	39,773
530	45,093
530,4	48,613
530,9	44,253
531,3	43,213
531,8	48,173
532,2	45,053
532,6	48,493
533,1	45,613
533,5	41,733
534	43,693
534,4	47,533
534,9	41,813
535,3	50,533
535,8	52,933
536,2	45,573
536,7	43,573
537,1	41,853
537,6	38,213
538	36,253
538,5	35,493
538,9	32,973
539,4	39,373
539,8	42,173
540,3	42,213
540,7	45,093
541,2	42,333
541,6	37,973
542,1	34,453
542,5	41,453
543	37,253
543,4	39,053
543,9	43,893
544,3	45,453
544,8	42,893
545,2	49,093
545,7	51,053
546,1	49,493
546,5	49,613
547	49,453
547,4	48,293
547,9	44,213
548,3	44,133
548,8	43,773
549,2	40,973
549,7	38,053
550,1	45,853
550,6	40,773
551	39,493
551,5	43,453
551,9	40,733
552,4	38,773
552,8	45,173
553,3	45,413
553,7	43,173
554,2	42,293
554,6	44,453
555,1	39,813
555,5	39,613
555,9	43,053
556,4	50,813
556,8	51,133
557,3	53,413
557,7	49,773
558,2	48,773
558,6	44,373
559,1	36,013
559,5	35,013
560	39,093
560,4	39,653
560,9	41,213
561,3	48,733
561,8	46,093
562,2	44,493
562,7	40,173
563,1	42,013
563,6	39,493
564	47,493
564,4	53,693
564,9	57,893
565,3	54,493
565,8	52,533
566,2	45,573
566,7	41,573
567,1	37,213
567,6	38,373
568	50,533
568,5	49,053
568,9	44,853
569,4	49,613
569,8	50,653
570,3	41,413
570,7	44,333
571,1	45,453
571,6	47,733
572	47,173
572,5	45,173
572,9	46,093
573,4	50,373
573,8	43,973
574,3	46,493
574,7	46,693
575,2	42,853
575,6	37,253
576,1	36,493
576,5	27,893
576,9	29,413
577,4	35,493
577,8	38,293
578,3	47,693
578,7	50,493
579,2	50,253
579,6	40,973
580,1	37,493
580,5	32,133
581	35,733
581,4	31,973
581,9	33,533
582,3	35,173
582,7	32,453
583,2	29,173
583,6	31,173
584,1	37,133
584,5	35,933
585	32,453
585,4	34,573
585,9	38,093
586,3	41,173
586,8	45,733
587,2	43,653
587,6	45,613
588,1	41,053
588,5	36,933
589	37,173
589,4	41,933
589,9	39,093
590,3	42,933
590,8	40,573
591,2	38,053
591,7	38,613
592,1	43,693
592,5	44,813
593	37,973
593,4	33,933
593,9	34,133
594,3	30,373
594,8	21,773
595,2	33,933
595,7	39,173
596,1	38,093
596,6	37,493
597	43,373
597,4	41,773
597,9	42,253
598,3	42,213
598,8	43,893
599,2	40,973
599,7	35,613
600,1	32,013
600,6	33,413
601	25,253
601,4	24,213
601,9	27,693
602,3	29,693
602,8	29,573
603,2	29,493
603,7	36,333
604,1	33,573
604,6	28,733
605	29,933
605,4	33,413
605,9	31,613
606,3	31,453
606,8	37,813
607,2	39,813
607,7	41,053
608,1	38,533
608,6	47,373
609	44,293
609,4	36,933
609,9	37,173
610,3	37,773
610,8	29,693
611,2	31,053
611,7	32,613
612,1	28,493
612,6	29,133
613	25,253
613,4	24,373
613,9	26,013
614,3	33,413
614,8	29,053
615,2	29,533
615,7	30,453
616,1	28,933
616,6	21,453
617	22,533
617,4	19,773
617,9	18,613
618,3	10,693
618,8	10,173
619,2	11,853
619,7	16,973
620,1	12,693
620,5	21,533
621	23,173
621,4	28,013
621,9	25,693
622,3	33,933
622,8	32,853
623,2	31,493
623,6	25,733
624,1	30,973
624,5	23,813
625	27,453
625,4	29,413
625,9	26,773
626,3	28,373
626,8	31,813
627,2	27,293
627,6	27,773
628,1	30,733
628,5	27,413
629	28,253
629,4	27,253
629,9	26,053
630,3	22,573
630,7	23,333
631,2	14,413
631,6	15,813
632,1	17,973
632,5	19,613
633	13,693
633,4	17,693
633,8	15,333
634,3	14,973
634,7	15,013
635,2	17,773
635,6	18,653
636,1	19,413
636,5	17,173
636,9	13,093
637,4	12,333
637,8	12,213
638,3	9,933
638,7	14,213
639,2	24,413
639,6	27,333
640	31,293
640,5	37,533
640,9	32,413
641,4	23,813
641,8	20,933
642,2	13,013
642,7	5,653
643,1	1,253
643,6	4,693
644	5,533
644,5	11,053
644,9	16,373
645,3	21,213
645,8	24,173
646,2	21,973
646,7	19,333
647,1	12,653
647,6	12,493
648	6,853
648,4	12,253
648,9	15,093
649,3	15,933
649,8	22,493
650,2	32,013
650,6	29,053
651,1	30,133
651,5	32,893
652	28,973
652,4	21,813
652,9	13,733
653,3	11,813
653,7	14,213
654,2	12,333
654,6	16,213
655,1	19,373
655,5	14,813
655,9	15,093
656,4	14,933
656,8	8,653
657,3	10,373
657,7	14,733
658,2	13,053
658,6	15,413
659	10,413
659,5	13,653
659,9	14,013
660,4	11,253
660,8	7,013
661,2	13,373
661,7	11,853
662,1	13,973
662,6	8,893
663	11,413
663,4	11,213
663,9	11,013
664,3	7,173
664,8	19,413
665,2	21,253
665,6	20,533
666,1	24,533
666,5	19,373
667	12,933
667,4	9,453
667,9	9,653
668,3	6,133
668,7	7,933
669,2	13,373
669,6	13,333
670,1	12,973
670,5	10,293
670,9	10,693
671,4	2,093
671,8	1,293
672,3	-2,027
672,7	-3,707
673,1	1,133
673,6	5,453
674	9,133
674,5	13,893
674,9	20,253
675,3	14,893
675,8	12,613
676,2	7,773
676,7	4,973
677,1	2,413
677,5	2,573
678	5,373
678,4	14,453
678,9	12,373
679,3	11,373
679,7	16,573
680,2	16,493
680,6	8,773
681,1	8,533
681,5	9,173
681,9	6,773
682,4	9,893
682,8	3,973
683,3	2,693
683,7	2,013
684,1	4,613
684,6	-3,187
685	1,813
685,5	5,733
685,9	4,013
686,3	5,653
686,8	3,613
687,2	-0,387
687,7	-2,747
688,1	1,213
688,5	3,933
689	8,413
689,4	16,093
689,9	17,413
690,3	18,693
690,7	6,333
691,2	9,493
691,6	3,253
692	1,293
692,5	2,453
692,9	10,453
693,4	8,533
693,8	15,213
694,2	19,293
694,7	19,293
695,1	15,933
695,6	20,093
696	16,813
696,4	12,013
696,9	8,333
697,3	11,773
697,8	3,373
698,2	4,253
698,6	8,213
699,1	3,453
699,5	-1,907
699,9	3,773
700,4	6,013
700,8	3,293
701,3	4,333
701,7	16,133
702,1	15,093
702,6	15,093
703	17,893
703,5	20,413
703,9	9,373
704,3	5,933
704,8	2,893
705,2	6,293
705,6	-0,827
706,1	0,813
706,5	0,413
707	0,973
707,4	-3,987
707,8	5,213
708,3	3,933
708,7	5,333
709,2	3,293
709,6	1,813
710	0,893
710,5	-1,787
710,9	-6,587
711,3	-7,307
711,8	-4,827
712,2	-5,147
712,7	-1,827
713,1	2,013
713,5	3,613
714	0,973
714,4	-3,107
714,8	-2,187
715,3	-0,947
715,7	-3,347
716,2	-4,147
716,6	-3,707
717	-6,667
717,5	-7,827
717,9	-1,107
718,3	-1,987
718,8	4,573
719,2	5,573
719,7	3,813
720,1	-5,547
720,5	0,813
721	-0,867
721,4	1,493
721,8	3,933
722,3	7,893
722,7	3,813
723,2	5,653
723,6	-1,067
724	-2,867
724,5	1,893
724,9	6,293
725,3	4,173
725,8	8,773
726,2	12,053
726,7	6,893
727,1	-0,667
727,5	-5,067
728	-10,267
728,4	-13,907
728,8	-12,987
729,3	-5,467
729,7	-1,267
730,1	7,573
730,6	11,933
731	10,293
731,5	4,693
731,9	-0,547
732,3	-4,307
732,8	-10,227
733,2	-6,067
733,6	-6,347
734,1	-4,347
734,5	-2,907
734,9	5,613
735,4	6,453
735,8	9,453
736,3	10,173
736,7	8,533
737,1	5,773
737,6	2,453
738	2,493
738,4	1,253
738,9	3,413
739,3	-0,147
739,7	1,093
740,2	-2,547
740,6	2,133
741,1	2,053
741,5	5,693
741,9	5,013
742,4	7,133
742,8	3,733
743,2	-5,267
743,7	-5,947
744,1	-6,307
744,5	-9,267
745	-8,507
745,4	1,853
745,8	-0,107
746,3	1,933
746,7	0,293
747,2	-2,507
747,6	-7,787
748	-10,147
748,5	-14,627
748,9	-9,107
749,3	-4,707
749,8	0,093
750,2	3,293
750,6	4,773
751,1	6,493
751,5	4,693
751,9	1,493
752,4	1,853
752,8	2,093
753,3	-0,347
753,7	4,533
754,1	5,653
754,6	6,813
755	14,773
755,4	17,173
755,9	15,973
756,3	18,533
756,7	25,173
757,2	13,933
757,6	7,333
758	3,013
758,5	5,173
758,9	-1,627
759,3	4,133
759,8	4,933
760,2	3,773
760,6	-3,027
761,1	-6,307
761,5	-11,187
761,9	-7,387
762,4	-1,147
762,8	-2,427
763,3	-1,867
763,7	-1,147
764,1	-5,707
764,6	-7,907
765	-3,147
765,4	0,053
765,9	3,413
766,3	7,213
766,7	7,373
767,2	2,653
767,6	0,813
768	-2,187
768,5	0,413
768,9	-1,387
769,3	0,653
769,8	4,213
770,2	8,493
770,6	4,653
771,1	-0,387
771,5	-5,467
771,9	-7,507
772,4	-12,547
772,8	-10,907
773,2	-3,467
773,7	4,053
774,1	2,333
774,5	5,493
775	3,613
775,4	0,253
775,8	0,773
776,3	2,333
776,7	5,773
777,1	11,573
777,6	12,133
778	7,733
778,4	7,253
778,9	6,933
779,3	-1,107
779,7	-1,587
780,2	0,053
780,6	0,453
781	-6,147
781,5	-0,227
781,9	2,413
782,3	3,173
782,8	0,933
783,2	8,933
783,6	6,813
784,1	-0,187
784,5	-3,027
784,9	-5,347
785,4	-11,507
785,8	-12,747
786,2	-12,907
786,7	-11,067
787,1	-3,067
787,5	-4,787
788	-4,627
788,4	-1,547
788,8	-0,867
789,3	-2,907
789,7	-0,947
790,1	3,173
790,6	9,293
791	8,733
791,4	7,973
791,9	14,093
792,3	4,053
792,7	2,773
793,2	2,293
793,6	-0,827
794	-0,907
794,5	7,453
794,9	-2,227
795,3	-5,187
795,8	-5,667
796,2	-11,507
796,6	-9,747
797,1	-0,667
797,5	0,693
797,9	3,373
798,4	1,773
798,8	3,253
799,2	-3,227
799,7	-2,547
800,1	-8,027
800,5	-7,827
801	-15,747
801,4	-10,307
801,8	-1,627
802,2	2,373
802,7	3,533
803,1	8,093
803,5	5,133
804	-4,227
804,4	-4,387
804,8	-5,267
805,3	-2,347
805,7	-9,627
806,1	-4,747
806,6	-1,467
807	-2,947
807,4	-8,827
807,9	1,493
808,3	-0,227
808,7	-2,907
809,2	6,453
809,6	4,893
810	1,173
810,4	1,533
810,9	-0,467
811,3	-5,667
811,7	-1,107
812,2	-1,467
812,6	-3,267
813	-4,667
813,5	-0,347
813,9	2,653
814,3	2,493
814,8	4,933
815,2	3,533
815,6	-0,307
816,1	-4,227
816,5	1,733
816,9	5,693
817,3	5,333
817,8	5,133
818,2	5,293
818,6	1,973
819,1	-6,107
819,5	-0,067
819,9	-4,387
820,4	-7,227
820,8	-9,987
821,2	-11,227
821,7	-10,747
822,1	-7,147
822,5	-6,667
822,9	-0,467
823,4	2,613
823,8	-0,587
824,2	-3,187
824,7	3,453
825,1	-0,827
825,5	-2,267
826	1,213
826,4	1,613
826,8	-9,067
827,3	-10,067
827,7	-6,387
828,1	-8,867
828,5	-8,987
829	-7,787
829,4	-9,467
829,8	-16,627
830,3	-11,467
830,7	-11,227
831,1	-7,547
831,6	-5,867
832	-4,147
832,4	-7,227
832,8	-7,827
833,3	-5,267
833,7	-2,267
834,1	-4,187
834,6	-6,747
835	-7,947
835,4	-6,587
835,8	-4,107
836,3	-0,147
836,7	0,973
837,1	3,293
837,6	-2,747
838	-7,667
838,4	-10,987
838,9	-13,267
839,3	-13,387
839,7	-7,307
840,1	-10,147
840,6	-3,747
841	0,293
841,4	-1,907
841,9	-0,707
842,3	1,173
842,7	1,293
843,1	-1,627
843,6	2,333
844	-3,947
844,4	-3,067
844,9	-13,187
845,3	-10,107
845,7	-12,467
846,2	-13,987
846,6	-9,827
847	-1,987
847,4	-6,107
847,9	-4,467
848,3	-1,187
848,7	-2,907
849,2	-5,747
849,6	-3,707
850	-1,107
850,4	2,173
850,9	3,173
851,3	11,653
851,7	9,333
852,2	4,533
852,6	-1,667
853	0,333
853,4	-7,347
853,9	-2,747
854,3	-0,307
854,7	0,893
855,2	-7,307
855,6	-6,947
856	-12,707
856,4	-11,587
856,9	-6,867
857,3	0,973
857,7	4,453
858,2	9,373
858,6	1,893
859	1,533
859,4	-9,187
859,9	-11,547
860,3	-10,707
860,7	-2,627
861,1	-7,267
861,6	-1,627
862	-2,187
862,4	-8,267
862,9	-8,867
863,3	-5,667
863,7	-6,507
864,1	-5,547
864,6	2,333
865	-1,907
865,4	1,973
865,9	2,493
866,3	-0,787
866,7	-5,347
867,1	-5,627
867,6	-6,987
868	-8,427
868,4	-2,667
868,8	-5,267
869,3	-9,987
869,7	-12,307
870,1	-10,827
870,6	-11,507
871	-6,107
871,4	-24,147
871,8	-27,067
872,3	-28,667
872,7	-30,147
873,1	-32,867
873,5	-4,867
874	-5,147
874,4	-4,427
874,8	-4,187
875,3	-5,907
875,7	-6,587
876,1	-5,547
876,5	-1,627
877	-5,027
877,4	-3,747
877,8	-4,747
878,2	-3,147
878,7	-1,987
879,1	-1,307
879,5	-0,867
879,9	0,613
880,4	-0,707
880,8	-7,347
881,2	-6,267
881,7	-5,507
882,1	-3,467
882,5	-6,027
882,9	2,053
883,4	6,893
883,8	7,493
884,2	1,933
884,6	1,933
885,1	-4,667
885,5	-10,627
885,9	-7,667
886,3	-6,387
886,8	-10,027
887,2	-8,587
887,6	-6,707
888	-9,347
888,5	-5,187
888,9	2,013
889,3	-2,227
889,8	-1,027
890,2	-1,267
890,6	-7,747
891	-4,547
891,5	3,373
891,9	3,373
892,3	2,653
892,7	9,053
893,2	4,733
893,6	3,533
894	2,773
894,4	1,453
894,9	0,573
895,3	-1,307
895,7	-8,907
896,1	-6,627
896,6	-6,987
897	-6,267
897,4	-4,067
897,8	1,653
898,3	-4,467
898,7	-5,027
899,1	-7,027
899,5	-6,267
900	-10,427
900,4	-7,547
900,8	-7,627
901,2	-9,747
901,7	-11,067
902,1	-8,947
902,5	-5,387
902,9	-1,307
903,4	-0,067
903,8	-1,267
904,2	-1,787
904,6	-0,867
905,1	1,653
905,5	1,973
905,9	1,693
906,3	5,413
906,8	5,093
907,2	1,573
907,6	1,453
908	2,973
908,5	3,253
908,9	1,773
909,3	0,573
909,7	-3,067
910,2	-4,147
910,6	0,293
911	3,613
911,4	7,573
911,9	8,213
912,3	15,453
912,7	10,813
913,1	6,093
913,6	0,013
914	1,613
914,4	-3,227
914,8	-3,347
915,3	-2,427
915,7	-1,507
916,1	0,973
916,5	5,013
916,9	5,093
917,4	6,213
917,8	12,173
918,2	12,013
918,6	8,093
919,1	8,213
919,5	6,773
919,9	1,213
920,3	-2,227
920,8	-4,067
921,2	-4,187
921,6	-8,107
922	-12,307
922,5	-14,907
922,9	-18,547
923,3	-15,987
923,7	-13,347
924,2	-5,467
924,6	-1,147
925	12,133
925,4	1,253
925,8	-1,707
926,3	-3,347
926,7	1,453
927,1	-9,467
927,5	0,853
928	4,053
928,4	4,093
928,8	-2,907
929,2	2,693
929,7	2,013
930,1	4,013
930,5	-1,587
930,9	-1,507
931,3	-4,307
931,8	-10,427
932,2	-8,507
932,6	-7,067
933	-8,427
933,5	-7,547
933,9	-8,427
934,3	-14,467
934,7	-6,827
935,2	-2,867
935,6	-1,067
936	0,253
936,4	6,533
936,8	4,293
937,3	3,413
937,7	0,093
938,1	5,053
938,5	0,693
939	-1,547
939,4	-1,947
939,8	-4,107
940,2	-6,787
940,6	-11,427
941,1	-10,907
941,5	-8,507
941,9	-4,187
942,3	-0,947
942,8	-2,627
943,2	-4,347
943,6	-7,587
944	-12,307
944,4	-16,947
944,9	-7,747
945,3	-7,187
945,7	-10,027
946,1	-5,187
946,6	-5,227
947	-6,787
947,4	-7,867
947,8	-3,547
948,2	-3,267
948,7	-1,147
949,1	-2,347
949,5	-1,507
949,9	6,293
950,3	-0,947
950,8	1,293
951,2	-0,067
951,6	-1,107
952	-9,027
952,5	-4,947
952,9	-5,067
953,3	-4,307
953,7	-6,507
954,1	-3,827
954,6	-3,987
955	-8,187
955,4	-7,947
955,8	1,053
956,2	-6,627
956,7	-4,027
957,1	3,853
957,5	8,573
957,9	-1,307
958,3	3,293
958,8	0,973
959,2	-3,147
959,6	-6,307
960	-3,747
960,5	-7,467
960,9	-0,587
961,3	-1,107
961,7	-6,867
962,1	-3,067
962,6	-0,147
963	-11,427
963,4	-12,307
963,8	-8,827
964,2	-15,067
964,7	-13,907
965,1	-10,627
965,5	-13,547
965,9	-13,547
966,3	-5,267
966,8	-5,707
967,2	-5,747
967,6	-7,667
968	-4,827
968,4	-5,267
968,9	-5,187
969,3	-6,507
969,7	-3,587
970,1	-3,707
970,5	-5,587
971	-3,827
971,4	-2,067
971,8	4,973
972,2	5,813
972,6	5,613
973,1	9,493
973,5	14,093
973,9	7,373
974,3	6,053
974,7	6,533
975,2	-0,147
975,6	-1,587
976	0,973
976,4	-0,627
976,8	-5,427
977,3	-8,707
977,7	-8,267
978,1	-7,507
978,5	-7,027
978,9	-5,827
979,4	-6,827
979,8	-9,747
980,2	-10,987
980,6	-4,987
981	0,133
981,5	4,893
981,9	3,293
982,3	-0,307
982,7	-1,147
983,1	-5,147
983,6	-0,827
984	0,453
984,4	2,213
984,8	2,453
985,2	0,933
985,6	-3,987
986,1	1,213
986,5	2,533
986,9	-2,387
987,3	-3,427
987,7	-0,827
988,2	-0,387
988,6	3,493
989	2,373
989,4	6,973
989,8	2,973
990,3	-5,147
990,7	-13,427
991,1	-15,027
991,5	-15,107
991,9	-11,187
992,3	-3,147
992,8	2,653
993,2	6,653
993,6	6,093
994	8,173
994,4	9,533
994,9	6,213
995,3	6,893
995,7	1,253
996,1	4,413
996,5	-1,667
996,9	0,813
997,4	-1,267
997,8	0,893
998,2	-0,867
998,6	-0,147
999	-3,187
999,5	-6,427
999,9	-3,747
1000,3	-7,467
1000,7	-9,427
1001,1	-11,027
1001,5	-8,427
1002	-4,387
1002,4	-6,987
1002,8	-6,107
1003,2	-3,067
1003,6	-1,027
1004	-8,107
1004,5	-6,667
1004,9	-4,987
1005,3	-5,907
1005,7	-7,147
1006,1	0,613
1006,6	0,373
1007	1,533
1007,4	-0,787
1007,8	-2,227
1008,2	-10,107
1008,6	-12,027
1009,1	-13,107
1009,5	-3,467
1009,9	-6,587
1010,3	-5,547
1010,7	-1,347
1011,1	0,933
1011,6	-4,667
1012	0,813
1012,4	2,453
1012,8	-1,667
1013,2	-5,467
1013,6	-7,667
1014,1	-7,667
1014,5	-5,107
1014,9	-4,227
1015,3	-3,427
1015,7	0,933
1016,1	2,853
1016,6	1,453
1017	3,413
1017,4	2,773
1017,8	-2,227
1018,2	-4,187
1018,6	-0,827
1019,1	2,373
1019,5	3,093
1019,9	4,013
1020,3	8,013
1020,7	2,613
1021,1	-8,027
1021,6	-6,707
1022	-9,707
1022,4	-16,387
1022,8	-13,907
1023,2	-8,067
1023,6	-9,867
1024,1	-10,267
1024,5	-14,627
1024,9	-18,787
1025,3	-16,907
1025,7	-19,027
1026,1	-16,307
1026,6	-12,587
1027	-9,507
1027,4	-15,827
1027,8	-9,107
1028,2	-3,707
1028,6	1,653
1029	0,653
1029,5	-0,107
1029,9	-3,827
1030,3	-5,307
1030,7	-8,667
1031,1	-9,507
1031,5	-2,187
1032	-5,427
1032,4	-9,787
1032,8	-11,867
1033,2	-12,427
1033,6	-9,707
1034	-10,027
1034,4	-3,467
1034,9	-2,427
1035,3	3,613
1035,7	-5,107
1036,1	-2,227
1036,5	-2,467
1036,9	1,853
1037,4	-3,827
1037,8	1,893
1038,2	-1,307
1038,6	-7,547
1039	-11,627
1039,4	-8,507
1039,8	-6,987
1040,3	-1,827
1040,7	0,173
1041,1	1,133
1041,5	-0,867
1041,9	-6,107
1042,3	-8,027
1042,7	-1,987
1043,2	-2,387
1043,6	-5,307
1044	-1,267
1044,4	-3,707
1044,8	-10,307
1045,2	-11,307
1045,6	-12,187
1046,1	-15,587
1046,5	-18,027
1046,9	-16,587
1047,3	-11,547
1047,7	-5,107
1048,1	1,733
1048,5	3,093
1049	4,973
1049,4	3,133
1049,8	-4,227
1050,2	-11,347
1050,6	-5,107
1051	-10,947
1051,4	-14,947
1051,9	-11,147
1052,3	-10,147
1052,7	-18,547
1053,1	-13,507
1053,5	-9,627
1053,9	-6,267
1054,3	-4,987
1054,8	7,653
1055,2	11,133
1055,6	6,853
1056	8,813
1056,4	9,173
1056,8	9,133
1057,2	3,493
1057,6	2,893
1058,1	-1,987
1058,5	1,133
1058,9	-7,387
1059,3	-10,027
1059,7	-5,907
1060,1	-7,187
1060,5	-4,667
1061	3,533
1061,4	9,133
1061,8	9,373
1062,2	13,053
1062,6	9,693
1063	0,533
1063,4	-0,627
1063,8	-4,267
1064,3	0,813
1064,7	0,053
1065,1	3,093
1065,5	-0,107
1065,9	6,213
1066,3	0,293
1066,7	-3,747
1067,1	-4,747
1067,6	-1,627
1068	-2,947
1068,4	-3,147
1068,8	-2,227
1069,2	-3,667
1069,6	-5,867
1070	-9,387
1070,4	-11,187
1070,9	-5,307
1071,3	-0,787
1071,7	2,573
1072,1	7,093
1072,5	5,693
1072,9	2,893
1073,3	4,213
1073,7	-3,027
1074,2	-8,307
1074,6	-0,827
1075	-1,987
1075,4	-3,427
1075,8	4,053
1076,2	7,013
1076,6	6,533
1077	5,733
1077,5	0,253
1077,9	-3,347
1078,3	1,253
1078,7	-0,507
1079,1	6,253
1079,5	9,373
1079,9	8,653
1080,3	4,973
1080,7	2,533
1081,2	-1,907
1081,6	-7,907
1082	-5,267
1082,4	-6,467
1082,8	-5,667
1083,2	-4,627
1083,6	0,733
1084	-8,427
1084,5	-11,627
1084,9	-10,907
1085,3	-9,067
1085,7	-7,827
1086,1	5,133
1086,5	6,413
1086,9	11,853
1087,3	3,693
1087,7	3,133
1088,2	-0,387
1088,6	2,613
1089	-4,347
1089,4	2,973
1089,8	3,693
1090,2	2,213
1090,6	-1,507
1091	-2,867
1091,4	-7,467
1091,9	-14,707
1092,3	-13,867
1092,7	-12,347
1093,1	-14,787
1093,5	-15,907
1093,9	-11,627
1094,3	-9,547
1094,7	-9,347
1095,1	-6,707
1095,5	-7,267
1096	-3,427
1096,4	-4,387
1096,8	-2,827
1097,2	-1,307
1097,6	4,613
1098	0,213
1098,4	1,973
1098,8	-2,267
1099,2	-1,147
1099,6	-2,507
1100,1	1,533
1100,5	-3,707
1100,9	0,973
1101,3	2,493
1101,7	0,133
1102,1	-5,667
1102,5	-3,507
1102,9	0,893
1103,3	-6,827
1103,7	-3,347
1104,2	1,373
1104,6	3,173
1105	-2,907
1105,4	6,933
1105,8	6,573
1106,2	5,653
1106,6	5,053
1107	5,493
1107,4	1,693
1107,8	-0,667
1108,3	0,733
