Data from Subt2_00024.txt Node
Date: Fri Aug 11 15:38:40 MSK 2023
User: vat
Spectrometer: MAYP114033
Trigger mode: 0
Integration Time (sec): 5,000000E-1
Scans to average: 5
Electric dark correction enabled: true
Nonlinearity correction enabled: false
Boxcar width: 2
XAxis mode: Wavelengths
Number of Pixels in Spectrum: 2068
>>>>>Begin Spectral Data<<<<<
199,4	-1,567
199,9	-0,383
200,4	-7,473
200,8	-11,793
201,3	-20,993
201,8	-27,953
202,2	-34,793
202,7	-36,153
203,2	-38,753
203,6	-36,353
204,1	-35,113
204,6	-36,633
205	-37,753
205,5	-39,873
206	-38,433
206,4	-42,153
206,9	-50,393
207,4	-55,353
207,8	-57,273
208,3	-62,393
208,8	-65,193
209,2	-56,833
209,7	-56,873
210,2	-62,313
210,6	-61,633
211,1	-61,233
211,5	-62,633
212	-60,033
212,5	-54,433
212,9	-59,873
213,4	-58,833
213,9	-61,033
214,3	-54,593
214,8	-60,913
215,3	-55,153
215,7	-58,313
216,2	-62,793
216,7	-72,153
217,1	-66,473
217,6	-67,473
218,1	-64,433
218,5	-62,433
219	-60,673
219,5	-64,873
219,9	-67,553
220,4	-61,153
220,9	-59,953
221,3	-52,913
221,8	-52,593
222,3	-53,073
222,7	-61,073
223,2	-56,953
223,6	-67,273
224,1	-63,633
224,6	-64,633
225	-68,593
225,5	-70,193
226	-67,513
226,4	-66,193
226,9	-61,353
227,4	-54,753
227,8	-54,713
228,3	-54,113
228,8	-54,713
229,2	-60,273
229,7	-68,433
230,2	-71,873
230,6	-72,873
231,1	-78,513
231,5	-75,473
232	-71,993
232,5	-71,753
232,9	-71,153
233,4	-70,873
233,9	-72,393
234,3	-70,553
234,8	-66,033
235,3	-62,313
235,7	-60,313
236,2	-57,953
236,7	-63,153
237,1	-64,433
237,6	-70,393
238,1	-69,433
238,5	-68,553
239	-63,273
239,4	-65,233
239,9	-61,153
240,4	-60,833
240,8	-60,553
241,3	-63,473
241,8	-67,073
242,2	-68,633
242,7	-69,353
243,2	-74,793
243,6	-74,473
244,1	-73,793
244,6	-71,753
245	-66,153
245,5	-67,113
245,9	-62,513
246,4	-61,393
246,9	-64,033
247,3	-73,273
247,8	-65,313
248,3	-66,673
248,7	-59,713
249,2	-53,513
249,7	-43,953
250,1	-52,513
250,6	-53,593
251	-54,273
251,5	-57,193
252	-65,673
252,4	-59,553
252,9	-59,153
253,4	-66,873
253,8	-71,233
254,3	-70,393
254,8	-75,833
255,2	-76,033
255,7	-72,313
256,1	-63,593
256,6	-58,553
257,1	-57,633
257,5	-54,793
258	-54,113
258,5	-56,553
258,9	-59,233
259,4	-56,593
259,9	-60,353
260,3	-64,593
260,8	-68,033
261,2	-72,073
261,7	-73,393
262,2	-77,273
262,6	-78,233
263,1	-77,993
263,6	-74,433
264	-71,153
264,5	-63,593
264,9	-63,433
265,4	-66,993
265,9	-65,473
266,3	-62,593
266,8	-58,913
267,3	-58,953
267,7	-54,073
268,2	-52,113
268,7	-52,833
269,1	-61,193
269,6	-63,673
270	-57,713
270,5	-65,073
271	-72,673
271,4	-70,273
271,9	-63,353
272,4	-72,433
272,8	-70,273
273,3	-68,513
273,7	-66,913
274,2	-73,233
274,7	-69,953
275,1	-65,993
275,6	-60,593
276,1	-66,273
276,5	-66,233
277	-68,673
277,4	-75,433
277,9	-76,993
278,4	-74,113
278,8	-66,953
279,3	-72,153
279,8	-67,833
280,2	-63,513
280,7	-59,913
281,1	-58,273
281,6	-51,193
282,1	-53,233
282,5	-66,913
283	-69,353
283,4	-72,473
283,9	-73,313
284,4	-68,473
284,8	-58,513
285,3	-58,153
285,8	-58,073
286,2	-59,873
286,7	-59,913
287,1	-63,433
287,6	-65,073
288,1	-65,593
288,5	-64,633
289	-67,513
289,5	-74,553
289,9	-72,993
290,4	-74,633
290,8	-70,753
291,3	-68,393
291,8	-58,633
292,2	-58,953
292,7	-59,513
293,1	-61,793
293,6	-63,433
294,1	-60,753
294,5	-63,353
295	-60,593
295,5	-56,793
295,9	-52,353
296,4	-57,753
296,8	-58,153
297,3	-58,513
297,8	-66,753
298,2	-69,633
298,7	-73,193
299,1	-68,833
299,6	-67,233
300,1	-64,353
300,5	-60,713
301	-52,633
301,5	-53,593
301,9	-54,553
302,4	-54,513
302,8	-60,433
303,3	-63,513
303,8	-69,793
304,2	-71,233
304,7	-79,153
305,1	-75,953
305,6	-75,793
306,1	-70,553
306,5	-70,073
307	-57,153
307,4	-56,753
307,9	-55,113
308,4	-53,833
308,8	-52,993
309,3	-58,113
309,8	-59,793
310,2	-61,353
310,7	-64,713
311,1	-68,513
311,6	-63,433
312,1	-65,833
312,5	-65,793
313	-59,073
313,4	-55,993
313,9	-57,593
314,4	-54,513
314,8	-56,913
315,3	-60,233
315,7	-61,713
316,2	-63,393
316,7	-66,233
317,1	-63,513
317,6	-65,033
318	-60,713
318,5	-64,753
319	-58,273
319,4	-64,473
319,9	-63,353
320,3	-67,633
320,8	-70,233
321,3	-74,913
321,7	-65,473
322,2	-61,713
322,6	-54,473
323,1	-50,273
323,6	-48,673
324	-49,673
324,5	-52,913
324,9	-58,033
325,4	-54,313
325,9	-56,273
326,3	-61,153
326,8	-59,673
327,2	-61,753
327,7	-63,593
328,2	-59,993
328,6	-59,193
329,1	-61,113
329,5	-55,593
330	-51,713
330,5	-53,953
330,9	-55,713
331,4	-59,393
331,8	-62,953
332,3	-70,153
332,8	-71,113
333,2	-71,553
333,7	-70,793
334,1	-71,233
334,6	-63,593
335,1	-60,313
335,5	-55,953
336	-62,873
336,4	-58,233
336,9	-64,993
337,4	-64,793
337,8	-64,593
338,3	-52,393
338,7	-60,913
339,2	-56,753
339,7	-61,993
340,1	-65,593
340,6	-62,793
341	-57,513
341,5	-64,513
342	-64,473
342,4	-57,633
342,9	-65,153
343,3	-67,233
343,8	-64,753
344,2	-62,513
344,7	-65,833
345,2	-58,593
345,6	-57,433
346,1	-53,673
346,5	-55,553
347	-55,273
347,5	-62,833
347,9	-61,113
348,4	-62,873
348,8	-58,153
349,3	-53,713
349,8	-44,913
350,2	-45,593
350,7	-45,513
351,1	-44,393
351,6	-48,273
352	-46,153
352,5	-36,673
353	-19,913
353,4	-11,233
353,9	3,647
354,3	12,847
354,8	23,607
355,3	37,567
355,7	56,647
356,2	72,327
356,6	87,687
357,1	115,247
357,5	146,887
358	175,887
358,5	221,007
358,9	278,447
359,4	336,367
359,8	386,687
360,3	461,207
360,8	535,167
361,2	615,647
361,7	698,047
362,1	799,647
362,6	906,207
363	1024,047
363,5	1153,407
364	1289,727
364,4	1425,567
364,9	1564,247
365,3	1695,287
365,8	1821,927
366,3	1939,927
366,7	2044,847
367,2	2121,007
367,6	2190,407
368,1	2238,567
368,5	2267,167
369	2276,367
369,5	2279,127
369,9	2262,727
370,4	2216,767
370,8	2158,447
371,3	2088,367
371,7	2008,727
372,2	1912,887
372,7	1810,287
373,1	1706,327
373,6	1601,847
374	1487,487
374,5	1386,167
374,9	1288,607
375,4	1191,047
375,9	1100,767
376,3	1009,047
376,8	910,047
377,2	827,807
377,7	753,407
378,2	679,647
378,6	619,327
379,1	566,607
379,5	506,167
380	454,007
380,4	411,207
380,9	373,207
381,4	335,967
381,8	311,367
382,3	280,767
382,7	251,967
383,2	227,007
383,6	206,567
384,1	190,327
384,6	172,207
385	153,127
385,5	138,087
385,9	125,007
386,4	108,087
386,8	102,247
387,3	87,887
387,7	73,087
388,2	64,967
388,7	58,327
389,1	41,367
389,6	33,647
390	27,607
390,5	19,167
390,9	12,567
391,4	13,207
391,9	5,247
392,3	3,487
392,8	-1,033
393,2	-6,073
393,7	-14,553
394,1	-11,033
394,6	-21,833
395,1	-27,473
395,5	-33,833
396	-37,593
396,4	-42,113
396,9	-39,953
397,3	-41,513
397,8	-41,353
398,2	-42,833
398,7	-40,513
399,2	-44,833
399,6	-44,473
400,1	-42,433
400,5	-37,753
401	-37,633
401,4	-35,593
401,9	-33,633
402,4	-40,233
402,8	-44,793
403,3	-48,513
403,7	-45,473
404,2	-51,993
404,6	-52,673
405,1	-51,033
405,5	-49,753
406	-47,713
406,5	-42,953
406,9	-39,513
407,4	-38,193
407,8	-41,233
408,3	-39,673
408,7	-41,713
409,2	-35,233
409,6	-37,793
410,1	-38,833
410,6	-46,833
411	-46,393
411,5	-51,473
411,9	-45,353
412,4	-37,233
412,8	-36,513
413,3	-42,033
413,7	-37,033
414,2	-42,273
414,7	-51,473
415,1	-47,553
415,6	-39,153
416	-41,273
416,5	-38,313
416,9	-35,433
417,4	-31,913
417,8	-30,793
418,3	-29,073
418,8	-26,993
419,2	-24,353
419,7	-26,353
420,1	-33,913
420,6	-37,993
421	-41,993
421,5	-40,873
421,9	-43,393
422,4	-34,833
422,8	-30,513
423,3	-26,713
423,8	-24,193
424,2	-23,233
424,7	-20,633
425,1	-21,993
425,6	-27,113
426	-34,313
426,5	-34,873
426,9	-44,193
427,4	-44,433
427,9	-42,713
428,3	-37,193
428,8	-39,433
429,2	-41,313
429,7	-38,353
430,1	-39,953
430,6	-45,673
431	-42,593
431,5	-38,793
431,9	-51,753
432,4	-50,033
432,8	-46,953
433,3	-46,673
433,8	-50,353
434,2	-43,393
434,7	-42,593
435,1	-40,433
435,6	-40,513
436	-41,553
436,5	-37,793
436,9	-36,633
437,4	-36,553
437,8	-36,393
438,3	-33,033
438,8	-38,873
439,2	-46,553
439,7	-48,033
440,1	-50,193
440,6	-51,633
441	-49,993
441,5	-43,953
441,9	-45,953
442,4	-48,153
442,8	-49,833
443,3	-53,273
443,7	-62,153
444,2	-59,673
444,7	-58,393
445,1	-53,633
445,6	-43,273
446	-30,753
446,5	-24,313
446,9	-21,393
447,4	-24,793
447,8	-35,993
448,3	-40,993
448,7	-47,393
449,2	-46,153
449,6	-44,713
450,1	-35,913
450,6	-36,873
451	-37,033
451,5	-45,713
451,9	-46,073
452,4	-49,793
452,8	-44,513
453,3	-46,433
453,7	-40,433
454,2	-39,473
454,6	-43,193
455,1	-50,513
455,5	-41,993
456	-42,753
456,4	-39,113
456,9	-35,313
457,3	-28,913
457,8	-35,073
458,3	-29,193
458,7	-29,033
459,2	-23,953
459,6	-28,353
460,1	-30,393
460,5	-35,913
461	-37,073
461,4	-38,073
461,9	-36,313
462,3	-31,513
462,8	-25,513
463,2	-22,713
463,7	-24,513
464,1	-18,153
464,6	-18,993
465	-19,793
465,5	-20,473
466	-23,273
466,4	-23,673
466,9	-22,153
467,3	-24,833
467,8	-24,313
468,2	-13,193
468,7	-14,513
469,1	-13,673
469,6	-12,273
470	-13,433
470,5	-20,993
470,9	-24,993
471,4	-25,113
471,8	-27,233
472,3	-28,753
472,7	-29,753
473,2	-25,513
473,6	-25,953
474,1	-23,793
474,5	-23,673
475	-19,993
475,4	-18,233
475,9	-13,993
476,4	-11,873
476,8	-10,993
477,3	-10,753
477,7	-12,793
478,2	-21,953
478,6	-18,673
479,1	-13,953
479,5	-17,193
480	-24,353
480,4	-19,313
480,9	-27,633
481,3	-26,353
481,8	-26,793
482,2	-20,953
482,7	-23,993
483,1	-19,593
483,6	-24,753
484	-19,353
484,5	-18,713
484,9	-19,193
485,4	-24,913
485,8	-25,273
486,3	-27,713
486,7	-24,153
487,2	-21,433
487,6	-14,473
488,1	-10,473
488,5	-5,393
489	-7,673
489,4	-10,113
489,9	-18,353
490,4	-23,433
490,8	-22,553
491,3	-20,273
491,7	-14,593
492,2	-11,513
492,6	-7,153
493,1	-9,713
493,5	-14,713
494	-15,433
494,4	-16,713
494,9	-18,753
495,3	-24,313
495,8	-21,753
496,2	-18,913
496,7	-11,193
497,1	-11,873
497,6	-8,113
498	-13,873
498,5	-17,553
498,9	-20,753
499,4	-15,513
499,8	-19,193
500,3	-14,393
500,7	-14,953
501,2	-15,273
501,6	-27,833
502,1	-21,633
502,5	-23,753
503	-22,833
503,4	-27,713
503,9	-15,673
504,3	-23,393
504,8	-22,113
505,2	-23,433
505,7	-15,753
506,1	-20,873
506,6	-20,953
507	-22,273
507,5	-24,953
507,9	-31,953
508,4	-32,753
508,8	-30,073
509,3	-26,633
509,7	-25,433
510,2	-25,633
510,6	-23,913
511,1	-23,313
511,5	-21,353
512	-17,953
512,4	-17,873
512,9	-12,673
513,3	-11,713
513,8	-11,753
514,2	-9,193
514,7	-10,673
515,1	-15,153
515,6	-14,113
516	-16,513
516,5	-26,313
516,9	-22,193
517,4	-27,593
517,8	-32,033
518,3	-30,433
518,7	-20,473
519,2	-16,433
519,6	-11,633
520,1	-9,073
520,5	-11,193
521	-13,953
521,4	-19,033
521,9	-15,593
522,3	-15,233
522,8	-11,073
523,2	-9,313
523,7	-2,233
524,1	-7,873
524,6	-3,833
525	-5,553
525,5	-4,513
525,9	-3,113
526,4	0,447
526,8	-9,353
527,3	-10,713
527,7	-19,433
528,2	-24,513
528,6	-23,473
529,1	-20,993
529,5	-18,913
530	-9,953
530,4	-7,633
530,9	-9,113
531,3	-7,713
531,8	-6,913
532,2	-13,793
532,6	-17,313
533,1	-17,873
533,5	-18,393
534	-23,993
534,4	-20,713
534,9	-19,993
535,3	-10,473
535,8	-14,233
536,2	-13,873
536,7	-16,273
537,1	-21,273
537,6	-28,313
538	-24,593
538,5	-28,313
538,9	-29,873
539,4	-20,673
539,8	-19,953
540,3	-23,993
540,7	-18,033
541,2	-16,673
541,6	-20,193
542,1	-21,233
542,5	-14,673
543	-15,673
543,4	-14,833
543,9	-16,713
544,3	-23,193
544,8	-22,993
545,2	-19,233
545,7	-17,593
546,1	-18,713
546,5	-7,793
547	-10,193
547,4	-10,513
547,9	-13,953
548,3	-13,193
548,8	-17,233
549,2	-15,633
549,7	-18,673
550,1	-17,553
550,6	-15,353
551	-19,553
551,5	-17,673
551,9	-17,673
552,4	-17,673
552,8	-19,633
553,3	-19,193
553,7	-17,393
554,2	-17,233
554,6	-12,713
555,1	-11,193
555,5	-6,993
555,9	-9,953
556,4	-10,033
556,8	-8,593
557,3	-12,073
557,7	-19,393
558,2	-16,353
558,6	-18,633
559,1	-24,393
559,5	-21,713
560	-17,553
560,4	-22,433
560,9	-18,153
561,3	-17,713
561,8	-18,873
562,2	-20,273
562,7	-18,833
563,1	-18,753
563,6	-16,193
564	-5,033
564,4	0,967
564,9	0,087
565,3	-0,193
565,8	-2,713
566,2	-13,713
566,7	-16,993
567,1	-21,833
567,6	-24,433
568	-22,073
568,5	-19,433
568,9	-23,633
569,4	-15,833
569,8	-14,793
570,3	-16,953
570,7	-22,473
571,1	-23,593
571,6	-25,313
572	-19,873
572,5	-21,113
572,9	-17,513
573,4	-8,313
573,8	-10,033
574,3	-20,073
574,7	-15,753
575,2	-19,633
575,6	-23,233
576,1	-20,793
576,5	-20,473
576,9	-22,713
577,4	-21,553
577,8	-26,633
578,3	-29,753
578,7	-25,473
579,2	-18,233
579,6	-11,953
580,1	-11,513
580,5	-9,913
581	-6,913
581,4	-14,673
581,9	-18,313
582,3	-18,033
582,7	-18,593
583,2	-28,273
583,6	-28,473
584,1	-29,753
584,5	-29,513
585	-33,713
585,4	-33,513
585,9	-34,033
586,3	-37,953
586,8	-35,313
587,2	-36,273
587,6	-25,673
588,1	-22,193
588,5	-19,353
589	-21,873
589,4	-16,153
589,9	-17,553
590,3	-25,113
590,8	-21,593
591,2	-26,913
591,7	-26,673
592,1	-27,633
592,5	-23,393
593	-32,593
593,4	-29,033
593,9	-29,913
594,3	-37,033
594,8	-44,873
595,2	-33,873
595,7	-28,393
596,1	-26,953
596,6	-20,633
597	-8,633
597,4	-8,793
597,9	-9,473
598,3	-10,713
598,8	-12,433
599,2	-17,513
599,7	-21,193
600,1	-22,473
600,6	-27,793
601	-31,713
601,4	-28,793
601,9	-28,593
602,3	-33,953
602,8	-29,393
603,2	-33,193
603,7	-34,633
604,1	-38,153
604,6	-36,113
605	-36,553
605,4	-33,833
605,9	-34,233
606,3	-29,633
606,8	-25,273
607,2	-21,593
607,7	-20,033
608,1	-23,873
608,6	-18,633
609	-23,113
609,4	-27,953
609,9	-28,033
610,3	-27,153
610,8	-35,033
611,2	-31,873
611,7	-29,633
612,1	-29,473
612,6	-30,393
613	-33,553
613,4	-29,993
613,9	-31,233
614,3	-28,033
614,8	-24,673
615,2	-19,913
615,7	-21,553
616,1	-23,153
616,6	-25,793
617	-31,753
617,4	-33,833
617,9	-37,793
618,3	-44,193
618,8	-47,353
619,2	-49,273
619,7	-43,153
620,1	-46,153
620,5	-39,593
621	-35,753
621,4	-29,473
621,9	-36,953
622,3	-32,393
622,8	-29,713
623,2	-38,033
623,6	-36,153
624,1	-31,753
624,5	-36,033
625	-34,873
625,4	-26,473
625,9	-29,953
626,3	-27,033
626,8	-24,993
627,2	-29,193
627,6	-27,353
628,1	-25,953
628,5	-30,753
629	-31,673
629,4	-30,673
629,9	-29,713
630,3	-32,513
630,7	-30,713
631,2	-32,953
631,6	-34,433
632,1	-36,473
632,5	-37,193
633	-38,873
633,4	-35,793
633,8	-40,513
634,3	-40,433
634,7	-39,753
635,2	-43,593
635,6	-43,993
636,1	-39,153
636,5	-38,713
636,9	-39,033
637,4	-37,713
637,8	-33,953
638,3	-38,713
638,7	-48,313
639,2	-45,233
639,6	-42,833
640	-42,073
640,5	-35,273
640,9	-33,033
641,4	-41,393
641,8	-42,993
642,2	-47,673
642,7	-50,553
643,1	-55,833
643,6	-49,553
644	-50,993
644,5	-58,193
644,9	-57,553
645,3	-48,513
645,8	-48,273
646,2	-47,193
646,7	-39,513
647,1	-37,673
647,6	-42,953
648	-45,033
648,4	-39,793
648,9	-41,713
649,3	-50,153
649,8	-39,713
650,2	-30,473
650,6	-36,113
651,1	-37,033
651,5	-28,393
652	-31,113
652,4	-40,113
652,9	-48,753
653,3	-48,753
653,7	-47,393
654,2	-56,193
654,6	-54,113
655,1	-48,593
655,5	-46,673
655,9	-48,993
656,4	-44,393
656,8	-47,033
657,3	-45,313
657,7	-46,033
658,2	-49,953
658,6	-46,153
659	-45,313
659,5	-47,073
659,9	-47,393
660,4	-49,073
660,8	-52,313
661,2	-52,913
661,7	-50,073
662,1	-44,473
662,6	-50,993
663	-50,753
663,4	-48,313
663,9	-47,673
664,3	-54,593
664,8	-40,233
665,2	-43,193
665,6	-46,593
666,1	-43,393
666,5	-49,393
667	-50,073
667,4	-50,193
667,9	-45,873
668,3	-51,873
668,7	-45,073
669,2	-46,113
669,6	-40,913
670,1	-43,073
670,5	-40,593
670,9	-41,313
671,4	-49,633
671,8	-53,593
672,3	-54,273
672,7	-55,193
673,1	-56,313
673,6	-52,353
674	-49,233
674,5	-46,553
674,9	-50,953
675,3	-48,953
675,8	-48,673
676,2	-57,273
676,7	-59,033
677,1	-54,433
677,5	-56,193
678	-56,033
678,4	-43,313
678,9	-48,993
679,3	-50,593
679,7	-46,873
680,2	-46,713
680,6	-56,193
681,1	-54,993
681,5	-50,353
681,9	-55,593
682,4	-52,153
682,8	-52,713
683,3	-47,273
683,7	-55,793
684,1	-49,953
684,6	-56,313
685	-54,553
685,5	-56,233
685,9	-53,473
686,3	-56,313
686,8	-57,513
687,2	-55,913
687,7	-54,993
688,1	-52,953
688,5	-48,633
689	-45,073
689,4	-44,873
689,9	-45,193
690,3	-38,553
690,7	-45,433
691,2	-44,233
691,6	-52,473
692	-53,313
692,5	-58,873
692,9	-53,233
693,4	-53,993
693,8	-46,433
694,2	-45,353
694,7	-43,233
695,1	-48,393
695,6	-45,953
696	-45,113
696,4	-45,513
696,9	-46,313
697,3	-44,393
697,8	-47,753
698,2	-48,353
698,6	-51,753
699,1	-56,313
699,5	-58,233
699,9	-56,873
700,4	-57,433
700,8	-54,993
701,3	-54,673
701,7	-46,473
702,1	-42,793
702,6	-42,513
703	-41,873
703,5	-40,233
703,9	-50,713
704,3	-55,313
704,8	-58,153
705,2	-57,433
705,6	-57,113
706,1	-55,033
706,5	-55,433
707	-49,393
707,4	-45,833
707,8	-44,233
708,3	-39,193
708,7	-42,753
709,2	-45,753
709,6	-55,913
710	-58,513
710,5	-60,873
710,9	-61,153
711,3	-63,713
711,8	-58,313
712,2	-57,753
712,7	-61,593
713,1	-60,673
713,5	-56,473
714	-57,273
714,4	-59,953
714,8	-59,273
715,3	-56,833
715,7	-59,793
716,2	-60,513
716,6	-59,753
717	-60,953
717,5	-59,673
717,9	-59,593
718,3	-58,073
718,8	-51,753
719,2	-55,233
719,7	-62,833
720,1	-64,513
720,5	-63,273
721	-66,593
721,4	-61,433
721,8	-51,473
722,3	-50,873
722,7	-58,033
723,2	-58,793
723,6	-55,913
724	-58,953
724,5	-53,193
724,9	-48,313
725,3	-43,593
725,8	-47,393
726,2	-45,673
726,7	-49,873
727,1	-56,793
727,5	-67,433
728	-64,073
728,4	-70,793
728,8	-68,033
729,3	-60,593
729,7	-50,153
730,1	-48,193
730,6	-45,353
731	-49,713
731,5	-45,313
731,9	-56,113
732,3	-60,873
732,8	-59,833
733,2	-54,593
733,6	-59,953
734,1	-56,793
734,5	-55,233
734,9	-49,833
735,4	-51,513
735,8	-46,513
736,3	-48,433
736,7	-49,073
737,1	-53,993
737,6	-54,953
738	-61,673
738,4	-60,833
738,9	-58,193
739,3	-61,033
739,7	-66,273
740,2	-64,553
740,6	-64,033
741,1	-66,873
741,5	-64,073
741,9	-61,313
742,4	-63,873
742,8	-62,593
743,2	-63,753
743,7	-64,953
744,1	-65,873
744,5	-65,473
745	-64,833
745,4	-61,353
745,8	-56,513
746,3	-49,313
746,7	-53,433
747,2	-55,193
747,6	-59,233
748	-62,873
748,5	-69,033
748,9	-61,953
749,3	-60,433
749,8	-55,433
750,2	-56,393
750,6	-59,473
751,1	-58,833
751,5	-53,433
751,9	-56,793
752,4	-58,593
752,8	-56,033
753,3	-59,073
753,7	-63,273
754,1	-63,513
754,6	-57,273
755	-51,073
755,4	-47,953
755,9	-50,233
756,3	-49,353
756,7	-45,673
757,2	-54,073
757,6	-56,513
758	-54,953
758,5	-49,633
758,9	-56,673
759,3	-54,033
759,8	-54,993
760,2	-55,593
760,6	-60,873
761,1	-61,073
761,5	-61,393
761,9	-64,473
762,4	-62,833
762,8	-65,793
763,3	-69,113
763,7	-70,193
764,1	-69,393
764,6	-64,193
765	-60,953
765,4	-57,833
765,9	-52,153
766,3	-49,593
766,7	-55,113
767,2	-56,633
767,6	-60,313
768	-68,593
768,5	-65,433
768,9	-60,153
769,3	-58,153
769,8	-48,673
770,2	-42,273
770,6	-42,193
771,1	-49,673
771,5	-55,433
771,9	-56,553
772,4	-58,193
772,8	-62,033
773,2	-57,153
773,7	-50,473
774,1	-56,353
774,5	-56,873
775	-54,233
775,4	-61,073
775,8	-62,153
776,3	-60,153
776,7	-56,593
777,1	-52,993
777,6	-48,913
778	-49,433
778,4	-46,833
778,9	-47,793
779,3	-57,153
779,7	-59,113
780,2	-62,513
780,6	-63,233
781	-69,113
781,5	-59,993
781,9	-59,433
782,3	-58,793
782,8	-61,033
783,2	-49,713
783,6	-54,793
784,1	-58,553
784,5	-57,713
784,9	-60,793
785,4	-66,713
785,8	-63,153
786,2	-64,113
786,7	-60,473
787,1	-55,113
787,5	-63,913
788	-63,673
788,4	-60,593
788,8	-66,113
789,3	-65,833
789,7	-62,153
790,1	-62,073
790,6	-56,633
791	-52,993
791,4	-56,233
791,9	-48,873
792,3	-57,673
792,7	-58,673
793,2	-55,793
793,6	-60,033
794	-61,473
794,5	-54,553
794,9	-58,513
795,3	-67,353
795,8	-65,313
796,2	-71,233
796,6	-68,833
797,1	-61,313
797,5	-56,393
797,9	-55,313
798,4	-49,313
798,8	-51,753
799,2	-51,833
799,7	-51,833
800,1	-53,033
800,5	-52,113
801	-57,633
801,4	-61,033
801,8	-57,873
802,2	-55,953
802,7	-57,473
803,1	-53,913
803,5	-55,953
804	-57,833
804,4	-60,873
804,8	-63,113
805,3	-61,273
805,7	-68,673
806,1	-65,793
806,6	-64,313
807	-67,073
807,4	-70,193
807,9	-60,393
808,3	-64,393
808,7	-65,553
809,2	-64,513
809,6	-67,433
810	-69,473
810,4	-67,473
810,9	-69,153
811,3	-66,993
811,7	-65,753
812,2	-64,673
812,6	-65,633
813	-63,433
813,5	-56,513
813,9	-48,353
814,3	-48,313
814,8	-45,313
815,2	-45,753
815,6	-49,273
816,1	-52,793
816,5	-55,953
816,9	-57,793
817,3	-58,833
817,8	-67,513
818,2	-65,993
818,6	-64,593
819,1	-64,593
819,5	-61,913
819,9	-53,993
820,4	-58,833
820,8	-56,233
821,2	-59,433
821,7	-56,993
822,1	-55,513
822,5	-52,353
822,9	-54,073
823,4	-53,153
823,8	-56,633
824,2	-60,233
824,7	-60,993
825,1	-60,713
825,5	-60,913
826	-60,353
826,4	-64,873
826,8	-69,113
827,3	-69,833
827,7	-68,753
828,1	-70,313
828,5	-66,673
829	-65,073
829,4	-67,273
829,8	-69,673
830,3	-67,913
830,7	-72,273
831,1	-69,153
831,6	-76,313
832	-75,513
832,4	-70,593
832,8	-67,713
833,3	-69,993
833,7	-58,353
834,1	-62,473
834,6	-70,633
835	-72,953
835,4	-74,913
835,8	-74,673
836,3	-65,153
836,7	-62,433
837,1	-64,633
837,6	-60,633
838	-60,873
838,4	-67,513
838,9	-66,633
839,3	-60,713
839,7	-59,153
840,1	-61,713
840,6	-61,793
841	-61,513
841,4	-64,353
841,9	-69,073
842,3	-73,233
842,7	-74,113
843,1	-75,593
843,6	-69,753
844	-70,353
844,4	-66,393
844,9	-68,113
845,3	-61,873
845,7	-61,473
846,2	-59,553
846,6	-55,793
847	-55,713
847,4	-60,273
847,9	-64,193
848,3	-64,553
848,7	-66,873
849,2	-60,633
849,6	-61,553
850	-56,633
850,4	-54,193
850,9	-55,513
851,3	-53,113
851,7	-55,473
852,2	-59,953
852,6	-63,473
853	-58,393
853,4	-65,873
853,9	-65,033
854,3	-63,113
854,7	-60,353
855,2	-66,393
855,6	-63,433
856	-62,513
856,4	-68,273
856,9	-64,313
857,3	-62,113
857,7	-63,153
858,2	-61,353
858,6	-60,513
859	-64,513
859,4	-69,313
859,9	-67,193
860,3	-67,833
860,7	-58,513
861,1	-61,193
861,6	-56,513
862	-54,713
862,4	-55,233
862,9	-59,473
863,3	-55,713
863,7	-58,393
864,1	-62,833
864,6	-56,153
865	-57,233
865,4	-55,433
865,9	-58,713
866,3	-61,513
866,7	-66,633
867,1	-69,273
867,6	-74,433
868	-73,393
868,4	-65,873
868,8	-67,433
869,3	-74,473
869,7	-70,353
870,1	-70,393
870,6	-71,153
871	-68,433
871,4	-54,873
871,8	-57,913
872,3	-58,073
872,7	-58,393
873,1	-57,113
873,5	-64,513
874	-62,073
874,4	-59,073
874,8	-64,793
875,3	-69,353
875,7	-68,353
876,1	-69,873
876,5	-69,753
877	-69,193
877,4	-66,073
877,8	-62,713
878,2	-59,193
878,7	-59,033
879,1	-54,473
879,5	-54,833
879,9	-55,433
880,4	-59,273
880,8	-58,793
881,2	-62,953
881,7	-65,633
882,1	-64,553
882,5	-64,993
882,9	-60,313
883,4	-54,393
883,8	-53,073
884,2	-56,433
884,6	-57,433
885,1	-63,713
885,5	-68,553
885,9	-64,193
886,3	-69,033
886,8	-71,073
887,2	-70,233
887,6	-70,473
888	-72,553
888,5	-62,233
888,9	-56,313
889,3	-62,193
889,8	-58,953
890,2	-61,433
890,6	-63,593
891	-63,593
891,5	-54,073
891,9	-52,393
892,3	-45,233
892,7	-46,153
893,2	-50,873
893,6	-53,193
894	-57,953
894,4	-67,553
894,9	-72,273
895,3	-72,793
895,7	-78,073
896,1	-75,873
896,6	-71,273
897	-61,433
897,4	-56,913
897,8	-53,673
898,3	-56,353
898,7	-59,873
899,1	-62,033
899,5	-60,993
900	-63,993
900,4	-59,273
900,8	-56,953
901,2	-62,553
901,7	-64,513
902,1	-60,673
902,5	-59,993
902,9	-58,953
903,4	-53,633
903,8	-56,953
904,2	-55,033
904,6	-52,353
905,1	-49,313
905,5	-56,473
905,9	-54,473
906,3	-55,393
906,8	-63,753
907,2	-67,273
907,6	-65,393
908	-62,513
908,5	-59,753
908,9	-56,953
909,3	-58,033
909,7	-57,473
910,2	-56,273
910,6	-57,433
911	-51,833
911,4	-53,393
911,9	-53,713
912,3	-55,633
912,7	-58,073
913,1	-64,433
913,6	-64,913
914	-63,193
914,4	-65,513
914,8	-65,793
915,3	-62,593
915,7	-59,913
916,1	-57,713
916,5	-57,353
916,9	-57,993
917,4	-59,233
917,8	-59,513
918,2	-60,273
918,6	-58,433
919,1	-55,353
919,5	-61,033
919,9	-58,033
920,3	-59,193
920,8	-66,593
921,2	-67,793
921,6	-61,633
922	-69,073
922,5	-69,673
922,9	-73,593
923,3	-72,073
923,7	-74,153
924,2	-72,313
924,6	-70,953
925	-54,233
925,4	-59,673
925,8	-59,713
926,3	-61,913
926,7	-61,633
927,1	-67,793
927,5	-64,353
928	-62,633
928,4	-57,553
928,8	-61,953
929,2	-60,513
929,7	-61,673
930,1	-66,313
930,5	-64,833
930,9	-60,513
931,3	-59,233
931,8	-61,633
932,2	-58,113
932,6	-63,313
933	-65,273
933,5	-69,073
933,9	-69,513
934,3	-68,993
934,7	-62,873
935,2	-63,673
935,6	-62,273
936	-62,873
936,4	-66,393
936,8	-70,273
937,3	-69,473
937,7	-72,233
938,1	-67,313
938,5	-65,073
939	-63,233
939,4	-69,513
939,8	-73,313
940,2	-72,513
940,6	-72,513
941,1	-75,473
941,5	-69,393
941,9	-66,273
942,3	-71,033
942,8	-79,073
943,2	-80,233
943,6	-82,153
944	-77,273
944,4	-74,913
944,9	-66,273
945,3	-65,233
945,7	-66,393
946,1	-64,953
946,6	-65,793
947	-61,793
947,4	-64,713
947,8	-62,273
948,2	-66,953
948,7	-58,353
949,1	-63,673
949,5	-58,513
949,9	-55,713
950,3	-58,033
950,8	-64,313
951,2	-59,753
951,6	-61,873
952	-65,313
952,5	-61,913
952,9	-59,913
953,3	-66,193
953,7	-64,633
954,1	-59,593
954,6	-60,993
955	-64,353
955,4	-64,793
955,8	-62,073
956,2	-65,153
956,7	-61,393
957,1	-57,913
957,5	-50,713
957,9	-61,233
958,3	-64,073
958,8	-64,953
959,2	-63,273
959,6	-71,833
960	-65,033
960,5	-67,513
960,9	-69,313
961,3	-75,433
961,7	-72,473
962,1	-72,273
962,6	-71,473
963	-77,633
963,4	-72,593
963,8	-71,753
964,2	-76,473
964,7	-67,553
965,1	-59,873
965,5	-66,713
965,9	-67,513
966,3	-57,313
966,8	-60,993
967,2	-62,833
967,6	-57,873
968	-57,673
968,4	-60,113
968,9	-63,113
969,3	-66,273
969,7	-69,753
970,1	-72,473
970,5	-70,473
971	-66,993
971,4	-66,313
971,8	-60,193
972,2	-54,513
972,6	-55,553
973,1	-58,833
973,5	-61,233
973,9	-68,313
974,3	-71,113
974,7	-72,473
975,2	-74,433
975,6	-73,313
976	-70,433
976,4	-65,313
976,8	-67,473
977,3	-67,473
977,7	-63,193
978,1	-62,433
978,5	-69,913
978,9	-70,393
979,4	-70,553
979,8	-70,633
980,2	-71,713
980,6	-64,393
981	-64,033
981,5	-66,593
981,9	-67,713
982,3	-69,033
982,7	-67,673
983,1	-66,873
983,6	-61,353
984	-59,193
984,4	-60,313
984,8	-61,433
985,2	-66,353
985,6	-60,353
986,1	-61,633
986,5	-53,993
986,9	-58,353
987,3	-53,673
987,7	-56,273
988,2	-59,113
988,6	-64,113
989	-62,793
989,4	-63,993
989,8	-69,713
990,3	-71,193
990,7	-69,273
991,1	-74,513
991,5	-71,073
991,9	-69,353
992,3	-63,233
992,8	-61,713
993,2	-58,153
993,6	-58,673
994	-56,553
994,4	-55,273
994,9	-57,473
995,3	-54,673
995,7	-52,953
996,1	-52,833
996,5	-58,673
996,9	-58,553
997,4	-62,793
997,8	-66,753
998,2	-65,193
998,6	-62,433
999	-67,753
999,5	-68,473
999,9	-71,593
1000,3	-76,673
1000,7	-77,393
1001,1	-74,793
1001,5	-73,833
1002	-70,393
1002,4	-72,593
1002,8	-70,673
1003,2	-65,273
1003,6	-60,633
1004	-66,593
1004,5	-62,753
1004,9	-62,913
1005,3	-69,913
1005,7	-76,433
1006,1	-66,953
1006,6	-65,153
1007	-61,913
1007,4	-61,233
1007,8	-55,793
1008,2	-60,553
1008,6	-61,833
1009,1	-71,033
1009,5	-67,353
1009,9	-73,913
1010,3	-72,473
1010,7	-74,193
1011,1	-66,593
1011,6	-69,073
1012	-70,073
1012,4	-70,673
1012,8	-75,393
1013,2	-73,153
1013,6	-69,713
1014,1	-66,553
1014,5	-63,233
1014,9	-57,753
1015,3	-61,433
1015,7	-60,873
1016,1	-59,153
1016,6	-62,953
1017	-60,233
1017,4	-65,393
1017,8	-71,873
1018,2	-74,553
1018,6	-71,353
1019,1	-70,073
1019,5	-64,993
1019,9	-63,273
1020,3	-58,593
1020,7	-59,353
1021,1	-69,113
1021,6	-65,833
1022	-66,993
1022,4	-68,233
1022,8	-72,593
1023,2	-68,873
1023,6	-74,313
1024,1	-71,673
1024,5	-77,273
1024,9	-73,673
1025,3	-74,713
1025,7	-75,673
1026,1	-77,913
1026,6	-71,033
1027	-77,393
1027,4	-77,313
1027,8	-79,393
1028,2	-79,033
1028,6	-81,593
1029	-75,033
1029,5	-73,353
1029,9	-68,953
1030,3	-71,353
1030,7	-71,753
1031,1	-79,073
1031,5	-78,273
1032	-81,793
1032,4	-81,673
1032,8	-80,713
1033,2	-75,633
1033,6	-70,433
1034	-69,873
1034,4	-64,993
1034,9	-65,393
1035,3	-60,833
1035,7	-69,753
1036,1	-66,033
1036,5	-61,953
1036,9	-58,993
1037,4	-65,993
1037,8	-64,833
1038,2	-68,473
1038,6	-76,553
1039	-80,233
1039,4	-76,233
1039,8	-72,793
1040,3	-75,993
1040,7	-76,873
1041,1	-79,313
1041,5	-85,033
1041,9	-81,633
1042,3	-77,113
1042,7	-73,913
1043,2	-73,953
1043,6	-72,593
1044	-76,273
1044,4	-76,753
1044,8	-77,033
1045,2	-80,993
1045,6	-85,353
1046,1	-92,633
1046,5	-99,953
1046,9	-103,113
1047,3	-93,753
1047,7	-88,553
1048,1	-77,633
1048,5	-71,833
1049	-67,233
1049,4	-68,033
1049,8	-66,713
1050,2	-70,513
1050,6	-67,273
1051	-70,953
1051,4	-78,793
1051,9	-79,913
1052,3	-84,073
1052,7	-91,353
1053,1	-94,113
1053,5	-86,073
1053,9	-83,273
1054,3	-81,393
1054,8	-75,273
1055,2	-69,793
1055,6	-68,913
1056	-69,393
1056,4	-65,033
1056,8	-61,273
1057,2	-62,873
1057,6	-72,073
1058,1	-72,673
1058,5	-75,473
1058,9	-84,033
1059,3	-83,193
1059,7	-77,393
1060,1	-82,313
1060,5	-78,513
1061	-75,153
1061,4	-71,713
1061,8	-70,033
1062,2	-66,593
1062,6	-71,593
1063	-75,073
1063,4	-76,873
1063,8	-84,393
1064,3	-77,873
1064,7	-74,673
1065,1	-69,033
1065,5	-69,953
1065,9	-62,433
1066,3	-71,233
1066,7	-76,273
1067,1	-78,673
1067,6	-75,113
1068	-80,793
1068,4	-78,713
1068,8	-71,473
1069,2	-69,433
1069,6	-71,553
1070	-66,673
1070,4	-65,153
1070,9	-69,353
1071,3	-67,833
1071,7	-64,073
1072,1	-66,233
1072,5	-66,313
1072,9	-64,033
1073,3	-62,873
1073,7	-69,153
1074,2	-71,673
1074,6	-67,073
1075	-72,433
1075,4	-77,833
1075,8	-78,153
1076,2	-67,153
1076,6	-66,473
1077	-60,473
1077,5	-63,153
1077,9	-60,193
1078,3	-59,393
1078,7	-59,393
1079,1	-56,153
1079,5	-51,153
1079,9	-52,593
1080,3	-57,393
1080,7	-58,433
1081,2	-60,633
1081,6	-64,313
1082	-62,353
1082,4	-67,713
1082,8	-70,833
1083,2	-75,553
1083,6	-70,113
1084	-73,593
1084,5	-72,153
1084,9	-75,393
1085,3	-64,873
1085,7	-68,193
1086,1	-62,073
1086,5	-57,433
1086,9	-52,833
1087,3	-66,553
1087,7	-58,553
1088,2	-58,713
1088,6	-56,433
1089	-56,713
1089,4	-49,273
1089,8	-52,113
1090,2	-56,513
1090,6	-60,753
1091	-63,313
1091,4	-66,233
1091,9	-70,353
1092,3	-70,313
1092,7	-68,073
1093,1	-69,353
1093,5	-62,473
1093,9	-64,153
1094,3	-57,153
1094,7	-54,953
1095,1	-54,593
1095,5	-60,033
1096	-55,633
1096,4	-62,833
1096,8	-63,313
1097,2	-59,993
1097,6	-56,873
1098	-54,593
1098,4	-49,073
1098,8	-54,553
1099,2	-55,953
1099,6	-53,833
1100,1	-54,553
1100,5	-54,713
1100,9	-49,793
1101,3	-44,793
1101,7	-45,033
1102,1	-44,793
1102,5	-47,193
1102,9	-43,673
1103,3	-49,953
1103,7	-46,793
1104,2	-43,673
1104,6	-41,793
1105	-42,793
1105,4	-34,633
1105,8	-36,193
1106,2	-30,553
1106,6	-20,913
1107	-13,553
1107,4	-6,753
1107,8	-0,733
1108,3	0,767
