Data from Subt2_00074.txt Node
Date: Fri Aug 11 16:31:30 MSK 2023
User: vat
Spectrometer: MAYP114033
Trigger mode: 0
Integration Time (sec): 5,000000E-1
Scans to average: 5
Electric dark correction enabled: true
Nonlinearity correction enabled: false
Boxcar width: 2
XAxis mode: Wavelengths
Number of Pixels in Spectrum: 2068
>>>>>Begin Spectral Data<<<<<
199,4	-1,8
199,9	-0,983
200,4	-8,333
200,8	-14,773
201,3	-22,373
201,8	-28,733
202,2	-29,333
202,7	-29,613
203,2	-27,893
203,6	-26,013
204,1	-28,533
204,6	-36,533
205	-38,173
205,5	-42,333
206	-38,333
206,4	-36,653
206,9	-35,093
207,4	-30,973
207,8	-26,453
208,3	-30,373
208,8	-30,173
209,2	-32,973
209,7	-38,973
210,2	-42,453
210,6	-49,173
211,1	-54,493
211,5	-51,493
212	-50,893
212,5	-51,373
212,9	-46,333
213,4	-46,573
213,9	-46,813
214,3	-45,213
214,8	-47,773
215,3	-45,733
215,7	-44,613
216,2	-41,333
216,7	-46,853
217,1	-41,053
217,6	-44,813
218,1	-45,013
218,5	-51,653
219	-44,173
219,5	-47,773
219,9	-48,133
220,4	-46,853
220,9	-43,813
221,3	-44,813
221,8	-45,773
222,3	-47,733
222,7	-44,453
223,2	-47,933
223,6	-52,933
224,1	-48,533
224,6	-51,293
225	-55,693
225,5	-50,253
226	-45,693
226,4	-49,133
226,9	-46,733
227,4	-41,493
227,8	-45,693
228,3	-49,813
228,8	-49,933
229,2	-47,693
229,7	-54,613
230,2	-53,773
230,6	-50,293
231,1	-53,693
231,5	-52,373
232	-48,853
232,5	-48,693
232,9	-52,413
233,4	-51,053
233,9	-55,453
234,3	-54,773
234,8	-49,373
235,3	-47,693
235,7	-44,173
236,2	-39,453
236,7	-40,933
237,1	-53,333
237,6	-53,213
238,1	-53,213
238,5	-58,693
239	-58,853
239,4	-56,133
239,9	-52,733
240,4	-52,053
240,8	-47,413
241,3	-41,333
241,8	-36,733
242,2	-39,893
242,7	-41,453
243,2	-40,253
243,6	-43,573
244,1	-47,093
244,6	-50,013
245	-51,253
245,5	-54,653
245,9	-56,373
246,4	-52,693
246,9	-52,573
247,3	-54,733
247,8	-51,533
248,3	-52,053
248,7	-55,133
249,2	-55,173
249,7	-54,893
250,1	-57,813
250,6	-57,413
251	-59,853
251,5	-58,853
252	-61,813
252,4	-63,333
252,9	-61,253
253,4	-58,133
253,8	-49,613
254,3	-41,893
254,8	-43,133
255,2	-38,333
255,7	-37,533
256,1	-42,213
256,6	-44,653
257,1	-46,093
257,5	-51,973
258	-52,053
258,5	-48,053
258,9	-43,093
259,4	-33,813
259,9	-35,413
260,3	-37,813
260,8	-40,093
261,2	-40,893
261,7	-43,453
262,2	-47,173
262,6	-43,773
263,1	-46,853
263,6	-52,053
264	-54,133
264,5	-55,773
264,9	-57,093
265,4	-57,653
265,9	-55,413
266,3	-57,893
266,8	-47,613
267,3	-48,093
267,7	-49,213
268,2	-48,573
268,7	-41,573
269,1	-44,653
269,6	-49,533
270	-48,133
270,5	-49,333
271	-55,053
271,4	-58,093
271,9	-54,533
272,4	-53,013
272,8	-56,853
273,3	-55,413
273,7	-51,413
274,2	-43,413
274,7	-49,613
275,1	-43,933
275,6	-46,413
276,1	-50,253
276,5	-56,453
277	-54,653
277,4	-55,093
277,9	-52,653
278,4	-46,493
278,8	-45,053
279,3	-42,493
279,8	-45,333
280,2	-48,613
280,7	-52,773
281,1	-52,893
281,6	-46,253
282,1	-43,693
282,5	-42,653
283	-43,973
283,4	-50,013
283,9	-52,853
284,4	-58,293
284,8	-53,813
285,3	-45,893
285,8	-42,773
286,2	-44,093
286,7	-38,613
287,1	-41,493
287,6	-46,373
288,1	-42,213
288,5	-37,053
289	-38,853
289,5	-36,013
289,9	-37,853
290,4	-38,733
290,8	-40,333
291,3	-40,653
291,8	-39,933
292,2	-40,573
292,7	-37,213
293,1	-41,653
293,6	-39,493
294,1	-42,133
294,5	-47,213
295	-48,453
295,5	-44,653
295,9	-44,573
296,4	-47,333
296,8	-37,453
297,3	-40,653
297,8	-44,373
298,2	-49,293
298,7	-46,933
299,1	-51,653
299,6	-46,213
300,1	-46,293
300,5	-40,973
301	-37,493
301,5	-36,933
301,9	-45,773
302,4	-50,413
302,8	-56,493
303,3	-59,533
303,8	-64,653
304,2	-65,733
304,7	-64,813
305,1	-62,533
305,6	-61,933
306,1	-57,573
306,5	-53,973
307	-50,653
307,4	-46,893
307,9	-46,333
308,4	-41,213
308,8	-39,933
309,3	-37,973
309,8	-40,693
310,2	-40,933
310,7	-48,093
311,1	-55,213
311,6	-55,853
312,1	-55,733
312,5	-58,493
313	-56,453
313,4	-50,813
313,9	-49,453
314,4	-48,933
314,8	-49,333
315,3	-50,613
315,7	-52,733
316,2	-56,453
316,7	-57,893
317,1	-55,893
317,6	-53,893
318	-45,253
318,5	-47,733
319	-45,213
319,4	-47,013
319,9	-43,853
320,3	-45,493
320,8	-39,453
321,3	-39,533
321,7	-36,773
322,2	-43,573
322,6	-43,573
323,1	-50,293
323,6	-49,053
324	-48,533
324,5	-45,653
324,9	-51,133
325,4	-42,213
325,9	-42,533
326,3	-38,933
326,8	-41,093
327,2	-39,093
327,7	-48,093
328,2	-54,093
328,6	-56,373
329,1	-54,413
329,5	-49,653
330	-44,133
330,5	-42,093
330,9	-39,693
331,4	-35,933
331,8	-46,333
332,3	-45,933
332,8	-44,933
333,2	-59,253
333,7	-59,293
334,1	-51,413
334,6	-52,493
335,1	-49,653
335,5	-37,253
336	-37,773
336,4	-38,093
336,9	-36,413
337,4	-35,933
337,8	-37,013
338,3	-40,893
338,7	-43,893
339,2	-45,893
339,7	-43,693
340,1	-46,053
340,6	-41,413
341	-35,973
341,5	-34,173
342	-34,133
342,4	-28,493
342,9	-28,413
343,3	-32,533
343,8	-31,333
344,2	-30,573
344,7	-29,493
345,2	-32,653
345,6	-32,933
346,1	-28,413
346,5	-25,773
347	-30,133
347,5	-28,853
347,9	-19,573
348,4	-16,333
348,8	-17,133
349,3	-11,293
349,8	1,947
350,2	10,227
350,7	17,507
351,1	33,867
351,6	53,067
352	71,747
352,5	101,467
353	135,867
353,4	180,467
353,9	235,387
354,3	301,867
354,8	366,547
355,3	461,307
355,7	555,707
356,2	671,187
356,6	803,267
357,1	966,707
357,5	1141,867
358	1358,267
358,5	1600,987
358,9	1871,187
359,4	2175,907
359,8	2510,507
360,3	2893,067
360,8	3316,827
361,2	3797,067
361,7	4321,267
362,1	4903,587
362,6	5530,187
363	6204,067
363,5	6907,907
364	7652,147
364,4	8419,347
364,9	9182,547
365,3	9932,667
365,8	10669,467
366,3	11334,107
366,7	11933,547
367,2	12461,147
367,6	12889,627
368,1	13192,187
368,5	13404,307
369	13500,627
369,5	13466,507
369,9	13332,427
370,4	13085,747
370,8	12752,307
371,3	12332,347
371,7	11855,707
372,2	11315,107
372,7	10748,547
373,1	10140,947
373,6	9512,907
374	8882,947
374,5	8269,907
374,9	7677,627
375,4	7097,587
375,9	6553,547
376,3	6028,067
376,8	5538,267
377,2	5065,667
377,7	4634,787
378,2	4232,147
378,6	3862,547
379,1	3503,587
379,5	3181,387
380	2892,627
380,4	2630,547
380,9	2398,667
381,4	2194,867
381,8	2019,947
382,3	1861,667
382,7	1715,427
383,2	1578,707
383,6	1461,307
384,1	1345,947
384,6	1237,107
385	1133,267
385,5	1048,467
385,9	963,947
386,4	884,267
386,8	811,667
387,3	753,507
387,7	690,507
388,2	627,547
388,7	582,907
389,1	532,107
389,6	487,547
390	440,467
390,5	404,987
390,9	365,427
391,4	336,467
391,9	307,627
392,3	282,227
392,8	261,227
393,2	235,667
393,7	213,867
394,1	196,107
394,6	179,907
395,1	163,467
395,5	153,987
396	136,187
396,4	116,507
396,9	108,507
397,3	100,147
397,8	86,467
398,2	83,867
398,7	82,827
399,2	75,787
399,6	63,947
400,1	65,747
400,5	54,787
401	47,147
401,4	37,547
401,9	34,587
402,4	22,907
402,8	21,667
403,3	12,427
403,7	10,307
404,2	11,107
404,6	4,027
405,1	7,347
405,5	7,027
406	6,267
406,5	-1,613
406,9	0,707
407,4	-4,093
407,8	-2,053
408,3	-0,853
408,7	-1,813
409,2	-3,533
409,6	-7,973
410,1	-6,653
410,6	-2,373
411	-3,573
411,5	-1,653
411,9	3,907
412,4	3,827
412,8	-7,053
413,3	-3,333
413,7	3,987
414,2	-0,533
414,7	2,227
415,1	7,947
415,6	6,027
416	4,387
416,5	4,787
416,9	7,187
417,4	6,147
417,8	7,067
418,3	9,867
418,8	16,907
419,2	18,827
419,7	27,587
420,1	28,707
420,6	17,027
421	17,667
421,5	9,947
421,9	8,147
422,4	12,627
422,8	24,187
423,3	28,107
423,8	34,827
424,2	37,067
424,7	39,507
425,1	39,507
425,6	35,227
426	36,227
426,5	40,747
426,9	44,427
427,4	46,347
427,9	59,227
428,3	65,747
428,8	73,587
429,2	78,387
429,7	88,987
430,1	90,347
430,6	92,987
431	87,467
431,5	99,827
431,9	100,987
432,4	107,187
432,8	117,707
433,3	128,507
433,8	127,627
434,2	136,227
434,7	140,187
435,1	146,507
435,6	160,307
436	173,107
436,5	183,707
436,9	196,627
437,4	207,867
437,8	211,747
438,3	223,467
438,8	234,947
439,2	245,147
439,7	257,627
440,1	270,827
440,6	275,227
441	284,347
441,5	293,947
441,9	300,707
442,4	309,427
442,8	322,987
443,3	330,107
443,7	346,387
444,2	364,227
444,7	378,067
445,1	399,347
445,6	416,307
446	424,107
446,5	436,827
446,9	453,747
447,4	463,307
447,8	480,787
448,3	500,467
448,7	508,747
449,2	527,867
449,6	547,747
450,1	565,587
450,6	579,587
451	594,827
451,5	611,747
451,9	623,467
452,4	640,707
452,8	662,547
453,3	683,467
453,7	698,067
454,2	719,387
454,6	738,507
455,1	753,827
455,5	778,947
456	798,627
456,4	809,387
456,9	826,667
457,3	852,307
457,8	870,867
458,3	886,507
458,7	913,667
459,2	941,547
459,6	962,147
460,1	979,427
460,5	1001,867
461	1021,867
461,4	1042,787
461,9	1065,547
462,3	1089,027
462,8	1107,667
463,2	1139,347
463,7	1146,507
464,1	1168,907
464,6	1194,187
465	1219,307
465,5	1228,987
466	1257,107
466,4	1263,307
466,9	1274,987
467,3	1291,867
467,8	1312,587
468,2	1329,227
468,7	1348,307
469,1	1366,387
469,6	1384,147
470	1395,347
470,5	1409,267
470,9	1426,827
471,4	1441,307
471,8	1454,507
472,3	1468,467
472,7	1475,467
473,2	1489,387
473,6	1490,387
474,1	1490,587
474,5	1498,667
475	1505,267
475,4	1507,987
475,9	1520,387
476,4	1533,307
476,8	1537,827
477,3	1559,147
477,7	1569,827
478,2	1577,187
478,6	1576,987
479,1	1587,787
479,5	1578,187
480	1576,467
480,4	1586,907
480,9	1605,427
481,3	1600,747
481,8	1615,747
482,2	1622,187
482,7	1619,467
483,1	1606,627
483,6	1610,867
484	1601,987
484,5	1595,987
484,9	1600,467
485,4	1600,947
485,8	1601,387
486,3	1599,307
486,7	1606,707
487,2	1594,107
487,6	1591,707
488,1	1589,187
488,5	1580,747
489	1571,907
489,4	1568,307
489,9	1566,307
490,4	1560,507
490,8	1559,587
491,3	1548,587
491,7	1536,667
492,2	1520,187
492,6	1501,867
493,1	1488,587
493,5	1476,707
494	1470,747
494,4	1471,027
494,9	1465,307
495,3	1456,107
495,8	1449,547
496,2	1434,907
496,7	1424,227
497,1	1417,067
497,6	1413,987
498	1404,547
498,5	1395,787
498,9	1382,147
499,4	1369,387
499,8	1352,667
500,3	1338,067
500,7	1329,307
501,2	1315,187
501,6	1304,107
502,1	1291,387
502,5	1285,707
503	1276,467
503,4	1267,107
503,9	1260,067
504,3	1255,867
504,8	1239,787
505,2	1229,427
505,7	1222,067
506,1	1211,427
506,6	1195,347
507	1184,427
507,5	1174,267
507,9	1161,107
508,4	1144,987
508,8	1139,067
509,3	1129,027
509,7	1111,387
510,2	1106,147
510,6	1095,867
511,1	1077,827
511,5	1061,667
512	1046,587
512,4	1033,507
512,9	1022,587
513,3	1017,187
513,8	1015,387
514,2	1006,107
514,7	987,467
515,1	974,827
515,6	957,827
516	946,547
516,5	945,107
516,9	934,747
517,4	926,987
517,8	912,947
518,3	905,627
518,7	889,827
519,2	878,187
519,6	861,947
520,1	860,667
520,5	847,227
521	838,387
521,4	826,747
521,9	816,867
522,3	801,987
522,8	793,587
523,2	786,547
523,7	784,107
524,1	782,187
524,6	769,747
525	762,867
525,5	753,827
525,9	746,387
526,4	735,147
526,8	728,387
527,3	714,147
527,7	708,027
528,2	698,667
528,6	692,507
529,1	690,267
529,5	686,747
530	673,747
530,4	665,147
530,9	652,587
531,3	642,867
531,8	633,507
532,2	627,227
532,6	623,227
533,1	619,147
533,5	612,147
534	597,267
534,4	595,347
534,9	579,787
535,3	574,547
535,8	571,187
536,2	565,507
536,7	548,547
537,1	544,507
537,6	537,027
538	531,107
538,5	528,707
538,9	529,667
539,4	525,747
539,8	516,507
540,3	511,507
540,7	504,747
541,2	498,947
541,6	498,107
542,1	491,187
542,5	483,947
543	472,347
543,4	457,027
543,9	443,787
544,3	442,707
544,8	433,707
545,2	433,027
545,7	439,947
546,1	440,787
546,5	431,867
547	425,947
547,4	422,107
547,9	415,907
548,3	411,267
548,8	412,467
549,2	410,507
549,7	407,747
550,1	403,787
550,6	398,227
551	388,947
551,5	384,547
551,9	377,827
552,4	370,187
552,8	361,987
553,3	359,467
553,7	361,027
554,2	361,907
554,6	358,427
555,1	358,987
555,5	360,507
555,9	355,507
556,4	351,067
556,8	350,467
557,3	341,307
557,7	334,707
558,2	327,627
558,6	325,827
559,1	315,187
559,5	318,747
560	314,307
560,4	307,947
560,9	301,707
561,3	305,307
561,8	300,107
562,2	295,347
562,7	293,467
563,1	290,787
563,6	284,187
564	280,947
564,4	276,747
564,9	277,587
565,3	275,707
565,8	275,947
566,2	271,947
566,7	272,427
567,1	269,107
567,6	264,347
568	264,507
568,5	262,187
568,9	256,107
569,4	251,867
569,8	249,227
570,3	249,027
570,7	250,587
571,1	252,507
571,6	251,707
572	250,707
572,5	246,107
572,9	237,867
573,4	238,347
573,8	230,067
574,3	227,387
574,7	219,307
575,2	218,587
575,6	213,267
576,1	213,667
576,5	211,107
576,9	211,147
577,4	211,707
577,8	204,267
578,3	198,467
578,7	200,827
579,2	190,907
579,6	187,667
580,1	192,947
580,5	203,507
581	197,107
581,4	202,827
581,9	199,827
582,3	191,587
582,7	175,427
583,2	167,707
583,6	164,507
584,1	160,667
584,5	162,827
585	166,587
585,4	173,427
585,9	174,467
586,3	171,427
586,8	171,707
587,2	170,187
587,6	168,307
588,1	165,027
588,5	165,027
589	159,227
589,4	154,907
589,9	153,867
590,3	152,267
590,8	153,587
591,2	150,467
591,7	158,187
592,1	155,947
592,5	149,667
593	148,827
593,4	143,787
593,9	138,747
594,3	133,987
594,8	136,867
595,2	134,387
595,7	140,187
596,1	143,867
596,6	147,307
597	144,987
597,4	143,987
597,9	139,347
598,3	134,147
598,8	133,427
599,2	141,027
599,7	141,587
600,1	149,387
600,6	143,707
601	137,987
601,4	131,947
601,9	123,067
602,3	112,507
602,8	113,347
603,2	111,227
603,7	110,467
604,1	117,027
604,6	119,187
605	123,467
605,4	124,627
605,9	119,067
606,3	116,227
606,8	117,667
607,2	109,947
607,7	111,267
608,1	115,307
608,6	116,067
609	117,347
609,4	119,547
609,9	119,507
610,3	114,587
610,8	113,107
611,2	103,187
611,7	103,467
612,1	98,627
612,6	98,867
613	98,787
613,4	106,987
613,9	106,307
614,3	107,827
614,8	105,147
615,2	103,627
615,7	98,747
616,1	95,627
616,6	87,787
617	89,867
617,4	92,787
617,9	96,387
618,3	96,547
618,8	97,027
619,2	101,227
619,7	98,907
620,1	92,267
620,5	88,947
621	97,507
621,4	92,987
621,9	83,387
622,3	85,627
622,8	93,667
623,2	91,027
623,6	92,627
624,1	97,507
624,5	90,507
625	77,587
625,4	72,627
625,9	69,427
626,3	72,667
626,8	79,867
627,2	80,707
627,6	83,947
628,1	84,627
628,5	75,867
629	74,627
629,4	78,827
629,9	74,227
630,3	71,907
630,7	77,907
631,2	74,067
631,6	74,067
632,1	73,907
632,5	75,987
633	69,747
633,4	72,147
633,8	64,827
634,3	65,587
634,7	62,867
635,2	66,827
635,6	61,027
636,1	68,467
636,5	72,067
636,9	64,747
637,4	63,027
637,8	64,107
638,3	56,707
638,7	50,467
639,2	52,587
639,6	52,667
640	47,067
640,5	51,187
640,9	52,187
641,4	53,427
641,8	53,827
642,2	55,467
642,7	53,627
643,1	55,707
643,6	49,427
644	45,147
644,5	49,667
644,9	49,547
645,3	47,027
645,8	52,307
646,2	52,947
646,7	54,227
647,1	55,267
647,6	53,027
648	51,147
648,4	54,387
648,9	50,827
649,3	42,627
649,8	38,227
650,2	40,867
650,6	33,107
651,1	34,787
651,5	36,707
652	44,147
652,4	40,827
652,9	42,747
653,3	43,467
653,7	46,467
654,2	48,707
654,6	53,027
655,1	55,427
655,5	55,347
655,9	57,667
656,4	48,747
656,8	43,667
657,3	38,867
657,7	36,787
658,2	33,947
658,6	34,867
659	39,227
659,5	41,467
659,9	34,467
660,4	34,427
660,8	38,587
661,2	30,707
661,7	33,947
662,1	39,547
662,6	36,827
663	30,027
663,4	34,387
663,9	25,347
664,3	21,667
664,8	23,307
665,2	24,027
665,6	29,067
666,1	31,387
666,5	26,667
667	30,587
667,4	25,707
667,9	21,467
668,3	21,227
668,7	32,107
669,2	24,267
669,6	31,027
670,1	30,667
670,5	33,547
670,9	25,467
671,4	33,107
671,8	31,747
672,3	30,827
672,7	33,467
673,1	31,227
673,6	23,907
674	26,107
674,5	25,307
674,9	16,227
675,3	22,907
675,8	24,387
676,2	17,227
676,7	15,267
677,1	18,787
677,5	14,107
678	15,307
678,4	25,027
678,9	26,187
679,3	27,827
679,7	30,347
680,2	24,667
680,6	15,187
681,1	15,027
681,5	16,307
681,9	17,387
682,4	24,787
682,8	31,147
683,3	35,147
683,7	32,947
684,1	33,147
684,6	32,987
685	32,107
685,5	30,547
685,9	30,907
686,3	25,667
686,8	19,627
687,2	12,307
687,7	13,467
688,1	17,347
688,5	22,507
689	21,787
689,4	23,787
689,9	19,027
690,3	12,187
690,7	11,667
691,2	14,427
691,6	20,147
692	21,387
692,5	25,787
692,9	21,187
693,4	17,547
693,8	20,107
694,2	18,907
694,7	12,987
695,1	13,587
695,6	15,067
696	6,027
696,4	4,987
696,9	12,387
697,3	15,827
697,8	14,067
698,2	19,547
698,6	21,707
699,1	16,227
699,5	17,147
699,9	18,027
700,4	15,227
700,8	13,707
701,3	12,067
701,7	9,307
702,1	9,147
702,6	6,267
703	8,947
703,5	8,907
703,9	9,307
704,3	12,587
704,8	14,907
705,2	6,667
705,6	9,387
706,1	3,827
706,5	1,707
707	0,387
707,4	8,147
707,8	3,347
708,3	8,667
708,7	9,107
709,2	8,107
709,6	7,467
710	12,187
710,5	9,707
710,9	3,307
711,3	0,427
711,8	-0,973
712,2	-0,453
712,7	-5,613
713,1	2,387
713,5	3,827
714	-1,173
714,4	-3,933
714,8	2,267
715,3	-0,493
715,7	4,107
716,2	5,667
716,6	3,707
717	4,387
717,5	4,467
717,9	3,427
718,3	4,387
718,8	5,547
719,2	0,667
719,7	3,507
720,1	0,387
720,5	-1,853
721	-3,053
721,4	-0,293
721,8	-5,693
722,3	-6,093
722,7	-8,413
723,2	-7,973
723,6	-10,053
724	-6,253
724,5	0,387
724,9	8,267
725,3	9,227
725,8	11,587
726,2	6,947
726,7	4,067
727,1	1,187
727,5	-0,293
728	-4,773
728,4	-3,173
728,8	-4,613
729,3	-5,413
729,7	-1,533
730,1	1,467
730,6	1,267
731	-0,253
731,5	-4,573
731,9	-2,733
732,3	-1,173
732,8	-1,933
733,2	-2,853
733,6	3,907
734,1	-1,413
734,5	-0,253
734,9	3,827
735,4	-1,893
735,8	-3,933
736,3	4,547
736,7	-1,053
737,1	-3,453
737,6	6,987
738	5,947
738,4	2,947
738,9	2,107
739,3	1,787
739,7	-7,853
740,2	-10,933
740,6	-19,213
741,1	-18,093
741,5	-17,133
741,9	-7,853
742,4	-8,453
742,8	-6,053
743,2	1,027
743,7	-4,413
744,1	-8,693
744,5	-7,893
745	-6,373
745,4	-11,973
745,8	-8,853
746,3	-7,213
746,7	-11,773
747,2	-16,453
747,6	-15,493
748	-19,853
748,5	-12,653
748,9	-4,453
749,3	-1,853
749,8	-2,853
750,2	-1,653
750,6	-7,813
751,1	-12,493
751,5	-11,493
751,9	-9,133
752,4	-5,813
752,8	-3,213
753,3	-0,413
753,7	1,787
754,1	-2,293
754,6	3,587
755	-0,813
755,4	1,107
755,9	0,387
756,3	-0,613
756,7	-2,813
757,2	-4,173
757,6	-9,933
758	-5,613
758,5	-6,373
758,9	-7,773
759,3	-8,093
759,8	-8,293
760,2	-13,333
760,6	-13,133
761,1	-16,333
761,5	-17,373
761,9	-13,493
762,4	-17,213
762,8	-11,773
763,3	-8,373
763,7	-4,613
764,1	-7,613
764,6	-5,573
765	-6,053
765,4	-12,173
765,9	-16,093
766,3	-14,853
766,7	-19,253
767,2	-20,533
767,6	-17,493
768	-15,333
768,5	-17,093
768,9	-14,733
769,3	-17,093
769,8	-19,253
770,2	-23,173
770,6	-23,413
771,1	-19,693
771,5	-21,653
771,9	-17,253
772,4	-16,973
772,8	-15,253
773,2	-19,293
773,7	-16,013
774,1	-18,093
774,5	-17,133
775	-17,213
775,4	-16,333
775,8	-14,693
776,3	-17,413
776,7	-14,373
777,1	-15,013
777,6	-11,213
778	-13,453
778,4	-6,533
778,9	-8,853
779,3	-10,053
779,7	-14,773
780,2	-12,013
780,6	-24,293
781	-23,413
781,5	-20,973
781,9	-24,293
782,3	-33,133
782,8	-24,653
783,2	-18,533
783,6	-17,013
784,1	-17,013
784,5	-15,453
784,9	-21,933
785,4	-27,693
785,8	-30,973
786,2	-30,973
786,7	-25,453
787,1	-19,813
787,5	-25,533
788	-21,853
788,4	-19,293
788,8	-22,173
789,3	-21,533
789,7	-18,573
790,1	-24,973
790,6	-23,813
791	-25,213
791,4	-25,253
791,9	-25,933
792,3	-22,813
792,7	-22,893
793,2	-19,733
793,6	-25,853
794	-25,493
794,5	-27,693
794,9	-25,573
795,3	-31,493
795,8	-26,053
796,2	-25,573
796,6	-27,333
797,1	-31,533
797,5	-28,093
797,9	-32,013
798,4	-35,293
798,8	-32,533
799,2	-33,293
799,7	-34,533
800,1	-30,213
800,5	-26,373
801	-34,413
801,4	-34,453
801,8	-33,773
802,2	-38,773
802,7	-39,493
803,1	-35,053
803,5	-35,373
804	-31,853
804,4	-31,453
804,8	-33,173
805,3	-27,933
805,7	-27,493
806,1	-33,373
806,6	-29,773
807	-31,213
807,4	-34,973
807,9	-31,453
808,3	-28,173
808,7	-35,453
809,2	-30,173
809,6	-31,253
810	-37,813
810,4	-38,493
810,9	-34,253
811,3	-36,533
811,7	-31,493
812,2	-24,693
812,6	-25,613
813	-22,373
813,5	-22,813
813,9	-25,413
814,3	-27,653
814,8	-25,693
815,2	-31,653
815,6	-34,253
816,1	-34,133
816,5	-37,253
816,9	-35,253
817,3	-35,573
817,8	-34,813
818,2	-41,013
818,6	-37,453
819,1	-42,853
819,5	-37,173
819,9	-37,733
820,4	-32,573
820,8	-35,253
821,2	-32,893
821,7	-34,053
822,1	-31,453
822,5	-30,653
822,9	-34,253
823,4	-34,133
823,8	-33,093
824,2	-31,893
824,7	-32,373
825,1	-24,693
825,5	-27,933
826	-32,293
826,4	-36,213
826,8	-36,693
827,3	-41,773
827,7	-43,013
828,1	-39,373
828,5	-42,733
829	-46,133
829,4	-47,773
829,8	-47,933
830,3	-46,693
830,7	-42,733
831,1	-45,293
831,6	-41,573
832	-39,733
832,4	-44,813
832,8	-40,853
833,3	-32,413
833,7	-30,253
834,1	-31,173
834,6	-32,613
835	-35,933
835,4	-34,853
835,8	-36,653
836,3	-32,973
836,7	-28,453
837,1	-31,773
837,6	-37,573
838	-39,453
838,4	-41,013
838,9	-45,933
839,3	-43,893
839,7	-41,973
840,1	-34,853
840,6	-39,333
841	-33,693
841,4	-37,973
841,9	-38,133
842,3	-45,533
842,7	-39,253
843,1	-41,893
843,6	-42,093
844	-41,573
844,4	-41,293
844,9	-42,573
845,3	-40,693
845,7	-36,653
846,2	-36,933
846,6	-32,773
847	-35,333
847,4	-41,093
847,9	-41,973
848,3	-45,173
848,7	-47,053
849,2	-45,253
849,6	-48,133
850	-45,333
850,4	-44,613
850,9	-42,093
851,3	-39,333
851,7	-38,813
852,2	-40,853
852,6	-40,133
853	-42,813
853,4	-44,933
853,9	-43,213
854,3	-38,373
854,7	-35,733
855,2	-38,093
855,6	-35,813
856	-32,133
856,4	-37,573
856,9	-41,013
857,3	-40,373
857,7	-43,053
858,2	-43,133
858,6	-40,053
859	-41,933
859,4	-40,693
859,9	-41,373
860,3	-35,973
860,7	-36,693
861,1	-35,133
861,6	-35,013
862	-39,533
862,4	-46,293
862,9	-49,733
863,3	-45,253
863,7	-45,213
864,1	-40,693
864,6	-35,933
865	-30,413
865,4	-34,253
865,9	-36,413
866,3	-38,413
866,7	-41,813
867,1	-40,253
867,6	-40,333
868	-40,333
868,4	-39,533
868,8	-35,933
869,3	-37,613
869,7	-39,213
870,1	-37,613
870,6	-40,173
871	-40,253
871,4	-2,013
871,8	-7,013
872,3	-9,413
872,7	-10,293
873,1	-13,253
873,5	-52,773
874	-40,773
874,4	-37,813
874,8	-37,173
875,3	-35,133
875,7	-33,053
876,1	-38,373
876,5	-44,933
877	-36,653
877,4	-36,893
877,8	-37,333
878,2	-35,573
878,7	-27,413
879,1	-31,253
879,5	-35,493
879,9	-40,733
880,4	-41,493
880,8	-42,693
881,2	-43,253
881,7	-42,973
882,1	-42,373
882,5	-43,693
882,9	-43,933
883,4	-40,933
883,8	-40,373
884,2	-38,573
884,6	-36,213
885,1	-38,573
885,5	-39,413
885,9	-36,333
886,3	-38,933
886,8	-36,413
887,2	-39,293
887,6	-41,933
888	-49,053
888,5	-48,093
888,9	-51,573
889,3	-46,533
889,8	-43,933
890,2	-40,453
890,6	-35,013
891	-38,653
891,5	-40,013
891,9	-37,973
892,3	-36,773
892,7	-40,933
893,2	-34,693
893,6	-34,573
894	-41,253
894,4	-42,253
894,9	-45,493
895,3	-47,533
895,7	-44,653
896,1	-43,813
896,6	-45,213
897	-41,853
897,4	-45,693
897,8	-46,093
898,3	-45,493
898,7	-34,333
899,1	-35,933
899,5	-33,653
900	-39,973
900,4	-34,773
900,8	-45,253
901,2	-45,973
901,7	-43,413
902,1	-39,533
902,5	-41,373
902,9	-39,493
903,4	-34,733
903,8	-39,173
904,2	-35,893
904,6	-39,413
905,1	-39,293
905,5	-44,853
905,9	-45,453
906,3	-50,373
906,8	-44,933
907,2	-43,693
907,6	-47,293
908	-46,013
908,5	-45,973
908,9	-51,733
909,3	-54,813
909,7	-48,013
910,2	-45,573
910,6	-46,573
911	-43,533
911,4	-46,173
911,9	-47,693
912,3	-48,253
912,7	-49,613
913,1	-47,613
913,6	-43,453
914	-47,413
914,4	-52,853
914,8	-50,453
915,3	-54,213
915,7	-52,453
916,1	-55,293
916,5	-46,773
916,9	-47,933
917,4	-49,053
917,8	-52,133
918,2	-40,453
918,6	-45,613
919,1	-42,173
919,5	-46,093
919,9	-41,133
920,3	-44,853
920,8	-40,173
921,2	-45,773
921,6	-47,613
922	-56,333
922,5	-53,573
922,9	-58,693
923,3	-47,253
923,7	-42,213
924,2	-34,533
924,6	-37,133
925	-34,013
925,4	-41,853
925,8	-42,893
926,3	-46,173
926,7	-44,093
927,1	-45,373
927,5	-49,173
928	-49,573
928,4	-50,973
928,8	-49,093
929,2	-50,213
929,7	-44,933
930,1	-41,733
930,5	-34,973
930,9	-40,053
931,3	-40,693
931,8	-46,253
932,2	-46,973
932,6	-53,173
933	-54,213
933,5	-49,773
933,9	-39,373
934,3	-44,173
934,7	-42,813
935,2	-38,773
935,6	-41,213
936	-50,453
936,4	-51,013
936,8	-54,813
937,3	-60,933
937,7	-59,093
938,1	-59,293
938,5	-60,213
939	-59,013
939,4	-60,333
939,8	-61,093
940,2	-57,893
940,6	-54,373
941,1	-53,533
941,5	-45,653
941,9	-49,053
942,3	-48,333
942,8	-48,853
943,2	-49,053
943,6	-55,373
944	-53,013
944,4	-59,893
944,9	-57,533
945,3	-56,613
945,7	-54,773
946,1	-57,173
946,6	-58,573
947	-56,213
947,4	-52,533
947,8	-47,213
948,2	-39,413
948,7	-32,333
949,1	-29,453
949,5	-31,653
949,9	-33,573
950,3	-37,853
950,8	-38,653
951,2	-41,653
951,6	-41,453
952	-46,573
952,5	-45,013
952,9	-39,653
953,3	-41,173
953,7	-37,373
954,1	-33,253
954,6	-32,853
955	-36,613
955,4	-35,493
955,8	-38,453
956,2	-43,733
956,7	-48,853
957,1	-52,893
957,5	-57,093
957,9	-56,333
958,3	-53,853
958,8	-50,173
959,2	-48,093
959,6	-49,933
960	-52,653
960,5	-50,573
960,9	-52,893
961,3	-51,533
961,7	-43,733
962,1	-41,973
962,6	-40,893
963	-35,333
963,4	-32,573
963,8	-36,893
964,2	-40,253
964,7	-38,173
965,1	-47,213
965,5	-58,013
965,9	-61,213
966,3	-54,973
966,8	-56,293
967,2	-54,373
967,6	-46,653
968	-44,173
968,4	-50,093
968,9	-56,093
969,3	-48,213
969,7	-51,573
970,1	-48,893
970,5	-53,133
971	-44,773
971,4	-50,253
971,8	-44,533
972,2	-45,613
972,6	-41,293
973,1	-53,133
973,5	-54,653
973,9	-60,213
974,3	-63,813
974,7	-61,293
975,2	-55,813
975,6	-55,733
976	-51,493
976,4	-50,733
976,8	-46,053
977,3	-43,853
977,7	-44,053
978,1	-44,053
978,5	-34,853
978,9	-46,293
979,4	-38,813
979,8	-37,293
980,2	-38,493
980,6	-40,133
981	-33,533
981,5	-39,293
981,9	-38,613
982,3	-36,813
982,7	-44,613
983,1	-47,653
983,6	-44,613
984	-44,493
984,4	-46,733
984,8	-45,053
985,2	-40,733
985,6	-48,733
986,1	-53,573
986,5	-46,413
986,9	-43,973
987,3	-47,173
987,7	-45,453
988,2	-42,013
988,6	-47,373
989	-49,493
989,4	-55,653
989,8	-61,453
990,3	-62,653
990,7	-64,773
991,1	-59,013
991,5	-51,613
991,9	-41,133
992,3	-43,493
992,8	-39,933
993,2	-41,413
993,6	-38,893
994	-42,893
994,4	-40,573
994,9	-43,933
995,3	-49,733
995,7	-54,013
996,1	-51,173
996,5	-44,533
996,9	-47,133
997,4	-46,813
997,8	-47,053
998,2	-47,893
998,6	-53,413
999	-48,653
999,5	-49,693
999,9	-47,413
1000,3	-49,413
1000,7	-47,973
1001,1	-49,013
1001,5	-45,733
1002	-45,853
1002,4	-46,853
1002,8	-48,613
1003,2	-48,973
1003,6	-50,013
1004	-49,133
1004,5	-54,093
1004,9	-54,293
1005,3	-54,613
1005,7	-55,413
1006,1	-60,333
1006,6	-57,173
1007	-55,973
1007,4	-53,933
1007,8	-50,453
1008,2	-45,813
1008,6	-43,293
1009,1	-43,773
1009,5	-44,253
1009,9	-49,133
1010,3	-48,733
1010,7	-48,733
1011,1	-42,373
1011,6	-40,813
1012	-36,613
1012,4	-41,573
1012,8	-43,653
1013,2	-56,693
1013,6	-60,093
1014,1	-60,133
1014,5	-57,653
1014,9	-53,613
1015,3	-43,813
1015,7	-45,253
1016,1	-52,293
1016,6	-54,493
1017	-56,573
1017,4	-58,053
1017,8	-56,053
1018,2	-44,533
1018,6	-41,173
1019,1	-43,853
1019,5	-43,173
1019,9	-39,333
1020,3	-48,653
1020,7	-45,893
1021,1	-43,453
1021,6	-42,813
1022	-45,693
1022,4	-44,413
1022,8	-47,893
1023,2	-51,413
1023,6	-57,013
1024,1	-57,333
1024,5	-56,693
1024,9	-59,533
1025,3	-58,613
1025,7	-58,293
1026,1	-57,173
1026,6	-57,213
1027	-56,853
1027,4	-55,653
1027,8	-52,413
1028,2	-55,733
1028,6	-52,813
1029	-52,853
1029,5	-49,333
1029,9	-44,813
1030,3	-46,893
1030,7	-48,253
1031,1	-46,213
1031,5	-49,213
1032	-57,853
1032,4	-55,373
1032,8	-54,293
1033,2	-53,813
1033,6	-57,013
1034	-54,453
1034,4	-57,853
1034,9	-60,693
1035,3	-62,333
1035,7	-63,653
1036,1	-65,773
1036,5	-59,973
1036,9	-53,933
1037,4	-60,773
1037,8	-51,933
1038,2	-56,533
1038,6	-60,653
1039	-66,653
1039,4	-60,333
1039,8	-68,973
1040,3	-62,693
1040,7	-60,493
1041,1	-59,773
1041,5	-63,013
1041,9	-62,453
1042,3	-66,093
1042,7	-64,933
1043,2	-67,013
1043,6	-63,613
1044	-56,773
1044,4	-50,693
1044,8	-52,893
1045,2	-48,933
1045,6	-44,933
1046,1	-45,693
1046,5	-46,893
1046,9	-49,573
1047,3	-48,693
1047,7	-52,333
1048,1	-57,293
1048,5	-65,813
1049	-59,253
1049,4	-58,973
1049,8	-62,453
1050,2	-55,893
1050,6	-47,333
1051	-52,253
1051,4	-55,173
1051,9	-54,973
1052,3	-57,853
1052,7	-65,093
1053,1	-66,053
1053,5	-70,213
1053,9	-67,133
1054,3	-73,533
1054,8	-74,253
1055,2	-65,693
1055,6	-65,293
1056	-68,213
1056,4	-63,133
1056,8	-54,413
1057,2	-58,853
1057,6	-56,133
1058,1	-56,853
1058,5	-61,053
1058,9	-63,613
1059,3	-63,093
1059,7	-64,853
1060,1	-61,373
1060,5	-60,973
1061	-61,773
1061,4	-60,493
1061,8	-56,213
1062,2	-58,693
1062,6	-57,813
1063	-57,853
1063,4	-62,653
1063,8	-62,653
1064,3	-56,893
1064,7	-48,653
1065,1	-47,973
1065,5	-44,453
1065,9	-44,213
1066,3	-49,773
1066,7	-55,693
1067,1	-55,773
1067,6	-58,413
1068	-58,893
1068,4	-51,693
1068,8	-52,053
1069,2	-48,653
1069,6	-47,973
1070	-41,733
1070,4	-49,613
1070,9	-53,053
1071,3	-54,973
1071,7	-51,653
1072,1	-60,333
1072,5	-59,853
1072,9	-55,533
1073,3	-61,333
1073,7	-64,253
1074,2	-62,533
1074,6	-54,973
1075	-56,493
1075,4	-48,213
1075,8	-50,373
1076,2	-49,013
1076,6	-50,133
1077	-47,733
1077,5	-51,413
1077,9	-49,653
1078,3	-51,573
1078,7	-53,173
1079,1	-56,733
1079,5	-54,573
1079,9	-56,493
1080,3	-55,133
1080,7	-55,253
1081,2	-57,333
1081,6	-51,773
1082	-52,733
1082,4	-51,773
1082,8	-50,533
1083,2	-40,493
1083,6	-46,333
1084	-42,213
1084,5	-48,733
1084,9	-50,493
1085,3	-54,933
1085,7	-58,973
1086,1	-59,413
1086,5	-55,413
1086,9	-54,493
1087,3	-53,453
1087,7	-50,093
1088,2	-45,213
1088,6	-41,773
1089	-44,773
1089,4	-41,173
1089,8	-41,133
1090,2	-45,453
1090,6	-42,253
1091	-38,093
1091,4	-39,293
1091,9	-34,573
1092,3	-34,013
1092,7	-32,773
1093,1	-33,333
1093,5	-35,973
1093,9	-38,133
1094,3	-34,573
1094,7	-40,893
1095,1	-43,453
1095,5	-45,733
1096	-45,773
1096,4	-47,333
1096,8	-44,893
1097,2	-41,093
1097,6	-36,173
1098	-40,773
1098,4	-39,973
1098,8	-37,893
1099,2	-38,573
1099,6	-38,613
1100,1	-30,133
1100,5	-27,533
1100,9	-28,733
1101,3	-26,013
1101,7	-29,493
1102,1	-33,093
1102,5	-37,093
1102,9	-38,693
1103,3	-41,853
1103,7	-39,893
1104,2	-40,853
1104,6	-43,293
1105	-41,493
1105,4	-39,813
1105,8	-36,533
1106,2	-28,253
1106,6	-18,413
1107	-11,533
1107,4	-5,213
1107,8	-0,283
1108,3	-0,6
