Data from Subt2_00075.txt Node
Date: Fri Aug 11 16:34:20 MSK 2023
User: vat
Spectrometer: MAYP114033
Trigger mode: 0
Integration Time (sec): 5,000000E-1
Scans to average: 5
Electric dark correction enabled: true
Nonlinearity correction enabled: false
Boxcar width: 2
XAxis mode: Wavelengths
Number of Pixels in Spectrum: 2068
>>>>>Begin Spectral Data<<<<<
199,4	1,233
199,9	0,933
200,4	1,513
200,8	1,553
201,3	2,793
201,8	2,913
202,2	0,993
202,7	3,193
203,2	7,713
203,6	7,193
204,1	6,633
204,6	10,993
205	7,993
205,5	3,753
206	3,953
206,4	3,033
206,9	1,993
207,4	4,553
207,8	5,073
208,3	1,713
208,8	4,753
209,2	5,793
209,7	1,313
210,2	3,833
210,6	8,273
211,1	8,793
211,5	8,073
212	11,553
212,5	3,873
212,9	1,913
213,4	1,673
213,9	-1,967
214,3	-3,727
214,8	-0,487
215,3	1,073
215,7	-2,407
216,2	-0,047
216,7	-2,007
217,1	-1,047
217,6	-4,607
218,1	-4,207
218,5	-0,887
219	-1,087
219,5	3,393
219,9	2,993
220,4	8,193
220,9	4,353
221,3	8,033
221,8	1,273
222,3	1,793
222,7	-5,527
223,2	-5,807
223,6	-4,887
224,1	3,273
224,6	10,433
225	13,673
225,5	9,073
226	7,193
226,4	-7,047
226,9	-13,727
227,4	-14,607
227,8	-12,927
228,3	-16,647
228,8	-5,527
229,2	-6,887
229,7	-7,407
230,2	-0,127
230,6	1,393
231,1	-2,327
231,5	1,353
232	9,073
232,5	7,153
232,9	7,153
233,4	6,993
233,9	7,593
234,3	3,193
234,8	1,993
235,3	-1,287
235,7	0,553
236,2	-0,407
236,7	-3,087
237,1	-4,287
237,6	3,633
238,1	6,593
238,5	6,273
239	3,593
239,4	3,193
239,9	3,473
240,4	0,113
240,8	5,713
241,3	9,193
241,8	5,193
242,2	-1,127
242,7	-2,927
243,2	-10,127
243,6	-9,887
244,1	-11,327
244,6	-10,287
245	-10,887
245,5	-9,127
245,9	-8,767
246,4	-4,687
246,9	-0,127
247,3	2,153
247,8	-0,807
248,3	-2,327
248,7	-1,967
249,2	-0,407
249,7	-1,927
250,1	-0,847
250,6	-4,407
251	-4,127
251,5	-7,647
252	-4,687
252,4	-0,007
252,9	5,033
253,4	3,153
253,8	2,753
254,3	3,033
254,8	0,873
255,2	1,633
255,7	7,833
256,1	4,513
256,6	2,113
257,1	-0,047
257,5	-1,967
258	-4,007
258,5	-1,727
258,9	-7,087
259,4	-5,687
259,9	-3,167
260,3	-9,327
260,8	-5,407
261,2	3,393
261,7	0,113
262,2	-5,247
262,6	-1,807
263,1	-2,687
263,6	-3,047
264	0,833
264,5	4,073
264,9	8,953
265,4	3,993
265,9	0,153
266,3	3,273
266,8	5,233
267,3	2,753
267,7	4,873
268,2	7,393
268,7	4,433
269,1	3,513
269,6	2,713
270	-1,167
270,5	-3,967
271	-8,927
271,4	-8,767
271,9	-9,847
272,4	-4,487
272,8	-3,807
273,3	0,593
273,7	-0,927
274,2	-0,287
274,7	1,753
275,1	2,273
275,6	1,193
276,1	-1,767
276,5	0,753
277	-1,527
277,4	1,673
277,9	7,353
278,4	10,473
278,8	10,273
279,3	12,113
279,8	8,513
280,2	6,993
280,7	9,913
281,1	7,513
281,6	3,313
282,1	6,793
282,5	1,433
283	0,633
283,4	2,513
283,9	5,153
284,4	4,553
284,8	0,993
285,3	-0,207
285,8	0,153
286,2	-4,367
286,7	-6,287
287,1	-3,607
287,6	-2,767
288,1	-2,527
288,5	6,113
289	0,313
289,5	1,553
289,9	0,993
290,4	1,433
290,8	1,833
291,3	6,913
291,8	11,753
292,2	13,473
292,7	10,873
293,1	5,953
293,6	9,753
294,1	5,153
294,5	3,593
295	6,153
295,5	4,873
295,9	-1,407
296,4	3,873
296,8	0,273
297,3	-1,567
297,8	1,793
298,2	8,953
298,7	1,833
299,1	2,153
299,6	2,953
300,1	-4,287
300,5	-7,487
301	-7,127
301,5	-6,647
301,9	-11,607
302,4	-9,607
302,8	-11,607
303,3	-5,487
303,8	-5,727
304,2	-1,407
304,7	5,553
305,1	5,593
305,6	0,753
306,1	3,073
306,5	-3,927
307	-3,807
307,4	-3,927
307,9	-6,087
308,4	-6,647
308,8	-1,247
309,3	-3,727
309,8	-5,047
310,2	-2,047
310,7	1,713
311,1	0,673
311,6	-4,247
312,1	1,873
312,5	-0,247
313	-3,527
313,4	-0,807
313,9	4,673
314,4	-4,087
314,8	-6,167
315,3	-5,807
315,7	-8,807
316,2	-11,047
316,7	-9,487
317,1	-7,407
317,6	-7,367
318	-4,887
318,5	-0,527
319	-3,967
319,4	5,273
319,9	4,993
320,3	5,313
320,8	-3,247
321,3	3,233
321,7	-1,247
322,2	-0,647
322,6	-3,767
323,1	-0,567
323,6	-3,207
324	-2,967
324,5	-5,847
324,9	-1,007
325,4	-3,567
325,9	0,513
326,3	1,273
326,8	1,233
327,2	-0,687
327,7	1,153
328,2	3,153
328,6	1,153
329,1	3,753
329,5	3,713
330	9,713
330,5	8,793
330,9	5,513
331,4	1,793
331,8	-1,807
332,3	-3,287
332,8	-7,447
333,2	-5,607
333,7	-4,727
334,1	0,473
334,6	-3,247
335,1	-0,007
335,5	-4,407
336	-2,287
336,4	-5,367
336,9	-5,487
337,4	-15,967
337,8	-9,807
338,3	-7,167
338,7	-2,167
339,2	-2,607
339,7	9,633
340,1	10,433
340,6	9,633
341	9,313
341,5	12,873
342	7,433
342,4	2,033
342,9	-1,767
343,3	-8,007
343,8	-10,287
344,2	-6,527
344,7	-5,127
345,2	-7,247
345,6	2,593
346,1	0,113
346,5	3,633
347	8,753
347,5	10,553
347,9	5,513
348,4	12,593
348,8	7,633
349,3	4,073
349,8	10,833
350,2	9,673
350,7	4,673
351,1	8,833
351,6	12,553
352	3,873
352,5	5,673
353	12,993
353,4	12,593
353,9	7,993
354,3	18,473
354,8	14,673
355,3	14,553
355,7	18,953
356,2	31,073
356,6	34,273
357,1	51,873
357,5	57,993
358	64,273
358,5	73,113
358,9	90,233
359,4	102,473
359,8	124,753
360,3	147,993
360,8	171,633
361,2	185,313
361,7	208,913
362,1	240,113
362,6	272,833
363	309,833
363,5	353,553
364	395,513
364,4	426,993
364,9	460,313
365,3	499,033
365,8	536,753
366,3	568,833
366,7	602,433
367,2	633,993
367,6	651,233
368,1	663,633
368,5	673,793
369	681,073
369,5	677,793
369,9	675,393
370,4	664,553
370,8	651,553
371,3	626,553
371,7	607,633
372,2	573,993
372,7	546,073
373,1	514,033
373,6	490,153
374	457,713
374,5	431,473
374,9	404,393
375,4	373,153
375,9	342,313
376,3	315,793
376,8	291,993
377,2	267,913
377,7	250,873
378,2	232,713
378,6	215,353
379,1	194,153
379,5	181,313
380	162,313
380,4	141,233
380,9	129,153
381,4	120,873
381,8	110,353
382,3	106,393
382,7	105,993
383,2	92,353
383,6	83,433
384,1	75,993
384,6	65,593
385	52,753
385,5	48,433
385,9	49,393
386,4	49,233
386,8	49,273
387,3	46,873
387,7	45,873
388,2	37,753
388,7	28,393
389,1	22,913
389,6	22,553
390	23,553
390,5	19,353
390,9	18,873
391,4	21,993
391,9	23,633
392,3	17,873
392,8	21,873
393,2	19,793
393,7	16,233
394,1	16,113
394,6	21,433
395,1	13,353
395,5	15,313
396	16,993
396,4	12,593
396,9	6,633
397,3	14,433
397,8	10,793
398,2	8,393
398,7	8,713
399,2	10,913
399,6	8,153
400,1	8,593
400,5	6,753
401	11,153
401,4	8,793
401,9	10,673
402,4	14,873
402,8	16,753
403,3	11,273
403,7	12,433
404,2	11,433
404,6	10,873
405,1	15,233
405,5	18,193
406	17,233
406,5	16,113
406,9	17,273
407,4	9,993
407,8	9,353
408,3	10,993
408,7	13,913
409,2	9,073
409,6	14,633
410,1	20,753
410,6	27,313
411	30,393
411,5	29,393
411,9	25,593
412,4	23,953
412,8	20,913
413,3	23,633
413,7	27,993
414,2	33,793
414,7	31,633
415,1	32,753
415,6	28,033
416	27,793
416,5	26,273
416,9	31,753
417,4	30,793
417,8	37,753
418,3	45,193
418,8	47,713
419,2	50,913
419,7	53,713
420,1	55,673
420,6	55,473
421	56,913
421,5	58,233
421,9	56,393
422,4	53,673
422,8	52,273
423,3	51,113
423,8	46,593
424,2	54,953
424,7	54,753
425,1	55,033
425,6	59,073
426	64,873
426,5	60,873
426,9	62,153
427,4	69,393
427,9	75,113
428,3	71,953
428,8	75,953
429,2	76,873
429,7	77,873
430,1	72,993
430,6	76,513
431	80,353
431,5	83,753
431,9	86,633
432,4	88,473
432,8	92,153
433,3	92,753
433,8	103,793
434,2	105,793
434,7	114,833
435,1	117,993
435,6	118,993
436	118,113
436,5	121,913
436,9	128,313
437,4	136,153
437,8	144,593
438,3	151,753
438,8	155,473
439,2	161,473
439,7	163,393
440,1	172,793
440,6	175,993
441	185,113
441,5	182,873
441,9	189,313
442,4	197,273
442,8	203,513
443,3	218,633
443,7	238,713
444,2	255,153
444,7	268,633
445,1	280,393
445,6	291,593
446	302,553
446,5	307,113
446,9	317,433
447,4	332,193
447,8	335,993
448,3	346,673
448,7	370,273
449,2	379,633
449,6	391,953
450,1	410,833
450,6	419,313
451	430,993
451,5	449,033
451,9	464,673
452,4	483,513
452,8	503,513
453,3	519,673
453,7	540,193
454,2	559,313
454,6	572,753
455,1	589,793
455,5	613,873
456	625,993
456,4	644,473
456,9	665,553
457,3	686,113
457,8	696,953
458,3	717,753
458,7	735,513
459,2	751,833
459,6	771,353
460,1	792,273
460,5	818,993
461	837,313
461,4	864,313
461,9	890,673
462,3	914,033
462,8	939,713
463,2	970,993
463,7	992,553
464,1	1013,353
464,6	1038,473
465	1054,953
465,5	1074,513
466	1094,353
466,4	1114,553
466,9	1134,473
467,3	1159,633
467,8	1186,113
468,2	1209,473
468,7	1232,393
469,1	1255,073
469,6	1279,513
470	1308,513
470,5	1327,073
470,9	1355,873
471,4	1376,753
471,8	1398,593
472,3	1411,953
472,7	1450,313
473,2	1467,153
473,6	1499,033
474,1	1511,833
474,5	1537,313
475	1555,233
475,4	1585,233
475,9	1601,433
476,4	1627,953
476,8	1648,113
477,3	1667,033
477,7	1684,873
478,2	1704,753
478,6	1729,553
479,1	1747,353
479,5	1766,793
480	1782,073
480,4	1802,833
480,9	1826,113
481,3	1847,153
481,8	1862,993
482,2	1885,273
482,7	1895,993
483,1	1905,433
483,6	1924,153
484	1943,393
484,5	1951,833
484,9	1975,673
485,4	1990,113
485,8	2002,793
486,3	2008,873
486,7	2022,633
487,2	2033,553
487,6	2042,713
488,1	2043,233
488,5	2052,753
489	2067,313
489,4	2072,633
489,9	2083,393
490,4	2095,793
490,8	2104,593
491,3	2118,433
491,7	2133,193
492,2	2136,313
492,6	2147,633
493,1	2155,273
493,5	2151,593
494	2142,873
494,4	2153,793
494,9	2150,553
495,3	2157,073
495,8	2160,793
496,2	2171,913
496,7	2167,793
497,1	2178,393
497,6	2178,393
498	2183,713
498,5	2183,033
498,9	2185,193
499,4	2175,473
499,8	2178,593
500,3	2170,553
500,7	2171,313
501,2	2171,233
501,6	2184,113
502,1	2180,833
502,5	2187,433
503	2189,593
503,4	2189,993
503,9	2179,153
504,3	2176,153
504,8	2175,353
505,2	2167,513
505,7	2166,713
506,1	2164,473
506,6	2165,833
507	2160,913
507,5	2155,473
507,9	2144,793
508,4	2143,793
508,8	2141,233
509,3	2133,513
509,7	2137,753
510,2	2138,873
510,6	2134,993
511,1	2122,433
511,5	2117,433
512	2113,353
512,4	2108,953
512,9	2102,073
513,3	2103,913
513,8	2102,553
514,2	2095,913
514,7	2091,553
515,1	2096,553
515,6	2090,993
516	2087,353
516,5	2084,193
516,9	2079,833
517,4	2071,953
517,8	2069,513
518,3	2060,993
518,7	2050,793
519,2	2045,433
519,6	2037,553
520,1	2026,993
520,5	2030,473
521	2029,273
521,4	2027,473
521,9	2024,273
522,3	2024,513
522,8	2014,073
523,2	2013,793
523,7	2012,513
524,1	2012,593
524,6	2011,873
525	2015,673
525,5	2014,233
525,9	2012,833
526,4	1999,673
526,8	1991,873
527,3	1983,633
527,7	1975,553
528,2	1971,433
528,6	1979,633
529,1	1979,673
529,5	1983,513
530	1985,953
530,4	1981,993
530,9	1971,473
531,3	1972,193
531,8	1966,353
532,2	1958,913
532,6	1956,793
533,1	1962,993
533,5	1955,993
534	1952,833
534,4	1950,793
534,9	1949,433
535,3	1947,113
535,8	1951,553
536,2	1952,113
536,7	1952,633
537,1	1953,793
537,6	1943,633
538	1943,233
538,5	1942,633
538,9	1944,073
539,4	1938,393
539,8	1944,673
540,3	1938,593
540,7	1930,713
541,2	1924,153
541,6	1920,193
542,1	1912,953
542,5	1915,593
543	1919,273
543,4	1924,153
543,9	1927,313
544,3	1936,273
544,8	1936,913
545,2	1936,033
545,7	1934,073
546,1	1935,593
546,5	1924,993
547	1919,513
547,4	1918,793
547,9	1914,993
548,3	1915,713
548,8	1913,593
549,2	1910,153
549,7	1904,033
550,1	1904,233
550,6	1899,313
551	1902,273
551,5	1904,113
551,9	1906,633
552,4	1906,993
552,8	1905,953
553,3	1905,033
553,7	1906,033
554,2	1905,793
554,6	1910,993
555,1	1911,073
555,5	1919,113
555,9	1916,313
556,4	1914,113
556,8	1904,473
557,3	1907,713
557,7	1899,393
558,2	1897,873
558,6	1906,673
559,1	1907,233
559,5	1904,513
560	1907,313
560,4	1911,073
560,9	1905,953
561,3	1908,353
561,8	1912,873
562,2	1913,953
562,7	1912,193
563,1	1910,553
563,6	1908,473
564	1905,713
564,4	1904,233
564,9	1902,593
565,3	1903,873
565,8	1900,513
566,2	1904,913
566,7	1902,633
567,1	1903,913
567,6	1905,913
568	1912,953
568,5	1907,633
568,9	1905,633
569,4	1906,153
569,8	1896,233
570,3	1894,353
570,7	1889,953
571,1	1885,673
571,6	1880,753
572	1889,073
572,5	1880,233
572,9	1875,553
573,4	1877,953
573,8	1871,913
574,3	1864,193
574,7	1861,033
575,2	1862,673
575,6	1858,793
576,1	1861,313
576,5	1859,513
576,9	1860,673
577,4	1851,193
577,8	1842,993
578,3	1837,033
578,7	1834,593
579,2	1832,313
579,6	1833,713
580,1	1835,713
580,5	1831,633
581	1828,913
581,4	1824,793
581,9	1824,033
582,3	1819,513
582,7	1823,193
583,2	1811,953
583,6	1804,193
584,1	1804,353
584,5	1801,993
585	1789,873
585,4	1789,553
585,9	1792,073
586,3	1785,073
586,8	1773,553
587,2	1773,033
587,6	1769,433
588,1	1767,153
588,5	1760,873
589	1767,753
589,4	1760,833
589,9	1761,593
590,3	1747,753
590,8	1740,953
591,2	1728,273
591,7	1726,233
592,1	1717,953
592,5	1719,233
593	1714,713
593,4	1714,513
593,9	1712,553
594,3	1706,633
594,8	1702,553
595,2	1702,473
595,7	1690,033
596,1	1681,313
596,6	1680,153
597	1672,873
597,4	1662,273
597,9	1662,793
598,3	1666,113
598,8	1659,273
599,2	1653,673
599,7	1649,393
600,1	1650,193
600,6	1640,153
601	1632,713
601,4	1631,513
601,9	1627,873
602,3	1612,473
602,8	1605,273
603,2	1605,993
603,7	1597,273
604,1	1592,313
604,6	1600,313
605	1598,233
605,4	1588,633
605,9	1588,393
606,3	1585,633
606,8	1574,833
607,2	1567,513
607,7	1567,113
608,1	1557,513
608,6	1552,553
609	1551,113
609,4	1541,633
609,9	1535,113
610,3	1531,833
610,8	1526,633
611,2	1520,553
611,7	1516,993
612,1	1510,793
612,6	1497,793
613	1492,073
613,4	1482,153
613,9	1479,313
614,3	1469,033
614,8	1476,033
615,2	1467,953
615,7	1464,633
616,1	1458,553
616,6	1456,833
617	1440,793
617,4	1429,993
617,9	1417,393
618,3	1408,673
618,8	1397,353
619,2	1397,913
619,7	1395,353
620,1	1391,353
620,5	1384,233
621	1384,033
621,4	1371,273
621,9	1361,513
622,3	1362,993
622,8	1360,793
623,2	1350,713
623,6	1343,673
624,1	1342,313
624,5	1328,913
625	1320,113
625,4	1318,273
625,9	1318,673
626,3	1310,993
626,8	1303,953
627,2	1299,033
627,6	1286,073
628,1	1280,313
628,5	1273,393
629	1268,673
629,4	1268,713
629,9	1260,833
630,3	1251,033
630,7	1242,353
631,2	1232,113
631,6	1214,473
632,1	1213,113
632,5	1199,233
633	1193,433
633,4	1195,113
633,8	1188,393
634,3	1180,753
634,7	1181,393
635,2	1179,633
635,6	1163,273
636,1	1159,233
636,5	1150,673
636,9	1144,673
637,4	1134,673
637,8	1132,953
638,3	1126,273
638,7	1118,113
639,2	1115,033
639,6	1112,473
640	1103,513
640,5	1099,433
640,9	1099,113
641,4	1083,393
641,8	1073,553
642,2	1070,193
642,7	1060,393
643,1	1056,153
643,6	1059,233
644	1050,753
644,5	1042,353
644,9	1044,673
645,3	1035,313
645,8	1024,873
646,2	1022,313
646,7	1015,473
647,1	1007,153
647,6	1001,713
648	998,393
648,4	996,193
648,9	992,113
649,3	983,353
649,8	975,433
650,2	973,713
650,6	963,913
651,1	964,913
651,5	961,473
652	961,313
652,4	957,593
652,9	946,353
653,3	940,913
653,7	930,433
654,2	921,833
654,6	907,953
655,1	908,033
655,5	895,993
655,9	897,913
656,4	891,873
656,8	894,593
657,3	890,953
657,7	888,313
658,2	882,393
658,6	883,393
659	870,473
659,5	863,073
659,9	860,953
660,4	857,553
660,8	845,473
661,2	842,993
661,7	840,273
662,1	836,593
662,6	825,753
663	826,473
663,4	824,193
663,9	819,193
664,3	810,913
664,8	808,313
665,2	804,353
665,6	801,753
666,1	794,353
666,5	790,713
667	788,593
667,4	776,793
667,9	765,593
668,3	761,953
668,7	758,353
669,2	747,233
669,6	743,193
670,1	742,913
670,5	734,593
670,9	726,153
671,4	723,393
671,8	718,953
672,3	713,953
672,7	715,313
673,1	711,593
673,6	708,113
674	700,633
674,5	686,313
674,9	677,833
675,3	675,113
675,8	667,513
676,2	663,353
676,7	669,793
677,1	665,553
677,5	658,873
678	658,113
678,4	655,673
678,9	644,353
679,3	643,193
679,7	639,993
680,2	633,593
680,6	626,153
681,1	627,553
681,5	618,913
681,9	614,233
682,4	614,433
682,8	616,153
683,3	611,113
683,7	608,073
684,1	605,833
684,6	597,433
685	587,433
685,5	577,793
685,9	576,593
686,3	567,073
686,8	565,273
687,2	568,953
687,7	566,393
688,1	558,513
688,5	557,833
689	551,673
689,4	543,193
689,9	538,273
690,3	536,433
690,7	528,193
691,2	521,273
691,6	517,313
692	515,313
692,5	515,193
692,9	513,433
693,4	513,513
693,8	511,673
694,2	508,753
694,7	503,153
695,1	503,353
695,6	498,713
696	493,593
696,4	487,353
696,9	480,753
697,3	476,153
697,8	477,073
698,2	479,753
698,6	481,913
699,1	480,953
699,5	483,993
699,9	481,273
700,4	475,633
700,8	476,353
701,3	473,793
701,7	461,113
702,1	458,113
702,6	453,793
703	440,233
703,5	435,593
703,9	433,113
704,3	434,113
704,8	428,993
705,2	430,873
705,6	430,673
706,1	430,473
706,5	414,353
707	413,833
707,4	411,993
707,8	407,713
708,3	400,513
708,7	409,393
709,2	409,393
709,6	404,233
710	401,913
710,5	402,513
710,9	399,713
711,3	394,033
711,8	392,233
712,2	393,193
712,7	387,393
713,1	376,633
713,5	372,313
714	366,113
714,4	357,713
714,8	364,113
715,3	364,433
715,7	367,193
716,2	370,553
716,6	369,633
717	362,273
717,5	361,473
717,9	355,553
718,3	346,233
718,8	344,793
719,2	336,873
719,7	332,233
720,1	332,433
720,5	334,553
721	327,113
721,4	329,953
721,8	327,113
722,3	322,273
722,7	319,873
723,2	319,993
723,6	313,993
724	310,033
724,5	300,993
724,9	295,273
725,3	295,953
725,8	296,153
726,2	296,393
726,7	296,753
727,1	293,593
727,5	284,033
728	281,593
728,4	278,913
728,8	273,953
729,3	275,513
729,7	279,913
730,1	281,913
730,6	278,153
731	281,193
731,5	277,793
731,9	273,513
732,3	271,313
732,8	264,833
733,2	264,473
733,6	262,353
734,1	263,233
734,5	252,833
734,9	263,153
735,4	261,713
735,8	263,553
736,3	266,633
736,7	272,353
737,1	263,553
737,6	265,473
738	261,313
738,4	260,433
738,9	253,673
739,3	252,113
739,7	240,473
740,2	242,593
740,6	232,113
741,1	234,953
741,5	236,073
741,9	244,153
742,4	237,433
742,8	238,193
743,2	235,153
743,7	233,633
744,1	224,553
744,5	225,713
745	223,393
745,4	221,833
745,8	214,553
746,3	209,673
746,7	205,993
747,2	201,593
747,6	203,793
748	204,313
748,5	206,553
748,9	203,313
749,3	200,153
749,8	200,473
750,2	203,993
750,6	205,673
751,1	207,673
751,5	214,593
751,9	211,673
752,4	205,793
752,8	205,273
753,3	207,993
753,7	203,873
754,1	203,793
754,6	203,473
755	195,593
755,4	194,593
755,9	194,073
756,3	191,193
756,7	188,233
757,2	194,193
757,6	187,033
758	188,393
758,5	185,753
758,9	188,433
759,3	178,193
759,8	182,193
760,2	176,753
760,6	173,193
761,1	166,633
761,5	170,873
761,9	168,553
762,4	165,433
762,8	164,073
763,3	167,553
763,7	166,793
764,1	161,273
764,6	162,513
765	159,713
765,4	152,073
765,9	148,993
766,3	148,753
766,7	149,193
767,2	153,313
767,6	159,593
768	168,313
768,5	166,313
768,9	163,313
769,3	161,353
769,8	160,993
770,2	153,593
770,6	158,433
771,1	160,153
771,5	159,073
771,9	157,433
772,4	158,673
772,8	152,033
773,2	145,833
773,7	147,033
774,1	144,313
774,5	137,313
775	136,273
775,4	140,113
775,8	139,393
776,3	136,993
776,7	134,953
777,1	133,673
777,6	127,113
778	126,673
778,4	125,953
778,9	131,393
779,3	132,113
779,7	135,673
780,2	130,113
780,6	128,593
781	123,753
781,5	126,033
781,9	121,073
782,3	117,913
782,8	112,553
783,2	112,073
783,6	113,753
784,1	114,313
784,5	112,073
784,9	120,073
785,4	120,113
785,8	112,553
786,2	113,833
786,7	113,153
787,1	109,793
787,5	104,033
788	101,633
788,4	102,353
788,8	108,593
789,3	98,993
789,7	101,673
790,1	101,713
790,6	93,153
791	84,073
791,4	93,953
791,9	93,513
792,3	91,393
792,7	94,953
793,2	101,513
793,6	100,233
794	99,473
794,5	99,393
794,9	102,033
795,3	97,513
795,8	90,913
796,2	90,193
796,6	94,473
797,1	91,153
797,5	90,593
797,9	93,113
798,4	91,633
798,8	91,153
799,2	90,993
799,7	90,193
800,1	90,793
800,5	92,273
801	88,273
801,4	86,713
801,8	90,433
802,2	89,793
802,7	92,873
803,1	96,193
803,5	93,553
804	88,433
804,4	89,913
804,8	87,153
805,3	82,633
805,7	83,153
806,1	77,913
806,6	74,193
807	71,033
807,4	72,433
807,9	76,073
808,3	79,193
808,7	79,393
809,2	79,993
809,6	77,553
810	75,873
810,4	76,873
810,9	76,833
811,3	78,513
811,7	78,753
812,2	76,313
812,6	77,113
813	74,193
813,5	74,153
813,9	71,113
814,3	73,433
814,8	74,473
815,2	74,593
815,6	69,873
816,1	70,473
816,5	68,553
816,9	63,873
817,3	63,673
817,8	65,473
818,2	63,113
818,6	63,233
819,1	58,993
819,5	59,993
819,9	56,873
820,4	60,993
820,8	62,673
821,2	69,593
821,7	62,913
822,1	59,553
822,5	54,233
822,9	49,273
823,4	44,913
823,8	44,393
824,2	47,993
824,7	54,273
825,1	56,953
825,5	57,113
826	62,793
826,4	58,633
826,8	56,113
827,3	53,873
827,7	52,753
828,1	49,633
828,5	56,153
829	54,713
829,4	50,993
829,8	53,673
830,3	55,793
830,7	50,313
831,1	48,953
831,6	50,993
832	51,633
832,4	55,353
832,8	58,273
833,3	55,633
833,7	59,273
834,1	51,553
834,6	51,193
835	48,753
835,4	48,153
835,8	39,753
836,3	41,313
836,7	36,593
837,1	33,153
837,6	36,833
838	41,713
838,4	44,833
838,9	42,753
839,3	46,713
839,7	49,993
840,1	47,313
840,6	39,873
841	36,193
841,4	33,433
841,9	24,273
842,3	20,033
842,7	30,873
843,1	31,673
843,6	27,393
844	30,873
844,4	35,993
844,9	33,353
845,3	39,393
845,7	44,393
846,2	45,033
846,6	43,193
847	43,513
847,4	38,393
847,9	38,833
848,3	35,073
848,7	35,353
849,2	31,393
849,6	34,473
850	32,193
850,4	33,313
850,9	33,593
851,3	36,153
851,7	28,393
852,2	31,953
852,6	31,873
853	34,553
853,4	35,353
853,9	41,073
854,3	37,313
854,7	39,273
855,2	37,593
855,6	28,953
856	24,393
856,4	25,233
856,9	22,873
857,3	21,393
857,7	32,913
858,2	35,473
858,6	35,513
859	38,433
859,4	42,513
859,9	33,793
860,3	34,593
860,7	30,993
861,1	30,873
861,6	24,833
862	29,993
862,4	27,753
862,9	29,073
863,3	22,193
863,7	24,273
864,1	23,553
864,6	27,913
865	29,553
865,4	32,753
865,9	28,513
866,3	26,033
866,7	24,033
867,1	26,913
867,6	26,593
868	25,753
868,4	26,353
868,8	24,993
869,3	26,953
869,7	24,673
870,1	27,913
870,6	26,633
871	24,593
871,4	27,713
871,8	30,153
872,3	27,753
872,7	21,513
873,1	24,993
873,5	10,393
874	12,073
874,4	17,713
874,8	22,233
875,3	19,153
875,7	23,913
876,1	21,673
876,5	20,113
877	21,473
877,4	23,233
877,8	25,273
878,2	27,753
878,7	28,833
879,1	26,793
879,5	29,273
879,9	29,273
880,4	31,073
880,8	29,193
881,2	29,353
881,7	27,033
882,1	22,713
882,5	20,553
882,9	20,953
883,4	23,433
883,8	25,953
884,2	27,033
884,6	25,313
885,1	19,393
885,5	13,233
885,9	10,993
886,3	11,113
886,8	10,713
887,2	11,433
887,6	16,273
888	16,753
888,5	20,553
888,9	22,833
889,3	24,633
889,8	22,713
890,2	16,873
890,6	13,953
891	6,873
891,5	10,513
891,9	14,193
892,3	16,753
892,7	19,913
893,2	24,153
893,6	17,633
894	16,433
894,4	12,993
894,9	11,073
895,3	13,393
895,7	14,553
896,1	18,273
896,6	23,753
897	26,273
897,4	21,233
897,8	23,993
898,3	19,313
898,7	15,473
899,1	12,673
899,5	12,753
900	13,073
900,4	14,473
900,8	13,153
901,2	6,473
901,7	10,833
902,1	10,153
902,5	6,833
902,9	8,233
903,4	13,633
903,8	11,953
904,2	8,473
904,6	13,153
905,1	11,793
905,5	12,513
905,9	11,033
906,3	12,953
906,8	9,993
907,2	17,033
907,6	13,873
908	14,913
908,5	11,153
908,9	9,033
909,3	3,553
909,7	4,673
910,2	5,793
910,6	10,073
911	10,593
911,4	10,873
911,9	12,593
912,3	8,953
912,7	11,113
913,1	9,353
913,6	9,473
914	5,393
914,4	8,593
914,8	7,713
915,3	9,593
915,7	10,113
916,1	12,473
916,5	9,593
916,9	6,353
917,4	6,113
917,8	8,313
918,2	8,353
918,6	9,713
919,1	11,713
919,5	6,953
919,9	8,513
920,3	5,193
920,8	12,033
921,2	10,433
921,6	15,793
922	6,993
922,5	7,513
922,9	2,633
923,3	1,873
923,7	0,393
924,2	-1,727
924,6	-0,527
925	0,593
925,4	3,873
925,8	6,193
926,3	11,193
926,7	11,233
927,1	11,393
927,5	8,833
928	3,633
928,4	5,193
928,8	7,313
929,2	0,353
929,7	1,873
930,1	9,073
930,5	12,593
930,9	9,553
931,3	10,313
931,8	12,313
932,2	4,553
932,6	3,553
933	3,553
933,5	4,713
933,9	2,913
934,3	7,673
934,7	6,753
935,2	8,913
935,6	1,673
936	0,353
936,4	1,313
936,8	1,233
937,3	4,593
937,7	13,273
938,1	16,233
938,5	12,873
939	12,113
939,4	7,953
939,8	7,153
940,2	2,753
940,6	6,753
941,1	5,953
941,5	5,473
941,9	4,073
942,3	7,233
942,8	6,073
943,2	9,673
943,6	12,153
944	14,633
944,4	5,593
944,9	8,153
945,3	4,713
945,7	6,393
946,1	6,993
946,6	11,313
947	5,473
947,4	3,033
947,8	-1,447
948,2	-3,927
948,7	3,153
949,1	2,993
949,5	3,833
949,9	5,033
950,3	8,353
950,8	4,673
951,2	1,873
951,6	6,433
952	2,913
952,5	-3,527
952,9	-7,967
953,3	-6,247
953,7	-6,967
954,1	-7,087
954,6	2,553
955	6,113
955,4	5,113
955,8	1,953
956,2	7,473
956,7	-1,567
957,1	1,913
957,5	6,833
957,9	7,353
958,3	2,793
958,8	8,033
959,2	10,393
959,6	9,833
960	11,313
960,5	15,673
960,9	14,713
961,3	11,113
961,7	11,993
962,1	13,273
962,6	12,073
963	9,833
963,4	2,073
963,8	-0,727
964,2	-4,727
964,7	0,113
965,1	-1,167
965,5	2,473
965,9	4,633
966,3	6,673
966,8	-0,767
967,2	0,913
967,6	2,833
968	3,713
968,4	7,393
968,9	2,593
969,3	5,073
969,7	3,633
970,1	-0,327
970,5	-2,807
971	0,713
971,4	-0,167
971,8	-1,887
972,2	3,033
972,6	-0,607
973,1	4,393
973,5	3,713
973,9	5,233
974,3	3,513
974,7	4,273
975,2	7,153
975,6	10,713
976	13,953
976,4	14,433
976,8	15,233
977,3	12,033
977,7	5,993
978,1	4,433
978,5	4,313
978,9	-1,927
979,4	-3,567
979,8	-4,287
980,2	-6,247
980,6	-4,567
981	-0,407
981,5	-5,687
981,9	-1,287
982,3	0,873
982,7	-4,727
983,1	-0,247
983,6	5,633
984	5,313
984,4	0,353
984,8	3,833
985,2	1,953
985,6	-2,487
986,1	-0,567
986,5	6,993
986,9	4,753
987,3	-2,207
987,7	1,273
988,2	-0,007
988,6	-0,167
989	3,193
989,4	7,513
989,8	10,553
990,3	8,513
990,7	8,553
991,1	5,153
991,5	10,673
991,9	7,033
992,3	2,753
992,8	-4,247
993,2	-8,767
993,6	-10,487
994	-8,567
994,4	-1,767
994,9	-1,967
995,3	2,033
995,7	1,993
996,1	2,073
996,5	2,953
996,9	8,513
997,4	13,713
997,8	9,593
998,2	5,833
998,6	2,713
999	-0,447
999,5	0,633
999,9	1,833
1000,3	1,433
1000,7	6,433
1001,1	3,233
1001,5	-0,087
1002	3,513
1002,4	7,553
1002,8	0,393
1003,2	7,593
1003,6	2,073
1004	-2,967
1004,5	-4,687
1004,9	-2,207
1005,3	-5,207
1005,7	3,873
1006,1	11,353
1006,6	15,833
1007	15,793
1007,4	16,393
1007,8	9,913
1008,2	3,433
1008,6	-0,127
1009,1	0,113
1009,5	0,433
1009,9	-0,487
1010,3	-0,887
1010,7	-5,247
1011,1	-4,447
1011,6	-2,927
1012	2,033
1012,4	3,313
1012,8	8,473
1013,2	7,313
1013,6	3,473
1014,1	1,673
1014,5	-2,367
1014,9	-10,447
1015,3	-15,087
1015,7	-15,647
1016,1	-12,767
1016,6	-8,167
1017	-2,767
1017,4	0,513
1017,8	2,673
1018,2	-4,607
1018,6	-0,767
1019,1	-3,327
1019,5	-5,807
1019,9	-7,327
1020,3	-3,207
1020,7	-9,207
1021,1	-3,087
1021,6	1,553
1022	4,113
1022,4	4,113
1022,8	8,473
1023,2	1,753
1023,6	0,673
1024,1	2,913
1024,5	3,873
1024,9	6,833
1025,3	11,913
1025,7	11,393
1026,1	7,233
1026,6	8,313
1027	6,673
1027,4	7,593
1027,8	5,473
1028,2	5,393
1028,6	5,233
1029	2,113
1029,5	-0,047
1029,9	3,233
1030,3	8,873
1030,7	10,633
1031,1	8,953
1031,5	7,593
1032	6,073
1032,4	-0,887
1032,8	-4,327
1033,2	-2,167
1033,6	-0,567
1034	-3,167
1034,4	-3,007
1034,9	-2,847
1035,3	-8,087
1035,7	-3,367
1036,1	-1,127
1036,5	-4,087
1036,9	-7,407
1037,4	-5,647
1037,8	-12,727
1038,2	-10,767
1038,6	-7,087
1039	-5,927
1039,4	1,353
1039,8	2,753
1040,3	4,153
1040,7	7,993
1041,1	14,353
1041,5	10,553
1041,9	13,473
1042,3	11,673
1042,7	16,433
1043,2	10,753
1043,6	9,113
1044	12,433
1044,4	11,393
1044,8	-4,647
1045,2	-1,567
1045,6	-0,887
1046,1	-5,807
1046,5	-9,607
1046,9	-1,007
1047,3	-5,247
1047,7	-8,567
1048,1	-7,367
1048,5	-3,007
1049	-2,367
1049,4	2,833
1049,8	4,593
1050,2	1,993
1050,6	6,633
1051	1,953
1051,4	0,353
1051,9	1,953
1052,3	1,633
1052,7	-6,207
1053,1	-6,527
1053,5	-2,727
1053,9	-1,247
1054,3	0,193
1054,8	1,073
1055,2	6,633
1055,6	-3,487
1056	-4,887
1056,4	-3,807
1056,8	0,313
1057,2	-4,367
1057,6	-0,127
1058,1	4,273
1058,5	0,673
1058,9	1,433
1059,3	8,313
1059,7	10,313
1060,1	10,153
1060,5	18,713
1061	18,113
1061,4	15,473
1061,8	12,193
1062,2	5,033
1062,6	2,473
1063	-2,127
1063,4	-0,327
1063,8	-4,127
1064,3	-0,767
1064,7	-9,687
1065,1	-6,727
1065,5	-5,647
1065,9	0,273
1066,3	-5,607
1066,7	1,673
1067,1	0,193
1067,6	-4,887
1068	-8,567
1068,4	-5,647
1068,8	-7,327
1069,2	-10,327
1069,6	-9,607
1070	-3,287
1070,4	-0,007
1070,9	5,073
1071,3	5,473
1071,7	3,273
1072,1	-2,727
1072,5	-0,567
1072,9	-5,727
1073,3	-3,167
1073,7	6,633
1074,2	11,153
1074,6	7,673
1075	4,113
1075,4	4,033
1075,8	-0,167
1076,2	4,353
1076,6	9,593
1077	10,833
1077,5	9,353
1077,9	5,793
1078,3	-1,207
1078,7	-7,607
1079,1	-5,567
1079,5	3,073
1079,9	5,593
1080,3	8,873
1080,7	14,673
1081,2	13,633
1081,6	7,833
1082	11,793
1082,4	8,553
1082,8	5,713
1083,2	2,513
1083,6	0,153
1084	-2,767
1084,5	-4,927
1084,9	-4,247
1085,3	0,033
1085,7	6,553
1086,1	-1,887
1086,5	-1,167
1086,9	-6,327
1087,3	-9,527
1087,7	-11,807
1088,2	-7,007
1088,6	-1,807
1089	-1,007
1089,4	2,593
1089,8	4,313
1090,2	9,193
1090,6	5,193
1091	5,353
1091,4	-0,647
1091,9	-6,047
1092,3	-5,567
1092,7	-1,767
1093,1	-2,567
1093,5	4,033
1093,9	8,953
1094,3	4,273
1094,7	3,953
1095,1	5,553
1095,5	4,233
1096	-2,287
1096,4	-0,127
1096,8	0,513
1097,2	3,353
1097,6	3,553
1098	6,113
1098,4	-0,367
1098,8	-4,047
1099,2	-4,367
1099,6	-5,087
1100,1	-3,207
1100,5	0,473
1100,9	1,753
1101,3	1,433
1101,7	-0,167
1102,1	0,833
1102,5	1,713
1102,9	2,233
1103,3	-1,607
1103,7	1,713
1104,2	-0,847
1104,6	-0,127
1105	-0,407
1105,4	2,073
1105,8	0,913
1106,2	1,033
1106,6	0,193
1107	-0,247
1107,4	-0,287
1107,8	-0,017
1108,3	0,033
