Data from Subt2_00098.txt Node
Date: Fri Aug 11 16:58:12 MSK 2023
User: vat
Spectrometer: MAYP114033
Trigger mode: 0
Integration Time (sec): 5,000000E-1
Scans to average: 5
Electric dark correction enabled: true
Nonlinearity correction enabled: false
Boxcar width: 2
XAxis mode: Wavelengths
Number of Pixels in Spectrum: 2068
>>>>>Begin Spectral Data<<<<<
199,4	1,233
199,9	0,533
200,4	-2,607
200,8	-7,927
201,3	-14,007
201,8	-17,167
202,2	-25,687
202,7	-25,367
203,2	-24,367
203,6	-21,127
204,1	-23,527
204,6	-17,287
205	-16,167
205,5	-16,487
206	-16,767
206,4	-13,607
206,9	-16,407
207,4	-17,927
207,8	-19,087
208,3	-22,007
208,8	-19,607
209,2	-17,047
209,7	-20,727
210,2	-17,327
210,6	-12,367
211,1	-18,447
211,5	-19,847
212	-18,247
212,5	-23,967
212,9	-25,767
213,4	-26,807
213,9	-29,807
214,3	-27,767
214,8	-25,447
215,3	-31,847
215,7	-34,167
216,2	-29,287
216,7	-33,967
217,1	-34,207
217,6	-32,487
218,1	-29,607
218,5	-32,047
219	-29,687
219,5	-28,847
219,9	-30,767
220,4	-23,327
220,9	-26,487
221,3	-26,727
221,8	-30,767
222,3	-24,367
222,7	-28,767
223,2	-27,447
223,6	-27,407
224,1	-17,647
224,6	-14,607
225	-21,447
225,5	-22,567
226	-20,407
226,4	-34,647
226,9	-40,687
227,4	-35,167
227,8	-33,447
228,3	-38,607
228,8	-27,847
229,2	-30,687
229,7	-35,127
230,2	-31,367
230,6	-30,407
231,1	-35,447
231,5	-32,007
232	-27,807
232,5	-26,727
232,9	-27,127
233,4	-26,167
233,9	-26,487
234,3	-24,327
234,8	-28,047
235,3	-25,727
235,7	-29,967
236,2	-29,167
236,7	-34,767
237,1	-35,647
237,6	-32,607
238,1	-25,607
238,5	-26,527
239	-26,367
239,4	-28,207
239,9	-25,527
240,4	-27,687
240,8	-21,927
241,3	-20,687
241,8	-22,647
242,2	-29,327
242,7	-26,887
243,2	-35,127
243,6	-32,487
244,1	-32,167
244,6	-33,127
245	-33,887
245,5	-30,687
245,9	-29,927
246,4	-26,327
246,9	-25,647
247,3	-28,167
247,8	-33,327
248,3	-35,127
248,7	-33,487
249,2	-30,927
249,7	-31,927
250,1	-29,967
250,6	-35,487
251	-40,967
251,5	-40,367
252	-36,367
252,4	-31,087
252,9	-25,887
253,4	-23,327
253,8	-24,687
254,3	-25,207
254,8	-26,127
255,2	-22,447
255,7	-22,087
256,1	-24,807
256,6	-24,287
257,1	-29,367
257,5	-35,127
258	-34,167
258,5	-35,727
258,9	-45,567
259,4	-43,807
259,9	-36,287
260,3	-37,367
260,8	-28,447
261,2	-17,487
261,7	-15,847
262,2	-24,287
262,6	-26,087
263,1	-32,767
263,6	-32,047
264	-30,047
264,5	-29,727
264,9	-26,487
265,4	-28,607
265,9	-27,727
266,3	-26,567
266,8	-22,367
267,3	-22,287
267,7	-17,527
268,2	-19,887
268,7	-15,967
269,1	-17,087
269,6	-13,927
270	-17,007
270,5	-19,247
271	-27,727
271,4	-28,447
271,9	-32,927
272,4	-32,127
272,8	-31,767
273,3	-33,647
273,7	-32,727
274,2	-33,887
274,7	-25,847
275,1	-26,007
275,6	-21,447
276,1	-28,567
276,5	-27,647
277	-34,127
277,4	-35,967
277,9	-33,487
278,4	-29,007
278,8	-26,847
279,3	-29,087
279,8	-25,687
280,2	-25,847
280,7	-20,407
281,1	-24,327
281,6	-26,567
282,1	-28,087
282,5	-34,647
283	-34,047
283,4	-31,847
283,9	-24,007
284,4	-19,567
284,8	-23,407
285,3	-27,247
285,8	-24,807
286,2	-30,047
286,7	-31,367
287,1	-26,567
287,6	-24,167
288,1	-26,687
288,5	-24,927
289	-30,247
289,5	-28,367
289,9	-29,887
290,4	-27,767
290,8	-25,367
291,3	-22,967
291,8	-18,767
292,2	-16,287
292,7	-19,967
293,1	-28,127
293,6	-22,407
294,1	-30,567
294,5	-34,367
295	-27,487
295,5	-20,247
295,9	-32,247
296,4	-28,607
296,8	-27,047
297,3	-37,447
297,8	-35,887
298,2	-27,247
298,7	-30,567
299,1	-32,007
299,6	-28,247
300,1	-34,767
300,5	-35,207
301	-32,087
301,5	-36,727
301,9	-38,007
302,4	-34,607
302,8	-33,407
303,3	-33,567
303,8	-36,847
304,2	-31,767
304,7	-31,407
305,1	-34,567
305,6	-37,007
306,1	-27,447
306,5	-34,367
307	-35,167
307,4	-32,927
307,9	-33,727
308,4	-31,647
308,8	-25,887
309,3	-23,407
309,8	-27,167
310,2	-25,327
310,7	-27,327
311,1	-33,127
311,6	-37,607
312,1	-35,967
312,5	-33,967
313	-33,967
313,4	-28,647
313,9	-25,567
314,4	-29,367
314,8	-32,727
315,3	-34,727
315,7	-39,287
316,2	-37,647
316,7	-34,527
317,1	-34,967
317,6	-31,847
318	-25,287
318,5	-24,487
319	-31,287
319,4	-25,367
319,9	-28,887
320,3	-28,167
320,8	-36,487
321,3	-28,687
321,7	-26,007
322,2	-21,047
322,6	-27,847
323,1	-22,927
323,6	-23,967
324	-27,127
324,5	-32,527
324,9	-30,927
325,4	-32,247
325,9	-30,127
326,3	-26,327
326,8	-25,807
327,2	-25,767
327,7	-25,407
328,2	-27,687
328,6	-32,847
329,1	-32,927
329,5	-26,887
330	-21,567
330,5	-20,087
330,9	-22,847
331,4	-25,287
331,8	-33,407
332,3	-38,727
332,8	-36,327
333,2	-32,607
333,7	-28,407
334,1	-21,847
334,6	-24,167
335,1	-25,687
335,5	-25,007
336	-26,727
336,4	-28,967
336,9	-24,207
337,4	-32,167
337,8	-32,167
338,3	-28,407
338,7	-26,687
339,2	-28,167
339,7	-17,287
340,1	-16,767
340,6	-16,047
341	-13,567
341,5	-10,127
342	-13,727
342,4	-17,727
342,9	-19,807
343,3	-18,967
343,8	-22,167
344,2	-18,687
344,7	-19,167
345,2	-17,287
345,6	-17,967
346,1	-21,407
346,5	-21,007
347	-15,287
347,5	-16,287
347,9	-16,407
348,4	-7,967
348,8	-16,767
349,3	-15,927
349,8	-14,847
350,2	-15,047
350,7	-18,447
351,1	-9,967
351,6	-10,807
352	-10,127
352,5	-6,087
353	3,433
353,4	11,393
353,9	19,313
354,3	32,473
354,8	38,433
355,3	47,393
355,7	56,233
356,2	70,993
356,6	89,233
357,1	122,073
357,5	148,473
358	182,593
358,5	224,073
358,9	262,033
359,4	304,153
359,8	363,233
360,3	423,193
360,8	490,913
361,2	568,153
361,7	649,913
362,1	736,953
362,6	838,993
363	946,353
363,5	1054,393
364	1175,073
364,4	1292,033
364,9	1416,553
365,3	1544,233
365,8	1666,633
366,3	1772,233
366,7	1874,873
367,2	1960,993
367,6	2018,113
368,1	2068,353
368,5	2107,833
369	2127,633
369,5	2132,313
369,9	2119,513
370,4	2085,833
370,8	2035,553
371,3	1972,113
371,7	1888,633
372,2	1803,593
372,7	1713,673
373,1	1617,673
373,6	1520,753
374	1428,193
374,5	1339,953
374,9	1250,153
375,4	1156,753
375,9	1068,553
376,3	985,753
376,8	902,633
377,2	828,593
377,7	763,833
378,2	696,873
378,6	634,033
379,1	572,913
379,5	523,073
380	474,073
380,4	433,033
380,9	393,753
381,4	359,753
381,8	325,953
382,3	298,873
382,7	276,153
383,2	250,993
383,6	231,953
384,1	209,313
384,6	190,313
385	170,073
385,5	155,033
385,9	141,313
386,4	133,153
386,8	123,553
387,3	118,153
387,7	106,273
388,2	99,273
388,7	88,833
389,1	77,073
389,6	65,793
390	62,033
390,5	48,953
390,9	39,593
391,4	37,633
391,9	37,313
392,3	24,753
392,8	21,273
393,2	23,233
393,7	17,873
394,1	7,473
394,6	12,113
395,1	7,553
395,5	2,753
396	4,473
396,4	6,633
396,9	3,353
397,3	6,113
397,8	5,473
398,2	1,273
398,7	1,433
399,2	-1,727
399,6	-1,167
400,1	-4,327
400,5	-9,527
401	-14,487
401,4	-13,327
401,9	-16,887
402,4	-16,527
402,8	-17,327
403,3	-20,487
403,7	-21,127
404,2	-21,767
404,6	-22,487
405,1	-14,087
405,5	-9,167
406	-11,767
406,5	-17,927
406,9	-16,567
407,4	-19,647
407,8	-22,767
408,3	-19,087
408,7	-13,087
409,2	-18,567
409,6	-13,447
410,1	-10,967
410,6	-8,887
411	-8,807
411,5	-11,487
411,9	-17,127
412,4	-15,407
412,8	-12,687
413,3	-10,487
413,7	1,273
414,2	-0,527
414,7	-2,207
415,1	-3,927
415,6	-5,367
416	-9,127
416,5	-6,007
416,9	-2,567
417,4	-3,807
417,8	2,273
418,3	3,393
418,8	6,273
419,2	8,193
419,7	8,393
420,1	5,553
420,6	8,313
421	5,753
421,5	-1,367
421,9	-2,967
422,4	-6,567
422,8	-9,327
423,3	-13,607
423,8	-10,327
424,2	-4,687
424,7	-0,007
425,1	-7,087
425,6	-2,327
426	-5,207
426,5	-10,807
426,9	-14,247
427,4	-0,607
427,9	-4,127
428,3	-2,527
428,8	-0,647
429,2	-3,487
429,7	-11,327
430,1	-11,527
430,6	-13,207
431	-18,247
431,5	-16,047
431,9	-11,567
432,4	-15,607
432,8	-9,967
433,3	-10,607
433,8	-9,887
434,2	-18,767
434,7	-10,527
435,1	-14,607
435,6	-13,367
436	-17,647
436,5	-11,007
436,9	-18,647
437,4	-18,487
437,8	-22,727
438,3	-23,207
438,8	-33,287
439,2	-31,447
439,7	-36,687
440,1	-31,727
440,6	-27,607
441	-26,527
441,5	-25,727
441,9	-28,247
442,4	-29,287
442,8	-33,447
443,3	-24,567
443,7	-25,607
444,2	-16,927
444,7	-14,407
445,1	-14,967
445,6	-16,247
446	-15,527
446,5	-24,687
446,9	-26,927
447,4	-24,087
447,8	-28,687
448,3	-32,407
448,7	-27,007
449,2	-30,087
449,6	-29,927
450,1	-26,207
450,6	-26,047
451	-26,887
451,5	-25,727
451,9	-23,127
452,4	-17,527
452,8	-15,527
453,3	-14,807
453,7	-12,767
454,2	-16,407
454,6	-23,967
455,1	-21,647
455,5	-19,807
456	-22,207
456,4	-22,407
456,9	-24,447
457,3	-26,567
457,8	-30,007
458,3	-29,887
458,7	-32,487
459,2	-32,487
459,6	-34,487
460,1	-37,887
460,5	-34,007
461	-36,247
461,4	-36,567
461,9	-33,247
462,3	-26,207
462,8	-26,527
463,2	-18,967
463,7	-14,807
464,1	-15,367
464,6	-18,447
465	-18,047
465,5	-20,527
466	-24,927
466,4	-26,367
466,9	-24,287
467,3	-26,287
467,8	-25,887
468,2	-26,327
468,7	-27,167
469,1	-32,007
469,6	-31,487
470	-30,407
470,5	-31,367
470,9	-32,047
471,4	-35,367
471,8	-37,687
472,3	-37,607
472,7	-32,607
473,2	-33,847
473,6	-21,447
474,1	-21,807
474,5	-24,767
475	-26,047
475,4	-21,767
475,9	-26,287
476,4	-27,007
476,8	-28,567
477,3	-29,767
477,7	-29,967
478,2	-29,247
478,6	-25,887
479,1	-22,567
479,5	-21,127
480	-25,527
480,4	-27,967
480,9	-24,087
481,3	-22,967
481,8	-24,847
482,2	-18,407
482,7	-23,527
483,1	-33,847
483,6	-33,087
484	-35,927
484,5	-39,167
484,9	-31,487
485,4	-26,807
485,8	-25,807
486,3	-23,847
486,7	-25,047
487,2	-23,007
487,6	-20,887
488,1	-29,127
488,5	-32,527
489	-27,767
489,4	-31,807
489,9	-36,007
490,4	-22,567
490,8	-21,127
491,3	-23,047
491,7	-17,247
492,2	-11,767
492,6	-17,087
493,1	-14,687
493,5	-8,007
494	-13,327
494,4	-10,767
494,9	-14,687
495,3	-13,047
495,8	-18,847
496,2	-15,567
496,7	-18,767
497,1	-18,927
497,6	-17,727
498	-17,567
498,5	-23,287
498,9	-24,607
499,4	-26,447
499,8	-28,607
500,3	-30,287
500,7	-25,887
501,2	-22,367
501,6	-17,287
502,1	-16,567
502,5	-14,927
503	-18,447
503,4	-21,087
503,9	-19,247
504,3	-21,447
504,8	-19,407
505,2	-15,927
505,7	-13,807
506,1	-15,167
506,6	-10,807
507	-13,727
507,5	-17,687
507,9	-22,727
508,4	-21,447
508,8	-29,447
509,3	-31,847
509,7	-28,847
510,2	-28,687
510,6	-31,447
511,1	-30,047
511,5	-30,447
512	-32,047
512,4	-29,327
512,9	-28,967
513,3	-27,167
513,8	-19,127
514,2	-16,167
514,7	-20,087
515,1	-17,127
515,6	-17,647
516	-23,087
516,5	-27,767
516,9	-25,527
517,4	-32,447
517,8	-27,487
518,3	-27,087
518,7	-23,767
519,2	-23,127
519,6	-20,207
520,1	-24,607
520,5	-24,367
521	-24,367
521,4	-23,847
521,9	-26,727
522,3	-26,447
522,8	-31,207
523,2	-27,967
523,7	-26,287
524,1	-22,607
524,6	-20,447
525	-19,647
525,5	-24,407
525,9	-21,527
526,4	-24,727
526,8	-29,687
527,3	-29,487
527,7	-29,887
528,2	-36,927
528,6	-28,287
529,1	-23,567
529,5	-14,447
530	-9,447
530,4	-8,087
530,9	-15,847
531,3	-14,567
531,8	-20,007
532,2	-26,367
532,6	-20,527
533,1	-18,807
533,5	-23,807
534	-26,207
534,4	-22,127
534,9	-24,327
535,3	-23,927
535,8	-25,447
536,2	-22,567
536,7	-26,007
537,1	-23,207
537,6	-22,367
538	-13,127
538,5	-11,927
538,9	-6,807
539,4	-15,447
539,8	-15,127
540,3	-20,327
540,7	-24,687
541,2	-30,527
541,6	-30,647
542,1	-31,927
542,5	-28,727
543	-27,007
543,4	-22,887
543,9	-21,047
544,3	-19,567
544,8	-19,927
545,2	-18,567
545,7	-21,287
546,1	-20,727
546,5	-24,167
547	-30,327
547,4	-35,447
547,9	-37,727
548,3	-37,087
548,8	-36,727
549,2	-37,287
549,7	-38,847
550,1	-35,767
550,6	-38,447
551	-36,967
551,5	-30,807
551,9	-25,327
552,4	-26,207
552,8	-20,647
553,3	-23,247
553,7	-20,807
554,2	-23,967
554,6	-23,287
555,1	-27,967
555,5	-21,007
555,9	-25,007
556,4	-17,367
556,8	-22,847
557,3	-20,527
557,7	-26,487
558,2	-25,007
558,6	-33,207
559,1	-28,447
559,5	-32,527
560	-30,367
560,4	-34,927
560,9	-30,807
561,3	-31,047
561,8	-22,807
562,2	-21,207
562,7	-16,327
563,1	-15,407
563,6	-17,767
564	-22,447
564,4	-27,407
564,9	-26,727
565,3	-34,367
565,8	-33,607
566,2	-33,047
566,7	-31,527
567,1	-37,927
567,6	-33,847
568	-31,247
568,5	-33,487
568,9	-35,367
569,4	-27,367
569,8	-29,647
570,3	-29,527
570,7	-28,567
571,1	-33,527
571,6	-40,287
572	-36,767
572,5	-38,047
572,9	-36,847
573,4	-26,967
573,8	-28,927
574,3	-29,367
574,7	-27,567
575,2	-25,567
575,6	-31,367
576,1	-24,327
576,5	-23,407
576,9	-24,007
577,4	-27,767
577,8	-30,647
578,3	-29,527
578,7	-30,327
579,2	-26,087
579,6	-23,767
580,1	-21,447
580,5	-26,207
581	-20,407
581,4	-19,767
581,9	-17,007
582,3	-12,807
582,7	-5,407
583,2	-9,167
583,6	-14,287
584,1	-18,287
584,5	-17,527
585	-16,087
585,4	-18,487
585,9	-18,647
586,3	-22,847
586,8	-27,407
587,2	-36,167
587,6	-35,487
588,1	-36,647
588,5	-33,407
589	-27,367
589,4	-26,287
589,9	-23,007
590,3	-22,687
590,8	-20,847
591,2	-24,087
591,7	-20,727
592,1	-22,887
592,5	-19,327
593	-20,847
593,4	-20,727
593,9	-25,207
594,3	-21,847
594,8	-24,447
595,2	-23,887
595,7	-22,367
596,1	-23,927
596,6	-22,687
597	-17,687
597,4	-16,847
597,9	-17,287
598,3	-13,607
598,8	-19,087
599,2	-23,167
599,7	-26,327
600,1	-32,167
600,6	-35,127
601	-37,967
601,4	-40,207
601,9	-36,127
602,3	-33,567
602,8	-31,567
603,2	-27,127
603,7	-27,607
604,1	-30,967
604,6	-27,647
605	-29,687
605,4	-29,887
605,9	-29,407
606,3	-28,407
606,8	-30,807
607,2	-33,687
607,7	-33,967
608,1	-33,567
608,6	-31,447
609	-26,927
609,4	-20,167
609,9	-22,727
610,3	-20,487
610,8	-19,207
611,2	-28,007
611,7	-26,287
612,1	-23,447
612,6	-28,567
613	-31,447
613,4	-24,887
613,9	-28,127
614,3	-31,207
614,8	-22,327
615,2	-23,127
615,7	-27,567
616,1	-28,007
616,6	-22,727
617	-30,567
617,4	-31,847
617,9	-28,487
618,3	-30,687
618,8	-37,687
619,2	-34,407
619,7	-33,447
620,1	-33,647
620,5	-35,607
621	-35,087
621,4	-39,807
621,9	-42,007
622,3	-42,327
622,8	-31,527
623,2	-37,047
623,6	-36,927
624,1	-41,367
624,5	-37,047
625	-45,607
625,4	-37,607
625,9	-30,047
626,3	-22,047
626,8	-24,567
627,2	-22,967
627,6	-26,687
628,1	-31,247
628,5	-33,167
629	-31,527
629,4	-31,967
629,9	-30,607
630,3	-27,687
630,7	-29,367
631,2	-35,567
631,6	-34,207
632,1	-28,607
632,5	-27,087
633	-21,247
633,4	-16,127
633,8	-21,687
634,3	-23,207
634,7	-25,487
635,2	-25,807
635,6	-30,527
636,1	-20,407
636,5	-21,967
636,9	-20,527
637,4	-26,167
637,8	-25,447
638,3	-37,367
638,7	-37,847
639,2	-40,047
639,6	-35,167
640	-36,127
640,5	-29,447
640,9	-26,967
641,4	-28,807
641,8	-32,927
642,2	-29,887
642,7	-33,647
643,1	-30,487
643,6	-31,047
644	-26,927
644,5	-27,607
644,9	-21,967
645,3	-28,967
645,8	-28,967
646,2	-30,087
646,7	-31,367
647,1	-32,167
647,6	-29,047
648	-26,927
648,4	-29,087
648,9	-31,327
649,3	-28,367
649,8	-27,167
650,2	-27,047
650,6	-25,327
651,1	-15,967
651,5	-21,207
652	-26,087
652,4	-17,567
652,9	-22,407
653,3	-33,887
653,7	-34,367
654,2	-30,127
654,6	-35,247
655,1	-35,967
655,5	-30,647
655,9	-26,287
656,4	-30,607
656,8	-31,407
657,3	-27,727
657,7	-31,167
658,2	-38,527
658,6	-37,727
659	-44,687
659,5	-42,407
659,9	-32,407
660,4	-25,527
660,8	-24,007
661,2	-20,887
661,7	-20,127
662,1	-27,767
662,6	-32,007
663	-32,287
663,4	-28,127
663,9	-31,127
664,3	-27,167
664,8	-24,327
665,2	-24,767
665,6	-24,527
666,1	-26,127
666,5	-26,327
667	-25,407
667,4	-25,207
667,9	-27,047
668,3	-22,447
668,7	-24,247
669,2	-30,207
669,6	-28,687
670,1	-29,007
670,5	-26,247
670,9	-25,927
671,4	-19,007
671,8	-22,567
672,3	-25,127
672,7	-29,487
673,1	-22,567
673,6	-25,847
674	-25,647
674,5	-27,807
674,9	-29,687
675,3	-33,807
675,8	-30,167
676,2	-24,247
676,7	-22,247
677,1	-22,447
677,5	-26,847
678	-32,527
678,4	-37,567
678,9	-39,607
679,3	-41,287
679,7	-37,807
680,2	-37,967
680,6	-39,727
681,1	-30,127
681,5	-28,047
681,9	-28,007
682,4	-19,847
682,8	-18,567
683,3	-26,007
683,7	-20,687
684,1	-20,927
684,6	-29,327
685	-28,447
685,5	-27,687
685,9	-33,767
686,3	-34,487
686,8	-29,807
687,2	-28,007
687,7	-29,447
688,1	-29,767
688,5	-26,127
689	-24,567
689,4	-23,927
689,9	-24,767
690,3	-23,887
690,7	-27,327
691,2	-31,327
691,6	-35,927
692	-33,047
692,5	-26,527
692,9	-26,487
693,4	-29,327
693,8	-21,487
694,2	-26,047
694,7	-25,487
695,1	-28,487
695,6	-21,727
696	-27,567
696,4	-23,167
696,9	-26,327
697,3	-24,247
697,8	-30,327
698,2	-25,487
698,6	-27,247
699,1	-26,367
699,5	-22,047
699,9	-22,407
700,4	-29,007
700,8	-20,087
701,3	-26,367
701,7	-29,567
702,1	-20,127
702,6	-19,527
703	-28,687
703,5	-25,527
703,9	-26,207
704,3	-26,247
704,8	-24,887
705,2	-25,247
705,6	-23,727
706,1	-27,087
706,5	-39,567
707	-36,167
707,4	-34,727
707,8	-38,847
708,3	-32,687
708,7	-24,167
709,2	-27,727
709,6	-22,967
710	-19,367
710,5	-20,047
710,9	-18,567
711,3	-15,327
711,8	-15,767
712,2	-12,047
712,7	-17,487
713,1	-24,927
713,5	-24,287
714	-32,967
714,4	-35,807
714,8	-32,007
715,3	-29,447
715,7	-29,927
716,2	-27,727
716,6	-24,247
717	-28,327
717,5	-24,447
717,9	-27,807
718,3	-25,767
718,8	-29,407
719,2	-30,207
719,7	-33,447
720,1	-32,447
720,5	-29,847
721	-36,247
721,4	-31,247
721,8	-29,287
722,3	-26,887
722,7	-26,407
723,2	-21,727
723,6	-22,487
724	-23,207
724,5	-26,447
724,9	-32,127
725,3	-29,207
725,8	-27,127
726,2	-25,247
726,7	-26,807
727,1	-22,287
727,5	-31,367
728	-34,727
728,4	-40,767
728,8	-39,527
729,3	-38,647
729,7	-29,487
730,1	-26,127
730,6	-21,687
731	-17,927
731,5	-20,287
731,9	-23,767
732,3	-22,007
732,8	-30,367
733,2	-34,167
733,6	-29,767
734,1	-25,927
734,5	-35,327
734,9	-23,047
735,4	-20,047
735,8	-22,647
736,3	-23,727
736,7	-17,687
737,1	-22,967
737,6	-22,767
738	-23,647
738,4	-23,767
738,9	-26,647
739,3	-23,367
739,7	-29,567
740,2	-27,567
740,6	-30,767
741,1	-31,087
741,5	-31,007
741,9	-26,127
742,4	-30,087
742,8	-29,967
743,2	-24,767
743,7	-29,727
744,1	-32,287
744,5	-27,287
745	-27,127
745,4	-29,367
745,8	-31,447
746,3	-35,847
746,7	-39,207
747,2	-39,287
747,6	-35,447
748	-27,767
748,5	-19,367
748,9	-21,327
749,3	-21,647
749,8	-27,807
750,2	-26,767
750,6	-30,047
751,1	-28,567
751,5	-24,487
751,9	-21,487
752,4	-28,047
752,8	-24,247
753,3	-19,647
753,7	-22,887
754,1	-18,727
754,6	-17,327
755	-16,807
755,4	-14,927
755,9	-13,847
756,3	-18,127
756,7	-18,967
757,2	-23,567
757,6	-34,607
758	-29,727
758,5	-30,287
758,9	-21,287
759,3	-22,927
759,8	-14,327
760,2	-19,927
760,6	-22,207
761,1	-28,207
761,5	-26,247
761,9	-29,127
762,4	-30,647
762,8	-25,767
763,3	-28,847
763,7	-23,767
764,1	-25,887
764,6	-21,247
765	-28,207
765,4	-28,087
765,9	-36,247
766,3	-36,127
766,7	-38,407
767,2	-35,967
767,6	-35,007
768	-25,207
768,5	-27,127
768,9	-25,847
769,3	-20,207
769,8	-19,447
770,2	-26,567
770,6	-20,047
771,1	-21,167
771,5	-25,447
771,9	-24,447
772,4	-22,687
772,8	-24,887
773,2	-24,367
773,7	-22,807
774,1	-23,767
774,5	-22,487
775	-26,087
775,4	-31,807
775,8	-31,527
776,3	-32,087
776,7	-36,567
777,1	-34,247
777,6	-27,127
778	-27,127
778,4	-25,367
778,9	-23,247
779,3	-21,207
779,7	-26,807
780,2	-26,367
780,6	-30,127
781	-24,287
781,5	-24,487
781,9	-26,487
782,3	-29,927
782,8	-29,847
783,2	-35,847
783,6	-36,487
784,1	-29,207
784,5	-28,127
784,9	-25,127
785,4	-20,447
785,8	-23,207
786,2	-22,927
786,7	-24,527
787,1	-23,727
787,5	-29,007
788	-28,327
788,4	-32,167
788,8	-32,807
789,3	-35,327
789,7	-34,847
790,1	-37,247
790,6	-38,487
791	-43,527
791,4	-38,767
791,9	-37,287
792,3	-37,687
792,7	-38,327
793,2	-34,767
793,6	-40,647
794	-41,527
794,5	-37,007
794,9	-31,167
795,3	-24,567
795,8	-26,607
796,2	-23,927
796,6	-24,607
797,1	-30,887
797,5	-29,607
797,9	-24,487
798,4	-29,687
798,8	-27,567
799,2	-26,167
799,7	-34,327
800,1	-37,407
800,5	-34,327
801	-36,127
801,4	-34,887
801,8	-26,487
802,2	-22,647
802,7	-14,567
803,1	-13,167
803,5	-13,167
804	-14,967
804,4	-16,047
804,8	-22,807
805,3	-26,367
805,7	-29,007
806,1	-33,887
806,6	-30,567
807	-31,247
807,4	-29,927
807,9	-27,447
808,3	-26,047
808,7	-32,367
809,2	-32,247
809,6	-32,087
810	-30,287
810,4	-30,527
810,9	-27,887
811,3	-26,007
811,7	-24,527
812,2	-25,607
812,6	-21,887
813	-21,447
813,5	-21,047
813,9	-23,327
814,3	-23,207
814,8	-22,247
815,2	-16,687
815,6	-18,927
816,1	-24,007
816,5	-24,127
816,9	-25,367
817,3	-30,247
817,8	-29,407
818,2	-26,887
818,6	-21,807
819,1	-24,967
819,5	-24,007
819,9	-25,687
820,4	-23,687
820,8	-25,887
821,2	-20,567
821,7	-24,367
822,1	-28,407
822,5	-28,727
822,9	-25,887
823,4	-27,927
823,8	-23,727
824,2	-19,207
824,7	-17,407
825,1	-23,527
825,5	-27,687
826	-30,887
826,4	-30,247
826,8	-31,527
827,3	-31,087
827,7	-30,247
828,1	-32,767
828,5	-33,967
829	-34,287
829,4	-33,127
829,8	-29,407
830,3	-23,207
830,7	-17,887
831,1	-15,767
831,6	-13,567
832	-16,167
832,4	-12,767
832,8	-16,407
833,3	-21,287
833,7	-24,807
834,1	-27,567
834,6	-33,127
835	-37,047
835,4	-34,487
835,8	-34,767
836,3	-30,767
836,7	-30,447
837,1	-30,527
837,6	-24,967
838	-18,727
838,4	-16,487
838,9	-19,087
839,3	-11,567
839,7	-10,287
840,1	-10,207
840,6	-22,727
841	-21,247
841,4	-29,007
841,9	-33,007
842,3	-41,207
842,7	-32,847
843,1	-33,607
843,6	-40,007
844	-40,847
844,4	-36,967
844,9	-33,687
845,3	-32,487
845,7	-21,367
846,2	-19,047
846,6	-24,327
847	-28,087
847,4	-24,327
847,9	-25,007
848,3	-28,327
848,7	-21,727
849,2	-17,647
849,6	-20,847
850	-20,967
850,4	-20,967
850,9	-20,367
851,3	-24,367
851,7	-32,247
852,2	-32,087
852,6	-31,207
853	-32,567
853,4	-35,087
853,9	-24,807
854,3	-28,527
854,7	-26,647
855,2	-29,727
855,6	-28,447
856	-33,087
856,4	-30,007
856,9	-30,607
857,3	-33,967
857,7	-30,207
858,2	-26,927
858,6	-26,967
859	-22,887
859,4	-19,967
859,9	-19,487
860,3	-22,727
860,7	-27,007
861,1	-34,407
861,6	-33,447
862	-34,047
862,4	-37,367
862,9	-32,287
863,3	-32,247
863,7	-35,247
864,1	-34,487
864,6	-26,687
865	-29,767
865,4	-28,967
865,9	-29,727
866,3	-32,167
866,7	-34,327
867,1	-30,327
867,6	-30,647
868	-27,727
868,4	-27,527
868,8	-28,967
869,3	-25,367
869,7	-26,207
870,1	-25,407
870,6	-23,887
871	-20,767
871,4	-28,207
871,8	-22,407
872,3	-24,767
872,7	-30,687
873,1	-30,287
873,5	-28,207
874	-33,407
874,4	-24,887
874,8	-17,767
875,3	-20,927
875,7	-22,407
876,1	-21,847
876,5	-27,047
877	-34,087
877,4	-33,647
877,8	-32,967
878,2	-33,047
878,7	-31,247
879,1	-24,167
879,5	-19,007
879,9	-18,167
880,4	-12,167
880,8	-11,607
881,2	-16,007
881,7	-24,767
882,1	-28,247
882,5	-31,247
882,9	-32,887
883,4	-33,567
883,8	-31,687
884,2	-28,727
884,6	-30,687
885,1	-31,167
885,5	-34,327
885,9	-30,687
886,3	-30,047
886,8	-29,887
887,2	-30,127
887,6	-23,287
888	-23,687
888,5	-21,207
888,9	-17,887
889,3	-21,567
889,8	-24,327
890,2	-28,527
890,6	-30,887
891	-33,767
891,5	-26,007
891,9	-22,767
892,3	-23,647
892,7	-21,007
893,2	-19,447
893,6	-26,327
894	-28,247
894,4	-24,207
894,9	-29,047
895,3	-29,487
895,7	-24,687
896,1	-22,407
896,6	-21,207
897	-15,287
897,4	-23,047
897,8	-22,327
898,3	-24,567
898,7	-28,287
899,1	-32,967
899,5	-28,647
900	-32,527
900,4	-30,687
900,8	-37,367
901,2	-40,407
901,7	-33,167
902,1	-30,047
902,5	-29,167
902,9	-23,167
903,4	-22,967
903,8	-27,407
904,2	-32,367
904,6	-31,687
905,1	-28,487
905,5	-24,807
905,9	-24,207
906,3	-23,967
906,8	-31,647
907,2	-29,767
907,6	-30,887
908	-30,807
908,5	-33,047
908,9	-30,487
909,3	-40,847
909,7	-39,567
910,2	-38,167
910,6	-28,287
911	-29,087
911,4	-20,927
911,9	-25,567
912,3	-31,487
912,7	-34,647
913,1	-29,967
913,6	-32,287
914	-31,047
914,4	-28,207
914,8	-30,407
915,3	-34,647
915,7	-34,207
916,1	-29,927
916,5	-32,727
916,9	-33,367
917,4	-29,887
917,8	-26,367
918,2	-25,447
918,6	-22,407
919,1	-19,647
919,5	-22,287
919,9	-20,407
920,3	-20,487
920,8	-14,847
921,2	-16,807
921,6	-13,607
922	-19,247
922,5	-23,847
922,9	-33,327
923,3	-34,167
923,7	-39,327
924,2	-45,687
924,6	-43,127
925	-37,807
925,4	-36,767
925,8	-32,647
926,3	-30,007
926,7	-30,687
927,1	-27,007
927,5	-25,887
928	-25,887
928,4	-24,367
928,8	-24,647
929,2	-26,607
929,7	-26,767
930,1	-25,487
930,5	-19,407
930,9	-16,407
931,3	-22,207
931,8	-23,127
932,2	-26,887
932,6	-31,567
933	-39,047
933,5	-34,447
933,9	-35,927
934,3	-33,407
934,7	-32,167
935,2	-27,087
935,6	-33,287
936	-34,527
936,4	-37,967
936,8	-37,487
937,3	-35,967
937,7	-36,247
938,1	-34,607
938,5	-32,327
939	-31,327
939,4	-32,967
939,8	-22,687
940,2	-22,007
940,6	-21,767
941,1	-23,927
941,5	-25,327
941,9	-29,567
942,3	-27,047
942,8	-22,847
943,2	-18,887
943,6	-16,287
944	-17,207
944,4	-19,847
944,9	-25,287
945,3	-26,727
945,7	-24,967
946,1	-24,327
946,6	-27,127
947	-22,447
947,4	-24,887
947,8	-26,847
948,2	-28,367
948,7	-18,767
949,1	-20,487
949,5	-18,407
949,9	-16,967
950,3	-12,327
950,8	-21,607
951,2	-23,607
951,6	-25,047
952	-28,447
952,5	-32,127
952,9	-29,127
953,3	-31,607
953,7	-29,327
954,1	-28,767
954,6	-28,767
955	-29,527
955,4	-24,047
955,8	-28,127
956,2	-25,367
956,7	-28,767
957,1	-21,407
957,5	-24,007
957,9	-17,247
958,3	-24,247
958,8	-20,927
959,2	-25,767
959,6	-28,567
960	-29,807
960,5	-25,087
960,9	-29,887
961,3	-26,727
961,7	-22,847
962,1	-24,967
962,6	-21,807
963	-18,567
963,4	-25,407
963,8	-25,567
964,2	-25,407
964,7	-21,727
965,1	-16,447
965,5	-15,527
965,9	-17,367
966,3	-16,567
966,8	-25,967
967,2	-31,007
967,6	-31,847
968	-27,247
968,4	-28,687
968,9	-31,247
969,3	-28,487
969,7	-25,367
970,1	-31,727
970,5	-31,007
971	-28,807
971,4	-30,247
971,8	-33,927
972,2	-30,247
972,6	-32,407
973,1	-29,967
973,5	-32,767
973,9	-27,327
974,3	-26,927
974,7	-23,647
975,2	-15,607
975,6	-12,127
976	-14,047
976,4	-15,607
976,8	-17,687
977,3	-23,327
977,7	-22,247
978,1	-27,207
978,5	-30,127
978,9	-35,327
979,4	-35,407
979,8	-37,527
980,2	-32,007
980,6	-26,447
981	-21,887
981,5	-30,047
981,9	-27,047
982,3	-30,927
982,7	-37,647
983,1	-36,287
983,6	-32,087
984	-38,887
984,4	-38,607
984,8	-43,647
985,2	-44,247
985,6	-44,407
986,1	-38,607
986,5	-35,567
986,9	-26,607
987,3	-29,647
987,7	-25,967
988,2	-26,967
988,6	-27,527
989	-23,087
989,4	-18,087
989,8	-20,807
990,3	-22,127
990,7	-25,607
991,1	-30,727
991,5	-31,487
991,9	-32,767
992,3	-33,607
992,8	-31,687
993,2	-32,327
993,6	-32,287
994	-27,847
994,4	-28,687
994,9	-29,327
995,3	-34,647
995,7	-34,687
996,1	-34,047
996,5	-32,407
996,9	-31,327
997,4	-19,767
997,8	-22,327
998,2	-25,927
998,6	-29,647
999	-29,927
999,5	-33,047
999,9	-32,087
1000,3	-30,767
1000,7	-22,167
1001,1	-22,647
1001,5	-25,967
1002	-23,487
1002,4	-23,767
1002,8	-28,487
1003,2	-25,247
1003,6	-24,727
1004	-30,207
1004,5	-28,127
1004,9	-28,327
1005,3	-29,287
1005,7	-24,527
1006,1	-19,687
1006,6	-16,607
1007	-15,687
1007,4	-15,127
1007,8	-13,687
1008,2	-15,847
1008,6	-17,687
1009,1	-19,407
1009,5	-17,847
1009,9	-26,287
1010,3	-29,527
1010,7	-34,607
1011,1	-30,567
1011,6	-35,327
1012	-29,287
1012,4	-24,607
1012,8	-18,887
1013,2	-17,887
1013,6	-20,247
1014,1	-22,647
1014,5	-25,447
1014,9	-32,287
1015,3	-39,327
1015,7	-38,127
1016,1	-35,167
1016,6	-36,127
1017	-33,767
1017,4	-31,647
1017,8	-30,207
1018,2	-40,127
1018,6	-37,767
1019,1	-38,207
1019,5	-39,167
1019,9	-43,807
1020,3	-38,367
1020,7	-38,807
1021,1	-39,167
1021,6	-33,367
1022	-27,007
1022,4	-25,287
1022,8	-21,847
1023,2	-21,487
1023,6	-28,887
1024,1	-31,407
1024,5	-30,927
1024,9	-32,807
1025,3	-29,927
1025,7	-29,527
1026,1	-28,167
1026,6	-31,367
1027	-31,007
1027,4	-31,167
1027,8	-32,847
1028,2	-35,887
1028,6	-32,927
1029	-35,407
1029,5	-36,767
1029,9	-29,887
1030,3	-25,887
1030,7	-27,047
1031,1	-26,847
1031,5	-27,807
1032	-31,847
1032,4	-36,767
1032,8	-31,487
1033,2	-28,447
1033,6	-30,367
1034	-32,567
1034,4	-29,287
1034,9	-33,567
1035,3	-37,127
1035,7	-30,327
1036,1	-23,287
1036,5	-22,207
1036,9	-24,167
1037,4	-28,247
1037,8	-34,807
1038,2	-39,527
1038,6	-37,647
1039	-34,287
1039,4	-28,327
1039,8	-27,367
1040,3	-25,087
1040,7	-27,847
1041,1	-23,247
1041,5	-26,967
1041,9	-24,527
1042,3	-32,007
1042,7	-31,047
1043,2	-44,807
1043,6	-41,087
1044	-36,607
1044,4	-30,447
1044,8	-37,327
1045,2	-27,847
1045,6	-28,927
1046,1	-37,047
1046,5	-36,927
1046,9	-30,687
1047,3	-35,967
1047,7	-39,527
1048,1	-37,207
1048,5	-36,927
1049	-39,367
1049,4	-40,607
1049,8	-31,887
1050,2	-27,607
1050,6	-30,127
1051	-31,407
1051,4	-25,287
1051,9	-32,567
1052,3	-41,447
1052,7	-39,567
1053,1	-35,767
1053,5	-40,247
1053,9	-34,487
1054,3	-34,607
1054,8	-38,447
1055,2	-38,527
1055,6	-34,287
1056	-36,847
1056,4	-29,447
1056,8	-25,167
1057,2	-30,407
1057,6	-34,687
1058,1	-35,207
1058,5	-45,487
1058,9	-42,167
1059,3	-36,127
1059,7	-33,607
1060,1	-32,007
1060,5	-22,927
1061	-24,367
1061,4	-27,127
1061,8	-29,367
1062,2	-37,087
1062,6	-42,447
1063	-40,887
1063,4	-40,167
1063,8	-41,167
1064,3	-33,527
1064,7	-30,207
1065,1	-33,927
1065,5	-30,287
1065,9	-28,887
1066,3	-34,007
1066,7	-32,367
1067,1	-30,327
1067,6	-32,967
1068	-31,087
1068,4	-25,247
1068,8	-25,047
1069,2	-27,967
1069,6	-29,927
1070	-30,167
1070,4	-32,207
1070,9	-31,487
1071,3	-31,047
1071,7	-26,967
1072,1	-23,727
1072,5	-23,807
1072,9	-28,247
1073,3	-21,007
1073,7	-18,247
1074,2	-17,287
1074,6	-19,287
1075	-21,047
1075,4	-28,487
1075,8	-31,847
1076,2	-29,447
1076,6	-25,287
1077	-21,487
1077,5	-24,487
1077,9	-30,087
1078,3	-41,047
1078,7	-46,567
1079,1	-44,567
1079,5	-37,727
1079,9	-33,327
1080,3	-23,727
1080,7	-17,807
1081,2	-21,007
1081,6	-21,847
1082	-16,647
1082,4	-18,407
1082,8	-21,327
1083,2	-20,047
1083,6	-22,247
1084	-24,607
1084,5	-31,447
1084,9	-29,967
1085,3	-28,327
1085,7	-25,767
1086,1	-30,727
1086,5	-28,047
1086,9	-31,607
1087,3	-38,087
1087,7	-41,207
1088,2	-38,847
1088,6	-36,047
1089	-36,447
1089,4	-29,487
1089,8	-23,327
1090,2	-23,127
1090,6	-25,247
1091	-28,407
1091,4	-31,287
1091,9	-38,807
1092,3	-36,887
1092,7	-35,647
1093,1	-30,807
1093,5	-30,047
1093,9	-26,367
1094,3	-26,807
1094,7	-25,167
1095,1	-24,927
1095,5	-29,127
1096	-32,327
1096,4	-32,047
1096,8	-26,767
1097,2	-21,767
1097,6	-18,807
1098	-18,087
1098,4	-18,287
1098,8	-28,647
1099,2	-30,127
1099,6	-26,287
1100,1	-20,847
1100,5	-22,967
1100,9	-17,727
1101,3	-21,007
1101,7	-23,207
1102,1	-25,087
1102,5	-24,327
1102,9	-22,047
1103,3	-22,287
1103,7	-20,807
1104,2	-21,287
1104,6	-21,087
1105	-24,687
1105,4	-24,567
1105,8	-19,767
1106,2	-16,087
1106,6	-10,367
1107	-5,967
1107,4	0,873
1107,8	0,233
1108,3	0,633
