Data from Subt2_00017.txt Node
Date: Fri Aug 11 15:31:23 MSK 2023
User: vat
Spectrometer: MAYP114033
Trigger mode: 0
Integration Time (sec): 5,000000E-1
Scans to average: 5
Electric dark correction enabled: true
Nonlinearity correction enabled: false
Boxcar width: 2
XAxis mode: Wavelengths
Number of Pixels in Spectrum: 2068
>>>>>Begin Spectral Data<<<<<
199,4	-0,133
199,9	0,05
200,4	-8,52
200,8	-13,68
201,3	-17,92
201,8	-22,48
202,2	-25,76
202,7	-24,16
203,2	-22,24
203,6	-21,68
204,1	-21,56
204,6	-25,44
205	-25
205,5	-27,48
206	-23,92
206,4	-28,24
206,9	-32,76
207,4	-35,48
207,8	-31,44
208,3	-36,96
208,8	-37,44
209,2	-33,12
209,7	-36,04
210,2	-40,56
210,6	-41,52
211,1	-42,8
211,5	-42,36
212	-36,24
212,5	-39,6
212,9	-39,68
213,4	-34,52
213,9	-39,32
214,3	-40,4
214,8	-42,48
215,3	-42,08
215,7	-43,24
216,2	-42,4
216,7	-45
217,1	-41,8
217,6	-41,84
218,1	-44,16
218,5	-40,88
219	-38,8
219,5	-38,48
219,9	-38,52
220,4	-34,76
220,9	-36,72
221,3	-34,6
221,8	-36,36
222,3	-34,8
222,7	-39,56
223,2	-36,28
223,6	-41,64
224,1	-37,48
224,6	-39,76
225	-37,48
225,5	-42
226	-39,52
226,4	-38,6
226,9	-37,56
227,4	-35,8
227,8	-31,08
228,3	-30,32
228,8	-32,88
229,2	-37,52
229,7	-44,92
230,2	-46,32
230,6	-48,76
231,1	-53
231,5	-51,04
232	-48
232,5	-52,96
232,9	-49,6
233,4	-48,6
233,9	-51,8
234,3	-51,48
234,8	-44,2
235,3	-45,96
235,7	-47,4
236,2	-42,4
236,7	-44,92
237,1	-49,2
237,6	-52,24
238,1	-51,12
238,5	-50,24
239	-47,24
239,4	-45,96
239,9	-38,04
240,4	-34,36
240,8	-37,56
241,3	-37,44
241,8	-39,36
242,2	-44,4
242,7	-43,36
243,2	-45,92
243,6	-44,88
244,1	-46,16
244,6	-43,4
245	-40,24
245,5	-37,4
245,9	-39,88
246,4	-39,28
246,9	-45
247,3	-54,52
247,8	-50,84
248,3	-45
248,7	-41,96
249,2	-38,24
249,7	-32,72
250,1	-36,08
250,6	-43,44
251	-43,16
251,5	-41,88
252	-43,36
252,4	-41,24
252,9	-36,96
253,4	-38,92
253,8	-41,16
254,3	-43,88
254,8	-45
255,2	-45,04
255,7	-41,12
256,1	-37,44
256,6	-28,72
257,1	-33,28
257,5	-32,2
258	-33,88
258,5	-29,76
258,9	-31,76
259,4	-26,72
259,9	-29,28
260,3	-28,36
260,8	-33,2
261,2	-40,04
261,7	-43,12
262,2	-41
262,6	-44,6
263,1	-51,04
263,6	-48,92
264	-45,56
264,5	-42,76
264,9	-40,36
265,4	-39
265,9	-35,52
266,3	-38,08
266,8	-39,76
267,3	-46,72
267,7	-38
268,2	-40,64
268,7	-37,12
269,1	-39,56
269,6	-36,72
270	-36,44
270,5	-34,24
271	-38,64
271,4	-33,56
271,9	-32,04
272,4	-37,72
272,8	-40,2
273,3	-37,52
273,7	-41,48
274,2	-41,68
274,7	-42
275,1	-38,8
275,6	-42,72
276,1	-48,6
276,5	-54
277	-55,36
277,4	-60,52
277,9	-61,56
278,4	-57,6
278,8	-50,52
279,3	-49,28
279,8	-44,52
280,2	-38,36
280,7	-39,36
281,1	-36,96
281,6	-41,32
282,1	-44,52
282,5	-55,48
283	-54,04
283,4	-53,28
283,9	-45,36
284,4	-42,8
284,8	-32,24
285,3	-29,92
285,8	-29,76
286,2	-37,8
286,7	-37,68
287,1	-37,48
287,6	-38,52
288,1	-41,4
288,5	-41,56
289	-46,44
289,5	-48,16
289,9	-46,96
290,4	-44,84
290,8	-41,04
291,3	-38,4
291,8	-38,2
292,2	-43,52
292,7	-47
293,1	-47,72
293,6	-50,72
294,1	-50,72
294,5	-49,04
295	-47,32
295,5	-41,28
295,9	-36,64
296,4	-39,8
296,8	-43,08
297,3	-38,72
297,8	-46,32
298,2	-41,32
298,7	-43,68
299,1	-36,08
299,6	-39,96
300,1	-34,48
300,5	-34,76
301	-24,8
301,5	-30
301,9	-32,56
302,4	-33,96
302,8	-37,92
303,3	-42,12
303,8	-40,08
304,2	-37,6
304,7	-47,12
305,1	-49,36
305,6	-46,64
306,1	-44,76
306,5	-52,32
307	-39,8
307,4	-41,16
307,9	-42,8
308,4	-43,92
308,8	-35,24
309,3	-40,2
309,8	-36,44
310,2	-39,72
310,7	-45,12
311,1	-48,96
311,6	-47,6
312,1	-48,72
312,5	-43,2
313	-35,08
313,4	-34,28
313,9	-28
314,4	-29,08
314,8	-34,28
315,3	-32,88
315,7	-33,2
316,2	-40,44
316,7	-42,08
317,1	-42,96
317,6	-47,44
318	-41,92
318,5	-41,52
319	-37,2
319,4	-40,48
319,9	-40,16
320,3	-43,16
320,8	-49,96
321,3	-53,32
321,7	-43,6
322,2	-41,24
322,6	-43,08
323,1	-35,08
323,6	-34,36
324	-37,16
324,5	-41,12
324,9	-41,08
325,4	-38,48
325,9	-33,56
326,3	-36,64
326,8	-32
327,2	-33,88
327,7	-38,32
328,2	-42,32
328,6	-39,88
329,1	-44,32
329,5	-38,2
330	-31,56
330,5	-32,68
330,9	-35,04
331,4	-36,88
331,8	-38,4
332,3	-43,84
332,8	-42,44
333,2	-43,36
333,7	-42,76
334,1	-42,6
334,6	-40,44
335,1	-36,84
335,5	-31,84
336	-31,8
336,4	-31,16
336,9	-33,76
337,4	-36,28
337,8	-39,8
338,3	-36,24
338,7	-38,76
339,2	-38,12
339,7	-37,16
340,1	-38,24
340,6	-38,12
341	-33,44
341,5	-36,28
342	-39,88
342,4	-34,8
342,9	-37,92
343,3	-40,56
343,8	-40,6
344,2	-43,04
344,7	-45,12
345,2	-43,08
345,6	-41,44
346,1	-36,72
346,5	-34,08
347	-39,2
347,5	-41,92
347,9	-44,76
348,4	-44,72
348,8	-46,76
349,3	-41,52
349,8	-38,32
350,2	-36,08
350,7	-40,6
351,1	-38,4
351,6	-38,04
352	-36,68
352,5	-34,64
353	-22,08
353,4	-22
353,9	-22,16
354,3	-20,8
354,8	-21,56
355,3	-23,04
355,7	-12,88
356,2	-3,68
356,6	4
357,1	10,04
357,5	21,04
358	28,56
358,5	43,48
358,9	62,4
359,4	85,32
359,8	95,12
360,3	116,12
360,8	131,64
361,2	153,84
361,7	172,16
362,1	208
362,6	245,12
363	289,76
363,5	325,08
364	370,6
364,4	406,48
364,9	443,6
365,3	479,16
365,8	526,28
366,3	559,32
366,7	597,04
367,2	622,4
367,6	644,48
368,1	652,56
368,5	667,4
369	669,24
369,5	673,6
369,9	676,8
370,4	669,16
370,8	653,12
371,3	634,64
371,7	611,04
372,2	575,84
372,7	544,76
373,1	514
373,6	483,32
374	448,72
374,5	419,96
374,9	390,28
375,4	357,76
375,9	325,36
376,3	299,4
376,8	265,28
377,2	237,16
377,7	213,04
378,2	193,8
378,6	171,04
379,1	158,68
379,5	142,72
380	130,12
380,4	123,96
380,9	116,68
381,4	103,08
381,8	88,32
382,3	79,56
382,7	60,6
383,2	51,8
383,6	42,84
384,1	37,8
384,6	27,76
385	22,52
385,5	15,2
385,9	18
386,4	16,92
386,8	16,84
387,3	16,48
387,7	11,32
388,2	4,68
388,7	5,96
389,1	-1,6
389,6	-9,92
390	-10,8
390,5	-10,04
390,9	-15,28
391,4	-12,96
391,9	-15,48
392,3	-13,64
392,8	-17,96
393,2	-12,04
393,7	-15,08
394,1	-9,44
394,6	-15,92
395,1	-16,72
395,5	-24,6
396	-23,48
396,4	-29,28
396,9	-29,8
397,3	-29,24
397,8	-31,68
398,2	-32,28
398,7	-27,76
399,2	-28,28
399,6	-29,56
400,1	-27,92
400,5	-29,68
401	-27,28
401,4	-23,4
401,9	-21,24
402,4	-23,36
402,8	-22,64
403,3	-25,96
403,7	-24,6
404,2	-28
404,6	-28,44
405,1	-23,32
405,5	-22,76
406	-21,92
406,5	-20,92
406,9	-17,68
407,4	-19,08
407,8	-16,6
408,3	-15,08
408,7	-10,12
409,2	-6,48
409,6	-3,4
410,1	-7,28
410,6	-10,28
411	-14
411,5	-5,72
411,9	-0,24
412,4	13,36
412,8	17,96
413,3	21,76
413,7	20,16
414,2	25,52
414,7	21,92
415,1	31,08
415,6	42,64
416	50,84
416,5	54,76
416,9	65,8
417,4	72,92
417,8	81,04
418,3	84,24
418,8	88,72
419,2	92,92
419,7	100,16
420,1	100,92
420,6	105,48
421	111,96
421,5	124,24
421,9	134,28
422,4	145,16
422,8	157,16
423,3	170,96
423,8	181,76
424,2	184,36
424,7	201
425,1	218,08
425,6	227,56
426	231,8
426,5	245,6
426,9	248,08
427,4	257,4
427,9	269,16
428,3	288,76
428,8	303,72
429,2	327,16
429,7	347,52
430,1	369,16
430,6	389,12
431	409,48
431,5	427,6
431,9	438,76
432,4	460,92
432,8	482
433,3	511,36
433,8	539,52
434,2	572,8
434,7	602,48
435,1	631,8
435,6	664,44
436	692,04
436,5	731,76
436,9	760
437,4	801,16
437,8	828,28
438,3	868
438,8	897,96
439,2	935,44
439,7	969,56
440,1	1013,68
440,6	1049,24
441	1093,12
441,5	1137
441,9	1185,68
442,4	1233,56
442,8	1287,88
443,3	1336,68
443,7	1388,92
444,2	1443,72
444,7	1505,32
445,1	1563,36
445,6	1629,6
446	1694,92
446,5	1756,48
446,9	1815,04
447,4	1880,28
447,8	1942,88
448,3	2007,8
448,7	2071,44
449,2	2135,52
449,6	2200,56
450,1	2272,44
450,6	2334,16
451	2405,68
451,5	2473,56
451,9	2549,96
452,4	2616,48
452,8	2707,16
453,3	2782,68
453,7	2869,68
454,2	2942,24
454,6	3027,4
455,1	3091,44
455,5	3173,24
456	3253,44
456,4	3335,24
456,9	3408,48
457,3	3503,56
457,8	3579,2
458,3	3667,08
458,7	3755,44
459,2	3848,8
459,6	3920,6
460,1	4009,52
460,5	4082
461	4165,08
461,4	4250,92
461,9	4340,24
462,3	4428,52
462,8	4513,36
463,2	4593,16
463,7	4660,12
464,1	4739,84
464,6	4821,76
465	4904,16
465,5	4986
466	5066,6
466,4	5155,12
466,9	5220,6
467,3	5297,84
467,8	5367,2
468,2	5450,48
468,7	5519,68
469,1	5595,32
469,6	5655,92
470	5727,84
470,5	5790,2
470,9	5850,08
471,4	5925,48
471,8	5998,72
472,3	6049,88
472,7	6102,76
473,2	6163,56
473,6	6210,52
474,1	6260,04
474,5	6323,92
475	6385,52
475,4	6440,24
475,9	6492,4
476,4	6539,8
476,8	6588,16
477,3	6637,48
477,7	6668,56
478,2	6706,88
478,6	6750,12
479,1	6798,24
479,5	6835,08
480	6866,88
480,4	6902,16
480,9	6932,92
481,3	6954,32
481,8	6976,68
482,2	7006,56
482,7	7019,72
483,1	7036,56
483,6	7051,08
484	7063,48
484,5	7085,68
484,9	7094,56
485,4	7110,92
485,8	7121,8
486,3	7133,68
486,7	7132,8
487,2	7139,36
487,6	7140,88
488,1	7132,8
488,5	7126,6
489	7126,4
489,4	7120,6
489,9	7103,64
490,4	7095,36
490,8	7079,52
491,3	7065,24
491,7	7048,6
492,2	7032,12
492,6	7016,36
493,1	6992,68
493,5	6960,68
494	6944
494,4	6917,96
494,9	6879,92
495,3	6855,88
495,8	6831,08
496,2	6798,36
496,7	6761,6
497,1	6735,28
497,6	6696,6
498	6662,84
498,5	6626,04
498,9	6592,8
499,4	6560,4
499,8	6532,2
500,3	6493,28
500,7	6453,72
501,2	6428,56
501,6	6377
502,1	6345,96
502,5	6310,12
503	6270,96
503,4	6225,24
503,9	6192,2
504,3	6138,24
504,8	6099,16
505,2	6057,56
505,7	6001,76
506,1	5968,88
506,6	5919,6
507	5863,08
507,5	5821,12
507,9	5778,8
508,4	5724,04
508,8	5678,8
509,3	5647,6
509,7	5590,44
510,2	5545,36
510,6	5488,96
511,1	5441,6
511,5	5377,28
512	5333,48
512,4	5291,68
512,9	5239,64
513,3	5184,96
513,8	5137,12
514,2	5081,76
514,7	5023,64
515,1	4981
515,6	4928,12
516	4873,64
516,5	4818,8
516,9	4758,4
517,4	4703
517,8	4662,6
518,3	4617,16
518,7	4572,16
519,2	4528,44
519,6	4480,32
520,1	4423,96
520,5	4375,96
521	4325,12
521,4	4271,72
521,9	4218,8
522,3	4159,52
522,8	4102,84
523,2	4051,96
523,7	4013,44
524,1	3974,72
524,6	3943,32
525	3899,24
525,5	3855,24
525,9	3810,04
526,4	3758,12
526,8	3697,88
527,3	3647,52
527,7	3601,68
528,2	3545,16
528,6	3504,56
529,1	3472,24
529,5	3440,76
530	3402,6
530,4	3372,56
530,9	3331,64
531,3	3288,96
531,8	3247,2
532,2	3199,88
532,6	3155,64
533,1	3110,92
533,5	3065,96
534	3022,08
534,4	2993,44
534,9	2957,28
535,3	2930,64
535,8	2901,8
536,2	2864,72
536,7	2826,64
537,1	2789,76
537,6	2741,16
538	2702,88
538,5	2663,52
538,9	2628,16
539,4	2592
539,8	2561,96
540,3	2524
540,7	2496,96
541,2	2465,72
541,6	2435,8
542,1	2407,8
542,5	2384,84
543	2353,48
543,4	2317,48
543,9	2284,08
544,3	2255,24
544,8	2227,8
545,2	2206,96
545,7	2182,2
546,1	2165,96
546,5	2142,12
547	2111,8
547,4	2078,72
547,9	2055,72
548,3	2022,24
548,8	1995,48
549,2	1967,6
549,7	1939,8
550,1	1917
550,6	1893
551	1871,56
551,5	1851,2
551,9	1835,12
552,4	1814,84
552,8	1789,84
553,3	1761,4
553,7	1741,76
554,2	1714,24
554,6	1695,36
555,1	1686,36
555,5	1676,08
555,9	1652,44
556,4	1642,2
556,8	1623,08
557,3	1597,2
557,7	1567,76
558,2	1553,76
558,6	1532,8
559,1	1505,4
559,5	1485,52
560	1470,76
560,4	1453,76
560,9	1438,64
561,3	1425,76
561,8	1413,32
562,2	1392
562,7	1370,2
563,1	1351,32
563,6	1333,44
564	1319
564,4	1314,68
564,9	1303,68
565,3	1282,92
565,8	1272,16
566,2	1252,64
566,7	1231,88
567,1	1212,12
567,6	1207,76
568	1193,24
568,5	1175,72
568,9	1158,52
569,4	1152,68
569,8	1132,12
570,3	1124,08
570,7	1114,88
571,1	1102,2
571,6	1090,24
572	1082,84
572,5	1063,28
572,9	1054
573,4	1052,68
573,8	1038,12
574,3	1023,36
574,7	1013,36
575,2	992,28
575,6	977,84
576,1	962,36
576,5	944,08
576,9	933,8
577,4	932,08
577,8	920,32
578,3	919,48
578,7	918,6
579,2	909,2
579,6	897,96
580,1	883,04
580,5	870,44
581	858,8
581,4	848,36
581,9	837,96
582,3	831,16
582,7	823,36
583,2	810,16
583,6	802,44
584,1	795,68
584,5	783,68
585	769,2
585,4	759,4
585,9	752,28
586,3	741
586,8	731,16
587,2	725,08
587,6	722,4
588,1	710,64
588,5	702,6
589	702,92
589,4	700,16
589,9	698,84
590,3	689,28
590,8	685,48
591,2	672,76
591,7	666,28
592,1	659,96
592,5	654,96
593	643,72
593,4	632,44
593,9	621,96
594,3	608,68
594,8	598,72
595,2	590,76
595,7	600,04
596,1	597,2
596,6	596,88
597	597,68
597,4	598,28
597,9	591,32
598,3	579,56
598,8	572,12
599,2	559,32
599,7	548,4
600,1	537,52
600,6	534,2
601	524,64
601,4	525,6
601,9	530,04
602,3	524,76
602,8	525,68
603,2	520,72
603,7	518,08
604,1	506,96
604,6	501,52
605	494,68
605,4	490,8
605,9	485,44
606,3	489,52
606,8	486,32
607,2	479,56
607,7	479,6
608,1	472,12
608,6	469
609	462,16
609,4	456,36
609,9	452,2
610,3	444,88
610,8	432,6
611,2	426,68
611,7	426,32
612,1	417,04
612,6	422,28
613	414,96
613,4	420,84
613,9	413,24
614,3	415,72
614,8	409,72
615,2	410,44
615,7	405,48
616,1	405,64
616,6	395,52
617	390,32
617,4	386,44
617,9	383,16
618,3	369,44
618,8	370,84
619,2	366,28
619,7	367,28
620,1	360,2
620,5	368,56
621	362,68
621,4	363,72
621,9	360,16
622,3	355,68
622,8	350,2
623,2	345,52
623,6	337,52
624,1	332,48
624,5	329,2
625	328,96
625,4	333
625,9	335,76
626,3	335,72
626,8	337,72
627,2	330,76
627,6	323,84
628,1	315,92
628,5	311,08
629	303,28
629,4	301,16
629,9	300,36
630,3	295,8
630,7	291,8
631,2	283,36
631,6	281,56
632,1	279,32
632,5	280,48
633	278,08
633,4	283
633,8	279,2
634,3	275,24
634,7	271,4
635,2	269,68
635,6	266,72
636,1	266,44
636,5	266,04
636,9	261,4
637,4	257,36
637,8	262,2
638,3	256,84
638,7	250,84
639,2	256,8
639,6	256,2
640	252,4
640,5	252,72
640,9	249,44
641,4	238,8
641,8	231,64
642,2	225,12
642,7	222,52
643,1	218,96
643,6	222,72
644	225,16
644,5	223,16
644,9	228,4
645,3	233,12
645,8	234,6
646,2	228,56
646,7	226,52
647,1	218,64
647,6	212,2
648	204,4
648,4	210,16
648,9	212,96
649,3	211,44
649,8	215,84
650,2	226,92
650,6	226,24
651,1	221,44
651,5	225,92
652	224,76
652,4	212,72
652,9	202,28
653,3	199,52
653,7	195,8
654,2	191,56
654,6	192,2
655,1	194,32
655,5	190,12
655,9	191,36
656,4	190,88
656,8	189
657,3	185,72
657,7	191,44
658,2	186,68
658,6	186,24
659	176,6
659,5	180,92
659,9	177,28
660,4	171,56
660,8	172,72
661,2	181,88
661,7	181,84
662,1	178,92
662,6	172,64
663	166,48
663,4	162,48
663,9	159,52
664,3	162,2
664,8	169,56
665,2	168,92
665,6	161,04
666,1	156,48
666,5	149,4
667	145,28
667,4	143,2
667,9	152,84
668,3	148
668,7	150,08
669,2	155,96
669,6	157,72
670,1	150,56
670,5	155,32
670,9	150,28
671,4	137,6
671,8	137,68
672,3	141,88
672,7	138,52
673,1	144,16
673,6	149,32
674	145
674,5	139,76
674,9	142,24
675,3	135,24
675,8	131,44
676,2	129
676,7	129,16
677,1	127,16
677,5	126,12
678	126,16
678,4	130,6
678,9	126,6
679,3	120,52
679,7	123,96
680,2	126,64
680,6	121,04
681,1	118,52
681,5	123,6
681,9	118,36
682,4	119,8
682,8	115
683,3	122,2
683,7	117,6
684,1	122
684,6	114,6
685	118,56
685,5	110,88
685,9	106,04
686,3	103,48
686,8	105,72
687,2	100,88
687,7	98,48
688,1	106,24
688,5	109,04
689	102,88
689,4	106,32
689,9	108,64
690,3	114,4
690,7	106,92
691,2	112,2
691,6	107,72
692	108,44
692,5	104,24
692,9	106,56
693,4	107,52
693,8	116,8
694,2	113,84
694,7	114,16
695,1	113,84
695,6	109,52
696	100,36
696,4	99,28
696,9	98,68
697,3	98,52
697,8	95
698,2	95,32
698,6	94,52
699,1	81,68
699,5	77,6
699,9	79
700,4	77,6
700,8	78,72
701,3	76,52
701,7	82,12
702,1	86,96
702,6	90,16
703	90
703,5	94,4
703,9	86,76
704,3	83,96
704,8	78,88
705,2	80,32
705,6	78,24
706,1	79,4
706,5	74,76
707	78,32
707,4	76,56
707,8	82,4
708,3	84,16
708,7	82,84
709,2	74,64
709,6	72,2
710	65
710,5	61,88
710,9	62,36
711,3	67,56
711,8	64,72
712,2	69,16
712,7	67,24
713,1	66,8
713,5	68,12
714	63,12
714,4	60,8
714,8	62,92
715,3	61,8
715,7	61,48
716,2	59,44
716,6	60,04
717	58,08
717,5	58,64
717,9	52,64
718,3	61,8
718,8	63,4
719,2	60,28
719,7	57,48
720,1	60,52
720,5	58,16
721	51,36
721,4	57,48
721,8	61,4
722,3	55,68
722,7	52,4
723,2	59,8
723,6	54,6
724	49,04
724,5	53,08
724,9	56,28
725,3	51,28
725,8	47,72
726,2	48,32
726,7	46,2
727,1	40,56
727,5	36,24
728	35,96
728,4	29,08
728,8	28,48
729,3	34,36
729,7	42,68
730,1	49,84
730,6	57,52
731	54,12
731,5	55,44
731,9	47,04
732,3	47,32
732,8	45,44
733,2	52,72
733,6	45,92
734,1	46,44
734,5	39,64
734,9	45,28
735,4	42,48
735,8	46,36
736,3	50,36
736,7	50,88
737,1	45,08
737,6	43,84
738	39,88
738,4	39,84
738,9	37,96
739,3	36,84
739,7	36,32
740,2	34,32
740,6	32,84
741,1	36,6
741,5	41,88
741,9	44,32
742,4	42,6
742,8	37,16
743,2	31,28
743,7	27,08
744,1	21,72
744,5	23,44
745	21,92
745,4	32,32
745,8	31,44
746,3	36,12
746,7	33,8
747,2	38,24
747,6	25,44
748	21,52
748,5	15,64
748,9	19,08
749,3	21,72
749,8	29,92
750,2	28,6
750,6	33,44
751,1	37,68
751,5	34,64
751,9	31,44
752,4	35,64
752,8	31,2
753,3	29,92
753,7	28,68
754,1	25,36
754,6	22,36
755	26,56
755,4	27
755,9	24,72
756,3	27,92
756,7	35,08
757,2	26,88
757,6	19
758	19,08
758,5	18,36
758,9	12,12
759,3	21,4
759,8	23,76
760,2	24,88
760,6	22,04
761,1	19,36
761,5	11,48
761,9	5,96
762,4	11,96
762,8	12,2
763,3	16,96
763,7	15,56
764,1	22,28
764,6	18,72
765	22,84
765,4	23,12
765,9	26,52
766,3	20,68
766,7	19,84
767,2	16,36
767,6	8,6
768	3,32
768,5	8,32
768,9	7
769,3	4,36
769,8	10,2
770,2	15,76
770,6	16,24
771,1	13,72
771,5	7,92
771,9	5,6
772,4	4,56
772,8	2,44
773,2	5,8
773,7	18,4
774,1	20,4
774,5	19,64
775	20,96
775,4	17,6
775,8	15,6
776,3	11,52
776,7	12,04
777,1	9,44
777,6	7,4
778	4,28
778,4	7,92
778,9	8,08
779,3	3,76
779,7	4,64
780,2	4,96
780,6	4,84
781	1,92
781,5	5,08
781,9	2,4
782,3	-0,88
782,8	-0,32
783,2	5,12
783,6	5
784,1	4,24
784,5	4,32
784,9	-1,8
785,4	-5,24
785,8	-7,52
786,2	-8,12
786,7	-6,2
787,1	-2,72
787,5	-5,76
788	-0,96
788,4	1,92
788,8	1,32
789,3	4,6
789,7	3,28
790,1	2,64
790,6	5,12
791	6
791,4	3,68
791,9	5,04
792,3	-2,96
792,7	-1,24
793,2	3,72
793,6	-0,32
794	5,28
794,5	7,28
794,9	-7,04
795,3	-18,24
795,8	-17,04
796,2	-24,52
796,6	-22,24
797,1	-7,04
797,5	-11
797,9	-10
798,4	-5,72
798,8	-1,56
799,2	-4,36
799,7	2,72
800,1	0,24
800,5	1,92
801	-3,88
801,4	-4,24
801,8	-1,96
802,2	-1,08
802,7	-3,4
803,1	0,4
803,5	-0,4
804	-3
804,4	-3,2
804,8	-2,24
805,3	2,24
805,7	-5,08
806,1	-4,96
806,6	-0,52
807	-5,68
807,4	-12,28
807,9	-4,84
808,3	-2,44
808,7	-2,96
809,2	1,88
809,6	-2,68
810	-4,28
810,4	-2,56
810,9	-7,72
811,3	-10,08
811,7	-9,44
812,2	-12,48
812,6	-20,96
813	-23,04
813,5	-15,68
813,9	-8,8
814,3	-6
814,8	-3,04
815,2	-6,84
815,6	-10,6
816,1	-16,04
816,5	-19,64
816,9	-16,04
817,3	-9
817,8	-12,64
818,2	-11,28
818,6	-10,96
819,1	-12,84
819,5	-15,32
819,9	-15,76
820,4	-14,96
820,8	-9,8
821,2	-9
821,7	-3,68
822,1	-1,2
822,5	-4,92
822,9	-6,6
823,4	-9,2
823,8	-13,64
824,2	-14,12
824,7	-11,28
825,1	-9,44
825,5	-9,2
826	-8,52
826,4	-12,2
826,8	-18,04
827,3	-22,72
827,7	-19,8
828,1	-18,04
828,5	-19,04
829	-14,56
829,4	-11,16
829,8	-14,8
830,3	-14,52
830,7	-13,6
831,1	-11,04
831,6	-16,16
832	-14,32
832,4	-18,52
832,8	-21,64
833,3	-27,4
833,7	-26,16
834,1	-28,44
834,6	-29,08
835	-29,96
835,4	-26,36
835,8	-28,16
836,3	-25,68
836,7	-25,8
837,1	-24,56
837,6	-23,36
838	-21,64
838,4	-29,24
838,9	-28,92
839,3	-26,68
839,7	-24,92
840,1	-29,04
840,6	-25,8
841	-23,92
841,4	-33,36
841,9	-36,32
842,3	-30,28
842,7	-31,28
843,1	-31,92
843,6	-18,52
844	-19,56
844,4	-19,52
844,9	-21,16
845,3	-17,32
845,7	-22,48
846,2	-21,08
846,6	-18,6
847	-16,68
847,4	-23,32
847,9	-25,12
848,3	-24,12
848,7	-32,64
849,2	-33,36
849,6	-32,44
850	-31,12
850,4	-32,56
850,9	-29,28
851,3	-21,16
851,7	-28,16
852,2	-27,08
852,6	-30,16
853	-30,68
853,4	-40,6
853,9	-33
854,3	-36,16
854,7	-31,56
855,2	-28,6
855,6	-24,52
856	-23,84
856,4	-23,36
856,9	-22,72
857,3	-23,24
857,7	-24,6
858,2	-22,04
858,6	-25,16
859	-25,56
859,4	-31,24
859,9	-32,6
860,3	-34,96
860,7	-25,72
861,1	-29,84
861,6	-26,48
862	-23
862,4	-21,84
862,9	-24,84
863,3	-23,16
863,7	-22,28
864,1	-25,68
864,6	-20,12
865	-22,4
865,4	-20,04
865,9	-22,96
866,3	-27,44
866,7	-36,16
867,1	-39,4
867,6	-42,56
868	-39,44
868,4	-30,96
868,8	-30,4
869,3	-29,24
869,7	-29,96
870,1	-27,8
870,6	-28
871	-22,08
871,4	-5,84
871,8	-8,32
872,3	-14,64
872,7	-11,12
873,1	-16,6
873,5	-30,28
874	-26,76
874,4	-26,28
874,8	-30,44
875,3	-32,2
875,7	-29,36
876,1	-33,16
876,5	-32,88
877	-34,16
877,4	-34,36
877,8	-32,68
878,2	-24,12
878,7	-20
879,1	-20,64
879,5	-15,12
879,9	-21,76
880,4	-31,04
880,8	-34,72
881,2	-33,92
881,7	-37,84
882,1	-33,4
882,5	-29,36
882,9	-23,84
883,4	-21,52
883,8	-18,2
884,2	-24,76
884,6	-29,44
885,1	-33,4
885,5	-38,16
885,9	-37,28
886,3	-39,32
886,8	-36,24
887,2	-39,16
887,6	-36,72
888	-45,24
888,5	-39,16
888,9	-39,08
889,3	-47,04
889,8	-46,24
890,2	-40,12
890,6	-37,04
891	-33,88
891,5	-21,64
891,9	-23
892,3	-18,48
892,7	-18
893,2	-20,08
893,6	-19,12
894	-20,2
894,4	-28,12
894,9	-30,48
895,3	-35,84
895,7	-39,56
896,1	-30,88
896,6	-32,88
897	-36,24
897,4	-30,08
897,8	-30,68
898,3	-40,84
898,7	-32,72
899,1	-28,04
899,5	-24
900	-25,8
900,4	-22,44
900,8	-27,08
901,2	-32,12
901,7	-38,8
902,1	-34,84
902,5	-37,44
902,9	-38,64
903,4	-38,04
903,8	-41
904,2	-45,12
904,6	-40,8
905,1	-37,64
905,5	-38
905,9	-32,32
906,3	-26,68
906,8	-29,2
907,2	-28,84
907,6	-24,88
908	-31,6
908,5	-37,08
908,9	-35,48
909,3	-40
909,7	-45,88
910,2	-35,84
910,6	-30,16
911	-29,92
911,4	-29,28
911,9	-30,92
912,3	-35,52
912,7	-37,32
913,1	-40,84
913,6	-45,04
914	-41,12
914,4	-44,56
914,8	-44,12
915,3	-39,96
915,7	-35,32
916,1	-33,6
916,5	-28,64
916,9	-29,12
917,4	-31,6
917,8	-30,88
918,2	-29,64
918,6	-31,92
919,1	-31
919,5	-30,52
919,9	-29,76
920,3	-28,92
920,8	-32,64
921,2	-32,44
921,6	-34,52
922	-40,32
922,5	-41,56
922,9	-39,36
923,3	-37,24
923,7	-35,88
924,2	-31,88
924,6	-33,04
925	-19,76
925,4	-26,84
925,8	-28,64
926,3	-31,72
926,7	-26,08
927,1	-39,08
927,5	-36,36
928	-32,68
928,4	-27,56
928,8	-35,88
929,2	-31,6
929,7	-30,04
930,1	-31,28
930,5	-34,6
930,9	-30,16
931,3	-32,12
931,8	-36,08
932,2	-34,16
932,6	-37,32
933	-39,16
933,5	-34,48
933,9	-38,24
934,3	-43,68
934,7	-38,48
935,2	-39,36
935,6	-48,96
936	-49,8
936,4	-47,92
936,8	-44,92
937,3	-47,72
937,7	-48,48
938,1	-40,4
938,5	-41,56
939	-46,48
939,4	-48,32
939,8	-48,24
940,2	-49,48
940,6	-50
941,1	-49,32
941,5	-43,28
941,9	-41,08
942,3	-45
942,8	-49,76
943,2	-49
943,6	-50,64
944	-48,52
944,4	-46,4
944,9	-38,32
945,3	-42,04
945,7	-46,36
946,1	-44,96
946,6	-48,44
947	-49,8
947,4	-46,04
947,8	-41,48
948,2	-43,88
948,7	-35,44
949,1	-35,88
949,5	-41
949,9	-35,96
950,3	-40,52
950,8	-41,88
951,2	-44,4
951,6	-42,24
952	-49,96
952,5	-44,84
952,9	-46,68
953,3	-45,68
953,7	-47,92
954,1	-43,16
954,6	-44,16
955	-46
955,4	-41,4
955,8	-30,96
956,2	-36,04
956,7	-31,4
957,1	-26,24
957,5	-30,72
957,9	-42,08
958,3	-38
958,8	-47
959,2	-49,6
959,6	-49,72
960	-50,2
960,5	-58,56
960,9	-49,32
961,3	-53,44
961,7	-51,48
962,1	-46,12
962,6	-39,8
963	-51,4
963,4	-44,44
963,8	-47,12
964,2	-46,76
964,7	-45,12
965,1	-35,8
965,5	-44,64
965,9	-43,48
966,3	-39,4
966,8	-38,4
967,2	-36,72
967,6	-33,52
968	-28,12
968,4	-32,28
968,9	-36,56
969,3	-47,96
969,7	-45,44
970,1	-52,12
970,5	-52,24
971	-44,12
971,4	-41,4
971,8	-44,04
972,2	-41
972,6	-41,8
973,1	-48,48
973,5	-41,88
973,9	-41,12
974,3	-40,48
974,7	-40,84
975,2	-43,08
975,6	-44,52
976	-41,8
976,4	-47,92
976,8	-47,36
977,3	-45,6
977,7	-38,4
978,1	-41,24
978,5	-34,6
978,9	-34,52
979,4	-37,48
979,8	-44,8
980,2	-45,2
980,6	-47,64
981	-45,8
981,5	-40,68
981,9	-38,84
982,3	-40,44
982,7	-38
983,1	-38,08
983,6	-37,88
984	-39,28
984,4	-38,68
984,8	-37,56
985,2	-40,2
985,6	-43,24
986,1	-41,04
986,5	-36,28
986,9	-37,2
987,3	-35,32
987,7	-33,96
988,2	-33,08
988,6	-35,2
989	-36,8
989,4	-41,04
989,8	-43,44
990,3	-49,64
990,7	-49,44
991,1	-51,76
991,5	-45,64
991,9	-40,88
992,3	-37,2
992,8	-36,2
993,2	-31,04
993,6	-34,36
994	-33,12
994,4	-31,4
994,9	-31,84
995,3	-35,68
995,7	-34,28
996,1	-37,08
996,5	-41,68
996,9	-43,6
997,4	-47
997,8	-51,68
998,2	-45,76
998,6	-43,2
999	-44,76
999,5	-42,04
999,9	-39,24
1000,3	-43,24
1000,7	-46,52
1001,1	-44,48
1001,5	-40,44
1002	-40
1002,4	-47,28
1002,8	-44,68
1003,2	-42,96
1003,6	-40,68
1004	-38,84
1004,5	-33,24
1004,9	-32,88
1005,3	-33,48
1005,7	-39,72
1006,1	-35,84
1006,6	-34
1007	-33,24
1007,4	-37
1007,8	-34,76
1008,2	-39,24
1008,6	-40,48
1009,1	-42,6
1009,5	-37,56
1009,9	-37,64
1010,3	-38,16
1010,7	-34,8
1011,1	-33,52
1011,6	-37,36
1012	-37,32
1012,4	-41,4
1012,8	-48,72
1013,2	-43,44
1013,6	-43,32
1014,1	-49,36
1014,5	-42,4
1014,9	-39,08
1015,3	-43,36
1015,7	-38,68
1016,1	-31,56
1016,6	-35,44
1017	-32,92
1017,4	-38,8
1017,8	-44,72
1018,2	-51,36
1018,6	-44,72
1019,1	-47,4
1019,5	-43,52
1019,9	-44,08
1020,3	-37,32
1020,7	-42,8
1021,1	-47,56
1021,6	-44,16
1022	-42,84
1022,4	-45,48
1022,8	-47,4
1023,2	-47
1023,6	-48,56
1024,1	-49,12
1024,5	-50,88
1024,9	-47,92
1025,3	-47,24
1025,7	-45,96
1026,1	-47,12
1026,6	-43,72
1027	-44,8
1027,4	-51,72
1027,8	-59,44
1028,2	-57,88
1028,6	-62,56
1029	-60,92
1029,5	-56,28
1029,9	-49,88
1030,3	-49,4
1030,7	-46,04
1031,1	-54,72
1031,5	-51,92
1032	-54,48
1032,4	-61,4
1032,8	-64,8
1033,2	-59
1033,6	-53,88
1034	-53,04
1034,4	-44,6
1034,9	-44,12
1035,3	-39,04
1035,7	-49,32
1036,1	-46,48
1036,5	-44,08
1036,9	-42,48
1037,4	-50,68
1037,8	-44,4
1038,2	-48,92
1038,6	-52,44
1039	-51,72
1039,4	-48,4
1039,8	-49,16
1040,3	-52,28
1040,7	-56,44
1041,1	-59,72
1041,5	-61,52
1041,9	-62,4
1042,3	-57,08
1042,7	-51,24
1043,2	-49,84
1043,6	-49,88
1044	-49,44
1044,4	-49,04
1044,8	-52,16
1045,2	-54,84
1045,6	-55,08
1046,1	-52,76
1046,5	-56,52
1046,9	-56,32
1047,3	-50
1047,7	-48,88
1048,1	-46,48
1048,5	-47,2
1049	-40,88
1049,4	-47,24
1049,8	-44,84
1050,2	-45,68
1050,6	-43,2
1051	-51,04
1051,4	-43,44
1051,9	-48,52
1052,3	-57,4
1052,7	-60,04
1053,1	-63,16
1053,5	-65,72
1053,9	-60,8
1054,3	-54,76
1054,8	-49,16
1055,2	-40,2
1055,6	-43,04
1056	-39,28
1056,4	-41,44
1056,8	-44,4
1057,2	-43,68
1057,6	-46,8
1058,1	-49,72
1058,5	-44,68
1058,9	-47,04
1059,3	-55,92
1059,7	-47,2
1060,1	-52,08
1060,5	-51,6
1061	-46,76
1061,4	-42,32
1061,8	-42,36
1062,2	-35,16
1062,6	-40,36
1063	-48,2
1063,4	-46,44
1063,8	-55,04
1064,3	-54,16
1064,7	-49,92
1065,1	-44,16
1065,5	-46,24
1065,9	-42
1066,3	-48,56
1066,7	-52,72
1067,1	-53,04
1067,6	-50,44
1068	-56,2
1068,4	-55,04
1068,8	-54,48
1069,2	-50,08
1069,6	-57,2
1070	-49,56
1070,4	-47,8
1070,9	-38,68
1071,3	-40
1071,7	-34,84
1072,1	-32,36
1072,5	-35,2
1072,9	-38,64
1073,3	-35,6
1073,7	-37,28
1074,2	-44,68
1074,6	-42,52
1075	-45,44
1075,4	-50,8
1075,8	-46,56
1076,2	-39,64
1076,6	-42,08
1077	-41,12
1077,5	-45,56
1077,9	-44,72
1078,3	-44,12
1078,7	-40,72
1079,1	-38,8
1079,5	-31,16
1079,9	-32,24
1080,3	-35,44
1080,7	-35,92
1081,2	-37,6
1081,6	-43,12
1082	-44,64
1082,4	-43,92
1082,8	-48,84
1083,2	-50,24
1083,6	-46,92
1084	-49,8
1084,5	-49,04
1084,9	-50,68
1085,3	-46,88
1085,7	-47,2
1086,1	-43,8
1086,5	-43,52
1086,9	-33,64
1087,3	-38,36
1087,7	-34,32
1088,2	-29,92
1088,6	-27,04
1089	-31,08
1089,4	-29,12
1089,8	-31,32
1090,2	-31,8
1090,6	-34,96
1091	-35,44
1091,4	-37,8
1091,9	-43,6
1092,3	-46,52
1092,7	-46
1093,1	-45,96
1093,5	-42,56
1093,9	-37,16
1094,3	-37,92
1094,7	-40,44
1095,1	-37,64
1095,5	-42,72
1096	-40,68
1096,4	-42,56
1096,8	-34,44
1097,2	-35,36
1097,6	-28,84
1098	-34,56
1098,4	-30,44
1098,8	-41,28
1099,2	-41,4
1099,6	-41,24
1100,1	-35,76
1100,5	-34,32
1100,9	-26,28
1101,3	-22
1101,7	-26,16
1102,1	-26,08
1102,5	-28,08
1102,9	-28
1103,3	-34,04
1103,7	-31,24
1104,2	-30,56
1104,6	-33,08
1105	-34,16
1105,4	-27,48
1105,8	-27,32
1106,2	-23,44
1106,6	-14,16
1107	-8,8
1107,4	-6,52
1107,8	-0,45
1108,3	0,867
