Data from Subt2_00076.txt Node
Date: Fri Aug 11 16:35:27 MSK 2023
User: vat
Spectrometer: MAYP114033
Trigger mode: 0
Integration Time (sec): 5,000000E-1
Scans to average: 5
Electric dark correction enabled: true
Nonlinearity correction enabled: false
Boxcar width: 2
XAxis mode: Wavelengths
Number of Pixels in Spectrum: 2068
>>>>>Begin Spectral Data<<<<<
199,4	1,8
199,9	0,9
200,4	-0,32
200,8	-3,04
201,3	-1,88
201,8	-2,28
202,2	-3,2
202,7	1,72
203,2	5,92
203,6	4,2
204,1	3
204,6	0,72
205	-4,76
205,5	-8,36
206	-8,76
206,4	-7,92
206,9	-4,48
207,4	0,36
207,8	4,72
208,3	5,6
208,8	12,16
209,2	14,96
209,7	12,44
210,2	11,56
210,6	12,6
211,1	6,76
211,5	5
212	5,76
212,5	-1,64
212,9	-3,28
213,4	-5
213,9	-4,84
214,3	-7,24
214,8	-3,52
215,3	-2,24
215,7	-2,68
216,2	-2,8
216,7	-3,48
217,1	-6,76
217,6	-11,6
218,1	-10,76
218,5	-7,76
219	-2,76
219,5	3,68
219,9	7,6
220,4	13,32
220,9	11,44
221,3	8,64
221,8	5,2
222,3	5,24
222,7	-1,96
223,2	-1,12
223,6	-1,48
224,1	4,36
224,6	7,96
225	10,64
225,5	4,6
226	6,28
226,4	-6,44
226,9	-10,96
227,4	-8,84
227,8	-2,6
228,3	-8,36
228,8	5,92
229,2	4,04
229,7	0,96
230,2	1,08
230,6	1,24
231,1	-3,76
231,5	-0,6
232	6,16
232,5	4,08
232,9	8,68
233,4	7,2
233,9	9
234,3	5,4
234,8	3,2
235,3	-0,28
235,7	1
236,2	-2,76
236,7	-9,92
237,1	-8,28
237,6	-10,4
238,1	-8,52
238,5	-6,6
239	-3,64
239,4	-5,04
239,9	3,2
240,4	4,84
240,8	8,24
241,3	12,12
241,8	11,52
242,2	3,92
242,7	0,16
243,2	-7,96
243,6	-8,88
244,1	-9,48
244,6	-7,2
245	-7,96
245,5	-1,8
245,9	-0,56
246,4	5,04
246,9	7,08
247,3	7,16
247,8	-1,4
248,3	-2,4
248,7	-4,4
249,2	-4,08
249,7	-4,84
250,1	-3,52
250,6	-10,32
251	-15,08
251,5	-11,72
252	-6,92
252,4	5,28
252,9	11,88
253,4	15,32
253,8	10,8
254,3	9,44
254,8	9,2
255,2	6,52
255,7	11,64
256,1	9,28
256,6	6,6
257,1	2,76
257,5	0,88
258	-4,08
258,5	1,76
258,9	0,8
259,4	-4
259,9	-0,72
260,3	-0,88
260,8	1,48
261,2	4,68
261,7	8,4
262,2	5,32
262,6	1,68
263,1	-3,84
263,6	-2,2
264	-6
264,5	-4,76
264,9	1,72
265,4	0,2
265,9	-0,28
266,3	1,64
266,8	8,12
267,3	1,72
267,7	1,76
268,2	5,08
268,7	6,24
269,1	2
269,6	10,88
270	6,08
270,5	1,24
271	-0,6
271,4	-0,8
271,9	-7,64
272,4	3,72
272,8	-0,28
273,3	-0,12
273,7	3,28
274,2	7,44
274,7	3,12
275,1	4,92
275,6	1,36
276,1	-5,96
276,5	-7,08
277	-9,36
277,4	-8,4
277,9	1,16
278,4	3,32
278,8	2,96
279,3	6,44
279,8	8,88
280,2	8,84
280,7	12,64
281,1	9,04
281,6	5,2
282,1	0,8
282,5	-8,36
283	-6,88
283,4	-3,52
283,9	0,96
284,4	4,96
284,8	5,04
285,3	2,84
285,8	4,04
286,2	1,36
286,7	2,2
287,1	6,76
287,6	5,96
288,1	4,76
288,5	6,6
289	0,64
289,5	-2,96
289,9	-5,04
290,4	-4,28
290,8	-6,24
291,3	-2,16
291,8	6,12
292,2	6,6
292,7	4
293,1	6,56
293,6	8,28
294,1	-1,4
294,5	-2,32
295	3,72
295,5	4,36
295,9	-3,44
296,4	3,16
296,8	6,28
297,3	3,12
297,8	2,48
298,2	12,72
298,7	9,16
299,1	5,64
299,6	1,36
300,1	0,28
300,5	-0,52
301	0,72
301,5	4,88
301,9	3,28
302,4	-0,24
302,8	-1,44
303,3	-0,88
303,8	-4,48
304,2	3,24
304,7	6,2
305,1	1,24
305,6	0,64
306,1	1,2
306,5	-3,28
307	1,28
307,4	7,12
307,9	5,32
308,4	8,04
308,8	7,76
309,3	-0,12
309,8	-1,64
310,2	1,52
310,7	0,76
311,1	-0,2
311,6	2,28
312,1	1,84
312,5	-0,96
313	-3,2
313,4	-4
313,9	-0,4
314,4	-6,6
314,8	-10
315,3	-10,04
315,7	-12,2
316,2	-15,24
316,7	-17,36
317,1	-17,28
317,6	-19,08
318	-8,56
318,5	-5,6
319	-0,64
319,4	7,8
319,9	9,92
320,3	1,76
320,8	-4,12
321,3	0,12
321,7	0,36
322,2	2,96
322,6	0,12
323,1	-0,84
323,6	-5,6
324	-10,72
324,5	-15,88
324,9	-8,68
325,4	-4,84
325,9	-0,76
326,3	3,56
326,8	5,64
327,2	2,56
327,7	-3,64
328,2	-0,56
328,6	-1,36
329,1	1
329,5	0,96
330	11,44
330,5	8,64
330,9	6,92
331,4	-0,76
331,8	-0,12
332,3	-4,64
332,8	-6
333,2	-8,8
333,7	-3,56
334,1	-2,88
334,6	-2,8
335,1	-3,68
335,5	0,16
336	1,12
336,4	-3,72
336,9	-0,84
337,4	-3,84
337,8	-6,48
338,3	-2
338,7	3,28
339,2	-0,84
339,7	1,88
340,1	6,8
340,6	5,04
341	10,44
341,5	11,72
342	10,64
342,4	8,84
342,9	4,56
343,3	-5,44
343,8	-4,8
344,2	1,84
344,7	-0,96
345,2	-1,44
345,6	3,16
346,1	-1,92
346,5	-4,52
347	3,28
347,5	4,48
347,9	5,48
348,4	11,92
348,8	6,44
349,3	3,32
349,8	6,56
350,2	5,56
350,7	1,2
351,1	5,48
351,6	4,36
352	0,68
352,5	1,96
353	13,08
353,4	19,68
353,9	19,32
354,3	25,72
354,8	24,88
355,3	20,96
355,7	20,4
356,2	27,24
356,6	33,76
357,1	50,84
357,5	64,28
358	72,24
358,5	84,28
358,9	96,52
359,4	101,76
359,8	122,12
360,3	144,52
360,8	164,92
361,2	187,56
361,7	217,52
362,1	246,12
362,6	277,84
363	316,32
363,5	355,8
364	394,96
364,4	422,32
364,9	459,2
365,3	498,68
365,8	533,32
366,3	565,6
366,7	606,44
367,2	637,88
367,6	655,92
368,1	669,88
368,5	681,24
369	683,64
369,5	684,56
369,9	682,68
370,4	676,04
370,8	661,64
371,3	644,68
371,7	614,44
372,2	583,04
372,7	556,4
373,1	529,4
373,6	498,28
374	472,28
374,5	439,8
374,9	408,32
375,4	374,64
375,9	345,4
376,3	318,6
376,8	299,32
377,2	276,52
377,7	253,76
378,2	233,64
378,6	213,4
379,1	189,8
379,5	172,88
380	163,72
380,4	144,56
380,9	131,48
381,4	119,2
381,8	111,44
382,3	100,32
382,7	97,16
383,2	87,84
383,6	85,76
384,1	73,68
384,6	64,12
385	53,84
385,5	50,64
385,9	45,52
386,4	50,68
386,8	54,4
387,3	50,52
387,7	47,44
388,2	43,96
388,7	33,12
389,1	29,88
389,6	31,76
390	31,36
390,5	27,16
390,9	29,4
391,4	25,44
391,9	20,52
392,3	18,6
392,8	20,52
393,2	17,96
393,7	18,28
394,1	22,92
394,6	20,6
395,1	16,92
395,5	21,36
396	20,48
396,4	16,96
396,9	17,64
397,3	19,48
397,8	15,16
398,2	9,88
398,7	9,56
399,2	9,24
399,6	7,44
400,1	3,72
400,5	6,68
401	3,96
401,4	5,6
401,9	9,52
402,4	11,24
402,8	12,2
403,3	13,48
403,7	9,92
404,2	5,68
404,6	6,72
405,1	5,16
405,5	6,52
406	6,48
406,5	3,84
406,9	-2,6
407,4	-0,32
407,8	-0,32
408,3	0,76
408,7	5,52
409,2	9,12
409,6	10,92
410,1	14,12
410,6	18,08
411	20,36
411,5	24,64
411,9	23,76
412,4	25,96
412,8	25,52
413,3	27,88
413,7	25,16
414,2	31,04
414,7	28,16
415,1	28,88
415,6	27,44
416	33,08
416,5	31,88
416,9	36,6
417,4	39,64
417,8	47,8
418,3	52,2
418,8	54
419,2	55,88
419,7	54,36
420,1	53,8
420,6	49,84
421	45,32
421,5	43,84
421,9	46,68
422,4	39,84
422,8	43,6
423,3	44,68
423,8	46,64
424,2	49,92
424,7	52,4
425,1	49,28
425,6	52,96
426	53,56
426,5	54
426,9	59,04
427,4	67,48
427,9	71,16
428,3	73,28
428,8	76,64
429,2	77,64
429,7	72
430,1	74,04
430,6	80,28
431	82,12
431,5	84,96
431,9	95,12
432,4	95,04
432,8	100,08
433,3	97,36
433,8	101,92
434,2	102,24
434,7	106,12
435,1	104,6
435,6	113,52
436	118,6
436,5	127,84
436,9	138,08
437,4	146,56
437,8	151
438,3	157,04
438,8	155,92
439,2	158,72
439,7	162,12
440,1	168,6
440,6	176,24
441	185,84
441,5	193,52
441,9	198,8
442,4	203,28
442,8	207,8
443,3	223,08
443,7	233,56
444,2	251,84
444,7	267,04
445,1	281,68
445,6	292,96
446	305,6
446,5	307,28
446,9	321,96
447,4	336,28
447,8	342,96
448,3	355,12
448,7	378,04
449,2	387,84
449,6	395,28
450,1	412,68
450,6	422,88
451	434,36
451,5	451,36
451,9	469,96
452,4	485,48
452,8	507,32
453,3	530,72
453,7	550,12
454,2	569,08
454,6	582,72
455,1	601,72
455,5	615,64
456	624,24
456,4	643,52
456,9	663,4
457,3	674,92
457,8	692,72
458,3	721,68
458,7	742,04
459,2	768,32
459,6	794,84
460,1	806,12
460,5	831,04
461	847,56
461,4	868,96
461,9	891,56
462,3	920,44
462,8	944,44
463,2	972,76
463,7	992,72
464,1	1011,16
464,6	1032,92
465	1053,52
465,5	1073,4
466	1091,48
466,4	1116,04
466,9	1137,12
467,3	1153,92
467,8	1172,88
468,2	1200,24
468,7	1220,68
469,1	1245,52
469,6	1275,64
470	1303,12
470,5	1318,64
470,9	1340,8
471,4	1362
471,8	1378,12
472,3	1394,92
472,7	1430,68
473,2	1457,08
473,6	1484,08
474,1	1504,16
474,5	1531,44
475	1555,84
475,4	1577,68
475,9	1600,44
476,4	1624,2
476,8	1645,68
477,3	1654,64
477,7	1678,8
478,2	1697,48
478,6	1714,48
479,1	1730,44
479,5	1753,92
480	1765,2
480,4	1782,52
480,9	1802,96
481,3	1818,88
481,8	1827,48
482,2	1848,72
482,7	1858,32
483,1	1875,96
483,6	1896,88
484	1918,04
484,5	1928,84
484,9	1950,16
485,4	1961
485,8	1977,16
486,3	1987,4
486,7	1994,32
487,2	2008,64
487,6	2024,92
488,1	2024,52
488,5	2026,2
489	2041,12
489,4	2043,2
489,9	2041,48
490,4	2055,64
490,8	2067,28
491,3	2080,56
491,7	2092,6
492,2	2104
492,6	2110,24
493,1	2120,28
493,5	2123,16
494	2120,52
494,4	2127,72
494,9	2127,76
495,3	2130,04
495,8	2119,84
496,2	2131,12
496,7	2124,76
497,1	2131,56
497,6	2131,08
498	2144,64
498,5	2132,68
498,9	2139,8
499,4	2128,4
499,8	2128,4
500,3	2115,08
500,7	2127,44
501,2	2120,88
501,6	2130,48
502,1	2127,16
502,5	2137,52
503	2127,4
503,4	2125,8
503,9	2126
504,3	2128,44
504,8	2128,24
505,2	2131,92
505,7	2138,84
506,1	2132
506,6	2131,76
507	2124,56
507,5	2119,44
507,9	2109,8
508,4	2105,04
508,8	2101,64
509,3	2099,08
509,7	2095,08
510,2	2088,48
510,6	2090,16
511,1	2079,88
511,5	2077,16
512	2076,24
512,4	2079,6
512,9	2069,12
513,3	2072,24
513,8	2068,28
514,2	2055,76
514,7	2042,24
515,1	2044,08
515,6	2036,76
516	2033,92
516,5	2037
516,9	2040,88
517,4	2037,88
517,8	2034,8
518,3	2027,36
518,7	2018,68
519,2	2012,76
519,6	2001,4
520,1	1993,44
520,5	1985,76
521	1982,04
521,4	1973,08
521,9	1969,52
522,3	1966,12
522,8	1962,24
523,2	1958,84
523,7	1963,92
524,1	1966,04
524,6	1961,48
525	1964,56
525,5	1961,28
525,9	1957,32
526,4	1949,32
526,8	1953,72
527,3	1941,96
527,7	1940,92
528,2	1937,44
528,6	1941,96
529,1	1942,64
529,5	1952,32
530	1951,8
530,4	1947,88
530,9	1941,4
531,3	1934,4
531,8	1922,6
532,2	1917,56
532,6	1911,76
533,1	1905,6
533,5	1892,04
534	1892,36
534,4	1892,72
534,9	1899,68
535,3	1901,2
535,8	1908,92
536,2	1914,92
536,7	1911,8
537,1	1910,4
537,6	1910,28
538	1915,28
538,5	1910,4
538,9	1909,76
539,4	1902,36
539,8	1898,32
540,3	1894,08
540,7	1885,8
541,2	1889,68
541,6	1887,28
542,1	1891,84
542,5	1894,48
543	1895,36
543,4	1890,08
543,9	1886,76
544,3	1891,12
544,8	1890,64
545,2	1893,48
545,7	1898,56
546,1	1907,64
546,5	1901,96
547	1891,76
547,4	1891,6
547,9	1882
548,3	1879,52
548,8	1872,52
549,2	1877,92
549,7	1872,84
550,1	1881,48
550,6	1878,64
551	1880,76
551,5	1874,28
551,9	1880,8
552,4	1874,72
552,8	1873,4
553,3	1871,96
553,7	1885,56
554,2	1884,88
554,6	1890,68
555,1	1896,96
555,5	1903,12
555,9	1897,04
556,4	1898,28
556,8	1890,24
557,3	1887,68
557,7	1880,36
558,2	1877,16
558,6	1870,6
559,1	1878,48
559,5	1870,16
560	1875,92
560,4	1874,64
560,9	1875,16
561,3	1863,92
561,8	1869,04
562,2	1865,72
562,7	1863,52
563,1	1868,8
563,6	1869,56
564	1866,84
564,4	1862,08
564,9	1864,4
565,3	1852,96
565,8	1852,36
566,2	1853,48
566,7	1851,12
567,1	1848,6
567,6	1860,28
568	1862,64
568,5	1870,28
568,9	1872,76
569,4	1874,52
569,8	1866
570,3	1863,48
570,7	1849,8
571,1	1841,2
571,6	1835,84
572	1841,48
572,5	1838,88
572,9	1840,2
573,4	1847,36
573,8	1842
574,3	1833,12
574,7	1831,4
575,2	1830,92
575,6	1826,08
576,1	1829,32
576,5	1826,6
576,9	1822,52
577,4	1817,52
577,8	1810,32
578,3	1807,56
578,7	1812,4
579,2	1816,08
579,6	1808
580,1	1809,72
580,5	1797,72
581	1791,64
581,4	1784,92
581,9	1782,04
582,3	1784,56
582,7	1784,04
583,2	1775,4
583,6	1764,84
584,1	1770,72
584,5	1764,48
585	1763,2
585,4	1762,52
585,9	1763,56
586,3	1747,16
586,8	1738
587,2	1730,2
587,6	1723,2
588,1	1718,76
588,5	1718,92
589	1711,76
589,4	1713,76
589,9	1709,52
590,3	1709,56
590,8	1700,72
591,2	1701,44
591,7	1697,64
592,1	1691,56
592,5	1682,36
593	1682,24
593,4	1678,08
593,9	1669,44
594,3	1671,72
594,8	1666,08
595,2	1665,44
595,7	1659,88
596,1	1660,24
596,6	1648,56
597	1648,76
597,4	1642,32
597,9	1639,56
598,3	1637,8
598,8	1637
599,2	1627,16
599,7	1618,24
600,1	1612,08
600,6	1600,2
601	1589,56
601,4	1588,88
601,9	1589,28
602,3	1585,84
602,8	1581,84
603,2	1584,72
603,7	1574,88
604,1	1567,32
604,6	1567,64
605	1563,08
605,4	1552,96
605,9	1555,6
606,3	1554,88
606,8	1549,16
607,2	1543,76
607,7	1540,2
608,1	1525,52
608,6	1521,36
609	1508,32
609,4	1513,16
609,9	1508,64
610,3	1506,92
610,8	1501,32
611,2	1501,36
611,7	1483,28
612,1	1478,64
612,6	1468,24
613	1456,28
613,4	1439,6
613,9	1444,72
614,3	1439,2
614,8	1435,2
615,2	1434,2
615,7	1434,32
616,1	1415,04
616,6	1405,16
617	1397,92
617,4	1383,24
617,9	1375,04
618,3	1371,8
618,8	1367,92
619,2	1366,64
619,7	1366,68
620,1	1358,72
620,5	1357,8
621	1347,04
621,4	1340,08
621,9	1326,76
622,3	1324,8
622,8	1314,96
623,2	1310,24
623,6	1305,44
624,1	1303,92
624,5	1295,12
625	1284,8
625,4	1284,36
625,9	1275,36
626,3	1271,12
626,8	1270,76
627,2	1269,72
627,6	1255,32
628,1	1255,76
628,5	1248,56
629	1241,88
629,4	1231,24
629,9	1223,76
630,3	1210,72
630,7	1206,96
631,2	1193,76
631,6	1191,88
632,1	1192,76
632,5	1190,4
633	1180,24
633,4	1173,04
633,8	1160,56
634,3	1145,24
634,7	1138,28
635,2	1135,84
635,6	1130,96
636,1	1129,68
636,5	1133,6
636,9	1125,6
637,4	1115,76
637,8	1109,12
638,3	1100,12
638,7	1090,52
639,2	1082,8
639,6	1075
640	1069,76
640,5	1066,56
640,9	1062,12
641,4	1060,8
641,8	1052,2
642,2	1045
642,7	1036,4
643,1	1033,84
643,6	1019,84
644	1020
644,5	1018,08
644,9	1016,32
645,3	1002,44
645,8	998,04
646,2	996,88
646,7	989,08
647,1	983,88
647,6	982,88
648	987,72
648,4	975
648,9	971,48
649,3	966,04
649,8	956,56
650,2	948,8
650,6	946,56
651,1	946,8
651,5	937,16
652	932,52
652,4	926,4
652,9	914,36
653,3	907,68
653,7	902,76
654,2	902,36
654,6	893,44
655,1	891,8
655,5	882,56
655,9	883,64
656,4	871,12
656,8	863,76
657,3	856,32
657,7	853,4
658,2	842,6
658,6	842,84
659	842,6
659,5	841,12
659,9	834,08
660,4	832,92
660,8	830,28
661,2	821,84
661,7	819,8
662,1	817,04
662,6	809,28
663	802,04
663,4	800,08
663,9	792,56
664,3	779,2
664,8	774,72
665,2	769,44
665,6	766,36
666,1	762,2
666,5	763,88
667	759,84
667,4	758,16
667,9	746,96
668,3	741,44
668,7	732,24
669,2	722,88
669,6	715,88
670,1	712,4
670,5	709,12
670,9	711,04
671,4	707,72
671,8	701,6
672,3	699,68
672,7	695,64
673,1	689,96
673,6	684,64
674	678,12
674,5	669,08
674,9	661,88
675,3	662,96
675,8	662,84
676,2	665,24
676,7	664,68
677,1	658,92
677,5	648,36
678	642,96
678,4	627,72
678,9	619,04
679,3	612
679,7	612,92
680,2	607,28
680,6	604,68
681,1	608,8
681,5	610,44
681,9	596,6
682,4	595,2
682,8	601,84
683,3	594,76
683,7	590,68
684,1	592,2
684,6	585,08
685	573
685,5	567,92
685,9	559,08
686,3	551,48
686,8	544,92
687,2	542
687,7	536
688,1	535,08
688,5	537
689	532,92
689,4	532,8
689,9	526
690,3	520,52
690,7	511,12
691,2	509,76
691,6	504,84
692	510,36
692,5	512,4
692,9	511,16
693,4	509,52
693,8	507,16
694,2	498,88
694,7	492,88
695,1	486,44
695,6	482,12
696	473,64
696,4	471,2
696,9	468,08
697,3	466,64
697,8	465,08
698,2	464,2
698,6	465,52
699,1	461,68
699,5	461,64
699,9	460,84
700,4	456,6
700,8	451,56
701,3	447,32
701,7	440,6
702,1	437,8
702,6	434,92
703	425,44
703,5	422,84
703,9	419,96
704,3	419,76
704,8	419,04
705,2	420,96
705,6	421,64
706,1	423,4
706,5	414
707	416,12
707,4	411,6
707,8	410,24
708,3	402,92
708,7	406,4
709,2	399,68
709,6	396
710	392,92
710,5	392,84
710,9	388,76
711,3	385,64
711,8	386,32
712,2	386,8
712,7	375,8
713,1	359,32
713,5	355,88
714	342,64
714,4	330,48
714,8	337,16
715,3	346,92
715,7	345,68
716,2	345,8
716,6	349,44
717	342,72
717,5	337,6
717,9	335,32
718,3	336,32
718,8	329
719,2	326,28
719,7	325,24
720,1	319,68
720,5	318,72
721	311,48
721,4	313,4
721,8	308,24
722,3	310,84
722,7	310,6
723,2	314,6
723,6	309,92
724	304,52
724,5	294,6
724,9	289,08
725,3	288,56
725,8	286,28
726,2	288,08
726,7	283,64
727,1	280,8
727,5	271,6
728	269,04
728,4	269,52
728,8	270,16
729,3	273,12
729,7	277,76
730,1	276,8
730,6	273,12
731	274
731,5	273,52
731,9	269,64
732,3	266,48
732,8	260,32
733,2	254,8
733,6	251,16
734,1	253,88
734,5	250,2
734,9	254,44
735,4	256,36
735,8	254,32
736,3	248,08
736,7	252,6
737,1	244,32
737,6	246,08
738	245,8
738,4	242,4
738,9	234,36
739,3	235,04
739,7	226,12
740,2	223,4
740,6	225,04
741,1	225,92
741,5	228,44
741,9	233,36
742,4	233,12
742,8	231,16
743,2	230,88
743,7	229,28
744,1	225,4
744,5	224,32
745	219,28
745,4	214
745,8	207,92
746,3	204,32
746,7	202,16
747,2	201,28
747,6	209,56
748	209,56
748,5	209,28
748,9	204,6
749,3	200,08
749,8	192,56
750,2	195,4
750,6	193
751,1	191,36
751,5	194,16
751,9	195,04
752,4	190,8
752,8	192,48
753,3	193,88
753,7	192,84
754,1	187,72
754,6	187,48
755	184,2
755,4	184,28
755,9	180,72
756,3	183,08
756,7	182,64
757,2	180,32
757,6	167,8
758	175,44
758,5	171,44
758,9	172,12
759,3	169,08
759,8	177,92
760,2	167,48
760,6	166,16
761,1	159
761,5	158,92
761,9	156,28
762,4	154,4
762,8	154,08
763,3	155,96
763,7	156,88
764,1	154,96
764,6	160,76
765	158,48
765,4	157,72
765,9	156,28
766,3	154,88
766,7	151,72
767,2	147,48
767,6	147,6
768	150,84
768,5	147,4
768,9	143
769,3	148,96
769,8	145,64
770,2	143,28
770,6	147,68
771,1	149,48
771,5	147,52
771,9	144,36
772,4	146,56
772,8	141,48
773,2	146,96
773,7	147,6
774,1	150,76
774,5	143,04
775	139,88
775,4	135,56
775,8	132,28
776,3	131,04
776,7	130
777,1	132,84
777,6	124,8
778	126,8
778,4	123,96
778,9	125,32
779,3	123,48
779,7	127,32
780,2	121,32
780,6	115,44
781	111,84
781,5	114
781,9	115,12
782,3	110,52
782,8	107,8
783,2	104,4
783,6	102,56
784,1	100,16
784,5	100,52
784,9	105,16
785,4	114,2
785,8	111,24
786,2	112,24
786,7	116,12
787,1	113,12
787,5	105,76
788	103,64
788,4	104,48
788,8	102,96
789,3	102,04
789,7	98,92
790,1	98,92
790,6	92,32
791	90
791,4	95,68
791,9	102,28
792,3	99,48
792,7	100,12
793,2	96,4
793,6	90,84
794	83,6
794,5	82,8
794,9	83,24
795,3	87,04
795,8	83,88
796,2	87,28
796,6	89,12
797,1	84,6
797,5	82,48
797,9	85,96
798,4	87,12
798,8	92,8
799,2	93,68
799,7	88,4
800,1	80,8
800,5	75,92
801	72,2
801,4	73,32
801,8	78,52
802,2	86
802,7	92,36
803,1	92,2
803,5	90,16
804	89,36
804,4	92,36
804,8	90,36
805,3	82,16
805,7	83,52
806,1	81,56
806,6	76,08
807	67,04
807,4	77
807,9	76,2
808,3	75,68
808,7	75,36
809,2	78,24
809,6	71,12
810	73,24
810,4	68,68
810,9	71,4
811,3	72,24
811,7	71,12
812,2	64,36
812,6	66,44
813	61,92
813,5	59,76
813,9	58,16
814,3	59,44
814,8	63,96
815,2	67,36
815,6	64,8
816,1	65,76
816,5	68,64
816,9	64,8
817,3	63,24
817,8	68,2
818,2	71,16
818,6	70,24
819,1	65,68
819,5	58,6
819,9	52,8
820,4	49,32
820,8	50,92
821,2	56,72
821,7	60,52
822,1	59,72
822,5	53,8
822,9	51,68
823,4	49,72
823,8	48,36
824,2	50,12
824,7	55,6
825,1	50,48
825,5	46,64
826	48,96
826,4	46,72
826,8	46,32
827,3	47,72
827,7	46,84
828,1	43,96
828,5	46,96
829	43,8
829,4	40,16
829,8	43,08
830,3	45,8
830,7	42,84
831,1	43,48
831,6	47,84
832	46,76
832,4	48,12
832,8	47,2
833,3	46,92
833,7	47,36
834,1	44,48
834,6	43,04
835	45,08
835,4	43,36
835,8	37,24
836,3	43,08
836,7	40,16
837,1	35,36
837,6	37,44
838	44,96
838,4	46,84
838,9	45,8
839,3	50,76
839,7	53,04
840,1	51,76
840,6	42,8
841	35,52
841,4	29,12
841,9	25,84
842,3	20,08
842,7	22
843,1	26,32
843,6	27,2
844	30,16
844,4	35,48
844,9	37,68
845,3	38,8
845,7	45,44
846,2	44,56
846,6	38,08
847	37,92
847,4	38,2
847,9	39
848,3	36,24
848,7	41,04
849,2	36,92
849,6	40,88
850	36,64
850,4	34,48
850,9	31,92
851,3	31,2
851,7	25
852,2	20,2
852,6	18,96
853	20,2
853,4	25,08
853,9	29,2
854,3	27,96
854,7	31,72
855,2	26,92
855,6	20,6
856	17,68
856,4	22,6
856,9	20,96
857,3	22,4
857,7	25,84
858,2	26,64
858,6	30,08
859	34,16
859,4	36,88
859,9	34,08
860,3	31,68
860,7	23,96
861,1	21,84
861,6	20,68
862	22,48
862,4	20,32
862,9	25,4
863,3	21,48
863,7	18,44
864,1	20,12
864,6	24,76
865	24,32
865,4	22,04
865,9	21,64
866,3	21,2
866,7	19,52
867,1	25,48
867,6	32,28
868	32,36
868,4	30,88
868,8	32
869,3	31,52
869,7	27,6
870,1	30,52
870,6	30,16
871	30
871,4	27,56
871,8	30,32
872,3	24,32
872,7	21,44
873,1	22,04
873,5	11,12
874	7,12
874,4	11,84
874,8	12,56
875,3	9,6
875,7	11,68
876,1	13,64
876,5	11,56
877	15,28
877,4	15,88
877,8	21,4
878,2	21,28
878,7	26,92
879,1	23,96
879,5	26,88
879,9	24,64
880,4	25,76
880,8	21,08
881,2	22,36
881,7	17,04
882,1	12,64
882,5	14
882,9	16,28
883,4	15,2
883,8	16,04
884,2	19,32
884,6	19,52
885,1	18,28
885,5	10,44
885,9	11,16
886,3	12,72
886,8	7,08
887,2	6,16
887,6	15,4
888	15,4
888,5	17,68
888,9	19,52
889,3	19,8
889,8	14,6
890,2	10,12
890,6	6,6
891	4,2
891,5	5,6
891,9	11,36
892,3	14,52
892,7	16,04
893,2	16,6
893,6	13,88
894	12,8
894,4	12,68
894,9	12,28
895,3	11,28
895,7	12,16
896,1	10,4
896,6	10,68
897	12,28
897,4	11,64
897,8	11
898,3	9,04
898,7	5,08
899,1	3,48
899,5	1,8
900	1,2
900,4	0,56
900,8	1,2
901,2	-5,4
901,7	0,88
902,1	3,84
902,5	2,96
902,9	5,92
903,4	10,72
903,8	5,48
904,2	-4,08
904,6	1
905,1	-0,76
905,5	-2,52
905,9	1,6
906,3	8,64
906,8	3,92
907,2	8,84
907,6	11,72
908	13,12
908,5	13,12
908,9	18,4
909,3	12,36
909,7	8,52
910,2	5,4
910,6	9,56
911	3,56
911,4	8,4
911,9	8,48
912,3	5,52
912,7	0,2
913,1	2,56
913,6	0,16
914	0,04
914,4	2,8
914,8	5,2
915,3	9,36
915,7	10,68
916,1	16,24
916,5	15,84
916,9	12,8
917,4	11,16
917,8	11,8
918,2	12,24
918,6	13,52
919,1	14,52
919,5	10,2
919,9	12
920,3	9,36
920,8	14,44
921,2	14,32
921,6	15,84
922	11,56
922,5	13,08
922,9	10,88
923,3	11,4
923,7	9
924,2	3,52
924,6	-0,44
925	0,04
925,4	2,64
925,8	4,56
926,3	7,4
926,7	6,84
927,1	5,56
927,5	3,24
928	2,6
928,4	6,04
928,8	8,2
929,2	8,52
929,7	7,28
930,1	9,88
930,5	9,16
930,9	6,36
931,3	2,44
931,8	4,16
932,2	4,92
932,6	5
933	1,52
933,5	4,08
933,9	1,08
934,3	2,28
934,7	5,72
935,2	9,24
935,6	4,56
936	1,96
936,4	-3,32
936,8	-8,8
937,3	-3
937,7	-3,84
938,1	0,92
938,5	2,08
939	5,48
939,4	-0,8
939,8	3,12
940,2	-1,88
940,6	-0,84
941,1	-3,56
941,5	-0,84
941,9	-2,52
942,3	-4,52
942,8	-5,12
943,2	-0,76
943,6	1,64
944	4,52
944,4	7,92
944,9	9,68
945,3	6,44
945,7	6,84
946,1	4,56
946,6	7,96
947	5,96
947,4	5,56
947,8	1,8
948,2	0,36
948,7	1,48
949,1	0,72
949,5	-3,8
949,9	-4,72
950,3	1,12
950,8	-4,12
951,2	-5,32
951,6	3,48
952	3,68
952,5	-3,16
952,9	0,48
953,3	0,28
953,7	-2,08
954,1	-2,92
954,6	0,68
955	0,6
955,4	3
955,8	-3,72
956,2	-0,32
956,7	-1,48
957,1	2
957,5	-0
957,9	6,4
958,3	3,2
958,8	2,12
959,2	-1,2
959,6	-1,28
960	0,56
960,5	2,6
960,9	4,68
961,3	5,36
961,7	7,4
962,1	7,96
962,6	10,76
963	10
963,4	7,08
963,8	8,88
964,2	8,48
964,7	10,16
965,1	8,64
965,5	9,12
965,9	10,36
966,3	6,92
966,8	1,72
967,2	-1,52
967,6	3,28
968	3,04
968,4	5,68
968,9	0,64
969,3	6,64
969,7	2,4
970,1	-0,48
970,5	-3,72
971	0,16
971,4	-3,28
971,8	-6,28
972,2	-6,12
972,6	-6,12
973,1	-4,96
973,5	-5,12
973,9	-2,36
974,3	-4,28
974,7	-0,96
975,2	4,16
975,6	9,2
976	7,96
976,4	10
976,8	7,32
977,3	5,32
977,7	7,28
978,1	2,44
978,5	3,24
978,9	3,44
979,4	4,4
979,8	0,52
980,2	5,52
980,6	5,32
981	4,12
981,5	-2,28
981,9	-1,72
982,3	-0,44
982,7	-6,76
983,1	-4,32
983,6	0,36
984	-2,12
984,4	-5,56
984,8	-6,08
985,2	-3,52
985,6	-8,64
986,1	-4,64
986,5	1,44
986,9	6,32
987,3	-0,92
987,7	4,44
988,2	-2,64
988,6	-2,44
989	-2
989,4	0,44
989,8	-2,36
990,3	-1,4
990,7	-8,36
991,1	-7,92
991,5	-6,68
991,9	-8,24
992,3	-9,88
992,8	-8,24
993,2	-7,8
993,6	-7,4
994	-1
994,4	7,16
994,9	9,84
995,3	8,24
995,7	8
996,1	4,88
996,5	1,28
996,9	0,88
997,4	2,32
997,8	-1,92
998,2	-8,8
998,6	-10,12
999	-12,44
999,5	-12,96
999,9	-9,56
1000,3	-5
1000,7	-0,52
1001,1	-0,52
1001,5	1,04
1002	1,12
1002,4	3,76
1002,8	1,36
1003,2	4,36
1003,6	5,64
1004	5,44
1004,5	3
1004,9	3,68
1005,3	-0,36
1005,7	1,04
1006,1	-1,4
1006,6	-0,24
1007	1,44
1007,4	8,96
1007,8	8,44
1008,2	11,28
1008,6	13,52
1009,1	9,44
1009,5	7,64
1009,9	5,96
1010,3	2,92
1010,7	-2,72
1011,1	2,2
1011,6	-1,92
1012	-3,84
1012,4	0,84
1012,8	4,68
1013,2	2,92
1013,6	2,96
1014,1	5,92
1014,5	2,08
1014,9	-3,72
1015,3	-9,12
1015,7	-4
1016,1	-8,08
1016,6	-10,48
1017	-4,12
1017,4	-2,68
1017,8	-5,76
1018,2	-8,08
1018,6	-2,08
1019,1	-4,36
1019,5	-5,68
1019,9	-13,32
1020,3	-14,36
1020,7	-19,88
1021,1	-18,6
1021,6	-13,64
1022	-3,24
1022,4	6,8
1022,8	15,12
1023,2	11,08
1023,6	6,24
1024,1	2,76
1024,5	-2,8
1024,9	-5,88
1025,3	-3,6
1025,7	0,44
1026,1	-0,12
1026,6	-4,52
1027	0,84
1027,4	4,12
1027,8	-1,32
1028,2	-2,48
1028,6	1,32
1029	-1,28
1029,5	-4,36
1029,9	3,92
1030,3	6,2
1030,7	9,48
1031,1	2,52
1031,5	8,52
1032	3,88
1032,4	0,92
1032,8	3,68
1033,2	7,92
1033,6	1,68
1034	3,84
1034,4	3,88
1034,9	0,56
1035,3	-6,52
1035,7	-3,68
1036,1	-4
1036,5	-1,92
1036,9	-0,52
1037,4	1,52
1037,8	-3,04
1038,2	-5,28
1038,6	-0,08
1039	-1,84
1039,4	-1,08
1039,8	2,72
1040,3	4,36
1040,7	-1,08
1041,1	1,28
1041,5	0,28
1041,9	-0,68
1042,3	-2,72
1042,7	0,32
1043,2	-4,36
1043,6	-2,56
1044	3,08
1044,4	0,16
1044,8	-7,2
1045,2	-4,84
1045,6	0,96
1046,1	-5,52
1046,5	-4
1046,9	2,84
1047,3	4,64
1047,7	-5,56
1048,1	-5,48
1048,5	-1,16
1049	-7,96
1049,4	-8,2
1049,8	-1,32
1050,2	2,4
1050,6	1,4
1051	2,8
1051,4	-0,28
1051,9	0,16
1052,3	-6,2
1052,7	-5,32
1053,1	1,88
1053,5	1,64
1053,9	3,88
1054,3	8,92
1054,8	8,24
1055,2	6,6
1055,6	7,28
1056	1
1056,4	-1,6
1056,8	-2,04
1057,2	-5,72
1057,6	-5,64
1058,1	0,24
1058,5	1,36
1058,9	4,96
1059,3	9,12
1059,7	9,36
1060,1	8,2
1060,5	8,68
1061	5,44
1061,4	2,28
1061,8	0,48
1062,2	-4,96
1062,6	-5,96
1063	-4,12
1063,4	-4,76
1063,8	-5,4
1064,3	0,6
1064,7	2,36
1065,1	-2,52
1065,5	2,04
1065,9	3,4
1066,3	-0,6
1066,7	3,48
1067,1	6,2
1067,6	3,56
1068	4,4
1068,4	7,36
1068,8	-0,8
1069,2	-3,92
1069,6	-4,6
1070	-3,48
1070,4	-4,8
1070,9	1,32
1071,3	4,48
1071,7	5,16
1072,1	2,72
1072,5	3,48
1072,9	0,24
1073,3	0,64
1073,7	1,88
1074,2	0,28
1074,6	-2,32
1075	-5,04
1075,4	-10,68
1075,8	-9,76
1076,2	-0,84
1076,6	4,56
1077	5,8
1077,5	7,48
1077,9	2,64
1078,3	-6,2
1078,7	-12,6
1079,1	-9,68
1079,5	1,52
1079,9	2,4
1080,3	10,36
1080,7	19,72
1081,2	20,24
1081,6	13
1082	19,28
1082,4	14,72
1082,8	6,04
1083,2	1
1083,6	0,64
1084	-5,28
1084,5	-8,92
1084,9	-4,6
1085,3	-2,44
1085,7	-1
1086,1	0,16
1086,5	4,08
1086,9	0,68
1087,3	-6,68
1087,7	-8,68
1088,2	-6,76
1088,6	-3,68
1089	-4
1089,4	1,72
1089,8	4,24
1090,2	3,64
1090,6	-3,84
1091	-4,84
1091,4	-5
1091,9	-12
1092,3	-14,28
1092,7	-13,08
1093,1	-11
1093,5	-9,4
1093,9	-3,84
1094,3	-3,2
1094,7	0,2
1095,1	1,2
1095,5	3,56
1096	3,16
1096,4	3,8
1096,8	5,64
1097,2	8,24
1097,6	4,44
1098	4,12
1098,4	4,48
1098,8	-1,64
1099,2	-3,92
1099,6	-0,2
1100,1	-2,2
1100,5	-4,48
1100,9	0,2
1101,3	-4,64
1101,7	-7,84
1102,1	-3,88
1102,5	-2,08
1102,9	-2,88
1103,3	-1,16
1103,7	1,24
1104,2	-2,2
1104,6	-1,64
1105	-1,4
1105,4	-2,72
1105,8	-4,76
1106,2	-3,44
1106,6	-3,64
1107	-4,76
1107,4	-1,32
1107,8	-0,15
1108,3	-0,533
