Data from Subt2_00038.txt Node
Date: Fri Aug 11 15:53:15 MSK 2023
User: vat
Spectrometer: MAYP114033
Trigger mode: 0
Integration Time (sec): 5,000000E-1
Scans to average: 5
Electric dark correction enabled: true
Nonlinearity correction enabled: false
Boxcar width: 2
XAxis mode: Wavelengths
Number of Pixels in Spectrum: 2068
>>>>>Begin Spectral Data<<<<<
199,4	-0,467
199,9	0,2
200,4	-12,68
200,8	-24,24
201,3	-38,12
201,8	-48,64
202,2	-60,44
202,7	-62,2
203,2	-59,56
203,6	-54,6
204,1	-56,48
204,6	-61,88
205	-68,8
205,5	-78,6
206	-77,56
206,4	-84,28
206,9	-86,52
207,4	-83,44
207,8	-79,12
208,3	-82,76
208,8	-74,44
209,2	-72,76
209,7	-75,56
210,2	-79,72
210,6	-83,44
211,1	-92,32
211,5	-92
212	-86,92
212,5	-90,96
212,9	-94,8
213,4	-94,76
213,9	-103,36
214,3	-103,48
214,8	-102,6
215,3	-99,24
215,7	-102,68
216,2	-94,64
216,7	-99,92
217,1	-96,52
217,6	-100,2
218,1	-96,24
218,5	-101,56
219	-102,84
219,5	-105,8
219,9	-108,2
220,4	-105,76
220,9	-102,04
221,3	-96,36
221,8	-95,36
222,3	-95,88
222,7	-100,36
223,2	-97,96
223,6	-103,64
224,1	-102,08
224,6	-104,48
225	-106,28
225,5	-107,12
226	-104
226,4	-101,8
226,9	-95,88
227,4	-88,76
227,8	-92,32
228,3	-92,96
228,8	-98
229,2	-100,48
229,7	-108,04
230,2	-108,48
230,6	-111,08
231,1	-111,36
231,5	-110,12
232	-106,04
232,5	-104,52
232,9	-101,72
233,4	-98,64
233,9	-101,92
234,3	-103,28
234,8	-99,68
235,3	-97,44
235,7	-102,8
236,2	-98,76
236,7	-100,92
237,1	-104,28
237,6	-110,56
238,1	-108,36
238,5	-109,32
239	-109,32
239,4	-108,4
239,9	-103,76
240,4	-100
240,8	-97,04
241,3	-98,04
241,8	-107,52
242,2	-109,88
242,7	-109,24
243,2	-108
243,6	-108,64
244,1	-104,56
244,6	-100,56
245	-100,04
245,5	-103,28
245,9	-97,84
246,4	-94,28
246,9	-101,16
247,3	-104,32
247,8	-100
248,3	-98,48
248,7	-96,84
249,2	-91,12
249,7	-85,64
250,1	-92,6
250,6	-101,88
251	-103,52
251,5	-108,4
252	-120,76
252,4	-116,36
252,9	-106,4
253,4	-109,92
253,8	-106,04
254,3	-102,08
254,8	-103,76
255,2	-109,2
255,7	-100,84
256,1	-97,72
256,6	-90,64
257,1	-95,44
257,5	-96,88
258	-97,28
258,5	-95,24
258,9	-98,6
259,4	-94,76
259,9	-95,6
260,3	-101,96
260,8	-105,56
261,2	-108,8
261,7	-111,64
262,2	-109,56
262,6	-114,92
263,1	-120,2
263,6	-119,12
264	-114,12
264,5	-111,76
264,9	-105,8
265,4	-105,28
265,9	-99
266,3	-99,6
266,8	-98,44
267,3	-99,52
267,7	-93,68
268,2	-101,44
268,7	-102,88
269,1	-99,24
269,6	-98,56
270	-97,92
270,5	-96,88
271	-96,4
271,4	-100,36
271,9	-100
272,4	-102,24
272,8	-97,16
273,3	-103,12
273,7	-103,52
274,2	-101,76
274,7	-101,44
275,1	-105,92
275,6	-102,4
276,1	-106,36
276,5	-108,36
277	-108,12
277,4	-113,72
277,9	-108,84
278,4	-106,48
278,8	-100,16
279,3	-105,72
279,8	-100,56
280,2	-103,48
280,7	-103,88
281,1	-104,88
281,6	-97,92
282,1	-96,52
282,5	-106
283	-104,88
283,4	-106,16
283,9	-107,96
284,4	-109,12
284,8	-95,24
285,3	-90,84
285,8	-90,44
286,2	-93,16
286,7	-90,36
287,1	-95,16
287,6	-97,76
288,1	-102,8
288,5	-101,92
289	-105,72
289,5	-107,04
289,9	-107,56
290,4	-103,88
290,8	-102,72
291,3	-99,52
291,8	-97,68
292,2	-99,16
292,7	-99,76
293,1	-102,32
293,6	-105,88
294,1	-100,28
294,5	-103,68
295	-98,6
295,5	-91,52
295,9	-84,72
296,4	-93,32
296,8	-96,8
297,3	-96,28
297,8	-104,08
298,2	-104,52
298,7	-106,68
299,1	-97,16
299,6	-100,32
300,1	-98,28
300,5	-102,12
301	-92,92
301,5	-99,8
301,9	-106,16
302,4	-103,48
302,8	-106,32
303,3	-110,44
303,8	-107,88
304,2	-104,2
304,7	-109,64
305,1	-104,64
305,6	-104,64
306,1	-103,04
306,5	-110,48
307	-101,36
307,4	-101,28
307,9	-100,72
308,4	-105,24
308,8	-98,32
309,3	-102,6
309,8	-103,08
310,2	-103,8
310,7	-98
311,1	-99,28
311,6	-95,92
312,1	-94,72
312,5	-96,56
313	-89,56
313,4	-86,12
313,9	-85,4
314,4	-91,44
314,8	-91,04
315,3	-98,52
315,7	-98,36
316,2	-104,08
316,7	-107,52
317,1	-110,44
317,6	-113,68
318	-111,56
318,5	-116,2
319	-109,72
319,4	-109,84
319,9	-105,6
320,3	-104,68
320,8	-105
321,3	-103,48
321,7	-96,68
322,2	-96,76
322,6	-94,84
323,1	-92
323,6	-92,4
324	-90,56
324,5	-89,84
324,9	-97,6
325,4	-91,96
325,9	-87,68
326,3	-91,52
326,8	-91,16
327,2	-93,56
327,7	-103,16
328,2	-107,4
328,6	-113,48
329,1	-117
329,5	-113,48
330	-101,92
330,5	-102,48
330,9	-99,88
331,4	-99,48
331,8	-97,36
332,3	-103,64
332,8	-103,4
333,2	-100,8
333,7	-101,48
334,1	-105,8
334,6	-97,56
335,1	-99,08
335,5	-99,8
336	-102,12
336,4	-99,76
336,9	-107,84
337,4	-104,48
337,8	-102,68
338,3	-98
338,7	-93,32
339,2	-91,64
339,7	-94,24
340,1	-101,24
340,6	-99,8
341	-104,52
341,5	-107,24
342	-113,28
342,4	-101,6
342,9	-106,68
343,3	-110,68
343,8	-110,08
344,2	-99
344,7	-106,04
345,2	-100,04
345,6	-92,88
346,1	-90,32
346,5	-95,64
347	-97,08
347,5	-103,84
347,9	-100,56
348,4	-98,12
348,8	-97,28
349,3	-93,96
349,8	-86,04
350,2	-90,44
350,7	-95,96
351,1	-94,72
351,6	-94,44
352	-94,48
352,5	-90,16
353	-82,6
353,4	-78,08
353,9	-75,52
354,3	-77,16
354,8	-79,64
355,3	-74,56
355,7	-67,96
356,2	-59,6
356,6	-57,32
357,1	-43,52
357,5	-34,84
358	-29,28
358,5	-19,76
358,9	-0,52
359,4	16,4
359,8	31,52
360,3	55,24
360,8	80,64
361,2	110,24
361,7	132,04
362,1	162,56
362,6	199,28
363	239,44
363,5	283,12
364	326,08
364,4	366
364,9	406,76
365,3	445,84
365,8	479,84
366,3	518,64
366,7	557,84
367,2	583,44
367,6	600,8
368,1	625,56
368,5	641,52
369	637,28
369,5	640,24
369,9	645,76
370,4	628,24
370,8	608,6
371,3	598,72
371,7	573,64
372,2	540,12
372,7	513
373,1	475,2
373,6	437,24
374	401,48
374,5	370,12
374,9	338,16
375,4	313,76
375,9	287,96
376,3	260,12
376,8	230,68
377,2	201,96
377,7	176,4
378,2	155,48
378,6	134,28
379,1	116,64
379,5	95,64
380	74,84
380,4	62,56
380,9	52,72
381,4	38,48
381,8	26,76
382,3	22,68
382,7	7,16
383,2	2
383,6	-2
384,1	-6
384,6	-12,92
385	-15,84
385,5	-24,68
385,9	-27,72
386,4	-30,92
386,8	-31,96
387,3	-36,68
387,7	-42,36
388,2	-49,32
388,7	-50,44
389,1	-61,36
389,6	-63,36
390	-63,76
390,5	-58,88
390,9	-57,96
391,4	-55,04
391,9	-60,92
392,3	-58,44
392,8	-63,64
393,2	-64,56
393,7	-67,84
394,1	-59,68
394,6	-68,56
395,1	-70,96
395,5	-75,28
396	-70,68
396,4	-76,32
396,9	-75,92
397,3	-75,8
397,8	-78,56
398,2	-76,36
398,7	-80,16
399,2	-82,24
399,6	-79,28
400,1	-78,8
400,5	-79,52
401	-79,12
401,4	-76,48
401,9	-75,08
402,4	-77,12
402,8	-85,56
403,3	-80,16
403,7	-72,84
404,2	-81,64
404,6	-80,24
405,1	-71,8
405,5	-71,44
406	-73,64
406,5	-68,32
406,9	-63,6
407,4	-67,44
407,8	-69,24
408,3	-66,72
408,7	-63,44
409,2	-61,88
409,6	-59,36
410,1	-57,44
410,6	-58,96
411	-59,72
411,5	-59,52
411,9	-56,28
412,4	-47,8
412,8	-45,8
413,3	-46,2
413,7	-38,44
414,2	-34,12
414,7	-37,12
415,1	-27,96
415,6	-23,64
416	-21,2
416,5	-24,52
416,9	-19,96
417,4	-19,44
417,8	-11,8
418,3	-17,36
418,8	-5,12
419,2	0,56
419,7	10,12
420,1	11,48
420,6	13,88
421	13,04
421,5	19,28
421,9	16,48
422,4	20,32
422,8	36,6
423,3	44,56
423,8	45,28
424,2	46,04
424,7	51,8
425,1	57,48
425,6	64,04
426	66,12
426,5	77,64
426,9	76,24
427,4	83,76
427,9	86,44
428,3	96,92
428,8	98,76
429,2	108,08
429,7	113,28
430,1	123,52
430,6	127,92
431	141,96
431,5	156,4
431,9	157,16
432,4	162,24
432,8	170,48
433,3	181,16
433,8	188,6
434,2	202,76
434,7	219,72
435,1	236,28
435,6	244,44
436	257,76
436,5	275,12
436,9	286,6
437,4	305,32
437,8	319,52
438,3	333,56
438,8	346,88
439,2	359,12
439,7	372
440,1	387,08
440,6	405,6
441	420,52
441,5	442,08
441,9	467,28
442,4	488,28
442,8	510,6
443,3	530,08
443,7	547,96
444,2	570,32
444,7	599,28
445,1	624
445,6	657,08
446	690,28
446,5	713,64
446,9	739,04
447,4	764,88
447,8	790,16
448,3	818,72
448,7	843,72
449,2	872
449,6	902,92
450,1	936,72
450,6	957,64
451	985,72
451,5	1006,12
451,9	1034,56
452,4	1060,8
452,8	1095,12
453,3	1128,4
453,7	1160,44
454,2	1193,64
454,6	1223,64
455,1	1255,36
455,5	1292,2
456	1331,32
456,4	1366,32
456,9	1399,08
457,3	1437,8
457,8	1468,2
458,3	1509,68
458,7	1538,08
459,2	1573,2
459,6	1608,24
460,1	1644,2
460,5	1674,16
461	1720,36
461,4	1757,44
461,9	1786,68
462,3	1826,52
462,8	1863,44
463,2	1899,64
463,7	1929,24
464,1	1968,4
464,6	2000,6
465	2032,16
465,5	2058,6
466	2096,04
466,4	2133,92
466,9	2167,72
467,3	2207,76
467,8	2244,84
468,2	2281,84
468,7	2309
469,1	2338,08
469,6	2366,68
470	2398,68
470,5	2428,08
470,9	2458,96
471,4	2484,36
471,8	2506,88
472,3	2525
472,7	2548,68
473,2	2572,16
473,6	2595,8
474,1	2621,92
474,5	2647,6
475	2675,84
475,4	2694,88
475,9	2728,28
476,4	2758,4
476,8	2784,8
477,3	2803,44
477,7	2836,68
478,2	2850,56
478,6	2873,32
479,1	2890,92
479,5	2904,6
480	2920,44
480,4	2929,8
480,9	2927,84
481,3	2949,84
481,8	2964,52
482,2	2972,16
482,7	2987,52
483,1	3001,28
483,6	3004,04
484	3027,6
484,5	3033,56
484,9	3049,32
485,4	3054
485,8	3058,08
486,3	3046,48
486,7	3057,8
487,2	3057,68
487,6	3072,24
488,1	3080,6
488,5	3094,88
489	3099,88
489,4	3107,52
489,9	3099,08
490,4	3099,6
490,8	3102,64
491,3	3096,88
491,7	3089,36
492,2	3090,56
492,6	3085,64
493,1	3083,12
493,5	3081,76
494	3075,92
494,4	3073,84
494,9	3077,8
495,3	3064,52
495,8	3053,48
496,2	3053,96
496,7	3051,92
497,1	3031,6
497,6	3025,48
498	3013,04
498,5	3003,24
498,9	2990,16
499,4	2988,72
499,8	2976,2
500,3	2975,04
500,7	2962,4
501,2	2954,64
501,6	2945,24
502,1	2946,84
502,5	2935,76
503	2929,56
503,4	2917,08
503,9	2910,36
504,3	2887,32
504,8	2871,92
505,2	2856,44
505,7	2843,48
506,1	2824,48
506,6	2811,64
507	2795,52
507,5	2784,44
507,9	2776,8
508,4	2759,52
508,8	2752,28
509,3	2742,76
509,7	2726,52
510,2	2715,48
510,6	2710,32
511,1	2691,08
511,5	2678,28
512	2664,08
512,4	2649
512,9	2635,92
513,3	2625,36
513,8	2617,4
514,2	2608,84
514,7	2581,68
515,1	2563,56
515,6	2545,8
516	2535,48
516,5	2513,68
516,9	2508,24
517,4	2489,64
517,8	2481,56
518,3	2461,84
518,7	2455
519,2	2443,64
519,6	2431,72
520,1	2413,72
520,5	2406,44
521	2389,6
521,4	2369,44
521,9	2361,52
522,3	2339,04
522,8	2316,6
523,2	2309,28
523,7	2302,12
524,1	2286,08
524,6	2283,96
525	2267,32
525,5	2251,28
525,9	2238,52
526,4	2220,44
526,8	2194,04
527,3	2181,6
527,7	2158,76
528,2	2142,12
528,6	2132,64
529,1	2128,16
529,5	2114,36
530	2117,84
530,4	2115,68
530,9	2109,44
531,3	2103,56
531,8	2103,88
532,2	2083,44
532,6	2067,04
533,1	2055,28
533,5	2039,8
534	2025,28
534,4	2016,64
534,9	2008,52
535,3	2002,84
535,8	1996,48
536,2	1979,44
536,7	1966
537,1	1945,92
537,6	1931,2
538	1917,64
538,5	1905,64
538,9	1907,2
539,4	1910,04
539,8	1901,08
540,3	1895,24
540,7	1897,52
541,2	1879,84
541,6	1868,92
542,1	1865,48
542,5	1860,32
543	1844,92
543,4	1835
543,9	1832,64
544,3	1816,24
544,8	1808,36
545,2	1810,24
545,7	1806,76
546,1	1795,2
546,5	1796,88
547	1779,8
547,4	1776,36
547,9	1768,4
548,3	1755,04
548,8	1743,36
549,2	1750,88
549,7	1733,32
550,1	1730,04
550,6	1726,56
551	1717,64
551,5	1706,36
551,9	1703,72
552,4	1695,64
552,8	1683,36
553,3	1678,2
553,7	1672,6
554,2	1663,44
554,6	1674,68
555,1	1673,44
555,5	1669,36
555,9	1662,64
556,4	1665,72
556,8	1650,08
557,3	1646,92
557,7	1639,96
558,2	1637,92
558,6	1630,36
559,1	1618,8
559,5	1614,68
560	1611,08
560,4	1606,12
560,9	1601,72
561,3	1598,92
561,8	1588,32
562,2	1579,4
562,7	1569,44
563,1	1558,72
563,6	1552,16
564	1552,52
564,4	1550,44
564,9	1549,92
565,3	1540,16
565,8	1537,56
566,2	1528,16
566,7	1523,8
567,1	1503,44
567,6	1504,68
568	1498,72
568,5	1499,4
568,9	1488,64
569,4	1495,4
569,8	1496,6
570,3	1491,12
570,7	1488,2
571,1	1488,72
571,6	1483,48
572	1476,92
572,5	1474,44
572,9	1465,68
573,4	1459,04
573,8	1456,2
574,3	1448,44
574,7	1441,24
575,2	1433,56
575,6	1427,56
576,1	1423,48
576,5	1409,96
576,9	1404,44
577,4	1400,44
577,8	1395,12
578,3	1381,92
578,7	1381,36
579,2	1377,36
579,6	1370,12
580,1	1358,56
580,5	1358,36
581	1355,76
581,4	1344,88
581,9	1339,12
582,3	1332,76
582,7	1323,08
583,2	1309,12
583,6	1307,08
584,1	1298,52
584,5	1299,72
585	1292,36
585,4	1285,72
585,9	1275,28
586,3	1270,04
586,8	1260,76
587,2	1256,4
587,6	1264,92
588,1	1261,48
588,5	1259,32
589	1254,68
589,4	1247,12
589,9	1235,92
590,3	1225,48
590,8	1226,4
591,2	1219,12
591,7	1218,44
592,1	1216,72
592,5	1217,4
593	1202,32
593,4	1194,16
593,9	1190,68
594,3	1177,92
594,8	1161,96
595,2	1157,96
595,7	1164,48
596,1	1163,96
596,6	1163,76
597	1169,84
597,4	1169,04
597,9	1164,24
598,3	1153,36
598,8	1144,72
599,2	1137,04
599,7	1133,04
600,1	1123,92
600,6	1113,8
601	1103,96
601,4	1100,6
601,9	1088,32
602,3	1079,96
602,8	1078,24
603,2	1071,32
603,7	1066,56
604,1	1057,64
604,6	1061,48
605	1063,2
605,4	1060,12
605,9	1055,76
606,3	1060,48
606,8	1056,6
607,2	1051,16
607,7	1050,28
608,1	1042,56
608,6	1042,4
609	1031,04
609,4	1021,24
609,9	1013,56
610,3	1008,32
610,8	994,28
611,2	984,28
611,7	979,8
612,1	971
612,6	965,2
613	963,88
613,4	962,76
613,9	953,16
614,3	949,04
614,8	945,6
615,2	941,16
615,7	943,36
616,1	935,6
616,6	927,92
617	922,4
617,4	910,96
617,9	901,04
618,3	895,48
618,8	889,16
619,2	886,76
619,7	886,88
620,1	873,4
620,5	872,16
621	872,4
621,4	863,68
621,9	851,76
622,3	846
622,8	844,72
623,2	835,8
623,6	830,52
624,1	828
624,5	821,16
625	812,8
625,4	809,68
625,9	803
626,3	799,72
626,8	798,88
627,2	795,36
627,6	796,2
628,1	792,48
628,5	786,28
629	784,16
629,4	773,16
629,9	770,28
630,3	760,28
630,7	754,72
631,2	748,48
631,6	740,88
632,1	732,92
632,5	735,24
633	728,04
633,4	719,4
633,8	712,64
634,3	703,88
634,7	694,32
635,2	686
635,6	677,76
636,1	683,04
636,5	683,12
636,9	675,56
637,4	679
637,8	681,16
638,3	669,8
638,7	658,48
639,2	656,72
639,6	644,72
640	634,04
640,5	633,76
640,9	628,72
641,4	625,72
641,8	618,24
642,2	620,48
642,7	616,96
643,1	602,12
643,6	600,16
644	601,28
644,5	591,72
644,9	591,8
645,3	600,84
645,8	587,16
646,2	583,36
646,7	581,92
647,1	565,32
647,6	558,68
648	557,2
648,4	559,44
648,9	557,2
649,3	552,64
649,8	555,6
650,2	561,32
650,6	553,12
651,1	548,24
651,5	556,44
652	551,04
652,4	539,8
652,9	528,44
653,3	522,8
653,7	514,4
654,2	508,96
654,6	504,36
655,1	501,48
655,5	499,92
655,9	499,52
656,4	495,2
656,8	486,52
657,3	485,44
657,7	478,88
658,2	470,8
658,6	465
659	468,64
659,5	466
659,9	462,96
660,4	457,12
660,8	449,72
661,2	444,28
661,7	439,76
662,1	440,96
662,6	437,24
663	438,52
663,4	440,16
663,9	440,4
664,3	435,56
664,8	439,88
665,2	433,24
665,6	424,44
666,1	418,2
666,5	412,28
667	404,32
667,4	399,24
667,9	402,64
668,3	394,88
668,7	390,08
669,2	385,8
669,6	389,08
670,1	383,44
670,5	381,4
670,9	374,84
671,4	367,6
671,8	357,68
672,3	349,64
672,7	349,96
673,1	348,12
673,6	345,92
674	348,04
674,5	348,4
674,9	341,12
675,3	333,64
675,8	330,56
676,2	322,88
676,7	314,4
677,1	318,04
677,5	319,92
678	321,16
678,4	323,32
678,9	314,88
679,3	308,72
679,7	308,92
680,2	305,08
680,6	300,28
681,1	303,24
681,5	301,08
681,9	292,48
682,4	291,52
682,8	283,48
683,3	280,24
683,7	273,12
684,1	278,84
684,6	273,24
685	273,64
685,5	269,36
685,9	267,28
686,3	264,8
686,8	257,44
687,2	260,44
687,7	256,44
688,1	263,28
688,5	261,56
689	265,72
689,4	258,04
689,9	260,6
690,3	256,28
690,7	245,4
691,2	246,48
691,6	240,32
692	237,68
692,5	236,84
692,9	243
693,4	234
693,8	236,08
694,2	235,6
694,7	231,68
695,1	219,44
695,6	220,8
696	220,6
696,4	213,16
696,9	215,6
697,3	216,72
697,8	210,92
698,2	204,08
698,6	202,52
699,1	186,68
699,5	184,04
699,9	181,84
700,4	184,2
700,8	181,48
701,3	181
701,7	189,92
702,1	194,52
702,6	190,12
703	191,52
703,5	188,52
703,9	172,2
704,3	165,76
704,8	161,96
705,2	161,44
705,6	161,12
706,1	161,08
706,5	156,12
707	154,16
707,4	150,52
707,8	152,52
708,3	154,12
708,7	153,32
709,2	148,76
709,6	142,6
710	138,16
710,5	136,68
710,9	128,48
711,3	130,96
711,8	137,32
712,2	137,8
712,7	130,56
713,1	134,6
713,5	133,6
714	127,44
714,4	121,04
714,8	118,52
715,3	119,52
715,7	122,64
716,2	118,96
716,6	119,72
717	121,4
717,5	120,64
717,9	112,6
718,3	110,84
718,8	111,92
719,2	106,6
719,7	94,72
720,1	95,4
720,5	95,4
721	92,84
721,4	95,08
721,8	99,6
722,3	93,64
722,7	90,28
723,2	86,68
723,6	78,92
724	78,4
724,5	78,32
724,9	78,04
725,3	78
725,8	80,68
726,2	84,56
726,7	83,88
727,1	77,72
727,5	71,52
728	73,4
728,4	61,24
728,8	59,4
729,3	65,84
729,7	66,52
730,1	66,08
730,6	67,8
731	67,92
731,5	68,24
731,9	64,68
732,3	67,04
732,8	65
733,2	69,64
733,6	62,2
734,1	60,96
734,5	52,96
734,9	58,16
735,4	48,12
735,8	52,36
736,3	48,56
736,7	47,48
737,1	45,08
737,6	49,88
738	37,52
738,4	35,68
738,9	38,84
739,3	38,52
739,7	34,56
740,2	36,36
740,6	42,92
741,1	37,24
741,5	33,2
741,9	31,32
742,4	32,2
742,8	30
743,2	29,4
743,7	31,68
744,1	24,12
744,5	22,36
745	19,64
745,4	26,16
745,8	22,6
746,3	32,56
746,7	30,08
747,2	33,24
747,6	19,84
748	14,68
748,5	7,92
748,9	11,88
749,3	9,96
749,8	16,72
750,2	16,24
750,6	13,52
751,1	13,16
751,5	12,68
751,9	11,96
752,4	18,68
752,8	22,64
753,3	24,96
753,7	24,32
754,1	20,92
754,6	15,92
755	20,24
755,4	19,32
755,9	16,24
756,3	17,72
756,7	20,44
757,2	6,56
757,6	1,32
758	0,6
758,5	5,48
758,9	-1,24
759,3	8,24
759,8	7,44
760,2	9,52
760,6	-0,64
761,1	-2,12
761,5	-10,88
761,9	-17,68
762,4	-17,76
762,8	-16,92
763,3	-16,08
763,7	-15,4
764,1	-10,96
764,6	-11,2
765	-9,28
765,4	-6,76
765,9	0,88
766,3	0,08
766,7	-4,92
767,2	-3,44
767,6	-10,88
768	-22,84
768,5	-19,08
768,9	-16,28
769,3	-18,68
769,8	-9,72
770,2	-5,32
770,6	-9,8
771,1	-11,12
771,5	-21,36
771,9	-24
772,4	-22
772,8	-24,84
773,2	-29,28
773,7	-20,68
774,1	-24,2
774,5	-24,56
775	-21,28
775,4	-23
775,8	-27,36
776,3	-28,4
776,7	-30,64
777,1	-29,76
777,6	-31,28
778	-26,68
778,4	-23,28
778,9	-20,64
779,3	-27,76
779,7	-26,28
780,2	-32,28
780,6	-40,6
781	-44,48
781,5	-40,72
781,9	-49,2
782,3	-45,56
782,8	-41,52
783,2	-38,16
783,6	-32,4
784,1	-27,08
784,5	-27,56
784,9	-30,72
785,4	-37,32
785,8	-45,56
786,2	-49,68
786,7	-49,96
787,1	-48,4
787,5	-55,08
788	-50,72
788,4	-48,28
788,8	-52,44
789,3	-53,32
789,7	-48,12
790,1	-53,24
790,6	-45,6
791	-45,56
791,4	-45,52
791,9	-46,12
792,3	-51,96
792,7	-51,12
793,2	-50,44
793,6	-53,48
794	-45,96
794,5	-36,6
794,9	-47,32
795,3	-52,2
795,8	-52,64
796,2	-59,84
796,6	-62,04
797,1	-54,48
797,5	-58,08
797,9	-54,08
798,4	-55,44
798,8	-52
799,2	-47,88
799,7	-39,92
800,1	-44,12
800,5	-35,8
801	-42,4
801,4	-45,4
801,8	-43,56
802,2	-45,36
802,7	-51,08
803,1	-48,92
803,5	-55,04
804	-56,16
804,4	-53,4
804,8	-52,16
805,3	-51,12
805,7	-58,76
806,1	-58,56
806,6	-54,84
807	-59,64
807,4	-68,52
807,9	-54,28
808,3	-56,32
808,7	-58,68
809,2	-53,16
809,6	-48,8
810	-55,56
810,4	-64,72
810,9	-65,28
811,3	-63,32
811,7	-66,2
812,2	-66,84
812,6	-59,84
813	-59,84
813,5	-58,2
813,9	-55
814,3	-52,12
814,8	-50,16
815,2	-53,04
815,6	-59,96
816,1	-57,56
816,5	-66,4
816,9	-63,6
817,3	-66,84
817,8	-70,2
818,2	-70,52
818,6	-67,28
819,1	-72,52
819,5	-73,56
819,9	-66,56
820,4	-66,88
820,8	-60,64
821,2	-62,4
821,7	-58,88
822,1	-61,6
822,5	-65,92
822,9	-66,56
823,4	-69,24
823,8	-68,4
824,2	-65,96
824,7	-67,08
825,1	-67,96
825,5	-62,16
826	-66,08
826,4	-71,16
826,8	-73,28
827,3	-78,84
827,7	-73,28
828,1	-72,28
828,5	-72,72
829	-70,84
829,4	-66,52
829,8	-71,72
830,3	-67,32
830,7	-70,24
831,1	-70,88
831,6	-81,08
832	-86,84
832,4	-86,92
832,8	-83,24
833,3	-80,28
833,7	-70,04
834,1	-71,04
834,6	-77,64
835	-81,36
835,4	-82,08
835,8	-81,72
836,3	-78,4
836,7	-74,32
837,1	-73,8
837,6	-76,16
838	-76,44
838,4	-75,92
838,9	-76,4
839,3	-75,2
839,7	-74,04
840,1	-82,2
840,6	-84,12
841	-84,88
841,4	-88,2
841,9	-87,84
842,3	-81,96
842,7	-84,36
843,1	-85,2
843,6	-81,32
844	-87,24
844,4	-85,56
844,9	-90,6
845,3	-83,12
845,7	-83,4
846,2	-77,56
846,6	-76,2
847	-72,16
847,4	-80,96
847,9	-83,28
848,3	-85,32
848,7	-88,24
849,2	-84,16
849,6	-81,4
850	-76,56
850,4	-78,36
850,9	-80,16
851,3	-79,96
851,7	-84,44
852,2	-86,56
852,6	-87,52
853	-85,76
853,4	-87,48
853,9	-83,28
854,3	-84,96
854,7	-76,52
855,2	-76,56
855,6	-78,92
856	-79,36
856,4	-81,44
856,9	-81,68
857,3	-84,56
857,7	-84,92
858,2	-87,6
858,6	-87,96
859	-92,68
859,4	-94,36
859,9	-89,72
860,3	-88,2
860,7	-82,56
861,1	-82,96
861,6	-79,32
862	-77,64
862,4	-75,56
862,9	-80,92
863,3	-77,32
863,7	-78,76
864,1	-86,08
864,6	-80,84
865	-82,36
865,4	-83,08
865,9	-82,8
866,3	-82,72
866,7	-91,52
867,1	-89,84
867,6	-96,04
868	-98,28
868,4	-101,8
868,8	-105,28
869,3	-108,88
869,7	-101
870,1	-101,44
870,6	-94,28
871	-84,92
871,4	-143,24
871,8	-144,72
872,3	-144,12
872,7	-144,84
873,1	-154,96
873,5	-95,44
874	-101,16
874,4	-102
874,8	-100,92
875,3	-96,32
875,7	-90,64
876,1	-91,96
876,5	-91,36
877	-91,56
877,4	-89,72
877,8	-84,96
878,2	-79,04
878,7	-83,24
879,1	-81,76
879,5	-78,24
879,9	-86,88
880,4	-95,36
880,8	-92,08
881,2	-97,16
881,7	-105,52
882,1	-100,96
882,5	-98,4
882,9	-89,64
883,4	-84,76
883,8	-83,4
884,2	-89,84
884,6	-90,4
885,1	-98,88
885,5	-102,8
885,9	-97,52
886,3	-100,52
886,8	-98,16
887,2	-94,32
887,6	-94,08
888	-101,24
888,5	-95,04
888,9	-94,28
889,3	-103,84
889,8	-104,24
890,2	-98,4
890,6	-98,88
891	-93,16
891,5	-84,52
891,9	-81,72
892,3	-80,4
892,7	-77,68
893,2	-81,92
893,6	-83,8
894	-87,32
894,4	-89,8
894,9	-92,32
895,3	-89,24
895,7	-89,96
896,1	-85,24
896,6	-89,68
897	-86,28
897,4	-90,24
897,8	-89,52
898,3	-101,6
898,7	-102,2
899,1	-107
899,5	-104,88
900	-110
900,4	-103,12
900,8	-100,8
901,2	-104,96
901,7	-105,56
902,1	-105,8
902,5	-104,52
902,9	-102,92
903,4	-98,56
903,8	-101,76
904,2	-98,32
904,6	-95,48
905,1	-92,92
905,5	-87,92
905,9	-88,92
906,3	-84,88
906,8	-86,76
907,2	-86,56
907,6	-90
908	-89,6
908,5	-87,88
908,9	-84,24
909,3	-90,04
909,7	-92,48
910,2	-88,12
910,6	-91,04
911	-89,6
911,4	-84,52
911,9	-86,92
912,3	-86,16
912,7	-83,16
913,1	-92,8
913,6	-99,48
914	-95,72
914,4	-96,8
914,8	-98,44
915,3	-90,36
915,7	-85,44
916,1	-88,04
916,5	-87,04
916,9	-89,88
917,4	-95,04
917,8	-94,56
918,2	-88,44
918,6	-92,12
919,1	-85,04
919,5	-85,28
919,9	-85,76
920,3	-87,64
920,8	-93,56
921,2	-95,64
921,6	-96,84
922	-101
922,5	-100,84
922,9	-101,56
923,3	-102,08
923,7	-98,64
924,2	-95,56
924,6	-98,28
925	-81,2
925,4	-89,88
925,8	-94,72
926,3	-97,12
926,7	-90,08
927,1	-97,36
927,5	-93,88
928	-88,04
928,4	-85,16
928,8	-95,72
929,2	-97,52
929,7	-93,96
930,1	-95,44
930,5	-93
930,9	-91,36
931,3	-95,76
931,8	-100,96
932,2	-98,04
932,6	-100,08
933	-97,72
933,5	-93,16
933,9	-94,28
934,3	-99,56
934,7	-100,32
935,2	-97,92
935,6	-100,96
936	-105,52
936,4	-108,68
936,8	-108,6
937,3	-113,24
937,7	-115,96
938,1	-109,6
938,5	-104,8
939	-108,6
939,4	-109,2
939,8	-107
940,2	-105,4
940,6	-107,12
941,1	-104,96
941,5	-100,76
941,9	-104,36
942,3	-110,16
942,8	-113,2
943,2	-110,92
943,6	-116,12
944	-110,16
944,4	-105,8
944,9	-100,2
945,3	-103,16
945,7	-103,04
946,1	-103,52
946,6	-106,24
947	-109,16
947,4	-109,88
947,8	-109,76
948,2	-107,56
948,7	-99,68
949,1	-96,84
949,5	-96,24
949,9	-86,56
950,3	-94,08
950,8	-98,92
951,2	-98,24
951,6	-103,16
952	-111,68
952,5	-102,48
952,9	-102,04
953,3	-108,04
953,7	-101,28
954,1	-93,64
954,6	-96,16
955	-99,64
955,4	-96,28
955,8	-92,48
956,2	-103
956,7	-103,68
957,1	-96,08
957,5	-93
957,9	-100,96
958,3	-96,56
958,8	-98,04
959,2	-99,6
959,6	-104,76
960	-101,72
960,5	-104,56
960,9	-98,36
961,3	-102,6
961,7	-100,92
962,1	-99,28
962,6	-97,4
963	-105,88
963,4	-104,12
963,8	-104
964,2	-105,28
964,7	-103,68
965,1	-99,08
965,5	-108,8
965,9	-111,4
966,3	-107,04
966,8	-106,32
967,2	-110,32
967,6	-102,32
968	-97,52
968,4	-95,68
968,9	-96,92
969,3	-97,4
969,7	-100,04
970,1	-102,04
970,5	-107,08
971	-103,36
971,4	-101,48
971,8	-92,88
972,2	-94,04
972,6	-92,72
973,1	-93,24
973,5	-91,92
973,9	-101,96
974,3	-103,48
974,7	-107,28
975,2	-109,8
975,6	-116,76
976	-111,84
976,4	-105
976,8	-105,08
977,3	-109,96
977,7	-106,16
978,1	-105,36
978,5	-110,8
978,9	-110,08
979,4	-112
979,8	-112,92
980,2	-108,12
980,6	-106,28
981	-101,64
981,5	-98,04
981,9	-94,64
982,3	-100
982,7	-93,88
983,1	-96,28
983,6	-93,04
984	-90,48
984,4	-93,2
984,8	-101,68
985,2	-103,36
985,6	-104,6
986,1	-105,56
986,5	-99,44
986,9	-96,04
987,3	-101,44
987,7	-99
988,2	-97,96
988,6	-103,76
989	-102,8
989,4	-101,04
989,8	-113
990,3	-117,16
990,7	-115,84
991,1	-118,32
991,5	-113,16
991,9	-102,88
992,3	-101,6
992,8	-99,24
993,2	-98,56
993,6	-96,72
994	-95
994,4	-95,12
994,9	-96,68
995,3	-96,08
995,7	-97,52
996,1	-99,16
996,5	-100,12
996,9	-98,36
997,4	-105,04
997,8	-110,28
998,2	-108,08
998,6	-106,76
999	-112,88
999,5	-111,96
999,9	-106,6
1000,3	-108,6
1000,7	-106,12
1001,1	-100,68
1001,5	-95,32
1002	-97,08
1002,4	-96,28
1002,8	-97,28
1003,2	-91,4
1003,6	-91,52
1004	-94,04
1004,5	-90,92
1004,9	-90,32
1005,3	-102,4
1005,7	-103,36
1006,1	-95,64
1006,6	-102,52
1007	-97,16
1007,4	-91,96
1007,8	-88,28
1008,2	-99
1008,6	-100,88
1009,1	-112,32
1009,5	-109,92
1009,9	-120,6
1010,3	-114,32
1010,7	-114
1011,1	-106,04
1011,6	-108,48
1012	-101,68
1012,4	-106,24
1012,8	-106,32
1013,2	-106,36
1013,6	-111,04
1014,1	-112,44
1014,5	-105,08
1014,9	-100,16
1015,3	-101,84
1015,7	-94,64
1016,1	-93,16
1016,6	-95,96
1017	-96,48
1017,4	-101,36
1017,8	-109,04
1018,2	-114,36
1018,6	-111,84
1019,1	-113,84
1019,5	-109,8
1019,9	-107,92
1020,3	-101,28
1020,7	-105,24
1021,1	-111,76
1021,6	-111,6
1022	-109,84
1022,4	-109,28
1022,8	-110,52
1023,2	-108,08
1023,6	-111,72
1024,1	-112,36
1024,5	-121,56
1024,9	-124,12
1025,3	-124,96
1025,7	-124,12
1026,1	-130,04
1026,6	-120,04
1027	-118,64
1027,4	-121,24
1027,8	-125,96
1028,2	-117,64
1028,6	-121,88
1029	-119,72
1029,5	-111,24
1029,9	-98,84
1030,3	-103,64
1030,7	-100,68
1031,1	-108,04
1031,5	-110,8
1032	-126,08
1032,4	-125,12
1032,8	-128,48
1033,2	-121,84
1033,6	-113,92
1034	-103,84
1034,4	-102,48
1034,9	-104,88
1035,3	-101,56
1035,7	-114,36
1036,1	-118,56
1036,5	-117,16
1036,9	-116,6
1037,4	-125,6
1037,8	-120,28
1038,2	-121,36
1038,6	-127,6
1039	-121,6
1039,4	-115,76
1039,8	-117,6
1040,3	-119,4
1040,7	-117,48
1041,1	-125
1041,5	-130
1041,9	-132,32
1042,3	-128,24
1042,7	-127,28
1043,2	-123,28
1043,6	-123,88
1044	-121,52
1044,4	-124,76
1044,8	-126,52
1045,2	-126,36
1045,6	-129,32
1046,1	-131,96
1046,5	-137,52
1046,9	-133,96
1047,3	-131,88
1047,7	-128,04
1048,1	-123,32
1048,5	-117,24
1049	-112,28
1049,4	-115,6
1049,8	-118,2
1050,2	-119,56
1050,6	-113,2
1051	-120,6
1051,4	-121,92
1051,9	-122,56
1052,3	-127
1052,7	-140,12
1053,1	-138,48
1053,5	-128,36
1053,9	-122,76
1054,3	-116,08
1054,8	-108,76
1055,2	-101,6
1055,6	-109,88
1056	-110,88
1056,4	-111,2
1056,8	-109,84
1057,2	-120,8
1057,6	-124,8
1058,1	-123,56
1058,5	-123,96
1058,9	-122,08
1059,3	-120,84
1059,7	-117,6
1060,1	-121,28
1060,5	-120,44
1061	-120,56
1061,4	-117,04
1061,8	-110,64
1062,2	-105,8
1062,6	-105,8
1063	-112,88
1063,4	-110,32
1063,8	-121,6
1064,3	-115,68
1064,7	-114,72
1065,1	-105,52
1065,5	-111,6
1065,9	-107,8
1066,3	-115,76
1066,7	-117,76
1067,1	-116,72
1067,6	-109,56
1068	-106,72
1068,4	-103,24
1068,8	-102,52
1069,2	-107
1069,6	-106,52
1070	-108,48
1070,4	-112,92
1070,9	-108,6
1071,3	-104,84
1071,7	-103,28
1072,1	-97,84
1072,5	-98,52
1072,9	-99,12
1073,3	-97,52
1073,7	-102,48
1074,2	-113,6
1074,6	-108
1075	-113,44
1075,4	-117
1075,8	-114,24
1076,2	-104,64
1076,6	-103,64
1077	-100,36
1077,5	-104,36
1077,9	-106,68
1078,3	-103,6
1078,7	-104,24
1079,1	-100,52
1079,5	-100,12
1079,9	-100,44
1080,3	-101,08
1080,7	-104,24
1081,2	-103,04
1081,6	-106,08
1082	-102,88
1082,4	-110,24
1082,8	-107,76
1083,2	-112,76
1083,6	-101,84
1084	-99,24
1084,5	-98,08
1084,9	-99,08
1085,3	-94,56
1085,7	-97,68
1086,1	-98,36
1086,5	-94,8
1086,9	-93,44
1087,3	-99,36
1087,7	-97,56
1088,2	-91,12
1088,6	-85,36
1089	-86,92
1089,4	-87,24
1089,8	-86,52
1090,2	-97,44
1090,6	-101,16
1091	-99,88
1091,4	-100,96
1091,9	-107,52
1092,3	-105,6
1092,7	-107,92
1093,1	-109,48
1093,5	-102,08
1093,9	-95,56
1094,3	-93,68
1094,7	-90,28
1095,1	-90,4
1095,5	-99,32
1096	-97,2
1096,4	-98,92
1096,8	-96,36
1097,2	-90,76
1097,6	-81,44
1098	-86,08
1098,4	-80,48
1098,8	-88,84
1099,2	-88,36
1099,6	-82,64
1100,1	-78,4
1100,5	-80,36
1100,9	-71,68
1101,3	-67,36
1101,7	-75,36
1102,1	-78,04
1102,5	-74,92
1102,9	-72,16
1103,3	-78,28
1103,7	-70,84
1104,2	-65,08
1104,6	-68,12
1105	-71,2
1105,4	-63,88
1105,8	-64,24
1106,2	-53,04
1106,6	-36,44
1107	-22,08
1107,4	-11,24
1107,8	-0,8
1108,3	0,6
