Data from Subt2_00087.txt Node
Date: Fri Aug 11 16:47:55 MSK 2023
User: vat
Spectrometer: MAYP114033
Trigger mode: 0
Integration Time (sec): 5,000000E-1
Scans to average: 5
Electric dark correction enabled: true
Nonlinearity correction enabled: false
Boxcar width: 2
XAxis mode: Wavelengths
Number of Pixels in Spectrum: 2068
>>>>>Begin Spectral Data<<<<<
199,4	1,4
199,9	0,8
200,4	-0,76
200,8	-1,72
201,3	-3,2
201,8	-4,32
202,2	-5,56
202,7	-3,64
203,2	-1,44
203,6	-0,72
204,1	-1,04
204,6	-1,52
205	-2,2
205,5	-5,6
206	-8,44
206,4	-9,28
206,9	-8,88
207,4	-9,32
207,8	-9,76
208,3	-7,48
208,8	-3,28
209,2	-0,88
209,7	-3,56
210,2	-1,64
210,6	0,16
211,1	-3,56
211,5	-5,72
212	-4,12
212,5	-6,88
212,9	-10,56
213,4	-11,6
213,9	-13,08
214,3	-12,72
214,8	-17,96
215,3	-16,88
215,7	-20,6
216,2	-19,92
216,7	-24,48
217,1	-22,24
217,6	-27,4
218,1	-25
218,5	-19,52
219	-14,92
219,5	-9,32
219,9	-8,44
220,4	-2,72
220,9	-9,12
221,3	-7,52
221,8	-12
222,3	-8,36
222,7	-14,08
223,2	-13,04
223,6	-10,92
224,1	-9,64
224,6	-9
225	-8,8
225,5	-12,92
226	-15,44
226,4	-17,08
226,9	-17,36
227,4	-16,56
227,8	-16,36
228,3	-24,44
228,8	-17,68
229,2	-21,6
229,7	-20,48
230,2	-17,6
230,6	-15,84
231,1	-20,36
231,5	-15,4
232	-14,12
232,5	-12,68
232,9	-8,68
233,4	-7,2
233,9	-9,2
234,3	-9,76
234,8	-9,4
235,3	-8,6
235,7	-9,72
236,2	-8,88
236,7	-13,52
237,1	-15,84
237,6	-17,28
238,1	-14,2
238,5	-16,12
239	-16,92
239,4	-19,72
239,9	-20,24
240,4	-23,84
240,8	-18,04
241,3	-11,36
241,8	-11,56
242,2	-13,52
242,7	-14,48
243,2	-17,56
243,6	-21,96
244,1	-23,72
244,6	-24,32
245	-21,44
245,5	-26,24
245,9	-24,12
246,4	-18,36
246,9	-14,64
247,3	-14,96
247,8	-18,68
248,3	-20,6
248,7	-22,12
249,2	-23
249,7	-29,72
250,1	-22,4
250,6	-25,32
251	-26,24
251,5	-23,36
252	-17,12
252,4	-16,08
252,9	-10,44
253,4	-12,16
253,8	-13,56
254,3	-13,96
254,8	-10,88
255,2	-9,36
255,7	-4,32
256,1	-8,36
256,6	-8,68
257,1	-14,12
257,5	-21,64
258	-23,52
258,5	-24,76
258,9	-22,68
259,4	-21,72
259,9	-15,92
260,3	-17,24
260,8	-9,24
261,2	-7,16
261,7	-9,76
262,2	-15,48
262,6	-13
263,1	-17,92
263,6	-16,16
264	-14,16
264,5	-8,28
264,9	-7,92
265,4	-12,64
265,9	-18,84
266,3	-15,36
266,8	-14,12
267,3	-16,16
267,7	-10,72
268,2	-8,8
268,7	-6,56
269,1	-13,4
269,6	-11
270	-14,44
270,5	-17,04
271	-23,44
271,4	-21,36
271,9	-24,2
272,4	-21,04
272,8	-25,52
273,3	-25,72
273,7	-26,32
274,2	-25,2
274,7	-24,76
275,1	-19,28
275,6	-20,56
276,1	-23,64
276,5	-22,52
277	-24,32
277,4	-23,48
277,9	-14,48
278,4	-9,72
278,8	-7,72
279,3	-1,8
279,8	-4,12
280,2	-6,6
280,7	-5,28
281,1	-13
281,6	-20,76
282,1	-15,88
282,5	-20,96
283	-19,52
283,4	-14,16
283,9	-5,72
284,4	-8,4
284,8	-12,72
285,3	-10,72
285,8	-9,4
286,2	-14,56
286,7	-13,44
287,1	-7,76
287,6	-9,32
288,1	-10,76
288,5	-10
289	-14,36
289,5	-16,36
289,9	-21,24
290,4	-19,04
290,8	-17,12
291,3	-14,48
291,8	-7,88
292,2	-4,92
292,7	-5,48
293,1	-11,28
293,6	-6,36
294,1	-10,88
294,5	-11,44
295	-8,88
295,5	-3,6
295,9	-10,24
296,4	-11,12
296,8	-15,24
297,3	-21,92
297,8	-22,52
298,2	-21,64
298,7	-20,68
299,1	-17,36
299,6	-16
300,1	-21,32
300,5	-21,2
301	-24,32
301,5	-24,24
301,9	-25,96
302,4	-22,48
302,8	-18,24
303,3	-13,52
303,8	-16,8
304,2	-15,88
304,7	-10,8
305,1	-15,8
305,6	-18,36
306,1	-14,92
306,5	-9,48
307	-12,6
307,4	-10,92
307,9	-13,92
308,4	-12,04
308,8	-16,04
309,3	-15,88
309,8	-16,44
310,2	-13,96
310,7	-15
311,1	-19,32
311,6	-24,56
312,1	-24,8
312,5	-26,72
313	-28,16
313,4	-23,72
313,9	-15,92
314,4	-19,76
314,8	-19,16
315,3	-18,52
315,7	-19,04
316,2	-23,04
316,7	-22,44
317,1	-20,76
317,6	-20,24
318	-16,4
318,5	-12,08
319	-10,04
319,4	-4,88
319,9	-4,8
320,3	-9,6
320,8	-17,8
321,3	-12,12
321,7	-15,16
322,2	-13,92
322,6	-11,96
323,1	-6,08
323,6	-9,64
324	-13
324,5	-16,84
324,9	-17
325,4	-22,32
325,9	-17,64
326,3	-10,84
326,8	-4,24
327,2	-4,08
327,7	-2,24
328,2	-4,6
328,6	-9,4
329,1	-13,32
329,5	-15,48
330	-9,6
330,5	-10,28
330,9	-13,84
331,4	-11,72
331,8	-10,2
332,3	-12,72
332,8	-15,52
333,2	-14,4
333,7	-17,08
334,1	-14,04
334,6	-16,12
335,1	-12,88
335,5	-9,84
336	-7,72
336,4	-12,6
336,9	-8,44
337,4	-16,96
337,8	-15,56
338,3	-14,88
338,7	-12,6
339,2	-19,56
339,7	-9,12
340,1	-11,64
340,6	-12,08
341	-6,68
341,5	-2
342	-4,08
342,4	-0,64
342,9	-1,16
343,3	-6,84
343,8	-9,6
344,2	-8,28
344,7	-10,88
345,2	-13,2
345,6	-8,04
346,1	-8,88
346,5	-5,44
347	-2,72
347,5	-0,12
347,9	-1,36
348,4	4,28
348,8	-5,04
349,3	-4,24
349,8	-2,68
350,2	-3,44
350,7	-5,8
351,1	-2,52
351,6	-0,28
352	-3,24
352,5	-5,52
353	2,2
353,4	9,76
353,9	15,8
354,3	26,8
354,8	34,68
355,3	42,16
355,7	56,52
356,2	67,68
356,6	87
357,1	113,2
357,5	142,52
358	171,92
358,5	207,44
358,9	248,44
359,4	296,12
359,8	342,48
360,3	393,16
360,8	455,28
361,2	522
361,7	593,24
362,1	675,12
362,6	771,88
363	876,16
363,5	978,92
364	1092,92
364,4	1204,44
364,9	1310,72
365,3	1423,64
365,8	1541,2
366,3	1644,52
366,7	1754,28
367,2	1843
367,6	1911,52
368,1	1960,16
368,5	2006,56
369	2019,28
369,5	2030,96
369,9	2031,24
370,4	2011,4
370,8	1973,04
371,3	1924,56
371,7	1860,92
372,2	1774,68
372,7	1691,08
373,1	1600
373,6	1511,88
374	1427,48
374,5	1342,6
374,9	1254,52
375,4	1173,76
375,9	1086,56
376,3	1000,76
376,8	923,68
377,2	849,36
377,7	776,16
378,2	718,16
378,6	655,68
379,1	599,56
379,5	554,72
380	508,96
380,4	461,72
380,9	424,32
381,4	389,44
381,8	359,56
382,3	332,56
382,7	312,32
383,2	287,04
383,6	266,44
384,1	240,56
384,6	219,16
385	202,48
385,5	189,12
385,9	174,44
386,4	166,68
386,8	154,72
387,3	138,56
387,7	131,52
388,2	123,36
388,7	110,12
389,1	103,12
389,6	92,28
390	84,32
390,5	73,04
390,9	64,12
391,4	56,2
391,9	57,48
392,3	48,44
392,8	48,84
393,2	47,44
393,7	46,92
394,1	39,44
394,6	34,64
395,1	23,4
395,5	23,08
396	22,6
396,4	21,68
396,9	23,64
397,3	25,88
397,8	24,8
398,2	19,52
398,7	17,76
399,2	15,36
399,6	16,32
400,1	13,4
400,5	11,32
401	13,96
401,4	6,4
401,9	7,88
402,4	6,36
402,8	3,6
403,3	0,16
403,7	3,96
404,2	-0,52
404,6	-2,32
405,1	-0,56
405,5	-4,76
406	-4,4
406,5	-6,2
406,9	-4,2
407,4	-4,4
407,8	-0,56
408,3	-1,96
408,7	2,32
409,2	-0,84
409,6	5,96
410,1	9,68
410,6	20,16
411	20,88
411,5	22,96
411,9	22,08
412,4	22,04
412,8	17,84
413,3	20,52
413,7	24,8
414,2	25,8
414,7	25,88
415,1	27,8
415,6	26,32
416	23,76
416,5	24,48
416,9	26,56
417,4	33,92
417,8	42,36
418,3	46,36
418,8	46,52
419,2	46,16
419,7	42,12
420,1	38,76
420,6	42,6
421	41,24
421,5	39
421,9	37,16
422,4	37,04
422,8	37,92
423,3	35,6
423,8	37,56
424,2	43,12
424,7	47,6
425,1	42,92
425,6	50,28
426	53,36
426,5	55,32
426,9	54,56
427,4	62,72
427,9	66,12
428,3	67,92
428,8	69
429,2	71,08
429,7	70,84
430,1	69,52
430,6	77,72
431	79,2
431,5	80,72
431,9	86,92
432,4	89,36
432,8	90,2
433,3	92,96
433,8	104,4
434,2	103
434,7	112,96
435,1	114,96
435,6	121,16
436	118,72
436,5	130,76
436,9	134
437,4	143,8
437,8	144,76
438,3	154,48
438,8	150,24
439,2	154,6
439,7	160,88
440,1	172,12
440,6	177,8
441	192,28
441,5	201,4
441,9	203,44
442,4	214,28
442,8	223,04
443,3	241,04
443,7	253,12
444,2	274,24
444,7	290
445,1	307,48
445,6	318,56
446	332,04
446,5	336,56
446,9	349
447,4	357,52
447,8	366,2
448,3	379,6
448,7	400,28
449,2	409,6
449,6	425,76
450,1	443,48
450,6	455,16
451	464,96
451,5	482,56
451,9	501,48
452,4	527,04
452,8	550,88
453,3	578,08
453,7	597,4
454,2	613,96
454,6	623,48
455,1	643,64
455,5	664,92
456	684,6
456,4	707,4
456,9	727,84
457,3	747,24
457,8	762,44
458,3	784,76
458,7	806,76
459,2	836,44
459,6	859,92
460,1	884,32
460,5	916,52
461	938,08
461,4	961,44
461,9	988,96
462,3	1018,28
462,8	1044,4
463,2	1076,4
463,7	1104,84
464,1	1133,04
464,6	1155,88
465	1180,28
465,5	1203,56
466	1227
466,4	1246,56
466,9	1276,44
467,3	1296,24
467,8	1327,16
468,2	1349,56
468,7	1377,8
469,1	1402,84
469,6	1433,8
470	1459,44
470,5	1483,48
470,9	1520,32
471,4	1546,88
471,8	1574,68
472,3	1599,16
472,7	1636,2
473,2	1656,04
473,6	1694,2
474,1	1717,8
474,5	1747,56
475	1776,76
475,4	1813,4
475,9	1831,2
476,4	1860,08
476,8	1890,8
477,3	1909,92
477,7	1930,92
478,2	1964,92
478,6	1988,2
479,1	2008,32
479,5	2036,48
480	2046,64
480,4	2060,12
480,9	2087,4
481,3	2107,72
481,8	2125,4
482,2	2159,16
482,7	2170,48
483,1	2181,8
483,6	2197,04
484	2216,4
484,5	2228,36
484,9	2255,48
485,4	2274,72
485,8	2297,48
486,3	2308
486,7	2324,76
487,2	2335,84
487,6	2346,28
488,1	2355,88
488,5	2362,12
489	2372,92
489,4	2382,8
489,9	2398,96
490,4	2411,88
490,8	2424,8
491,3	2437,32
491,7	2451,64
492,2	2457,2
492,6	2463,24
493,1	2475,8
493,5	2484,16
494	2479,6
494,4	2477
494,9	2476,6
495,3	2480,76
495,8	2470,84
496,2	2479,88
496,7	2490,04
497,1	2495,76
497,6	2497,48
498	2506,44
498,5	2506,64
498,9	2505,6
499,4	2492,92
499,8	2495,24
500,3	2487,76
500,7	2487,8
501,2	2483,32
501,6	2497
502,1	2492,4
502,5	2500,52
503	2496,24
503,4	2502,36
503,9	2499,32
504,3	2495,48
504,8	2488,2
505,2	2485,76
505,7	2483,96
506,1	2473,24
506,6	2474,8
507	2467,88
507,5	2462,2
507,9	2452,84
508,4	2450,4
508,8	2441,48
509,3	2434,24
509,7	2430,72
510,2	2423,6
510,6	2415,68
511,1	2407
511,5	2400,16
512	2387,52
512,4	2382,84
512,9	2377,68
513,3	2364,24
513,8	2364,28
514,2	2360,12
514,7	2342,64
515,1	2340,8
515,6	2339,08
516	2327,96
516,5	2331,28
516,9	2335,76
517,4	2318,6
517,8	2312,64
518,3	2301,68
518,7	2296,08
519,2	2288,64
519,6	2292,8
520,1	2286,4
520,5	2287,92
521	2267,24
521,4	2263,12
521,9	2245,04
522,3	2247,24
522,8	2239,04
523,2	2237,56
523,7	2231,44
524,1	2230,36
524,6	2219,96
525	2215,84
525,5	2209,64
525,9	2199,44
526,4	2193,12
526,8	2178,44
527,3	2174,2
527,7	2174,48
528,2	2172,12
528,6	2174,36
529,1	2179,48
529,5	2181,68
530	2175,04
530,4	2172,12
530,9	2167,04
531,3	2160,52
531,8	2141,24
532,2	2131,76
532,6	2126,16
533,1	2120,28
533,5	2114
534	2119,76
534,4	2122,2
534,9	2121,76
535,3	2123,56
535,8	2121,8
536,2	2116,84
536,7	2104,6
537,1	2102,52
537,6	2090,08
538	2092,24
538,5	2090,32
538,9	2095,64
539,4	2089,64
539,8	2092,88
540,3	2088,76
540,7	2085,28
541,2	2080,28
541,6	2072,76
542,1	2070,4
542,5	2068,88
543	2067,56
543,4	2066,64
543,9	2072,12
544,3	2070,32
544,8	2070,92
545,2	2072,48
545,7	2070,32
546,1	2071,84
546,5	2063,68
547	2055,08
547,4	2047,52
547,9	2043,16
548,3	2034,48
548,8	2031,32
549,2	2028,36
549,7	2024,16
550,1	2025,12
550,6	2022,32
551	2027,64
551,5	2025,28
551,9	2025,56
552,4	2023,88
552,8	2024,56
553,3	2020,84
553,7	2024,12
554,2	2020,44
554,6	2025,44
555,1	2027,04
555,5	2038,16
555,9	2038,52
556,4	2044,92
556,8	2038,48
557,3	2037,48
557,7	2020,28
558,2	2013,6
558,6	2008,68
559,1	2007,84
559,5	2001,44
560	2002,64
560,4	2002
560,9	1998,4
561,3	1991,44
561,8	1989,08
562,2	1989,28
562,7	1989,84
563,1	1992,88
563,6	1986,84
564	1987,8
564,4	1985,56
564,9	1993
565,3	1978,6
565,8	1986,96
566,2	1984,2
566,7	1987,36
567,1	1977,72
567,6	1988,24
568	1984,88
568,5	1983,52
568,9	1978,36
569,4	1978,32
569,8	1973,48
570,3	1974,2
570,7	1969,64
571,1	1964,08
571,6	1956,2
572	1952,36
572,5	1951,32
572,9	1945,96
573,4	1945,76
573,8	1944,8
574,3	1937,48
574,7	1927,96
575,2	1934,68
575,6	1929,68
576,1	1927,76
576,5	1932,16
576,9	1932,28
577,4	1923,44
577,8	1916,72
578,3	1906,88
578,7	1899,52
579,2	1895,36
579,6	1889,24
580,1	1892,28
580,5	1888,32
581	1894,12
581,4	1890,52
581,9	1886,08
582,3	1879,68
582,7	1876,08
583,2	1860,12
583,6	1856,2
584,1	1850,56
584,5	1844,64
585	1841,44
585,4	1837,84
585,9	1829,68
586,3	1825,16
586,8	1814,48
587,2	1808,32
587,6	1802,24
588,1	1801,48
588,5	1799,08
589	1805,08
589,4	1801
589,9	1795,52
590,3	1781,48
590,8	1778,48
591,2	1769,52
591,7	1772,08
592,1	1770,84
592,5	1770,24
593	1760,6
593,4	1754,6
593,9	1741,52
594,3	1743,48
594,8	1739,68
595,2	1735,88
595,7	1729,96
596,1	1727,56
596,6	1718,52
597	1717,6
597,4	1710,68
597,9	1708,6
598,3	1706,72
598,8	1699,08
599,2	1691,96
599,7	1688,84
600,1	1678,72
600,6	1669,76
601	1666,76
601,4	1664,76
601,9	1661,32
602,3	1663,84
602,8	1653,2
603,2	1649,16
603,7	1638,44
604,1	1637,48
604,6	1627,6
605	1624,6
605,4	1613,48
605,9	1605,6
606,3	1595,84
606,8	1592,4
607,2	1588,44
607,7	1591,12
608,1	1588,08
608,6	1584,84
609	1581,36
609,4	1577,08
609,9	1562,72
610,3	1558
610,8	1549,76
611,2	1534,32
611,7	1528,76
612,1	1523,2
612,6	1509,44
613	1494,96
613,4	1493,16
613,9	1487,16
614,3	1476,88
614,8	1481,44
615,2	1489,36
615,7	1482,64
616,1	1470,68
616,6	1461,44
617	1444,8
617,4	1430,72
617,9	1419,48
618,3	1415,96
618,8	1416,64
619,2	1412,08
619,7	1404,56
620,1	1403,4
620,5	1397,12
621	1385,88
621,4	1375,52
621,9	1371,68
622,3	1364,4
622,8	1356,36
623,2	1348,72
623,6	1346
624,1	1332,8
624,5	1328,28
625	1319,32
625,4	1317,36
625,9	1312,28
626,3	1306,36
626,8	1294,8
627,2	1294,92
627,6	1280,76
628,1	1274,52
628,5	1266,56
629	1256,84
629,4	1243,4
629,9	1243,12
630,3	1235,56
630,7	1228,04
631,2	1220,04
631,6	1216,84
632,1	1207,32
632,5	1197,56
633	1190,48
633,4	1185,8
633,8	1182,6
634,3	1177,28
634,7	1175,76
635,2	1179,6
635,6	1169,72
636,1	1158,36
636,5	1151,48
636,9	1144,68
637,4	1128,12
637,8	1126,2
638,3	1114,8
638,7	1104,08
639,2	1097
639,6	1094,44
640	1084,6
640,5	1078,92
640,9	1080,32
641,4	1069,56
641,8	1060,56
642,2	1055,64
642,7	1052,16
643,1	1046,16
643,6	1044,16
644	1039,44
644,5	1036,24
644,9	1032,56
645,3	1022,2
645,8	1014,72
646,2	1008,64
646,7	997,48
647,1	996,2
647,6	990,2
648	984,2
648,4	982,68
648,9	975,84
649,3	965,4
649,8	962,08
650,2	959,28
650,6	949,36
651,1	957,84
651,5	947,6
652	939,88
652,4	936,2
652,9	927,96
653,3	914,64
653,7	909,6
654,2	906
654,6	895,32
655,1	886,76
655,5	879,44
655,9	875,76
656,4	869,36
656,8	861,08
657,3	862,28
657,7	854,32
658,2	847,88
658,6	846,56
659	842
659,5	834,96
659,9	840,16
660,4	838,88
660,8	828,52
661,2	823,76
661,7	821,36
662,1	810,84
662,6	800,68
663	798,16
663,4	794,68
663,9	789,92
664,3	781,8
664,8	778,12
665,2	770,32
665,6	769,84
666,1	765,76
666,5	765,48
667	765,32
667,4	763,56
667,9	752,92
668,3	745,24
668,7	735
669,2	723
669,6	718,28
670,1	714,44
670,5	707,44
670,9	707,04
671,4	711,88
671,8	701,32
672,3	696,96
672,7	692,92
673,1	687,16
673,6	674,32
674	672,76
674,5	663,48
674,9	657,12
675,3	654,84
675,8	654
676,2	650,2
676,7	647,28
677,1	640,4
677,5	628,04
678	618,84
678,4	616,04
678,9	608,04
679,3	605,2
679,7	605,88
680,2	599
680,6	587,8
681,1	593,92
681,5	594,52
681,9	584,84
682,4	584,92
682,8	581,92
683,3	572,92
683,7	562,56
684,1	558,72
684,6	551,24
685	546,72
685,5	538,88
685,9	535,72
686,3	535,8
686,8	531,84
687,2	530,28
687,7	525,6
688,1	527,28
688,5	524,04
689	522,84
689,4	524,24
689,9	519,84
690,3	512,16
690,7	508,84
691,2	506,6
691,6	491,64
692	494,4
692,5	496,24
692,9	487,2
693,4	480,24
693,8	487,12
694,2	481,56
694,7	476,4
695,1	478,56
695,6	473,08
696	465,84
696,4	461,08
696,9	456,2
697,3	451,32
697,8	448,28
698,2	446,16
698,6	442,92
699,1	442,24
699,5	439,68
699,9	439,2
700,4	429,96
700,8	428,84
701,3	423,8
701,7	418
702,1	420,2
702,6	417,76
703	414,44
703,5	409,32
703,9	404,2
704,3	403,92
704,8	404,76
705,2	401
705,6	401,68
706,1	400,44
706,5	387,52
707	389,24
707,4	387,88
707,8	377,48
708,3	376,32
708,7	378,12
709,2	369,12
709,6	363,36
710	365,48
710,5	356,8
710,9	355,6
711,3	358,52
711,8	357,76
712,2	361,68
712,7	362,96
713,1	356,12
713,5	349,52
714	339,68
714,4	328,96
714,8	332,48
715,3	331,32
715,7	333,04
716,2	335,68
716,6	333,04
717	328,92
717,5	326,8
717,9	324,64
718,3	320,8
718,8	319,04
719,2	310,8
719,7	305,36
720,1	298,76
720,5	302,12
721	293,48
721,4	294,68
721,8	293,2
722,3	290,32
722,7	283,52
723,2	284,76
723,6	279,44
724	273,16
724,5	270,6
724,9	262,92
725,3	264,8
725,8	262,84
726,2	264,92
726,7	261,48
727,1	262,44
727,5	256,24
728	259,64
728,4	255,52
728,8	250,96
729,3	255,04
729,7	257,24
730,1	251,48
730,6	250,68
731	251,88
731,5	245,48
731,9	238,8
732,3	237,36
732,8	231,2
733,2	225,36
733,6	224,84
734,1	225,6
734,5	217,56
734,9	222,28
735,4	226,84
735,8	223,24
736,3	222,92
736,7	230,04
737,1	225,88
737,6	224,48
738	228,32
738,4	225,36
738,9	218,04
739,3	215,28
739,7	204,64
740,2	204,04
740,6	199,68
741,1	201,52
741,5	201,92
741,9	202,48
742,4	191,76
742,8	195,16
743,2	194,68
743,7	191,76
744,1	190,24
744,5	197,96
745	190,84
745,4	187,68
745,8	182,36
746,3	179,52
746,7	174,88
747,2	176,92
747,6	177,2
748	181,92
748,5	184,16
748,9	178,84
749,3	170,72
749,8	165,84
750,2	168,2
750,6	169,64
751,1	170,72
751,5	177,72
751,9	178,12
752,4	175,48
752,8	176,56
753,3	176,92
753,7	171,28
754,1	172,04
754,6	168,52
755	163,08
755,4	163,84
755,9	163,08
756,3	161,4
756,7	156,44
757,2	157,24
757,6	151,28
758	153,2
758,5	155,36
758,9	160,44
759,3	154
759,8	155,92
760,2	155,16
760,6	150,4
761,1	144,68
761,5	142,2
761,9	139,8
762,4	134,48
762,8	135,72
763,3	136,24
763,7	140,2
764,1	137,4
764,6	139,8
765	134,64
765,4	133,12
765,9	126,36
766,3	122,92
766,7	122,84
767,2	123,16
767,6	124,88
768	133,32
768,5	131,96
768,9	130,64
769,3	128,84
769,8	128,52
770,2	124
770,6	132,6
771,1	130,2
771,5	130,4
771,9	127,16
772,4	126,2
772,8	121,44
773,2	120,36
773,7	125,76
774,1	121,28
774,5	120,24
775	115,88
775,4	112,8
775,8	106,84
776,3	109,84
776,7	105,92
777,1	104,72
777,6	107,64
778	110,04
778,4	109,72
778,9	117,44
779,3	119,16
779,7	118,84
780,2	110,68
780,6	105,2
781	96,8
781,5	97,08
781,9	93,24
782,3	94,44
782,8	92,2
783,2	90,08
783,6	87,56
784,1	87,76
784,5	85,76
784,9	89,8
785,4	90,84
785,8	85,64
786,2	84,08
786,7	86,36
787,1	83,36
787,5	81,16
788	81,32
788,4	78,76
788,8	78,96
789,3	69,84
789,7	69,72
790,1	68,84
790,6	64,6
791	56,36
791,4	67,68
791,9	68,76
792,3	66,32
792,7	67,24
793,2	70,16
793,6	69,28
794	68,2
794,5	74,52
794,9	78,48
795,3	81,68
795,8	79,92
796,2	77,68
796,6	77
797,1	75,56
797,5	69,28
797,9	68,16
798,4	69,44
798,8	73,52
799,2	73,76
799,7	74,36
800,1	68,6
800,5	69,52
801	64,92
801,4	62,8
801,8	67,32
802,2	75
802,7	79,32
803,1	79
803,5	75,36
804	72,16
804,4	69,76
804,8	61,44
805,3	56,4
805,7	56,44
806,1	50,92
806,6	47,72
807	46,8
807,4	46,92
807,9	48,48
808,3	46,92
808,7	45,28
809,2	45,28
809,6	43,8
810	42,8
810,4	41,92
810,9	43,76
811,3	41,04
811,7	40,8
812,2	40,96
812,6	44,88
813	41,44
813,5	45,76
813,9	43,64
814,3	43,2
814,8	43,36
815,2	45
815,6	42,8
816,1	40,28
816,5	43,64
816,9	40,04
817,3	39,56
817,8	39,32
818,2	41,72
818,6	40,48
819,1	40,12
819,5	37,76
819,9	31,6
820,4	32,4
820,8	33
821,2	33,28
821,7	31,72
822,1	32,4
822,5	32,44
822,9	31,92
823,4	34,56
823,8	36,36
824,2	39,36
824,7	39,56
825,1	35,6
825,5	31,28
826	31,72
826,4	33,32
826,8	35,84
827,3	36,12
827,7	37,04
828,1	34,16
828,5	34,08
829	29,16
829,4	24,96
829,8	23,08
830,3	27,84
830,7	28,56
831,1	27,52
831,6	32
832	38,88
832,4	40,08
832,8	43,2
833,3	43,96
833,7	45,68
834,1	36,64
834,6	32,12
835	27,12
835,4	25,6
835,8	16,84
836,3	19,72
836,7	21,6
837,1	16,08
837,6	17,68
838	24,32
838,4	23,56
838,9	24,8
839,3	28,68
839,7	31,96
840,1	31,6
840,6	31,24
841	24,16
841,4	19,32
841,9	11,92
842,3	9,36
842,7	8,92
843,1	12,36
843,6	12,08
844	19,12
844,4	22,44
844,9	26,16
845,3	25,4
845,7	31,76
846,2	29,76
846,6	23,24
847	18,68
847,4	17,8
847,9	18
848,3	17,16
848,7	21,2
849,2	23,04
849,6	22,32
850	17,88
850,4	13,72
850,9	9,16
851,3	9,32
851,7	7,32
852,2	8,28
852,6	9,28
853	13,12
853,4	12,16
853,9	18,12
854,3	17,24
854,7	16,24
855,2	16
855,6	11,48
856	9,96
856,4	11,8
856,9	12,4
857,3	9,84
857,7	14,92
858,2	13,08
858,6	17
859	15,24
859,4	12,8
859,9	9,32
860,3	8,96
860,7	2,64
861,1	0,24
861,6	2,12
862	5,88
862,4	1,96
862,9	3,12
863,3	3,8
863,7	5,84
864,1	7,24
864,6	13,08
865	10,6
865,4	11,92
865,9	8,12
866,3	4,68
866,7	6,08
867,1	14,76
867,6	16,48
868	17,44
868,4	14,12
868,8	10,44
869,3	8,28
869,7	8,56
870,1	7,76
870,6	11,88
871	13,04
871,4	-42,88
871,8	-38,64
872,3	-40,12
872,7	-47,48
873,1	-47,72
873,5	1,8
874	-4,88
874,4	-0,88
874,8	6
875,3	7,44
875,7	10,2
876,1	13,6
876,5	10,92
877	6,2
877,4	2,4
877,8	3,12
878,2	0,64
878,7	3,96
879,1	5,56
879,5	8,68
879,9	4,36
880,4	4,52
880,8	7,6
881,2	6,12
881,7	2,52
882,1	0,04
882,5	-2,2
882,9	-2,48
883,4	-0,04
883,8	-1,72
884,2	2,8
884,6	3,04
885,1	-2,56
885,5	-9,32
885,9	-10,6
886,3	-9,36
886,8	-6,96
887,2	-7,76
887,6	-0,16
888	4,4
888,5	6,84
888,9	5,92
889,3	4,6
889,8	1,8
890,2	-2,32
890,6	-8,08
891	-6,6
891,5	-3,4
891,9	-4,36
892,3	-6,44
892,7	-2
893,2	-4,8
893,6	-9,4
894	-4,64
894,4	-7,32
894,9	-11,4
895,3	-8,52
895,7	-4,36
896,1	-3,32
896,6	4,92
897	10,76
897,4	6,44
897,8	6,8
898,3	7,88
898,7	1,68
899,1	-1,84
899,5	-4,12
900	-3,8
900,4	-10,04
900,8	-10,68
901,2	-18,28
901,7	-10,12
902,1	-7,48
902,5	-7,28
902,9	-4,68
903,4	-1,8
903,8	-8,2
904,2	-15,84
904,6	-12,04
905,1	-8,96
905,5	-8,68
905,9	-8,04
906,3	-3,52
906,8	-11,36
907,2	-9
907,6	-4,68
908	-1,36
908,5	-7,52
908,9	-5,88
909,3	-13,8
909,7	-15,84
910,2	-14,32
910,6	-5,6
911	-3,88
911,4	-0,56
911,9	-2,72
912,3	-5,52
912,7	-8,32
913,1	-9,88
913,6	-8,4
914	-12,36
914,4	-12,84
914,8	-16,12
915,3	-12,8
915,7	-11,24
916,1	-4,96
916,5	-3,2
916,9	-0,88
917,4	-2,72
917,8	-4,96
918,2	-6,32
918,6	-12,28
919,1	-9,72
919,5	-5,16
919,9	-3,32
920,3	-4,76
920,8	1,52
921,2	-1,2
921,6	-4,36
922	-10,48
922,5	-8,68
922,9	-15,48
923,3	-16,32
923,7	-18,32
924,2	-20,2
924,6	-24,84
925	-18,76
925,4	-18,12
925,8	-17,24
926,3	-16,28
926,7	-13,12
927,1	-12,2
927,5	-12,48
928	-15,68
928,4	-11,2
928,8	-13,96
929,2	-17,44
929,7	-19,04
930,1	-16,56
930,5	-14,48
930,9	-14,28
931,3	-12,84
931,8	-8,08
932,2	-8,76
932,6	-10,96
933	-8,56
933,5	-7,24
933,9	-12,72
934,3	-8,28
934,7	-6,2
935,2	-4,4
935,6	-11,52
936	-11,32
936,4	-15,24
936,8	-19,68
937,3	-18
937,7	-16,96
938,1	-15,72
938,5	-16,12
939	-15,08
939,4	-19,72
939,8	-15,68
940,2	-18,8
940,6	-16,8
941,1	-13,44
941,5	-6,24
941,9	-9,12
942,3	-7,88
942,8	-8
943,2	-5,8
943,6	-8,52
944	-7,72
944,4	-9,44
944,9	-6,56
945,3	-11,32
945,7	-10,32
946,1	-8,2
946,6	-6,32
947	-10,76
947,4	-11,92
947,8	-15,36
948,2	-14,8
948,7	-7,36
949,1	-6
949,5	-5,52
949,9	-2,04
950,3	1,24
950,8	-6,92
951,2	-7,52
951,6	-6,92
952	-11,92
952,5	-19,76
952,9	-17,36
953,3	-18,32
953,7	-16,08
954,1	-15,84
954,6	-13,08
955	-13,08
955,4	-11,68
955,8	-11,32
956,2	-11,64
956,7	-13,64
957,1	-10,8
957,5	-8,08
957,9	-7,8
958,3	-8,76
958,8	-2,28
959,2	-1,72
959,6	-5,6
960	-3,16
960,5	-1,32
960,9	-4,52
961,3	-5,08
961,7	-2,48
962,1	-4,4
962,6	0,24
963	-0,4
963,4	-2,72
963,8	-4,92
964,2	-7,32
964,7	-7,48
965,1	-7,4
965,5	-11,12
965,9	-7,68
966,3	-6,96
966,8	-11,52
967,2	-16,8
967,6	-15,08
968	-14,88
968,4	-19,92
968,9	-22,68
969,3	-17,2
969,7	-16,96
970,1	-25,64
970,5	-21,6
971	-18,08
971,4	-17,4
971,8	-19,12
972,2	-13,68
972,6	-16,28
973,1	-15,52
973,5	-14,32
973,9	-10,52
974,3	-13,72
974,7	-12
975,2	-9,08
975,6	-14,88
976	-16,28
976,4	-10,56
976,8	-9,68
977,3	-13,56
977,7	-9,12
978,1	-13,6
978,5	-16,8
978,9	-18
979,4	-16,68
979,8	-16,96
980,2	-8,76
980,6	-6,96
981	-8,44
981,5	-11,76
981,9	-9,96
982,3	-14,56
982,7	-17,48
983,1	-18,36
983,6	-16,88
984	-19,68
984,4	-24,8
984,8	-22,48
985,2	-15,16
985,6	-17,08
986,1	-13,24
986,5	-6,44
986,9	-7,96
987,3	-11,32
987,7	-6,04
988,2	-8,64
988,6	-11,04
989	-4,76
989,4	-5,16
989,8	-8,92
990,3	-12,56
990,7	-11,28
991,1	-13,04
991,5	-13,04
991,9	-12,12
992,3	-12
992,8	-14,16
993,2	-18,72
993,6	-16,4
994	-19,28
994,4	-12,04
994,9	-13
995,3	-17,84
995,7	-21,2
996,1	-16,52
996,5	-19,4
996,9	-20,08
997,4	-14,76
997,8	-13,36
998,2	-14,84
998,6	-17,44
999	-19,56
999,5	-20,4
999,9	-20,16
1000,3	-24,6
1000,7	-19,52
1001,1	-14,96
1001,5	-10,12
1002	-10,48
1002,4	-9
1002,8	-13,44
1003,2	-12,36
1003,6	-14,8
1004	-16,76
1004,5	-11,92
1004,9	-8,52
1005,3	-8,32
1005,7	-3,56
1006,1	1,68
1006,6	-0,08
1007	0,04
1007,4	-1,08
1007,8	-2,72
1008,2	-4,08
1008,6	-2,88
1009,1	-4,8
1009,5	-4,08
1009,9	-11,88
1010,3	-17,52
1010,7	-21,68
1011,1	-20,16
1011,6	-19,28
1012	-17,56
1012,4	-11,6
1012,8	-7,6
1013,2	-8,72
1013,6	-10,48
1014,1	-7,96
1014,5	-9,92
1014,9	-14,8
1015,3	-21,4
1015,7	-21,24
1016,1	-21,28
1016,6	-25,88
1017	-24,44
1017,4	-19,24
1017,8	-22,44
1018,2	-29,88
1018,6	-21,76
1019,1	-25,16
1019,5	-28,64
1019,9	-26,28
1020,3	-21,28
1020,7	-26,08
1021,1	-19,24
1021,6	-13,92
1022	-10,56
1022,4	-8,92
1022,8	-4,52
1023,2	-3,56
1023,6	-8
1024,1	-11,76
1024,5	-11,2
1024,9	-10,76
1025,3	-13,68
1025,7	-11,8
1026,1	-8,88
1026,6	-10,72
1027	-13,92
1027,4	-9,48
1027,8	-10,72
1028,2	-11,4
1028,6	-8,68
1029	-11,56
1029,5	-18,56
1029,9	-13,32
1030,3	-11,2
1030,7	-14,2
1031,1	-17,32
1031,5	-15,08
1032	-19,6
1032,4	-22,36
1032,8	-18,88
1033,2	-18,32
1033,6	-17,8
1034	-16,76
1034,4	-18,12
1034,9	-18,88
1035,3	-18,96
1035,7	-16,4
1036,1	-21,6
1036,5	-19,2
1036,9	-22,16
1037,4	-25,64
1037,8	-32,64
1038,2	-28,2
1038,6	-27,4
1039	-29,16
1039,4	-23,96
1039,8	-21,16
1040,3	-17,08
1040,7	-18,56
1041,1	-15,8
1041,5	-12,68
1041,9	-10,44
1042,3	-17,64
1042,7	-17,2
1043,2	-19,72
1043,6	-20,12
1044	-16,28
1044,4	-16,92
1044,8	-20,2
1045,2	-13,96
1045,6	-16,8
1046,1	-20,32
1046,5	-15,48
1046,9	-12,96
1047,3	-21,52
1047,7	-23,72
1048,1	-23,2
1048,5	-26,24
1049	-28,08
1049,4	-23,44
1049,8	-20,88
1050,2	-20,04
1050,6	-8,68
1051	-9,88
1051,4	-8,96
1051,9	-11,16
1052,3	-12,6
1052,7	-23,88
1053,1	-24,04
1053,5	-25,04
1053,9	-19,84
1054,3	-23,2
1054,8	-28,68
1055,2	-30,52
1055,6	-31,76
1056	-36
1056,4	-35,16
1056,8	-27,6
1057,2	-24,2
1057,6	-24,56
1058,1	-19,52
1058,5	-22,64
1058,9	-21,36
1059,3	-20,04
1059,7	-17,32
1060,1	-16,2
1060,5	-9,6
1061	-13,32
1061,4	-12,12
1061,8	-15,76
1062,2	-22,84
1062,6	-24,84
1063	-19,08
1063,4	-19,72
1063,8	-18,28
1064,3	-13,84
1064,7	-17,76
1065,1	-24,96
1065,5	-21,92
1065,9	-22
1066,3	-23,16
1066,7	-18,92
1067,1	-9,8
1067,6	-15,12
1068	-13,12
1068,4	-15,48
1068,8	-12,52
1069,2	-17,84
1069,6	-18,64
1070	-17,28
1070,4	-12,96
1070,9	-7,88
1071,3	-15,28
1071,7	-15,84
1072,1	-19,16
1072,5	-17,04
1072,9	-28,44
1073,3	-17,52
1073,7	-7,72
1074,2	-6,8
1074,6	-11,68
1075	-13,4
1075,4	-17,12
1075,8	-19,88
1076,2	-15,4
1076,6	-9,2
1077	-6,96
1077,5	-11,84
1077,9	-12,76
1078,3	-19,96
1078,7	-27,6
1079,1	-24,72
1079,5	-13,16
1079,9	-16,08
1080,3	-6,32
1080,7	-1,2
1081,2	-0,76
1081,6	-5,4
1082	0,72
1082,4	-6,68
1082,8	-5,96
1083,2	-9,44
1083,6	-14,52
1084	-20,16
1084,5	-26,48
1084,9	-28,96
1085,3	-27,28
1085,7	-22,4
1086,1	-25,4
1086,5	-16,12
1086,9	-18,2
1087,3	-14,2
1087,7	-12,72
1088,2	-8,2
1088,6	-1,88
1089	-4,2
1089,4	-6,6
1089,8	-5,28
1090,2	-6,28
1090,6	-13,92
1091	-10,28
1091,4	-12,12
1091,9	-19,68
1092,3	-18,92
1092,7	-17,12
1093,1	-14,8
1093,5	-12,28
1093,9	-5,24
1094,3	-6,08
1094,7	-4,84
1095,1	-12,32
1095,5	-14,24
1096	-16,08
1096,4	-12,16
1096,8	-12,96
1097,2	-7,92
1097,6	-10,2
1098	-14,56
1098,4	-19
1098,8	-20,68
1099,2	-19,96
1099,6	-14,04
1100,1	-8,84
1100,5	-7,4
1100,9	-4,8
1101,3	-4,12
1101,7	-5,4
1102,1	-8
1102,5	-8,84
1102,9	-6,24
1103,3	-5,72
1103,7	-5,28
1104,2	-3,48
1104,6	-3,4
1105	-7,44
1105,4	-7,8
1105,8	-9,2
1106,2	-7,92
1106,6	-4,88
1107	-3,36
1107,4	-2,08
1107,8	0,05
1108,3	-0,333
