Data from Subt2_00085.txt Node
Date: Fri Aug 11 16:45:42 MSK 2023
User: vat
Spectrometer: MAYP114033
Trigger mode: 0
Integration Time (sec): 5,000000E-1
Scans to average: 5
Electric dark correction enabled: true
Nonlinearity correction enabled: false
Boxcar width: 2
XAxis mode: Wavelengths
Number of Pixels in Spectrum: 2068
>>>>>Begin Spectral Data<<<<<
199,4	-0,033
199,9	0,3
200,4	-2,42
200,8	-2,5
201,3	-4,18
201,8	-5,74
202,2	-12,42
202,7	-11,5
203,2	-12,46
203,6	-13,02
204,1	-13,58
204,6	-9,34
205	-10,62
205,5	-10,06
206	-10,5
206,4	-14,18
206,9	-12,66
207,4	-15,74
207,8	-14,42
208,3	-12,46
208,8	-6,46
209,2	-4,58
209,7	0,78
210,2	0,74
210,6	-1,62
211,1	-1,1
211,5	-5,34
212	-7,02
212,5	-12,42
212,9	-14,7
213,4	-15,74
213,9	-19,14
214,3	-19,22
214,8	-18,74
215,3	-15,82
215,7	-21,78
216,2	-14,18
216,7	-19,26
217,1	-19,7
217,6	-21,86
218,1	-14,46
218,5	-17,22
219	-13,06
219,5	-9,54
219,9	-10,66
220,4	-11,58
220,9	-13,06
221,3	-8,02
221,8	-13,14
222,3	-11,86
222,7	-14,66
223,2	-13,38
223,6	-13,14
224,1	-7,62
224,6	-2,42
225	-3,5
225,5	-5,78
226	-5,94
226,4	-14,62
226,9	-19,58
227,4	-20,58
227,8	-21,74
228,3	-29,66
228,8	-20,26
229,2	-20,5
229,7	-19,26
230,2	-15,06
230,6	-11,06
231,1	-15,98
231,5	-11,54
232	-10,02
232,5	-8,3
232,9	-8,66
233,4	-6,42
233,9	-8,74
234,3	-7,02
234,8	-7,1
235,3	-9,22
235,7	-11,78
236,2	-13,38
236,7	-14,66
237,1	-18,22
237,6	-13,34
238,1	-5,3
238,5	-9,02
239	-15,38
239,4	-17,46
239,9	-19,82
240,4	-20,9
240,8	-11,86
241,3	-5,86
241,8	-9,78
242,2	-13,98
242,7	-19,7
243,2	-25,98
243,6	-25,18
244,1	-23,42
244,6	-21,66
245	-23,22
245,5	-22,54
245,9	-21,5
246,4	-15,78
246,9	-12,78
247,3	-11,02
247,8	-15,9
248,3	-20,3
248,7	-19,54
249,2	-22,06
249,7	-22,46
250,1	-17,54
250,6	-21,46
251	-23,86
251,5	-23,1
252	-21,5
252,4	-15,06
252,9	-10,62
253,4	-13,18
253,8	-8,78
254,3	-7,7
254,8	-9,9
255,2	-7,58
255,7	-2,9
256,1	-10,78
256,6	-10,66
257,1	-9,66
257,5	-10,34
258	-11,98
258,5	-6,5
258,9	-11,34
259,4	-18,74
259,9	-18,14
260,3	-21,38
260,8	-22,14
261,2	-16,86
261,7	-17,46
262,2	-21,86
262,6	-18,82
263,1	-22,58
263,6	-20,3
264	-16,14
264,5	-17,54
264,9	-18,1
265,4	-12,34
265,9	-16,02
266,3	-15,66
266,8	-9,18
267,3	-7,06
267,7	-7,74
268,2	-7,3
268,7	-4,26
269,1	-4,34
269,6	-6,26
270	-9,86
270,5	-8,94
271	-14,58
271,4	-18,58
271,9	-17,18
272,4	-18,94
272,8	-23,38
273,3	-22,5
273,7	-19,7
274,2	-20,66
274,7	-13,58
275,1	-11,38
275,6	-13,26
276,1	-16,18
276,5	-17,82
277	-24,14
277,4	-24,98
277,9	-16,26
278,4	-15,06
278,8	-11,54
279,3	-5,1
279,8	-1,9
280,2	-2,34
280,7	2,14
281,1	-1,02
281,6	-7,42
282,1	-6,38
282,5	-12,02
283	-10,74
283,4	-12,22
283,9	-9,58
284,4	-10,54
284,8	-13,18
285,3	-15,38
285,8	-13,34
286,2	-16,38
286,7	-20,38
287,1	-18,34
287,6	-20,5
288,1	-17,02
288,5	-14,1
289	-15,02
289,5	-18,62
289,9	-17,22
290,4	-17,98
290,8	-17,02
291,3	-14,54
291,8	-2,58
292,2	-4,06
292,7	-8,06
293,1	-10,14
293,6	-8,34
294,1	-20,34
294,5	-20,26
295	-12,74
295,5	-8,58
295,9	-15,46
296,4	-10,14
296,8	-11,86
297,3	-16,7
297,8	-17,42
298,2	-13,5
298,7	-15,02
299,1	-15,86
299,6	-13,86
300,1	-20,7
300,5	-19,06
301	-20,82
301,5	-16,82
301,9	-24,02
302,4	-19,9
302,8	-21,66
303,3	-18,74
303,8	-25,1
304,2	-21,82
304,7	-16,54
305,1	-17,62
305,6	-17,9
306,1	-17,02
306,5	-16,06
307	-18,02
307,4	-15,42
307,9	-19,06
308,4	-13,22
308,8	-14,66
309,3	-15,98
309,8	-13,9
310,2	-12,82
310,7	-12,94
311,1	-18,38
311,6	-20,22
312,1	-20,02
312,5	-15,34
313	-19,1
313,4	-15,14
313,9	-11,86
314,4	-17,42
314,8	-20,74
315,3	-19,46
315,7	-18,82
316,2	-18,66
316,7	-17,26
317,1	-21,7
317,6	-23,3
318	-15,1
318,5	-17,98
319	-23,14
319,4	-10,54
319,9	-13,06
320,3	-20,3
320,8	-21,66
321,3	-12,22
321,7	-16,42
322,2	-10,02
322,6	-9,62
323,1	-8,9
323,6	-10,94
324	-7,98
324,5	-14,74
324,9	-15,02
325,4	-17,94
325,9	-18,46
326,3	-18,82
326,8	-13,78
327,2	-12,58
327,7	-12,42
328,2	-13,22
328,6	-17,9
329,1	-17,46
329,5	-14,38
330	-9,78
330,5	-1,54
330,9	-6,74
331,4	-11,98
331,8	-16,26
332,3	-20,74
332,8	-26,94
333,2	-20,02
333,7	-16,06
334,1	-10,14
334,6	-8,74
335,1	-10,9
335,5	-15,22
336	-17,42
336,4	-26,18
336,9	-25,58
337,4	-26,02
337,8	-23,54
338,3	-18,1
338,7	-15,98
339,2	-17,34
339,7	-13,78
340,1	-14,1
340,6	-12,74
341	-4,34
341,5	1,1
342	-0,46
342,4	1,74
342,9	-0,7
343,3	-9,02
343,8	-14,06
344,2	-13,66
344,7	-16,14
345,2	-16,38
345,6	-14,78
346,1	-13,82
346,5	-10,54
347	-8,42
347,5	-7,22
347,9	-4,34
348,4	2,02
348,8	0,18
349,3	2,42
349,8	-1,66
350,2	-2,78
350,7	-8,1
351,1	-4,58
351,6	-5,34
352	-1,66
352,5	-3,5
353	2,82
353,4	1,66
353,9	3,14
354,3	9,34
354,8	17,22
355,3	19,06
355,7	25,02
356,2	30,18
356,6	33,94
357,1	41,94
357,5	49,74
358	60,7
358,5	78,02
358,9	90,42
359,4	108,94
359,8	132,26
360,3	152,66
360,8	171,66
361,2	204,9
361,7	238,06
362,1	269,42
362,6	311,22
363	359,06
363,5	407,62
364	455,06
364,4	502,62
364,9	549,66
365,3	594,9
365,8	629,78
366,3	665,98
366,7	706,66
367,2	739,78
367,6	766,5
368,1	791,38
368,5	804,98
369	809,42
369,5	810,74
369,9	804,82
370,4	787,06
370,8	771,66
371,3	749,42
371,7	718,06
372,2	681,86
372,7	651,22
373,1	616,66
373,6	578,06
374	545,26
374,5	510,58
374,9	476,42
375,4	440,94
375,9	412,42
376,3	381,9
376,8	354,82
377,2	325,26
377,7	296,38
378,2	268,78
378,6	239,7
379,1	214,98
379,5	199,06
380	187,86
380,4	167,5
380,9	158,74
381,4	144,54
381,8	129,02
382,3	111,7
382,7	103,62
383,2	89,3
383,6	81,06
384,1	71,34
384,6	65,22
385	59,1
385,5	49,54
385,9	44,54
386,4	45,9
386,8	43,02
387,3	36,34
387,7	36,7
388,2	36,18
388,7	32,94
389,1	24,78
389,6	27,46
390	28,06
390,5	20,1
390,9	11,86
391,4	12,38
391,9	9,3
392,3	2,62
392,8	8,54
393,2	10,06
393,7	14,98
394,1	14,7
394,6	16,54
395,1	5,78
395,5	7,18
396	2,9
396,4	3,34
396,9	0,18
397,3	7,58
397,8	3,06
398,2	0,1
398,7	-2,3
399,2	-0,66
399,6	-0,66
400,1	2,02
400,5	3,54
401	6,42
401,4	1,82
401,9	-1,14
402,4	0,26
402,8	-1,26
403,3	-2,06
403,7	0,74
404,2	3,02
404,6	2,78
405,1	5,46
405,5	4,82
406	6,54
406,5	2,86
406,9	1,02
407,4	2,62
407,8	1,98
408,3	1,9
408,7	6,54
409,2	5,62
409,6	5,06
410,1	2,94
410,6	5,94
411	3,22
411,5	1,78
411,9	0,5
412,4	6,5
412,8	10,9
413,3	17,98
413,7	21,62
414,2	27,06
414,7	25,5
415,1	24,98
415,6	21,5
416	20,5
416,5	21,34
416,9	24,58
417,4	24,82
417,8	34,14
418,3	40,3
418,8	39,98
419,2	39,06
419,7	36,74
420,1	31,86
420,6	32,06
421	30,74
421,5	33,74
421,9	32,74
422,4	34,34
422,8	35,98
423,3	38,22
423,8	36,94
424,2	42,94
424,7	43,02
425,1	37,74
425,6	39,54
426	43,1
426,5	43,78
426,9	46,22
427,4	60,46
427,9	59,06
428,3	59,94
428,8	62,66
429,2	62,14
429,7	60,42
430,1	65,18
430,6	72,78
431	76,74
431,5	83,54
431,9	89,38
432,4	94,18
432,8	96,5
433,3	100,86
433,8	106,9
434,2	102,58
434,7	106,98
435,1	110,54
435,6	111,46
436	112,02
436,5	125,7
436,9	132,62
437,4	140,22
437,8	144,18
438,3	151,86
438,8	150,22
439,2	155,54
439,7	159,9
440,1	172,7
440,6	181,98
441	191,98
441,5	198,3
441,9	202,3
442,4	209,62
442,8	216,74
443,3	233,98
443,7	247,34
444,2	268,3
444,7	284,78
445,1	296,18
445,6	308,46
446	322,5
446,5	324,38
446,9	335,82
447,4	351,98
447,8	356,58
448,3	368,54
448,7	391,78
449,2	400,02
449,6	418,14
450,1	437,66
450,6	450,34
451	461,46
451,5	476,86
451,9	487,9
452,4	510,5
452,8	529,62
453,3	550,3
453,7	573,54
454,2	589,9
454,6	607,06
455,1	627,82
455,5	650,1
456	674,38
456,4	698,94
456,9	715,14
457,3	734,66
457,8	749,66
458,3	765,42
458,7	786,14
459,2	812,74
459,6	834,22
460,1	862,1
460,5	892,86
461	914,86
461,4	935,46
461,9	962,62
462,3	983,1
462,8	1002,26
463,2	1030,74
463,7	1055,18
464,1	1075,62
464,6	1099,34
465	1127,58
465,5	1140,54
466	1155,86
466,4	1178,46
466,9	1202,78
467,3	1221,98
467,8	1254,06
468,2	1288,98
468,7	1316,06
469,1	1337,78
469,6	1362,18
470	1386,82
470,5	1406,02
470,9	1430,1
471,4	1453,98
471,8	1471,82
472,3	1496,1
472,7	1523,3
473,2	1548,5
473,6	1580,06
474,1	1604,82
474,5	1626,38
475	1653,74
475,4	1680,06
475,9	1696,62
476,4	1723,78
476,8	1744,98
477,3	1758,18
477,7	1776,66
478,2	1804,74
478,6	1829,3
479,1	1849,98
479,5	1871,82
480	1889,02
480,4	1901,22
480,9	1921,02
481,3	1939,26
481,8	1960,38
482,2	1983,3
482,7	2001,78
483,1	2021,98
483,6	2038,26
484	2045,7
484,5	2055,06
484,9	2071,54
485,4	2082,3
485,8	2100,26
486,3	2119,38
486,7	2129,54
487,2	2152,5
487,6	2155,46
488,1	2159,14
488,5	2160,02
489	2173,98
489,4	2174,02
489,9	2184,26
490,4	2201,14
490,8	2217,54
491,3	2223,26
491,7	2231,1
492,2	2235,82
492,6	2240,66
493,1	2251,7
493,5	2252,54
494	2250,06
494,4	2253,5
494,9	2255,1
495,3	2256,14
495,8	2262,78
496,2	2272,06
496,7	2276,82
497,1	2279,46
497,6	2272,82
498	2270,86
498,5	2267,46
498,9	2267,42
499,4	2258,42
499,8	2264,78
500,3	2267,82
500,7	2265,82
501,2	2265,66
501,6	2276,86
502,1	2284,86
502,5	2283,18
503	2281,62
503,4	2279,14
503,9	2276,3
504,3	2262,02
504,8	2262,98
505,2	2255,62
505,7	2255,02
506,1	2247,26
506,6	2245,18
507	2231,26
507,5	2229,5
507,9	2222,58
508,4	2219,38
508,8	2211,74
509,3	2216,42
509,7	2212,42
510,2	2210,3
510,6	2211,86
511,1	2216,38
511,5	2207,38
512	2205,3
512,4	2194,26
512,9	2187,82
513,3	2174,98
513,8	2174,14
514,2	2166,22
514,7	2160,7
515,1	2148,94
515,6	2144,34
516	2134,38
516,5	2126,22
516,9	2123,34
517,4	2114,26
517,8	2114,06
518,3	2110,22
518,7	2112,82
519,2	2103,78
519,6	2099,46
520,1	2089,62
520,5	2086,14
521	2076,98
521,4	2078,26
521,9	2072,14
522,3	2065,86
522,8	2059,98
523,2	2055,18
523,7	2049,02
524,1	2046,34
524,6	2039,94
525	2031,98
525,5	2027,86
525,9	2024,62
526,4	2010,38
526,8	1995,38
527,3	1991,3
527,7	1984,62
528,2	1978,46
528,6	1988,1
529,1	1995,74
529,5	1994,46
530	1994,62
530,4	1984,02
530,9	1974,46
531,3	1965,42
531,8	1954,7
532,2	1941,86
532,6	1942,54
533,1	1934,74
533,5	1931,26
534	1927,3
534,4	1921,78
534,9	1915,78
535,3	1922,02
535,8	1920,66
536,2	1919,94
536,7	1918,82
537,1	1921,02
537,6	1909,82
538	1911,1
538,5	1906,66
538,9	1908,18
539,4	1901,62
539,8	1900,54
540,3	1891,34
540,7	1889,66
541,2	1884,66
541,6	1877,62
542,1	1872,06
542,5	1875,3
543	1875,38
543,4	1871,06
543,9	1873,74
544,3	1877,94
544,8	1871,14
545,2	1872,02
545,7	1878,18
546,1	1882,18
546,5	1880,5
547	1877,18
547,4	1871,34
547,9	1861,82
548,3	1856,18
548,8	1847,74
549,2	1846,18
549,7	1842,42
550,1	1841,26
550,6	1836,34
551	1837,06
551,5	1834,98
551,9	1827,66
552,4	1824,82
552,8	1824,46
553,3	1817,18
553,7	1820,46
554,2	1822,98
554,6	1826,62
555,1	1827,9
555,5	1841,42
555,9	1839,22
556,4	1834,5
556,8	1827,3
557,3	1823,5
557,7	1816,86
558,2	1809,78
558,6	1814,18
559,1	1817,86
559,5	1807,14
560	1802,66
560,4	1803,66
560,9	1800,78
561,3	1791,5
561,8	1802,82
562,2	1802,26
562,7	1804,46
563,1	1808,58
563,6	1808,82
564	1806,62
564,4	1805,46
564,9	1801,62
565,3	1791,5
565,8	1790,3
566,2	1787,5
566,7	1787,94
567,1	1782,98
567,6	1791,46
568	1792,14
568,5	1790,98
568,9	1782,54
569,4	1782,9
569,8	1773,22
570,3	1773,1
570,7	1770,78
571,1	1764,42
571,6	1761,02
572	1764,5
572,5	1756,54
572,9	1751,62
573,4	1756,9
573,8	1753,9
574,3	1743,94
574,7	1745,5
575,2	1747,62
575,6	1744,9
576,1	1749,78
576,5	1749,18
576,9	1746,46
577,4	1736,18
577,8	1730,94
578,3	1724,82
578,7	1725,7
579,2	1726,74
579,6	1723,1
580,1	1724,18
580,5	1718,38
581	1715,74
581,4	1709,94
581,9	1711,54
582,3	1710,54
582,7	1712,5
583,2	1709,26
583,6	1698,62
584,1	1692,1
584,5	1683,38
585	1673,62
585,4	1663,18
585,9	1667,7
586,3	1670,22
586,8	1662,18
587,2	1659,82
587,6	1661,46
588,1	1651,1
588,5	1635,34
589	1635,1
589,4	1628,7
589,9	1619,38
590,3	1617,5
590,8	1624,9
591,2	1618,66
591,7	1619,78
592,1	1616,22
592,5	1614,74
593	1609,14
593,4	1609,54
593,9	1603,38
594,3	1604,06
594,8	1599,58
595,2	1590,22
595,7	1588,82
596,1	1580,74
596,6	1576,34
597	1574,18
597,4	1572,78
597,9	1566,34
598,3	1567,94
598,8	1559,98
599,2	1555,58
599,7	1547,1
600,1	1541,02
600,6	1536,18
601	1535,06
601,4	1527,94
601,9	1529,94
602,3	1529,86
602,8	1524,02
603,2	1524,22
603,7	1519,74
604,1	1513,34
604,6	1510,98
605	1507,82
605,4	1500,7
605,9	1504,66
606,3	1499,34
606,8	1493,7
607,2	1491,86
607,7	1492,34
608,1	1485,1
608,6	1484,1
609	1479,06
609,4	1472,66
609,9	1461,9
610,3	1454,66
610,8	1443,74
611,2	1438,66
611,7	1431,98
612,1	1429,38
612,6	1421,7
613	1418,66
613,4	1409,42
613,9	1407,86
614,3	1396,14
614,8	1391,82
615,2	1388,5
615,7	1382,74
616,1	1371,5
616,6	1364,38
617	1353,54
617,4	1347,02
617,9	1337,5
618,3	1335,26
618,8	1331,06
619,2	1333,38
619,7	1325,06
620,1	1326,46
620,5	1315,26
621	1307,26
621,4	1299,7
621,9	1291,5
622,3	1282,02
622,8	1280,94
623,2	1271,54
623,6	1264,98
624,1	1259,66
624,5	1259,74
625	1251,06
625,4	1255,54
625,9	1254,14
626,3	1248,82
626,8	1239,26
627,2	1233,46
627,6	1220,1
628,1	1211,66
628,5	1205,46
629	1200,54
629,4	1193,9
629,9	1192,54
630,3	1185,14
630,7	1178,86
631,2	1169,58
631,6	1172,58
632,1	1166,38
632,5	1159,7
633	1158,94
633,4	1156,02
633,8	1142,02
634,3	1138,1
634,7	1138,98
635,2	1137,82
635,6	1125,58
636,1	1120,58
636,5	1116,62
636,9	1107,66
637,4	1095,14
637,8	1090,82
638,3	1081,94
638,7	1073,86
639,2	1064,9
639,6	1059,86
640	1058,86
640,5	1057,54
640,9	1054,1
641,4	1051,1
641,8	1045,22
642,2	1033,66
642,7	1025,94
643,1	1025,1
643,6	1014,74
644	1011,06
644,5	1010,42
644,9	1009,26
645,3	1000,7
645,8	996,82
646,2	996,14
646,7	987,3
647,1	987,42
647,6	981,42
648	977,62
648,4	969,26
648,9	966,46
649,3	959,86
649,8	954,42
650,2	957,18
650,6	947,7
651,1	949,54
651,5	937,66
652	932,58
652,4	925,06
652,9	917,18
653,3	905,5
653,7	903,22
654,2	898,22
654,6	892,62
655,1	888,5
655,5	889,46
655,9	886,94
656,4	884,1
656,8	877,1
657,3	875,58
657,7	869,3
658,2	862,46
658,6	856,58
659	849,86
659,5	847,66
659,9	844,98
660,4	844,82
660,8	836,74
661,2	835,7
661,7	830,3
662,1	822,98
662,6	815,26
663	816,82
663,4	809,22
663,9	808,38
664,3	805,34
664,8	798,5
665,2	791,18
665,6	798,82
666,1	788,66
666,5	782,9
667	784,98
667,4	782,3
667,9	768,86
668,3	758,86
668,7	752,26
669,2	740,5
669,6	730,5
670,1	727,06
670,5	731,54
670,9	728,26
671,4	726,58
671,8	728,26
672,3	723,46
672,7	718,66
673,1	715,54
673,6	706,46
674	700,26
674,5	690,26
674,9	687,38
675,3	681,9
675,8	681,34
676,2	675,02
676,7	676,3
677,1	664,42
677,5	658,26
678	653,34
678,4	650,14
678,9	639,46
679,3	637,5
679,7	634,82
680,2	635,54
680,6	627,18
681,1	630,5
681,5	630,62
681,9	626,66
682,4	617,5
682,8	622,06
683,3	616,06
683,7	612,82
684,1	608,7
684,6	603,9
685	596,18
685,5	589,22
685,9	588,78
686,3	583,94
686,8	580,66
687,2	576,7
687,7	569,38
688,1	559,5
688,5	559,66
689	556,66
689,4	552,22
689,9	548,58
690,3	547,02
690,7	535,22
691,2	529,82
691,6	522,98
692	524,14
692,5	523,7
692,9	523,14
693,4	521,74
693,8	525,46
694,2	521,86
694,7	517,66
695,1	514,34
695,6	509,62
696	503,02
696,4	498,78
696,9	492,5
697,3	491,86
697,8	490,78
698,2	492,1
698,6	490,66
699,1	490,66
699,5	489,58
699,9	485,3
700,4	472,62
700,8	471,14
701,3	466,3
701,7	458,26
702,1	461,74
702,6	462,18
703	453,86
703,5	444,86
703,9	441,86
704,3	438,38
704,8	435,42
705,2	441,06
705,6	447,18
706,1	448,86
706,5	436,7
707	439,42
707,4	434,7
707,8	428,14
708,3	425,5
708,7	430,42
709,2	418,1
709,6	408,46
710	404,06
710,5	400,14
710,9	393,1
711,3	397,18
711,8	399,54
712,2	403,42
712,7	396,1
713,1	391,26
713,5	390,26
714	379,26
714,4	371,02
714,8	371,9
715,3	376,1
715,7	371,86
716,2	372,82
716,6	374,22
717	372,06
717,5	367,34
717,9	364,7
718,3	359,9
718,8	355,42
719,2	348,98
719,7	342,58
720,1	342,06
720,5	342,5
721	332,94
721,4	333,94
721,8	334,86
722,3	329,66
722,7	326,86
723,2	324,86
723,6	321,38
724	314,26
724,5	307,7
724,9	304,58
725,3	306,3
725,8	304,74
726,2	303,02
726,7	299,86
727,1	299,58
727,5	293,34
728	290,38
728,4	284,74
728,8	284,54
729,3	288,38
729,7	293,5
730,1	291,54
730,6	293,94
731	292,26
731,5	285,9
731,9	279,14
732,3	280,18
732,8	273,14
733,2	270,42
733,6	271,26
734,1	277,38
734,5	266,14
734,9	274,42
735,4	273,58
735,8	267,1
736,3	260,78
736,7	267,9
737,1	260,06
737,6	261,3
738	259,34
738,4	255,86
738,9	249,34
739,3	247,42
739,7	241,98
740,2	244,58
740,6	241,82
741,1	243,98
741,5	242,54
741,9	245,54
742,4	242,5
742,8	240,74
743,2	240,58
743,7	238,06
744,1	229,7
744,5	231,86
745	230,98
745,4	224,94
745,8	225,9
746,3	225,9
746,7	222,18
747,2	216,62
747,6	224,7
748	223,14
748,5	221,54
748,9	214,42
749,3	209,58
749,8	202,5
750,2	207,38
750,6	205,42
751,1	207,46
751,5	215,66
751,9	211,1
752,4	201,54
752,8	203,98
753,3	202,46
753,7	196,94
754,1	199,74
754,6	199,34
755	199,94
755,4	201,7
755,9	201,54
756,3	200,26
756,7	197,62
757,2	190,34
757,6	180,94
758	184,06
758,5	174,74
758,9	176,22
759,3	175,38
759,8	178,54
760,2	172,7
760,6	176,82
761,1	175,9
761,5	176,22
761,9	170,9
762,4	162,34
762,8	162,34
763,3	158,26
763,7	157,06
764,1	157,02
764,6	164,14
765	157,94
765,4	158,42
765,9	151,38
766,3	152,1
766,7	151,38
767,2	151,02
767,6	149,38
768	153,18
768,5	152,9
768,9	150,78
769,3	152,1
769,8	153,94
770,2	153,18
770,6	155,94
771,1	155,46
771,5	154,5
771,9	149,98
772,4	151,58
772,8	144,22
773,2	143,78
773,7	147,34
774,1	145,34
774,5	139,86
775	140,62
775,4	137,26
775,8	128,22
776,3	134,78
776,7	137,34
777,1	133,5
777,6	130,22
778	132,42
778,4	124,42
778,9	123,34
779,3	124,9
779,7	125,74
780,2	124,18
780,6	125,42
781	118,58
781,5	118,62
781,9	115,22
782,3	109,74
782,8	102,46
783,2	107,94
783,6	104,78
784,1	108,54
784,5	109,3
784,9	114,98
785,4	111,3
785,8	114,62
786,2	116,7
786,7	116,9
787,1	115,3
787,5	111,38
788	108,7
788,4	100,3
788,8	96,86
789,3	91,58
789,7	96,18
790,1	92,14
790,6	94,94
791	95,46
791,4	100,98
791,9	98,78
792,3	99,22
792,7	94,18
793,2	93,3
793,6	87,38
794	86,14
794,5	84,62
794,9	87,9
795,3	88,74
795,8	91,06
796,2	92,34
796,6	91,22
797,1	88,46
797,5	88,9
797,9	85,82
798,4	81,22
798,8	86,74
799,2	85,9
799,7	86,54
800,1	86,18
800,5	83,78
801	83,42
801,4	79,74
801,8	80,38
802,2	80,98
802,7	90,26
803,1	84,54
803,5	87,7
804	82,3
804,4	83,3
804,8	72,14
805,3	71,82
805,7	67,06
806,1	69,66
806,6	66,3
807	63,1
807,4	62,5
807,9	66,78
808,3	62,7
808,7	63,1
809,2	71,94
809,6	72,46
810	72,46
810,4	74,14
810,9	74,1
811,3	73,02
811,7	69,74
812,2	68,7
812,6	68,94
813	66,62
813,5	64,22
813,9	64,98
814,3	65,7
814,8	65,14
815,2	69,7
815,6	69,58
816,1	62,66
816,5	63,14
816,9	60,14
817,3	54,82
817,8	55,46
818,2	59,86
818,6	57,74
819,1	51,34
819,5	53,7
819,9	47,62
820,4	47,82
820,8	49,42
821,2	55,38
821,7	52,42
822,1	51,38
822,5	51,66
822,9	50,74
823,4	50,78
823,8	50,22
824,2	53,54
824,7	50,42
825,1	47,82
825,5	43,66
826	45,82
826,4	46,9
826,8	49,98
827,3	48,58
827,7	50,86
828,1	44,06
828,5	40,46
829	36,46
829,4	31,62
829,8	32,66
830,3	38,42
830,7	39,02
831,1	39,3
831,6	42,7
832	41,54
832,4	42,74
832,8	41,38
833,3	41,54
833,7	43,3
834,1	40,9
834,6	40,14
835	38,38
835,4	31,86
835,8	29,3
836,3	26,5
836,7	25,58
837,1	24,38
837,6	31,3
838	29,18
838,4	34,78
838,9	29,22
839,3	33,02
839,7	36,46
840,1	40,5
840,6	35,74
841	30,34
841,4	25,94
841,9	19,98
842,3	16,74
842,7	16,18
843,1	22,86
843,6	17,46
844	19,9
844,4	20,02
844,9	22,62
845,3	25,38
845,7	32,18
846,2	34,14
846,6	31,42
847	29,7
847,4	28,3
847,9	32,94
848,3	30,82
848,7	34,7
849,2	36,7
849,6	32,78
850	29,74
850,4	23,58
850,9	25,26
851,3	26,74
851,7	24,34
852,2	18,58
852,6	22,94
853	18,54
853,4	15,42
853,9	21,62
854,3	23,14
854,7	20,42
855,2	20,82
855,6	16,14
856	8,42
856,4	13,22
856,9	16,86
857,3	12,5
857,7	21,26
858,2	26,66
858,6	24,82
859	18,78
859,4	22,74
859,9	14,42
860,3	11,94
860,7	7,38
861,1	9,02
861,6	4,66
862	9,62
862,4	6,54
862,9	8,58
863,3	6,9
863,7	11,74
864,1	8,66
864,6	10,62
865	13,78
865,4	13,18
865,9	10,9
866,3	11,82
866,7	14,74
867,1	12,42
867,6	17,02
868	12,14
868,4	11,46
868,8	12,66
869,3	15,78
869,7	13,74
870,1	16,82
870,6	15,98
871	15,94
871,4	-29,7
871,8	-28,22
872,3	-27,22
872,7	-33,42
873,1	-36,78
873,5	-0,7
874	-0,1
874,4	1,26
874,8	5,7
875,3	6,5
875,7	13,58
876,1	9,1
876,5	6,22
877	8,14
877,4	8,66
877,8	7,78
878,2	7,22
878,7	14,54
879,1	13,46
879,5	15,14
879,9	14,22
880,4	17,06
880,8	13,18
881,2	11,82
881,7	9,74
882,1	3,3
882,5	1,7
882,9	-0,02
883,4	4,42
883,8	0,5
884,2	8,26
884,6	10,74
885,1	11,62
885,5	6,3
885,9	7,7
886,3	5,42
886,8	1,22
887,2	-3,86
887,6	-0,3
888	-0,74
888,5	-2,58
888,9	3,58
889,3	6,3
889,8	4,06
890,2	5,98
890,6	9,9
891	4,42
891,5	1,9
891,9	2,74
892,3	-5,46
892,7	-8,42
893,2	-10,1
893,6	-8,38
894	-9,82
894,4	-7,26
894,9	-4,02
895,3	-0,82
895,7	-1,26
896,1	4,46
896,6	11,22
897	11,38
897,4	6,5
897,8	7,5
898,3	1,74
898,7	-2,58
899,1	-4,86
899,5	-6,7
900	-8,7
900,4	-8,18
900,8	-13,66
901,2	-13,66
901,7	-7,1
902,1	-2,14
902,5	0,26
902,9	6,98
903,4	4,3
903,8	0,9
904,2	-7,7
904,6	-6,9
905,1	-6,14
905,5	-5,46
905,9	-2,38
906,3	0,66
906,8	-8,62
907,2	-2,14
907,6	-2,5
908	-2,14
908,5	-3,1
908,9	2,3
909,3	-8,78
909,7	-10,14
910,2	-9,82
910,6	-3,82
911	-4,5
911,4	-4,46
911,9	-4,06
912,3	-8,06
912,7	-10,98
913,1	-10,86
913,6	-12,22
914	-12,34
914,4	-11,26
914,8	-10,94
915,3	-9,14
915,7	-5,7
916,1	-3,66
916,5	-3,5
916,9	-6,1
917,4	-7,94
917,8	-5,06
918,2	-2,94
918,6	-1,74
919,1	3,14
919,5	0,78
919,9	4,02
920,3	-1,7
920,8	0,7
921,2	-1,58
921,6	0,74
922	-4,74
922,5	-1,86
922,9	-6,82
923,3	-11,14
923,7	-11,98
924,2	-13,82
924,6	-15,26
925	-8,54
925,4	-2,82
925,8	-3,58
926,3	-4,94
926,7	-4,82
927,1	-6,66
927,5	-13,18
928	-12,14
928,4	-8,02
928,8	-7,58
929,2	-11,78
929,7	-9,22
930,1	-4,82
930,5	-4,26
930,9	-5,42
931,3	-4,62
931,8	1,58
932,2	-4,62
932,6	-8,74
933	-9,26
933,5	-9,74
933,9	-17,14
934,3	-12,3
934,7	-6,42
935,2	-2,22
935,6	-8,62
936	-9,82
936,4	-12,9
936,8	-20,38
937,3	-21,02
937,7	-15,74
938,1	-10,94
938,5	-10,46
939	-7,22
939,4	-6,54
939,8	-5,98
940,2	-10,02
940,6	-5,82
941,1	-4,7
941,5	-4,1
941,9	0,58
942,3	5,1
942,8	1,38
943,2	2,42
943,6	0,3
944	-3,18
944,4	-8,58
944,9	-9,18
945,3	-16,1
945,7	-15,26
946,1	-17,1
946,6	-15,7
947	-17,26
947,4	-7,74
947,8	-10,94
948,2	-9,98
948,7	-0,42
949,1	-0,46
949,5	-8,42
949,9	-7,02
950,3	-3,58
950,8	-13,1
951,2	-11,58
951,6	-7,46
952	-6,58
952,5	-17,02
952,9	-16,86
953,3	-19,82
953,7	-20,94
954,1	-24,7
954,6	-17,06
955	-16,78
955,4	-12,78
955,8	-14,14
956,2	-10,42
956,7	-11,1
957,1	-5,38
957,5	-9,5
957,9	-8,06
958,3	-14,1
958,8	-15,5
959,2	-14,54
959,6	-13,22
960	-9,58
960,5	-4,62
960,9	-1,62
961,3	-2,74
961,7	3,58
962,1	1,34
962,6	6,42
963	2,78
963,4	-5,78
963,8	-9,1
964,2	-11,26
964,7	-13,06
965,1	-9,1
965,5	-8,42
965,9	-11,38
966,3	-10,22
966,8	-13,54
967,2	-18,5
967,6	-13,18
968	-10,74
968,4	-12,1
968,9	-14,06
969,3	-13,46
969,7	-15,3
970,1	-16,46
970,5	-15,9
971	-14,5
971,4	-12,78
971,8	-15,38
972,2	-13,7
972,6	-10,3
973,1	-13,58
973,5	-12,06
973,9	-11,34
974,3	-12,38
974,7	-13,86
975,2	-4,1
975,6	-4,86
976	-5,7
976,4	-2,9
976,8	-2,9
977,3	-6,5
977,7	-6,7
978,1	-7,14
978,5	-9,58
978,9	-15,9
979,4	-16,66
979,8	-16,54
980,2	-12,58
980,6	-12,58
981	-7,5
981,5	-15,14
981,9	-11,42
982,3	-12,66
982,7	-16,22
983,1	-17,02
983,6	-8,5
984	-14,34
984,4	-14,74
984,8	-18,06
985,2	-12,86
985,6	-15,74
986,1	-11,82
986,5	-9,58
986,9	-5,58
987,3	-12,14
987,7	-11,38
988,2	-14,34
988,6	-15,86
989	-10,9
989,4	-11,62
989,8	-13,18
990,3	-16,18
990,7	-16,18
991,1	-18,86
991,5	-18,46
991,9	-20,06
992,3	-18,3
992,8	-21,18
993,2	-21,3
993,6	-16,78
994	-13,02
994,4	-10,46
994,9	-9,18
995,3	-14,06
995,7	-19,98
996,1	-20,62
996,5	-23,82
996,9	-20,38
997,4	-15,54
997,8	-17,5
998,2	-19,54
998,6	-15,9
999	-19,82
999,5	-22,06
999,9	-14,74
1000,3	-15,74
1000,7	-15,1
1001,1	-17,14
1001,5	-13,22
1002	-9,46
1002,4	-7,22
1002,8	-4,34
1003,2	2,38
1003,6	-2,38
1004	-12,74
1004,5	-13,82
1004,9	-17,14
1005,3	-21,34
1005,7	-12,54
1006,1	-8,02
1006,6	-4,62
1007	-5,58
1007,4	-4,42
1007,8	-9,3
1008,2	-10,94
1008,6	-10,18
1009,1	-14,9
1009,5	-11,78
1009,9	-18,06
1010,3	-22,1
1010,7	-26,1
1011,1	-17,9
1011,6	-22,62
1012	-14,42
1012,4	-9,86
1012,8	-8,1
1013,2	-8,86
1013,6	-10,1
1014,1	-12,34
1014,5	-12,42
1014,9	-16,1
1015,3	-18,62
1015,7	-14,98
1016,1	-14,38
1016,6	-13,38
1017	-10,3
1017,4	-9,38
1017,8	-8,5
1018,2	-13,22
1018,6	-14,3
1019,1	-16,3
1019,5	-25,38
1019,9	-32,94
1020,3	-31,7
1020,7	-30,86
1021,1	-27,86
1021,6	-21,3
1022	-15,1
1022,4	-10,26
1022,8	-7,94
1023,2	-10,3
1023,6	-7,98
1024,1	-7,98
1024,5	-10,46
1024,9	-10,86
1025,3	-11,34
1025,7	-13,7
1026,1	-13,86
1026,6	-17,78
1027	-16,3
1027,4	-16,82
1027,8	-18,9
1028,2	-21,26
1028,6	-18,02
1029	-22,18
1029,5	-18,9
1029,9	-16,3
1030,3	-12,94
1030,7	-10,06
1031,1	-11,46
1031,5	-11,98
1032	-7,42
1032,4	-7,98
1032,8	-4,86
1033,2	-5,94
1033,6	-4,42
1034	-6,78
1034,4	-7,14
1034,9	-9,22
1035,3	-7,5
1035,7	-6,34
1036,1	-8,9
1036,5	-7,06
1036,9	-13,26
1037,4	-16,78
1037,8	-21,66
1038,2	-20,7
1038,6	-19,46
1039	-18,5
1039,4	-15,58
1039,8	-16,1
1040,3	-14,86
1040,7	-16,86
1041,1	-12,46
1041,5	-13,3
1041,9	-9,02
1042,3	-13,14
1042,7	-13,86
1043,2	-17,18
1043,6	-13,06
1044	-8,54
1044,4	-5,3
1044,8	-7,82
1045,2	-5,46
1045,6	-4,82
1046,1	-16,94
1046,5	-20,38
1046,9	-14,14
1047,3	-19,1
1047,7	-23,62
1048,1	-19,86
1048,5	-17,18
1049	-25,34
1049,4	-25,3
1049,8	-25,5
1050,2	-25,02
1050,6	-19,98
1051	-20,18
1051,4	-15,18
1051,9	-13,5
1052,3	-18,02
1052,7	-21,3
1053,1	-18,22
1053,5	-22,1
1053,9	-21,02
1054,3	-15,46
1054,8	-20,7
1055,2	-23,06
1055,6	-22,1
1056	-21,66
1056,4	-21,3
1056,8	-15,06
1057,2	-16,98
1057,6	-17,82
1058,1	-20,06
1058,5	-23,1
1058,9	-26,46
1059,3	-22,18
1059,7	-23,58
1060,1	-15,58
1060,5	-12,22
1061	-6,98
1061,4	-7,42
1061,8	-9,02
1062,2	-15,58
1062,6	-18,38
1063	-20,82
1063,4	-21,06
1063,8	-16,82
1064,3	-16,34
1064,7	-17,06
1065,1	-18,18
1065,5	-13,26
1065,9	-13,3
1066,3	-13,14
1066,7	-8,9
1067,1	-8,38
1067,6	-15,94
1068	-16,18
1068,4	-16,54
1068,8	-16,74
1069,2	-21,5
1069,6	-16,26
1070	-12,46
1070,4	-10,7
1070,9	-6,94
1071,3	-7,22
1071,7	-9,82
1072,1	-11,82
1072,5	-12,1
1072,9	-17,3
1073,3	-17,34
1073,7	-11,38
1074,2	-11,82
1074,6	-12,54
1075	-19,22
1075,4	-14,3
1075,8	-14,54
1076,2	-8,38
1076,6	-3,26
1077	3,9
1077,5	-1,46
1077,9	-5,34
1078,3	-11,86
1078,7	-18,34
1079,1	-17,46
1079,5	-8,22
1079,9	-5,14
1080,3	-0,86
1080,7	-0,02
1081,2	-3,06
1081,6	-5,14
1082	-3,94
1082,4	-6,86
1082,8	-5,5
1083,2	-5,86
1083,6	-12,5
1084	-14,98
1084,5	-18,38
1084,9	-19,38
1085,3	-19,98
1085,7	-12,42
1086,1	-12,98
1086,5	-12,66
1086,9	-13,3
1087,3	-10,7
1087,7	-15,26
1088,2	-13,9
1088,6	-6,46
1089	-6,86
1089,4	-0,46
1089,8	6,26
1090,2	2,58
1090,6	-4,62
1091	-4,78
1091,4	-11,42
1091,9	-24,62
1092,3	-24,74
1092,7	-23,46
1093,1	-21,3
1093,5	-26,3
1093,9	-18,38
1094,3	-13,98
1094,7	-10,82
1095,1	-14,54
1095,5	-8,34
1096	-8,58
1096,4	-9,74
1096,8	-10,1
1097,2	-6,66
1097,6	-9,1
1098	-10,02
1098,4	-13,3
1098,8	-15,98
1099,2	-16,18
1099,6	-12,86
1100,1	-10,34
1100,5	-10,22
1100,9	-6,1
1101,3	-10,02
1101,7	-14,1
1102,1	-15,26
1102,5	-14,74
1102,9	-14,06
1103,3	-14,14
1103,7	-8,94
1104,2	-9,54
1104,6	-9,18
1105	-12,54
1105,4	-10,26
1105,8	-11,26
1106,2	-8,58
1106,6	-5,18
1107	-4,7
1107,4	-1,46
1107,8	-0,5
1108,3	-1,233
