Data from Subt2_00051.txt Node
Date: Fri Aug 11 16:11:07 MSK 2023
User: vat
Spectrometer: MAYP114033
Trigger mode: 0
Integration Time (sec): 5,000000E-1
Scans to average: 5
Electric dark correction enabled: true
Nonlinearity correction enabled: false
Boxcar width: 2
XAxis mode: Wavelengths
Number of Pixels in Spectrum: 2068
>>>>>Begin Spectral Data<<<<<
199,4	1,067
199,9	1,55
200,4	-4,04
200,8	-6,44
201,3	-13,6
201,8	-13,96
202,2	-13,64
202,7	-10,64
203,2	-11,76
203,6	-8,2
204,1	-9,32
204,6	-14,72
205	-14,12
205,5	-11,92
206	-9,32
206,4	-10,56
206,9	-9,08
207,4	-11,08
207,8	-7,88
208,3	-7,12
208,8	-5,48
209,2	-2,36
209,7	-0,52
210,2	-5,64
210,6	-9,04
211,1	-14,36
211,5	-16,36
212	-15,84
212,5	-14,72
212,9	-12,96
213,4	-13,68
213,9	-13,76
214,3	-12,24
214,8	-13,92
215,3	-14,84
215,7	-12,36
216,2	-7,72
216,7	-16,64
217,1	-16,32
217,6	-17,88
218,1	-16,52
218,5	-28,84
219	-20,12
219,5	-17,84
219,9	-14,84
220,4	-17,4
220,9	-9,88
221,3	-13,8
221,8	-10,28
222,3	-12,52
222,7	-5,96
223,2	-2,64
223,6	-4,4
224,1	-11,2
224,6	-10,48
225	-15,84
225,5	-17,6
226	-13,08
226,4	-12,12
226,9	-17,04
227,4	-15,64
227,8	-22
228,3	-30
228,8	-36,88
229,2	-35,92
229,7	-41,4
230,2	-35,44
230,6	-29,32
231,1	-23,4
231,5	-15,68
232	-18,16
232,5	-20,32
232,9	-27,44
233,4	-25,12
233,9	-32,28
234,3	-23,84
234,8	-20,24
235,3	-16,04
235,7	-16,36
236,2	-16,28
236,7	-17,92
237,1	-27,08
237,6	-25,4
238,1	-25,64
238,5	-23,08
239	-20,6
239,4	-14,64
239,9	-9,8
240,4	-10,88
240,8	-7,84
241,3	-7,64
241,8	-4,12
242,2	-7,48
242,7	-5,28
243,2	-8,44
243,6	-12,56
244,1	-19,92
244,6	-19,16
245	-16,52
245,5	-17,44
245,9	-16
246,4	-8,76
246,9	-14,6
247,3	-20,36
247,8	-20,08
248,3	-17,2
248,7	-21,28
249,2	-18,84
249,7	-19,68
250,1	-20,52
250,6	-26,08
251	-30,36
251,5	-24,36
252	-27,16
252,4	-31
252,9	-26,44
253,4	-25,44
253,8	-29,08
254,3	-23,28
254,8	-21,76
255,2	-20
255,7	-12,68
256,1	-11,12
256,6	-14,48
257,1	-12,92
257,5	-13,88
258	-18,36
258,5	-21,4
258,9	-17,32
259,4	-14,2
259,9	-19,28
260,3	-21,08
260,8	-19,72
261,2	-21,44
261,7	-20,88
262,2	-18,12
262,6	-12,32
263,1	-12,2
263,6	-10,28
264	-8,28
264,5	-12,64
264,9	-12,96
265,4	-15,36
265,9	-17,28
266,3	-18,04
266,8	-14,44
267,3	-24,36
267,7	-20,6
268,2	-20,24
268,7	-21,56
269,1	-21,96
269,6	-17,28
270	-18,4
270,5	-20,76
271	-23,16
271,4	-24,84
271,9	-25
272,4	-24,2
272,8	-26,28
273,3	-26,76
273,7	-22,48
274,2	-19,04
274,7	-22,88
275,1	-19,64
275,6	-18,2
276,1	-18,24
276,5	-21,52
277	-21,28
277,4	-18,8
277,9	-20,16
278,4	-20,2
278,8	-19,44
279,3	-16,72
279,8	-23,8
280,2	-26,12
280,7	-26,24
281,1	-25,52
281,6	-23,92
282,1	-14,72
282,5	-12,28
283	-16,84
283,4	-17,36
283,9	-22,2
284,4	-26,4
284,8	-24,68
285,3	-18,12
285,8	-19,4
286,2	-19,24
286,7	-14,36
287,1	-18,96
287,6	-23,4
288,1	-18,92
288,5	-15,88
289	-22,16
289,5	-19
289,9	-15,4
290,4	-14,36
290,8	-14,12
291,3	-14,76
291,8	-13,44
292,2	-17,24
292,7	-20,8
293,1	-21,56
293,6	-15,76
294,1	-17,4
294,5	-20,4
295	-18,68
295,5	-12,28
295,9	-16,64
296,4	-14,64
296,8	-7,64
297,3	-7,44
297,8	-12,48
298,2	-13,48
298,7	-14,84
299,1	-18,96
299,6	-17,32
300,1	-19,96
300,5	-18,96
301	-18,64
301,5	-18,2
301,9	-22,72
302,4	-26,76
302,8	-25,52
303,3	-28,68
303,8	-31
304,2	-37,6
304,7	-32,96
305,1	-29,12
305,6	-26,52
306,1	-24,2
306,5	-17,2
307	-15,68
307,4	-19,32
307,9	-17,12
308,4	-13,4
308,8	-10,08
309,3	-9,92
309,8	-8,4
310,2	-7,84
310,7	-14,28
311,1	-23,52
311,6	-22,92
312,1	-25,84
312,5	-28,56
313	-25,2
313,4	-21,84
313,9	-25,08
314,4	-21,52
314,8	-18,88
315,3	-19,28
315,7	-17,48
316,2	-17,04
316,7	-18,08
317,1	-21,8
317,6	-20,68
318	-17,08
318,5	-17,36
319	-22,32
319,4	-24,12
319,9	-21,8
320,3	-21,52
320,8	-17,2
321,3	-13,72
321,7	-7,04
322,2	-10,88
322,6	-11,28
323,1	-17,72
323,6	-19,92
324	-19,76
324,5	-22,76
324,9	-23,4
325,4	-18,52
325,9	-16,76
326,3	-15,4
326,8	-12,96
327,2	-17,12
327,7	-20,32
328,2	-19,96
328,6	-24,6
329,1	-23,72
329,5	-16,88
330	-15,8
330,5	-18,68
330,9	-19,2
331,4	-16,68
331,8	-22,56
332,3	-23,68
332,8	-22,08
333,2	-28,04
333,7	-30,44
334,1	-29,8
334,6	-28,72
335,1	-29,28
335,5	-23,08
336	-23,52
336,4	-22,84
336,9	-25,08
337,4	-24,04
337,8	-22,64
338,3	-20,8
338,7	-21,12
339,2	-18,6
339,7	-18,4
340,1	-20,24
340,6	-20,56
341	-19,72
341,5	-23,12
342	-17,56
342,4	-16,2
342,9	-15,32
343,3	-17,08
343,8	-11,6
344,2	-9,6
344,7	-8,4
345,2	-8,28
345,6	-14,68
346,1	-14,64
346,5	-17,08
347	-21,52
347,5	-22,96
347,9	-12,4
348,4	-11,44
348,8	-20,48
349,3	-18,16
349,8	-20,48
350,2	-20,52
350,7	-25
351,1	-20,52
351,6	-18,16
352	-15,28
352,5	-13,52
353	-11,28
353,4	-3,56
353,9	3,28
354,3	8,32
354,8	9,4
355,3	21,12
355,7	19,48
356,2	16,76
356,6	23,76
357,1	34,08
357,5	42,2
358	55,44
358,5	74,04
358,9	86,68
359,4	100,4
359,8	109,36
360,3	130,76
360,8	148,96
361,2	177,24
361,7	208
362,1	245,4
362,6	284,8
363	324,32
363,5	361,24
364	398,44
364,4	441,52
364,9	479,32
365,3	526,2
365,8	573,16
366,3	620,12
366,7	657,32
367,2	694,52
367,6	721,52
368,1	741,32
368,5	748
369	756,64
369,5	749,96
369,9	750,44
370,4	737,44
370,8	730,44
371,3	708,56
371,7	688,72
372,2	651,96
372,7	619,04
373,1	583,04
373,6	551,12
374	515,64
374,5	479,48
374,9	449,48
375,4	415,64
375,9	382,8
376,3	351,12
376,8	328,84
377,2	300
377,7	275,96
378,2	249,92
378,6	227,88
379,1	200,04
379,5	178,88
380	157,4
380,4	144,16
380,9	130,16
381,4	119,4
381,8	111,36
382,3	105,92
382,7	97,08
383,2	89,36
383,6	87,8
384,1	79,68
384,6	74,88
385	65,56
385,5	63,56
385,9	50,4
386,4	44,8
386,8	35,12
387,3	36,48
387,7	33,76
388,2	28,16
388,7	25
389,1	18,8
389,6	14,8
390	4,52
390,5	7,36
390,9	4,52
391,4	1,88
391,9	-5,32
392,3	-7,6
392,8	-5,04
393,2	-3,2
393,7	-0,08
394,1	1,84
394,6	7,6
395,1	3,8
395,5	3,96
396	2,68
396,4	-6,64
396,9	-6,92
397,3	-7,8
397,8	-9,96
398,2	-8,08
398,7	5,76
399,2	2,36
399,6	3,12
400,1	6,88
400,5	4,04
401	2,04
401,4	3,04
401,9	1,8
402,4	-7,84
402,8	-6,12
403,3	-12,08
403,7	-10,32
404,2	-8,28
404,6	-1,08
405,1	1,44
405,5	8,56
406	6,96
406,5	5,6
406,9	6,28
407,4	7,04
407,8	6,4
408,3	13,88
408,7	21,24
409,2	17,36
409,6	16,52
410,1	22,76
410,6	29,84
411	28,76
411,5	37,12
411,9	49,04
412,4	50,36
412,8	44,28
413,3	50,36
413,7	67,96
414,2	66
414,7	72,84
415,1	81,08
415,6	79,8
416	75,12
416,5	86,08
416,9	93,76
417,4	102,08
417,8	110,84
418,3	119,68
418,8	127,6
419,2	137,28
419,7	148,04
420,1	165,92
420,6	170,84
421	179
421,5	180,24
421,9	190,56
422,4	204,08
422,8	220,08
423,3	231
423,8	251,36
424,2	260,88
424,7	271,84
425,1	285,28
425,6	297,72
426	310,72
426,5	332,68
426,9	351,2
427,4	371,84
427,9	400,56
428,3	425,92
428,8	446,56
429,2	469,96
429,7	495,56
430,1	516,72
430,6	537,48
431	560,32
431,5	586,48
431,9	607,2
432,4	637,64
432,8	675,32
433,3	712,32
433,8	747,84
434,2	789,6
434,7	828,24
435,1	865
435,6	904,68
436	950,48
436,5	995,52
436,9	1040,52
437,4	1095,56
437,8	1147,84
438,3	1198,36
438,8	1256,6
439,2	1314,44
439,7	1366,76
440,1	1423,72
440,6	1477,84
441	1537,16
441,5	1596,44
441,9	1659,04
442,4	1724,4
442,8	1793,12
443,3	1860,72
443,7	1937,76
444,2	2011,92
444,7	2087,84
445,1	2179,12
445,6	2256,92
446	2337,88
446,5	2431
446,9	2527,56
447,4	2608,2
447,8	2703,28
448,3	2796,76
448,7	2879,32
449,2	2968,64
449,6	3071,32
450,1	3156,64
450,6	3255,36
451	3352,36
451,5	3457,04
451,9	3553,36
452,4	3666,76
452,8	3768,52
453,3	3884,44
453,7	3991,12
454,2	4095
454,6	4212,96
455,1	4329,44
455,5	4436,84
456	4539,64
456,4	4650,48
456,9	4758,04
457,3	4879,84
457,8	4997,36
458,3	5121,04
458,7	5244,32
459,2	5374,96
459,6	5488,84
460,1	5605,6
460,5	5723,52
461	5844,04
461,4	5949,76
461,9	6060,48
462,3	6174,76
462,8	6299,64
463,2	6409,88
463,7	6522,2
464,1	6638,04
464,6	6754,36
465	6849,48
465,5	6972,16
466	7085,92
466,4	7192,72
466,9	7312,44
467,3	7418,92
467,8	7513,28
468,2	7611,6
468,7	7713,04
469,1	7802,24
469,6	7906,4
470	7993,36
470,5	8099,2
470,9	8188,44
471,4	8282,6
471,8	8378,92
472,3	8477,32
472,7	8555
473,2	8646,2
473,6	8725,64
474,1	8793,16
474,5	8862,6
475	8947,56
475,4	9025,12
475,9	9084,6
476,4	9152,88
476,8	9225,84
477,3	9272,96
477,7	9338,04
478,2	9410,24
478,6	9459,08
479,1	9525,16
479,5	9581,12
480	9609,64
480,4	9633,44
480,9	9684,52
481,3	9703,24
481,8	9739
482,2	9774,28
482,7	9808,08
483,1	9818,56
483,6	9841,8
484	9852,24
484,5	9863,52
484,9	9881,88
485,4	9894,92
485,8	9905,84
486,3	9914,32
486,7	9914,76
487,2	9900,2
487,6	9908,4
488,1	9897,36
488,5	9878,76
489	9860,32
489,4	9853,92
489,9	9827,08
490,4	9800,2
490,8	9790,24
491,3	9780,52
491,7	9746
492,2	9708,64
492,6	9681,08
493,1	9632,6
493,5	9589,16
494	9560,2
494,4	9532,4
494,9	9479
495,3	9436,32
495,8	9398,12
496,2	9354,2
496,7	9309,32
497,1	9265,64
497,6	9221,52
498	9158,56
498,5	9102,08
498,9	9053,68
499,4	9009,32
499,8	8962,6
500,3	8903,6
500,7	8841,52
501,2	8768,36
501,6	8699,24
502,1	8632,28
502,5	8576,92
503	8515,72
503,4	8457,56
503,9	8402,76
504,3	8334,2
504,8	8278,04
505,2	8216,64
505,7	8150,72
506,1	8089,32
506,6	8024,28
507	7938,68
507,5	7878,32
507,9	7805,88
508,4	7729,2
508,8	7663,28
509,3	7598,52
509,7	7516,88
510,2	7444,72
510,6	7372,56
511,1	7284,96
511,5	7214,2
512	7127,2
512,4	7052,4
512,9	6983,8
513,3	6926,36
513,8	6851
514,2	6784,28
514,7	6714,08
515,1	6631,08
515,6	6553,72
516	6479,12
516,5	6409,12
516,9	6335,6
517,4	6259,92
517,8	6185,76
518,3	6111,48
518,7	6034,88
519,2	5954,64
519,6	5885
520,1	5811,04
520,5	5746,28
521	5680,44
521,4	5605,48
521,9	5543,28
522,3	5473,72
522,8	5406,32
523,2	5336,8
523,7	5280,16
524,1	5209,36
524,6	5142,44
525	5085,4
525,5	5026,36
525,9	4965,36
526,4	4907,12
526,8	4848,92
527,3	4779,4
527,7	4717,96
528,2	4662,12
528,6	4604,16
529,1	4544,6
529,5	4485,44
530	4432,88
530,4	4379,16
530,9	4325,72
531,3	4280,52
531,8	4224,16
532,2	4172,72
532,6	4111,64
533,1	4051,72
533,5	3984,48
534	3933,48
534,4	3884,52
534,9	3839,16
535,3	3793,2
535,8	3757,52
536,2	3709,72
536,7	3653,2
537,1	3602,44
537,6	3552,84
538	3503,48
538,5	3462,28
538,9	3425,6
539,4	3379,84
539,8	3341,56
540,3	3287,24
540,7	3240
541,2	3188,8
541,6	3151,32
542,1	3100,92
542,5	3068,64
543	3026,12
543,4	2984,64
543,9	2942,16
544,3	2899,44
544,8	2858,52
545,2	2817,6
545,7	2781,52
546,1	2751
546,5	2726,48
547	2696,44
547,4	2667,28
547,9	2633,76
548,3	2593,56
548,8	2550,48
549,2	2516,88
549,7	2488,76
550,1	2458,12
550,6	2431
551	2405,28
551,5	2373,92
551,9	2340,36
552,4	2310,2
552,8	2282,64
553,3	2259,36
553,7	2233,48
554,2	2206,68
554,6	2189,4
555,1	2162,76
555,5	2143,52
555,9	2116,48
556,4	2085,84
556,8	2057,56
557,3	2029,72
557,7	2003,64
558,2	1983,48
558,6	1970,36
559,1	1943,88
559,5	1919,44
560	1886,64
560,4	1866,2
560,9	1840,84
561,3	1823,2
561,8	1810,6
562,2	1791,36
562,7	1765,32
563,1	1747,28
563,6	1726,2
564	1700,72
564,4	1684,88
564,9	1663,92
565,3	1640,04
565,8	1618,92
566,2	1606,2
566,7	1587,24
567,1	1578,32
567,6	1567,52
568	1552,24
568,5	1539,68
568,9	1520,08
569,4	1496,16
569,8	1471,6
570,3	1456,56
570,7	1433,6
571,1	1419,36
571,6	1405,88
572	1393,48
572,5	1377,88
572,9	1358,6
573,4	1343,76
573,8	1323,92
574,3	1313,4
574,7	1306,36
575,2	1295
575,6	1280,76
576,1	1267,84
576,5	1247,32
576,9	1231,56
577,4	1215,24
577,8	1199,2
578,3	1192,36
578,7	1186,92
579,2	1166,44
579,6	1157,76
580,1	1144,36
580,5	1131,08
581	1113,72
581,4	1106,04
581,9	1094,08
582,3	1093,28
582,7	1072,36
583,2	1063,72
583,6	1052,96
584,1	1038
584,5	1025,16
585	1019,6
585,4	1007,64
585,9	995,12
586,3	989,04
586,8	977,16
587,2	970,48
587,6	960
588,1	946,36
588,5	937,6
589	924,16
589,4	909,64
589,9	902,68
590,3	900,72
590,8	890,04
591,2	879,88
591,7	879,68
592,1	871,64
592,5	860,68
593	854,24
593,4	849,8
593,9	833,8
594,3	828,76
594,8	826,08
595,2	816
595,7	807,48
596,1	803,84
596,6	794,44
597	782,12
597,4	778,68
597,9	772,36
598,3	769,12
598,8	764,36
599,2	763,96
599,7	759,4
600,1	757,48
600,6	747,96
601	743,68
601,4	737,2
601,9	726,84
602,3	717,92
602,8	708,96
603,2	699,36
603,7	692,48
604,1	694,12
604,6	689,96
605	691,24
605,4	687,24
605,9	678,52
606,3	662,96
606,8	654,88
607,2	649
607,7	641,4
608,1	639,6
608,6	635,84
609	633,52
609,4	629,08
609,9	626,08
610,3	615,68
610,8	614,04
611,2	600,16
611,7	590,76
612,1	582
612,6	574,08
613	568,04
613,4	575,28
613,9	578,12
614,3	577
614,8	578,24
615,2	572,2
615,7	558,32
616,1	545,24
616,6	537,12
617	528,36
617,4	532,52
617,9	531,68
618,3	532,68
618,8	532,2
619,2	533,64
619,7	526,2
620,1	521,28
620,5	512,48
621	510,72
621,4	499,48
621,9	493,04
622,3	493,52
622,8	495,24
623,2	488,12
623,6	492,12
624,1	486,56
624,5	477,24
625	467,44
625,4	461,28
625,9	454,28
626,3	451,92
626,8	453,92
627,2	451,88
627,6	450,56
628,1	447,12
628,5	442,72
629	440,92
629,4	443,16
629,9	439,08
630,3	440,08
630,7	434,32
631,2	425,28
631,6	416,04
632,1	413,64
632,5	410,64
633	409,56
633,4	405,32
633,8	404,2
634,3	398,84
634,7	391,2
635,2	389,28
635,6	390,68
636,1	389,76
636,5	397,2
636,9	391,6
637,4	393,2
637,8	388,08
638,3	376,04
638,7	363,88
639,2	362,84
639,6	352,32
640	348,92
640,5	350,4
640,9	349,52
641,4	345,16
641,8	347,4
642,2	345,16
642,7	346,68
643,1	348,52
643,6	346,84
644	340,24
644,5	344,16
644,9	344,4
645,3	337,36
645,8	338,4
646,2	335,72
646,7	332,52
647,1	329,12
647,6	325,2
648	318,88
648,4	322,56
648,9	318,84
649,3	310,8
649,8	308,04
650,2	309,92
650,6	303,44
651,1	302,36
651,5	300,2
652	305,84
652,4	307,28
652,9	306,84
653,3	304,88
653,7	306,92
654,2	305,08
654,6	304,32
655,1	307,56
655,5	300,88
655,9	297,52
656,4	293,36
656,8	287
657,3	278,72
657,7	278,8
658,2	275,28
658,6	270,36
659	265,92
659,5	268,56
659,9	260,88
660,4	261,88
660,8	262,76
661,2	260,64
661,7	253,2
662,1	257,04
662,6	250,64
663	242,2
663,4	241,28
663,9	241,6
664,3	235
664,8	238,2
665,2	241,48
665,6	246,08
666,1	239,68
666,5	235,56
667	236,6
667,4	230,64
667,9	217,48
668,3	219,24
668,7	230,28
669,2	225,52
669,6	223,44
670,1	229,48
670,5	228,32
670,9	220,44
671,4	220,12
671,8	222,68
672,3	217,52
672,7	219,88
673,1	216,04
673,6	209,16
674	212,36
674,5	212,48
674,9	205,08
675,3	204,08
675,8	202,48
676,2	195
676,7	197,8
677,1	198,56
677,5	198,24
678	199,12
678,4	204,48
678,9	194,4
679,3	192,72
679,7	193,16
680,2	193,68
680,6	181,48
681,1	183,56
681,5	182,96
681,9	176,8
682,4	175,48
682,8	180,44
683,3	180,16
683,7	178,16
684,1	175,84
684,6	179,04
685	177,52
685,5	177,08
685,9	183
686,3	180,92
686,8	174,04
687,2	166,92
687,7	168,72
688,1	165,56
688,5	170,48
689	163,8
689,4	171,12
689,9	163,28
690,3	154,56
690,7	151,04
691,2	154,56
691,6	149,48
692	150,84
692,5	153,08
692,9	152,88
693,4	153,92
693,8	155,68
694,2	158,44
694,7	157,64
695,1	153,88
695,6	148,36
696	145,64
696,4	143,64
696,9	147,48
697,3	150,84
697,8	154,24
698,2	156,24
698,6	153,96
699,1	145,56
699,5	143,88
699,9	143,24
700,4	137,36
700,8	132,04
701,3	127,52
701,7	126,12
702,1	121
702,6	118,88
703	120,88
703,5	126,08
703,9	124,08
704,3	126,36
704,8	131,04
705,2	129,64
705,6	130,04
706,1	129,8
706,5	124,12
707	121,12
707,4	118,36
707,8	110,92
708,3	113,56
708,7	119,56
709,2	114,08
709,6	113,8
710	115,6
710,5	110,24
710,9	100,64
711,3	97,64
711,8	99,76
712,2	104,56
712,7	102,76
713,1	111,64
713,5	117,92
714	118,76
714,4	114
714,8	114,36
715,3	108,56
715,7	107,92
716,2	101,84
716,6	99,52
717	106,6
717,5	111,24
717,9	108
718,3	108,28
718,8	110,4
719,2	102,36
719,7	101,2
720,1	101,6
720,5	103,68
721	98,84
721,4	97,6
721,8	94,6
722,3	95,84
722,7	89,96
723,2	91,48
723,6	90,6
724	89,56
724,5	87,56
724,9	96
725,3	94,84
725,8	95,28
726,2	91,04
726,7	86,48
727,1	83,08
727,5	82,28
728	79,52
728,4	83,08
728,8	84,04
729,3	78,24
729,7	79,32
730,1	76,2
730,6	74,88
731	74,28
731,5	78,12
731,9	79,6
732,3	85,28
732,8	81,48
733,2	79,4
733,6	80,4
734,1	79,6
734,5	79
734,9	84,68
735,4	82,92
735,8	76,44
736,3	73,56
736,7	68,6
737,1	65,12
737,6	71
738	73,52
738,4	70,84
738,9	74,96
739,3	70,32
739,7	65,16
740,2	64,84
740,6	64,52
741,1	61,4
741,5	64,96
741,9	73,16
742,4	68,72
742,8	70,56
743,2	70,08
743,7	65,2
744,1	59,52
744,5	57,84
745	60,68
745,4	58,52
745,8	68,4
746,3	67,64
746,7	65,8
747,2	58,96
747,6	60,44
748	52,08
748,5	54,04
748,9	59,44
749,3	63,2
749,8	60,44
750,2	58,24
750,6	52,64
751,1	50,84
751,5	46,12
751,9	49,52
752,4	48,8
752,8	52,32
753,3	53,52
753,7	58
754,1	49,92
754,6	57,8
755	51,24
755,4	52,8
755,9	49,28
756,3	50,44
756,7	46,24
757,2	42,84
757,6	37,72
758	40,08
758,5	40,96
758,9	38,88
759,3	43,96
759,8	45,6
760,2	41,36
760,6	46,44
761,1	45,76
761,5	44,16
761,9	46,48
762,4	42,24
762,8	43,08
763,3	38,52
763,7	42,88
764,1	42,08
764,6	46,52
765	45,68
765,4	51,36
765,9	43,76
766,3	41,76
766,7	40,04
767,2	35,92
767,6	35,36
768	43,48
768,5	38,64
768,9	42,28
769,3	42,44
769,8	35,56
770,2	28,6
770,6	27,52
771,1	23,2
771,5	21,84
771,9	29,96
772,4	32,04
772,8	39,8
773,2	41,04
773,7	41,08
774,1	40,12
774,5	39,12
775	34,8
775,4	38,72
775,8	38
776,3	33,84
776,7	34,44
777,1	35,64
777,6	34,36
778	36,44
778,4	41,08
778,9	41,16
779,3	36,16
779,7	35,48
780,2	31,72
780,6	22,44
781	23,52
781,5	27,8
781,9	21,68
782,3	23,12
782,8	28,4
783,2	32,04
783,6	30,12
784,1	31,52
784,5	31,4
784,9	31,4
785,4	27,88
785,8	28,6
786,2	22,8
786,7	21,92
787,1	21,72
787,5	14,76
788	18,4
788,4	23,2
788,8	24,8
789,3	24,4
789,7	27
790,1	23,84
790,6	27,36
791	23,08
791,4	24,84
791,9	25,12
792,3	23,96
792,7	21,24
793,2	25,08
793,6	18,84
794	20,76
794,5	19,44
794,9	21,48
795,3	17,16
795,8	22,44
796,2	19,64
796,6	18,48
797,1	12,24
797,5	15,48
797,9	16,28
798,4	14,12
798,8	18,72
799,2	23,08
799,7	21,24
800,1	18,2
800,5	22,84
801	14,52
801,4	14,4
801,8	14,96
802,2	20,12
802,7	21,2
803,1	20,24
803,5	17,04
804	16
804,4	10,48
804,8	7,4
805,3	14,6
805,7	20
806,1	21
806,6	18,88
807	15,12
807,4	14,2
807,9	12,72
808,3	17,04
808,7	12,48
809,2	20,88
809,6	20
810	11,6
810,4	4,36
810,9	10,52
811,3	3,8
811,7	3,84
812,2	12,88
812,6	7,92
813	9,4
813,5	13,52
813,9	14,08
814,3	15,28
814,8	25,6
815,2	16,4
815,6	11,32
816,1	9,4
816,5	2,4
816,9	0,16
817,3	4,48
817,8	2,4
818,2	2,8
818,6	4,2
819,1	1
819,5	8,16
819,9	9,32
820,4	10,28
820,8	10,24
821,2	10,76
821,7	11,72
822,1	16,84
822,5	16,12
822,9	11,6
823,4	17,72
823,8	13,96
824,2	11,2
824,7	7,52
825,1	10,28
825,5	3,88
826	0,48
826,4	-0,6
826,8	1,6
827,3	2
827,7	-1,44
828,1	-0,68
828,5	-6,12
829	-11,72
829,4	-11,08
829,8	-10
830,3	-4,32
830,7	3,72
831,1	1,64
831,6	4,16
832	7,24
832,4	-1,72
832,8	-3,76
833,3	4,56
833,7	4,04
834,1	-2,48
834,6	-2,56
835	-4,36
835,4	-4,8
835,8	-3,48
836,3	1,84
836,7	3,16
837,1	4,24
837,6	3,32
838	-0,56
838,4	-6
838,9	-8,68
839,3	-12,32
839,7	-13,48
840,1	-10
840,6	-5,28
841	-0,84
841,4	-1,6
841,9	-1,08
842,3	-3,84
842,7	-2,12
843,1	0,08
843,6	-6,36
844	-8
844,4	-8,52
844,9	-6,68
845,3	-8,88
845,7	-0,68
846,2	-0,6
846,6	1,08
847	-5,72
847,4	-9,04
847,9	-5,48
848,3	-7,88
848,7	-10,44
849,2	-6,92
849,6	-6,32
850	-5,76
850,4	-3,12
850,9	-3,2
851,3	-2,84
851,7	-3,32
852,2	-4,16
852,6	-2,8
853	-2,64
853,4	-4,52
853,9	-2
854,3	-0,56
854,7	-1,4
855,2	1,04
855,6	0,04
856	-3,04
856,4	-5,08
856,9	-5,4
857,3	-12,96
857,7	-9,6
858,2	-6,56
858,6	-8,72
859	-9,72
859,4	1,24
859,9	-2,68
860,3	-2,56
860,7	0
861,1	0,08
861,6	-4,2
862	-4,8
862,4	-4,4
862,9	-7,16
863,3	-5,08
863,7	-4,96
864,1	-2,28
864,6	-5,36
865	-7,56
865,4	-8,52
865,9	-10,2
866,3	-12
866,7	-11,88
867,1	-6,36
867,6	-9,24
868	-7,32
868,4	-5,56
868,8	-7,04
869,3	-11,32
869,7	-7,72
870,1	-9,96
870,6	-9,12
871	-5,8
871,4	-10,76
871,8	-14,72
872,3	-17,12
872,7	-16,16
873,1	-15,2
873,5	-5,36
874	0,08
874,4	1,32
874,8	-6,92
875,3	-9,68
875,7	-11
876,1	-14,44
876,5	-18,36
877	-9,88
877,4	-9,28
877,8	-12,2
878,2	-10,6
878,7	0,08
879,1	-2,36
879,5	-2,28
879,9	-7,52
880,4	-7,92
880,8	-15,36
881,2	-16,56
881,7	-17,96
882,1	-12,52
882,5	-15,68
882,9	-11,56
883,4	-9,16
883,8	-3,92
884,2	-2,16
884,6	0,88
885,1	-1,96
885,5	-1,32
885,9	-4,84
886,3	-5
886,8	-0,08
887,2	0,24
887,6	-2,96
888	-6,52
888,5	-6,08
888,9	-9,88
889,3	-2,12
889,8	2,48
890,2	1,8
890,6	1,04
891	-5,88
891,5	-14,56
891,9	-17,24
892,3	-17,6
892,7	-19,52
893,2	-13,24
893,6	-12,92
894	-11,08
894,4	-6,52
894,9	-8,64
895,3	-10,72
895,7	-6,44
896,1	-7
896,6	-4,96
897	-1,56
897,4	-1,76
897,8	-3,96
898,3	-4,72
898,7	-2,24
899,1	-2,04
899,5	-4,48
900	-10,16
900,4	-9,52
900,8	-15,4
901,2	-16,92
901,7	-11,64
902,1	-9,84
902,5	-9,36
902,9	-7,8
903,4	-5,12
903,8	-7,52
904,2	-1,2
904,6	-8,56
905,1	-10,52
905,5	-16,28
905,9	-15,88
906,3	-23,08
906,8	-17,24
907,2	-20,32
907,6	-17,68
908	-17,76
908,5	-15,08
908,9	-17,68
909,3	-19,24
909,7	-21,12
910,2	-20,2
910,6	-20,96
911	-18,8
911,4	-16,84
911,9	-13,8
912,3	-14,32
912,7	-12,36
913,1	-14,24
913,6	-11,04
914	-18,04
914,4	-25,08
914,8	-25,92
915,3	-23,52
915,7	-26,32
916,1	-26,16
916,5	-18,28
916,9	-17,48
917,4	-14,24
917,8	-14,36
918,2	-6
918,6	-5,28
919,1	-4,04
919,5	-10,88
919,9	-5,68
920,3	-5,92
920,8	-11,04
921,2	-17,24
921,6	-20,88
922	-29,16
922,5	-29,72
922,9	-29,64
923,3	-23,28
923,7	-19,68
924,2	-12,6
924,6	-17,16
925	-13,96
925,4	-16,04
925,8	-14,92
926,3	-15,16
926,7	-14,84
927,1	-12,24
927,5	-15,56
928	-19,36
928,4	-30,2
928,8	-24,6
929,2	-29,92
929,7	-27,52
930,1	-20,32
930,5	-6,44
930,9	-11,28
931,3	-11,36
931,8	-20,04
932,2	-25,44
932,6	-32,68
933	-30
933,5	-30,2
933,9	-18,36
934,3	-16,96
934,7	-14,12
935,2	-13,4
935,6	-13,28
936	-19,88
936,4	-23,76
936,8	-25,12
937,3	-31,08
937,7	-30,16
938,1	-28,4
938,5	-24,56
939	-29,84
939,4	-23,28
939,8	-19,64
940,2	-18,2
940,6	-16,88
941,1	-14
941,5	-20,96
941,9	-24,72
942,3	-23,76
942,8	-27,24
943,2	-23,6
943,6	-19,72
944	-22,76
944,4	-25,56
944,9	-24,32
945,3	-27,36
945,7	-27,88
946,1	-28,6
946,6	-30,56
947	-25,32
947,4	-23,36
947,8	-23,08
948,2	-20,88
948,7	-19,72
949,1	-19,36
949,5	-19,04
949,9	-20,24
950,3	-21,44
950,8	-18,56
951,2	-22,48
951,6	-22,28
952	-20
952,5	-16,92
952,9	-15,16
953,3	-17,32
953,7	-14,96
954,1	-15,68
954,6	-15,76
955	-18,08
955,4	-13,44
955,8	-16
956,2	-16,96
956,7	-18,4
957,1	-23,6
957,5	-31,56
957,9	-32,68
958,3	-32,56
958,8	-30,52
959,2	-29,32
959,6	-24,32
960	-22,28
960,5	-15,32
960,9	-15,52
961,3	-9
961,7	-6,16
962,1	-7
962,6	-8,76
963	-6,12
963,4	-7,2
963,8	-8,6
964,2	-14,08
964,7	-15,4
965,1	-26,12
965,5	-33,32
965,9	-35,92
966,3	-30,12
966,8	-33,32
967,2	-24,4
967,6	-17,12
968	-15,56
968,4	-11,96
968,9	-13,72
969,3	-9,08
969,7	-11,68
970,1	-14,56
970,5	-18,32
971	-12,68
971,4	-17,96
971,8	-13,92
972,2	-14,24
972,6	-14,76
973,1	-22,52
973,5	-26,76
973,9	-28,88
974,3	-27
974,7	-23,84
975,2	-18,24
975,6	-19,16
976	-18,72
976,4	-21,92
976,8	-19,24
977,3	-21,36
977,7	-15,76
978,1	-21
978,5	-15,52
978,9	-23,72
979,4	-20,76
979,8	-17,56
980,2	-11,96
980,6	-7,68
981	-1,24
981,5	-5
981,9	-6,32
982,3	-6,88
982,7	-15,04
983,1	-17,44
983,6	-12,68
984	-13,88
984,4	-17,92
984,8	-19
985,2	-16,8
985,6	-16,92
986,1	-21,44
986,5	-15,68
986,9	-11,68
987,3	-16,32
987,7	-19,52
988,2	-19,08
988,6	-19,04
989	-19,4
989,4	-27,6
989,8	-32,92
990,3	-30,68
990,7	-38,6
991,1	-35,6
991,5	-25,64
991,9	-20,2
992,3	-20,28
992,8	-10,32
993,2	-10,64
993,6	-11,2
994	-11,16
994,4	-11,92
994,9	-12,32
995,3	-16,76
995,7	-19,68
996,1	-17,96
996,5	-17,2
996,9	-23,68
997,4	-22,44
997,8	-26,76
998,2	-28
998,6	-31,76
999	-32
999,5	-34,64
999,9	-28,56
1000,3	-31,64
1000,7	-27,44
1001,1	-24,2
1001,5	-21,52
1002	-22,64
1002,4	-21,92
1002,8	-23,92
1003,2	-24,04
1003,6	-21,92
1004	-17,92
1004,5	-20,16
1004,9	-19,4
1005,3	-22,64
1005,7	-28,68
1006,1	-31,76
1006,6	-29,08
1007	-28,08
1007,4	-26,36
1007,8	-19,4
1008,2	-20,4
1008,6	-15,16
1009,1	-15,12
1009,5	-15,16
1009,9	-19,24
1010,3	-18,52
1010,7	-21,72
1011,1	-18,56
1011,6	-15,44
1012	-13,36
1012,4	-13,32
1012,8	-13,44
1013,2	-19,84
1013,6	-28,48
1014,1	-29,36
1014,5	-27,32
1014,9	-24,12
1015,3	-22,24
1015,7	-19,28
1016,1	-20
1016,6	-26
1017	-31,04
1017,4	-28,08
1017,8	-24,68
1018,2	-18
1018,6	-15,24
1019,1	-11,16
1019,5	-10,48
1019,9	-9,04
1020,3	-20,16
1020,7	-21,96
1021,1	-26,76
1021,6	-28,96
1022	-29,12
1022,4	-24,72
1022,8	-18,48
1023,2	-17,72
1023,6	-20,44
1024,1	-21,92
1024,5	-25,88
1024,9	-29,12
1025,3	-29,32
1025,7	-22,56
1026,1	-22,52
1026,6	-17,64
1027	-13
1027,4	-10,72
1027,8	-9,44
1028,2	-12,48
1028,6	-11,28
1029	-14,4
1029,5	-16,2
1029,9	-20,76
1030,3	-20,4
1030,7	-21,88
1031,1	-26,96
1031,5	-29,08
1032	-30,76
1032,4	-29,32
1032,8	-27,48
1033,2	-22,16
1033,6	-22,72
1034	-24,28
1034,4	-26,92
1034,9	-22,52
1035,3	-29,32
1035,7	-29
1036,1	-26,88
1036,5	-18,88
1036,9	-21,72
1037,4	-18,16
1037,8	-11,84
1038,2	-12,16
1038,6	-17,88
1039	-24,2
1039,4	-21,76
1039,8	-29,76
1040,3	-29,44
1040,7	-27,52
1041,1	-25,96
1041,5	-28,96
1041,9	-27,76
1042,3	-35
1042,7	-35,4
1043,2	-36,36
1043,6	-32,76
1044	-28,24
1044,4	-20,8
1044,8	-16,48
1045,2	-16,44
1045,6	-14,2
1046,1	-14,6
1046,5	-9,36
1046,9	-14,88
1047,3	-9,8
1047,7	-14,16
1048,1	-17,52
1048,5	-27,56
1049	-24,68
1049,4	-25,8
1049,8	-21,32
1050,2	-12,72
1050,6	-3,16
1051	-2,76
1051,4	-1,52
1051,9	-9,08
1052,3	-19,32
1052,7	-31,12
1053,1	-33,88
1053,5	-43,56
1053,9	-38,76
1054,3	-41,4
1054,8	-36,32
1055,2	-37,32
1055,6	-34,52
1056	-35,16
1056,4	-32,56
1056,8	-29,68
1057,2	-22,88
1057,6	-15,96
1058,1	-18,64
1058,5	-21,32
1058,9	-26,96
1059,3	-29,56
1059,7	-32,12
1060,1	-30,76
1060,5	-25,76
1061	-24,08
1061,4	-29,08
1061,8	-29,6
1062,2	-33,6
1062,6	-36,28
1063	-34,96
1063,4	-34,56
1063,8	-34,16
1064,3	-28
1064,7	-19,76
1065,1	-18,28
1065,5	-14,84
1065,9	-18,08
1066,3	-20,8
1066,7	-28,12
1067,1	-34,4
1067,6	-34,72
1068	-35,32
1068,4	-31,68
1068,8	-27,12
1069,2	-16,12
1069,6	-18,2
1070	-8,52
1070,4	-10,84
1070,9	-16,4
1071,3	-24,28
1071,7	-26,6
1072,1	-35,4
1072,5	-32,56
1072,9	-28,12
1073,3	-31,24
1073,7	-26,04
1074,2	-28,36
1074,6	-30,6
1075	-33,28
1075,4	-22,28
1075,8	-25,32
1076,2	-21,84
1076,6	-17,84
1077	-11,64
1077,5	-18,6
1077,9	-19,04
1078,3	-17,2
1078,7	-21,32
1079,1	-28,8
1079,5	-28,2
1079,9	-22,92
1080,3	-24,32
1080,7	-21,24
1081,2	-21,84
1081,6	-17,84
1082	-24,6
1082,4	-23,28
1082,8	-24,28
1083,2	-14,8
1083,6	-15,4
1084	-9,28
1084,5	-14,08
1084,9	-18,68
1085,3	-21,64
1085,7	-23,92
1086,1	-25
1086,5	-23,88
1086,9	-21,04
1087,3	-28,44
1087,7	-29,76
1088,2	-29,2
1088,6	-31,52
1089	-34,24
1089,4	-28,2
1089,8	-25,76
1090,2	-32,52
1090,6	-23,08
1091	-18,32
1091,4	-18,28
1091,9	-18,56
1092,3	-13,68
1092,7	-15,68
1093,1	-16,24
1093,5	-16,6
1093,9	-14,92
1094,3	-15,84
1094,7	-19,52
1095,1	-17,48
1095,5	-21,2
1096	-20,36
1096,4	-21,04
1096,8	-16,36
1097,2	-20,2
1097,6	-7,96
1098	-11,84
1098,4	-10,92
1098,8	-8,24
1099,2	-8,84
1099,6	-17,32
1100,1	-14,76
1100,5	-11
1100,9	-12,2
1101,3	-11,96
1101,7	-12,28
1102,1	-15,2
1102,5	-17,6
1102,9	-23,6
1103,3	-24,96
1103,7	-24,52
1104,2	-24,48
1104,6	-21,16
1105	-19,68
1105,4	-16,16
1105,8	-13,36
1106,2	-8,24
1106,6	-9,44
1107	-4,88
1107,4	-1,8
1107,8	-1
1108,3	-1,133
