Data from Subt2_00046.txt Node
Date: Fri Aug 11 16:05:57 MSK 2023
User: vat
Spectrometer: MAYP114033
Trigger mode: 0
Integration Time (sec): 5,000000E-1
Scans to average: 5
Electric dark correction enabled: true
Nonlinearity correction enabled: false
Boxcar width: 2
XAxis mode: Wavelengths
Number of Pixels in Spectrum: 2068
>>>>>Begin Spectral Data<<<<<
199,4	1
199,9	1,283
200,4	-3,867
200,8	-4,307
201,3	-7,387
201,8	-7,507
202,2	-3,267
202,7	1,613
203,2	-0,147
203,6	2,773
204,1	-0,827
204,6	-6,227
205	-6,427
205,5	-5,787
206	-1,867
206,4	-1,387
206,9	-2,507
207,4	-3,467
207,8	-5,467
208,3	-8,667
208,8	-8,067
209,2	-11,227
209,7	-14,747
210,2	-9,067
210,6	-13,507
211,1	-14,307
211,5	-6,267
212	-4,307
212,5	-7,027
212,9	-5,987
213,4	-7,347
213,9	-9,747
214,3	-6,827
214,8	-5,147
215,3	-3,907
215,7	-0,267
216,2	-1,347
216,7	-4,467
217,1	-8,587
217,6	-8,707
218,1	-13,427
218,5	-20,467
219	-15,987
219,5	-9,467
219,9	-10,107
220,4	-6,867
220,9	1,453
221,3	-4,147
221,8	-9,587
222,3	-10,107
222,7	-5,427
223,2	-6,947
223,6	-5,307
224,1	-8,187
224,6	-4,107
225	-9,707
225,5	-4,547
226	-1,787
226,4	0,013
226,9	-5,187
227,4	0,453
227,8	-3,787
228,3	-10,667
228,8	-8,427
229,2	-3,067
229,7	-9,107
230,2	-9,787
230,6	-8,627
231,1	-14,467
231,5	-18,507
232	-18,467
232,5	-17,947
232,9	-19,707
233,4	-16,147
233,9	-17,987
234,3	-15,907
234,8	-17,187
235,3	-11,747
235,7	-10,587
236,2	-10,867
236,7	-13,187
237,1	-19,707
237,6	-21,187
238,1	-21,907
238,5	-19,667
239	-15,867
239,4	-9,827
239,9	-1,867
240,4	1,733
240,8	2,893
241,3	5,013
241,8	4,653
242,2	-1,947
242,7	-3,027
243,2	-5,107
243,6	-8,227
244,1	-6,227
244,6	-8,307
245	-11,707
245,5	-14,027
245,9	-16,347
246,4	-18,947
246,9	-15,707
247,3	-16,187
247,8	-12,987
248,3	-11,627
248,7	-12,307
249,2	-16,067
249,7	-15,427
250,1	-15,467
250,6	-18,907
251	-21,467
251,5	-20,147
252	-23,827
252,4	-27,907
252,9	-20,667
253,4	-16,667
253,8	-15,827
254,3	-11,307
254,8	-7,507
255,2	-7,987
255,7	-7,147
256,1	-7,387
256,6	-6,067
257,1	-5,947
257,5	-5,747
258	-7,147
258,5	-5,667
258,9	-5,627
259,4	-5,507
259,9	-11,787
260,3	-9,227
260,8	-7,907
261,2	-5,827
261,7	-9,107
262,2	-8,107
262,6	-7,347
263,1	-6,147
263,6	-11,347
264	-9,187
264,5	-10,187
264,9	-11,467
265,4	-17,027
265,9	-9,787
266,3	-4,907
266,8	-0,787
267,3	-2,387
267,7	-1,867
268,2	-7,707
268,7	-9,427
269,1	-9,427
269,6	-10,827
270	-8,467
270,5	-13,307
271	-15,947
271,4	-21,987
271,9	-22,507
272,4	-23,747
272,8	-18,027
273,3	-22,067
273,7	-17,347
274,2	-12,547
274,7	-15,747
275,1	-15,827
275,6	-11,787
276,1	-9,307
276,5	-8,467
277	-5,547
277,4	-3,667
277,9	-5,587
278,4	-6,507
278,8	-10,907
279,3	-10,627
279,8	-17,307
280,2	-16,387
280,7	-17,547
281,1	-18,347
281,6	-13,347
282,1	-2,507
282,5	-2,467
283	-1,747
283,4	-4,747
283,9	-6,827
284,4	-15,627
284,8	-14,307
285,3	-15,107
285,8	-9,507
286,2	-12,947
286,7	-10,467
287,1	-11,547
287,6	-11,907
288,1	-11,187
288,5	-4,707
289	-3,067
289,5	-4,147
289,9	-2,187
290,4	-4,507
290,8	-11,387
291,3	-12,747
291,8	-11,027
292,2	-11,267
292,7	-8,627
293,1	-5,867
293,6	-5,787
294,1	-6,027
294,5	-10,107
295	-9,387
295,5	-9,587
295,9	-11,627
296,4	-11,467
296,8	-6,387
297,3	-9,347
297,8	-12,307
298,2	-8,787
298,7	-8,707
299,1	-17,787
299,6	-12,987
300,1	-12,107
300,5	-12,907
301	-9,907
301,5	-4,947
301,9	-11,387
302,4	-10,227
302,8	-16,627
303,3	-19,787
303,8	-24,347
304,2	-23,547
304,7	-25,027
305,1	-23,787
305,6	-20,267
306,1	-13,187
306,5	-8,827
307	-9,267
307,4	-4,427
307,9	-4,827
308,4	0,053
308,8	-4,267
309,3	0,733
309,8	1,373
310,2	0,813
310,7	-8,027
311,1	-19,587
311,6	-19,707
312,1	-19,027
312,5	-21,707
313	-20,987
313,4	-12,507
313,9	-15,427
314,4	-17,627
314,8	-15,107
315,3	-12,187
315,7	-8,387
316,2	-10,547
316,7	-9,347
317,1	-11,307
317,6	-13,947
318	-12,667
318,5	-13,667
319	-16,667
319,4	-20,147
319,9	-15,387
320,3	-13,907
320,8	-5,947
321,3	-4,187
321,7	0,373
322,2	-1,707
322,6	-3,987
323,1	-12,667
323,6	-15,867
324	-12,147
324,5	-14,667
324,9	-16,907
325,4	-10,867
325,9	-6,827
326,3	-1,627
326,8	-2,427
327,2	-2,867
327,7	-7,907
328,2	-6,787
328,6	-13,467
329,1	-11,987
329,5	-4,827
330	-2,947
330,5	-2,187
330,9	-1,467
331,4	2,653
331,8	-5,067
332,3	-0,667
332,8	-2,387
333,2	-5,547
333,7	-8,547
334,1	-5,227
334,6	-8,227
335,1	-8,907
335,5	-8,667
336	-5,907
336,4	-8,147
336,9	-9,147
337,4	-9,187
337,8	-8,067
338,3	-9,907
338,7	-10,027
339,2	-7,387
339,7	-2,427
340,1	-5,107
340,6	-5,347
341	-0,627
341,5	-3,147
342	-3,787
342,4	0,653
342,9	2,373
343,3	-1,227
343,8	4,733
344,2	5,493
344,7	6,133
345,2	9,213
345,6	10,493
346,1	9,613
346,5	12,213
347	5,933
347,5	3,053
347,9	5,333
348,4	6,613
348,8	2,733
349,3	8,253
349,8	15,453
350,2	26,853
350,7	30,133
351,1	41,773
351,6	60,173
352	72,373
352,5	89,573
353	117,613
353,4	148,013
353,9	186,213
354,3	234,133
354,8	285,013
355,3	348,333
355,7	419,573
356,2	498,333
356,6	588,773
357,1	697,733
357,5	820,613
358	962,293
358,5	1129,693
358,9	1317,693
359,4	1528,013
359,8	1760,493
360,3	2031,933
360,8	2319,053
361,2	2649,933
361,7	3014,813
362,1	3415,333
362,6	3843,533
363	4308,093
363,5	4787,213
364	5290,773
364,4	5819,133
364,9	6352,373
365,3	6872,773
365,8	7381,773
366,3	7845,853
366,7	8253,333
367,2	8611,013
367,6	8895,173
368,1	9111,453
368,5	9240,813
369	9301,813
369,5	9278,613
369,9	9195,173
370,4	9024,013
370,8	8802,613
371,3	8521,333
371,7	8190,573
372,2	7825,973
372,7	7425,373
373,1	7008,653
373,6	6579,173
374	6148,573
374,5	5716,773
374,9	5308,813
375,4	4914,253
375,9	4532,093
376,3	4163,893
376,8	3825,093
377,2	3505,293
377,7	3205,493
378,2	2927,293
378,6	2670,573
379,1	2428,893
379,5	2215,053
380	2015,093
380,4	1839,693
380,9	1685,493
381,4	1548,493
381,8	1419,853
382,3	1312,653
382,7	1211,013
383,2	1115,853
383,6	1027,453
384,1	946,333
384,6	873,053
385	802,493
385,5	745,533
385,9	689,253
386,4	633,773
386,8	579,053
387,3	538,253
387,7	493,773
388,2	450,573
388,7	419,733
389,1	389,013
389,6	354,853
390	323,053
390,5	295,973
390,9	274,653
391,4	255,333
391,9	237,493
392,3	217,373
392,8	201,693
393,2	183,173
393,7	174,293
394,1	162,093
394,6	156,173
395,1	151,053
395,5	140,813
396	124,933
396,4	114,333
396,9	103,893
397,3	94,053
397,8	91,813
398,2	87,693
398,7	81,333
399,2	73,133
399,6	68,573
400,1	59,773
400,5	47,653
401	47,493
401,4	44,333
401,9	37,813
402,4	33,453
402,8	38,973
403,3	33,613
403,7	30,893
404,2	33,133
404,6	33,213
405,1	33,693
405,5	31,973
406	29,053
406,5	27,613
406,9	20,253
407,4	14,573
407,8	12,373
408,3	14,853
408,7	10,733
409,2	12,373
409,6	10,453
410,1	17,253
410,6	22,933
411	23,853
411,5	29,493
411,9	36,973
412,4	33,773
412,8	34,013
413,3	32,933
413,7	31,653
414,2	31,893
414,7	31,773
415,1	27,213
415,6	32,493
416	38,613
416,5	34,133
416,9	45,573
417,4	49,373
417,8	47,373
418,3	44,493
418,8	51,693
419,2	45,733
419,7	48,253
420,1	53,893
420,6	50,413
421	50,733
421,5	43,053
421,9	42,693
422,4	40,013
422,8	42,173
423,3	38,293
423,8	43,853
424,2	42,133
424,7	44,173
425,1	48,733
425,6	48,853
426	52,693
426,5	58,373
426,9	61,493
427,4	67,253
427,9	78,613
428,3	81,773
428,8	82,773
429,2	92,533
429,7	97,173
430,1	99,693
430,6	101,533
431	102,813
431,5	106,213
431,9	104,693
432,4	106,813
432,8	121,933
433,3	129,373
433,8	126,453
434,2	133,573
434,7	138,893
435,1	142,133
435,6	154,373
436	169,333
436,5	181,293
436,9	196,093
437,4	206,573
437,8	213,973
438,3	225,893
438,8	236,213
439,2	247,853
439,7	257,973
440,1	269,773
440,6	278,173
441	291,613
441,5	300,813
441,9	310,533
442,4	321,733
442,8	341,533
443,3	354,933
443,7	367,573
444,2	384,493
444,7	401,773
445,1	418,333
445,6	435,853
446	452,013
446,5	474,293
446,9	499,733
447,4	515,053
447,8	534,693
448,3	557,853
448,7	574,453
449,2	593,653
449,6	613,933
450,1	635,453
450,6	662,773
451	684,853
451,5	709,053
451,9	728,133
452,4	754,533
452,8	777,333
453,3	804,093
453,7	826,213
454,2	857,933
454,6	890,933
455,1	915,973
455,5	948,133
456	982,813
456,4	1009,773
456,9	1031,613
457,3	1065,893
457,8	1096,373
458,3	1125,973
458,7	1161,013
459,2	1196,173
459,6	1235,333
460,1	1267,733
460,5	1296,733
461	1337,533
461,4	1375,373
461,9	1405,693
462,3	1443,733
462,8	1479,373
463,2	1516,173
463,7	1546,493
464,1	1580,693
464,6	1619,293
465	1659,813
465,5	1685,933
466	1723,453
466,4	1754,933
466,9	1780,173
467,3	1819,653
467,8	1860,693
468,2	1890,373
468,7	1923,373
469,1	1956,453
469,6	1978,773
470	2001,093
470,5	2038,133
470,9	2065,693
471,4	2092,733
471,8	2126,293
472,3	2157,813
472,7	2181,933
473,2	2221,653
473,6	2252,613
474,1	2277,653
474,5	2302,693
475	2326,013
475,4	2345,733
475,9	2367,093
476,4	2392,613
476,8	2418,653
477,3	2443,013
477,7	2469,693
478,2	2498,453
478,6	2510,893
479,1	2523,853
479,5	2540,653
480	2550,133
480,4	2562,653
480,9	2585,653
481,3	2604,333
481,8	2623,013
482,2	2640,133
482,7	2651,173
483,1	2656,333
483,6	2660,613
484	2670,813
484,5	2672,733
484,9	2686,413
485,4	2697,253
485,8	2708,693
486,3	2710,973
486,7	2714,493
487,2	2709,213
487,6	2706,613
488,1	2711,173
488,5	2714,013
489	2717,893
489,4	2721,253
489,9	2723,053
490,4	2715,213
490,8	2702,733
491,3	2697,813
491,7	2690,573
492,2	2681,253
492,6	2666,533
493,1	2658,733
493,5	2649,333
494	2638,773
494,4	2635,653
494,9	2639,293
495,3	2634,253
495,8	2621,013
496,2	2609,093
496,7	2595,573
497,1	2573,653
497,6	2559,333
498	2551,733
498,5	2536,533
498,9	2517,053
499,4	2506,613
499,8	2493,733
500,3	2473,173
500,7	2456,253
501,2	2443,893
501,6	2432,813
502,1	2414,453
502,5	2398,053
503	2391,093
503,4	2375,453
503,9	2360,613
504,3	2350,173
504,8	2338,573
505,2	2313,453
505,7	2299,533
506,1	2280,373
506,6	2256,573
507	2233,893
507,5	2226,733
507,9	2202,773
508,4	2181,773
508,8	2173,573
509,3	2153,453
509,7	2135,093
510,2	2121,533
510,6	2105,213
511,1	2074,213
511,5	2061,413
512	2029,253
512,4	2013,213
512,9	1999,733
513,3	1984,373
513,8	1966,933
514,2	1958,333
514,7	1932,813
515,1	1905,813
515,6	1886,653
516	1863,653
516,5	1844,493
516,9	1834,333
517,4	1819,773
517,8	1801,653
518,3	1793,213
518,7	1778,293
519,2	1754,653
519,6	1734,093
520,1	1723,493
520,5	1703,333
521	1679,773
521,4	1655,733
521,9	1638,653
522,3	1619,133
522,8	1602,573
523,2	1588,693
523,7	1578,293
524,1	1563,933
524,6	1538,333
525	1521,053
525,5	1504,333
525,9	1489,773
526,4	1483,893
526,8	1474,533
527,3	1456,613
527,7	1441,853
528,2	1424,173
528,6	1403,293
529,1	1395,773
529,5	1386,693
530	1366,093
530,4	1354,733
530,9	1336,733
531,3	1312,933
531,8	1298,773
532,2	1291,013
532,6	1277,933
533,1	1264,133
533,5	1255,933
534	1237,933
534,4	1227,893
534,9	1210,373
535,3	1201,373
535,8	1185,333
536,2	1174,973
536,7	1157,493
537,1	1155,573
537,6	1139,093
538	1130,493
538,5	1121,533
538,9	1107,133
539,4	1092,653
539,8	1087,573
540,3	1079,093
540,7	1064,253
541,2	1059,413
541,6	1051,413
542,1	1033,453
542,5	1017,533
543	1002,293
543,4	988,573
543,9	968,213
544,3	964,133
544,8	957,493
545,2	950,213
545,7	943,493
546,1	939,653
546,5	929,853
547	920,133
547,4	910,893
547,9	902,613
548,3	893,533
548,8	882,013
549,2	873,773
549,7	871,653
550,1	866,773
550,6	861,613
551	854,693
551,5	848,213
551,9	829,453
552,4	815,333
552,8	805,573
553,3	801,893
553,7	795,853
554,2	791,253
554,6	787,133
555,1	782,133
555,5	776,053
555,9	771,213
556,4	762,973
556,8	763,173
557,3	756,293
557,7	746,893
558,2	736,533
558,6	738,253
559,1	723,453
559,5	720,133
560	709,813
560,4	704,653
560,9	692,533
561,3	691,533
561,8	682,533
562,2	679,613
562,7	674,413
563,1	674,093
563,6	665,973
564	660,413
564,4	657,333
564,9	653,733
565,3	643,893
565,8	639,693
566,2	631,693
566,7	628,613
567,1	623,013
567,6	618,133
568	613,293
568,5	609,973
568,9	604,293
569,4	596,533
569,8	593,053
570,3	588,933
570,7	584,813
571,1	579,373
571,6	579,933
572	577,533
572,5	579,213
572,9	566,853
573,4	561,933
573,8	547,893
574,3	546,653
574,7	531,893
575,2	527,413
575,6	524,653
576,1	527,533
576,5	522,573
576,9	521,813
577,4	523,893
577,8	515,373
578,3	509,533
578,7	506,333
579,2	494,733
579,6	496,653
580,1	492,013
580,5	493,333
581	484,893
581,4	492,573
581,9	481,373
582,3	478,973
582,7	468,733
583,2	465,253
583,6	455,293
584,1	450,853
584,5	446,373
585	441,613
585,4	441,253
585,9	439,413
586,3	435,333
586,8	439,333
587,2	436,333
587,6	423,973
588,1	421,333
588,5	421,773
589	414,733
589,4	409,213
589,9	413,973
590,3	409,293
590,8	402,573
591,2	396,333
591,7	399,053
592,1	397,253
592,5	393,693
593	392,853
593,4	389,213
593,9	381,493
594,3	377,813
594,8	379,773
595,2	383,013
595,7	379,693
596,1	385,733
596,6	383,653
597	379,173
597,4	368,853
597,9	370,293
598,3	367,013
598,8	365,613
599,2	364,813
599,7	369,853
600,1	366,253
600,6	357,813
601	351,973
601,4	353,253
601,9	346,013
602,3	344,093
602,8	338,653
603,2	335,933
603,7	328,853
604,1	331,613
604,6	329,373
605	334,133
605,4	332,773
605,9	325,493
606,3	324,533
606,8	321,933
607,2	316,133
607,7	314,253
608,1	320,493
608,6	313,293
609	310,493
609,4	310,173
609,9	306,933
610,3	300,293
610,8	297,933
611,2	290,733
611,7	289,493
612,1	292,373
612,6	290,733
613	293,453
613,4	300,333
613,9	299,933
614,3	292,973
614,8	288,853
615,2	285,053
615,7	275,973
616,1	271,093
616,6	272,053
617	270,613
617,4	271,213
617,9	275,573
618,3	275,693
618,8	270,813
619,2	275,773
619,7	272,893
620,1	263,693
620,5	260,973
621	261,133
621,4	253,773
621,9	249,093
622,3	247,853
622,8	248,933
623,2	244,853
623,6	244,893
624,1	242,733
624,5	243,133
625	231,373
625,4	228,373
625,9	225,253
626,3	225,253
626,8	228,173
627,2	231,733
627,6	233,493
628,1	232,333
628,5	225,213
629	224,293
629,4	225,013
629,9	220,773
630,3	217,413
630,7	220,333
631,2	212,333
631,6	212,933
632,1	212,773
632,5	211,133
633	209,133
633,4	209,573
633,8	205,333
634,3	206,333
634,7	210,893
635,2	210,653
635,6	210,853
636,1	212,453
636,5	215,933
636,9	208,093
637,4	203,973
637,8	205,653
638,3	197,453
638,7	185,653
639,2	182,373
639,6	181,493
640	175,293
640,5	178,253
640,9	177,613
641,4	178,773
641,8	178,413
642,2	178,693
642,7	175,053
643,1	178,413
643,6	177,733
644	174,813
644,5	178,333
644,9	184,373
645,3	180,693
645,8	177,213
646,2	173,973
646,7	169,253
647,1	166,973
647,6	162,493
648	162,493
648,4	168,773
648,9	167,733
649,3	158,413
649,8	162,093
650,2	159,053
650,6	149,733
651,1	152,973
651,5	153,973
652	157,133
652,4	158,253
652,9	159,253
653,3	157,373
653,7	158,853
654,2	157,053
654,6	160,053
655,1	159,333
655,5	151,973
655,9	147,573
656,4	141,173
656,8	132,933
657,3	133,173
657,7	136,653
658,2	134,773
658,6	133,453
659	136,693
659,5	140,493
659,9	134,973
660,4	136,973
660,8	140,173
661,2	138,733
661,7	132,733
662,1	140,173
662,6	139,573
663	133,733
663,4	131,613
663,9	125,573
664,3	115,533
664,8	116,253
665,2	115,493
665,6	122,053
666,1	124,613
666,5	123,613
667	125,213
667,4	120,373
667,9	113,613
668,3	115,093
668,7	116,653
669,2	111,933
669,6	117,453
670,1	118,573
670,5	118,573
670,9	117,653
671,4	122,973
671,8	126,533
672,3	124,333
672,7	126,933
673,1	121,893
673,6	111,853
674	106,653
674,5	104,013
674,9	95,013
675,3	100,853
675,8	104,133
676,2	102,933
676,7	107,493
677,1	112,413
677,5	107,253
678	105,293
678,4	108,653
678,9	103,093
679,3	100,893
679,7	101,573
680,2	99,093
680,6	91,173
681,1	89,533
681,5	91,413
681,9	94,333
682,4	96,453
682,8	102,573
683,3	107,853
683,7	102,413
684,1	99,893
684,6	101,333
685	99,333
685,5	92,693
685,9	95,453
686,3	92,133
686,8	81,053
687,2	72,533
687,7	76,533
688,1	75,613
688,5	80,693
689	88,053
689,4	92,333
689,9	91,573
690,3	87,933
690,7	80,853
691,2	76,733
691,6	73,533
692	73,933
692,5	81,133
692,9	82,533
693,4	84,853
693,8	86,813
694,2	87,413
694,7	80,853
695,1	80,133
695,6	81,653
696	85,893
696,4	83,093
696,9	82,973
697,3	88,773
697,8	91,053
698,2	88,573
698,6	85,893
699,1	82,933
699,5	78,573
699,9	70,013
700,4	67,733
700,8	64,813
701,3	62,053
701,7	61,253
702,1	60,333
702,6	57,173
703	62,173
703,5	67,333
703,9	65,853
704,3	72,013
704,8	80,173
705,2	78,213
705,6	82,453
706,1	78,973
706,5	68,893
707	63,933
707,4	61,893
707,8	48,413
708,3	54,853
708,7	66,653
709,2	63,093
709,6	63,213
710	68,573
710,5	65,773
710,9	51,293
711,3	50,613
711,8	48,933
712,2	52,253
712,7	50,213
713,1	59,413
713,5	60,573
714	61,333
714,4	54,813
714,8	55,573
715,3	54,493
715,7	57,853
716,2	55,333
716,6	55,013
717	60,173
717,5	60,413
717,9	58,813
718,3	58,493
718,8	64,613
719,2	59,093
719,7	56,293
720,1	52,093
720,5	54,733
721	45,813
721,4	45,333
721,8	42,373
722,3	43,493
722,7	36,333
723,2	44,813
723,6	44,813
724	47,933
724,5	47,573
724,9	58,293
725,3	56,693
725,8	55,293
726,2	55,133
726,7	54,053
727,1	52,053
727,5	52,733
728	49,333
728,4	48,293
728,8	50,733
729,3	50,253
729,7	47,973
730,1	43,733
730,6	40,813
731	41,413
731,5	39,773
731,9	38,253
732,3	47,293
732,8	47,333
733,2	47,293
733,6	48,973
734,1	49,493
734,5	48,693
734,9	53,013
735,4	50,933
735,8	45,213
736,3	47,253
736,7	47,773
737,1	48,133
737,6	50,733
738	50,533
738,4	46,333
738,9	43,853
739,3	44,093
739,7	38,053
740,2	39,133
740,6	41,933
741,1	43,133
741,5	38,733
741,9	43,053
742,4	37,893
742,8	37,613
743,2	36,293
743,7	36,813
744,1	36,733
744,5	40,493
745	41,173
745,4	39,613
745,8	44,093
746,3	43,933
746,7	38,173
747,2	34,373
747,6	35,813
748	33,493
748,5	35,133
748,9	42,493
749,3	41,493
749,8	36,853
750,2	32,093
750,6	30,053
751,1	29,733
751,5	33,173
751,9	35,933
752,4	41,653
752,8	40,213
753,3	37,173
753,7	35,293
754,1	36,133
754,6	37,173
755	32,653
755,4	36,893
755,9	39,453
756,3	32,573
756,7	26,813
757,2	28,533
757,6	24,973
758	22,773
758,5	24,253
758,9	27,533
759,3	30,213
759,8	30,653
760,2	29,653
760,6	34,973
761,1	26,813
761,5	26,893
761,9	28,933
762,4	26,093
762,8	27,413
763,3	31,453
763,7	29,573
764,1	25,813
764,6	30,893
765	29,333
765,4	25,853
765,9	24,173
766,3	22,253
766,7	16,813
767,2	18,893
767,6	21,853
768	25,213
768,5	27,093
768,9	32,493
769,3	31,453
769,8	28,653
770,2	20,573
770,6	22,053
771,1	20,053
771,5	13,653
771,9	20,173
772,4	29,333
772,8	35,853
773,2	32,133
773,7	33,933
774,1	33,973
774,5	24,733
775	15,053
775,4	18,933
775,8	19,613
776,3	14,773
776,7	21,693
777,1	21,213
777,6	22,773
778	20,973
778,4	28,333
778,9	22,773
779,3	17,853
779,7	14,733
780,2	18,013
780,6	10,213
781	15,213
781,5	22,693
781,9	19,853
782,3	17,093
782,8	17,453
783,2	19,053
783,6	20,373
784,1	20,933
784,5	19,213
784,9	19,413
785,4	18,773
785,8	15,533
786,2	8,133
786,7	10,813
787,1	7,053
787,5	2,653
788	6,293
788,4	14,773
788,8	15,093
789,3	19,453
789,7	24,453
790,1	23,653
790,6	21,253
791	13,973
791,4	16,013
791,9	8,053
792,3	7,773
792,7	6,693
793,2	13,693
793,6	8,453
794	10,413
794,5	11,093
794,9	13,453
795,3	13,053
795,8	20,213
796,2	22,373
796,6	19,973
797,1	18,213
797,5	15,413
797,9	9,813
798,4	14,053
798,8	15,093
799,2	17,133
799,7	13,853
800,1	13,573
800,5	9,213
801	2,813
801,4	0,333
801,8	4,653
802,2	8,253
802,7	9,733
803,1	13,893
803,5	13,453
804	15,413
804,4	8,613
804,8	6,373
805,3	5,493
805,7	7,893
806,1	9,013
806,6	14,413
807	13,613
807,4	12,533
807,9	13,573
808,3	11,693
808,7	5,933
809,2	8,933
809,6	9,653
810	6,453
810,4	5,573
810,9	7,933
811,3	2,853
811,7	7,773
812,2	13,413
812,6	8,693
813	9,933
813,5	16,293
813,9	10,493
814,3	7,693
814,8	9,533
815,2	5,333
815,6	-2,307
816,1	1,893
816,5	-1,507
816,9	3,253
817,3	6,653
817,8	7,533
818,2	-0,507
818,6	-1,387
819,1	-6,947
819,5	-0,187
819,9	0,573
820,4	7,933
820,8	11,573
821,2	12,013
821,7	10,493
822,1	13,653
822,5	7,573
822,9	3,693
823,4	7,693
823,8	5,613
824,2	2,893
824,7	1,373
825,1	1,053
825,5	-1,467
826	-3,547
826,4	-6,867
826,8	0,413
827,3	2,813
827,7	-2,827
828,1	-1,467
828,5	0,653
829	-3,947
829,4	-2,587
829,8	2,733
830,3	3,853
830,7	9,293
831,1	7,853
831,6	7,373
832	7,613
832,4	4,853
832,8	0,933
833,3	5,373
833,7	6,333
834,1	3,173
834,6	-0,267
835	2,013
835,4	-1,107
835,8	-3,387
836,3	1,093
836,7	5,093
837,1	1,093
837,6	0,893
838	0,453
838,4	-5,547
838,9	-10,867
839,3	-8,387
839,7	-2,627
840,1	5,093
840,6	6,893
841	10,893
841,4	11,613
841,9	11,133
842,3	1,413
842,7	1,453
843,1	-2,747
843,6	-8,827
844	-13,947
844,4	-10,067
844,9	-7,027
845,3	-2,667
845,7	2,293
846,2	3,773
846,6	3,293
847	-2,227
847,4	-10,067
847,9	-9,787
848,3	-10,867
848,7	-15,107
849,2	-10,507
849,6	-10,227
850	-8,667
850,4	-10,867
850,9	-4,787
851,3	-2,587
851,7	-0,267
852,2	-1,627
852,6	5,653
853	5,293
853,4	2,413
853,9	5,133
854,3	5,493
854,7	0,813
855,2	-2,467
855,6	0,933
856	2,773
856,4	2,173
856,9	-0,747
857,3	-5,987
857,7	-9,267
858,2	-9,587
858,6	-8,947
859	-11,947
859,4	-3,227
859,9	-6,947
860,3	-6,667
860,7	-10,507
861,1	-2,267
861,6	-1,387
862	-2,547
862,4	-3,227
862,9	-5,267
863,3	-6,587
863,7	-11,507
864,1	-9,107
864,6	-4,627
865	-2,187
865,4	-4,467
865,9	-6,787
866,3	-8,307
866,7	-10,907
867,1	-6,707
867,6	-7,987
868	-3,267
868,4	2,373
868,8	2,853
869,3	-3,227
869,7	0,173
870,1	-3,227
870,6	-9,427
871	-6,507
871,4	24,733
871,8	17,173
872,3	19,613
872,7	21,413
873,1	20,893
873,5	-2,747
874	4,053
874,4	5,573
874,8	4,093
875,3	-1,387
875,7	-3,587
876,1	-6,467
876,5	-12,427
877	-3,667
877,4	-5,667
877,8	-6,387
878,2	-4,387
878,7	2,653
879,1	1,253
879,5	6,533
879,9	4,893
880,4	8,093
880,8	3,373
881,2	-0,587
881,7	-3,507
882,1	-2,787
882,5	-7,547
882,9	-3,747
883,4	-3,747
883,8	-2,987
884,2	0,293
884,6	3,173
885,1	3,133
885,5	2,253
885,9	1,293
886,3	-6,067
886,8	-8,467
887,2	-13,147
887,6	-11,867
888	-16,587
888,5	-11,347
888,9	-10,107
889,3	-7,307
889,8	-5,867
890,2	-0,947
890,6	-3,067
891	-9,467
891,5	-11,547
891,9	-16,747
892,3	-18,827
892,7	-15,067
893,2	-5,347
893,6	-6,027
894	-2,347
894,4	-2,547
894,9	-4,267
895,3	-7,747
895,7	-4,587
896,1	-5,267
896,6	-1,587
897	-4,907
897,4	-4,027
897,8	-1,067
898,3	-0,587
898,7	3,653
899,1	1,093
899,5	-1,267
900	-9,547
900,4	-6,507
900,8	-14,387
901,2	-8,027
901,7	-8,307
902,1	-7,627
902,5	-11,587
902,9	-10,667
903,4	-9,787
903,8	-6,227
904,2	-0,027
904,6	-3,907
905,1	1,093
905,5	-6,307
905,9	-6,947
906,3	-13,947
906,8	-6,587
907,2	-12,867
907,6	-8,707
908	-9,307
908,5	-4,787
908,9	-9,947
909,3	-9,347
909,7	-10,347
910,2	-8,227
910,6	-11,147
911	-6,627
911,4	-6,827
911,9	-7,147
912,3	-13,787
912,7	-8,867
913,1	-9,707
913,6	-5,387
914	-9,707
914,4	-8,387
914,8	-13,867
915,3	-16,027
915,7	-19,027
916,1	-17,787
916,5	-13,187
916,9	-8,947
917,4	-6,947
917,8	-9,827
918,2	-2,627
918,6	-6,707
919,1	-8,827
919,5	-10,667
919,9	-5,987
920,3	-7,147
920,8	-7,587
921,2	-10,507
921,6	-13,067
922	-19,827
922,5	-21,547
922,9	-21,267
923,3	-15,787
923,7	-11,507
924,2	-3,427
924,6	-6,067
925	-4,147
925,4	-5,347
925,8	-7,147
926,3	-10,387
926,7	-9,987
927,1	-10,067
927,5	-7,067
928	-10,067
928,4	-10,587
928,8	-5,187
929,2	-5,787
929,7	-6,547
930,1	-2,467
930,5	-0,747
930,9	-3,267
931,3	-2,347
931,8	-11,547
932,2	-10,387
932,6	-16,427
933	-20,147
933,5	-23,787
933,9	-12,907
934,3	-16,427
934,7	-12,107
935,2	-7,027
935,6	-4,027
936	-14,627
936,4	-16,587
936,8	-19,587
937,3	-22,587
937,7	-19,227
938,1	-14,547
938,5	-8,187
939	-6,227
939,4	-5,667
939,8	-10,307
940,2	-10,307
940,6	-14,427
941,1	-19,307
941,5	-19,627
941,9	-22,427
942,3	-21,627
942,8	-19,987
943,2	-7,747
943,6	-9,907
944	-3,707
944,4	-4,747
944,9	-3,627
945,3	-9,027
945,7	-7,067
946,1	-12,187
946,6	-17,187
947	-16,747
947,4	-17,667
947,8	-14,027
948,2	-10,147
948,7	-1,547
949,1	-1,307
949,5	-1,587
949,9	-5,547
950,3	-7,227
950,8	-9,667
951,2	-12,427
951,6	-11,947
952	-8,147
952,5	-4,987
952,9	-3,347
953,3	-11,227
953,7	-12,507
954,1	-17,747
954,6	-19,627
955	-16,547
955,4	-10,067
955,8	-5,507
956,2	-4,147
956,7	-10,027
957,1	-17,587
957,5	-16,947
957,9	-16,667
958,3	-14,587
958,8	-5,187
959,2	-0,427
959,6	2,413
960	0,733
960,5	0,253
960,9	-5,907
961,3	-5,947
961,7	-4,347
962,1	-3,947
962,6	-5,787
963	0,013
963,4	1,773
963,8	-0,107
964,2	-6,947
964,7	-6,827
965,1	-15,187
965,5	-21,867
965,9	-22,947
966,3	-14,467
966,8	-12,947
967,2	-14,067
967,6	-10,387
968	-12,227
968,4	-17,907
968,9	-17,587
969,3	-5,907
969,7	-5,267
970,1	-8,547
970,5	-7,467
971	-9,467
971,4	-12,227
971,8	-13,787
972,2	-8,547
972,6	-9,947
973,1	-10,347
973,5	-15,427
973,9	-18,787
974,3	-18,507
974,7	-12,147
975,2	-13,627
975,6	-14,387
976	-10,227
976,4	-13,987
976,8	-14,547
977,3	-14,587
977,7	-9,507
978,1	-5,547
978,5	-2,587
978,9	-10,747
979,4	-7,187
979,8	-4,667
980,2	-9,027
980,6	-7,067
981	2,933
981,5	7,933
981,9	0,973
982,3	3,533
982,7	-0,467
983,1	-5,467
983,6	-6,147
984	3,853
984,4	2,333
984,8	5,693
985,2	7,893
985,6	5,413
986,1	-7,747
986,5	-7,707
986,9	-9,907
987,3	-12,147
987,7	-15,067
988,2	-9,827
988,6	-12,267
989	-15,067
989,4	-18,027
989,8	-19,787
990,3	-25,907
990,7	-28,347
991,1	-22,027
991,5	-17,027
991,9	-10,707
992,3	-7,027
992,8	0,613
993,2	3,493
993,6	3,253
994	-2,627
994,4	1,213
994,9	-1,187
995,3	-7,747
995,7	-8,867
996,1	-5,147
996,5	-3,867
996,9	-10,187
997,4	-13,227
997,8	-19,787
998,2	-24,027
998,6	-28,147
999	-18,987
999,5	-17,107
999,9	-11,147
1000,3	-8,747
1000,7	-10,067
1001,1	-16,307
1001,5	-15,547
1002	-20,427
1002,4	-23,267
1002,8	-22,267
1003,2	-24,787
1003,6	-20,627
1004	-13,307
1004,5	-14,707
1004,9	-11,387
1005,3	-12,587
1005,7	-19,067
1006,1	-23,427
1006,6	-22,267
1007	-23,827
1007,4	-13,307
1007,8	-11,107
1008,2	-11,907
1008,6	-7,347
1009,1	-8,307
1009,5	-12,427
1009,9	-12,987
1010,3	-10,027
1010,7	-13,107
1011,1	-10,147
1011,6	-6,027
1012	-6,067
1012,4	-5,147
1012,8	-4,267
1013,2	-6,307
1013,6	-11,027
1014,1	-7,507
1014,5	-7,827
1014,9	-8,707
1015,3	-8,947
1015,7	-8,387
1016,1	-16,427
1016,6	-18,267
1017	-16,627
1017,4	-12,427
1017,8	-10,907
1018,2	0,013
1018,6	-0,387
1019,1	1,053
1019,5	-5,507
1019,9	-9,187
1020,3	-12,987
1020,7	-16,947
1021,1	-18,547
1021,6	-18,147
1022	-16,187
1022,4	-15,867
1022,8	-8,707
1023,2	-8,627
1023,6	-11,067
1024,1	-15,787
1024,5	-19,747
1024,9	-28,027
1025,3	-26,707
1025,7	-20,307
1026,1	-15,867
1026,6	-13,467
1027	-7,187
1027,4	-9,707
1027,8	-9,347
1028,2	-10,707
1028,6	-11,027
1029	-14,947
1029,5	-19,387
1029,9	-21,587
1030,3	-25,227
1030,7	-23,667
1031,1	-22,587
1031,5	-22,667
1032	-20,867
1032,4	-17,827
1032,8	-15,027
1033,2	-17,307
1033,6	-17,387
1034	-16,867
1034,4	-16,027
1034,9	-19,587
1035,3	-17,067
1035,7	-12,827
1036,1	-12,547
1036,5	-10,187
1036,9	-9,307
1037,4	-13,587
1037,8	-5,507
1038,2	-9,987
1038,6	-13,547
1039	-13,067
1039,4	-8,307
1039,8	-17,827
1040,3	-19,907
1040,7	-14,987
1041,1	-14,787
1041,5	-16,027
1041,9	-14,587
1042,3	-11,587
1042,7	-12,307
1043,2	-14,667
1043,6	-9,827
1044	-7,107
1044,4	-3,827
1044,8	-5,787
1045,2	-8,067
1045,6	-9,067
1046,1	-10,307
1046,5	-8,347
1046,9	-13,587
1047,3	-9,107
1047,7	-10,667
1048,1	-13,267
1048,5	-26,347
1049	-21,827
1049,4	-26,147
1049,8	-24,787
1050,2	-17,147
1050,6	-4,267
1051	-3,067
1051,4	1,453
1051,9	-1,507
1052,3	-11,067
1052,7	-15,227
1053,1	-12,787
1053,5	-22,947
1053,9	-17,667
1054,3	-19,587
1054,8	-23,067
1055,2	-25,787
1055,6	-18,907
1056	-22,667
1056,4	-16,467
1056,8	-10,227
1057,2	-7,907
1057,6	-3,787
1058,1	-6,867
1058,5	-9,387
1058,9	-10,947
1059,3	-10,387
1059,7	-15,227
1060,1	-10,587
1060,5	-11,147
1061	-15,547
1061,4	-21,307
1061,8	-15,187
1062,2	-18,107
1062,6	-14,427
1063	-13,747
1063,4	-15,987
1063,8	-18,867
1064,3	-22,587
1064,7	-23,907
1065,1	-19,627
1065,5	-11,187
1065,9	-15,387
1066,3	-10,227
1066,7	-8,947
1067,1	-14,867
1067,6	-19,067
1068	-14,547
1068,4	-11,627
1068,8	-13,547
1069,2	-6,027
1069,6	-4,707
1070	-0,427
1070,4	-3,547
1070,9	-9,747
1071,3	-12,147
1071,7	-13,227
1072,1	-22,667
1072,5	-24,787
1072,9	-23,147
1073,3	-22,387
1073,7	-23,507
1074,2	-24,947
1074,6	-23,347
1075	-22,987
1075,4	-19,587
1075,8	-23,947
1076,2	-20,147
1076,6	-18,187
1077	-12,187
1077,5	-20,267
1077,9	-17,387
1078,3	-16,707
1078,7	-17,947
1079,1	-22,187
1079,5	-22,227
1079,9	-17,587
1080,3	-14,227
1080,7	-13,067
1081,2	-13,747
1081,6	-6,227
1082	-11,507
1082,4	-15,827
1082,8	-15,987
1083,2	-9,347
1083,6	-14,547
1084	-9,627
1084,5	-11,467
1084,9	-12,227
1085,3	-16,987
1085,7	-14,507
1086,1	-19,747
1086,5	-20,947
1086,9	-22,307
1087,3	-22,787
1087,7	-23,027
1088,2	-20,427
1088,6	-16,467
1089	-21,827
1089,4	-22,307
1089,8	-24,307
1090,2	-24,347
1090,6	-20,827
1091	-14,707
1091,4	-11,747
1091,9	-9,787
1092,3	-6,427
1092,7	-9,587
1093,1	-9,467
1093,5	-11,387
1093,9	-9,467
1094,3	-11,987
1094,7	-11,067
1095,1	-2,787
1095,5	-1,987
1096	-8,947
1096,4	-9,547
1096,8	-8,547
1097,2	-14,867
1097,6	-16,747
1098	-9,547
1098,4	-11,067
1098,8	-4,987
1099,2	-5,827
1099,6	-3,187
1100,1	-4,267
1100,5	0,093
1100,9	-4,547
1101,3	-4,867
1101,7	-8,987
1102,1	-12,147
1102,5	-13,307
1102,9	-15,907
1103,3	-15,387
1103,7	-11,987
1104,2	-9,587
1104,6	-11,067
1105	-10,467
1105,4	-12,827
1105,8	-10,867
1106,2	-10,387
1106,6	-8,067
1107	-6,707
1107,4	-1,827
1107,8	-0,717
1108,3	-0,8
