Data from Subt2_00061.txt Node
Date: Fri Aug 11 16:20:52 MSK 2023
User: vat
Spectrometer: MAYP114033
Trigger mode: 0
Integration Time (sec): 5,000000E-1
Scans to average: 5
Electric dark correction enabled: true
Nonlinearity correction enabled: false
Boxcar width: 2
XAxis mode: Wavelengths
Number of Pixels in Spectrum: 2068
>>>>>Begin Spectral Data<<<<<
199,4	-0,8
199,9	-0,683
200,4	-9,213
200,8	-14,573
201,3	-20,653
201,8	-23,693
202,2	-23,813
202,7	-20,533
203,2	-18,893
203,6	-17,533
204,1	-22,173
204,6	-27,213
205	-28,293
205,5	-29,253
206	-25,973
206,4	-24,853
206,9	-23,933
207,4	-22,813
207,8	-22,493
208,3	-26,093
208,8	-25,373
209,2	-26,853
209,7	-32,293
210,2	-28,173
210,6	-31,213
211,1	-33,173
211,5	-29,093
212	-26,893
212,5	-32,733
212,9	-33,693
213,4	-33,293
213,9	-35,973
214,3	-33,893
214,8	-36,413
215,3	-35,613
215,7	-34,733
216,2	-34,773
216,7	-36,653
217,1	-34,453
217,6	-31,773
218,1	-37,573
218,5	-42,733
219	-39,373
219,5	-36,613
219,9	-38,853
220,4	-32,293
220,9	-25,133
221,3	-31,773
221,8	-34,773
222,3	-36,933
222,7	-34,493
223,2	-39,453
223,6	-39,453
224,1	-41,813
224,6	-37,893
225	-45,933
225,5	-42,973
226	-36,213
226,4	-33,693
226,9	-37,253
227,4	-32,653
227,8	-35,293
228,3	-41,333
228,8	-43,933
229,2	-40,293
229,7	-44,373
230,2	-42,293
230,6	-34,933
231,1	-38,933
231,5	-41,813
232	-41,453
232,5	-43,013
232,9	-52,413
233,4	-45,893
233,9	-48,213
234,3	-45,413
234,8	-41,653
235,3	-35,133
235,7	-35,253
236,2	-30,613
236,7	-33,493
237,1	-44,053
237,6	-42,933
238,1	-40,053
238,5	-42,573
239	-41,293
239,4	-40,613
239,9	-41,413
240,4	-43,773
240,8	-41,253
241,3	-39,373
241,8	-34,373
242,2	-31,253
242,7	-33,333
243,2	-31,093
243,6	-31,253
244,1	-33,653
244,6	-33,293
245	-30,453
245,5	-36,293
245,9	-35,653
246,4	-28,653
246,9	-34,213
247,3	-36,213
247,8	-37,373
248,3	-37,613
248,7	-40,813
249,2	-44,413
249,7	-43,653
250,1	-44,253
250,6	-47,613
251	-51,413
251,5	-51,013
252	-53,453
252,4	-52,173
252,9	-47,053
253,4	-44,573
253,8	-36,213
254,3	-33,373
254,8	-34,613
255,2	-34,853
255,7	-31,733
256,1	-39,093
256,6	-39,413
257,1	-35,613
257,5	-36,613
258	-39,333
258,5	-37,133
258,9	-37,333
259,4	-35,533
259,9	-36,973
260,3	-36,973
260,8	-35,093
261,2	-30,413
261,7	-28,293
262,2	-27,973
262,6	-28,813
263,1	-29,533
263,6	-34,973
264	-36,973
264,5	-38,973
264,9	-40,293
265,4	-42,973
265,9	-41,253
266,3	-40,053
266,8	-35,453
267,3	-34,853
267,7	-34,973
268,2	-37,413
268,7	-38,973
269,1	-41,613
269,6	-42,333
270	-40,973
270,5	-46,493
271	-47,253
271,4	-51,213
271,9	-52,173
272,4	-48,133
272,8	-43,893
273,3	-44,413
273,7	-41,013
274,2	-30,853
274,7	-37,653
275,1	-35,813
275,6	-34,573
276,1	-32,453
276,5	-38,253
277	-30,133
277,4	-29,853
277,9	-30,493
278,4	-30,213
278,8	-31,093
279,3	-34,373
279,8	-35,053
280,2	-35,373
280,7	-35,493
281,1	-33,693
281,6	-34,613
282,1	-27,173
282,5	-27,253
283	-28,893
283,4	-30,893
283,9	-30,173
284,4	-35,453
284,8	-31,653
285,3	-31,093
285,8	-32,733
286,2	-32,173
286,7	-31,573
287,1	-33,293
287,6	-36,493
288,1	-31,093
288,5	-32,453
289	-33,853
289,5	-38,493
289,9	-31,253
290,4	-32,013
290,8	-29,853
291,3	-31,653
291,8	-28,093
292,2	-27,653
292,7	-28,973
293,1	-33,373
293,6	-28,853
294,1	-30,773
294,5	-39,493
295	-37,853
295,5	-34,613
295,9	-33,733
296,4	-35,813
296,8	-26,213
297,3	-29,893
297,8	-33,173
298,2	-40,133
298,7	-34,453
299,1	-43,133
299,6	-38,413
300,1	-37,533
300,5	-31,653
301	-30,973
301,5	-27,733
301,9	-32,613
302,4	-36,773
302,8	-40,493
303,3	-44,453
303,8	-48,173
304,2	-51,173
304,7	-43,933
305,1	-42,253
305,6	-40,213
306,1	-36,933
306,5	-30,373
307	-32,733
307,4	-36,653
307,9	-34,853
308,4	-31,773
308,8	-30,973
309,3	-27,813
309,8	-26,853
310,2	-28,573
310,7	-34,733
311,1	-45,453
311,6	-45,733
312,1	-40,053
312,5	-42,213
313	-39,333
313,4	-38,973
313,9	-41,133
314,4	-45,133
314,8	-41,133
315,3	-38,533
315,7	-31,133
316,2	-33,213
316,7	-29,573
317,1	-29,413
317,6	-34,333
318	-33,373
318,5	-32,373
319	-38,013
319,4	-45,613
319,9	-38,813
320,3	-36,013
320,8	-31,093
321,3	-29,413
321,7	-22,053
322,2	-23,773
322,6	-24,253
323,1	-32,093
323,6	-31,933
324	-35,373
324,5	-41,333
324,9	-48,893
325,4	-43,093
325,9	-40,453
326,3	-35,453
326,8	-34,493
327,2	-32,733
327,7	-34,853
328,2	-40,373
328,6	-42,253
329,1	-41,533
329,5	-36,253
330	-39,213
330,5	-39,333
330,9	-41,253
331,4	-37,413
331,8	-42,533
332,3	-39,653
332,8	-35,093
333,2	-43,533
333,7	-45,973
334,1	-42,453
334,6	-44,133
335,1	-42,053
335,5	-33,933
336	-34,533
336,4	-36,253
336,9	-32,973
337,4	-35,013
337,8	-32,133
338,3	-30,133
338,7	-33,053
339,2	-32,333
339,7	-29,133
340,1	-35,653
340,6	-34,493
341	-28,253
341,5	-27,653
342	-30,293
342,4	-25,973
342,9	-29,253
343,3	-37,413
343,8	-40,373
344,2	-36,693
344,7	-36,893
345,2	-34,813
345,6	-31,093
346,1	-26,533
346,5	-28,533
347	-31,813
347,5	-38,693
347,9	-35,053
348,4	-40,373
348,8	-44,893
349,3	-38,933
349,8	-33,973
350,2	-25,693
350,7	-22,653
351,1	-20,653
351,6	-19,693
352	-18,533
352,5	-21,253
353	-20,133
353,4	-13,293
353,9	-5,893
354,3	2,787
354,8	3,387
355,3	19,347
355,7	26,667
356,2	28,267
356,6	35,827
357,1	55,907
357,5	68,467
358	91,747
358,5	115,987
358,9	146,187
359,4	172,067
359,8	200,947
360,3	241,827
360,8	288,147
361,2	337,627
361,7	392,667
362,1	455,067
362,6	518,747
363	585,907
363,5	664,107
364	741,347
364,4	824,787
364,9	902,907
365,3	990,347
365,8	1068,107
366,3	1143,787
366,7	1207,947
367,2	1269,187
367,6	1312,987
368,1	1348,387
368,5	1374,867
369	1388,827
369,5	1389,147
369,9	1384,227
370,4	1359,947
370,8	1334,027
371,3	1303,027
371,7	1260,907
372,2	1213,627
372,7	1159,827
373,1	1095,587
373,6	1028,067
374	966,627
374,5	901,027
374,9	839,627
375,4	781,147
375,9	721,467
376,3	659,227
376,8	606,787
377,2	561,547
377,7	512,907
378,2	466,187
378,6	423,587
379,1	381,027
379,5	340,827
380	302,907
380,4	277,067
380,9	254,387
381,4	234,427
381,8	213,267
382,3	202,427
382,7	186,307
383,2	169,267
383,6	154,187
384,1	141,627
384,6	122,147
385	106,507
385,5	98,347
385,9	85,587
386,4	75,427
386,8	67,387
387,3	65,627
387,7	57,867
388,2	48,027
388,7	42,747
389,1	38,787
389,6	29,947
390	21,147
390,5	16,747
390,9	11,147
391,4	5,627
391,9	3,987
392,3	3,027
392,8	10,067
393,2	5,307
393,7	7,627
394,1	7,347
394,6	7,187
395,1	-0,773
395,5	0,907
396	-1,133
396,4	-6,813
396,9	-7,693
397,3	-7,053
397,8	-5,213
398,2	-9,693
398,7	-8,053
399,2	-9,133
399,6	-10,213
400,1	-9,293
400,5	-10,373
401	-12,933
401,4	-14,733
401,9	-15,093
402,4	-23,533
402,8	-24,693
403,3	-23,613
403,7	-23,013
404,2	-21,813
404,6	-19,533
405,1	-13,613
405,5	-11,653
406	-11,973
406,5	-13,893
406,9	-9,413
407,4	-7,853
407,8	-4,173
408,3	-0,253
408,7	0,147
409,2	-3,093
409,6	-5,613
410,1	-5,773
410,6	-3,893
411	-1,653
411,5	8,507
411,9	18,387
412,4	26,467
412,8	27,547
413,3	36,587
413,7	46,307
414,2	45,147
414,7	53,307
415,1	62,587
415,6	64,547
416	66,307
416,5	71,627
416,9	78,827
417,4	81,307
417,8	86,707
418,3	92,707
418,8	105,667
419,2	111,427
419,7	128,267
420,1	139,787
420,6	143,187
421	147,867
421,5	148,787
421,9	156,387
422,4	169,347
422,8	184,547
423,3	199,427
423,8	212,187
424,2	227,667
424,7	244,227
425,1	258,547
425,6	269,627
426	290,987
426,5	299,947
426,9	308,067
427,4	326,107
427,9	353,907
428,3	368,747
428,8	391,267
429,2	417,987
429,7	443,027
430,1	459,747
430,6	483,427
431	506,387
431,5	536,307
431,9	556,227
432,4	587,067
432,8	621,147
433,3	654,867
433,8	678,747
434,2	716,267
434,7	746,147
435,1	783,707
435,6	821,707
436	866,627
436,5	905,027
436,9	952,467
437,4	1000,427
437,8	1047,867
438,3	1095,667
438,8	1155,347
439,2	1208,987
439,7	1261,507
440,1	1314,747
440,6	1365,627
441	1424,627
441,5	1491,827
441,9	1544,787
442,4	1613,947
442,8	1682,907
443,3	1748,947
443,7	1809,747
444,2	1885,747
444,7	1959,227
445,1	2041,947
445,6	2114,107
446	2196,867
446,5	2283,307
446,9	2365,027
447,4	2443,547
447,8	2533,387
448,3	2626,267
448,7	2710,747
449,2	2800,867
449,6	2898,587
450,1	2992,107
450,6	3087,547
451	3188,467
451,5	3291,307
451,9	3389,827
452,4	3494,387
452,8	3597,627
453,3	3709,307
453,7	3821,747
454,2	3940,347
454,6	4058,827
455,1	4173,747
455,5	4283,227
456	4392,387
456,4	4488,787
456,9	4593,187
457,3	4707,347
457,8	4825,907
458,3	4949,067
458,7	5080,827
459,2	5215,427
459,6	5339,787
460,1	5458,507
460,5	5585,907
461	5708,907
461,4	5833,787
461,9	5965,867
462,3	6104,027
462,8	6230,787
463,2	6369,587
463,7	6487,067
464,1	6615,507
464,6	6749,387
465	6871,147
465,5	6982,867
466	7104,987
466,4	7215,467
466,9	7315,307
467,3	7437,267
467,8	7556,707
468,2	7678,867
468,7	7805,507
469,1	7924,747
469,6	8032,627
470	8158,987
470,5	8268,787
470,9	8365,827
471,4	8484,147
471,8	8600,627
472,3	8702,667
472,7	8803,547
473,2	8912,867
473,6	9010,707
474,1	9109,387
474,5	9205,667
475	9303,147
475,4	9398,627
475,9	9489,347
476,4	9560,827
476,8	9640,427
477,3	9723,267
477,7	9805,627
478,2	9871,587
478,6	9967,027
479,1	10065,267
479,5	10128,507
480	10182,787
480,4	10251,067
480,9	10293,027
481,3	10314,867
481,8	10369,267
482,2	10426,707
482,7	10473,667
483,1	10517,187
483,6	10558,347
484	10604,867
484,5	10628,067
484,9	10646,427
485,4	10670,547
485,8	10687,387
486,3	10698,187
486,7	10712,227
487,2	10733,107
487,6	10745,827
488,1	10757,707
488,5	10745,467
489	10756,947
489,4	10753,587
489,9	10746,787
490,4	10733,747
490,8	10728,027
491,3	10702,747
491,7	10674,707
492,2	10642,587
492,6	10617,667
493,1	10588,867
493,5	10547,227
494	10505,107
494,4	10476,627
494,9	10433,427
495,3	10394,507
495,8	10357,987
496,2	10323,347
496,7	10281,667
497,1	10237,987
497,6	10184,347
498	10127,667
498,5	10064,587
498,9	10003,227
499,4	9946,987
499,8	9899,267
500,3	9844,947
500,7	9785,707
501,2	9729,507
501,6	9675,387
502,1	9615,747
502,5	9543,467
503	9484,387
503,4	9414,107
503,9	9349,307
504,3	9280,707
504,8	9223,707
505,2	9151,827
505,7	9074,987
506,1	8995,867
506,6	8915,747
507	8823,827
507,5	8749,627
507,9	8677,907
508,4	8592,787
508,8	8511,587
509,3	8448,947
509,7	8373,947
510,2	8291,267
510,6	8218,387
511,1	8143,547
511,5	8051,907
512	7962,187
512,4	7889,507
512,9	7792,547
513,3	7709,667
513,8	7638,467
514,2	7562,067
514,7	7466,187
515,1	7402,827
515,6	7316,347
516	7224,627
516,5	7145,307
516,9	7071,467
517,4	6983,387
517,8	6896,627
518,3	6823,067
518,7	6749,867
519,2	6668,667
519,6	6583,147
520,1	6519,307
520,5	6441,747
521	6358,787
521,4	6272,027
521,9	6200,787
522,3	6123,427
522,8	6049,787
523,2	5985,307
523,7	5932,427
524,1	5864,267
524,6	5784,667
525	5711,707
525,5	5638,147
525,9	5569,547
526,4	5505,867
526,8	5438,467
527,3	5371,827
527,7	5300,867
528,2	5221,387
528,6	5159,827
529,1	5108,347
529,5	5057,147
530	4993,067
530,4	4936,227
530,9	4863,427
531,3	4802,947
531,8	4734,267
532,2	4672,107
532,6	4619,987
533,1	4566,267
533,5	4498,187
534	4444,427
534,4	4391,827
534,9	4327,187
535,3	4281,747
535,8	4245,707
536,2	4192,067
536,7	4143,267
537,1	4096,147
537,6	4044,627
538	3987,827
538,5	3948,907
538,9	3905,307
539,4	3862,427
539,8	3811,267
540,3	3768,907
540,7	3711,107
541,2	3664,587
541,6	3618,107
542,1	3570,947
542,5	3520,507
543	3482,227
543,4	3437,347
543,9	3393,827
544,3	3363,987
544,8	3324,027
545,2	3287,107
545,7	3252,427
546,1	3223,827
546,5	3176,587
547	3144,307
547,4	3106,787
547,9	3071,387
548,3	3034,507
548,8	3004,227
549,2	2967,707
549,7	2937,747
550,1	2906,427
550,6	2868,987
551	2839,787
551,5	2811,387
551,9	2777,107
552,4	2750,107
552,8	2721,667
553,3	2695,907
553,7	2672,707
554,2	2645,347
554,6	2617,867
555,1	2597,867
555,5	2570,187
555,9	2538,307
556,4	2515,787
556,8	2492,227
557,3	2458,467
557,7	2431,107
558,2	2408,467
558,6	2377,787
559,1	2345,707
559,5	2324,067
560	2302,347
560,4	2279,827
560,9	2260,667
561,3	2243,467
561,8	2227,027
562,2	2206,027
562,7	2182,387
563,1	2162,947
563,6	2137,307
564	2109,187
564,4	2084,067
564,9	2061,347
565,3	2033,467
565,8	2018,307
566,2	1999,147
566,7	1976,747
567,1	1961,907
567,6	1953,347
568	1930,107
568,5	1920,867
568,9	1904,027
569,4	1881,027
569,8	1862,627
570,3	1850,107
570,7	1825,107
571,1	1818,747
571,6	1810,507
572	1792,187
572,5	1777,787
572,9	1768,987
573,4	1753,707
573,8	1730,427
574,3	1719,987
574,7	1700,827
575,2	1678,187
575,6	1659,267
576,1	1646,507
576,5	1632,387
576,9	1625,187
577,4	1615,347
577,8	1599,267
578,3	1585,787
578,7	1568,307
579,2	1541,187
579,6	1527,227
580,1	1522,347
580,5	1513,027
581	1498,107
581,4	1493,667
581,9	1485,787
582,3	1469,907
582,7	1451,427
583,2	1448,267
583,6	1434,947
584,1	1423,467
584,5	1410,907
585	1402,667
585,4	1387,267
585,9	1370,667
586,3	1352,827
586,8	1344,067
587,2	1336,307
587,6	1322,827
588,1	1314,227
588,5	1308,227
589	1297,147
589,4	1284,307
589,9	1276,947
590,3	1275,347
590,8	1261,307
591,2	1251,667
591,7	1252,547
592,1	1243,827
592,5	1236,467
593	1230,987
593,4	1218,707
593,9	1197,067
594,3	1186,627
594,8	1171,787
595,2	1162,587
595,7	1152,667
596,1	1154,987
596,6	1148,667
597	1136,707
597,4	1126,467
597,9	1119,427
598,3	1111,267
598,8	1106,347
599,2	1112,667
599,7	1110,587
600,1	1109,667
600,6	1097,867
601	1090,347
601,4	1078,667
601,9	1071,827
602,3	1060,187
602,8	1051,587
603,2	1042,947
603,7	1037,547
604,1	1032,627
604,6	1024,307
605	1027,307
605,4	1017,587
605,9	1000,387
606,3	991,667
606,8	989,187
607,2	970,427
607,7	963,347
608,1	964,307
608,6	960,227
609	951,267
609,4	948,307
609,9	950,187
610,3	941,707
610,8	937,667
611,2	928,307
611,7	920,667
612,1	908,987
612,6	894,907
613	885,707
613,4	887,387
613,9	883,187
614,3	875,587
614,8	878,187
615,2	868,587
615,7	854,987
616,1	847,787
616,6	837,547
617	831,547
617,4	833,587
617,9	831,627
618,3	830,227
618,8	830,547
619,2	827,387
619,7	817,707
620,1	808,347
620,5	798,027
621	794,867
621,4	785,307
621,9	779,347
622,3	781,787
622,8	780,547
623,2	772,107
623,6	772,387
624,1	763,987
624,5	754,987
625	735,667
625,4	726,187
625,9	717,427
626,3	711,947
626,8	704,627
627,2	712,307
627,6	712,987
628,1	712,547
628,5	704,307
629	700,307
629,4	694,467
629,9	685,067
630,3	677,267
630,7	674,867
631,2	669,547
631,6	662,387
632,1	657,427
632,5	648,507
633	641,987
633,4	636,467
633,8	628,307
634,3	626,147
634,7	619,947
635,2	616,587
635,6	611,827
636,1	609,907
636,5	612,587
636,9	609,347
637,4	603,227
637,8	598,067
638,3	593,627
638,7	576,427
639,2	572,427
639,6	570,027
640	565,667
640,5	562,667
640,9	562,627
641,4	559,947
641,8	555,827
642,2	552,867
642,7	552,027
643,1	552,227
643,6	547,707
644	542,667
644,5	546,147
644,9	544,227
645,3	540,147
645,8	535,827
646,2	533,267
646,7	521,627
647,1	517,507
647,6	510,507
648	511,947
648,4	506,267
648,9	507,467
649,3	494,347
649,8	496,267
650,2	490,307
650,6	486,507
651,1	481,627
651,5	485,907
652	482,787
652,4	481,267
652,9	482,947
653,3	482,107
653,7	475,627
654,2	471,027
654,6	467,427
655,1	462,947
655,5	453,827
655,9	454,947
656,4	449,827
656,8	440,587
657,3	438,147
657,7	442,107
658,2	438,787
658,6	433,427
659	434,067
659,5	431,187
659,9	417,547
660,4	413,067
660,8	410,827
661,2	410,427
661,7	409,347
662,1	411,707
662,6	408,667
663	404,027
663,4	400,867
663,9	394,067
664,3	394,147
664,8	392,947
665,2	389,107
665,6	388,307
666,1	383,907
666,5	375,187
667	373,587
667,4	370,067
667,9	362,787
668,3	359,027
668,7	365,707
669,2	360,827
669,6	358,347
670,1	358,347
670,5	356,827
670,9	344,267
671,4	342,787
671,8	343,067
672,3	334,627
672,7	336,467
673,1	341,147
673,6	333,587
674	336,387
674,5	331,067
674,9	323,907
675,3	318,987
675,8	316,587
676,2	308,827
676,7	313,667
677,1	313,107
677,5	306,267
678	305,147
678,4	308,427
678,9	302,387
679,3	300,387
679,7	299,667
680,2	296,707
680,6	284,187
681,1	282,867
681,5	284,027
681,9	285,467
682,4	284,267
682,8	290,387
683,3	291,267
683,7	281,307
684,1	275,427
684,6	281,667
685	277,667
685,5	272,947
685,9	272,907
686,3	272,827
686,8	260,107
687,2	252,027
687,7	251,507
688,1	250,027
688,5	247,227
689	246,107
689,4	247,187
689,9	241,427
690,3	235,547
690,7	232,547
691,2	230,867
691,6	228,587
692	225,147
692,5	229,667
692,9	225,867
693,4	220,907
693,8	221,827
694,2	223,347
694,7	218,627
695,1	219,667
695,6	221,427
696	220,187
696,4	219,707
696,9	225,147
697,3	224,507
697,8	218,747
698,2	221,347
698,6	216,747
699,1	209,147
699,5	207,227
699,9	209,187
700,4	199,907
700,8	199,747
701,3	193,947
701,7	191,307
702,1	187,947
702,6	186,467
703	187,667
703,5	187,747
703,9	186,067
704,3	190,267
704,8	189,267
705,2	186,387
705,6	191,907
706,1	188,867
706,5	182,747
707	184,027
707,4	183,867
707,8	175,707
708,3	176,947
708,7	181,307
709,2	174,907
709,6	171,387
710	171,707
710,5	169,107
710,9	156,267
711,3	151,947
711,8	153,427
712,2	154,827
712,7	151,227
713,1	158,427
713,5	158,787
714	152,507
714,4	149,267
714,8	150,987
715,3	148,427
715,7	149,707
716,2	148,067
716,6	143,747
717	146,107
717,5	142,307
717,9	141,027
718,3	137,267
718,8	137,707
719,2	129,227
719,7	127,347
720,1	128,867
720,5	129,347
721	127,707
721,4	125,947
721,8	129,187
722,3	125,907
722,7	126,107
723,2	124,947
723,6	125,707
724	122,947
724,5	121,467
724,9	127,427
725,3	127,667
725,8	127,387
726,2	121,347
726,7	119,187
727,1	115,507
727,5	114,507
728	111,227
728,4	117,227
728,8	114,987
729,3	109,507
729,7	105,227
730,1	103,267
730,6	102,987
731	106,067
731,5	106,387
731,9	113,827
732,3	119,147
732,8	114,787
733,2	113,987
733,6	118,307
734,1	112,547
734,5	111,307
734,9	112,507
735,4	106,827
735,8	101,547
736,3	103,627
736,7	96,067
737,1	94,987
737,6	99,147
738	97,547
738,4	95,507
738,9	98,147
739,3	95,147
739,7	90,067
740,2	87,147
740,6	81,867
741,1	81,587
741,5	80,147
741,9	84,387
742,4	83,547
742,8	83,747
743,2	82,867
743,7	78,307
744,1	78,667
744,5	75,507
745	75,267
745,4	77,427
745,8	85,707
746,3	84,067
746,7	85,067
747,2	84,947
747,6	85,587
748	79,987
748,5	77,707
748,9	76,347
749,3	74,147
749,8	70,427
750,2	69,147
750,6	68,867
751,1	70,147
751,5	75,667
751,9	79,387
752,4	81,707
752,8	81,867
753,3	82,467
753,7	78,147
754,1	72,627
754,6	77,387
755	71,627
755,4	71,387
755,9	68,027
756,3	67,467
756,7	62,547
757,2	66,827
757,6	65,947
758	71,787
758,5	66,747
758,9	62,067
759,3	54,947
759,8	57,307
760,2	52,867
760,6	51,187
761,1	49,307
761,5	53,427
761,9	52,507
762,4	49,347
762,8	53,067
763,3	52,587
763,7	51,947
764,1	47,907
764,6	51,307
765	58,187
765,4	55,787
765,9	53,347
766,3	54,467
766,7	51,587
767,2	45,187
767,6	50,507
768	55,427
768,5	51,347
768,9	52,187
769,3	49,147
769,8	45,067
770,2	43,227
770,6	44,307
771,1	42,867
771,5	45,427
771,9	51,027
772,4	52,427
772,8	53,747
773,2	55,307
773,7	53,867
774,1	53,507
774,5	46,907
775	43,707
775,4	38,867
775,8	35,267
776,3	30,547
776,7	34,427
777,1	36,267
777,6	37,147
778	38,147
778,4	42,267
778,9	40,947
779,3	37,507
779,7	37,987
780,2	41,107
780,6	35,267
781	32,347
781,5	35,347
781,9	33,787
782,3	28,147
782,8	31,187
783,2	36,507
783,6	42,507
784,1	43,787
784,5	42,267
784,9	38,787
785,4	40,787
785,8	33,187
786,2	23,347
786,7	29,067
787,1	28,107
787,5	15,347
788	19,707
788,4	28,547
788,8	26,787
789,3	23,067
789,7	31,707
790,1	27,707
790,6	30,187
791	27,307
791,4	32,427
791,9	26,347
792,3	21,787
792,7	17,067
793,2	20,907
793,6	14,667
794	12,587
794,5	15,347
794,9	12,907
795,3	4,747
795,8	11,907
796,2	12,427
796,6	9,867
797,1	9,827
797,5	11,867
797,9	11,747
798,4	12,427
798,8	17,347
799,2	19,507
799,7	19,187
800,1	17,867
800,5	20,507
801	13,347
801,4	7,787
801,8	11,067
802,2	15,667
802,7	17,307
803,1	19,227
803,5	20,147
804	20,667
804,4	15,067
804,8	7,947
805,3	6,827
805,7	7,507
806,1	3,347
806,6	1,187
807	-2,093
807,4	-1,533
807,9	6,507
808,3	7,827
808,7	1,507
809,2	10,147
809,6	7,307
810	1,867
810,4	2,067
810,9	6,227
811,3	2,107
811,7	4,427
812,2	8,387
812,6	5,427
813	11,107
813,5	14,067
813,9	16,787
814,3	14,987
814,8	20,867
815,2	15,347
815,6	11,507
816,1	9,507
816,5	7,827
816,9	5,547
817,3	3,787
817,8	2,587
818,2	-2,453
818,6	-2,533
819,1	-7,133
819,5	-4,093
819,9	-2,573
820,4	-0,413
820,8	-3,893
821,2	-4,493
821,7	-2,573
822,1	-3,133
822,5	-4,093
822,9	-9,333
823,4	-5,533
823,8	-6,893
824,2	-7,133
824,7	-7,413
825,1	-3,613
825,5	-9,533
826	-11,653
826,4	-14,733
826,8	-10,173
827,3	-8,333
827,7	-9,293
828,1	-10,773
828,5	-7,853
829	-10,253
829,4	-16,213
829,8	-13,693
830,3	-11,733
830,7	-10,733
831,1	-13,173
831,6	-6,213
832	-3,853
832,4	-6,373
832,8	-4,693
833,3	0,227
833,7	2,547
834,1	0,427
834,6	-2,093
835	-3,373
835,4	-6,133
835,8	-8,053
836,3	-9,373
836,7	-6,173
837,1	-7,573
837,6	-12,373
838	-16,813
838,4	-13,933
838,9	-19,053
839,3	-18,333
839,7	-11,093
840,1	-6,293
840,6	-6,893
841	0,547
841,4	-2,253
841,9	-4,653
842,3	-11,013
842,7	-9,493
843,1	-8,533
843,6	-15,573
844	-18,533
844,4	-14,413
844,9	-16,173
845,3	-19,573
845,7	-11,413
846,2	-10,373
846,6	-9,293
847	-12,453
847,4	-19,933
847,9	-19,933
848,3	-25,093
848,7	-26,093
849,2	-24,093
849,6	-27,733
850	-28,013
850,4	-29,533
850,9	-32,933
851,3	-33,013
851,7	-26,693
852,2	-24,773
852,6	-17,453
853	-15,533
853,4	-12,413
853,9	-9,293
854,3	-10,213
854,7	-8,693
855,2	-13,013
855,6	-14,373
856	-16,653
856,4	-18,613
856,9	-21,173
857,3	-13,973
857,7	-17,813
858,2	-11,853
858,6	-12,293
859	-13,253
859,4	-14,413
859,9	-13,813
860,3	-14,653
860,7	-10,333
861,1	-13,653
861,6	-17,973
862	-17,133
862,4	-20,373
862,9	-26,613
863,3	-20,053
863,7	-18,893
864,1	-20,293
864,6	-20,973
865	-16,253
865,4	-20,413
865,9	-23,053
866,3	-27,013
866,7	-27,853
867,1	-28,293
867,6	-30,253
868	-28,893
868,4	-24,613
868,8	-23,653
869,3	-25,453
869,7	-25,093
870,1	-25,893
870,6	-26,733
871	-26,853
871,4	-48,373
871,8	-51,573
872,3	-56,013
872,7	-57,173
873,1	-53,933
873,5	-35,933
874	-30,733
874,4	-20,733
874,8	-21,573
875,3	-24,093
875,7	-20,853
876,1	-23,653
876,5	-28,533
877	-22,013
877,4	-21,893
877,8	-22,613
878,2	-19,613
878,7	-22,613
879,1	-24,053
879,5	-25,293
879,9	-29,373
880,4	-24,813
880,8	-21,133
881,2	-26,133
881,7	-27,853
882,1	-24,773
882,5	-30,333
882,9	-25,973
883,4	-20,893
883,8	-20,293
884,2	-18,813
884,6	-16,293
885,1	-19,173
885,5	-20,213
885,9	-21,253
886,3	-22,933
886,8	-20,293
887,2	-21,573
887,6	-25,253
888	-29,173
888,5	-25,453
888,9	-28,573
889,3	-29,093
889,8	-23,453
890,2	-21,333
890,6	-21,613
891	-29,053
891,5	-31,053
891,9	-32,533
892,3	-29,173
892,7	-37,373
893,2	-26,533
893,6	-24,573
894	-24,933
894,4	-27,413
894,9	-25,733
895,3	-26,933
895,7	-26,413
896,1	-27,973
896,6	-22,933
897	-22,893
897,4	-31,573
897,8	-31,093
898,3	-32,693
898,7	-25,813
899,1	-24,053
899,5	-22,093
900	-26,413
900,4	-22,493
900,8	-34,893
901,2	-36,373
901,7	-34,773
902,1	-31,493
902,5	-31,893
902,9	-30,453
903,4	-24,413
903,8	-24,893
904,2	-19,333
904,6	-21,893
905,1	-16,373
905,5	-19,293
905,9	-14,493
906,3	-19,373
906,8	-19,133
907,2	-24,653
907,6	-26,973
908	-31,933
908,5	-34,533
908,9	-34,013
909,3	-37,413
909,7	-31,493
910,2	-27,693
910,6	-28,253
911	-29,653
911,4	-27,493
911,9	-33,773
912,3	-36,413
912,7	-38,173
913,1	-38,213
913,6	-37,333
914	-38,373
914,4	-43,013
914,8	-43,133
915,3	-42,373
915,7	-37,613
916,1	-38,573
916,5	-35,333
916,9	-30,293
917,4	-29,133
917,8	-31,853
918,2	-28,573
918,6	-28,533
919,1	-27,173
919,5	-29,693
919,9	-28,253
920,3	-26,173
920,8	-25,973
921,2	-30,733
921,6	-30,333
922	-35,533
922,5	-32,853
922,9	-33,773
923,3	-29,173
923,7	-27,813
924,2	-25,013
924,6	-30,613
925	-28,053
925,4	-33,533
925,8	-36,933
926,3	-34,013
926,7	-33,613
927,1	-30,733
927,5	-32,533
928	-29,333
928,4	-32,493
928,8	-30,373
929,2	-38,893
929,7	-32,213
930,1	-30,933
930,5	-26,493
930,9	-23,413
931,3	-18,653
931,8	-29,933
932,2	-34,333
932,6	-42,653
933	-49,733
933,5	-47,893
933,9	-36,173
934,3	-35,413
934,7	-31,973
935,2	-23,573
935,6	-26,973
936	-29,893
936,4	-33,213
936,8	-34,853
937,3	-41,213
937,7	-38,893
938,1	-45,773
938,5	-46,493
939	-47,133
939,4	-47,853
939,8	-45,573
940,2	-40,733
940,6	-41,613
941,1	-40,973
941,5	-43,653
941,9	-48,773
942,3	-46,213
942,8	-41,573
943,2	-38,933
943,6	-43,853
944	-40,733
944,4	-46,493
944,9	-43,373
945,3	-41,493
945,7	-35,493
946,1	-39,813
946,6	-39,373
947	-40,973
947,4	-44,293
947,8	-37,413
948,2	-31,373
948,7	-26,733
949,1	-23,013
949,5	-23,053
949,9	-29,533
950,3	-36,373
950,8	-33,773
951,2	-35,773
951,6	-36,133
952	-33,733
952,5	-28,973
952,9	-28,493
953,3	-34,893
953,7	-32,253
954,1	-32,373
954,6	-26,653
955	-27,333
955,4	-24,693
955,8	-25,773
956,2	-30,813
956,7	-40,933
957,1	-44,533
957,5	-45,893
957,9	-46,293
958,3	-42,293
958,8	-35,213
959,2	-33,733
959,6	-30,653
960	-30,653
960,5	-29,853
960,9	-34,053
961,3	-33,253
961,7	-31,493
962,1	-34,773
962,6	-35,693
963	-28,973
963,4	-28,013
963,8	-25,333
964,2	-25,013
964,7	-25,933
965,1	-36,853
965,5	-46,573
965,9	-51,493
966,3	-46,653
966,8	-39,173
967,2	-34,493
967,6	-32,053
968	-31,573
968,4	-33,573
968,9	-42,653
969,3	-41,613
969,7	-39,573
970,1	-37,293
970,5	-38,373
971	-33,213
971,4	-34,253
971,8	-32,173
972,2	-37,013
972,6	-37,413
973,1	-41,533
973,5	-41,533
973,9	-41,533
974,3	-33,773
974,7	-32,813
975,2	-30,493
975,6	-33,213
976	-29,653
976,4	-36,413
976,8	-33,293
977,3	-38,773
977,7	-35,373
978,1	-39,373
978,5	-35,933
978,9	-44,213
979,4	-34,493
979,8	-31,293
980,2	-28,133
980,6	-29,853
981	-21,533
981,5	-22,693
981,9	-26,493
982,3	-29,653
982,7	-30,893
983,1	-33,653
983,6	-34,333
984	-33,813
984,4	-34,213
984,8	-36,693
985,2	-29,813
985,6	-30,813
986,1	-37,933
986,5	-36,373
986,9	-32,973
987,3	-39,573
987,7	-41,053
988,2	-37,613
988,6	-33,973
989	-33,653
989,4	-42,093
989,8	-47,573
990,3	-48,333
990,7	-54,613
991,1	-54,333
991,5	-43,893
991,9	-41,653
992,3	-37,933
992,8	-32,853
993,2	-30,333
993,6	-31,693
994	-29,213
994,4	-31,733
994,9	-31,053
995,3	-36,813
995,7	-40,773
996,1	-37,653
996,5	-32,773
996,9	-38,653
997,4	-41,653
997,8	-40,493
998,2	-45,453
998,6	-47,453
999	-46,613
999,5	-43,013
999,9	-41,333
1000,3	-41,813
1000,7	-41,693
1001,1	-41,053
1001,5	-43,613
1002	-48,693
1002,4	-44,853
1002,8	-48,773
1003,2	-48,373
1003,6	-42,133
1004	-33,133
1004,5	-36,013
1004,9	-28,933
1005,3	-31,373
1005,7	-37,053
1006,1	-42,893
1006,6	-42,373
1007	-45,773
1007,4	-43,293
1007,8	-36,573
1008,2	-39,653
1008,6	-36,853
1009,1	-40,053
1009,5	-45,093
1009,9	-52,413
1010,3	-48,853
1010,7	-49,533
1011,1	-41,613
1011,6	-32,253
1012	-29,453
1012,4	-30,333
1012,8	-31,413
1013,2	-40,773
1013,6	-47,493
1014,1	-45,493
1014,5	-40,253
1014,9	-38,613
1015,3	-35,253
1015,7	-34,533
1016,1	-36,773
1016,6	-40,533
1017	-41,293
1017,4	-37,253
1017,8	-35,453
1018,2	-30,613
1018,6	-35,853
1019,1	-35,533
1019,5	-34,893
1019,9	-33,853
1020,3	-36,613
1020,7	-34,093
1021,1	-35,773
1021,6	-40,773
1022	-37,813
1022,4	-39,453
1022,8	-37,493
1023,2	-38,093
1023,6	-40,293
1024,1	-39,653
1024,5	-39,853
1024,9	-38,133
1025,3	-36,973
1025,7	-30,053
1026,1	-33,573
1026,6	-33,013
1027	-37,053
1027,4	-38,893
1027,8	-39,933
1028,2	-44,253
1028,6	-42,253
1029	-39,893
1029,5	-39,733
1029,9	-43,333
1030,3	-38,013
1030,7	-39,613
1031,1	-38,013
1031,5	-38,413
1032	-40,813
1032,4	-40,853
1032,8	-39,693
1033,2	-41,933
1033,6	-43,813
1034	-40,053
1034,4	-44,533
1034,9	-44,533
1035,3	-44,533
1035,7	-42,733
1036,1	-48,093
1036,5	-45,773
1036,9	-43,093
1037,4	-43,613
1037,8	-36,733
1038,2	-33,573
1038,6	-36,893
1039	-39,013
1039,4	-38,293
1039,8	-49,213
1040,3	-54,573
1040,7	-53,173
1041,1	-56,333
1041,5	-59,573
1041,9	-54,373
1042,3	-55,573
1042,7	-53,733
1043,2	-51,613
1043,6	-52,293
1044	-49,093
1044,4	-36,493
1044,8	-33,493
1045,2	-37,253
1045,6	-32,253
1046,1	-34,973
1046,5	-36,973
1046,9	-46,453
1047,3	-39,213
1047,7	-42,733
1048,1	-48,293
1048,5	-54,453
1049	-47,973
1049,4	-56,053
1049,8	-54,053
1050,2	-43,573
1050,6	-37,293
1051	-34,973
1051,4	-30,573
1051,9	-35,893
1052,3	-45,173
1052,7	-50,933
1053,1	-55,893
1053,5	-68,013
1053,9	-59,293
1054,3	-63,173
1054,8	-63,453
1055,2	-61,173
1055,6	-52,933
1056	-56,533
1056,4	-53,093
1056,8	-44,773
1057,2	-41,373
1057,6	-39,213
1058,1	-41,413
1058,5	-40,413
1058,9	-45,653
1059,3	-48,253
1059,7	-51,773
1060,1	-47,493
1060,5	-45,493
1061	-49,373
1061,4	-50,693
1061,8	-40,373
1062,2	-45,293
1062,6	-47,533
1063	-49,973
1063,4	-48,653
1063,8	-49,813
1064,3	-46,693
1064,7	-42,493
1065,1	-35,453
1065,5	-31,053
1065,9	-38,533
1066,3	-41,613
1066,7	-44,453
1067,1	-44,493
1067,6	-48,693
1068	-46,293
1068,4	-35,373
1068,8	-32,333
1069,2	-28,733
1069,6	-29,693
1070	-24,213
1070,4	-33,893
1070,9	-37,653
1071,3	-43,093
1071,7	-41,853
1072,1	-51,413
1072,5	-46,773
1072,9	-43,293
1073,3	-45,893
1073,7	-47,493
1074,2	-42,693
1074,6	-43,333
1075	-40,013
1075,4	-33,773
1075,8	-36,973
1076,2	-34,733
1076,6	-33,533
1077	-35,533
1077,5	-40,133
1077,9	-34,373
1078,3	-34,173
1078,7	-32,253
1079,1	-31,573
1079,5	-32,053
1079,9	-33,973
1080,3	-37,413
1080,7	-37,253
1081,2	-42,893
1081,6	-35,333
1082	-39,573
1082,4	-34,933
1082,8	-36,573
1083,2	-29,493
1083,6	-35,173
1084	-26,613
1084,5	-32,773
1084,9	-37,253
1085,3	-38,773
1085,7	-41,493
1086,1	-46,133
1086,5	-44,293
1086,9	-45,093
1087,3	-45,693
1087,7	-37,213
1088,2	-30,413
1088,6	-28,893
1089	-31,973
1089,4	-33,373
1089,8	-38,213
1090,2	-46,213
1090,6	-43,373
1091	-36,053
1091,4	-32,933
1091,9	-31,853
1092,3	-29,933
1092,7	-33,293
1093,1	-28,133
1093,5	-31,293
1093,9	-30,333
1094,3	-26,013
1094,7	-27,173
1095,1	-33,133
1095,5	-35,453
1096	-36,333
1096,4	-37,493
1096,8	-33,333
1097,2	-31,373
1097,6	-24,693
1098	-23,853
1098,4	-24,813
1098,8	-20,773
1099,2	-19,533
1099,6	-22,453
1100,1	-21,893
1100,5	-20,933
1100,9	-25,573
1101,3	-26,373
1101,7	-29,413
1102,1	-28,693
1102,5	-28,773
1102,9	-27,293
1103,3	-29,013
1103,7	-24,893
1104,2	-25,653
1104,6	-28,373
1105	-29,053
1105,4	-29,173
1105,8	-27,613
1106,2	-22,253
1106,6	-14,933
1107	-10,853
1107,4	-3,933
1107,8	-0,283
1108,3	-0,333
