Data from Subt2_00070.txt Node
Date: Fri Aug 11 16:28:37 MSK 2023
User: vat
Spectrometer: MAYP114033
Trigger mode: 0
Integration Time (sec): 5,000000E-1
Scans to average: 5
Electric dark correction enabled: true
Nonlinearity correction enabled: false
Boxcar width: 2
XAxis mode: Wavelengths
Number of Pixels in Spectrum: 2068
>>>>>Begin Spectral Data<<<<<
199,4	-1,333
199,9	-0,567
200,4	-7,827
200,8	-13,187
201,3	-21,347
201,8	-25,427
202,2	-31,467
202,7	-29,907
203,2	-26,867
203,6	-24,867
204,1	-26,387
204,6	-28,707
205	-28,627
205,5	-35,907
206	-31,147
206,4	-31,787
206,9	-29,427
207,4	-30,507
207,8	-29,227
208,3	-31,107
208,8	-31,947
209,2	-38,747
209,7	-41,267
210,2	-38,867
210,6	-43,187
211,1	-43,227
211,5	-36,227
212	-38,587
212,5	-37,187
212,9	-37,147
213,4	-39,227
213,9	-38,187
214,3	-34,987
214,8	-37,947
215,3	-34,827
215,7	-35,187
216,2	-39,827
216,7	-43,907
217,1	-44,467
217,6	-49,307
218,1	-48,147
218,5	-50,667
219	-44,987
219,5	-44,387
219,9	-45,027
220,4	-46,387
220,9	-46,827
221,3	-44,627
221,8	-47,427
222,3	-46,707
222,7	-41,707
223,2	-37,707
223,6	-45,187
224,1	-44,867
224,6	-45,227
225	-53,107
225,5	-49,387
226	-41,107
226,4	-40,147
226,9	-41,027
227,4	-37,427
227,8	-45,387
228,3	-52,547
228,8	-54,627
229,2	-50,267
229,7	-55,707
230,2	-51,347
230,6	-46,227
231,1	-48,147
231,5	-51,267
232	-45,987
232,5	-42,787
232,9	-51,427
233,4	-48,467
233,9	-51,467
234,3	-50,227
234,8	-49,067
235,3	-48,827
235,7	-47,107
236,2	-44,947
236,7	-46,787
237,1	-52,147
237,6	-48,427
238,1	-48,547
238,5	-48,387
239	-45,827
239,4	-48,227
239,9	-39,507
240,4	-40,027
240,8	-39,707
241,3	-39,587
241,8	-38,787
242,2	-48,147
242,7	-44,587
243,2	-41,907
243,6	-44,387
244,1	-43,867
244,6	-40,827
245	-41,907
245,5	-45,227
245,9	-44,027
246,4	-37,827
246,9	-37,107
247,3	-40,427
247,8	-39,747
248,3	-38,787
248,7	-44,747
249,2	-51,187
249,7	-52,507
250,1	-54,427
250,6	-58,067
251	-58,907
251,5	-55,027
252	-60,707
252,4	-64,307
252,9	-60,467
253,4	-63,827
253,8	-62,747
254,3	-50,587
254,8	-44,267
255,2	-42,707
255,7	-35,707
256,1	-35,027
256,6	-38,587
257,1	-40,147
257,5	-44,787
258	-47,147
258,5	-50,107
258,9	-49,107
259,4	-46,507
259,9	-46,707
260,3	-45,107
260,8	-37,387
261,2	-34,467
261,7	-31,867
262,2	-33,587
262,6	-36,747
263,1	-41,147
263,6	-45,547
264	-46,227
264,5	-46,787
264,9	-42,147
265,4	-45,307
265,9	-39,427
266,3	-41,907
266,8	-36,507
267,3	-43,747
267,7	-42,707
268,2	-47,107
268,7	-47,907
269,1	-49,947
269,6	-49,987
270	-51,587
270,5	-56,467
271	-58,827
271,4	-58,027
271,9	-52,027
272,4	-46,387
272,8	-42,387
273,3	-43,227
273,7	-41,627
274,2	-39,067
274,7	-43,627
275,1	-46,867
275,6	-46,387
276,1	-49,187
276,5	-48,987
277	-46,187
277,4	-41,987
277,9	-45,267
278,4	-42,027
278,8	-44,867
279,3	-48,147
279,8	-51,867
280,2	-49,307
280,7	-49,547
281,1	-51,827
281,6	-51,627
282,1	-44,987
282,5	-40,507
283	-39,107
283,4	-41,307
283,9	-35,747
284,4	-41,947
284,8	-40,307
285,3	-41,467
285,8	-38,427
286,2	-43,347
286,7	-41,827
287,1	-50,947
287,6	-55,027
288,1	-48,307
288,5	-45,867
289	-47,907
289,5	-42,827
289,9	-38,827
290,4	-44,667
290,8	-43,427
291,3	-45,787
291,8	-44,627
292,2	-46,347
292,7	-41,227
293,1	-46,947
293,6	-40,587
294,1	-41,387
294,5	-50,667
295	-50,547
295,5	-46,227
295,9	-49,547
296,4	-51,787
296,8	-38,667
297,3	-43,667
297,8	-46,387
298,2	-46,907
298,7	-40,387
299,1	-43,307
299,6	-42,587
300,1	-42,307
300,5	-39,587
301	-43,707
301,5	-48,027
301,9	-49,707
302,4	-50,187
302,8	-53,667
303,3	-55,107
303,8	-54,387
304,2	-57,947
304,7	-56,787
305,1	-53,387
305,6	-48,387
306,1	-44,427
306,5	-43,427
307	-41,667
307,4	-41,907
307,9	-42,747
308,4	-45,627
308,8	-39,187
309,3	-33,587
309,8	-37,747
310,2	-39,747
310,7	-36,107
311,1	-43,507
311,6	-48,147
312,1	-42,867
312,5	-45,267
313	-48,867
313,4	-47,627
313,9	-49,107
314,4	-50,467
314,8	-43,987
315,3	-42,027
315,7	-40,547
316,2	-40,907
316,7	-39,907
317,1	-44,987
317,6	-49,667
318	-43,507
318,5	-43,547
319	-48,027
319,4	-49,587
319,9	-45,387
320,3	-46,627
320,8	-45,987
321,3	-45,027
321,7	-39,867
322,2	-36,987
322,6	-38,387
323,1	-47,587
323,6	-45,787
324	-45,827
324,5	-52,787
324,9	-59,307
325,4	-49,507
325,9	-52,187
326,3	-47,947
326,8	-44,427
327,2	-42,747
327,7	-48,027
328,2	-43,987
328,6	-50,867
329,1	-51,907
329,5	-45,507
330	-40,587
330,5	-43,627
330,9	-42,187
331,4	-39,387
331,8	-48,387
332,3	-51,107
332,8	-50,347
333,2	-54,707
333,7	-56,747
334,1	-52,547
334,6	-53,787
335,1	-53,067
335,5	-47,947
336	-43,427
336,4	-41,067
336,9	-40,667
337,4	-41,907
337,8	-40,947
338,3	-45,147
338,7	-48,987
339,2	-45,107
339,7	-41,107
340,1	-46,747
340,6	-45,587
341	-38,947
341,5	-39,347
342	-37,827
342,4	-35,627
342,9	-36,667
343,3	-46,027
343,8	-46,787
344,2	-43,427
344,7	-42,067
345,2	-41,667
345,6	-40,027
346,1	-38,707
346,5	-43,867
347	-47,307
347,5	-54,187
347,9	-47,707
348,4	-48,667
348,8	-47,667
349,3	-44,587
349,8	-34,947
350,2	-36,347
350,7	-36,227
351,1	-39,467
351,6	-37,147
352	-42,547
352,5	-42,947
353	-41,587
353,4	-36,867
353,9	-30,987
354,3	-21,187
354,8	-14,227
355,3	0,853
355,7	2,733
356,2	3,853
356,6	9,813
357,1	23,373
357,5	31,813
358	48,413
358,5	70,413
358,9	91,133
359,4	105,573
359,8	118,893
360,3	149,333
360,8	175,773
361,2	208,853
361,7	247,133
362,1	294,733
362,6	338,573
363	391,453
363,5	443,053
364	497,253
364,4	553,733
364,9	612,613
365,3	672,373
365,8	728,933
366,3	784,773
366,7	830,093
367,2	874,453
367,6	898,133
368,1	923,013
368,5	931,773
369	937,773
369,5	932,093
369,9	932,733
370,4	912,973
370,8	898,973
371,3	877,493
371,7	842,973
372,2	802,853
372,7	765,573
373,1	721,973
373,6	673,773
374	633,493
374,5	589,533
374,9	549,293
375,4	507,733
375,9	467,373
376,3	432,093
376,8	402,773
377,2	371,253
377,7	337,293
378,2	308,253
378,6	276,333
379,1	236,733
379,5	207,973
380	182,093
380,4	163,093
380,9	142,853
381,4	130,733
381,8	113,573
382,3	106,333
382,7	96,133
383,2	87,853
383,6	82,133
384,1	73,173
384,6	63,493
385	53,053
385,5	51,173
385,9	41,573
386,4	36,933
386,8	31,453
387,3	29,333
387,7	23,733
388,2	15,893
388,7	18,053
389,1	12,173
389,6	10,173
390	1,933
390,5	-0,987
390,9	-9,827
391,4	-9,987
391,9	-14,027
392,3	-15,747
392,8	-11,467
393,2	-13,387
393,7	-13,947
394,1	-13,067
394,6	-14,467
395,1	-15,747
395,5	-10,227
396	-12,787
396,4	-20,867
396,9	-15,227
397,3	-16,707
397,8	-19,827
398,2	-17,667
398,7	-11,347
399,2	-14,347
399,6	-15,707
400,1	-18,947
400,5	-21,507
401	-24,227
401,4	-26,267
401,9	-27,347
402,4	-30,187
402,8	-32,427
403,3	-34,067
403,7	-39,187
404,2	-38,067
404,6	-32,307
405,1	-24,227
405,5	-18,867
406	-15,107
406,5	-14,467
406,9	-21,067
407,4	-24,787
407,8	-26,147
408,3	-21,947
408,7	-20,947
409,2	-13,147
409,6	-9,347
410,1	-8,267
410,6	-0,987
411	3,013
411,5	7,733
411,9	16,773
412,4	25,173
412,8	19,093
413,3	25,853
413,7	32,533
414,2	26,533
414,7	31,253
415,1	43,573
415,6	48,093
416	52,373
416,5	60,933
416,9	71,333
417,4	76,493
417,8	82,893
418,3	88,853
418,8	102,453
419,2	107,733
419,7	119,093
420,1	127,013
420,6	136,173
421	144,653
421,5	151,373
421,9	164,053
422,4	185,253
422,8	204,773
423,3	215,253
423,8	233,413
424,2	243,693
424,7	250,853
425,1	263,853
425,6	279,613
426	298,053
426,5	317,253
426,9	334,973
427,4	357,253
427,9	382,053
428,3	394,893
428,8	418,053
429,2	445,493
429,7	468,413
430,1	493,813
430,6	522,133
431	543,613
431,5	574,053
431,9	597,413
432,4	627,493
432,8	663,893
433,3	700,893
433,8	727,893
434,2	767,413
434,7	805,293
435,1	845,933
435,6	894,293
436	942,413
436,5	986,013
436,9	1032,173
437,4	1086,053
437,8	1137,213
438,3	1189,533
438,8	1242,933
439,2	1301,413
439,7	1361,213
440,1	1414,813
440,6	1476,813
441	1546,133
441,5	1610,333
441,9	1671,333
442,4	1745,813
442,8	1822,053
443,3	1893,733
443,7	1971,813
444,2	2050,773
444,7	2129,973
445,1	2215,653
445,6	2298,173
446	2380,533
446,5	2471,773
446,9	2564,253
447,4	2645,973
447,8	2741,093
448,3	2831,853
448,7	2925,773
449,2	3024,653
449,6	3132,173
450,1	3232,173
450,6	3342,253
451	3442,333
451,5	3543,773
451,9	3644,333
452,4	3756,173
452,8	3870,253
453,3	3976,773
453,7	4091,813
454,2	4214,373
454,6	4337,693
455,1	4454,853
455,5	4577,333
456	4693,293
456,4	4812,573
456,9	4942,653
457,3	5076,413
457,8	5217,653
458,3	5360,333
458,7	5487,173
459,2	5607,973
459,6	5736,973
460,1	5858,253
460,5	5981,813
461	6110,933
461,4	6242,933
461,9	6374,293
462,3	6505,533
462,8	6639,253
463,2	6789,693
463,7	6917,493
464,1	7050,613
464,6	7196,973
465	7323,533
465,5	7434,533
466	7565,933
466,4	7691,773
466,9	7804,773
467,3	7948,853
467,8	8081,813
468,2	8209,533
468,7	8330,733
469,1	8450,973
469,6	8553,373
470	8672,933
470,5	8797,693
470,9	8901,213
471,4	9023,453
471,8	9144,213
472,3	9250,853
472,7	9345,013
473,2	9459,733
473,6	9557,213
474,1	9644,613
474,5	9739,253
475	9843,173
475,4	9944,533
475,9	10045,333
476,4	10141,813
476,8	10242,373
477,3	10331,733
477,7	10420,893
478,2	10490,453
478,6	10575,213
479,1	10638,733
479,5	10690,053
480	10743,813
480,4	10814,373
480,9	10864,213
481,3	10912,853
481,8	10972,253
482,2	11020,773
482,7	11055,613
483,1	11087,173
483,6	11121,773
484	11160,053
484,5	11188,173
484,9	11223,453
485,4	11248,733
485,8	11276,333
486,3	11285,373
486,7	11299,653
487,2	11309,693
487,6	11316,293
488,1	11327,573
488,5	11330,493
489	11336,413
489,4	11325,373
489,9	11310,893
490,4	11288,333
490,8	11271,733
491,3	11246,133
491,7	11224,533
492,2	11209,053
492,6	11185,333
493,1	11146,093
493,5	11100,853
494	11048,373
494,4	11012,733
494,9	10965,853
495,3	10929,413
495,8	10884,013
496,2	10846,853
496,7	10791,653
497,1	10729,533
497,6	10670,893
498	10623,453
498,5	10567,333
498,9	10506,573
499,4	10449,733
499,8	10387,773
500,3	10313,293
500,7	10247,973
501,2	10188,493
501,6	10120,293
502,1	10052,493
502,5	9991,133
503	9924,213
503,4	9853,933
503,9	9797,973
504,3	9741,413
504,8	9663,093
505,2	9581,813
505,7	9496,133
506,1	9418,053
506,6	9328,973
507	9248,493
507,5	9169,693
507,9	9097,573
508,4	9007,133
508,8	8922,493
509,3	8845,493
509,7	8768,293
510,2	8680,373
510,6	8595,773
511,1	8507,013
511,5	8424,933
512	8338,493
512,4	8249,973
512,9	8167,533
513,3	8085,573
513,8	7996,173
514,2	7911,693
514,7	7841,413
515,1	7751,773
515,6	7666,333
516	7575,653
516,5	7481,293
516,9	7381,933
517,4	7302,133
517,8	7219,373
518,3	7144,733
518,7	7057,253
519,2	6972,933
519,6	6889,133
520,1	6809,213
520,5	6718,333
521	6650,173
521,4	6566,053
521,9	6480,493
522,3	6397,893
522,8	6326,173
523,2	6243,093
523,7	6164,653
524,1	6104,493
524,6	6016,093
525	5937,253
525,5	5865,093
525,9	5801,173
526,4	5711,133
526,8	5646,773
527,3	5574,173
527,7	5518,213
528,2	5449,373
528,6	5397,773
529,1	5342,733
529,5	5283,493
530	5201,213
530,4	5140,213
530,9	5064,533
531,3	4995,533
531,8	4930,133
532,2	4872,493
532,6	4809,093
533,1	4749,773
533,5	4684,253
534	4622,133
534,4	4570,173
534,9	4501,333
535,3	4459,333
535,8	4406,733
536,2	4355,373
536,7	4288,893
537,1	4237,333
537,6	4176,813
538	4132,333
538,5	4086,973
538,9	4045,213
539,4	3993,453
539,8	3942,533
540,3	3886,653
540,7	3833,053
541,2	3787,053
541,6	3756,893
542,1	3707,413
542,5	3671,253
543	3623,653
543,4	3575,293
543,9	3526,013
544,3	3490,613
544,8	3444,173
545,2	3400,333
545,7	3354,933
546,1	3321,293
546,5	3277,173
547	3234,893
547,4	3201,773
547,9	3165,253
548,3	3120,293
548,8	3088,893
549,2	3054,773
549,7	3025,573
550,1	2997,253
550,6	2964,293
551	2922,733
551,5	2893,693
551,9	2857,493
552,4	2821,693
552,8	2786,253
553,3	2761,253
553,7	2731,813
554,2	2705,973
554,6	2678,133
555,1	2659,973
555,5	2636,813
555,9	2610,893
556,4	2571,333
556,8	2552,013
557,3	2523,453
557,7	2495,013
558,2	2463,013
558,6	2450,133
559,1	2418,573
559,5	2392,693
560	2369,613
560,4	2341,893
560,9	2316,773
561,3	2300,453
561,8	2273,293
562,2	2246,293
562,7	2231,293
563,1	2207,973
563,6	2179,213
564	2161,333
564,4	2144,853
564,9	2119,933
565,3	2102,253
565,8	2081,213
566,2	2062,173
566,7	2038,253
567,1	2023,013
567,6	1995,693
568	1982,493
568,5	1962,533
568,9	1939,293
569,4	1918,413
569,8	1908,413
570,3	1891,733
570,7	1874,533
571,1	1867,773
571,6	1852,533
572	1834,213
572,5	1818,293
572,9	1799,933
573,4	1778,653
573,8	1763,333
574,3	1748,093
574,7	1728,693
575,2	1712,053
575,6	1701,493
576,1	1684,893
576,5	1668,133
576,9	1650,333
577,4	1638,333
577,8	1611,973
578,3	1597,733
578,7	1583,853
579,2	1570,893
579,6	1561,373
580,1	1557,253
580,5	1547,213
581	1535,293
581,4	1523,853
581,9	1511,373
582,3	1493,653
582,7	1477,333
583,2	1465,973
583,6	1454,173
584,1	1432,813
584,5	1425,733
585	1412,493
585,4	1394,213
585,9	1379,813
586,3	1373,733
586,8	1359,133
587,2	1351,173
587,6	1343,853
588,1	1332,333
588,5	1320,013
589	1307,373
589,4	1295,093
589,9	1284,733
590,3	1278,893
590,8	1269,973
591,2	1260,253
591,7	1253,413
592,1	1244,693
592,5	1232,973
593	1218,573
593,4	1213,573
593,9	1197,933
594,3	1187,453
594,8	1182,693
595,2	1179,453
595,7	1168,893
596,1	1175,133
596,6	1170,733
597	1162,533
597,4	1155,333
597,9	1147,573
598,3	1131,413
598,8	1124,813
599,2	1115,533
599,7	1108,693
600,1	1106,853
600,6	1096,493
601	1079,933
601,4	1067,813
601,9	1053,933
602,3	1043,773
602,8	1039,493
603,2	1037,373
603,7	1034,493
604,1	1036,973
604,6	1026,773
605	1020,613
605,4	1013,573
605,9	1003,493
606,3	993,893
606,8	990,293
607,2	978,453
607,7	971,613
608,1	972,133
608,6	967,493
609	957,693
609,4	958,293
609,9	955,973
610,3	941,453
610,8	933,813
611,2	915,693
611,7	906,973
612,1	894,253
612,6	891,493
613	883,053
613,4	892,493
613,9	887,573
614,3	879,453
614,8	874,653
615,2	868,413
615,7	859,933
616,1	844,293
616,6	838,573
617	831,253
617,4	828,333
617,9	822,213
618,3	821,413
618,8	815,453
619,2	817,573
619,7	811,653
620,1	801,253
620,5	795,413
621	792,973
621,4	777,093
621,9	771,453
622,3	770,973
622,8	770,413
623,2	766,773
623,6	767,533
624,1	758,053
624,5	750,213
625	736,373
625,4	726,693
625,9	723,533
626,3	720,893
626,8	713,493
627,2	711,533
627,6	711,253
628,1	700,013
628,5	692,973
629	696,493
629,4	692,093
629,9	687,173
630,3	681,933
630,7	675,853
631,2	665,253
631,6	662,813
632,1	656,453
632,5	650,573
633	643,053
633,4	636,733
633,8	625,293
634,3	621,613
634,7	618,413
635,2	616,773
635,6	609,893
636,1	616,093
636,5	612,893
636,9	602,853
637,4	607,413
637,8	606,093
638,3	592,293
638,7	579,173
639,2	580,013
639,6	566,853
640	560,253
640,5	562,053
640,9	563,253
641,4	555,093
641,8	555,133
642,2	557,853
642,7	547,853
643,1	542,413
643,6	539,693
644	531,373
644,5	528,933
644,9	531,693
645,3	531,373
645,8	528,933
646,2	524,293
646,7	513,933
647,1	512,853
647,6	503,013
648	501,733
648,4	505,533
648,9	505,853
649,3	495,053
649,8	498,573
650,2	497,253
650,6	485,253
651,1	481,373
651,5	477,693
652	476,253
652,4	470,293
652,9	470,253
653,3	466,453
653,7	467,893
654,2	461,693
654,6	462,853
655,1	456,613
655,5	447,853
655,9	443,613
656,4	437,493
656,8	430,533
657,3	430,053
657,7	432,213
658,2	427,093
658,6	418,693
659	418,813
659,5	414,213
659,9	408,013
660,4	404,093
660,8	409,013
661,2	401,653
661,7	397,173
662,1	394,093
662,6	388,693
663	381,973
663,4	377,533
663,9	374,893
664,3	374,693
664,8	372,253
665,2	369,173
665,6	370,573
666,1	373,533
666,5	365,013
667	366,133
667,4	361,573
667,9	353,653
668,3	345,093
668,7	347,773
669,2	342,533
669,6	345,533
670,1	345,213
670,5	348,293
670,9	346,093
671,4	342,253
671,8	337,813
672,3	334,053
672,7	329,453
673,1	326,133
673,6	325,053
674	327,253
674,5	322,373
674,9	314,613
675,3	311,013
675,8	313,013
676,2	303,653
676,7	304,013
677,1	301,453
677,5	300,373
678	291,853
678,4	295,173
678,9	289,373
679,3	286,813
679,7	285,933
680,2	286,333
680,6	275,533
681,1	271,653
681,5	275,053
681,9	269,373
682,4	268,093
682,8	267,733
683,3	271,173
683,7	266,213
684,1	265,853
684,6	265,493
685	267,813
685,5	262,053
685,9	262,053
686,3	258,493
686,8	253,973
687,2	249,373
687,7	252,133
688,1	249,453
688,5	251,533
689	245,573
689,4	246,053
689,9	240,533
690,3	234,733
690,7	226,213
691,2	226,413
691,6	221,613
692	217,853
692,5	216,773
692,9	219,053
693,4	221,253
693,8	227,533
694,2	230,853
694,7	232,373
695,1	228,853
695,6	222,693
696	212,813
696,4	207,493
696,9	209,893
697,3	213,293
697,8	207,333
698,2	210,733
698,6	210,093
699,1	199,893
699,5	194,533
699,9	197,693
700,4	192,413
700,8	190,933
701,3	185,093
701,7	180,973
702,1	176,893
702,6	171,133
703	174,013
703,5	178,293
703,9	177,293
704,3	184,253
704,8	189,653
705,2	181,493
705,6	179,413
706,1	181,813
706,5	170,413
707	168,173
707,4	166,373
707,8	161,893
708,3	159,533
708,7	159,693
709,2	152,453
709,6	151,733
710	152,973
710,5	148,173
710,9	139,213
711,3	137,973
711,8	142,733
712,2	141,333
712,7	136,493
713,1	146,293
713,5	149,373
714	143,973
714,4	144,573
714,8	147,693
715,3	147,333
715,7	149,253
716,2	145,253
716,6	139,493
717	142,493
717,5	137,533
717,9	129,133
718,3	125,093
718,8	134,693
719,2	126,213
719,7	124,533
720,1	127,493
720,5	124,213
721	114,253
721,4	112,173
721,8	111,253
722,3	104,013
722,7	105,853
723,2	105,013
723,6	104,973
724	104,573
724,5	105,453
724,9	112,933
725,3	112,493
725,8	115,053
726,2	110,733
726,7	112,773
727,1	110,493
727,5	107,333
728	104,213
728,4	109,013
728,8	109,093
729,3	106,173
729,7	107,413
730,1	107,133
730,6	104,733
731	101,293
731,5	98,093
731,9	100,533
732,3	100,533
732,8	98,373
733,2	95,333
733,6	97,213
734,1	91,453
734,5	91,933
734,9	92,493
735,4	94,213
735,8	90,293
736,3	94,413
736,7	89,253
737,1	90,533
737,6	93,493
738	90,053
738,4	85,893
738,9	86,413
739,3	82,373
739,7	77,053
740,2	75,653
740,6	71,133
741,1	69,373
741,5	68,973
741,9	70,253
742,4	71,773
742,8	74,093
743,2	75,093
743,7	75,213
744,1	73,933
744,5	67,773
745	72,933
745,4	70,613
745,8	70,053
746,3	70,653
746,7	70,573
747,2	63,773
747,6	63,493
748	57,013
748,5	58,613
748,9	64,093
749,3	67,893
749,8	69,493
750,2	69,933
750,6	66,533
751,1	62,293
751,5	58,773
751,9	59,773
752,4	64,973
752,8	65,653
753,3	66,373
753,7	65,133
754,1	65,773
754,6	64,293
755	61,253
755,4	67,773
755,9	65,893
756,3	56,573
756,7	56,693
757,2	51,533
757,6	47,133
758	49,773
758,5	51,813
758,9	48,133
759,3	49,773
759,8	45,853
760,2	40,733
760,6	39,733
761,1	39,453
761,5	40,093
761,9	43,573
762,4	40,773
762,8	43,733
763,3	40,253
763,7	41,253
764,1	39,773
764,6	45,173
765	46,773
765,4	48,693
765,9	45,093
766,3	41,173
766,7	37,973
767,2	32,653
767,6	29,493
768	33,413
768,5	32,333
768,9	32,573
769,3	33,293
769,8	34,573
770,2	28,133
770,6	33,053
771,1	32,413
771,5	31,493
771,9	35,773
772,4	40,293
772,8	37,533
773,2	40,813
773,7	40,853
774,1	37,293
774,5	34,253
775	33,693
775,4	32,493
775,8	31,453
776,3	30,253
776,7	32,893
777,1	32,853
777,6	31,573
778	32,653
778,4	33,773
778,9	31,173
779,3	25,413
779,7	22,813
780,2	24,453
780,6	22,973
781	24,013
781,5	25,893
781,9	17,613
782,3	11,373
782,8	10,533
783,2	14,573
783,6	16,733
784,1	21,853
784,5	19,453
784,9	17,533
785,4	13,773
785,8	14,093
786,2	11,613
786,7	14,373
787,1	12,933
787,5	7,373
788	8,813
788,4	13,813
788,8	11,733
789,3	19,093
789,7	16,773
790,1	14,573
790,6	13,973
791	11,773
791,4	6,813
791,9	4,573
792,3	1,933
792,7	2,533
793,2	6,453
793,6	3,613
794	8,373
794,5	10,253
794,9	6,133
795,3	5,493
795,8	8,333
796,2	8,693
796,6	9,173
797,1	8,173
797,5	8,213
797,9	6,133
798,4	3,133
798,8	-1,547
799,2	1,053
799,7	-2,627
800,1	-1,587
800,5	-0,427
801	-4,427
801,4	-4,707
801,8	-3,547
802,2	-4,667
802,7	-0,067
803,1	3,253
803,5	5,373
804	9,813
804,4	9,733
804,8	4,373
805,3	4,813
805,7	1,453
806,1	0,413
806,6	-2,107
807	-6,747
807,4	-6,867
807,9	-4,587
808,3	-6,227
808,7	-6,267
809,2	2,653
809,6	-1,227
810	-5,027
810,4	-6,547
810,9	-4,867
811,3	-14,067
811,7	-9,387
812,2	-6,107
812,6	-10,787
813	-7,427
813,5	-0,427
813,9	1,933
814,3	3,093
814,8	10,773
815,2	3,093
815,6	-2,387
816,1	-2,987
816,5	-5,787
816,9	-7,307
817,3	-10,347
817,8	-9,587
818,2	-16,667
818,6	-19,747
819,1	-24,667
819,5	-14,747
819,9	-8,987
820,4	-6,227
820,8	-2,627
821,2	1,493
821,7	1,373
822,1	-1,627
822,5	-2,827
822,9	-9,507
823,4	-11,987
823,8	-19,227
824,2	-24,187
824,7	-22,147
825,1	-13,467
825,5	-17,627
826	-14,587
826,4	-14,627
826,8	-16,747
827,3	-21,027
827,7	-18,867
828,1	-17,267
828,5	-13,627
829	-13,587
829,4	-14,627
829,8	-11,507
830,3	-11,107
830,7	-12,587
831,1	-20,147
831,6	-17,787
832	-20,027
832,4	-23,347
832,8	-22,347
833,3	-9,827
833,7	-11,947
834,1	-9,867
834,6	-11,747
835	-13,547
835,4	-15,547
835,8	-16,227
836,3	-17,827
836,7	-12,107
837,1	-16,347
837,6	-19,827
838	-18,427
838,4	-17,027
838,9	-25,947
839,3	-23,107
839,7	-20,267
840,1	-17,147
840,6	-16,627
841	-8,867
841,4	-3,827
841,9	-5,547
842,3	-9,627
842,7	-10,467
843,1	-12,467
843,6	-22,787
844	-27,707
844,4	-31,227
844,9	-35,347
845,3	-33,507
845,7	-29,027
846,2	-28,307
846,6	-24,107
847	-27,067
847,4	-32,067
847,9	-25,947
848,3	-26,307
848,7	-29,907
849,2	-26,107
849,6	-32,587
850	-34,867
850,4	-37,347
850,9	-35,667
851,3	-33,547
851,7	-30,387
852,2	-30,627
852,6	-31,307
853	-32,667
853,4	-31,427
853,9	-27,107
854,3	-25,027
854,7	-15,707
855,2	-13,347
855,6	-20,467
856	-20,867
856,4	-24,947
856,9	-29,467
857,3	-31,507
857,7	-26,947
858,2	-26,227
858,6	-26,507
859	-27,187
859,4	-22,707
859,9	-24,867
860,3	-26,467
860,7	-27,067
861,1	-22,907
861,6	-25,747
862	-28,467
862,4	-28,787
862,9	-30,427
863,3	-31,027
863,7	-34,067
864,1	-28,427
864,6	-27,227
865	-23,307
865,4	-26,587
865,9	-28,747
866,3	-35,387
866,7	-34,987
867,1	-40,387
867,6	-43,187
868	-37,627
868,4	-33,227
868,8	-31,427
869,3	-27,027
869,7	-23,147
870,1	-30,027
870,6	-31,827
871	-35,147
871,4	-42,347
871,8	-47,987
872,3	-45,787
872,7	-47,747
873,1	-42,587
873,5	-35,347
874	-31,027
874,4	-25,507
874,8	-28,947
875,3	-32,307
875,7	-31,027
876,1	-31,347
876,5	-35,827
877	-26,547
877,4	-28,307
877,8	-29,307
878,2	-26,467
878,7	-27,787
879,1	-28,627
879,5	-25,947
879,9	-29,987
880,4	-29,147
880,8	-29,107
881,2	-31,387
881,7	-34,787
882,1	-32,787
882,5	-37,107
882,9	-32,547
883,4	-29,147
883,8	-26,107
884,2	-20,307
884,6	-18,467
885,1	-22,867
885,5	-24,587
885,9	-28,107
886,3	-36,987
886,8	-34,187
887,2	-37,187
887,6	-36,827
888	-43,587
888,5	-41,067
888,9	-43,267
889,3	-36,987
889,8	-39,387
890,2	-32,667
890,6	-28,547
891	-33,947
891,5	-34,947
891,9	-32,347
892,3	-31,147
892,7	-36,147
893,2	-34,787
893,6	-36,747
894	-39,067
894,4	-41,507
894,9	-41,987
895,3	-38,107
895,7	-34,667
896,1	-32,987
896,6	-27,787
897	-27,467
897,4	-32,747
897,8	-33,547
898,3	-40,147
898,7	-35,747
899,1	-38,747
899,5	-36,027
900	-43,787
900,4	-37,587
900,8	-44,907
901,2	-41,187
901,7	-37,867
902,1	-30,627
902,5	-31,587
902,9	-29,827
903,4	-28,507
903,8	-29,947
904,2	-25,307
904,6	-30,747
905,1	-32,947
905,5	-36,667
905,9	-39,547
906,3	-46,747
906,8	-36,467
907,2	-37,947
907,6	-37,987
908	-36,667
908,5	-38,667
908,9	-44,587
909,3	-46,387
909,7	-40,907
910,2	-40,307
910,6	-41,787
911	-41,747
911,4	-43,307
911,9	-47,107
912,3	-50,387
912,7	-46,027
913,1	-49,347
913,6	-44,667
914	-50,307
914,4	-56,507
914,8	-59,267
915,3	-58,667
915,7	-59,747
916,1	-60,187
916,5	-48,347
916,9	-45,067
917,4	-39,787
917,8	-41,667
918,2	-36,667
918,6	-40,147
919,1	-36,387
919,5	-40,827
919,9	-35,147
920,3	-30,827
920,8	-29,347
921,2	-36,907
921,6	-36,867
922	-42,987
922,5	-42,027
922,9	-47,267
923,3	-39,827
923,7	-35,467
924,2	-38,067
924,6	-43,387
925	-36,947
925,4	-38,267
925,8	-43,067
926,3	-37,707
926,7	-39,627
927,1	-42,227
927,5	-48,147
928	-46,347
928,4	-50,147
928,8	-41,547
929,2	-44,227
929,7	-38,387
930,1	-37,587
930,5	-32,427
930,9	-40,507
931,3	-38,187
931,8	-45,667
932,2	-46,707
932,6	-50,787
933	-47,827
933,5	-46,787
933,9	-38,067
934,3	-43,547
934,7	-38,707
935,2	-35,147
935,6	-37,707
936	-46,027
936,4	-46,627
936,8	-50,187
937,3	-56,347
937,7	-52,667
938,1	-47,907
938,5	-45,387
939	-44,827
939,4	-43,947
939,8	-46,547
940,2	-48,347
940,6	-47,787
941,1	-49,027
941,5	-46,867
941,9	-45,707
942,3	-45,867
942,8	-47,187
943,2	-44,747
943,6	-51,867
944	-55,387
944,4	-59,667
944,9	-58,667
945,3	-59,467
945,7	-58,307
946,1	-58,547
946,6	-56,907
947	-52,387
947,4	-53,587
947,8	-43,667
948,2	-36,027
948,7	-26,587
949,1	-27,947
949,5	-26,747
949,9	-32,067
950,3	-37,467
950,8	-39,667
951,2	-36,667
951,6	-38,707
952	-39,827
952,5	-35,227
952,9	-35,947
953,3	-39,427
953,7	-37,147
954,1	-35,827
954,6	-38,787
955	-36,867
955,4	-38,707
955,8	-39,387
956,2	-39,747
956,7	-41,387
957,1	-43,747
957,5	-43,267
957,9	-42,387
958,3	-39,507
958,8	-40,227
959,2	-45,587
959,6	-42,387
960	-43,147
960,5	-45,427
960,9	-44,027
961,3	-42,507
961,7	-40,507
962,1	-41,107
962,6	-40,987
963	-34,147
963,4	-31,227
963,8	-29,467
964,2	-33,187
964,7	-29,587
965,1	-35,947
965,5	-43,947
965,9	-49,947
966,3	-40,987
966,8	-42,667
967,2	-42,707
967,6	-37,947
968	-38,387
968,4	-40,427
968,9	-44,987
969,3	-38,187
969,7	-40,547
970,1	-40,507
970,5	-42,547
971	-37,947
971,4	-42,307
971,8	-39,067
972,2	-37,467
972,6	-35,907
973,1	-38,427
973,5	-49,427
973,9	-53,507
974,3	-52,787
974,7	-53,747
975,2	-54,787
975,6	-48,987
976	-43,827
976,4	-47,947
976,8	-47,867
977,3	-50,107
977,7	-43,067
978,1	-45,147
978,5	-43,747
978,9	-49,307
979,4	-40,427
979,8	-44,627
980,2	-44,347
980,6	-39,467
981	-33,787
981,5	-41,747
981,9	-42,107
982,3	-42,867
982,7	-50,187
983,1	-50,947
983,6	-41,267
984	-38,227
984,4	-38,587
984,8	-37,547
985,2	-33,987
985,6	-42,867
986,1	-49,627
986,5	-46,587
986,9	-45,067
987,3	-51,667
987,7	-47,547
988,2	-47,027
988,6	-47,987
989	-48,867
989,4	-56,907
989,8	-60,347
990,3	-60,307
990,7	-62,107
991,1	-56,907
991,5	-40,747
991,9	-38,547
992,3	-39,747
992,8	-37,947
993,2	-41,587
993,6	-45,027
994	-50,667
994,4	-46,187
994,9	-41,907
995,3	-43,907
995,7	-48,227
996,1	-43,547
996,5	-42,227
996,9	-49,147
997,4	-50,107
997,8	-53,747
998,2	-54,667
998,6	-57,027
999	-52,707
999,5	-48,947
999,9	-40,747
1000,3	-39,747
1000,7	-40,027
1001,1	-37,467
1001,5	-36,547
1002	-42,627
1002,4	-43,067
1002,8	-42,787
1003,2	-49,107
1003,6	-51,547
1004	-46,027
1004,5	-48,827
1004,9	-46,787
1005,3	-48,907
1005,7	-51,507
1006,1	-53,067
1006,6	-53,307
1007	-55,067
1007,4	-45,387
1007,8	-41,307
1008,2	-45,147
1008,6	-40,627
1009,1	-38,267
1009,5	-47,707
1009,9	-49,867
1010,3	-45,187
1010,7	-45,467
1011,1	-48,667
1011,6	-40,147
1012	-39,187
1012,4	-43,307
1012,8	-44,947
1013,2	-44,827
1013,6	-54,267
1014,1	-50,467
1014,5	-46,147
1014,9	-43,987
1015,3	-39,427
1015,7	-33,667
1016,1	-39,907
1016,6	-43,987
1017	-46,227
1017,4	-47,507
1017,8	-51,507
1018,2	-43,627
1018,6	-44,667
1019,1	-44,667
1019,5	-45,947
1019,9	-40,667
1020,3	-44,867
1020,7	-45,147
1021,1	-47,347
1021,6	-46,787
1022	-47,347
1022,4	-54,467
1022,8	-50,067
1023,2	-52,507
1023,6	-56,907
1024,1	-56,867
1024,5	-54,667
1024,9	-59,307
1025,3	-58,507
1025,7	-52,747
1026,1	-55,147
1026,6	-50,107
1027	-50,027
1027,4	-54,147
1027,8	-55,827
1028,2	-56,067
1028,6	-50,747
1029	-45,507
1029,5	-40,947
1029,9	-43,107
1030,3	-46,467
1030,7	-53,707
1031,1	-56,307
1031,5	-53,307
1032	-52,507
1032,4	-52,067
1032,8	-54,427
1033,2	-54,227
1033,6	-56,707
1034	-56,587
1034,4	-58,827
1034,9	-58,867
1035,3	-61,227
1035,7	-64,827
1036,1	-68,907
1036,5	-65,187
1036,9	-58,027
1037,4	-56,387
1037,8	-47,467
1038,2	-48,627
1038,6	-50,467
1039	-56,467
1039,4	-58,667
1039,8	-65,147
1040,3	-64,107
1040,7	-58,347
1041,1	-59,107
1041,5	-56,827
1041,9	-55,027
1042,3	-55,187
1042,7	-62,667
1043,2	-60,547
1043,6	-63,147
1044	-62,107
1044,4	-58,707
1044,8	-49,067
1045,2	-49,587
1045,6	-45,627
1046,1	-44,867
1046,5	-40,987
1046,9	-50,747
1047,3	-47,307
1047,7	-49,347
1048,1	-49,547
1048,5	-60,827
1049	-56,267
1049,4	-60,907
1049,8	-60,427
1050,2	-54,347
1050,6	-43,707
1051	-44,387
1051,4	-43,027
1051,9	-48,067
1052,3	-61,467
1052,7	-71,547
1053,1	-71,827
1053,5	-71,547
1053,9	-65,027
1054,3	-66,347
1054,8	-60,747
1055,2	-59,147
1055,6	-60,107
1056	-59,187
1056,4	-53,467
1056,8	-50,347
1057,2	-46,307
1057,6	-45,787
1058,1	-48,747
1058,5	-56,107
1058,9	-59,267
1059,3	-61,347
1059,7	-62,707
1060,1	-62,587
1060,5	-54,787
1061	-58,827
1061,4	-65,627
1061,8	-64,747
1062,2	-65,227
1062,6	-63,907
1063	-61,867
1063,4	-56,187
1063,8	-54,987
1064,3	-53,747
1064,7	-51,547
1065,1	-52,147
1065,5	-51,267
1065,9	-53,667
1066,3	-56,307
1066,7	-61,187
1067,1	-56,827
1067,6	-59,147
1068	-52,027
1068,4	-44,387
1068,8	-39,747
1069,2	-40,187
1069,6	-40,467
1070	-39,507
1070,4	-45,427
1070,9	-54,667
1071,3	-57,147
1071,7	-56,107
1072,1	-65,867
1072,5	-66,067
1072,9	-60,067
1073,3	-54,427
1073,7	-54,507
1074,2	-53,987
1074,6	-52,267
1075	-52,147
1075,4	-54,587
1075,8	-56,587
1076,2	-55,267
1076,6	-50,867
1077	-48,987
1077,5	-49,987
1077,9	-47,547
1078,3	-45,267
1078,7	-46,227
1079,1	-47,947
1079,5	-47,587
1079,9	-44,867
1080,3	-46,787
1080,7	-44,067
1081,2	-43,707
1081,6	-43,387
1082	-46,027
1082,4	-40,947
1082,8	-45,747
1083,2	-43,347
1083,6	-41,627
1084	-40,667
1084,5	-46,387
1084,9	-49,987
1085,3	-49,267
1085,7	-52,387
1086,1	-51,507
1086,5	-49,387
1086,9	-51,107
1087,3	-51,787
1087,7	-48,707
1088,2	-46,027
1088,6	-46,747
1089	-46,107
1089,4	-44,787
1089,8	-45,987
1090,2	-54,107
1090,6	-48,587
1091	-41,067
1091,4	-43,027
1091,9	-42,067
1092,3	-38,507
1092,7	-40,827
1093,1	-41,027
1093,5	-43,547
1093,9	-43,947
1094,3	-37,547
1094,7	-39,307
1095,1	-42,547
1095,5	-42,507
1096	-42,027
1096,4	-46,107
1096,8	-45,347
1097,2	-40,867
1097,6	-36,747
1098	-38,627
1098,4	-40,027
1098,8	-32,587
1099,2	-34,907
1099,6	-32,347
1100,1	-27,107
1100,5	-21,027
1100,9	-23,387
1101,3	-24,587
1101,7	-27,227
1102,1	-31,067
1102,5	-35,227
1102,9	-40,347
1103,3	-40,547
1103,7	-38,387
1104,2	-37,027
1104,6	-35,307
1105	-33,187
1105,4	-31,827
1105,8	-29,987
1106,2	-23,507
1106,6	-18,587
1107	-11,347
1107,4	-4,067
1107,8	-0,317
1108,3	0,533
