Data from Subt2_00049.txt Node
Date: Fri Aug 11 16:09:30 MSK 2023
User: vat
Spectrometer: MAYP114033
Trigger mode: 0
Integration Time (sec): 5,000000E-1
Scans to average: 5
Electric dark correction enabled: true
Nonlinearity correction enabled: false
Boxcar width: 2
XAxis mode: Wavelengths
Number of Pixels in Spectrum: 2068
>>>>>Begin Spectral Data<<<<<
199,4	-0,667
199,9	-0,167
200,4	-1,867
200,8	-4,587
201,3	-8,947
201,8	-10,867
202,2	-11,627
202,7	-14,627
203,2	-14,907
203,6	-15,187
204,1	-13,907
204,6	-17,347
205	-13,267
205,5	-13,867
206	-10,587
206,4	-14,187
206,9	-12,507
207,4	-11,707
207,8	-9,867
208,3	-8,707
208,8	-9,027
209,2	-7,147
209,7	-10,827
210,2	-6,987
210,6	-12,027
211,1	-12,387
211,5	-13,427
212	-13,587
212,5	-15,867
212,9	-15,147
213,4	-17,267
213,9	-18,507
214,3	-14,227
214,8	-16,587
215,3	-13,347
215,7	-12,307
216,2	-11,307
216,7	-19,587
217,1	-19,667
217,6	-21,067
218,1	-21,307
218,5	-23,267
219	-15,107
219,5	-8,227
219,9	-9,507
220,4	-4,667
220,9	-4,347
221,3	-10,587
221,8	-18,787
222,3	-19,907
222,7	-22,387
223,2	-20,227
223,6	-17,227
224,1	-15,507
224,6	-11,387
225	-12,307
225,5	-15,707
226	-15,787
226,4	-16,227
226,9	-22,867
227,4	-18,907
227,8	-17,747
228,3	-19,987
228,8	-23,987
229,2	-21,787
229,7	-25,267
230,2	-21,467
230,6	-21,147
231,1	-16,907
231,5	-16,867
232	-19,587
232,5	-24,627
232,9	-29,987
233,4	-29,227
233,9	-31,707
234,3	-25,907
234,8	-21,347
235,3	-13,427
235,7	-11,507
236,2	-7,507
236,7	-8,907
237,1	-20,667
237,6	-19,507
238,1	-21,427
238,5	-21,907
239	-23,867
239,4	-11,907
239,9	-9,307
240,4	-8,787
240,8	-5,987
241,3	-3,307
241,8	-4,027
242,2	-7,867
242,7	-5,987
243,2	-7,467
243,6	-9,307
244,1	-12,187
244,6	-12,947
245	-17,187
245,5	-22,067
245,9	-21,987
246,4	-18,827
246,9	-17,707
247,3	-21,067
247,8	-16,187
248,3	-16,027
248,7	-22,547
249,2	-28,347
249,7	-25,187
250,1	-23,427
250,6	-24,427
251	-23,027
251,5	-17,507
252	-19,667
252,4	-24,627
252,9	-21,067
253,4	-20,187
253,8	-17,907
254,3	-13,587
254,8	-15,347
255,2	-15,347
255,7	-15,507
256,1	-22,747
256,6	-28,547
257,1	-24,347
257,5	-28,267
258	-27,907
258,5	-22,227
258,9	-15,627
259,4	-14,867
259,9	-17,067
260,3	-16,347
260,8	-15,907
261,2	-13,307
261,7	-10,747
262,2	-10,707
262,6	-9,987
263,1	-8,227
263,6	-14,507
264	-13,867
264,5	-14,427
264,9	-14,667
265,4	-18,467
265,9	-12,987
266,3	-15,027
266,8	-8,067
267,3	-11,907
267,7	-11,787
268,2	-12,747
268,7	-7,987
269,1	-12,947
269,6	-13,707
270	-14,107
270,5	-23,147
271	-30,027
271,4	-33,267
271,9	-29,267
272,4	-29,387
272,8	-27,827
273,3	-28,107
273,7	-18,307
274,2	-15,947
274,7	-19,867
275,1	-17,907
275,6	-15,947
276,1	-23,307
276,5	-26,067
277	-20,627
277,4	-14,507
277,9	-19,027
278,4	-15,027
278,8	-17,227
279,3	-17,307
279,8	-24,427
280,2	-24,627
280,7	-27,107
281,1	-21,787
281,6	-21,547
282,1	-15,067
282,5	-9,947
283	-8,267
283,4	-11,747
283,9	-12,267
284,4	-17,667
284,8	-20,147
285,3	-18,587
285,8	-14,667
286,2	-16,227
286,7	-13,987
287,1	-15,387
287,6	-18,067
288,1	-17,787
288,5	-11,467
289	-13,387
289,5	-11,347
289,9	-6,267
290,4	-12,027
290,8	-15,827
291,3	-14,227
291,8	-14,987
292,2	-15,467
292,7	-12,627
293,1	-14,627
293,6	-14,867
294,1	-15,707
294,5	-23,827
295	-19,227
295,5	-12,147
295,9	-9,947
296,4	-12,067
296,8	-2,307
297,3	-3,707
297,8	-13,027
298,2	-22,427
298,7	-18,947
299,1	-29,427
299,6	-30,547
300,1	-33,747
300,5	-26,947
301	-23,747
301,5	-20,227
301,9	-21,547
302,4	-14,907
302,8	-18,747
303,3	-23,307
303,8	-25,027
304,2	-31,907
304,7	-34,907
305,1	-28,027
305,6	-22,507
306,1	-18,067
306,5	-10,187
307	-8,067
307,4	-7,987
307,9	-10,627
308,4	-8,267
308,8	-5,947
309,3	-1,867
309,8	-5,107
310,2	-6,387
310,7	-9,547
311,1	-18,547
311,6	-20,507
312,1	-17,947
312,5	-21,387
313	-23,027
313,4	-22,747
313,9	-23,427
314,4	-22,867
314,8	-21,587
315,3	-22,027
315,7	-16,867
316,2	-20,467
316,7	-22,307
317,1	-20,707
317,6	-19,787
318	-16,027
318,5	-20,867
319	-21,587
319,4	-22,507
319,9	-18,107
320,3	-22,347
320,8	-10,627
321,3	-11,747
321,7	-8,267
322,2	-11,267
322,6	-6,427
323,1	-13,787
323,6	-15,987
324	-15,907
324,5	-21,307
324,9	-24,347
325,4	-18,627
325,9	-14,627
326,3	-10,707
326,8	-6,907
327,2	-10,587
327,7	-15,707
328,2	-17,987
328,6	-20,667
329,1	-16,987
329,5	-13,227
330	-11,267
330,5	-11,667
330,9	-15,947
331,4	-21,707
331,8	-25,707
332,3	-22,907
332,8	-19,747
333,2	-23,987
333,7	-19,987
334,1	-18,147
334,6	-22,027
335,1	-20,787
335,5	-17,267
336	-18,587
336,4	-19,987
336,9	-18,027
337,4	-20,547
337,8	-16,627
338,3	-13,827
338,7	-10,547
339,2	-13,947
339,7	-10,507
340,1	-10,267
340,6	-12,387
341	-13,707
341,5	-13,827
342	-10,587
342,4	-13,427
342,9	-14,987
343,3	-16,227
343,8	-11,987
344,2	-15,867
344,7	-15,507
345,2	-15,027
345,6	-15,667
346,1	-13,747
346,5	-14,987
347	-17,347
347,5	-18,187
347,9	-16,347
348,4	-17,867
348,8	-19,667
349,3	-18,467
349,8	-20,187
350,2	-12,307
350,7	-11,507
351,1	-11,307
351,6	-7,867
352	-8,267
352,5	-9,507
353	-8,347
353,4	-3,387
353,9	2,173
354,3	15,773
354,8	14,933
355,3	24,813
355,7	29,573
356,2	34,293
356,6	39,733
357,1	53,173
357,5	61,293
358	74,293
358,5	93,013
358,9	109,253
359,4	127,733
359,8	144,093
360,3	175,893
360,8	199,773
361,2	235,213
361,7	272,573
362,1	319,373
362,6	362,213
363	411,933
363,5	463,053
364	517,253
364,4	575,133
364,9	627,933
365,3	687,653
365,8	736,133
366,3	787,173
366,7	830,813
367,2	870,773
367,6	901,773
368,1	934,853
368,5	944,973
369	950,333
369,5	950,533
369,9	943,053
370,4	922,573
370,8	907,773
371,3	884,933
371,7	858,693
372,2	819,053
372,7	776,093
373,1	727,773
373,6	681,213
374	636,693
374,5	596,853
374,9	560,053
375,4	522,653
375,9	482,893
376,3	439,573
376,8	403,653
377,2	368,493
377,7	336,533
378,2	305,693
378,6	277,533
379,1	253,933
379,5	228,573
380	204,813
380,4	184,133
380,9	170,373
381,4	153,813
381,8	146,893
382,3	142,333
382,7	134,373
383,2	123,533
383,6	116,053
384,1	102,973
384,6	89,613
385	80,053
385,5	75,493
385,9	62,813
386,4	57,253
386,8	51,133
387,3	49,733
387,7	43,613
388,2	39,093
388,7	41,493
389,1	37,733
389,6	34,373
390	26,533
390,5	24,533
390,9	18,893
391,4	15,493
391,9	9,613
392,3	10,133
392,8	11,453
393,2	4,573
393,7	6,373
394,1	8,053
394,6	11,013
395,1	9,373
395,5	11,253
396	10,373
396,4	5,893
396,9	5,973
397,3	4,453
397,8	6,253
398,2	6,533
398,7	11,693
399,2	10,253
399,6	11,453
400,1	6,653
400,5	3,853
401	1,533
401,4	-2,547
401,9	-6,387
402,4	-7,747
402,8	-7,067
403,3	-6,027
403,7	-7,627
404,2	-2,107
404,6	0,773
405,1	4,133
405,5	3,573
406	10,533
406,5	7,253
406,9	6,093
407,4	6,693
407,8	10,173
408,3	11,493
408,7	16,293
409,2	16,013
409,6	14,093
410,1	18,893
410,6	22,253
411	23,893
411,5	34,693
411,9	49,133
412,4	55,853
412,8	57,173
413,3	58,653
413,7	64,013
414,2	60,213
414,7	62,333
415,1	68,093
415,6	71,253
416	73,653
416,5	78,533
416,9	89,453
417,4	97,613
417,8	104,493
418,3	108,293
418,8	116,933
419,2	117,213
419,7	124,013
420,1	137,733
420,6	146,053
421	156,173
421,5	158,053
421,9	168,973
422,4	177,933
422,8	190,133
423,3	193,333
423,8	212,773
424,2	217,133
424,7	225,573
425,1	239,213
425,6	247,093
426	257,133
426,5	275,173
426,9	289,333
427,4	296,533
427,9	323,453
428,3	332,733
428,8	341,653
429,2	354,093
429,7	375,773
430,1	388,293
430,6	405,413
431	424,533
431,5	451,253
431,9	465,453
432,4	487,253
432,8	516,733
433,3	540,413
433,8	555,693
434,2	579,933
434,7	600,373
435,1	622,093
435,6	654,053
436	693,293
436,5	723,413
436,9	756,013
437,4	794,253
437,8	828,093
438,3	854,773
438,8	893,573
439,2	936,693
439,7	968,493
440,1	1003,893
440,6	1041,853
441	1086,213
441,5	1121,013
441,9	1160,853
442,4	1208,533
442,8	1256,173
443,3	1301,493
443,7	1351,053
444,2	1404,133
444,7	1452,293
445,1	1513,013
445,6	1566,533
446	1613,613
446,5	1671,333
446,9	1732,653
447,4	1783,173
447,8	1838,933
448,3	1908,893
448,7	1962,013
449,2	2025,453
449,6	2084,933
450,1	2144,613
450,6	2198,293
451	2263,133
451,5	2313,453
451,9	2380,013
452,4	2443,053
452,8	2513,053
453,3	2577,533
453,7	2648,893
454,2	2709,493
454,6	2787,573
455,1	2854,453
455,5	2931,333
456	3001,053
456,4	3068,093
456,9	3125,013
457,3	3205,613
457,8	3271,893
458,3	3335,973
458,7	3414,733
459,2	3492,333
459,6	3558,573
460,1	3627,813
460,5	3699,773
461	3762,333
461,4	3826,533
461,9	3890,413
462,3	3959,573
462,8	4028,333
463,2	4109,613
463,7	4168,653
464,1	4248,013
464,6	4314,773
465	4388,693
465,5	4444,293
466	4526,293
466,4	4575,693
466,9	4636,093
467,3	4685,373
467,8	4744,053
468,2	4802,093
468,7	4865,373
469,1	4918,213
469,6	4968,493
470	5030,093
470,5	5077,693
470,9	5122,133
471,4	5170,573
471,8	5228,333
472,3	5261,653
472,7	5297,253
473,2	5355,173
473,6	5388,213
474,1	5424,613
474,5	5471,173
475	5521,933
475,4	5549,133
475,9	5601,453
476,4	5646,493
476,8	5690,173
477,3	5721,333
477,7	5756,093
478,2	5783,013
478,6	5809,053
479,1	5823,733
479,5	5851,293
480	5870,653
480,4	5887,093
480,9	5905,293
481,3	5927,533
481,8	5949,213
482,2	5964,573
482,7	5983,573
483,1	5989,213
483,6	5991,813
484	5989,973
484,5	6002,053
484,9	6011,293
485,4	6017,133
485,8	6017,493
486,3	6023,733
486,7	6013,213
487,2	6010,613
487,6	6013,133
488,1	6027,173
488,5	6008,493
489	5999,973
489,4	5987,013
489,9	5977,933
490,4	5952,213
490,8	5934,813
491,3	5931,013
491,7	5906,773
492,2	5880,973
492,6	5851,773
493,1	5842,573
493,5	5806,813
494	5790,053
494,4	5767,373
494,9	5754,613
495,3	5726,813
495,8	5697,773
496,2	5672,213
496,7	5649,373
497,1	5623,133
497,6	5585,213
498	5565,293
498,5	5535,053
498,9	5495,653
499,4	5466,453
499,8	5443,933
500,3	5413,053
500,7	5389,173
501,2	5368,173
501,6	5327,933
502,1	5300,893
502,5	5267,453
503	5226,573
503,4	5189,213
503,9	5162,373
504,3	5127,573
504,8	5097,093
505,2	5055,413
505,7	5019,373
506,1	4982,893
506,6	4943,653
507	4893,173
507,5	4859,653
507,9	4817,853
508,4	4777,853
508,8	4737,493
509,3	4709,453
509,7	4661,333
510,2	4618,173
510,6	4572,333
511,1	4532,573
511,5	4491,693
512	4453,613
512,4	4417,733
512,9	4376,693
513,3	4333,253
513,8	4288,893
514,2	4247,893
514,7	4199,973
515,1	4151,893
515,6	4108,733
516	4062,333
516,5	4021,613
516,9	3978,013
517,4	3945,693
517,8	3900,213
518,3	3860,293
518,7	3818,613
519,2	3780,453
519,6	3731,413
520,1	3696,453
520,5	3649,573
521	3613,813
521,4	3558,173
521,9	3519,373
522,3	3477,613
522,8	3436,893
523,2	3390,173
523,7	3360,533
524,1	3326,893
524,6	3282,253
525	3256,293
525,5	3215,773
525,9	3186,693
526,4	3150,773
526,8	3112,293
527,3	3065,813
527,7	3039,893
528,2	2998,373
528,6	2954,333
529,1	2930,733
529,5	2902,893
530	2865,653
530,4	2831,133
530,9	2793,733
531,3	2755,093
531,8	2719,453
532,2	2687,453
532,6	2648,893
533,1	2623,453
533,5	2586,693
534	2543,133
534,4	2503,973
534,9	2473,053
535,3	2440,213
535,8	2416,613
536,2	2386,373
536,7	2360,373
537,1	2333,973
537,6	2309,453
538	2279,093
538,5	2253,293
538,9	2223,133
539,4	2195,373
539,8	2163,293
540,3	2130,253
540,7	2103,453
541,2	2074,173
541,6	2051,213
542,1	2018,373
542,5	1999,693
543	1979,093
543,4	1955,693
543,9	1925,413
544,3	1901,813
544,8	1867,093
545,2	1837,893
545,7	1814,573
546,1	1790,933
546,5	1766,453
547	1744,893
547,4	1717,693
547,9	1691,453
548,3	1675,453
548,8	1659,693
549,2	1639,413
549,7	1624,453
550,1	1608,413
550,6	1583,853
551	1566,333
551,5	1546,173
551,9	1526,013
552,4	1505,573
552,8	1483,733
553,3	1460,853
553,7	1449,333
554,2	1433,213
554,6	1415,413
555,1	1399,853
555,5	1387,933
555,9	1365,213
556,4	1339,173
556,8	1321,893
557,3	1305,213
557,7	1284,933
558,2	1267,813
558,6	1262,773
559,1	1241,013
559,5	1228,413
560	1214,773
560,4	1198,933
560,9	1177,853
561,3	1170,893
561,8	1153,733
562,2	1133,693
562,7	1126,133
563,1	1115,733
563,6	1097,493
564	1085,533
564,4	1076,333
564,9	1060,373
565,3	1043,413
565,8	1028,333
566,2	1013,413
566,7	998,133
567,1	985,173
567,6	974,173
568	967,293
568,5	956,573
568,9	947,733
569,4	932,893
569,8	925,333
570,3	915,653
570,7	909,053
571,1	894,373
571,6	885,893
572	870,733
572,5	862,613
572,9	849,053
573,4	843,733
573,8	830,693
574,3	826,093
574,7	811,453
575,2	798,853
575,6	785,493
576,1	776,093
576,5	766,813
576,9	756,453
577,4	747,813
577,8	740,413
578,3	732,213
578,7	724,933
579,2	711,133
579,6	705,333
580,1	699,173
580,5	695,413
581	684,933
581,4	683,373
581,9	667,413
582,3	654,093
582,7	638,613
583,2	630,933
583,6	623,373
584,1	621,133
584,5	619,133
585	614,333
585,4	606,613
585,9	598,773
586,3	593,053
586,8	583,613
587,2	578,093
587,6	568,333
588,1	559,853
588,5	548,933
589	538,973
589,4	527,893
589,9	526,453
590,3	522,333
590,8	518,373
591,2	511,493
591,7	515,213
592,1	507,493
592,5	498,653
593	496,773
593,4	493,333
593,9	480,013
594,3	472,213
594,8	474,493
595,2	468,053
595,7	462,613
596,1	464,173
596,6	457,173
597	447,973
597,4	443,293
597,9	442,733
598,3	437,493
598,8	439,253
599,2	440,893
599,7	437,933
600,1	439,613
600,6	434,973
601	428,213
601,4	420,813
601,9	417,013
602,3	408,933
602,8	403,573
603,2	401,893
603,7	396,013
604,1	390,493
604,6	385,173
605	388,293
605,4	387,853
605,9	379,333
606,3	374,693
606,8	372,253
607,2	361,253
607,7	350,533
608,1	354,413
608,6	353,733
609	352,333
609,4	351,133
609,9	354,333
610,3	349,573
610,8	344,533
611,2	329,173
611,7	325,653
612,1	321,533
612,6	313,533
613	315,893
613,4	325,333
613,9	325,333
614,3	320,413
614,8	322,053
615,2	314,173
615,7	306,813
616,1	296,213
616,6	291,133
617	289,893
617,4	292,613
617,9	290,413
618,3	295,973
618,8	294,653
619,2	297,333
619,7	296,693
620,1	291,453
620,5	282,413
621	281,413
621,4	275,093
621,9	267,053
622,3	269,613
622,8	277,733
623,2	277,133
623,6	275,573
624,1	275,013
624,5	268,773
625	254,533
625,4	250,453
625,9	245,413
626,3	243,373
626,8	242,213
627,2	241,733
627,6	243,733
628,1	244,893
628,5	239,213
629	242,493
629,4	246,893
629,9	239,453
630,3	238,893
630,7	237,373
631,2	232,493
631,6	227,733
632,1	228,453
632,5	222,293
633	217,173
633,4	216,253
633,8	213,213
634,3	209,293
634,7	207,773
635,2	210,053
635,6	207,293
636,1	210,733
636,5	213,893
636,9	211,573
637,4	211,213
637,8	211,733
638,3	203,293
638,7	198,013
639,2	195,933
639,6	191,613
640	187,173
640,5	188,773
640,9	186,093
641,4	187,973
641,8	186,613
642,2	187,453
642,7	187,213
643,1	193,093
643,6	184,333
644	180,813
644,5	181,853
644,9	185,653
645,3	176,733
645,8	179,453
646,2	178,373
646,7	173,933
647,1	170,813
647,6	171,933
648	170,373
648,4	177,293
648,9	176,453
649,3	166,253
649,8	167,253
650,2	170,173
650,6	163,613
651,1	165,253
651,5	168,613
652	168,533
652,4	165,653
652,9	163,853
653,3	162,453
653,7	165,893
654,2	165,973
654,6	167,453
655,1	172,173
655,5	165,973
655,9	161,413
656,4	155,453
656,8	149,133
657,3	143,733
657,7	150,293
658,2	149,333
658,6	148,933
659	156,733
659,5	155,933
659,9	150,573
660,4	151,293
660,8	154,293
661,2	146,613
661,7	143,453
662,1	143,453
662,6	140,893
663	131,573
663,4	130,333
663,9	129,613
664,3	124,093
664,8	125,613
665,2	128,533
665,6	134,253
666,1	135,573
666,5	140,373
667	138,573
667,4	134,333
667,9	129,013
668,3	125,973
668,7	123,773
669,2	119,493
669,6	123,973
670,1	120,893
670,5	123,093
670,9	120,413
671,4	124,773
671,8	124,493
672,3	127,013
672,7	129,453
673,1	124,333
673,6	119,093
674	119,413
674,5	116,813
674,9	115,373
675,3	121,053
675,8	116,573
676,2	115,773
676,7	116,453
677,1	113,293
677,5	108,213
678	118,893
678,4	117,933
678,9	114,853
679,3	112,213
679,7	114,853
680,2	108,293
680,6	102,493
681,1	102,173
681,5	106,933
681,9	106,813
682,4	106,333
682,8	109,173
683,3	113,493
683,7	112,253
684,1	109,773
684,6	110,093
685	112,573
685,5	106,973
685,9	102,773
686,3	101,173
686,8	91,973
687,2	88,053
687,7	90,013
688,1	93,693
688,5	97,013
689	100,653
689,4	96,613
689,9	92,013
690,3	84,173
690,7	80,573
691,2	79,533
691,6	87,053
692	93,213
692,5	98,733
692,9	95,733
693,4	104,093
693,8	104,573
694,2	100,413
694,7	97,173
695,1	98,413
695,6	90,253
696	86,893
696,4	88,773
696,9	89,253
697,3	90,853
697,8	90,893
698,2	91,133
698,6	87,093
699,1	85,213
699,5	85,173
699,9	85,333
700,4	82,093
700,8	84,413
701,3	76,413
701,7	77,613
702,1	74,733
702,6	72,493
703	70,133
703,5	75,293
703,9	71,213
704,3	73,413
704,8	79,533
705,2	79,493
705,6	86,093
706,1	85,053
706,5	80,693
707	73,933
707,4	70,013
707,8	60,573
708,3	61,973
708,7	67,293
709,2	64,133
709,6	66,293
710	68,573
710,5	66,133
710,9	57,413
711,3	52,293
711,8	52,173
712,2	54,693
712,7	56,573
713,1	66,893
713,5	76,933
714	77,693
714,4	74,573
714,8	74,773
715,3	71,293
715,7	68,853
716,2	64,493
716,6	60,413
717	61,653
717,5	59,853
717,9	56,493
718,3	55,453
718,8	61,173
719,2	56,093
719,7	51,333
720,1	53,173
720,5	54,133
721	53,453
721,4	53,373
721,8	53,413
722,3	55,573
722,7	55,293
723,2	54,693
723,6	53,973
724	61,893
724,5	58,133
724,9	67,493
725,3	62,733
725,8	66,253
726,2	58,893
726,7	58,413
727,1	48,453
727,5	50,973
728	45,773
728,4	50,613
728,8	50,613
729,3	50,733
729,7	50,573
730,1	51,773
730,6	47,733
731	46,213
731,5	47,773
731,9	48,133
732,3	51,453
732,8	51,973
733,2	50,613
733,6	53,693
734,1	55,613
734,5	54,373
734,9	54,653
735,4	53,733
735,8	50,653
736,3	46,533
736,7	44,493
737,1	46,813
737,6	51,333
738	46,493
738,4	50,613
738,9	50,733
739,3	47,733
739,7	42,773
740,2	42,453
740,6	40,453
741,1	38,773
741,5	35,293
741,9	42,293
742,4	41,853
742,8	38,893
743,2	41,573
743,7	46,493
744,1	48,013
744,5	49,093
745	52,613
745,4	56,133
745,8	54,653
746,3	47,173
746,7	44,853
747,2	40,853
747,6	37,493
748	37,933
748,5	40,653
748,9	40,733
749,3	36,613
749,8	31,613
750,2	29,973
750,6	30,413
751,1	30,973
751,5	34,013
751,9	37,933
752,4	37,813
752,8	37,373
753,3	38,453
753,7	43,213
754,1	41,813
754,6	46,573
755	42,733
755,4	44,453
755,9	46,253
756,3	41,733
756,7	37,533
757,2	38,333
757,6	36,573
758	33,413
758,5	33,613
758,9	31,533
759,3	31,893
759,8	35,453
760,2	33,453
760,6	34,453
761,1	32,773
761,5	33,173
761,9	30,813
762,4	28,413
762,8	28,773
763,3	29,333
763,7	28,253
764,1	28,613
764,6	31,253
765	34,053
765,4	32,573
765,9	33,093
766,3	32,093
766,7	27,893
767,2	27,773
767,6	29,573
768	32,053
768,5	29,253
768,9	32,733
769,3	30,173
769,8	24,093
770,2	20,733
770,6	25,613
771,1	25,613
771,5	23,653
771,9	35,653
772,4	34,333
772,8	36,053
773,2	31,653
773,7	33,133
774,1	28,573
774,5	29,133
775	26,653
775,4	32,973
775,8	33,453
776,3	28,893
776,7	30,253
777,1	24,053
777,6	21,573
778	20,253
778,4	25,213
778,9	21,253
779,3	22,013
779,7	19,733
780,2	22,933
780,6	20,653
781	25,733
781,5	31,853
781,9	26,933
782,3	23,253
782,8	22,733
783,2	24,053
783,6	16,573
784,1	20,213
784,5	17,613
784,9	19,013
785,4	15,133
785,8	18,493
786,2	15,893
786,7	18,973
787,1	14,853
787,5	12,773
788	14,493
788,4	17,213
788,8	16,173
789,3	23,053
789,7	25,653
790,1	21,293
790,6	21,293
791	17,373
791,4	15,893
791,9	12,373
792,3	13,133
792,7	11,653
793,2	17,933
793,6	10,973
794	10,813
794,5	12,613
794,9	16,973
795,3	13,533
795,8	15,893
796,2	19,093
796,6	18,213
797,1	13,973
797,5	10,053
797,9	13,133
798,4	13,213
798,8	13,973
799,2	15,813
799,7	16,613
800,1	13,613
800,5	10,933
801	6,933
801,4	1,653
801,8	5,213
802,2	8,053
802,7	14,613
803,1	13,053
803,5	17,413
804	22,533
804,4	15,973
804,8	11,893
805,3	14,613
805,7	17,173
806,1	10,213
806,6	16,533
807	9,853
807,4	8,053
807,9	9,933
808,3	12,613
808,7	4,493
809,2	12,013
809,6	12,373
810	4,493
810,4	2,733
810,9	5,973
811,3	2,573
811,7	7,013
812,2	16,813
812,6	16,373
813	15,853
813,5	18,133
813,9	12,653
814,3	10,653
814,8	12,653
815,2	13,293
815,6	6,613
816,1	9,973
816,5	7,613
816,9	8,493
817,3	7,693
817,8	10,573
818,2	10,133
818,6	9,373
819,1	10,933
819,5	11,013
819,9	11,373
820,4	12,653
820,8	11,333
821,2	6,533
821,7	5,933
822,1	5,093
822,5	1,253
822,9	-2,107
823,4	2,373
823,8	6,133
824,2	6,053
824,7	7,293
825,1	7,413
825,5	4,213
826	-0,107
826,4	-4,267
826,8	-3,427
827,3	-2,467
827,7	-10,227
828,1	-7,427
828,5	-2,547
829	-4,027
829,4	-1,467
829,8	8,933
830,3	11,813
830,7	13,933
831,1	8,333
831,6	9,773
832	1,653
832,4	-4,987
832,8	-6,307
833,3	1,453
833,7	-0,387
834,1	3,573
834,6	3,653
835	3,773
835,4	6,093
835,8	6,213
836,3	4,893
836,7	5,613
837,1	3,853
837,6	-3,187
838	-3,347
838,4	-1,547
838,9	0,613
839,3	1,813
839,7	7,293
840,1	8,933
840,6	6,653
841	8,733
841,4	10,773
841,9	8,973
842,3	3,173
842,7	4,573
843,1	5,733
843,6	0,453
844	-2,027
844,4	-2,667
844,9	-0,707
845,3	-2,067
845,7	-0,907
846,2	-0,747
846,6	6,173
847	2,253
847,4	-3,987
847,9	-3,627
848,3	-5,827
848,7	-11,107
849,2	-10,867
849,6	-12,707
850	-10,747
850,4	-11,627
850,9	-8,907
851,3	-6,267
851,7	-7,507
852,2	-7,387
852,6	-6,947
853	-8,827
853,4	-5,507
853,9	-1,147
854,3	-0,507
854,7	2,973
855,2	8,133
855,6	5,573
856	8,613
856,4	9,053
856,9	8,533
857,3	5,973
857,7	3,933
858,2	3,093
858,6	0,493
859	-3,827
859,4	-0,987
859,9	-1,427
860,3	-1,427
860,7	-4,147
861,1	3,373
861,6	-3,787
862	-6,427
862,4	-4,667
862,9	-2,707
863,3	-7,627
863,7	-11,707
864,1	-7,627
864,6	-9,587
865	-8,267
865,4	-8,267
865,9	-8,107
866,3	-8,947
866,7	-4,707
867,1	-5,187
867,6	-6,147
868	2,933
868,4	3,373
868,8	-3,867
869,3	-6,787
869,7	-4,307
870,1	-7,227
870,6	-12,987
871	-9,267
871,4	43,653
871,8	38,653
872,3	37,693
872,7	41,173
873,1	46,813
873,5	-1,867
874	0,133
874,4	2,213
874,8	-5,427
875,3	-10,307
875,7	-12,307
876,1	-12,827
876,5	-20,387
877	-8,307
877,4	-8,667
877,8	-9,187
878,2	-7,707
878,7	-0,667
879,1	-3,307
879,5	-3,787
879,9	-5,747
880,4	-0,147
880,8	-6,507
881,2	-5,387
881,7	-13,707
882,1	-13,427
882,5	-17,307
882,9	-13,827
883,4	-17,587
883,8	-8,507
884,2	-8,867
884,6	-5,187
885,1	-3,987
885,5	-0,467
885,9	-6,987
886,3	-9,147
886,8	-9,387
887,2	-11,667
887,6	-12,467
888	-14,667
888,5	-6,827
888,9	-8,267
889,3	-7,987
889,8	-5,747
890,2	-1,187
890,6	-1,627
891	-8,507
891,5	-6,667
891,9	-7,547
892,3	-5,787
892,7	-8,467
893,2	1,013
893,6	-0,227
894	-2,507
894,4	-5,467
894,9	-8,427
895,3	-11,747
895,7	-10,347
896,1	-9,627
896,6	-4,787
897	-4,347
897,4	-9,187
897,8	-6,427
898,3	-10,987
898,7	-6,507
899,1	-7,067
899,5	-6,627
900	-12,667
900,4	-7,627
900,8	-14,867
901,2	-9,307
901,7	-5,067
902,1	-3,587
902,5	-5,307
902,9	-3,467
903,4	-5,307
903,8	-8,547
904,2	-5,467
904,6	-9,267
905,1	-9,227
905,5	-11,307
905,9	-12,507
906,3	-13,787
906,8	-4,827
907,2	-6,067
907,6	-9,747
908	-5,267
908,5	-9,107
908,9	-16,787
909,3	-22,347
909,7	-16,307
910,2	-16,907
910,6	-17,347
911	-15,027
911,4	-11,387
911,9	-18,027
912,3	-18,787
912,7	-13,467
913,1	-14,867
913,6	-12,387
914	-11,507
914,4	-14,747
914,8	-19,867
915,3	-21,947
915,7	-22,427
916,1	-23,467
916,5	-18,707
916,9	-12,307
917,4	-9,547
917,8	-10,467
918,2	-1,507
918,6	-2,147
919,1	-4,467
919,5	-9,947
919,9	-7,067
920,3	-11,707
920,8	-15,347
921,2	-21,947
921,6	-22,227
922	-29,507
922,5	-26,467
922,9	-25,667
923,3	-17,267
923,7	-13,387
924,2	-9,027
924,6	-7,267
925	-8,147
925,4	-9,907
925,8	-8,587
926,3	-4,907
926,7	-11,547
927,1	-9,787
927,5	-12,107
928	-15,787
928,4	-20,307
928,8	-13,307
929,2	-13,547
929,7	-12,107
930,1	-8,467
930,5	-6,587
930,9	-12,827
931,3	-13,667
931,8	-20,307
932,2	-19,427
932,6	-21,907
933	-24,907
933,5	-25,547
933,9	-11,667
934,3	-17,307
934,7	-13,467
935,2	-8,707
935,6	-7,307
936	-14,067
936,4	-15,107
936,8	-21,107
937,3	-24,747
937,7	-23,507
938,1	-29,467
938,5	-25,947
939	-27,987
939,4	-25,987
939,8	-27,107
940,2	-20,107
940,6	-17,827
941,1	-15,787
941,5	-16,907
941,9	-16,747
942,3	-17,107
942,8	-20,307
943,2	-13,947
943,6	-17,147
944	-16,867
944,4	-21,987
944,9	-20,787
945,3	-25,347
945,7	-21,627
946,1	-23,987
946,6	-27,987
947	-25,027
947,4	-23,587
947,8	-18,147
948,2	-12,667
948,7	-10,627
949,1	-7,547
949,5	-6,307
949,9	-11,667
950,3	-11,147
950,8	-5,867
951,2	-7,427
951,6	-7,707
952	-8,547
952,5	-12,267
952,9	-11,707
953,3	-22,227
953,7	-22,507
954,1	-17,147
954,6	-16,627
955	-16,707
955,4	-10,907
955,8	-9,667
956,2	-16,067
956,7	-19,547
957,1	-21,267
957,5	-23,707
957,9	-22,427
958,3	-16,267
958,8	-12,187
959,2	-12,827
959,6	-7,427
960	-12,507
960,5	-14,307
960,9	-16,107
961,3	-11,307
961,7	-7,747
962,1	-3,747
962,6	-7,827
963	-5,827
963,4	-7,627
963,8	-11,347
964,2	-13,867
964,7	-12,107
965,1	-17,027
965,5	-22,227
965,9	-25,947
966,3	-22,867
966,8	-20,107
967,2	-18,667
967,6	-12,947
968	-11,387
968,4	-15,547
968,9	-19,987
969,3	-14,787
969,7	-16,347
970,1	-16,227
970,5	-17,667
971	-11,587
971,4	-16,627
971,8	-19,867
972,2	-19,827
972,6	-20,987
973,1	-22,707
973,5	-23,187
973,9	-22,987
974,3	-21,947
974,7	-13,987
975,2	-19,227
975,6	-18,187
976	-14,227
976,4	-15,507
976,8	-18,107
977,3	-19,907
977,7	-13,587
978,1	-14,307
978,5	-11,027
978,9	-19,107
979,4	-7,267
979,8	-7,787
980,2	-9,547
980,6	-9,467
981	-1,947
981,5	-4,587
981,9	-10,747
982,3	-7,227
982,7	-7,947
983,1	-9,267
983,6	-11,507
984	-9,267
984,4	-14,227
984,8	-16,187
985,2	-10,507
985,6	-12,667
986,1	-20,747
986,5	-18,907
986,9	-16,027
987,3	-27,187
987,7	-25,467
988,2	-20,507
988,6	-18,907
989	-22,307
989,4	-17,907
989,8	-21,027
990,3	-24,387
990,7	-24,067
991,1	-19,107
991,5	-15,907
991,9	-12,787
992,3	-5,107
992,8	-3,987
993,2	-3,027
993,6	-0,507
994	-3,507
994,4	-9,747
994,9	-9,147
995,3	-15,307
995,7	-23,027
996,1	-23,507
996,5	-18,427
996,9	-28,187
997,4	-27,707
997,8	-30,387
998,2	-28,227
998,6	-29,507
999	-18,187
999,5	-19,467
999,9	-13,107
1000,3	-11,867
1000,7	-16,747
1001,1	-24,467
1001,5	-24,427
1002	-28,387
1002,4	-30,987
1002,8	-28,187
1003,2	-25,067
1003,6	-22,027
1004	-16,707
1004,5	-17,347
1004,9	-12,107
1005,3	-14,587
1005,7	-18,747
1006,1	-23,067
1006,6	-21,187
1007	-28,347
1007,4	-26,227
1007,8	-22,147
1008,2	-17,987
1008,6	-20,507
1009,1	-18,907
1009,5	-19,547
1009,9	-21,427
1010,3	-21,907
1010,7	-18,347
1011,1	-17,747
1011,6	-10,827
1012	-10,307
1012,4	-11,587
1012,8	-16,907
1013,2	-11,507
1013,6	-18,227
1014,1	-19,147
1014,5	-15,827
1014,9	-9,947
1015,3	-12,547
1015,7	-10,907
1016,1	-12,027
1016,6	-17,947
1017	-22,467
1017,4	-22,227
1017,8	-24,747
1018,2	-21,067
1018,6	-21,467
1019,1	-19,347
1019,5	-16,147
1019,9	-11,307
1020,3	-12,347
1020,7	-10,867
1021,1	-13,907
1021,6	-17,427
1022	-15,827
1022,4	-11,627
1022,8	-8,627
1023,2	-3,867
1023,6	-7,467
1024,1	-9,507
1024,5	-16,987
1024,9	-20,467
1025,3	-23,267
1025,7	-20,507
1026,1	-22,947
1026,6	-22,867
1027	-20,627
1027,4	-18,467
1027,8	-15,827
1028,2	-19,267
1028,6	-14,787
1029	-13,787
1029,5	-18,027
1029,9	-18,987
1030,3	-20,787
1030,7	-23,227
1031,1	-24,187
1031,5	-23,307
1032	-26,307
1032,4	-26,267
1032,8	-28,107
1033,2	-29,187
1033,6	-32,387
1034	-30,027
1034,4	-27,107
1034,9	-24,627
1035,3	-26,427
1035,7	-19,947
1036,1	-23,267
1036,5	-20,147
1036,9	-18,547
1037,4	-16,907
1037,8	-15,547
1038,2	-15,067
1038,6	-17,947
1039	-16,587
1039,4	-10,507
1039,8	-19,107
1040,3	-20,827
1040,7	-17,787
1041,1	-19,867
1041,5	-29,947
1041,9	-20,427
1042,3	-23,987
1042,7	-27,387
1043,2	-32,187
1043,6	-28,987
1044	-31,707
1044,4	-26,627
1044,8	-22,987
1045,2	-21,507
1045,6	-18,947
1046,1	-16,227
1046,5	-16,547
1046,9	-23,307
1047,3	-17,747
1047,7	-21,027
1048,1	-23,067
1048,5	-24,067
1049	-19,467
1049,4	-20,907
1049,8	-14,267
1050,2	-15,827
1050,6	-8,547
1051	-9,627
1051,4	-14,027
1051,9	-21,267
1052,3	-24,387
1052,7	-29,347
1053,1	-28,507
1053,5	-28,387
1053,9	-25,787
1054,3	-25,427
1054,8	-27,027
1055,2	-24,307
1055,6	-23,627
1056	-24,267
1056,4	-24,747
1056,8	-22,867
1057,2	-21,347
1057,6	-23,467
1058,1	-21,707
1058,5	-27,307
1058,9	-30,187
1059,3	-31,467
1059,7	-28,147
1060,1	-33,227
1060,5	-28,107
1061	-30,587
1061,4	-35,107
1061,8	-30,987
1062,2	-27,027
1062,6	-26,627
1063	-22,267
1063,4	-28,507
1063,8	-27,227
1064,3	-27,467
1064,7	-22,507
1065,1	-23,547
1065,5	-8,507
1065,9	-14,587
1066,3	-13,907
1066,7	-20,747
1067,1	-20,947
1067,6	-30,547
1068	-31,227
1068,4	-27,667
1068,8	-24,147
1069,2	-22,227
1069,6	-18,787
1070	-11,427
1070,4	-20,707
1070,9	-24,467
1071,3	-26,547
1071,7	-25,427
1072,1	-35,307
1072,5	-31,067
1072,9	-24,707
1073,3	-24,587
1073,7	-25,427
1074,2	-26,307
1074,6	-24,787
1075	-26,307
1075,4	-23,587
1075,8	-27,587
1076,2	-25,507
1076,6	-25,027
1077	-24,707
1077,5	-25,667
1077,9	-22,387
1078,3	-19,267
1078,7	-16,067
1079,1	-16,667
1079,5	-18,027
1079,9	-16,467
1080,3	-19,027
1080,7	-21,147
1081,2	-20,987
1081,6	-17,067
1082	-18,667
1082,4	-15,667
1082,8	-12,227
1083,2	-4,467
1083,6	-6,747
1084	-4,427
1084,5	-6,347
1084,9	-9,147
1085,3	-15,427
1085,7	-16,347
1086,1	-18,667
1086,5	-21,027
1086,9	-25,627
1087,3	-28,987
1087,7	-27,987
1088,2	-22,307
1088,6	-20,187
1089	-17,467
1089,4	-18,467
1089,8	-26,147
1090,2	-35,747
1090,6	-29,867
1091	-33,667
1091,4	-30,547
1091,9	-20,667
1092,3	-17,307
1092,7	-17,267
1093,1	-16,627
1093,5	-18,267
1093,9	-20,827
1094,3	-19,827
1094,7	-25,027
1095,1	-23,587
1095,5	-18,827
1096	-18,987
1096,4	-17,427
1096,8	-16,387
1097,2	-14,907
1097,6	-12,987
1098	-10,747
1098,4	-10,027
1098,8	-5,347
1099,2	-4,627
1099,6	-11,187
1100,1	-7,507
1100,5	-9,707
1100,9	-13,467
1101,3	-11,547
1101,7	-12,067
1102,1	-18,307
1102,5	-18,107
1102,9	-18,147
1103,3	-24,067
1103,7	-20,107
1104,2	-18,867
1104,6	-18,427
1105	-17,627
1105,4	-15,827
1105,8	-15,107
1106,2	-11,507
1106,6	-9,387
1107	-7,067
1107,4	-2,067
1107,8	-0,467
1108,3	-0,733
