Data from Subt2_00005.txt Node
Date: Fri Aug 11 15:16:40 MSK 2023
User: vat
Spectrometer: MAYP114033
Trigger mode: 0
Integration Time (sec): 5,000000E-1
Scans to average: 5
Electric dark correction enabled: true
Nonlinearity correction enabled: false
Boxcar width: 2
XAxis mode: Wavelengths
Number of Pixels in Spectrum: 2068
>>>>>Begin Spectral Data<<<<<
199,4	-3,267
199,9	-3
200,4	-7,64
200,8	-7,68
201,3	-10,68
201,8	-16,16
202,2	-20,88
202,7	-20,36
203,2	-22,24
203,6	-24,64
204,1	-22,96
204,6	-26,56
205	-29,44
205,5	-35,04
206	-32,32
206,4	-34,56
206,9	-32,44
207,4	-32,04
207,8	-30,96
208,3	-32,84
208,8	-34,6
209,2	-33,16
209,7	-33,48
210,2	-33,68
210,6	-34,72
211,1	-30,76
211,5	-36,32
212	-37,8
212,5	-36,12
212,9	-33,4
213,4	-28,08
213,9	-23,32
214,3	-25,04
214,8	-24,36
215,3	-25,36
215,7	-33,4
216,2	-31,32
216,7	-27,44
217,1	-29,84
217,6	-34,28
218,1	-33,68
218,5	-34,6
219	-35,6
219,5	-44,48
219,9	-44,6
220,4	-47,24
220,9	-50,8
221,3	-50,64
221,8	-46,92
222,3	-48,92
222,7	-51,04
223,2	-51,12
223,6	-50,68
224,1	-44,84
224,6	-41,88
225	-37,96
225,5	-38,68
226	-42,4
226,4	-40,76
226,9	-37,2
227,4	-40,84
227,8	-42,16
228,3	-41,48
228,8	-48,4
229,2	-50,96
229,7	-47,88
230,2	-44,16
230,6	-39,8
231,1	-35,08
231,5	-35,12
232	-38,16
232,5	-41,84
232,9	-40,36
233,4	-33,52
233,9	-33,68
234,3	-32,04
234,8	-30,64
235,3	-37,4
235,7	-37,44
236,2	-36,84
236,7	-34,68
237,1	-33,28
237,6	-33,12
238,1	-38,68
238,5	-44,44
239	-50,48
239,4	-50,48
239,9	-47,36
240,4	-50,48
240,8	-46,04
241,3	-38,28
241,8	-41,04
242,2	-43,2
242,7	-41,12
243,2	-41,44
243,6	-43,08
244,1	-34,92
244,6	-35,12
245	-32,56
245,5	-36,08
245,9	-41,76
246,4	-45,76
246,9	-46,32
247,3	-48,96
247,8	-39,28
248,3	-28,64
248,7	-28,64
249,2	-22,56
249,7	-19,04
250,1	-29,12
250,6	-34,04
251	-34,96
251,5	-42,24
252	-46,08
252,4	-43,08
252,9	-44,4
253,4	-44,24
253,8	-36,24
254,3	-38,92
254,8	-35,88
255,2	-35,64
255,7	-36,52
256,1	-37,16
256,6	-33,16
257,1	-40,96
257,5	-40,32
258	-41,36
258,5	-45,44
258,9	-43,96
259,4	-37,04
259,9	-34,8
260,3	-33,48
260,8	-33,64
261,2	-35,76
261,7	-31,16
262,2	-32,2
262,6	-30,8
263,1	-31,2
263,6	-35
264	-43,2
264,5	-46,48
264,9	-46
265,4	-39,44
265,9	-38,16
266,3	-31,88
266,8	-26,56
267,3	-28,72
267,7	-37,44
268,2	-33,36
268,7	-35,56
269,1	-36,84
269,6	-42,68
270	-37
270,5	-38,92
271	-42,2
271,4	-39,44
271,9	-34,16
272,4	-31,28
272,8	-34,88
273,3	-25,56
273,7	-30,8
274,2	-28,4
274,7	-34
275,1	-28,36
275,6	-33,16
276,1	-32,64
276,5	-33,96
277	-24,24
277,4	-22,96
277,9	-31,24
278,4	-33,76
278,8	-28,04
279,3	-35,04
279,8	-36,84
280,2	-28,4
280,7	-24,28
281,1	-27,28
281,6	-26,44
282,1	-30,24
282,5	-31,04
283	-29,8
283,4	-27,36
283,9	-28,88
284,4	-24,84
284,8	-24,36
285,3	-29,24
285,8	-32,72
286,2	-34,6
286,7	-35,04
287,1	-32,88
287,6	-26,64
288,1	-33,04
288,5	-28,4
289	-31,08
289,5	-36,8
289,9	-35,56
290,4	-33,96
290,8	-37,32
291,3	-37,4
291,8	-37,4
292,2	-44,84
292,7	-41,48
293,1	-39,96
293,6	-38,6
294,1	-43,12
294,5	-42,48
295	-45,8
295,5	-40,84
295,9	-36,96
296,4	-31,8
296,8	-29,76
297,3	-23,48
297,8	-33
298,2	-37,48
298,7	-35,64
299,1	-36,28
299,6	-36,56
300,1	-33,12
300,5	-30,52
301	-32,92
301,5	-35,6
301,9	-38,92
302,4	-37,32
302,8	-42,28
303,3	-42,4
303,8	-42,04
304,2	-38,2
304,7	-36,96
305,1	-34,32
305,6	-30,04
306,1	-26
306,5	-27,28
307	-28,16
307,4	-23,36
307,9	-26,96
308,4	-30,48
308,8	-30,6
309,3	-30,88
309,8	-41
310,2	-43,16
310,7	-42,28
311,1	-46,96
311,6	-49,68
312,1	-38,12
312,5	-30,6
313	-30,56
313,4	-28,12
313,9	-31,52
314,4	-36,2
314,8	-38,36
315,3	-38,76
315,7	-37,08
316,2	-30,2
316,7	-34,6
317,1	-39,08
317,6	-40,84
318	-42,68
318,5	-46,28
319	-40,8
319,4	-42,88
319,9	-40,72
320,3	-37,6
320,8	-39,6
321,3	-38,32
321,7	-27,76
322,2	-27,84
322,6	-34,32
323,1	-35,64
323,6	-38,28
324	-40,24
324,5	-40,96
324,9	-33,24
325,4	-24,92
325,9	-27,48
326,3	-28,48
326,8	-26,36
327,2	-26,76
327,7	-30,72
328,2	-36,68
328,6	-35,24
329,1	-40,28
329,5	-42,72
330	-42,44
330,5	-33,96
330,9	-39,8
331,4	-35,6
331,8	-40,88
332,3	-36,4
332,8	-32,48
333,2	-32,8
333,7	-31,04
334,1	-29,64
334,6	-36,4
335,1	-40,32
335,5	-36,56
336	-42,88
336,4	-39,44
336,9	-34,24
337,4	-28,4
337,8	-32,28
338,3	-26,76
338,7	-30,8
339,2	-36,48
339,7	-41,76
340,1	-39,64
340,6	-44,56
341	-40,6
341,5	-41,84
342	-46,84
342,4	-47,64
342,9	-43,68
343,3	-48,8
343,8	-50,44
344,2	-47,76
344,7	-47,08
345,2	-44,2
345,6	-37,92
346,1	-32,56
346,5	-30,56
347	-33,36
347,5	-31,44
347,9	-29,4
348,4	-31,88
348,8	-30,44
349,3	-24,24
349,8	-28,68
350,2	-36,36
350,7	-30,08
351,1	-34,24
351,6	-33,16
352	-30,32
352,5	-26
353	-28,16
353,4	-18,68
353,9	-18,48
354,3	-10,24
354,8	-4,64
355,3	-0,04
355,7	4,12
356,2	8,4
356,6	6,32
357,1	17,52
357,5	30,4
358	35,12
358,5	42,92
358,9	56,96
359,4	67,8
359,8	79,76
360,3	102,48
360,8	129,96
361,2	160,48
361,7	191,32
362,1	225,72
362,6	257,8
363	295,44
363,5	334,64
364	375,08
364,4	410,48
364,9	454,64
365,3	492,08
365,8	530,6
366,3	567,24
366,7	605,12
367,2	636,32
367,6	663,52
368,1	681,36
368,5	693,08
369	699,88
369,5	693,36
369,9	689,32
370,4	679,16
370,8	666,28
371,3	651,92
371,7	633,84
372,2	608,44
372,7	575,04
373,1	545,04
373,6	507,64
374	465,68
374,5	429,68
374,9	401,76
375,4	366,16
375,9	337,84
376,3	314,44
376,8	289,72
377,2	257,64
377,7	230,44
378,2	205,56
378,6	183,8
379,1	164,12
379,5	151,56
380	139,76
380,4	129,92
380,9	115,28
381,4	102,4
381,8	94,44
382,3	83,68
382,7	72,32
383,2	68,96
383,6	56,48
384,1	47,08
384,6	43,16
385	38,36
385,5	37,56
385,9	36,96
386,4	29,24
386,8	25,44
387,3	20,24
387,7	13,36
388,2	11,36
388,7	6,32
389,1	-0,08
389,6	-1,6
390	-7,72
390,5	-10,8
390,9	-4,8
391,4	-7,24
391,9	-13,84
392,3	-13,08
392,8	-11,56
393,2	-17
393,7	-14,4
394,1	-13,2
394,6	-10,84
395,1	-9,6
395,5	-12,4
396	-11,72
396,4	-8,2
396,9	-7,96
397,3	-15,8
397,8	-11,24
398,2	-15,24
398,7	-16,72
399,2	-21,8
399,6	-19,08
400,1	-21,96
400,5	-21,36
401	-23,48
401,4	-18,88
401,9	-18,96
402,4	-17,44
402,8	-15,6
403,3	-16,4
403,7	-20,56
404,2	-17,6
404,6	-18,96
405,1	-26,8
405,5	-17,88
406	-13,96
406,5	-12,84
406,9	-12,64
407,4	-2,12
407,8	-7,96
408,3	-11,72
408,7	-15,08
409,2	-9,24
409,6	-10,2
410,1	-4,28
410,6	2,44
411	10
411,5	13,6
411,9	21
412,4	28,44
412,8	36
413,3	34,56
413,7	33,28
414,2	35,04
414,7	27,12
415,1	21,16
415,6	26,48
416	35,12
416,5	40,44
416,9	51,84
417,4	62,6
417,8	72,32
418,3	79,8
418,8	89,04
419,2	96,84
419,7	105,76
420,1	113,48
420,6	117,52
421	122,72
421,5	134,72
421,9	145
422,4	156,92
422,8	172,4
423,3	180,44
423,8	188,68
424,2	197,72
424,7	208,32
425,1	214,48
425,6	231,12
426	244,84
426,5	261,32
426,9	275,08
427,4	298,08
427,9	317,64
428,3	334,12
428,8	350,36
429,2	367,08
429,7	381,44
430,1	397,44
430,6	418
431	440,84
431,5	469,72
431,9	499,08
432,4	523,88
432,8	556,96
433,3	591,6
433,8	620,36
434,2	644,2
434,7	679,6
435,1	714,68
435,6	747,92
436	782,12
436,5	830,48
436,9	872,6
437,4	911,32
437,8	958,84
438,3	1012,08
438,8	1055,8
439,2	1113,08
439,7	1167,32
440,1	1216,44
440,6	1263,64
441	1317
441,5	1367,8
441,9	1426,76
442,4	1491,4
442,8	1559,8
443,3	1635,2
443,7	1696,4
444,2	1764,08
444,7	1833,48
445,1	1901,52
445,6	1970,8
446	2054,56
446,5	2136,36
446,9	2213,52
447,4	2299
447,8	2380,4
448,3	2461,92
448,7	2555,4
449,2	2646,4
449,6	2739
450,1	2829,4
450,6	2927,12
451	3013,56
451,5	3114,56
451,9	3216
452,4	3332,04
452,8	3437,2
453,3	3543,88
453,7	3648,08
454,2	3758,48
454,6	3859,8
455,1	3967,44
455,5	4083,04
456	4200,72
456,4	4305,2
456,9	4412,28
457,3	4539,6
457,8	4655,4
458,3	4781,28
458,7	4907,08
459,2	5043,84
459,6	5179,76
460,1	5305,52
460,5	5430,72
461	5562,4
461,4	5691,4
461,9	5803,28
462,3	5928,24
462,8	6052
463,2	6182,52
463,7	6304,2
464,1	6428,08
464,6	6563,04
465	6692,12
465,5	6819,76
466	6955,56
466,4	7086,24
466,9	7209,92
467,3	7336,44
467,8	7471,96
468,2	7591,72
468,7	7710,52
469,1	7834,56
469,6	7958,92
470	8068,36
470,5	8175,8
470,9	8295,72
471,4	8415,24
471,8	8519,12
472,3	8628,08
472,7	8743,72
473,2	8856,2
473,6	8964,08
474,1	9074,6
474,5	9176,88
475	9280,36
475,4	9365,76
475,9	9455,48
476,4	9547,84
476,8	9635
477,3	9718,52
477,7	9811,48
478,2	9895,52
478,6	9963,36
479,1	10047,4
479,5	10115,36
480	10179,64
480,4	10241,84
480,9	10316,48
481,3	10361,44
481,8	10431,28
482,2	10493,12
482,7	10543,72
483,1	10589,52
483,6	10637,24
484	10670,4
484,5	10705,72
484,9	10728,04
485,4	10743,52
485,8	10779,52
486,3	10799
486,7	10823,92
487,2	10844,56
487,6	10867,92
488,1	10882,4
488,5	10892,28
489	10890,92
489,4	10904,16
489,9	10917,76
490,4	10896,96
490,8	10891,76
491,3	10872,72
491,7	10850,32
492,2	10818,12
492,6	10805,12
493,1	10780,76
493,5	10761,48
494	10721,24
494,4	10691,28
494,9	10661,68
495,3	10626,2
495,8	10589,88
496,2	10566,04
496,7	10528,92
497,1	10488,36
497,6	10456,08
498	10418,12
498,5	10370,52
498,9	10319,84
499,4	10261,32
499,8	10194,4
500,3	10129,52
500,7	10076,08
501,2	10021,28
501,6	9977,4
502,1	9929,36
502,5	9863,36
503	9810,96
503,4	9740,72
503,9	9667,16
504,3	9593,12
504,8	9541,52
505,2	9465,32
505,7	9399,12
506,1	9327,76
506,6	9256,6
507	9177,36
507,5	9112,6
507,9	9043,6
508,4	8979,68
508,8	8911,8
509,3	8845
509,7	8746,2
510,2	8672,68
510,6	8587,92
511,1	8511,92
511,5	8434,32
512	8356,44
512,4	8280,64
512,9	8195,84
513,3	8117,24
513,8	8039,12
514,2	7975,92
514,7	7885,04
515,1	7813,36
515,6	7729,4
516	7647,92
516,5	7556,68
516,9	7472,52
517,4	7393,24
517,8	7313,48
518,3	7226,48
518,7	7150,48
519,2	7084,36
519,6	7002,6
520,1	6916,08
520,5	6837,36
521	6769,6
521,4	6687,68
521,9	6611,16
522,3	6545,92
522,8	6475,76
523,2	6403,16
523,7	6340,4
524,1	6271,84
524,6	6197,48
525	6113,68
525,5	6027,16
525,9	5947,68
526,4	5869,96
526,8	5799
527,3	5746,04
527,7	5690,6
528,2	5622,32
528,6	5565,12
529,1	5505,76
529,5	5448,2
530	5380,12
530,4	5325,2
530,9	5263,88
531,3	5205,72
531,8	5140,48
532,2	5093,88
532,6	5040,36
533,1	4976,52
533,5	4909,16
534	4839,28
534,4	4771,84
534,9	4709,4
535,3	4656,08
535,8	4596,36
536,2	4551,28
536,7	4496,56
537,1	4434,76
537,6	4381,08
538	4339,68
538,5	4290,16
538,9	4243,04
539,4	4200,12
539,8	4156,52
540,3	4111,16
540,7	4069
541,2	4028,68
541,6	3995,16
542,1	3947,72
542,5	3909,08
543	3852,8
543,4	3809,32
543,9	3758,36
544,3	3713,52
544,8	3665,72
545,2	3628,24
545,7	3584,96
546,1	3551,72
546,5	3515,92
547	3482,56
547,4	3457,24
547,9	3415,88
548,3	3372,48
548,8	3348,52
549,2	3311,4
549,7	3275,52
550,1	3252,08
550,6	3214,2
551	3172,2
551,5	3141,2
551,9	3107,8
552,4	3068,64
552,8	3043,4
553,3	3010,16
553,7	2984,8
554,2	2955,88
554,6	2927,28
555,1	2896,52
555,5	2877,44
555,9	2834,36
556,4	2798,44
556,8	2777,8
557,3	2749,44
557,7	2713,36
558,2	2698,2
558,6	2680,8
559,1	2655,68
559,5	2626,6
560	2611,32
560,4	2590,76
560,9	2567,6
561,3	2542,96
561,8	2524,44
562,2	2496,32
562,7	2463,24
563,1	2434,72
563,6	2410,28
564	2390,84
564,4	2366,16
564,9	2352,8
565,3	2332,08
565,8	2309,4
566,2	2286,88
566,7	2270,84
567,1	2251,32
567,6	2224,36
568	2210,16
568,5	2189,64
568,9	2174,4
569,4	2150,76
569,8	2144,4
570,3	2125,2
570,7	2108,08
571,1	2085,76
571,6	2066,48
572	2048,4
572,5	2028,36
572,9	2012,28
573,4	1992,44
573,8	1981,08
574,3	1956,32
574,7	1947,64
575,2	1936,16
575,6	1924,84
576,1	1907,16
576,5	1896,72
576,9	1870,72
577,4	1846,68
577,8	1826,84
578,3	1815,96
578,7	1809,08
579,2	1800,96
579,6	1795,08
580,1	1790,08
580,5	1771,04
581	1747,72
581,4	1732,44
581,9	1716,16
582,3	1703,32
582,7	1685,48
583,2	1675,44
583,6	1659,64
584,1	1642,04
584,5	1622,4
585	1615,96
585,4	1599,52
585,9	1589
586,3	1578,4
586,8	1563,56
587,2	1554,6
587,6	1547,2
588,1	1532,68
588,5	1529,52
589	1520,84
589,4	1505,4
589,9	1493,52
590,3	1478,16
590,8	1455,24
591,2	1450,16
591,7	1442,28
592,1	1429,04
592,5	1425,6
593	1424,84
593,4	1411,04
593,9	1398,44
594,3	1388,6
594,8	1382,92
595,2	1369,64
595,7	1366,4
596,1	1358,76
596,6	1356,92
597	1344,08
597,4	1339,96
597,9	1322,68
598,3	1311,24
598,8	1300,76
599,2	1293,08
599,7	1285,84
600,1	1277,48
600,6	1272,8
601	1264,96
601,4	1256,32
601,9	1238,24
602,3	1229,56
602,8	1221,32
603,2	1212,96
603,7	1206,36
604,1	1206,24
604,6	1204,04
605	1193,56
605,4	1188,32
605,9	1181,52
606,3	1172,6
606,8	1158,48
607,2	1151,24
607,7	1142,2
608,1	1127,16
608,6	1123,4
609	1119,76
609,4	1120,64
609,9	1110,76
610,3	1106,56
610,8	1098,64
611,2	1085,44
611,7	1078,48
612,1	1066,68
612,6	1060,48
613	1051,24
613,4	1048,48
613,9	1029,76
614,3	1024,4
614,8	1020
615,2	1014,68
615,7	1008,24
616,1	1009,68
616,6	1003
617	999,52
617,4	992,48
617,9	983
618,3	980,2
618,8	971,88
619,2	960,52
619,7	955,04
620,1	949,48
620,5	938,16
621	935,12
621,4	935,52
621,9	923,72
622,3	913,6
622,8	909,28
623,2	898,12
623,6	889,24
624,1	888,08
624,5	885,88
625	871,08
625,4	872,84
625,9	864,12
626,3	856,08
626,8	849,76
627,2	851,44
627,6	844,32
628,1	833,8
628,5	823,28
629	814,6
629,4	804,32
629,9	801,2
630,3	794,88
630,7	792,2
631,2	787,84
631,6	785,48
632,1	778,8
632,5	777,96
633	774,08
633,4	768
633,8	762,68
634,3	756,84
634,7	750,16
635,2	739,08
635,6	742,36
636,1	735,28
636,5	731,8
636,9	726,96
637,4	728,04
637,8	722,4
638,3	720,68
638,7	711,96
639,2	706,6
639,6	702,88
640	696,24
640,5	693,4
640,9	686,04
641,4	681,32
641,8	674,4
642,2	668,4
642,7	658,24
643,1	655,56
643,6	647,44
644	649,16
644,5	643,2
644,9	639,36
645,3	631,56
645,8	636,92
646,2	624,88
646,7	623,6
647,1	623,32
647,6	623,88
648	610,32
648,4	610,72
648,9	604,12
649,3	598,84
649,8	596,36
650,2	600,28
650,6	593,16
651,1	589,92
651,5	583,8
652	575,64
652,4	574,88
652,9	573
653,3	568,08
653,7	566,76
654,2	565,56
654,6	553,32
655,1	547,24
655,5	546,96
655,9	541,96
656,4	543,56
656,8	545,24
657,3	536,6
657,7	531,72
658,2	524,84
658,6	515,36
659	507,6
659,5	511,6
659,9	506,28
660,4	502
660,8	501,16
661,2	496
661,7	489,76
662,1	484,4
662,6	480,96
663	467,16
663,4	463,4
663,9	461,76
664,3	462,16
664,8	461,52
665,2	467,12
665,6	464,64
666,1	460,4
666,5	458,12
667	450,52
667,4	443,12
667,9	445,56
668,3	444,76
668,7	439,16
669,2	429,04
669,6	429,84
670,1	421,2
670,5	409,64
670,9	406,04
671,4	412,36
671,8	403,12
672,3	394,84
672,7	399,56
673,1	392,04
673,6	389,28
674	390,52
674,5	393
674,9	381,52
675,3	379,12
675,8	379
676,2	378,8
676,7	375,84
677,1	387,48
677,5	389,72
678	384,6
678,4	378,96
678,9	372,84
679,3	357,72
679,7	351,72
680,2	351,44
680,6	352,28
681,1	353,56
681,5	355,88
681,9	352,8
682,4	346,8
682,8	337,28
683,3	338,92
683,7	335,8
684,1	333,72
684,6	338,28
685	341,52
685,5	330,96
685,9	328,2
686,3	325,8
686,8	313,56
687,2	311,84
687,7	318,68
688,1	314,56
688,5	312,64
689	308,28
689,4	302,16
689,9	291,88
690,3	290,96
690,7	286,16
691,2	296,84
691,6	294,04
692	294,88
692,5	294,8
692,9	295,44
693,4	285
693,8	284,2
694,2	279,12
694,7	279,12
695,1	277,48
695,6	274,6
696	269,32
696,4	268,16
696,9	261,68
697,3	258,2
697,8	254,32
698,2	259,52
698,6	256,32
699,1	253,44
699,5	252,24
699,9	260,36
700,4	252,84
700,8	255,24
701,3	255,64
701,7	256,24
702,1	246,32
702,6	243
703	242,12
703,5	232,52
703,9	230,76
704,3	233,4
704,8	237,4
705,2	233,16
705,6	236,88
706,1	232,48
706,5	218,92
707	218,08
707,4	215,08
707,8	218,68
708,3	221,44
708,7	225,68
709,2	217,2
709,6	217,24
710	213,8
710,5	213,2
710,9	208,76
711,3	208,08
711,8	207,48
712,2	200,6
712,7	194,84
713,1	199,44
713,5	198,84
714	194,24
714,4	195,24
714,8	188,52
715,3	180,56
715,7	185,64
716,2	182,32
716,6	178,28
717	177,64
717,5	179,6
717,9	175,16
718,3	179,32
718,8	178,64
719,2	182,24
719,7	176,56
720,1	166,16
720,5	162,32
721	163
721,4	159,6
721,8	168,92
722,3	172,36
722,7	169,88
723,2	165,72
723,6	161,4
724	154,72
724,5	154,8
724,9	154,12
725,3	159,08
725,8	162,28
726,2	160,16
726,7	160,16
727,1	155,76
727,5	153,4
728	149,52
728,4	145,72
728,8	140,52
729,3	136,56
729,7	128,28
730,1	128,64
730,6	129,84
731	130,12
731,5	133,72
731,9	134,4
732,3	136,56
732,8	133,68
733,2	132
733,6	131,76
734,1	129,92
734,5	122,84
734,9	128,16
735,4	126,16
735,8	122,92
736,3	130,64
736,7	134,8
737,1	130,2
737,6	128,56
738	132,76
738,4	122,4
738,9	118,36
739,3	114,16
739,7	114,16
740,2	109,08
740,6	111,48
741,1	108,72
741,5	112,68
741,9	112,32
742,4	111,96
742,8	110,84
743,2	109,88
743,7	108,52
744,1	108,68
744,5	103,68
745	105,04
745,4	106,48
745,8	106,72
746,3	108,36
746,7	108,6
747,2	100
747,6	101,48
748	100,72
748,5	98,32
748,9	96,88
749,3	107,44
749,8	105,08
750,2	97,92
750,6	96,12
751,1	93,6
751,5	87,16
751,9	86,92
752,4	91,04
752,8	92
753,3	92,48
753,7	94,52
754,1	90,96
754,6	89,72
755	85,52
755,4	88
755,9	77,52
756,3	71,28
756,7	68,16
757,2	68,04
757,6	65,28
758	67,6
758,5	76
758,9	75,64
759,3	72
759,8	71,64
760,2	78,32
760,6	71,76
761,1	75,68
761,5	81,8
761,9	81,96
762,4	76,88
762,8	71,96
763,3	70,6
763,7	73,52
764,1	74,44
764,6	74,56
765	81,36
765,4	75,48
765,9	72,56
766,3	71,64
766,7	69,44
767,2	72,4
767,6	70,88
768	72,48
768,5	73,4
768,9	75,6
769,3	70,44
769,8	70,84
770,2	62,88
770,6	57,8
771,1	58,8
771,5	60,88
771,9	62,48
772,4	61,48
772,8	64,28
773,2	59,32
773,7	60,56
774,1	57,24
774,5	52,44
775	48,92
775,4	50,6
775,8	48
776,3	51,2
776,7	50,2
777,1	53,04
777,6	53,24
778	50,24
778,4	51,24
778,9	56,72
779,3	55,04
779,7	51,8
780,2	49,16
780,6	47,24
781	46,92
781,5	48,72
781,9	45,12
782,3	46,92
782,8	45,88
783,2	43,28
783,6	40,92
784,1	47,36
784,5	48,96
784,9	45,64
785,4	48,04
785,8	45,36
786,2	40,4
786,7	40,76
787,1	41,84
787,5	37,76
788	37,92
788,4	37,44
788,8	30,52
789,3	34,76
789,7	36,88
790,1	41,04
790,6	46,04
791	47,2
791,4	44,44
791,9	42,44
792,3	37,44
792,7	29,68
793,2	30,08
793,6	32,24
794	33,12
794,5	35,2
794,9	38,68
795,3	39,12
795,8	36,16
796,2	33
796,6	30,04
797,1	27,28
797,5	23,64
797,9	25,96
798,4	26,96
798,8	27,24
799,2	27,2
799,7	28,32
800,1	23,76
800,5	22,24
801	20,84
801,4	18,08
801,8	21,56
802,2	19,12
802,7	28
803,1	21,4
803,5	21,88
804	17,04
804,4	14,24
804,8	6,6
805,3	14,8
805,7	20,2
806,1	20,12
806,6	22,96
807	24,04
807,4	26,2
807,9	20,28
808,3	26,08
808,7	25,16
809,2	22,48
809,6	15,64
810	18,44
810,4	9,76
810,9	8,64
811,3	10,96
811,7	14,56
812,2	7,4
812,6	8,8
813	17,6
813,5	17,84
813,9	16,12
814,3	22,84
814,8	22,96
815,2	17,4
815,6	13,24
816,1	14,24
816,5	8,36
816,9	4,92
817,3	4,92
817,8	8,04
818,2	2,64
818,6	1,52
819,1	6,4
819,5	1,64
819,9	-2,76
820,4	2,84
820,8	5,12
821,2	6,08
821,7	11,96
822,1	9,04
822,5	6,12
822,9	8,28
823,4	4,6
823,8	-0,64
824,2	-1,36
824,7	0,2
825,1	0,36
825,5	5,56
826	3,28
826,4	7,64
826,8	6,84
827,3	7,8
827,7	2,88
828,1	4,48
828,5	1,48
829	-2,64
829,4	-7,08
829,8	-4,44
830,3	-4,68
830,7	-3,16
831,1	-2,36
831,6	-0,28
832	-0,24
832,4	-3,12
832,8	-2,68
833,3	-1,72
833,7	-1,68
834,1	-3,28
834,6	-4,4
835	-3,2
835,4	-6,44
835,8	-8,88
836,3	-5,88
836,7	-1,08
837,1	-4,72
837,6	1
838	1,2
838,4	-0,76
838,9	-2,96
839,3	-1,04
839,7	1,08
840,1	1,72
840,6	-8,28
841	-3,68
841,4	-5,96
841,9	-6,48
842,3	-4,8
842,7	-0,4
843,1	-8,88
843,6	-7,68
844	-12,96
844,4	-11,76
844,9	-13,36
845,3	-8,76
845,7	-14,92
846,2	-18,28
846,6	-25,16
847	-29,56
847,4	-27,2
847,9	-29,4
848,3	-28,72
848,7	-25,16
849,2	-16,84
849,6	-19,92
850	-7,32
850,4	-0,92
850,9	0,96
851,3	-2,24
851,7	-4,4
852,2	-8,24
852,6	-19,04
853	-19,84
853,4	-20,44
853,9	-19,16
854,3	-19,36
854,7	-9,28
855,2	-11,4
855,6	-6,96
856	-11,96
856,4	-15,96
856,9	-19,76
857,3	-21,32
857,7	-22,4
858,2	-16,92
858,6	-18,4
859	-17,32
859,4	-18,88
859,9	-21,72
860,3	-23,76
860,7	-17,2
861,1	-21,32
861,6	-16,84
862	-8,52
862,4	-7,48
862,9	-7,72
863,3	-6,96
863,7	-3,84
864,1	-12,04
864,6	-11,68
865	-22,12
865,4	-19,48
865,9	-25,92
866,3	-20,72
866,7	-20,96
867,1	-14,24
867,6	-19,8
868	-21,24
868,4	-26,68
868,8	-30,44
869,3	-26,44
869,7	-20,56
870,1	-16,2
870,6	-13,08
871	-8,04
871,4	-13,48
871,8	-17,84
872,3	-21,68
872,7	-19,12
873,1	-22,28
873,5	-21,12
874	-16,16
874,4	-10,84
874,8	-21
875,3	-16,52
875,7	-19,84
876,1	-25,12
876,5	-25,04
877	-18,12
877,4	-17,48
877,8	-8,52
878,2	-8,12
878,7	-15,44
879,1	-19,24
879,5	-24,04
879,9	-32,12
880,4	-29,64
880,8	-28,64
881,2	-30,8
881,7	-30,48
882,1	-25,32
882,5	-23,8
882,9	-26,64
883,4	-22,88
883,8	-25,88
884,2	-23,92
884,6	-28,64
885,1	-26,32
885,5	-27,2
885,9	-24,84
886,3	-29
886,8	-28,28
887,2	-31,64
887,6	-32,36
888	-36,44
888,5	-36,84
888,9	-37,52
889,3	-33,96
889,8	-32,92
890,2	-36,48
890,6	-39,28
891	-31,48
891,5	-30,76
891,9	-27,4
892,3	-19,92
892,7	-15,08
893,2	-22,76
893,6	-17,96
894	-18,72
894,4	-19,08
894,9	-20,8
895,3	-17,4
895,7	-20,12
896,1	-25,52
896,6	-27,6
897	-26,4
897,4	-27,4
897,8	-25,64
898,3	-25,6
898,7	-23,72
899,1	-26,16
899,5	-26,24
900	-29,2
900,4	-24,96
900,8	-21,92
901,2	-21,28
901,7	-19,6
902,1	-15,2
902,5	-22,12
902,9	-21,08
903,4	-25,64
903,8	-30,52
904,2	-39,16
904,6	-34,6
905,1	-41,36
905,5	-34,4
905,9	-32,96
906,3	-28,44
906,8	-31,84
907,2	-27,32
907,6	-31,36
908	-36,76
908,5	-39,6
908,9	-38,96
909,3	-39,04
909,7	-35,36
910,2	-25,56
910,6	-25,24
911	-24,8
911,4	-20,24
911,9	-22,96
912,3	-24,48
912,7	-22,28
913,1	-18,6
913,6	-20,28
914	-20,92
914,4	-20,96
914,8	-23,16
915,3	-26,12
915,7	-33,32
916,1	-33,72
916,5	-34,16
916,9	-31,48
917,4	-27,96
917,8	-22,44
918,2	-17,32
918,6	-22,08
919,1	-25,8
919,5	-26,68
919,9	-35,48
920,3	-38,08
920,8	-36,96
921,2	-35,12
921,6	-32,96
922	-27,44
922,5	-25,88
922,9	-25,08
923,3	-24,52
923,7	-26,04
924,2	-33,24
924,6	-30,88
925	-31,28
925,4	-30,08
925,8	-34,24
926,3	-27,96
926,7	-36,12
927,1	-30,64
927,5	-26,12
928	-23,44
928,4	-22,2
928,8	-20,72
929,2	-28,4
929,7	-34,68
930,1	-39,48
930,5	-40,52
930,9	-39,24
931,3	-39,64
931,8	-39,48
932,2	-37,12
932,6	-36,72
933	-40,76
933,5	-34,44
933,9	-39,6
934,3	-34,4
934,7	-36
935,2	-29,76
935,6	-38,8
936	-32,16
936,4	-38,08
936,8	-38,08
937,3	-38,8
937,7	-34,52
938,1	-34,04
938,5	-30,64
939	-25,36
939,4	-31,88
939,8	-31,36
940,2	-34,12
940,6	-36,92
941,1	-41,88
941,5	-38,08
941,9	-41,04
942,3	-40,2
942,8	-34,52
943,2	-32,16
943,6	-32,08
944	-30,68
944,4	-34,08
944,9	-41,16
945,3	-45,88
945,7	-47,8
946,1	-46,16
946,6	-44,28
947	-43,88
947,4	-38,24
947,8	-34,24
948,2	-37,52
948,7	-34,44
949,1	-26,48
949,5	-28,36
949,9	-27,8
950,3	-22,04
950,8	-22,84
951,2	-28,88
951,6	-32,68
952	-35,64
952,5	-42,28
952,9	-44,72
953,3	-46
953,7	-42,8
954,1	-40,52
954,6	-34,72
955	-33,64
955,4	-37,24
955,8	-41
956,2	-40,56
956,7	-46,08
957,1	-41,32
957,5	-39,96
957,9	-31,48
958,3	-35,04
958,8	-28,36
959,2	-40,16
959,6	-36,16
960	-43,2
960,5	-48
960,9	-48,08
961,3	-40,76
961,7	-45,36
962,1	-43,2
962,6	-36,04
963	-41,08
963,4	-44,84
963,8	-37,8
964,2	-40,68
964,7	-44,72
965,1	-39,2
965,5	-31,52
965,9	-37,16
966,3	-36,08
966,8	-36,56
967,2	-41,64
967,6	-48,12
968	-44,68
968,4	-43,4
968,9	-36,84
969,3	-36,12
969,7	-27,48
970,1	-27,44
970,5	-29,8
971	-33,24
971,4	-28,24
971,8	-38,04
972,2	-35,72
972,6	-31,08
973,1	-31,68
973,5	-34,56
973,9	-27,8
974,3	-29,88
974,7	-29,12
975,2	-28,96
975,6	-30,16
976	-34,88
976,4	-31,4
976,8	-29,24
977,3	-31,44
977,7	-30,16
978,1	-34,12
978,5	-35,48
978,9	-39,12
979,4	-32,16
979,8	-30,76
980,2	-25,24
980,6	-24,32
981	-26,44
981,5	-30,6
981,9	-31,32
982,3	-30,72
982,7	-33,4
983,1	-29
983,6	-31,36
984	-36,12
984,4	-39,36
984,8	-47,96
985,2	-52,92
985,6	-52,36
986,1	-50,84
986,5	-48,92
986,9	-37,72
987,3	-40,96
987,7	-39,28
988,2	-44,36
988,6	-44,64
989	-47,52
989,4	-45,84
989,8	-49,28
990,3	-37,8
990,7	-37,36
991,1	-40,48
991,5	-40,92
991,9	-31,56
992,3	-34,96
992,8	-37,72
993,2	-35,68
993,6	-34,32
994	-41,52
994,4	-45,24
994,9	-46,16
995,3	-44,52
995,7	-46,4
996,1	-43,4
996,5	-41,24
996,9	-37,92
997,4	-41,56
997,8	-41
998,2	-41,68
998,6	-40,72
999	-46,68
999,5	-42,04
999,9	-41,28
1000,3	-42,48
1000,7	-43,4
1001,1	-33,92
1001,5	-37,56
1002	-36,24
1002,4	-28
1002,8	-29,88
1003,2	-34,72
1003,6	-32,76
1004	-32,32
1004,5	-39,4
1004,9	-38,32
1005,3	-33,44
1005,7	-38,6
1006,1	-43,08
1006,6	-42,8
1007	-40,24
1007,4	-43,44
1007,8	-39,52
1008,2	-38,56
1008,6	-42,92
1009,1	-47,84
1009,5	-47,08
1009,9	-43,44
1010,3	-37,68
1010,7	-35,36
1011,1	-34,92
1011,6	-39,68
1012	-45,32
1012,4	-47,6
1012,8	-42,48
1013,2	-37,28
1013,6	-31,96
1014,1	-26,76
1014,5	-26,12
1014,9	-32,76
1015,3	-28,68
1015,7	-34,4
1016,1	-41,32
1016,6	-42,88
1017	-39,88
1017,4	-49,44
1017,8	-40,04
1018,2	-38,52
1018,6	-35,6
1019,1	-37,48
1019,5	-37,64
1019,9	-43,76
1020,3	-41,96
1020,7	-44,8
1021,1	-45,88
1021,6	-42,2
1022	-41,16
1022,4	-41,72
1022,8	-40,28
1023,2	-37,24
1023,6	-34,36
1024,1	-35,48
1024,5	-34,08
1024,9	-34,4
1025,3	-33,92
1025,7	-42,32
1026,1	-45,24
1026,6	-48,4
1027	-50,12
1027,4	-47,44
1027,8	-37,52
1028,2	-37,12
1028,6	-32,96
1029	-28,28
1029,5	-35,12
1029,9	-38,36
1030,3	-32,04
1030,7	-34,16
1031,1	-37,72
1031,5	-35,88
1032	-42,88
1032,4	-46,48
1032,8	-43,96
1033,2	-45,12
1033,6	-43,68
1034	-42,84
1034,4	-40,08
1034,9	-41,88
1035,3	-36,64
1035,7	-45,08
1036,1	-44,92
1036,5	-40,4
1036,9	-35,44
1037,4	-39
1037,8	-27,84
1038,2	-23,76
1038,6	-30,24
1039	-32,72
1039,4	-29,32
1039,8	-38,36
1040,3	-39,2
1040,7	-37,12
1041,1	-41,64
1041,5	-46,72
1041,9	-42,76
1042,3	-40,44
1042,7	-45,24
1043,2	-43,8
1043,6	-44,08
1044	-31,96
1044,4	-33,56
1044,8	-28,56
1045,2	-34,44
1045,6	-36,28
1046,1	-46,28
1046,5	-45,6
1046,9	-45,6
1047,3	-46,72
1047,7	-42,96
1048,1	-46,56
1048,5	-50,68
1049	-55,56
1049,4	-49,88
1049,8	-56,04
1050,2	-48,88
1050,6	-49,32
1051	-41,4
1051,4	-43,96
1051,9	-38,64
1052,3	-49
1052,7	-48,56
1053,1	-60,28
1053,5	-56,96
1053,9	-56,8
1054,3	-53,08
1054,8	-55,88
1055,2	-49,04
1055,6	-49,32
1056	-51,84
1056,4	-53
1056,8	-48,76
1057,2	-49,8
1057,6	-57,88
1058,1	-57,36
1058,5	-57,8
1058,9	-47,08
1059,3	-43,92
1059,7	-33,96
1060,1	-31,04
1060,5	-28,88
1061	-41
1061,4	-42,32
1061,8	-45,8
1062,2	-42,4
1062,6	-45,16
1063	-46,8
1063,4	-49,88
1063,8	-49,28
1064,3	-53,16
1064,7	-44,36
1065,1	-41,44
1065,5	-40,28
1065,9	-34,76
1066,3	-36,76
1066,7	-42,48
1067,1	-41,32
1067,6	-45,88
1068	-47,84
1068,4	-43,08
1068,8	-39,16
1069,2	-39,64
1069,6	-31,68
1070	-28,84
1070,4	-28,92
1070,9	-34,8
1071,3	-35,4
1071,7	-39,44
1072,1	-41,84
1072,5	-44,72
1072,9	-38,84
1073,3	-35,56
1073,7	-28,4
1074,2	-29,92
1074,6	-30,12
1075	-26,8
1075,4	-27,16
1075,8	-30,52
1076,2	-31,6
1076,6	-29,04
1077	-28,64
1077,5	-24,48
1077,9	-30,08
1078,3	-35,04
1078,7	-33,68
1079,1	-37,88
1079,5	-45,92
1079,9	-40,68
1080,3	-35,76
1080,7	-39,96
1081,2	-40,32
1081,6	-32,52
1082	-31
1082,4	-32,68
1082,8	-34,4
1083,2	-35,6
1083,6	-43,12
1084	-46,24
1084,5	-43,36
1084,9	-38,96
1085,3	-40,12
1085,7	-38,24
1086,1	-39,92
1086,5	-42
1086,9	-43,32
1087,3	-48,28
1087,7	-43,16
1088,2	-38,88
1088,6	-33,4
1089	-32
1089,4	-27,12
1089,8	-28,24
1090,2	-35,36
1090,6	-40
1091	-48,08
1091,4	-46,56
1091,9	-45,48
1092,3	-39,96
1092,7	-34,76
1093,1	-25,48
1093,5	-29,08
1093,9	-33,24
1094,3	-33,12
1094,7	-37,56
1095,1	-40,8
1095,5	-39,84
1096	-40,64
1096,4	-45
1096,8	-41,36
1097,2	-40,24
1097,6	-35,72
1098	-31,2
1098,4	-25,96
1098,8	-27,64
1099,2	-27,96
1099,6	-34,08
1100,1	-35,32
1100,5	-32,52
1100,9	-33,2
1101,3	-32
1101,7	-21,6
1102,1	-22,16
1102,5	-24,48
1102,9	-20,12
1103,3	-19,2
1103,7	-21,16
1104,2	-22,96
1104,6	-26,08
1105	-30
1105,4	-27,88
1105,8	-32,92
1106,2	-25,32
1106,6	-17,44
1107	-10,88
1107,4	-7,6
1107,8	1,05
1108,3	1,2
