Data from Subt2_00055.txt Node
Date: Fri Aug 11 16:14:10 MSK 2023
User: vat
Spectrometer: MAYP114033
Trigger mode: 0
Integration Time (sec): 5,000000E-1
Scans to average: 5
Electric dark correction enabled: true
Nonlinearity correction enabled: false
Boxcar width: 2
XAxis mode: Wavelengths
Number of Pixels in Spectrum: 2068
>>>>>Begin Spectral Data<<<<<
199,4	-0,967
199,9	-0,467
200,4	-8,927
200,8	-12,007
201,3	-16,087
201,8	-16,327
202,2	-17,207
202,7	-10,727
203,2	-10,887
203,6	-10,927
204,1	-10,327
204,6	-13,567
205	-14,127
205,5	-17,087
206	-13,647
206,4	-17,047
206,9	-16,287
207,4	-17,007
207,8	-14,767
208,3	-16,207
208,8	-14,127
209,2	-17,527
209,7	-22,687
210,2	-19,847
210,6	-19,487
211,1	-25,167
211,5	-20,167
212	-16,087
212,5	-17,767
212,9	-17,967
213,4	-20,847
213,9	-20,887
214,3	-24,767
214,8	-27,047
215,3	-25,927
215,7	-21,447
216,2	-19,167
216,7	-20,007
217,1	-17,607
217,6	-18,887
218,1	-16,847
218,5	-27,487
219	-17,367
219,5	-17,967
219,9	-23,367
220,4	-22,807
220,9	-17,967
221,3	-23,807
221,8	-25,207
222,3	-23,327
222,7	-19,447
223,2	-19,967
223,6	-22,287
224,1	-20,767
224,6	-21,527
225	-30,727
225,5	-23,967
226	-18,607
226,4	-21,767
226,9	-17,447
227,4	-12,727
227,8	-18,087
228,3	-24,967
228,8	-22,287
229,2	-26,927
229,7	-30,927
230,2	-29,047
230,6	-27,167
231,1	-29,087
231,5	-31,927
232	-25,367
232,5	-27,927
232,9	-30,687
233,4	-32,047
233,9	-32,407
234,3	-35,927
234,8	-33,607
235,3	-25,087
235,7	-21,967
236,2	-14,447
236,7	-15,327
237,1	-25,247
237,6	-30,127
238,1	-29,927
238,5	-33,007
239	-32,807
239,4	-28,327
239,9	-24,087
240,4	-24,727
240,8	-19,647
241,3	-18,647
241,8	-10,767
242,2	-12,207
242,7	-9,967
243,2	-15,727
243,6	-14,127
244,1	-19,647
244,6	-19,847
245	-19,807
245,5	-17,767
245,9	-19,407
246,4	-18,967
246,9	-21,967
247,3	-27,127
247,8	-26,287
248,3	-25,927
248,7	-25,287
249,2	-29,447
249,7	-25,007
250,1	-24,087
250,6	-27,807
251	-29,767
251,5	-27,807
252	-36,607
252,4	-41,847
252,9	-36,847
253,4	-38,327
253,8	-32,887
254,3	-22,727
254,8	-21,167
255,2	-18,087
255,7	-12,367
256,1	-16,967
256,6	-27,247
257,1	-25,567
257,5	-30,247
258	-32,447
258,5	-28,487
258,9	-21,607
259,4	-22,887
259,9	-22,967
260,3	-18,607
260,8	-20,087
261,2	-20,447
261,7	-17,127
262,2	-17,047
262,6	-20,007
263,1	-10,727
263,6	-8,007
264	-8,087
264,5	-14,007
264,9	-15,367
265,4	-27,327
265,9	-30,767
266,3	-31,007
266,8	-27,607
267,3	-26,527
267,7	-26,007
268,2	-22,647
268,7	-20,967
269,1	-18,407
269,6	-21,687
270	-22,167
270,5	-26,647
271	-30,727
271,4	-35,727
271,9	-34,367
272,4	-35,687
272,8	-32,567
273,3	-31,527
273,7	-21,807
274,2	-19,567
274,7	-15,447
275,1	-18,047
275,6	-21,567
276,1	-29,727
276,5	-30,487
277	-30,967
277,4	-28,567
277,9	-27,127
278,4	-25,967
278,8	-26,927
279,3	-28,687
279,8	-33,207
280,2	-34,607
280,7	-33,647
281,1	-32,767
281,6	-30,727
282,1	-21,007
282,5	-23,207
283	-22,647
283,4	-23,967
283,9	-21,847
284,4	-28,967
284,8	-25,967
285,3	-22,247
285,8	-23,567
286,2	-25,847
286,7	-24,207
287,1	-24,967
287,6	-28,127
288,1	-23,447
288,5	-21,407
289	-21,927
289,5	-20,647
289,9	-21,127
290,4	-25,447
290,8	-23,567
291,3	-24,847
291,8	-25,327
292,2	-21,927
292,7	-22,687
293,1	-28,847
293,6	-25,047
294,1	-25,927
294,5	-35,327
295	-29,167
295,5	-23,447
295,9	-26,407
296,4	-27,967
296,8	-15,287
297,3	-20,527
297,8	-26,527
298,2	-29,967
298,7	-25,447
299,1	-35,207
299,6	-31,327
300,1	-30,447
300,5	-21,167
301	-22,287
301,5	-20,647
301,9	-21,727
302,4	-18,287
302,8	-26,207
303,3	-31,447
303,8	-30,087
304,2	-30,287
304,7	-31,687
305,1	-25,887
305,6	-18,927
306,1	-16,687
306,5	-16,407
307	-13,807
307,4	-16,727
307,9	-16,527
308,4	-17,847
308,8	-17,327
309,3	-18,847
309,8	-18,767
310,2	-19,927
310,7	-21,887
311,1	-25,207
311,6	-26,007
312,1	-24,847
312,5	-28,927
313	-27,407
313,4	-31,327
313,9	-28,847
314,4	-29,007
314,8	-20,967
315,3	-22,527
315,7	-21,967
316,2	-30,447
316,7	-32,247
317,1	-38,487
317,6	-35,167
318	-29,687
318,5	-25,767
319	-24,447
319,4	-26,527
319,9	-25,527
320,3	-22,407
320,8	-19,487
321,3	-24,927
321,7	-15,807
322,2	-17,127
322,6	-20,607
323,1	-23,167
323,6	-16,447
324	-13,847
324,5	-21,487
324,9	-20,847
325,4	-15,247
325,9	-15,847
326,3	-16,927
326,8	-15,807
327,2	-20,807
327,7	-22,607
328,2	-25,767
328,6	-27,407
329,1	-22,927
329,5	-16,647
330	-17,847
330,5	-21,247
330,9	-27,487
331,4	-24,887
331,8	-29,367
332,3	-31,527
332,8	-27,287
333,2	-32,847
333,7	-35,087
334,1	-31,567
334,6	-32,447
335,1	-29,887
335,5	-22,287
336	-18,487
336,4	-15,247
336,9	-11,567
337,4	-15,447
337,8	-12,567
338,3	-19,527
338,7	-24,807
339,2	-23,687
339,7	-18,007
340,1	-22,967
340,6	-23,247
341	-17,967
341,5	-22,047
342	-18,927
342,4	-15,047
342,9	-9,567
343,3	-16,847
343,8	-14,767
344,2	-14,887
344,7	-16,927
345,2	-13,807
345,6	-9,727
346,1	-4,407
346,5	-3,927
347	-3,727
347,5	-7,167
347,9	0,633
348,4	1,113
348,8	-0,887
349,3	8,073
349,8	17,313
350,2	24,313
350,7	32,873
351,1	47,193
351,6	60,833
352	79,393
352,5	102,273
353	128,993
353,4	164,153
353,9	214,953
354,3	270,033
354,8	327,513
355,3	412,593
355,7	500,353
356,2	594,513
356,6	706,073
357,1	848,793
357,5	998,153
358	1175,233
358,5	1386,393
358,9	1618,193
359,4	1875,673
359,8	2167,913
360,3	2506,953
360,8	2873,673
361,2	3295,113
361,7	3749,593
362,1	4254,953
362,6	4803,993
363	5378,833
363,5	5988,753
364	6628,113
364,4	7297,233
364,9	7962,313
365,3	8635,553
365,8	9272,353
366,3	9885,113
366,7	10409,673
367,2	10869,233
367,6	11241,633
368,1	11521,033
368,5	11690,073
369	11773,473
369,5	11742,193
369,9	11634,193
370,4	11429,313
370,8	11149,353
371,3	10787,113
371,7	10380,513
372,2	9907,513
372,7	9403,433
373,1	8876,353
373,6	8340,953
374	7796,353
374,5	7262,033
374,9	6747,233
375,4	6242,993
375,9	5760,953
376,3	5300,593
376,8	4863,033
377,2	4448,193
377,7	4064,753
378,2	3714,073
378,6	3386,273
379,1	3084,793
379,5	2812,153
380	2560,473
380,4	2331,433
380,9	2129,153
381,4	1951,393
381,8	1794,353
382,3	1655,673
382,7	1520,953
383,2	1405,913
383,6	1300,393
384,1	1200,033
384,6	1106,633
385	1025,833
385,5	946,313
385,9	875,233
386,4	806,033
386,8	738,633
387,3	688,193
387,7	635,793
388,2	578,633
388,7	536,713
389,1	498,873
389,6	453,793
390	416,473
390,5	384,793
390,9	349,393
391,4	313,673
391,9	291,713
392,3	267,753
392,8	248,233
393,2	233,633
393,7	226,193
394,1	206,873
394,6	192,433
395,1	177,233
395,5	160,353
396	143,833
396,4	127,313
396,9	116,873
397,3	108,913
397,8	106,513
398,2	100,913
398,7	97,113
399,2	89,793
399,6	78,833
400,1	65,353
400,5	54,073
401	50,953
401,4	46,513
401,9	45,713
402,4	42,153
402,8	38,793
403,3	30,313
403,7	23,793
404,2	21,793
404,6	20,313
405,1	21,233
405,5	25,273
406	25,953
406,5	19,393
406,9	17,193
407,4	12,433
407,8	8,953
408,3	10,913
408,7	15,113
409,2	15,233
409,6	14,433
410,1	13,273
410,6	15,193
411	9,793
411,5	9,233
411,9	19,473
412,4	21,793
412,8	16,313
413,3	18,113
413,7	27,273
414,2	21,913
414,7	24,393
415,1	29,353
415,6	28,073
416	26,113
416,5	29,073
416,9	34,273
417,4	34,313
417,8	37,953
418,3	37,233
418,8	37,513
419,2	36,593
419,7	42,873
420,1	49,073
420,6	44,033
421	43,393
421,5	39,993
421,9	37,073
422,4	37,633
422,8	48,633
423,3	51,153
423,8	56,033
424,2	59,073
424,7	60,473
425,1	59,073
425,6	59,113
426	61,793
426,5	67,193
426,9	69,473
427,4	71,993
427,9	84,593
428,3	79,553
428,8	80,193
429,2	88,873
429,7	97,073
430,1	93,993
430,6	109,513
431	113,953
431,5	121,753
431,9	122,153
432,4	132,393
432,8	139,233
433,3	148,993
433,8	153,753
434,2	170,393
434,7	174,833
435,1	184,153
435,6	200,073
436	213,153
436,5	221,793
436,9	237,393
437,4	255,593
437,8	268,033
438,3	282,233
438,8	295,753
439,2	312,993
439,7	322,433
440,1	337,233
440,6	347,193
441	371,673
441,5	386,753
441,9	404,193
442,4	410,833
442,8	437,833
443,3	456,153
443,7	478,953
444,2	502,593
444,7	535,993
445,1	561,313
445,6	581,793
446	604,753
446,5	637,713
446,9	664,753
447,4	691,713
447,8	718,953
448,3	753,913
448,7	776,393
449,2	806,553
449,6	843,273
450,1	879,153
450,6	916,433
451	952,313
451,5	990,193
451,9	1018,593
452,4	1056,913
452,8	1092,913
453,3	1124,233
453,7	1159,593
454,2	1202,393
454,6	1245,593
455,1	1279,313
455,5	1334,073
456	1380,273
456,4	1410,793
456,9	1454,713
457,3	1510,033
457,8	1551,553
458,3	1600,073
458,7	1651,713
459,2	1695,273
459,6	1740,793
460,1	1794,073
460,5	1846,273
461	1903,873
461,4	1961,153
461,9	2016,393
462,3	2067,033
462,8	2116,313
463,2	2182,553
463,7	2223,233
464,1	2275,473
464,6	2326,393
465	2375,673
465,5	2422,153
466	2484,833
466,4	2530,473
466,9	2581,153
467,3	2638,793
467,8	2692,193
468,2	2738,833
468,7	2800,953
469,1	2852,713
469,6	2901,273
470	2943,913
470,5	3000,393
470,9	3039,753
471,4	3088,753
471,8	3141,673
472,3	3191,793
472,7	3237,233
473,2	3289,153
473,6	3329,593
474,1	3362,273
474,5	3403,593
475	3450,393
475,4	3484,833
475,9	3527,993
476,4	3574,873
476,8	3613,673
477,3	3641,873
477,7	3681,193
478,2	3722,353
478,6	3750,513
479,1	3781,833
479,5	3811,633
480	3838,873
480,4	3856,473
480,9	3889,433
481,3	3910,793
481,8	3938,313
482,2	3964,833
482,7	3989,433
483,1	3995,433
483,6	4011,673
484	4031,593
484,5	4045,953
484,9	4057,233
485,4	4075,993
485,8	4082,633
486,3	4081,473
486,7	4092,913
487,2	4101,833
487,6	4105,473
488,1	4118,313
488,5	4118,913
489	4113,233
489,4	4110,433
489,9	4108,393
490,4	4103,873
490,8	4102,393
491,3	4091,473
491,7	4084,513
492,2	4079,953
492,6	4071,353
493,1	4057,233
493,5	4045,953
494	4023,073
494,4	4006,113
494,9	3981,753
495,3	3971,193
495,8	3950,633
496,2	3945,073
496,7	3929,513
497,1	3915,273
497,6	3893,153
498	3875,033
498,5	3849,553
498,9	3826,873
499,4	3805,433
499,8	3785,313
500,3	3766,793
500,7	3751,273
501,2	3725,753
501,6	3699,993
502,1	3671,153
502,5	3647,633
503	3617,313
503,4	3594,873
503,9	3571,433
504,3	3549,353
504,8	3520,193
505,2	3486,913
505,7	3463,353
506,1	3441,353
506,6	3413,113
507	3373,593
507,5	3359,233
507,9	3325,073
508,4	3280,353
508,8	3252,753
509,3	3235,513
509,7	3194,153
510,2	3172,073
510,6	3155,673
511,1	3126,313
511,5	3096,753
512	3073,113
512,4	3039,833
512,9	3012,073
513,3	2976,233
513,8	2949,113
514,2	2914,073
514,7	2878,433
515,1	2843,833
515,6	2816,713
516	2788,793
516,5	2769,793
516,9	2749,193
517,4	2720,113
517,8	2680,873
518,3	2649,633
518,7	2613,713
519,2	2577,673
519,6	2543,953
520,1	2534,553
520,5	2506,633
521	2483,433
521,4	2460,473
521,9	2440,313
522,3	2412,073
522,8	2387,233
523,2	2367,473
523,7	2332,913
524,1	2309,353
524,6	2273,113
525	2244,033
525,5	2210,153
525,9	2189,393
526,4	2168,473
526,8	2145,193
527,3	2123,553
527,7	2100,233
528,2	2077,433
528,6	2054,793
529,1	2038,153
529,5	2024,153
530	2000,153
530,4	1989,393
530,9	1960,593
531,3	1940,393
531,8	1920,873
532,2	1900,993
532,6	1878,393
533,1	1859,473
533,5	1841,113
534	1814,073
534,4	1799,953
534,9	1776,153
535,3	1759,553
535,8	1741,833
536,2	1720,673
536,7	1696,593
537,1	1678,513
537,6	1665,393
538	1649,793
538,5	1636,193
538,9	1634,673
539,4	1619,113
539,8	1604,193
540,3	1584,433
540,7	1565,833
541,2	1540,713
541,6	1524,913
542,1	1500,913
542,5	1483,593
543	1466,673
543,4	1444,833
543,9	1430,233
544,3	1415,713
544,8	1404,953
545,2	1392,593
545,7	1383,353
546,1	1368,313
546,5	1359,633
547	1347,073
547,4	1327,633
547,9	1312,473
548,3	1298,473
548,8	1283,633
549,2	1270,153
549,7	1270,993
550,1	1262,593
550,6	1249,873
551	1234,913
551,5	1221,233
551,9	1202,833
552,4	1189,473
552,8	1177,793
553,3	1170,593
553,7	1164,753
554,2	1156,833
554,6	1145,633
555,1	1140,593
555,5	1133,593
555,9	1124,433
556,4	1112,393
556,8	1107,553
557,3	1095,073
557,7	1084,753
558,2	1074,313
558,6	1068,233
559,1	1056,553
559,5	1053,513
560	1045,633
560,4	1032,353
560,9	1019,913
561,3	1017,393
561,8	1006,833
562,2	998,913
562,7	997,513
563,1	995,753
563,6	984,273
564	976,633
564,4	964,193
564,9	955,713
565,3	945,113
565,8	938,233
566,2	929,473
566,7	923,153
567,1	913,873
567,6	904,433
568	894,873
568,5	886,073
568,9	879,953
569,4	870,473
569,8	864,793
570,3	864,393
570,7	859,953
571,1	858,233
571,6	858,233
572	851,833
572,5	842,713
572,9	832,713
573,4	826,073
573,8	812,273
574,3	808,633
574,7	795,913
575,2	787,793
575,6	773,593
576,1	763,033
576,5	755,913
576,9	756,593
577,4	750,793
577,8	751,513
578,3	748,713
578,7	750,313
579,2	738,913
579,6	737,433
580,1	728,433
580,5	729,073
581	713,033
581,4	708,153
581,9	698,873
582,3	694,513
582,7	682,313
583,2	678,913
583,6	677,193
584,1	675,473
584,5	672,313
585	663,833
585,4	658,713
585,9	651,913
586,3	643,553
586,8	637,953
587,2	638,633
587,6	632,353
588,1	627,833
588,5	626,833
589	619,473
589,4	614,153
589,9	611,673
590,3	611,993
590,8	605,033
591,2	600,273
591,7	603,713
592,1	598,473
592,5	591,033
593	583,193
593,4	583,513
593,9	571,993
594,3	567,793
594,8	563,073
595,2	563,193
595,7	555,393
596,1	558,753
596,6	561,233
597	555,633
597,4	552,713
597,9	553,753
598,3	547,593
598,8	539,953
599,2	542,473
599,7	541,553
600,1	536,673
600,6	530,233
601	529,593
601,4	522,953
601,9	519,793
602,3	516,513
602,8	506,633
603,2	498,993
603,7	497,953
604,1	493,873
604,6	487,873
605	497,953
605,4	491,153
605,9	482,233
606,3	482,073
606,8	476,433
607,2	465,033
607,7	467,713
608,1	470,873
608,6	462,313
609	463,353
609,4	462,153
609,9	461,393
610,3	456,553
610,8	455,633
611,2	446,753
611,7	444,953
612,1	438,233
612,6	431,033
613	430,713
613,4	435,033
613,9	437,833
614,3	432,273
614,8	433,073
615,2	427,393
615,7	416,593
616,1	405,673
616,6	405,553
617	395,353
617,4	397,193
617,9	400,313
618,3	405,633
618,8	398,513
619,2	399,433
619,7	396,833
620,1	390,593
620,5	382,793
621	385,753
621,4	387,793
621,9	380,073
622,3	379,953
622,8	383,593
623,2	381,673
623,6	378,913
624,1	381,873
624,5	376,753
625	361,313
625,4	348,913
625,9	339,553
626,3	334,833
626,8	332,193
627,2	333,393
627,6	338,913
628,1	341,993
628,5	334,833
629	336,353
629,4	335,633
629,9	333,393
630,3	328,153
630,7	328,393
631,2	321,353
631,6	319,593
632,1	316,193
632,5	315,513
633	310,473
633,4	310,513
633,8	306,673
634,3	304,513
634,7	300,473
635,2	299,553
635,6	293,553
636,1	293,393
636,5	296,713
636,9	292,953
637,4	289,073
637,8	293,233
638,3	288,273
638,7	276,233
639,2	275,873
639,6	275,233
640	268,433
640,5	268,393
640,9	270,393
641,4	267,273
641,8	264,233
642,2	264,273
642,7	261,233
643,1	264,073
643,6	259,233
644	258,393
644,5	259,153
644,9	258,473
645,3	255,833
645,8	260,113
646,2	253,993
646,7	250,833
647,1	251,753
647,6	248,473
648	243,353
648,4	245,993
648,9	245,273
649,3	235,753
649,8	230,313
650,2	230,313
650,6	223,673
651,1	222,593
651,5	223,153
652	229,393
652,4	225,313
652,9	226,153
653,3	221,793
653,7	222,433
654,2	215,753
654,6	215,553
655,1	220,073
655,5	219,753
655,9	220,713
656,4	219,353
656,8	213,953
657,3	206,913
657,7	205,673
658,2	197,313
658,6	190,793
659	198,073
659,5	201,953
659,9	195,313
660,4	202,193
660,8	208,513
661,2	197,113
661,7	186,793
662,1	188,393
662,6	180,353
663	176,153
663,4	183,113
663,9	184,273
664,3	178,793
664,8	179,393
665,2	177,433
665,6	180,113
666,1	181,513
666,5	180,393
667	184,393
667,4	175,953
667,9	168,473
668,3	167,113
668,7	171,233
669,2	167,233
669,6	168,193
670,1	168,873
670,5	167,033
670,9	164,673
671,4	159,153
671,8	163,433
672,3	159,113
672,7	160,833
673,1	158,113
673,6	160,353
674	160,593
674,5	157,993
674,9	151,953
675,3	151,353
675,8	149,073
676,2	142,993
676,7	144,793
677,1	146,233
677,5	148,713
678	146,033
678,4	151,553
678,9	148,393
679,3	147,433
679,7	143,553
680,2	140,873
680,6	130,393
681,1	125,233
681,5	125,833
681,9	128,153
682,4	128,873
682,8	134,073
683,3	140,393
683,7	135,393
684,1	127,433
684,6	127,113
685	124,153
685,5	118,633
685,9	120,713
686,3	121,753
686,8	118,153
687,2	111,713
687,7	118,153
688,1	113,593
688,5	113,113
689	110,313
689,4	113,073
689,9	103,233
690,3	101,273
690,7	101,873
691,2	107,913
691,6	105,513
692	107,393
692,5	110,833
692,9	106,073
693,4	100,433
693,8	106,433
694,2	107,833
694,7	103,513
695,1	101,593
695,6	99,873
696	94,713
696,4	94,913
696,9	99,793
697,3	102,553
697,8	105,793
698,2	105,713
698,6	102,033
699,1	97,713
699,5	96,873
699,9	94,713
700,4	91,233
700,8	93,273
701,3	84,593
701,7	83,553
702,1	76,273
702,6	76,153
703	71,673
703,5	76,553
703,9	78,353
704,3	90,353
704,8	92,953
705,2	94,113
705,6	96,913
706,1	89,793
706,5	81,633
707	80,153
707,4	82,833
707,8	77,433
708,3	82,433
708,7	86,153
709,2	82,593
709,6	75,393
710	76,393
710,5	75,353
710,9	64,233
711,3	62,913
711,8	66,513
712,2	71,873
712,7	63,193
713,1	71,913
713,5	71,913
714	70,993
714,4	66,113
714,8	75,153
715,3	72,433
715,7	74,073
716,2	69,913
716,6	66,713
717	66,753
717,5	67,553
717,9	69,033
718,3	70,633
718,8	73,233
719,2	67,833
719,7	64,833
720,1	63,273
720,5	56,873
721	53,713
721,4	50,953
721,8	47,313
722,3	42,953
722,7	44,273
723,2	44,953
723,6	48,633
724	50,553
724,5	54,433
724,9	59,553
725,3	58,033
725,8	56,153
726,2	58,673
726,7	58,273
727,1	60,833
727,5	62,113
728	60,273
728,4	61,273
728,8	58,113
729,3	52,553
729,7	49,873
730,1	49,193
730,6	46,953
731	45,033
731,5	48,393
731,9	55,473
732,3	59,993
732,8	59,553
733,2	60,713
733,6	61,673
734,1	56,353
734,5	55,873
734,9	55,793
735,4	55,873
735,8	49,953
736,3	52,593
736,7	49,593
737,1	52,273
737,6	55,753
738	55,153
738,4	51,113
738,9	48,633
739,3	41,113
739,7	32,913
740,2	30,793
740,6	30,633
741,1	32,713
741,5	37,553
741,9	43,993
742,4	45,553
742,8	43,193
743,2	46,193
743,7	42,153
744,1	45,673
744,5	42,993
745	45,313
745,4	41,553
745,8	42,433
746,3	35,033
746,7	36,153
747,2	36,073
747,6	37,073
748	34,793
748,5	38,633
748,9	37,273
749,3	36,913
749,8	33,873
750,2	33,593
750,6	30,833
751,1	36,553
751,5	37,233
751,9	43,033
752,4	48,473
752,8	51,113
753,3	45,153
753,7	47,233
754,1	41,393
754,6	38,633
755	31,433
755,4	32,233
755,9	28,873
756,3	25,513
756,7	24,593
757,2	21,153
757,6	17,793
758	19,073
758,5	19,473
758,9	23,473
759,3	28,833
759,8	34,673
760,2	26,793
760,6	29,873
761,1	25,113
761,5	27,313
761,9	24,713
762,4	22,913
762,8	25,433
763,3	20,793
763,7	20,233
764,1	20,313
764,6	25,793
765	27,073
765,4	26,713
765,9	19,433
766,3	17,713
766,7	18,353
767,2	15,353
767,6	18,553
768	21,233
768,5	22,633
768,9	20,673
769,3	20,913
769,8	16,633
770,2	16,473
770,6	15,273
771,1	18,073
771,5	14,873
771,9	23,193
772,4	23,073
772,8	26,793
773,2	25,513
773,7	25,473
774,1	21,273
774,5	22,433
775	17,033
775,4	15,753
775,8	17,913
776,3	16,833
776,7	17,793
777,1	22,273
777,6	27,793
778	23,993
778,4	25,873
778,9	28,153
779,3	19,273
779,7	11,993
780,2	14,673
780,6	11,233
781	8,913
781,5	17,393
781,9	14,513
782,3	10,993
782,8	14,273
783,2	12,833
783,6	13,153
784,1	14,273
784,5	13,633
784,9	11,593
785,4	15,033
785,8	7,553
786,2	5,433
786,7	9,433
787,1	10,313
787,5	-0,247
788	7,873
788,4	12,953
788,8	12,153
789,3	11,753
789,7	17,033
790,1	12,513
790,6	10,033
791	5,713
791,4	10,753
791,9	10,593
792,3	7,873
792,7	10,113
793,2	15,473
793,6	7,233
794	9,313
794,5	11,153
794,9	10,713
795,3	3,913
795,8	4,673
796,2	2,913
796,6	0,433
797,1	-3,647
797,5	-1,727
797,9	-3,447
798,4	-1,767
798,8	4,113
799,2	3,793
799,7	2,713
800,1	4,073
800,5	1,073
801	-1,847
801,4	-0,927
801,8	1,313
802,2	4,273
802,7	7,273
803,1	3,153
803,5	5,273
804	6,233
804,4	1,193
804,8	-2,047
805,3	1,993
805,7	-2,527
806,1	-2,287
806,6	0,873
807	-3,087
807,4	-7,647
807,9	-2,687
808,3	-1,207
808,7	-6,727
809,2	3,833
809,6	2,873
810	2,393
810,4	-1,087
810,9	0,713
811,3	-5,807
811,7	1,433
812,2	2,953
812,6	-0,647
813	2,593
813,5	5,313
813,9	1,153
814,3	3,153
814,8	8,833
815,2	5,833
815,6	0,873
816,1	-1,167
816,5	-7,527
816,9	-8,167
817,3	-8,687
817,8	-7,687
818,2	-7,167
818,6	-7,287
819,1	-11,327
819,5	-8,807
819,9	-4,407
820,4	-3,607
820,8	-2,287
821,2	-2,887
821,7	1,513
822,1	-0,367
822,5	-1,367
822,9	-6,847
823,4	-0,287
823,8	-5,807
824,2	-9,967
824,7	-8,007
825,1	-0,967
825,5	-6,367
826	-8,567
826,4	-6,327
826,8	-9,007
827,3	-12,287
827,7	-17,207
828,1	-12,447
828,5	-15,207
829	-15,367
829,4	-16,007
829,8	-12,567
830,3	-9,607
830,7	-6,567
831,1	-6,847
831,6	-2,287
832	-2,807
832,4	-4,687
832,8	-4,807
833,3	0,833
833,7	1,153
834,1	4,273
834,6	-3,407
835	-0,447
835,4	-1,567
835,8	-5,607
836,3	-7,727
836,7	-0,527
837,1	-3,087
837,6	-5,127
838	-5,247
838,4	-8,087
838,9	-11,127
839,3	-16,767
839,7	-14,967
840,1	-8,127
840,6	-4,767
841	-6,247
841,4	-2,127
841,9	-4,807
842,3	-16,567
842,7	-15,967
843,1	-13,287
843,6	-19,087
844	-21,487
844,4	-14,887
844,9	-14,247
845,3	-12,647
845,7	-6,767
846,2	-4,127
846,6	-5,207
847	-8,167
847,4	-16,527
847,9	-17,007
848,3	-22,287
848,7	-23,327
849,2	-22,367
849,6	-19,247
850	-15,967
850,4	-13,247
850,9	-12,847
851,3	-14,967
851,7	-19,367
852,2	-19,607
852,6	-15,527
853	-20,087
853,4	-15,007
853,9	-10,087
854,3	-14,407
854,7	-13,647
855,2	-7,767
855,6	-11,007
856	-9,807
856,4	-8,927
856,9	-14,807
857,3	-15,287
857,7	-17,687
858,2	-18,847
858,6	-19,687
859	-17,607
859,4	-15,527
859,9	-9,767
860,3	-7,647
860,7	-6,367
861,1	-4,407
861,6	-10,807
862	-14,807
862,4	-13,847
862,9	-14,567
863,3	-14,607
863,7	-9,287
864,1	-6,687
864,6	-9,007
865	-9,927
865,4	-16,367
865,9	-21,567
866,3	-25,727
866,7	-26,527
867,1	-24,327
867,6	-26,247
868	-20,967
868,4	-17,367
868,8	-18,527
869,3	-25,367
869,7	-19,687
870,1	-22,847
870,6	-24,327
871	-19,447
871,4	-39,767
871,8	-40,807
872,3	-44,927
872,7	-44,807
873,1	-44,647
873,5	-17,527
874	-12,367
874,4	-6,287
874,8	-9,447
875,3	-13,807
875,7	-13,807
876,1	-16,127
876,5	-17,767
877	-7,327
877,4	-6,647
877,8	-9,007
878,2	-7,607
878,7	-5,007
879,1	-11,527
879,5	-9,567
879,9	-7,567
880,4	-9,327
880,8	-13,247
881,2	-10,327
881,7	-15,567
882,1	-15,967
882,5	-18,367
882,9	-16,047
883,4	-16,327
883,8	-15,727
884,2	-15,447
884,6	-12,567
885,1	-14,887
885,5	-15,047
885,9	-14,087
886,3	-15,887
886,8	-13,727
887,2	-15,327
887,6	-19,927
888	-21,007
888,5	-19,687
888,9	-21,487
889,3	-17,607
889,8	-15,567
890,2	-12,607
890,6	-13,887
891	-17,287
891,5	-16,567
891,9	-18,847
892,3	-15,687
892,7	-14,847
893,2	-13,127
893,6	-14,487
894	-14,887
894,4	-22,447
894,9	-20,847
895,3	-21,487
895,7	-18,047
896,1	-12,847
896,6	-11,127
897	-16,207
897,4	-18,007
897,8	-18,527
898,3	-22,207
898,7	-14,247
899,1	-11,087
899,5	-7,207
900	-13,927
900,4	-9,287
900,8	-19,647
901,2	-14,567
901,7	-15,887
902,1	-8,767
902,5	-11,727
902,9	-9,647
903,4	-10,527
903,8	-8,047
904,2	-5,287
904,6	-11,007
905,1	-8,407
905,5	-15,487
905,9	-18,887
906,3	-26,407
906,8	-21,087
907,2	-21,767
907,6	-22,847
908	-20,647
908,5	-21,287
908,9	-22,767
909,3	-28,127
909,7	-24,167
910,2	-25,007
910,6	-25,567
911	-27,567
911,4	-24,287
911,9	-27,487
912,3	-30,807
912,7	-28,327
913,1	-24,687
913,6	-24,407
914	-29,807
914,4	-33,407
914,8	-34,567
915,3	-37,687
915,7	-36,727
916,1	-33,727
916,5	-23,567
916,9	-24,327
917,4	-19,247
917,8	-20,487
918,2	-14,447
918,6	-24,247
919,1	-21,727
919,5	-20,247
919,9	-13,727
920,3	-14,807
920,8	-13,607
921,2	-16,087
921,6	-23,727
922	-30,367
922,5	-26,927
922,9	-27,567
923,3	-23,887
923,7	-17,487
924,2	-16,407
924,6	-22,607
925	-18,247
925,4	-19,607
925,8	-22,727
926,3	-21,407
926,7	-21,487
927,1	-17,447
927,5	-20,727
928	-21,567
928,4	-21,687
928,8	-12,167
929,2	-18,447
929,7	-16,127
930,1	-16,647
930,5	-16,567
930,9	-22,127
931,3	-21,207
931,8	-27,527
932,2	-26,887
932,6	-28,647
933	-30,087
933,5	-30,127
933,9	-20,007
934,3	-21,167
934,7	-18,767
935,2	-18,567
935,6	-16,647
936	-24,967
936,4	-27,687
936,8	-31,287
937,3	-32,927
937,7	-29,487
938,1	-26,007
938,5	-25,327
939	-25,647
939,4	-26,327
939,8	-30,847
940,2	-31,247
940,6	-34,727
941,1	-35,047
941,5	-36,487
941,9	-37,927
942,3	-34,887
942,8	-30,247
943,2	-27,407
943,6	-30,367
944	-32,447
944,4	-37,927
944,9	-39,367
945,3	-37,327
945,7	-33,287
946,1	-31,767
946,6	-36,327
947	-35,407
947,4	-36,407
947,8	-33,127
948,2	-28,447
948,7	-19,887
949,1	-14,247
949,5	-11,447
949,9	-16,327
950,3	-17,127
950,8	-19,647
951,2	-22,687
951,6	-27,967
952	-21,487
952,5	-22,967
952,9	-21,607
953,3	-24,447
953,7	-18,527
954,1	-22,007
954,6	-20,967
955	-18,567
955,4	-19,447
955,8	-19,527
956,2	-22,447
956,7	-28,447
957,1	-34,887
957,5	-33,207
957,9	-37,287
958,3	-35,127
958,8	-31,007
959,2	-26,287
959,6	-32,447
960	-32,567
960,5	-30,047
960,9	-29,567
961,3	-30,807
961,7	-20,967
962,1	-20,567
962,6	-21,367
963	-17,167
963,4	-14,727
963,8	-16,127
964,2	-20,087
964,7	-20,127
965,1	-29,647
965,5	-36,127
965,9	-41,647
966,3	-36,847
966,8	-37,847
967,2	-35,927
967,6	-30,287
968	-27,047
968,4	-27,687
968,9	-29,287
969,3	-23,487
969,7	-22,967
970,1	-27,567
970,5	-28,247
971	-23,007
971,4	-22,447
971,8	-26,087
972,2	-16,567
972,6	-19,087
973,1	-22,767
973,5	-26,847
973,9	-27,407
974,3	-31,647
974,7	-24,927
975,2	-28,167
975,6	-26,247
976	-22,487
976,4	-21,527
976,8	-21,767
977,3	-19,687
977,7	-19,967
978,1	-22,687
978,5	-25,687
978,9	-34,967
979,4	-30,327
979,8	-27,567
980,2	-23,567
980,6	-19,327
981	-11,047
981,5	-10,487
981,9	-13,207
982,3	-17,807
982,7	-22,007
983,1	-23,207
983,6	-21,767
984	-19,487
984,4	-19,127
984,8	-17,967
985,2	-15,527
985,6	-19,087
986,1	-25,287
986,5	-21,007
986,9	-20,887
987,3	-30,047
987,7	-27,327
988,2	-27,447
988,6	-24,327
989	-26,007
989,4	-29,007
989,8	-30,487
990,3	-30,807
990,7	-38,967
991,1	-34,487
991,5	-25,447
991,9	-28,247
992,3	-23,887
992,8	-18,367
993,2	-18,487
993,6	-21,407
994	-21,407
994,4	-22,167
994,9	-25,487
995,3	-30,727
995,7	-27,127
996,1	-26,767
996,5	-24,687
996,9	-26,007
997,4	-25,767
997,8	-31,367
998,2	-30,087
998,6	-32,167
999	-29,407
999,5	-29,487
999,9	-30,167
1000,3	-28,327
1000,7	-32,727
1001,1	-35,927
1001,5	-33,607
1002	-30,647
1002,4	-30,927
1002,8	-28,647
1003,2	-26,447
1003,6	-25,087
1004	-20,287
1004,5	-24,127
1004,9	-19,927
1005,3	-24,487
1005,7	-33,847
1006,1	-35,727
1006,6	-35,687
1007	-40,287
1007,4	-36,807
1007,8	-29,047
1008,2	-29,767
1008,6	-29,527
1009,1	-27,567
1009,5	-25,527
1009,9	-21,287
1010,3	-21,367
1010,7	-20,607
1011,1	-16,207
1011,6	-10,807
1012	-11,807
1012,4	-12,647
1012,8	-17,447
1013,2	-23,207
1013,6	-32,127
1014,1	-31,567
1014,5	-30,567
1014,9	-23,327
1015,3	-21,527
1015,7	-17,487
1016,1	-27,247
1016,6	-30,967
1017	-31,487
1017,4	-26,487
1017,8	-25,327
1018,2	-14,887
1018,6	-14,327
1019,1	-18,887
1019,5	-16,687
1019,9	-20,447
1020,3	-32,487
1020,7	-33,727
1021,1	-32,967
1021,6	-37,847
1022	-34,287
1022,4	-28,527
1022,8	-24,567
1023,2	-23,727
1023,6	-23,287
1024,1	-26,447
1024,5	-25,207
1024,9	-32,327
1025,3	-32,047
1025,7	-30,647
1026,1	-28,967
1026,6	-28,807
1027	-24,407
1027,4	-26,447
1027,8	-32,647
1028,2	-32,367
1028,6	-29,927
1029	-30,767
1029,5	-29,527
1029,9	-29,487
1030,3	-35,447
1030,7	-30,887
1031,1	-30,527
1031,5	-32,647
1032	-30,767
1032,4	-27,527
1032,8	-34,847
1033,2	-35,927
1033,6	-39,327
1034	-39,967
1034,4	-44,207
1034,9	-41,407
1035,3	-41,487
1035,7	-35,327
1036,1	-36,087
1036,5	-29,447
1036,9	-27,407
1037,4	-27,007
1037,8	-20,967
1038,2	-17,927
1038,6	-18,447
1039	-22,527
1039,4	-20,647
1039,8	-28,367
1040,3	-34,247
1040,7	-30,287
1041,1	-26,407
1041,5	-24,887
1041,9	-24,727
1042,3	-25,647
1042,7	-29,647
1043,2	-33,967
1043,6	-35,807
1044	-32,367
1044,4	-26,967
1044,8	-25,847
1045,2	-29,967
1045,6	-26,167
1046,1	-27,567
1046,5	-28,207
1046,9	-33,887
1047,3	-25,367
1047,7	-28,327
1048,1	-31,687
1048,5	-36,207
1049	-32,487
1049,4	-30,847
1049,8	-27,407
1050,2	-17,767
1050,6	-10,327
1051	-9,567
1051,4	-14,687
1051,9	-20,807
1052,3	-32,167
1052,7	-37,327
1053,1	-40,127
1053,5	-44,647
1053,9	-41,687
1054,3	-37,767
1054,8	-35,887
1055,2	-30,887
1055,6	-27,127
1056	-27,567
1056,4	-29,127
1056,8	-27,927
1057,2	-27,567
1057,6	-26,127
1058,1	-25,047
1058,5	-28,167
1058,9	-33,967
1059,3	-36,687
1059,7	-35,527
1060,1	-36,727
1060,5	-30,687
1061	-23,887
1061,4	-24,367
1061,8	-21,887
1062,2	-20,767
1062,6	-20,207
1063	-20,007
1063,4	-23,447
1063,8	-25,447
1064,3	-23,767
1064,7	-23,127
1065,1	-18,727
1065,5	-13,047
1065,9	-14,327
1066,3	-17,807
1066,7	-23,527
1067,1	-33,447
1067,6	-34,327
1068	-38,847
1068,4	-36,687
1068,8	-32,527
1069,2	-25,727
1069,6	-24,687
1070	-18,367
1070,4	-25,527
1070,9	-26,887
1071,3	-30,127
1071,7	-30,007
1072,1	-35,487
1072,5	-30,327
1072,9	-29,967
1073,3	-34,167
1073,7	-39,687
1074,2	-41,007
1074,6	-36,407
1075	-37,687
1075,4	-32,007
1075,8	-36,007
1076,2	-35,767
1076,6	-36,287
1077	-32,327
1077,5	-35,887
1077,9	-29,087
1078,3	-23,407
1078,7	-24,127
1079,1	-28,767
1079,5	-24,487
1079,9	-25,607
1080,3	-29,807
1080,7	-29,087
1081,2	-27,807
1081,6	-25,087
1082	-24,167
1082,4	-17,727
1082,8	-16,647
1083,2	-13,407
1083,6	-16,687
1084	-11,807
1084,5	-18,167
1084,9	-21,727
1085,3	-24,207
1085,7	-25,367
1086,1	-34,007
1086,5	-32,647
1086,9	-34,807
1087,3	-38,847
1087,7	-38,687
1088,2	-34,047
1088,6	-34,047
1089	-33,087
1089,4	-32,567
1089,8	-32,167
1090,2	-30,247
1090,6	-24,847
1091	-23,607
1091,4	-20,287
1091,9	-17,967
1092,3	-20,487
1092,7	-21,287
1093,1	-19,447
1093,5	-16,887
1093,9	-19,887
1094,3	-17,767
1094,7	-22,567
1095,1	-25,167
1095,5	-23,047
1096	-22,887
1096,4	-25,007
1096,8	-24,567
1097,2	-21,927
1097,6	-19,287
1098	-15,887
1098,4	-13,607
1098,8	-6,487
1099,2	-8,887
1099,6	-13,727
1100,1	-14,047
1100,5	-11,727
1100,9	-17,927
1101,3	-14,447
1101,7	-15,287
1102,1	-20,167
1102,5	-24,447
1102,9	-26,367
1103,3	-28,727
1103,7	-28,847
1104,2	-26,487
1104,6	-27,687
1105	-23,727
1105,4	-21,927
1105,8	-22,207
1106,2	-17,207
1106,6	-10,847
1107	-7,407
1107,4	-5,007
1107,8	0,233
1108,3	-0,433
