Data from Subt2_00014.txt Node
Date: Fri Aug 11 15:26:28 MSK 2023
User: vat
Spectrometer: MAYP114033
Trigger mode: 0
Integration Time (sec): 5,000000E-1
Scans to average: 5
Electric dark correction enabled: true
Nonlinearity correction enabled: false
Boxcar width: 2
XAxis mode: Wavelengths
Number of Pixels in Spectrum: 2068
>>>>>Begin Spectral Data<<<<<
199,4	1,167
199,9	1,517
200,4	-2,713
200,8	-6,353
201,3	-12,713
201,8	-13,033
202,2	-10,833
202,7	-14,873
203,2	-11,113
203,6	-8,953
204,1	-7,233
204,6	-15,273
205	-12,153
205,5	-20,473
206	-17,593
206,4	-24,313
206,9	-21,993
207,4	-26,233
207,8	-20,273
208,3	-22,233
208,8	-22,713
209,2	-25,113
209,7	-20,073
210,2	-23,393
210,6	-23,393
211,1	-23,393
211,5	-23,393
212	-25,353
212,5	-25,313
212,9	-26,793
213,4	-21,913
213,9	-21,833
214,3	-21,713
214,8	-23,713
215,3	-19,353
215,7	-21,473
216,2	-24,073
216,7	-24,673
217,1	-21,713
217,6	-29,353
218,1	-26,193
218,5	-20,633
219	-18,993
219,5	-20,033
219,9	-14,553
220,4	-13,593
220,9	-11,153
221,3	-6,553
221,8	-4,993
222,3	-6,593
222,7	-15,513
223,2	-20,153
223,6	-24,553
224,1	-26,513
224,6	-29,553
225	-27,553
225,5	-29,833
226	-31,953
226,4	-27,913
226,9	-21,393
227,4	-17,273
227,8	-10,433
228,3	-9,833
228,8	-13,713
229,2	-21,313
229,7	-25,473
230,2	-35,033
230,6	-31,913
231,1	-32,833
231,5	-32,993
232	-33,793
232,5	-27,593
232,9	-29,313
233,4	-27,873
233,9	-24,833
234,3	-27,073
234,8	-26,953
235,3	-27,153
235,7	-31,513
236,2	-31,193
236,7	-27,873
237,1	-30,273
237,6	-28,513
238,1	-25,073
238,5	-26,993
239	-25,793
239,4	-19,953
239,9	-20,833
240,4	-21,833
240,8	-16,633
241,3	-24,593
241,8	-36,833
242,2	-38,873
242,7	-34,393
243,2	-33,593
243,6	-23,033
244,1	-16,073
244,6	-13,113
245	-10,433
245,5	-16,153
245,9	-19,433
246,4	-18,033
246,9	-24,313
247,3	-31,793
247,8	-29,393
248,3	-27,593
248,7	-26,113
249,2	-12,833
249,7	-9,113
250,1	-7,833
250,6	-10,113
251	-11,713
251,5	-20,233
252	-25,073
252,4	-30,593
252,9	-26,033
253,4	-35,073
253,8	-38,873
254,3	-38,193
254,8	-31,873
255,2	-35,353
255,7	-25,593
256,1	-19,193
256,6	-10,513
257,1	-17,753
257,5	-18,073
258	-20,393
258,5	-20,793
258,9	-23,753
259,4	-20,793
259,9	-23,433
260,3	-19,913
260,8	-18,593
261,2	-22,793
261,7	-21,273
262,2	-20,953
262,6	-27,793
263,1	-35,673
263,6	-33,553
264	-33,753
264,5	-29,993
264,9	-28,913
265,4	-26,313
265,9	-28,273
266,3	-27,913
266,8	-24,993
267,3	-26,393
267,7	-23,353
268,2	-22,033
268,7	-19,193
269,1	-22,193
269,6	-22,673
270	-21,713
270,5	-23,513
271	-26,033
271,4	-24,953
271,9	-20,193
272,4	-23,553
272,8	-25,513
273,3	-25,473
273,7	-25,073
274,2	-26,513
274,7	-26,393
275,1	-20,073
275,6	-21,073
276,1	-25,833
276,5	-28,793
277	-30,353
277,4	-37,913
277,9	-36,513
278,4	-33,833
278,8	-29,433
279,3	-29,033
279,8	-24,753
280,2	-23,993
280,7	-26,433
281,1	-24,353
281,6	-20,513
282,1	-17,913
282,5	-26,433
283	-28,913
283,4	-31,713
283,9	-33,313
284,4	-31,993
284,8	-27,753
285,3	-27,993
285,8	-29,873
286,2	-31,673
286,7	-32,313
287,1	-26,393
287,6	-28,273
288,1	-24,553
288,5	-23,353
289	-27,233
289,5	-33,513
289,9	-25,953
290,4	-25,713
290,8	-27,233
291,3	-24,633
291,8	-23,833
292,2	-26,793
292,7	-27,193
293,1	-29,393
293,6	-32,513
294,1	-30,993
294,5	-30,753
295	-28,753
295,5	-24,113
295,9	-21,153
296,4	-22,193
296,8	-22,513
297,3	-19,513
297,8	-21,273
298,2	-18,113
298,7	-17,233
299,1	-11,873
299,6	-15,513
300,1	-11,873
300,5	-11,833
301	-9,193
301,5	-15,073
301,9	-18,833
302,4	-19,073
302,8	-21,433
303,3	-27,113
303,8	-28,233
304,2	-25,433
304,7	-33,273
305,1	-35,593
305,6	-31,833
306,1	-29,113
306,5	-32,073
307	-25,713
307,4	-25,193
307,9	-24,433
308,4	-22,953
308,8	-25,553
309,3	-28,593
309,8	-26,873
310,2	-27,073
310,7	-33,153
311,1	-26,393
311,6	-22,433
312,1	-21,713
312,5	-17,433
313	-9,473
313,4	-11,113
313,9	-4,793
314,4	-6,833
314,8	-16,153
315,3	-20,593
315,7	-20,073
316,2	-24,913
316,7	-28,273
317,1	-23,553
317,6	-25,113
318	-23,393
318,5	-27,033
319	-21,073
319,4	-24,713
319,9	-18,193
320,3	-23,153
320,8	-29,593
321,3	-35,153
321,7	-29,153
322,2	-31,633
322,6	-25,633
323,1	-18,113
323,6	-15,473
324	-16,753
324,5	-13,913
324,9	-13,713
325,4	-9,913
325,9	-11,833
326,3	-13,193
326,8	-15,033
327,2	-19,073
327,7	-27,233
328,2	-25,913
328,6	-25,393
329,1	-25,593
329,5	-24,593
330	-18,113
330,5	-15,153
330,9	-19,713
331,4	-25,913
331,8	-25,793
332,3	-31,113
332,8	-34,433
333,2	-31,313
333,7	-26,633
334,1	-25,833
334,6	-16,673
335,1	-12,873
335,5	-10,833
336	-12,313
336,4	-13,753
336,9	-22,233
337,4	-23,593
337,8	-26,473
338,3	-24,033
338,7	-23,673
339,2	-24,633
339,7	-26,113
340,1	-27,513
340,6	-24,553
341	-23,793
341,5	-21,913
342	-23,273
342,4	-19,833
342,9	-21,833
343,3	-24,153
343,8	-24,153
344,2	-26,713
344,7	-28,753
345,2	-32,233
345,6	-28,873
346,1	-27,473
346,5	-23,553
347	-21,873
347,5	-18,913
347,9	-18,953
348,4	-17,153
348,8	-15,593
349,3	-16,513
349,8	-11,033
350,2	-13,953
350,7	-18,553
351,1	-15,033
351,6	-8,913
352	-13,753
352,5	-4,953
353	7,767
353,4	5,407
353,9	5,927
354,3	10,607
354,8	13,287
355,3	16,767
355,7	29,807
356,2	31,967
356,6	38,247
357,1	47,727
357,5	54,767
358	59,247
358,5	82,447
358,9	105,727
359,4	131,047
359,8	151,727
360,3	186,127
360,8	220,567
361,2	260,527
361,7	290,247
362,1	341,767
362,6	392,327
363	447,887
363,5	496,367
364	562,127
364,4	618,287
364,9	678,047
365,3	732,247
365,8	790,527
366,3	838,767
366,7	889,247
367,2	925,447
367,6	956,367
368,1	985,927
368,5	1010,007
369	1018,247
369,5	1024,247
369,9	1022,647
370,4	1003,127
370,8	972,927
371,3	946,527
371,7	916,607
372,2	874,407
372,7	835,327
373,1	794,087
373,6	741,527
374	687,167
374,5	645,087
374,9	598,607
375,4	556,127
375,9	520,927
376,3	479,327
376,8	431,327
377,2	391,687
377,7	358,687
378,2	324,767
378,6	296,847
379,1	278,567
379,5	256,287
380	227,807
380,4	209,607
380,9	191,967
381,4	169,447
381,8	151,127
382,3	140,567
382,7	122,967
383,2	112,087
383,6	102,007
384,1	95,727
384,6	84,487
385	81,327
385,5	73,167
385,9	61,367
386,4	57,527
386,8	53,207
387,3	47,327
387,7	39,687
388,2	44,087
388,7	39,327
389,1	31,687
389,6	25,447
390	23,007
390,5	15,047
390,9	10,367
391,4	6,287
391,9	6,287
392,3	6,447
392,8	4,767
393,2	5,727
393,7	7,647
394,1	8,407
394,6	4,927
395,1	10,527
395,5	10,767
396	8,487
396,4	2,767
396,9	-2,593
397,3	-8,833
397,8	-17,153
398,2	-14,833
398,7	-13,473
399,2	-11,273
399,6	-8,793
400,1	-6,913
400,5	-3,353
401	-7,753
401,4	-2,593
401,9	-3,753
402,4	-3,033
402,8	-13,913
403,3	-7,993
403,7	-9,353
404,2	-15,113
404,6	-24,633
405,1	-17,713
405,5	-22,113
406	-22,633
406,5	-18,753
406,9	-6,393
407,4	-7,553
407,8	-7,193
408,3	-8,753
408,7	-10,873
409,2	-9,313
409,6	-5,713
410,1	-7,873
410,6	-10,433
411	-9,113
411,5	-8,793
411,9	-7,153
412,4	0,047
412,8	3,887
413,3	3,727
413,7	1,047
414,2	6,127
414,7	3,087
415,1	8,047
415,6	14,327
416	13,887
416,5	10,047
416,9	11,127
417,4	13,607
417,8	14,407
418,3	15,887
418,8	23,407
419,2	27,367
419,7	28,687
420,1	27,647
420,6	28,327
421	21,967
421,5	24,007
421,9	23,447
422,4	27,607
422,8	32,087
423,3	34,447
423,8	39,407
424,2	38,887
424,7	46,887
425,1	53,527
425,6	56,087
426	51,087
426,5	53,647
426,9	44,847
427,4	43,847
427,9	47,247
428,3	48,647
428,8	49,367
429,2	48,087
429,7	50,727
430,1	50,807
430,6	51,367
431	56,767
431,5	71,487
431,9	64,087
432,4	68,567
432,8	77,167
433,3	82,247
433,8	84,287
434,2	96,327
434,7	103,047
435,1	107,687
435,6	107,487
436	105,447
436,5	113,407
436,9	115,607
437,4	125,887
437,8	134,207
438,3	141,567
438,8	144,807
439,2	147,247
439,7	147,047
440,1	152,127
440,6	163,927
441	170,767
441,5	181,407
441,9	192,127
442,4	197,807
442,8	203,287
443,3	212,607
443,7	219,247
444,2	233,447
444,7	248,967
445,1	261,047
445,6	279,207
446	303,047
446,5	315,127
446,9	333,367
447,4	344,927
447,8	352,927
448,3	359,527
448,7	368,847
449,2	379,047
449,6	395,047
450,1	411,087
450,6	422,367
451	439,287
451,5	452,847
451,9	465,407
452,4	481,327
452,8	499,167
453,3	512,887
453,7	527,087
454,2	545,287
454,6	562,567
455,1	581,367
455,5	605,567
456	628,607
456,4	647,007
456,9	659,927
457,3	681,007
457,8	694,287
458,3	718,207
458,7	736,807
459,2	764,167
459,6	776,247
460,1	798,287
460,5	811,207
461	841,407
461,4	863,127
461,9	896,047
462,3	915,367
462,8	944,367
463,2	961,687
463,7	978,447
464,1	998,767
464,6	1023,127
465	1040,447
465,5	1068,047
466	1092,167
466,4	1113,847
466,9	1137,807
467,3	1163,127
467,8	1173,047
468,2	1197,807
468,7	1223,087
469,1	1244,927
469,6	1269,727
470	1296,527
470,5	1319,687
470,9	1341,487
471,4	1365,927
471,8	1381,647
472,3	1406,127
472,7	1421,607
473,2	1440,647
473,6	1464,167
474,1	1488,567
474,5	1503,367
475	1528,767
475,4	1550,767
475,9	1566,367
476,4	1588,767
476,8	1614,967
477,3	1637,047
477,7	1657,047
478,2	1676,967
478,6	1693,207
479,1	1714,887
479,5	1733,327
480	1749,287
480,4	1764,607
480,9	1779,487
481,3	1800,607
481,8	1816,927
482,2	1828,687
482,7	1841,567
483,1	1863,487
483,6	1872,607
484	1890,487
484,5	1907,727
484,9	1919,927
485,4	1927,207
485,8	1935,687
486,3	1943,847
486,7	1959,167
487,2	1974,247
487,6	1988,047
488,1	2000,247
488,5	2011,447
489	2018,967
489,4	2029,567
489,9	2031,527
490,4	2033,447
490,8	2034,687
491,3	2037,567
491,7	2046,407
492,2	2049,847
492,6	2067,047
493,1	2075,607
493,5	2082,127
494	2082,767
494,4	2092,047
494,9	2089,367
495,3	2092,527
495,8	2093,927
496,2	2100,527
496,7	2098,127
497,1	2102,647
497,6	2099,767
498	2099,767
498,5	2097,607
498,9	2100,407
499,4	2092,847
499,8	2095,047
500,3	2091,167
500,7	2090,247
501,2	2089,447
501,6	2089,887
502,1	2094,847
502,5	2092,567
503	2089,567
503,4	2085,247
503,9	2088,007
504,3	2082,167
504,8	2086,807
505,2	2087,407
505,7	2082,127
506,1	2075,207
506,6	2068,087
507	2061,727
507,5	2054,527
507,9	2051,407
508,4	2049,007
508,8	2048,007
509,3	2040,607
509,7	2035,407
510,2	2036,647
510,6	2031,567
511,1	2021,727
511,5	2015,967
512	2006,247
512,4	1998,767
512,9	1990,647
513,3	1985,647
513,8	1981,607
514,2	1981,127
514,7	1970,447
515,1	1966,007
515,6	1955,087
516	1948,247
516,5	1942,087
516,9	1934,767
517,4	1917,887
517,8	1919,727
518,3	1916,087
518,7	1915,607
519,2	1908,407
519,6	1913,007
520,1	1895,967
520,5	1887,647
521	1876,167
521,4	1872,247
521,9	1860,807
522,3	1861,327
522,8	1859,207
523,2	1847,967
523,7	1850,247
524,1	1846,007
524,6	1841,407
525	1831,167
525,5	1826,447
525,9	1816,847
526,4	1814,767
526,8	1802,527
527,3	1796,847
527,7	1790,847
528,2	1786,247
528,6	1779,927
529,1	1782,847
529,5	1781,327
530	1786,127
530,4	1782,167
530,9	1773,247
531,3	1768,887
531,8	1767,927
532,2	1752,367
532,6	1748,567
533,1	1742,487
533,5	1734,527
534	1726,807
534,4	1724,407
534,9	1715,967
535,3	1724,647
535,8	1718,407
536,2	1712,527
536,7	1708,087
537,1	1703,007
537,6	1691,767
538	1689,287
538,5	1684,447
538,9	1683,607
539,4	1687,847
539,8	1690,167
540,3	1687,287
540,7	1689,407
541,2	1682,887
541,6	1670,007
542,1	1669,087
542,5	1667,647
543	1657,887
543,4	1654,007
543,9	1660,807
544,3	1656,087
544,8	1656,967
545,2	1666,687
545,7	1675,327
546,1	1671,887
546,5	1667,327
547	1665,247
547,4	1656,007
547,9	1657,087
548,3	1651,247
548,8	1653,687
549,2	1647,007
549,7	1650,767
550,1	1641,287
550,6	1646,527
551	1642,727
551,5	1650,847
551,9	1644,727
552,4	1643,767
552,8	1634,967
553,3	1631,807
553,7	1625,967
554,2	1619,087
554,6	1619,407
555,1	1616,367
555,5	1613,527
555,9	1605,567
556,4	1611,607
556,8	1612,487
557,3	1613,487
557,7	1609,167
558,2	1620,047
558,6	1618,647
559,1	1616,407
559,5	1612,767
560	1617,287
560,4	1608,767
560,9	1610,767
561,3	1604,207
561,8	1604,607
562,2	1597,287
562,7	1595,647
563,1	1589,647
563,6	1588,647
564	1592,527
564,4	1600,287
564,9	1597,167
565,3	1588,847
565,8	1584,447
566,2	1582,487
566,7	1572,207
567,1	1570,207
567,6	1572,127
568	1577,447
568,5	1572,127
568,9	1566,487
569,4	1570,807
569,8	1566,367
570,3	1563,047
570,7	1561,647
571,1	1565,447
571,6	1560,967
572	1564,407
572,5	1559,007
572,9	1559,847
573,4	1556,607
573,8	1544,847
574,3	1536,607
574,7	1534,407
575,2	1531,327
575,6	1528,527
576,1	1534,647
576,5	1531,967
576,9	1531,447
577,4	1525,367
577,8	1519,687
578,3	1519,887
578,7	1523,127
579,2	1515,247
579,6	1512,527
580,1	1511,687
580,5	1506,447
581	1497,167
581,4	1497,927
581,9	1492,167
582,3	1485,127
582,7	1475,567
583,2	1466,967
583,6	1464,287
584,1	1458,767
584,5	1456,047
585	1454,487
585,4	1452,767
585,9	1449,247
586,3	1451,967
586,8	1448,207
587,2	1442,647
587,6	1447,807
588,1	1443,647
588,5	1436,487
589	1435,447
589,4	1428,447
589,9	1422,727
590,3	1418,607
590,8	1411,967
591,2	1406,447
591,7	1407,087
592,1	1406,127
592,5	1403,247
593	1399,087
593,4	1394,407
593,9	1390,367
594,3	1377,567
594,8	1364,887
595,2	1364,687
595,7	1369,487
596,1	1369,087
596,6	1374,567
597	1382,687
597,4	1377,727
597,9	1370,447
598,3	1369,127
598,8	1360,327
599,2	1349,007
599,7	1340,967
600,1	1337,207
600,6	1333,927
601	1326,487
601,4	1328,447
601,9	1333,127
602,3	1325,367
602,8	1319,367
603,2	1321,527
603,7	1319,927
604,1	1309,007
604,6	1305,527
605	1304,247
605,4	1300,687
605,9	1295,127
606,3	1300,447
606,8	1301,687
607,2	1294,287
607,7	1290,607
608,1	1280,207
608,6	1277,687
609	1273,407
609,4	1268,647
609,9	1262,927
610,3	1259,167
610,8	1252,847
611,2	1248,407
611,7	1243,207
612,1	1232,927
612,6	1229,247
613	1222,007
613,4	1220,407
613,9	1220,167
614,3	1220,327
614,8	1212,287
615,2	1205,567
615,7	1200,767
616,1	1188,927
616,6	1181,207
617	1183,207
617,4	1170,527
617,9	1159,767
618,3	1151,807
618,8	1152,287
619,2	1148,527
619,7	1148,967
620,1	1138,967
620,5	1139,887
621	1133,527
621,4	1126,207
621,9	1126,087
622,3	1125,047
622,8	1119,847
623,2	1106,287
623,6	1098,167
624,1	1093,567
624,5	1092,607
625	1091,727
625,4	1094,407
625,9	1088,287
626,3	1085,447
626,8	1078,287
627,2	1066,927
627,6	1061,687
628,1	1061,007
628,5	1051,687
629	1047,607
629,4	1041,807
629,9	1034,367
630,3	1022,207
630,7	1018,447
631,2	1015,247
631,6	1009,207
632,1	1007,807
632,5	1008,287
633	994,887
633,4	979,287
633,8	966,807
634,3	960,647
634,7	952,687
635,2	951,367
635,6	948,287
636,1	952,047
636,5	943,167
636,9	936,487
637,4	935,807
637,8	940,407
638,3	929,887
638,7	924,367
639,2	924,127
639,6	918,007
640	911,127
640,5	910,807
640,9	904,767
641,4	895,407
641,8	890,367
642,2	881,207
642,7	879,087
643,1	875,327
643,6	876,527
644	868,407
644,5	863,967
644,9	856,727
645,3	858,687
645,8	852,127
646,2	850,247
646,7	847,727
647,1	849,967
647,6	840,447
648	834,167
648,4	833,887
648,9	822,367
649,3	810,527
649,8	812,287
650,2	815,647
650,6	810,727
651,1	812,647
651,5	811,847
652	811,927
652,4	799,407
652,9	784,887
653,3	784,327
653,7	782,167
654,2	762,727
654,6	764,327
655,1	763,367
655,5	756,807
655,9	754,607
656,4	753,367
656,8	744,607
657,3	747,367
657,7	745,167
658,2	729,327
658,6	730,047
659	722,927
659,5	709,007
659,9	703,607
660,4	706,167
660,8	701,607
661,2	701,207
661,7	704,087
662,1	699,727
662,6	688,207
663	679,927
663,4	675,647
663,9	667,887
664,3	661,527
664,8	665,087
665,2	663,927
665,6	655,567
666,1	652,927
666,5	648,607
667	639,807
667,4	633,527
667,9	635,527
668,3	632,407
668,7	623,927
669,2	624,007
669,6	622,127
670,1	620,607
670,5	617,647
670,9	617,887
671,4	608,327
671,8	600,407
672,3	595,287
672,7	588,687
673,1	583,647
673,6	585,007
674	583,087
674,5	572,047
674,9	571,647
675,3	567,567
675,8	564,887
676,2	560,407
676,7	560,687
677,1	555,367
677,5	548,967
678	546,327
678,4	553,727
678,9	547,367
679,3	543,647
679,7	547,407
680,2	545,327
680,6	530,927
681,1	530,927
681,5	528,447
681,9	521,927
682,4	512,647
682,8	509,047
683,3	506,487
683,7	500,567
684,1	500,167
684,6	499,167
685	490,407
685,5	482,927
685,9	476,927
686,3	473,887
686,8	466,447
687,2	469,447
687,7	465,687
688,1	467,967
688,5	468,047
689	472,887
689,4	476,647
689,9	472,767
690,3	471,847
690,7	457,607
691,2	454,207
691,6	444,247
692	447,567
692,5	440,567
692,9	446,087
693,4	440,607
693,8	437,767
694,2	432,647
694,7	435,527
695,1	426,127
695,6	423,247
696	419,647
696,4	414,527
696,9	405,847
697,3	408,327
697,8	403,607
698,2	404,167
698,6	398,847
699,1	390,727
699,5	382,167
699,9	382,847
700,4	378,967
700,8	374,287
701,3	375,967
701,7	381,567
702,1	372,807
702,6	375,767
703	380,727
703,5	380,607
703,9	372,367
704,3	373,007
704,8	368,607
705,2	367,807
705,6	361,367
706,1	362,887
706,5	357,647
707	349,527
707,4	345,327
707,8	345,607
708,3	341,087
708,7	340,967
709,2	338,487
709,6	329,087
710	323,967
710,5	321,687
710,9	320,207
711,3	323,167
711,8	326,247
712,2	324,727
712,7	320,687
713,1	318,727
713,5	318,767
714	317,487
714,4	315,807
714,8	317,767
715,3	309,807
715,7	305,407
716,2	300,727
716,6	301,087
717	290,007
717,5	294,847
717,9	290,007
718,3	288,247
718,8	288,407
719,2	288,167
719,7	282,047
720,1	281,367
720,5	284,327
721	280,327
721,4	280,607
721,8	284,287
722,3	277,087
722,7	264,247
723,2	262,927
723,6	256,207
724	248,727
724,5	253,087
724,9	254,647
725,3	253,967
725,8	254,887
726,2	253,247
726,7	246,327
727,1	243,647
727,5	236,887
728	237,327
728,4	228,487
728,8	226,727
729,3	228,767
729,7	231,527
730,1	227,327
730,6	235,527
731	235,007
731,5	229,567
731,9	219,247
732,3	223,087
732,8	217,687
733,2	219,327
733,6	219,247
734,1	223,727
734,5	214,447
734,9	215,927
735,4	209,967
735,8	212,887
736,3	210,967
736,7	215,767
737,1	214,527
737,6	216,447
738	210,767
738,4	208,407
738,9	205,527
739,3	200,487
739,7	196,447
740,2	194,807
740,6	192,487
741,1	194,807
741,5	194,847
741,9	192,407
742,4	192,967
742,8	193,367
743,2	186,847
743,7	188,007
744,1	189,247
744,5	186,247
745	181,527
745,4	183,447
745,8	181,727
746,3	184,127
746,7	179,247
747,2	178,367
747,6	174,367
748	168,967
748,5	158,327
748,9	164,967
749,3	168,647
749,8	166,687
750,2	169,087
750,6	167,567
751,1	166,487
751,5	160,527
751,9	163,127
752,4	164,007
752,8	166,807
753,3	159,287
753,7	163,767
754,1	158,047
754,6	157,847
755	162,927
755,4	167,327
755,9	162,767
756,3	163,047
756,7	164,367
757,2	151,327
757,6	142,887
758	141,007
758,5	138,047
758,9	131,127
759,3	138,807
759,8	138,047
760,2	133,887
760,6	130,167
761,1	126,927
761,5	122,367
761,9	124,367
762,4	129,647
762,8	131,607
763,3	128,407
763,7	124,767
764,1	119,607
764,6	120,287
765	121,927
765,4	124,847
765,9	125,487
766,3	127,927
766,7	123,087
767,2	122,287
767,6	118,367
768	116,967
768,5	116,727
768,9	115,007
769,3	115,607
769,8	114,327
770,2	118,207
770,6	119,927
771,1	113,447
771,5	106,287
771,9	105,407
772,4	105,367
772,8	101,967
773,2	105,487
773,7	107,287
774,1	108,007
774,5	101,607
775	99,607
775,4	91,967
775,8	93,887
776,3	98,367
776,7	105,367
777,1	107,887
777,6	111,367
778	111,607
778,4	110,207
778,9	100,447
779,3	98,247
779,7	101,207
780,2	94,527
780,6	89,247
781	91,687
781,5	89,327
781,9	88,767
782,3	91,767
782,8	93,087
783,2	95,927
783,6	96,487
784,1	91,167
784,5	88,727
784,9	83,247
785,4	80,327
785,8	76,167
786,2	75,967
786,7	77,447
787,1	82,807
787,5	77,887
788	78,167
788,4	78,127
788,8	77,927
789,3	74,327
789,7	74,967
790,1	79,887
790,6	81,047
791	74,767
791,4	79,287
791,9	82,487
792,3	71,527
792,7	72,407
793,2	77,767
793,6	74,807
794	79,207
794,5	85,927
794,9	80,607
795,3	74,087
795,8	70,007
796,2	62,487
796,6	61,287
797,1	62,367
797,5	58,807
797,9	56,367
798,4	58,447
798,8	64,327
799,2	66,607
799,7	72,087
800,1	66,927
800,5	64,367
801	55,567
801,4	55,047
801,8	53,847
802,2	59,327
802,7	57,527
803,1	56,607
803,5	52,887
804	47,607
804,4	43,647
804,8	46,127
805,3	48,087
805,7	44,247
806,1	48,287
806,6	56,087
807	49,247
807,4	44,967
807,9	54,447
808,3	53,447
808,7	48,287
809,2	51,407
809,6	50,847
810	42,807
810,4	44,927
810,9	41,167
811,3	37,567
811,7	38,047
812,2	37,927
812,6	34,247
813	36,047
813,5	42,647
813,9	50,247
814,3	51,887
814,8	51,447
815,2	49,727
815,6	45,647
816,1	43,487
816,5	38,527
816,9	39,607
817,3	38,687
817,8	34,087
818,2	28,447
818,6	30,007
819,1	27,727
819,5	30,847
819,9	39,607
820,4	39,887
820,8	44,327
821,2	48,127
821,7	48,527
822,1	39,847
822,5	35,287
822,9	36,527
823,4	30,327
823,8	27,367
824,2	30,287
824,7	31,407
825,1	25,167
825,5	24,127
826	21,607
826,4	20,127
826,8	19,327
827,3	20,087
827,7	18,927
828,1	21,367
828,5	16,927
829	16,287
829,4	14,647
829,8	22,847
830,3	20,887
830,7	22,487
831,1	20,487
831,6	17,767
832	14,567
832,4	18,407
832,8	19,487
833,3	22,607
833,7	27,767
834,1	24,967
834,6	18,087
835	9,567
835,4	7,327
835,8	3,847
836,3	1,367
836,7	2,367
837,1	12,727
837,6	11,047
838	14,887
838,4	10,007
838,9	12,047
839,3	8,167
839,7	7,287
840,1	-2,313
840,6	6,447
841	7,287
841,4	2,647
841,9	9,167
842,3	14,127
842,7	9,687
843,1	3,767
843,6	13,087
844	6,207
844,4	10,087
844,9	6,207
845,3	16,247
845,7	9,487
846,2	10,967
846,6	7,287
847	13,287
847,4	6,407
847,9	0,207
848,3	2,447
848,7	0,887
849,2	2,087
849,6	0,487
850	13,127
850,4	13,087
850,9	13,127
851,3	13,767
851,7	10,487
852,2	7,007
852,6	4,807
853	6,487
853,4	0,407
853,9	3,687
854,3	-2,593
854,7	0,087
855,2	0,047
855,6	1,807
856	0,487
856,4	6,287
856,9	7,767
857,3	10,247
857,7	12,007
858,2	18,007
858,6	13,647
859	12,247
859,4	6,847
859,9	8,367
860,3	4,887
860,7	9,767
861,1	2,727
861,6	7,167
862	3,847
862,4	3,247
862,9	0,607
863,3	5,487
863,7	4,167
864,1	5,127
864,6	9,087
865	5,047
865,4	6,487
865,9	3,207
866,3	-1,233
866,7	-9,553
867,1	-6,833
867,6	-8,273
868	-9,713
868,4	-8,033
868,8	-3,393
869,3	-8,393
869,7	-9,073
870,1	-7,673
870,6	-3,873
871	-4,273
871,4	26,527
871,8	22,967
872,3	22,087
872,7	22,087
873,1	20,127
873,5	-9,393
874	-7,193
874,4	-4,353
874,8	-8,953
875,3	-8,953
875,7	-3,833
876,1	-4,633
876,5	-5,073
877	-8,313
877,4	-6,153
877,8	-5,273
878,2	-5,353
878,7	-4,073
879,1	-1,593
879,5	-1,993
879,9	-6,153
880,4	-5,273
880,8	-10,913
881,2	-10,033
881,7	-14,073
882,1	-12,753
882,5	-11,113
882,9	-3,873
883,4	0,407
883,8	3,687
884,2	-2,113
884,6	-8,793
885,1	-15,873
885,5	-22,793
885,9	-19,313
886,3	-16,033
886,8	-10,833
887,2	-12,473
887,6	-16,033
888	-18,833
888,5	-18,833
888,9	-19,433
889,3	-20,233
889,8	-11,833
890,2	-12,353
890,6	-7,233
891	-5,513
891,5	-0,313
891,9	-2,073
892,3	-2,073
892,7	-5,433
893,2	-10,473
893,6	-9,913
894	-13,433
894,4	-22,953
894,9	-21,793
895,3	-21,713
895,7	-24,433
896,1	-18,393
896,6	-14,513
897	-16,553
897,4	-11,513
897,8	-8,153
898,3	-14,953
898,7	-7,553
899,1	-4,873
899,5	-6,553
900	-13,593
900,4	-11,193
900,8	-12,873
901,2	-14,393
901,7	-12,953
902,1	-7,473
902,5	-5,113
902,9	-8,713
903,4	-8,673
903,8	-16,473
904,2	-16,753
904,6	-16,153
905,1	-11,553
905,5	-15,193
905,9	-10,993
906,3	-8,793
906,8	-10,393
907,2	-13,113
907,6	-8,873
908	-9,593
908,5	-13,953
908,9	-11,913
909,3	-11,593
909,7	-17,033
910,2	-14,073
910,6	-10,993
911	-8,153
911,4	-5,313
911,9	-5,873
912,3	-8,273
912,7	-9,233
913,1	-17,553
913,6	-26,353
914	-23,233
914,4	-24,513
914,8	-24,313
915,3	-19,953
915,7	-16,513
916,1	-18,473
916,5	-14,113
916,9	-13,913
917,4	-15,313
917,8	-14,753
918,2	-12,873
918,6	-13,393
919,1	-16,833
919,5	-20,873
919,9	-18,153
920,3	-16,233
920,8	-24,313
921,2	-19,113
921,6	-16,313
922	-21,833
922,5	-22,593
922,9	-22,473
923,3	-19,633
923,7	-21,993
924,2	-20,393
924,6	-20,633
925	-5,193
925,4	-16,273
925,8	-14,913
926,3	-13,113
926,7	-7,673
927,1	-14,993
927,5	-8,033
928	-7,553
928,4	-4,553
928,8	-11,553
929,2	-10,953
929,7	-13,993
930,1	-9,553
930,5	-7,353
930,9	-7,953
931,3	-10,873
931,8	-13,473
932,2	-12,993
932,6	-20,593
933	-19,913
933,5	-20,793
933,9	-18,513
934,3	-24,713
934,7	-23,513
935,2	-22,193
935,6	-17,713
936	-21,073
936,4	-16,833
936,8	-16,113
937,3	-15,473
937,7	-17,713
938,1	-9,673
938,5	-13,033
939	-11,113
939,4	-14,233
939,8	-18,233
940,2	-29,233
940,6	-35,313
941,1	-35,353
941,5	-33,193
941,9	-29,753
942,3	-21,753
942,8	-21,233
943,2	-24,593
943,6	-25,233
944	-29,713
944,4	-37,153
944,9	-31,353
945,3	-30,833
945,7	-34,313
946,1	-30,233
946,6	-29,273
947	-26,353
947,4	-25,113
947,8	-21,353
948,2	-22,473
948,7	-15,473
949,1	-21,513
949,5	-24,993
949,9	-16,553
950,3	-23,353
950,8	-23,273
951,2	-19,793
951,6	-15,433
952	-25,753
952,5	-18,513
952,9	-19,753
953,3	-23,233
953,7	-29,193
954,1	-23,953
954,6	-28,113
955	-30,753
955,4	-26,873
955,8	-17,873
956,2	-22,273
956,7	-16,073
957,1	-13,673
957,5	-12,393
957,9	-16,753
958,3	-13,753
958,8	-16,433
959,2	-13,593
959,6	-15,673
960	-20,593
960,5	-21,993
960,9	-18,433
961,3	-22,113
961,7	-23,033
962,1	-18,433
962,6	-23,033
963	-29,713
963,4	-28,193
963,8	-27,473
964,2	-29,073
964,7	-26,713
965,1	-24,993
965,5	-29,313
965,9	-32,833
966,3	-31,153
966,8	-30,913
967,2	-26,953
967,6	-28,073
968	-22,833
968,4	-23,393
968,9	-23,153
969,3	-30,793
969,7	-24,233
970,1	-22,553
970,5	-17,713
971	-13,113
971,4	-12,473
971,8	-11,353
972,2	-15,513
972,6	-20,353
973,1	-24,353
973,5	-16,553
973,9	-24,673
974,3	-23,193
974,7	-21,873
975,2	-22,553
975,6	-25,473
976	-20,233
976,4	-25,393
976,8	-27,673
977,3	-30,753
977,7	-27,273
978,1	-24,153
978,5	-21,513
978,9	-22,193
979,4	-24,113
979,8	-28,953
980,2	-32,193
980,6	-27,793
981	-29,513
981,5	-23,953
981,9	-21,153
982,3	-22,033
982,7	-19,633
983,1	-17,873
983,6	-17,833
984	-22,753
984,4	-21,473
984,8	-22,433
985,2	-22,833
985,6	-21,193
986,1	-12,353
986,5	-14,433
986,9	-18,073
987,3	-16,873
987,7	-18,433
988,2	-20,633
988,6	-17,473
989	-19,193
989,4	-17,073
989,8	-17,473
990,3	-22,553
990,7	-19,593
991,1	-20,273
991,5	-18,193
991,9	-16,513
992,3	-19,433
992,8	-20,913
993,2	-22,633
993,6	-24,673
994	-23,833
994,4	-19,793
994,9	-23,113
995,3	-20,753
995,7	-22,353
996,1	-26,753
996,5	-29,193
996,9	-28,273
997,4	-25,233
997,8	-26,593
998,2	-23,233
998,6	-25,473
999	-30,793
999,5	-36,433
999,9	-33,513
1000,3	-37,753
1000,7	-32,433
1001,1	-26,913
1001,5	-21,473
1002	-20,993
1002,4	-17,513
1002,8	-17,553
1003,2	-17,673
1003,6	-15,753
1004	-22,953
1004,5	-19,273
1004,9	-21,793
1005,3	-22,713
1005,7	-29,393
1006,1	-20,873
1006,6	-25,353
1007	-18,473
1007,4	-22,073
1007,8	-23,713
1008,2	-29,713
1008,6	-33,873
1009,1	-37,473
1009,5	-32,953
1009,9	-28,513
1010,3	-25,953
1010,7	-19,633
1011,1	-15,793
1011,6	-17,673
1012	-15,833
1012,4	-18,313
1012,8	-25,233
1013,2	-28,673
1013,6	-28,753
1014,1	-33,753
1014,5	-31,873
1014,9	-29,353
1015,3	-32,473
1015,7	-28,793
1016,1	-23,713
1016,6	-21,673
1017	-23,713
1017,4	-21,953
1017,8	-23,033
1018,2	-25,593
1018,6	-25,313
1019,1	-16,313
1019,5	-22,633
1019,9	-30,793
1020,3	-25,833
1020,7	-27,473
1021,1	-34,393
1021,6	-25,433
1022	-22,473
1022,4	-24,833
1022,8	-25,353
1023,2	-21,393
1023,6	-23,913
1024,1	-23,633
1024,5	-28,993
1024,9	-34,433
1025,3	-42,833
1025,7	-45,673
1026,1	-48,193
1026,6	-44,753
1027	-41,193
1027,4	-38,953
1027,8	-40,873
1028,2	-39,153
1028,6	-39,033
1029	-31,593
1029,5	-29,793
1029,9	-24,553
1030,3	-20,153
1030,7	-15,273
1031,1	-22,073
1031,5	-20,753
1032	-22,793
1032,4	-26,033
1032,8	-32,753
1033,2	-29,353
1033,6	-26,233
1034	-25,113
1034,4	-23,553
1034,9	-19,913
1035,3	-17,073
1035,7	-20,393
1036,1	-19,873
1036,5	-14,793
1036,9	-14,993
1037,4	-22,673
1037,8	-22,073
1038,2	-25,993
1038,6	-33,473
1039	-38,193
1039,4	-36,073
1039,8	-33,073
1040,3	-31,073
1040,7	-32,233
1041,1	-26,673
1041,5	-27,313
1041,9	-30,513
1042,3	-29,593
1042,7	-23,553
1043,2	-26,393
1043,6	-28,633
1044	-27,953
1044,4	-32,473
1044,8	-38,393
1045,2	-37,553
1045,6	-39,353
1046,1	-42,313
1046,5	-43,393
1046,9	-44,713
1047,3	-41,753
1047,7	-40,993
1048,1	-38,873
1048,5	-31,513
1049	-30,393
1049,4	-35,673
1049,8	-31,633
1050,2	-30,393
1050,6	-33,433
1051	-35,553
1051,4	-32,953
1051,9	-36,473
1052,3	-42,953
1052,7	-47,993
1053,1	-45,753
1053,5	-48,113
1053,9	-41,433
1054,3	-38,593
1054,8	-31,633
1055,2	-24,193
1055,6	-23,113
1056	-21,313
1056,4	-17,033
1056,8	-18,153
1057,2	-19,793
1057,6	-22,033
1058,1	-28,873
1058,5	-27,433
1058,9	-24,193
1059,3	-27,313
1059,7	-21,433
1060,1	-19,073
1060,5	-23,633
1061	-21,713
1061,4	-15,553
1061,8	-17,393
1062,2	-14,513
1062,6	-9,153
1063	-14,753
1063,4	-17,473
1063,8	-24,673
1064,3	-23,993
1064,7	-28,433
1065,1	-31,953
1065,5	-33,113
1065,9	-24,673
1066,3	-27,113
1066,7	-31,633
1067,1	-24,913
1067,6	-26,353
1068	-24,433
1068,4	-25,313
1068,8	-20,073
1069,2	-25,513
1069,6	-26,793
1070	-34,553
1070,4	-38,273
1070,9	-33,993
1071,3	-23,433
1071,7	-22,073
1072,1	-16,913
1072,5	-17,753
1072,9	-17,233
1073,3	-19,833
1073,7	-25,713
1074,2	-32,593
1074,6	-24,673
1075	-29,433
1075,4	-32,593
1075,8	-27,073
1076,2	-16,913
1076,6	-19,833
1077	-20,873
1077,5	-25,873
1077,9	-25,393
1078,3	-28,313
1078,7	-31,433
1079,1	-24,113
1079,5	-20,033
1079,9	-21,233
1080,3	-24,433
1080,7	-19,713
1081,2	-18,433
1081,6	-24,673
1082	-18,673
1082,4	-17,113
1082,8	-18,833
1083,2	-27,193
1083,6	-20,593
1084	-25,833
1084,5	-28,833
1084,9	-33,713
1085,3	-26,913
1085,7	-29,033
1086,1	-23,833
1086,5	-23,953
1086,9	-15,673
1087,3	-24,633
1087,7	-21,033
1088,2	-22,593
1088,6	-16,113
1089	-21,313
1089,4	-17,073
1089,8	-15,673
1090,2	-15,833
1090,6	-22,713
1091	-20,513
1091,4	-19,713
1091,9	-25,513
1092,3	-27,553
1092,7	-26,113
1093,1	-27,593
1093,5	-26,233
1093,9	-25,953
1094,3	-29,433
1094,7	-30,313
1095,1	-29,593
1095,5	-32,353
1096	-29,193
1096,4	-27,913
1096,8	-21,673
1097,2	-23,593
1097,6	-18,513
1098	-19,873
1098,4	-16,393
1098,8	-21,953
1099,2	-21,033
1099,6	-23,993
1100,1	-22,273
1100,5	-22,993
1100,9	-18,633
1101,3	-13,233
1101,7	-16,193
1102,1	-18,673
1102,5	-15,353
1102,9	-11,793
1103,3	-15,753
1103,7	-12,033
1104,2	-7,433
1104,6	-13,153
1105	-16,113
1105,4	-15,913
1105,8	-16,993
1106,2	-16,593
1106,6	-10,033
1107	-7,633
1107,4	-3,593
1107,8	-0,683
1108,3	0,833
