Data from Subt2_00022.txt Node
Date: Fri Aug 11 15:36:38 MSK 2023
User: vat
Spectrometer: MAYP114033
Trigger mode: 0
Integration Time (sec): 5,000000E-1
Scans to average: 5
Electric dark correction enabled: true
Nonlinearity correction enabled: false
Boxcar width: 2
XAxis mode: Wavelengths
Number of Pixels in Spectrum: 2068
>>>>>Begin Spectral Data<<<<<
199,4	-0,233
199,9	0
200,4	-9,14
200,8	-19,14
201,3	-25,78
201,8	-36,54
202,2	-41,06
202,7	-41,82
203,2	-36,74
203,6	-39,22
204,1	-37,38
204,6	-41,34
205	-43,5
205,5	-51,26
206	-47,02
206,4	-46,42
206,9	-53,06
207,4	-50,74
207,8	-43,9
208,3	-47,14
208,8	-49,62
209,2	-46,06
209,7	-49,38
210,2	-55,82
210,6	-54,86
211,1	-52,94
211,5	-50,46
212	-49,14
212,5	-46,62
212,9	-49,3
213,4	-46,3
213,9	-48,02
214,3	-45,74
214,8	-51,94
215,3	-49,1
215,7	-54,94
216,2	-60,18
216,7	-61,74
217,1	-59,38
217,6	-64,18
218,1	-65,38
218,5	-60,5
219	-63,58
219,5	-63,62
219,9	-59,3
220,4	-50,82
220,9	-48,74
221,3	-43,66
221,8	-40,62
222,3	-45,78
222,7	-51,26
223,2	-50,18
223,6	-56,38
224,1	-53,9
224,6	-54,94
225	-58,74
225,5	-64,22
226	-59,42
226,4	-60,94
226,9	-53,5
227,4	-46,5
227,8	-44,54
228,3	-48,7
228,8	-45,9
229,2	-52,62
229,7	-60,78
230,2	-63,62
230,6	-61,62
231,1	-70,62
231,5	-70,1
232	-68,22
232,5	-62,74
232,9	-60,34
233,4	-54,74
233,9	-56,58
234,3	-58,74
234,8	-59,58
235,3	-59,7
235,7	-65,22
236,2	-61,58
236,7	-63,34
237,1	-63,82
237,6	-65,86
238,1	-63,78
238,5	-63,9
239	-59,86
239,4	-61,14
239,9	-57,3
240,4	-53,38
240,8	-52,58
241,3	-50,34
241,8	-52,38
242,2	-56,14
242,7	-57,9
243,2	-57,22
243,6	-63,9
244,1	-65,54
244,6	-63,38
245	-60,42
245,5	-61,58
245,9	-56,3
246,4	-52,98
246,9	-54,82
247,3	-56,66
247,8	-57,7
248,3	-56,66
248,7	-55,1
249,2	-51,74
249,7	-50,54
250,1	-52,22
250,6	-50,02
251	-47,1
251,5	-52,42
252	-57,14
252,4	-53,5
252,9	-57,38
253,4	-62,38
253,8	-59,3
254,3	-58,5
254,8	-57,02
255,2	-54,18
255,7	-52,58
256,1	-50,78
256,6	-48,46
257,1	-49,3
257,5	-52,78
258	-51,46
258,5	-49,74
258,9	-51,26
259,4	-52,86
259,9	-50,3
260,3	-50,58
260,8	-49,66
261,2	-53,06
261,7	-55,14
262,2	-55,18
262,6	-59,58
263,1	-66,22
263,6	-61,74
264	-59,7
264,5	-61,7
264,9	-60,38
265,4	-62,3
265,9	-60,82
266,3	-61,38
266,8	-56,06
267,3	-55,82
267,7	-47,98
268,2	-50,42
268,7	-46,74
269,1	-51,86
269,6	-50,66
270	-50,66
270,5	-52,26
271	-60,3
271,4	-53,1
271,9	-57,58
272,4	-61,58
272,8	-62,86
273,3	-60,42
273,7	-66,78
274,2	-65,3
274,7	-64,3
275,1	-58,42
275,6	-56,38
276,1	-54,58
276,5	-59,26
277	-59,7
277,4	-65,34
277,9	-64,42
278,4	-71,02
278,8	-66,34
279,3	-71,54
279,8	-66,74
280,2	-67,86
280,7	-63,22
281,1	-59,74
281,6	-57,82
282,1	-64,3
282,5	-73,74
283	-74,46
283,4	-75,26
283,9	-76,5
284,4	-72,06
284,8	-60,02
285,3	-58,42
285,8	-54,62
286,2	-48,18
286,7	-46,9
287,1	-44,86
287,6	-49,26
288,1	-51,54
288,5	-55,9
289	-55,74
289,5	-58,82
289,9	-55,86
290,4	-53,86
290,8	-49,98
291,3	-50,38
291,8	-54,9
292,2	-57,54
292,7	-60,66
293,1	-64,3
293,6	-64,74
294,1	-58,42
294,5	-56,1
295	-54,5
295,5	-49,14
295,9	-46,62
296,4	-55,62
296,8	-58,58
297,3	-55,58
297,8	-61,5
298,2	-57,14
298,7	-60,18
299,1	-47,58
299,6	-51,74
300,1	-46,78
300,5	-52,82
301	-34,38
301,5	-46,66
301,9	-50,34
302,4	-49,14
302,8	-50,58
303,3	-58,86
303,8	-58,82
304,2	-58,18
304,7	-66,74
305,1	-67,46
305,6	-70,98
306,1	-66,98
306,5	-66,02
307	-56,98
307,4	-55,18
307,9	-50,14
308,4	-47,34
308,8	-47,38
309,3	-53,94
309,8	-49,06
310,2	-52,78
310,7	-54,94
311,1	-54,3
311,6	-52,7
312,1	-53,14
312,5	-54,78
313	-52,3
313,4	-52,82
313,9	-47,1
314,4	-51,02
314,8	-46,74
315,3	-50,38
315,7	-46,46
316,2	-47,62
316,7	-47,66
317,1	-52,74
317,6	-57,46
318	-58,82
318,5	-66,34
319	-65,5
319,4	-68,82
319,9	-64,74
320,3	-69,22
320,8	-69,82
321,3	-73,38
321,7	-63,82
322,2	-58,7
322,6	-51,38
323,1	-47,3
323,6	-46,94
324	-48,74
324,5	-50,7
324,9	-52,94
325,4	-47,78
325,9	-44,46
326,3	-42,26
326,8	-45,14
327,2	-49,82
327,7	-57,3
328,2	-57,54
328,6	-62,54
329,1	-59,18
329,5	-55,06
330	-50,1
330,5	-47,54
330,9	-48,14
331,4	-51,82
331,8	-52,3
332,3	-51,62
332,8	-55,82
333,2	-54,58
333,7	-52,34
334,1	-51,86
334,6	-50,9
335,1	-49,1
335,5	-44,18
336	-48,42
336,4	-46,26
336,9	-52,62
337,4	-54,78
337,8	-59,3
338,3	-53,98
338,7	-55,34
339,2	-53,46
339,7	-53,18
340,1	-52,06
340,6	-49,78
341	-51,38
341,5	-49,94
342	-49,46
342,4	-47,94
342,9	-55,26
343,3	-52,82
343,8	-55,82
344,2	-56,34
344,7	-56,94
345,2	-52,34
345,6	-53,94
346,1	-48,82
346,5	-48,66
347	-50,06
347,5	-50,18
347,9	-49,7
348,4	-53,9
348,8	-51,7
349,3	-51,3
349,8	-51,5
350,2	-51,58
350,7	-55,26
351,1	-54,46
351,6	-56,58
352	-57,18
352,5	-57,34
353	-44,26
353,4	-42,1
353,9	-35,3
354,3	-34,62
354,8	-27,3
355,3	-24,58
355,7	-16,7
356,2	-14,94
356,6	-5,74
357,1	3,94
357,5	13,62
358	21,06
358,5	39,46
358,9	60,78
359,4	81,7
359,8	92,38
360,3	113,06
360,8	140,18
361,2	163,94
361,7	181,82
362,1	222,06
362,6	265,38
363	310,82
363,5	354,34
364	411,3
364,4	464,54
364,9	512,82
365,3	556,3
365,8	606,22
366,3	645,34
366,7	678,86
367,2	705,02
367,6	724,66
368,1	748,14
368,5	765,66
369	767,66
369,5	772,98
369,9	781,98
370,4	762,94
370,8	741,3
371,3	725,18
371,7	701,3
372,2	659,82
372,7	630,26
373,1	597,66
373,6	558,82
374	518,54
374,5	484,42
374,9	445,62
375,4	411,78
375,9	383,3
376,3	349,98
376,8	313,18
377,2	282,94
377,7	253,38
378,2	225,34
378,6	201,7
379,1	184,54
379,5	164,38
380	141,02
380,4	123,82
380,9	113,5
381,4	101,82
381,8	87,94
382,3	82,34
382,7	70,34
383,2	59,38
383,6	50,42
384,1	48,74
384,6	36,7
385	33,3
385,5	28,02
385,9	25,1
386,4	21,26
386,8	24,82
387,3	18,02
387,7	13,98
388,2	9,98
388,7	9,18
389,1	-1,34
389,6	-6,94
390	-8,54
390,5	-11,5
390,9	-16,06
391,4	-16,94
391,9	-18,74
392,3	-21,1
392,8	-22,7
393,2	-28,3
393,7	-25,82
394,1	-17,66
394,6	-21,1
395,1	-21,74
395,5	-17,78
396	-19,22
396,4	-27,82
396,9	-28,74
397,3	-28,54
397,8	-30,46
398,2	-27,58
398,7	-19,42
399,2	-24,26
399,6	-24,9
400,1	-28,54
400,5	-30,38
401	-38,14
401,4	-33,26
401,9	-33,98
402,4	-36,54
402,8	-37,5
403,3	-32,18
403,7	-27,78
404,2	-27,9
404,6	-24,58
405,1	-24,14
405,5	-24,94
406	-27,42
406,5	-29,62
406,9	-21,98
407,4	-23,18
407,8	-25,86
408,3	-21,42
408,7	-17,38
409,2	-11,82
409,6	-6,3
410,1	-7,14
410,6	-13,9
411	-13,14
411,5	-19,98
411,9	-20,42
412,4	-11,3
412,8	-5,02
413,3	-11,9
413,7	-10,1
414,2	-3,94
414,7	-6,26
415,1	-0,02
415,6	14,22
416	18,54
416,5	17,78
416,9	26,66
417,4	31,66
417,8	33,42
418,3	34,3
418,8	44,14
419,2	44,14
419,7	44,26
420,1	43,54
420,6	45,06
421	40,14
421,5	42,54
421,9	47,3
422,4	52,22
422,8	61,26
423,3	68,14
423,8	74,86
424,2	75,18
424,7	87,46
425,1	92,74
425,6	99,06
426	100,82
426,5	108,46
426,9	101,94
427,4	109,14
427,9	113,18
428,3	120,74
428,8	122,02
429,2	132,7
429,7	141,98
430,1	145,98
430,6	148,74
431	168,02
431,5	179,54
431,9	180,38
432,4	190,22
432,8	200,18
433,3	203,26
433,8	213,42
434,2	226,46
434,7	243,3
435,1	259,9
435,6	272,62
436	279,22
436,5	291,02
436,9	301,06
437,4	321,18
437,8	338,06
438,3	357,94
438,8	368,42
439,2	384,02
439,7	391,46
440,1	403,34
440,6	414,26
441	432,42
441,5	447,34
441,9	468,38
442,4	483,58
442,8	508,26
443,3	534,22
443,7	553,06
444,2	573,5
444,7	599,34
445,1	622,9
445,6	642,66
446	671,46
446,5	698,3
446,9	720,7
447,4	750,9
447,8	778,54
448,3	801,18
448,7	826,58
449,2	851,74
449,6	871,1
450,1	897,66
450,6	920,66
451	947,86
451,5	975,38
451,9	998,74
452,4	1027,46
452,8	1065,98
453,3	1090,38
453,7	1122,22
454,2	1163,54
454,6	1192,54
455,1	1214,9
455,5	1251,58
456	1286,26
456,4	1313,42
456,9	1342,78
457,3	1376,94
457,8	1405,5
458,3	1446,46
458,7	1480,78
459,2	1523,06
459,6	1557,3
460,1	1592,9
460,5	1617,3
461	1652,3
461,4	1677,82
461,9	1720,7
462,3	1755,82
462,8	1793,06
463,2	1829,3
463,7	1871,14
464,1	1905,98
464,6	1940,94
465	1974,58
465,5	2004,18
466	2035,02
466,4	2062,58
466,9	2098,54
467,3	2130,62
467,8	2162,06
468,2	2192,62
468,7	2220,34
469,1	2242,78
469,6	2267,1
470	2295,34
470,5	2327,22
470,9	2359,98
471,4	2394,98
471,8	2422,9
472,3	2447,46
472,7	2463,38
473,2	2489,94
473,6	2514,34
474,1	2542,22
474,5	2571,3
475	2606,54
475,4	2627,14
475,9	2653,86
476,4	2681,3
476,8	2704,66
477,3	2720,9
477,7	2744,18
478,2	2755,3
478,6	2772,78
479,1	2795,5
479,5	2821,78
480	2835,7
480,4	2856,14
480,9	2873,46
481,3	2888,18
481,8	2895,54
482,2	2911,1
482,7	2925,86
483,1	2936,98
483,6	2951,5
484	2969,3
484,5	2978,94
484,9	2983,62
485,4	2988,34
485,8	2983,26
486,3	2993,34
486,7	2999,22
487,2	3009,86
487,6	3016,46
488,1	3029,3
488,5	3028,02
489	3034,1
489,4	3038,58
489,9	3041,74
490,4	3046,74
490,8	3047,9
491,3	3050,18
491,7	3049,86
492,2	3048,06
492,6	3039,22
493,1	3041,94
493,5	3042,14
494	3036,82
494,4	3033,26
494,9	3035,66
495,3	3022,66
495,8	3015,58
496,2	3020,14
496,7	3017,94
497,1	3008,3
497,6	2994,1
498	2979,14
498,5	2968,7
498,9	2960,06
499,4	2949,22
499,8	2952,02
500,3	2943,94
500,7	2925,94
501,2	2918,66
501,6	2905,14
502,1	2894,7
502,5	2885,5
503	2878,38
503,4	2855,82
503,9	2855,1
504,3	2838,26
504,8	2834,9
505,2	2825,5
505,7	2827,02
506,1	2817,42
506,6	2810,06
507	2792,3
507,5	2777,62
507,9	2763,54
508,4	2744,82
508,8	2733,22
509,3	2722,22
509,7	2712,18
510,2	2696,9
510,6	2687,06
511,1	2675,86
511,5	2661,34
512	2643,54
512,4	2637,06
512,9	2623,86
513,3	2609,3
513,8	2605,3
514,2	2599,5
514,7	2580,94
515,1	2560,82
515,6	2543,98
516	2531,58
516,5	2509,9
516,9	2492,98
517,4	2477,74
517,8	2469,62
518,3	2450,06
518,7	2440,42
519,2	2433,66
519,6	2426,98
520,1	2407,22
520,5	2396,14
521	2386,18
521,4	2366,58
521,9	2350,34
522,3	2338,38
522,8	2322,58
523,2	2309,54
523,7	2296,94
524,1	2284,46
524,6	2278,22
525	2261,62
525,5	2243,46
525,9	2231,34
526,4	2219,3
526,8	2194,26
527,3	2180,62
527,7	2168,26
528,2	2152,94
528,6	2148,3
529,1	2147,94
529,5	2144,06
530	2128,66
530,4	2124,74
530,9	2113,54
531,3	2095,82
531,8	2090,18
532,2	2089,5
532,6	2079,9
533,1	2064,86
533,5	2058,14
534	2043,62
534,4	2033,54
534,9	2025,14
535,3	2026,62
535,8	2020,3
536,2	2002,86
536,7	1994,7
537,1	1984,9
537,6	1969,58
538	1953,18
538,5	1944,22
538,9	1933,78
539,4	1923,9
539,8	1914,46
540,3	1906,62
540,7	1914,34
541,2	1903,06
541,6	1896,26
542,1	1890,62
542,5	1889,06
543	1870,5
543,4	1870,22
543,9	1865,38
544,3	1852,98
544,8	1852,86
545,2	1852,78
545,7	1842,66
546,1	1832,26
546,5	1835,66
547	1823,22
547,4	1815,42
547,9	1808,9
548,3	1801,78
548,8	1785,7
549,2	1778,22
549,7	1770,14
550,1	1765,18
550,6	1765,54
551	1764,1
551,5	1757,82
551,9	1755,02
552,4	1749,26
552,8	1740,02
553,3	1729,1
553,7	1720,66
554,2	1709,9
554,6	1708,54
555,1	1699,7
555,5	1698,82
555,9	1700,94
556,4	1697,74
556,8	1689,22
557,3	1688,14
557,7	1681,58
558,2	1676,58
558,6	1669,14
559,1	1657,62
559,5	1647,78
560	1646,22
560,4	1640,26
560,9	1636,94
561,3	1643,1
561,8	1639,82
562,2	1632,58
562,7	1627,22
563,1	1625,86
563,6	1616,82
564	1622,58
564,4	1620,5
564,9	1615,1
565,3	1603,5
565,8	1590,86
566,2	1581,22
566,7	1572,98
567,1	1560,42
567,6	1560,5
568	1558,86
568,5	1549,42
568,9	1544,14
569,4	1548,26
569,8	1541,3
570,3	1538,42
570,7	1536,3
571,1	1528,5
571,6	1523,58
572	1523,94
572,5	1521,34
572,9	1520,94
573,4	1524,74
573,8	1519,7
574,3	1512,94
574,7	1506,06
575,2	1493,22
575,6	1488,06
576,1	1480,78
576,5	1468,78
576,9	1463,06
577,4	1462,1
577,8	1449,74
578,3	1441,62
578,7	1443,18
579,2	1440,06
579,6	1434,3
580,1	1426,82
580,5	1428,26
581	1420,18
581,4	1408,62
581,9	1399,3
582,3	1395,22
582,7	1391,02
583,2	1377,18
583,6	1378,5
584,1	1373,58
584,5	1366,7
585	1351,26
585,4	1349,42
585,9	1343,18
586,3	1337,02
586,8	1337,3
587,2	1332,9
587,6	1339,34
588,1	1331,62
588,5	1329,62
589	1321,58
589,4	1321,22
589,9	1310,9
590,3	1307,5
590,8	1301,06
591,2	1295,62
591,7	1296,46
592,1	1297,5
592,5	1293,86
593	1281,18
593,4	1270,7
593,9	1263,1
594,3	1244,74
594,8	1235,22
595,2	1233,62
595,7	1239,54
596,1	1230,74
596,6	1235,74
597	1235,9
597,4	1239,3
597,9	1235,7
598,3	1230,74
598,8	1227,1
599,2	1218,42
599,7	1209,54
600,1	1199,66
600,6	1189,06
601	1174,66
601,4	1172,46
601,9	1169,62
602,3	1160,22
602,8	1158,22
603,2	1152,5
603,7	1148,26
604,1	1141,18
604,6	1141,66
605	1144,1
605,4	1137,26
605,9	1130,66
606,3	1123,7
606,8	1118,38
607,2	1107,7
607,7	1103,9
608,1	1094,86
608,6	1098,18
609	1095,82
609,4	1088,5
609,9	1087,02
610,3	1081,94
610,8	1073,5
611,2	1062,38
611,7	1065,34
612,1	1058,74
612,6	1058,54
613	1044,78
613,4	1044,06
613,9	1029,14
614,3	1021,7
614,8	1009,78
615,2	1011,1
615,7	1007,06
616,1	1003,62
616,6	1003,86
617	1001,26
617,4	986,7
617,9	980,54
618,3	973,02
618,8	966,62
619,2	966,42
619,7	973,3
620,1	956,26
620,5	955,06
621	948,38
621,4	941,42
621,9	926,02
622,3	928,98
622,8	923,9
623,2	917,98
623,6	913,54
624,1	911,5
624,5	905,9
625	903,18
625,4	903,22
625,9	901,1
626,3	896,78
626,8	891,66
627,2	886,82
627,6	877,14
628,1	869,86
628,5	864,42
629	856,78
629,4	843,58
629,9	839,02
630,3	830,86
630,7	828,82
631,2	823,7
631,6	820,1
632,1	819,62
632,5	815,02
633	805,98
633,4	802,58
633,8	792,26
634,3	782,18
634,7	773,34
635,2	766,38
635,6	761,14
636,1	762,5
636,5	760,14
636,9	748,86
637,4	744,54
637,8	743,7
638,3	737,58
638,7	728,18
639,2	732,74
639,6	728,42
640	723,58
640,5	721,66
640,9	715,06
641,4	708,22
641,8	700,1
642,2	687,78
642,7	683,86
643,1	677,46
643,6	669,42
644	671,94
644,5	668,62
644,9	667,1
645,3	668,3
645,8	668,3
646,2	659,7
646,7	656,1
647,1	648,78
647,6	643,54
648	638,9
648,4	638,54
648,9	637,3
649,3	629,42
649,8	629,58
650,2	634,78
650,6	633,46
651,1	628,22
651,5	631,1
652	625,06
652,4	611,74
652,9	595,02
653,3	593,74
653,7	586,82
654,2	580,74
654,6	578,3
655,1	579,7
655,5	573,26
655,9	573,9
656,4	569,3
656,8	563,5
657,3	564,74
657,7	563,06
658,2	553,18
658,6	555,54
659	547,14
659,5	542,38
659,9	532,54
660,4	523,62
660,8	512,1
661,2	513,42
661,7	509,5
662,1	517,7
662,6	514,34
663	512,94
663,4	508,18
663,9	506,82
664,3	498,82
664,8	506,54
665,2	504,3
665,6	498,62
666,1	494,78
666,5	485,98
667	475,46
667,4	470,9
667,9	471,5
668,3	465,34
668,7	460,82
669,2	459,38
669,6	460,3
670,1	458,9
670,5	452,66
670,9	448,66
671,4	439,02
671,8	428,82
672,3	425,18
672,7	425,34
673,1	421,02
673,6	423,86
674	425,02
674,5	420,34
674,9	409,78
675,3	404,78
675,8	401,02
676,2	397,86
676,7	390,74
677,1	396,74
677,5	395,98
678	391,1
678,4	388,7
678,9	384,58
679,3	378,38
679,7	378,9
680,2	379,46
680,6	371,38
681,1	370,38
681,5	365,78
681,9	359,54
682,4	356,86
682,8	350,7
683,3	348,74
683,7	349,58
684,1	353,06
684,6	343,02
685	339,82
685,5	333,94
685,9	328,74
686,3	324,34
686,8	325,34
687,2	329,86
687,7	324,26
688,1	321,94
688,5	321,86
689	324,5
689,4	324,06
689,9	322,62
690,3	321,22
690,7	310,42
691,2	307,62
691,6	296,78
692	300,3
692,5	303,26
692,9	306,34
693,4	299,58
693,8	302,34
694,2	303,02
694,7	298,54
695,1	296,14
695,6	291,98
696	285,62
696,4	281,1
696,9	277,74
697,3	275,34
697,8	270,86
698,2	270,22
698,6	264,5
699,1	257,14
699,5	245,18
699,9	248,54
700,4	246,1
700,8	247,22
701,3	244,22
701,7	257,38
702,1	257,74
702,6	257,3
703	250,58
703,5	251,98
703,9	238,62
704,3	232,98
704,8	230,18
705,2	231,3
705,6	224,02
706,1	224,66
706,5	222,3
707	217,74
707,4	212,54
707,8	221,18
708,3	218,5
708,7	214,7
709,2	211,3
709,6	204,82
710	193,54
710,5	192,9
710,9	193,62
711,3	196,94
711,8	199,74
712,2	204,82
712,7	199,14
713,1	191,46
713,5	188,3
714	183,62
714,4	177,06
714,8	176,66
715,3	180,3
715,7	178,62
716,2	176,62
716,6	177,3
717	174,34
717,5	169,34
717,9	172,1
718,3	173,54
718,8	170,86
719,2	167,42
719,7	164,62
720,1	160,3
720,5	157,1
721	149,06
721,4	150,98
721,8	148,26
722,3	141,46
722,7	136,54
723,2	141,86
723,6	137,14
724	142,98
724,5	145,22
724,9	152,38
725,3	146,82
725,8	147,54
726,2	139,54
726,7	132,66
727,1	123,94
727,5	121,86
728	122,42
728,4	119,1
728,8	123,06
729,3	128,78
729,7	133,22
730,1	133,62
730,6	135,66
731	128,82
731,5	125,42
731,9	117,7
732,3	114,78
732,8	110,14
733,2	113,78
733,6	113,46
734,1	114,7
734,5	113,74
734,9	120,82
735,4	121,18
735,8	123,7
736,3	120,58
736,7	120,22
737,1	113,02
737,6	106,86
738	94,66
738,4	93,38
738,9	92,1
739,3	92,86
739,7	92,34
740,2	95,06
740,6	97,86
741,1	97,9
741,5	100,78
741,9	99,5
742,4	102,9
742,8	96,62
743,2	94,78
743,7	87,86
744,1	85,82
744,5	78,26
745	81,86
745,4	84,38
745,8	86,58
746,3	91,18
746,7	84,22
747,2	82,14
747,6	71,1
748	67,74
748,5	62,3
748,9	69,98
749,3	70,66
749,8	75,62
750,2	69,62
750,6	70,18
751,1	69,14
751,5	71,86
751,9	71,5
752,4	75,98
752,8	73,38
753,3	78,54
753,7	72,5
754,1	69,3
754,6	70,22
755	75,34
755,4	68,38
755,9	67,46
756,3	68,66
756,7	69,9
757,2	64,7
757,6	63,18
758	60,34
758,5	58,94
758,9	55,14
759,3	60,34
759,8	56,74
760,2	57,62
760,6	57,14
761,1	53,9
761,5	46,66
761,9	48,06
762,4	48,1
762,8	46,86
763,3	45,86
763,7	40,86
764,1	37,58
764,6	36,5
765	36,9
765,4	38,46
765,9	45,94
766,3	49,14
766,7	44,82
767,2	42,78
767,6	35,74
768	29,78
768,5	30,34
768,9	37,26
769,3	36,78
769,8	42,06
770,2	45,74
770,6	41,62
771,1	36,7
771,5	28,98
771,9	29,94
772,4	25,1
772,8	25,14
773,2	25,42
773,7	33,62
774,1	30,06
774,5	31,9
775	35,34
775,4	31,9
775,8	33,74
776,3	34,06
776,7	31,34
777,1	28,98
777,6	27,18
778	21,7
778,4	26,38
778,9	28,3
779,3	21,18
779,7	27,9
780,2	26,7
780,6	19,3
781	17,02
781,5	20,78
781,9	9,94
782,3	8,82
782,8	11,5
783,2	12,42
783,6	12,22
784,1	12,74
784,5	15,86
784,9	8,86
785,4	10,78
785,8	8,38
786,2	8,7
786,7	7,82
787,1	11,34
787,5	2,58
788	7,66
788,4	5,1
788,8	3,98
789,3	4,46
789,7	9,94
790,1	10,54
790,6	20,18
791	13,54
791,4	12,86
791,9	15,22
792,3	3,34
792,7	4,78
793,2	9,66
793,6	11,02
794	11,3
794,5	17,54
794,9	6,74
795,3	1,58
795,8	-0,7
796,2	-10,3
796,6	-10,42
797,1	-4,22
797,5	-5,02
797,9	-4,58
798,4	0,74
798,8	4,98
799,2	4,58
799,7	6,46
800,1	4,46
800,5	4,7
801	-5,74
801,4	-2,62
801,8	1,7
802,2	0,02
802,7	-0,9
803,1	1,42
803,5	-7,34
804	-9,5
804,4	-10,06
804,8	-8,78
805,3	-7,9
805,7	-13,26
806,1	-16,18
806,6	-13,1
807	-13,54
807,4	-18,74
807,9	-9,38
808,3	-5,06
808,7	-11,26
809,2	-13,66
809,6	-7,42
810	-13,62
810,4	-17,46
810,9	-16,58
811,3	-16,3
811,7	-21,38
812,2	-18,66
812,6	-20,46
813	-18,02
813,5	-11,82
813,9	-4,58
814,3	-5,7
814,8	-1,18
815,2	-3,66
815,6	-11,5
816,1	-10,74
816,5	-12,1
816,9	-15,5
817,3	-17,9
817,8	-17,18
818,2	-21,82
818,6	-21,58
819,1	-22,34
819,5	-21,1
819,9	-20,06
820,4	-19,7
820,8	-19,26
821,2	-21,38
821,7	-17,94
822,1	-15,14
822,5	-13,42
822,9	-12,42
823,4	-12,34
823,8	-13,3
824,2	-19,3
824,7	-23,3
825,1	-22,22
825,5	-23,54
826	-24,86
826,4	-25,7
826,8	-23,86
827,3	-29,1
827,7	-28,34
828,1	-31,22
828,5	-31,3
829	-35,66
829,4	-32,5
829,8	-33,74
830,3	-27,62
830,7	-31,3
831,1	-29,3
831,6	-34,54
832	-34,74
832,4	-36,74
832,8	-33,3
833,3	-30,86
833,7	-27,62
834,1	-31,06
834,6	-37,42
835	-40,9
835,4	-45,74
835,8	-39,46
836,3	-34,1
836,7	-26,18
837,1	-24,34
837,6	-28,1
838	-32,9
838,4	-34,9
838,9	-42,38
839,3	-42,3
839,7	-37,14
840,1	-37,02
840,6	-36,9
841	-35,98
841,4	-38,7
841,9	-35,9
842,3	-35,62
842,7	-36,26
843,1	-37,78
843,6	-32,1
844	-39,3
844,4	-41,3
844,9	-46,86
845,3	-37,5
845,7	-39,7
846,2	-34,74
846,6	-29,82
847	-24,74
847,4	-29,9
847,9	-30,86
848,3	-33,54
848,7	-39,66
849,2	-38,5
849,6	-40,62
850	-41,1
850,4	-36,46
850,9	-34,7
851,3	-33,7
851,7	-37,46
852,2	-38,14
852,6	-43,62
853	-41,42
853,4	-47,26
853,9	-44,1
854,3	-46,66
854,7	-41,86
855,2	-48,02
855,6	-46,62
856	-47,22
856,4	-44,66
856,9	-41,94
857,3	-40,86
857,7	-35,94
858,2	-29,9
858,6	-38,34
859	-42,74
859,4	-44,26
859,9	-46,62
860,3	-50,54
860,7	-36,06
861,1	-37,38
861,6	-32,38
862	-26,38
862,4	-24,06
862,9	-31,14
863,3	-25,18
863,7	-28,34
864,1	-34,78
864,6	-31,54
865	-34,94
865,4	-39,42
865,9	-38,78
866,3	-41,1
866,7	-48,1
867,1	-48,46
867,6	-49,1
868	-52,3
868,4	-50,42
868,8	-53,94
869,3	-51,78
869,7	-52,7
870,1	-47,1
870,6	-46,58
871	-36,26
871,4	-40,82
871,8	-37,86
872,3	-45,34
872,7	-41,98
873,1	-50,66
873,5	-45,26
874	-48,9
874,4	-45,26
874,8	-49,7
875,3	-49,1
875,7	-46,34
876,1	-45,66
876,5	-45,7
877	-51,94
877,4	-49,54
877,8	-49,3
878,2	-48,02
878,7	-50,06
879,1	-46,58
879,5	-45,7
879,9	-45,58
880,4	-49,86
880,8	-48,74
881,2	-47,22
881,7	-46,3
882,1	-49,06
882,5	-46,54
882,9	-41,1
883,4	-39,7
883,8	-41,5
884,2	-40,62
884,6	-43,86
885,1	-47,46
885,5	-48,54
885,9	-47,94
886,3	-49,1
886,8	-49,66
887,2	-53,54
887,6	-54,14
888	-57,34
888,5	-57,22
888,9	-57,66
889,3	-61,34
889,8	-57,62
890,2	-52,42
890,6	-49,66
891	-45,06
891,5	-35,34
891,9	-33,74
892,3	-31,5
892,7	-35,1
893,2	-35,74
893,6	-40,18
894	-46,98
894,4	-55,14
894,9	-52,7
895,3	-54,94
895,7	-55,86
896,1	-53,06
896,6	-53,1
897	-53,74
897,4	-50,06
897,8	-47,66
898,3	-52,14
898,7	-49,22
899,1	-49,46
899,5	-47,66
900	-51,18
900,4	-46,66
900,8	-51,54
901,2	-50,46
901,7	-57,46
902,1	-62,26
902,5	-60,82
902,9	-51,02
903,4	-54,94
903,8	-53,62
904,2	-45,98
904,6	-44,14
905,1	-46,34
905,5	-44,22
905,9	-39,62
906,3	-36,34
906,8	-38,1
907,2	-41,98
907,6	-38,22
908	-39,78
908,5	-44,54
908,9	-44,02
909,3	-42,18
909,7	-46,54
910,2	-44,62
910,6	-42,98
911	-41,18
911,4	-39,78
911,9	-40,66
912,3	-41,9
912,7	-40,02
913,1	-47,78
913,6	-51,38
914	-48,54
914,4	-51,1
914,8	-49,7
915,3	-41,42
915,7	-41,86
916,1	-42,5
916,5	-37,14
916,9	-43,94
917,4	-49,46
917,8	-49,06
918,2	-48,06
918,6	-52,82
919,1	-46,7
919,5	-48,1
919,9	-45,02
920,3	-49,9
920,8	-51,22
921,2	-52,34
921,6	-52,18
922	-58,22
922,5	-54,9
922,9	-59,26
923,3	-53,98
923,7	-53,18
924,2	-49,74
924,6	-47,5
925	-36,46
925,4	-45,54
925,8	-49,22
926,3	-55,98
926,7	-56,3
927,1	-61,1
927,5	-59,86
928	-51,34
928,4	-41,62
928,8	-45,06
929,2	-40,94
929,7	-38,26
930,1	-41,86
930,5	-41,14
930,9	-40,58
931,3	-45,82
931,8	-48,74
932,2	-47,7
932,6	-51,82
933	-50,06
933,5	-44,86
933,9	-46,14
934,3	-53,22
934,7	-52,22
935,2	-53,7
935,6	-58,5
936	-64,22
936,4	-61,1
936,8	-64,1
937,3	-64,5
937,7	-68,5
938,1	-60,74
938,5	-60,38
939	-60,1
939,4	-63,82
939,8	-63,78
940,2	-62,42
940,6	-64,5
941,1	-66,14
941,5	-65,1
941,9	-58,18
942,3	-60,18
942,8	-61,46
943,2	-58,26
943,6	-54,46
944	-61,1
944,4	-63,7
944,9	-62,06
945,3	-61,1
945,7	-64,38
946,1	-60,98
946,6	-60,1
947	-57,34
947,4	-59,26
947,8	-57,46
948,2	-55,5
948,7	-52,98
949,1	-50,3
949,5	-51,74
949,9	-43,02
950,3	-49,7
950,8	-49,22
951,2	-49,62
951,6	-48,86
952	-57,54
952,5	-52,34
952,9	-51,14
953,3	-56,06
953,7	-57,9
954,1	-54,54
954,6	-56,38
955	-60,1
955,4	-58,18
955,8	-48,62
956,2	-52,02
956,7	-47,34
957,1	-47,54
957,5	-43,86
957,9	-54,78
958,3	-56,5
958,8	-60,9
959,2	-58,82
959,6	-64,7
960	-65,14
960,5	-68,98
960,9	-66,3
961,3	-69,74
961,7	-70,1
962,1	-65,54
962,6	-57,58
963	-65,42
963,4	-64,5
963,8	-61,34
964,2	-66,98
964,7	-71,22
965,1	-68,38
965,5	-68,58
965,9	-73,06
966,3	-66,22
966,8	-59,66
967,2	-52,22
967,6	-51,3
968	-45,26
968,4	-42,34
968,9	-49,98
969,3	-55,38
969,7	-54,62
970,1	-57,34
970,5	-61,3
971	-56,98
971,4	-58,98
971,8	-55,14
972,2	-54,82
972,6	-53,02
973,1	-51,26
973,5	-46,34
973,9	-52,78
974,3	-52,3
974,7	-53,46
975,2	-56,62
975,6	-60,9
976	-56,98
976,4	-56,06
976,8	-59,02
977,3	-61,62
977,7	-54,9
978,1	-53,3
978,5	-51,7
978,9	-50,3
979,4	-48,3
979,8	-54,26
980,2	-56,62
980,6	-56,3
981	-52,62
981,5	-54,42
981,9	-51,1
982,3	-50,18
982,7	-46,38
983,1	-45,18
983,6	-39,9
984	-40,26
984,4	-42,78
984,8	-48,5
985,2	-55,38
985,6	-61,86
986,1	-61,54
986,5	-59,9
986,9	-58,58
987,3	-56,02
987,7	-53,46
988,2	-55,42
988,6	-53,46
989	-55,74
989,4	-60,7
989,8	-61,7
990,3	-60,34
990,7	-64,06
991,1	-63,9
991,5	-55,78
991,9	-54,82
992,3	-56,3
992,8	-54,18
993,2	-57,7
993,6	-61,9
994	-57,1
994,4	-54,5
994,9	-56,9
995,3	-56,82
995,7	-59,3
996,1	-61,22
996,5	-64,82
996,9	-61,7
997,4	-63,22
997,8	-66,42
998,2	-65,54
998,6	-65,94
999	-74,18
999,5	-70,3
999,9	-66,82
1000,3	-67,18
1000,7	-65,74
1001,1	-61,74
1001,5	-58,06
1002	-53,42
1002,4	-55,3
1002,8	-52,7
1003,2	-46,98
1003,6	-44,14
1004	-48,42
1004,5	-47,62
1004,9	-49,94
1005,3	-57,46
1005,7	-63,62
1006,1	-54,82
1006,6	-55,1
1007	-52,34
1007,4	-49,38
1007,8	-52,66
1008,2	-56,46
1008,6	-61,54
1009,1	-70,14
1009,5	-66,06
1009,9	-62,58
1010,3	-65,38
1010,7	-61,5
1011,1	-53,1
1011,6	-57,14
1012	-58,02
1012,4	-57,82
1012,8	-59,62
1013,2	-60,26
1013,6	-59,1
1014,1	-60,14
1014,5	-55,14
1014,9	-55,06
1015,3	-56,58
1015,7	-56,9
1016,1	-59,18
1016,6	-64,82
1017	-66,3
1017,4	-65,62
1017,8	-65,78
1018,2	-63,98
1018,6	-61,94
1019,1	-57,38
1019,5	-56,74
1019,9	-57,58
1020,3	-55,02
1020,7	-55,9
1021,1	-60,98
1021,6	-59,18
1022	-61,42
1022,4	-58,1
1022,8	-58,54
1023,2	-58,98
1023,6	-64,7
1024,1	-65,62
1024,5	-77,5
1024,9	-79,5
1025,3	-81,58
1025,7	-80,62
1026,1	-81,82
1026,6	-76,82
1027	-80,42
1027,4	-80,02
1027,8	-80,58
1028,2	-74,42
1028,6	-73,98
1029	-60,9
1029,5	-63,74
1029,9	-58,3
1030,3	-59,74
1030,7	-60,54
1031,1	-70,46
1031,5	-61,66
1032	-66,06
1032,4	-71,78
1032,8	-71,18
1033,2	-70,1
1033,6	-68,54
1034	-69,94
1034,4	-64,42
1034,9	-64,86
1035,3	-58,7
1035,7	-66,42
1036,1	-66,7
1036,5	-62,82
1036,9	-58,62
1037,4	-65,54
1037,8	-62,06
1038,2	-69,02
1038,6	-80,98
1039	-79,06
1039,4	-75,18
1039,8	-69,34
1040,3	-62,66
1040,7	-52,5
1041,1	-56,14
1041,5	-58,46
1041,9	-64,5
1042,3	-64,98
1042,7	-66,9
1043,2	-66,94
1043,6	-64,34
1044	-65,38
1044,4	-64,1
1044,8	-66,1
1045,2	-64,94
1045,6	-74,18
1046,1	-76,3
1046,5	-80,1
1046,9	-81,26
1047,3	-78,94
1047,7	-75,94
1048,1	-69,3
1048,5	-70,7
1049	-62,94
1049,4	-70,18
1049,8	-71,14
1050,2	-71,06
1050,6	-66,54
1051	-77,46
1051,4	-73,54
1051,9	-73,58
1052,3	-80,58
1052,7	-85,22
1053,1	-81,18
1053,5	-78,34
1053,9	-74,86
1054,3	-70,66
1054,8	-64,18
1055,2	-59,58
1055,6	-66,98
1056	-64,74
1056,4	-69,22
1056,8	-66,74
1057,2	-70,34
1057,6	-70,06
1058,1	-71,86
1058,5	-64,38
1058,9	-66,74
1059,3	-68,98
1059,7	-60,58
1060,1	-66,42
1060,5	-70,3
1061	-69,38
1061,4	-67,58
1061,8	-66,18
1062,2	-61,82
1062,6	-59,26
1063	-59,74
1063,4	-58,82
1063,8	-67,58
1064,3	-60,66
1064,7	-61,58
1065,1	-65,14
1065,5	-64,94
1065,9	-57,06
1066,3	-60,1
1066,7	-62,14
1067,1	-59,06
1067,6	-60,9
1068	-67,74
1068,4	-69,22
1068,8	-65,1
1069,2	-63,98
1069,6	-59,46
1070	-60,58
1070,4	-63,46
1070,9	-60,3
1071,3	-60,62
1071,7	-59,38
1072,1	-54,46
1072,5	-55,1
1072,9	-54,78
1073,3	-53,02
1073,7	-58,86
1074,2	-67,38
1074,6	-65,46
1075	-75,5
1075,4	-74,5
1075,8	-72,26
1076,2	-63,46
1076,6	-57,78
1077	-54,06
1077,5	-58,54
1077,9	-60,26
1078,3	-57,14
1078,7	-60,9
1079,1	-57,34
1079,5	-53,94
1079,9	-53,3
1080,3	-59,5
1080,7	-55,14
1081,2	-56,98
1081,6	-59,82
1082	-55,02
1082,4	-54,54
1082,8	-61,46
1083,2	-63,3
1083,6	-62,9
1084	-64,26
1084,5	-63,5
1084,9	-64,86
1085,3	-60,58
1085,7	-58,66
1086,1	-57,26
1086,5	-57,06
1086,9	-50,58
1087,3	-56,94
1087,7	-56,7
1088,2	-54,58
1088,6	-48,02
1089	-50,14
1089,4	-43,54
1089,8	-41,94
1090,2	-47,22
1090,6	-50,34
1091	-51,38
1091,4	-54,7
1091,9	-61,46
1092,3	-59,66
1092,7	-61,62
1093,1	-63,98
1093,5	-63,98
1093,9	-61,98
1094,3	-61,3
1094,7	-62,62
1095,1	-59,5
1095,5	-56,06
1096	-53,7
1096,4	-55,34
1096,8	-48,34
1097,2	-47,02
1097,6	-46,02
1098	-44,42
1098,4	-39,74
1098,8	-46,7
1099,2	-46,26
1099,6	-45,78
1100,1	-43,82
1100,5	-45,26
1100,9	-40,66
1101,3	-37,34
1101,7	-39,74
1102,1	-43,86
1102,5	-44,1
1102,9	-41,26
1103,3	-47,18
1103,7	-44,34
1104,2	-42,9
1104,6	-42,06
1105	-40,82
1105,4	-35,18
1105,8	-28,66
1106,2	-20,02
1106,6	-11,9
1107	-7,26
1107,4	-0,74
1107,8	-0,5
1108,3	0,9
