Data from Subt2_00029.txt Node
Date: Fri Aug 11 15:44:03 MSK 2023
User: vat
Spectrometer: MAYP114033
Trigger mode: 0
Integration Time (sec): 5,000000E-1
Scans to average: 5
Electric dark correction enabled: true
Nonlinearity correction enabled: false
Boxcar width: 2
XAxis mode: Wavelengths
Number of Pixels in Spectrum: 2068
>>>>>Begin Spectral Data<<<<<
199,4	-0,133
199,9	0,15
200,4	-11,28
200,8	-21,08
201,3	-32,36
201,8	-38,64
202,2	-45,52
202,7	-45,08
203,2	-41,08
203,6	-39,8
204,1	-45,6
204,6	-49,8
205	-53,84
205,5	-63,96
206	-60,76
206,4	-61,12
206,9	-67,24
207,4	-71,04
207,8	-65,28
208,3	-67,52
208,8	-65,36
209,2	-61,84
209,7	-60,96
210,2	-67,08
210,6	-69,64
211,1	-73,36
211,5	-70,16
212	-65,2
212,5	-61,84
212,9	-60,88
213,4	-60,68
213,9	-66,36
214,3	-65,24
214,8	-70,84
215,3	-70,8
215,7	-71,16
216,2	-74
216,7	-79,4
217,1	-74,72
217,6	-79,56
218,1	-78,52
218,5	-74,88
219	-75,08
219,5	-77,84
219,9	-79,8
220,4	-76,4
220,9	-73,12
221,3	-73,28
221,8	-70,72
222,3	-68,92
222,7	-75,12
223,2	-76,8
223,6	-75,28
224,1	-73,36
224,6	-73,24
225	-78,52
225,5	-78,12
226	-76,52
226,4	-75,92
226,9	-72,4
227,4	-67,4
227,8	-62,28
228,3	-63,36
228,8	-64,28
229,2	-68,2
229,7	-74,68
230,2	-84,44
230,6	-84
231,1	-87,8
231,5	-87,6
232	-80
232,5	-76,4
232,9	-76,88
233,4	-78,48
233,9	-78,84
234,3	-84,56
234,8	-85,92
235,3	-85
235,7	-82,84
236,2	-83,72
236,7	-82,4
237,1	-81,48
237,6	-83,6
238,1	-87,52
238,5	-87,6
239	-85,8
239,4	-82,64
239,9	-80,28
240,4	-78,4
240,8	-73,48
241,3	-75,12
241,8	-83,72
242,2	-88,92
242,7	-87,96
243,2	-89,48
243,6	-88,92
244,1	-85,04
244,6	-79,24
245	-76,12
245,5	-77,6
245,9	-75,28
246,4	-74
246,9	-81,32
247,3	-85,04
247,8	-81,52
248,3	-78,24
248,7	-78,08
249,2	-72,84
249,7	-69,48
250,1	-72,56
250,6	-77
251	-75,48
251,5	-71,92
252	-76,8
252,4	-74,52
252,9	-77,04
253,4	-78,44
253,8	-80,56
254,3	-78,72
254,8	-80,96
255,2	-76,24
255,7	-79,64
256,1	-78,56
256,6	-72,96
257,1	-79,4
257,5	-83,08
258	-78,88
258,5	-80
258,9	-84,84
259,4	-82,36
259,9	-77,4
260,3	-80,12
260,8	-78,72
261,2	-82,4
261,7	-75,96
262,2	-80,24
262,6	-85,4
263,1	-89,92
263,6	-83,8
264	-83
264,5	-78,12
264,9	-73,08
265,4	-74,72
265,9	-71,92
266,3	-76,4
266,8	-72,2
267,3	-72,92
267,7	-64,24
268,2	-70,84
268,7	-69,84
269,1	-78,6
269,6	-77,8
270	-74,96
270,5	-73,04
271	-77,72
271,4	-72,24
271,9	-72,52
272,4	-80,08
272,8	-83,96
273,3	-82,28
273,7	-81,28
274,2	-83,6
274,7	-84,56
275,1	-76,32
275,6	-73,8
276,1	-80,28
276,5	-84,64
277	-82,8
277,4	-91,44
277,9	-90,48
278,4	-90,6
278,8	-81,36
279,3	-82,16
279,8	-80
280,2	-76,88
280,7	-72,88
281,1	-73,48
281,6	-71,8
282,1	-70,4
282,5	-80,56
283	-83,84
283,4	-84,76
283,9	-84,84
284,4	-79,72
284,8	-70,04
285,3	-66,64
285,8	-63,36
286,2	-65,4
286,7	-65,96
287,1	-72,48
287,6	-74,92
288,1	-79,52
288,5	-78,12
289	-81,48
289,5	-86,48
289,9	-84,24
290,4	-80,32
290,8	-81,56
291,3	-83,04
291,8	-74,24
292,2	-76,4
292,7	-74,8
293,1	-74,8
293,6	-73,44
294,1	-71,84
294,5	-72,88
295	-72,68
295,5	-67,36
295,9	-66,28
296,4	-77,8
296,8	-75,28
297,3	-77,48
297,8	-84,76
298,2	-83,6
298,7	-84,08
299,1	-81,84
299,6	-83,08
300,1	-77,56
300,5	-75,2
301	-62,8
301,5	-69,6
301,9	-70,08
302,4	-70,44
302,8	-71,88
303,3	-71,28
303,8	-70,56
304,2	-72,28
304,7	-84,08
305,1	-84,84
305,6	-92,92
306,1	-89,52
306,5	-87,8
307	-75,24
307,4	-76,64
307,9	-69,32
308,4	-67,96
308,8	-69,76
309,3	-72,16
309,8	-73,08
310,2	-76,44
310,7	-78,56
311,1	-78,12
311,6	-74,36
312,1	-71,56
312,5	-69,96
313	-65,8
313,4	-65,68
313,9	-67,24
314,4	-69,72
314,8	-74,24
315,3	-80,08
315,7	-78,32
316,2	-81,88
316,7	-82,72
317,1	-79,2
317,6	-76,76
318	-73,68
318,5	-76,12
319	-77,68
319,4	-83,44
319,9	-81,92
320,3	-83,04
320,8	-85,2
321,3	-85,52
321,7	-74,92
322,2	-74,72
322,6	-75,4
323,1	-69,32
323,6	-64,92
324	-66,36
324,5	-65,52
324,9	-67,4
325,4	-64,88
325,9	-66,32
326,3	-69
326,8	-70,48
327,2	-68,08
327,7	-76,08
328,2	-76,32
328,6	-80,08
329,1	-83,2
329,5	-81,52
330	-74,48
330,5	-73,04
330,9	-71,16
331,4	-67,36
331,8	-71,48
332,3	-76,84
332,8	-75
333,2	-76,44
333,7	-81,28
334,1	-78,52
334,6	-70,84
335,1	-71,08
335,5	-67,56
336	-70,64
336,4	-70
336,9	-77,36
337,4	-80
337,8	-77,72
338,3	-74,44
338,7	-74,76
339,2	-70
339,7	-72,2
340,1	-78,52
340,6	-72,44
341	-75,64
341,5	-79,12
342	-79,72
342,4	-77,16
342,9	-80,2
343,3	-82,08
343,8	-84,56
344,2	-82,4
344,7	-81,92
345,2	-85,12
345,6	-79,28
346,1	-77,68
346,5	-77,96
347	-81,28
347,5	-78,56
347,9	-78,64
348,4	-73,08
348,8	-72,6
349,3	-66,72
349,8	-64,28
350,2	-63,16
350,7	-67,32
351,1	-69,68
351,6	-75,84
352	-80,36
352,5	-79,24
353	-70,36
353,4	-65,88
353,9	-57,92
354,3	-50,24
354,8	-47,32
355,3	-48,68
355,7	-38,8
356,2	-34,84
356,6	-33,72
357,1	-27,12
357,5	-15,92
358	-11,88
358,5	-0,96
358,9	19,32
359,4	37,68
359,8	44,16
360,3	65,6
360,8	90,04
361,2	116,36
361,7	132,36
362,1	171,88
362,6	209,52
363	248,8
363,5	287,56
364	339,64
364,4	381,84
364,9	423,12
365,3	465,68
365,8	506,32
366,3	539,64
366,7	572,36
367,2	600,76
367,6	613,96
368,1	629,92
368,5	638,96
369	637,36
369,5	639,08
369,9	642,64
370,4	628,76
370,8	614,84
371,3	601,36
371,7	577,12
372,2	546,08
372,7	512,64
373,1	478,36
373,6	439,08
374	398,44
374,5	363,8
374,9	335,92
375,4	306,4
375,9	285,2
376,3	259,36
376,8	226,56
377,2	196,56
377,7	172,36
378,2	149,04
378,6	131,68
379,1	123,8
379,5	110,28
380	96,92
380,4	85,44
380,9	68,12
381,4	52
381,8	37,44
382,3	27,2
382,7	18,56
383,2	16,28
383,6	7,12
384,1	4,24
384,6	-5,2
385	-18,32
385,5	-23,24
385,9	-22,48
386,4	-21,12
386,8	-21,12
387,3	-25,48
387,7	-34,68
388,2	-37,72
388,7	-43,08
389,1	-46,64
389,6	-42,56
390	-40,24
390,5	-42,6
390,9	-45,88
391,4	-47,36
391,9	-59,12
392,3	-60,52
392,8	-61,84
393,2	-63,28
393,7	-66,16
394,1	-54,72
394,6	-63,72
395,1	-62,32
395,5	-61,04
396	-62,76
396,4	-69,92
396,9	-63,48
397,3	-64,6
397,8	-65,88
398,2	-65,4
398,7	-61,2
399,2	-66,2
399,6	-70,64
400,1	-71,04
400,5	-67,92
401	-69,52
401,4	-65,08
401,9	-58,6
402,4	-63,12
402,8	-69,96
403,3	-68,48
403,7	-67
404,2	-71,12
404,6	-72,8
405,1	-65,48
405,5	-62,04
406	-63,8
406,5	-64,32
406,9	-57,32
407,4	-54,76
407,8	-58,04
408,3	-53,52
408,7	-53,92
409,2	-49,32
409,6	-50,8
410,1	-48,76
410,6	-51,68
411	-45,76
411,5	-47,96
411,9	-42,16
412,4	-37,68
412,8	-36,28
413,3	-39,04
413,7	-34,36
414,2	-32
414,7	-33,68
415,1	-24,96
415,6	-20,36
416	-18,12
416,5	-13,52
416,9	-3,6
417,4	-0,12
417,8	8,04
418,3	12,48
418,8	19,88
419,2	23,56
419,7	31,64
420,1	34,44
420,6	36,64
421	34,44
421,5	37,16
421,9	43,8
422,4	48,96
422,8	57,68
423,3	64,96
423,8	75
424,2	74,16
424,7	86,48
425,1	97,08
425,6	106,84
426	111,76
426,5	125,92
426,9	129,56
427,4	143,32
427,9	150,48
428,3	163,56
428,8	170,32
429,2	181,68
429,7	192,44
430,1	210,84
430,6	221,24
431	241
431,5	263,08
431,9	270,96
432,4	279,44
432,8	298,96
433,3	320,32
433,8	338,24
434,2	360,4
434,7	393,32
435,1	417,6
435,6	432,24
436	456,4
436,5	488,92
436,9	513
437,4	545,96
437,8	580
438,3	608,36
438,8	639
439,2	668,12
439,7	700,36
440,1	738,64
440,6	774,16
441	809,44
441,5	845,08
441,9	882,72
442,4	922,96
442,8	967,24
443,3	1010,8
443,7	1058,28
444,2	1105,4
444,7	1151,84
445,1	1197,44
445,6	1251,64
446	1308,8
446,5	1363,76
446,9	1419,08
447,4	1482,8
447,8	1536,6
448,3	1593,88
448,7	1647,72
449,2	1709,88
449,6	1771,44
450,1	1846,36
450,6	1910,96
451	1978,64
451,5	2042,24
451,9	2104,32
452,4	2166,64
452,8	2239,2
453,3	2302,64
453,7	2373,68
454,2	2451,6
454,6	2515,28
455,1	2584,64
455,5	2674,84
456	2745,4
456,4	2819,48
456,9	2897,44
457,3	2969,36
457,8	3045,48
458,3	3136,48
458,7	3213,76
459,2	3293,72
459,6	3375,44
460,1	3451
460,5	3521,28
461	3613,44
461,4	3694,04
461,9	3776
462,3	3855,12
462,8	3934,6
463,2	4006,48
463,7	4086,12
464,1	4168,52
464,6	4249,56
465	4332,52
465,5	4407,24
466	4476,08
466,4	4555,64
466,9	4624,24
467,3	4696,36
467,8	4764,44
468,2	4847,16
468,7	4915,8
469,1	4987,44
469,6	5059,44
470	5135,64
470,5	5194,72
470,9	5247,6
471,4	5321,24
471,8	5375,52
472,3	5434,16
472,7	5506,52
473,2	5572,08
473,6	5621,08
474,1	5676,4
474,5	5725,08
475	5775,16
475,4	5822,88
475,9	5878,96
476,4	5936,92
476,8	6001,24
477,3	6052,8
477,7	6102,8
478,2	6144,92
478,6	6188,6
479,1	6224,56
479,5	6260,52
480	6302,84
480,4	6323,2
480,9	6346,2
481,3	6372,28
481,8	6398,12
482,2	6418,6
482,7	6447,24
483,1	6477,16
483,6	6503,84
484	6527,32
484,5	6549,48
484,9	6572,4
485,4	6582,96
485,8	6587,64
486,3	6586,64
486,7	6591,4
487,2	6592,08
487,6	6599
488,1	6593,64
488,5	6599,72
489	6608,64
489,4	6606,72
489,9	6593,48
490,4	6595,28
490,8	6595,96
491,3	6586
491,7	6577,92
492,2	6574,44
492,6	6555,52
493,1	6533,32
493,5	6503,8
494	6478,2
494,4	6464,8
494,9	6441,28
495,3	6418
495,8	6401,04
496,2	6396,92
496,7	6371,4
497,1	6341,36
497,6	6307,84
498	6273,72
498,5	6239,08
498,9	6208,16
499,4	6193,24
499,8	6172,44
500,3	6145,72
500,7	6114,92
501,2	6076,64
501,6	6036,68
502,1	6007,88
502,5	5976,08
503	5932,96
503,4	5897,36
503,9	5875,16
504,3	5821,32
504,8	5782,28
505,2	5745,72
505,7	5701,76
506,1	5652,72
506,6	5619,68
507	5574,72
507,5	5537,36
507,9	5496,96
508,4	5449,16
508,8	5408,16
509,3	5358,2
509,7	5309,24
510,2	5268,68
510,6	5231,44
511,1	5183,2
511,5	5148,6
512	5100,72
512,4	5050,56
512,9	4994,24
513,3	4944,48
513,8	4900,96
514,2	4862,12
514,7	4812,44
515,1	4764,32
515,6	4717,24
516	4665,28
516,5	4608,64
516,9	4562,32
517,4	4518,52
517,8	4475,08
518,3	4428,96
518,7	4390,84
519,2	4343,76
519,6	4294,52
520,1	4251,84
520,5	4212,4
521	4166,12
521,4	4114,12
521,9	4065,32
522,3	4006,48
522,8	3950,96
523,2	3899,56
523,7	3869,12
524,1	3826,12
524,6	3785,6
525	3742,04
525,5	3704,72
525,9	3659,92
526,4	3617,16
526,8	3569,88
527,3	3529,28
527,7	3475,76
528,2	3425,96
528,6	3384,6
529,1	3340,48
529,5	3297,84
530	3260,12
530,4	3229,32
530,9	3183,64
531,3	3149
531,8	3117,72
532,2	3076,68
532,6	3035,88
533,1	3003,36
533,5	2968,72
534	2920,88
534,4	2887,4
534,9	2844,44
535,3	2820,88
535,8	2780,24
536,2	2741,28
536,7	2707,28
537,1	2676,08
537,6	2633,12
538	2611,12
538,5	2573,6
538,9	2542,16
539,4	2511,04
539,8	2483,04
540,3	2439,64
540,7	2416
541,2	2384,12
541,6	2352,32
542,1	2318,88
542,5	2298,36
543	2274,92
543,4	2244,16
543,9	2207,64
544,3	2180,28
544,8	2146,72
545,2	2118,48
545,7	2094,4
546,1	2075,84
546,5	2052,28
547	2027,92
547,4	1996,96
547,9	1963,48
548,3	1934,68
548,8	1903,24
549,2	1882,96
549,7	1856,92
550,1	1833,04
550,6	1815,48
551	1791,6
551,5	1764,68
551,9	1744,28
552,4	1724,72
552,8	1697,36
553,3	1677,8
553,7	1659,76
554,2	1635
554,6	1624,64
555,1	1605
555,5	1580,8
555,9	1558,96
556,4	1543,12
556,8	1516,56
557,3	1497,04
557,7	1480,48
558,2	1464,16
558,6	1445,64
559,1	1425,04
559,5	1405,92
560	1388,4
560,4	1372,72
560,9	1358,72
561,3	1347,4
561,8	1333,6
562,2	1322,72
562,7	1298,2
563,1	1282,76
563,6	1268,2
564	1259,76
564,4	1249,28
564,9	1241,4
565,3	1221,4
565,8	1201,44
566,2	1179,84
566,7	1161,08
567,1	1142,76
567,6	1134,68
568	1122,4
568,5	1108,24
568,9	1084,8
569,4	1076,36
569,8	1060,44
570,3	1051,48
570,7	1042,32
571,1	1034,32
571,6	1022,2
572	1013,08
572,5	997,64
572,9	982,8
573,4	980,44
573,8	965,44
574,3	955,08
574,7	946,84
575,2	932,4
575,6	916,24
576,1	907,52
576,5	892,6
576,9	878,84
577,4	873,04
577,8	858,68
578,3	845,88
578,7	836,8
579,2	830,84
579,6	818,6
580,1	806,84
580,5	802,6
581	791,72
581,4	773,76
581,9	767,96
582,3	758,48
582,7	748,04
583,2	733,2
583,6	728,68
584,1	711,8
584,5	703,48
585	692,68
585,4	688,52
585,9	679,12
586,3	675,04
586,8	668,6
587,2	658,4
587,6	656,84
588,1	650,48
588,5	646,2
589	642,8
589,4	637
589,9	628,04
590,3	618,28
590,8	611,12
591,2	601,16
591,7	593,2
592,1	589,2
592,5	584,36
593	575,2
593,4	567,6
593,9	562,48
594,3	550,44
594,8	540,52
595,2	539,8
595,7	541,44
596,1	542,92
596,6	544,44
597	546,08
597,4	533,4
597,9	528,08
598,3	522,36
598,8	512,8
599,2	507,76
599,7	507,2
600,1	495,92
600,6	481,8
601	474,8
601,4	468,92
601,9	464
602,3	460,24
602,8	460,24
603,2	454,28
603,7	449,48
604,1	442,4
604,6	442,52
605	446,12
605,4	442,92
605,9	440,2
606,3	438,32
606,8	436,28
607,2	428,6
607,7	425,68
608,1	419,12
608,6	424,64
609	417,72
609,4	410,28
609,9	404,96
610,3	402,8
610,8	390,72
611,2	383,48
611,7	381,2
612,1	380,36
612,6	378,36
613	373,88
613,4	376,84
613,9	373,52
614,3	371,08
614,8	364,8
615,2	361,6
615,7	357
616,1	352,44
616,6	349,48
617	346,8
617,4	339,52
617,9	333,2
618,3	321,56
618,8	311,52
619,2	311,04
619,7	314
620,1	306,92
620,5	312,08
621	312,96
621,4	305,28
621,9	299,2
622,3	297,36
622,8	295,48
623,2	285,88
623,6	288,96
624,1	293,36
624,5	295,44
625	289,48
625,4	298,72
625,9	294,2
626,3	288,4
626,8	288,92
627,2	291,12
627,6	283
628,1	282,16
628,5	280,92
629	275,64
629,4	266,6
629,9	271,64
630,3	265,12
630,7	258,96
631,2	254,6
631,6	255,72
632,1	248,24
632,5	246,56
633	250,68
633,4	246,68
633,8	241,16
634,3	244,2
634,7	237,08
635,2	227,28
635,6	229,6
636,1	232,4
636,5	226,72
636,9	226,64
637,4	225,84
637,8	227,6
638,3	219,64
638,7	216,8
639,2	224,44
639,6	222,6
640	219,2
640,5	226,16
640,9	222,44
641,4	209,36
641,8	203,12
642,2	199,04
642,7	194,04
643,1	186,2
643,6	184
644	189,8
644,5	185,44
644,9	184,6
645,3	194,04
645,8	199,32
646,2	195,16
646,7	193,32
647,1	189,88
647,6	181,76
648	179,88
648,4	188,76
648,9	194,64
649,3	187,52
649,8	193,12
650,2	201,56
650,6	194,8
651,1	187,64
651,5	198,6
652	198,32
652,4	187,44
652,9	177,44
653,3	177,32
653,7	169,68
654,2	165,48
654,6	163,36
655,1	165,44
655,5	162,24
655,9	167,84
656,4	159,56
656,8	154,04
657,3	159,08
657,7	159
658,2	151,76
658,6	159
659	164,88
659,5	155,88
659,9	155,72
660,4	153,04
660,8	150,2
661,2	147,6
661,7	149,2
662,1	152,16
662,6	144,64
663	139,64
663,4	138,4
663,9	143,4
664,3	140,72
664,8	150,24
665,2	153,12
665,6	148,96
666,1	146,04
666,5	136,64
667	132,24
667,4	127,4
667,9	135,16
668,3	129,56
668,7	136,04
669,2	138,8
669,6	142,8
670,1	136,6
670,5	138,48
670,9	134
671,4	123,68
671,8	118,68
672,3	118,92
672,7	120,72
673,1	117,52
673,6	125,96
674	129,24
674,5	128,8
674,9	120,76
675,3	119,28
675,8	119,32
676,2	112,64
676,7	112,08
677,1	120,04
677,5	122,28
678	120,44
678,4	128,44
678,9	121,76
679,3	115
679,7	117,88
680,2	113,4
680,6	108,16
681,1	107,92
681,5	109,12
681,9	100,8
682,4	101,52
682,8	95,08
683,3	94,36
683,7	87,08
684,1	97,08
684,6	93,84
685	97,36
685,5	95,88
685,9	98,72
686,3	93,24
686,8	92,04
687,2	94,32
687,7	93,2
688,1	95
688,5	96,56
689	98,44
689,4	97,04
689,9	97,96
690,3	101,2
690,7	95,28
691,2	96,76
691,6	89,32
692	95,6
692,5	96,28
692,9	101,32
693,4	101,28
693,8	109,84
694,2	106,32
694,7	105,64
695,1	99,56
695,6	98,8
696	93,56
696,4	88,96
696,9	84,56
697,3	87,8
697,8	78,32
698,2	78
698,6	72,76
699,1	69,72
699,5	66,96
699,9	72,28
700,4	68,24
700,8	72,68
701,3	67,96
701,7	72,44
702,1	76,2
702,6	80,12
703	78,12
703,5	80,68
703,9	69,4
704,3	62,64
704,8	56,28
705,2	56,68
705,6	55,92
706,1	59,12
706,5	59,6
707	65,92
707,4	65,4
707,8	68,48
708,3	70,56
708,7	68,76
709,2	62,72
709,6	62,12
710	58,24
710,5	56,8
710,9	54,96
711,3	57,88
711,8	59,44
712,2	61,36
712,7	58
713,1	55,8
713,5	57,68
714	53,72
714,4	47,36
714,8	49,92
715,3	49,12
715,7	47,84
716,2	43,16
716,6	47,4
717	45,68
717,5	47,68
717,9	43,16
718,3	46,64
718,8	48,28
719,2	43,84
719,7	40,72
720,1	41,24
720,5	44
721	37,44
721,4	43,56
721,8	48,08
722,3	45,44
722,7	39,96
723,2	42,64
723,6	33,4
724	33,28
724,5	37,72
724,9	41,8
725,3	38,04
725,8	39,04
726,2	36,08
726,7	32,12
727,1	23,88
727,5	20,4
728	22,32
728,4	16,2
728,8	15,88
729,3	25,72
729,7	34,28
730,1	37,56
730,6	44,36
731	42,88
731,5	37,52
731,9	29,36
732,3	24,92
732,8	22,2
733,2	26,68
733,6	28,08
734,1	26,4
734,5	25,2
734,9	27,36
735,4	22,24
735,8	24,88
736,3	27,48
736,7	27,88
737,1	25,08
737,6	23,84
738	15,32
738,4	11,36
738,9	15,48
739,3	11,76
739,7	11,32
740,2	8,6
740,6	14,32
741,1	12,12
741,5	18,92
741,9	19,68
742,4	27,88
742,8	24,56
743,2	20,84
743,7	20,6
744,1	16,92
744,5	10,16
745	9,32
745,4	17,12
745,8	11,84
746,3	16,6
746,7	18,2
747,2	15,88
747,6	5,84
748	3,6
748,5	-1,28
748,9	-2,24
749,3	8,12
749,8	9,24
750,2	9,56
750,6	7,84
751,1	8,08
751,5	-0,76
751,9	0,52
752,4	3,48
752,8	2,48
753,3	2,84
753,7	5
754,1	4,68
754,6	2,88
755	7,96
755,4	7,84
755,9	4,36
756,3	2,96
756,7	6,44
757,2	-0,32
757,6	-0,2
758	-0,16
758,5	1,6
758,9	0,2
759,3	7,64
759,8	1,48
760,2	3,64
760,6	-0,84
761,1	-2,8
761,5	-6,32
761,9	-10,24
762,4	-6,24
762,8	-5,44
763,3	-10,48
763,7	-14,64
764,1	-11,72
764,6	-14,88
765	-9,8
765,4	-0,92
765,9	7,36
766,3	8,8
766,7	5,4
767,2	0,16
767,6	-9,04
768	-16,84
768,5	-8,28
768,9	-3,72
769,3	-6,2
769,8	-2,36
770,2	3,96
770,6	-2,12
771,1	-7,68
771,5	-7,84
771,9	-7,16
772,4	-9
772,8	-6,04
773,2	-4,24
773,7	0,28
774,1	-1,12
774,5	-2,2
775	-6,48
775,4	-11,64
775,8	-12,6
776,3	-15,32
776,7	-19,12
777,1	-17,72
777,6	-16,8
778	-19,28
778,4	-13,12
778,9	-5,44
779,3	-11,32
779,7	-10,28
780,2	-13,48
780,6	-17,8
781	-26,12
781,5	-22,88
781,9	-25,68
782,3	-24,6
782,8	-23
783,2	-19,12
783,6	-17,96
784,1	-21,08
784,5	-20,64
784,9	-29,6
785,4	-28,28
785,8	-32,12
786,2	-33
786,7	-31,16
787,1	-23,68
787,5	-32,88
788	-27,84
788,4	-25,12
788,8	-29,84
789,3	-34,32
789,7	-30,08
790,1	-30,12
790,6	-26,64
791	-22,48
791,4	-18,8
791,9	-15,32
792,3	-26,6
792,7	-23,56
793,2	-23,28
793,6	-26,84
794	-25,36
794,5	-15,2
794,9	-23,6
795,3	-31,2
795,8	-30,64
796,2	-40,4
796,6	-43,08
797,1	-40,28
797,5	-40,36
797,9	-39,64
798,4	-37,84
798,8	-33,76
799,2	-31,64
799,7	-22,08
800,1	-24,96
800,5	-26,24
801	-30,44
801,4	-31,4
801,8	-36,12
802,2	-35,68
802,7	-33,84
803,1	-33,44
803,5	-32,04
804	-32
804,4	-33,84
804,8	-30,84
805,3	-30,72
805,7	-42,32
806,1	-41,28
806,6	-38,6
807	-50,12
807,4	-52,32
807,9	-39,44
808,3	-41
808,7	-41,12
809,2	-31,64
809,6	-35,6
810	-38,48
810,4	-40,8
810,9	-42,8
811,3	-44,36
811,7	-42,8
812,2	-45,04
812,6	-45,08
813	-43,6
813,5	-35,12
813,9	-24,08
814,3	-22,4
814,8	-19,6
815,2	-19,52
815,6	-28,24
816,1	-36,16
816,5	-38,32
816,9	-36,36
817,3	-39,08
817,8	-42,32
818,2	-43,68
818,6	-44,08
819,1	-46,56
819,5	-45,16
819,9	-38,8
820,4	-37,04
820,8	-33
821,2	-34,36
821,7	-34,56
822,1	-35,8
822,5	-39,36
822,9	-40,04
823,4	-42,16
823,8	-45
824,2	-43,4
824,7	-37,04
825,1	-37,44
825,5	-34,32
826	-32,96
826,4	-38,04
826,8	-44,68
827,3	-46,76
827,7	-46,16
828,1	-44,56
828,5	-45,84
829	-45,04
829,4	-50,8
829,8	-55,96
830,3	-57,16
830,7	-56,16
831,1	-56,92
831,6	-58,2
832	-58,2
832,4	-56,24
832,8	-52,24
833,3	-52,48
833,7	-48,6
834,1	-51,88
834,6	-58,68
835	-64,92
835,4	-64,08
835,8	-59,2
836,3	-52,16
836,7	-47,04
837,1	-48,04
837,6	-49,56
838	-53,4
838,4	-61,08
838,9	-61,92
839,3	-57,32
839,7	-56,16
840,1	-61,6
840,6	-55,68
841	-56,48
841,4	-62,68
841,9	-58,72
842,3	-49,6
842,7	-51,8
843,1	-53,36
843,6	-45,48
844	-54,84
844,4	-57,84
844,9	-60,32
845,3	-50,4
845,7	-53,8
846,2	-49
846,6	-48,72
847	-45,68
847,4	-54,2
847,9	-54,16
848,3	-55,16
848,7	-53,44
849,2	-55,12
849,6	-58,08
850	-60,44
850,4	-59,8
850,9	-65,16
851,3	-56,32
851,7	-57,04
852,2	-57,24
852,6	-58,96
853	-57,68
853,4	-69
853,9	-69,16
854,3	-67,84
854,7	-63,04
855,2	-59,4
855,6	-61,24
856	-62
856,4	-65,88
856,9	-65,36
857,3	-69,24
857,7	-61,68
858,2	-58,44
858,6	-60,6
859	-64,68
859,4	-68,24
859,9	-70,84
860,3	-67,44
860,7	-56,36
861,1	-58,04
861,6	-51,52
862	-49,64
862,4	-52,4
862,9	-60,68
863,3	-57,16
863,7	-62,8
864,1	-70,28
864,6	-68,2
865	-64
865,4	-63,52
865,9	-61
866,3	-58,8
866,7	-64,68
867,1	-68,68
867,6	-71,56
868	-73,04
868,4	-71,72
868,8	-69,12
869,3	-70,56
869,7	-68,2
870,1	-66,28
870,6	-66,84
871	-63,44
871,4	-43,92
871,8	-47,28
872,3	-52,24
872,7	-52
873,1	-60
873,5	-81,36
874	-81,32
874,4	-81,4
874,8	-82,04
875,3	-78,84
875,7	-76,96
876,1	-79,56
876,5	-76,44
877	-76,6
877,4	-74,48
877,8	-68,08
878,2	-64,12
878,7	-69,72
879,1	-66,4
879,5	-62,8
879,9	-64,68
880,4	-66,12
880,8	-59,52
881,2	-61,6
881,7	-64,92
882,1	-61,52
882,5	-66,8
882,9	-60,44
883,4	-60,12
883,8	-63,12
884,2	-73,48
884,6	-70,8
885,1	-79,2
885,5	-80,64
885,9	-77,84
886,3	-73,84
886,8	-76,8
887,2	-76
887,6	-76,52
888	-81,76
888,5	-80,56
888,9	-74,76
889,3	-81,28
889,8	-77,24
890,2	-74,64
890,6	-72,96
891	-72,2
891,5	-62,92
891,9	-60,72
892,3	-55,32
892,7	-55,4
893,2	-56,76
893,6	-52,8
894	-61,92
894,4	-68,04
894,9	-66,6
895,3	-67,36
895,7	-76,32
896,1	-66,56
896,6	-67,32
897	-65,96
897,4	-65,44
897,8	-63,72
898,3	-67,52
898,7	-67,32
899,1	-74,44
899,5	-70,52
900	-73,12
900,4	-75,16
900,8	-71,76
901,2	-69,56
901,7	-73,08
902,1	-69,28
902,5	-70,16
902,9	-69,68
903,4	-67,6
903,8	-68,92
904,2	-67,84
904,6	-66,4
905,1	-59,88
905,5	-63,32
905,9	-66,12
906,3	-64,6
906,8	-59,6
907,2	-62,44
907,6	-62,8
908	-62,12
908,5	-64,92
908,9	-68,68
909,3	-74,6
909,7	-72,24
910,2	-66,88
910,6	-60,28
911	-59,32
911,4	-55,04
911,9	-58,92
912,3	-60,16
912,7	-71,28
913,1	-74,56
913,6	-78,84
914	-74,72
914,4	-78,44
914,8	-72,48
915,3	-70,08
915,7	-67,64
916,1	-66,16
916,5	-61,36
916,9	-64,72
917,4	-67,04
917,8	-69,6
918,2	-69,36
918,6	-71,12
919,1	-70,48
919,5	-70,04
919,9	-69,44
920,3	-72,72
920,8	-74
921,2	-70,28
921,6	-72,6
922	-76
922,5	-73,92
922,9	-81,24
923,3	-81,12
923,7	-76,76
924,2	-74,92
924,6	-73,2
925	-58,88
925,4	-65,56
925,8	-69,76
926,3	-72,32
926,7	-71,92
927,1	-77,28
927,5	-72,88
928	-70,64
928,4	-65,28
928,8	-69,92
929,2	-68,56
929,7	-67,72
930,1	-63,04
930,5	-63,64
930,9	-64,24
931,3	-67,04
931,8	-77,64
932,2	-79,24
932,6	-81
933	-77,72
933,5	-75,32
933,9	-70,2
934,3	-78,52
934,7	-76,2
935,2	-76,8
935,6	-81,4
936	-83,88
936,4	-78,4
936,8	-78,68
937,3	-81,12
937,7	-84,56
938,1	-81,44
938,5	-84,88
939	-88,36
939,4	-89,72
939,8	-87,96
940,2	-88,08
940,6	-88,24
941,1	-85,56
941,5	-80,28
941,9	-77,36
942,3	-78,44
942,8	-82,64
943,2	-86,4
943,6	-95,72
944	-92,52
944,4	-89,68
944,9	-83,2
945,3	-81,24
945,7	-82,76
946,1	-86,72
946,6	-90,4
947	-87,8
947,4	-89,16
947,8	-80,16
948,2	-77,4
948,7	-67,72
949,1	-65,2
949,5	-63,48
949,9	-62,88
950,3	-67,32
950,8	-72,16
951,2	-73,72
951,6	-75,64
952	-75,24
952,5	-72,6
952,9	-70,96
953,3	-76,52
953,7	-73,4
954,1	-68,48
954,6	-67,8
955	-70,88
955,4	-68,08
955,8	-63,68
956,2	-71,72
956,7	-69,6
957,1	-68,32
957,5	-70,8
957,9	-78,48
958,3	-76,48
958,8	-78,48
959,2	-78,88
959,6	-80,68
960	-79,56
960,5	-85,04
960,9	-82,96
961,3	-84,6
961,7	-82,64
962,1	-76,4
962,6	-74,36
963	-80,12
963,4	-77,32
963,8	-75,32
964,2	-83,84
964,7	-80,48
965,1	-77,16
965,5	-80,64
965,9	-81,28
966,3	-74,4
966,8	-76,6
967,2	-74,44
967,6	-72,44
968	-65,6
968,4	-67,24
968,9	-69,48
969,3	-76,08
969,7	-80,92
970,1	-88,92
970,5	-88,12
971	-80,56
971,4	-82,08
971,8	-74,88
972,2	-71
972,6	-72,12
973,1	-76
973,5	-69,56
973,9	-77,88
974,3	-79,24
974,7	-79,96
975,2	-79,64
975,6	-82,96
976	-73,84
976,4	-75,12
976,8	-75
977,3	-80,6
977,7	-78,24
978,1	-80,36
978,5	-79,56
978,9	-78,2
979,4	-78,08
979,8	-78,32
980,2	-73,92
980,6	-73,64
981	-72,96
981,5	-67,44
981,9	-66,32
982,3	-72,44
982,7	-67,88
983,1	-66,12
983,6	-65,24
984	-65,12
984,4	-68,32
984,8	-70,32
985,2	-78,68
985,6	-82,16
986,1	-80,64
986,5	-74,2
986,9	-75,96
987,3	-72,36
987,7	-72,36
988,2	-74,84
988,6	-81
989	-86,4
989,4	-89,28
989,8	-94,92
990,3	-99,2
990,7	-94,16
991,1	-92,96
991,5	-86,72
991,9	-79,76
992,3	-76,44
992,8	-77,44
993,2	-77,88
993,6	-80,36
994	-74,84
994,4	-74,72
994,9	-72,44
995,3	-67,4
995,7	-68,92
996,1	-73,52
996,5	-74,16
996,9	-78,84
997,4	-79,76
997,8	-81,16
998,2	-78,2
998,6	-79,8
999	-82,56
999,5	-82,24
999,9	-80,16
1000,3	-82,72
1000,7	-83,08
1001,1	-78,84
1001,5	-76
1002	-76,52
1002,4	-79,6
1002,8	-76,52
1003,2	-77,12
1003,6	-79,48
1004	-78,96
1004,5	-77,32
1004,9	-74,44
1005,3	-76,64
1005,7	-75,64
1006,1	-71,72
1006,6	-70,4
1007	-68,36
1007,4	-69,8
1007,8	-69,6
1008,2	-74,24
1008,6	-76,76
1009,1	-85,76
1009,5	-80,72
1009,9	-88,36
1010,3	-86,84
1010,7	-87,28
1011,1	-79,36
1011,6	-81,44
1012	-76,4
1012,4	-77,16
1012,8	-77,92
1013,2	-77,24
1013,6	-77,52
1014,1	-79,76
1014,5	-80,08
1014,9	-72,68
1015,3	-72,84
1015,7	-67,84
1016,1	-67
1016,6	-67,4
1017	-75,4
1017,4	-82,4
1017,8	-89,16
1018,2	-95,36
1018,6	-90,24
1019,1	-87,12
1019,5	-85,72
1019,9	-84,28
1020,3	-77,72
1020,7	-82,48
1021,1	-84,4
1021,6	-80,28
1022	-83,28
1022,4	-82,24
1022,8	-81,92
1023,2	-88,44
1023,6	-92,32
1024,1	-88,4
1024,5	-93,52
1024,9	-95,88
1025,3	-92,08
1025,7	-91,96
1026,1	-95,44
1026,6	-92,6
1027	-93,96
1027,4	-97,2
1027,8	-99,44
1028,2	-98,56
1028,6	-99,88
1029	-91,76
1029,5	-92,04
1029,9	-88,96
1030,3	-90,76
1030,7	-90,48
1031,1	-99,12
1031,5	-92,8
1032	-99,76
1032,4	-105,08
1032,8	-103,52
1033,2	-100,88
1033,6	-95,52
1034	-88,32
1034,4	-80
1034,9	-80,4
1035,3	-78,64
1035,7	-88,04
1036,1	-89,16
1036,5	-85,28
1036,9	-84,96
1037,4	-91,32
1037,8	-88,72
1038,2	-92,52
1038,6	-98,88
1039	-98,2
1039,4	-91,44
1039,8	-93,24
1040,3	-97
1040,7	-93,68
1041,1	-102,96
1041,5	-104,76
1041,9	-103,96
1042,3	-97,88
1042,7	-97,28
1043,2	-86,8
1043,6	-88,92
1044	-87,96
1044,4	-88,44
1044,8	-91,44
1045,2	-97,12
1045,6	-99,2
1046,1	-100,56
1046,5	-105,76
1046,9	-104,88
1047,3	-99,8
1047,7	-102,4
1048,1	-97,92
1048,5	-92,12
1049	-89,16
1049,4	-90,64
1049,8	-86,72
1050,2	-87,64
1050,6	-88,4
1051	-98,92
1051,4	-97
1051,9	-96,56
1052,3	-101,76
1052,7	-100,76
1053,1	-98,68
1053,5	-98,6
1053,9	-92,12
1054,3	-91,8
1054,8	-91,32
1055,2	-81,72
1055,6	-84,12
1056	-87,4
1056,4	-81,4
1056,8	-85,44
1057,2	-94,44
1057,6	-102,32
1058,1	-105,44
1058,5	-106,92
1058,9	-105,32
1059,3	-100,84
1059,7	-94,2
1060,1	-96,36
1060,5	-96,04
1061	-89,92
1061,4	-87,48
1061,8	-83,28
1062,2	-78,24
1062,6	-76,56
1063	-82,32
1063,4	-83,96
1063,8	-87,92
1064,3	-82,96
1064,7	-82,96
1065,1	-80,6
1065,5	-81,92
1065,9	-80,72
1066,3	-85,6
1066,7	-92,84
1067,1	-88,8
1067,6	-89,28
1068	-93,88
1068,4	-95,2
1068,8	-87,24
1069,2	-91,28
1069,6	-84,08
1070	-77,32
1070,4	-78,12
1070,9	-79,88
1071,3	-75,72
1071,7	-78,08
1072,1	-76,92
1072,5	-81,12
1072,9	-81,92
1073,3	-81,36
1073,7	-81,96
1074,2	-92,52
1074,6	-87,6
1075	-86,8
1075,4	-91,44
1075,8	-93,16
1076,2	-83
1076,6	-78,76
1077	-75,56
1077,5	-79,36
1077,9	-78,12
1078,3	-75,6
1078,7	-78,72
1079,1	-77,56
1079,5	-74
1079,9	-77,16
1080,3	-80,2
1080,7	-82,08
1081,2	-84,76
1081,6	-88,04
1082	-83,84
1082,4	-85,72
1082,8	-83,08
1083,2	-84,48
1083,6	-77,12
1084	-75,68
1084,5	-78,28
1084,9	-81,84
1085,3	-78,48
1085,7	-81,2
1086,1	-79,8
1086,5	-73,08
1086,9	-64,04
1087,3	-69,6
1087,7	-61,84
1088,2	-61,8
1088,6	-60,44
1089	-63,2
1089,4	-57,68
1089,8	-58,72
1090,2	-59,48
1090,6	-64,52
1091	-69,36
1091,4	-76,32
1091,9	-81,88
1092,3	-82,84
1092,7	-78,84
1093,1	-81,08
1093,5	-75,64
1093,9	-78,6
1094,3	-74,84
1094,7	-74,88
1095,1	-68,88
1095,5	-76,04
1096	-69,12
1096,4	-76,16
1096,8	-74
1097,2	-71,2
1097,6	-60,2
1098	-65,56
1098,4	-59,28
1098,8	-67,16
1099,2	-70,44
1099,6	-69,24
1100,1	-63,76
1100,5	-68,2
1100,9	-60,6
1101,3	-55,48
1101,7	-57,44
1102,1	-57,52
1102,5	-51,48
1102,9	-51,52
1103,3	-57,8
1103,7	-53,88
1104,2	-54,72
1104,6	-59,88
1105	-60,2
1105,4	-52
1105,8	-50,72
1106,2	-39,96
1106,6	-25,36
1107	-13,92
1107,4	-6,24
1107,8	-0,55
1108,3	0,733
