Data from Subt2_00058.txt Node
Date: Fri Aug 11 16:18:22 MSK 2023
User: vat
Spectrometer: MAYP114033
Trigger mode: 0
Integration Time (sec): 5,000000E-1
Scans to average: 5
Electric dark correction enabled: true
Nonlinearity correction enabled: false
Boxcar width: 2
XAxis mode: Wavelengths
Number of Pixels in Spectrum: 2068
>>>>>Begin Spectral Data<<<<<
199,4	-0,233
199,9	-0,317
200,4	-7,487
200,8	-8,887
201,3	-14,847
201,8	-19,607
202,2	-18,367
202,7	-16,647
203,2	-20,247
203,6	-18,807
204,1	-17,127
204,6	-22,927
205	-21,607
205,5	-23,447
206	-19,527
206,4	-24,327
206,9	-24,447
207,4	-26,367
207,8	-22,247
208,3	-25,767
208,8	-24,647
209,2	-26,407
209,7	-25,487
210,2	-26,887
210,6	-26,287
211,1	-27,807
211,5	-23,727
212	-23,447
212,5	-23,647
212,9	-25,807
213,4	-23,207
213,9	-24,127
214,3	-25,327
214,8	-30,527
215,3	-30,487
215,7	-33,727
216,2	-32,807
216,7	-40,527
217,1	-38,647
217,6	-41,967
218,1	-43,687
218,5	-50,687
219	-39,687
219,5	-35,287
219,9	-28,007
220,4	-25,447
220,9	-20,647
221,3	-22,647
221,8	-25,127
222,3	-27,767
222,7	-26,567
223,2	-30,407
223,6	-31,887
224,1	-34,687
224,6	-39,607
225	-44,647
225,5	-39,607
226	-32,967
226,4	-28,927
226,9	-28,127
227,4	-21,087
227,8	-25,447
228,3	-38,607
228,8	-46,847
229,2	-44,407
229,7	-52,127
230,2	-48,407
230,6	-44,007
231,1	-37,447
231,5	-40,767
232	-38,247
232,5	-39,247
232,9	-38,407
233,4	-38,367
233,9	-40,607
234,3	-34,247
234,8	-28,887
235,3	-28,487
235,7	-24,807
236,2	-17,687
236,7	-24,567
237,1	-32,367
237,6	-33,047
238,1	-38,207
238,5	-41,287
239	-35,007
239,4	-34,967
239,9	-25,967
240,4	-21,447
240,8	-17,887
241,3	-19,607
241,8	-17,207
242,2	-23,807
242,7	-22,927
243,2	-23,327
243,6	-19,647
244,1	-25,167
244,6	-29,727
245	-31,007
245,5	-35,367
245,9	-38,407
246,4	-30,767
246,9	-27,087
247,3	-34,087
247,8	-30,967
248,3	-35,047
248,7	-40,367
249,2	-44,807
249,7	-40,807
250,1	-43,127
250,6	-41,207
251	-38,847
251,5	-39,047
252	-44,887
252,4	-46,207
252,9	-40,167
253,4	-42,127
253,8	-39,127
254,3	-31,487
254,8	-29,007
255,2	-28,447
255,7	-23,167
256,1	-21,487
256,6	-23,287
257,1	-28,247
257,5	-33,247
258	-36,727
258,5	-38,247
258,9	-38,527
259,4	-31,167
259,9	-38,767
260,3	-42,487
260,8	-39,047
261,2	-37,207
261,7	-37,087
262,2	-33,247
262,6	-29,887
263,1	-30,167
263,6	-30,127
264	-31,207
264,5	-28,047
264,9	-27,727
265,4	-31,087
265,9	-30,847
266,3	-28,767
266,8	-25,247
267,3	-21,887
267,7	-21,047
268,2	-22,967
268,7	-22,047
269,1	-25,167
269,6	-30,287
270	-29,407
270,5	-32,807
271	-35,727
271,4	-36,607
271,9	-31,327
272,4	-30,447
272,8	-32,287
273,3	-35,367
273,7	-34,727
274,2	-32,967
274,7	-30,007
275,1	-27,007
275,6	-26,807
276,1	-29,167
276,5	-33,207
277	-33,687
277,4	-28,487
277,9	-25,927
278,4	-24,167
278,8	-22,487
279,3	-24,927
279,8	-30,527
280,2	-30,527
280,7	-29,127
281,1	-30,887
281,6	-30,727
282,1	-22,087
282,5	-24,647
283	-25,047
283,4	-28,007
283,9	-28,567
284,4	-35,807
284,8	-36,967
285,3	-33,567
285,8	-29,127
286,2	-27,407
286,7	-24,527
287,1	-26,007
287,6	-29,807
288,1	-30,967
288,5	-28,927
289	-28,487
289,5	-25,207
289,9	-24,287
290,4	-22,487
290,8	-25,647
291,3	-31,647
291,8	-29,207
292,2	-27,727
292,7	-31,287
293,1	-34,727
293,6	-29,367
294,1	-28,007
294,5	-37,047
295	-28,967
295,5	-22,687
295,9	-26,207
296,4	-26,407
296,8	-16,607
297,3	-24,447
297,8	-30,687
298,2	-30,927
298,7	-31,447
299,1	-37,527
299,6	-33,487
300,1	-31,847
300,5	-25,167
301	-24,927
301,5	-23,247
301,9	-28,807
302,4	-34,287
302,8	-41,327
303,3	-43,287
303,8	-48,567
304,2	-48,807
304,7	-40,207
305,1	-33,487
305,6	-31,927
306,1	-28,327
306,5	-27,807
307	-31,447
307,4	-33,167
307,9	-33,567
308,4	-30,567
308,8	-30,287
309,3	-24,927
309,8	-25,647
310,2	-25,687
310,7	-25,807
311,1	-32,847
311,6	-37,887
312,1	-40,687
312,5	-44,407
313	-45,167
313,4	-42,887
313,9	-40,927
314,4	-37,887
314,8	-34,367
315,3	-31,167
315,7	-28,127
316,2	-32,007
316,7	-34,487
317,1	-35,967
317,6	-39,287
318	-32,727
318,5	-33,647
319	-38,487
319,4	-43,207
319,9	-40,447
320,3	-42,527
320,8	-32,247
321,3	-27,247
321,7	-20,487
322,2	-21,927
322,6	-17,727
323,1	-30,167
323,6	-30,487
324	-27,927
324,5	-31,327
324,9	-36,567
325,4	-25,527
325,9	-24,327
326,3	-23,727
326,8	-22,647
327,2	-21,687
327,7	-27,127
328,2	-26,407
328,6	-27,567
329,1	-26,527
329,5	-25,007
330	-23,807
330,5	-27,487
330,9	-28,847
331,4	-26,287
331,8	-32,487
332,3	-34,007
332,8	-32,327
333,2	-38,887
333,7	-39,167
334,1	-35,967
334,6	-36,487
335,1	-35,167
335,5	-32,367
336	-31,567
336,4	-28,047
336,9	-27,967
337,4	-31,247
337,8	-27,367
338,3	-34,287
338,7	-38,167
339,2	-38,127
339,7	-31,367
340,1	-35,447
340,6	-30,927
341	-31,607
341,5	-29,567
342	-31,687
342,4	-30,327
342,9	-29,687
343,3	-28,487
343,8	-29,527
344,2	-26,727
344,7	-20,527
345,2	-24,967
345,6	-30,767
346,1	-29,167
346,5	-29,207
347	-38,807
347,5	-37,487
347,9	-31,967
348,4	-29,487
348,8	-30,607
349,3	-22,727
349,8	-20,927
350,2	-18,247
350,7	-20,527
351,1	-24,647
351,6	-27,807
352	-27,167
352,5	-23,527
353	-23,087
353,4	-18,807
353,9	-8,927
354,3	-1,487
354,8	1,553
355,3	13,033
355,7	20,593
356,2	19,913
356,6	24,313
357,1	32,273
357,5	41,553
358	59,033
358,5	80,633
358,9	105,073
359,4	128,553
359,8	145,913
360,3	171,473
360,8	196,793
361,2	227,993
361,7	257,753
362,1	302,793
362,6	342,913
363	392,913
363,5	441,993
364	494,873
364,4	550,033
364,9	605,553
365,3	662,313
365,8	714,713
366,3	768,713
366,7	812,473
367,2	854,073
367,6	883,833
368,1	917,593
368,5	930,553
369	941,273
369,5	941,513
369,9	938,033
370,4	913,313
370,8	902,553
371,3	879,113
371,7	845,953
372,2	812,313
372,7	771,513
373,1	724,233
373,6	676,753
374	638,233
374,5	590,713
374,9	552,713
375,4	513,473
375,9	473,713
376,3	431,273
376,8	400,193
377,2	371,233
377,7	341,033
378,2	311,833
378,6	282,313
379,1	250,473
379,5	219,313
380	191,873
380,4	171,953
380,9	156,513
381,4	142,113
381,8	134,393
382,3	128,393
382,7	117,033
383,2	107,553
383,6	99,473
384,1	84,633
384,6	72,593
385	62,433
385,5	63,153
385,9	52,913
386,4	46,753
386,8	39,673
387,3	38,753
387,7	30,433
388,2	28,673
388,7	31,313
389,1	27,873
389,6	24,913
390	14,873
390,5	11,673
390,9	7,073
391,4	3,633
391,9	-1,647
392,3	-2,847
392,8	-2,327
393,2	-6,047
393,7	-4,527
394,1	-3,047
394,6	-0,447
395,1	-2,487
395,5	-0,887
396	-0,847
396,4	-6,687
396,9	-7,767
397,3	-10,327
397,8	-12,407
398,2	-13,687
398,7	-11,687
399,2	-13,127
399,6	-11,447
400,1	-11,327
400,5	-11,367
401	-8,087
401,4	-9,887
401,9	-11,967
402,4	-17,967
402,8	-14,647
403,3	-22,087
403,7	-21,527
404,2	-17,567
404,6	-11,167
405,1	-12,527
405,5	-5,047
406	-8,807
406,5	-7,567
406,9	-7,287
407,4	-6,487
407,8	-5,207
408,3	4,793
408,7	1,593
409,2	2,513
409,6	-0,007
410,1	6,193
410,6	11,273
411	14,873
411,5	18,033
411,9	29,353
412,4	32,393
412,8	29,833
413,3	36,313
413,7	48,713
414,2	49,033
414,7	53,633
415,1	60,873
415,6	60,233
416	59,833
416,5	65,313
416,9	71,353
417,4	74,473
417,8	83,193
418,3	89,313
418,8	94,913
419,2	101,953
419,7	118,753
420,1	125,113
420,6	129,433
421	137,033
421,5	137,633
421,9	145,473
422,4	157,593
422,8	165,633
423,3	174,433
423,8	186,553
424,2	194,753
424,7	202,153
425,1	218,313
425,6	229,393
426	241,313
426,5	251,513
426,9	267,833
427,4	277,593
427,9	296,313
428,3	313,673
428,8	327,273
429,2	344,913
429,7	362,273
430,1	377,473
430,6	390,313
431	407,673
431,5	425,633
431,9	443,313
432,4	467,833
432,8	499,033
433,3	527,673
433,8	551,993
434,2	580,313
434,7	603,553
435,1	629,913
435,6	658,913
436	693,193
436,5	723,393
436,9	760,113
437,4	795,273
437,8	831,873
438,3	866,433
438,8	910,953
439,2	952,513
439,7	993,953
440,1	1032,473
440,6	1074,393
441	1121,953
441,5	1165,753
441,9	1213,233
442,4	1260,193
442,8	1314,753
443,3	1359,833
443,7	1410,633
444,2	1461,553
444,7	1522,793
445,1	1580,873
445,6	1634,953
446	1694,953
446,5	1759,953
446,9	1823,473
447,4	1885,793
447,8	1955,153
448,3	2018,473
448,7	2076,033
449,2	2138,953
449,6	2207,913
450,1	2279,993
450,6	2353,353
451	2421,993
451,5	2496,833
451,9	2564,113
452,4	2637,233
452,8	2716,033
453,3	2805,913
453,7	2881,233
454,2	2966,473
454,6	3045,993
455,1	3121,313
455,5	3197,873
456	3276,113
456,4	3350,993
456,9	3429,993
457,3	3518,593
457,8	3599,833
458,3	3686,193
458,7	3768,633
459,2	3855,553
459,6	3930,353
460,1	4011,473
460,5	4091,913
461	4173,513
461,4	4262,873
461,9	4355,953
462,3	4444,073
462,8	4520,273
463,2	4606,633
463,7	4673,353
464,1	4747,553
464,6	4818,593
465	4898,233
465,5	4976,073
466	5054,873
466,4	5125,833
466,9	5203,873
467,3	5283,913
467,8	5356,473
468,2	5427,193
468,7	5500,233
469,1	5570,553
469,6	5630,913
470	5690,513
470,5	5756,833
470,9	5814,873
471,4	5867,673
471,8	5924,313
472,3	5982,793
472,7	6037,313
473,2	6102,713
473,6	6159,553
474,1	6224,433
474,5	6276,673
475	6323,673
475,4	6370,233
475,9	6413,713
476,4	6454,153
476,8	6491,433
477,3	6539,793
477,7	6572,713
478,2	6608,153
478,6	6636,753
479,1	6668,473
479,5	6683,953
480	6706,393
480,4	6738,793
480,9	6770,953
481,3	6793,673
481,8	6830,193
482,2	6858,073
482,7	6873,113
483,1	6873,233
483,6	6897,873
484	6910,513
484,5	6923,833
484,9	6933,233
485,4	6947,793
485,8	6948,593
486,3	6939,433
486,7	6935,313
487,2	6935,553
487,6	6931,873
488,1	6924,233
488,5	6926,993
489	6916,793
489,4	6901,993
489,9	6894,753
490,4	6875,153
490,8	6857,193
491,3	6840,993
491,7	6825,113
492,2	6801,113
492,6	6788,873
493,1	6764,793
493,5	6736,993
494	6708,473
494,4	6687,793
494,9	6659,113
495,3	6629,913
495,8	6609,393
496,2	6577,633
496,7	6540,113
497,1	6500,633
497,6	6481,633
498	6440,753
498,5	6415,793
498,9	6386,753
499,4	6351,273
499,8	6306,073
500,3	6276,793
500,7	6235,193
501,2	6191,873
501,6	6156,633
502,1	6120,553
502,5	6076,313
503	6034,433
503,4	5999,793
503,9	5965,433
504,3	5920,153
504,8	5878,113
505,2	5838,513
505,7	5798,073
506,1	5769,153
506,6	5722,793
507	5669,873
507,5	5625,273
507,9	5576,113
508,4	5509,273
508,8	5470,073
509,3	5431,473
509,7	5379,073
510,2	5333,793
510,6	5291,753
511,1	5231,913
511,5	5179,433
512	5124,233
512,4	5081,113
512,9	5037,033
513,3	5000,513
513,8	4950,473
514,2	4910,553
514,7	4850,913
515,1	4791,833
515,6	4733,073
516	4693,633
516,5	4647,873
516,9	4600,273
517,4	4559,473
517,8	4506,713
518,3	4447,593
518,7	4400,073
519,2	4348,873
519,6	4296,753
520,1	4253,793
520,5	4209,393
521	4163,593
521,4	4109,953
521,9	4064,233
522,3	4011,633
522,8	3969,793
523,2	3917,073
523,7	3882,873
524,1	3836,433
524,6	3798,913
525	3755,073
525,5	3707,913
525,9	3660,153
526,4	3618,273
526,8	3572,553
527,3	3525,433
527,7	3486,673
528,2	3440,753
528,6	3397,273
529,1	3357,873
529,5	3318,673
530	3280,473
530,4	3243,753
530,9	3201,033
531,3	3154,473
531,8	3116,193
532,2	3074,353
532,6	3041,113
533,1	3005,313
533,5	2974,753
534	2933,393
534,4	2894,393
534,9	2854,273
535,3	2812,513
535,8	2775,033
536,2	2738,873
536,7	2697,793
537,1	2662,353
537,6	2637,313
538	2606,633
538,5	2578,953
538,9	2559,793
539,4	2525,353
539,8	2484,673
540,3	2453,153
540,7	2412,193
541,2	2371,313
541,6	2343,953
542,1	2310,353
542,5	2280,033
543	2247,313
543,4	2219,153
543,9	2181,273
544,3	2158,713
544,8	2121,113
545,2	2095,753
545,7	2067,313
546,1	2041,233
546,5	2019,993
547	1997,793
547,4	1973,793
547,9	1954,993
548,3	1936,793
548,8	1904,313
549,2	1877,473
549,7	1858,433
550,1	1835,673
550,6	1807,593
551	1780,833
551,5	1761,033
551,9	1735,353
552,4	1708,353
552,8	1690,713
553,3	1676,153
553,7	1654,953
554,2	1628,593
554,6	1610,873
555,1	1590,633
555,5	1576,233
555,9	1558,633
556,4	1543,433
556,8	1526,393
557,3	1508,473
557,7	1483,753
558,2	1467,713
558,6	1457,353
559,1	1433,153
559,5	1415,593
560	1396,793
560,4	1371,113
560,9	1342,393
561,3	1328,873
561,8	1310,313
562,2	1293,393
562,7	1283,233
563,1	1268,113
563,6	1248,313
564	1231,913
564,4	1216,033
564,9	1199,673
565,3	1184,433
565,8	1171,033
566,2	1152,233
566,7	1139,833
567,1	1123,233
567,6	1113,153
568	1103,113
568,5	1090,273
568,9	1072,713
569,4	1061,913
569,8	1045,993
570,3	1029,553
570,7	1024,153
571,1	1014,993
571,6	1007,993
572	996,913
572,5	987,913
572,9	966,593
573,4	953,273
573,8	929,393
574,3	919,393
574,7	907,553
575,2	897,353
575,6	886,353
576,1	880,393
576,5	869,513
576,9	857,473
577,4	847,113
577,8	833,673
578,3	823,513
578,7	819,313
579,2	802,393
579,6	798,993
580,1	791,873
580,5	782,633
581	762,873
581,4	758,953
581,9	744,993
582,3	738,153
582,7	727,713
583,2	722,713
583,6	715,593
584,1	705,833
584,5	694,873
585	689,153
585,4	680,073
585,9	668,353
586,3	656,473
586,8	654,913
587,2	643,353
587,6	635,233
588,1	627,873
588,5	626,393
589	612,633
589,4	604,113
589,9	604,553
590,3	598,313
590,8	588,833
591,2	583,793
591,7	584,393
592,1	573,113
592,5	568,713
593	564,273
593,4	553,113
593,9	541,673
594,3	532,593
594,8	526,473
595,2	518,633
595,7	512,873
596,1	516,353
596,6	516,873
597	511,993
597,4	508,873
597,9	507,953
598,3	497,793
598,8	487,993
599,2	484,313
599,7	483,073
600,1	484,833
600,6	480,153
601	475,953
601,4	472,793
601,9	469,233
602,3	459,193
602,8	452,713
603,2	448,473
603,7	444,313
604,1	436,793
604,6	429,913
605	432,153
605,4	430,073
605,9	417,433
606,3	414,313
606,8	412,913
607,2	404,713
607,7	399,313
608,1	405,993
608,6	398,553
609	394,553
609,4	388,993
609,9	386,673
610,3	380,193
610,8	379,793
611,2	367,753
611,7	364,993
612,1	360,473
612,6	352,953
613	350,473
613,4	355,873
613,9	357,273
614,3	353,513
614,8	347,593
615,2	346,513
615,7	341,553
616,1	330,033
616,6	326,513
617	326,473
617,4	322,433
617,9	323,913
618,3	331,953
618,8	333,113
619,2	332,353
619,7	332,073
620,1	323,433
620,5	312,193
621	311,073
621,4	307,473
621,9	299,153
622,3	298,353
622,8	303,033
623,2	299,593
623,6	300,873
624,1	300,193
624,5	294,873
625	283,193
625,4	269,033
625,9	263,393
626,3	262,993
626,8	266,553
627,2	264,713
627,6	272,433
628,1	269,193
628,5	264,913
629	260,073
629,4	263,953
629,9	263,673
630,3	264,033
630,7	263,833
631,2	261,793
631,6	258,353
632,1	255,073
632,5	254,273
633	244,833
633,4	244,873
633,8	236,393
634,3	231,233
634,7	228,513
635,2	234,993
635,6	228,473
636,1	234,593
636,5	240,073
636,9	236,593
637,4	236,953
637,8	237,633
638,3	227,593
638,7	218,593
639,2	218,833
639,6	209,713
640	207,273
640,5	209,393
640,9	204,193
641,4	197,593
641,8	203,553
642,2	202,433
642,7	202,273
643,1	206,473
643,6	206,313
644	198,313
644,5	201,433
644,9	203,233
645,3	198,553
645,8	196,873
646,2	190,713
646,7	188,073
647,1	189,513
647,6	187,433
648	188,113
648,4	191,513
648,9	187,713
649,3	180,033
649,8	180,113
650,2	178,993
650,6	177,353
651,1	180,473
651,5	176,473
652	179,113
652,4	174,993
652,9	175,033
653,3	171,353
653,7	173,393
654,2	169,993
654,6	176,273
655,1	174,073
655,5	172,633
655,9	173,513
656,4	169,753
656,8	162,193
657,3	157,113
657,7	158,313
658,2	154,193
658,6	157,753
659	164,113
659,5	167,113
659,9	160,033
660,4	163,433
660,8	161,153
661,2	152,033
661,7	151,513
662,1	153,753
662,6	148,953
663	143,113
663,4	142,913
663,9	142,113
664,3	139,993
664,8	138,713
665,2	142,113
665,6	149,833
666,1	150,513
666,5	144,873
667	150,553
667,4	146,513
667,9	141,073
668,3	133,193
668,7	142,953
669,2	136,513
669,6	139,473
670,1	140,313
670,5	144,233
670,9	138,513
671,4	139,153
671,8	136,393
672,3	134,153
672,7	137,673
673,1	138,673
673,6	134,153
674	134,633
674,5	127,273
674,9	122,273
675,3	118,713
675,8	119,473
676,2	116,793
676,7	124,673
677,1	120,113
677,5	118,593
678	120,033
678,4	123,633
678,9	114,593
679,3	121,153
679,7	122,393
680,2	120,913
680,6	109,673
681,1	110,073
681,5	109,353
681,9	106,553
682,4	107,113
682,8	111,273
683,3	115,233
683,7	106,273
684,1	105,193
684,6	104,433
685	104,193
685,5	102,553
685,9	104,353
686,3	104,033
686,8	96,753
687,2	94,793
687,7	93,273
688,1	97,993
688,5	100,273
689	101,793
689,4	104,513
689,9	104,233
690,3	98,793
690,7	93,113
691,2	92,593
691,6	92,233
692	90,673
692,5	93,593
692,9	98,353
693,4	101,273
693,8	103,073
694,2	104,193
694,7	100,033
695,1	91,833
695,6	86,473
696	84,593
696,4	80,153
696,9	87,953
697,3	88,153
697,8	83,873
698,2	83,713
698,6	85,313
699,1	73,593
699,5	82,633
699,9	89,113
700,4	88,633
700,8	85,753
701,3	84,273
701,7	77,193
702,1	74,353
702,6	67,633
703	73,833
703,5	77,433
703,9	77,233
704,3	80,713
704,8	85,913
705,2	80,073
705,6	85,913
706,1	87,233
706,5	80,073
707	80,473
707,4	81,433
707,8	70,593
708,3	70,353
708,7	72,673
709,2	65,833
709,6	62,833
710	66,273
710,5	60,593
710,9	57,473
711,3	57,393
711,8	53,833
712,2	56,153
712,7	56,193
713,1	62,913
713,5	64,713
714	67,113
714,4	62,833
714,8	69,113
715,3	68,033
715,7	71,593
716,2	72,793
716,6	71,193
717	69,313
717,5	67,713
717,9	62,193
718,3	58,473
718,8	60,193
719,2	55,473
719,7	57,033
720,1	60,433
720,5	62,353
721	62,113
721,4	60,913
721,8	57,233
722,3	52,393
722,7	47,033
723,2	47,913
723,6	48,393
724	45,673
724,5	45,153
724,9	56,433
725,3	49,913
725,8	54,913
726,2	53,953
726,7	55,353
727,1	52,993
727,5	54,953
728	44,713
728,4	47,393
728,8	47,233
729,3	41,473
729,7	42,953
730,1	45,673
730,6	41,593
731	37,753
731,5	41,753
731,9	42,873
732,3	46,633
732,8	45,953
733,2	51,073
733,6	51,033
734,1	47,393
734,5	47,793
734,9	50,833
735,4	45,753
735,8	42,753
736,3	41,273
736,7	37,633
737,1	38,033
737,6	42,153
738	40,873
738,4	48,513
738,9	44,913
739,3	42,473
739,7	32,993
740,2	29,153
740,6	25,233
741,1	27,273
741,5	27,953
741,9	38,953
742,4	39,553
742,8	39,233
743,2	42,753
743,7	37,953
744,1	39,273
744,5	39,393
745	42,593
745,4	42,673
745,8	46,753
746,3	42,793
746,7	42,113
747,2	33,913
747,6	29,873
748	31,073
748,5	32,553
748,9	33,473
749,3	30,953
749,8	32,433
750,2	30,553
750,6	26,393
751,1	24,233
751,5	30,953
751,9	32,993
752,4	32,593
752,8	32,273
753,3	36,473
753,7	34,513
754,1	33,713
754,6	35,953
755	35,033
755,4	33,673
755,9	36,673
756,3	28,673
756,7	28,553
757,2	24,553
757,6	24,033
758	24,553
758,5	28,073
758,9	27,313
759,3	30,513
759,8	32,673
760,2	26,313
760,6	27,433
761,1	24,753
761,5	24,033
761,9	18,553
762,4	18,353
762,8	19,353
763,3	16,793
763,7	21,713
764,1	23,513
764,6	26,433
765	26,953
765,4	29,153
765,9	24,113
766,3	25,393
766,7	23,433
767,2	26,153
767,6	26,393
768	27,353
768,5	22,473
768,9	26,273
769,3	21,113
769,8	17,393
770,2	15,713
770,6	18,193
771,1	14,393
771,5	12,793
771,9	19,833
772,4	19,873
772,8	21,233
773,2	16,673
773,7	17,073
774,1	17,753
774,5	15,833
775	10,833
775,4	17,873
775,8	18,513
776,3	11,153
776,7	15,273
777,1	21,473
777,6	20,673
778	19,233
778,4	21,273
778,9	18,033
779,3	12,593
779,7	12,633
780,2	17,393
780,6	14,313
781	19,393
781,5	20,513
781,9	13,553
782,3	11,553
782,8	15,353
783,2	12,873
783,6	14,593
784,1	14,353
784,5	7,273
784,9	4,993
785,4	3,673
785,8	5,033
786,2	-0,167
786,7	8,233
787,1	6,553
787,5	1,553
788	3,753
788,4	13,513
788,8	8,473
789,3	14,673
789,7	18,033
790,1	14,113
790,6	10,993
791	10,793
791,4	8,713
791,9	5,153
792,3	0,713
792,7	3,433
793,2	9,513
793,6	6,873
794	7,953
794,5	13,073
794,9	14,913
795,3	7,353
795,8	10,873
796,2	9,833
796,6	7,473
797,1	0,153
797,5	3,713
797,9	2,673
798,4	7,833
798,8	5,153
799,2	12,033
799,7	6,793
800,1	4,433
800,5	2,513
801	1,833
801,4	-3,927
801,8	-2,967
802,2	0,873
802,7	5,193
803,1	8,593
803,5	11,713
804	16,713
804,4	8,913
804,8	2,553
805,3	-2,167
805,7	-2,247
806,1	-3,087
806,6	0,753
807	-3,887
807,4	-6,127
807,9	-2,207
808,3	-4,207
808,7	-8,327
809,2	-0,967
809,6	5,433
810	-1,687
810,4	-2,647
810,9	-3,607
811,3	-9,487
811,7	-10,687
812,2	-4,127
812,6	-6,367
813	-0,767
813,5	3,553
813,9	4,793
814,3	4,433
814,8	5,953
815,2	-2,847
815,6	-9,847
816,1	-15,327
816,5	-22,407
816,9	-21,607
817,3	-14,727
817,8	-9,487
818,2	-8,567
818,6	-4,007
819,1	-6,327
819,5	-4,407
819,9	-6,327
820,4	-5,327
820,8	-5,087
821,2	-5,647
821,7	-5,927
822,1	-5,487
822,5	-7,287
822,9	-15,727
823,4	-13,447
823,8	-14,887
824,2	-14,167
824,7	-13,967
825,1	0,713
825,5	1,193
826	-0,247
826,4	-6,407
826,8	-2,847
827,3	-10,167
827,7	-15,127
828,1	-13,847
828,5	-10,647
829	-12,567
829,4	-13,167
829,8	-9,247
830,3	-8,487
830,7	-3,087
831,1	-7,767
831,6	-7,007
832	-7,967
832,4	-12,447
832,8	-11,007
833,3	-4,047
833,7	-3,727
834,1	-3,767
834,6	-3,607
835	-7,727
835,4	-8,047
835,8	-10,487
836,3	-8,767
836,7	-2,807
837,1	-4,807
837,6	-9,647
838	-13,167
838,4	-17,927
838,9	-24,847
839,3	-22,807
839,7	-21,167
840,1	-12,967
840,6	-14,367
841	-7,087
841,4	-4,967
841,9	-2,487
842,3	-11,527
842,7	-10,007
843,1	-12,927
843,6	-19,767
844	-19,927
844,4	-18,127
844,9	-14,487
845,3	-15,647
845,7	-14,167
846,2	-15,847
846,6	-11,927
847	-18,207
847,4	-21,727
847,9	-17,807
848,3	-19,807
848,7	-22,247
849,2	-18,047
849,6	-16,527
850	-15,847
850,4	-15,647
850,9	-17,367
851,3	-14,127
851,7	-21,687
852,2	-24,807
852,6	-21,607
853	-23,607
853,4	-22,087
853,9	-13,407
854,3	-12,647
854,7	-12,727
855,2	-11,287
855,6	-12,487
856	-10,087
856,4	-11,127
856,9	-11,727
857,3	-8,687
857,7	-15,647
858,2	-18,527
858,6	-17,487
859	-17,847
859,4	-16,567
859,9	-12,847
860,3	-11,407
860,7	-13,367
861,1	-12,367
861,6	-17,887
862	-21,247
862,4	-19,807
862,9	-15,887
863,3	-17,887
863,7	-13,887
864,1	-12,807
864,6	-15,527
865	-19,007
865,4	-20,127
865,9	-23,327
866,3	-26,087
866,7	-26,127
867,1	-21,927
867,6	-25,367
868	-23,007
868,4	-19,447
868,8	-20,447
869,3	-21,887
869,7	-19,087
870,1	-22,607
870,6	-20,527
871	-17,847
871,4	-18,847
871,8	-25,167
872,3	-23,007
872,7	-26,607
873,1	-22,287
873,5	-20,087
874	-13,607
874,4	-11,567
874,8	-12,087
875,3	-18,647
875,7	-22,487
876,1	-22,647
876,5	-28,767
877	-26,607
877,4	-28,607
877,8	-30,247
878,2	-29,247
878,7	-22,687
879,1	-19,367
879,5	-17,687
879,9	-15,967
880,4	-11,407
880,8	-13,327
881,2	-18,327
881,7	-21,807
882,1	-22,167
882,5	-27,807
882,9	-28,727
883,4	-25,047
883,8	-22,967
884,2	-21,567
884,6	-18,047
885,1	-17,527
885,5	-20,927
885,9	-17,087
886,3	-19,847
886,8	-18,767
887,2	-21,367
887,6	-19,367
888	-27,167
888,5	-24,927
888,9	-24,887
889,3	-22,607
889,8	-21,167
890,2	-15,847
890,6	-14,287
891	-19,927
891,5	-20,647
891,9	-20,207
892,3	-23,687
892,7	-25,327
893,2	-20,367
893,6	-15,007
894	-17,487
894,4	-18,607
894,9	-23,327
895,3	-25,727
895,7	-26,087
896,1	-27,087
896,6	-25,927
897	-15,567
897,4	-15,247
897,8	-19,327
898,3	-19,047
898,7	-12,767
899,1	-20,367
899,5	-18,527
900	-21,687
900,4	-19,247
900,8	-25,567
901,2	-23,407
901,7	-23,967
902,1	-21,927
902,5	-23,047
902,9	-19,127
903,4	-14,367
903,8	-15,727
904,2	-11,127
904,6	-14,367
905,1	-17,207
905,5	-23,927
905,9	-25,047
906,3	-25,967
906,8	-23,047
907,2	-24,167
907,6	-25,447
908	-24,167
908,5	-29,327
908,9	-31,887
909,3	-37,127
909,7	-31,447
910,2	-28,127
910,6	-23,447
911	-18,287
911,4	-12,247
911,9	-16,767
912,3	-27,007
912,7	-27,487
913,1	-30,727
913,6	-27,447
914	-30,647
914,4	-30,487
914,8	-32,687
915,3	-35,327
915,7	-35,127
916,1	-33,407
916,5	-27,487
916,9	-21,447
917,4	-20,407
917,8	-21,207
918,2	-16,247
918,6	-18,567
919,1	-21,607
919,5	-22,887
919,9	-22,167
920,3	-23,487
920,8	-21,247
921,2	-26,967
921,6	-27,567
922	-35,807
922,5	-32,167
922,9	-32,447
923,3	-25,487
923,7	-21,087
924,2	-17,927
924,6	-22,607
925	-20,567
925,4	-19,807
925,8	-26,487
926,3	-22,887
926,7	-26,727
927,1	-24,447
927,5	-31,647
928	-27,767
928,4	-27,927
928,8	-21,567
929,2	-26,927
929,7	-24,887
930,1	-21,487
930,5	-19,927
930,9	-22,407
931,3	-26,687
931,8	-31,407
932,2	-37,487
932,6	-42,007
933	-44,287
933,5	-44,207
933,9	-36,007
934,3	-35,287
934,7	-33,087
935,2	-28,807
935,6	-24,807
936	-30,567
936,4	-29,007
936,8	-34,807
937,3	-40,327
937,7	-36,567
938,1	-34,967
938,5	-35,927
939	-33,527
939,4	-33,487
939,8	-36,767
940,2	-37,327
940,6	-40,527
941,1	-40,367
941,5	-36,487
941,9	-40,407
942,3	-41,287
942,8	-37,127
943,2	-35,207
943,6	-42,367
944	-36,967
944,4	-41,767
944,9	-40,047
945,3	-38,487
945,7	-35,247
946,1	-38,967
946,6	-35,047
947	-36,647
947,4	-38,407
947,8	-30,887
948,2	-25,007
948,7	-24,807
949,1	-19,967
949,5	-21,327
949,9	-25,407
950,3	-28,167
950,8	-26,967
951,2	-28,607
951,6	-26,927
952	-30,767
952,5	-29,847
952,9	-26,327
953,3	-32,607
953,7	-28,167
954,1	-23,127
954,6	-26,167
955	-23,687
955,4	-17,927
955,8	-17,487
956,2	-21,927
956,7	-22,607
957,1	-29,167
957,5	-36,127
957,9	-39,287
958,3	-33,087
958,8	-32,047
959,2	-31,687
959,6	-28,447
960	-30,807
960,5	-34,207
960,9	-36,207
961,3	-35,247
961,7	-31,967
962,1	-29,407
962,6	-27,887
963	-23,407
963,4	-20,327
963,8	-16,887
964,2	-26,767
964,7	-26,927
965,1	-33,287
965,5	-43,007
965,9	-50,807
966,3	-41,807
966,8	-43,007
967,2	-36,527
967,6	-28,687
968	-25,767
968,4	-23,647
968,9	-24,567
969,3	-22,527
969,7	-21,687
970,1	-26,647
970,5	-32,367
971	-27,967
971,4	-31,647
971,8	-33,767
972,2	-28,087
972,6	-28,367
973,1	-38,567
973,5	-42,447
973,9	-45,847
974,3	-49,527
974,7	-42,047
975,2	-35,967
975,6	-33,047
976	-28,247
976,4	-28,047
976,8	-26,247
977,3	-28,527
977,7	-23,567
978,1	-25,287
978,5	-20,767
978,9	-30,847
979,4	-24,927
979,8	-25,287
980,2	-25,807
980,6	-22,487
981	-16,007
981,5	-12,607
981,9	-20,007
982,3	-17,447
982,7	-24,527
983,1	-25,927
983,6	-30,487
984	-25,047
984,4	-26,887
984,8	-27,407
985,2	-21,847
985,6	-24,367
986,1	-31,607
986,5	-31,487
986,9	-23,607
987,3	-33,927
987,7	-30,887
988,2	-30,087
988,6	-29,967
989	-35,327
989,4	-35,607
989,8	-41,847
990,3	-41,727
990,7	-43,047
991,1	-42,127
991,5	-33,887
991,9	-30,767
992,3	-27,767
992,8	-26,167
993,2	-29,887
993,6	-30,847
994	-30,767
994,4	-32,247
994,9	-29,367
995,3	-30,927
995,7	-36,247
996,1	-36,287
996,5	-30,607
996,9	-39,287
997,4	-36,447
997,8	-42,247
998,2	-41,647
998,6	-45,207
999	-37,207
999,5	-40,407
999,9	-33,687
1000,3	-33,887
1000,7	-35,127
1001,1	-36,087
1001,5	-33,967
1002	-34,687
1002,4	-34,647
1002,8	-33,847
1003,2	-37,887
1003,6	-37,007
1004	-30,527
1004,5	-33,447
1004,9	-31,967
1005,3	-34,527
1005,7	-38,367
1006,1	-47,207
1006,6	-46,807
1007	-51,007
1007,4	-45,127
1007,8	-37,567
1008,2	-35,127
1008,6	-32,327
1009,1	-32,767
1009,5	-32,727
1009,9	-35,807
1010,3	-33,127
1010,7	-32,447
1011,1	-32,567
1011,6	-27,687
1012	-28,527
1012,4	-30,047
1012,8	-31,727
1013,2	-29,047
1013,6	-34,527
1014,1	-33,567
1014,5	-32,887
1014,9	-34,447
1015,3	-36,527
1015,7	-35,407
1016,1	-38,287
1016,6	-42,967
1017	-42,407
1017,4	-32,767
1017,8	-37,407
1018,2	-24,007
1018,6	-21,607
1019,1	-20,887
1019,5	-26,727
1019,9	-19,887
1020,3	-32,167
1020,7	-36,887
1021,1	-36,127
1021,6	-36,647
1022	-37,927
1022,4	-35,807
1022,8	-29,567
1023,2	-35,847
1023,6	-38,447
1024,1	-41,407
1024,5	-45,287
1024,9	-46,047
1025,3	-43,207
1025,7	-39,247
1026,1	-41,247
1026,6	-38,847
1027	-37,327
1027,4	-36,287
1027,8	-33,407
1028,2	-32,887
1028,6	-32,727
1029	-32,687
1029,5	-32,527
1029,9	-35,367
1030,3	-35,607
1030,7	-35,127
1031,1	-39,567
1031,5	-38,767
1032	-41,807
1032,4	-36,807
1032,8	-38,287
1033,2	-34,327
1033,6	-39,767
1034	-35,127
1034,4	-41,007
1034,9	-38,087
1035,3	-41,967
1035,7	-37,367
1036,1	-43,167
1036,5	-40,487
1036,9	-42,087
1037,4	-42,207
1037,8	-39,407
1038,2	-39,527
1038,6	-38,487
1039	-37,127
1039,4	-33,727
1039,8	-39,927
1040,3	-39,887
1040,7	-39,687
1041,1	-39,807
1041,5	-44,287
1041,9	-42,447
1042,3	-48,887
1042,7	-45,207
1043,2	-42,127
1043,6	-37,767
1044	-32,967
1044,4	-23,407
1044,8	-22,207
1045,2	-25,487
1045,6	-22,807
1046,1	-24,927
1046,5	-21,087
1046,9	-29,847
1047,3	-26,287
1047,7	-30,567
1048,1	-32,927
1048,5	-43,047
1049	-42,007
1049,4	-45,847
1049,8	-42,487
1050,2	-34,407
1050,6	-25,007
1051	-21,367
1051,4	-22,727
1051,9	-28,047
1052,3	-38,047
1052,7	-41,927
1053,1	-45,247
1053,5	-49,407
1053,9	-43,287
1054,3	-42,287
1054,8	-42,807
1055,2	-41,007
1055,6	-37,807
1056	-39,847
1056,4	-35,487
1056,8	-33,287
1057,2	-34,247
1057,6	-30,687
1058,1	-28,847
1058,5	-33,687
1058,9	-39,087
1059,3	-38,247
1059,7	-39,647
1060,1	-42,847
1060,5	-37,007
1061	-35,767
1061,4	-36,527
1061,8	-38,887
1062,2	-38,367
1062,6	-40,687
1063	-39,047
1063,4	-39,287
1063,8	-34,167
1064,3	-35,767
1064,7	-32,327
1065,1	-34,927
1065,5	-30,967
1065,9	-33,687
1066,3	-33,767
1066,7	-38,727
1067,1	-34,287
1067,6	-38,927
1068	-36,927
1068,4	-33,607
1068,8	-35,567
1069,2	-34,327
1069,6	-33,567
1070	-32,247
1070,4	-34,007
1070,9	-37,847
1071,3	-39,007
1071,7	-36,407
1072,1	-45,047
1072,5	-48,087
1072,9	-40,887
1073,3	-43,807
1073,7	-41,367
1074,2	-38,487
1074,6	-34,927
1075	-33,807
1075,4	-27,847
1075,8	-33,247
1076,2	-34,527
1076,6	-27,767
1077	-24,847
1077,5	-31,007
1077,9	-33,727
1078,3	-28,287
1078,7	-33,407
1079,1	-38,527
1079,5	-38,887
1079,9	-33,967
1080,3	-33,447
1080,7	-31,127
1081,2	-32,247
1081,6	-24,207
1082	-25,647
1082,4	-25,727
1082,8	-29,327
1083,2	-27,247
1083,6	-32,687
1084	-25,767
1084,5	-32,247
1084,9	-31,687
1085,3	-28,887
1085,7	-31,007
1086,1	-36,207
1086,5	-38,807
1086,9	-39,807
1087,3	-41,247
1087,7	-39,807
1088,2	-38,527
1088,6	-31,287
1089	-31,327
1089,4	-32,087
1089,8	-33,887
1090,2	-36,167
1090,6	-34,847
1091	-32,247
1091,4	-32,847
1091,9	-30,447
1092,3	-30,887
1092,7	-32,607
1093,1	-36,007
1093,5	-33,527
1093,9	-35,127
1094,3	-31,967
1094,7	-28,087
1095,1	-22,567
1095,5	-23,687
1096	-20,727
1096,4	-25,927
1096,8	-30,207
1097,2	-30,527
1097,6	-27,567
1098	-26,367
1098,4	-22,407
1098,8	-18,927
1099,2	-22,887
1099,6	-23,007
1100,1	-19,567
1100,5	-17,927
1100,9	-18,887
1101,3	-15,087
1101,7	-18,967
1102,1	-20,927
1102,5	-24,367
1102,9	-25,087
1103,3	-28,007
1103,7	-24,247
1104,2	-27,007
1104,6	-26,087
1105	-25,967
1105,4	-24,887
1105,8	-25,327
1106,2	-19,407
1106,6	-14,287
1107	-8,527
1107,4	-3,647
1107,8	-0,267
1108,3	-0,833
