Data from Subt2_00015.txt Node
Date: Fri Aug 11 15:27:43 MSK 2023
User: vat
Spectrometer: MAYP114033
Trigger mode: 0
Integration Time (sec): 5,000000E-1
Scans to average: 5
Electric dark correction enabled: true
Nonlinearity correction enabled: false
Boxcar width: 2
XAxis mode: Wavelengths
Number of Pixels in Spectrum: 2068
>>>>>Begin Spectral Data<<<<<
199,4	1,367
199,9	1,383
200,4	-4,167
200,8	-6,847
201,3	-10,967
201,8	-13,807
202,2	-14,327
202,7	-13,527
203,2	-10,607
203,6	-14,527
204,1	-14,767
204,6	-15,807
205	-20,207
205,5	-30,487
206	-22,927
206,4	-29,327
206,9	-33,807
207,4	-34,607
207,8	-27,247
208,3	-28,767
208,8	-24,007
209,2	-23,287
209,7	-18,327
210,2	-24,967
210,6	-26,007
211,1	-28,167
211,5	-24,007
212	-22,527
212,5	-18,487
212,9	-21,007
213,4	-18,127
213,9	-22,967
214,3	-25,247
214,8	-30,407
215,3	-26,447
215,7	-26,567
216,2	-29,007
216,7	-32,927
217,1	-28,087
217,6	-27,847
218,1	-29,047
218,5	-22,527
219	-17,167
219,5	-20,807
219,9	-20,527
220,4	-15,047
220,9	-17,167
221,3	-17,607
221,8	-13,287
222,3	-18,887
222,7	-24,967
223,2	-26,727
223,6	-32,567
224,1	-30,287
224,6	-31,047
225	-32,887
225,5	-33,047
226	-26,327
226,4	-30,647
226,9	-27,007
227,4	-22,487
227,8	-16,367
228,3	-18,807
228,8	-14,047
229,2	-18,767
229,7	-20,567
230,2	-23,967
230,6	-24,327
231,1	-30,647
231,5	-29,767
232	-29,207
232,5	-31,407
232,9	-29,727
233,4	-28,047
233,9	-26,607
234,3	-32,527
234,8	-30,727
235,3	-32,767
235,7	-35,327
236,2	-31,647
236,7	-28,167
237,1	-32,807
237,6	-34,887
238,1	-32,367
238,5	-38,447
239	-41,567
239,4	-36,847
239,9	-35,847
240,4	-35,727
240,8	-34,047
241,3	-34,127
241,8	-40,807
242,2	-36,727
242,7	-33,847
243,2	-32,607
243,6	-33,367
244,1	-30,727
244,6	-29,967
245	-26,327
245,5	-29,687
245,9	-24,487
246,4	-24,847
246,9	-28,207
247,3	-37,287
247,8	-34,167
248,3	-31,407
248,7	-27,887
249,2	-27,047
249,7	-22,207
250,1	-21,847
250,6	-21,927
251	-21,327
251,5	-20,887
252	-22,687
252,4	-20,327
252,9	-23,327
253,4	-23,447
253,8	-27,807
254,3	-29,647
254,8	-38,847
255,2	-37,247
255,7	-36,007
256,1	-24,887
256,6	-23,407
257,1	-18,127
257,5	-21,847
258	-21,967
258,5	-23,967
258,9	-23,047
259,4	-22,847
259,9	-22,407
260,3	-26,887
260,8	-32,167
261,2	-35,727
261,7	-36,327
262,2	-36,327
262,6	-35,607
263,1	-36,487
263,6	-31,567
264	-32,167
264,5	-29,047
264,9	-30,327
265,4	-28,047
265,9	-25,847
266,3	-21,327
266,8	-17,487
267,3	-14,167
267,7	-10,887
268,2	-12,167
268,7	-10,327
269,1	-13,927
269,6	-15,087
270	-15,127
270,5	-12,887
271	-22,487
271,4	-18,807
271,9	-20,567
272,4	-24,327
272,8	-29,767
273,3	-23,647
273,7	-26,727
274,2	-28,487
274,7	-32,767
275,1	-27,447
275,6	-26,447
276,1	-32,007
276,5	-32,927
277	-28,487
277,4	-37,407
277,9	-38,687
278,4	-36,287
278,8	-33,607
279,3	-36,607
279,8	-32,407
280,2	-33,407
280,7	-31,687
281,1	-30,607
281,6	-27,047
282,1	-30,047
282,5	-38,007
283	-39,647
283,4	-38,807
283,9	-42,607
284,4	-37,087
284,8	-29,367
285,3	-31,887
285,8	-29,047
286,2	-26,727
286,7	-26,607
287,1	-26,367
287,6	-24,647
288,1	-29,087
288,5	-31,127
289	-33,367
289,5	-36,207
289,9	-31,047
290,4	-29,967
290,8	-28,207
291,3	-28,527
291,8	-23,527
292,2	-27,167
292,7	-27,167
293,1	-30,167
293,6	-30,607
294,1	-29,327
294,5	-30,767
295	-32,047
295,5	-26,247
295,9	-23,247
296,4	-29,127
296,8	-31,007
297,3	-23,167
297,8	-28,167
298,2	-24,207
298,7	-25,087
299,1	-20,927
299,6	-26,247
300,1	-24,007
300,5	-29,687
301	-20,527
301,5	-25,527
301,9	-26,607
302,4	-24,367
302,8	-24,727
303,3	-30,447
303,8	-23,247
304,2	-23,607
304,7	-31,727
305,1	-32,047
305,6	-30,767
306,1	-32,087
306,5	-32,247
307	-22,727
307,4	-22,287
307,9	-20,607
308,4	-21,967
308,8	-19,647
309,3	-22,567
309,8	-17,247
310,2	-15,887
310,7	-19,407
311,1	-20,727
311,6	-21,167
312,1	-24,207
312,5	-27,727
313	-21,527
313,4	-20,247
313,9	-15,367
314,4	-18,487
314,8	-18,407
315,3	-20,607
315,7	-19,487
316,2	-23,767
316,7	-22,527
317,1	-26,887
317,6	-26,207
318	-24,887
318,5	-27,487
319	-24,767
319,4	-25,047
319,9	-22,407
320,3	-23,247
320,8	-22,847
321,3	-27,327
321,7	-25,447
322,2	-27,767
322,6	-29,007
323,1	-30,207
323,6	-28,487
324	-25,247
324,5	-26,087
324,9	-27,487
325,4	-22,447
325,9	-18,047
326,3	-17,047
326,8	-10,887
327,2	-13,607
327,7	-15,327
328,2	-20,687
328,6	-25,327
329,1	-27,967
329,5	-22,407
330	-18,967
330,5	-13,327
330,9	-13,807
331,4	-19,247
331,8	-23,447
332,3	-24,847
332,8	-31,167
333,2	-28,487
333,7	-28,767
334,1	-25,927
334,6	-22,887
335,1	-19,767
335,5	-11,407
336	-9,527
336,4	-7,367
336,9	-11,927
337,4	-13,127
337,8	-18,207
338,3	-13,127
338,7	-12,927
339,2	-11,247
339,7	-7,967
340,1	-9,607
340,6	-9,407
341	-11,727
341,5	-15,527
342	-17,167
342,4	-15,447
342,9	-16,287
343,3	-12,447
343,8	-10,807
344,2	-13,127
344,7	-16,567
345,2	-16,927
345,6	-13,087
346,1	-10,127
346,5	-2,607
347	-2,767
347,5	-1,447
347,9	-3,847
348,4	1,473
348,8	3,833
349,3	15,233
349,8	24,433
350,2	36,073
350,7	43,073
351,1	54,113
351,6	69,073
352	87,473
352,5	113,473
353	153,793
353,4	194,473
353,9	246,353
354,3	306,113
354,8	373,273
355,3	456,153
355,7	554,993
356,2	663,073
356,6	786,313
357,1	932,313
357,5	1101,153
358	1293,713
358,5	1523,953
358,9	1788,113
359,4	2087,873
359,8	2414,913
360,3	2787,353
360,8	3197,153
361,2	3659,793
361,7	4162,673
362,1	4725,073
362,6	5337,153
363	5994,113
363,5	6678,793
364	7394,593
364,4	8127,273
364,9	8869,073
365,3	9607,553
365,8	10314,753
366,3	10976,313
366,7	11572,353
367,2	12075,993
367,6	12489,113
368,1	12805,473
368,5	13004,833
369	13092,193
369,5	13078,753
369,9	12958,873
370,4	12740,873
370,8	12441,873
371,3	12060,633
371,7	11609,793
372,2	11092,393
372,7	10533,433
373,1	9935,313
373,6	9328,953
374	8713,273
374,5	8114,953
374,9	7528,713
375,4	6980,913
375,9	6442,193
376,3	5928,513
376,8	5432,513
377,2	4967,873
377,7	4527,673
378,2	4129,313
378,6	3772,393
379,1	3448,513
379,5	3151,353
380	2881,433
380,4	2639,953
380,9	2411,713
381,4	2208,713
381,8	2021,953
382,3	1856,193
382,7	1701,593
383,2	1576,953
383,6	1449,113
384,1	1334,073
384,6	1232,273
385	1137,433
385,5	1044,073
385,9	967,833
386,4	903,633
386,8	838,673
387,3	772,433
387,7	707,473
388,2	651,113
388,7	603,713
389,1	547,713
389,6	507,833
390	471,833
390,5	433,673
390,9	387,233
391,4	356,113
391,9	320,953
392,3	296,073
392,8	271,673
393,2	259,553
393,7	239,553
394,1	226,993
394,6	204,633
395,1	191,313
395,5	171,793
396	157,993
396,4	144,033
396,9	129,713
397,3	120,673
397,8	106,553
398,2	103,033
398,7	94,753
399,2	88,433
399,6	77,113
400,1	71,313
400,5	66,713
401	63,273
401,4	60,153
401,9	56,593
402,4	50,633
402,8	38,553
403,3	32,393
403,7	33,033
404,2	31,593
404,6	28,673
405,1	31,673
405,5	34,273
406	29,673
406,5	25,753
406,9	27,313
407,4	22,273
407,8	18,793
408,3	18,033
408,7	16,193
409,2	24,273
409,6	30,513
410,1	25,153
410,6	27,153
411	28,913
411,5	24,673
411,9	19,953
412,4	23,753
412,8	19,913
413,3	15,833
413,7	21,033
414,2	25,153
414,7	24,913
415,1	28,713
415,6	37,113
416	32,753
416,5	31,233
416,9	35,473
417,4	42,553
417,8	45,793
418,3	50,473
418,8	62,393
419,2	69,113
419,7	66,393
420,1	62,913
420,6	59,273
421	50,913
421,5	49,033
421,9	55,553
422,4	61,553
422,8	70,553
423,3	78,593
423,8	87,753
424,2	86,713
424,7	93,033
425,1	96,713
425,6	101,873
426	105,313
426,5	110,433
426,9	107,793
427,4	117,513
427,9	120,753
428,3	119,353
428,8	128,073
429,2	141,433
429,7	146,393
430,1	149,513
430,6	154,473
431	159,753
431,5	167,313
431,9	167,513
432,4	181,793
432,8	198,753
433,3	214,913
433,8	224,033
434,2	236,873
434,7	251,433
435,1	255,913
435,6	262,233
436	271,633
436,5	289,113
436,9	297,913
437,4	324,753
437,8	340,193
438,3	355,393
438,8	365,313
439,2	383,633
439,7	394,073
440,1	413,473
440,6	433,753
441	451,353
441,5	464,273
441,9	487,393
442,4	504,513
442,8	528,113
443,3	552,953
443,7	582,673
444,2	597,273
444,7	622,393
445,1	645,993
445,6	674,553
446	702,793
446,5	739,833
446,9	768,353
447,4	798,553
447,8	829,033
448,3	851,793
448,7	875,033
449,2	912,593
449,6	942,873
450,1	973,553
450,6	1007,193
451	1047,993
451,5	1071,993
451,9	1111,073
452,4	1148,193
452,8	1194,193
453,3	1224,073
453,7	1266,113
454,2	1305,313
454,6	1347,113
455,1	1381,353
455,5	1430,873
456	1473,873
456,4	1512,713
456,9	1551,553
457,3	1603,713
457,8	1647,153
458,3	1701,713
458,7	1756,953
459,2	1809,233
459,6	1852,593
460,1	1909,233
460,5	1953,753
461	2007,513
461,4	2060,313
461,9	2113,793
462,3	2155,313
462,8	2206,913
463,2	2253,913
463,7	2302,073
464,1	2350,073
464,6	2403,713
465	2460,393
465,5	2504,673
466	2550,393
466,4	2603,153
466,9	2657,393
467,3	2698,873
467,8	2744,593
468,2	2807,233
468,7	2854,953
469,1	2895,473
469,6	2945,593
470	2993,713
470,5	3030,073
470,9	3076,753
471,4	3120,033
471,8	3157,473
472,3	3201,113
472,7	3244,553
473,2	3279,753
473,6	3318,033
474,1	3355,753
474,5	3397,833
475	3441,673
475,4	3480,953
475,9	3526,233
476,4	3567,713
476,8	3597,633
477,3	3616,993
477,7	3649,713
478,2	3670,353
478,6	3694,633
479,1	3723,033
479,5	3752,113
480	3772,753
480,4	3797,873
480,9	3817,233
481,3	3837,953
481,8	3865,993
482,2	3886,313
482,7	3896,393
483,1	3915,473
483,6	3931,673
484	3936,793
484,5	3941,873
484,9	3951,153
485,4	3948,993
485,8	3948,433
486,3	3949,473
486,7	3955,673
487,2	3964,513
487,6	3980,153
488,1	3987,753
488,5	3985,153
489	3987,793
489,4	3979,513
489,9	3961,393
490,4	3952,393
490,8	3951,913
491,3	3942,513
491,7	3940,873
492,2	3933,193
492,6	3920,473
493,1	3902,353
493,5	3880,513
494	3860,393
494,4	3843,713
494,9	3820,193
495,3	3810,513
495,8	3794,193
496,2	3778,833
496,7	3770,913
497,1	3756,873
497,6	3736,233
498	3721,193
498,5	3693,793
498,9	3666,313
499,4	3644,473
499,8	3622,153
500,3	3596,673
500,7	3575,353
501,2	3548,553
501,6	3525,193
502,1	3496,633
502,5	3475,113
503	3456,313
503,4	3436,033
503,9	3421,233
504,3	3401,913
504,8	3378,233
505,2	3352,713
505,7	3318,553
506,1	3280,873
506,6	3251,513
507	3219,993
507,5	3197,273
507,9	3175,473
508,4	3148,273
508,8	3119,553
509,3	3098,593
509,7	3071,473
510,2	3055,473
510,6	3038,593
511,1	3011,873
511,5	2978,193
512	2943,473
512,4	2912,993
512,9	2885,033
513,3	2856,793
513,8	2840,113
514,2	2823,353
514,7	2796,513
515,1	2764,073
515,6	2736,033
516	2707,593
516,5	2675,033
516,9	2644,313
517,4	2612,833
517,8	2593,473
518,3	2560,513
518,7	2538,873
519,2	2507,233
519,6	2489,193
520,1	2462,313
520,5	2447,073
521	2416,833
521,4	2400,353
521,9	2375,353
522,3	2349,833
522,8	2323,913
523,2	2305,233
523,7	2290,873
524,1	2273,513
524,6	2253,153
525	2230,393
525,5	2206,833
525,9	2180,673
526,4	2153,313
526,8	2129,473
527,3	2108,513
527,7	2084,313
528,2	2061,473
528,6	2050,473
529,1	2030,113
529,5	2006,233
530	1987,473
530,4	1973,633
530,9	1948,913
531,3	1927,873
531,8	1914,833
532,2	1899,593
532,6	1868,753
533,1	1848,153
533,5	1837,433
534	1824,353
534,4	1804,633
534,9	1787,433
535,3	1774,793
535,8	1756,473
536,2	1725,513
536,7	1709,713
537,1	1700,993
537,6	1679,473
538	1658,873
538,5	1641,593
538,9	1624,753
539,4	1607,193
539,8	1597,233
540,3	1581,833
540,7	1576,273
541,2	1553,073
541,6	1534,273
542,1	1520,273
542,5	1513,233
543	1496,793
543,4	1496,913
543,9	1493,953
544,3	1478,593
544,8	1467,233
545,2	1458,993
545,7	1450,633
546,1	1436,673
546,5	1429,193
547	1407,673
547,4	1396,633
547,9	1379,513
548,3	1366,993
548,8	1348,593
549,2	1343,153
549,7	1319,593
550,1	1305,873
550,6	1290,913
551	1280,913
551,5	1264,473
551,9	1269,073
552,4	1260,473
552,8	1256,033
553,3	1244,673
553,7	1242,873
554,2	1229,553
554,6	1227,553
555,1	1212,873
555,5	1204,673
555,9	1191,513
556,4	1185,593
556,8	1167,993
557,3	1156,993
557,7	1142,353
558,2	1141,593
558,6	1128,033
559,1	1116,793
559,5	1109,433
560	1104,753
560,4	1087,713
560,9	1079,473
561,3	1077,633
561,8	1070,233
562,2	1065,113
562,7	1058,793
563,1	1051,633
563,6	1043,633
564	1046,073
564,4	1043,593
564,9	1041,233
565,3	1025,873
565,8	1015,153
566,2	1002,073
566,7	989,433
567,1	981,273
567,6	981,953
568	981,473
568,5	972,593
568,9	964,273
569,4	958,313
569,8	952,633
570,3	942,873
570,7	937,353
571,1	932,473
571,6	926,313
572	920,953
572,5	909,273
572,9	906,553
573,4	905,393
573,8	895,913
574,3	886,593
574,7	887,713
575,2	878,673
575,6	872,113
576,1	865,793
576,5	856,913
576,9	851,593
577,4	848,913
577,8	839,073
578,3	830,193
578,7	825,153
579,2	815,873
579,6	806,193
580,1	790,433
580,5	795,193
581	792,513
581,4	790,873
581,9	784,713
582,3	787,113
582,7	778,233
583,2	769,673
583,6	768,233
584,1	764,393
584,5	760,193
585	751,993
585,4	744,833
585,9	735,513
586,3	734,673
586,8	729,033
587,2	720,233
587,6	723,393
588,1	719,033
588,5	711,113
589	711,193
589,4	713,833
589,9	709,433
590,3	700,993
590,8	696,313
591,2	685,553
591,7	681,553
592,1	679,633
592,5	675,593
593	666,273
593,4	669,353
593,9	662,833
594,3	655,153
594,8	649,153
595,2	654,153
595,7	654,353
596,1	646,433
596,6	645,513
597	642,233
597,4	642,673
597,9	632,713
598,3	631,113
598,8	628,953
599,2	627,313
599,7	613,233
600,1	613,673
600,6	610,433
601	599,513
601,4	599,113
601,9	604,393
602,3	594,233
602,8	595,913
603,2	587,793
603,7	588,233
604,1	573,993
604,6	572,353
605	570,393
605,4	568,113
605,9	564,753
606,3	566,593
606,8	569,593
607,2	565,913
607,7	568,513
608,1	555,473
608,6	556,953
609	546,433
609,4	535,793
609,9	528,633
610,3	527,033
610,8	520,873
611,2	518,153
611,7	521,073
612,1	520,433
612,6	518,353
613	512,033
613,4	513,633
613,9	504,193
614,3	498,913
614,8	494,553
615,2	495,633
615,7	492,193
616,1	490,873
616,6	485,193
617	481,633
617,4	476,793
617,9	471,513
618,3	461,433
618,8	461,153
619,2	462,033
619,7	458,793
620,1	451,953
620,5	456,153
621	453,673
621,4	450,073
621,9	449,433
622,3	447,393
622,8	450,433
623,2	442,153
623,6	439,713
624,1	436,513
624,5	432,593
625	428,633
625,4	432,593
625,9	425,233
626,3	419,553
626,8	422,633
627,2	417,353
627,6	417,793
628,1	419,313
628,5	418,273
629	413,633
629,4	408,713
629,9	406,193
630,3	402,833
630,7	396,633
631,2	392,753
631,6	393,193
632,1	387,153
632,5	384,793
633	386,873
633,4	382,633
633,8	369,353
634,3	368,233
634,7	368,073
635,2	356,273
635,6	356,073
636,1	368,393
636,5	368,113
636,9	357,833
637,4	359,393
637,8	359,553
638,3	349,233
638,7	345,833
639,2	349,393
639,6	354,393
640	351,593
640,5	352,273
640,9	349,273
641,4	338,593
641,8	328,553
642,2	325,433
642,7	321,233
643,1	316,713
643,6	320,353
644	322,273
644,5	318,953
644,9	319,953
645,3	318,993
645,8	323,233
646,2	314,793
646,7	311,233
647,1	301,033
647,6	301,713
648	295,953
648,4	302,433
648,9	303,273
649,3	305,673
649,8	305,553
650,2	309,953
650,6	306,113
651,1	307,033
651,5	302,633
652	301,073
652,4	287,953
652,9	278,073
653,3	276,433
653,7	282,193
654,2	274,273
654,6	276,273
655,1	277,433
655,5	273,313
655,9	266,073
656,4	261,513
656,8	255,033
657,3	256,433
657,7	253,713
658,2	256,273
658,6	257,193
659	262,273
659,5	261,993
659,9	258,313
660,4	255,033
660,8	254,393
661,2	251,113
661,7	248,033
662,1	253,793
662,6	248,393
663	244,193
663,4	238,393
663,9	239,313
664,3	230,313
664,8	234,393
665,2	228,393
665,6	227,313
666,1	220,753
666,5	221,033
667	215,473
667,4	221,953
667,9	225,433
668,3	221,633
668,7	217,393
669,2	216,753
669,6	215,953
670,1	212,473
670,5	209,913
670,9	208,153
671,4	201,553
671,8	200,353
672,3	197,353
672,7	201,473
673,1	201,713
673,6	206,393
674	206,313
674,5	207,393
674,9	203,273
675,3	194,753
675,8	191,433
676,2	188,273
676,7	184,753
677,1	186,713
677,5	192,033
678	190,353
678,4	193,393
678,9	186,873
679,3	182,553
679,7	181,633
680,2	178,433
680,6	168,353
681,1	170,593
681,5	172,393
681,9	165,753
682,4	165,153
682,8	164,233
683,3	165,193
683,7	162,913
684,1	174,353
684,6	174,233
685	172,713
685,5	169,473
685,9	166,033
686,3	161,273
686,8	158,153
687,2	159,193
687,7	158,673
688,1	160,313
688,5	159,073
689	161,073
689,4	162,713
689,9	162,153
690,3	164,433
690,7	154,553
691,2	152,153
691,6	143,633
692	143,033
692,5	139,553
692,9	144,073
693,4	143,113
693,8	149,993
694,2	149,033
694,7	152,113
695,1	148,353
695,6	152,473
696	146,993
696,4	142,433
696,9	138,033
697,3	142,433
697,8	136,073
698,2	134,073
698,6	136,753
699,1	129,633
699,5	125,193
699,9	123,233
700,4	122,433
700,8	122,033
701,3	124,153
701,7	132,873
702,1	138,633
702,6	141,553
703	138,673
703,5	134,273
703,9	121,993
704,3	116,913
704,8	114,633
705,2	114,993
705,6	115,233
706,1	118,993
706,5	118,913
707	119,753
707,4	123,273
707,8	127,513
708,3	125,313
708,7	124,953
709,2	122,433
709,6	113,233
710	107,073
710,5	104,393
710,9	99,993
711,3	101,313
711,8	103,433
712,2	105,873
712,7	106,353
713,1	107,793
713,5	106,553
714	106,433
714,4	104,473
714,8	101,233
715,3	97,553
715,7	94,593
716,2	89,273
716,6	92,193
717	89,233
717,5	93,313
717,9	99,393
718,3	100,113
718,8	102,153
719,2	103,713
719,7	97,073
720,1	87,673
720,5	90,393
721	83,753
721,4	88,713
721,8	90,873
722,3	92,713
722,7	88,513
723,2	91,153
723,6	82,793
724	82,033
724,5	85,433
724,9	93,913
725,3	90,473
725,8	90,473
726,2	91,353
726,7	83,633
727,1	76,993
727,5	76,473
728	76,473
728,4	72,433
728,8	73,553
729,3	76,273
729,7	78,913
730,1	86,433
730,6	89,233
731	88,633
731,5	86,433
731,9	82,353
732,3	76,233
732,8	71,593
733,2	73,993
733,6	74,713
734,1	72,593
734,5	69,593
734,9	77,753
735,4	77,673
735,8	78,633
736,3	81,433
736,7	85,513
737,1	80,153
737,6	78,033
738	69,553
738,4	67,393
738,9	63,233
739,3	62,953
739,7	57,753
740,2	58,993
740,6	58,233
741,1	57,713
741,5	59,673
741,9	62,513
742,4	64,913
742,8	62,873
743,2	61,913
743,7	63,233
744,1	63,353
744,5	57,593
745	55,433
745,4	61,193
745,8	57,153
746,3	55,553
746,7	60,193
747,2	61,393
747,6	51,793
748	48,793
748,5	49,673
748,9	49,313
749,3	49,833
749,8	56,193
750,2	54,833
750,6	49,353
751,1	52,233
751,5	53,273
751,9	52,393
752,4	55,153
752,8	67,193
753,3	62,033
753,7	62,553
754,1	64,153
754,6	63,673
755	59,313
755,4	62,113
755,9	63,833
756,3	62,113
756,7	66,953
757,2	58,833
757,6	47,193
758	38,273
758,5	37,833
758,9	34,273
759,3	39,193
759,8	44,993
760,2	49,073
760,6	50,193
761,1	44,913
761,5	41,953
761,9	41,753
762,4	44,433
762,8	38,793
763,3	38,993
763,7	36,073
764,1	36,433
764,6	39,073
765	44,393
765,4	44,593
765,9	47,473
766,3	48,433
766,7	42,393
767,2	37,273
767,6	34,113
768	32,833
768,5	35,713
768,9	38,713
769,3	34,233
769,8	39,873
770,2	43,993
770,6	38,713
771,1	36,273
771,5	36,673
771,9	37,073
772,4	32,993
772,8	31,553
773,2	33,993
773,7	35,273
774,1	31,873
774,5	31,473
775	33,153
775,4	27,953
775,8	30,873
776,3	33,913
776,7	34,993
777,1	39,073
777,6	38,993
778	37,193
778,4	34,153
778,9	38,033
779,3	27,073
779,7	27,913
780,2	27,033
780,6	26,633
781	18,793
781,5	25,793
781,9	27,913
782,3	28,713
782,8	31,113
783,2	34,473
783,6	34,913
784,1	30,793
784,5	31,273
784,9	28,353
785,4	30,833
785,8	30,193
786,2	25,993
786,7	27,273
787,1	27,153
787,5	20,393
788	20,033
788,4	26,953
788,8	22,593
789,3	20,673
789,7	24,593
790,1	24,153
790,6	30,033
791	28,353
791,4	30,033
791,9	30,833
792,3	25,353
792,7	22,073
793,2	24,033
793,6	23,313
794	25,233
794,5	28,953
794,9	16,593
795,3	17,713
795,8	14,553
796,2	7,633
796,6	9,553
797,1	19,553
797,5	13,993
797,9	14,953
798,4	18,073
798,8	20,193
799,2	22,673
799,7	29,793
800,1	28,113
800,5	25,873
801	19,313
801,4	11,193
801,8	11,993
802,2	8,713
802,7	9,153
803,1	6,993
803,5	9,033
804	6,433
804,4	13,993
804,8	20,033
805,3	24,513
805,7	16,633
806,1	15,473
806,6	12,513
807	3,473
807,4	1,633
807,9	11,273
808,3	13,073
808,7	9,113
809,2	9,873
809,6	7,033
810	5,193
810,4	3,713
810,9	6,193
811,3	2,473
811,7	5,233
812,2	3,953
812,6	-3,687
813	-3,687
813,5	4,353
813,9	7,233
814,3	10,833
814,8	18,113
815,2	17,793
815,6	15,993
816,1	13,113
816,5	8,633
816,9	9,433
817,3	5,193
817,8	-0,727
818,2	1,153
818,6	-3,567
819,1	-5,527
819,5	1,633
819,9	4,033
820,4	4,673
820,8	15,033
821,2	14,193
821,7	12,633
822,1	17,153
822,5	12,833
822,9	9,193
823,4	7,233
823,8	4,433
824,2	1,673
824,7	-0,087
825,1	-5,487
825,5	-8,647
826	-9,047
826,4	-10,407
826,8	-5,487
827,3	-5,647
827,7	-2,687
828,1	-2,687
828,5	-6,807
829	-12,767
829,4	-10,167
829,8	-7,887
830,3	-7,207
830,7	-8,607
831,1	-4,367
831,6	-4,767
832	-11,087
832,4	-11,887
832,8	-6,007
833,3	-5,687
833,7	-5,407
834,1	-5,247
834,6	-5,927
835	-4,967
835,4	-7,007
835,8	-9,447
836,3	-7,247
836,7	-5,407
837,1	-11,207
837,6	-10,247
838	-6,087
838,4	-10,967
838,9	-13,047
839,3	-9,927
839,7	-11,087
840,1	-15,967
840,6	-11,287
841	-9,567
841,4	-10,607
841,9	-10,167
842,3	-4,167
842,7	-6,367
843,1	-7,167
843,6	-1,247
844	-1,567
844,4	-5,927
844,9	-4,567
845,3	-0,807
845,7	-7,567
846,2	-12,647
846,6	-10,007
847	-11,207
847,4	-18,847
847,9	-22,327
848,3	-18,247
848,7	-19,447
849,2	-18,527
849,6	-12,607
850	-4,647
850,4	-7,247
850,9	-7,127
851,3	-2,447
851,7	-8,807
852,2	-10,047
852,6	-8,087
853	-10,447
853,4	-17,687
853,9	-15,927
854,3	-21,487
854,7	-17,527
855,2	-16,087
855,6	-11,487
856	-11,887
856,4	-9,607
856,9	-10,687
857,3	-10,887
857,7	-10,287
858,2	-5,927
858,6	-9,647
859	-14,087
859,4	-16,727
859,9	-16,767
860,3	-23,167
860,7	-14,847
861,1	-15,647
861,6	-17,727
862	-16,367
862,4	-12,367
862,9	-16,087
863,3	-10,767
863,7	-9,807
864,1	-12,847
864,6	-8,607
865	-12,567
865,4	-13,447
865,9	-11,687
866,3	-9,127
866,7	-11,447
867,1	-13,327
867,6	-17,567
868	-20,607
868,4	-24,247
868,8	-29,367
869,3	-27,647
869,7	-22,527
870,1	-20,407
870,6	-21,647
871	-10,207
871,4	5,633
871,8	0,353
872,3	-0,127
872,7	1,353
873,1	-7,767
873,5	-22,127
874	-16,287
874,4	-15,927
874,8	-13,167
875,3	-11,687
875,7	-9,887
876,1	-17,967
876,5	-14,247
877	-18,047
877,4	-18,327
877,8	-14,927
878,2	-8,407
878,7	-7,047
879,1	-6,767
879,5	-2,887
879,9	-6,887
880,4	-11,527
880,8	-18,247
881,2	-16,847
881,7	-20,687
882,1	-19,007
882,5	-19,647
882,9	-11,487
883,4	-8,127
883,8	-10,967
884,2	-15,247
884,6	-16,287
885,1	-21,487
885,5	-28,327
885,9	-24,287
886,3	-25,647
886,8	-27,447
887,2	-28,247
887,6	-27,247
888	-29,527
888,5	-19,807
888,9	-16,087
889,3	-27,047
889,8	-23,847
890,2	-24,687
890,6	-31,087
891	-28,607
891,5	-16,927
891,9	-13,127
892,3	-11,767
892,7	-7,087
893,2	-9,607
893,6	-10,887
894	-17,487
894,4	-19,967
894,9	-20,887
895,3	-21,847
895,7	-22,847
896,1	-16,487
896,6	-19,007
897	-22,007
897,4	-18,847
897,8	-16,847
898,3	-24,607
898,7	-18,687
899,1	-19,167
899,5	-19,247
900	-25,767
900,4	-21,127
900,8	-22,287
901,2	-26,047
901,7	-25,687
902,1	-22,367
902,5	-24,127
902,9	-19,887
903,4	-18,327
903,8	-24,167
904,2	-18,447
904,6	-19,047
905,1	-19,727
905,5	-16,167
905,9	-11,687
906,3	-16,967
906,8	-15,167
907,2	-18,807
907,6	-19,567
908	-21,807
908,5	-16,847
908,9	-15,967
909,3	-14,407
909,7	-17,087
910,2	-12,607
910,6	-13,487
911	-12,967
911,4	-9,607
911,9	-10,127
912,3	-12,127
912,7	-12,607
913,1	-17,087
913,6	-29,327
914	-26,047
914,4	-28,847
914,8	-25,487
915,3	-22,967
915,7	-17,607
916,1	-23,247
916,5	-19,047
916,9	-25,047
917,4	-26,607
917,8	-23,127
918,2	-18,807
918,6	-20,407
919,1	-21,007
919,5	-19,927
919,9	-24,367
920,3	-21,447
920,8	-23,207
921,2	-22,447
921,6	-24,167
922	-27,767
922,5	-29,487
922,9	-37,247
923,3	-33,487
923,7	-32,207
924,2	-27,247
924,6	-28,287
925	-11,487
925,4	-19,287
925,8	-23,887
926,3	-24,727
926,7	-21,847
927,1	-29,527
927,5	-25,567
928	-16,767
928,4	-14,807
928,8	-19,407
929,2	-19,527
929,7	-20,967
930,1	-25,287
930,5	-26,367
930,9	-25,447
931,3	-29,887
931,8	-33,327
932,2	-32,527
932,6	-33,767
933	-32,087
933,5	-27,247
933,9	-24,967
934,3	-30,007
934,7	-27,127
935,2	-28,087
935,6	-28,847
936	-32,007
936,4	-27,167
936,8	-30,807
937,3	-28,327
937,7	-30,087
938,1	-24,127
938,5	-21,327
939	-21,767
939,4	-23,727
939,8	-25,247
940,2	-25,687
940,6	-33,807
941,1	-33,407
941,5	-36,367
941,9	-33,687
942,3	-37,967
942,8	-37,967
943,2	-36,847
943,6	-40,047
944	-44,007
944,4	-38,807
944,9	-34,687
945,3	-37,247
945,7	-32,567
946,1	-27,687
946,6	-31,367
947	-31,967
947,4	-31,407
947,8	-32,007
948,2	-30,607
948,7	-23,367
949,1	-24,407
949,5	-23,847
949,9	-21,447
950,3	-24,687
950,8	-23,367
951,2	-19,887
951,6	-24,647
952	-26,087
952,5	-20,887
952,9	-21,727
953,3	-24,687
953,7	-22,287
954,1	-17,927
954,6	-25,647
955	-31,727
955,4	-33,327
955,8	-21,687
956,2	-28,207
956,7	-23,487
957,1	-21,407
957,5	-16,967
957,9	-31,167
958,3	-30,727
958,8	-32,407
959,2	-30,527
959,6	-33,727
960	-31,367
960,5	-33,447
960,9	-27,487
961,3	-30,447
961,7	-31,767
962,1	-22,647
962,6	-21,487
963	-33,367
963,4	-36,727
963,8	-32,527
964,2	-40,767
964,7	-39,767
965,1	-35,687
965,5	-34,927
965,9	-35,407
966,3	-32,847
966,8	-32,087
967,2	-30,167
967,6	-26,567
968	-25,287
968,4	-22,647
968,9	-21,807
969,3	-24,887
969,7	-27,367
970,1	-31,967
970,5	-33,287
971	-29,327
971,4	-30,487
971,8	-24,207
972,2	-24,247
972,6	-28,407
973,1	-32,167
973,5	-29,367
973,9	-35,687
974,3	-33,287
974,7	-27,887
975,2	-28,807
975,6	-28,687
976	-23,327
976,4	-26,607
976,8	-33,287
977,3	-36,647
977,7	-31,327
978,1	-28,807
978,5	-25,927
978,9	-21,927
979,4	-21,647
979,8	-27,647
980,2	-34,047
980,6	-34,327
981	-36,327
981,5	-37,407
981,9	-34,167
982,3	-34,967
982,7	-34,047
983,1	-29,247
983,6	-23,327
984	-24,087
984,4	-23,527
984,8	-22,207
985,2	-25,607
985,6	-26,407
986,1	-26,567
986,5	-26,847
986,9	-30,047
987,3	-25,727
987,7	-25,847
988,2	-24,687
988,6	-21,047
989	-19,207
989,4	-25,127
989,8	-27,127
990,3	-29,807
990,7	-31,527
991,1	-36,207
991,5	-31,527
991,9	-33,207
992,3	-31,927
992,8	-31,127
993,2	-24,007
993,6	-26,727
994	-21,367
994,4	-19,487
994,9	-24,847
995,3	-27,127
995,7	-27,487
996,1	-29,247
996,5	-29,367
996,9	-23,567
997,4	-27,607
997,8	-31,327
998,2	-29,287
998,6	-32,407
999	-38,487
999,5	-35,807
999,9	-30,647
1000,3	-33,767
1000,7	-33,287
1001,1	-28,927
1001,5	-25,447
1002	-28,207
1002,4	-23,607
1002,8	-22,727
1003,2	-21,887
1003,6	-22,567
1004	-23,887
1004,5	-23,807
1004,9	-19,007
1005,3	-16,727
1005,7	-18,687
1006,1	-12,487
1006,6	-13,047
1007	-13,607
1007,4	-16,567
1007,8	-18,047
1008,2	-20,487
1008,6	-24,727
1009,1	-28,527
1009,5	-27,687
1009,9	-29,047
1010,3	-27,887
1010,7	-31,087
1011,1	-27,287
1011,6	-30,367
1012	-29,167
1012,4	-33,087
1012,8	-30,007
1013,2	-34,407
1013,6	-35,127
1014,1	-35,687
1014,5	-33,567
1014,9	-33,127
1015,3	-31,807
1015,7	-31,087
1016,1	-28,247
1016,6	-29,727
1017	-30,887
1017,4	-33,287
1017,8	-35,527
1018,2	-38,167
1018,6	-34,927
1019,1	-32,647
1019,5	-33,007
1019,9	-30,607
1020,3	-29,167
1020,7	-29,087
1021,1	-37,727
1021,6	-35,487
1022	-36,767
1022,4	-32,727
1022,8	-32,607
1023,2	-22,287
1023,6	-22,887
1024,1	-22,727
1024,5	-27,647
1024,9	-29,927
1025,3	-35,607
1025,7	-36,727
1026,1	-38,287
1026,6	-39,647
1027	-38,127
1027,4	-36,807
1027,8	-40,647
1028,2	-39,327
1028,6	-38,527
1029	-42,087
1029,5	-45,607
1029,9	-36,647
1030,3	-34,967
1030,7	-32,167
1031,1	-36,327
1031,5	-27,247
1032	-33,167
1032,4	-36,327
1032,8	-38,807
1033,2	-31,727
1033,6	-35,367
1034	-33,207
1034,4	-31,127
1034,9	-30,527
1035,3	-30,247
1035,7	-31,967
1036,1	-31,527
1036,5	-33,047
1036,9	-38,407
1037,4	-44,407
1037,8	-41,647
1038,2	-44,127
1038,6	-41,967
1039	-35,407
1039,4	-25,727
1039,8	-28,287
1040,3	-31,087
1040,7	-33,167
1041,1	-38,807
1041,5	-47,607
1041,9	-44,847
1042,3	-40,167
1042,7	-37,527
1043,2	-34,647
1043,6	-33,647
1044	-33,527
1044,4	-30,927
1044,8	-28,927
1045,2	-30,687
1045,6	-31,047
1046,1	-31,407
1046,5	-40,887
1046,9	-47,567
1047,3	-42,567
1047,7	-38,287
1048,1	-38,287
1048,5	-31,487
1049	-24,647
1049,4	-30,087
1049,8	-28,887
1050,2	-30,527
1050,6	-31,207
1051	-38,527
1051,4	-34,047
1051,9	-42,447
1052,3	-49,007
1052,7	-52,607
1053,1	-48,047
1053,5	-50,167
1053,9	-45,247
1054,3	-36,967
1054,8	-31,767
1055,2	-32,807
1055,6	-30,847
1056	-32,087
1056,4	-31,727
1056,8	-33,567
1057,2	-33,847
1057,6	-36,887
1058,1	-33,287
1058,5	-33,047
1058,9	-32,287
1059,3	-36,687
1059,7	-36,007
1060,1	-39,407
1060,5	-40,527
1061	-39,447
1061,4	-37,207
1061,8	-35,047
1062,2	-33,127
1062,6	-34,287
1063	-38,647
1063,4	-34,367
1063,8	-40,607
1064,3	-33,647
1064,7	-28,487
1065,1	-23,127
1065,5	-25,367
1065,9	-19,007
1066,3	-28,247
1066,7	-37,967
1067,1	-39,247
1067,6	-35,847
1068	-36,047
1068,4	-29,927
1068,8	-23,567
1069,2	-24,767
1069,6	-29,207
1070	-28,047
1070,4	-33,167
1070,9	-32,247
1071,3	-28,847
1071,7	-28,047
1072,1	-25,407
1072,5	-28,447
1072,9	-24,887
1073,3	-26,167
1073,7	-28,047
1074,2	-36,127
1074,6	-35,007
1075	-45,487
1075,4	-48,807
1075,8	-47,087
1076,2	-37,807
1076,6	-32,927
1077	-29,927
1077,5	-33,447
1077,9	-34,607
1078,3	-36,407
1078,7	-38,287
1079,1	-33,367
1079,5	-27,967
1079,9	-23,927
1080,3	-26,727
1080,7	-28,767
1081,2	-32,407
1081,6	-36,727
1082	-39,247
1082,4	-41,047
1082,8	-38,087
1083,2	-34,807
1083,6	-29,807
1084	-31,327
1084,5	-27,967
1084,9	-29,567
1085,3	-29,687
1085,7	-29,927
1086,1	-23,367
1086,5	-22,167
1086,9	-20,447
1087,3	-25,687
1087,7	-25,887
1088,2	-29,487
1088,6	-30,807
1089	-30,127
1089,4	-24,927
1089,8	-24,407
1090,2	-21,727
1090,6	-24,407
1091	-27,407
1091,4	-32,287
1091,9	-37,367
1092,3	-37,367
1092,7	-37,207
1093,1	-32,887
1093,5	-28,607
1093,9	-23,007
1094,3	-21,687
1094,7	-19,967
1095,1	-21,767
1095,5	-23,967
1096	-24,967
1096,4	-30,407
1096,8	-29,367
1097,2	-30,327
1097,6	-22,847
1098	-24,447
1098,4	-18,847
1098,8	-23,967
1099,2	-23,087
1099,6	-24,847
1100,1	-19,007
1100,5	-20,167
1100,9	-12,807
1101,3	-7,007
1101,7	-11,327
1102,1	-15,247
1102,5	-15,047
1102,9	-16,407
1103,3	-21,367
1103,7	-18,047
1104,2	-16,767
1104,6	-15,447
1105	-16,567
1105,4	-15,447
1105,8	-16,407
1106,2	-13,647
1106,6	-10,887
1107	-7,007
1107,4	-3,207
1107,8	-0,967
1108,3	0,3
