Data from Subt2_00071.txt Node
Date: Fri Aug 11 16:29:20 MSK 2023
User: vat
Spectrometer: MAYP114033
Trigger mode: 0
Integration Time (sec): 5,000000E-1
Scans to average: 5
Electric dark correction enabled: true
Nonlinearity correction enabled: false
Boxcar width: 2
XAxis mode: Wavelengths
Number of Pixels in Spectrum: 2068
>>>>>Begin Spectral Data<<<<<
199,4	-1,433
199,9	-0,933
200,4	-7,793
200,8	-8,953
201,3	-17,233
201,8	-20,153
202,2	-22,353
202,7	-20,633
203,2	-24,113
203,6	-22,873
204,1	-25,993
204,6	-33,873
205	-33,273
205,5	-37,273
206	-35,273
206,4	-35,113
206,9	-33,193
207,4	-37,513
207,8	-29,673
208,3	-30,553
208,8	-28,833
209,2	-26,673
209,7	-29,633
210,2	-32,593
210,6	-39,913
211,1	-48,153
211,5	-48,113
212	-43,353
212,5	-43,273
212,9	-38,953
213,4	-36,033
213,9	-35,873
214,3	-36,353
214,8	-41,113
215,3	-38,513
215,7	-39,833
216,2	-36,553
216,7	-40,433
217,1	-36,313
217,6	-37,713
218,1	-37,993
218,5	-51,993
219	-43,233
219,5	-47,033
219,9	-51,193
220,4	-47,593
220,9	-40,193
221,3	-45,193
221,8	-41,713
222,3	-41,033
222,7	-40,393
223,2	-38,873
223,6	-39,033
224,1	-41,713
224,6	-36,673
225	-43,033
225,5	-37,953
226	-34,033
226,4	-31,553
226,9	-36,233
227,4	-31,233
227,8	-39,393
228,3	-47,193
228,8	-46,633
229,2	-44,833
229,7	-52,393
230,2	-49,713
230,6	-48,833
231,1	-54,193
231,5	-55,553
232	-52,473
232,5	-53,833
232,9	-57,193
233,4	-55,353
233,9	-57,633
234,3	-52,873
234,8	-48,633
235,3	-46,353
235,7	-43,113
236,2	-42,313
236,7	-43,793
237,1	-52,473
237,6	-48,673
238,1	-51,753
238,5	-48,993
239	-50,033
239,4	-48,273
239,9	-42,553
240,4	-42,313
240,8	-42,753
241,3	-39,953
241,8	-35,553
242,2	-43,313
242,7	-41,793
243,2	-39,113
243,6	-40,393
244,1	-45,113
244,6	-46,833
245	-46,633
245,5	-52,433
245,9	-54,313
246,4	-52,673
246,9	-51,913
247,3	-58,713
247,8	-55,113
248,3	-54,753
248,7	-57,673
249,2	-60,273
249,7	-57,913
250,1	-62,753
250,6	-63,793
251	-62,833
251,5	-60,313
252	-63,193
252,4	-62,393
252,9	-56,993
253,4	-53,873
253,8	-52,033
254,3	-45,673
254,8	-42,713
255,2	-39,233
255,7	-36,673
256,1	-35,073
256,6	-37,953
257,1	-39,233
257,5	-45,313
258	-47,673
258,5	-51,793
258,9	-47,313
259,4	-40,993
259,9	-38,553
260,3	-40,553
260,8	-36,913
261,2	-37,673
261,7	-43,113
262,2	-48,433
262,6	-45,153
263,1	-43,673
263,6	-50,233
264	-44,753
264,5	-42,513
264,9	-45,033
265,4	-47,513
265,9	-38,353
266,3	-45,073
266,8	-43,393
267,3	-46,313
267,7	-47,833
268,2	-50,113
268,7	-44,473
269,1	-46,433
269,6	-42,953
270	-43,993
270,5	-49,513
271	-55,673
271,4	-57,713
271,9	-56,633
272,4	-52,313
272,8	-50,273
273,3	-52,073
273,7	-47,673
274,2	-42,953
274,7	-47,633
275,1	-45,233
275,6	-38,153
276,1	-41,753
276,5	-47,393
277	-45,793
277,4	-48,113
277,9	-53,473
278,4	-52,673
278,8	-54,073
279,3	-52,553
279,8	-52,873
280,2	-53,153
280,7	-52,953
281,1	-51,753
281,6	-54,993
282,1	-48,233
282,5	-45,273
283	-46,633
283,4	-48,033
283,9	-41,113
284,4	-46,113
284,8	-42,713
285,3	-38,313
285,8	-37,033
286,2	-40,153
286,7	-36,913
287,1	-40,393
287,6	-40,193
288,1	-37,353
288,5	-37,673
289	-42,553
289,5	-42,793
289,9	-40,913
290,4	-43,153
290,8	-40,273
291,3	-41,193
291,8	-42,393
292,2	-43,313
292,7	-43,673
293,1	-48,753
293,6	-47,993
294,1	-46,313
294,5	-58,513
295	-50,913
295,5	-43,513
295,9	-42,313
296,4	-44,873
296,8	-32,753
297,3	-39,993
297,8	-47,753
298,2	-53,233
298,7	-52,273
299,1	-57,073
299,6	-51,793
300,1	-51,193
300,5	-44,873
301	-41,553
301,5	-39,913
301,9	-50,193
302,4	-50,553
302,8	-51,713
303,3	-52,833
303,8	-55,873
304,2	-55,753
304,7	-54,473
305,1	-52,473
305,6	-51,753
306,1	-50,113
306,5	-49,633
307	-49,993
307,4	-49,793
307,9	-48,913
308,4	-43,913
308,8	-34,913
309,3	-33,913
309,8	-36,913
310,2	-38,153
310,7	-40,073
311,1	-52,593
311,6	-53,793
312,1	-52,513
312,5	-56,233
313	-59,873
313,4	-52,913
313,9	-55,233
314,4	-50,313
314,8	-47,993
315,3	-42,873
315,7	-42,913
316,2	-46,593
316,7	-52,073
317,1	-52,833
317,6	-58,433
318	-53,033
318,5	-45,953
319	-47,673
319,4	-50,833
319,9	-45,473
320,3	-47,393
320,8	-42,593
321,3	-39,873
321,7	-33,673
322,2	-39,233
322,6	-39,353
323,1	-50,073
323,6	-52,273
324	-51,233
324,5	-55,633
324,9	-59,833
325,4	-49,473
325,9	-46,713
326,3	-43,193
326,8	-38,313
327,2	-36,713
327,7	-42,393
328,2	-43,473
328,6	-48,633
329,1	-46,593
329,5	-42,033
330	-39,633
330,5	-43,833
330,9	-45,433
331,4	-45,073
331,8	-49,713
332,3	-46,633
332,8	-45,833
333,2	-50,673
333,7	-52,153
334,1	-52,593
334,6	-60,393
335,1	-58,673
335,5	-51,713
336	-52,113
336,4	-50,833
336,9	-46,113
337,4	-45,113
337,8	-46,633
338,3	-46,913
338,7	-46,033
339,2	-45,633
339,7	-40,953
340,1	-43,273
340,6	-40,913
341	-40,313
341,5	-44,633
342	-46,273
342,4	-45,033
342,9	-41,473
343,3	-43,633
343,8	-41,593
344,2	-40,673
344,7	-41,873
345,2	-45,313
345,6	-47,113
346,1	-45,993
346,5	-46,513
347	-48,433
347,5	-49,313
347,9	-42,593
348,4	-40,073
348,8	-43,633
349,3	-38,953
349,8	-40,353
350,2	-42,473
350,7	-46,993
351,1	-45,393
351,6	-45,713
352	-44,673
352,5	-41,673
353	-38,233
353,4	-35,553
353,9	-25,073
354,3	-19,553
354,8	-13,953
355,3	0,287
355,7	9,327
356,2	12,887
356,6	23,407
357,1	36,607
357,5	47,807
358	65,727
358,5	89,487
358,9	119,007
359,4	145,607
359,8	170,847
360,3	206,807
360,8	238,527
361,2	281,727
361,7	323,327
362,1	371,847
362,6	429,647
363	494,727
363,5	552,007
364	621,607
364,4	697,487
364,9	759,487
365,3	829,847
365,8	899,887
366,3	963,127
366,7	1029,487
367,2	1085,407
367,6	1128,407
368,1	1165,527
368,5	1186,087
369	1191,367
369,5	1191,087
369,9	1189,327
370,4	1162,687
370,8	1138,687
371,3	1106,727
371,7	1065,967
372,2	1011,447
372,7	963,487
373,1	914,127
373,6	853,047
374	800,087
374,5	744,087
374,9	692,927
375,4	636,447
375,9	587,047
376,3	537,327
376,8	495,087
377,2	453,087
377,7	415,287
378,2	379,047
378,6	342,487
379,1	305,967
379,5	271,247
380	243,767
380,4	220,367
380,9	196,727
381,4	180,127
381,8	166,967
382,3	150,527
382,7	135,767
383,2	124,727
383,6	113,047
384,1	100,287
384,6	92,127
385	75,847
385,5	70,887
385,9	62,927
386,4	56,087
386,8	39,607
387,3	42,487
387,7	34,807
388,2	21,007
388,7	20,607
389,1	20,207
389,6	11,967
390	3,647
390,5	4,847
390,9	-7,073
391,4	-11,793
391,9	-11,513
392,3	-9,113
392,8	-11,193
393,2	-10,153
393,7	-9,313
394,1	-12,393
394,6	-9,433
395,1	-9,753
395,5	-10,473
396	-9,313
396,4	-15,913
396,9	-19,633
397,3	-18,473
397,8	-17,873
398,2	-17,513
398,7	-13,193
399,2	-13,753
399,6	-21,313
400,1	-21,033
400,5	-26,393
401	-28,153
401,4	-30,393
401,9	-23,753
402,4	-26,033
402,8	-27,073
403,3	-26,633
403,7	-25,913
404,2	-24,153
404,6	-27,113
405,1	-20,473
405,5	-17,913
406	-19,793
406,5	-23,353
406,9	-23,913
407,4	-20,113
407,8	-21,833
408,3	-17,833
408,7	-15,833
409,2	-10,633
409,6	-18,353
410,1	-14,233
410,6	-6,753
411	-10,353
411,5	-8,593
411,9	3,207
412,4	6,447
412,8	0,207
413,3	5,807
413,7	13,767
414,2	10,687
414,7	18,727
415,1	27,647
415,6	34,087
416	36,487
416,5	37,847
416,9	41,567
417,4	43,367
417,8	49,967
418,3	53,967
418,8	66,607
419,2	73,007
419,7	83,807
420,1	89,167
420,6	93,087
421	97,007
421,5	94,247
421,9	102,007
422,4	112,207
422,8	124,247
423,3	138,447
423,8	155,607
424,2	157,247
424,7	163,207
425,1	177,447
425,6	181,807
426	190,247
426,5	205,287
426,9	223,527
427,4	235,727
427,9	252,967
428,3	264,647
428,8	282,327
429,2	296,447
429,7	316,087
430,1	334,847
430,6	357,927
431	375,847
431,5	400,807
431,9	413,847
432,4	432,087
432,8	460,087
433,3	486,247
433,8	508,607
434,2	536,047
434,7	558,927
435,1	583,887
435,6	613,927
436	643,327
436,5	678,127
436,9	714,407
437,4	756,567
437,8	797,207
438,3	841,047
438,8	881,167
439,2	926,967
439,7	967,247
440,1	1004,607
440,6	1041,567
441	1096,407
441,5	1140,247
441,9	1183,247
442,4	1236,727
442,8	1294,807
443,3	1339,007
443,7	1397,927
444,2	1464,967
444,7	1528,047
445,1	1599,487
445,6	1666,607
446	1735,487
446,5	1800,727
446,9	1874,367
447,4	1942,687
447,8	2017,847
448,3	2097,367
448,7	2171,087
449,2	2249,927
449,6	2328,247
450,1	2402,167
450,6	2484,967
451	2565,247
451,5	2647,607
451,9	2718,807
452,4	2811,647
452,8	2905,647
453,3	3002,847
453,7	3100,447
454,2	3209,687
454,6	3319,047
455,1	3417,007
455,5	3527,007
456	3623,687
456,4	3727,327
456,9	3830,767
457,3	3940,567
457,8	4039,487
458,3	4152,287
458,7	4262,887
459,2	4368,647
459,6	4478,887
460,1	4591,407
460,5	4716,727
461	4836,447
461,4	4961,207
461,9	5082,087
462,3	5209,767
462,8	5324,527
463,2	5456,687
463,7	5575,407
464,1	5701,167
464,6	5819,367
465	5941,127
465,5	6052,567
466	6171,607
466,4	6284,287
466,9	6404,367
467,3	6522,847
467,8	6640,087
468,2	6762,007
468,7	6881,767
469,1	7011,047
469,6	7122,967
470	7239,007
470,5	7358,207
470,9	7478,127
471,4	7579,207
471,8	7700,887
472,3	7820,087
472,7	7930,327
473,2	8030,847
473,6	8140,327
474,1	8231,007
474,5	8329,727
475	8427,927
475,4	8533,927
475,9	8628,887
476,4	8727,527
476,8	8820,487
477,3	8904,727
477,7	8986,407
478,2	9080,527
478,6	9162,847
479,1	9242,647
479,5	9315,047
480	9386,767
480,4	9451,087
480,9	9514,167
481,3	9571,007
481,8	9638,687
482,2	9697,047
482,7	9751,047
483,1	9820,607
483,6	9873,847
484	9930,687
484,5	9978,607
484,9	10010,207
485,4	10031,327
485,8	10064,327
486,3	10079,327
486,7	10096,847
487,2	10125,287
487,6	10156,087
488,1	10167,087
488,5	10176,567
489	10197,167
489,4	10207,007
489,9	10197,527
490,4	10195,927
490,8	10195,847
491,3	10171,927
491,7	10153,967
492,2	10146,767
492,6	10127,687
493,1	10105,207
493,5	10089,167
494	10062,607
494,4	10027,647
494,9	9991,487
495,3	9952,527
495,8	9917,327
496,2	9882,887
496,7	9852,287
497,1	9818,567
497,6	9785,887
498	9737,647
498,5	9694,447
498,9	9652,767
499,4	9614,287
499,8	9571,927
500,3	9525,007
500,7	9470,167
501,2	9408,847
501,6	9349,847
502,1	9283,007
502,5	9222,727
503	9178,607
503,4	9120,807
503,9	9055,727
504,3	8997,167
504,8	8943,847
505,2	8859,407
505,7	8796,527
506,1	8737,647
506,6	8662,527
507	8583,687
507,5	8522,967
507,9	8445,487
508,4	8360,087
508,8	8304,127
509,3	8235,527
509,7	8152,527
510,2	8086,487
510,6	8016,607
511,1	7934,527
511,5	7849,647
512	7771,407
512,4	7684,847
512,9	7611,167
513,3	7532,847
513,8	7463,487
514,2	7384,487
514,7	7303,127
515,1	7225,087
515,6	7138,727
516	7070,927
516,5	7007,887
516,9	6934,367
517,4	6861,967
517,8	6789,607
518,3	6707,367
518,7	6626,247
519,2	6555,287
519,6	6477,207
520,1	6416,527
520,5	6345,367
521	6273,687
521,4	6201,127
521,9	6130,167
522,3	6051,807
522,8	5984,407
523,2	5918,687
523,7	5860,807
524,1	5786,127
524,6	5725,727
525	5667,687
525,5	5604,647
525,9	5531,887
526,4	5483,567
526,8	5415,127
527,3	5348,567
527,7	5293,087
528,2	5236,607
528,6	5170,887
529,1	5109,887
529,5	5047,287
530	4986,807
530,4	4918,727
530,9	4869,247
531,3	4817,287
531,8	4765,167
532,2	4704,767
532,6	4660,967
533,1	4605,687
533,5	4551,447
534	4494,407
534,4	4447,047
534,9	4388,967
535,3	4341,887
535,8	4293,007
536,2	4237,967
536,7	4191,887
537,1	4151,327
537,6	4101,447
538	4057,247
538,5	4027,527
538,9	3978,007
539,4	3939,407
539,8	3899,047
540,3	3859,527
540,7	3811,047
541,2	3762,767
541,6	3714,927
542,1	3665,127
542,5	3625,767
543	3584,647
543,4	3554,767
543,9	3518,367
544,3	3493,887
544,8	3453,687
545,2	3413,887
545,7	3370,767
546,1	3339,367
546,5	3301,847
547	3266,607
547,4	3238,927
547,9	3211,887
548,3	3175,927
548,8	3141,047
549,2	3112,727
549,7	3089,567
550,1	3067,607
550,6	3038,447
551	3001,487
551,5	2971,847
551,9	2935,567
552,4	2897,807
552,8	2870,927
553,3	2854,447
553,7	2827,407
554,2	2808,447
554,6	2794,567
555,1	2776,487
555,5	2756,327
555,9	2739,607
556,4	2712,807
556,8	2689,687
557,3	2660,967
557,7	2627,687
558,2	2598,807
558,6	2582,367
559,1	2546,847
559,5	2525,087
560	2510,407
560,4	2486,407
560,9	2454,607
561,3	2446,247
561,8	2422,087
562,2	2395,447
562,7	2376,327
563,1	2361,527
563,6	2339,807
564	2324,447
564,4	2314,167
564,9	2292,407
565,3	2267,767
565,8	2247,647
566,2	2226,207
566,7	2200,167
567,1	2188,487
567,6	2177,527
568	2157,367
568,5	2145,447
568,9	2128,127
569,4	2116,287
569,8	2094,687
570,3	2084,807
570,7	2069,407
571,1	2061,727
571,6	2050,127
572	2038,767
572,5	2018,447
572,9	1996,967
573,4	1979,207
573,8	1955,247
574,3	1947,327
574,7	1934,847
575,2	1923,287
575,6	1911,567
576,1	1896,487
576,5	1878,487
576,9	1870,847
577,4	1858,247
577,8	1836,807
578,3	1818,407
578,7	1805,527
579,2	1784,447
579,6	1774,007
580,1	1766,007
580,5	1762,127
581	1746,527
581,4	1735,687
581,9	1717,727
582,3	1713,607
582,7	1696,847
583,2	1688,007
583,6	1678,967
584,1	1673,247
584,5	1657,287
585	1650,007
585,4	1633,767
585,9	1621,207
586,3	1605,287
586,8	1592,567
587,2	1580,407
587,6	1568,527
588,1	1559,767
588,5	1546,887
589	1531,487
589,4	1520,527
589,9	1514,807
590,3	1505,967
590,8	1501,207
591,2	1493,487
591,7	1485,247
592,1	1475,887
592,5	1455,047
593	1451,447
593,4	1437,567
593,9	1423,167
594,3	1411,847
594,8	1411,287
595,2	1400,567
595,7	1397,967
596,1	1396,167
596,6	1388,967
597	1382,447
597,4	1374,247
597,9	1366,767
598,3	1359,767
598,8	1355,847
599,2	1353,087
599,7	1348,487
600,1	1343,207
600,6	1333,567
601	1328,727
601,4	1323,727
601,9	1309,247
602,3	1302,767
602,8	1292,687
603,2	1279,767
603,7	1267,367
604,1	1260,927
604,6	1252,647
605	1253,327
605,4	1245,367
605,9	1229,847
606,3	1228,327
606,8	1216,327
607,2	1207,487
607,7	1199,847
608,1	1199,607
608,6	1187,727
609	1183,367
609,4	1171,847
609,9	1164,287
610,3	1150,727
610,8	1141,767
611,2	1127,687
611,7	1118,327
612,1	1110,847
612,6	1103,287
613	1099,967
613,4	1097,407
613,9	1098,647
614,3	1093,807
614,8	1092,607
615,2	1080,687
615,7	1072,207
616,1	1057,887
616,6	1046,767
617	1040,967
617,4	1040,007
617,9	1038,527
618,3	1033,607
618,8	1027,807
619,2	1022,887
619,7	1017,447
620,1	1006,687
620,5	992,967
621	989,207
621,4	976,167
621,9	962,607
622,3	955,527
622,8	959,127
623,2	955,767
623,6	956,807
624,1	953,287
624,5	946,247
625	934,047
625,4	918,807
625,9	905,527
626,3	903,607
626,8	902,287
627,2	897,447
627,6	900,567
628,1	899,007
628,5	888,927
629	887,087
629,4	884,527
629,9	876,167
630,3	865,167
630,7	859,887
631,2	845,327
631,6	833,807
632,1	823,047
632,5	819,727
633	808,847
633,4	802,807
633,8	798,087
634,3	794,247
634,7	786,727
635,2	787,927
635,6	781,367
636,1	781,567
636,5	781,287
636,9	776,767
637,4	768,687
637,8	765,887
638,3	755,607
638,7	739,087
639,2	732,407
639,6	723,487
640	711,167
640,5	710,927
640,9	716,887
641,4	712,367
641,8	707,567
642,2	713,247
642,7	709,087
643,1	703,847
643,6	696,087
644	692,927
644,5	688,887
644,9	687,487
645,3	684,247
645,8	678,327
646,2	673,167
646,7	663,887
647,1	657,367
647,6	649,647
648	647,087
648,4	645,567
648,9	645,087
649,3	631,607
649,8	623,967
650,2	618,807
650,6	609,087
651,1	604,727
651,5	604,447
652	603,207
652,4	602,567
652,9	602,447
653,3	593,807
653,7	588,047
654,2	583,727
654,6	583,127
655,1	582,487
655,5	580,967
655,9	580,367
656,4	575,407
656,8	566,047
657,3	558,647
657,7	551,767
658,2	547,127
658,6	538,927
659	538,727
659,5	533,327
659,9	528,527
660,4	525,727
660,8	524,807
661,2	516,727
661,7	512,527
662,1	512,247
662,6	504,407
663	497,127
663,4	498,967
663,9	492,927
664,3	488,007
664,8	483,607
665,2	481,527
665,6	480,287
666,1	474,927
666,5	467,767
667	467,447
667,4	460,207
667,9	450,167
668,3	443,367
668,7	445,207
669,2	435,767
669,6	438,127
670,1	431,007
670,5	436,087
670,9	426,327
671,4	428,047
671,8	431,367
672,3	439,247
672,7	433,567
673,1	430,407
673,6	423,007
674	418,487
674,5	400,287
674,9	393,727
675,3	393,447
675,8	389,647
676,2	380,407
676,7	383,687
677,1	384,287
677,5	380,207
678	381,967
678,4	381,287
678,9	373,407
679,3	370,087
679,7	368,207
680,2	362,167
680,6	354,927
681,1	357,247
681,5	359,687
681,9	356,207
682,4	359,527
682,8	360,687
683,3	357,607
683,7	345,567
684,1	344,687
684,6	337,007
685	332,927
685,5	329,047
685,9	331,287
686,3	323,767
686,8	315,127
687,2	308,007
687,7	303,967
688,1	303,087
688,5	306,807
689	306,087
689,4	302,367
689,9	301,887
690,3	296,967
690,7	292,887
691,2	293,207
691,6	294,967
692	291,807
692,5	288,607
692,9	284,007
693,4	286,767
693,8	290,327
694,2	289,687
694,7	285,047
695,1	280,127
695,6	275,527
696	268,767
696,4	267,407
696,9	273,247
697,3	274,487
697,8	268,487
698,2	264,127
698,6	256,607
699,1	247,127
699,5	247,327
699,9	242,527
700,4	235,927
700,8	235,687
701,3	230,167
701,7	225,767
702,1	225,687
702,6	224,367
703	227,047
703,5	225,647
703,9	222,647
704,3	224,527
704,8	226,967
705,2	223,927
705,6	237,447
706,1	233,327
706,5	224,967
707	222,567
707,4	220,527
707,8	204,047
708,3	204,607
708,7	208,047
709,2	199,927
709,6	195,527
710	192,567
710,5	188,047
710,9	176,887
711,3	175,127
711,8	174,247
712,2	179,247
712,7	176,767
713,1	185,847
713,5	190,487
714	188,727
714,4	185,127
714,8	191,687
715,3	188,887
715,7	188,727
716,2	185,847
716,6	182,847
717	177,127
717,5	174,967
717,9	170,527
718,3	170,047
718,8	169,727
719,2	167,487
719,7	166,367
720,1	163,287
720,5	158,967
721	153,607
721,4	150,887
721,8	147,367
722,3	147,367
722,7	139,447
723,2	142,887
723,6	137,887
724	135,807
724,5	129,047
724,9	140,847
725,3	134,807
725,8	141,127
726,2	138,127
726,7	146,487
727,1	140,367
727,5	139,407
728	133,727
728,4	132,527
728,8	126,327
729,3	126,887
729,7	128,007
730,1	129,047
730,6	131,767
731	130,927
731,5	127,567
731,9	129,567
732,3	134,287
732,8	128,247
733,2	128,767
733,6	130,567
734,1	122,327
734,5	116,727
734,9	117,647
735,4	110,207
735,8	107,367
736,3	115,167
736,7	105,087
737,1	109,047
737,6	116,447
738	112,047
738,4	107,447
738,9	114,247
739,3	110,967
739,7	109,527
740,2	105,367
740,6	103,847
741,1	102,927
741,5	99,647
741,9	99,847
742,4	100,327
742,8	99,447
743,2	93,767
743,7	89,887
744,1	84,647
744,5	85,247
745	87,327
745,4	93,487
745,8	95,087
746,3	92,367
746,7	91,767
747,2	88,127
747,6	81,447
748	83,167
748,5	88,887
748,9	88,367
749,3	87,007
749,8	85,727
750,2	79,087
750,6	75,367
751,1	75,447
751,5	71,967
751,9	78,887
752,4	84,527
752,8	82,807
753,3	82,207
753,7	85,927
754,1	82,727
754,6	83,367
755	83,287
755,4	84,567
755,9	79,367
756,3	71,727
756,7	69,447
757,2	63,647
757,6	61,007
758	65,127
758,5	68,407
758,9	63,247
759,3	68,767
759,8	71,927
760,2	63,087
760,6	61,247
761,1	62,367
761,5	59,647
761,9	58,567
762,4	62,687
762,8	63,287
763,3	64,447
763,7	63,287
764,1	59,447
764,6	59,207
765	59,407
765,4	58,527
765,9	58,727
766,3	54,887
766,7	53,567
767,2	51,687
767,6	50,447
768	52,247
768,5	52,767
768,9	54,887
769,3	50,127
769,8	45,127
770,2	41,207
770,6	44,247
771,1	47,247
771,5	49,847
771,9	54,767
772,4	52,087
772,8	53,247
773,2	42,327
773,7	41,527
774,1	43,647
774,5	43,407
775	39,927
775,4	44,687
775,8	44,767
776,3	39,967
776,7	41,207
777,1	40,407
777,6	40,687
778	41,047
778,4	46,527
778,9	43,687
779,3	41,727
779,7	40,087
780,2	42,087
780,6	36,927
781	44,687
781,5	46,327
781,9	41,047
782,3	38,487
782,8	35,287
783,2	32,047
783,6	27,727
784,1	29,047
784,5	22,527
784,9	19,327
785,4	19,287
785,8	24,567
786,2	21,087
786,7	23,367
787,1	25,527
787,5	16,487
788	16,567
788,4	17,727
788,8	16,967
789,3	21,447
789,7	24,927
790,1	25,847
790,6	28,287
791	26,687
791,4	21,847
791,9	20,807
792,3	9,927
792,7	14,527
793,2	19,127
793,6	17,087
794	19,767
794,5	27,367
794,9	25,087
795,3	20,847
795,8	21,807
796,2	20,967
796,6	13,127
797,1	8,607
797,5	9,087
797,9	9,607
798,4	12,047
798,8	16,487
799,2	20,567
799,7	20,247
800,1	21,967
800,5	18,727
801	12,487
801,4	8,247
801,8	10,807
802,2	8,447
802,7	8,487
803,1	13,207
803,5	13,607
804	17,207
804,4	14,287
804,8	5,807
805,3	5,967
805,7	4,887
806,1	-3,033
806,6	0,887
807	4,047
807,4	0,847
807,9	8,167
808,3	5,567
808,7	3,807
809,2	7,727
809,6	6,327
810	-0,953
810,4	4,247
810,9	0,407
811,3	-3,593
811,7	4,527
812,2	7,207
812,6	1,687
813	7,647
813,5	12,887
813,9	8,487
814,3	10,407
814,8	13,887
815,2	6,687
815,6	-1,113
816,1	-2,673
816,5	-9,433
816,9	-5,553
817,3	-2,673
817,8	-1,033
818,2	-6,313
818,6	-5,553
819,1	-9,953
819,5	-2,913
819,9	2,927
820,4	9,127
820,8	8,287
821,2	2,247
821,7	-0,513
822,1	-7,873
822,5	-10,913
822,9	-16,793
823,4	-9,233
823,8	-12,193
824,2	-14,033
824,7	-13,793
825,1	-7,313
825,5	-12,553
826	-13,793
826,4	-10,793
826,8	-10,593
827,3	-14,913
827,7	-17,233
828,1	-15,633
828,5	-17,473
829	-17,673
829,4	-18,153
829,8	-19,193
830,3	-18,513
830,7	-17,193
831,1	-22,273
831,6	-15,913
832	-11,553
832,4	-17,713
832,8	-17,953
833,3	-10,753
833,7	-12,553
834,1	-16,713
834,6	-17,393
835	-15,953
835,4	-17,553
835,8	-18,473
836,3	-14,113
836,7	-10,473
837,1	-11,993
837,6	-15,953
838	-15,073
838,4	-16,913
838,9	-21,233
839,3	-21,953
839,7	-18,313
840,1	-18,753
840,6	-19,233
841	-15,513
841,4	-13,633
841,9	-13,753
842,3	-16,233
842,7	-17,993
843,1	-18,793
843,6	-25,633
844	-27,073
844,4	-26,873
844,9	-25,633
845,3	-22,033
845,7	-17,793
846,2	-22,073
846,6	-16,713
847	-21,793
847,4	-29,073
847,9	-27,313
848,3	-27,633
848,7	-36,353
849,2	-32,673
849,6	-34,513
850	-37,113
850,4	-37,033
850,9	-36,753
851,3	-35,793
851,7	-34,833
852,2	-32,953
852,6	-29,753
853	-28,273
853,4	-23,993
853,9	-24,433
854,3	-21,393
854,7	-18,193
855,2	-17,593
855,6	-23,753
856	-21,633
856,4	-24,073
856,9	-25,473
857,3	-25,873
857,7	-22,633
858,2	-25,913
858,6	-27,433
859	-31,873
859,4	-28,433
859,9	-30,953
860,3	-28,313
860,7	-29,433
861,1	-24,393
861,6	-30,473
862	-33,233
862,4	-30,833
862,9	-33,953
863,3	-36,433
863,7	-35,353
864,1	-31,953
864,6	-32,793
865	-28,313
865,4	-31,593
865,9	-33,113
866,3	-36,273
866,7	-36,033
867,1	-36,153
867,6	-33,033
868	-29,233
868,4	-24,433
868,8	-26,873
869,3	-26,793
869,7	-28,553
870,1	-31,553
870,6	-33,833
871	-31,513
871,4	-32,873
871,8	-33,873
872,3	-34,753
872,7	-36,233
873,1	-31,513
873,5	-32,073
874	-30,953
874,4	-28,033
874,8	-30,273
875,3	-35,553
875,7	-33,793
876,1	-34,033
876,5	-38,273
877	-32,993
877,4	-34,393
877,8	-37,353
878,2	-35,433
878,7	-31,553
879,1	-31,273
879,5	-28,993
879,9	-28,193
880,4	-24,433
880,8	-28,753
881,2	-32,113
881,7	-37,513
882,1	-35,113
882,5	-38,233
882,9	-36,553
883,4	-33,113
883,8	-29,313
884,2	-29,113
884,6	-26,313
885,1	-24,953
885,5	-22,753
885,9	-26,833
886,3	-29,473
886,8	-32,153
887,2	-30,753
887,6	-33,433
888	-39,353
888,5	-38,433
888,9	-40,033
889,3	-41,633
889,8	-40,273
890,2	-30,113
890,6	-31,113
891	-32,193
891,5	-32,353
891,9	-35,713
892,3	-40,113
892,7	-42,793
893,2	-34,993
893,6	-35,753
894	-36,673
894,4	-33,593
894,9	-30,833
895,3	-34,433
895,7	-31,473
896,1	-28,433
896,6	-27,633
897	-30,633
897,4	-32,073
897,8	-33,913
898,3	-36,153
898,7	-29,513
899,1	-30,033
899,5	-32,913
900	-34,553
900,4	-29,873
900,8	-39,473
901,2	-36,393
901,7	-33,353
902,1	-31,473
902,5	-36,633
902,9	-33,153
903,4	-30,073
903,8	-36,273
904,2	-31,233
904,6	-33,353
905,1	-33,793
905,5	-38,793
905,9	-32,433
906,3	-37,953
906,8	-33,153
907,2	-34,993
907,6	-36,073
908	-41,193
908,5	-40,873
908,9	-42,833
909,3	-47,193
909,7	-43,193
910,2	-39,553
910,6	-42,073
911	-41,753
911,4	-40,113
911,9	-45,473
912,3	-48,073
912,7	-46,113
913,1	-48,193
913,6	-45,033
914	-45,953
914,4	-50,313
914,8	-50,113
915,3	-52,193
915,7	-49,753
916,1	-46,633
916,5	-34,633
916,9	-33,073
917,4	-25,433
917,8	-30,553
918,2	-28,873
918,6	-37,473
919,1	-40,233
919,5	-49,193
919,9	-44,993
920,3	-44,353
920,8	-44,193
921,2	-46,433
921,6	-41,513
922	-44,513
922,5	-42,313
922,9	-48,273
923,3	-42,793
923,7	-41,833
924,2	-35,033
924,6	-35,953
925	-28,633
925,4	-29,673
925,8	-31,313
926,3	-39,993
926,7	-47,113
927,1	-44,153
927,5	-48,713
928	-50,633
928,4	-46,713
928,8	-39,153
929,2	-45,953
929,7	-38,753
930,1	-33,793
930,5	-31,313
930,9	-33,353
931,3	-32,193
931,8	-40,233
932,2	-42,753
932,6	-48,473
933	-49,233
933,5	-48,273
933,9	-39,793
934,3	-43,673
934,7	-39,153
935,2	-34,233
935,6	-30,913
936	-42,593
936,4	-46,993
936,8	-49,113
937,3	-57,593
937,7	-59,313
938,1	-52,393
938,5	-49,713
939	-51,153
939,4	-47,233
939,8	-48,873
940,2	-49,073
940,6	-47,633
941,1	-47,433
941,5	-48,833
941,9	-51,113
942,3	-50,833
942,8	-47,993
943,2	-43,273
943,6	-46,273
944	-43,713
944,4	-48,073
944,9	-50,033
945,3	-53,793
945,7	-50,153
946,1	-51,873
946,6	-51,953
947	-49,513
947,4	-50,873
947,8	-48,313
948,2	-43,753
948,7	-40,033
949,1	-38,313
949,5	-33,793
949,9	-36,633
950,3	-41,873
950,8	-41,153
951,2	-41,433
951,6	-44,193
952	-41,993
952,5	-36,913
952,9	-33,513
953,3	-39,553
953,7	-35,513
954,1	-36,753
954,6	-38,673
955	-37,073
955,4	-32,233
955,8	-32,193
956,2	-37,193
956,7	-38,113
957,1	-47,993
957,5	-51,633
957,9	-57,193
958,3	-51,233
958,8	-49,713
959,2	-45,273
959,6	-40,513
960	-37,473
960,5	-35,953
960,9	-35,473
961,3	-36,673
961,7	-35,713
962,1	-39,553
962,6	-40,393
963	-38,233
963,4	-32,913
963,8	-37,793
964,2	-47,513
964,7	-51,233
965,1	-53,713
965,5	-65,633
965,9	-68,713
966,3	-54,913
966,8	-50,393
967,2	-52,633
967,6	-45,633
968	-41,273
968,4	-42,273
968,9	-46,393
969,3	-40,273
969,7	-39,553
970,1	-41,713
970,5	-44,473
971	-40,393
971,4	-42,953
971,8	-39,553
972,2	-39,593
972,6	-42,153
973,1	-47,593
973,5	-55,633
973,9	-56,913
974,3	-54,793
974,7	-47,313
975,2	-47,793
975,6	-44,553
976	-45,353
976,4	-46,593
976,8	-46,593
977,3	-46,353
977,7	-39,673
978,1	-43,433
978,5	-37,393
978,9	-49,033
979,4	-40,993
979,8	-41,633
980,2	-36,633
980,6	-35,993
981	-22,753
981,5	-29,153
981,9	-31,753
982,3	-34,433
982,7	-39,513
983,1	-46,713
983,6	-42,833
984	-41,033
984,4	-41,833
984,8	-39,273
985,2	-33,233
985,6	-37,553
986,1	-42,313
986,5	-41,353
986,9	-40,673
987,3	-47,913
987,7	-45,313
988,2	-46,313
988,6	-41,873
989	-44,913
989,4	-46,793
989,8	-51,033
990,3	-49,193
990,7	-56,553
991,1	-56,593
991,5	-51,433
991,9	-46,473
992,3	-47,073
992,8	-44,673
993,2	-41,513
993,6	-44,433
994	-48,113
994,4	-49,513
994,9	-47,673
995,3	-51,313
995,7	-48,953
996,1	-49,113
996,5	-43,873
996,9	-52,993
997,4	-61,633
997,8	-64,633
998,2	-60,713
998,6	-65,713
999	-61,233
999,5	-54,313
999,9	-55,193
1000,3	-55,993
1000,7	-54,913
1001,1	-53,273
1001,5	-51,953
1002	-50,113
1002,4	-51,833
1002,8	-50,953
1003,2	-52,153
1003,6	-49,073
1004	-46,553
1004,5	-45,033
1004,9	-43,713
1005,3	-46,753
1005,7	-56,113
1006,1	-59,793
1006,6	-61,513
1007	-62,713
1007,4	-55,633
1007,8	-46,313
1008,2	-45,073
1008,6	-44,033
1009,1	-46,473
1009,5	-50,233
1009,9	-53,033
1010,3	-49,313
1010,7	-50,553
1011,1	-45,553
1011,6	-36,553
1012	-35,273
1012,4	-37,233
1012,8	-37,433
1013,2	-43,113
1013,6	-53,633
1014,1	-55,633
1014,5	-55,473
1014,9	-52,393
1015,3	-49,753
1015,7	-45,513
1016,1	-49,153
1016,6	-55,313
1017	-53,913
1017,4	-51,673
1017,8	-54,553
1018,2	-48,593
1018,6	-41,473
1019,1	-42,353
1019,5	-39,993
1019,9	-34,393
1020,3	-39,673
1020,7	-45,233
1021,1	-49,073
1021,6	-49,113
1022	-53,073
1022,4	-47,033
1022,8	-42,713
1023,2	-39,513
1023,6	-47,953
1024,1	-44,953
1024,5	-51,713
1024,9	-52,353
1025,3	-61,553
1025,7	-57,073
1026,1	-60,593
1026,6	-55,553
1027	-52,993
1027,4	-45,553
1027,8	-49,993
1028,2	-50,513
1028,6	-49,993
1029	-51,433
1029,5	-51,913
1029,9	-44,513
1030,3	-45,193
1030,7	-50,273
1031,1	-56,073
1031,5	-61,793
1032	-66,593
1032,4	-65,353
1032,8	-63,313
1033,2	-60,793
1033,6	-60,113
1034	-56,113
1034,4	-58,873
1034,9	-59,113
1035,3	-61,993
1035,7	-58,553
1036,1	-62,033
1036,5	-58,553
1036,9	-56,073
1037,4	-51,073
1037,8	-48,073
1038,2	-49,353
1038,6	-50,713
1039	-55,353
1039,4	-56,473
1039,8	-63,113
1040,3	-65,793
1040,7	-62,153
1041,1	-64,073
1041,5	-62,313
1041,9	-57,753
1042,3	-54,833
1042,7	-60,273
1043,2	-57,993
1043,6	-60,113
1044	-61,113
1044,4	-55,193
1044,8	-48,953
1045,2	-43,833
1045,6	-38,273
1046,1	-37,793
1046,5	-39,673
1046,9	-48,193
1047,3	-46,593
1047,7	-51,033
1048,1	-55,793
1048,5	-66,393
1049	-61,833
1049,4	-68,153
1049,8	-66,193
1050,2	-56,993
1050,6	-45,513
1051	-47,833
1051,4	-49,633
1051,9	-58,033
1052,3	-64,233
1052,7	-73,033
1053,1	-70,233
1053,5	-67,433
1053,9	-59,753
1054,3	-63,313
1054,8	-58,353
1055,2	-60,593
1055,6	-56,993
1056	-60,233
1056,4	-56,833
1056,8	-53,913
1057,2	-47,553
1057,6	-49,993
1058,1	-52,433
1058,5	-54,313
1058,9	-59,393
1059,3	-60,753
1059,7	-65,073
1060,1	-60,073
1060,5	-61,913
1061	-58,193
1061,4	-63,353
1061,8	-55,913
1062,2	-56,033
1062,6	-56,473
1063	-60,473
1063,4	-59,993
1063,8	-56,713
1064,3	-53,193
1064,7	-48,873
1065,1	-47,953
1065,5	-42,313
1065,9	-48,433
1066,3	-51,953
1066,7	-50,753
1067,1	-51,953
1067,6	-55,793
1068	-55,833
1068,4	-51,593
1068,8	-54,193
1069,2	-46,433
1069,6	-47,673
1070	-43,153
1070,4	-48,313
1070,9	-53,393
1071,3	-55,713
1071,7	-51,913
1072,1	-58,433
1072,5	-56,153
1072,9	-46,353
1073,3	-48,273
1073,7	-53,033
1074,2	-52,993
1074,6	-55,513
1075	-58,033
1075,4	-55,193
1075,8	-59,873
1076,2	-58,913
1076,6	-56,993
1077	-55,033
1077,5	-59,473
1077,9	-54,513
1078,3	-51,393
1078,7	-50,553
1079,1	-51,873
1079,5	-52,113
1079,9	-49,833
1080,3	-52,593
1080,7	-51,073
1081,2	-51,193
1081,6	-45,313
1082	-47,193
1082,4	-44,153
1082,8	-47,393
1083,2	-44,273
1083,6	-45,193
1084	-40,953
1084,5	-46,393
1084,9	-42,593
1085,3	-45,593
1085,7	-47,473
1086,1	-51,033
1086,5	-46,633
1086,9	-54,073
1087,3	-56,873
1087,7	-59,433
1088,2	-57,713
1088,6	-57,433
1089	-56,833
1089,4	-55,753
1089,8	-55,793
1090,2	-57,513
1090,6	-52,633
1091	-48,593
1091,4	-41,753
1091,9	-38,553
1092,3	-36,353
1092,7	-40,433
1093,1	-40,873
1093,5	-47,153
1093,9	-46,193
1094,3	-45,513
1094,7	-41,593
1095,1	-36,873
1095,5	-38,153
1096	-40,353
1096,4	-40,753
1096,8	-43,473
1097,2	-46,393
1097,6	-35,313
1098	-29,353
1098,4	-27,113
1098,8	-27,513
1099,2	-29,193
1099,6	-33,313
1100,1	-34,713
1100,5	-34,913
1100,9	-30,113
1101,3	-26,673
1101,7	-30,353
1102,1	-34,913
1102,5	-36,313
1102,9	-39,833
1103,3	-42,913
1103,7	-42,553
1104,2	-39,193
1104,6	-37,953
1105	-38,633
1105,4	-35,633
1105,8	-30,473
1106,2	-23,833
1106,6	-17,433
1107	-10,233
1107,4	-4,033
1107,8	0,017
1108,3	-0,433
