Data from Subt2_00081.txt Node
Date: Fri Aug 11 16:41:22 MSK 2023
User: vat
Spectrometer: MAYP114033
Trigger mode: 0
Integration Time (sec): 5,000000E-1
Scans to average: 5
Electric dark correction enabled: true
Nonlinearity correction enabled: false
Boxcar width: 2
XAxis mode: Wavelengths
Number of Pixels in Spectrum: 2068
>>>>>Begin Spectral Data<<<<<
199,4	2,733
199,9	2,1
200,4	3,44
200,8	3,6
201,3	3,32
201,8	3,68
202,2	1,4
202,7	1,48
203,2	1,32
203,6	0,2
204,1	-2,88
204,6	1,16
205	-3,96
205,5	-4
206	-4,04
206,4	-4,96
206,9	-7,12
207,4	-3,2
207,8	-1,24
208,3	-3,76
208,8	-0,44
209,2	3
209,7	-0,56
210,2	-1,24
210,6	0,44
211,1	-2,16
211,5	-5,36
212	-3,96
212,5	-7,72
212,9	-7,96
213,4	-6,44
213,9	-7,8
214,3	-7,56
214,8	-9,52
215,3	-7,48
215,7	-12,44
216,2	-10
216,7	-13,24
217,1	-11,88
217,6	-14,8
218,1	-14,64
218,5	-13,2
219	-11,8
219,5	-4,2
219,9	-5,36
220,4	3,08
220,9	1,08
221,3	3,28
221,8	-6,48
222,3	-3,24
222,7	-9,12
223,2	-9,04
223,6	-9,2
224,1	-7,36
224,6	-3,28
225	-3,64
225,5	-11,32
226	-9,28
226,4	-13,08
226,9	-19,56
227,4	-19,92
227,8	-16,36
228,3	-24,32
228,8	-17,8
229,2	-20,6
229,7	-17,28
230,2	-13,6
230,6	-9,56
231,1	-8,52
231,5	-3,6
232	1,48
232,5	2,6
232,9	0,44
233,4	-1,6
233,9	-1,92
234,3	-2,52
234,8	-6,52
235,3	-5,44
235,7	-5,84
236,2	-10,2
236,7	-17,84
237,1	-15,4
237,6	-13,24
238,1	-9,2
238,5	-4,2
239	-2,84
239,4	-1,4
239,9	1,52
240,4	1,48
240,8	0,8
241,3	4,44
241,8	-4,48
242,2	-9,32
242,7	-11,72
243,2	-14,32
243,6	-14,52
244,1	-12,12
244,6	-12,72
245	-12,28
245,5	-6,4
245,9	-7,36
246,4	-4,36
246,9	0,4
247,3	-2,76
247,8	-11,24
248,3	-11,12
248,7	-10,4
249,2	-12,92
249,7	-14,2
250,1	-11,04
250,6	-14,96
251	-15,84
251,5	-10,48
252	-8,88
252,4	-4,76
252,9	-1,56
253,4	-3,24
253,8	-9,84
254,3	-5,32
254,8	-2,36
255,2	-4,4
255,7	3,32
256,1	-0,16
256,6	0,16
257,1	-1,56
257,5	2,16
258	-1,48
258,5	2,24
258,9	-4,76
259,4	-7,4
259,9	-8,52
260,3	-10,4
260,8	-9,16
261,2	-6,24
261,7	-10,56
262,2	-15,88
262,6	-17,6
263,1	-15,32
263,6	-9,92
264	-7,8
264,5	-3,2
264,9	0,88
265,4	-3,44
265,9	-7
266,3	-1,72
266,8	0,88
267,3	2,04
267,7	2,4
268,2	-0
268,7	1,36
269,1	-1,92
269,6	-4,08
270	-6,88
270,5	-8,16
271	-14,28
271,4	-18,88
271,9	-19,2
272,4	-18,36
272,8	-16,08
273,3	-17,48
273,7	-8,64
274,2	-9,92
274,7	-1,52
275,1	-2,04
275,6	-0,88
276,1	-8,6
276,5	-6,56
277	-10,76
277,4	-14,4
277,9	-8,68
278,4	-7,88
278,8	-6,16
279,3	-5,48
279,8	-1,28
280,2	-5,56
280,7	1,64
281,1	-5,8
281,6	-14,48
282,1	-14,96
282,5	-17,72
283	-18,72
283,4	-14,68
283,9	-6,84
284,4	-5,6
284,8	-8
285,3	-11,4
285,8	-13,76
286,2	-14,52
286,7	-17,24
287,1	-11,72
287,6	-6,6
288,1	-6,72
288,5	-5,52
289	-6,84
289,5	-6,64
289,9	-13,68
290,4	-7,76
290,8	-4,92
291,3	-2,32
291,8	0,96
292,2	4,44
292,7	0,08
293,1	-6,08
293,6	-2,28
294,1	-9,48
294,5	-12,24
295	-7
295,5	-0,88
295,9	-2,4
296,4	2,36
296,8	3,44
297,3	-1,8
297,8	-0,04
298,2	3,04
298,7	0,84
299,1	-3,24
299,6	-1,68
300,1	-9,12
300,5	-11,2
301	-9,36
301,5	-6,4
301,9	-11,92
302,4	-8,92
302,8	-10,28
303,3	-11
303,8	-12,96
304,2	-4,76
304,7	1,68
305,1	0,2
305,6	-1,4
306,1	-0
306,5	-2,84
307	-10,04
307,4	-7,84
307,9	-9,08
308,4	-4,8
308,8	-6,08
309,3	-0,6
309,8	-2
310,2	-3,44
310,7	-5,76
311,1	-13,16
311,6	-19,16
312,1	-18,36
312,5	-16,96
313	-17,44
313,4	-8,64
313,9	-5,04
314,4	-6,8
314,8	-9,28
315,3	-7,64
315,7	-8,52
316,2	-12,44
316,7	-19,72
317,1	-15,88
317,6	-19,56
318	-17,96
318,5	-13,64
319	-10,68
319,4	-6,04
319,9	-4,56
320,3	-6,16
320,8	-11,2
321,3	-3,36
321,7	-7,16
322,2	-10,2
322,6	-12
323,1	-13,44
323,6	-19,56
324	-17,84
324,5	-16,68
324,9	-16,68
325,4	-15,12
325,9	-8,92
326,3	-7,52
326,8	-4,4
327,2	-2,52
327,7	-1,36
328,2	-7,32
328,6	-7,48
329,1	-8,2
329,5	-5,96
330	-6,08
330,5	-3,16
330,9	-7,64
331,4	-12,24
331,8	-16,12
332,3	-13,48
332,8	-17,04
333,2	-16,6
333,7	-17,88
334,1	-12,6
334,6	-14,04
335,1	-11,24
335,5	-9,72
336	-4,28
336,4	-12,52
336,9	-12,48
337,4	-17,04
337,8	-14,72
338,3	-10,6
338,7	-9,88
339,2	-9,6
339,7	0,88
340,1	1
340,6	0,36
341	5,52
341,5	8,44
342	0,4
342,4	-1,96
342,9	-3,52
343,3	-5,64
343,8	-10,76
344,2	-4,96
344,7	-7,76
345,2	-11,64
345,6	-13,84
346,1	-13,24
346,5	-11,48
347	-5,08
347,5	0,96
347,9	8,88
348,4	8,44
348,8	-0,8
349,3	-5,64
349,8	-8,4
350,2	-8,2
350,7	-7,96
351,1	-3
351,6	3,64
352	-0,36
352,5	-3,84
353	0,88
353,4	4,48
353,9	2,08
354,3	9,76
354,8	11,28
355,3	16,04
355,7	26,48
356,2	36,56
356,6	42,4
357,1	52,76
357,5	62
358	65,56
358,5	73,64
358,9	90,32
359,4	108,92
359,8	130,8
360,3	155,64
360,8	182,36
361,2	207,36
361,7	234,4
362,1	263,8
362,6	299,24
363	334,32
363,5	377,6
364	422
364,4	463
364,9	507,96
365,3	556,68
365,8	594,2
366,3	634,72
366,7	673,76
367,2	702,44
367,6	725,12
368,1	741,92
368,5	750,8
369	757,04
369,5	757,56
369,9	753,84
370,4	748,4
370,8	731,92
371,3	707,28
371,7	682,36
372,2	647,88
372,7	614,36
373,1	578,52
373,6	550,32
374	514,52
374,5	483,88
374,9	451,8
375,4	427,12
375,9	390,88
376,3	359,44
376,8	332,64
377,2	306,8
377,7	279,16
378,2	258,96
378,6	238,92
379,1	211,2
379,5	196,4
380	183,84
380,4	162
380,9	146,44
381,4	140,6
381,8	124,08
382,3	108,28
382,7	103,36
383,2	90,48
383,6	82,24
384,1	75,96
384,6	67,8
385	60,68
385,5	60,2
385,9	53,52
386,4	51,64
386,8	51,84
387,3	50,72
387,7	44
388,2	41,84
388,7	34,04
389,1	27,28
389,6	24,76
390	23,32
390,5	20,28
390,9	21,24
391,4	19,84
391,9	14,48
392,3	13,92
392,8	14,6
393,2	13,4
393,7	17,88
394,1	18,36
394,6	22,84
395,1	17,32
395,5	15,2
396	11,24
396,4	10,52
396,9	7
397,3	9,08
397,8	8,88
398,2	5,04
398,7	7,36
399,2	3,68
399,6	3,32
400,1	2,44
400,5	8,68
401	7,52
401,4	8,6
401,9	11
402,4	10,92
402,8	7,88
403,3	3,56
403,7	5,32
404,2	1,56
404,6	-0,48
405,1	3
405,5	4,44
406	1,88
406,5	0,84
406,9	5,2
407,4	-0,8
407,8	0,04
408,3	3,64
408,7	9,96
409,2	9,64
409,6	13,96
410,1	16,76
410,6	15,16
411	10,8
411,5	7
411,9	3,04
412,4	4,56
412,8	8,48
413,3	13,04
413,7	21,04
414,2	29,72
414,7	28,32
415,1	27,04
415,6	22,4
416	21,88
416,5	18,36
416,9	27,04
417,4	30,12
417,8	43,6
418,3	46,4
418,8	49,24
419,2	46,32
419,7	47,32
420,1	44,2
420,6	46,44
421	44,48
421,5	44
421,9	44,4
422,4	45,64
422,8	42,28
423,3	43,24
423,8	44,76
424,2	45,48
424,7	42,64
425,1	44,92
425,6	53,64
426	56,16
426,5	61,68
426,9	62,36
427,4	72,16
427,9	72,12
428,3	73,4
428,8	74,48
429,2	80,76
429,7	76,16
430,1	78,44
430,6	82,68
431	83,2
431,5	88,52
431,9	96,92
432,4	99,96
432,8	100,36
433,3	105,48
433,8	108,76
434,2	109,36
434,7	112,76
435,1	120,68
435,6	125,84
436	124,92
436,5	132,88
436,9	137,52
437,4	146,64
437,8	148,12
438,3	154,52
438,8	153,28
439,2	160,8
439,7	168,32
440,1	184,92
440,6	194,92
441	208
441,5	216,12
441,9	218,44
442,4	225,2
442,8	236,08
443,3	252,52
443,7	264,92
444,2	287,44
444,7	299,88
445,1	310,88
445,6	323,24
446	338,8
446,5	340,84
446,9	355,68
447,4	371,48
447,8	377,12
448,3	390,44
448,7	410,12
449,2	420,48
449,6	438,2
450,1	455,76
450,6	467
451	480,16
451,5	500,56
451,9	518,24
452,4	541,68
452,8	566,32
453,3	588,6
453,7	611,36
454,2	627,24
454,6	640,2
455,1	659,2
455,5	680,92
456	692,64
456,4	719,52
456,9	743,28
457,3	762,68
457,8	779,68
458,3	805,8
458,7	827,24
459,2	856,84
459,6	880,8
460,1	903,16
460,5	931,64
461	947,92
461,4	969,92
461,9	995,76
462,3	1023,56
462,8	1047,24
463,2	1078,4
463,7	1102,88
464,1	1131,12
464,6	1154,72
465	1185,88
465,5	1210,2
466	1231,6
466,4	1258,28
466,9	1288,44
467,3	1306,6
467,8	1338,4
468,2	1370,24
468,7	1390,76
469,1	1416,56
469,6	1449,28
470	1472,88
470,5	1492,68
470,9	1526,68
471,4	1555,88
471,8	1578,48
472,3	1603,4
472,7	1636,8
473,2	1656,84
473,6	1689,6
474,1	1710,56
474,5	1737,28
475	1764,84
475,4	1796,96
475,9	1817,92
476,4	1849,92
476,8	1879,44
477,3	1901,8
477,7	1925,56
478,2	1955,6
478,6	1982,76
479,1	2006,56
479,5	2031,12
480	2045,68
480,4	2058,76
480,9	2077,92
481,3	2095,44
481,8	2110,56
482,2	2138,64
482,7	2156,36
483,1	2169,6
483,6	2183,56
484	2201,88
484,5	2212,88
484,9	2233,28
485,4	2249,88
485,8	2267,4
486,3	2278,52
486,7	2288,04
487,2	2298,92
487,6	2311,28
488,1	2321,6
488,5	2335,16
489	2353,6
489,4	2361,64
489,9	2370,76
490,4	2388,92
490,8	2395,44
491,3	2405,64
491,7	2416,96
492,2	2426,2
492,6	2424,56
493,1	2429,32
493,5	2431,76
494	2428,72
494,4	2434,68
494,9	2440,64
495,3	2455,76
495,8	2451,56
496,2	2463,92
496,7	2461,36
497,1	2462,48
497,6	2461,6
498	2465,08
498,5	2464,6
498,9	2468,72
499,4	2462,48
499,8	2457,76
500,3	2456,4
500,7	2453,04
501,2	2452,08
501,6	2457,04
502,1	2454,32
502,5	2460,32
503	2454,28
503,4	2452,2
503,9	2446
504,3	2442,68
504,8	2441,84
505,2	2437,32
505,7	2429,52
506,1	2432,04
506,6	2435,24
507	2424,68
507,5	2420,84
507,9	2417,04
508,4	2412,92
508,8	2401,68
509,3	2394,04
509,7	2391,8
510,2	2384,28
510,6	2374,84
511,1	2364,24
511,5	2357,16
512	2336,56
512,4	2329,64
512,9	2320,32
513,3	2311,16
513,8	2314,6
514,2	2320,12
514,7	2314,12
515,1	2310,8
515,6	2314,48
516	2300,36
516,5	2299,16
516,9	2298,68
517,4	2290,6
517,8	2288,32
518,3	2284,72
518,7	2277
519,2	2260,92
519,6	2251,8
520,1	2244,12
520,5	2234,4
521	2223,64
521,4	2222,96
521,9	2217,32
522,3	2204,84
522,8	2198,68
523,2	2191,64
523,7	2191,84
524,1	2190,24
524,6	2178,04
525	2177,04
525,5	2170,8
525,9	2159,68
526,4	2147,36
526,8	2142,4
527,3	2132,8
527,7	2126,88
528,2	2119,88
528,6	2119,68
529,1	2118,28
529,5	2117,56
530	2117,4
530,4	2115
530,9	2106,92
531,3	2105,56
531,8	2094,88
532,2	2087,48
532,6	2083,04
533,1	2080,92
533,5	2068,68
534	2070,28
534,4	2066,08
534,9	2066,24
535,3	2059,32
535,8	2059
536,2	2056,04
536,7	2055,44
537,1	2051,52
537,6	2048,04
538	2054,2
538,5	2046,32
538,9	2045,12
539,4	2041,04
539,8	2045,56
540,3	2037,72
540,7	2035,04
541,2	2030,48
541,6	2021,12
542,1	2016,08
542,5	2010,44
543	2008,24
543,4	2008,64
543,9	2013,28
544,3	2015,44
544,8	2018,24
545,2	2017
545,7	2011,36
546,1	2007,88
546,5	1996,8
547	1989,92
547,4	1990,72
547,9	1992,32
548,3	1994,84
548,8	1992,4
549,2	1991,48
549,7	1980,28
550,1	1975,76
550,6	1969,4
551	1969,8
551,5	1974,56
551,9	1980,96
552,4	1977,28
552,8	1971,72
553,3	1966,08
553,7	1960,12
554,2	1951,8
554,6	1956,12
555,1	1961,76
555,5	1975,96
555,9	1974,16
556,4	1983,68
556,8	1974,92
557,3	1967,64
557,7	1955,36
558,2	1951,96
558,6	1943,52
559,1	1946,68
559,5	1944,96
560	1944,52
560,4	1939,72
560,9	1939,88
561,3	1932,92
561,8	1941,04
562,2	1937,24
562,7	1941,36
563,1	1943,12
563,6	1946,16
564	1937,92
564,4	1940,68
564,9	1936,92
565,3	1927,32
565,8	1920,88
566,2	1913,6
566,7	1905,6
567,1	1907,36
567,6	1910,08
568	1912,64
568,5	1918,12
568,9	1916,8
569,4	1914,16
569,8	1909,08
570,3	1905,76
570,7	1894,24
571,1	1885,04
571,6	1879,48
572	1877,52
572,5	1868,52
572,9	1868,12
573,4	1876,24
573,8	1875,96
574,3	1871,32
574,7	1871,68
575,2	1871,24
575,6	1862,24
576,1	1859,28
576,5	1859,84
576,9	1861,44
577,4	1853,88
577,8	1848,96
578,3	1845,24
578,7	1845,52
579,2	1844,44
579,6	1837,4
580,1	1835,48
580,5	1819,6
581	1812,04
581,4	1802,68
581,9	1806,64
582,3	1803,08
582,7	1808,64
583,2	1799,8
583,6	1795,84
584,1	1788,48
584,5	1786,76
585	1784,32
585,4	1781,88
585,9	1769,68
586,3	1766,48
586,8	1762,64
587,2	1748,92
587,6	1751,64
588,1	1752
588,5	1744,16
589	1737,96
589,4	1741,32
589,9	1729,72
590,3	1724,64
590,8	1717,96
591,2	1712,72
591,7	1708,32
592,1	1697,96
592,5	1693,56
593	1694,2
593,4	1691,6
593,9	1684,8
594,3	1690,12
594,8	1683,68
595,2	1675,24
595,7	1671,48
596,1	1666,64
596,6	1657,8
597	1659,04
597,4	1665,56
597,9	1660,36
598,3	1660,08
598,8	1659,72
599,2	1653,32
599,7	1632,64
600,1	1623,48
600,6	1609,16
601	1598,4
601,4	1595,52
601,9	1602,96
602,3	1602,16
602,8	1601,08
603,2	1602,76
603,7	1591,8
604,1	1583,16
604,6	1578,56
605	1571,16
605,4	1561,64
605,9	1558,32
606,3	1551,56
606,8	1545,12
607,2	1543,6
607,7	1536,28
608,1	1532,92
608,6	1531,56
609	1523,32
609,4	1517,96
609,9	1516
610,3	1507,64
610,8	1497,04
611,2	1494,32
611,7	1488,8
612,1	1484,2
612,6	1477,84
613	1472,6
613,4	1463,92
613,9	1460,2
614,3	1443,28
614,8	1442,36
615,2	1439,4
615,7	1435,84
616,1	1425,36
616,6	1421,88
617	1403,2
617,4	1391,2
617,9	1383,08
618,3	1378,32
618,8	1377,68
619,2	1379,64
619,7	1373,48
620,1	1369,16
620,5	1361,68
621	1346,52
621,4	1336,08
621,9	1329,08
622,3	1315,44
622,8	1310,04
623,2	1303,12
623,6	1302
624,1	1297,48
624,5	1290,96
625	1277,48
625,4	1283,8
625,9	1277
626,3	1266,12
626,8	1264,68
627,2	1261,96
627,6	1245,68
628,1	1241,4
628,5	1236,88
629	1236,52
629,4	1234,76
629,9	1228,64
630,3	1217
630,7	1212,36
631,2	1194,8
631,6	1182,8
632,1	1182
632,5	1172,88
633	1164,48
633,4	1165,04
633,8	1162,16
634,3	1151,4
634,7	1151,92
635,2	1150,56
635,6	1142,6
636,1	1134,72
636,5	1126,6
636,9	1116,32
637,4	1110,32
637,8	1099,84
638,3	1088,88
638,7	1084,2
639,2	1078,2
639,6	1068,32
640	1059,92
640,5	1058,6
640,9	1059,44
641,4	1053,84
641,8	1047,76
642,2	1051,36
642,7	1044,04
643,1	1037,44
643,6	1026,8
644	1026,4
644,5	1011,36
644,9	1010,64
645,3	998,36
645,8	989,96
646,2	983,36
646,7	976
647,1	965,68
647,6	959,08
648	965,4
648,4	955,76
648,9	957,48
649,3	952,56
649,8	953,6
650,2	947,24
650,6	942,56
651,1	943,72
651,5	941
652	930,64
652,4	925,72
652,9	914,6
653,3	903,28
653,7	892,84
654,2	888,32
654,6	877,92
655,1	872,68
655,5	866,24
655,9	864
656,4	853,4
656,8	848,6
657,3	848,4
657,7	841,56
658,2	836,68
658,6	837,88
659	835,16
659,5	831,4
659,9	830,68
660,4	825,6
660,8	823,8
661,2	817,84
661,7	811,28
662,1	804,08
662,6	798,24
663	792,4
663,4	788,08
663,9	782,6
664,3	776,72
664,8	774,68
665,2	766,68
665,6	763,6
666,1	759,64
666,5	752,56
667	744,92
667,4	744,48
667,9	739,36
668,3	733,68
668,7	730,2
669,2	724
669,6	718,2
670,1	710,28
670,5	706,8
670,9	702,84
671,4	699,4
671,8	693
672,3	690,56
672,7	682,84
673,1	677,2
673,6	671,96
674	666,56
674,5	655,68
674,9	652,2
675,3	650,04
675,8	650,64
676,2	650,24
676,7	649,48
677,1	644,24
677,5	639,68
678	629,76
678,4	621,28
678,9	616,32
679,3	616,4
679,7	615,64
680,2	615,56
680,6	607,48
681,1	607,48
681,5	604,08
681,9	598,56
682,4	593,52
682,8	594,08
683,3	585,04
683,7	580,48
684,1	574,44
684,6	568,6
685	555,72
685,5	547,68
685,9	535,92
686,3	529,16
686,8	521,64
687,2	526,72
687,7	525,84
688,1	525,56
688,5	523,48
689	523,16
689,4	523,76
689,9	522,64
690,3	518,12
690,7	518,48
691,2	511,4
691,6	498,76
692	496,12
692,5	496,28
692,9	489,04
693,4	488,16
693,8	494,6
694,2	487,24
694,7	483,6
695,1	478,72
695,6	473,6
696	465
696,4	463,32
696,9	460,56
697,3	456,24
697,8	454,4
698,2	451,6
698,6	451,68
699,1	447,6
699,5	449,2
699,9	445,36
700,4	438,72
700,8	438,72
701,3	437,76
701,7	433,92
702,1	433,4
702,6	431,8
703	420,6
703,5	413
703,9	407,56
704,3	408,48
704,8	411,04
705,2	413,56
705,6	418,92
706,1	419,36
706,5	407,64
707	405,16
707,4	401,08
707,8	395,2
708,3	387,24
708,7	393,44
709,2	386
709,6	379,88
710	377,24
710,5	376,24
710,9	371,84
711,3	369,24
711,8	369,4
712,2	366,12
712,7	365,76
713,1	356,72
713,5	352,04
714	340,92
714,4	338,56
714,8	336,48
715,3	340,68
715,7	339,2
716,2	344,56
716,6	341,08
717	337,84
717,5	330,52
717,9	325
718,3	316,56
718,8	314,8
719,2	312,68
719,7	312,72
720,1	311,28
720,5	312,28
721	304,6
721,4	304,52
721,8	300,44
722,3	301,84
722,7	303,48
723,2	296,96
723,6	289,04
724	287,96
724,5	280,72
724,9	273,08
725,3	278,4
725,8	277,48
726,2	272,88
726,7	267,72
727,1	266,12
727,5	261,16
728	256,28
728,4	255,28
728,8	255,12
729,3	256,4
729,7	256,84
730,1	261,4
730,6	259,32
731	262,56
731,5	256,6
731,9	253,16
732,3	251
732,8	245,24
733,2	240,04
733,6	241,96
734,1	244,44
734,5	237,52
734,9	243,64
735,4	245,24
735,8	242,8
736,3	241,96
736,7	241,16
737,1	235,72
737,6	237,96
738	239,2
738,4	236,84
738,9	238,24
739,3	232,96
739,7	223,88
740,2	227,28
740,6	219,76
741,1	215,64
741,5	216,6
741,9	217,2
742,4	208,44
742,8	210,6
743,2	212,36
743,7	212,64
744,1	211,6
744,5	216
745	213,04
745,4	211,04
745,8	205,52
746,3	201,72
746,7	195,32
747,2	197
747,6	196,56
748	201,48
748,5	200,92
748,9	198,12
749,3	191,52
749,8	183,2
750,2	181,56
750,6	181,08
751,1	184,44
751,5	186,24
751,9	191,76
752,4	188,28
752,8	189,84
753,3	185,4
753,7	183,28
754,1	180,88
754,6	182,72
755	176,48
755,4	175,84
755,9	169,72
756,3	171,68
756,7	163,76
757,2	163
757,6	160,72
758	172,16
758,5	166,68
758,9	173,84
759,3	169,52
759,8	170,64
760,2	164,84
760,6	163,04
761,1	152,68
761,5	156,8
761,9	154,52
762,4	147,24
762,8	152,16
763,3	153,24
763,7	148,44
764,1	145,48
764,6	147,2
765	136,24
765,4	134,48
765,9	131,8
766,3	131,96
766,7	130,12
767,2	130,24
767,6	134,84
768	143,36
768,5	140,04
768,9	141,28
769,3	142
769,8	140,56
770,2	135,4
770,6	142,04
771,1	138,72
771,5	138,84
771,9	132,16
772,4	137,72
772,8	128,44
773,2	131,24
773,7	137,92
774,1	143,44
774,5	130,88
775	130,44
775,4	126,16
775,8	118,84
776,3	112,28
776,7	111,76
777,1	107,08
777,6	107,16
778	104,6
778,4	108,72
778,9	114,72
779,3	118,32
779,7	119,4
780,2	121,44
780,6	114,96
781	113,04
781,5	113,32
781,9	108,84
782,3	102,72
782,8	102,12
783,2	100,52
783,6	100,52
784,1	100,08
784,5	96,28
784,9	99,24
785,4	100,4
785,8	100,16
786,2	101,56
786,7	107,4
787,1	103,72
787,5	97,8
788	93,96
788,4	92
788,8	90,04
789,3	87,56
789,7	83,84
790,1	83,12
790,6	81,24
791	79,52
791,4	84,2
791,9	86,88
792,3	80,92
792,7	80,6
793,2	75,52
793,6	72
794	77,44
794,5	79,48
794,9	83,6
795,3	88,04
795,8	87,04
796,2	79,64
796,6	84,08
797,1	76,36
797,5	78
797,9	81,92
798,4	79,32
798,8	80,12
799,2	80,12
799,7	74,92
800,1	69,44
800,5	74,12
801	65,96
801,4	70,84
801,8	72,44
802,2	76,72
802,7	80,6
803,1	86,32
803,5	81,36
804	81,92
804,4	72,88
804,8	62,28
805,3	55,52
805,7	55,24
806,1	52,44
806,6	57,08
807	58,12
807,4	62,64
807,9	67,8
808,3	69,04
808,7	67
809,2	65,64
809,6	61,32
810	56,04
810,4	52,44
810,9	53,04
811,3	56,88
811,7	58,4
812,2	54,08
812,6	55,48
813	52
813,5	51,96
813,9	53,2
814,3	55,72
814,8	56,4
815,2	62,4
815,6	59,52
816,1	55,28
816,5	58,52
816,9	52,84
817,3	47,68
817,8	48,08
818,2	52,04
818,6	48,6
819,1	50,12
819,5	50,4
819,9	46,84
820,4	41,8
820,8	40,8
821,2	44
821,7	42,52
822,1	43,4
822,5	43,08
822,9	38
823,4	38,64
823,8	34
824,2	35,52
824,7	37,08
825,1	39,36
825,5	33,6
826	38,36
826,4	36,96
826,8	38,8
827,3	36,32
827,7	37,48
828,1	35,36
828,5	33,04
829	34,6
829,4	34,4
829,8	33,32
830,3	39,72
830,7	42,72
831,1	39,52
831,6	45,56
832	45,88
832,4	44,88
832,8	45,4
833,3	44,84
833,7	46,24
834,1	45,48
834,6	40,92
835	38,96
835,4	35,6
835,8	29,8
836,3	27,76
836,7	30,72
837,1	30,68
837,6	35,68
838	38,16
838,4	43,64
838,9	43,48
839,3	45,68
839,7	47,84
840,1	48,08
840,6	40
841	30,92
841,4	24,04
841,9	16,44
842,3	8,16
842,7	12,84
843,1	16,08
843,6	16,84
844	17,76
844,4	24,44
844,9	29,76
845,3	30,76
845,7	36,44
846,2	38,44
846,6	35,2
847	28,12
847,4	24,52
847,9	22,32
848,3	15,84
848,7	23,08
849,2	21,4
849,6	24,96
850	22,84
850,4	26,32
850,9	22,64
851,3	25,72
851,7	19,96
852,2	18,6
852,6	22,08
853	23,8
853,4	24,52
853,9	33,04
854,3	33,44
854,7	28,76
855,2	21,32
855,6	17,92
856	11,24
856,4	11,52
856,9	11,52
857,3	14,48
857,7	15,92
858,2	21
858,6	20,6
859	23,8
859,4	24,36
859,9	24,44
860,3	24,2
860,7	22,72
861,1	21,84
861,6	19,96
862	15,8
862,4	13,16
862,9	15,76
863,3	10,6
863,7	10,6
864,1	15
864,6	15,28
865	13,44
865,4	12,4
865,9	12,28
866,3	14,16
866,7	12,84
867,1	15,84
867,6	22,8
868	22,16
868,4	20,92
868,8	24,12
869,3	28,24
869,7	22,52
870,1	23,68
870,6	22,44
871	21,24
871,4	-51,04
871,8	-44,84
872,3	-48,24
872,7	-52,84
873,1	-55,76
873,5	4,84
874	-3,12
874,4	3,56
874,8	4
875,3	4,76
875,7	7,8
876,1	13,24
876,5	5,2
877	9,2
877,4	11,24
877,8	15,48
878,2	13,76
878,7	23,44
879,1	21,44
879,5	26,44
879,9	24,36
880,4	25,44
880,8	22,52
881,2	22,28
881,7	13,24
882,1	8,2
882,5	11,08
882,9	7,84
883,4	7,32
883,8	8,92
884,2	12,16
884,6	11,52
885,1	7,64
885,5	4,76
885,9	3,84
886,3	0,24
886,8	-8,08
887,2	-7,76
887,6	-6,52
888	-6,08
888,5	2,52
888,9	9,8
889,3	9,92
889,8	11,64
890,2	11,2
890,6	6,72
891	-1,56
891,5	3,64
891,9	7,36
892,3	2,96
892,7	5,04
893,2	10,68
893,6	5,56
894	7,04
894,4	12,6
894,9	8,16
895,3	9,2
895,7	7,84
896,1	5,8
896,6	7,4
897	12,36
897,4	7,16
897,8	11,36
898,3	8,12
898,7	2,52
899,1	2,2
899,5	4,52
900	1,28
900,4	0,96
900,8	-3,28
901,2	-11,88
901,7	-8,96
902,1	-3,6
902,5	-4,12
902,9	0,68
903,4	8,36
903,8	4,24
904,2	-0,84
904,6	4,6
905,1	5,4
905,5	-1,52
905,9	1,64
906,3	2,44
906,8	-4,08
907,2	3,08
907,6	7,56
908	5,36
908,5	7,32
908,9	9,28
909,3	-1,32
909,7	0,92
910,2	4
910,6	5,64
911	3,96
911,4	7,8
911,9	4,48
912,3	-0,4
912,7	-2,68
913,1	-2,52
913,6	-6,24
914	-8,96
914,4	-8,04
914,8	-13,52
915,3	-12,2
915,7	-7
916,1	-5,52
916,5	-4,84
916,9	-0,64
917,4	3,84
917,8	2,96
918,2	8,4
918,6	11,32
919,1	13,08
919,5	8,32
919,9	10,12
920,3	9,08
920,8	12,32
921,2	8,56
921,6	8,84
922	8,28
922,5	2,44
922,9	-3,8
923,3	-5,4
923,7	-7,32
924,2	-14,32
924,6	-15,48
925	-10,36
925,4	-5,96
925,8	-4,2
926,3	-0,52
926,7	-1
927,1	-0,44
927,5	-1,08
928	-6
928,4	-10,84
928,8	-6,88
929,2	-10,08
929,7	-8,4
930,1	-2,16
930,5	6,04
930,9	4,52
931,3	0,56
931,8	1,72
932,2	1,24
932,6	-1,32
933	-2,24
933,5	1,44
933,9	-6,84
934,3	-8,36
934,7	-8,28
935,2	-7,32
935,6	-18,36
936	-15,76
936,4	-13,92
936,8	-20,24
937,3	-14,88
937,7	-6,6
938,1	-3,72
938,5	-7,28
939	-0,4
939,4	-1,16
939,8	-0,36
940,2	-4,28
940,6	-1,88
941,1	0,6
941,5	-3,36
941,9	-6,72
942,3	-2,16
942,8	0,48
943,2	1,88
943,6	5,92
944	11,48
944,4	8,32
944,9	5,04
945,3	0,28
945,7	-0,08
946,1	-2,16
946,6	-3
947	-3,88
947,4	-2,64
947,8	-6,24
948,2	-8,24
948,7	-1,12
949,1	0,08
949,5	-4,2
949,9	-1,12
950,3	0,76
950,8	-3,24
951,2	-5,2
951,6	-4,72
952	-9,24
952,5	-12,2
952,9	-18,2
953,3	-20,8
953,7	-18,12
954,1	-18,76
954,6	-16,8
955	-9,92
955,4	-7,12
955,8	-6,6
956,2	-1,52
956,7	-4,84
957,1	-4,48
957,5	-1,48
957,9	-1,64
958,3	-7,96
958,8	-6,96
959,2	-8,64
959,6	-9,04
960	-7,52
960,5	-1,04
960,9	-0,84
961,3	3,48
961,7	-0,72
962,1	-4,68
962,6	-4,44
963	-0,76
963,4	-12,88
963,8	-5,92
964,2	-4,6
964,7	-3,4
965,1	-2,12
965,5	8,12
965,9	6,72
966,3	6,32
966,8	0,96
967,2	-5,6
967,6	-5,64
968	-10
968,4	-10,56
968,9	-12,64
969,3	-9,32
969,7	-11
970,1	-11,68
970,5	-11,04
971	-10,88
971,4	-13
971,8	-19,2
972,2	-18,72
972,6	-17,8
973,1	-17,16
973,5	-15,36
973,9	-9,68
974,3	-9,48
974,7	-11,36
975,2	-2,76
975,6	1,52
976	-2,8
976,4	0,68
976,8	1,92
977,3	-5,6
977,7	-5,28
978,1	-2,56
978,5	-7,76
978,9	-6,8
979,4	-4,84
979,8	-9,24
980,2	-9,88
980,6	-5,92
981	-7,96
981,5	-13,2
981,9	-10,36
982,3	-7,56
982,7	-15,2
983,1	-17,64
983,6	-10,56
984	-11,36
984,4	-16,52
984,8	-10,52
985,2	-3,72
985,6	-8,2
986,1	-9,36
986,5	-1,28
986,9	-4,2
987,3	-8,64
987,7	-7,24
988,2	-9,72
988,6	-15,12
989	-10,32
989,4	-9,08
989,8	-7,24
990,3	-2,44
990,7	-1,96
991,1	-3
991,5	-3,44
991,9	-8,84
992,3	-11,2
992,8	-10,12
993,2	-10,68
993,6	-9,48
994	-4,88
994,4	-3,72
994,9	-3,44
995,3	-8,2
995,7	-6,12
996,1	-2,44
996,5	-7,32
996,9	-9,96
997,4	1,08
997,8	-4,88
998,2	-12,4
998,6	-6
999	-8,72
999,5	-15,08
999,9	-13,4
1000,3	-13
1000,7	-9,6
1001,1	-6,36
1001,5	-6,96
1002	-3,64
1002,4	-4,24
1002,8	-7,36
1003,2	-3,36
1003,6	-0,64
1004	-7,64
1004,5	-3,28
1004,9	-6,36
1005,3	-11,96
1005,7	-11,12
1006,1	-4,68
1006,6	-2,72
1007	-0,76
1007,4	-1
1007,8	-1,36
1008,2	-2,16
1008,6	2,52
1009,1	-0,52
1009,5	4,16
1009,9	-0,56
1010,3	-4,12
1010,7	-13,92
1011,1	-10,4
1011,6	-14,56
1012	-9,4
1012,4	-3,2
1012,8	0,6
1013,2	-2,56
1013,6	-5,52
1014,1	-12,56
1014,5	-14,04
1014,9	-21,84
1015,3	-21,92
1015,7	-18,92
1016,1	-14
1016,6	-20,64
1017	-18,24
1017,4	-19,48
1017,8	-16,68
1018,2	-21,6
1018,6	-14,68
1019,1	-13,68
1019,5	-16,12
1019,9	-21,88
1020,3	-18
1020,7	-19,24
1021,1	-14,48
1021,6	-8,36
1022	-3
1022,4	-3,36
1022,8	-0,84
1023,2	-3,32
1023,6	-7,8
1024,1	-4,28
1024,5	-2
1024,9	-0,04
1025,3	-1,28
1025,7	3,36
1026,1	0,76
1026,6	-7,32
1027	-8,96
1027,4	-5,64
1027,8	-7,8
1028,2	-9
1028,6	-0,56
1029	-5,08
1029,5	-7,56
1029,9	-5,12
1030,3	-1,4
1030,7	-6,84
1031,1	-7,2
1031,5	-5,04
1032	-9,88
1032,4	-14,2
1032,8	-10,68
1033,2	-7,4
1033,6	-10,48
1034	-7,12
1034,4	-6,44
1034,9	-3,52
1035,3	-6,88
1035,7	0,2
1036,1	-2,56
1036,5	-5,2
1036,9	-11,32
1037,4	-13,92
1037,8	-20,4
1038,2	-21,28
1038,6	-17,24
1039	-13,92
1039,4	-7,48
1039,8	-5,52
1040,3	-2,08
1040,7	-5,72
1041,1	-4,92
1041,5	-6,76
1041,9	-7,36
1042,3	-6,48
1042,7	-4,4
1043,2	-11
1043,6	-10,44
1044	-5,36
1044,4	-12,56
1044,8	-15,4
1045,2	-9,92
1045,6	-12,24
1046,1	-19,56
1046,5	-19,24
1046,9	-20,84
1047,3	-24,64
1047,7	-26,96
1048,1	-29,12
1048,5	-25,84
1049	-23,44
1049,4	-21,24
1049,8	-13,56
1050,2	-5,6
1050,6	-1,68
1051	-4
1051,4	-5,84
1051,9	-12,04
1052,3	-19,52
1052,7	-25,24
1053,1	-19,92
1053,5	-15,24
1053,9	-15,32
1054,3	-10,96
1054,8	-8,56
1055,2	-8,68
1055,6	-13,76
1056	-14,68
1056,4	-17,72
1056,8	-12,68
1057,2	-15,68
1057,6	-15,28
1058,1	-14,08
1058,5	-18,28
1058,9	-19,8
1059,3	-17,8
1059,7	-13,08
1060,1	-6,2
1060,5	3,24
1061	0,32
1061,4	1,88
1061,8	-4,96
1062,2	-7,8
1062,6	-15,04
1063	-12,76
1063,4	-14,36
1063,8	-11,96
1064,3	-13,04
1064,7	-9,84
1065,1	-15,64
1065,5	-12,72
1065,9	-11,48
1066,3	-14,8
1066,7	-10,8
1067,1	0,56
1067,6	-2,92
1068	-2,72
1068,4	0,52
1068,8	-4,8
1069,2	-12,72
1069,6	-10,88
1070	-8,56
1070,4	-8,36
1070,9	-4,16
1071,3	-5,2
1071,7	-8,92
1072,1	-8,6
1072,5	-12,12
1072,9	-13,92
1073,3	-8,44
1073,7	-4,36
1074,2	-5,8
1074,6	-5,8
1075	-11,04
1075,4	-13,16
1075,8	-10
1076,2	-5,24
1076,6	3,88
1077	9,08
1077,5	3,6
1077,9	0,92
1078,3	-4,76
1078,7	-14,72
1079,1	-12,88
1079,5	-4,84
1079,9	-7,12
1080,3	-4,48
1080,7	3,84
1081,2	4,72
1081,6	0,76
1082	4,48
1082,4	2,92
1082,8	-3,16
1083,2	-11,92
1083,6	-12,96
1084	-17,16
1084,5	-22,24
1084,9	-21,64
1085,3	-14,96
1085,7	-12,4
1086,1	-10,08
1086,5	-5,44
1086,9	-7,24
1087,3	-11,32
1087,7	-13,68
1088,2	-13,8
1088,6	-8,6
1089	-12,48
1089,4	-7,72
1089,8	-7,48
1090,2	-7,44
1090,6	-14,2
1091	-10,08
1091,4	-16
1091,9	-15,32
1092,3	-16,76
1092,7	-14,48
1093,1	-12,48
1093,5	-13,6
1093,9	-11,96
1094,3	-9,48
1094,7	-6,8
1095,1	-8,08
1095,5	-3,24
1096	-3,56
1096,4	0,32
1096,8	-1,08
1097,2	4,8
1097,6	0,84
1098	-0,96
1098,4	-6,64
1098,8	-11,48
1099,2	-13,92
1099,6	-7,8
1100,1	-9,96
1100,5	-12,96
1100,9	-5,44
1101,3	-8,24
1101,7	-12,8
1102,1	-6,64
1102,5	-2,48
1102,9	-4,12
1103,3	-2,96
1103,7	2,68
1104,2	-1,68
1104,6	-6,48
1105	-8
1105,4	-9,12
1105,8	-12,28
1106,2	-9,8
1106,6	-4,76
1107	-4,6
1107,4	-2,76
1107,8	-0,65
1108,3	-1
