Data from Subt2_00030.txt Node
Date: Fri Aug 11 15:45:03 MSK 2023
User: vat
Spectrometer: MAYP114033
Trigger mode: 0
Integration Time (sec): 5,000000E-1
Scans to average: 5
Electric dark correction enabled: true
Nonlinearity correction enabled: false
Boxcar width: 2
XAxis mode: Wavelengths
Number of Pixels in Spectrum: 2068
>>>>>Begin Spectral Data<<<<<
199,4	-0,133
199,9	0,067
200,4	-9,333
200,8	-18,693
201,3	-31,013
201,8	-37,133
202,2	-49,173
202,7	-54,493
203,2	-55,333
203,6	-56,733
204,1	-61,773
204,6	-62,013
205	-62,493
205,5	-66,973
206	-59,213
206,4	-63,013
206,9	-70,573
207,4	-69,213
207,8	-64,573
208,3	-70,533
208,8	-67,453
209,2	-60,493
209,7	-65,813
210,2	-73,173
210,6	-73,773
211,1	-78,533
211,5	-79,973
212	-76,493
212,5	-74,213
212,9	-77,053
213,4	-72,733
213,9	-76,893
214,3	-73,973
214,8	-76,213
215,3	-72,293
215,7	-74,173
216,2	-74,973
216,7	-78,773
217,1	-77,213
217,6	-80,733
218,1	-82,053
218,5	-78,293
219	-81,773
219,5	-84,733
219,9	-84,373
220,4	-76,813
220,9	-75,333
221,3	-68,813
221,8	-63,413
222,3	-65,013
222,7	-75,533
223,2	-77,493
223,6	-79,533
224,1	-81,133
224,6	-80,053
225	-82,693
225,5	-83,133
226	-81,573
226,4	-78,293
226,9	-78,613
227,4	-70,333
227,8	-66,013
228,3	-68,493
228,8	-72,333
229,2	-76,333
229,7	-84,573
230,2	-91,853
230,6	-90,733
231,1	-97,773
231,5	-97,413
232	-92,453
232,5	-92,333
232,9	-96,693
233,4	-94,053
233,9	-96,973
234,3	-99,733
234,8	-93,733
235,3	-91,053
235,7	-83,173
236,2	-77,173
236,7	-78,373
237,1	-77,373
237,6	-76,253
238,1	-80,173
238,5	-83,453
239	-84,053
239,4	-83,253
239,9	-81,093
240,4	-80,173
240,8	-75,133
241,3	-72,173
241,8	-83,213
242,2	-85,613
242,7	-86,013
243,2	-86,493
243,6	-90,413
244,1	-86,013
244,6	-82,253
245	-79,093
245,5	-82,413
245,9	-78,613
246,4	-77,253
246,9	-84,493
247,3	-89,773
247,8	-85,053
248,3	-84,573
248,7	-84,373
249,2	-79,893
249,7	-72,773
250,1	-76,853
250,6	-78,133
251	-74,413
251,5	-78,813
252	-88,133
252,4	-81,053
252,9	-80,733
253,4	-83,493
253,8	-78,813
254,3	-77,853
254,8	-84,853
255,2	-80,293
255,7	-84,973
256,1	-86,813
256,6	-83,933
257,1	-86,453
257,5	-90,053
258	-85,653
258,5	-81,253
258,9	-78,413
259,4	-74,493
259,9	-77,493
260,3	-82,253
260,8	-83,933
261,2	-88,733
261,7	-89,733
262,2	-88,373
262,6	-87,413
263,1	-93,213
263,6	-87,213
264	-88,613
264,5	-84,573
264,9	-81,253
265,4	-77,253
265,9	-77,293
266,3	-77,773
266,8	-75,373
267,3	-77,853
267,7	-77,613
268,2	-82,693
268,7	-80,773
269,1	-84,293
269,6	-85,333
270	-78,333
270,5	-80,693
271	-87,053
271,4	-86,693
271,9	-88,373
272,4	-91,173
272,8	-89,333
273,3	-83,213
273,7	-80,533
274,2	-80,493
274,7	-81,893
275,1	-77,253
275,6	-75,653
276,1	-82,213
276,5	-79,973
277	-85,333
277,4	-94,173
277,9	-93,493
278,4	-87,813
278,8	-82,213
279,3	-81,653
279,8	-75,173
280,2	-73,653
280,7	-78,973
281,1	-79,213
281,6	-78,653
282,1	-84,693
282,5	-96,813
283	-98,213
283,4	-100,613
283,9	-98,773
284,4	-92,253
284,8	-82,613
285,3	-75,813
285,8	-72,413
286,2	-73,293
286,7	-73,933
287,1	-74,813
287,6	-78,613
288,1	-84,053
288,5	-83,213
289	-79,733
289,5	-82,573
289,9	-78,773
290,4	-74,093
290,8	-74,333
291,3	-75,933
291,8	-74,773
292,2	-78,333
292,7	-80,493
293,1	-81,093
293,6	-88,053
294,1	-83,173
294,5	-85,013
295	-82,533
295,5	-77,893
295,9	-67,213
296,4	-74,693
296,8	-74,693
297,3	-73,053
297,8	-83,453
298,2	-89,893
298,7	-90,733
299,1	-85,093
299,6	-89,813
300,1	-84,173
300,5	-83,333
301	-73,293
301,5	-78,093
301,9	-78,213
302,4	-79,493
302,8	-81,093
303,3	-84,093
303,8	-89,133
304,2	-88,173
304,7	-95,253
305,1	-93,333
305,6	-97,853
306,1	-90,173
306,5	-88,133
307	-74,973
307,4	-76,493
307,9	-68,093
308,4	-66,253
308,8	-67,373
309,3	-76,133
309,8	-72,573
310,2	-79,053
310,7	-84,613
311,1	-87,333
311,6	-83,053
312,1	-83,693
312,5	-77,853
313	-70,573
313,4	-68,693
313,9	-63,693
314,4	-67,333
314,8	-74,053
315,3	-80,293
315,7	-81,733
316,2	-87,973
316,7	-91,613
317,1	-92,213
317,6	-92,053
318	-88,053
318,5	-90,293
319	-84,293
319,4	-84,493
319,9	-84,533
320,3	-85,373
320,8	-87,613
321,3	-87,773
321,7	-84,573
322,2	-79,693
322,6	-80,693
323,1	-76,853
323,6	-76,733
324	-75,413
324,5	-75,493
324,9	-76,893
325,4	-71,853
325,9	-70,173
326,3	-71,653
326,8	-70,493
327,2	-72,293
327,7	-77,653
328,2	-77,333
328,6	-78,693
329,1	-79,933
329,5	-73,253
330	-71,053
330,5	-73,813
330,9	-77,973
331,4	-83,013
331,8	-91,133
332,3	-91,373
332,8	-92,933
333,2	-88,373
333,7	-85,373
334,1	-81,693
334,6	-80,533
335,1	-76,013
335,5	-72,773
336	-76,613
336,4	-73,093
336,9	-74,653
337,4	-77,773
337,8	-76,373
338,3	-70,253
338,7	-75,613
339,2	-74,533
339,7	-78,533
340,1	-85,613
340,6	-85,413
341	-87,493
341,5	-90,853
342	-85,373
342,4	-83,933
342,9	-86,493
343,3	-83,173
343,8	-79,893
344,2	-78,213
344,7	-75,813
345,2	-73,853
345,6	-71,573
346,1	-67,853
346,5	-70,733
347	-71,053
347,5	-69,973
347,9	-69,573
348,4	-71,933
348,8	-72,053
349,3	-69,213
349,8	-68,333
350,2	-69,333
350,7	-73,013
351,1	-72,333
351,6	-74,613
352	-75,373
352,5	-72,293
353	-63,293
353,4	-61,373
353,9	-55,973
354,3	-56,413
354,8	-54,453
355,3	-49,253
355,7	-36,613
356,2	-29,693
356,6	-21,053
357,1	-3,453
357,5	11,427
358	18,987
358,5	33,227
358,9	61,987
359,4	82,627
359,8	97,347
360,3	132,427
360,8	166,987
361,2	197,827
361,7	234,387
362,1	287,587
362,6	334,587
363	393,107
363,5	447,147
364	512,507
364,4	570,067
364,9	636,187
365,3	693,947
365,8	759,507
366,3	806,027
366,7	850,987
367,2	884,467
367,6	915,907
368,1	939,067
368,5	958,667
369	967,027
369,5	968,907
369,9	963,187
370,4	944,987
370,8	922,947
371,3	897,547
371,7	862,027
372,2	825,027
372,7	776,787
373,1	728,907
373,6	677,507
374	627,987
374,5	580,107
374,9	543,907
375,4	498,347
375,9	460,907
376,3	423,067
376,8	377,707
377,2	338,467
377,7	305,067
378,2	275,347
378,6	242,867
379,1	224,427
379,5	195,787
380	170,787
380,4	148,067
380,9	134,587
381,4	113,027
381,8	95,707
382,3	84,427
382,7	70,387
383,2	60,107
383,6	46,307
384,1	40,907
384,6	29,827
385	23,067
385,5	12,467
385,9	9,467
386,4	7,107
386,8	9,507
387,3	3,107
387,7	-6,573
388,2	-8,533
388,7	-14,293
389,1	-31,013
389,6	-36,533
390	-34,733
390,5	-38,533
390,9	-44,893
391,4	-42,253
391,9	-46,133
392,3	-44,973
392,8	-47,893
393,2	-47,253
393,7	-47,413
394,1	-43,493
394,6	-51,853
395,1	-53,973
395,5	-55,853
396	-58,693
396,4	-60,613
396,9	-58,733
397,3	-61,613
397,8	-67,293
398,2	-66,973
398,7	-66,533
399,2	-70,413
399,6	-69,173
400,1	-66,133
400,5	-59,573
401	-61,733
401,4	-61,373
401,9	-57,893
402,4	-61,413
402,8	-71,933
403,3	-69,653
403,7	-66,453
404,2	-71,573
404,6	-70,533
405,1	-65,653
405,5	-68,733
406	-67,693
406,5	-64,133
406,9	-62,413
407,4	-65,093
407,8	-62,653
408,3	-64,133
408,7	-69,693
409,2	-66,173
409,6	-62,973
410,1	-67,333
410,6	-67,373
411	-67,013
411,5	-67,853
411,9	-64,893
412,4	-60,253
412,8	-61,373
413,3	-60,053
413,7	-53,853
414,2	-49,173
414,7	-49,213
415,1	-40,373
415,6	-33,533
416	-35,733
416,5	-40,173
416,9	-38,133
417,4	-41,973
417,8	-38,773
418,3	-37,773
418,8	-35,373
419,2	-29,093
419,7	-19,853
420,1	-26,693
420,6	-27,853
421	-28,453
421,5	-29,773
421,9	-30,533
422,4	-26,013
422,8	-20,733
423,3	-15,373
423,8	-7,773
424,2	-11,413
424,7	-0,573
425,1	3,667
425,6	9,667
426	-1,293
426,5	4,347
426,9	-3,973
427,4	1,547
427,9	-2,253
428,3	11,907
428,8	13,507
429,2	22,027
429,7	25,387
430,1	32,547
430,6	28,627
431	37,907
431,5	44,107
431,9	36,867
432,4	42,267
432,8	52,347
433,3	53,667
433,8	56,987
434,2	68,027
434,7	74,867
435,1	81,347
435,6	86,187
436	87,347
436,5	95,507
436,9	105,427
437,4	116,147
437,8	126,227
438,3	137,107
438,8	138,747
439,2	140,587
439,7	143,147
440,1	149,147
440,6	157,587
441	174,987
441,5	184,267
441,9	198,507
442,4	210,907
442,8	221,707
443,3	229,027
443,7	235,947
444,2	250,387
444,7	261,947
445,1	279,387
445,6	299,587
446	322,067
446,5	340,107
446,9	360,987
447,4	380,907
447,8	391,867
448,3	403,147
448,7	413,627
449,2	425,347
449,6	435,267
450,1	455,747
450,6	473,627
451	488,427
451,5	497,427
451,9	516,187
452,4	534,667
452,8	557,027
453,3	575,987
453,7	599,627
454,2	622,147
454,6	639,267
455,1	649,107
455,5	675,747
456	701,467
456,4	719,467
456,9	734,187
457,3	768,347
457,8	787,587
458,3	811,067
458,7	828,387
459,2	858,507
459,6	876,427
460,1	896,867
460,5	915,867
461	940,787
461,4	964,147
461,9	991,067
462,3	1015,987
462,8	1041,467
463,2	1067,547
463,7	1089,107
464,1	1115,027
464,6	1138,227
465	1163,067
465,5	1192,747
466	1217,027
466,4	1240,867
466,9	1264,547
467,3	1290,187
467,8	1309,467
468,2	1340,667
468,7	1356,507
469,1	1379,827
469,6	1402,187
470	1426,027
470,5	1447,787
470,9	1479,267
471,4	1501,667
471,8	1524,987
472,3	1545,587
472,7	1555,747
473,2	1574,107
473,6	1597,707
474,1	1618,427
474,5	1641,547
475	1671,427
475,4	1692,947
475,9	1705,787
476,4	1726,787
476,8	1741,987
477,3	1762,147
477,7	1781,507
478,2	1803,427
478,6	1823,267
479,1	1846,627
479,5	1861,067
480	1871,427
480,4	1886,387
480,9	1893,387
481,3	1912,787
481,8	1926,947
482,2	1941,347
482,7	1956,067
483,1	1972,347
483,6	1977,587
484	1993,547
484,5	2007,467
484,9	2015,027
485,4	2025,787
485,8	2034,507
486,3	2030,747
486,7	2044,187
487,2	2048,067
487,6	2057,747
488,1	2070,547
488,5	2092,587
489	2106,787
489,4	2124,347
489,9	2125,387
490,4	2125,787
490,8	2129,587
491,3	2123,467
491,7	2130,667
492,2	2136,747
492,6	2138,947
493,1	2137,107
493,5	2133,587
494	2132,867
494,4	2132,867
494,9	2139,667
495,3	2140,787
495,8	2151,987
496,2	2153,867
496,7	2157,867
497,1	2159,187
497,6	2159,187
498	2148,147
498,5	2142,307
498,9	2137,227
499,4	2134,267
499,8	2135,107
500,3	2137,507
500,7	2135,667
501,2	2138,227
501,6	2127,507
502,1	2126,387
502,5	2116,587
503	2120,787
503,4	2114,027
503,9	2118,947
504,3	2111,427
504,8	2107,387
505,2	2099,067
505,7	2094,947
506,1	2092,587
506,6	2089,067
507	2093,107
507,5	2094,027
507,9	2082,547
508,4	2069,827
508,8	2067,387
509,3	2058,867
509,7	2050,707
510,2	2053,467
510,6	2055,627
511,1	2043,107
511,5	2037,987
512	2028,267
512,4	2015,787
512,9	2007,587
513,3	2004,387
513,8	2007,907
514,2	2001,307
514,7	1997,787
515,1	1982,547
515,6	1976,507
516	1965,227
516,5	1954,267
516,9	1950,027
517,4	1945,267
517,8	1937,907
518,3	1935,507
518,7	1933,387
519,2	1927,587
519,6	1927,587
520,1	1920,187
520,5	1912,427
521	1902,947
521,4	1891,947
521,9	1882,147
522,3	1878,387
522,8	1868,427
523,2	1874,947
523,7	1878,107
524,1	1872,947
524,6	1862,827
525	1857,507
525,5	1842,227
525,9	1843,427
526,4	1840,347
526,8	1834,747
527,3	1825,947
527,7	1824,067
528,2	1811,107
528,6	1811,787
529,1	1810,147
529,5	1807,907
530	1801,707
530,4	1801,547
530,9	1794,107
531,3	1786,107
531,8	1791,547
532,2	1787,827
532,6	1775,467
533,1	1765,507
533,5	1764,627
534	1750,787
534,4	1750,387
534,9	1746,147
535,3	1747,467
535,8	1739,227
536,2	1735,947
536,7	1729,947
537,1	1730,507
537,6	1726,387
538	1726,107
538,5	1715,147
538,9	1705,107
539,4	1705,707
539,8	1702,747
540,3	1697,787
540,7	1703,507
541,2	1702,427
541,6	1693,707
542,1	1701,107
542,5	1705,707
543	1703,587
543,4	1699,907
543,9	1702,507
544,3	1691,387
544,8	1689,907
545,2	1693,787
545,7	1697,547
546,1	1690,427
546,5	1692,627
547	1687,307
547,4	1679,467
547,9	1681,747
548,3	1678,147
548,8	1668,627
549,2	1671,067
549,7	1667,387
550,1	1660,867
550,6	1668,107
551	1666,827
551,5	1660,027
551,9	1667,227
552,4	1671,867
552,8	1671,587
553,3	1669,587
553,7	1672,987
554,2	1663,627
554,6	1661,027
555,1	1652,147
555,5	1652,107
555,9	1648,427
556,4	1656,267
556,8	1653,107
557,3	1654,387
557,7	1647,907
558,2	1653,667
558,6	1644,147
559,1	1634,387
559,5	1633,027
560	1637,467
560,4	1633,307
560,9	1629,987
561,3	1627,667
561,8	1625,707
562,2	1622,827
562,7	1617,667
563,1	1619,707
563,6	1625,147
564	1622,827
564,4	1621,147
564,9	1621,467
565,3	1614,387
565,8	1609,827
566,2	1606,907
566,7	1609,667
567,1	1601,827
567,6	1603,627
568	1609,627
568,5	1605,987
568,9	1591,667
569,4	1590,507
569,8	1584,147
570,3	1575,827
570,7	1581,987
571,1	1583,587
571,6	1586,267
572	1592,027
572,5	1585,867
572,9	1580,347
573,4	1584,107
573,8	1573,187
574,3	1562,587
574,7	1564,867
575,2	1549,507
575,6	1543,307
576,1	1544,907
576,5	1540,467
576,9	1532,187
577,4	1536,067
577,8	1525,987
578,3	1522,787
578,7	1522,547
579,2	1521,627
579,6	1516,547
580,1	1515,267
580,5	1512,107
581	1509,467
581,4	1498,747
581,9	1496,187
582,3	1492,107
582,7	1484,547
583,2	1473,627
583,6	1476,427
584,1	1474,187
584,5	1464,027
585	1458,827
585,4	1451,947
585,9	1447,987
586,3	1444,427
586,8	1449,387
587,2	1445,787
587,6	1451,707
588,1	1451,827
588,5	1447,547
589	1445,307
589,4	1439,627
589,9	1434,027
590,3	1415,707
590,8	1410,507
591,2	1401,907
591,7	1400,507
592,1	1403,187
592,5	1408,627
593	1396,747
593,4	1392,827
593,9	1391,547
594,3	1375,987
594,8	1366,547
595,2	1372,987
595,7	1374,987
596,1	1375,227
596,6	1373,067
597	1374,667
597,4	1365,187
597,9	1358,827
598,3	1348,027
598,8	1348,387
599,2	1340,107
599,7	1337,627
600,1	1337,587
600,6	1330,867
601	1319,067
601,4	1323,027
601,9	1315,147
602,3	1309,027
602,8	1309,027
603,2	1305,227
603,7	1299,147
604,1	1297,907
604,6	1289,427
605	1286,707
605,4	1281,987
605,9	1273,907
606,3	1276,787
606,8	1268,227
607,2	1257,107
607,7	1252,787
608,1	1245,507
608,6	1239,947
609	1241,747
609,4	1235,507
609,9	1232,347
610,3	1223,587
610,8	1211,347
611,2	1202,507
611,7	1206,587
612,1	1200,107
612,6	1199,907
613	1190,627
613,4	1189,587
613,9	1177,067
614,3	1175,267
614,8	1171,627
615,2	1164,787
615,7	1163,387
616,1	1161,627
616,6	1148,747
617	1142,347
617,4	1140,667
617,9	1125,067
618,3	1114,067
618,8	1111,867
619,2	1109,107
619,7	1109,147
620,1	1103,827
620,5	1102,107
621	1098,747
621,4	1097,227
621,9	1082,307
622,3	1076,387
622,8	1069,987
623,2	1059,307
623,6	1048,107
624,1	1046,507
624,5	1041,947
625	1034,427
625,4	1035,827
625,9	1023,467
626,3	1024,427
626,8	1022,827
627,2	1024,187
627,6	1015,947
628,1	1016,827
628,5	1001,787
629	999,307
629,4	984,507
629,9	981,427
630,3	976,667
630,7	976,587
631,2	960,667
631,6	956,107
632,1	951,347
632,5	935,867
633	928,507
633,4	926,267
633,8	912,427
634,3	906,427
634,7	903,507
635,2	895,067
635,6	890,347
636,1	895,267
636,5	891,427
636,9	884,267
637,4	880,147
637,8	878,947
638,3	865,067
638,7	848,667
639,2	849,427
639,6	843,547
640	838,547
640,5	844,147
640,9	842,347
641,4	833,907
641,8	828,067
642,2	821,827
642,7	814,627
643,1	807,307
643,6	805,147
644	802,547
644,5	794,507
644,9	791,787
645,3	791,987
645,8	786,147
646,2	778,627
646,7	770,227
647,1	757,707
647,6	747,387
648	743,667
648,4	743,227
648,9	749,387
649,3	746,627
649,8	747,187
650,2	749,427
650,6	743,227
651,1	731,667
651,5	735,587
652	735,187
652,4	721,747
652,9	712,867
653,3	711,227
653,7	697,067
654,2	690,907
654,6	689,067
655,1	685,387
655,5	678,867
655,9	682,827
656,4	672,947
656,8	665,707
657,3	662,107
657,7	658,427
658,2	649,067
658,6	650,227
659	650,627
659,5	643,107
659,9	632,427
660,4	625,387
660,8	622,747
661,2	612,267
661,7	613,467
662,1	617,227
662,6	609,227
663	599,547
663,4	598,667
663,9	594,307
664,3	587,387
664,8	591,987
665,2	588,107
665,6	581,747
666,1	575,227
666,5	566,507
667	561,267
667,4	553,747
667,9	553,867
668,3	546,427
668,7	542,067
669,2	535,147
669,6	538,107
670,1	534,827
670,5	535,427
670,9	532,027
671,4	518,587
671,8	511,587
672,3	503,747
672,7	498,267
673,1	494,547
673,6	503,067
674	504,867
674,5	504,547
674,9	505,747
675,3	498,787
675,8	497,987
676,2	484,187
676,7	474,547
677,1	475,347
677,5	474,387
678	464,507
678,4	469,787
678,9	466,347
679,3	454,827
679,7	455,867
680,2	453,267
680,6	442,227
681,1	438,107
681,5	435,987
681,9	426,387
682,4	423,467
682,8	418,427
683,3	420,467
683,7	414,627
684,1	417,147
684,6	413,827
685	411,427
685,5	400,307
685,9	400,027
686,3	394,587
686,8	385,787
687,2	388,907
687,7	384,707
688,1	384,667
688,5	388,347
689	392,467
689,4	389,387
689,9	386,907
690,3	383,587
690,7	375,107
691,2	374,147
691,6	360,187
692	362,667
692,5	360,027
692,9	360,427
693,4	352,947
693,8	359,907
694,2	357,827
694,7	352,507
695,1	348,307
695,6	346,227
696	337,947
696,4	335,027
696,9	334,507
697,3	332,227
697,8	329,227
698,2	330,187
698,6	323,387
699,1	315,507
699,5	307,707
699,9	299,907
700,4	297,867
700,8	297,307
701,3	291,067
701,7	297,667
702,1	305,707
702,6	299,707
703	300,627
703,5	300,267
703,9	288,267
704,3	278,627
704,8	276,987
705,2	270,907
705,6	266,947
706,1	262,027
706,5	255,467
707	252,627
707,4	248,107
707,8	248,907
708,3	252,547
708,7	251,387
709,2	243,627
709,6	238,427
710	231,947
710,5	225,387
710,9	220,787
711,3	225,827
711,8	231,027
712,2	237,427
712,7	233,347
713,1	236,867
713,5	239,387
714	231,427
714,4	222,827
714,8	221,907
715,3	217,587
715,7	217,227
716,2	215,307
716,6	216,467
717	213,747
717,5	216,187
717,9	209,547
718,3	207,827
718,8	205,867
719,2	205,827
719,7	202,227
720,1	199,707
720,5	197,147
721	190,347
721,4	188,187
721,8	184,307
722,3	179,507
722,7	177,107
723,2	184,547
723,6	181,387
724	177,067
724,5	176,347
724,9	178,587
725,3	170,427
725,8	166,507
726,2	169,107
726,7	161,587
727,1	153,947
727,5	151,307
728	152,667
728,4	142,947
728,8	150,427
729,3	157,627
729,7	161,787
730,1	161,227
730,6	164,227
731	158,347
731,5	151,667
731,9	141,547
732,3	142,587
732,8	138,547
733,2	141,107
733,6	142,147
734,1	145,027
734,5	137,347
734,9	142,867
735,4	131,507
735,8	132,027
736,3	127,187
736,7	130,107
737,1	130,107
737,6	137,987
738	127,027
738,4	125,147
738,9	122,547
739,3	115,547
739,7	107,827
740,2	106,507
740,6	103,347
741,1	102,067
741,5	103,347
741,9	104,867
742,4	107,667
742,8	107,787
743,2	99,667
743,7	95,107
744,1	90,947
744,5	89,227
745	88,747
745,4	99,387
745,8	99,947
746,3	103,707
746,7	99,907
747,2	95,827
747,6	86,627
748	81,947
748,5	78,707
748,9	82,347
749,3	92,187
749,8	92,507
750,2	92,707
750,6	88,147
751,1	83,707
751,5	77,787
751,9	80,747
752,4	84,027
752,8	83,347
753,3	86,187
753,7	85,067
754,1	77,867
754,6	76,467
755	81,827
755,4	83,427
755,9	71,147
756,3	69,507
756,7	67,067
757,2	57,067
757,6	48,627
758	54,507
758,5	61,027
758,9	58,147
759,3	61,507
759,8	61,547
760,2	60,867
760,6	51,947
761,1	51,027
761,5	40,427
761,9	33,027
762,4	36,227
762,8	36,507
763,3	34,347
763,7	39,067
764,1	45,627
764,6	46,987
765	50,467
765,4	53,947
765,9	60,427
766,3	58,387
766,7	51,707
767,2	47,067
767,6	41,027
768	29,107
768,5	32,547
768,9	37,067
769,3	33,707
769,8	38,547
770,2	44,667
770,6	41,227
771,1	36,307
771,5	33,907
771,9	31,147
772,4	33,027
772,8	30,547
773,2	27,867
773,7	37,667
774,1	32,787
774,5	33,107
775	33,467
775,4	38,707
775,8	33,827
776,3	36,027
776,7	35,667
777,1	38,827
777,6	30,547
778	28,627
778,4	29,027
778,9	26,587
779,3	19,187
779,7	21,467
780,2	15,147
780,6	14,427
781	7,547
781,5	9,267
781,9	5,187
782,3	8,147
782,8	6,987
783,2	15,587
783,6	14,467
784,1	14,667
784,5	14,427
784,9	11,947
785,4	8,187
785,8	11,587
786,2	8,467
786,7	15,947
787,1	15,227
787,5	7,067
788	5,627
788,4	5,947
788,8	-1,573
789,3	-1,013
789,7	-1,533
790,1	-3,933
790,6	0,587
791	-2,893
791,4	-0,893
791,9	2,947
792,3	-4,493
792,7	-3,773
793,2	4,587
793,6	4,347
794	10,387
794,5	18,707
794,9	10,507
795,3	0,387
795,8	-7,493
796,2	-17,413
796,6	-16,373
797,1	-15,533
797,5	-14,813
797,9	-12,453
798,4	-13,653
798,8	-15,973
799,2	-8,973
799,7	-9,973
800,1	-12,413
800,5	-5,533
801	-14,373
801,4	-19,893
801,8	-16,413
802,2	-14,653
802,7	-15,253
803,1	-5,773
803,5	-3,653
804	-7,013
804,4	-8,453
804,8	-7,493
805,3	-8,053
805,7	-16,293
806,1	-16,173
806,6	-13,413
807	-23,573
807,4	-35,453
807,9	-24,453
808,3	-22,533
808,7	-27,933
809,2	-23,333
809,6	-16,533
810	-24,413
810,4	-35,533
810,9	-33,133
811,3	-36,613
811,7	-41,293
812,2	-42,573
812,6	-37,093
813	-38,933
813,5	-32,973
813,9	-24,253
814,3	-20,333
814,8	-16,173
815,2	-16,733
815,6	-22,373
816,1	-22,533
816,5	-27,293
816,9	-27,773
817,3	-31,893
817,8	-35,453
818,2	-43,933
818,6	-43,613
819,1	-44,853
819,5	-38,893
819,9	-35,893
820,4	-34,613
820,8	-30,973
821,2	-26,253
821,7	-29,613
822,1	-25,333
822,5	-22,293
822,9	-23,373
823,4	-27,093
823,8	-30,773
824,2	-33,773
824,7	-38,373
825,1	-43,973
825,5	-44,493
826	-40,733
826,4	-39,333
826,8	-40,693
827,3	-38,813
827,7	-36,533
828,1	-32,173
828,5	-36,733
829	-39,373
829,4	-40,653
829,8	-44,053
830,3	-48,653
830,7	-49,173
831,1	-48,573
831,6	-51,693
832	-54,293
832,4	-56,213
832,8	-55,453
833,3	-52,333
833,7	-48,853
834,1	-47,933
834,6	-49,733
835	-53,173
835,4	-53,173
835,8	-50,213
836,3	-48,333
836,7	-42,893
837,1	-43,093
837,6	-43,253
838	-44,333
838,4	-52,213
838,9	-58,413
839,3	-53,973
839,7	-54,573
840,1	-57,973
840,6	-54,013
841	-52,893
841,4	-60,613
841,9	-55,333
842,3	-57,213
842,7	-59,573
843,1	-63,253
843,6	-55,053
844	-66,733
844,4	-61,933
844,9	-60,853
845,3	-47,653
845,7	-50,013
846,2	-44,893
846,6	-46,573
847	-47,253
847,4	-55,093
847,9	-58,693
848,3	-59,693
848,7	-58,493
849,2	-57,493
849,6	-60,213
850	-54,173
850,4	-51,293
850,9	-53,293
851,3	-50,093
851,7	-54,093
852,2	-57,253
852,6	-61,933
853	-60,293
853,4	-64,293
853,9	-61,853
854,3	-60,933
854,7	-52,453
855,2	-56,333
855,6	-57,093
856	-55,013
856,4	-59,933
856,9	-64,053
857,3	-59,573
857,7	-61,413
858,2	-58,493
858,6	-60,133
859	-62,093
859,4	-66,813
859,9	-69,253
860,3	-71,773
860,7	-63,493
861,1	-65,293
861,6	-62,653
862	-58,773
862,4	-58,813
862,9	-59,333
863,3	-53,493
863,7	-52,613
864,1	-50,493
864,6	-45,453
865	-48,613
865,4	-47,173
865,9	-51,053
866,3	-56,133
866,7	-64,813
867,1	-68,173
867,6	-76,093
868	-77,613
868,4	-75,693
868,8	-72,293
869,3	-70,613
869,7	-68,573
870,1	-70,213
870,6	-68,773
871	-66,373
871,4	-49,373
871,8	-50,733
872,3	-48,613
872,7	-52,533
873,1	-57,093
873,5	-76,453
874	-78,093
874,4	-79,653
874,8	-79,733
875,3	-78,373
875,7	-74,213
876,1	-72,053
876,5	-70,373
877	-71,373
877,4	-68,093
877,8	-66,573
878,2	-66,373
878,7	-66,053
879,1	-61,213
879,5	-61,813
879,9	-65,373
880,4	-65,213
880,8	-69,253
881,2	-72,213
881,7	-77,293
882,1	-72,453
882,5	-73,693
882,9	-62,453
883,4	-58,533
883,8	-54,133
884,2	-61,333
884,6	-66,493
885,1	-74,093
885,5	-78,693
885,9	-79,293
886,3	-79,453
886,8	-74,853
887,2	-70,933
887,6	-71,973
888	-76,413
888,5	-71,293
888,9	-72,533
889,3	-80,653
889,8	-80,013
890,2	-75,133
890,6	-77,333
891	-75,013
891,5	-66,973
891,9	-62,773
892,3	-59,253
892,7	-58,453
893,2	-57,853
893,6	-61,013
894	-66,973
894,4	-80,453
894,9	-80,413
895,3	-82,213
895,7	-83,213
896,1	-75,533
896,6	-73,453
897	-68,533
897,4	-69,213
897,8	-73,173
898,3	-82,213
898,7	-80,053
899,1	-88,813
899,5	-83,813
900	-81,053
900,4	-75,733
900,8	-73,973
901,2	-71,493
901,7	-79,413
902,1	-79,213
902,5	-79,413
902,9	-76,493
903,4	-78,253
903,8	-77,093
904,2	-75,853
904,6	-70,893
905,1	-70,013
905,5	-69,133
905,9	-67,933
906,3	-63,493
906,8	-65,133
907,2	-67,053
907,6	-65,253
908	-64,053
908,5	-65,533
908,9	-66,133
909,3	-68,453
909,7	-72,413
910,2	-65,253
910,6	-66,093
911	-66,453
911,4	-62,693
911,9	-60,613
912,3	-68,933
912,7	-67,853
913,1	-72,733
913,6	-73,693
914	-75,653
914,4	-71,813
914,8	-71,053
915,3	-64,893
915,7	-66,533
916,1	-68,373
916,5	-70,613
916,9	-72,373
917,4	-77,133
917,8	-73,853
918,2	-72,933
918,6	-72,373
919,1	-75,333
919,5	-72,133
919,9	-71,013
920,3	-64,533
920,8	-70,453
921,2	-63,053
921,6	-68,733
922	-74,573
922,5	-76,493
922,9	-76,533
923,3	-78,693
923,7	-76,373
924,2	-78,653
924,6	-79,053
925	-65,773
925,4	-74,093
925,8	-74,773
926,3	-72,333
926,7	-70,333
927,1	-78,493
927,5	-76,253
928	-74,293
928,4	-69,013
928,8	-73,333
929,2	-71,413
929,7	-67,653
930,1	-71,893
930,5	-73,373
930,9	-74,893
931,3	-73,933
931,8	-78,133
932,2	-70,893
932,6	-74,373
933	-72,813
933,5	-75,173
933,9	-77,293
934,3	-88,293
934,7	-87,413
935,2	-82,933
935,6	-85,013
936	-87,093
936,4	-83,453
936,8	-86,253
937,3	-89,253
937,7	-95,213
938,1	-91,173
938,5	-79,813
939	-77,933
939,4	-80,173
939,8	-76,173
940,2	-74,773
940,6	-88,253
941,1	-85,453
941,5	-83,973
941,9	-82,133
942,3	-83,933
942,8	-86,253
943,2	-93,093
943,6	-98,333
944	-97,693
944,4	-92,813
944,9	-84,013
945,3	-78,933
945,7	-80,533
946,1	-80,373
946,6	-87,213
947	-86,733
947,4	-87,773
947,8	-82,733
948,2	-80,453
948,7	-70,453
949,1	-69,253
949,5	-70,133
949,9	-62,533
950,3	-70,573
950,8	-75,453
951,2	-77,533
951,6	-78,093
952	-88,373
952,5	-78,293
952,9	-78,733
953,3	-83,133
953,7	-84,373
954,1	-76,973
954,6	-85,413
955	-87,173
955,4	-87,493
955,8	-80,293
956,2	-87,293
956,7	-79,613
957,1	-80,253
957,5	-79,053
957,9	-85,653
958,3	-79,813
958,8	-83,813
959,2	-80,253
959,6	-81,693
960	-79,333
960,5	-86,293
960,9	-83,133
961,3	-84,773
961,7	-82,613
962,1	-79,933
962,6	-78,653
963	-84,013
963,4	-82,813
963,8	-82,813
964,2	-92,053
964,7	-88,373
965,1	-82,613
965,5	-86,933
965,9	-89,733
966,3	-81,613
966,8	-80,893
967,2	-85,613
967,6	-83,533
968	-74,973
968,4	-72,493
968,9	-76,653
969,3	-77,133
969,7	-75,653
970,1	-80,573
970,5	-85,413
971	-78,853
971,4	-80,573
971,8	-78,573
972,2	-79,653
972,6	-78,613
973,1	-79,733
973,5	-75,053
973,9	-80,093
974,3	-80,613
974,7	-75,213
975,2	-73,973
975,6	-77,093
976	-70,373
976,4	-69,533
976,8	-75,773
977,3	-80,893
977,7	-75,613
978,1	-78,053
978,5	-76,013
978,9	-75,773
979,4	-75,813
979,8	-81,653
980,2	-80,973
980,6	-78,933
981	-77,653
981,5	-82,093
981,9	-78,813
982,3	-81,453
982,7	-81,733
983,1	-80,373
983,6	-72,813
984	-72,613
984,4	-77,973
984,8	-78,213
985,2	-83,573
985,6	-87,053
986,1	-87,213
986,5	-78,973
986,9	-81,093
987,3	-79,893
987,7	-76,493
988,2	-76,973
988,6	-80,133
989	-80,973
989,4	-84,133
989,8	-90,853
990,3	-94,253
990,7	-92,053
991,1	-95,413
991,5	-92,133
991,9	-82,653
992,3	-79,093
992,8	-81,373
993,2	-80,013
993,6	-79,133
994	-80,173
994,4	-79,373
994,9	-79,493
995,3	-75,373
995,7	-74,013
996,1	-76,573
996,5	-79,853
996,9	-77,213
997,4	-87,413
997,8	-88,973
998,2	-84,933
998,6	-84,173
999	-90,493
999,5	-82,573
999,9	-82,893
1000,3	-86,613
1000,7	-88,013
1001,1	-82,013
1001,5	-78,573
1002	-74,813
1002,4	-75,013
1002,8	-70,213
1003,2	-71,493
1003,6	-74,613
1004	-76,413
1004,5	-74,053
1004,9	-77,413
1005,3	-80,413
1005,7	-80,493
1006,1	-74,773
1006,6	-81,573
1007	-73,333
1007,4	-74,653
1007,8	-76,773
1008,2	-84,813
1008,6	-78,853
1009,1	-85,013
1009,5	-80,733
1009,9	-84,773
1010,3	-80,413
1010,7	-86,813
1011,1	-87,253
1011,6	-90,253
1012	-86,093
1012,4	-91,733
1012,8	-88,373
1013,2	-86,133
1013,6	-83,253
1014,1	-82,053
1014,5	-76,013
1014,9	-72,813
1015,3	-73,733
1015,7	-78,653
1016,1	-76,973
1016,6	-79,493
1017	-81,133
1017,4	-86,413
1017,8	-88,053
1018,2	-96,733
1018,6	-94,413
1019,1	-96,133
1019,5	-92,413
1019,9	-89,453
1020,3	-79,653
1020,7	-79,853
1021,1	-86,493
1021,6	-86,653
1022	-86,813
1022,4	-90,453
1022,8	-96,093
1023,2	-96,573
1023,6	-92,853
1024,1	-90,293
1024,5	-96,373
1024,9	-94,973
1025,3	-92,173
1025,7	-101,493
1026,1	-105,053
1026,6	-97,173
1027	-98,933
1027,4	-101,653
1027,8	-100,573
1028,2	-100,973
1028,6	-104,693
1029	-103,173
1029,5	-100,093
1029,9	-94,373
1030,3	-90,973
1030,7	-85,213
1031,1	-88,453
1031,5	-84,213
1032	-87,533
1032,4	-93,773
1032,8	-98,013
1033,2	-96,373
1033,6	-92,853
1034	-91,013
1034,4	-84,373
1034,9	-85,093
1035,3	-82,133
1035,7	-88,693
1036,1	-92,053
1036,5	-92,733
1036,9	-88,533
1037,4	-91,693
1037,8	-91,613
1038,2	-92,933
1038,6	-93,613
1039	-99,053
1039,4	-97,733
1039,8	-95,293
1040,3	-99,613
1040,7	-99,693
1041,1	-103,173
1041,5	-105,253
1041,9	-110,173
1042,3	-106,413
1042,7	-107,133
1043,2	-106,653
1043,6	-106,693
1044	-103,893
1044,4	-101,693
1044,8	-102,693
1045,2	-101,653
1045,6	-106,453
1046,1	-107,853
1046,5	-107,813
1046,9	-107,453
1047,3	-102,213
1047,7	-100,373
1048,1	-95,213
1048,5	-95,693
1049	-90,293
1049,4	-95,253
1049,8	-94,053
1050,2	-102,493
1050,6	-98,533
1051	-112,213
1051,4	-108,693
1051,9	-109,533
1052,3	-115,053
1052,7	-123,493
1053,1	-118,493
1053,5	-117,373
1053,9	-113,653
1054,3	-110,573
1054,8	-101,653
1055,2	-94,933
1055,6	-94,213
1056	-87,133
1056,4	-78,853
1056,8	-83,133
1057,2	-85,653
1057,6	-89,533
1058,1	-93,893
1058,5	-93,253
1058,9	-91,253
1059,3	-93,533
1059,7	-89,493
1060,1	-96,173
1060,5	-91,933
1061	-92,213
1061,4	-87,013
1061,8	-85,573
1062,2	-78,413
1062,6	-86,373
1063	-88,253
1063,4	-89,373
1063,8	-97,213
1064,3	-97,173
1064,7	-89,173
1065,1	-84,493
1065,5	-82,453
1065,9	-77,733
1066,3	-77,893
1066,7	-85,173
1067,1	-91,493
1067,6	-97,493
1068	-98,453
1068,4	-101,533
1068,8	-91,053
1069,2	-87,053
1069,6	-85,253
1070	-81,613
1070,4	-84,293
1070,9	-88,693
1071,3	-85,933
1071,7	-80,213
1072,1	-80,613
1072,5	-84,973
1072,9	-90,333
1073,3	-90,493
1073,7	-97,933
1074,2	-106,533
1074,6	-96,813
1075	-98,733
1075,4	-100,373
1075,8	-94,693
1076,2	-90,573
1076,6	-89,373
1077	-83,573
1077,5	-90,413
1077,9	-89,533
1078,3	-83,333
1078,7	-83,453
1079,1	-81,693
1079,5	-71,773
1079,9	-75,493
1080,3	-80,093
1080,7	-81,933
1081,2	-83,573
1081,6	-90,373
1082	-85,853
1082,4	-83,813
1082,8	-82,373
1083,2	-87,893
1083,6	-84,533
1084	-88,973
1084,5	-90,293
1084,9	-95,013
1085,3	-88,173
1085,7	-88,453
1086,1	-84,373
1086,5	-82,413
1086,9	-77,573
1087,3	-83,613
1087,7	-79,013
1088,2	-76,333
1088,6	-71,093
1089	-74,373
1089,4	-69,773
1089,8	-71,413
1090,2	-75,373
1090,6	-78,253
1091	-75,613
1091,4	-75,533
1091,9	-80,133
1092,3	-81,733
1092,7	-82,173
1093,1	-84,213
1093,5	-80,213
1093,9	-76,933
1094,3	-72,853
1094,7	-70,413
1095,1	-65,453
1095,5	-71,973
1096	-72,773
1096,4	-75,653
1096,8	-75,853
1097,2	-77,973
1097,6	-69,853
1098	-69,733
1098,4	-64,773
1098,8	-69,573
1099,2	-66,413
1099,6	-70,453
1100,1	-67,733
1100,5	-66,733
1100,9	-59,853
1101,3	-59,413
1101,7	-60,213
1102,1	-59,413
1102,5	-61,973
1102,9	-58,453
1103,3	-59,813
1103,7	-55,693
1104,2	-52,213
1104,6	-52,013
1105	-58,533
1105,4	-55,053
1105,8	-52,053
1106,2	-44,173
1106,6	-31,573
1107	-18,213
1107,4	-8,413
1107,8	-0,683
1108,3	0,933
