Data from Subt2_00043.txt Node
Date: Fri Aug 11 16:03:30 MSK 2023
User: vat
Spectrometer: MAYP114033
Trigger mode: 0
Integration Time (sec): 5,000000E-1
Scans to average: 5
Electric dark correction enabled: true
Nonlinearity correction enabled: false
Boxcar width: 2
XAxis mode: Wavelengths
Number of Pixels in Spectrum: 2068
>>>>>Begin Spectral Data<<<<<
199,4	0,433
199,9	0,833
200,4	-3,447
200,8	-0,767
201,3	-4,247
201,8	-6,047
202,2	-5,647
202,7	-1,607
203,2	-2,287
203,6	1,953
204,1	2,353
204,6	-0,247
205	1,553
205,5	-0,807
206	-0,527
206,4	1,153
206,9	3,873
207,4	2,433
207,8	2,873
208,3	-1,527
208,8	-2,127
209,2	-4,207
209,7	-9,767
210,2	-7,927
210,6	-9,527
211,1	-10,847
211,5	-9,927
212	-4,647
212,5	-6,047
212,9	-5,167
213,4	-7,127
213,9	-5,807
214,3	-7,927
214,8	-9,567
215,3	-4,927
215,7	-5,727
216,2	-3,127
216,7	-4,487
217,1	-7,887
217,6	-8,607
218,1	-9,767
218,5	-18,287
219	-14,127
219,5	-5,567
219,9	-5,527
220,4	0,193
220,9	3,993
221,3	1,673
221,8	-1,967
222,3	-5,647
222,7	-3,367
223,2	-5,607
223,6	-11,207
224,1	-12,927
224,6	-12,767
225	-18,567
225,5	-14,727
226	-6,887
226,4	-7,487
226,9	-4,927
227,4	-1,127
227,8	-5,287
228,3	-10,687
228,8	-10,727
229,2	-17,007
229,7	-17,447
230,2	-14,367
230,6	-15,327
231,1	-16,687
231,5	-11,807
232	-16,167
232,5	-14,367
232,9	-10,367
233,4	-10,647
233,9	-10,207
234,3	-3,247
234,8	-0,287
235,3	2,553
235,7	8,313
236,2	5,993
236,7	1,193
237,1	-7,407
237,6	-8,687
238,1	-12,247
238,5	-11,527
239	-11,807
239,4	-10,967
239,9	-7,007
240,4	-6,367
240,8	-5,807
241,3	-8,327
241,8	-1,807
242,2	-6,567
242,7	1,193
243,2	0,233
243,6	4,433
244,1	-1,887
244,6	-3,247
245	-10,687
245,5	-9,967
245,9	-11,487
246,4	-10,007
246,9	-9,007
247,3	-9,567
247,8	-9,767
248,3	-7,847
248,7	-7,807
249,2	-15,927
249,7	-20,567
250,1	-20,007
250,6	-22,327
251	-25,287
251,5	-19,807
252	-21,967
252,4	-20,527
252,9	-14,967
253,4	-14,167
253,8	-8,127
254,3	1,673
254,8	0,273
255,2	1,113
255,7	5,793
256,1	0,593
256,6	-3,207
257,1	-0,647
257,5	-3,727
258	-8,007
258,5	-9,767
258,9	-6,727
259,4	-0,487
259,9	-2,687
260,3	2,633
260,8	7,753
261,2	7,433
261,7	-0,767
262,2	0,113
262,6	-0,687
263,1	2,873
263,6	-1,087
264	-1,127
264,5	-5,327
264,9	-9,807
265,4	-20,647
265,9	-14,607
266,3	-13,007
266,8	-6,687
267,3	-3,447
267,7	4,433
268,2	2,153
268,7	1,233
269,1	-1,087
269,6	0,553
270	-4,967
270,5	-7,247
271	-7,567
271,4	-11,327
271,9	-10,247
272,4	-8,207
272,8	-5,287
273,3	-11,167
273,7	-6,327
274,2	-2,887
274,7	0,313
275,1	-3,927
275,6	2,353
276,1	1,393
276,5	-4,207
277	-7,687
277,4	-5,087
277,9	-4,967
278,4	-6,887
278,8	-8,447
279,3	-8,447
279,8	-15,007
280,2	-11,967
280,7	-8,967
281,1	-8,607
281,6	-7,527
282,1	3,833
282,5	0,873
283	1,193
283,4	2,033
283,9	4,473
284,4	-2,247
284,8	-3,847
285,3	-4,367
285,8	-5,847
286,2	-6,207
286,7	-5,127
287,1	-3,447
287,6	-6,687
288,1	-4,567
288,5	-4,487
289	-4,327
289,5	-6,367
289,9	-1,767
290,4	-1,647
290,8	-2,687
291,3	-4,367
291,8	-5,287
292,2	-7,687
292,7	-6,607
293,1	-9,167
293,6	-6,007
294,1	-4,287
294,5	-9,807
295	-9,887
295,5	-7,247
295,9	-9,247
296,4	-9,527
296,8	0,153
297,3	-1,367
297,8	-2,967
298,2	-6,327
298,7	-5,487
299,1	-13,367
299,6	-9,567
300,1	-7,647
300,5	-3,327
301	-5,807
301,5	-5,647
301,9	-13,727
302,4	-14,327
302,8	-14,007
303,3	-11,527
303,8	-8,887
304,2	-9,367
304,7	-10,447
305,1	-12,087
305,6	-9,727
306,1	-5,167
306,5	-0,767
307	-1,967
307,4	-1,607
307,9	-1,567
308,4	1,913
308,8	4,913
309,3	11,593
309,8	13,833
310,2	8,033
310,7	-2,087
311,1	-14,807
311,6	-18,127
312,1	-18,527
312,5	-20,967
313	-19,287
313,4	-15,007
313,9	-13,407
314,4	-10,727
314,8	-6,607
315,3	-5,047
315,7	-1,607
316,2	-7,407
316,7	-11,367
317,1	-10,047
317,6	-14,967
318	-12,407
318,5	-9,567
319	-10,207
319,4	-15,007
319,9	-13,047
320,3	-10,607
320,8	-2,967
321,3	-4,767
321,7	3,513
322,2	2,753
322,6	-0,487
323,1	-15,567
323,6	-15,847
324	-14,887
324,5	-13,647
324,9	-16,407
325,4	-4,807
325,9	-2,887
326,3	-5,167
326,8	-4,527
327,2	-7,567
327,7	-14,447
328,2	-19,167
328,6	-22,167
329,1	-19,327
329,5	-10,687
330	-9,567
330,5	-4,887
330,9	-6,327
331,4	-7,047
331,8	-12,807
332,3	-7,767
332,8	-6,647
333,2	-10,567
333,7	-10,247
334,1	-10,207
334,6	-12,807
335,1	-12,047
335,5	-5,847
336	-4,087
336,4	-2,527
336,9	-1,767
337,4	-6,127
337,8	-3,407
338,3	-9,407
338,7	-7,327
339,2	-11,487
339,7	-9,247
340,1	-8,447
340,6	-3,967
341	-9,327
341,5	-8,327
342	-7,487
342,4	-9,087
342,9	-12,287
343,3	-9,007
343,8	-5,207
344,2	-1,207
344,7	0,873
345,2	1,633
345,6	0,073
346,1	-2,127
346,5	-2,527
347	-13,647
347,5	-16,607
347,9	-11,087
348,4	-11,327
348,8	-14,607
349,3	-6,087
349,8	-1,127
350,2	-0,167
350,7	0,793
351,1	-0,967
351,6	-1,407
352	-4,447
352,5	-1,807
353	0,153
353,4	7,073
353,9	15,353
354,3	24,353
354,8	26,353
355,3	33,673
355,7	36,513
356,2	35,233
356,6	38,953
357,1	44,753
357,5	51,073
358	66,513
358,5	86,753
358,9	100,873
359,4	116,313
359,8	139,153
360,3	161,073
360,8	179,313
361,2	212,993
361,7	244,273
362,1	273,473
362,6	311,033
363	350,273
363,5	392,273
364	438,313
364,4	492,593
364,9	538,353
365,3	598,313
365,8	643,073
366,3	690,873
366,7	728,073
367,2	760,873
367,6	781,153
368,1	803,313
368,5	808,393
369	814,953
369,5	812,593
369,9	806,513
370,4	792,753
370,8	787,233
371,3	762,953
371,7	739,393
372,2	711,473
372,7	681,313
373,1	637,353
373,6	599,913
374	568,313
374,5	532,913
374,9	491,513
375,4	457,473
375,9	425,153
376,3	389,313
376,8	357,313
377,2	330,233
377,7	304,433
378,2	277,633
378,6	252,153
379,1	225,713
379,5	205,913
380	186,033
380,4	167,993
380,9	153,353
381,4	144,993
381,8	141,593
382,3	133,233
382,7	124,473
383,2	116,473
383,6	107,273
384,1	90,953
384,6	81,673
385	73,953
385,5	70,873
385,9	65,753
386,4	62,273
386,8	57,033
387,3	58,553
387,7	52,473
388,2	42,833
388,7	42,713
389,1	37,913
389,6	29,713
390	25,433
390,5	25,473
390,9	19,153
391,4	18,393
391,9	17,593
392,3	15,513
392,8	17,993
393,2	17,313
393,7	21,313
394,1	24,433
394,6	27,073
395,1	22,273
395,5	22,433
396	16,393
396,4	8,433
396,9	7,913
397,3	11,873
397,8	11,073
398,2	14,873
398,7	16,833
399,2	12,953
399,6	9,553
400,1	9,793
400,5	8,113
401	12,993
401,4	11,793
401,9	10,593
402,4	4,913
402,8	8,153
403,3	0,393
403,7	-0,727
404,2	6,953
404,6	11,353
405,1	10,193
405,5	17,113
406	20,033
406,5	18,553
406,9	18,433
407,4	19,953
407,8	22,713
408,3	28,113
408,7	27,873
409,2	30,513
409,6	30,273
410,1	29,993
410,6	34,113
411	35,033
411,5	44,913
411,9	55,753
412,4	63,873
412,8	60,793
413,3	63,873
413,7	71,153
414,2	71,833
414,7	79,073
415,1	87,833
415,6	92,033
416	93,713
416,5	93,993
416,9	104,233
417,4	114,553
417,8	124,473
418,3	130,913
418,8	144,273
419,2	146,273
419,7	154,593
420,1	166,353
420,6	171,753
421	181,593
421,5	185,553
421,9	197,993
422,4	212,113
422,8	228,233
423,3	241,433
423,8	259,913
424,2	271,913
424,7	285,393
425,1	295,873
425,6	310,193
426	325,713
426,5	341,633
426,9	354,793
427,4	372,473
427,9	397,513
428,3	414,513
428,8	432,633
429,2	462,233
429,7	488,033
430,1	505,273
430,6	528,513
431	549,673
431,5	575,473
431,9	596,673
432,4	626,953
432,8	666,193
433,3	702,793
433,8	725,993
434,2	761,953
434,7	792,033
435,1	825,553
435,6	868,713
436	920,393
436,5	971,033
436,9	1024,233
437,4	1071,713
437,8	1120,633
438,3	1166,633
438,8	1217,353
439,2	1273,033
439,7	1333,153
440,1	1385,913
440,6	1445,593
441	1507,153
441,5	1564,873
441,9	1619,033
442,4	1689,233
442,8	1758,273
443,3	1829,873
443,7	1903,513
444,2	1986,353
444,7	2063,473
445,1	2147,153
445,6	2215,033
446	2289,593
446,5	2375,833
446,9	2463,593
447,4	2543,673
447,8	2642,713
448,3	2738,193
448,7	2823,953
449,2	2917,153
449,6	3013,153
450,1	3111,753
450,6	3211,633
451	3305,713
451,5	3404,593
451,9	3508,513
452,4	3615,353
452,8	3726,153
453,3	3838,153
453,7	3959,033
454,2	4072,553
454,6	4185,553
455,1	4294,633
455,5	4421,273
456	4524,473
456,4	4636,473
456,9	4756,953
457,3	4885,473
457,8	5005,313
458,3	5129,313
458,7	5264,353
459,2	5388,073
459,6	5521,673
460,1	5642,113
460,5	5777,473
461	5908,073
461,4	6045,913
461,9	6170,593
462,3	6303,833
462,8	6431,553
463,2	6562,513
463,7	6673,873
464,1	6805,193
464,6	6930,633
465	7053,233
465,5	7166,433
466	7303,833
466,4	7411,273
466,9	7546,793
467,3	7672,993
467,8	7807,553
468,2	7918,833
468,7	8057,393
469,1	8174,553
469,6	8293,233
470	8405,593
470,5	8533,953
470,9	8629,273
471,4	8740,673
471,8	8861,193
472,3	8969,233
472,7	9076,313
473,2	9199,073
473,6	9295,793
474,1	9385,913
474,5	9482,793
475	9575,713
475,4	9661,073
475,9	9741,633
476,4	9843,033
476,8	9938,513
477,3	10019,673
477,7	10101,873
478,2	10198,633
478,6	10264,153
479,1	10330,153
479,5	10400,473
480	10460,993
480,4	10530,393
480,9	10593,553
481,3	10657,713
481,8	10718,193
482,2	10779,633
482,7	10810,233
483,1	10847,833
483,6	10880,313
484	10913,393
484,5	10939,713
484,9	10972,793
485,4	11000,033
485,8	11010,873
486,3	11031,473
486,7	11048,793
487,2	11048,233
487,6	11052,673
488,1	11077,073
488,5	11073,993
489	11076,673
489,4	11086,713
489,9	11086,873
490,4	11062,353
490,8	11054,273
491,3	11044,513
491,7	11016,353
492,2	10982,953
492,6	10947,913
493,1	10905,433
493,5	10855,793
494	10811,393
494,4	10775,513
494,9	10739,633
495,3	10687,153
495,8	10646,033
496,2	10612,513
496,7	10571,193
497,1	10528,033
497,6	10480,313
498	10426,913
498,5	10383,273
498,9	10323,473
499,4	10258,513
499,8	10212,313
500,3	10154,633
500,7	10087,833
501,2	10036,873
501,6	9990,313
502,1	9923,953
502,5	9851,033
503	9776,713
503,4	9698,673
503,9	9622,233
504,3	9545,433
504,8	9476,193
505,2	9412,593
505,7	9343,193
506,1	9278,073
506,6	9210,073
507	9134,433
507,5	9052,233
507,9	8972,153
508,4	8883,273
508,8	8811,833
509,3	8730,593
509,7	8648,033
510,2	8559,113
510,6	8465,913
511,1	8363,713
511,5	8278,433
512	8185,313
512,4	8103,193
512,9	8026,713
513,3	7954,353
513,8	7870,953
514,2	7799,433
514,7	7713,433
515,1	7628,553
515,6	7549,073
516	7467,033
516,5	7377,553
516,9	7303,833
517,4	7224,313
517,8	7127,233
518,3	7054,313
518,7	6974,513
519,2	6880,953
519,6	6798,873
520,1	6736,073
520,5	6661,793
521	6589,473
521,4	6512,193
521,9	6438,873
522,3	6362,753
522,8	6280,753
523,2	6207,673
523,7	6134,953
524,1	6055,793
524,6	5970,673
525	5898,313
525,5	5823,113
525,9	5765,633
526,4	5700,433
526,8	5640,953
527,3	5572,353
527,7	5506,553
528,2	5436,113
528,6	5367,993
529,1	5300,793
529,5	5238,433
530	5179,313
530,4	5117,953
530,9	5046,673
531,3	4991,393
531,8	4936,753
532,2	4870,273
532,6	4799,073
533,1	4750,553
533,5	4695,913
534	4628,153
534,4	4575,673
534,9	4527,073
535,3	4468,113
535,8	4403,593
536,2	4353,473
536,7	4298,433
537,1	4246,353
537,6	4199,993
538	4157,953
538,5	4108,513
538,9	4054,553
539,4	4005,393
539,8	3956,353
540,3	3893,513
540,7	3848,633
541,2	3807,633
541,6	3766,593
542,1	3720,553
542,5	3694,153
543	3640,633
543,4	3596,193
543,9	3553,313
544,3	3518,753
544,8	3469,953
545,2	3437,953
545,7	3398,033
546,1	3366,753
546,5	3323,633
547	3292,753
547,4	3251,553
547,9	3216,673
548,3	3170,433
548,8	3139,393
549,2	3095,833
549,7	3066,633
550,1	3037,553
550,6	3013,833
551	2975,433
551,5	2949,513
551,9	2917,553
552,4	2885,473
552,8	2850,033
553,3	2827,353
553,7	2801,553
554,2	2763,993
554,6	2736,073
555,1	2706,233
555,5	2686,153
555,9	2651,953
556,4	2634,033
556,8	2608,753
557,3	2582,433
557,7	2555,593
558,2	2534,033
558,6	2515,793
559,1	2486,193
559,5	2463,473
560	2439,873
560,4	2408,433
560,9	2374,593
561,3	2353,833
561,8	2338,393
562,2	2309,753
562,7	2290,753
563,1	2272,913
563,6	2251,873
564	2229,513
564,4	2207,953
564,9	2188,513
565,3	2174,273
565,8	2152,073
566,2	2130,913
566,7	2112,793
567,1	2094,153
567,6	2071,353
568	2055,353
568,5	2036,553
568,9	2017,473
569,4	1997,313
569,8	1981,873
570,3	1964,433
570,7	1941,113
571,1	1925,433
571,6	1913,753
572	1896,513
572,5	1884,753
572,9	1868,633
573,4	1846,913
573,8	1823,873
574,3	1807,993
574,7	1785,673
575,2	1771,473
575,6	1761,593
576,1	1755,393
576,5	1742,153
576,9	1730,153
577,4	1716,393
577,8	1698,353
578,3	1679,873
578,7	1668,433
579,2	1653,833
579,6	1641,433
580,1	1632,153
580,5	1626,593
581	1607,313
581,4	1596,753
581,9	1579,353
582,3	1568,473
582,7	1548,673
583,2	1533,473
583,6	1520,873
584,1	1512,953
584,5	1493,993
585	1481,033
585,4	1474,713
585,9	1461,153
586,3	1445,073
586,8	1437,913
587,2	1428,953
587,6	1414,873
588,1	1405,793
588,5	1398,353
589	1385,473
589,4	1372,793
589,9	1363,713
590,3	1354,833
590,8	1343,113
591,2	1336,273
591,7	1331,193
592,1	1324,153
592,5	1312,633
593	1305,513
593,4	1296,113
593,9	1281,233
594,3	1276,833
594,8	1269,353
595,2	1266,833
595,7	1254,593
596,1	1255,753
596,6	1238,393
597	1228,513
597,4	1213,113
597,9	1209,153
598,3	1193,073
598,8	1189,593
599,2	1186,713
599,7	1182,553
600,1	1177,353
600,6	1175,113
601	1162,793
601,4	1159,673
601,9	1152,913
602,3	1138,473
602,8	1125,713
603,2	1120,513
603,7	1105,713
604,1	1096,793
604,6	1097,753
605	1101,873
605,4	1099,673
605,9	1089,673
606,3	1088,393
606,8	1076,873
607,2	1061,913
607,7	1050,273
608,1	1046,673
608,6	1030,793
609	1029,193
609,4	1021,753
609,9	1016,473
610,3	1011,273
610,8	1004,513
611,2	987,953
611,7	983,393
612,1	979,953
612,6	970,753
613	969,473
613,4	976,273
613,9	970,033
614,3	960,073
614,8	955,993
615,2	950,273
615,7	936,913
616,1	927,273
616,6	926,513
617	919,633
617,4	915,233
617,9	908,273
618,3	903,193
618,8	890,993
619,2	888,513
619,7	880,113
620,1	872,793
620,5	866,233
621	867,433
621,4	854,273
621,9	847,193
622,3	840,233
622,8	842,513
623,2	830,953
623,6	833,953
624,1	834,273
624,5	831,873
625	816,393
625,4	808,953
625,9	802,193
626,3	791,713
626,8	786,193
627,2	784,113
627,6	782,233
628,1	775,913
628,5	768,953
629	768,433
629,4	764,153
629,9	755,833
630,3	750,113
630,7	747,153
631,2	736,233
631,6	731,913
632,1	725,513
632,5	717,833
633	714,913
633,4	711,113
633,8	702,793
634,3	701,473
634,7	694,713
635,2	690,913
635,6	682,793
636,1	683,873
636,5	683,953
636,9	680,313
637,4	674,713
637,8	671,793
638,3	665,193
638,7	651,793
639,2	644,953
639,6	641,153
640	637,473
640,5	630,793
640,9	627,633
641,4	630,073
641,8	624,473
642,2	623,713
642,7	622,993
643,1	625,673
643,6	618,633
644	613,193
644,5	611,913
644,9	608,633
645,3	603,153
645,8	599,273
646,2	593,873
646,7	586,033
647,1	583,273
647,6	577,233
648	574,473
648,4	575,513
648,9	574,953
649,3	561,793
649,8	560,593
650,2	554,633
650,6	544,753
651,1	541,153
651,5	542,193
652	537,833
652,4	536,673
652,9	530,553
653,3	527,673
653,7	524,553
654,2	517,073
654,6	515,673
655,1	514,593
655,5	510,273
655,9	508,193
656,4	505,633
656,8	502,113
657,3	503,673
657,7	499,913
658,2	492,113
658,6	488,753
659	489,033
659,5	483,353
659,9	473,633
660,4	477,913
660,8	478,753
661,2	465,753
661,7	465,313
662,1	463,793
662,6	456,713
663	445,233
663,4	443,993
663,9	435,793
664,3	434,193
664,8	428,313
665,2	427,513
665,6	431,993
666,1	432,393
666,5	429,073
667	430,233
667,4	424,033
667,9	414,353
668,3	412,793
668,7	412,673
669,2	409,033
669,6	408,473
670,1	405,353
670,5	400,313
670,9	393,473
671,4	387,073
671,8	387,593
672,3	387,993
672,7	388,033
673,1	384,673
673,6	381,833
674	382,353
674,5	376,473
674,9	367,553
675,3	363,353
675,8	361,793
676,2	357,353
676,7	357,793
677,1	356,113
677,5	356,153
678	353,793
678,4	355,593
678,9	343,513
679,3	342,913
679,7	337,553
680,2	334,833
680,6	320,193
681,1	325,393
681,5	329,393
681,9	332,073
682,4	326,273
682,8	331,593
683,3	329,433
683,7	318,873
684,1	314,233
684,6	322,913
685	321,873
685,5	321,073
685,9	321,113
686,3	319,153
686,8	308,353
687,2	303,713
687,7	299,313
688,1	295,953
688,5	297,953
689	293,873
689,4	290,593
689,9	283,713
690,3	282,233
690,7	278,673
691,2	280,753
691,6	280,153
692	286,633
692,5	286,633
692,9	280,913
693,4	276,113
693,8	279,313
694,2	274,353
694,7	268,553
695,1	268,953
695,6	269,473
696	261,913
696,4	260,113
696,9	265,473
697,3	264,393
697,8	263,433
698,2	262,313
698,6	261,673
699,1	253,473
699,5	253,793
699,9	250,753
700,4	250,993
700,8	251,473
701,3	245,233
701,7	240,273
702,1	237,953
702,6	234,953
703	226,953
703,5	232,913
703,9	230,993
704,3	231,673
704,8	231,833
705,2	231,273
705,6	236,753
706,1	234,033
706,5	231,153
707	228,833
707,4	228,473
707,8	213,793
708,3	216,633
708,7	213,593
709,2	209,513
709,6	205,593
710	206,513
710,5	198,033
710,9	193,433
711,3	186,953
711,8	190,313
712,2	194,073
712,7	193,993
713,1	197,873
713,5	206,353
714	197,193
714,4	189,153
714,8	188,273
715,3	190,433
715,7	188,353
716,2	192,433
716,6	192,673
717	198,233
717,5	191,193
717,9	186,393
718,3	184,753
718,8	183,273
719,2	176,073
719,7	172,993
720,1	174,553
720,5	171,553
721	173,993
721,4	176,513
721,8	177,233
722,3	170,793
722,7	165,873
723,2	160,193
723,6	154,153
724	152,993
724,5	151,513
724,9	160,753
725,3	161,393
725,8	161,553
726,2	160,513
726,7	157,473
727,1	151,273
727,5	151,673
728	147,553
728,4	145,673
728,8	151,713
729,3	152,673
729,7	149,553
730,1	149,833
730,6	150,273
731	144,793
731,5	144,913
731,9	149,713
732,3	152,073
732,8	151,753
733,2	150,273
733,6	148,393
734,1	141,753
734,5	139,473
734,9	137,993
735,4	133,273
735,8	128,473
736,3	125,553
736,7	122,113
737,1	123,593
737,6	130,393
738	132,673
738,4	139,233
738,9	142,913
739,3	143,073
739,7	138,953
740,2	132,673
740,6	122,553
741,1	120,673
741,5	115,673
741,9	119,353
742,4	120,833
742,8	121,473
743,2	122,593
743,7	123,153
744,1	123,833
744,5	117,913
745	120,993
745,4	121,593
745,8	124,633
746,3	119,713
746,7	121,313
747,2	119,313
747,6	112,793
748	106,393
748,5	107,433
748,9	108,033
749,3	108,593
749,8	107,513
750,2	105,233
750,6	106,793
751,1	103,753
751,5	101,153
751,9	106,273
752,4	105,273
752,8	101,873
753,3	104,673
753,7	107,313
754,1	102,113
754,6	104,833
755	101,993
755,4	103,873
755,9	104,833
756,3	102,393
756,7	101,673
757,2	99,273
757,6	94,193
758	93,793
758,5	93,753
758,9	92,233
759,3	91,193
759,8	93,473
760,2	88,433
760,6	88,833
761,1	86,873
761,5	89,513
761,9	90,473
762,4	85,073
762,8	84,633
763,3	83,913
763,7	81,353
764,1	78,793
764,6	86,953
765	89,113
765,4	87,393
765,9	82,033
766,3	79,273
766,7	70,793
767,2	75,113
767,6	78,673
768	87,753
768,5	87,953
768,9	89,433
769,3	81,433
769,8	78,913
770,2	75,833
770,6	75,993
771,1	79,113
771,5	77,473
771,9	81,913
772,4	82,153
772,8	84,593
773,2	82,713
773,7	82,353
774,1	77,833
774,5	71,953
775	68,153
775,4	68,993
775,8	68,753
776,3	65,273
776,7	72,753
777,1	71,353
777,6	75,273
778	73,193
778,4	81,233
778,9	76,873
779,3	73,833
779,7	70,393
780,2	72,393
780,6	64,713
781	65,953
781,5	69,353
781,9	65,513
782,3	61,513
782,8	62,433
783,2	64,833
783,6	67,793
784,1	70,033
784,5	70,513
784,9	69,473
785,4	62,953
785,8	61,393
786,2	50,433
786,7	52,473
787,1	55,073
787,5	53,353
788	54,673
788,4	61,433
788,8	59,473
789,3	60,313
789,7	59,193
790,1	52,913
790,6	54,633
791	54,113
791,4	51,713
791,9	53,833
792,3	54,473
792,7	55,793
793,2	56,793
793,6	51,913
794	50,873
794,5	52,833
794,9	48,633
795,3	44,753
795,8	50,073
796,2	50,633
796,6	47,833
797,1	47,113
797,5	50,073
797,9	52,153
798,4	52,073
798,8	57,113
799,2	55,473
799,7	50,273
800,1	46,113
800,5	43,513
801	38,073
801,4	37,913
801,8	45,553
802,2	47,073
802,7	52,673
803,1	54,113
803,5	52,793
804	51,553
804,4	49,873
804,8	44,193
805,3	40,513
805,7	42,073
806,1	40,193
806,6	38,753
807	36,353
807,4	35,953
807,9	39,273
808,3	37,593
808,7	30,673
809,2	38,113
809,6	45,313
810	38,913
810,4	40,593
810,9	48,433
811,3	40,633
811,7	36,913
812,2	44,673
812,6	39,673
813	35,353
813,5	43,593
813,9	40,353
814,3	40,393
814,8	45,233
815,2	42,833
815,6	35,233
816,1	36,753
816,5	29,713
816,9	27,873
817,3	32,873
817,8	31,393
818,2	26,393
818,6	24,073
819,1	24,153
819,5	26,953
819,9	30,833
820,4	32,833
820,8	36,633
821,2	35,033
821,7	32,033
822,1	29,793
822,5	28,673
822,9	21,553
823,4	21,273
823,8	19,633
824,2	19,593
824,7	18,393
825,1	23,193
825,5	20,913
826	19,753
826,4	18,793
826,8	23,753
827,3	23,673
827,7	21,033
828,1	21,393
828,5	19,393
829	18,273
829,4	16,473
829,8	20,073
830,3	22,553
830,7	29,033
831,1	23,593
831,6	28,473
832	27,153
832,4	24,233
832,8	19,113
833,3	25,073
833,7	26,073
834,1	23,833
834,6	19,233
835	22,193
835,4	25,033
835,8	26,273
836,3	32,033
836,7	36,913
837,1	25,953
837,6	20,393
838	12,753
838,4	4,673
838,9	-4,087
839,3	0,673
839,7	1,513
840,1	6,913
840,6	13,313
841	24,673
841,4	32,153
841,9	36,113
842,3	30,953
842,7	24,753
843,1	22,193
843,6	9,433
844	3,873
844,4	7,273
844,9	14,273
845,3	13,873
845,7	22,073
846,2	22,953
846,6	25,513
847	18,553
847,4	16,073
847,9	15,833
848,3	10,473
848,7	3,753
849,2	6,673
849,6	2,833
850	3,233
850,4	5,433
850,9	8,393
851,3	11,393
851,7	11,473
852,2	13,233
852,6	15,433
853	14,993
853,4	15,433
853,9	17,993
854,3	15,313
854,7	16,073
855,2	13,233
855,6	9,433
856	10,073
856,4	8,233
856,9	8,193
857,3	7,593
857,7	5,953
858,2	7,873
858,6	10,393
859	4,433
859,4	10,313
859,9	12,073
860,3	13,753
860,7	13,273
861,1	16,993
861,6	13,073
862	11,993
862,4	8,353
862,9	5,393
863,3	3,993
863,7	1,793
864,1	6,113
864,6	10,633
865	13,353
865,4	16,393
865,9	16,713
866,3	10,993
866,7	10,313
867,1	13,113
867,6	10,753
868	14,113
868,4	18,313
868,8	15,073
869,3	12,513
869,7	11,553
870,1	11,713
870,6	6,593
871	9,233
871,4	56,073
871,8	53,153
872,3	47,393
872,7	48,353
873,1	50,313
873,5	6,913
874	7,873
874,4	15,113
874,8	11,073
875,3	4,353
875,7	0,873
876,1	3,193
876,5	-1,847
877	6,113
877,4	3,873
877,8	1,553
878,2	4,793
878,7	7,313
879,1	7,833
879,5	10,753
879,9	7,713
880,4	7,873
880,8	3,073
881,2	-0,647
881,7	-2,727
882,1	1,393
882,5	-3,447
882,9	-0,207
883,4	3,993
883,8	6,993
884,2	2,193
884,6	5,593
885,1	5,793
885,5	6,153
885,9	6,673
886,3	13,713
886,8	12,393
887,2	12,993
887,6	12,633
888	5,153
888,5	4,553
888,9	5,593
889,3	2,433
889,8	2,753
890,2	7,673
890,6	7,793
891	4,633
891,5	6,033
891,9	2,273
892,3	2,193
892,7	-1,047
893,2	5,033
893,6	7,233
894	8,753
894,4	7,593
894,9	9,793
895,3	7,353
895,7	9,793
896,1	8,713
896,6	11,073
897	6,353
897,4	4,953
897,8	6,353
898,3	3,073
898,7	10,593
899,1	11,673
899,5	8,753
900	2,033
900,4	8,833
900,8	1,833
901,2	5,153
901,7	14,433
902,1	17,273
902,5	13,593
902,9	13,473
903,4	13,233
903,8	5,993
904,2	4,113
904,6	-1,327
905,1	2,913
905,5	-2,367
905,9	-6,487
906,3	-7,967
906,8	-1,287
907,2	-7,967
907,6	-5,447
908	2,153
908,5	5,953
908,9	2,633
909,3	1,313
909,7	4,153
910,2	1,753
910,6	-2,527
911	1,233
911,4	2,633
911,9	0,393
912,3	0,753
912,7	1,113
913,1	1,753
913,6	-0,447
914	-3,407
914,4	-9,847
914,8	-9,327
915,3	-12,287
915,7	-5,727
916,1	-7,007
916,5	3,273
916,9	4,073
917,4	3,913
917,8	-1,767
918,2	7,273
918,6	-1,807
919,1	-1,807
919,5	-5,487
919,9	1,753
920,3	-4,647
920,8	-0,047
921,2	2,793
921,6	2,193
922	-6,287
922,5	-2,167
922,9	-4,207
923,3	-2,247
923,7	3,593
924,2	11,753
924,6	7,913
925	8,313
925,4	-1,287
925,8	-6,687
926,3	-10,247
926,7	-11,847
927,1	-8,967
927,5	-6,447
928	-5,887
928,4	-7,927
928,8	-2,647
929,2	-9,487
929,7	-5,647
930,1	-2,527
930,5	2,993
930,9	0,273
931,3	1,873
931,8	-4,247
932,2	-3,447
932,6	-12,687
933	-16,767
933,5	-13,887
933,9	-4,167
934,3	-8,367
934,7	-8,167
935,2	2,393
935,6	5,353
936	-1,647
936,4	-3,367
936,8	-1,487
937,3	-9,407
937,7	-10,567
938,1	-10,367
938,5	-9,367
939	-9,287
939,4	-10,247
939,8	-11,567
940,2	-10,687
940,6	-9,487
941,1	-13,847
941,5	-14,087
941,9	-18,487
942,3	-14,367
942,8	-14,767
943,2	-11,927
943,6	-13,087
944	-8,207
944,4	-15,087
944,9	-13,447
945,3	-13,527
945,7	-16,407
946,1	-24,647
946,6	-28,287
947	-23,487
947,4	-22,007
947,8	-13,367
948,2	-5,887
948,7	-1,527
949,1	1,433
949,5	4,873
949,9	-3,167
950,3	-5,087
950,8	-4,287
951,2	-10,687
951,6	-10,367
952	-5,647
952,5	-7,367
952,9	-6,407
953,3	-13,967
953,7	-16,327
954,1	-15,687
954,6	-9,647
955	-6,407
955,4	2,153
955,8	3,393
956,2	0,953
956,7	-10,087
957,1	-18,647
957,5	-22,767
957,9	-24,207
958,3	-17,527
958,8	-7,887
959,2	-5,167
959,6	-3,727
960	-2,007
960,5	-5,727
960,9	-10,127
961,3	-5,167
961,7	-1,367
962,1	-1,407
962,6	-3,207
963	2,913
963,4	6,713
963,8	5,473
964,2	2,073
964,7	6,113
965,1	2,393
965,5	-13,727
965,9	-14,727
966,3	-8,847
966,8	-11,407
967,2	-10,727
967,6	-0,287
968	-5,647
968,4	-7,727
968,9	-12,247
969,3	-6,087
969,7	-4,087
970,1	-2,007
970,5	-6,167
971	-1,327
971,4	-6,767
971,8	-10,967
972,2	-6,327
972,6	-10,127
973,1	-12,167
973,5	-18,087
973,9	-23,967
974,3	-26,927
974,7	-18,527
975,2	-18,007
975,6	-14,647
976	-6,527
976,4	-11,487
976,8	-7,047
977,3	-9,447
977,7	-7,687
978,1	-8,807
978,5	-3,167
978,9	-11,847
979,4	-2,647
979,8	-1,127
980,2	3,473
980,6	8,393
981	11,913
981,5	6,833
981,9	3,553
982,3	-2,247
982,7	-9,287
983,1	-11,527
983,6	-12,047
984	-11,087
984,4	-8,647
984,8	-6,287
985,2	-5,407
985,6	-5,567
986,1	-6,527
986,5	-5,847
986,9	-6,927
987,3	-9,287
987,7	-9,527
988,2	-10,967
988,6	-5,887
989	-4,927
989,4	-8,487
989,8	-12,207
990,3	-13,287
990,7	-20,487
991,1	-19,447
991,5	-10,047
991,9	-9,807
992,3	-6,327
992,8	-7,647
993,2	-6,927
993,6	-5,607
994	-0,567
994,4	-0,487
994,9	3,713
995,3	-0,407
995,7	-6,087
996,1	-7,207
996,5	-4,127
996,9	-6,487
997,4	-9,527
997,8	-18,327
998,2	-18,047
998,6	-24,007
999	-21,927
999,5	-19,247
999,9	-9,447
1000,3	-9,567
1000,7	-5,207
1001,1	-9,487
1001,5	-2,607
1002	-6,727
1002,4	-7,767
1002,8	-9,287
1003,2	-6,207
1003,6	-13,287
1004	-7,007
1004,5	-11,167
1004,9	-5,447
1005,3	-11,247
1005,7	-12,607
1006,1	-16,847
1006,6	-9,607
1007	-16,807
1007,4	-13,967
1007,8	-10,167
1008,2	-9,247
1008,6	-10,527
1009,1	-12,287
1009,5	-9,927
1009,9	-11,247
1010,3	-11,087
1010,7	-11,127
1011,1	-2,967
1011,6	1,353
1012	2,513
1012,4	5,473
1012,8	3,353
1013,2	2,553
1013,6	-1,047
1014,1	1,913
1014,5	0,353
1014,9	-1,927
1015,3	-5,207
1015,7	-5,127
1016,1	-9,487
1016,6	-12,927
1017	-7,407
1017,4	-8,927
1017,8	-11,247
1018,2	-5,967
1018,6	-6,527
1019,1	-6,767
1019,5	-2,167
1019,9	3,113
1020,3	-5,327
1020,7	-5,247
1021,1	-9,927
1021,6	-13,727
1022	-16,087
1022,4	-12,567
1022,8	-5,447
1023,2	-1,607
1023,6	-3,407
1024,1	-4,767
1024,5	-5,687
1024,9	-13,887
1025,3	-14,887
1025,7	-12,607
1026,1	-12,887
1026,6	-12,087
1027	-6,487
1027,4	-10,087
1027,8	-4,767
1028,2	-3,847
1028,6	2,593
1029	-1,047
1029,5	2,753
1029,9	-2,607
1030,3	-4,087
1030,7	-7,647
1031,1	-2,087
1031,5	-4,967
1032	-4,567
1032,4	-4,207
1032,8	-4,887
1033,2	-11,687
1033,6	-14,607
1034	-13,727
1034,4	-16,847
1034,9	-17,647
1035,3	-16,007
1035,7	-15,127
1036,1	-19,047
1036,5	-12,367
1036,9	-8,487
1037,4	-8,607
1037,8	-1,327
1038,2	2,113
1038,6	-1,727
1039	-6,927
1039,4	-5,807
1039,8	-13,327
1040,3	-18,167
1040,7	-17,567
1041,1	-15,167
1041,5	-10,367
1041,9	-6,887
1042,3	-9,007
1042,7	-10,127
1043,2	-8,567
1043,6	-12,847
1044	-8,407
1044,4	0,793
1044,8	4,553
1045,2	1,953
1045,6	3,793
1046,1	1,753
1046,5	-1,767
1046,9	-8,607
1047,3	-3,847
1047,7	-5,927
1048,1	-11,087
1048,5	-16,807
1049	-12,567
1049,4	-13,607
1049,8	-11,687
1050,2	-3,847
1050,6	6,873
1051	8,993
1051,4	5,673
1051,9	1,273
1052,3	-6,127
1052,7	-15,447
1053,1	-17,447
1053,5	-25,167
1053,9	-18,607
1054,3	-18,887
1054,8	-14,927
1055,2	-11,687
1055,6	-4,007
1056	-7,447
1056,4	-5,047
1056,8	-4,887
1057,2	-6,487
1057,6	-5,807
1058,1	-6,087
1058,5	-10,447
1058,9	-15,007
1059,3	-13,967
1059,7	-17,887
1060,1	-17,767
1060,5	-11,487
1061	-2,087
1061,4	-4,727
1061,8	-0,727
1062,2	1,473
1062,6	-1,727
1063	-6,327
1063,4	-8,687
1063,8	-8,047
1064,3	-13,047
1064,7	-9,687
1065,1	-11,127
1065,5	-7,967
1065,9	-7,967
1066,3	-7,047
1066,7	-11,727
1067,1	-15,567
1067,6	-16,087
1068	-17,047
1068,4	-11,207
1068,8	-10,407
1069,2	-6,207
1069,6	-6,487
1070	-1,127
1070,4	-8,327
1070,9	-10,007
1071,3	-8,767
1071,7	-9,047
1072,1	-21,287
1072,5	-17,487
1072,9	-14,887
1073,3	-18,567
1073,7	-18,807
1074,2	-13,287
1074,6	-8,567
1075	-9,887
1075,4	-9,247
1075,8	-13,967
1076,2	-14,567
1076,6	-19,167
1077	-18,807
1077,5	-18,407
1077,9	-13,967
1078,3	-14,807
1078,7	-15,047
1079,1	-10,807
1079,5	-10,527
1079,9	-11,087
1080,3	-9,767
1080,7	-10,567
1081,2	-15,047
1081,6	-10,327
1082	-7,647
1082,4	-5,767
1082,8	-3,807
1083,2	4,353
1083,6	3,953
1084	5,073
1084,5	2,153
1084,9	-1,847
1085,3	-5,807
1085,7	-12,407
1086,1	-17,727
1086,5	-18,287
1086,9	-18,967
1087,3	-25,807
1087,7	-20,367
1088,2	-14,207
1088,6	-13,807
1089	-12,927
1089,4	-11,207
1089,8	-16,087
1090,2	-21,087
1090,6	-10,367
1091	-11,047
1091,4	-4,887
1091,9	-1,447
1092,3	1,833
1092,7	-3,847
1093,1	3,553
1093,5	-1,167
1093,9	-1,967
1094,3	0,193
1094,7	-4,527
1095,1	-4,607
1095,5	-2,127
1096	0,873
1096,4	-2,287
1096,8	0,433
1097,2	-3,967
1097,6	1,393
1098	0,353
1098,4	-1,127
1098,8	1,953
1099,2	-0,047
1099,6	-5,847
1100,1	-1,567
1100,5	1,193
1100,9	-3,807
1101,3	-1,367
1101,7	-0,047
1102,1	-6,167
1102,5	-8,247
1102,9	-8,527
1103,3	-8,367
1103,7	-9,167
1104,2	-9,247
1104,6	-7,487
1105	-3,607
1105,4	-6,567
1105,8	-4,207
1106,2	-1,927
1106,6	-2,247
1107	-3,087
1107,4	0,713
1107,8	-0,467
1108,3	-0,033
