Data from Subt2_00072.txt Node
Date: Fri Aug 11 16:30:05 MSK 2023
User: vat
Spectrometer: MAYP114033
Trigger mode: 0
Integration Time (sec): 5,000000E-1
Scans to average: 5
Electric dark correction enabled: true
Nonlinearity correction enabled: false
Boxcar width: 2
XAxis mode: Wavelengths
Number of Pixels in Spectrum: 2068
>>>>>Begin Spectral Data<<<<<
199,4	-0,7
199,9	-0,15
200,4	-9,38
200,8	-13,38
201,3	-21,78
201,8	-23,82
202,2	-24,98
202,7	-21,38
203,2	-23,5
203,6	-23,18
204,1	-31,78
204,6	-38,98
205	-42,34
205,5	-41,94
206	-36,74
206,4	-33,78
206,9	-29,94
207,4	-25,42
207,8	-27,46
208,3	-30,54
208,8	-28,06
209,2	-30,9
209,7	-37,1
210,2	-36,3
210,6	-37,9
211,1	-40,38
211,5	-37,54
212	-35,18
212,5	-37,62
212,9	-39,82
213,4	-40,7
213,9	-45,38
214,3	-47,26
214,8	-49,18
215,3	-47,1
215,7	-51,1
216,2	-48,14
216,7	-48,94
217,1	-45,42
217,6	-46,06
218,1	-42,46
218,5	-48,18
219	-44,38
219,5	-44,78
219,9	-47,74
220,4	-46,38
220,9	-42,02
221,3	-47,58
221,8	-48,94
222,3	-47,06
222,7	-48,34
223,2	-48,06
223,6	-44,14
224,1	-47,22
224,6	-45,82
225	-47,14
225,5	-48,98
226	-47,82
226,4	-40,94
226,9	-43,78
227,4	-39,46
227,8	-41,02
228,3	-48,02
228,8	-53,98
229,2	-50,42
229,7	-58,34
230,2	-53,1
230,6	-48,66
231,1	-48,62
231,5	-51,5
232	-46,02
232,5	-49,1
232,9	-53,66
233,4	-57,42
233,9	-56,82
234,3	-56,98
234,8	-50,7
235,3	-45,14
235,7	-38,86
236,2	-35,38
236,7	-36,3
237,1	-48,34
237,6	-52,18
238,1	-51,78
238,5	-53,86
239	-55,06
239,4	-54,02
239,9	-46,22
240,4	-46,18
240,8	-49,58
241,3	-48,42
241,8	-44,78
242,2	-47,14
242,7	-43,06
243,2	-38,02
243,6	-38,46
244,1	-40,14
244,6	-44,62
245	-47,54
245,5	-50,98
245,9	-46,02
246,4	-40,98
246,9	-41,06
247,3	-40,78
247,8	-39,9
248,3	-42,66
248,7	-50,14
249,2	-48,14
249,7	-51,38
250,1	-51,94
250,6	-54,38
251	-49,94
251,5	-45,78
252	-50,06
252,4	-51,02
252,9	-47,38
253,4	-50,9
253,8	-53,66
254,3	-47,86
254,8	-48,62
255,2	-45,1
255,7	-39,18
256,1	-42,26
256,6	-42,78
257,1	-45,22
257,5	-48,94
258	-51,06
258,5	-45,14
258,9	-45,9
259,4	-37,94
259,9	-40,34
260,3	-49,06
260,8	-48,42
261,2	-44,94
261,7	-46,98
262,2	-47,26
262,6	-39,1
263,1	-42,86
263,6	-44,62
264	-46,46
264,5	-50,54
264,9	-54,66
265,4	-55,82
265,9	-56,86
266,3	-54,1
266,8	-48,3
267,3	-45,94
267,7	-43,46
268,2	-39,7
268,7	-38,42
269,1	-40,9
269,6	-42,86
270	-45,74
270,5	-53,54
271	-62,7
271,4	-65,5
271,9	-64,18
272,4	-62,3
272,8	-59,42
273,3	-56,94
273,7	-48,54
274,2	-43,02
274,7	-46,06
275,1	-45,78
275,6	-42,9
276,1	-50,3
276,5	-52,46
277	-50,06
277,4	-47,78
277,9	-49,46
278,4	-45,06
278,8	-45,1
279,3	-47,06
279,8	-52,46
280,2	-56,62
280,7	-55,38
281,1	-53,3
281,6	-49,14
282,1	-43,98
282,5	-38,7
283	-41,5
283,4	-46,46
283,9	-47,9
284,4	-47,3
284,8	-42,22
285,3	-36,3
285,8	-35,3
286,2	-34,9
286,7	-35,86
287,1	-43,38
287,6	-50,66
288,1	-46,82
288,5	-47,94
289	-46,66
289,5	-46,78
289,9	-40,54
290,4	-40,14
290,8	-36,02
291,3	-41,18
291,8	-37,82
292,2	-42,5
292,7	-44,78
293,1	-48,66
293,6	-46,94
294,1	-50,06
294,5	-57,18
295	-53,78
295,5	-52,58
295,9	-51,54
296,4	-51,14
296,8	-42,5
297,3	-46,58
297,8	-50,3
298,2	-51,62
298,7	-52,54
299,1	-53,62
299,6	-51,26
300,1	-52,78
300,5	-47,02
301	-45,38
301,5	-43,58
301,9	-46,34
302,4	-44,74
302,8	-51,86
303,3	-50,5
303,8	-56,78
304,2	-58,98
304,7	-55,5
305,1	-51,42
305,6	-52,9
306,1	-49,94
306,5	-48,62
307	-49,18
307,4	-46,98
307,9	-42,7
308,4	-39,26
308,8	-35,14
309,3	-36,1
309,8	-42,46
310,2	-41,78
310,7	-44,22
311,1	-54,3
311,6	-51,14
312,1	-50,1
312,5	-54,06
313	-54,58
313,4	-51,42
313,9	-52,58
314,4	-44,42
314,8	-45,66
315,3	-44,18
315,7	-43,86
316,2	-47,54
316,7	-52,86
317,1	-51,74
317,6	-54,78
318	-45,5
318,5	-44,06
319	-46,82
319,4	-50,9
319,9	-48,62
320,3	-52,78
320,8	-50,7
321,3	-50,62
321,7	-38,58
322,2	-40,5
322,6	-42,22
323,1	-49,34
323,6	-49,22
324	-52,46
324,5	-53,94
324,9	-55,94
325,4	-47,86
325,9	-42,54
326,3	-41,54
326,8	-41,26
327,2	-44,7
327,7	-51,74
328,2	-55,86
328,6	-59,86
329,1	-59,58
329,5	-50,06
330	-45,46
330,5	-44,9
330,9	-44,22
331,4	-37,18
331,8	-40,74
332,3	-39,7
332,8	-37,34
333,2	-39,18
333,7	-42,9
334,1	-41,26
334,6	-43,98
335,1	-47,38
335,5	-47,66
336	-45,02
336,4	-46,46
336,9	-44,06
337,4	-45,58
337,8	-43,22
338,3	-47,18
338,7	-47,9
339,2	-46,22
339,7	-39,82
340,1	-40,42
340,6	-39,3
341	-37,46
341,5	-37,02
342	-40,94
342,4	-42,78
342,9	-45,82
343,3	-48,9
343,8	-50,26
344,2	-41,7
344,7	-35,82
345,2	-29,9
345,6	-25,86
346,1	-22,26
346,5	-29,06
347	-30,78
347,5	-36,42
347,9	-32,54
348,4	-31,54
348,8	-29,38
349,3	-24,98
349,8	-14,5
350,2	-5,66
350,7	-0,06
351,1	11,9
351,6	24,38
352	39,06
352,5	53,5
353	70,74
353,4	94,46
353,9	128,06
354,3	168,06
354,8	211,22
355,3	277,26
355,7	341,06
356,2	409,62
356,6	495,94
357,1	607,22
357,5	718,94
358	855,18
358,5	1015,94
358,9	1189,9
359,4	1384,86
359,8	1600,58
360,3	1856,38
360,8	2129,3
361,2	2449,02
361,7	2783,74
362,1	3168,54
362,6	3583,42
363	4030,06
363,5	4491,78
364	4980,98
364,4	5479,78
364,9	5984,26
365,3	6489,74
365,8	6969,7
366,3	7414,78
366,7	7825,26
367,2	8179,22
367,6	8460,94
368,1	8674,58
368,5	8820,18
369	8880,3
369,5	8863,74
369,9	8781,02
370,4	8636,5
370,8	8428,18
371,3	8168,06
371,7	7856,3
372,2	7514,98
372,7	7148,46
373,1	6761,02
373,6	6359,5
374	5951,14
374,5	5550,74
374,9	5143,1
375,4	4754,86
375,9	4387,78
376,3	4039,66
376,8	3701,22
377,2	3394,86
377,7	3109,34
378,2	2836,5
378,6	2585,34
379,1	2352,82
379,5	2134,7
380	1933,9
380,4	1763,3
380,9	1606,74
381,4	1471,98
381,8	1351,9
382,3	1249,54
382,7	1146,1
383,2	1060,02
383,6	978,9
384,1	906,26
384,6	829,74
385	765,74
385,5	706,14
385,9	647,38
386,4	596,26
386,8	549,82
387,3	506,54
387,7	468,9
388,2	428,94
388,7	394,02
389,1	359,82
389,6	328,74
390	293,66
390,5	260,3
390,9	231,06
391,4	211,58
391,9	191,86
392,3	174,14
392,8	166,9
393,2	149,66
393,7	140,7
394,1	127,74
394,6	118,58
395,1	109,82
395,5	106,74
396	95,38
396,4	82,18
396,9	73,1
397,3	60,82
397,8	50,06
398,2	40,5
398,7	39,74
399,2	35,06
399,6	33,14
400,1	31,86
400,5	28,7
401	25,38
401,4	20,42
401,9	15,86
402,4	6,46
402,8	6,98
403,3	-0,46
403,7	-2,5
404,2	-4,46
404,6	-2,22
405,1	-1,54
405,5	-0,3
406	-3,62
406,5	-5,26
406,9	-5,94
407,4	-11,42
407,8	-10,74
408,3	-8,98
408,7	-13,14
409,2	-17,3
409,6	-15,1
410,1	-12,02
410,6	-10,1
411	-8,94
411,5	-4,86
411,9	1,02
412,4	0,38
412,8	-3,18
413,3	4,82
413,7	10,62
414,2	-0,02
414,7	1,98
415,1	8,82
415,6	4,1
416	-1,18
416,5	5,22
416,9	8,22
417,4	4,1
417,8	4,86
418,3	15,18
418,8	16,22
419,2	19,26
419,7	26,98
420,1	33,78
420,6	27,46
421	32,3
421,5	26,26
421,9	30,62
422,4	32,02
422,8	44,62
423,3	48,14
423,8	56,06
424,2	58,3
424,7	64,98
425,1	60,98
425,6	59,94
426	66,54
426,5	65,86
426,9	65,62
427,4	77,5
427,9	92,46
428,3	95,1
428,8	106,94
429,2	121,34
429,7	126,78
430,1	130,86
430,6	139,78
431	143,14
431,5	151,06
431,9	154,7
432,4	166,1
432,8	181,66
433,3	195,06
433,8	201,58
434,2	218,82
434,7	231,06
435,1	246,26
435,6	263,3
436	286,34
436,5	303,06
436,9	322,18
437,4	345,06
437,8	370,06
438,3	385,38
438,8	409,14
439,2	428,5
439,7	450,38
440,1	470,06
440,6	493,98
441	522,18
441,5	554,5
441,9	571,78
442,4	589,82
442,8	626,42
443,3	656,22
443,7	680,18
444,2	723,82
444,7	767,46
445,1	805,9
445,6	837,1
446	875,82
446,5	910,82
446,9	957,82
447,4	996,1
447,8	1039,98
448,3	1088,22
448,7	1135,1
449,2	1177,54
449,6	1224,86
450,1	1280,82
450,6	1335,7
451	1381,66
451,5	1439,06
451,9	1488,98
452,4	1537,22
452,8	1596,9
453,3	1663,9
453,7	1726,5
454,2	1795,9
454,6	1864,02
455,1	1927,1
455,5	1992,82
456	2053,82
456,4	2115,5
456,9	2186,66
457,3	2255,26
457,8	2325,58
458,3	2401,42
458,7	2482,66
459,2	2565,34
459,6	2649,06
460,1	2729,38
460,5	2814,54
461	2899,78
461,4	2979,1
461,9	3069,46
462,3	3156,58
462,8	3235,18
463,2	3314,74
463,7	3389,54
464,1	3468,18
464,6	3558,42
465	3644,82
465,5	3739,78
466	3842,34
466,4	3929,94
466,9	4015,74
467,3	4106,38
467,8	4193,82
468,2	4280,98
468,7	4362,22
469,1	4437,26
469,6	4514,34
470	4591,94
470,5	4666,9
470,9	4751,7
471,4	4839,86
471,8	4935,98
472,3	5015,9
472,7	5108,06
473,2	5188,02
473,6	5265,82
474,1	5335,34
474,5	5420,18
475	5493,22
475,4	5567,1
475,9	5649,66
476,4	5719,82
476,8	5782,1
477,3	5844,54
477,7	5914,5
478,2	5966,66
478,6	6021,5
479,1	6084,58
479,5	6142,58
480	6199,62
480,4	6264,58
480,9	6326,06
481,3	6362,14
481,8	6406,42
482,2	6448,5
482,7	6472,82
483,1	6504,06
483,6	6549,46
484	6585,54
484,5	6609,74
484,9	6657,02
485,4	6693,42
485,8	6723,22
486,3	6746,46
486,7	6779,34
487,2	6794,02
487,6	6811,98
488,1	6822,7
488,5	6827,58
489	6831,86
489,4	6841,18
489,9	6837,5
490,4	6842,74
490,8	6849,18
491,3	6839,22
491,7	6821,18
492,2	6812,5
492,6	6798,22
493,1	6784,66
493,5	6773,02
494	6759,42
494,4	6737,46
494,9	6723,46
495,3	6707,18
495,8	6678,18
496,2	6653,78
496,7	6640,34
497,1	6609,46
497,6	6574,3
498	6551,66
498,5	6530,3
498,9	6505,38
499,4	6477,1
499,8	6447,38
500,3	6412,74
500,7	6374,58
501,2	6341,58
501,6	6309,38
502,1	6267,3
502,5	6242,82
503	6206,98
503,4	6157,42
503,9	6118,94
504,3	6084,46
504,8	6035,98
505,2	5983,06
505,7	5942,82
506,1	5899,1
506,6	5849,82
507	5798,54
507,5	5758,14
507,9	5708,78
508,4	5648,94
508,8	5605,1
509,3	5556,86
509,7	5516,06
510,2	5470,58
510,6	5432,54
511,1	5382,9
511,5	5337,46
512	5274,14
512,4	5225,9
512,9	5178,18
513,3	5137,74
513,8	5096,38
514,2	5050,3
514,7	4995,78
515,1	4938,66
515,6	4884,3
516	4828,18
516,5	4793,3
516,9	4747,82
517,4	4698,46
517,8	4650,98
518,3	4612,06
518,7	4556,94
519,2	4510,78
519,6	4467,1
520,1	4421,66
520,5	4369,18
521	4321,22
521,4	4266,9
521,9	4213,5
522,3	4166,7
522,8	4122,98
523,2	4087,26
523,7	4047,9
524,1	4015,9
524,6	3969,06
525	3930,18
525,5	3884,38
525,9	3845,98
526,4	3800,78
526,8	3760,5
527,3	3717,1
527,7	3668,02
528,2	3640,42
528,6	3606,94
529,1	3575,18
529,5	3547,42
530	3527,06
530,4	3485,14
530,9	3451,26
531,3	3409,82
531,8	3366,74
532,2	3326,46
532,6	3291,3
533,1	3251,98
533,5	3223,38
534	3182,38
534,4	3151,9
534,9	3114,22
535,3	3085,42
535,8	3058,9
536,2	3032,34
536,7	3000,18
537,1	2971,98
537,6	2949,38
538	2917,26
538,5	2893,22
538,9	2864,3
539,4	2843,42
539,8	2812,5
540,3	2786,7
540,7	2753,86
541,2	2730,34
541,6	2695,22
542,1	2661,18
542,5	2638,42
543	2611,7
543,4	2572,58
543,9	2550,9
544,3	2529,98
544,8	2497,58
545,2	2469,66
545,7	2455,58
546,1	2428,7
546,5	2401,98
547	2376,1
547,4	2361,34
547,9	2336,34
548,3	2318,06
548,8	2303,78
549,2	2291,46
549,7	2272,7
550,1	2258,9
550,6	2240,22
551	2216,62
551,5	2193,1
551,9	2175,78
552,4	2154,7
552,8	2139,14
553,3	2122,82
553,7	2106,06
554,2	2086,34
554,6	2076,62
555,1	2062,26
555,5	2055,02
555,9	2037,66
556,4	2019,94
556,8	2000,86
557,3	1978,26
557,7	1953,7
558,2	1945,58
558,6	1935,94
559,1	1913,9
559,5	1907,98
560	1894,58
560,4	1872,7
560,9	1849,86
561,3	1840,98
561,8	1818,82
562,2	1802,02
562,7	1795,42
563,1	1788,1
563,6	1776,42
564	1765,82
564,4	1753,46
564,9	1742,22
565,3	1729,18
565,8	1710,26
566,2	1701,14
566,7	1690,62
567,1	1672,94
567,6	1666,7
568	1658,1
568,5	1644,9
568,9	1633,34
569,4	1618,58
569,8	1600,82
570,3	1592,78
570,7	1585,38
571,1	1570,18
571,6	1562,7
572	1551,9
572,5	1543,02
572,9	1525,22
573,4	1521,42
573,8	1506,74
574,3	1504,62
574,7	1491,54
575,2	1478,18
575,6	1464,26
576,1	1459,46
576,5	1438,7
576,9	1429,14
577,4	1423,22
577,8	1410,86
578,3	1398,42
578,7	1396,02
579,2	1381,82
579,6	1374,78
580,1	1368,78
580,5	1358,5
581	1346,7
581,4	1345,5
581,9	1332,74
582,3	1324,14
582,7	1316,5
583,2	1305,78
583,6	1290,9
584,1	1281,42
584,5	1276,66
585	1264,82
585,4	1257,94
585,9	1256,54
586,3	1252,22
586,8	1240,5
587,2	1236,54
587,6	1227,78
588,1	1210,42
588,5	1203,38
589	1197,54
589,4	1183,98
589,9	1173,58
590,3	1168,94
590,8	1156,5
591,2	1145,5
591,7	1149,42
592,1	1148,22
592,5	1145,78
593	1142,54
593,4	1136,3
593,9	1123,86
594,3	1111,42
594,8	1102,26
595,2	1098,86
595,7	1091,1
596,1	1089,7
596,6	1086,54
597	1077,54
597,4	1068,18
597,9	1061,34
598,3	1054,7
598,8	1050,66
599,2	1054,9
599,7	1050,78
600,1	1050,34
600,6	1041,22
601	1032,22
601,4	1020,38
601,9	1014,66
602,3	1005,34
602,8	1000,38
603,2	995,42
603,7	986,5
604,1	978,54
604,6	976,14
605	975,7
605,4	969,78
605,9	966,02
606,3	964,62
606,8	958,9
607,2	945,26
607,7	939,1
608,1	931,62
608,6	921,58
609	921,5
609,4	919,22
609,9	917,06
610,3	913,1
610,8	906,26
611,2	884,14
611,7	879,7
612,1	870,7
612,6	859,38
613	862,38
613,4	865,74
613,9	861,9
614,3	851,94
614,8	852,42
615,2	844,22
615,7	835,34
616,1	825,7
616,6	821,94
617	814,34
617,4	806,46
617,9	807,34
618,3	805,1
618,8	804,66
619,2	805,62
619,7	805,94
620,1	790,42
620,5	780,86
621	780,74
621,4	767,98
621,9	749,94
622,3	751,42
622,8	754,7
623,2	745,34
623,6	749,7
624,1	749,74
624,5	742,98
625	727,34
625,4	716,86
625,9	705,14
626,3	701,1
626,8	697,9
627,2	697,1
627,6	695,3
628,1	689,66
628,5	684,3
629	685,9
629,4	679,14
629,9	671,94
630,3	666,42
630,7	655,18
631,2	641,18
631,6	639,66
632,1	636,3
632,5	635,38
633	635,1
633,4	635,06
633,8	627,62
634,3	628,46
634,7	617,3
635,2	618,18
635,6	610,94
636,1	609,98
636,5	605,9
636,9	604,02
637,4	599,66
637,8	597,66
638,3	592,38
638,7	581,22
639,2	576,62
639,6	565,66
640	560,18
640,5	558,94
640,9	556,38
641,4	555,26
641,8	556,22
642,2	552,94
642,7	546,82
643,1	546,9
643,6	535,9
644	531,78
644,5	533,3
644,9	529,14
645,3	525,54
645,8	524,78
646,2	516,06
646,7	507,78
647,1	506,46
647,6	493,06
648	494,7
648,4	496,62
648,9	492,38
649,3	481,26
649,8	484,34
650,2	477,7
650,6	468,94
651,1	465,98
651,5	470,26
652	468,82
652,4	464,38
652,9	463,3
653,3	459,34
653,7	452,02
654,2	447,94
654,6	450,98
655,1	449,78
655,5	444,7
655,9	441,86
656,4	432,54
656,8	424,06
657,3	416,78
657,7	419,34
658,2	420,46
658,6	420,66
659	421,38
659,5	421,5
659,9	409,9
660,4	398,34
660,8	399,66
661,2	395,1
661,7	392,7
662,1	394,98
662,6	398,38
663	390,78
663,4	386,78
663,9	379,54
664,3	373,34
664,8	365,82
665,2	362,54
665,6	359,94
666,1	359,62
666,5	357,34
667	359,54
667,4	352,22
667,9	347,58
668,3	343,66
668,7	342,82
669,2	337,78
669,6	336,14
670,1	333,98
670,5	335,1
670,9	331,86
671,4	328,38
671,8	330,74
672,3	329,58
672,7	329,7
673,1	320,82
673,6	317,5
674	315,94
674,5	312,74
674,9	307,38
675,3	311,9
675,8	311,66
676,2	307,82
676,7	310,02
677,1	302,94
677,5	301,3
678	297,42
678,4	299,7
678,9	289,38
679,3	289,46
679,7	288,94
680,2	286,34
680,6	270,3
681,1	264,58
681,5	265,62
681,9	260,34
682,4	257,74
682,8	261,9
683,3	268,22
683,7	259,78
684,1	253,94
684,6	253,7
685	254,1
685,5	248,7
685,9	250,5
686,3	249,26
686,8	240,02
687,2	236,46
687,7	237,02
688,1	233,3
688,5	235,3
689	235,82
689,4	233,34
689,9	226,62
690,3	222,02
690,7	217,7
691,2	218,86
691,6	216,14
692	217,58
692,5	219,98
692,9	216,22
693,4	213,3
693,8	218,98
694,2	218,86
694,7	211,58
695,1	208,54
695,6	205,26
696	199,74
696,4	193,98
696,9	203,3
697,3	209,1
697,8	207,9
698,2	210,22
698,6	212,1
699,1	200,5
699,5	196,9
699,9	197,02
700,4	186,54
700,8	182,3
701,3	179,02
701,7	178,22
702,1	174,18
702,6	171,66
703	172,34
703,5	176,22
703,9	171,06
704,3	175,54
704,8	183,38
705,2	180,02
705,6	180,86
706,1	174,26
706,5	164,9
707	160,14
707,4	159,42
707,8	150,14
708,3	154,02
708,7	157,14
709,2	151,06
709,6	146,22
710	147,46
710,5	145,74
710,9	140,5
711,3	140,26
711,8	141,58
712,2	145,26
712,7	140,1
713,1	144,7
713,5	148,78
714	142,62
714,4	137,26
714,8	142,9
715,3	139,3
715,7	135,26
716,2	139,26
716,6	137,62
717	135,82
717,5	131,9
717,9	129,14
718,3	125,66
718,8	126,3
719,2	122,7
719,7	123,22
720,1	117,22
720,5	115,9
721	109,54
721,4	109,38
721,8	105,5
722,3	107,58
722,7	106,14
723,2	109,02
723,6	104,7
724	109,5
724,5	110,86
724,9	117,42
725,3	112,3
725,8	115,42
726,2	106,18
726,7	107,1
727,1	104,22
727,5	111,62
728	106,5
728,4	110,66
728,8	109,66
729,3	106,78
729,7	99,46
730,1	92,42
730,6	93,7
731	89,78
731,5	89,38
731,9	92,9
732,3	104,18
732,8	99,06
733,2	97,02
733,6	95,06
734,1	87,62
734,5	81,62
734,9	86,06
735,4	82,58
735,8	83,34
736,3	86,78
736,7	88,74
737,1	86,46
737,6	94,54
738	90,74
738,4	88,38
738,9	89,06
739,3	84,14
739,7	76,3
740,2	70,78
740,6	69,38
741,1	64,78
741,5	64,9
741,9	66,66
742,4	69,38
742,8	72,58
743,2	72,98
743,7	69,78
744,1	70,62
744,5	69,7
745	66,62
745,4	69,5
745,8	75,78
746,3	71,42
746,7	69,54
747,2	65,74
747,6	60,94
748	57,14
748,5	67,9
748,9	67,22
749,3	67,98
749,8	63,86
750,2	61,86
750,6	54,46
751,1	49,38
751,5	50,78
751,9	58,22
752,4	60,34
752,8	57,42
753,3	61,5
753,7	61,9
754,1	56,26
754,6	58,66
755	55,7
755,4	58,38
755,9	57,7
756,3	59,34
756,7	51,3
757,2	47,54
757,6	45,42
758	46,46
758,5	43,78
758,9	48,34
759,3	49,74
759,8	48,74
760,2	46,14
760,6	41,66
761,1	36,82
761,5	41,26
761,9	44,34
762,4	41,94
762,8	45,34
763,3	43,62
763,7	41,82
764,1	38,86
764,6	42,66
765	44,94
765,4	45,58
765,9	42,1
766,3	42,02
766,7	37,74
767,2	34,9
767,6	33,98
768	42,7
768,5	41,9
768,9	42,1
769,3	40,98
769,8	42,02
770,2	35,14
770,6	42,62
771,1	42,26
771,5	41,34
771,9	43,7
772,4	42,54
772,8	33,18
773,2	31,14
773,7	29,38
774,1	29,58
774,5	26,78
775	26,9
775,4	26,66
775,8	27,42
776,3	19,86
776,7	21,94
777,1	18,38
777,6	18,58
778	17,98
778,4	27,02
778,9	26,38
779,3	26,1
779,7	28,3
780,2	32,1
780,6	26,38
781	27,9
781,5	30,94
781,9	27,06
782,3	19,58
782,8	19,78
783,2	23,7
783,6	18,7
784,1	16,62
784,5	17,66
784,9	14,78
785,4	10,5
785,8	14,66
786,2	11,54
786,7	15,1
787,1	16,38
787,5	13,42
788	15,26
788,4	22,74
788,8	22,86
789,3	25,9
789,7	27,98
790,1	24,02
790,6	15,78
791	11,82
791,4	9,5
791,9	2,62
792,3	3,58
792,7	3,18
793,2	5,74
793,6	2,06
794	4,46
794,5	4,86
794,9	7,9
795,3	5,26
795,8	6,5
796,2	11,9
796,6	4,3
797,1	1,9
797,5	0,74
797,9	-1,62
798,4	-6,58
798,8	0,18
799,2	4,42
799,7	3,86
800,1	6,26
800,5	4,58
801	-1,62
801,4	-3,78
801,8	-4,38
802,2	2,66
802,7	1,9
803,1	1,78
803,5	1,98
804	5,82
804,4	-8,34
804,8	-5,82
805,3	-0,86
805,7	-3,46
806,1	-7,1
806,6	1,38
807	-4,78
807,4	-6,42
807,9	-2,98
808,3	-0,9
808,7	-5,66
809,2	0,22
809,6	-2,34
810	-8,9
810,4	-14,58
810,9	-13,54
811,3	-16,14
811,7	-17,42
812,2	-9,3
812,6	-12,42
813	-13,94
813,5	-7,38
813,9	-4,62
814,3	-7,62
814,8	3,26
815,2	1,98
815,6	-7,78
816,1	-5,3
816,5	-7,22
816,9	-9,26
817,3	-11,58
817,8	-8,78
818,2	-15,9
818,6	-12,5
819,1	-20,78
819,5	-15,34
819,9	-17,1
820,4	-12,18
820,8	-18,9
821,2	-16,54
821,7	-15,86
822,1	-11,54
822,5	-15,74
822,9	-16,22
823,4	-11,82
823,8	-10,22
824,2	-17,1
824,7	-15,94
825,1	-15,14
825,5	-17,62
826	-24,26
826,4	-23,1
826,8	-20,14
827,3	-19,1
827,7	-24,5
828,1	-22,38
828,5	-20,1
829	-24,26
829,4	-25,98
829,8	-20,42
830,3	-17,54
830,7	-13,06
831,1	-16,1
831,6	-14,54
832	-13,98
832,4	-14,86
832,8	-17,78
833,3	-13,1
833,7	-8,14
834,1	-10,38
834,6	-19,98
835	-18,62
835,4	-14,86
835,8	-15,9
836,3	-13,3
836,7	-6,14
837,1	-12,14
837,6	-15,7
838	-18,82
838,4	-19,34
838,9	-20,34
839,3	-19,58
839,7	-18,66
840,1	-14,62
840,6	-21,34
841	-20,26
841,4	-24,66
841,9	-24,34
842,3	-33,42
842,7	-27,98
843,1	-29,18
843,6	-29,82
844	-32,7
844,4	-26,98
844,9	-25,46
845,3	-24,98
845,7	-24,5
846,2	-23,94
846,6	-20,14
847	-25,58
847,4	-28,86
847,9	-24,02
848,3	-31,26
848,7	-37,38
849,2	-36,3
849,6	-39,58
850	-40,54
850,4	-39,14
850,9	-42,18
851,3	-43,7
851,7	-39,42
852,2	-39,9
852,6	-35,06
853	-34,46
853,4	-26,82
853,9	-27,06
854,3	-21,7
854,7	-18,18
855,2	-14,3
855,6	-18,18
856	-15,9
856,4	-20,86
856,9	-26,34
857,3	-27,98
857,7	-31,18
858,2	-36,18
858,6	-39,38
859	-39,34
859,4	-37,7
859,9	-36,78
860,3	-31,42
860,7	-27,98
861,1	-25,54
861,6	-27,06
862	-27,58
862,4	-29,98
862,9	-29,14
863,3	-27,9
863,7	-34,26
864,1	-33,86
864,6	-32,82
865	-30,7
865,4	-34,94
865,9	-26,46
866,3	-28,98
866,7	-32,18
867,1	-33,3
867,6	-35,06
868	-36,62
868,4	-31,78
868,8	-28,26
869,3	-27,38
869,7	-26,38
870,1	-31,5
870,6	-36,7
871	-34,94
871,4	2,22
871,8	-0,02
872,3	3,14
872,7	2,78
873,1	7,7
873,5	-33,42
874	-32,46
874,4	-29,94
874,8	-30,78
875,3	-40,38
875,7	-39,3
876,1	-31,9
876,5	-37,42
877	-30,38
877,4	-31,38
877,8	-31,78
878,2	-37,42
878,7	-30,38
879,1	-31,94
879,5	-30,66
879,9	-33,38
880,4	-27,46
880,8	-34,3
881,2	-35,38
881,7	-36,62
882,1	-38,1
882,5	-43,54
882,9	-40,98
883,4	-37,94
883,8	-41,5
884,2	-34,58
884,6	-35,74
885,1	-34,82
885,5	-37,34
885,9	-29,62
886,3	-31,9
886,8	-28,14
887,2	-27,02
887,6	-27,18
888	-33,78
888,5	-38,02
888,9	-39,74
889,3	-44,02
889,8	-46,98
890,2	-42,58
890,6	-35,74
891	-37,86
891,5	-34,34
891,9	-31,22
892,3	-32,5
892,7	-33,58
893,2	-28,46
893,6	-25,74
894	-29,86
894,4	-28,5
894,9	-32,66
895,3	-33,86
895,7	-31,7
896,1	-27,58
896,6	-27,26
897	-28,06
897,4	-31,98
897,8	-37,02
898,3	-39,1
898,7	-33,42
899,1	-33,94
899,5	-33,3
900	-36,98
900,4	-30,82
900,8	-37,66
901,2	-34,98
901,7	-33,14
902,1	-31,98
902,5	-37,82
902,9	-36,34
903,4	-35,78
903,8	-35,58
904,2	-30,66
904,6	-33,46
905,1	-32,74
905,5	-33,74
905,9	-36,02
906,3	-39,06
906,8	-33,3
907,2	-34,26
907,6	-36,94
908	-35,26
908,5	-36,58
908,9	-38,26
909,3	-41,26
909,7	-38,3
910,2	-41,18
910,6	-40,46
911	-43,98
911,4	-46,22
911,9	-49,46
912,3	-46,42
912,7	-48,3
913,1	-44,06
913,6	-42,54
914	-46,66
914,4	-51,18
914,8	-50,9
915,3	-55,9
915,7	-51,3
916,1	-50,06
916,5	-40,46
916,9	-41,3
917,4	-36,42
917,8	-40,34
918,2	-30,26
918,6	-35,74
919,1	-29,5
919,5	-37,42
919,9	-30,18
920,3	-36,74
920,8	-36,38
921,2	-43,18
921,6	-39,46
922	-55,74
922,5	-53,78
922,9	-61,86
923,3	-54,62
923,7	-56,5
924,2	-44,58
924,6	-49,78
925	-42,9
925,4	-46,94
925,8	-43,94
926,3	-41,46
926,7	-40,02
927,1	-35,38
927,5	-41,22
928	-42,18
928,4	-48,38
928,8	-39,7
929,2	-49,86
929,7	-42,06
930,1	-37,14
930,5	-35,22
930,9	-38,34
931,3	-38,02
931,8	-49,46
932,2	-53,78
932,6	-55,06
933	-57,82
933,5	-55,26
933,9	-43,38
934,3	-48,7
934,7	-49,42
935,2	-44,14
935,6	-44,78
936	-51,62
936,4	-51,5
936,8	-52,02
937,3	-57,54
937,7	-54,02
938,1	-51,06
938,5	-49,06
939	-50,3
939,4	-49,26
939,8	-48,94
940,2	-48,66
940,6	-50,26
941,1	-53,38
941,5	-56,7
941,9	-59,42
942,3	-55,82
942,8	-53,78
943,2	-44,74
943,6	-44,06
944	-41,3
944,4	-49,94
944,9	-48,38
945,3	-52,82
945,7	-55,94
946,1	-65,14
946,6	-65,38
947	-63,5
947,4	-58,7
947,8	-49,06
948,2	-43,82
948,7	-39,62
949,1	-37,06
949,5	-37,86
949,9	-43,38
950,3	-44,5
950,8	-43,82
951,2	-45,54
951,6	-50,58
952	-50,46
952,5	-42,34
952,9	-38,78
953,3	-45,18
953,7	-39,18
954,1	-37,86
954,6	-46,34
955	-51,82
955,4	-48,06
955,8	-45,66
956,2	-50,5
956,7	-50,38
957,1	-45,82
957,5	-47,46
957,9	-51,98
958,3	-42,54
958,8	-40,02
959,2	-41,5
959,6	-39,98
960	-40,1
960,5	-46,74
960,9	-49,78
961,3	-51,74
961,7	-46,86
962,1	-47,46
962,6	-46,14
963	-37,82
963,4	-36,66
963,8	-35,5
964,2	-42,34
964,7	-38,14
965,1	-47,18
965,5	-49,82
965,9	-57,54
966,3	-49,46
966,8	-48,1
967,2	-46,98
967,6	-44,34
968	-43,06
968,4	-45,34
968,9	-51,38
969,3	-42,7
969,7	-44,66
970,1	-47,18
970,5	-51,74
971	-51,1
971,4	-52,06
971,8	-51,82
972,2	-47,78
972,6	-43,34
973,1	-41,66
973,5	-49,94
973,9	-47,46
974,3	-48,46
974,7	-44,74
975,2	-49,14
975,6	-44,66
976	-46,66
976,4	-48,14
976,8	-44,9
977,3	-48,78
977,7	-44,98
978,1	-40,22
978,5	-40,5
978,9	-50,22
979,4	-38,34
979,8	-38,9
980,2	-42,06
980,6	-36,18
981	-27,82
981,5	-35,46
981,9	-38,62
982,3	-36,06
982,7	-39,94
983,1	-44,18
983,6	-37,62
984	-38,26
984,4	-40,42
984,8	-38,3
985,2	-37,42
985,6	-42,38
986,1	-47,34
986,5	-48,54
986,9	-47,94
987,3	-54,94
987,7	-51,86
988,2	-47,1
988,6	-45,66
989	-50,22
989,4	-52,5
989,8	-58,34
990,3	-62,42
990,7	-65,18
991,1	-63,02
991,5	-54,62
991,9	-48,18
992,3	-50,34
992,8	-47,26
993,2	-47,54
993,6	-43,34
994	-48,1
994,4	-40,7
994,9	-41,9
995,3	-43,1
995,7	-48,82
996,1	-45,3
996,5	-43,78
996,9	-47,62
997,4	-54,26
997,8	-56,78
998,2	-58,26
998,6	-66,34
999	-62,7
999,5	-56,66
999,9	-55,7
1000,3	-56,66
1000,7	-51,06
1001,1	-51,5
1001,5	-50,62
1002	-51,34
1002,4	-52,86
1002,8	-52,3
1003,2	-51,9
1003,6	-51,42
1004	-42,78
1004,5	-41,5
1004,9	-41,06
1005,3	-46,06
1005,7	-48,02
1006,1	-50,14
1006,6	-51,58
1007	-49,42
1007,4	-44,26
1007,8	-40,98
1008,2	-47,9
1008,6	-45,78
1009,1	-52,62
1009,5	-53,78
1009,9	-57,5
1010,3	-52,94
1010,7	-54,06
1011,1	-51,06
1011,6	-45,58
1012	-44,18
1012,4	-50,58
1012,8	-53,9
1013,2	-52,06
1013,6	-59,74
1014,1	-57,3
1014,5	-50,7
1014,9	-43,9
1015,3	-44,82
1015,7	-39,14
1016,1	-45,34
1016,6	-50,9
1017	-54,14
1017,4	-51,98
1017,8	-53,06
1018,2	-49,34
1018,6	-50,02
1019,1	-49,46
1019,5	-48,66
1019,9	-45,46
1020,3	-48,74
1020,7	-49,34
1021,1	-51,7
1021,6	-52,94
1022	-54,22
1022,4	-55,3
1022,8	-51,14
1023,2	-50,1
1023,6	-53,42
1024,1	-58,02
1024,5	-55,46
1024,9	-57,1
1025,3	-56,14
1025,7	-54,7
1026,1	-53,5
1026,6	-50,66
1027	-47,22
1027,4	-45,7
1027,8	-44,86
1028,2	-47,94
1028,6	-46,14
1029	-48,78
1029,5	-51,1
1029,9	-52,18
1030,3	-50,98
1030,7	-53,22
1031,1	-58,94
1031,5	-63,9
1032	-64,82
1032,4	-62,42
1032,8	-62,3
1033,2	-58,26
1033,6	-54,46
1034	-54,1
1034,4	-51,66
1034,9	-53,22
1035,3	-55,54
1035,7	-56,42
1036,1	-57,94
1036,5	-59,78
1036,9	-54,14
1037,4	-47,26
1037,8	-41,14
1038,2	-40,94
1038,6	-45,82
1039	-49,1
1039,4	-51,9
1039,8	-58,22
1040,3	-60,54
1040,7	-55,86
1041,1	-58,22
1041,5	-56,66
1041,9	-55,7
1042,3	-57,3
1042,7	-55,38
1043,2	-53,1
1043,6	-54,78
1044	-52,82
1044,4	-47,7
1044,8	-48,54
1045,2	-54,94
1045,6	-59,02
1046,1	-61,62
1046,5	-58,38
1046,9	-67,18
1047,3	-60,9
1047,7	-57,58
1048,1	-57,58
1048,5	-64,1
1049	-59,3
1049,4	-58,22
1049,8	-53,22
1050,2	-42,18
1050,6	-38,9
1051	-36,02
1051,4	-43,3
1051,9	-50,98
1052,3	-63,02
1052,7	-67,98
1053,1	-69,38
1053,5	-69,38
1053,9	-65,98
1054,3	-63,5
1054,8	-65,82
1055,2	-64,7
1055,6	-62,34
1056	-63,54
1056,4	-65,58
1056,8	-59,66
1057,2	-59,98
1057,6	-56,46
1058,1	-57,62
1058,5	-59,38
1058,9	-63,18
1059,3	-64,38
1059,7	-62,38
1060,1	-59,46
1060,5	-56,9
1061	-53,06
1061,4	-53,14
1061,8	-52,5
1062,2	-56,14
1062,6	-56,78
1063	-59,78
1063,4	-61,42
1063,8	-62,66
1064,3	-58,34
1064,7	-54,7
1065,1	-50,38
1065,5	-46,22
1065,9	-48,58
1066,3	-50,7
1066,7	-53,42
1067,1	-55,3
1067,6	-58,18
1068	-60,78
1068,4	-54,62
1068,8	-54,3
1069,2	-47,62
1069,6	-51,34
1070	-43,22
1070,4	-49,86
1070,9	-53,22
1071,3	-56,38
1071,7	-52,5
1072,1	-59,22
1072,5	-56,3
1072,9	-55,26
1073,3	-61,98
1073,7	-60,26
1074,2	-65,22
1074,6	-64,06
1075	-58,38
1075,4	-50,98
1075,8	-56,26
1076,2	-50,18
1076,6	-50,14
1077	-52,22
1077,5	-59,94
1077,9	-56,02
1078,3	-58,42
1078,7	-58,5
1079,1	-56,38
1079,5	-52,42
1079,9	-56,5
1080,3	-53,66
1080,7	-52,5
1081,2	-58,3
1081,6	-49,82
1082	-44,94
1082,4	-43,22
1082,8	-43,3
1083,2	-38,82
1083,6	-47,78
1084	-46,26
1084,5	-46,34
1084,9	-46,5
1085,3	-46,18
1085,7	-45,9
1086,1	-47,66
1086,5	-52,3
1086,9	-60,94
1087,3	-61,58
1087,7	-60,42
1088,2	-55,78
1088,6	-51,22
1089	-48,62
1089,4	-49,34
1089,8	-48,78
1090,2	-55,26
1090,6	-52,42
1091	-45,9
1091,4	-41,5
1091,9	-38,5
1092,3	-33,5
1092,7	-33,78
1093,1	-34,7
1093,5	-38,06
1093,9	-42,9
1094,3	-44,54
1094,7	-46,62
1095,1	-48,78
1095,5	-55,42
1096	-57,7
1096,4	-58,06
1096,8	-56,66
1097,2	-55,34
1097,6	-42,14
1098	-34,3
1098,4	-34,14
1098,8	-32,54
1099,2	-31,1
1099,6	-35,1
1100,1	-33,18
1100,5	-28,02
1100,9	-30,06
1101,3	-28,26
1101,7	-33,38
1102,1	-31,58
1102,5	-36,7
1102,9	-35,22
1103,3	-37,66
1103,7	-31,7
1104,2	-35,62
1104,6	-36,9
1105	-38,42
1105,4	-39,46
1105,8	-40,3
1106,2	-33,7
1106,6	-24,02
1107	-15,94
1107,4	-6,82
1107,8	0,1
1108,3	0,367
