Data from Subt2_00034.txt Node
Date: Fri Aug 11 15:49:15 MSK 2023
User: vat
Spectrometer: MAYP114033
Trigger mode: 0
Integration Time (sec): 5,000000E-1
Scans to average: 5
Electric dark correction enabled: true
Nonlinearity correction enabled: false
Boxcar width: 2
XAxis mode: Wavelengths
Number of Pixels in Spectrum: 2068
>>>>>Begin Spectral Data<<<<<
199,4	-1,067
199,9	-0,817
200,4	-10,307
200,8	-20,747
201,3	-34,067
201,8	-43,347
202,2	-54,787
202,7	-60,787
203,2	-60,587
203,6	-57,507
204,1	-60,387
204,6	-64,427
205	-64,627
205,5	-72,227
206	-69,147
206,4	-75,187
206,9	-81,307
207,4	-85,427
207,8	-79,547
208,3	-83,707
208,8	-81,627
209,2	-74,707
209,7	-71,347
210,2	-76,947
210,6	-79,147
211,1	-78,667
211,5	-79,267
212	-79,827
212,5	-81,027
212,9	-85,187
213,4	-85,147
213,9	-89,627
214,3	-87,907
214,8	-89,427
215,3	-86,867
215,7	-89,387
216,2	-90,867
216,7	-95,747
217,1	-91,107
217,6	-99,147
218,1	-97,067
218,5	-92,387
219	-88,627
219,5	-94,427
219,9	-90,467
220,4	-84,107
220,9	-82,587
221,3	-82,787
221,8	-81,107
222,3	-82,427
222,7	-92,667
223,2	-94,587
223,6	-96,987
224,1	-94,867
224,6	-93,347
225	-93,947
225,5	-99,387
226	-98,947
226,4	-98,507
226,9	-92,467
227,4	-86,707
227,8	-80,507
228,3	-83,467
228,8	-83,427
229,2	-91,507
229,7	-99,947
230,2	-101,107
230,6	-98,067
231,1	-99,067
231,5	-92,947
232	-85,867
232,5	-84,427
232,9	-84,987
233,4	-82,627
233,9	-88,227
234,3	-93,147
234,8	-93,507
235,3	-90,547
235,7	-94,067
236,2	-89,147
236,7	-84,947
237,1	-86,627
237,6	-91,947
238,1	-90,587
238,5	-93,227
239	-96,387
239,4	-90,987
239,9	-86,787
240,4	-86,747
240,8	-85,587
241,3	-87,147
241,8	-97,107
242,2	-96,467
242,7	-95,187
243,2	-94,427
243,6	-98,067
244,1	-95,067
244,6	-93,707
245	-90,627
245,5	-94,547
245,9	-84,147
246,4	-79,627
246,9	-87,307
247,3	-90,307
247,8	-85,667
248,3	-85,987
248,7	-87,227
249,2	-79,027
249,7	-76,467
250,1	-80,987
250,6	-83,987
251	-84,267
251,5	-89,587
252	-97,027
252,4	-91,707
252,9	-90,267
253,4	-91,427
253,8	-87,427
254,3	-90,507
254,8	-95,987
255,2	-95,067
255,7	-97,507
256,1	-92,467
256,6	-84,227
257,1	-85,627
257,5	-88,867
258	-88,347
258,5	-93,107
258,9	-98,667
259,4	-94,427
259,9	-93,267
260,3	-94,627
260,8	-97,067
261,2	-95,507
261,7	-97,987
262,2	-99,547
262,6	-101,347
263,1	-106,107
263,6	-106,107
264	-105,627
264,5	-100,227
264,9	-99,107
265,4	-94,667
265,9	-90,427
266,3	-87,267
266,8	-84,787
267,3	-87,347
267,7	-83,307
268,2	-87,707
268,7	-84,507
269,1	-91,627
269,6	-90,507
270	-90,747
270,5	-86,867
271	-98,907
271,4	-95,667
271,9	-92,707
272,4	-94,747
272,8	-97,907
273,3	-95,627
273,7	-97,307
274,2	-94,627
274,7	-97,507
275,1	-92,587
275,6	-86,867
276,1	-93,307
276,5	-98,947
277	-99,747
277,4	-109,947
277,9	-107,707
278,4	-104,147
278,8	-97,427
279,3	-99,947
279,8	-90,707
280,2	-92,747
280,7	-95,427
281,1	-95,947
281,6	-92,467
282,1	-99,467
282,5	-104,467
283	-101,387
283,4	-99,507
283,9	-94,907
284,4	-89,387
284,8	-83,267
285,3	-77,947
285,8	-77,547
286,2	-82,907
286,7	-83,867
287,1	-84,187
287,6	-90,707
288,1	-93,867
288,5	-90,627
289	-89,347
289,5	-93,507
289,9	-90,747
290,4	-88,747
290,8	-92,227
291,3	-94,947
291,8	-90,467
292,2	-90,467
292,7	-92,467
293,1	-88,107
293,6	-90,107
294,1	-89,907
294,5	-90,227
295	-87,707
295,5	-83,307
295,9	-77,427
296,4	-81,307
296,8	-83,147
297,3	-82,027
297,8	-92,347
298,2	-93,907
298,7	-98,707
299,1	-93,347
299,6	-96,347
300,1	-93,147
300,5	-91,227
301	-81,027
301,5	-87,067
301,9	-90,387
302,4	-86,427
302,8	-92,867
303,3	-97,267
303,8	-97,067
304,2	-94,667
304,7	-103,387
305,1	-99,347
305,6	-101,387
306,1	-96,707
306,5	-100,787
307	-93,747
307,4	-97,707
307,9	-93,187
308,4	-95,827
308,8	-90,187
309,3	-94,467
309,8	-89,627
310,2	-89,267
310,7	-91,707
311,1	-95,507
311,6	-88,787
312,1	-89,547
312,5	-89,427
313	-83,307
313,4	-83,067
313,9	-83,787
314,4	-81,107
314,8	-83,667
315,3	-90,707
315,7	-89,187
316,2	-88,147
316,7	-93,467
317,1	-97,827
317,6	-97,947
318	-96,227
318,5	-100,707
319	-101,267
319,4	-106,027
319,9	-99,947
320,3	-100,787
320,8	-103,467
321,3	-102,947
321,7	-90,427
322,2	-88,267
322,6	-84,947
323,1	-81,467
323,6	-78,987
324	-78,507
324,5	-84,907
324,9	-94,347
325,4	-92,027
325,9	-91,707
326,3	-95,227
326,8	-90,467
327,2	-86,427
327,7	-93,227
328,2	-94,307
328,6	-94,347
329,1	-96,307
329,5	-92,747
330	-85,667
330,5	-86,387
330,9	-88,547
331,4	-93,907
331,8	-99,267
332,3	-106,387
332,8	-106,227
333,2	-104,187
333,7	-100,547
334,1	-95,907
334,6	-88,187
335,1	-84,387
335,5	-87,667
336	-90,667
336,4	-88,027
336,9	-88,747
337,4	-91,427
337,8	-90,587
338,3	-83,227
338,7	-89,467
339,2	-94,507
339,7	-94,707
340,1	-94,067
340,6	-93,787
341	-89,147
341,5	-88,147
342	-89,907
342,4	-86,427
342,9	-88,587
343,3	-91,067
343,8	-91,827
344,2	-92,267
344,7	-93,307
345,2	-94,507
345,6	-92,267
346,1	-89,227
346,5	-90,787
347	-97,827
347,5	-96,547
347,9	-95,267
348,4	-91,667
348,8	-88,947
349,3	-77,187
349,8	-75,347
350,2	-76,747
350,7	-80,947
351,1	-77,707
351,6	-83,387
352	-82,267
352,5	-79,227
353	-68,587
353,4	-63,747
353,9	-60,787
354,3	-58,107
354,8	-54,387
355,3	-51,387
355,7	-43,747
356,2	-33,387
356,6	-30,707
357,1	-19,147
357,5	-4,587
358	4,413
358,5	23,253
358,9	51,253
359,4	73,093
359,8	87,453
360,3	117,933
360,8	148,173
361,2	183,773
361,7	220,173
362,1	269,333
362,6	320,013
363	371,893
363,5	424,773
364	488,013
364,4	545,413
364,9	609,053
365,3	672,893
365,8	733,373
366,3	785,413
366,7	837,333
367,2	877,933
367,6	908,973
368,1	930,053
368,5	949,173
369	947,053
369,5	946,333
369,9	945,573
370,4	933,053
370,8	904,973
371,3	883,933
371,7	851,533
372,2	808,453
372,7	764,653
373,1	721,533
373,6	671,133
374	625,573
374,5	579,413
374,9	543,773
375,4	507,053
375,9	470,373
376,3	426,813
376,8	378,893
377,2	334,173
377,7	295,333
378,2	264,293
378,6	234,733
379,1	214,653
379,5	190,853
380	167,293
380,4	150,973
380,9	131,933
381,4	112,213
381,8	95,253
382,3	81,933
382,7	65,333
383,2	57,893
383,6	47,613
384,1	38,133
384,6	28,653
385	18,373
385,5	11,893
385,9	9,773
386,4	6,813
386,8	0,893
387,3	-2,067
387,7	-14,027
388,2	-19,707
388,7	-22,427
389,1	-28,667
389,6	-33,907
390	-35,667
390,5	-31,187
390,9	-37,467
391,4	-36,547
391,9	-35,907
392,3	-33,867
392,8	-41,467
393,2	-35,987
393,7	-42,547
394,1	-41,627
394,6	-50,587
395,1	-49,427
395,5	-57,627
396	-55,627
396,4	-62,147
396,9	-62,587
397,3	-67,027
397,8	-64,627
398,2	-61,667
398,7	-56,307
399,2	-58,587
399,6	-57,867
400,1	-59,947
400,5	-56,747
401	-59,787
401,4	-55,107
401,9	-55,307
402,4	-62,227
402,8	-63,147
403,3	-60,907
403,7	-57,907
404,2	-60,747
404,6	-59,267
405,1	-58,867
405,5	-60,947
406	-60,547
406,5	-59,507
406,9	-48,507
407,4	-47,707
407,8	-46,107
408,3	-43,507
408,7	-39,427
409,2	-38,307
409,6	-36,067
410,1	-37,147
410,6	-40,227
411	-36,427
411,5	-36,947
411,9	-36,147
412,4	-28,427
412,8	-27,547
413,3	-29,987
413,7	-22,947
414,2	-18,467
414,7	-22,467
415,1	-9,467
415,6	-0,827
416	-3,867
416,5	-3,667
416,9	6,653
417,4	0,573
417,8	6,413
418,3	9,333
418,8	16,933
419,2	21,133
419,7	34,493
420,1	27,093
420,6	29,493
421	28,613
421,5	31,253
421,9	31,653
422,4	40,613
422,8	51,853
423,3	57,253
423,8	64,213
424,2	67,773
424,7	79,373
425,1	83,173
425,6	88,013
426	86,413
426,5	94,373
426,9	94,013
427,4	104,493
427,9	113,453
428,3	126,613
428,8	131,853
429,2	140,373
429,7	145,733
430,1	151,653
430,6	155,213
431	161,573
431,5	177,373
431,9	179,773
432,4	191,053
432,8	202,373
433,3	221,373
433,8	222,493
434,2	235,973
434,7	247,253
435,1	259,253
435,6	266,213
436	281,293
436,5	295,573
436,9	309,213
437,4	322,813
437,8	335,293
438,3	355,293
438,8	366,213
439,2	382,453
439,7	401,693
440,1	420,173
440,6	430,013
441	449,013
441,5	463,733
441,9	485,933
442,4	499,093
442,8	522,493
443,3	544,053
443,7	566,133
444,2	584,133
444,7	610,413
445,1	633,533
445,6	653,573
446	684,013
446,5	709,893
446,9	733,693
447,4	757,013
447,8	786,293
448,3	801,533
448,7	820,493
449,2	848,053
449,6	867,333
450,1	888,813
450,6	916,653
451	940,293
451,5	957,013
451,9	986,013
452,4	1015,613
452,8	1049,453
453,3	1075,853
453,7	1112,333
454,2	1140,373
454,6	1168,493
455,1	1184,613
455,5	1221,933
456	1243,773
456,4	1278,973
456,9	1299,613
457,3	1333,133
457,8	1361,813
458,3	1395,653
458,7	1417,413
459,2	1456,653
459,6	1487,173
460,1	1513,453
460,5	1546,373
461	1584,013
461,4	1611,093
461,9	1640,093
462,3	1674,813
462,8	1707,373
463,2	1732,933
463,7	1758,533
464,1	1796,173
464,6	1820,893
465	1848,373
465,5	1875,213
466	1904,813
466,4	1927,813
466,9	1954,653
467,3	1982,013
467,8	2009,933
468,2	2042,813
468,7	2064,733
469,1	2088,053
469,6	2106,053
470	2131,933
470,5	2151,493
470,9	2176,813
471,4	2207,493
471,8	2231,733
472,3	2257,733
472,7	2284,093
473,2	2301,653
473,6	2320,853
474,1	2332,613
474,5	2341,813
475	2355,333
475,4	2366,773
475,9	2383,853
476,4	2411,813
476,8	2438,133
477,3	2453,093
477,7	2471,933
478,2	2481,533
478,6	2496,813
479,1	2509,573
479,5	2524,373
480	2544,373
480,4	2553,413
480,9	2556,173
481,3	2566,693
481,8	2586,293
482,2	2594,053
482,7	2601,733
483,1	2617,613
483,6	2621,853
484	2622,773
484,5	2630,453
484,9	2639,973
485,4	2641,053
485,8	2635,773
486,3	2631,133
486,7	2632,653
487,2	2632,173
487,6	2634,573
488,1	2640,933
488,5	2652,693
489	2662,013
489,4	2669,093
489,9	2664,573
490,4	2667,733
490,8	2653,653
491,3	2644,373
491,7	2644,053
492,2	2637,813
492,6	2634,053
493,1	2639,213
493,5	2634,653
494	2621,333
494,4	2619,053
494,9	2609,453
495,3	2594,253
495,8	2586,213
496,2	2582,493
496,7	2580,053
497,1	2565,733
497,6	2562,053
498	2554,253
498,5	2540,013
498,9	2518,093
499,4	2513,693
499,8	2508,613
500,3	2488,253
500,7	2477,773
501,2	2480,653
501,6	2467,453
502,1	2452,053
502,5	2444,173
503	2433,813
503,4	2416,333
503,9	2410,253
504,3	2398,253
504,8	2383,853
505,2	2375,693
505,7	2364,573
506,1	2347,613
506,6	2333,813
507	2321,653
507,5	2311,813
507,9	2299,493
508,4	2291,293
508,8	2280,213
509,3	2280,773
509,7	2263,733
510,2	2257,893
510,6	2251,013
511,1	2234,293
511,5	2216,613
512	2203,013
512,4	2180,773
512,9	2165,373
513,3	2151,693
513,8	2142,413
514,2	2131,013
514,7	2115,573
515,1	2097,893
515,6	2084,653
516	2070,533
516,5	2054,453
516,9	2044,093
517,4	2029,973
517,8	2015,213
518,3	1998,453
518,7	1987,293
519,2	1974,013
519,6	1957,613
520,1	1948,373
520,5	1940,013
521	1922,933
521,4	1908,893
521,9	1899,853
522,3	1882,693
522,8	1867,493
523,2	1860,693
523,7	1854,973
524,1	1849,693
524,6	1846,013
525	1829,693
525,5	1811,693
525,9	1798,413
526,4	1776,573
526,8	1754,893
527,3	1743,333
527,7	1733,093
528,2	1715,613
528,6	1710,373
529,1	1706,573
529,5	1700,933
530	1692,973
530,4	1691,933
530,9	1676,173
531,3	1667,733
531,8	1657,413
532,2	1640,013
532,6	1627,533
533,1	1619,333
533,5	1604,773
534	1595,733
534,4	1598,493
534,9	1584,053
535,3	1579,573
535,8	1570,133
536,2	1552,733
536,7	1536,973
537,1	1525,173
537,6	1512,893
538	1504,453
538,5	1486,133
538,9	1478,653
539,4	1479,853
539,8	1468,173
540,3	1453,173
540,7	1458,853
541,2	1449,093
541,6	1426,413
542,1	1421,853
542,5	1423,573
543	1411,693
543,4	1402,893
543,9	1407,333
544,3	1395,493
544,8	1383,613
545,2	1385,093
545,7	1381,293
546,1	1374,973
546,5	1371,293
547	1368,213
547,4	1354,333
547,9	1345,213
548,3	1334,893
548,8	1331,053
549,2	1323,413
549,7	1313,413
550,1	1310,453
550,6	1307,013
551	1296,653
551,5	1295,013
551,9	1296,933
552,4	1288,053
552,8	1282,853
553,3	1279,533
553,7	1267,493
554,2	1258,293
554,6	1263,133
555,1	1253,573
555,5	1247,093
555,9	1250,053
556,4	1249,853
556,8	1240,853
557,3	1235,493
557,7	1225,973
558,2	1225,653
558,6	1214,693
559,1	1199,053
559,5	1193,173
560	1195,453
560,4	1178,333
560,9	1176,013
561,3	1177,413
561,8	1177,133
562,2	1167,533
562,7	1162,493
563,1	1153,933
563,6	1150,173
564	1143,373
564,4	1144,173
564,9	1147,013
565,3	1139,773
565,8	1133,293
566,2	1130,893
566,7	1129,853
567,1	1112,573
567,6	1112,013
568	1109,893
568,5	1102,093
568,9	1085,093
569,4	1092,173
569,8	1089,533
570,3	1084,333
570,7	1080,133
571,1	1076,093
571,6	1068,133
572	1063,013
572,5	1057,893
572,9	1054,373
573,4	1057,093
573,8	1051,013
574,3	1044,373
574,7	1041,813
575,2	1029,173
575,6	1019,253
576,1	1015,573
576,5	1003,453
576,9	994,373
577,4	997,813
577,8	995,093
578,3	987,413
578,7	990,933
579,2	986,973
579,6	981,853
580,1	972,133
580,5	968,813
581	961,853
581,4	954,293
581,9	950,453
582,3	948,173
582,7	946,333
583,2	936,533
583,6	935,653
584,1	926,013
584,5	920,613
585	916,893
585,4	912,613
585,9	903,493
586,3	900,253
586,8	898,173
587,2	884,733
587,6	888,453
588,1	884,613
588,5	880,653
589	876,613
589,4	878,653
589,9	872,653
590,3	869,573
590,8	864,093
591,2	852,813
591,7	849,613
592,1	852,413
592,5	848,613
593	839,253
593,4	840,573
593,9	833,293
594,3	819,893
594,8	811,893
595,2	814,933
595,7	822,253
596,1	820,893
596,6	825,613
597	825,093
597,4	817,653
597,9	804,173
598,3	800,293
598,8	793,133
599,2	784,893
599,7	781,973
600,1	777,053
600,6	766,973
601	755,373
601,4	756,293
601,9	751,773
602,3	747,013
602,8	741,933
603,2	736,453
603,7	731,933
604,1	725,853
604,6	724,893
605	725,773
605,4	720,533
605,9	714,413
606,3	715,093
606,8	707,413
607,2	704,613
607,7	703,533
608,1	702,333
608,6	700,213
609	699,173
609,4	693,533
609,9	692,373
610,3	686,213
610,8	680,333
611,2	671,133
611,7	674,253
612,1	668,773
612,6	661,493
613	658,293
613,4	661,373
613,9	648,733
614,3	655,293
614,8	651,693
615,2	644,253
615,7	645,373
616,1	639,813
616,6	623,373
617	624,053
617,4	617,133
617,9	605,853
618,3	596,613
618,8	591,213
619,2	583,093
619,7	586,373
620,1	579,493
620,5	578,813
621	580,213
621,4	580,813
621,9	570,973
622,3	563,533
622,8	566,613
623,2	555,693
623,6	548,413
624,1	548,973
624,5	548,773
625	543,333
625,4	540,533
625,9	540,293
626,3	535,813
626,8	535,453
627,2	528,253
627,6	528,813
628,1	522,533
628,5	517,933
629	508,173
629,4	502,453
629,9	499,173
630,3	493,613
630,7	494,773
631,2	494,773
631,6	493,093
632,1	489,493
632,5	487,493
633	480,013
633,4	478,373
633,8	468,813
634,3	463,173
634,7	458,093
635,2	451,933
635,6	444,213
636,1	448,853
636,5	447,133
636,9	434,173
637,4	432,693
637,8	432,533
638,3	422,173
638,7	414,093
639,2	420,293
639,6	411,933
640	407,013
640,5	405,053
640,9	401,133
641,4	390,453
641,8	384,893
642,2	382,453
642,7	383,253
643,1	378,653
643,6	381,813
644	387,133
644,5	376,893
644,9	375,133
645,3	373,973
645,8	371,653
646,2	363,853
646,7	362,173
647,1	354,453
647,6	351,253
648	348,053
648,4	352,013
648,9	353,493
649,3	351,373
649,8	351,173
650,2	359,653
650,6	352,613
651,1	354,333
651,5	356,693
652	356,413
652,4	338,773
652,9	330,373
653,3	317,333
653,7	313,533
654,2	303,693
654,6	305,693
655,1	303,253
655,5	307,373
655,9	309,173
656,4	307,173
656,8	296,493
657,3	297,453
657,7	292,253
658,2	283,693
658,6	289,173
659	291,093
659,5	287,173
659,9	282,733
660,4	270,653
660,8	260,173
661,2	261,693
661,7	261,733
662,1	265,973
662,6	270,893
663	269,333
663,4	267,373
663,9	263,373
664,3	258,253
664,8	261,253
665,2	256,013
665,6	251,853
666,1	245,493
666,5	238,413
667	230,013
667,4	229,853
667,9	229,933
668,3	230,413
668,7	225,733
669,2	221,493
669,6	224,813
670,1	219,733
670,5	213,053
670,9	209,973
671,4	207,413
671,8	197,853
672,3	199,453
672,7	201,893
673,1	200,333
673,6	201,973
674	205,613
674,5	200,333
674,9	193,093
675,3	189,653
675,8	183,693
676,2	175,293
676,7	169,013
677,1	171,293
677,5	168,573
678	169,853
678,4	177,093
678,9	171,813
679,3	170,173
679,7	177,013
680,2	174,573
680,6	164,693
681,1	167,253
681,5	167,773
681,9	157,933
682,4	157,573
682,8	152,893
683,3	156,173
683,7	149,693
684,1	153,493
684,6	149,453
685	148,773
685,5	132,453
685,9	130,333
686,3	131,893
686,8	128,213
687,2	130,573
687,7	134,373
688,1	138,293
688,5	133,493
689	135,493
689,4	133,373
689,9	133,773
690,3	135,253
690,7	131,653
691,2	130,133
691,6	125,973
692	131,093
692,5	127,333
692,9	129,333
693,4	129,933
693,8	132,933
694,2	127,613
694,7	126,693
695,1	121,493
695,6	116,813
696	112,173
696,4	107,093
696,9	101,253
697,3	102,493
697,8	96,413
698,2	97,773
698,6	94,573
699,1	89,573
699,5	85,773
699,9	87,853
700,4	83,653
700,8	87,893
701,3	86,893
701,7	93,413
702,1	98,093
702,6	97,653
703	95,733
703,5	94,493
703,9	84,493
704,3	76,733
704,8	73,533
705,2	72,613
705,6	71,613
706,1	71,173
706,5	69,733
707	69,173
707,4	71,853
707,8	75,853
708,3	76,373
708,7	73,653
709,2	71,533
709,6	66,013
710	60,173
710,5	60,413
710,9	62,693
711,3	66,213
711,8	62,893
712,2	66,973
712,7	55,373
713,1	51,853
713,5	50,693
714	51,413
714,4	46,813
714,8	49,693
715,3	47,653
715,7	46,173
716,2	42,333
716,6	38,533
717	40,413
717,5	43,773
717,9	40,133
718,3	39,613
718,8	44,813
719,2	39,253
719,7	31,373
720,1	32,053
720,5	30,573
721	24,733
721,4	31,573
721,8	34,533
722,3	28,773
722,7	24,533
723,2	23,053
723,6	15,013
724	17,653
724,5	22,053
724,9	24,973
725,3	26,053
725,8	20,173
726,2	20,053
726,7	15,453
727,1	14,853
727,5	8,373
728	17,773
728,4	4,093
728,8	4,933
729,3	5,453
729,7	14,093
730,1	16,373
730,6	30,013
731	28,933
731,5	28,013
731,9	22,373
732,3	18,773
732,8	6,533
733,2	11,613
733,6	9,333
734,1	7,333
734,5	1,573
734,9	7,813
735,4	1,893
735,8	4,973
736,3	4,253
736,7	8,653
737,1	7,693
737,6	9,453
738	3,053
738,4	1,613
738,9	-3,267
739,3	-0,787
739,7	-8,187
740,2	-10,107
740,6	-8,787
741,1	-3,147
741,5	-2,747
741,9	1,333
742,4	6,293
742,8	2,973
743,2	-0,867
743,7	-10,827
744,1	-15,187
744,5	-18,587
745	-14,747
745,4	-10,347
745,8	-2,907
746,3	1,973
746,7	-0,027
747,2	-4,587
747,6	-13,307
748	-22,387
748,5	-26,347
748,9	-23,947
749,3	-19,787
749,8	-17,787
750,2	-20,147
750,6	-23,067
751,1	-22,627
751,5	-22,627
751,9	-20,107
752,4	-16,627
752,8	-13,307
753,3	-12,507
753,7	-12,427
754,1	-16,227
754,6	-14,227
755	-11,507
755,4	-14,267
755,9	-24,227
756,3	-23,187
756,7	-19,427
757,2	-28,387
757,6	-30,827
758	-23,467
758,5	-24,947
758,9	-27,507
759,3	-23,067
759,8	-19,507
760,2	-22,267
760,6	-24,827
761,1	-27,587
761,5	-27,027
761,9	-36,467
762,4	-29,467
762,8	-28,787
763,3	-29,267
763,7	-38,267
764,1	-36,787
764,6	-40,427
765	-38,347
765,4	-33,067
765,9	-26,827
766,3	-24,507
766,7	-27,427
767,2	-28,147
767,6	-40,027
768	-41,307
768,5	-38,707
768,9	-34,787
769,3	-33,667
769,8	-24,307
770,2	-20,467
770,6	-23,147
771,1	-28,587
771,5	-36,027
771,9	-40,707
772,4	-43,787
772,8	-46,387
773,2	-43,547
773,7	-38,387
774,1	-38,347
774,5	-37,867
775	-33,867
775,4	-37,827
775,8	-39,467
776,3	-38,067
776,7	-39,267
777,1	-39,227
777,6	-43,467
778	-41,307
778,4	-40,907
778,9	-37,547
779,3	-47,147
779,7	-38,347
780,2	-42,507
780,6	-46,707
781	-53,427
781,5	-44,387
781,9	-55,867
782,3	-54,387
782,8	-49,467
783,2	-43,307
783,6	-47,827
784,1	-48,987
784,5	-50,187
784,9	-56,067
785,4	-60,547
785,8	-60,307
786,2	-58,027
786,7	-54,427
787,1	-48,547
787,5	-50,187
788	-44,827
788,4	-44,467
788,8	-54,067
789,3	-53,827
789,7	-52,227
790,1	-53,747
790,6	-51,267
791	-51,347
791,4	-52,547
791,9	-49,747
792,3	-57,027
792,7	-51,107
793,2	-42,707
793,6	-45,747
794	-42,587
794,5	-37,307
794,9	-45,587
795,3	-52,667
795,8	-54,067
796,2	-59,587
796,6	-59,587
797,1	-56,427
797,5	-55,147
797,9	-54,187
798,4	-59,827
798,8	-57,307
799,2	-52,987
799,7	-50,027
800,1	-53,747
800,5	-46,627
801	-54,067
801,4	-57,507
801,8	-56,267
802,2	-56,707
802,7	-61,667
803,1	-61,867
803,5	-62,947
804	-66,347
804,4	-66,547
804,8	-64,547
805,3	-57,747
805,7	-61,867
806,1	-56,747
806,6	-52,147
807	-55,507
807,4	-65,427
807,9	-58,667
808,3	-62,827
808,7	-71,707
809,2	-70,027
809,6	-65,147
810	-69,427
810,4	-71,907
810,9	-67,267
811,3	-66,067
811,7	-67,627
812,2	-74,147
812,6	-76,947
813	-76,027
813,5	-70,707
813,9	-62,707
814,3	-52,147
814,8	-43,027
815,2	-48,107
815,6	-51,987
816,1	-56,627
816,5	-63,947
816,9	-66,867
817,3	-67,627
817,8	-70,947
818,2	-74,627
818,6	-71,787
819,1	-79,147
819,5	-71,747
819,9	-70,107
820,4	-68,667
820,8	-69,067
821,2	-60,267
821,7	-61,827
822,1	-60,187
822,5	-61,747
822,9	-58,027
823,4	-60,027
823,8	-62,547
824,2	-62,947
824,7	-63,347
825,1	-67,347
825,5	-70,027
826	-69,147
826,4	-73,507
826,8	-73,867
827,3	-74,027
827,7	-70,307
828,1	-71,507
828,5	-71,467
829	-69,227
829,4	-68,267
829,8	-76,427
830,3	-69,707
830,7	-67,107
831,1	-70,387
831,6	-78,947
832	-75,747
832,4	-76,707
832,8	-79,507
833,3	-77,667
833,7	-68,787
834,1	-70,187
834,6	-77,627
835	-81,547
835,4	-78,187
835,8	-77,107
836,3	-71,067
836,7	-60,387
837,1	-59,467
837,6	-61,347
838	-63,347
838,4	-70,707
838,9	-77,427
839,3	-74,227
839,7	-74,307
840,1	-82,547
840,6	-77,947
841	-80,787
841,4	-90,827
841,9	-87,267
842,3	-80,987
842,7	-85,187
843,1	-87,027
843,6	-73,307
844	-82,707
844,4	-84,267
844,9	-86,667
845,3	-78,147
845,7	-84,467
846,2	-82,307
846,6	-78,867
847	-75,027
847,4	-79,787
847,9	-78,107
848,3	-74,227
848,7	-74,347
849,2	-77,147
849,6	-78,627
850	-74,947
850,4	-74,107
850,9	-76,547
851,3	-69,947
851,7	-73,667
852,2	-78,067
852,6	-82,707
853	-79,027
853,4	-89,747
853,9	-86,107
854,3	-86,187
854,7	-78,067
855,2	-80,867
855,6	-74,427
856	-73,547
856,4	-73,707
856,9	-76,227
857,3	-73,907
857,7	-71,667
858,2	-70,667
858,6	-77,187
859	-83,667
859,4	-91,667
859,9	-93,907
860,3	-94,667
860,7	-84,787
861,1	-83,987
861,6	-77,707
862	-76,227
862,4	-75,307
862,9	-77,307
863,3	-76,347
863,7	-76,507
864,1	-75,907
864,6	-73,467
865	-72,547
865,4	-65,547
865,9	-67,307
866,3	-70,587
866,7	-74,347
867,1	-78,587
867,6	-84,387
868	-85,507
868,4	-85,347
868,8	-89,307
869,3	-94,147
869,7	-95,347
870,1	-95,387
870,6	-91,907
871	-84,467
871,4	-136,987
871,8	-135,107
872,3	-136,227
872,7	-133,427
873,1	-138,387
873,5	-79,747
874	-81,587
874,4	-81,587
874,8	-89,827
875,3	-88,387
875,7	-92,707
876,1	-95,107
876,5	-91,627
877	-89,667
877,4	-87,347
877,8	-79,547
878,2	-74,347
878,7	-78,627
879,1	-74,667
879,5	-75,627
879,9	-79,267
880,4	-87,027
880,8	-88,627
881,2	-93,467
881,7	-95,267
882,1	-89,467
882,5	-84,787
882,9	-75,827
883,4	-70,827
883,8	-72,547
884,2	-79,667
884,6	-78,187
885,1	-82,507
885,5	-89,067
885,9	-86,307
886,3	-86,947
886,8	-89,707
887,2	-92,347
887,6	-90,027
888	-93,307
888,5	-89,907
888,9	-90,307
889,3	-93,627
889,8	-90,707
890,2	-86,307
890,6	-84,747
891	-79,907
891,5	-74,707
891,9	-77,267
892,3	-78,107
892,7	-81,467
893,2	-86,907
893,6	-86,667
894	-88,627
894,4	-92,627
894,9	-87,667
895,3	-82,987
895,7	-80,987
896,1	-76,347
896,6	-78,627
897	-80,787
897,4	-81,827
897,8	-80,907
898,3	-88,147
898,7	-84,027
899,1	-85,187
899,5	-86,267
900	-92,867
900,4	-84,747
900,8	-85,507
901,2	-82,507
901,7	-84,867
902,1	-82,587
902,5	-84,027
902,9	-82,467
903,4	-86,507
903,8	-89,547
904,2	-89,427
904,6	-87,947
905,1	-88,027
905,5	-84,027
905,9	-78,507
906,3	-72,427
906,8	-75,227
907,2	-72,947
907,6	-79,067
908	-79,027
908,5	-84,147
908,9	-80,827
909,3	-83,267
909,7	-78,987
910,2	-75,027
910,6	-70,347
911	-70,067
911,4	-68,747
911,9	-72,147
912,3	-74,027
912,7	-80,427
913,1	-86,827
913,6	-89,187
914	-87,187
914,4	-92,467
914,8	-87,627
915,3	-82,507
915,7	-79,947
916,1	-82,867
916,5	-77,307
916,9	-81,027
917,4	-82,667
917,8	-83,827
918,2	-80,627
918,6	-83,227
919,1	-83,347
919,5	-83,667
919,9	-86,587
920,3	-81,107
920,8	-81,707
921,2	-77,547
921,6	-80,627
922	-81,707
922,5	-85,467
922,9	-95,947
923,3	-92,507
923,7	-89,187
924,2	-90,427
924,6	-90,867
925	-70,547
925,4	-79,987
925,8	-85,427
926,3	-85,627
926,7	-82,627
927,1	-87,747
927,5	-87,707
928	-84,387
928,4	-76,587
928,8	-84,187
929,2	-87,027
929,7	-79,347
930,1	-79,187
930,5	-82,587
930,9	-79,947
931,3	-82,827
931,8	-90,107
932,2	-90,107
932,6	-93,387
933	-92,387
933,5	-85,947
933,9	-85,587
934,3	-86,027
934,7	-84,667
935,2	-86,867
935,6	-91,907
936	-94,107
936,4	-98,347
936,8	-97,787
937,3	-99,427
937,7	-103,307
938,1	-99,507
938,5	-96,107
939	-93,267
939,4	-92,267
939,8	-93,467
940,2	-96,027
940,6	-100,947
941,1	-98,707
941,5	-95,387
941,9	-89,787
942,3	-94,387
942,8	-91,347
943,2	-99,267
943,6	-104,867
944	-106,587
944,4	-101,107
944,9	-99,387
945,3	-98,067
945,7	-96,907
946,1	-96,587
946,6	-94,827
947	-89,827
947,4	-94,227
947,8	-95,747
948,2	-94,707
948,7	-89,547
949,1	-92,427
949,5	-86,107
949,9	-74,667
950,3	-80,387
950,8	-82,627
951,2	-82,107
951,6	-83,667
952	-89,867
952,5	-85,667
952,9	-91,267
953,3	-97,867
953,7	-98,787
954,1	-92,787
954,6	-95,747
955	-95,187
955,4	-90,987
955,8	-84,947
956,2	-98,027
956,7	-93,747
957,1	-90,267
957,5	-85,667
957,9	-92,267
958,3	-86,667
958,8	-88,907
959,2	-88,507
959,6	-94,747
960	-97,267
960,5	-100,787
960,9	-93,747
961,3	-97,467
961,7	-97,187
962,1	-87,267
962,6	-86,387
963	-95,387
963,4	-99,747
963,8	-99,227
964,2	-111,787
964,7	-106,467
965,1	-99,747
965,5	-98,947
965,9	-97,827
966,3	-88,907
966,8	-87,827
967,2	-92,547
967,6	-88,387
968	-87,707
968,4	-81,307
968,9	-87,387
969,3	-89,867
969,7	-94,147
970,1	-93,307
970,5	-97,267
971	-92,587
971,4	-89,867
971,8	-86,227
972,2	-82,707
972,6	-81,987
973,1	-85,787
973,5	-85,147
973,9	-85,507
974,3	-93,067
974,7	-96,427
975,2	-94,707
975,6	-97,587
976	-95,747
976,4	-90,187
976,8	-91,667
977,3	-93,067
977,7	-87,307
978,1	-85,787
978,5	-85,867
978,9	-84,107
979,4	-83,987
979,8	-89,627
980,2	-89,387
980,6	-91,707
981	-91,467
981,5	-90,027
981,9	-86,267
982,3	-86,107
982,7	-83,387
983,1	-85,507
983,6	-83,987
984	-81,867
984,4	-84,707
984,8	-88,387
985,2	-90,267
985,6	-93,707
986,1	-90,787
986,5	-87,227
986,9	-86,227
987,3	-89,547
987,7	-88,067
988,2	-92,387
988,6	-97,107
989	-97,227
989,4	-96,547
989,8	-103,267
990,3	-107,907
990,7	-104,747
991,1	-107,827
991,5	-97,027
991,9	-90,227
992,3	-87,547
992,8	-89,507
993,2	-88,747
993,6	-89,947
994	-85,387
994,4	-83,947
994,9	-80,747
995,3	-76,187
995,7	-79,067
996,1	-81,307
996,5	-87,587
996,9	-89,707
997,4	-96,507
997,8	-99,987
998,2	-99,627
998,6	-96,627
999	-103,107
999,5	-103,667
999,9	-101,627
1000,3	-108,747
1000,7	-106,547
1001,1	-102,147
1001,5	-93,347
1002	-91,427
1002,4	-87,627
1002,8	-88,307
1003,2	-85,747
1003,6	-85,747
1004	-89,227
1004,5	-87,827
1004,9	-87,747
1005,3	-90,307
1005,7	-92,867
1006,1	-88,787
1006,6	-88,467
1007	-84,547
1007,4	-87,507
1007,8	-90,347
1008,2	-90,667
1008,6	-93,707
1009,1	-97,027
1009,5	-89,947
1009,9	-89,867
1010,3	-90,347
1010,7	-90,707
1011,1	-88,347
1011,6	-94,507
1012	-97,387
1012,4	-100,627
1012,8	-103,027
1013,2	-100,147
1013,6	-95,987
1014,1	-94,787
1014,5	-90,427
1014,9	-81,467
1015,3	-85,627
1015,7	-84,267
1016,1	-80,627
1016,6	-85,587
1017	-91,267
1017,4	-92,307
1017,8	-101,827
1018,2	-108,667
1018,6	-107,467
1019,1	-106,147
1019,5	-102,107
1019,9	-96,307
1020,3	-89,627
1020,7	-85,627
1021,1	-89,867
1021,6	-94,867
1022	-98,467
1022,4	-101,787
1022,8	-106,667
1023,2	-104,227
1023,6	-99,467
1024,1	-97,347
1024,5	-100,227
1024,9	-101,587
1025,3	-104,707
1025,7	-109,827
1026,1	-112,147
1026,6	-107,587
1027	-105,027
1027,4	-106,587
1027,8	-115,107
1028,2	-110,987
1028,6	-114,067
1029	-110,587
1029,5	-108,027
1029,9	-96,307
1030,3	-102,027
1030,7	-95,747
1031,1	-105,787
1031,5	-105,027
1032	-109,227
1032,4	-111,427
1032,8	-114,107
1033,2	-105,347
1033,6	-97,307
1034	-96,347
1034,4	-88,747
1034,9	-92,667
1035,3	-93,627
1035,7	-109,547
1036,1	-106,387
1036,5	-104,867
1036,9	-103,747
1037,4	-107,667
1037,8	-101,307
1038,2	-106,827
1038,6	-109,947
1039	-109,147
1039,4	-107,587
1039,8	-104,107
1040,3	-107,507
1040,7	-104,587
1041,1	-107,347
1041,5	-112,867
1041,9	-119,467
1042,3	-113,547
1042,7	-114,067
1043,2	-110,947
1043,6	-108,747
1044	-101,347
1044,4	-105,067
1044,8	-105,227
1045,2	-110,907
1045,6	-115,067
1046,1	-116,467
1046,5	-118,547
1046,9	-121,547
1047,3	-115,187
1047,7	-111,187
1048,1	-113,867
1048,5	-111,227
1049	-107,267
1049,4	-111,987
1049,8	-110,587
1050,2	-106,387
1050,6	-103,427
1051	-111,707
1051,4	-115,427
1051,9	-116,267
1052,3	-125,267
1052,7	-134,987
1053,1	-135,787
1053,5	-128,587
1053,9	-123,427
1054,3	-119,827
1054,8	-108,507
1055,2	-99,027
1055,6	-96,827
1056	-103,227
1056,4	-101,467
1056,8	-100,787
1057,2	-107,587
1057,6	-113,507
1058,1	-110,387
1058,5	-105,507
1058,9	-112,147
1059,3	-108,667
1059,7	-107,227
1060,1	-108,387
1060,5	-112,267
1061	-109,667
1061,4	-109,427
1061,8	-105,667
1062,2	-103,107
1062,6	-102,387
1063	-103,707
1063,4	-101,467
1063,8	-106,547
1064,3	-104,067
1064,7	-104,347
1065,1	-101,387
1065,5	-100,107
1065,9	-99,547
1066,3	-99,867
1066,7	-103,587
1067,1	-104,027
1067,6	-106,707
1068	-105,867
1068,4	-111,707
1068,8	-107,107
1069,2	-107,147
1069,6	-108,187
1070	-103,427
1070,4	-105,987
1070,9	-102,147
1071,3	-99,587
1071,7	-96,587
1072,1	-91,187
1072,5	-90,547
1072,9	-91,307
1073,3	-86,307
1073,7	-88,467
1074,2	-106,067
1074,6	-99,827
1075	-109,387
1075,4	-115,067
1075,8	-114,707
1076,2	-99,547
1076,6	-95,867
1077	-88,467
1077,5	-90,227
1077,9	-94,547
1078,3	-93,547
1078,7	-95,187
1079,1	-92,627
1079,5	-95,027
1079,9	-88,387
1080,3	-93,267
1080,7	-94,787
1081,2	-97,867
1081,6	-95,787
1082	-94,187
1082,4	-96,627
1082,8	-96,427
1083,2	-94,427
1083,6	-93,467
1084	-96,187
1084,5	-93,947
1084,9	-96,587
1085,3	-95,747
1085,7	-94,867
1086,1	-89,987
1086,5	-89,787
1086,9	-84,627
1087,3	-88,827
1087,7	-84,587
1088,2	-84,947
1088,6	-77,507
1089	-79,867
1089,4	-80,187
1089,8	-80,547
1090,2	-88,907
1090,6	-93,347
1091	-95,547
1091,4	-92,867
1091,9	-99,907
1092,3	-92,347
1092,7	-93,587
1093,1	-94,427
1093,5	-89,107
1093,9	-86,587
1094,3	-87,147
1094,7	-82,947
1095,1	-80,987
1095,5	-88,267
1096	-85,827
1096,4	-87,027
1096,8	-87,147
1097,2	-83,307
1097,6	-74,387
1098	-74,387
1098,4	-67,907
1098,8	-78,747
1099,2	-76,667
1099,6	-75,027
1100,1	-70,747
1100,5	-72,787
1100,9	-58,947
1101,3	-54,267
1101,7	-59,307
1102,1	-57,907
1102,5	-58,427
1102,9	-56,867
1103,3	-64,987
1103,7	-57,707
1104,2	-59,547
1104,6	-60,947
1105	-65,387
1105,4	-59,947
1105,8	-61,667
1106,2	-49,107
1106,6	-34,067
1107	-20,387
1107,4	-9,347
1107,8	-0,167
1108,3	0,733
