Data from Subt2_00047.txt Node
Date: Fri Aug 11 16:06:50 MSK 2023
User: vat
Spectrometer: MAYP114033
Trigger mode: 0
Integration Time (sec): 5,000000E-1
Scans to average: 5
Electric dark correction enabled: true
Nonlinearity correction enabled: false
Boxcar width: 2
XAxis mode: Wavelengths
Number of Pixels in Spectrum: 2068
>>>>>Begin Spectral Data<<<<<
199,4	0,4
199,9	0,983
200,4	-3,187
200,8	-4,427
201,3	-5,947
201,8	-5,867
202,2	-5,627
202,7	-3,707
203,2	-5,227
203,6	-5,547
204,1	-4,987
204,6	-6,467
205	-6,107
205,5	-3,907
206	-4,307
206,4	-4,067
206,9	-6,107
207,4	-6,387
207,8	-6,547
208,3	-6,947
208,8	-7,707
209,2	-6,547
209,7	-8,547
210,2	-5,987
210,6	-8,147
211,1	-13,947
211,5	-12,907
212	-10,307
212,5	-13,627
212,9	-11,067
213,4	-9,627
213,9	-11,267
214,3	-12,987
214,8	-11,587
215,3	-13,067
215,7	-9,027
216,2	-5,347
216,7	-4,947
217,1	-9,067
217,6	-9,587
218,1	-9,467
218,5	-20,347
219	-17,107
219,5	-15,307
219,9	-14,347
220,4	-12,147
220,9	-2,747
221,3	-5,747
221,8	-5,867
222,3	-7,827
222,7	-12,787
223,2	-11,507
223,6	-14,507
224,1	-12,667
224,6	-13,307
225	-16,187
225,5	-18,507
226	-14,107
226,4	-18,547
226,9	-18,267
227,4	-10,187
227,8	-12,107
228,3	-15,187
228,8	-16,227
229,2	-12,587
229,7	-19,867
230,2	-17,747
230,6	-15,947
231,1	-13,347
231,5	-17,027
232	-15,307
232,5	-16,867
232,9	-21,387
233,4	-20,467
233,9	-20,067
234,3	-17,027
234,8	-10,987
235,3	-9,507
235,7	-7,267
236,2	-5,067
236,7	-5,747
237,1	-17,627
237,6	-15,387
238,1	-15,387
238,5	-16,707
239	-17,867
239,4	-12,947
239,9	-6,707
240,4	-9,387
240,8	-9,747
241,3	-9,347
241,8	-8,827
242,2	-11,267
242,7	-6,147
243,2	-2,627
243,6	-0,347
244,1	-0,907
244,6	-6,267
245	-11,147
245,5	-12,147
245,9	-15,707
246,4	-12,787
246,9	-11,307
247,3	-11,467
247,8	-10,547
248,3	-10,507
248,7	-18,907
249,2	-22,107
249,7	-23,067
250,1	-24,187
250,6	-23,107
251	-18,347
251,5	-12,187
252	-17,747
252,4	-20,827
252,9	-15,427
253,4	-12,307
253,8	-14,227
254,3	-2,707
254,8	-2,187
255,2	-6,427
255,7	-7,907
256,1	-12,227
256,6	-17,227
257,1	-15,147
257,5	-16,467
258	-17,707
258,5	-10,747
258,9	-10,667
259,4	-8,427
259,9	-12,867
260,3	-14,467
260,8	-18,467
261,2	-14,787
261,7	-12,867
262,2	-7,307
262,6	-2,907
263,1	3,253
263,6	-0,307
264	-2,907
264,5	-8,507
264,9	-9,227
265,4	-17,587
265,9	-15,707
266,3	-15,547
266,8	-9,387
267,3	-8,427
267,7	-8,707
268,2	-8,027
268,7	-3,907
269,1	-6,667
269,6	-11,547
270	-11,187
270,5	-13,827
271	-22,707
271,4	-24,347
271,9	-22,947
272,4	-20,827
272,8	-22,107
273,3	-18,907
273,7	-14,427
274,2	-5,067
274,7	-6,547
275,1	-8,787
275,6	-6,147
276,1	-8,387
276,5	-17,387
277	-17,587
277,4	-10,387
277,9	-18,147
278,4	-15,187
278,8	-15,587
279,3	-15,307
279,8	-18,587
280,2	-13,707
280,7	-13,947
281,1	-14,747
281,6	-11,947
282,1	-5,907
282,5	-6,107
283	-12,507
283,4	-10,627
283,9	-10,587
284,4	-18,187
284,8	-16,147
285,3	-10,947
285,8	-8,387
286,2	-8,907
286,7	-7,907
287,1	-14,467
287,6	-16,747
288,1	-17,627
288,5	-15,027
289	-16,667
289,5	-14,787
289,9	-6,907
290,4	-7,067
290,8	-8,307
291,3	-8,947
291,8	-4,907
292,2	-8,467
292,7	-7,707
293,1	-6,587
293,6	-4,587
294,1	-7,787
294,5	-15,947
295	-12,427
295,5	-13,147
295,9	-12,147
296,4	-10,587
296,8	-4,987
297,3	-10,987
297,8	-16,067
298,2	-21,827
298,7	-21,107
299,1	-22,947
299,6	-21,387
300,1	-15,907
300,5	-10,267
301	-11,267
301,5	-10,347
301,9	-10,147
302,4	-13,187
302,8	-16,467
303,3	-16,187
303,8	-18,467
304,2	-17,627
304,7	-15,267
305,1	-13,507
305,6	-13,747
306,1	-11,587
306,5	-12,627
307	-16,267
307,4	-13,107
307,9	-11,947
308,4	-6,147
308,8	-3,947
309,3	4,413
309,8	3,813
310,2	4,053
310,7	-4,747
311,1	-12,787
311,6	-12,307
312,1	-12,547
312,5	-15,227
313	-13,947
313,4	-8,187
313,9	-16,867
314,4	-14,387
314,8	-9,307
315,3	-8,827
315,7	-9,627
316,2	-6,947
316,7	-11,627
317,1	-16,427
317,6	-16,907
318	-12,747
318,5	-15,627
319	-17,187
319,4	-14,987
319,9	-10,947
320,3	-11,227
320,8	-4,427
321,3	-5,107
321,7	-5,067
322,2	-8,427
322,6	-8,827
323,1	-19,147
323,6	-12,147
324	-10,067
324,5	-15,787
324,9	-19,747
325,4	-8,027
325,9	-12,067
326,3	-7,427
326,8	-0,587
327,2	-1,587
327,7	-8,787
328,2	-8,347
328,6	-13,667
329,1	-13,267
329,5	-7,587
330	-6,467
330,5	-10,707
330,9	-10,827
331,4	-9,947
331,8	-10,827
332,3	-11,107
332,8	-10,947
333,2	-17,187
333,7	-19,747
334,1	-21,467
334,6	-19,867
335,1	-12,387
335,5	-5,427
336	-2,547
336,4	-6,107
336,9	-6,507
337,4	-7,027
337,8	-3,587
338,3	-4,267
338,7	2,293
339,2	6,173
339,7	8,733
340,1	4,533
340,6	3,053
341	4,893
341,5	2,013
342	-0,547
342,4	-2,267
342,9	-0,907
343,3	-5,587
343,8	-4,227
344,2	0,373
344,7	4,333
345,2	9,133
345,6	12,493
346,1	15,693
346,5	16,013
347	11,373
347,5	9,253
347,9	11,253
348,4	14,013
348,8	12,293
349,3	21,413
349,8	28,493
350,2	41,933
350,7	50,093
351,1	64,293
351,6	84,813
352	106,093
352,5	133,613
353	162,173
353,4	206,493
353,9	255,613
354,3	320,693
354,8	387,773
355,3	482,933
355,7	578,773
356,2	689,813
356,6	818,613
357,1	973,533
357,5	1149,253
358	1356,813
358,5	1597,893
358,9	1855,173
359,4	2148,493
359,8	2465,693
360,3	2840,173
360,8	3250,293
361,2	3724,293
361,7	4237,093
362,1	4806,533
362,6	5413,013
363	6061,733
363,5	6742,973
364	7451,813
364,4	8193,733
364,9	8937,413
365,3	9685,613
365,8	10384,533
366,3	11045,733
366,7	11632,613
367,2	12141,533
367,6	12544,733
368,1	12843,773
368,5	13031,013
369	13118,653
369,5	13095,133
369,9	12958,373
370,4	12743,733
370,8	12436,733
371,3	12048,133
371,7	11571,453
372,2	11051,293
372,7	10496,333
373,1	9908,533
373,6	9299,813
374	8696,733
374,5	8100,093
374,9	7506,173
375,4	6955,613
375,9	6411,213
376,3	5902,813
376,8	5420,613
377,2	4974,813
377,7	4537,093
378,2	4152,213
378,6	3782,773
379,1	3442,613
379,5	3134,213
380	2864,053
380,4	2608,173
380,9	2388,373
381,4	2190,813
381,8	2011,213
382,3	1847,773
382,7	1694,493
383,2	1568,573
383,6	1453,533
384,1	1341,293
384,6	1235,893
385	1142,613
385,5	1060,493
385,9	977,893
386,4	907,653
386,8	840,493
387,3	786,453
387,7	724,013
388,2	665,413
388,7	616,893
389,1	566,093
389,6	520,493
390	471,653
390,5	433,693
390,9	396,213
391,4	361,213
391,9	326,973
392,3	301,453
392,8	276,573
393,2	256,213
393,7	243,533
394,1	226,293
394,6	208,333
395,1	198,453
395,5	181,973
396	169,573
396,4	151,493
396,9	146,493
397,3	136,013
397,8	128,053
398,2	114,733
398,7	114,533
399,2	102,893
399,6	96,453
400,1	89,933
400,5	82,093
401	73,773
401,4	68,573
401,9	58,653
402,4	48,773
402,8	49,493
403,3	45,133
403,7	38,733
404,2	38,333
404,6	35,173
405,1	33,853
405,5	41,093
406	39,533
406,5	35,653
406,9	36,733
407,4	34,973
407,8	26,853
408,3	31,653
408,7	30,973
409,2	30,133
409,6	24,333
410,1	26,733
410,6	24,773
411	27,133
411,5	28,853
411,9	38,453
412,4	37,933
412,8	36,933
413,3	37,573
413,7	43,973
414,2	36,733
414,7	41,573
415,1	42,413
415,6	38,893
416	41,133
416,5	43,613
416,9	39,413
417,4	39,013
417,8	41,013
418,3	34,293
418,8	38,693
419,2	40,413
419,7	46,013
420,1	51,733
420,6	51,773
421	51,933
421,5	48,493
421,9	52,293
422,4	55,173
422,8	61,373
423,3	65,773
423,8	73,813
424,2	75,813
424,7	80,333
425,1	83,133
425,6	83,093
426	86,573
426,5	85,133
426,9	86,933
427,4	89,133
427,9	100,773
428,3	100,333
428,8	104,053
429,2	108,893
429,7	118,813
430,1	120,333
430,6	125,413
431	129,613
431,5	136,773
431,9	139,613
432,4	146,733
432,8	163,333
433,3	173,653
433,8	178,533
434,2	186,213
434,7	190,093
435,1	191,693
435,6	204,893
436	219,733
436,5	225,413
436,9	232,693
437,4	248,093
437,8	259,213
438,3	264,253
438,8	276,373
439,2	291,213
439,7	306,093
440,1	309,973
440,6	319,853
441	338,373
441,5	349,453
441,9	351,733
442,4	364,133
442,8	379,493
443,3	391,253
443,7	404,173
444,2	424,133
444,7	441,853
445,1	463,733
445,6	473,173
446	490,333
446,5	507,493
446,9	521,053
447,4	528,253
447,8	544,093
448,3	558,893
448,7	571,773
449,2	588,653
449,6	613,413
450,1	635,093
450,6	654,213
451	670,093
451,5	693,093
451,9	702,453
452,4	717,493
452,8	733,613
453,3	753,253
453,7	774,373
454,2	798,333
454,6	824,333
455,1	846,453
455,5	873,453
456	881,773
456,4	895,373
456,9	912,853
457,3	937,973
457,8	955,493
458,3	983,013
458,7	1006,693
459,2	1025,773
459,6	1046,653
460,1	1062,653
460,5	1090,093
461	1114,693
461,4	1132,853
461,9	1158,853
462,3	1189,133
462,8	1210,853
463,2	1243,413
463,7	1263,653
464,1	1284,333
464,6	1303,333
465	1319,413
465,5	1336,693
466	1358,733
466,4	1372,173
466,9	1391,693
467,3	1415,213
467,8	1432,173
468,2	1465,893
468,7	1482,733
469,1	1492,533
469,6	1505,533
470	1515,013
470,5	1520,093
470,9	1539,613
471,4	1559,773
471,8	1581,373
472,3	1599,173
472,7	1614,933
473,2	1634,773
473,6	1645,893
474,1	1650,973
474,5	1661,693
475	1670,813
475,4	1676,173
475,9	1692,573
476,4	1710,613
476,8	1719,533
477,3	1733,533
477,7	1746,213
478,2	1753,973
478,6	1746,173
479,1	1750,373
479,5	1754,373
480	1749,253
480,4	1755,853
480,9	1767,613
481,3	1775,933
481,8	1780,053
482,2	1788,853
482,7	1779,373
483,1	1774,813
483,6	1770,133
484	1769,053
484,5	1767,933
484,9	1778,333
485,4	1783,893
485,8	1789,373
486,3	1782,453
486,7	1779,573
487,2	1772,813
487,6	1765,493
488,1	1755,693
488,5	1753,493
489	1747,933
489,4	1739,533
489,9	1735,333
490,4	1734,093
490,8	1732,413
491,3	1725,853
491,7	1718,693
492,2	1708,453
492,6	1690,373
493,1	1679,973
493,5	1670,253
494	1662,893
494,4	1650,493
494,9	1647,453
495,3	1636,293
495,8	1624,093
496,2	1615,333
496,7	1619,933
497,1	1608,213
497,6	1601,773
498	1592,853
498,5	1577,413
498,9	1560,493
499,4	1551,333
499,8	1540,533
500,3	1525,973
500,7	1518,013
501,2	1507,253
501,6	1496,733
502,1	1478,933
502,5	1472,253
503	1461,373
503,4	1448,173
503,9	1437,653
504,3	1429,093
504,8	1415,853
505,2	1403,253
505,7	1394,173
506,1	1387,533
506,6	1373,253
507	1355,173
507,5	1342,613
507,9	1331,453
508,4	1314,773
508,8	1302,813
509,3	1297,733
509,7	1287,693
510,2	1277,813
510,6	1261,653
511,1	1252,693
511,5	1242,973
512	1227,613
512,4	1209,493
512,9	1201,813
513,3	1194,053
513,8	1182,053
514,2	1169,973
514,7	1158,413
515,1	1145,533
515,6	1125,853
516	1113,013
516,5	1106,333
516,9	1094,293
517,4	1080,733
517,8	1065,653
518,3	1053,173
518,7	1042,133
519,2	1030,973
519,6	1024,813
520,1	1023,053
520,5	1014,653
521	1004,853
521,4	989,333
521,9	972,853
522,3	963,693
522,8	948,653
523,2	937,453
523,7	933,533
524,1	926,133
524,6	906,253
525	905,413
525,5	890,533
525,9	879,053
526,4	874,373
526,8	867,773
527,3	850,653
527,7	841,373
528,2	833,453
528,6	814,813
529,1	813,293
529,5	811,813
530	807,893
530,4	802,453
530,9	791,213
531,3	776,173
531,8	766,173
532,2	752,613
532,6	742,453
533,1	744,733
533,5	738,173
534	724,893
534,4	720,813
534,9	710,933
535,3	698,853
535,8	689,613
536,2	681,933
536,7	670,893
537,1	659,573
537,6	657,253
538	654,733
538,5	653,893
538,9	653,693
539,4	647,253
539,8	638,893
540,3	631,253
540,7	615,133
541,2	602,573
541,6	598,693
542,1	584,973
542,5	576,293
543	573,493
543,4	563,653
543,9	558,013
544,3	553,773
544,8	545,213
545,2	533,293
545,7	530,213
546,1	528,253
546,5	527,053
547	521,893
547,4	521,933
547,9	516,813
548,3	508,293
548,8	499,493
549,2	498,213
549,7	496,773
550,1	489,893
550,6	483,893
551	476,373
551,5	468,853
551,9	458,533
552,4	454,773
552,8	446,333
553,3	448,613
553,7	448,333
554,2	445,013
554,6	438,453
555,1	440,453
555,5	435,493
555,9	431,933
556,4	421,133
556,8	427,493
557,3	420,453
557,7	416,333
558,2	410,173
558,6	413,173
559,1	402,053
559,5	401,173
560	398,813
560,4	392,333
560,9	391,653
561,3	390,893
561,8	387,613
562,2	379,293
562,7	380,333
563,1	375,933
563,6	374,613
564	367,973
564,4	364,213
564,9	359,053
565,3	357,973
565,8	349,093
566,2	349,013
566,7	347,333
567,1	340,453
567,6	331,293
568	330,573
568,5	326,453
568,9	324,613
569,4	318,413
569,8	317,653
570,3	314,173
570,7	307,733
571,1	304,693
571,6	308,493
572	305,613
572,5	309,813
572,9	304,813
573,4	302,773
573,8	296,493
574,3	300,933
574,7	288,733
575,2	290,213
575,6	284,453
576,1	283,093
576,5	275,173
576,9	279,413
577,4	271,613
577,8	270,453
578,3	266,053
578,7	263,693
579,2	257,773
579,6	263,653
580,1	261,293
580,5	263,253
581	257,173
581,4	256,813
581,9	251,013
582,3	247,933
582,7	239,893
583,2	240,053
583,6	235,933
584,1	233,693
584,5	235,413
585	236,213
585,4	235,813
585,9	239,013
586,3	239,493
586,8	235,693
587,2	232,173
587,6	226,573
588,1	218,733
588,5	215,973
589	210,533
589,4	211,333
589,9	211,333
590,3	216,053
590,8	213,573
591,2	213,733
591,7	214,253
592,1	218,413
592,5	212,093
593	209,733
593,4	206,853
593,9	197,933
594,3	191,813
594,8	192,013
595,2	191,333
595,7	193,013
596,1	201,493
596,6	198,773
597	195,453
597,4	191,093
597,9	194,293
598,3	193,093
598,8	193,093
599,2	196,973
599,7	200,373
600,1	192,013
600,6	184,053
601	178,773
601,4	174,293
601,9	171,373
602,3	169,813
602,8	170,973
603,2	172,733
603,7	173,133
604,1	171,013
604,6	171,333
605	173,093
605,4	172,173
605,9	162,013
606,3	162,933
606,8	160,293
607,2	156,173
607,7	157,333
608,1	163,733
608,6	163,493
609	166,693
609,4	164,573
609,9	163,013
610,3	158,973
610,8	160,013
611,2	149,013
611,7	151,853
612,1	146,453
612,6	143,493
613	143,333
613,4	153,453
613,9	153,333
614,3	154,253
614,8	155,093
615,2	153,173
615,7	147,253
616,1	138,613
616,6	136,653
617	132,693
617,4	128,413
617,9	133,053
618,3	141,093
618,8	140,773
619,2	144,453
619,7	148,453
620,1	139,013
620,5	131,933
621	136,413
621,4	132,573
621,9	125,333
622,3	128,653
622,8	133,253
623,2	129,693
623,6	136,653
624,1	140,613
624,5	136,613
625	127,893
625,4	122,173
625,9	115,813
626,3	115,573
626,8	117,293
627,2	118,333
627,6	123,973
628,1	121,733
628,5	114,493
629	114,173
629,4	115,733
629,9	112,413
630,3	110,933
630,7	108,333
631,2	112,173
631,6	113,413
632,1	113,333
632,5	119,693
633	125,933
633,4	122,733
633,8	120,493
634,3	119,853
634,7	114,773
635,2	112,333
635,6	106,693
636,1	111,333
636,5	114,373
636,9	112,853
637,4	110,293
637,8	110,533
638,3	102,373
638,7	94,733
639,2	91,613
639,6	87,333
640	85,133
640,5	88,813
640,9	88,013
641,4	82,293
641,8	85,933
642,2	90,213
642,7	88,733
643,1	94,133
643,6	98,093
644	97,493
644,5	98,453
644,9	99,573
645,3	95,773
645,8	98,573
646,2	102,533
646,7	102,493
647,1	101,293
647,6	102,453
648	99,733
648,4	95,133
648,9	94,693
649,3	88,853
649,8	89,213
650,2	90,493
650,6	85,493
651,1	86,133
651,5	84,813
652	83,013
652,4	86,453
652,9	88,053
653,3	87,733
653,7	94,013
654,2	92,973
654,6	92,533
655,1	94,093
655,5	90,493
655,9	86,373
656,4	85,773
656,8	80,013
657,3	81,013
657,7	82,733
658,2	83,653
658,6	83,653
659	87,373
659,5	82,493
659,9	73,973
660,4	75,253
660,8	79,133
661,2	74,613
661,7	78,453
662,1	83,253
662,6	83,093
663	74,893
663,4	75,933
663,9	68,773
664,3	66,053
664,8	63,253
665,2	65,373
665,6	69,213
666,1	75,733
666,5	78,093
667	80,813
667,4	72,933
667,9	71,613
668,3	69,573
668,7	70,213
669,2	68,013
669,6	72,573
670,1	69,853
670,5	70,093
670,9	64,973
671,4	63,013
671,8	70,653
672,3	73,613
672,7	76,213
673,1	80,693
673,6	75,493
674	71,693
674,5	65,253
674,9	58,173
675,3	58,413
675,8	62,013
676,2	61,173
676,7	60,933
677,1	62,093
677,5	54,373
678	52,773
678,4	54,253
678,9	54,333
679,3	57,773
679,7	59,613
680,2	61,933
680,6	55,933
681,1	54,653
681,5	54,813
681,9	57,533
682,4	57,493
682,8	61,973
683,3	67,613
683,7	67,453
684,1	65,053
684,6	64,933
685	66,613
685,5	64,693
685,9	65,693
686,3	65,613
686,8	59,333
687,2	53,413
687,7	53,653
688,1	52,013
688,5	55,453
689	61,253
689,4	57,173
689,9	58,373
690,3	53,533
690,7	44,653
691,2	43,973
691,6	49,493
692	45,453
692,5	50,653
692,9	56,773
693,4	57,493
693,8	60,773
694,2	63,293
694,7	59,733
695,1	59,533
695,6	56,093
696	51,373
696,4	53,093
696,9	60,813
697,3	63,173
697,8	66,813
698,2	68,853
698,6	66,573
699,1	58,133
699,5	59,413
699,9	58,373
700,4	55,213
700,8	52,733
701,3	50,093
701,7	47,013
702,1	43,933
702,6	45,893
703	49,573
703,5	53,333
703,9	54,933
704,3	53,933
704,8	55,693
705,2	53,373
705,6	57,733
706,1	52,773
706,5	51,413
707	53,973
707,4	49,493
707,8	40,613
708,3	44,813
708,7	47,653
709,2	40,533
709,6	43,453
710	44,773
710,5	39,973
710,9	33,373
711,3	31,533
711,8	28,693
712,2	33,133
712,7	37,253
713,1	47,413
713,5	52,693
714	53,053
714,4	53,373
714,8	53,773
715,3	47,933
715,7	49,853
716,2	46,413
716,6	41,933
717	42,213
717,5	44,013
717,9	39,653
718,3	44,773
718,8	51,173
719,2	47,093
719,7	46,013
720,1	45,933
720,5	43,013
721	38,933
721,4	39,333
721,8	41,253
722,3	41,453
722,7	40,213
723,2	38,333
723,6	37,133
724	34,333
724,5	33,413
724,9	43,853
725,3	38,693
725,8	42,013
726,2	42,813
726,7	41,773
727,1	40,533
727,5	44,693
728	38,893
728,4	37,693
728,8	37,173
729,3	29,093
729,7	27,373
730,1	27,293
730,6	29,173
731	30,773
731,5	30,213
731,9	32,933
732,3	37,813
732,8	32,013
733,2	31,173
733,6	36,173
734,1	36,013
734,5	36,533
734,9	40,853
735,4	41,853
735,8	36,573
736,3	41,573
736,7	38,973
737,1	44,013
737,6	46,533
738	48,893
738,4	45,093
738,9	47,933
739,3	44,613
739,7	41,853
740,2	37,213
740,6	34,133
741,1	30,453
741,5	28,413
741,9	31,573
742,4	33,293
742,8	31,933
743,2	33,053
743,7	29,933
744,1	30,693
744,5	30,133
745	35,053
745,4	38,853
745,8	44,373
746,3	38,613
746,7	37,733
747,2	31,093
747,6	28,373
748	28,093
748,5	32,813
748,9	32,933
749,3	39,213
749,8	32,773
750,2	27,973
750,6	22,293
751,1	22,093
751,5	22,413
751,9	30,773
752,4	34,413
752,8	34,693
753,3	36,333
753,7	31,293
754,1	25,973
754,6	27,813
755	27,133
755,4	29,533
755,9	31,773
756,3	28,453
756,7	28,173
757,2	26,573
757,6	25,253
758	26,333
758,5	29,493
758,9	26,973
759,3	31,693
759,8	33,213
760,2	31,413
760,6	31,733
761,1	32,413
761,5	29,133
761,9	31,093
762,4	27,133
762,8	27,213
763,3	27,133
763,7	27,813
764,1	25,373
764,6	30,253
765	31,693
765,4	26,533
765,9	24,573
766,3	21,093
766,7	16,893
767,2	19,933
767,6	19,893
768	22,013
768,5	20,493
768,9	20,773
769,3	17,733
769,8	15,893
770,2	12,893
770,6	14,013
771,1	18,173
771,5	17,653
771,9	27,573
772,4	29,493
772,8	33,093
773,2	27,173
773,7	25,493
774,1	22,493
774,5	19,253
775	16,213
775,4	22,813
775,8	22,693
776,3	18,373
776,7	22,973
777,1	24,613
777,6	24,013
778	21,413
778,4	24,653
778,9	22,613
779,3	18,533
779,7	16,253
780,2	18,653
780,6	15,493
781	16,853
781,5	16,453
781,9	15,853
782,3	14,773
782,8	18,813
783,2	20,693
783,6	24,213
784,1	25,693
784,5	20,773
784,9	16,853
785,4	15,853
785,8	17,733
786,2	8,293
786,7	13,253
787,1	9,453
787,5	3,253
788	0,533
788,4	6,013
788,8	3,093
789,3	11,613
789,7	16,093
790,1	13,893
790,6	18,733
791	18,173
791,4	17,853
791,9	13,533
792,3	18,533
792,7	15,853
793,2	18,893
793,6	9,693
794	13,053
794,5	9,773
794,9	11,933
795,3	7,413
795,8	16,373
796,2	13,813
796,6	10,133
797,1	5,773
797,5	7,293
797,9	1,213
798,4	0,733
798,8	6,933
799,2	6,573
799,7	6,053
800,1	6,973
800,5	6,533
801	-2,227
801,4	-2,467
801,8	0,573
802,2	3,853
802,7	7,693
803,1	11,813
803,5	11,093
804	16,493
804,4	16,453
804,8	8,613
805,3	9,453
805,7	10,173
806,1	5,573
806,6	2,973
807	4,693
807,4	4,653
807,9	3,933
808,3	1,053
808,7	-1,227
809,2	4,493
809,6	3,213
810	2,133
810,4	1,813
810,9	1,573
811,3	-1,987
811,7	-0,427
812,2	3,253
812,6	-3,267
813	0,493
813,5	5,453
813,9	5,453
814,3	6,293
814,8	14,853
815,2	6,693
815,6	-5,187
816,1	-2,907
816,5	-6,387
816,9	-6,507
817,3	0,453
817,8	6,293
818,2	0,533
818,6	1,413
819,1	-4,907
819,5	-4,987
819,9	-6,627
820,4	-1,707
820,8	-4,387
821,2	1,893
821,7	7,853
822,1	9,613
822,5	5,213
822,9	6,693
823,4	9,853
823,8	4,933
824,2	8,613
824,7	6,053
825,1	10,693
825,5	5,493
826	2,973
826,4	-3,107
826,8	-0,187
827,3	-4,667
827,7	-8,147
828,1	-6,307
828,5	-6,947
829	-6,467
829,4	-6,387
829,8	-3,387
830,3	-4,227
830,7	5,333
831,1	2,213
831,6	6,293
832	8,293
832,4	5,053
832,8	1,213
833,3	4,173
833,7	2,773
834,1	0,573
834,6	0,453
835	3,693
835,4	7,533
835,8	9,973
836,3	8,173
836,7	9,573
837,1	0,573
837,6	-2,267
838	-12,547
838,4	-11,427
838,9	-14,947
839,3	-11,907
839,7	-9,707
840,1	0,293
840,6	-1,827
841	5,573
841,4	7,853
841,9	9,213
842,3	0,933
842,7	2,653
843,1	3,293
843,6	-6,227
844	-9,507
844,4	-5,947
844,9	-3,147
845,3	-4,027
845,7	6,373
846,2	2,653
846,6	9,133
847	5,053
847,4	-2,827
847,9	-1,427
848,3	-4,107
848,7	-9,147
849,2	-5,907
849,6	-4,987
850	-7,827
850,4	-3,747
850,9	-10,387
851,3	-11,307
851,7	-13,387
852,2	-17,387
852,6	-15,427
853	-9,827
853,4	-6,347
853,9	-2,067
854,3	-0,867
854,7	-2,987
855,2	-4,427
855,6	-7,427
856	-7,667
856,4	-5,187
856,9	-4,547
857,3	-7,387
857,7	-6,107
858,2	-3,187
858,6	-4,107
859	-0,307
859,4	10,293
859,9	11,293
860,3	10,573
860,7	10,813
861,1	5,253
861,6	-1,627
862	-9,307
862,4	-7,627
862,9	-10,947
863,3	-9,787
863,7	-11,587
864,1	-7,267
864,6	-11,347
865	-5,587
865,4	-7,987
865,9	-6,667
866,3	-9,747
866,7	-6,867
867,1	-8,987
867,6	-8,827
868	-7,067
868,4	1,693
868,8	1,093
869,3	0,573
869,7	4,893
870,1	-0,987
870,6	-8,627
871	-10,627
871,4	-32,067
871,8	-36,387
872,3	-34,547
872,7	-33,467
873,1	-28,507
873,5	-4,907
874	-1,667
874,4	7,173
874,8	0,773
875,3	-2,707
875,7	-1,347
876,1	-1,107
876,5	-9,387
877	1,733
877,4	-2,307
877,8	-8,067
878,2	-8,547
878,7	-9,667
879,1	-13,067
879,5	-9,667
879,9	-9,627
880,4	-6,787
880,8	-7,267
881,2	-5,267
881,7	-10,907
882,1	-8,667
882,5	-13,107
882,9	-10,307
883,4	-14,027
883,8	-10,507
884,2	-10,387
884,6	-9,947
885,1	-7,747
885,5	-4,907
885,9	-6,147
886,3	-6,787
886,8	-9,387
887,2	-12,187
887,6	-13,067
888	-14,427
888,5	-12,787
888,9	-7,667
889,3	-7,667
889,8	-6,467
890,2	-0,907
890,6	-2,307
891	-7,947
891,5	-8,027
891,9	-8,587
892,3	-10,347
892,7	-11,347
893,2	-10,027
893,6	-9,787
894	-10,707
894,4	-9,907
894,9	-9,467
895,3	-4,827
895,7	-3,427
896,1	-1,387
896,6	-1,467
897	-1,947
897,4	-3,747
897,8	-3,987
898,3	-5,787
898,7	-1,707
899,1	-1,187
899,5	0,693
900	-5,267
900,4	-7,187
900,8	-12,507
901,2	-10,547
901,7	-15,667
902,1	-12,387
902,5	-13,787
902,9	-14,867
903,4	-14,347
903,8	-12,227
904,2	-9,507
904,6	-13,707
905,1	-12,707
905,5	-16,307
905,9	-18,107
906,3	-16,547
906,8	-8,987
907,2	-9,027
907,6	-10,027
908	-11,267
908,5	-16,587
908,9	-17,267
909,3	-21,467
909,7	-18,307
910,2	-15,627
910,6	-11,627
911	-13,747
911,4	-12,147
911,9	-15,147
912,3	-9,787
912,7	-15,747
913,1	-15,307
913,6	-12,587
914	-13,747
914,4	-20,427
914,8	-17,827
915,3	-14,467
915,7	-13,267
916,1	-11,707
916,5	-8,507
916,9	-1,747
917,4	0,293
917,8	-0,347
918,2	-0,027
918,6	-1,067
919,1	-4,427
919,5	-10,427
919,9	-7,707
920,3	-10,147
920,8	-9,147
921,2	-17,467
921,6	-17,907
922	-22,547
922,5	-16,387
922,9	-21,907
923,3	-11,987
923,7	-10,907
924,2	-7,747
924,6	-8,627
925	-7,747
925,4	-9,347
925,8	-5,907
926,3	-8,907
926,7	-16,947
927,1	-8,867
927,5	-8,467
928	-13,907
928,4	-13,747
928,8	-3,387
929,2	-13,347
929,7	-13,587
930,1	-5,787
930,5	-1,467
930,9	-2,467
931,3	-0,427
931,8	-10,347
932,2	-13,627
932,6	-18,707
933	-20,107
933,5	-18,627
933,9	-6,827
934,3	-9,667
934,7	-5,667
935,2	-4,147
935,6	-2,667
936	-10,387
936,4	-14,467
936,8	-16,227
937,3	-24,227
937,7	-23,467
938,1	-20,667
938,5	-17,347
939	-21,707
939,4	-16,267
939,8	-12,827
940,2	-15,667
940,6	-17,747
941,1	-14,187
941,5	-17,587
941,9	-24,347
942,3	-18,987
942,8	-19,267
943,2	-16,867
943,6	-16,707
944	-13,267
944,4	-17,987
944,9	-15,147
945,3	-17,267
945,7	-14,507
946,1	-19,467
946,6	-19,427
947	-18,667
947,4	-20,347
947,8	-18,907
948,2	-14,147
948,7	-13,587
949,1	-10,307
949,5	-9,427
949,9	-10,587
950,3	-15,547
950,8	-12,987
951,2	-15,907
951,6	-16,427
952	-15,627
952,5	-14,107
952,9	-13,667
953,3	-17,307
953,7	-10,987
954,1	-11,747
954,6	-5,987
955	-3,547
955,4	0,013
955,8	-2,067
956,2	-4,267
956,7	-7,227
957,1	-9,867
957,5	-10,707
957,9	-11,067
958,3	-7,347
958,8	-3,787
959,2	-5,067
959,6	-4,227
960	-5,627
960,5	-6,267
960,9	-14,347
961,3	-11,947
961,7	-7,347
962,1	-11,227
962,6	-12,227
963	-3,227
963,4	-2,267
963,8	-6,147
964,2	-11,907
964,7	-10,587
965,1	-18,467
965,5	-19,427
965,9	-19,107
966,3	-8,027
966,8	-8,707
967,2	-4,787
967,6	-6,107
968	-10,107
968,4	-12,307
968,9	-15,987
969,3	-13,467
969,7	-14,467
970,1	-13,827
970,5	-16,747
971	-11,107
971,4	-13,827
971,8	-12,987
972,2	-6,267
972,6	-6,827
973,1	-15,707
973,5	-17,987
973,9	-21,387
974,3	-24,587
974,7	-22,307
975,2	-19,507
975,6	-17,187
976	-12,387
976,4	-17,707
976,8	-11,987
977,3	-7,507
977,7	-4,867
978,1	-5,667
978,5	-0,307
978,9	-8,987
979,4	-5,027
979,8	-5,387
980,2	-4,627
980,6	-4,427
981	3,613
981,5	0,493
981,9	-5,827
982,3	-6,867
982,7	-10,787
983,1	-16,547
983,6	-16,907
984	-11,107
984,4	-9,947
984,8	-7,547
985,2	-3,267
985,6	-5,067
986,1	-9,987
986,5	-12,427
986,9	-12,627
987,3	-14,907
987,7	-17,507
988,2	-19,027
988,6	-15,467
989	-17,147
989,4	-25,187
989,8	-23,467
990,3	-19,227
990,7	-22,547
991,1	-16,307
991,5	-5,627
991,9	-5,427
992,3	-7,667
992,8	-5,827
993,2	-7,067
993,6	-5,587
994	-6,587
994,4	-5,227
994,9	-3,827
995,3	-4,667
995,7	-13,867
996,1	-11,547
996,5	-7,987
996,9	-14,027
997,4	-18,347
997,8	-16,307
998,2	-16,587
998,6	-23,067
999	-16,347
999,5	-18,107
999,9	-20,467
1000,3	-21,547
1000,7	-23,187
1001,1	-25,067
1001,5	-20,867
1002	-21,187
1002,4	-22,707
1002,8	-21,547
1003,2	-22,387
1003,6	-18,987
1004	-7,747
1004,5	-6,907
1004,9	-1,227
1005,3	-11,547
1005,7	-18,827
1006,1	-28,147
1006,6	-29,507
1007	-34,867
1007,4	-24,547
1007,8	-17,867
1008,2	-13,467
1008,6	-8,787
1009,1	-9,387
1009,5	-7,867
1009,9	-13,107
1010,3	-14,107
1010,7	-13,027
1011,1	-8,627
1011,6	-3,867
1012	-2,107
1012,4	-2,187
1012,8	-5,507
1013,2	-7,587
1013,6	-19,667
1014,1	-18,427
1014,5	-14,987
1014,9	-14,747
1015,3	-14,267
1015,7	-10,187
1016,1	-16,347
1016,6	-23,347
1017	-22,907
1017,4	-19,347
1017,8	-20,187
1018,2	-7,707
1018,6	-2,947
1019,1	-2,947
1019,5	-0,667
1019,9	7,533
1020,3	-2,587
1020,7	-5,587
1021,1	-4,627
1021,6	-9,187
1022	-14,987
1022,4	-9,027
1022,8	-8,467
1023,2	-8,787
1023,6	-9,787
1024,1	-14,147
1024,5	-18,027
1024,9	-18,587
1025,3	-19,467
1025,7	-19,947
1026,1	-16,467
1026,6	-16,067
1027	-13,507
1027,4	-13,587
1027,8	-8,867
1028,2	-10,387
1028,6	-5,867
1029	-9,827
1029,5	-13,867
1029,9	-15,787
1030,3	-12,627
1030,7	-18,987
1031,1	-15,587
1031,5	-17,307
1032	-22,587
1032,4	-22,947
1032,8	-22,347
1033,2	-24,867
1033,6	-22,547
1034	-15,467
1034,4	-16,947
1034,9	-16,627
1035,3	-15,507
1035,7	-15,627
1036,1	-21,267
1036,5	-20,867
1036,9	-14,627
1037,4	-16,547
1037,8	-11,027
1038,2	-5,187
1038,6	-4,987
1039	-9,787
1039,4	-6,067
1039,8	-11,187
1040,3	-14,827
1040,7	-10,947
1041,1	-12,987
1041,5	-13,307
1041,9	-12,107
1042,3	-17,427
1042,7	-22,587
1043,2	-19,547
1043,6	-21,267
1044	-22,467
1044,4	-15,867
1044,8	-16,947
1045,2	-19,547
1045,6	-16,867
1046,1	-10,107
1046,5	-10,467
1046,9	-14,707
1047,3	-12,987
1047,7	-13,107
1048,1	-22,347
1048,5	-27,907
1049	-26,187
1049,4	-23,267
1049,8	-24,787
1050,2	-13,867
1050,6	-3,867
1051	0,213
1051,4	-2,387
1051,9	-5,747
1052,3	-13,747
1052,7	-20,467
1053,1	-18,587
1053,5	-23,427
1053,9	-19,267
1054,3	-22,907
1054,8	-23,187
1055,2	-21,427
1055,6	-21,827
1056	-19,867
1056,4	-12,387
1056,8	-8,907
1057,2	-9,627
1057,6	-4,147
1058,1	-10,587
1058,5	-15,147
1058,9	-15,707
1059,3	-18,347
1059,7	-16,867
1060,1	-14,667
1060,5	-12,947
1061	-12,027
1061,4	-12,587
1061,8	-12,507
1062,2	-9,987
1062,6	-8,187
1063	-14,707
1063,4	-12,627
1063,8	-16,587
1064,3	-15,627
1064,7	-17,067
1065,1	-13,387
1065,5	-12,147
1065,9	-10,147
1066,3	-17,187
1066,7	-19,787
1067,1	-21,187
1067,6	-23,067
1068	-22,347
1068,4	-16,707
1068,8	-17,067
1069,2	-14,627
1069,6	-18,507
1070	-17,787
1070,4	-22,547
1070,9	-28,787
1071,3	-30,187
1071,7	-27,027
1072,1	-34,547
1072,5	-32,987
1072,9	-27,467
1073,3	-29,347
1073,7	-26,987
1074,2	-25,147
1074,6	-21,987
1075	-19,987
1075,4	-12,627
1075,8	-17,427
1076,2	-17,347
1076,6	-15,587
1077	-15,827
1077,5	-24,987
1077,9	-23,987
1078,3	-22,747
1078,7	-25,027
1079,1	-23,867
1079,5	-22,067
1079,9	-21,427
1080,3	-21,587
1080,7	-21,787
1081,2	-24,467
1081,6	-18,187
1082	-16,067
1082,4	-11,587
1082,8	-4,147
1083,2	1,653
1083,6	-2,067
1084	2,013
1084,5	-1,787
1084,9	-6,227
1085,3	-9,947
1085,7	-8,267
1086,1	-13,467
1086,5	-15,307
1086,9	-22,067
1087,3	-22,547
1087,7	-21,227
1088,2	-21,547
1088,6	-19,947
1089	-17,027
1089,4	-20,347
1089,8	-23,507
1090,2	-24,987
1090,6	-17,707
1091	-15,867
1091,4	-7,907
1091,9	-5,187
1092,3	-4,747
1092,7	-8,667
1093,1	-8,267
1093,5	-12,307
1093,9	-14,507
1094,3	-9,707
1094,7	-11,147
1095,1	-9,147
1095,5	-9,547
1096	-8,667
1096,4	-11,107
1096,8	-13,347
1097,2	-12,427
1097,6	-11,747
1098	-10,467
1098,4	-9,907
1098,8	-1,107
1099,2	-7,867
1099,6	-5,347
1100,1	-4,507
1100,5	-2,387
1100,9	-11,147
1101,3	-6,467
1101,7	-10,267
1102,1	-11,547
1102,5	-13,427
1102,9	-12,787
1103,3	-17,467
1103,7	-14,747
1104,2	-19,227
1104,6	-20,347
1105	-20,347
1105,4	-17,587
1105,8	-15,307
1106,2	-10,067
1106,6	-7,947
1107	-3,147
1107,4	-0,227
1107,8	-0,417
1108,3	0,067
