Data from Subt2_00059.txt Node
Date: Fri Aug 11 16:19:15 MSK 2023
User: vat
Spectrometer: MAYP114033
Trigger mode: 0
Integration Time (sec): 5,000000E-1
Scans to average: 5
Electric dark correction enabled: true
Nonlinearity correction enabled: false
Boxcar width: 2
XAxis mode: Wavelengths
Number of Pixels in Spectrum: 2068
>>>>>Begin Spectral Data<<<<<
199,4	-1
199,9	-0,65
200,4	-4,6
200,8	-6,72
201,3	-13,2
201,8	-16,36
202,2	-16,76
202,7	-15,56
203,2	-17,92
203,6	-15,6
204,1	-21,6
204,6	-27,56
205	-30,2
205,5	-33,12
206	-30,76
206,4	-24,44
206,9	-20,96
207,4	-22,48
207,8	-18,44
208,3	-16,16
208,8	-15,8
209,2	-17,36
209,7	-19,04
210,2	-17,36
210,6	-26,84
211,1	-32,92
211,5	-31,8
212	-28,72
212,5	-33,16
212,9	-30,52
213,4	-30,6
213,9	-35,48
214,3	-33,44
214,8	-32,16
215,3	-30,08
215,7	-28
216,2	-19,04
216,7	-26,32
217,1	-27,32
217,6	-29,44
218,1	-33,48
218,5	-40,88
219	-36,64
219,5	-34,8
219,9	-32,28
220,4	-28,04
220,9	-27,56
221,3	-25,24
221,8	-23,84
222,3	-31,48
222,7	-32,6
223,2	-30,56
223,6	-32,88
224,1	-37,76
224,6	-33,08
225	-33,28
225,5	-32,6
226	-31,6
226,4	-31,92
226,9	-34,28
227,4	-29,56
227,8	-30,32
228,3	-34,32
228,8	-32,92
229,2	-32,12
229,7	-38,88
230,2	-38,04
230,6	-36,56
231,1	-39,52
231,5	-36,64
232	-32,92
232,5	-32,32
232,9	-37,4
233,4	-33,8
233,9	-35,16
234,3	-37,32
234,8	-35,24
235,3	-29,76
235,7	-29,6
236,2	-28,96
236,7	-32,44
237,1	-46,16
237,6	-45,64
238,1	-47,92
238,5	-49,72
239	-43,64
239,4	-37,92
239,9	-32,76
240,4	-28,84
240,8	-27
241,3	-28,32
241,8	-22,88
242,2	-22,2
242,7	-20,12
243,2	-22,32
243,6	-20,12
244,1	-24,84
244,6	-28,08
245	-28,24
245,5	-29,24
245,9	-31,24
246,4	-27,32
246,9	-29,6
247,3	-39,44
247,8	-38,88
248,3	-38,16
248,7	-43,24
249,2	-47,36
249,7	-40,64
250,1	-39,92
250,6	-44,56
251	-41,24
251,5	-36,08
252	-41,6
252,4	-44,72
252,9	-39,6
253,4	-41
253,8	-41,24
254,3	-34,48
254,8	-31
255,2	-30,52
255,7	-28
256,1	-29,8
256,6	-34,6
257,1	-37,04
257,5	-37,84
258	-40,72
258,5	-40,88
258,9	-38,6
259,4	-33,4
259,9	-36,16
260,3	-34,88
260,8	-27,68
261,2	-25,24
261,7	-25,32
262,2	-23,24
262,6	-18,28
263,1	-20,8
263,6	-23,84
264	-27,48
264,5	-35,76
264,9	-43,24
265,4	-51,12
265,9	-48,56
266,3	-44,16
266,8	-35,76
267,3	-35,12
267,7	-33,28
268,2	-33
268,7	-34,88
269,1	-37,76
269,6	-37,92
270	-33
270,5	-34,56
271	-34
271,4	-31,72
271,9	-30,8
272,4	-30,48
272,8	-31,08
273,3	-36,28
273,7	-33,28
274,2	-25
274,7	-29,08
275,1	-28,24
275,6	-22,76
276,1	-31,4
276,5	-40,12
277	-36,64
277,4	-37,36
277,9	-42,92
278,4	-39,08
278,8	-39,24
279,3	-39,4
279,8	-41,28
280,2	-39,88
280,7	-36,36
281,1	-32,72
281,6	-31,84
282,1	-26,72
282,5	-24,4
283	-25,56
283,4	-29,44
283,9	-31,64
284,4	-34,04
284,8	-31,12
285,3	-29,48
285,8	-27,64
286,2	-24,08
286,7	-21,72
287,1	-24,48
287,6	-25,84
288,1	-19,36
288,5	-21,24
289	-26,6
289,5	-32,2
289,9	-28,4
290,4	-33,28
290,8	-37,48
291,3	-37,48
291,8	-34,56
292,2	-37,2
292,7	-36,24
293,1	-32,2
293,6	-29,56
294,1	-29,64
294,5	-33,84
295	-34,56
295,5	-32,84
295,9	-30,44
296,4	-27,96
296,8	-17,76
297,3	-19,8
297,8	-22,68
298,2	-25,32
298,7	-23,24
299,1	-31,68
299,6	-27,76
300,1	-29,88
300,5	-27,92
301	-27,4
301,5	-31,16
301,9	-38,08
302,4	-37,48
302,8	-41,12
303,3	-43,4
303,8	-43,12
304,2	-43,04
304,7	-38,36
305,1	-37,96
305,6	-37,2
306,1	-35,12
306,5	-33,64
307	-32,92
307,4	-31
307,9	-31,8
308,4	-26,28
308,8	-21,2
309,3	-19,96
309,8	-23,48
310,2	-21,2
310,7	-27,92
311,1	-38,96
311,6	-39,76
312,1	-30,04
312,5	-34,36
313	-30,44
313,4	-25,08
313,9	-25,96
314,4	-30,24
314,8	-30,4
315,3	-29,52
315,7	-29,64
316,2	-37,52
316,7	-36,72
317,1	-37,08
317,6	-38,52
318	-34,2
318,5	-29,4
319	-33,68
319,4	-32,08
319,9	-31,76
320,3	-28,84
320,8	-27,32
321,3	-26,16
321,7	-21,88
322,2	-26,24
322,6	-28,52
323,1	-35,84
323,6	-37,68
324	-40,08
324,5	-38,48
324,9	-42,28
325,4	-35,32
325,9	-32,68
326,3	-30,04
326,8	-30,96
327,2	-31,28
327,7	-32,92
328,2	-38,4
328,6	-39,28
329,1	-38,68
329,5	-34,16
330	-34,76
330,5	-35,2
330,9	-38,24
331,4	-34,8
331,8	-37,96
332,3	-36,24
332,8	-32,08
333,2	-34,68
333,7	-32,88
334,1	-34,56
334,6	-38,44
335,1	-40,36
335,5	-37,44
336	-37,08
336,4	-32,68
336,9	-27,36
337,4	-27,52
337,8	-24,16
338,3	-31,92
338,7	-36,04
339,2	-38,8
339,7	-36,96
340,1	-43
340,6	-37,2
341	-31,88
341,5	-33,28
342	-27,04
342,4	-23
342,9	-24,32
343,3	-34,64
343,8	-35,28
344,2	-36,44
344,7	-36,04
345,2	-35,64
345,6	-28,92
346,1	-22,4
346,5	-22,24
347	-30,2
347,5	-33,36
347,9	-29,72
348,4	-31,88
348,8	-34,24
349,3	-26,16
349,8	-25,48
350,2	-27,04
350,7	-25,84
351,1	-32,16
351,6	-34,72
352	-33,24
352,5	-30,4
353	-33
353,4	-21,72
353,9	-13,12
354,3	-7,64
354,8	-6,28
355,3	4,92
355,7	5,32
356,2	8,12
356,6	17,16
357,1	32,84
357,5	38,68
358	54,16
358,5	73,24
358,9	90,36
359,4	106,6
359,8	127,72
360,3	154,48
360,8	179,36
361,2	212,68
361,7	244,28
362,1	286,24
362,6	326,04
363	368,84
363,5	413,16
364	454,6
364,4	505,32
364,9	556,36
365,3	608,32
365,8	657,88
366,3	712,16
366,7	751,36
367,2	783,6
367,6	810,6
368,1	835,92
368,5	844,76
369	847,88
369,5	846,72
369,9	844,28
370,4	823,68
370,8	809,48
371,3	790,24
371,7	761,16
372,2	724,68
372,7	689,56
373,1	648,44
373,6	607,84
374	573,96
374,5	537,8
374,9	504,04
375,4	471,4
375,9	434
376,3	398,36
376,8	368,2
377,2	333,16
377,7	302,8
378,2	277,32
378,6	251,12
379,1	217,96
379,5	199,56
380	175,64
380,4	154,56
380,9	137,28
381,4	125,44
381,8	116,4
382,3	110,76
382,7	99,64
383,2	92,24
383,6	87,04
384,1	75,04
384,6	60,84
385	53,92
385,5	49,8
385,9	41,56
386,4	40,08
386,8	34,64
387,3	36,96
387,7	31
388,2	24,96
388,7	17,64
389,1	14,44
389,6	6,24
390	1,64
390,5	-0,56
390,9	-6,84
391,4	-1,76
391,9	-5,84
392,3	-6,84
392,8	-3,84
393,2	-2,2
393,7	-6,92
394,1	-4,2
394,6	-2,8
395,1	-2,96
395,5	-3,6
396	-3,12
396,4	-7,88
396,9	-10,56
397,3	-13,08
397,8	-10,96
398,2	-10,68
398,7	-10,6
399,2	-9,76
399,6	-12,88
400,1	-17,72
400,5	-23,16
401	-23,64
401,4	-29,76
401,9	-30,64
402,4	-38,6
402,8	-30,08
403,3	-28,56
403,7	-24,4
404,2	-21,8
404,6	-14,28
405,1	-17,36
405,5	-13,2
406	-12,68
406,5	-8,76
406,9	-9,36
407,4	-10,96
407,8	-5,24
408,3	-2,2
408,7	-4,32
409,2	-1,72
409,6	-0,12
410,1	-1,8
410,6	2,48
411	6,68
411,5	15,56
411,9	25,36
412,4	29,72
412,8	28,12
413,3	29,88
413,7	36,68
414,2	32,04
414,7	38,48
415,1	49
415,6	50,56
416	52,52
416,5	59,88
416,9	63,08
417,4	67,64
417,8	81,76
418,3	86,44
418,8	95,72
419,2	100,92
419,7	108,8
420,1	115,08
420,6	121,92
421	127,04
421,5	129,68
421,9	141,32
422,4	148,76
422,8	162,8
423,3	173,2
423,8	190,64
424,2	196,92
424,7	209,76
425,1	218,92
425,6	233,76
426	243,52
426,5	256,36
426,9	268,52
427,4	283,44
427,9	299,56
428,3	317,84
428,8	341,12
429,2	365,56
429,7	385,88
430,1	405,8
430,6	423,4
431	437,24
431,5	459,56
431,9	479,72
432,4	504,2
432,8	538,56
433,3	569,4
433,8	588,4
434,2	615,92
434,7	643,92
435,1	672,36
435,6	708,48
436	748,68
436,5	786,2
436,9	828,68
437,4	870,24
437,8	904,16
438,3	947,76
438,8	994,2
439,2	1037,52
439,7	1082
440,1	1131,12
440,6	1175,08
441	1230
441,5	1282,64
441,9	1337,56
442,4	1395,6
442,8	1460,72
443,3	1518,8
443,7	1580,92
444,2	1646,64
444,7	1712,16
445,1	1788,6
445,6	1855,4
446	1922,56
446,5	1993,76
446,9	2067,44
447,4	2130,44
447,8	2205,64
448,3	2289,2
448,7	2364,28
449,2	2441,96
449,6	2519,8
450,1	2596,84
450,6	2682,88
451	2764,52
451,5	2853,64
451,9	2937,76
452,4	3027,12
452,8	3115,32
453,3	3212,6
453,7	3300,36
454,2	3398,64
454,6	3504,04
455,1	3588,96
455,5	3674,56
456	3769
456,4	3853,56
456,9	3943,8
457,3	4048,8
457,8	4154
458,3	4257,68
458,7	4358,52
459,2	4460,08
459,6	4552,16
460,1	4636,24
460,5	4736,44
461	4842,12
461,4	4932,44
461,9	5027,4
462,3	5143,8
462,8	5240,08
463,2	5338,04
463,7	5432,08
464,1	5539,04
464,6	5624,92
465	5711,72
465,5	5808,28
466	5909,68
466,4	6001,44
466,9	6086,08
467,3	6169,48
467,8	6262,92
468,2	6347,08
468,7	6423,08
469,1	6516,16
469,6	6602,24
470	6674,92
470,5	6748,84
470,9	6829,16
471,4	6901,76
471,8	6987,6
472,3	7060,68
472,7	7135,84
473,2	7218,88
473,6	7289,16
474,1	7342,84
474,5	7404,52
475	7468,44
475,4	7516,92
475,9	7577,28
476,4	7642,12
476,8	7695,12
477,3	7746,64
477,7	7791,04
478,2	7843,04
478,6	7886,84
479,1	7926,4
479,5	7954,68
480	7992,16
480,4	8022,8
480,9	8050,08
481,3	8071,32
481,8	8107,28
482,2	8141,8
482,7	8151,6
483,1	8164,76
483,6	8194,32
484	8212,32
484,5	8223,76
484,9	8243,2
485,4	8257,36
485,8	8265,48
486,3	8263,28
486,7	8256,96
487,2	8254,96
487,6	8255,12
488,1	8262,16
488,5	8253,8
489	8248,36
489,4	8250,28
489,9	8239,44
490,4	8219,32
490,8	8204,4
491,3	8188,88
491,7	8158,2
492,2	8139,4
492,6	8109,92
493,1	8083,76
493,5	8054,12
494	8013,52
494,4	7968,84
494,9	7926,2
495,3	7877,04
495,8	7837,08
496,2	7809,24
496,7	7782,8
497,1	7748,88
497,6	7727,08
498	7684,32
498,5	7641,48
498,9	7604,64
499,4	7561,44
499,8	7520,08
500,3	7472,88
500,7	7422,12
501,2	7368,92
501,6	7321,16
502,1	7266,32
502,5	7223,16
503	7178,44
503,4	7128
503,9	7079,48
504,3	7028,24
504,8	6972,36
505,2	6926,44
505,7	6868,6
506,1	6822,16
506,6	6769,76
507	6721,84
507,5	6658,64
507,9	6606,76
508,4	6542,84
508,8	6485,4
509,3	6418,32
509,7	6360,92
510,2	6299,76
510,6	6240,36
511,1	6176,84
511,5	6129,76
512	6063,84
512,4	6006,6
512,9	5952,44
513,3	5903,48
513,8	5842,12
514,2	5787,52
514,7	5712,04
515,1	5652,76
515,6	5585,48
516	5522,16
516,5	5458,12
516,9	5409,4
517,4	5351,72
517,8	5296,04
518,3	5239,32
518,7	5185,48
519,2	5124,2
519,6	5055,52
520,1	4996,08
520,5	4935,6
521	4870,6
521,4	4810,48
521,9	4751,44
522,3	4692,96
522,8	4632,92
523,2	4585
523,7	4541,04
524,1	4494,32
524,6	4443,68
525	4390,52
525,5	4335,28
525,9	4282,84
526,4	4231,4
526,8	4171,08
527,3	4121,08
527,7	4068,64
528,2	4011,2
528,6	3962,72
529,1	3927,24
529,5	3889,76
530	3849,24
530,4	3810,76
530,9	3757,08
531,3	3697,08
531,8	3644,2
532,2	3593,76
532,6	3535,04
533,1	3489,68
533,5	3451,12
534	3397,68
534,4	3355,76
534,9	3313,08
535,3	3270,4
535,8	3232,04
536,2	3192,04
536,7	3144,4
537,1	3113,32
537,6	3072,8
538	3030,8
538,5	2992,68
538,9	2954,72
539,4	2909,6
539,8	2870,24
540,3	2830,8
540,7	2790,04
541,2	2758,8
541,6	2729,6
542,1	2689,12
542,5	2656,2
543	2624,96
543,4	2580,96
543,9	2537,08
544,3	2511,72
544,8	2476,4
545,2	2443
545,7	2414,8
546,1	2389
546,5	2352,52
547	2318,04
547,4	2291,4
547,9	2264,92
548,3	2225,32
548,8	2197,12
549,2	2165,4
549,7	2136,88
550,1	2114,88
550,6	2094,56
551	2068,52
551,5	2051,32
551,9	2025,88
552,4	1993,36
552,8	1967,2
553,3	1942,48
553,7	1917,24
554,2	1888,56
554,6	1867,68
555,1	1849,68
555,5	1829,48
555,9	1807,24
556,4	1786,96
556,8	1764,44
557,3	1739,56
557,7	1716,84
558,2	1687,16
558,6	1667,2
559,1	1640,12
559,5	1622,96
560	1600,48
560,4	1579,2
560,9	1559,72
561,3	1548,6
561,8	1531
562,2	1511,52
562,7	1499,24
563,1	1474,2
563,6	1451,96
564	1430,2
564,4	1413,44
564,9	1394,68
565,3	1382,76
565,8	1362,36
566,2	1344,84
566,7	1326,32
567,1	1313,72
567,6	1298,44
568	1288,28
568,5	1277,36
568,9	1259
569,4	1236,8
569,8	1218,96
570,3	1201,28
570,7	1185,56
571,1	1176,2
571,6	1166,48
572	1154,08
572,5	1148,28
572,9	1131,24
573,4	1123,24
573,8	1104,32
574,3	1098,6
574,7	1079,32
575,2	1063,2
575,6	1046,12
576,1	1036,16
576,5	1018,96
576,9	1009,96
577,4	1001,72
577,8	988,92
578,3	979,2
578,7	972,8
579,2	954,32
579,6	940,8
580,1	935,08
580,5	928,24
581	910,56
581,4	904,44
581,9	893,8
582,3	881,52
582,7	866,12
583,2	858,16
583,6	848,84
584,1	840,64
584,5	824,6
585	813
585,4	801
585,9	790,88
586,3	777,28
586,8	774,88
587,2	766,96
587,6	759,68
588,1	750,84
588,5	748,28
589	740,2
589,4	734,04
589,9	727,56
590,3	724,12
590,8	715,04
591,2	704
591,7	700,64
592,1	691,4
592,5	677,72
593	666,52
593,4	660,36
593,9	647,56
594,3	636,28
594,8	631,12
595,2	630,16
595,7	618,88
596,1	618,36
596,6	618,28
597	609,24
597,4	603,08
597,9	600,28
598,3	594
598,8	588,48
599,2	590,96
599,7	584,72
600,1	583,76
600,6	573,2
601	561,92
601,4	553,44
601,9	547,36
602,3	536,96
602,8	535,16
603,2	529,64
603,7	525,6
604,1	521,12
604,6	519,16
605	519,36
605,4	520,88
605,9	511,56
606,3	505,48
606,8	504,28
607,2	491,52
607,7	485,08
608,1	486,72
608,6	489,08
609	483,28
609,4	483,72
609,9	478
610,3	469,12
610,8	461,4
611,2	447,24
611,7	439,84
612,1	441,08
612,6	432,48
613	428,84
613,4	435,88
613,9	435,52
614,3	428,96
614,8	431,8
615,2	432,52
615,7	426,2
616,1	420,64
616,6	413,4
617	412,16
617,4	408,36
617,9	406,24
618,3	403,6
618,8	405,16
619,2	401,68
619,7	394,44
620,1	380,72
620,5	374,48
621	370,24
621,4	362,56
621,9	358
622,3	360,16
622,8	363,72
623,2	359,6
623,6	362,96
624,1	363
624,5	359,36
625	349,44
625,4	342,92
625,9	332,64
626,3	326,64
626,8	329,28
627,2	328,12
627,6	325,84
628,1	323,6
628,5	319,96
629	318,52
629,4	315,88
629,9	316,88
630,3	316,48
630,7	314,92
631,2	308,44
631,6	306,68
632,1	302,28
632,5	300,56
633	296,56
633,4	293,44
633,8	287,32
634,3	282,56
634,7	277,08
635,2	273,92
635,6	271,56
636,1	274,76
636,5	278,4
636,9	272,64
637,4	274,8
637,8	273,6
638,3	266,92
638,7	262,56
639,2	264,56
639,6	256,48
640	251,68
640,5	251,28
640,9	247,24
641,4	240,36
641,8	242,16
642,2	242,44
642,7	245,48
643,1	248,56
643,6	247,36
644	240,92
644,5	241,92
644,9	240,28
645,3	240,8
645,8	238,04
646,2	240,68
646,7	236,6
647,1	234,88
647,6	228,68
648	231,08
648,4	231,84
648,9	232,64
649,3	222,64
649,8	222,32
650,2	220,84
650,6	214,6
651,1	217,56
651,5	216,08
652	211,36
652,4	213,76
652,9	212,16
653,3	206,6
653,7	212,36
654,2	213,88
654,6	211,88
655,1	213,6
655,5	205
655,9	199
656,4	192,32
656,8	187,24
657,3	187,6
657,7	192,96
658,2	194,8
658,6	195,08
659	199,04
659,5	194,76
659,9	183,92
660,4	182,08
660,8	183,76
661,2	178,12
661,7	176,88
662,1	183,04
662,6	177,72
663	175,32
663,4	176,48
663,9	174,24
664,3	171,4
664,8	170,44
665,2	167,4
665,6	169,56
666,1	169,4
666,5	170,24
667	171,24
667,4	168,28
667,9	162,32
668,3	161,08
668,7	161,6
669,2	162,32
669,6	164,56
670,1	165,84
670,5	165
670,9	164,96
671,4	164,32
671,8	165,4
672,3	162,8
672,7	163,32
673,1	155,2
673,6	151,92
674	149,28
674,5	144,48
674,9	143,36
675,3	147,8
675,8	145,52
676,2	144,52
676,7	149,28
677,1	144,76
677,5	142,92
678	141,48
678,4	143,76
678,9	135,76
679,3	134,04
679,7	131,68
680,2	133,84
680,6	125,28
681,1	124,24
681,5	126,52
681,9	123,92
682,4	118,12
682,8	122,92
683,3	130,92
683,7	127,76
684,1	126,32
684,6	132,88
685	131,12
685,5	123,4
685,9	130,52
686,3	133,2
686,8	126,72
687,2	122,4
687,7	124,16
688,1	118,72
688,5	117,68
689	115,84
689,4	115,96
689,9	109,4
690,3	107,68
690,7	101,48
691,2	102,16
691,6	104,56
692	107,68
692,5	106,44
692,9	112,48
693,4	111,68
693,8	113,28
694,2	115,52
694,7	111,8
695,1	103,84
695,6	104,76
696	98,36
696,4	99,72
696,9	108,2
697,3	110,28
697,8	107,68
698,2	110,16
698,6	107,12
699,1	99
699,5	101,04
699,9	103,08
700,4	102,68
700,8	98,76
701,3	96,04
701,7	90,6
702,1	85,04
702,6	79,28
703	79,68
703,5	82,24
703,9	83,76
704,3	88,56
704,8	91,28
705,2	91,84
705,6	96,88
706,1	94,68
706,5	87,12
707	88,48
707,4	86,68
707,8	74,04
708,3	77,52
708,7	77,32
709,2	69,68
709,6	71,04
710	76,36
710,5	72,24
710,9	69,24
711,3	70
711,8	69,4
712,2	70,44
712,7	71,24
713,1	80,08
713,5	88,12
714	88,44
714,4	84,36
714,8	84,36
715,3	82,12
715,7	77
716,2	72,72
716,6	71,8
717	75,52
717,5	75,68
717,9	72,12
718,3	72
718,8	71,76
719,2	65,04
719,7	61,92
720,1	61,68
720,5	57,44
721	57,28
721,4	52,92
721,8	51,6
722,3	53,8
722,7	53,72
723,2	52,96
723,6	56,48
724	55,2
724,5	55,48
724,9	62,08
725,3	57,88
725,8	60,04
726,2	60,36
726,7	58,12
727,1	56,32
727,5	63,2
728	60,52
728,4	58,8
728,8	62,48
729,3	61,6
729,7	57,64
730,1	58,28
730,6	59,24
731	53,44
731,5	53,36
731,9	55,28
732,3	55,6
732,8	53,84
733,2	57,32
733,6	59,6
734,1	56,76
734,5	56,04
734,9	59,28
735,4	50,64
735,8	43,36
736,3	42,44
736,7	41,32
737,1	40,04
737,6	43,76
738	47,84
738,4	46,08
738,9	46,96
739,3	46,28
739,7	45,2
740,2	42,64
740,6	44,44
741,1	40,56
741,5	41,4
741,9	46,56
742,4	40,28
742,8	41,64
743,2	47,24
743,7	44,96
744,1	40,8
744,5	45,24
745	44,52
745,4	41,12
745,8	46,24
746,3	44,76
746,7	38,2
747,2	34,92
747,6	38,68
748	29,72
748,5	35,4
748,9	36,96
749,3	36,68
749,8	29,6
750,2	30,52
750,6	25,88
751,1	34,24
751,5	37,28
751,9	40,24
752,4	42,36
752,8	43,56
753,3	39,32
753,7	38,44
754,1	34,96
754,6	37,52
755	35,36
755,4	35,6
755,9	36,88
756,3	38,72
756,7	38,72
757,2	32,96
757,6	33,44
758	32,4
758,5	29,32
758,9	26,48
759,3	28,6
759,8	27,48
760,2	23,88
760,6	23
761,1	21,4
761,5	21,28
761,9	21,08
762,4	18,44
762,8	16,68
763,3	19,48
763,7	25,04
764,1	25,36
764,6	33,2
765	39,16
765,4	32,88
765,9	24,24
766,3	18,56
766,7	11,08
767,2	11,16
767,6	12,68
768	18,16
768,5	20,12
768,9	24,24
769,3	22,88
769,8	22,24
770,2	22,64
770,6	24,52
771,1	24,24
771,5	22,2
771,9	27,68
772,4	26,16
772,8	33,12
773,2	26,96
773,7	30,12
774,1	27,44
774,5	27,52
775	20,72
775,4	29,72
775,8	29,32
776,3	24,84
776,7	27,52
777,1	26,96
777,6	23,76
778	19,24
778,4	25,2
778,9	18,48
779,3	13,64
779,7	14,76
780,2	16,6
780,6	9,08
781	13,48
781,5	16,84
781,9	8,68
782,3	10,68
782,8	13,48
783,2	16,36
783,6	20,6
784,1	23,44
784,5	18,04
784,9	16,24
785,4	12,76
785,8	13,6
786,2	7,72
786,7	11,28
787,1	13,68
787,5	5,64
788	8,48
788,4	15,04
788,8	16,08
789,3	17,8
789,7	24,2
790,1	16,96
790,6	16,4
791	9,16
791,4	10,76
791,9	6,76
792,3	4,28
792,7	7,32
793,2	14,24
793,6	7,12
794	11,72
794,5	15,6
794,9	12,12
795,3	6,4
795,8	10,32
796,2	7,72
796,6	0,76
797,1	-1,8
797,5	-2,64
797,9	-1,8
798,4	-1,2
798,8	2,76
799,2	7,08
799,7	2,56
800,1	-0,24
800,5	-1,88
801	-5,08
801,4	-11,48
801,8	-2,92
802,2	0,56
802,7	4,08
803,1	2,76
803,5	6,72
804	4,04
804,4	1,64
804,8	-4,24
805,3	0,68
805,7	-1,36
806,1	-0,4
806,6	0,8
807	-3
807,4	-12,6
807,9	-6,6
808,3	-8,8
808,7	-17,76
809,2	-9,48
809,6	-2,92
810	-8,44
810,4	-8,8
810,9	-3,68
811,3	-8,48
811,7	-7,8
812,2	-5,04
812,6	-7,64
813	-3,88
813,5	-0,08
813,9	0,8
814,3	1,44
814,8	6,4
815,2	-1,8
815,6	-6,48
816,1	-7,88
816,5	-12,16
816,9	-4,44
817,3	-2,76
817,8	-3,08
818,2	-6,92
818,6	-4,4
819,1	-14,12
819,5	-9,56
819,9	-4,36
820,4	-3,12
820,8	-7,52
821,2	-8,12
821,7	-7,36
822,1	-10,76
822,5	-10,48
822,9	-11,84
823,4	-9,28
823,8	-11,04
824,2	-10,2
824,7	-11,2
825,1	-4,84
825,5	-5,24
826	-6,44
826,4	-11,36
826,8	-7,24
827,3	-10,68
827,7	-13,8
828,1	-14,64
828,5	-9,72
829	-11,44
829,4	-8,96
829,8	-11,2
830,3	-6,96
830,7	-6,68
831,1	-13,36
831,6	-17,24
832	-15,12
832,4	-21,04
832,8	-20,76
833,3	-13,24
833,7	-9,76
834,1	-10,44
834,6	-12,92
835	-10,52
835,4	-6,8
835,8	-6,92
836,3	-5,52
836,7	-1,08
837,1	-1,32
837,6	-7,48
838	-10,6
838,4	-13,92
838,9	-14,4
839,3	-19,32
839,7	-19,2
840,1	-12,4
840,6	-12,12
841	-10,36
841,4	-9,36
841,9	-9,72
842,3	-16,52
842,7	-14,96
843,1	-15,04
843,6	-21,44
844	-21,2
844,4	-19,64
844,9	-18,52
845,3	-18,76
845,7	-12,56
846,2	-14,16
846,6	-15,64
847	-16,92
847,4	-23,32
847,9	-20,4
848,3	-25,52
848,7	-26,16
849,2	-26,56
849,6	-24,72
850	-26,32
850,4	-23,8
850,9	-26,52
851,3	-25
851,7	-27,44
852,2	-28,12
852,6	-20,36
853	-14,44
853,4	-13,92
853,9	-10,48
854,3	-9,84
854,7	-11,88
855,2	-16,56
855,6	-19,64
856	-19,52
856,4	-24,56
856,9	-26,24
857,3	-21,36
857,7	-19,72
858,2	-19,2
858,6	-17,64
859	-22,92
859,4	-21,24
859,9	-21,4
860,3	-21
860,7	-20,16
861,1	-13,88
861,6	-20,24
862	-21,04
862,4	-21,8
862,9	-22,68
863,3	-22,16
863,7	-23,24
864,1	-19,16
864,6	-19,72
865	-17,4
865,4	-19,68
865,9	-18,12
866,3	-21,44
866,7	-22,44
867,1	-20,96
867,6	-21,2
868	-21,56
868,4	-17,72
868,8	-14,12
869,3	-13,16
869,7	-13,08
870,1	-14,32
870,6	-22,36
871	-25,56
871,4	-29,44
871,8	-31,44
872,3	-31,76
872,7	-29,48
873,1	-23,52
873,5	-20,96
874	-17,72
874,4	-12,76
874,8	-12
875,3	-12,92
875,7	-14,48
876,1	-19,44
876,5	-21,2
877	-15,36
877,4	-21,48
877,8	-21,84
878,2	-18,16
878,7	-15,64
879,1	-19,8
879,5	-16,88
879,9	-20,84
880,4	-15,24
880,8	-19,68
881,2	-20,68
881,7	-24,56
882,1	-23,24
882,5	-30
882,9	-28,64
883,4	-25
883,8	-24,12
884,2	-22,6
884,6	-22
885,1	-23,8
885,5	-25,08
885,9	-25,92
886,3	-28,28
886,8	-25,36
887,2	-23,76
887,6	-24,88
888	-26,88
888,5	-22,28
888,9	-24,32
889,3	-20,04
889,8	-22,16
890,2	-17,6
890,6	-16,64
891	-18,68
891,5	-24,88
891,9	-22,2
892,3	-19,56
892,7	-21,64
893,2	-22,76
893,6	-22,72
894	-25,48
894,4	-29,6
894,9	-31
895,3	-29,2
895,7	-26,52
896,1	-22,64
896,6	-21
897	-22,88
897,4	-26,52
897,8	-23,88
898,3	-29,16
898,7	-24,6
899,1	-26,76
899,5	-19,72
900	-24,52
900,4	-22
900,8	-29,12
901,2	-23,04
901,7	-24,64
902,1	-21,44
902,5	-24,6
902,9	-20,96
903,4	-21,36
903,8	-19,6
904,2	-19,76
904,6	-22,8
905,1	-23,6
905,5	-24,52
905,9	-30,36
906,3	-31,36
906,8	-27
907,2	-28,92
907,6	-31,96
908	-29,32
908,5	-30,44
908,9	-30,6
909,3	-33,36
909,7	-31,6
910,2	-26,6
910,6	-27,6
911	-22,88
911,4	-21,88
911,9	-23,92
912,3	-26,84
912,7	-28,32
913,1	-28,76
913,6	-26,28
914	-30,4
914,4	-33,88
914,8	-33
915,3	-37,56
915,7	-34,64
916,1	-29,96
916,5	-27,76
916,9	-28,24
917,4	-24,16
917,8	-25,92
918,2	-23,56
918,6	-26,64
919,1	-23,76
919,5	-26,84
919,9	-24,64
920,3	-25,44
920,8	-25,56
921,2	-27,56
921,6	-27,32
922	-37,2
922,5	-36,48
922,9	-34,08
923,3	-30,32
923,7	-30,04
924,2	-22,32
924,6	-22,84
925	-20,92
925,4	-25,08
925,8	-32,12
926,3	-37,96
926,7	-42,52
927,1	-44,32
927,5	-45,2
928	-41,68
928,4	-39,2
928,8	-32,6
929,2	-36,64
929,7	-34,92
930,1	-31,44
930,5	-28,92
930,9	-31,68
931,3	-27,56
931,8	-34,8
932,2	-35,8
932,6	-40,32
933	-38,36
933,5	-39,72
933,9	-26,72
934,3	-29,52
934,7	-26,68
935,2	-26,12
935,6	-25,12
936	-32,6
936,4	-31,12
936,8	-32,72
937,3	-37,48
937,7	-36
938,1	-35,68
938,5	-38,84
939	-35,64
939,4	-32,52
939,8	-31,6
940,2	-32,8
940,6	-31,76
941,1	-35,48
941,5	-39,2
941,9	-45,72
942,3	-39,32
942,8	-41,88
943,2	-36,92
943,6	-37,96
944	-35,84
944,4	-43,84
944,9	-36,92
945,3	-37,2
945,7	-35,12
946,1	-35
946,6	-32,52
947	-30,16
947,4	-32,16
947,8	-25,72
948,2	-24,12
948,7	-22,2
949,1	-22,24
949,5	-23,48
949,9	-25,72
950,3	-25,92
950,8	-28,92
951,2	-33,04
951,6	-33,8
952	-39,36
952,5	-40,56
952,9	-37,68
953,3	-39,88
953,7	-34,2
954,1	-34,8
954,6	-33,44
955	-27,6
955,4	-25,04
955,8	-28,52
956,2	-25,68
956,7	-29,08
957,1	-34,44
957,5	-38,12
957,9	-38,72
958,3	-36,76
958,8	-36,28
959,2	-37,08
959,6	-35,44
960	-32,2
960,5	-31,24
960,9	-29,56
961,3	-29,52
961,7	-24,48
962,1	-23,76
962,6	-22,48
963	-20,72
963,4	-17,4
963,8	-18,4
964,2	-28,36
964,7	-25,6
965,1	-29,4
965,5	-38,08
965,9	-41,96
966,3	-36,48
966,8	-38,88
967,2	-37,88
967,6	-28,68
968	-29,56
968,4	-24,16
968,9	-31,36
969,3	-23,52
969,7	-29,52
970,1	-30,16
970,5	-33,92
971	-29,44
971,4	-34,32
971,8	-30,04
972,2	-27,32
972,6	-32
973,1	-35,8
973,5	-40,2
973,9	-44,96
974,3	-42,4
974,7	-36
975,2	-38
975,6	-34,92
976	-33,64
976,4	-35,92
976,8	-30,04
977,3	-24,08
977,7	-21,72
978,1	-15,84
978,5	-13,76
978,9	-24,84
979,4	-22,28
979,8	-18
980,2	-18,8
980,6	-18,4
981	-12,52
981,5	-15,68
981,9	-23,12
982,3	-25,84
982,7	-28,2
983,1	-32,16
983,6	-25,88
984	-22,44
984,4	-23,8
984,8	-23,4
985,2	-20
985,6	-24
986,1	-33,04
986,5	-32,44
986,9	-30,84
987,3	-36,72
987,7	-38,64
988,2	-39,96
988,6	-42
989	-44,4
989,4	-44,92
989,8	-49,56
990,3	-45,84
990,7	-47,44
991,1	-43,68
991,5	-37,16
991,9	-31,64
992,3	-25,08
992,8	-18,84
993,2	-17,48
993,6	-19,56
994	-23,16
994,4	-26,88
994,9	-24,08
995,3	-30
995,7	-35,96
996,1	-33,52
996,5	-31,44
996,9	-38,24
997,4	-42,4
997,8	-43
998,2	-47,52
998,6	-49,68
999	-50,84
999,5	-46,96
999,9	-37,84
1000,3	-31,8
1000,7	-33,2
1001,1	-31,2
1001,5	-29,28
1002	-37,12
1002,4	-40,24
1002,8	-40,6
1003,2	-41,92
1003,6	-39,08
1004	-31,8
1004,5	-30,88
1004,9	-28,96
1005,3	-29
1005,7	-37,84
1006,1	-41,64
1006,6	-40,48
1007	-42,44
1007,4	-41,2
1007,8	-37,52
1008,2	-39,88
1008,6	-40,96
1009,1	-40,16
1009,5	-39,76
1009,9	-36,76
1010,3	-28,56
1010,7	-25,08
1011,1	-19,6
1011,6	-17,48
1012	-18,24
1012,4	-26,68
1012,8	-30,2
1013,2	-34,84
1013,6	-39,68
1014,1	-39,44
1014,5	-36,2
1014,9	-34,24
1015,3	-31,16
1015,7	-27,96
1016,1	-30,08
1016,6	-30,64
1017	-33,72
1017,4	-32,76
1017,8	-36,04
1018,2	-28,04
1018,6	-27,76
1019,1	-25,24
1019,5	-27,96
1019,9	-22,68
1020,3	-31,36
1020,7	-35,24
1021,1	-36,08
1021,6	-35,16
1022	-35,88
1022,4	-34,76
1022,8	-30,4
1023,2	-32
1023,6	-37,12
1024,1	-41
1024,5	-38,92
1024,9	-42,36
1025,3	-45,72
1025,7	-41,52
1026,1	-36,08
1026,6	-35,44
1027	-28,6
1027,4	-25,6
1027,8	-25,96
1028,2	-29,28
1028,6	-25,92
1029	-26,84
1029,5	-26,24
1029,9	-29,04
1030,3	-33,52
1030,7	-39
1031,1	-40,56
1031,5	-45,6
1032	-43,6
1032,4	-42,56
1032,8	-43,28
1033,2	-48,2
1033,6	-48,24
1034	-42,64
1034,4	-43,68
1034,9	-44,12
1035,3	-42,32
1035,7	-39,72
1036,1	-48
1036,5	-45
1036,9	-39,48
1037,4	-40,76
1037,8	-36,32
1038,2	-33
1038,6	-33,84
1039	-35,64
1039,4	-29,08
1039,8	-33,8
1040,3	-35,8
1040,7	-34,04
1041,1	-36,6
1041,5	-43
1041,9	-39,72
1042,3	-44,36
1042,7	-42,8
1043,2	-43,96
1043,6	-42,72
1044	-43,64
1044,4	-34,4
1044,8	-30,2
1045,2	-28,4
1045,6	-24,36
1046,1	-23,6
1046,5	-29
1046,9	-36,44
1047,3	-37,88
1047,7	-42,52
1048,1	-45,48
1048,5	-48,2
1049	-46,24
1049,4	-44,08
1049,8	-41,52
1050,2	-33,6
1050,6	-26,8
1051	-25,4
1051,4	-28,16
1051,9	-30,36
1052,3	-38,2
1052,7	-43
1053,1	-47,36
1053,5	-48,84
1053,9	-45,4
1054,3	-51,8
1054,8	-47,64
1055,2	-45,8
1055,6	-44,96
1056	-48,28
1056,4	-44,24
1056,8	-44,32
1057,2	-43,16
1057,6	-38,64
1058,1	-35,04
1058,5	-34,2
1058,9	-39,52
1059,3	-40,16
1059,7	-40,32
1060,1	-44,52
1060,5	-44,2
1061	-41,2
1061,4	-46,04
1061,8	-44,4
1062,2	-45,4
1062,6	-43,88
1063	-40,64
1063,4	-33,08
1063,8	-31,6
1064,3	-29,28
1064,7	-27,56
1065,1	-27,2
1065,5	-23,68
1065,9	-28,44
1066,3	-28,44
1066,7	-27,92
1067,1	-32,4
1067,6	-40
1068	-39,52
1068,4	-34,6
1068,8	-37,04
1069,2	-31,64
1069,6	-31,28
1070	-28,52
1070,4	-38,28
1070,9	-41,4
1071,3	-46,16
1071,7	-43,2
1072,1	-51,44
1072,5	-48,04
1072,9	-43,6
1073,3	-40,16
1073,7	-39,76
1074,2	-37,88
1074,6	-34,6
1075	-36,08
1075,4	-33,92
1075,8	-40,12
1076,2	-38,92
1076,6	-41,6
1077	-38,04
1077,5	-45,24
1077,9	-43,04
1078,3	-37,68
1078,7	-34,12
1079,1	-33,52
1079,5	-28,8
1079,9	-29,48
1080,3	-31,56
1080,7	-33
1081,2	-38,4
1081,6	-32,92
1082	-32,6
1082,4	-31,04
1082,8	-29,6
1083,2	-22,52
1083,6	-26,6
1084	-22,56
1084,5	-29,44
1084,9	-34,92
1085,3	-38,72
1085,7	-42,24
1086,1	-45,64
1086,5	-45,48
1086,9	-40,6
1087,3	-42,6
1087,7	-41,6
1088,2	-35,92
1088,6	-33
1089	-39,52
1089,4	-35
1089,8	-33,28
1090,2	-43,04
1090,6	-38,24
1091	-35,08
1091,4	-37,08
1091,9	-37,16
1092,3	-31,96
1092,7	-32,96
1093,1	-30,4
1093,5	-27,52
1093,9	-24,76
1094,3	-21,32
1094,7	-21,84
1095,1	-20,08
1095,5	-22,92
1096	-28,36
1096,4	-32,12
1096,8	-35,52
1097,2	-33,36
1097,6	-28,72
1098	-24,24
1098,4	-23,52
1098,8	-15,2
1099,2	-17,44
1099,6	-22,04
1100,1	-20,28
1100,5	-18,76
1100,9	-26,88
1101,3	-25,4
1101,7	-26,12
1102,1	-28,28
1102,5	-29,36
1102,9	-28
1103,3	-32,12
1103,7	-32,52
1104,2	-33,96
1104,6	-31,16
1105	-30,48
1105,4	-28,56
1105,8	-24,28
1106,2	-17,96
1106,6	-14,96
1107	-9
1107,4	-3,12
1107,8	0,25
1108,3	-1,133
