Data from Subt2_00048.txt Node
Date: Fri Aug 11 16:08:45 MSK 2023
User: vat
Spectrometer: MAYP114033
Trigger mode: 0
Integration Time (sec): 5,000000E-1
Scans to average: 5
Electric dark correction enabled: true
Nonlinearity correction enabled: false
Boxcar width: 2
XAxis mode: Wavelengths
Number of Pixels in Spectrum: 2068
>>>>>Begin Spectral Data<<<<<
199,4	2,8
199,9	2,383
200,4	-1,267
200,8	-5,427
201,3	-11,907
201,8	-13,547
202,2	-15,267
202,7	-11,787
203,2	-9,267
203,6	-3,307
204,1	-1,347
204,6	-5,227
205	-4,547
205,5	-3,307
206	-0,587
206,4	-2,947
206,9	1,253
207,4	-1,187
207,8	-2,907
208,3	-7,067
208,8	-8,267
209,2	-10,587
209,7	-14,067
210,2	-13,627
210,6	-17,627
211,1	-18,667
211,5	-16,787
212	-14,987
212,5	-12,787
212,9	-11,707
213,4	-13,787
213,9	-12,427
214,3	-11,427
214,8	-18,347
215,3	-17,547
215,7	-13,587
216,2	-12,667
216,7	-14,627
217,1	-12,507
217,6	-10,907
218,1	-12,987
218,5	-18,707
219	-12,067
219,5	-9,347
219,9	-10,267
220,4	-11,187
220,9	-7,507
221,3	-14,507
221,8	-12,987
222,3	-13,627
222,7	-12,747
223,2	-15,187
223,6	-16,387
224,1	-24,787
224,6	-23,027
225	-21,907
225,5	-18,147
226	-9,347
226,4	-7,107
226,9	-10,307
227,4	-10,507
227,8	-14,067
228,3	-22,947
228,8	-21,907
229,2	-21,907
229,7	-21,387
230,2	-16,507
230,6	-14,787
231,1	-15,947
231,5	-12,667
232	-11,107
232,5	-14,747
232,9	-14,587
233,4	-12,507
233,9	-18,067
234,3	-18,507
234,8	-15,867
235,3	-14,627
235,7	-12,467
236,2	-9,987
236,7	-12,547
237,1	-23,507
237,6	-25,187
238,1	-28,867
238,5	-26,107
239	-27,027
239,4	-27,267
239,9	-19,427
240,4	-16,627
240,8	-18,907
241,3	-18,147
241,8	-10,187
242,2	-14,707
242,7	-12,947
243,2	-12,187
243,6	-10,547
244,1	-11,547
244,6	-10,347
245	-11,947
245,5	-14,587
245,9	-14,587
246,4	-10,707
246,9	-18,907
247,3	-21,707
247,8	-22,627
248,3	-22,747
248,7	-28,187
249,2	-27,827
249,7	-26,507
250,1	-24,627
250,6	-25,027
251	-23,827
251,5	-19,827
252	-24,227
252,4	-24,587
252,9	-18,867
253,4	-21,027
253,8	-20,867
254,3	-14,347
254,8	-14,587
255,2	-15,307
255,7	-11,027
256,1	-11,547
256,6	-13,827
257,1	-15,587
257,5	-14,187
258	-16,667
258,5	-17,627
258,9	-18,427
259,4	-12,307
259,9	-22,187
260,3	-26,227
260,8	-21,827
261,2	-20,387
261,7	-18,787
262,2	-18,467
262,6	-10,747
263,1	-8,427
263,6	-11,187
264	-18,227
264,5	-18,747
264,9	-21,707
265,4	-31,387
265,9	-28,347
266,3	-20,947
266,8	-11,947
267,3	-14,427
267,7	-12,227
268,2	-11,987
268,7	-15,147
269,1	-21,387
269,6	-17,987
270	-14,027
270,5	-14,347
271	-16,907
271,4	-19,027
271,9	-20,227
272,4	-22,267
272,8	-25,027
273,3	-24,067
273,7	-20,587
274,2	-17,147
274,7	-18,987
275,1	-16,867
275,6	-16,187
276,1	-18,467
276,5	-21,307
277	-15,187
277,4	-14,547
277,9	-15,107
278,4	-16,627
278,8	-17,947
279,3	-21,867
279,8	-25,627
280,2	-26,987
280,7	-23,907
281,1	-22,787
281,6	-23,707
282,1	-13,307
282,5	-13,707
283	-17,867
283,4	-19,667
283,9	-15,627
284,4	-19,267
284,8	-11,227
285,3	-5,867
285,8	-2,547
286,2	-6,067
286,7	-9,147
287,1	-17,027
287,6	-20,867
288,1	-18,667
288,5	-17,147
289	-18,787
289,5	-17,187
289,9	-13,027
290,4	-12,427
290,8	-13,027
291,3	-14,107
291,8	-12,747
292,2	-11,227
292,7	-14,667
293,1	-14,667
293,6	-13,187
294,1	-12,027
294,5	-19,147
295	-17,307
295,5	-13,987
295,9	-12,947
296,4	-17,467
296,8	-11,787
297,3	-16,027
297,8	-22,747
298,2	-23,427
298,7	-21,547
299,1	-24,747
299,6	-19,827
300,1	-21,147
300,5	-21,107
301	-18,027
301,5	-18,747
301,9	-21,747
302,4	-20,387
302,8	-20,787
303,3	-26,347
303,8	-28,467
304,2	-31,667
304,7	-24,267
305,1	-21,627
305,6	-17,507
306,1	-11,827
306,5	-7,787
307	-13,587
307,4	-12,867
307,9	-14,667
308,4	-14,387
308,8	-11,747
309,3	-5,947
309,8	-7,427
310,2	-6,307
310,7	-8,787
311,1	-19,947
311,6	-24,307
312,1	-23,267
312,5	-24,867
313	-24,667
313,4	-18,467
313,9	-19,547
314,4	-21,467
314,8	-22,547
315,3	-18,907
315,7	-16,627
316,2	-18,307
316,7	-18,947
317,1	-20,907
317,6	-25,227
318	-23,627
318,5	-20,747
319	-22,747
319,4	-23,307
319,9	-18,787
320,3	-17,107
320,8	-13,867
321,3	-10,147
321,7	-5,227
322,2	-6,547
322,6	-8,267
323,1	-15,107
323,6	-16,227
324	-15,027
324,5	-20,627
324,9	-26,707
325,4	-18,267
325,9	-19,587
326,3	-16,427
326,8	-12,947
327,2	-11,067
327,7	-15,387
328,2	-13,947
328,6	-18,147
329,1	-16,667
329,5	-11,587
330	-13,147
330,5	-16,787
330,9	-16,707
331,4	-15,707
331,8	-26,027
332,3	-24,307
332,8	-19,027
333,2	-22,667
333,7	-25,747
334,1	-18,867
334,6	-19,747
335,1	-22,787
335,5	-19,867
336	-16,587
336,4	-20,427
336,9	-20,027
337,4	-17,307
337,8	-17,867
338,3	-26,947
338,7	-21,467
339,2	-19,707
339,7	-18,187
340,1	-19,667
340,6	-12,987
341	-11,667
341,5	-12,627
342	-12,147
342,4	-9,587
342,9	-13,627
343,3	-19,147
343,8	-19,227
344,2	-21,827
344,7	-19,307
345,2	-16,347
345,6	-13,907
346,1	-13,907
346,5	-14,067
347	-21,907
347,5	-24,107
347,9	-21,467
348,4	-23,947
348,8	-24,427
349,3	-18,627
349,8	-16,027
350,2	-12,827
350,7	-10,307
351,1	-12,387
351,6	-12,267
352	-11,387
352,5	-12,907
353	-12,027
353,4	-7,587
353,9	0,653
354,3	6,293
354,8	9,733
355,3	22,973
355,7	31,613
356,2	33,693
356,6	42,173
357,1	55,293
357,5	61,773
358	78,493
358,5	98,933
358,9	114,893
359,4	127,293
359,8	143,693
360,3	167,893
360,8	195,453
361,2	230,813
361,7	273,653
362,1	317,573
362,6	359,533
363	405,093
363,5	453,013
364	503,973
364,4	562,133
364,9	617,333
365,3	670,653
365,8	723,653
366,3	772,493
366,7	814,133
367,2	854,293
367,6	886,373
368,1	914,613
368,5	927,093
369	938,173
369,5	936,253
369,9	931,413
370,4	915,493
370,8	901,573
371,3	881,093
371,7	851,253
372,2	814,893
372,7	777,653
373,1	738,173
373,6	685,013
374	644,333
374,5	604,013
374,9	558,853
375,4	514,853
375,9	478,733
376,3	437,373
376,8	400,573
377,2	371,693
377,7	335,933
378,2	306,013
378,6	280,573
379,1	252,573
379,5	225,493
380	208,853
380,4	189,893
380,9	173,413
381,4	158,293
381,8	148,813
382,3	139,573
382,7	127,133
383,2	114,333
383,6	108,253
384,1	96,013
384,6	85,413
385	78,093
385,5	77,013
385,9	65,933
386,4	62,853
386,8	54,613
387,3	53,933
387,7	45,813
388,2	42,253
388,7	39,213
389,1	37,933
389,6	34,213
390	27,573
390,5	25,013
390,9	18,173
391,4	13,333
391,9	10,413
392,3	11,613
392,8	11,133
393,2	11,093
393,7	14,253
394,1	13,813
394,6	16,013
395,1	16,493
395,5	17,173
396	11,173
396,4	7,693
396,9	11,213
397,3	13,333
397,8	11,613
398,2	20,053
398,7	22,453
399,2	16,373
399,6	14,293
400,1	19,373
400,5	12,293
401	12,693
401,4	16,333
401,9	13,613
402,4	7,173
402,8	7,373
403,3	5,333
403,7	0,533
404,2	2,613
404,6	4,013
405,1	12,493
405,5	15,613
406	16,933
406,5	20,533
406,9	21,093
407,4	19,293
407,8	20,133
408,3	25,293
408,7	24,733
409,2	27,773
409,6	28,013
410,1	33,693
410,6	41,053
411	48,493
411,5	55,253
411,9	65,133
412,4	67,093
412,8	64,733
413,3	64,933
413,7	75,053
414,2	72,533
414,7	77,213
415,1	82,213
415,6	87,133
416	85,173
416,5	89,693
416,9	101,253
417,4	104,933
417,8	105,053
418,3	113,133
418,8	121,093
419,2	123,693
419,7	133,733
420,1	150,293
420,6	153,813
421	162,653
421,5	157,493
421,9	171,013
422,4	176,813
422,8	184,333
423,3	188,493
423,8	203,853
424,2	204,053
424,7	207,173
425,1	216,533
425,6	223,693
426	235,973
426,5	241,333
426,9	251,973
427,4	257,533
427,9	272,333
428,3	275,893
428,8	288,893
429,2	303,453
429,7	314,813
430,1	322,853
430,6	332,453
431	335,533
431,5	346,173
431,9	349,653
432,4	363,253
432,8	385,413
433,3	406,253
433,8	415,053
434,2	436,613
434,7	446,893
435,1	455,213
435,6	475,093
436	497,453
436,5	516,693
436,9	534,853
437,4	557,613
437,8	571,573
438,3	587,013
438,8	603,213
439,2	623,773
439,7	642,853
440,1	663,573
440,6	679,093
441	706,453
441,5	729,053
441,9	743,853
442,4	763,973
442,8	797,653
443,3	818,413
443,7	843,933
444,2	877,093
444,7	901,733
445,1	922,013
445,6	940,493
446	959,933
446,5	985,893
446,9	1013,213
447,4	1036,133
447,8	1071,093
448,3	1102,133
448,7	1121,133
449,2	1149,573
449,6	1179,013
450,1	1205,693
450,6	1235,213
451	1262,773
451,5	1284,933
451,9	1306,413
452,4	1330,053
452,8	1355,413
453,3	1377,133
453,7	1411,653
454,2	1445,333
454,6	1477,253
455,1	1501,733
455,5	1538,533
456	1560,773
456,4	1582,973
456,9	1608,573
457,3	1643,133
457,8	1675,373
458,3	1701,693
458,7	1734,213
459,2	1763,493
459,6	1787,613
460,1	1809,093
460,5	1839,413
461	1860,333
461,4	1882,773
461,9	1911,853
462,3	1942,693
462,8	1970,013
463,2	2005,493
463,7	2033,493
464,1	2061,693
464,6	2083,093
465	2103,573
465,5	2125,973
466	2148,773
466,4	2164,853
466,9	2194,253
467,3	2224,813
467,8	2251,213
468,2	2272,933
468,7	2294,813
469,1	2308,093
469,6	2325,653
470	2332,333
470,5	2355,893
470,9	2371,053
471,4	2385,853
471,8	2400,933
472,3	2422,013
472,7	2434,373
473,2	2459,133
473,6	2470,853
474,1	2481,773
474,5	2496,213
475	2505,453
475,4	2511,693
475,9	2532,253
476,4	2549,733
476,8	2555,893
477,3	2570,893
477,7	2583,773
478,2	2583,893
478,6	2585,053
479,1	2602,413
479,5	2605,693
480	2609,813
480,4	2616,373
480,9	2622,853
481,3	2621,653
481,8	2631,213
482,2	2637,813
482,7	2642,973
483,1	2639,653
483,6	2639,613
484	2637,293
484,5	2630,973
484,9	2631,573
485,4	2636,453
485,8	2634,173
486,3	2630,653
486,7	2630,653
487,2	2628,093
487,6	2618,813
488,1	2624,813
488,5	2618,613
489	2618,773
489,4	2611,613
489,9	2614,773
490,4	2604,293
490,8	2599,653
491,3	2582,173
491,7	2572,893
492,2	2558,173
492,6	2537,373
493,1	2525,573
493,5	2521,293
494	2513,933
494,4	2505,813
494,9	2498,333
495,3	2481,853
495,8	2463,173
496,2	2455,013
496,7	2442,173
497,1	2433,053
497,6	2429,493
498	2417,053
498,5	2404,053
498,9	2390,973
499,4	2379,133
499,8	2358,933
500,3	2344,533
500,7	2328,493
501,2	2311,573
501,6	2299,053
502,1	2291,893
502,5	2283,333
503	2266,733
503,4	2255,013
503,9	2237,293
504,3	2223,733
504,8	2204,413
505,2	2192,813
505,7	2178,773
506,1	2167,173
506,6	2147,453
507	2138,413
507,5	2121,693
507,9	2108,813
508,4	2089,693
508,8	2077,453
509,3	2053,173
509,7	2037,453
510,2	2019,173
510,6	2006,213
511,1	1984,533
511,5	1965,013
512	1937,533
512,4	1917,693
512,9	1900,773
513,3	1887,053
513,8	1881,733
514,2	1875,013
514,7	1857,973
515,1	1835,013
515,6	1816,533
516	1789,693
516,5	1778,493
516,9	1761,653
517,4	1746,613
517,8	1729,413
518,3	1718,813
518,7	1688,253
519,2	1670,293
519,6	1654,693
520,1	1638,613
520,5	1621,173
521	1609,733
521,4	1588,213
521,9	1571,973
522,3	1559,813
522,8	1544,293
523,2	1529,453
523,7	1525,053
524,1	1510,093
524,6	1487,933
525	1473,773
525,5	1457,493
525,9	1436,933
526,4	1423,013
526,8	1401,533
527,3	1383,293
527,7	1369,773
528,2	1353,453
528,6	1337,093
529,1	1332,013
529,5	1323,733
530	1306,533
530,4	1292,613
530,9	1267,733
531,3	1249,733
531,8	1233,733
532,2	1226,893
532,6	1216,053
533,1	1208,493
533,5	1199,013
534	1181,133
534,4	1160,293
534,9	1137,693
535,3	1126,293
535,8	1111,813
536,2	1097,893
536,7	1084,933
537,1	1076,133
537,6	1062,533
538	1049,933
538,5	1040,613
538,9	1029,693
539,4	1020,573
539,8	1011,573
540,3	996,373
540,7	979,173
541,2	966,573
541,6	956,013
542,1	943,093
542,5	933,693
543	921,213
543,4	902,973
543,9	887,373
544,3	876,653
544,8	862,653
545,2	850,533
545,7	842,733
546,1	838,613
546,5	826,693
547	817,093
547,4	813,253
547,9	802,773
548,3	788,693
548,8	782,493
549,2	773,253
549,7	765,853
550,1	765,533
550,6	755,813
551	743,093
551,5	732,253
551,9	719,413
552,4	710,013
552,8	697,853
553,3	691,093
553,7	685,173
554,2	673,213
554,6	659,733
555,1	661,773
555,5	653,853
555,9	646,133
556,4	641,813
556,8	639,693
557,3	625,413
557,7	616,493
558,2	609,373
558,6	606,253
559,1	586,693
559,5	581,653
560	570,533
560,4	559,493
560,9	546,133
561,3	544,893
561,8	538,133
562,2	535,293
562,7	535,213
563,1	528,853
563,6	521,853
564	517,773
564,4	511,013
564,9	503,893
565,3	505,333
565,8	501,773
566,2	496,093
566,7	490,173
567,1	482,973
567,6	475,813
568	473,053
568,5	470,333
568,9	462,733
569,4	454,213
569,8	446,773
570,3	436,173
570,7	425,453
571,1	426,493
571,6	428,173
572	418,853
572,5	421,213
572,9	414,213
573,4	403,853
573,8	392,853
574,3	390,333
574,7	379,733
575,2	373,053
575,6	367,533
576,1	362,093
576,5	361,213
576,9	359,013
577,4	355,493
577,8	353,693
578,3	350,933
578,7	342,253
579,2	331,413
579,6	331,013
580,1	330,493
580,5	329,293
581	326,533
581,4	330,293
581,9	320,693
582,3	313,493
582,7	307,293
583,2	302,293
583,6	296,373
584,1	296,813
584,5	295,133
585	289,093
585,4	286,573
585,9	285,093
586,3	282,213
586,8	277,893
587,2	273,373
587,6	273,813
588,1	265,653
588,5	261,053
589	258,413
589,4	261,093
589,9	254,373
590,3	255,453
590,8	254,613
591,2	252,653
591,7	254,413
592,1	253,653
592,5	250,853
593	247,613
593,4	243,453
593,9	230,973
594,3	226,493
594,8	224,573
595,2	222,453
595,7	218,413
596,1	222,773
596,6	221,693
597	217,053
597,4	212,733
597,9	211,933
598,3	209,853
598,8	212,173
599,2	209,493
599,7	212,693
600,1	215,373
600,6	209,093
601	204,013
601,4	205,773
601,9	199,053
602,3	187,013
602,8	185,293
603,2	180,733
603,7	174,333
604,1	174,973
604,6	176,933
605	182,253
605,4	182,933
605,9	179,493
606,3	176,453
606,8	179,173
607,2	168,333
607,7	164,853
608,1	172,413
608,6	169,773
609	165,733
609,4	166,253
609,9	159,933
610,3	156,533
610,8	156,493
611,2	151,493
611,7	149,413
612,1	156,133
612,6	148,173
613	149,133
613,4	150,733
613,9	156,213
614,3	151,773
614,8	157,293
615,2	159,853
615,7	156,933
616,1	149,733
616,6	149,693
617	144,453
617,4	139,973
617,9	141,013
618,3	140,493
618,8	134,973
619,2	135,973
619,7	136,213
620,1	130,773
620,5	127,533
621	131,853
621,4	125,853
621,9	120,253
622,3	123,813
622,8	130,533
623,2	126,973
623,6	131,653
624,1	132,413
624,5	124,813
625	112,173
625,4	105,493
625,9	104,093
626,3	106,893
626,8	106,093
627,2	107,173
627,6	113,173
628,1	115,733
628,5	108,693
629	116,413
629,4	123,893
629,9	121,013
630,3	113,893
630,7	111,853
631,2	105,853
631,6	100,093
632,1	99,693
632,5	100,933
633	100,693
633,4	99,853
633,8	100,653
634,3	98,453
634,7	99,533
635,2	102,693
635,6	104,653
636,1	105,933
636,5	112,413
636,9	107,613
637,4	107,333
637,8	106,733
638,3	95,893
638,7	85,973
639,2	84,253
639,6	79,813
640	75,213
640,5	82,173
640,9	84,173
641,4	82,613
641,8	83,173
642,2	87,613
642,7	88,213
643,1	89,373
643,6	92,373
644	88,613
644,5	87,613
644,9	89,613
645,3	88,973
645,8	85,253
646,2	87,373
646,7	85,813
647,1	83,093
647,6	81,453
648	86,293
648,4	86,173
648,9	87,333
649,3	81,893
649,8	81,053
650,2	79,733
650,6	77,973
651,1	74,933
651,5	73,773
652	75,293
652,4	72,733
652,9	67,693
653,3	69,893
653,7	73,373
654,2	72,453
654,6	76,293
655,1	81,693
655,5	75,173
655,9	72,893
656,4	70,573
656,8	65,213
657,3	62,173
657,7	66,293
658,2	67,333
658,6	65,093
659	71,133
659,5	76,013
659,9	71,613
660,4	71,693
660,8	73,613
661,2	64,613
661,7	57,453
662,1	61,693
662,6	60,693
663	56,013
663,4	59,773
663,9	58,773
664,3	53,973
664,8	52,333
665,2	54,053
665,6	57,853
666,1	60,093
666,5	62,493
667	66,573
667,4	67,013
667,9	60,213
668,3	61,453
668,7	61,413
669,2	59,733
669,6	56,733
670,1	57,653
670,5	52,493
670,9	53,973
671,4	48,733
671,8	54,533
672,3	49,773
672,7	54,213
673,1	49,413
673,6	50,013
674	53,213
674,5	54,173
674,9	45,493
675,3	51,533
675,8	51,573
676,2	47,653
676,7	52,333
677,1	56,573
677,5	51,613
678	48,653
678,4	50,373
678,9	45,453
679,3	44,333
679,7	45,853
680,2	49,253
680,6	42,973
681,1	44,653
681,5	47,573
681,9	46,493
682,4	46,813
682,8	47,733
683,3	52,373
683,7	55,693
684,1	55,173
684,6	53,653
685	58,253
685,5	50,013
685,9	48,093
686,3	45,893
686,8	41,573
687,2	32,453
687,7	41,453
688,1	38,733
688,5	39,813
689	44,053
689,4	44,373
689,9	35,533
690,3	36,053
690,7	33,973
691,2	36,853
691,6	41,373
692	42,733
692,5	43,613
692,9	42,773
693,4	37,773
693,8	41,773
694,2	48,573
694,7	41,213
695,1	45,093
695,6	41,293
696	35,133
696,4	30,093
696,9	39,813
697,3	39,093
697,8	45,853
698,2	47,293
698,6	45,973
699,1	42,373
699,5	43,373
699,9	40,933
700,4	42,893
700,8	39,453
701,3	34,253
701,7	36,053
702,1	37,133
702,6	34,213
703	38,893
703,5	44,413
703,9	36,253
704,3	37,133
704,8	38,733
705,2	38,653
705,6	40,333
706,1	41,533
706,5	39,693
707	38,973
707,4	36,453
707,8	26,333
708,3	29,173
708,7	29,453
709,2	24,733
709,6	23,653
710	26,853
710,5	24,693
710,9	18,653
711,3	17,373
711,8	17,533
712,2	23,933
712,7	24,853
713,1	33,213
713,5	37,413
714	36,653
714,4	33,293
714,8	35,493
715,3	33,453
715,7	32,413
716,2	34,733
716,6	29,173
717	29,253
717,5	27,413
717,9	31,653
718,3	30,013
718,8	37,133
719,2	33,053
719,7	33,253
720,1	31,293
720,5	27,693
721	25,733
721,4	24,693
721,8	24,733
722,3	20,973
722,7	20,013
723,2	22,053
723,6	23,773
724	23,493
724,5	25,493
724,9	37,613
725,3	36,973
725,8	36,973
726,2	33,533
726,7	36,573
727,1	30,933
727,5	32,613
728	33,133
728,4	35,013
728,8	30,533
729,3	33,733
729,7	28,453
730,1	22,253
730,6	20,773
731	18,413
731,5	15,253
731,9	20,973
732,3	30,693
732,8	31,093
733,2	31,653
733,6	29,853
734,1	22,813
734,5	16,813
734,9	18,093
735,4	18,133
735,8	15,773
736,3	19,213
736,7	20,053
737,1	24,253
737,6	28,293
738	30,013
738,4	31,333
738,9	32,013
739,3	25,533
739,7	24,613
740,2	25,733
740,6	24,893
741,1	25,053
741,5	30,893
741,9	34,973
742,4	28,853
742,8	28,053
743,2	30,093
743,7	25,253
744,1	23,653
744,5	27,373
745	27,253
745,4	26,173
745,8	27,173
746,3	22,813
746,7	17,053
747,2	15,573
747,6	15,813
748	14,533
748,5	17,493
748,9	21,293
749,3	21,653
749,8	17,333
750,2	14,773
750,6	13,293
751,1	15,653
751,5	17,893
751,9	21,613
752,4	24,773
752,8	20,973
753,3	21,093
753,7	19,853
754,1	13,373
754,6	14,933
755	12,613
755,4	14,093
755,9	15,173
756,3	13,173
756,7	12,373
757,2	12,613
757,6	9,413
758	5,213
758,5	4,053
758,9	8,013
759,3	13,133
759,8	12,493
760,2	9,093
760,6	15,093
761,1	8,893
761,5	7,813
761,9	12,013
762,4	14,853
762,8	16,853
763,3	17,693
763,7	17,813
764,1	15,493
764,6	17,693
765	15,173
765,4	16,173
765,9	15,053
766,3	11,733
766,7	8,933
767,2	13,893
767,6	14,853
768	17,693
768,5	17,613
768,9	21,453
769,3	15,733
769,8	13,453
770,2	8,693
770,6	15,933
771,1	18,013
771,5	20,133
771,9	24,013
772,4	26,693
772,8	24,173
773,2	20,893
773,7	23,453
774,1	21,333
774,5	22,893
775	22,373
775,4	21,413
775,8	20,213
776,3	16,813
776,7	20,373
777,1	19,293
777,6	18,493
778	13,733
778,4	18,413
778,9	12,853
779,3	8,053
779,7	12,693
780,2	18,613
780,6	12,613
781	13,333
781,5	13,533
781,9	4,893
782,3	0,653
782,8	4,773
783,2	7,933
783,6	11,493
784,1	14,973
784,5	12,733
784,9	12,533
785,4	13,093
785,8	15,413
786,2	6,413
786,7	12,413
787,1	7,373
787,5	0,333
788	-0,147
788,4	7,333
788,8	0,813
789,3	7,813
789,7	10,053
790,1	7,933
790,6	11,053
791	11,013
791,4	12,413
791,9	11,093
792,3	13,533
792,7	11,053
793,2	15,493
793,6	9,893
794	13,413
794,5	12,573
794,9	15,453
795,3	9,653
795,8	12,013
796,2	6,453
796,6	-0,387
797,1	-5,507
797,5	-1,827
797,9	-2,987
798,4	-0,867
798,8	9,373
799,2	14,813
799,7	14,973
800,1	14,933
800,5	17,733
801	9,493
801,4	2,293
801,8	5,893
802,2	8,573
802,7	8,373
803,1	9,653
803,5	13,613
804	12,613
804,4	6,973
804,8	4,973
805,3	9,373
805,7	9,493
806,1	7,613
806,6	8,893
807	6,253
807,4	0,213
807,9	0,613
808,3	1,653
808,7	0,533
809,2	3,653
809,6	1,213
810	-1,787
810,4	-3,947
810,9	-5,347
811,3	-10,187
811,7	-4,347
812,2	4,573
812,6	1,413
813	4,133
813,5	9,133
813,9	3,333
814,3	-1,347
814,8	4,373
815,2	0,653
815,6	-4,787
816,1	2,813
816,5	0,733
816,9	-1,587
817,3	2,813
817,8	7,533
818,2	3,053
818,6	1,173
819,1	-0,147
819,5	2,493
819,9	-1,467
820,4	-1,947
820,8	-0,107
821,2	-2,187
821,7	0,493
822,1	0,933
822,5	3,013
822,9	1,853
823,4	8,373
823,8	4,493
824,2	6,653
824,7	4,053
825,1	5,413
825,5	-0,827
826	-4,587
826,4	-7,867
826,8	-9,107
827,3	-7,987
827,7	-10,867
828,1	-7,987
828,5	-5,427
829	-1,947
829,4	-6,147
829,8	-0,747
830,3	1,013
830,7	7,413
831,1	2,773
831,6	6,093
832	3,733
832,4	-0,627
832,8	-5,107
833,3	3,213
833,7	3,093
834,1	-1,307
834,6	-1,467
835	-1,547
835,4	-4,307
835,8	-0,427
836,3	6,493
836,7	10,133
837,1	7,053
837,6	2,213
838	-3,387
838,4	-7,307
838,9	-12,667
839,3	-17,907
839,7	-12,427
840,1	-5,227
840,6	-7,347
841	-1,267
841,4	2,493
841,9	0,653
842,3	-8,587
842,7	-3,467
843,1	-5,987
843,6	-8,987
844	-10,667
844,4	-6,667
844,9	-8,547
845,3	-9,547
845,7	-0,547
846,2	0,253
846,6	2,413
847	-1,667
847,4	-3,947
847,9	-5,547
848,3	-9,507
848,7	-13,987
849,2	-7,227
849,6	-9,827
850	-10,627
850,4	-9,427
850,9	-9,427
851,3	-7,827
851,7	-8,747
852,2	-9,587
852,6	-1,987
853	1,373
853,4	-0,307
853,9	4,813
854,3	8,293
854,7	4,653
855,2	3,413
855,6	-0,987
856	0,693
856,4	-2,107
856,9	-2,427
857,3	-6,067
857,7	-3,867
858,2	-6,307
858,6	-8,907
859	-14,427
859,4	-5,147
859,9	-1,987
860,3	2,053
860,7	3,093
861,1	10,973
861,6	6,373
862	0,213
862,4	-4,187
862,9	-6,427
863,3	-10,987
863,7	-19,067
864,1	-15,947
864,6	-18,907
865	-11,347
865,4	-13,027
865,9	-11,107
866,3	-10,947
866,7	-3,627
867,1	-5,907
867,6	-6,547
868	-4,707
868,4	-7,067
868,8	-10,667
869,3	-8,587
869,7	-9,147
870,1	-6,467
870,6	-2,867
871	0,693
871,4	-3,027
871,8	-3,427
872,3	-10,267
872,7	-14,307
873,1	-19,067
873,5	-16,547
874	-14,907
874,4	-6,787
874,8	-10,547
875,3	-6,907
875,7	-11,147
876,1	-12,067
876,5	-17,347
877	-9,147
877,4	-13,947
877,8	-14,627
878,2	-9,547
878,7	-3,987
879,1	-2,147
879,5	-0,107
879,9	-0,347
880,4	-0,307
880,8	-3,867
881,2	-9,267
881,7	-11,427
882,1	-13,307
882,5	-14,627
882,9	-8,867
883,4	-6,067
883,8	0,653
884,2	3,053
884,6	1,133
885,1	-4,667
885,5	-5,187
885,9	-10,987
886,3	-10,627
886,8	-8,467
887,2	-6,107
887,6	-4,347
888	-8,107
888,5	-5,107
888,9	-2,707
889,3	-2,827
889,8	-6,027
890,2	2,733
890,6	4,613
891	-2,187
891,5	-5,947
891,9	-5,187
892,3	-9,027
892,7	-12,947
893,2	-7,787
893,6	-6,067
894	-1,467
894,4	-6,507
894,9	-9,827
895,3	-11,387
895,7	-4,867
896,1	-9,107
896,6	-1,227
897	-1,347
897,4	0,493
897,8	-1,027
898,3	-3,387
898,7	-5,507
899,1	-4,067
899,5	-6,667
900	-18,227
900,4	-12,907
900,8	-14,827
901,2	-11,427
901,7	-9,987
902,1	-6,987
902,5	-7,427
902,9	-5,707
903,4	-9,747
903,8	-11,587
904,2	-4,387
904,6	-15,747
905,1	-17,747
905,5	-15,987
905,9	-11,947
906,3	-15,747
906,8	-9,147
907,2	-9,947
907,6	-15,547
908	-17,867
908,5	-19,667
908,9	-17,867
909,3	-18,227
909,7	-15,147
910,2	-17,627
910,6	-16,987
911	-20,507
911,4	-20,387
911,9	-17,547
912,3	-18,107
912,7	-15,947
913,1	-10,387
913,6	-6,187
914	-11,067
914,4	-13,627
914,8	-18,027
915,3	-23,747
915,7	-23,867
916,1	-18,827
916,5	-13,787
916,9	-8,267
917,4	-2,467
917,8	-3,787
918,2	0,813
918,6	-3,707
919,1	-6,067
919,5	-14,827
919,9	-15,267
920,3	-20,187
920,8	-11,467
921,2	-14,307
921,6	-11,707
922	-16,547
922,5	-16,107
922,9	-22,947
923,3	-17,747
923,7	-14,547
924,2	-11,027
924,6	-14,547
925	-12,707
925,4	-13,867
925,8	-15,987
926,3	-16,187
926,7	-16,307
927,1	-14,747
927,5	-14,107
928	-12,587
928,4	-13,467
928,8	-6,627
929,2	-8,987
929,7	-8,307
930,1	-9,107
930,5	-3,987
930,9	-10,587
931,3	-11,027
931,8	-16,387
932,2	-12,067
932,6	-23,027
933	-22,587
933,5	-23,107
933,9	-14,907
934,3	-18,307
934,7	-11,387
935,2	-7,867
935,6	-7,707
936	-12,387
936,4	-14,027
936,8	-16,427
937,3	-16,867
937,7	-13,547
938,1	-19,227
938,5	-19,347
939	-18,267
939,4	-18,547
939,8	-20,587
940,2	-13,547
940,6	-13,667
941,1	-16,507
941,5	-19,267
941,9	-23,827
942,3	-22,627
942,8	-23,067
943,2	-13,587
943,6	-13,387
944	-10,627
944,4	-14,267
944,9	-11,907
945,3	-18,387
945,7	-17,987
946,1	-21,547
946,6	-23,147
947	-19,867
947,4	-16,307
947,8	-10,307
948,2	-3,107
948,7	-4,507
949,1	-2,667
949,5	-3,867
949,9	-6,987
950,3	-11,027
950,8	-9,507
951,2	-11,147
951,6	-12,907
952	-17,427
952,5	-15,027
952,9	-12,267
953,3	-19,187
953,7	-14,187
954,1	-14,027
954,6	-15,107
955	-14,947
955,4	-13,747
955,8	-17,347
956,2	-19,307
956,7	-21,587
957,1	-27,907
957,5	-26,587
957,9	-27,827
958,3	-20,667
958,8	-17,307
959,2	-14,387
959,6	-12,387
960	-11,547
960,5	-10,547
960,9	-13,467
961,3	-13,507
961,7	-12,707
962,1	-13,387
962,6	-16,147
963	-12,587
963,4	-7,347
963,8	-9,427
964,2	-11,827
964,7	-12,027
965,1	-15,947
965,5	-24,267
965,9	-24,027
966,3	-19,147
966,8	-18,227
967,2	-18,627
967,6	-15,107
968	-16,507
968,4	-19,627
968,9	-22,507
969,3	-18,147
969,7	-16,347
970,1	-17,827
970,5	-18,467
971	-18,507
971,4	-18,467
971,8	-14,667
972,2	-11,507
972,6	-11,987
973,1	-11,787
973,5	-14,307
973,9	-20,307
974,3	-20,107
974,7	-12,987
975,2	-10,947
975,6	-9,427
976	-10,027
976,4	-13,427
976,8	-15,067
977,3	-16,147
977,7	-14,787
978,1	-11,027
978,5	-6,427
978,9	-14,867
979,4	-11,347
979,8	-6,467
980,2	-6,347
980,6	-5,787
981	0,213
981,5	-0,107
981,9	-6,227
982,3	-11,427
982,7	-12,547
983,1	-13,427
983,6	-11,307
984	-6,187
984,4	-0,987
984,8	-0,707
985,2	-0,507
985,6	-6,787
986,1	-15,587
986,5	-18,627
986,9	-19,067
987,3	-24,507
987,7	-21,947
988,2	-21,587
988,6	-19,187
989	-19,747
989,4	-22,107
989,8	-25,867
990,3	-28,667
990,7	-30,987
991,1	-31,147
991,5	-18,507
991,9	-15,747
992,3	-13,307
992,8	-12,067
993,2	-8,307
993,6	-8,707
994	-9,267
994,4	-5,787
994,9	-0,427
995,3	-4,387
995,7	-15,227
996,1	-18,107
996,5	-15,427
996,9	-25,507
997,4	-27,747
997,8	-24,947
998,2	-26,547
998,6	-30,507
999	-25,147
999,5	-23,227
999,9	-21,987
1000,3	-15,627
1000,7	-14,787
1001,1	-13,187
1001,5	-12,427
1002	-11,347
1002,4	-11,307
1002,8	-15,747
1003,2	-20,627
1003,6	-21,747
1004	-17,067
1004,5	-23,627
1004,9	-18,267
1005,3	-23,387
1005,7	-25,587
1006,1	-30,987
1006,6	-24,027
1007	-24,947
1007,4	-16,067
1007,8	-15,667
1008,2	-14,307
1008,6	-13,587
1009,1	-16,907
1009,5	-19,787
1009,9	-22,587
1010,3	-20,227
1010,7	-22,107
1011,1	-17,867
1011,6	-11,547
1012	-4,307
1012,4	-9,387
1012,8	-15,067
1013,2	-18,347
1013,6	-25,267
1014,1	-29,987
1014,5	-21,347
1014,9	-20,227
1015,3	-16,107
1015,7	-9,187
1016,1	-11,947
1016,6	-21,107
1017	-19,027
1017,4	-16,747
1017,8	-21,947
1018,2	-13,787
1018,6	-13,307
1019,1	-12,347
1019,5	-13,667
1019,9	-9,827
1020,3	-15,467
1020,7	-18,467
1021,1	-18,347
1021,6	-17,947
1022	-19,147
1022,4	-14,147
1022,8	-8,067
1023,2	-6,507
1023,6	-13,747
1024,1	-17,707
1024,5	-25,987
1024,9	-30,907
1025,3	-34,187
1025,7	-28,027
1026,1	-24,827
1026,6	-22,427
1027	-18,267
1027,4	-20,787
1027,8	-20,587
1028,2	-24,947
1028,6	-16,107
1029	-19,227
1029,5	-17,107
1029,9	-21,347
1030,3	-20,147
1030,7	-27,867
1031,1	-24,427
1031,5	-23,987
1032	-24,147
1032,4	-25,427
1032,8	-26,067
1033,2	-30,987
1033,6	-32,947
1034	-32,307
1034,4	-28,547
1034,9	-24,707
1035,3	-23,107
1035,7	-25,067
1036,1	-29,747
1036,5	-26,227
1036,9	-25,267
1037,4	-25,867
1037,8	-14,747
1038,2	-8,907
1038,6	-14,507
1039	-17,627
1039,4	-13,267
1039,8	-21,467
1040,3	-24,187
1040,7	-20,307
1041,1	-22,907
1041,5	-25,547
1041,9	-26,027
1042,3	-31,067
1042,7	-33,227
1043,2	-29,667
1043,6	-24,067
1044	-26,667
1044,4	-13,987
1044,8	-16,507
1045,2	-13,747
1045,6	-12,147
1046,1	-8,707
1046,5	-12,907
1046,9	-12,827
1047,3	-11,027
1047,7	-14,067
1048,1	-15,507
1048,5	-20,947
1049	-18,827
1049,4	-20,747
1049,8	-23,027
1050,2	-17,547
1050,6	-9,027
1051	-3,067
1051,4	-6,427
1051,9	-5,187
1052,3	-5,947
1052,7	-11,507
1053,1	-12,067
1053,5	-16,227
1053,9	-14,827
1054,3	-18,307
1054,8	-19,867
1055,2	-20,787
1055,6	-19,467
1056	-23,787
1056,4	-23,467
1056,8	-21,587
1057,2	-19,707
1057,6	-11,187
1058,1	-9,267
1058,5	-10,907
1058,9	-11,027
1059,3	-14,867
1059,7	-20,347
1060,1	-21,827
1060,5	-21,267
1061	-25,827
1061,4	-31,147
1061,8	-29,387
1062,2	-30,667
1062,6	-31,827
1063	-25,867
1063,4	-24,267
1063,8	-19,307
1064,3	-16,547
1064,7	-10,987
1065,1	-12,387
1065,5	-10,467
1065,9	-16,907
1066,3	-19,107
1066,7	-25,267
1067,1	-22,307
1067,6	-23,547
1068	-24,747
1068,4	-17,027
1068,8	-16,507
1069,2	-17,027
1069,6	-16,907
1070	-8,107
1070,4	-15,187
1070,9	-19,627
1071,3	-20,667
1071,7	-19,667
1072,1	-29,267
1072,5	-28,467
1072,9	-22,307
1073,3	-27,747
1073,7	-26,747
1074,2	-30,987
1074,6	-29,747
1075	-28,307
1075,4	-21,067
1075,8	-26,827
1076,2	-21,347
1076,6	-22,867
1077	-18,667
1077,5	-24,587
1077,9	-15,867
1078,3	-15,707
1078,7	-12,467
1079,1	-20,147
1079,5	-18,347
1079,9	-21,347
1080,3	-20,587
1080,7	-24,587
1081,2	-21,827
1081,6	-14,427
1082	-18,947
1082,4	-16,707
1082,8	-11,467
1083,2	-6,387
1083,6	-9,467
1084	-3,867
1084,5	-10,787
1084,9	-9,467
1085,3	-12,267
1085,7	-19,347
1086,1	-20,107
1086,5	-17,267
1086,9	-22,067
1087,3	-27,147
1087,7	-21,747
1088,2	-18,547
1088,6	-17,467
1089	-18,907
1089,4	-14,587
1089,8	-15,347
1090,2	-22,947
1090,6	-19,747
1091	-17,227
1091,4	-14,867
1091,9	-10,667
1092,3	-8,747
1092,7	-10,587
1093,1	-8,827
1093,5	-11,747
1093,9	-14,947
1094,3	-9,067
1094,7	-10,387
1095,1	-11,547
1095,5	-12,947
1096	-10,707
1096,4	-13,347
1096,8	-11,587
1097,2	-13,907
1097,6	-10,427
1098	-10,747
1098,4	-10,067
1098,8	-9,187
1099,2	-9,467
1099,6	-7,387
1100,1	-5,187
1100,5	-6,267
1100,9	-8,787
1101,3	-7,107
1101,7	-12,067
1102,1	-18,067
1102,5	-20,867
1102,9	-17,427
1103,3	-19,267
1103,7	-15,467
1104,2	-15,347
1104,6	-14,667
1105	-18,387
1105,4	-15,307
1105,8	-17,907
1106,2	-13,147
1106,6	-9,667
1107	-4,987
1107,4	-3,507
1107,8	-0,367
1108,3	-0,733
