Data from Subt2_00031.txt Node
Date: Fri Aug 11 15:46:00 MSK 2023
User: vat
Spectrometer: MAYP114033
Trigger mode: 0
Integration Time (sec): 5,000000E-1
Scans to average: 5
Electric dark correction enabled: true
Nonlinearity correction enabled: false
Boxcar width: 2
XAxis mode: Wavelengths
Number of Pixels in Spectrum: 2068
>>>>>Begin Spectral Data<<<<<
199,4	0,033
199,9	0,433
200,4	-9,767
200,8	-18,007
201,3	-28,487
201,8	-35,767
202,2	-44,767
202,7	-44,967
203,2	-45,007
203,6	-43,607
204,1	-47,047
204,6	-53,727
205	-58,167
205,5	-65,367
206	-63,567
206,4	-66,567
206,9	-66,887
207,4	-68,407
207,8	-65,767
208,3	-65,967
208,8	-63,927
209,2	-62,567
209,7	-64,247
210,2	-67,687
210,6	-68,887
211,1	-71,167
211,5	-68,247
212	-65,687
212,5	-60,567
212,9	-68,087
213,4	-71,687
213,9	-75,727
214,3	-72,527
214,8	-79,287
215,3	-71,407
215,7	-68,327
216,2	-70,927
216,7	-75,487
217,1	-71,727
217,6	-81,527
218,1	-83,367
218,5	-80,807
219	-85,487
219,5	-92,687
219,9	-91,807
220,4	-88,847
220,9	-86,167
221,3	-76,327
221,8	-69,327
222,3	-71,807
222,7	-77,687
223,2	-81,367
223,6	-90,127
224,1	-91,967
224,6	-91,687
225	-91,647
225,5	-94,727
226	-93,167
226,4	-91,647
226,9	-85,567
227,4	-78,367
227,8	-73,887
228,3	-72,447
228,8	-72,687
229,2	-80,007
229,7	-89,727
230,2	-90,967
230,6	-90,647
231,1	-94,127
231,5	-93,007
232	-89,407
232,5	-86,167
232,9	-82,927
233,4	-83,487
233,9	-81,807
234,3	-81,567
234,8	-85,647
235,3	-87,807
235,7	-87,487
236,2	-84,287
236,7	-84,567
237,1	-83,247
237,6	-82,007
238,1	-78,247
238,5	-81,087
239	-82,807
239,4	-77,807
239,9	-78,287
240,4	-82,527
240,8	-80,247
241,3	-79,127
241,8	-90,207
242,2	-95,567
242,7	-97,767
243,2	-94,287
243,6	-88,407
244,1	-87,487
244,6	-78,807
245	-71,327
245,5	-77,647
245,9	-82,287
246,4	-76,247
246,9	-88,127
247,3	-90,167
247,8	-87,927
248,3	-85,047
248,7	-82,647
249,2	-72,567
249,7	-72,887
250,1	-71,487
250,6	-75,287
251	-78,207
251,5	-83,407
252	-83,367
252,4	-81,727
252,9	-77,407
253,4	-78,967
253,8	-73,927
254,3	-83,007
254,8	-89,567
255,2	-88,407
255,7	-86,607
256,1	-84,167
256,6	-72,807
257,1	-70,647
257,5	-72,007
258	-73,087
258,5	-72,767
258,9	-72,887
259,4	-70,007
259,9	-74,607
260,3	-73,327
260,8	-76,887
261,2	-83,807
261,7	-87,967
262,2	-90,807
262,6	-93,247
263,1	-96,847
263,6	-95,487
264	-92,407
264,5	-86,487
264,9	-91,487
265,4	-94,887
265,9	-88,607
266,3	-91,607
266,8	-89,647
267,3	-86,167
267,7	-75,847
268,2	-80,327
268,7	-75,087
269,1	-82,087
269,6	-81,047
270	-81,847
270,5	-79,087
271	-89,687
271,4	-82,567
271,9	-83,527
272,4	-85,767
272,8	-94,967
273,3	-92,567
273,7	-94,007
274,2	-94,007
274,7	-93,647
275,1	-82,807
275,6	-79,207
276,1	-83,447
276,5	-87,407
277	-88,687
277,4	-97,887
277,9	-97,687
278,4	-95,527
278,8	-90,327
279,3	-90,967
279,8	-82,487
280,2	-77,767
280,7	-75,887
281,1	-73,647
281,6	-78,567
282,1	-80,167
282,5	-92,207
283	-91,727
283,4	-89,927
283,9	-81,287
284,4	-78,047
284,8	-67,127
285,3	-69,327
285,8	-70,407
286,2	-75,567
286,7	-77,607
287,1	-85,327
287,6	-86,887
288,1	-86,887
288,5	-85,287
289	-88,047
289,5	-88,247
289,9	-81,567
290,4	-83,887
290,8	-83,207
291,3	-81,727
291,8	-74,567
292,2	-80,767
292,7	-76,927
293,1	-77,807
293,6	-81,927
294,1	-83,127
294,5	-85,647
295	-85,807
295,5	-85,007
295,9	-81,727
296,4	-87,887
296,8	-86,247
297,3	-84,607
297,8	-93,247
298,2	-89,007
298,7	-85,007
299,1	-79,167
299,6	-77,767
300,1	-70,527
300,5	-74,727
301	-68,207
301,5	-74,967
301,9	-79,207
302,4	-78,407
302,8	-78,807
303,3	-80,447
303,8	-80,967
304,2	-81,567
304,7	-85,727
305,1	-85,527
305,6	-87,487
306,1	-83,447
306,5	-86,247
307	-77,647
307,4	-73,487
307,9	-74,847
308,4	-74,727
308,8	-73,567
309,3	-76,767
309,8	-78,687
310,2	-74,207
310,7	-79,887
311,1	-79,127
311,6	-78,327
312,1	-77,487
312,5	-82,127
313	-72,607
313,4	-72,247
313,9	-68,327
314,4	-71,407
314,8	-68,927
315,3	-73,447
315,7	-73,007
316,2	-78,527
316,7	-82,487
317,1	-87,407
317,6	-87,767
318	-86,127
318,5	-91,647
319	-89,247
319,4	-93,047
319,9	-91,047
320,3	-86,687
320,8	-93,407
321,3	-93,447
321,7	-85,527
322,2	-81,447
322,6	-83,647
323,1	-75,247
323,6	-70,127
324	-65,847
324,5	-69,967
324,9	-71,727
325,4	-65,287
325,9	-70,527
326,3	-76,087
326,8	-77,607
327,2	-79,207
327,7	-87,087
328,2	-81,047
328,6	-84,767
329,1	-84,327
329,5	-79,847
330	-73,487
330,5	-74,847
330,9	-73,167
331,4	-73,167
331,8	-78,647
332,3	-79,487
332,8	-79,087
333,2	-78,607
333,7	-78,407
334,1	-77,127
334,6	-73,527
335,1	-74,047
335,5	-69,567
336	-72,127
336,4	-69,167
336,9	-73,007
337,4	-73,967
337,8	-76,447
338,3	-71,007
338,7	-74,767
339,2	-70,127
339,7	-71,967
340,1	-73,047
340,6	-74,087
341	-72,807
341,5	-78,487
342	-80,367
342,4	-79,807
342,9	-84,047
343,3	-86,607
343,8	-91,007
344,2	-87,687
344,7	-87,007
345,2	-80,327
345,6	-78,647
346,1	-73,767
346,5	-71,487
347	-68,527
347,5	-68,407
347,9	-61,487
348,4	-57,047
348,8	-54,087
349,3	-47,047
349,8	-41,007
350,2	-33,087
350,7	-29,887
351,1	-20,727
351,6	-18,207
352	-8,807
352,5	3,953
353	35,673
353,4	55,473
353,9	89,153
354,3	125,113
354,8	169,873
355,3	220,033
355,7	286,713
356,2	363,033
356,6	441,113
357,1	534,233
357,5	641,633
358	761,193
358,5	901,033
358,9	1079,673
359,4	1272,553
359,8	1477,553
360,3	1722,313
360,8	1990,833
361,2	2283,153
361,7	2596,233
362,1	2961,833
362,6	3346,353
363	3770,633
363,5	4201,793
364	4668,193
364,4	5132,193
364,9	5616,313
365,3	6081,233
365,8	6539,553
366,3	6953,833
366,7	7334,713
367,2	7653,073
367,6	7912,433
368,1	8100,953
368,5	8242,193
369	8305,313
369,5	8299,393
369,9	8234,113
370,4	8099,233
370,8	7896,873
371,3	7644,713
371,7	7348,153
372,2	7012,233
372,7	6653,833
373,1	6274,353
373,6	5893,313
374	5508,953
374,5	5124,953
374,9	4762,393
375,4	4405,713
375,9	4057,473
376,3	3734,353
376,8	3413,553
377,2	3115,513
377,7	2842,073
378,2	2592,113
378,6	2354,113
379,1	2150,953
379,5	1961,393
380	1785,833
380,4	1624,953
380,9	1480,953
381,4	1347,913
381,8	1224,033
382,3	1121,953
382,7	1024,833
383,2	947,513
383,6	875,313
384,1	808,953
384,6	740,633
385	686,633
385,5	623,353
385,9	568,993
386,4	528,113
386,8	490,393
387,3	440,793
387,7	399,793
388,2	367,193
388,7	336,313
389,1	297,033
389,6	273,153
390	243,073
390,5	217,473
390,9	182,673
391,4	160,953
391,9	140,513
392,3	129,473
392,8	113,873
393,2	104,673
393,7	96,913
394,1	89,913
394,6	75,193
395,1	63,873
395,5	57,513
396	49,433
396,4	35,473
396,9	29,273
397,3	19,073
397,8	5,153
398,2	-4,047
398,7	-6,767
399,2	-15,687
399,6	-15,767
400,1	-15,527
400,5	-13,327
401	-20,327
401,4	-20,207
401,9	-23,207
402,4	-28,647
402,8	-37,527
403,3	-37,087
403,7	-37,687
404,2	-42,367
404,6	-46,327
405,1	-42,047
405,5	-44,447
406	-45,287
406,5	-47,567
406,9	-46,407
407,4	-50,007
407,8	-53,847
408,3	-54,047
408,7	-50,167
409,2	-45,967
409,6	-45,887
410,1	-45,927
410,6	-50,287
411	-54,807
411,5	-58,967
411,9	-54,847
412,4	-47,807
412,8	-45,167
413,3	-50,367
413,7	-48,607
414,2	-43,647
414,7	-44,887
415,1	-41,287
415,6	-29,367
416	-28,287
416,5	-32,047
416,9	-31,207
417,4	-29,127
417,8	-28,687
418,3	-25,647
418,8	-26,447
419,2	-24,927
419,7	-18,647
420,1	-22,247
420,6	-22,047
421	-24,847
421,5	-24,847
421,9	-29,007
422,4	-23,287
422,8	-18,607
423,3	-14,167
423,8	-8,127
424,2	-4,567
424,7	6,473
425,1	13,593
425,6	24,953
426	27,993
426,5	29,913
426,9	21,433
427,4	24,593
427,9	23,953
428,3	27,913
428,8	29,873
429,2	36,153
429,7	38,793
430,1	45,633
430,6	47,713
431	63,353
431,5	77,673
431,9	81,473
432,4	83,113
432,8	97,873
433,3	105,073
433,8	109,673
434,2	120,993
434,7	139,353
435,1	148,993
435,6	155,713
436	163,673
436,5	176,913
436,9	186,393
437,4	203,473
437,8	211,273
438,3	222,193
438,8	230,993
439,2	240,913
439,7	247,553
440,1	270,433
440,6	290,793
441	308,233
441,5	324,153
441,9	346,153
442,4	360,593
442,8	379,113
443,3	396,833
443,7	420,673
444,2	441,433
444,7	466,633
445,1	489,473
445,6	516,673
446	546,233
446,5	572,273
446,9	596,553
447,4	625,713
447,8	649,353
448,3	666,673
448,7	693,073
449,2	724,513
449,6	747,873
450,1	785,913
450,6	815,153
451	851,033
451,5	877,113
451,9	912,153
452,4	942,193
452,8	988,033
453,3	1020,433
453,7	1060,713
454,2	1098,633
454,6	1136,913
455,1	1169,113
455,5	1213,353
456	1249,713
456,4	1291,713
456,9	1334,753
457,3	1384,833
457,8	1426,393
458,3	1481,113
458,7	1529,913
459,2	1581,113
459,6	1623,873
460,1	1668,833
460,5	1707,153
461	1759,993
461,4	1804,753
461,9	1856,513
462,3	1909,433
462,8	1968,433
463,2	2019,313
463,7	2072,193
464,1	2129,633
464,6	2178,953
465	2231,593
465,5	2283,233
466	2337,633
466,4	2387,633
466,9	2439,753
467,3	2482,793
467,8	2523,953
468,2	2578,473
468,7	2628,073
469,1	2683,273
469,6	2736,153
470	2793,313
470,5	2832,833
470,9	2873,993
471,4	2917,513
471,8	2969,593
472,3	3015,353
472,7	3056,633
473,2	3106,673
473,6	3152,513
474,1	3182,673
474,5	3222,793
475	3271,353
475,4	3315,113
475,9	3357,953
476,4	3412,593
476,8	3454,753
477,3	3494,753
477,7	3520,913
478,2	3546,553
478,6	3569,833
479,1	3606,433
479,5	3635,673
480	3664,473
480,4	3692,193
480,9	3720,233
481,3	3740,033
481,8	3766,513
482,2	3792,873
482,7	3813,233
483,1	3828,993
483,6	3843,833
484	3858,633
484,5	3870,793
484,9	3875,993
485,4	3883,873
485,8	3890,913
486,3	3890,753
486,7	3898,873
487,2	3910,513
487,6	3921,313
488,1	3921,153
488,5	3931,233
489	3930,073
489,4	3936,033
489,9	3928,833
490,4	3925,353
490,8	3915,713
491,3	3908,913
491,7	3894,633
492,2	3879,993
492,6	3871,313
493,1	3855,313
493,5	3836,753
494	3818,313
494,4	3812,873
494,9	3792,513
495,3	3772,633
495,8	3762,273
496,2	3748,153
496,7	3725,753
497,1	3704,113
497,6	3675,473
498	3645,673
498,5	3619,473
498,9	3597,993
499,4	3578,153
499,8	3569,913
500,3	3548,513
500,7	3522,393
501,2	3492,473
501,6	3457,073
502,1	3428,233
502,5	3403,833
503	3378,153
503,4	3346,073
503,9	3334,273
504,3	3296,833
504,8	3260,793
505,2	3235,233
505,7	3211,633
506,1	3181,553
506,6	3158,153
507	3133,633
507,5	3113,233
507,9	3085,993
508,4	3052,353
508,8	3024,713
509,3	2996,953
509,7	2963,713
510,2	2933,393
510,6	2903,593
511,1	2870,993
511,5	2841,473
512	2804,313
512,4	2778,313
512,9	2752,553
513,3	2721,233
513,8	2696,993
514,2	2665,473
514,7	2628,593
515,1	2595,513
515,6	2568,033
516	2540,513
516,5	2512,433
516,9	2479,473
517,4	2452,073
517,8	2427,873
518,3	2397,713
518,7	2379,713
519,2	2361,353
519,6	2333,313
520,1	2314,953
520,5	2288,273
521	2254,393
521,4	2225,473
521,9	2203,793
522,3	2168,353
522,8	2140,593
523,2	2124,673
523,7	2111,553
524,1	2081,513
524,6	2059,633
525	2030,113
525,5	2001,793
525,9	1981,633
526,4	1962,393
526,8	1936,513
527,3	1914,593
527,7	1890,713
528,2	1857,193
528,6	1835,033
529,1	1811,953
529,5	1797,073
530	1776,953
530,4	1762,873
530,9	1739,433
531,3	1716,953
531,8	1705,593
532,2	1684,473
532,6	1663,273
533,1	1642,553
533,5	1630,473
534	1606,433
534,4	1591,433
534,9	1568,433
535,3	1563,753
535,8	1548,113
536,2	1530,113
536,7	1510,633
537,1	1492,113
537,6	1473,313
538	1449,473
538,5	1424,153
538,9	1406,073
539,4	1401,073
539,8	1379,273
540,3	1363,633
540,7	1360,473
541,2	1346,313
541,6	1327,833
542,1	1319,353
542,5	1313,073
543	1293,953
543,4	1283,633
543,9	1271,593
544,3	1248,993
544,8	1239,433
545,2	1234,033
545,7	1222,553
546,1	1210,273
546,5	1205,673
547	1190,393
547,4	1174,033
547,9	1162,673
548,3	1151,273
548,8	1139,073
549,2	1126,993
549,7	1112,593
550,1	1102,793
550,6	1087,473
551	1078,873
551,5	1072,513
551,9	1068,473
552,4	1054,113
552,8	1048,753
553,3	1037,113
553,7	1026,953
554,2	1017,233
554,6	1012,153
555,1	1001,073
555,5	993,473
555,9	980,553
556,4	974,673
556,8	973,993
557,3	969,713
557,7	959,633
558,2	956,313
558,6	947,793
559,1	930,753
559,5	917,233
560	912,833
560,4	903,073
560,9	892,033
561,3	886,393
561,8	883,793
562,2	877,953
562,7	869,873
563,1	868,153
563,6	860,713
564	859,873
564,4	854,833
564,9	851,913
565,3	838,833
565,8	836,953
566,2	827,993
566,7	818,473
567,1	804,153
567,6	797,633
568	792,953
568,5	786,113
568,9	773,713
569,4	774,273
569,8	770,873
570,3	763,113
570,7	757,673
571,1	755,993
571,6	750,753
572	747,433
572,5	743,273
572,9	735,473
573,4	737,633
573,8	733,193
574,3	725,313
574,7	720,393
575,2	714,873
575,6	700,513
576,1	694,713
576,5	683,553
576,9	671,713
577,4	668,313
577,8	659,473
578,3	659,393
578,7	660,633
579,2	659,673
579,6	658,553
580,1	656,993
580,5	651,673
581	650,153
581,4	639,193
581,9	625,953
582,3	620,073
582,7	615,953
583,2	601,113
583,6	602,033
584,1	599,473
584,5	595,473
585	582,313
585,4	581,993
585,9	576,433
586,3	573,393
586,8	569,193
587,2	569,953
587,6	571,353
588,1	573,193
588,5	570,273
589	574,793
589,4	565,793
589,9	563,393
590,3	553,953
590,8	551,233
591,2	540,553
591,7	541,753
592,1	541,073
592,5	537,273
593	529,793
593,4	522,273
593,9	516,673
594,3	502,193
594,8	498,433
595,2	495,353
595,7	500,073
596,1	502,273
596,6	509,953
597	506,873
597,4	509,913
597,9	504,953
598,3	496,793
598,8	494,233
599,2	489,673
599,7	482,313
600,1	482,193
600,6	473,393
601	459,113
601,4	459,073
601,9	455,953
602,3	450,353
602,8	452,593
603,2	453,313
603,7	445,793
604,1	435,473
604,6	430,953
605	431,513
605,4	423,073
605,9	425,113
606,3	424,873
606,8	429,793
607,2	426,993
607,7	429,993
608,1	425,393
608,6	431,953
609	423,713
609,4	420,993
609,9	417,553
610,3	415,233
610,8	403,313
611,2	395,913
611,7	396,993
612,1	393,193
612,6	388,833
613	384,953
613,4	388,553
613,9	379,553
614,3	379,873
614,8	377,193
615,2	377,793
615,7	379,353
616,1	374,073
616,6	362,113
617	364,553
617,4	365,153
617,9	359,193
618,3	353,833
618,8	357,233
619,2	352,273
619,7	349,513
620,1	341,033
620,5	344,953
621	342,833
621,4	341,793
621,9	338,993
622,3	333,913
622,8	332,673
623,2	324,033
623,6	321,913
624,1	318,113
624,5	327,753
625	321,473
625,4	325,113
625,9	319,313
626,3	319,713
626,8	310,473
627,2	309,233
627,6	309,193
628,1	311,513
628,5	304,033
629	297,593
629,4	293,993
629,9	294,393
630,3	285,833
630,7	285,913
631,2	281,473
631,6	278,593
632,1	275,433
632,5	278,153
633	272,993
633,4	276,233
633,8	267,833
634,3	260,833
634,7	252,913
635,2	248,553
635,6	243,753
636,1	248,353
636,5	247,153
636,9	238,833
637,4	242,033
637,8	244,873
638,3	236,993
638,7	232,753
639,2	239,393
639,6	238,473
640	239,673
640,5	242,153
640,9	239,833
641,4	230,393
641,8	222,753
642,2	217,993
642,7	217,513
643,1	210,833
643,6	214,273
644	213,513
644,5	203,313
644,9	204,233
645,3	207,553
645,8	204,473
646,2	203,353
646,7	209,673
647,1	199,913
647,6	198,273
648	195,913
648,4	200,033
648,9	194,513
649,3	195,633
649,8	200,353
650,2	210,153
650,6	207,113
651,1	205,353
651,5	204,793
652	202,633
652,4	189,113
652,9	184,193
653,3	185,673
653,7	182,313
654,2	174,673
654,6	176,673
655,1	167,633
655,5	160,273
655,9	161,353
656,4	157,593
656,8	147,113
657,3	152,953
657,7	154,633
658,2	149,353
658,6	150,433
659	159,513
659,5	156,433
659,9	153,633
660,4	155,953
660,8	156,473
661,2	153,153
661,7	151,513
662,1	155,873
662,6	144,233
663	141,673
663,4	142,873
663,9	141,793
664,3	139,953
664,8	152,313
665,2	152,353
665,6	145,353
666,1	143,593
666,5	135,273
667	134,233
667,4	128,473
667,9	135,753
668,3	136,473
668,7	140,633
669,2	134,353
669,6	137,113
670,1	130,433
670,5	128,393
670,9	117,233
671,4	108,473
671,8	106,753
672,3	107,033
672,7	104,353
673,1	107,793
673,6	113,353
674	111,513
674,5	107,673
674,9	103,793
675,3	99,673
675,8	96,913
676,2	94,473
676,7	95,313
677,1	100,633
677,5	103,753
678	109,193
678,4	111,873
678,9	102,033
679,3	96,673
679,7	97,593
680,2	96,833
680,6	91,313
681,1	93,713
681,5	95,353
681,9	89,113
682,4	82,593
682,8	77,673
683,3	78,433
683,7	77,953
684,1	85,193
684,6	82,513
685	81,993
685,5	76,233
685,9	70,833
686,3	64,793
686,8	59,513
687,2	58,033
687,7	57,393
688,1	61,873
688,5	65,673
689	72,513
689,4	78,233
689,9	82,073
690,3	85,553
690,7	75,393
691,2	75,993
691,6	69,233
692	71,953
692,5	68,993
692,9	75,233
693,4	73,633
693,8	78,633
694,2	76,193
694,7	75,633
695,1	69,913
695,6	71,473
696	66,153
696,4	64,113
696,9	60,033
697,3	66,913
697,8	60,233
698,2	63,753
698,6	58,393
699,1	53,313
699,5	45,073
699,9	49,393
700,4	40,993
700,8	44,033
701,3	42,593
701,7	52,193
702,1	49,513
702,6	54,113
703	54,753
703,5	54,673
703,9	44,473
704,3	39,753
704,8	35,553
705,2	32,233
705,6	30,113
706,1	29,113
706,5	29,993
707	31,193
707,4	33,353
707,8	37,793
708,3	42,433
708,7	38,873
709,2	29,993
709,6	25,993
710	21,153
710,5	19,753
710,9	17,833
711,3	27,513
711,8	28,953
712,2	34,553
712,7	25,033
713,1	26,473
713,5	28,473
714	26,033
714,4	22,433
714,8	24,593
715,3	25,833
715,7	21,393
716,2	16,873
716,6	10,953
717	15,153
717,5	13,913
717,9	16,833
718,3	20,713
718,8	28,273
719,2	17,673
719,7	12,833
720,1	9,073
720,5	8,793
721	1,513
721,4	12,873
721,8	15,753
722,3	14,793
722,7	9,193
723,2	9,753
723,6	2,073
724	3,273
724,5	3,913
724,9	8,753
725,3	13,353
725,8	9,353
726,2	9,873
726,7	3,553
727,1	-2,647
727,5	-8,847
728	-4,247
728,4	-14,087
728,8	-8,327
729,3	0,233
729,7	3,113
730,1	10,953
730,6	21,593
731	21,433
731,5	16,113
731,9	14,953
732,3	6,233
732,8	-2,327
733,2	1,393
733,6	1,473
734,1	-1,287
734,5	2,113
734,9	10,713
735,4	8,673
735,8	15,753
736,3	13,633
736,7	14,553
737,1	10,033
737,6	8,593
738	-0,527
738,4	0,793
738,9	-4,207
739,3	-4,367
739,7	-10,167
740,2	-11,047
740,6	-8,967
741,1	-11,687
741,5	-9,087
741,9	-7,407
742,4	-1,607
742,8	-8,527
743,2	-8,087
743,7	-13,447
744,1	-15,847
744,5	-22,847
745	-16,727
745,4	-7,447
745,8	-8,527
746,3	-2,167
746,7	-3,167
747,2	-11,367
747,6	-21,367
748	-22,607
748,5	-28,767
748,9	-26,407
749,3	-16,527
749,8	-13,767
750,2	-16,367
750,6	-21,167
751,1	-17,487
751,5	-20,287
751,9	-18,367
752,4	-15,047
752,8	-10,647
753,3	-13,887
753,7	-14,327
754,1	-17,367
754,6	-15,327
755	-10,567
755,4	-10,887
755,9	-12,687
756,3	-13,007
756,7	-7,967
757,2	-17,207
757,6	-19,807
758	-22,647
758,5	-20,047
758,9	-25,847
759,3	-17,087
759,8	-19,727
760,2	-17,767
760,6	-23,767
761,1	-27,087
761,5	-31,287
761,9	-32,447
762,4	-28,287
762,8	-28,687
763,3	-27,407
763,7	-32,727
764,1	-30,847
764,6	-33,327
765	-27,207
765,4	-22,167
765,9	-15,687
766,3	-15,887
766,7	-15,927
767,2	-22,567
767,6	-31,327
768	-38,607
768,5	-33,607
768,9	-27,967
769,3	-28,727
769,8	-24,127
770,2	-20,527
770,6	-21,047
771,1	-29,327
771,5	-30,167
771,9	-27,447
772,4	-32,167
772,8	-36,047
773,2	-33,047
773,7	-30,367
774,1	-35,247
774,5	-32,807
775	-33,727
775,4	-34,407
775,8	-35,327
776,3	-33,967
776,7	-33,487
777,1	-26,607
777,6	-30,727
778	-25,447
778,4	-22,287
778,9	-17,287
779,3	-27,407
779,7	-25,407
780,2	-33,927
780,6	-39,407
781	-47,487
781,5	-44,967
781,9	-49,167
782,3	-45,087
782,8	-39,807
783,2	-35,447
783,6	-34,567
784,1	-33,967
784,5	-33,047
784,9	-37,687
785,4	-36,927
785,8	-40,567
786,2	-47,487
786,7	-49,647
787,1	-45,007
787,5	-52,407
788	-47,367
788,4	-41,847
788,8	-41,687
789,3	-44,767
789,7	-41,607
790,1	-49,687
790,6	-48,247
791	-52,887
791,4	-51,927
791,9	-50,847
792,3	-50,647
792,7	-44,567
793,2	-36,567
793,6	-40,567
794	-31,647
794,5	-25,447
794,9	-32,567
795,3	-41,087
795,8	-41,247
796,2	-49,687
796,6	-48,367
797,1	-46,647
797,5	-49,807
797,9	-49,687
798,4	-51,407
798,8	-51,207
799,2	-48,327
799,7	-41,887
800,1	-42,767
800,5	-40,287
801	-46,247
801,4	-48,167
801,8	-48,127
802,2	-51,047
802,7	-50,927
803,1	-51,967
803,5	-52,367
804	-56,687
804,4	-56,727
804,8	-54,687
805,3	-47,367
805,7	-57,007
806,1	-51,607
806,6	-48,567
807	-55,887
807,4	-65,607
807,9	-53,127
808,3	-53,447
808,7	-50,927
809,2	-46,207
809,6	-45,367
810	-47,127
810,4	-53,447
810,9	-56,967
811,3	-57,927
811,7	-54,247
812,2	-58,847
812,6	-59,767
813	-60,967
813,5	-57,527
813,9	-48,807
814,3	-44,007
814,8	-35,647
815,2	-37,367
815,6	-41,807
816,1	-51,807
816,5	-56,687
816,9	-59,327
817,3	-59,167
817,8	-63,967
818,2	-61,447
818,6	-63,607
819,1	-64,007
819,5	-62,967
819,9	-60,407
820,4	-65,847
820,8	-59,567
821,2	-61,487
821,7	-60,727
822,1	-56,647
822,5	-52,887
822,9	-52,047
823,4	-53,047
823,8	-57,527
824,2	-61,367
824,7	-60,567
825,1	-65,607
825,5	-66,767
826	-62,847
826,4	-61,247
826,8	-66,487
827,3	-66,127
827,7	-63,207
828,1	-66,727
828,5	-72,527
829	-72,967
829,4	-74,047
829,8	-76,847
830,3	-69,687
830,7	-64,967
831,1	-64,447
831,6	-68,807
832	-67,207
832,4	-66,007
832,8	-66,527
833,3	-64,527
833,7	-57,207
834,1	-58,647
834,6	-63,527
835	-66,687
835,4	-62,127
835,8	-62,247
836,3	-55,687
836,7	-57,247
837,1	-56,967
837,6	-61,807
838	-61,647
838,4	-68,327
838,9	-67,127
839,3	-64,607
839,7	-65,767
840,1	-71,807
840,6	-74,287
841	-73,607
841,4	-80,167
841,9	-77,847
842,3	-78,047
842,7	-75,087
843,1	-80,007
843,6	-69,927
844	-72,847
844,4	-67,207
844,9	-71,727
845,3	-59,687
845,7	-63,647
846,2	-59,727
846,6	-57,887
847	-53,367
847,4	-63,487
847,9	-65,327
848,3	-68,007
848,7	-70,127
849,2	-71,567
849,6	-69,767
850	-68,367
850,4	-63,407
850,9	-67,967
851,3	-62,087
851,7	-70,367
852,2	-73,447
852,6	-84,527
853	-78,607
853,4	-80,087
853,9	-70,447
854,3	-68,927
854,7	-60,367
855,2	-67,847
855,6	-72,327
856	-76,447
856,4	-74,367
856,9	-74,087
857,3	-72,807
857,7	-69,487
858,2	-67,727
858,6	-72,767
859	-73,207
859,4	-75,247
859,9	-78,487
860,3	-79,967
860,7	-71,527
861,1	-77,207
861,6	-72,367
862	-69,247
862,4	-67,727
862,9	-70,887
863,3	-66,527
863,7	-65,527
864,1	-68,407
864,6	-63,967
865	-68,087
865,4	-64,847
865,9	-68,047
866,3	-68,207
866,7	-77,647
867,1	-77,287
867,6	-83,607
868	-86,247
868,4	-85,927
868,8	-82,487
869,3	-88,247
869,7	-84,127
870,1	-83,807
870,6	-82,447
871	-77,767
871,4	-113,127
871,8	-117,447
872,3	-114,647
872,7	-115,007
873,1	-117,927
873,5	-78,007
874	-75,047
874,4	-80,087
874,8	-81,087
875,3	-80,727
875,7	-74,527
876,1	-79,647
876,5	-73,367
877	-76,247
877,4	-76,367
877,8	-70,887
878,2	-66,927
878,7	-69,527
879,1	-65,687
879,5	-63,567
879,9	-72,167
880,4	-70,887
880,8	-76,367
881,2	-76,767
881,7	-82,607
882,1	-76,127
882,5	-80,207
882,9	-67,207
883,4	-62,927
883,8	-61,687
884,2	-68,007
884,6	-64,487
885,1	-67,007
885,5	-75,567
885,9	-68,287
886,3	-66,887
886,8	-72,807
887,2	-74,087
887,6	-72,567
888	-81,207
888,5	-82,247
888,9	-80,727
889,3	-88,927
889,8	-86,287
890,2	-83,967
890,6	-82,847
891	-75,207
891,5	-68,007
891,9	-64,727
892,3	-60,087
892,7	-60,327
893,2	-66,687
893,6	-68,487
894	-75,247
894,4	-80,127
894,9	-77,967
895,3	-77,607
895,7	-78,607
896,1	-70,167
896,6	-74,087
897	-75,727
897,4	-74,727
897,8	-70,647
898,3	-76,407
898,7	-74,767
899,1	-76,287
899,5	-71,687
900	-80,727
900,4	-80,327
900,8	-79,607
901,2	-84,647
901,7	-85,487
902,1	-81,367
902,5	-79,087
902,9	-77,047
903,4	-72,687
903,8	-79,687
904,2	-75,127
904,6	-75,287
905,1	-70,407
905,5	-68,447
905,9	-64,647
906,3	-65,207
906,8	-63,447
907,2	-65,047
907,6	-68,727
908	-69,407
908,5	-72,247
908,9	-76,567
909,3	-84,767
909,7	-86,127
910,2	-78,567
910,6	-74,247
911	-67,727
911,4	-57,407
911,9	-59,527
912,3	-67,687
912,7	-72,047
913,1	-83,567
913,6	-89,447
914	-82,967
914,4	-82,447
914,8	-81,087
915,3	-71,767
915,7	-72,247
916,1	-76,647
916,5	-77,487
916,9	-77,367
917,4	-85,967
917,8	-84,607
918,2	-80,887
918,6	-77,207
919,1	-76,967
919,5	-77,647
919,9	-78,167
920,3	-78,367
920,8	-81,807
921,2	-86,087
921,6	-78,087
922	-80,247
922,5	-78,527
922,9	-83,087
923,3	-73,647
923,7	-73,367
924,2	-73,527
924,6	-74,487
925	-60,367
925,4	-68,847
925,8	-76,607
926,3	-79,567
926,7	-77,727
927,1	-87,607
927,5	-89,047
928	-82,287
928,4	-77,407
928,8	-82,167
929,2	-82,567
929,7	-76,127
930,1	-79,127
930,5	-75,647
930,9	-76,327
931,3	-71,487
931,8	-76,407
932,2	-72,887
932,6	-79,447
933	-76,567
933,5	-76,527
933,9	-77,487
934,3	-85,247
934,7	-81,967
935,2	-82,967
935,6	-84,647
936	-88,207
936,4	-85,167
936,8	-83,927
937,3	-85,047
937,7	-90,927
938,1	-84,487
938,5	-79,967
939	-84,687
939,4	-84,687
939,8	-85,207
940,2	-91,967
940,6	-94,767
941,1	-93,167
941,5	-94,967
941,9	-93,567
942,3	-89,647
942,8	-94,087
943,2	-94,447
943,6	-91,247
944	-90,327
944,4	-94,407
944,9	-89,127
945,3	-91,367
945,7	-93,407
946,1	-89,207
946,6	-85,327
947	-84,767
947,4	-87,927
947,8	-92,807
948,2	-93,047
948,7	-85,887
949,1	-86,767
949,5	-85,727
949,9	-71,607
950,3	-80,727
950,8	-82,327
951,2	-81,647
951,6	-79,847
952	-88,447
952,5	-76,407
952,9	-78,807
953,3	-80,647
953,7	-79,207
954,1	-72,127
954,6	-81,367
955	-80,887
955,4	-83,807
955,8	-76,527
956,2	-79,727
956,7	-70,647
957,1	-69,887
957,5	-66,167
957,9	-74,127
958,3	-82,567
958,8	-88,527
959,2	-87,447
959,6	-89,887
960	-88,447
960,5	-87,047
960,9	-83,727
961,3	-87,127
961,7	-85,127
962,1	-80,847
962,6	-75,887
963	-78,167
963,4	-77,087
963,8	-80,647
964,2	-87,327
964,7	-85,727
965,1	-84,367
965,5	-89,367
965,9	-88,927
966,3	-81,327
966,8	-79,087
967,2	-77,167
967,6	-75,087
968	-70,927
968,4	-68,807
968,9	-76,167
969,3	-84,527
969,7	-86,647
970,1	-89,087
970,5	-91,087
971	-88,247
971,4	-84,527
971,8	-78,727
972,2	-76,967
972,6	-79,007
973,1	-82,287
973,5	-81,767
973,9	-83,127
974,3	-85,047
974,7	-86,607
975,2	-83,807
975,6	-86,127
976	-84,127
976,4	-84,927
976,8	-87,567
977,3	-87,407
977,7	-84,527
978,1	-86,647
978,5	-87,607
978,9	-88,447
979,4	-88,767
979,8	-90,167
980,2	-87,607
980,6	-82,087
981	-78,487
981,5	-88,607
981,9	-90,127
982,3	-93,927
982,7	-89,407
983,1	-90,447
983,6	-78,167
984	-71,527
984,4	-76,487
984,8	-81,687
985,2	-84,167
985,6	-86,207
986,1	-89,607
986,5	-79,967
986,9	-79,807
987,3	-81,727
987,7	-80,847
988,2	-78,327
988,6	-84,447
989	-87,127
989,4	-86,087
989,8	-88,447
990,3	-93,487
990,7	-89,207
991,1	-90,607
991,5	-81,967
991,9	-80,967
992,3	-74,407
992,8	-74,847
993,2	-71,607
993,6	-75,887
994	-72,167
994,4	-71,327
994,9	-71,847
995,3	-75,567
995,7	-77,567
996,1	-79,407
996,5	-86,207
996,9	-80,207
997,4	-84,767
997,8	-85,407
998,2	-82,367
998,6	-79,767
999	-93,647
999,5	-94,607
999,9	-96,487
1000,3	-100,487
1000,7	-106,447
1001,1	-102,007
1001,5	-92,407
1002	-88,887
1002,4	-88,447
1002,8	-83,407
1003,2	-78,207
1003,6	-82,607
1004	-80,767
1004,5	-81,447
1004,9	-78,807
1005,3	-87,327
1005,7	-83,647
1006,1	-83,967
1006,6	-84,167
1007	-83,447
1007,4	-78,247
1007,8	-76,087
1008,2	-75,247
1008,6	-81,767
1009,1	-88,647
1009,5	-92,967
1009,9	-103,007
1010,3	-100,887
1010,7	-96,127
1011,1	-87,327
1011,6	-81,887
1012	-78,607
1012,4	-88,007
1012,8	-93,007
1013,2	-92,247
1013,6	-95,087
1014,1	-97,687
1014,5	-90,887
1014,9	-82,727
1015,3	-86,127
1015,7	-83,527
1016,1	-75,287
1016,6	-78,407
1017	-85,247
1017,4	-89,567
1017,8	-92,767
1018,2	-100,167
1018,6	-97,687
1019,1	-94,087
1019,5	-93,687
1019,9	-94,367
1020,3	-86,407
1020,7	-82,727
1021,1	-85,127
1021,6	-83,527
1022	-82,727
1022,4	-83,367
1022,8	-91,687
1023,2	-93,327
1023,6	-91,087
1024,1	-91,687
1024,5	-99,567
1024,9	-98,247
1025,3	-98,447
1025,7	-107,607
1026,1	-106,767
1026,6	-102,767
1027	-106,607
1027,4	-101,887
1027,8	-101,607
1028,2	-102,927
1028,6	-104,727
1029	-99,727
1029,5	-105,567
1029,9	-97,887
1030,3	-98,647
1030,7	-99,687
1031,1	-102,327
1031,5	-94,807
1032	-102,127
1032,4	-105,967
1032,8	-104,287
1033,2	-99,207
1033,6	-98,327
1034	-93,047
1034,4	-85,607
1034,9	-86,527
1035,3	-83,727
1035,7	-95,567
1036,1	-95,407
1036,5	-95,487
1036,9	-94,367
1037,4	-101,607
1037,8	-91,447
1038,2	-93,807
1038,6	-97,967
1039	-96,407
1039,4	-95,007
1039,8	-101,127
1040,3	-100,807
1040,7	-103,287
1041,1	-108,167
1041,5	-106,487
1041,9	-101,927
1042,3	-102,007
1042,7	-98,447
1043,2	-99,287
1043,6	-103,167
1044	-101,767
1044,4	-105,327
1044,8	-102,967
1045,2	-103,727
1045,6	-106,887
1046,1	-112,847
1046,5	-116,607
1046,9	-121,847
1047,3	-112,687
1047,7	-113,687
1048,1	-114,607
1048,5	-104,407
1049	-95,287
1049,4	-102,247
1049,8	-97,687
1050,2	-90,727
1050,6	-90,967
1051	-103,047
1051,4	-107,327
1051,9	-107,727
1052,3	-118,607
1052,7	-129,327
1053,1	-128,287
1053,5	-119,607
1053,9	-115,327
1054,3	-112,687
1054,8	-101,247
1055,2	-91,287
1055,6	-92,847
1056	-95,767
1056,4	-87,767
1056,8	-88,247
1057,2	-95,567
1057,6	-100,167
1058,1	-98,287
1058,5	-99,207
1058,9	-99,247
1059,3	-97,887
1059,7	-93,527
1060,1	-100,607
1060,5	-98,287
1061	-100,687
1061,4	-96,007
1061,8	-93,047
1062,2	-86,327
1062,6	-88,967
1063	-93,007
1063,4	-94,727
1063,8	-101,007
1064,3	-96,007
1064,7	-92,487
1065,1	-89,647
1065,5	-87,447
1065,9	-84,847
1066,3	-91,847
1066,7	-100,047
1067,1	-97,647
1067,6	-102,727
1068	-102,567
1068,4	-104,287
1068,8	-93,927
1069,2	-92,087
1069,6	-88,367
1070	-90,087
1070,4	-87,807
1070,9	-92,727
1071,3	-93,047
1071,7	-89,967
1072,1	-82,207
1072,5	-88,567
1072,9	-84,407
1073,3	-78,167
1073,7	-81,407
1074,2	-94,447
1074,6	-84,007
1075	-90,287
1075,4	-102,327
1075,8	-106,207
1076,2	-92,527
1076,6	-91,927
1077	-87,727
1077,5	-88,727
1077,9	-83,527
1078,3	-83,767
1078,7	-86,967
1079,1	-82,567
1079,5	-80,927
1079,9	-78,487
1080,3	-81,047
1080,7	-80,287
1081,2	-86,047
1081,6	-86,727
1082	-84,927
1082,4	-90,047
1082,8	-88,767
1083,2	-82,727
1083,6	-75,047
1084	-78,407
1084,5	-76,567
1084,9	-77,527
1085,3	-79,447
1085,7	-81,287
1086,1	-83,207
1086,5	-79,247
1086,9	-80,727
1087,3	-85,207
1087,7	-79,447
1088,2	-76,447
1088,6	-75,327
1089	-71,807
1089,4	-67,567
1089,8	-72,207
1090,2	-74,807
1090,6	-75,247
1091	-80,487
1091,4	-85,367
1091,9	-86,807
1092,3	-86,487
1092,7	-86,607
1093,1	-85,407
1093,5	-82,767
1093,9	-83,727
1094,3	-80,927
1094,7	-83,127
1095,1	-84,327
1095,5	-89,487
1096	-88,807
1096,4	-88,727
1096,8	-84,447
1097,2	-79,247
1097,6	-73,807
1098	-74,487
1098,4	-72,047
1098,8	-76,247
1099,2	-70,487
1099,6	-65,967
1100,1	-61,127
1100,5	-61,247
1100,9	-57,887
1101,3	-59,447
1101,7	-58,527
1102,1	-55,167
1102,5	-54,367
1102,9	-50,567
1103,3	-53,047
1103,7	-52,287
1104,2	-54,887
1104,6	-57,207
1105	-55,007
1105,4	-53,767
1105,8	-52,647
1106,2	-41,527
1106,6	-27,687
1107	-20,047
1107,4	-8,207
1107,8	-0,617
1108,3	1,3
