Data from Subt2_00092.txt Node
Date: Fri Aug 11 16:52:42 MSK 2023
User: vat
Spectrometer: MAYP114033
Trigger mode: 0
Integration Time (sec): 5,000000E-1
Scans to average: 5
Electric dark correction enabled: true
Nonlinearity correction enabled: false
Boxcar width: 2
XAxis mode: Wavelengths
Number of Pixels in Spectrum: 2068
>>>>>Begin Spectral Data<<<<<
199,4	0,6
199,9	-0,1
200,4	-1,68
200,8	-3,96
201,3	-5,88
201,8	-6,68
202,2	-15,12
202,7	-16,84
203,2	-18,76
203,6	-18,52
204,1	-19,84
204,6	-14
205	-16,12
205,5	-13,92
206	-16,92
206,4	-20,16
206,9	-17,28
207,4	-13,68
207,8	-17,28
208,3	-14,76
208,8	-7,4
209,2	-6,04
209,7	-12,04
210,2	-7,12
210,6	-11,48
211,1	-14,52
211,5	-18,36
212	-17,04
212,5	-20,16
212,9	-13,4
213,4	-20,24
213,9	-20,96
214,3	-18,76
214,8	-18,6
215,3	-21,24
215,7	-22,28
216,2	-24,32
216,7	-22,72
217,1	-21,56
217,6	-27,76
218,1	-23,2
218,5	-19,28
219	-16,96
219,5	-17,96
219,9	-16,88
220,4	-10,2
220,9	-15,16
221,3	-20,52
221,8	-25,08
222,3	-21,76
222,7	-32,4
223,2	-29,52
223,6	-27,48
224,1	-19,64
224,6	-14,84
225	-12,92
225,5	-16,52
226	-12,12
226,4	-21,04
226,9	-24,08
227,4	-24,44
227,8	-24,28
228,3	-31,84
228,8	-23,72
229,2	-29,88
229,7	-31,08
230,2	-26,12
230,6	-26,84
231,1	-24,76
231,5	-15,28
232	-7,44
232,5	-5,12
232,9	-0,4
233,4	-8
233,9	-13,44
234,3	-17,32
234,8	-17,52
235,3	-18,64
235,7	-19,12
236,2	-22,08
236,7	-24,76
237,1	-27,96
237,6	-24,16
238,1	-18,48
238,5	-13,52
239	-9,88
239,4	-8
239,9	-11,04
240,4	-12,4
240,8	-8,64
241,3	-7,12
241,8	-11,28
242,2	-18,28
242,7	-22,2
243,2	-25,04
243,6	-31,2
244,1	-36,48
244,6	-35,36
245	-35,44
245,5	-39,68
245,9	-34,04
246,4	-25,96
246,9	-20,52
247,3	-17,48
247,8	-21,64
248,3	-25,28
248,7	-23,24
249,2	-22,12
249,7	-23,68
250,1	-21,28
250,6	-24,88
251	-30,84
251,5	-30,72
252	-28,2
252,4	-22,56
252,9	-16,6
253,4	-16,88
253,8	-16,52
254,3	-13,68
254,8	-10,72
255,2	-13,92
255,7	-11,64
256,1	-15,44
256,6	-20,68
257,1	-25,84
257,5	-26,04
258	-21,64
258,5	-18,88
258,9	-21,2
259,4	-22,76
259,9	-21
260,3	-26,28
260,8	-24,32
261,2	-16,72
261,7	-15,28
262,2	-18,92
262,6	-18,28
263,1	-20,84
263,6	-19,24
264	-20,04
264,5	-17,2
264,9	-12,92
265,4	-12,2
265,9	-18,72
266,3	-14,64
266,8	-8,16
267,3	-7,8
267,7	-8,96
268,2	-3,52
268,7	-2,28
269,1	-8,72
269,6	-8
270	-11,88
270,5	-20,88
271	-25,08
271,4	-23,64
271,9	-29,44
272,4	-27,64
272,8	-26,68
273,3	-30,28
273,7	-29,56
274,2	-26,2
274,7	-22,64
275,1	-25,12
275,6	-22,88
276,1	-26,96
276,5	-32,24
277	-36,4
277,4	-33,04
277,9	-25,36
278,4	-28,04
278,8	-21,64
279,3	-21,84
279,8	-17,28
280,2	-21,64
280,7	-14,64
281,1	-19,4
281,6	-17,28
282,1	-19,76
282,5	-23,2
283	-20,28
283,4	-20,28
283,9	-22,92
284,4	-21,32
284,8	-22,88
285,3	-24,32
285,8	-25,08
286,2	-21,64
286,7	-23,04
287,1	-22,12
287,6	-23,28
288,1	-24,52
288,5	-20,88
289	-23,68
289,5	-24,04
289,9	-24,48
290,4	-22,6
290,8	-20,84
291,3	-18,68
291,8	-10,12
292,2	-10,48
292,7	-9,8
293,1	-16,68
293,6	-16,04
294,1	-22,12
294,5	-21,16
295	-14,16
295,5	-13,04
295,9	-16,6
296,4	-14,48
296,8	-14,68
297,3	-26,56
297,8	-25,08
298,2	-21,76
298,7	-28,24
299,1	-30,68
299,6	-25,24
300,1	-26,36
300,5	-21,32
301	-17,12
301,5	-16,36
301,9	-21,6
302,4	-21,64
302,8	-27,4
303,3	-24,48
303,8	-27,32
304,2	-19,52
304,7	-17,12
305,1	-15,88
305,6	-18,4
306,1	-14,32
306,5	-19,68
307	-22,76
307,4	-24,44
307,9	-27,76
308,4	-26,84
308,8	-26,36
309,3	-23,2
309,8	-22,32
310,2	-19,56
310,7	-20,76
311,1	-22,88
311,6	-28,24
312,1	-25,96
312,5	-26,44
313	-25,56
313,4	-21,08
313,9	-17,32
314,4	-20,52
314,8	-23,28
315,3	-23,68
315,7	-21,48
316,2	-21,16
316,7	-21,44
317,1	-20,12
317,6	-23,36
318	-22,96
318,5	-20,88
319	-23,24
319,4	-16,28
319,9	-17,84
320,3	-22,8
320,8	-28,2
321,3	-17,56
321,7	-18,88
322,2	-12,8
322,6	-12,64
323,1	-13,24
323,6	-20,36
324	-19,96
324,5	-21,28
324,9	-18,64
325,4	-16,68
325,9	-13,6
326,3	-14,16
326,8	-16,32
327,2	-17,6
327,7	-17
328,2	-20,52
328,6	-18,8
329,1	-21,64
329,5	-17,64
330	-11,48
330,5	-6,48
330,9	-10,04
331,4	-8,92
331,8	-11,68
332,3	-16,88
332,8	-21,12
333,2	-22,48
333,7	-19,6
334,1	-20,68
334,6	-22,52
335,1	-18,44
335,5	-16,08
336	-14,68
336,4	-17,28
336,9	-16,2
337,4	-26,36
337,8	-27
338,3	-23,64
338,7	-17,8
339,2	-18,8
339,7	-8,76
340,1	-9,36
340,6	-13,04
341	-8,16
341,5	-6,12
342	-10,52
342,4	-9,44
342,9	-7,44
343,3	-20
343,8	-21,88
344,2	-16,44
344,7	-19,4
345,2	-21,24
345,6	-14,24
346,1	-15,88
346,5	-15,8
347	-14,08
347,5	-9,84
347,9	-5,44
348,4	-0,6
348,8	-3,44
349,3	-4,28
349,8	-7,2
350,2	-11,04
350,7	-10
351,1	-8,92
351,6	-3,96
352	-7,28
352,5	-11,24
353	-9,84
353,4	-4,16
353,9	-4,44
354,3	-1,96
354,8	1,6
355,3	6,44
355,7	6,6
356,2	11,28
356,6	18,44
357,1	41,6
357,5	48,24
358	62,76
358,5	76,2
358,9	102,84
359,4	110,96
359,8	133,8
360,3	157,88
360,8	189,2
361,2	213,36
361,7	251,72
362,1	288,24
362,6	328,68
363	372,6
363,5	422,12
364	466,96
364,4	516,72
364,9	567,8
365,3	617,52
365,8	659,32
366,3	700,32
366,7	743,64
367,2	779,4
367,6	811,16
368,1	839,16
368,5	857,56
369	863,88
369,5	859,36
369,9	854,68
370,4	832,44
370,8	813,88
371,3	788,36
371,7	765,56
372,2	725,16
372,7	700,48
373,1	659,72
373,6	623,24
374	581,48
374,5	548,76
374,9	502,48
375,4	470,72
375,9	429,44
376,3	395,16
376,8	359,88
377,2	336,24
377,7	306,08
378,2	285,08
378,6	258,8
379,1	235,8
379,5	213,56
380	195,44
380,4	173,6
380,9	160,32
381,4	141,8
381,8	130,24
382,3	122,08
382,7	112,6
383,2	100,2
383,6	92,4
384,1	80,88
384,6	68,56
385	61,92
385,5	55,64
385,9	50,4
386,4	47,72
386,8	41,08
387,3	41,16
387,7	38,36
388,2	34,48
388,7	28
389,1	25,08
389,6	15,48
390	13,56
390,5	10,76
390,9	8,32
391,4	9,4
391,9	12,28
392,3	7,92
392,8	8,12
393,2	8,52
393,7	5,6
394,1	4,04
394,6	2,76
395,1	-4,8
395,5	-4,6
396	-5,96
396,4	-4,44
396,9	-4,4
397,3	0,24
397,8	-3,04
398,2	-7,44
398,7	-12,16
399,2	-11,84
399,6	-10,32
400,1	-12,8
400,5	-5,08
401	-0,48
401,4	-0,12
401,9	-2,12
402,4	1,92
402,8	-1,56
403,3	-5,04
403,7	-7,16
404,2	-9,8
404,6	-15,88
405,1	-14,2
405,5	-16,08
406	-14,6
406,5	-13,08
406,9	-12,56
407,4	-13,96
407,8	-14,48
408,3	-14,4
408,7	-10,32
409,2	-10
409,6	-5,6
410,1	0,64
410,6	3,56
411	2,76
411,5	6,24
411,9	6,04
412,4	6,44
412,8	9,72
413,3	13,08
413,7	15,24
414,2	13,88
414,7	11,28
415,1	9,16
415,6	6
416	8,24
416,5	6,72
416,9	7,76
417,4	7,56
417,8	16,6
418,3	19,4
418,8	22,64
419,2	25,2
419,7	26,28
420,1	20,68
420,6	15,84
421	16,76
421,5	16,52
421,9	17,08
422,4	15,08
422,8	17,88
423,3	17,92
423,8	22,36
424,2	22
424,7	26,72
425,1	26,28
425,6	26,88
426	26,4
426,5	28,8
426,9	31,84
427,4	40,44
427,9	40,44
428,3	37,88
428,8	38,8
429,2	36,4
429,7	31,28
430,1	31,36
430,6	37,76
431	37
431,5	41,16
431,9	44,92
432,4	50,48
432,8	46,88
433,3	52
433,8	54,88
434,2	58,6
434,7	59,72
435,1	61,36
435,6	66,96
436	65,24
436,5	66,88
436,9	68,56
437,4	74,08
437,8	71,48
438,3	80,28
438,8	74,32
439,2	82,32
439,7	88,6
440,1	94,8
440,6	96,36
441	104,72
441,5	104,16
441,9	106,56
442,4	108,88
442,8	112,28
443,3	123,16
443,7	129,4
444,2	140,84
444,7	150,84
445,1	159,36
445,6	168,56
446	181,84
446,5	181,24
446,9	184,6
447,4	190,44
447,8	196,48
448,3	201,44
448,7	220,96
449,2	230,2
449,6	238,6
450,1	246,2
450,6	248,6
451	252,48
451,5	260,92
451,9	272,28
452,4	290,12
452,8	311,04
453,3	326,04
453,7	340,6
454,2	353,6
454,6	356,8
455,1	365,52
455,5	379,52
456	392,6
456,4	405,72
456,9	419,32
457,3	429,32
457,8	435,36
458,3	447,76
458,7	456
459,2	473,36
459,6	490,6
460,1	502,68
460,5	523,84
461	544,12
461,4	558,24
461,9	570,96
462,3	589,8
462,8	606,76
463,2	625,6
463,7	639,36
464,1	663,88
464,6	677,2
465	692,72
465,5	704,52
466	722,56
466,4	734,6
466,9	755,96
467,3	766,04
467,8	786,4
468,2	807,24
468,7	822,28
469,1	832,64
469,6	850,2
470	868,24
470,5	876,12
470,9	893,56
471,4	909,56
471,8	925,44
472,3	935,24
472,7	957,56
473,2	979
473,6	1003,44
474,1	1020,04
474,5	1039,72
475	1063,12
475,4	1079,2
475,9	1095,92
476,4	1113,4
476,8	1126,8
477,3	1134,04
477,7	1144,32
478,2	1159,84
478,6	1181,28
479,1	1201,6
479,5	1225,44
480	1239,8
480,4	1250,2
480,9	1266,36
481,3	1277,36
481,8	1283,92
482,2	1296,88
482,7	1310,96
483,1	1317
483,6	1331,28
484	1341,44
484,5	1358,92
484,9	1376,24
485,4	1386,48
485,8	1399,68
486,3	1412,32
486,7	1414,6
487,2	1424,56
487,6	1435,68
488,1	1436,96
488,5	1439,16
489	1455,2
489,4	1460,8
489,9	1467,56
490,4	1486,76
490,8	1502,68
491,3	1510,92
491,7	1522,64
492,2	1530,36
492,6	1538,96
493,1	1543,4
493,5	1554,24
494	1555,88
494,4	1567,32
494,9	1568,84
495,3	1576,6
495,8	1573,48
496,2	1582,32
496,7	1587,04
497,1	1589,72
497,6	1586,68
498	1597,48
498,5	1599,4
498,9	1605,8
499,4	1605,84
499,8	1617,64
500,3	1610,32
500,7	1609,52
501,2	1604,96
501,6	1610,2
502,1	1615,8
502,5	1623,8
503	1624
503,4	1624,6
503,9	1625,24
504,3	1618,16
504,8	1626,68
505,2	1629,04
505,7	1634
506,1	1635,92
506,6	1642,72
507	1635,12
507,5	1632,2
507,9	1631,8
508,4	1633,64
508,8	1628,68
509,3	1631,16
509,7	1634,16
510,2	1636,24
510,6	1630,8
511,1	1628,16
511,5	1627,96
512	1627,88
512,4	1623,76
512,9	1632,8
513,3	1634,88
513,8	1637,24
514,2	1644,44
514,7	1643,12
515,1	1635,52
515,6	1637,64
516	1636,52
516,5	1630,72
516,9	1630,12
517,4	1632,8
517,8	1633,84
518,3	1629,24
518,7	1629,2
519,2	1628,96
519,6	1625,44
520,1	1624,6
520,5	1629,72
521	1630,76
521,4	1631,96
521,9	1627,48
522,3	1627,4
522,8	1624,64
523,2	1627,08
523,7	1626,96
524,1	1631,96
524,6	1624,76
525	1623,28
525,5	1621,08
525,9	1618,44
526,4	1613
526,8	1615,48
527,3	1616,64
527,7	1614,2
528,2	1614,4
528,6	1620,76
529,1	1626,56
529,5	1627,04
530	1629,44
530,4	1628,48
530,9	1626,16
531,3	1620,32
531,8	1617,6
532,2	1607,72
532,6	1609,68
533,1	1611,96
533,5	1610,72
534	1615,48
534,4	1621,2
534,9	1624,6
535,3	1627,16
535,8	1627,6
536,2	1626,96
536,7	1624,76
537,1	1624,12
537,6	1623,96
538	1638,88
538,5	1641,88
538,9	1651,88
539,4	1648,92
539,8	1650,04
540,3	1637,56
540,7	1630,76
541,2	1623,08
541,6	1624,6
542,1	1626,32
542,5	1630,88
543	1631,72
543,4	1635,36
543,9	1637,44
544,3	1642,24
544,8	1650,48
545,2	1657,4
545,7	1661,72
546,1	1661,36
546,5	1658
547	1656,88
547,4	1656,08
547,9	1654,72
548,3	1658,48
548,8	1653,6
549,2	1644,08
549,7	1646,88
550,1	1645,52
550,6	1651,56
551	1650,32
551,5	1652,76
551,9	1651,88
552,4	1656,04
552,8	1653,76
553,3	1657,8
553,7	1663,04
554,2	1661,88
554,6	1664,44
555,1	1670,76
555,5	1685,84
555,9	1687,48
556,4	1693,56
556,8	1692,04
557,3	1686,6
557,7	1674,84
558,2	1681,28
558,6	1679,6
559,1	1682,32
559,5	1683,36
560	1681,48
560,4	1672,76
560,9	1675,56
561,3	1670,56
561,8	1672,64
562,2	1676,56
562,7	1683,04
563,1	1684,04
563,6	1686,64
564	1683,84
564,4	1683,92
564,9	1684,76
565,3	1673,96
565,8	1674,24
566,2	1678,6
566,7	1681,88
567,1	1685,16
567,6	1691,12
568	1695,64
568,5	1693,6
568,9	1698,8
569,4	1696,84
569,8	1697,68
570,3	1694,64
570,7	1696,52
571,1	1688,56
571,6	1682,08
572	1681,52
572,5	1680,2
572,9	1678,96
573,4	1677,76
573,8	1683,16
574,3	1680,04
574,7	1678,48
575,2	1680,84
575,6	1678,72
576,1	1678,48
576,5	1679,48
576,9	1676,4
577,4	1668,2
577,8	1666,96
578,3	1663,12
578,7	1667,88
579,2	1671,24
579,6	1663,76
580,1	1667,56
580,5	1657,44
581	1651,08
581,4	1650,48
581,9	1653,76
582,3	1652
582,7	1655,32
583,2	1653,4
583,6	1651,52
584,1	1653,68
584,5	1650,64
585	1650,12
585,4	1643
585,9	1636,6
586,3	1633,2
586,8	1626,56
587,2	1624,4
587,6	1624,64
588,1	1617,76
588,5	1612,44
589	1615,68
589,4	1611,84
589,9	1613,12
590,3	1615,4
590,8	1611,48
591,2	1601,24
591,7	1595,36
592,1	1589,6
592,5	1590,16
593	1589,04
593,4	1588,84
593,9	1586,12
594,3	1590,76
594,8	1578,92
595,2	1571,64
595,7	1568,52
596,1	1567,44
596,6	1558,96
597	1563,52
597,4	1559,96
597,9	1554,4
598,3	1552,08
598,8	1545,64
599,2	1544,92
599,7	1545,88
600,1	1546,44
600,6	1546,44
601	1540,36
601,4	1539,68
601,9	1531,32
602,3	1533,36
602,8	1526,44
603,2	1527,28
603,7	1521,4
604,1	1519,4
604,6	1513,2
605	1506,92
605,4	1505,48
605,9	1500,6
606,3	1500,68
606,8	1488,92
607,2	1487,2
607,7	1482,08
608,1	1474,12
608,6	1473,68
609	1474
609,4	1475,8
609,9	1470,12
610,3	1465,48
610,8	1458,76
611,2	1451,64
611,7	1440,12
612,1	1434,76
612,6	1427,84
613	1420,2
613,4	1416,72
613,9	1417,72
614,3	1405,92
614,8	1406,04
615,2	1406,92
615,7	1402,12
616,1	1389,72
616,6	1386,56
617	1379,28
617,4	1366,92
617,9	1360,08
618,3	1357,2
618,8	1353,32
619,2	1349,12
619,7	1344,12
620,1	1342,2
620,5	1332
621	1326,96
621,4	1318,92
621,9	1313,36
622,3	1310,88
622,8	1312,96
623,2	1303,28
623,6	1300,84
624,1	1293,4
624,5	1282,72
625	1273
625,4	1275
625,9	1269,56
626,3	1261,12
626,8	1254
627,2	1249,84
627,6	1234,48
628,1	1225,96
628,5	1222,96
629	1220,08
629,4	1214,12
629,9	1215,04
630,3	1208,24
630,7	1207,12
631,2	1200,12
631,6	1199,92
632,1	1196,32
632,5	1191,28
633	1185,8
633,4	1182,72
633,8	1167,08
634,3	1164,56
634,7	1163,44
635,2	1161,8
635,6	1146,4
636,1	1143,24
636,5	1134,68
636,9	1125
637,4	1112,88
637,8	1109,76
638,3	1106,76
638,7	1100
639,2	1096,4
639,6	1093,64
640	1087,8
640,5	1079,64
640,9	1075,76
641,4	1074,44
641,8	1069,52
642,2	1069,8
642,7	1062,2
643,1	1057,32
643,6	1045,76
644	1040,36
644,5	1030,16
644,9	1033,44
645,3	1023,88
645,8	1019,28
646,2	1017,6
646,7	1018,32
647,1	1014,84
647,6	1010,84
648	1011,32
648,4	1003,84
648,9	1000,96
649,3	990,6
649,8	989,8
650,2	982,44
650,6	971,96
651,1	972,84
651,5	971,24
652	963,76
652,4	965,8
652,9	962,48
653,3	950,08
653,7	940,32
654,2	940,16
654,6	929,68
655,1	925,36
655,5	921,28
655,9	918
656,4	907,04
656,8	900,8
657,3	896,68
657,7	888,52
658,2	881,44
658,6	884,28
659	874,88
659,5	870,84
659,9	872,6
660,4	873,88
660,8	861,4
661,2	858,04
661,7	856,28
662,1	845,88
662,6	839,04
663	841,28
663,4	837,12
663,9	830,12
664,3	825,88
664,8	820,84
665,2	815,36
665,6	814,72
666,1	812,32
666,5	812,48
667	808,28
667,4	796,92
667,9	791,56
668,3	782,52
668,7	769,76
669,2	762,12
669,6	763,04
670,1	760,72
670,5	758,64
670,9	756,56
671,4	753,28
671,8	746,92
672,3	740,6
672,7	735,2
673,1	735,04
673,6	729,44
674	725,16
674,5	717,8
674,9	714,52
675,3	705,44
675,8	703,36
676,2	705
676,7	703,76
677,1	694,92
677,5	693,96
678	691,04
678,4	681,6
678,9	674,6
679,3	669,32
679,7	666,12
680,2	662,24
680,6	652
681,1	648,32
681,5	651,96
681,9	646,72
682,4	646,4
682,8	651,2
683,3	649,2
683,7	642,92
684,1	642,88
684,6	632
685	621,72
685,5	612,84
685,9	608,12
686,3	600,08
686,8	599,24
687,2	596,24
687,7	594,2
688,1	593,8
688,5	586,56
689	582,28
689,4	581,28
689,9	574
690,3	562,88
690,7	562,08
691,2	559
691,6	552,56
692	553,6
692,5	559,52
692,9	555,84
693,4	551,44
693,8	551,84
694,2	546,92
694,7	539,36
695,1	535,6
695,6	531,92
696	524,76
696,4	521,4
696,9	515,4
697,3	510,84
697,8	504,16
698,2	502,08
698,6	500,32
699,1	502,8
699,5	504,84
699,9	505,12
700,4	504,44
700,8	503,12
701,3	497,92
701,7	487,2
702,1	486,92
702,6	481,32
703	472,84
703,5	465,48
703,9	466,36
704,3	467,32
704,8	466,88
705,2	468,8
705,6	467,64
706,1	463,76
706,5	451,52
707	452,08
707,4	447,8
707,8	443,44
708,3	445,6
708,7	448,56
709,2	442,52
709,6	440,28
710	447,24
710,5	440,6
710,9	434,4
711,3	431,72
711,8	431,52
712,2	425,96
712,7	417,36
713,1	409,88
713,5	405,96
714	397
714,4	388,84
714,8	391,12
715,3	393,04
715,7	394,08
716,2	391,6
716,6	394,92
717	395,44
717,5	393,24
717,9	385,4
718,3	383,92
718,8	379,76
719,2	371,4
719,7	364,72
720,1	360,04
720,5	355,36
721	346,64
721,4	348,96
721,8	350,56
722,3	355,56
722,7	353,88
723,2	351,28
723,6	344,56
724	337,12
724,5	329,56
724,9	330,36
725,3	332,52
725,8	333,4
726,2	335,88
726,7	328
727,1	326,68
727,5	316,48
728	314,16
728,4	309,12
728,8	310,4
729,3	309,2
729,7	312,6
730,1	309,12
730,6	310,08
731	308,6
731,5	303,48
731,9	304,96
732,3	306,96
732,8	299,16
733,2	294,28
733,6	294,16
734,1	291,76
734,5	284,12
734,9	293,12
735,4	297,84
735,8	294,16
736,3	295,56
736,7	295,76
737,1	286,76
737,6	286,64
738	291,64
738,4	285,32
738,9	282,04
739,3	277,84
739,7	266,28
740,2	260,52
740,6	257,88
741,1	259,96
741,5	261,28
741,9	265,16
742,4	258,76
742,8	260,6
743,2	263,48
743,7	265,48
744,1	262,92
744,5	266,72
745	265,6
745,4	255,16
745,8	245,72
746,3	242,84
746,7	236,24
747,2	235,28
747,6	240,12
748	246,44
748,5	249,44
748,9	251,68
749,3	244,28
749,8	238,36
750,2	238,12
750,6	233,56
751,1	232,32
751,5	234
751,9	234,92
752,4	230,04
752,8	230,8
753,3	226,92
753,7	221,88
754,1	222,32
754,6	222,32
755	218,2
755,4	220,36
755,9	216,92
756,3	214,76
756,7	210,2
757,2	212
757,6	211,84
758	219
758,5	217,56
758,9	220,92
759,3	213,44
759,8	211,24
760,2	205,04
760,6	201,12
761,1	195,84
761,5	195,88
761,9	188,4
762,4	184
762,8	177,64
763,3	174,28
763,7	175,52
764,1	175,8
764,6	181,04
765	180,36
765,4	180,84
765,9	177,12
766,3	177,24
766,7	171,32
767,2	172,72
767,6	172,8
768	176,68
768,5	171,32
768,9	167,52
769,3	165,32
769,8	164,8
770,2	155,56
770,6	160,08
771,1	164,88
771,5	169,72
771,9	166,4
772,4	174,96
772,8	170,36
773,2	164,52
773,7	161,08
774,1	159,4
774,5	152,96
775	152,12
775,4	153,64
775,8	153,76
776,3	154,2
776,7	148,68
777,1	145,64
777,6	144,92
778	141,16
778,4	146,48
778,9	154,04
779,3	157,76
779,7	157,56
780,2	157,24
780,6	150,36
781	146,36
781,5	143,68
781,9	137,6
782,3	134,28
782,8	125,68
783,2	121,44
783,6	122,28
784,1	124,24
784,5	123,96
784,9	129,8
785,4	132,44
785,8	130,08
786,2	131,48
786,7	130,44
787,1	129,92
787,5	128,64
788	126,04
788,4	118,88
788,8	118,04
789,3	110,76
789,7	109,48
790,1	108,68
790,6	105,04
791	101,36
791,4	107,96
791,9	107,16
792,3	105,44
792,7	108,12
793,2	104,88
793,6	95,52
794	95,36
794,5	100,16
794,9	100,92
795,3	105,84
795,8	112,92
796,2	110,16
796,6	108,72
797,1	106,96
797,5	102,76
797,9	100,28
798,4	97,48
798,8	98,68
799,2	97,52
799,7	96,12
800,1	88,88
800,5	91,32
801	88,76
801,4	90,32
801,8	96,32
802,2	106
802,7	109,92
803,1	104,56
803,5	103,6
804	98,2
804,4	90,52
804,8	87,04
805,3	82,36
805,7	82,84
806,1	80,6
806,6	82,44
807	77,04
807,4	83,8
807,9	82,92
808,3	85,08
808,7	80,28
809,2	85,68
809,6	81,8
810	78,84
810,4	72,84
810,9	75,8
811,3	73,84
811,7	69,64
812,2	64,8
812,6	65,6
813	63,84
813,5	62,72
813,9	61
814,3	68,6
814,8	73,88
815,2	76,84
815,6	72,2
816,1	72,24
816,5	74,88
816,9	70,52
817,3	65,84
817,8	69,4
818,2	72,08
818,6	66,84
819,1	62,76
819,5	61,12
819,9	57,48
820,4	56,52
820,8	58,08
821,2	65,24
821,7	64,72
822,1	59,64
822,5	56
822,9	54,12
823,4	45,16
823,8	41,48
824,2	47,44
824,7	50,52
825,1	46,2
825,5	46,2
826	49,16
826,4	48,96
826,8	50,44
827,3	44,84
827,7	50,84
828,1	49,48
828,5	46,16
829	43,2
829,4	43,64
829,8	39,68
830,3	43,28
830,7	44,24
831,1	42,48
831,6	48,44
832	47,48
832,4	50,56
832,8	52,8
833,3	52,68
833,7	53,6
834,1	54,68
834,6	49,56
835	44,44
835,4	40,2
835,8	35,52
836,3	36,88
836,7	38,6
837,1	37,2
837,6	46,4
838	49,28
838,4	50,36
838,9	44,68
839,3	44,36
839,7	43,92
840,1	45,24
840,6	40,16
841	38,12
841,4	35,48
841,9	30,64
842,3	22,8
842,7	22,36
843,1	22,76
843,6	23,64
844	22,44
844,4	26,32
844,9	28,96
845,3	34,84
845,7	34,6
846,2	33,2
846,6	32,52
847	32,16
847,4	28,2
847,9	28,48
848,3	25,36
848,7	28,84
849,2	29,12
849,6	28,8
850	28,24
850,4	31,6
850,9	25,92
851,3	21,2
851,7	14,72
852,2	17,88
852,6	16,72
853	19,36
853,4	23,6
853,9	28,28
854,3	24,04
854,7	24,04
855,2	21,52
855,6	16,12
856	18,32
856,4	20,36
856,9	20,44
857,3	18,52
857,7	23,4
858,2	20,96
858,6	17,48
859	16,64
859,4	19,24
859,9	17,16
860,3	19,64
860,7	24,08
861,1	26,2
861,6	21,4
862	19,76
862,4	15,52
862,9	11,76
863,3	5,52
863,7	10,08
864,1	9,8
864,6	12,28
865	16,12
865,4	18,44
865,9	14,96
866,3	12,92
866,7	9,76
867,1	12,88
867,6	13,92
868	13,68
868,4	14,48
868,8	17,92
869,3	14,48
869,7	14,64
870,1	18,16
870,6	18,08
871	17,76
871,4	-49,52
871,8	-43,24
872,3	-50,16
872,7	-53,6
873,1	-54,52
873,5	5
874	-0,92
874,4	3,52
874,8	7,28
875,3	6,8
875,7	14,6
876,1	12
876,5	11,12
877	7,16
877,4	6,4
877,8	4,24
878,2	3,56
878,7	8,76
879,1	11,84
879,5	14,28
879,9	11,6
880,4	15,96
880,8	13,28
881,2	12,4
881,7	6,16
882,1	3,72
882,5	2,16
882,9	0,44
883,4	-2,72
883,8	0,2
884,2	1,32
884,6	-0,44
885,1	0,2
885,5	-0,04
885,9	-0,32
886,3	-3,24
886,8	-1
887,2	-3,52
887,6	0,12
888	0,84
888,5	10,88
888,9	12,36
889,3	10,72
889,8	8,16
890,2	4,92
890,6	-2,28
891	-6,64
891,5	-2,64
891,9	1,92
892,3	-0,04
892,7	4,16
893,2	4,48
893,6	0,4
894	-0,16
894,4	0,92
894,9	-4,52
895,3	-3,2
895,7	-5,12
896,1	-6,72
896,6	-0,32
897	5,48
897,4	1,16
897,8	3,2
898,3	2,76
898,7	-4,44
899,1	-10,52
899,5	-11,24
900	-11,04
900,4	-8,36
900,8	-13,68
901,2	-11,08
901,7	-4,88
902,1	1,6
902,5	1,44
902,9	9,04
903,4	8,64
903,8	6,56
904,2	-2,64
904,6	-5,4
905,1	-5,4
905,5	-8,56
905,9	-9,84
906,3	-7,2
906,8	-9,76
907,2	-7,4
907,6	-5,88
908	-9
908,5	-7,76
908,9	-3,68
909,3	-10,68
909,7	-10,96
910,2	-4,2
910,6	-3,08
911	-9,2
911,4	-5,48
911,9	-9,68
912,3	-14,44
912,7	-17,2
913,1	-12,12
913,6	-7,68
914	-6,68
914,4	-5,2
914,8	-5,8
915,3	-9,64
915,7	-14,24
916,1	-7,28
916,5	-8,44
916,9	-9,92
917,4	-8,96
917,8	-6,16
918,2	-3,92
918,6	-2,72
919,1	0,36
919,5	-0,24
919,9	-0,44
920,3	-7,16
920,8	-2,68
921,2	-2,64
921,6	-0,76
922	-2,6
922,5	-1,4
922,9	-6,8
923,3	-7,12
923,7	-9,84
924,2	-16,28
924,6	-19,08
925	-16,64
925,4	-17,2
925,8	-16,64
926,3	-17,24
926,7	-17,16
927,1	-16,96
927,5	-13,84
928	-12,8
928,4	-1,16
928,8	-1,24
929,2	-2
929,7	-5,08
930,1	-4,68
930,5	-4,64
930,9	-2,76
931,3	-10,56
931,8	-8,36
932,2	-9,96
932,6	-16,44
933	-16,92
933,5	-8,36
933,9	-8,2
934,3	-4,28
934,7	-1,84
935,2	-2,92
935,6	-10,12
936	-15,16
936,4	-17,64
936,8	-19,84
937,3	-15,84
937,7	-12,2
938,1	-12,16
938,5	-11,96
939	-8,12
939,4	-9,28
939,8	-8,04
940,2	-5,68
940,6	-5,32
941,1	-6,56
941,5	-3,28
941,9	-6,76
942,3	-3,8
942,8	-3,76
943,2	-0,92
943,6	-3,76
944	-2,16
944,4	-9,68
944,9	-10,4
945,3	-12,6
945,7	-10,52
946,1	-8,48
946,6	-5,92
947	-6,88
947,4	-14,76
947,8	-21,96
948,2	-26,92
948,7	-24,32
949,1	-23,8
949,5	-22,56
949,9	-19,2
950,3	-16,16
950,8	-15,52
951,2	-18,8
951,6	-16,48
952	-18
952,5	-19,4
952,9	-21,68
953,3	-20,92
953,7	-20,36
954,1	-20,24
954,6	-20,64
955	-18,64
955,4	-17,48
955,8	-18,76
956,2	-20,04
956,7	-20,08
957,1	-19,2
957,5	-14,8
957,9	-11,36
958,3	-13,12
958,8	-10,48
959,2	-11,96
959,6	-12,44
960	-13,64
960,5	-9,08
960,9	-11,68
961,3	-11,76
961,7	-15,92
962,1	-13,48
962,6	-14,44
963	-9,68
963,4	-15,72
963,8	-13,16
964,2	-13,92
964,7	-9,56
965,1	-13,56
965,5	-6,2
965,9	-9,4
966,3	-13,64
966,8	-18,4
967,2	-22
967,6	-21,44
968	-18,6
968,4	-16,2
968,9	-17,16
969,3	-13,48
969,7	-16,24
970,1	-20,28
970,5	-24,52
971	-22,72
971,4	-23,76
971,8	-25,64
972,2	-23,4
972,6	-18,72
973,1	-20,96
973,5	-20,96
973,9	-21,16
974,3	-21
974,7	-22,84
975,2	-18,24
975,6	-19
976	-17,52
976,4	-16,56
976,8	-14,68
977,3	-16,8
977,7	-10,4
978,1	-13,16
978,5	-12,12
978,9	-20,32
979,4	-18,76
979,8	-24,8
980,2	-22,92
980,6	-18,96
981	-11,76
981,5	-17,68
981,9	-15,48
982,3	-14,44
982,7	-21,44
983,1	-16,96
983,6	-11,72
984	-12,56
984,4	-14,8
984,8	-16,88
985,2	-15,84
985,6	-18,72
986,1	-20,36
986,5	-17,24
986,9	-15,68
987,3	-21,12
987,7	-18,16
988,2	-15
988,6	-18,04
989	-15,68
989,4	-18,36
989,8	-19,76
990,3	-24,48
990,7	-22,36
991,1	-20,24
991,5	-16,6
991,9	-18,2
992,3	-16,84
992,8	-19,8
993,2	-25,88
993,6	-24,44
994	-20,68
994,4	-17,52
994,9	-18,24
995,3	-20,44
995,7	-19,24
996,1	-17,32
996,5	-19,56
996,9	-15
997,4	-8,96
997,8	-19,04
998,2	-25,12
998,6	-28,6
999	-34,56
999,5	-36,28
999,9	-34,36
1000,3	-36,04
1000,7	-22,6
1001,1	-21,28
1001,5	-15,28
1002	-12,2
1002,4	-12,12
1002,8	-21,92
1003,2	-18,2
1003,6	-21,88
1004	-24,48
1004,5	-22,08
1004,9	-19
1005,3	-20,12
1005,7	-16,08
1006,1	-13,32
1006,6	-12,76
1007	-11,48
1007,4	-13,36
1007,8	-13,28
1008,2	-8,72
1008,6	-4,36
1009,1	-9,52
1009,5	-11,04
1009,9	-16,44
1010,3	-24,96
1010,7	-29,64
1011,1	-21,32
1011,6	-19,2
1012	-18,56
1012,4	-11,48
1012,8	-8,64
1013,2	-11,32
1013,6	-8,48
1014,1	-9,4
1014,5	-15,76
1014,9	-22,76
1015,3	-31,36
1015,7	-34,24
1016,1	-31,84
1016,6	-30,6
1017	-26,32
1017,4	-22,44
1017,8	-19,8
1018,2	-26,92
1018,6	-27,2
1019,1	-27,24
1019,5	-26,56
1019,9	-35,24
1020,3	-33,32
1020,7	-34,6
1021,1	-33,64
1021,6	-31,36
1022	-24,6
1022,4	-22,36
1022,8	-17,16
1023,2	-16,8
1023,6	-17,12
1024,1	-20,84
1024,5	-21
1024,9	-17,64
1025,3	-17,4
1025,7	-19,24
1026,1	-13,76
1026,6	-16,68
1027	-18,16
1027,4	-17,36
1027,8	-17,88
1028,2	-22,4
1028,6	-21,12
1029	-24,92
1029,5	-25,88
1029,9	-25,72
1030,3	-20,04
1030,7	-19,76
1031,1	-18,76
1031,5	-22,84
1032	-21,44
1032,4	-25,28
1032,8	-20,68
1033,2	-23,92
1033,6	-23,32
1034	-24,12
1034,4	-24,12
1034,9	-25,04
1035,3	-24,52
1035,7	-15,92
1036,1	-16,44
1036,5	-17,44
1036,9	-20,88
1037,4	-22,88
1037,8	-33,28
1038,2	-34,16
1038,6	-31,76
1039	-29,88
1039,4	-29,52
1039,8	-27,04
1040,3	-28,68
1040,7	-30,68
1041,1	-28,76
1041,5	-25,16
1041,9	-21,72
1042,3	-18,8
1042,7	-16
1043,2	-19,36
1043,6	-20,16
1044	-17,4
1044,4	-22,12
1044,8	-26,32
1045,2	-25,8
1045,6	-25,68
1046,1	-32,4
1046,5	-31,12
1046,9	-28,76
1047,3	-31,16
1047,7	-29,6
1048,1	-29,2
1048,5	-22,2
1049	-24,72
1049,4	-25,04
1049,8	-23,08
1050,2	-23,08
1050,6	-22,64
1051	-24,72
1051,4	-21,28
1051,9	-24,92
1052,3	-23,12
1052,7	-26,24
1053,1	-20,12
1053,5	-20,88
1053,9	-20,8
1054,3	-24,8
1054,8	-27,44
1055,2	-30,28
1055,6	-30,64
1056	-31,28
1056,4	-26,72
1056,8	-20,36
1057,2	-19,28
1057,6	-20,36
1058,1	-19,2
1058,5	-23,52
1058,9	-27,16
1059,3	-28,4
1059,7	-25,68
1060,1	-21,04
1060,5	-15,08
1061	-15,36
1061,4	-12,44
1061,8	-15,48
1062,2	-19,68
1062,6	-19,96
1063	-20,32
1063,4	-18,88
1063,8	-20
1064,3	-20,28
1064,7	-26,76
1065,1	-29,84
1065,5	-28,6
1065,9	-29
1066,3	-27,48
1066,7	-18,48
1067,1	-13,52
1067,6	-20,04
1068	-16,08
1068,4	-12,88
1068,8	-15,56
1069,2	-19
1069,6	-14,56
1070	-11,96
1070,4	-16,84
1070,9	-14,48
1071,3	-18,44
1071,7	-19
1072,1	-21,24
1072,5	-16,24
1072,9	-23,56
1073,3	-15,72
1073,7	-14,36
1074,2	-16,08
1074,6	-23,04
1075	-24,2
1075,4	-24,44
1075,8	-23,76
1076,2	-19,92
1076,6	-14,88
1077	-10,6
1077,5	-16,48
1077,9	-23,72
1078,3	-25
1078,7	-28,84
1079,1	-28,16
1079,5	-21,08
1079,9	-15,92
1080,3	-12,16
1080,7	-3,52
1081,2	-4,44
1081,6	-6,36
1082	-1,44
1082,4	-7,04
1082,8	-12,52
1083,2	-15,48
1083,6	-17,96
1084	-22,76
1084,5	-21,6
1084,9	-23,48
1085,3	-17,6
1085,7	-15,24
1086,1	-15,36
1086,5	-15,32
1086,9	-16,6
1087,3	-22,36
1087,7	-24,32
1088,2	-21,76
1088,6	-15,36
1089	-17,36
1089,4	-12,44
1089,8	-10,56
1090,2	-12,64
1090,6	-20,28
1091	-21,12
1091,4	-27,8
1091,9	-30,56
1092,3	-29,72
1092,7	-29,2
1093,1	-28,12
1093,5	-24,52
1093,9	-19,72
1094,3	-21,04
1094,7	-18,08
1095,1	-17,88
1095,5	-20,44
1096	-22,64
1096,4	-20,44
1096,8	-20,68
1097,2	-14,68
1097,6	-13,96
1098	-17,92
1098,4	-22,76
1098,8	-24,96
1099,2	-23,68
1099,6	-16,36
1100,1	-12,88
1100,5	-11
1100,9	-8,04
1101,3	-14,48
1101,7	-18,4
1102,1	-19,8
1102,5	-15,2
1102,9	-11,76
1103,3	-11,92
1103,7	-8,56
1104,2	-7,68
1104,6	-12,68
1105	-15,64
1105,4	-14,36
1105,8	-16,08
1106,2	-12,32
1106,6	-7,88
1107	-7,4
1107,4	-1,92
1107,8	0,1
1108,3	-0,467
