Data from Subt2_00057.txt Node
Date: Fri Aug 11 16:16:25 MSK 2023
User: vat
Spectrometer: MAYP114033
Trigger mode: 0
Integration Time (sec): 5,000000E-1
Scans to average: 5
Electric dark correction enabled: true
Nonlinearity correction enabled: false
Boxcar width: 2
XAxis mode: Wavelengths
Number of Pixels in Spectrum: 2068
>>>>>Begin Spectral Data<<<<<
199,4	0,033
199,9	0,033
200,4	-4,247
200,8	-6,927
201,3	-16,527
201,8	-19,807
202,2	-19,647
202,7	-16,287
203,2	-18,007
203,6	-13,247
204,1	-15,327
204,6	-21,007
205	-22,367
205,5	-24,127
206	-20,527
206,4	-20,407
206,9	-19,167
207,4	-20,727
207,8	-18,167
208,3	-19,447
208,8	-19,807
209,2	-21,087
209,7	-23,247
210,2	-25,447
210,6	-30,887
211,1	-31,247
211,5	-29,727
212	-28,607
212,5	-26,407
212,9	-24,407
213,4	-25,727
213,9	-23,167
214,3	-25,567
214,8	-30,647
215,3	-28,047
215,7	-27,327
216,2	-24,607
216,7	-26,047
217,1	-22,287
217,6	-20,127
218,1	-24,087
218,5	-33,887
219	-27,367
219,5	-26,807
219,9	-32,767
220,4	-28,247
220,9	-25,967
221,3	-31,567
221,8	-30,847
222,3	-29,527
222,7	-25,447
223,2	-24,607
223,6	-23,847
224,1	-25,687
224,6	-27,727
225	-30,887
225,5	-28,327
226	-27,127
226,4	-27,327
226,9	-29,087
227,4	-28,407
227,8	-34,127
228,3	-37,567
228,8	-40,687
229,2	-38,447
229,7	-42,847
230,2	-41,967
230,6	-40,967
231,1	-42,327
231,5	-37,847
232	-38,567
232,5	-35,287
232,9	-36,447
233,4	-29,127
233,9	-32,967
234,3	-29,127
234,8	-26,047
235,3	-22,687
235,7	-26,007
236,2	-22,527
236,7	-22,687
237,1	-31,927
237,6	-27,687
238,1	-32,207
238,5	-32,127
239	-34,367
239,4	-30,367
239,9	-29,207
240,4	-19,647
240,8	-22,487
241,3	-18,247
241,8	-14,807
242,2	-19,887
242,7	-19,887
243,2	-19,847
243,6	-18,487
244,1	-20,167
244,6	-19,647
245	-22,607
245,5	-21,927
245,9	-26,287
246,4	-27,127
246,9	-27,647
247,3	-29,807
247,8	-32,247
248,3	-28,327
248,7	-31,167
249,2	-37,687
249,7	-35,287
250,1	-33,287
250,6	-35,127
251	-33,967
251,5	-30,367
252	-34,687
252,4	-36,887
252,9	-37,247
253,4	-37,847
253,8	-32,207
254,3	-27,407
254,8	-29,407
255,2	-23,767
255,7	-22,807
256,1	-25,527
256,6	-29,167
257,1	-25,007
257,5	-34,687
258	-33,967
258,5	-35,927
258,9	-30,487
259,4	-29,687
259,9	-26,167
260,3	-26,087
260,8	-23,567
261,2	-27,807
261,7	-26,647
262,2	-29,487
262,6	-26,287
263,1	-26,007
263,6	-29,967
264	-32,327
264,5	-34,487
264,9	-35,767
265,4	-37,847
265,9	-31,567
266,3	-29,127
266,8	-24,807
267,3	-23,407
267,7	-23,927
268,2	-24,127
268,7	-24,287
269,1	-22,327
269,6	-25,847
270	-30,647
270,5	-37,167
271	-43,327
271,4	-48,887
271,9	-46,767
272,4	-37,327
272,8	-33,087
273,3	-29,407
273,7	-20,727
274,2	-15,887
274,7	-19,127
275,1	-23,047
275,6	-23,527
276,1	-30,887
276,5	-36,607
277	-37,967
277,4	-37,127
277,9	-37,727
278,4	-37,207
278,8	-38,287
279,3	-38,327
279,8	-36,967
280,2	-36,647
280,7	-36,767
281,1	-36,727
281,6	-33,807
282,1	-24,847
282,5	-23,647
283	-22,727
283,4	-23,967
283,9	-27,967
284,4	-35,407
284,8	-37,647
285,3	-32,927
285,8	-31,887
286,2	-27,327
286,7	-27,487
287,1	-29,367
287,6	-29,527
288,1	-26,327
288,5	-24,967
289	-26,287
289,5	-19,927
289,9	-19,327
290,4	-23,927
290,8	-27,047
291,3	-29,647
291,8	-31,687
292,2	-33,687
292,7	-30,327
293,1	-32,447
293,6	-26,407
294,1	-26,367
294,5	-33,887
295	-31,047
295,5	-24,407
295,9	-26,367
296,4	-28,807
296,8	-21,647
297,3	-25,567
297,8	-32,447
298,2	-31,407
298,7	-29,087
299,1	-34,887
299,6	-33,887
300,1	-34,887
300,5	-34,687
301	-34,287
301,5	-29,647
301,9	-30,047
302,4	-32,407
302,8	-35,527
303,3	-33,007
303,8	-38,007
304,2	-38,727
304,7	-32,687
305,1	-31,567
305,6	-36,447
306,1	-29,527
306,5	-27,287
307	-28,287
307,4	-26,487
307,9	-23,687
308,4	-25,127
308,8	-24,647
309,3	-21,007
309,8	-22,647
310,2	-23,047
310,7	-29,487
311,1	-33,607
311,6	-35,807
312,1	-34,407
312,5	-34,807
313	-31,927
313,4	-36,567
313,9	-37,567
314,4	-34,327
314,8	-35,527
315,3	-33,967
315,7	-26,087
316,2	-28,367
316,7	-32,447
317,1	-29,727
317,6	-30,327
318	-30,047
318,5	-32,087
319	-33,167
319,4	-38,647
319,9	-36,287
320,3	-37,007
320,8	-27,607
321,3	-25,687
321,7	-17,207
322,2	-14,887
322,6	-14,287
323,1	-20,647
323,6	-19,207
324	-19,487
324,5	-29,527
324,9	-30,567
325,4	-23,647
325,9	-21,767
326,3	-18,727
326,8	-14,207
327,2	-14,687
327,7	-23,567
328,2	-25,367
328,6	-33,847
329,1	-31,487
329,5	-29,927
330	-23,607
330,5	-29,007
330,9	-30,247
331,4	-25,127
331,8	-34,847
332,3	-40,247
332,8	-39,807
333,2	-41,607
333,7	-46,207
334,1	-40,767
334,6	-39,487
335,1	-34,447
335,5	-26,487
336	-24,127
336,4	-21,847
336,9	-22,047
337,4	-24,727
337,8	-23,087
338,3	-26,967
338,7	-27,487
339,2	-25,407
339,7	-22,607
340,1	-30,487
340,6	-27,687
341	-24,167
341,5	-28,247
342	-28,807
342,4	-29,407
342,9	-35,607
343,3	-42,367
343,8	-39,527
344,2	-39,047
344,7	-35,527
345,2	-33,207
345,6	-33,367
346,1	-28,247
346,5	-25,567
347	-26,167
347,5	-25,647
347,9	-18,567
348,4	-21,167
348,8	-25,887
349,3	-24,327
349,8	-23,647
350,2	-19,047
350,7	-20,647
351,1	-22,807
351,6	-23,927
352	-23,087
352,5	-21,807
353	-22,047
353,4	-20,327
353,9	-16,087
354,3	-10,807
354,8	-16,767
355,3	-5,007
355,7	2,353
356,2	0,713
356,6	3,953
357,1	16,793
357,5	23,713
358	36,633
358,5	59,993
358,9	78,593
359,4	99,273
359,8	117,073
360,3	145,713
360,8	166,273
361,2	196,713
361,7	226,713
362,1	265,033
362,6	300,833
363	346,833
363,5	390,673
364	433,193
364,4	483,513
364,9	538,433
365,3	586,473
365,8	632,473
366,3	682,553
366,7	722,673
367,2	754,353
367,6	786,633
368,1	811,953
368,5	823,193
369	828,433
369,5	825,753
369,9	821,993
370,4	808,633
370,8	794,313
371,3	771,713
371,7	743,513
372,2	708,753
372,7	677,713
373,1	638,633
373,6	604,433
374	566,153
374,5	531,353
374,9	488,713
375,4	452,913
375,9	417,433
376,3	385,433
376,8	351,393
377,2	329,073
377,7	300,433
378,2	271,513
378,6	248,713
379,1	218,073
379,5	195,393
380	175,953
380,4	155,993
380,9	139,673
381,4	132,113
381,8	121,073
382,3	111,793
382,7	101,553
383,2	92,073
383,6	86,713
384,1	73,753
384,6	64,793
385	57,153
385,5	54,913
385,9	47,033
386,4	42,273
386,8	34,593
387,3	36,833
387,7	32,713
388,2	28,193
388,7	28,073
389,1	22,953
389,6	13,953
390	2,833
390,5	-6,087
390,9	-11,007
391,4	-7,247
391,9	-7,287
392,3	-3,727
392,8	0,353
393,2	-1,967
393,7	2,033
394,1	5,673
394,6	4,713
395,1	5,353
395,5	5,433
396	-4,287
396,4	-12,567
396,9	-10,447
397,3	-11,727
397,8	-11,887
398,2	-7,287
398,7	-0,847
399,2	-2,607
399,6	-3,127
400,1	-3,127
400,5	-5,087
401	-8,167
401,4	-7,327
401,9	-9,047
402,4	-12,367
402,8	-11,007
403,3	-7,887
403,7	-10,687
404,2	-5,047
404,6	0,873
405,1	7,793
405,5	9,593
406	9,593
406,5	13,153
406,9	9,873
407,4	2,913
407,8	2,833
408,3	8,993
408,7	6,273
409,2	12,193
409,6	19,993
410,1	23,193
410,6	31,633
411	37,073
411,5	40,633
411,9	45,953
412,4	56,393
412,8	55,633
413,3	59,313
413,7	69,913
414,2	72,873
414,7	71,993
415,1	78,393
415,6	76,873
416	77,473
416,5	84,713
416,9	96,633
417,4	94,913
417,8	103,953
418,3	108,553
418,8	114,233
419,2	117,313
419,7	134,393
420,1	140,433
420,6	148,033
421	151,193
421,5	153,433
421,9	155,433
422,4	165,313
422,8	172,273
423,3	181,913
423,8	190,353
424,2	202,393
424,7	211,633
425,1	221,593
425,6	223,153
426	231,153
426,5	234,033
426,9	245,833
427,4	257,713
427,9	281,353
428,3	293,593
428,8	306,713
429,2	319,553
429,7	332,753
430,1	338,153
430,6	352,033
431	363,593
431,5	382,113
431,9	389,833
432,4	408,513
432,8	427,433
433,3	448,033
433,8	458,073
434,2	475,953
434,7	488,993
435,1	507,793
435,6	522,553
436	545,193
436,5	565,713
436,9	591,073
437,4	615,113
437,8	641,673
438,3	664,033
438,8	689,873
439,2	714,073
439,7	734,313
440,1	760,833
440,6	785,273
441	819,753
441,5	842,833
441,9	866,633
442,4	888,633
442,8	919,353
443,3	939,993
443,7	969,793
444,2	1006,793
444,7	1040,913
445,1	1069,433
445,6	1098,313
446	1131,713
446,5	1161,273
446,9	1194,553
447,4	1229,193
447,8	1263,313
448,3	1295,313
448,7	1325,473
449,2	1357,153
449,6	1391,313
450,1	1422,713
450,6	1455,433
451	1489,233
451,5	1525,553
451,9	1556,713
452,4	1594,593
452,8	1634,913
453,3	1674,873
453,7	1706,153
454,2	1752,753
454,6	1802,793
455,1	1836,553
455,5	1875,393
456	1914,353
456,4	1934,033
456,9	1963,233
457,3	2006,313
457,8	2038,793
458,3	2076,673
458,7	2118,073
459,2	2152,553
459,6	2189,913
460,1	2226,753
460,5	2263,833
461	2311,913
461,4	2344,153
461,9	2375,793
462,3	2411,993
462,8	2450,513
463,2	2483,273
463,7	2516,473
464,1	2548,993
464,6	2586,433
465	2617,313
465,5	2643,793
466	2678,713
466,4	2708,593
466,9	2736,553
467,3	2764,873
467,8	2794,353
468,2	2821,233
468,7	2851,913
469,1	2878,673
469,6	2902,513
470	2928,233
470,5	2961,313
470,9	2988,233
471,4	3009,153
471,8	3032,273
472,3	3050,273
472,7	3065,953
473,2	3088,393
473,6	3109,313
474,1	3133,393
474,5	3159,673
475	3183,153
475,4	3194,793
475,9	3207,233
476,4	3218,753
476,8	3234,753
477,3	3249,113
477,7	3264,153
478,2	3277,833
478,6	3286,513
479,1	3295,153
479,5	3297,833
480	3308,033
480,4	3320,233
480,9	3329,633
481,3	3332,633
481,8	3345,593
482,2	3346,113
482,7	3350,233
483,1	3353,273
483,6	3351,233
484	3352,073
484,5	3350,473
484,9	3358,753
485,4	3354,713
485,8	3355,313
486,3	3347,273
486,7	3348,433
487,2	3334,913
487,6	3332,353
488,1	3330,433
488,5	3326,593
489	3321,553
489,4	3320,593
489,9	3318,833
490,4	3316,593
490,8	3304,233
491,3	3294,833
491,7	3274,113
492,2	3262,953
492,6	3239,753
493,1	3232,273
493,5	3216,033
494	3201,793
494,4	3179,793
494,9	3166,233
495,3	3138,113
495,8	3125,353
496,2	3126,233
496,7	3123,593
497,1	3117,913
497,6	3117,593
498	3096,473
498,5	3067,873
498,9	3050,233
499,4	3028,513
499,8	3008,033
500,3	2994,833
500,7	2980,633
501,2	2957,993
501,6	2935,593
502,1	2919,753
502,5	2902,153
503	2882,113
503,4	2867,233
503,9	2856,633
504,3	2834,193
504,8	2810,913
505,2	2793,353
505,7	2771,633
506,1	2751,193
506,6	2736,953
507	2727,113
507,5	2707,473
507,9	2687,033
508,4	2663,993
508,8	2640,633
509,3	2613,393
509,7	2587,273
510,2	2572,353
510,6	2551,233
511,1	2521,633
511,5	2501,953
512	2479,713
512,4	2453,713
512,9	2435,273
513,3	2425,793
513,8	2407,193
514,2	2388,393
514,7	2362,913
515,1	2339,553
515,6	2311,153
516	2281,913
516,5	2266,433
516,9	2245,873
517,4	2223,433
517,8	2196,713
518,3	2176,273
518,7	2145,513
519,2	2118,753
519,6	2091,393
520,1	2075,233
520,5	2056,233
521	2040,753
521,4	2013,233
521,9	1993,353
522,3	1976,033
522,8	1955,353
523,2	1939,753
523,7	1929,993
524,1	1911,673
524,6	1881,033
525	1858,713
525,5	1832,513
525,9	1808,753
526,4	1783,313
526,8	1765,833
527,3	1744,033
527,7	1727,113
528,2	1713,473
528,6	1704,793
529,1	1689,473
529,5	1673,033
530	1646,833
530,4	1627,953
530,9	1599,873
531,3	1577,393
531,8	1556,433
532,2	1543,913
532,6	1525,593
533,1	1512,393
533,5	1500,473
534	1480,593
534,4	1456,313
534,9	1435,993
535,3	1411,953
535,8	1394,153
536,2	1375,953
536,7	1359,593
537,1	1347,753
537,6	1338,153
538	1320,593
538,5	1312,993
538,9	1304,673
539,4	1283,793
539,8	1272,113
540,3	1254,073
540,7	1234,913
541,2	1216,353
541,6	1203,873
542,1	1175,273
542,5	1158,713
543	1139,193
543,4	1114,713
543,9	1095,833
544,3	1091,713
544,8	1078,433
545,2	1064,473
545,7	1058,713
546,1	1044,673
546,5	1029,353
547	1017,953
547,4	1006,273
547,9	990,313
548,3	978,273
548,8	959,193
549,2	948,393
549,7	939,793
550,1	929,833
550,6	920,153
551	913,433
551,5	899,353
551,9	887,713
552,4	881,753
552,8	864,953
553,3	857,233
553,7	850,113
554,2	833,953
554,6	815,953
555,1	813,153
555,5	807,513
555,9	795,793
556,4	788,153
556,8	785,393
557,3	768,953
557,7	753,993
558,2	750,753
558,6	745,913
559,1	729,473
559,5	724,113
560	712,513
560,4	695,113
560,9	682,393
561,3	680,113
561,8	669,913
562,2	663,313
562,7	657,193
563,1	651,713
563,6	640,793
564	637,273
564,4	629,073
564,9	619,233
565,3	607,913
565,8	599,313
566,2	589,313
566,7	581,593
567,1	575,233
567,6	570,153
568	564,273
568,5	561,033
568,9	550,393
569,4	542,553
569,8	534,353
570,3	526,233
570,7	521,113
571,1	517,273
571,6	513,713
572	511,393
572,5	508,073
572,9	491,993
573,4	489,033
573,8	475,993
574,3	468,473
574,7	459,073
575,2	451,793
575,6	445,793
576,1	438,833
576,5	435,593
576,9	430,953
577,4	429,993
577,8	425,873
578,3	423,713
578,7	417,353
579,2	408,033
579,6	407,393
580,1	401,553
580,5	398,833
581	391,873
581,4	392,873
581,9	385,073
582,3	380,873
582,7	372,113
583,2	370,473
583,6	364,553
584,1	357,273
584,5	351,673
585	351,073
585,4	345,593
585,9	337,593
586,3	330,433
586,8	327,313
587,2	321,233
587,6	314,913
588,1	308,873
588,5	307,833
589	298,193
589,4	294,953
589,9	292,753
590,3	297,153
590,8	294,233
591,2	289,313
591,7	291,713
592,1	289,753
592,5	286,713
593	282,753
593,4	284,353
593,9	272,833
594,3	267,753
594,8	262,913
595,2	261,113
595,7	255,833
596,1	260,993
596,6	261,673
597	254,153
597,4	249,913
597,9	248,393
598,3	243,913
598,8	241,913
599,2	245,993
599,7	245,473
600,1	246,233
600,6	239,713
601	235,633
601,4	229,953
601,9	225,273
602,3	217,673
602,8	213,073
603,2	209,593
603,7	210,953
604,1	209,273
604,6	208,073
605	214,313
605,4	206,833
605,9	194,953
606,3	193,473
606,8	192,193
607,2	187,033
607,7	188,193
608,1	194,313
608,6	189,673
609	192,113
609,4	192,313
609,9	191,513
610,3	187,193
610,8	188,353
611,2	175,313
611,7	170,753
612,1	167,713
612,6	161,753
613	163,433
613,4	169,313
613,9	171,073
614,3	171,393
614,8	170,553
615,2	167,073
615,7	161,993
616,1	155,673
616,6	154,793
617	156,073
617,4	160,513
617,9	165,993
618,3	164,033
618,8	158,753
619,2	161,353
619,7	152,753
620,1	141,193
620,5	141,833
621	145,113
621,4	140,393
621,9	140,993
622,3	145,073
622,8	149,393
623,2	143,193
623,6	143,673
624,1	143,233
624,5	142,473
625	130,593
625,4	129,393
625,9	126,633
626,3	127,033
626,8	129,433
627,2	132,433
627,6	132,873
628,1	131,353
628,5	125,233
629	124,753
629,4	124,873
629,9	121,273
630,3	121,833
630,7	119,673
631,2	113,273
631,6	111,793
632,1	112,673
632,5	110,273
633	112,313
633,4	112,393
633,8	114,873
634,3	116,273
634,7	116,953
635,2	118,353
635,6	116,193
636,1	112,593
636,5	118,073
636,9	115,553
637,4	110,833
637,8	109,633
638,3	101,473
638,7	95,273
639,2	94,433
639,6	94,433
640	95,153
640,5	102,473
640,9	98,153
641,4	96,913
641,8	100,673
642,2	99,073
642,7	97,793
643,1	99,113
643,6	92,433
644	87,033
644,5	88,993
644,9	92,353
645,3	90,313
645,8	92,753
646,2	90,953
646,7	90,873
647,1	86,873
647,6	87,073
648	85,873
648,4	87,993
648,9	85,313
649,3	76,033
649,8	75,673
650,2	75,873
650,6	70,833
651,1	70,873
651,5	77,993
652	78,073
652,4	81,553
652,9	84,793
653,3	84,113
653,7	82,673
654,2	86,593
654,6	83,793
655,1	81,473
655,5	83,513
655,9	83,393
656,4	78,793
656,8	78,673
657,3	76,913
657,7	76,273
658,2	73,273
658,6	67,873
659	69,793
659,5	71,633
659,9	62,513
660,4	61,633
660,8	64,313
661,2	61,033
661,7	60,633
662,1	67,433
662,6	68,833
663	63,993
663,4	66,313
663,9	64,713
664,3	62,473
664,8	58,233
665,2	65,393
665,6	70,473
666,1	68,753
666,5	63,193
667	71,513
667,4	62,593
667,9	58,193
668,3	60,313
668,7	71,513
669,2	63,313
669,6	65,713
670,1	62,073
670,5	63,713
670,9	58,433
671,4	62,633
671,8	67,753
672,3	64,793
672,7	64,913
673,1	63,713
673,6	57,553
674	57,993
674,5	59,673
674,9	54,033
675,3	51,313
675,8	56,673
676,2	51,633
676,7	52,793
677,1	52,473
677,5	49,633
678	47,633
678,4	53,913
678,9	52,953
679,3	55,193
679,7	58,633
680,2	60,233
680,6	54,633
681,1	49,633
681,5	51,073
681,9	51,153
682,4	44,033
682,8	44,553
683,3	52,233
683,7	50,233
684,1	50,633
684,6	59,153
685	55,753
685,5	52,313
685,9	53,873
686,3	47,153
686,8	44,073
687,2	44,233
687,7	42,913
688,1	41,113
688,5	44,473
689	42,713
689,4	40,513
689,9	36,473
690,3	34,033
690,7	35,393
691,2	34,113
691,6	35,433
692	38,353
692,5	39,553
692,9	36,433
693,4	37,673
693,8	44,153
694,2	44,353
694,7	43,273
695,1	40,713
695,6	35,873
696	32,153
696,4	34,913
696,9	38,233
697,3	44,113
697,8	47,713
698,2	47,873
698,6	42,833
699,1	39,513
699,5	38,353
699,9	40,313
700,4	32,193
700,8	33,393
701,3	30,433
701,7	32,513
702,1	23,993
702,6	28,233
703	30,153
703,5	30,673
703,9	27,753
704,3	34,593
704,8	34,193
705,2	33,353
705,6	39,273
706,1	35,313
706,5	28,873
707	28,593
707,4	26,473
707,8	15,393
708,3	19,273
708,7	29,193
709,2	25,153
709,6	25,553
710	26,433
710,5	26,233
710,9	14,993
711,3	17,673
711,8	17,313
712,2	27,313
712,7	23,433
713,1	32,713
713,5	39,753
714	40,353
714,4	32,953
714,8	39,073
715,3	33,953
715,7	28,873
716,2	28,313
716,6	27,673
717	28,433
717,5	28,873
717,9	31,993
718,3	29,153
718,8	30,913
719,2	25,033
719,7	24,393
720,1	19,433
720,5	20,673
721	20,113
721,4	21,273
721,8	20,953
722,3	25,073
722,7	21,913
723,2	23,033
723,6	23,193
724	24,033
724,5	21,633
724,9	29,033
725,3	29,313
725,8	29,193
726,2	25,193
726,7	21,873
727,1	20,073
727,5	22,553
728	20,673
728,4	23,353
728,8	26,313
729,3	23,633
729,7	18,073
730,1	17,033
730,6	17,673
731	17,833
731,5	18,353
731,9	25,633
732,3	30,713
732,8	31,153
733,2	30,473
733,6	34,713
734,1	30,793
734,5	28,273
734,9	24,353
735,4	19,193
735,8	12,313
736,3	7,953
736,7	7,233
737,1	14,113
737,6	20,873
738	23,073
738,4	22,113
738,9	20,393
739,3	16,993
739,7	11,753
740,2	12,353
740,6	11,033
741,1	12,753
741,5	11,553
741,9	15,033
742,4	9,833
742,8	17,753
743,2	17,313
743,7	16,593
744,1	20,153
744,5	23,353
745	20,193
745,4	21,353
745,8	26,473
746,3	18,553
746,7	13,713
747,2	14,313
747,6	15,313
748	11,433
748,5	15,353
748,9	19,553
749,3	16,593
749,8	16,913
750,2	14,553
750,6	11,473
751,1	9,633
751,5	12,833
751,9	7,993
752,4	11,233
752,8	15,593
753,3	20,033
753,7	18,593
754,1	16,793
754,6	20,713
755	16,113
755,4	15,833
755,9	16,153
756,3	17,233
756,7	13,913
757,2	13,873
757,6	10,313
758	10,353
758,5	10,233
758,9	11,593
759,3	14,833
759,8	17,153
760,2	13,153
760,6	7,313
761,1	1,233
761,5	0,673
761,9	7,473
762,4	6,873
762,8	16,353
763,3	20,233
763,7	13,673
764,1	3,553
764,6	5,633
765	8,553
765,4	6,513
765,9	8,473
766,3	9,233
766,7	5,073
767,2	-1,927
767,6	-0,007
768	1,753
768,5	2,033
768,9	7,553
769,3	10,953
769,8	7,153
770,2	11,753
770,6	13,353
771,1	11,393
771,5	6,073
771,9	11,153
772,4	9,553
772,8	15,153
773,2	17,073
773,7	19,313
774,1	19,313
774,5	16,993
775	7,633
775,4	4,513
775,8	3,753
776,3	-2,687
776,7	-5,447
777,1	0,153
777,6	3,873
778	2,113
778,4	9,393
778,9	8,513
779,3	1,753
779,7	2,873
780,2	10,113
780,6	4,273
781	8,833
781,5	13,633
781,9	8,793
782,3	4,553
782,8	5,753
783,2	6,313
783,6	6,993
784,1	7,313
784,5	2,513
784,9	-0,487
785,4	1,913
785,8	3,393
786,2	-3,327
786,7	4,953
787,1	6,633
787,5	0,153
788	1,713
788,4	7,873
788,8	6,113
789,3	8,313
789,7	11,273
790,1	8,593
790,6	11,113
791	9,753
791,4	7,473
791,9	3,393
792,3	-1,327
792,7	-4,567
793,2	-4,287
793,6	-7,447
794	-5,367
794,5	-2,527
794,9	0,233
795,3	-4,207
795,8	-1,927
796,2	0,833
796,6	-3,407
797,1	-6,407
797,5	-3,287
797,9	0,673
798,4	-0,767
798,8	3,593
799,2	5,993
799,7	3,673
800,1	2,553
800,5	-1,287
801	-4,807
801,4	-7,967
801,8	-7,447
802,2	-7,127
802,7	-2,927
803,1	-5,607
803,5	-6,127
804	-4,847
804,4	-6,607
804,8	-12,647
805,3	-8,007
805,7	-7,647
806,1	-5,527
806,6	-7,447
807	-8,127
807,4	-11,247
807,9	-7,807
808,3	-9,607
808,7	-9,047
809,2	-4,927
809,6	-4,807
810	-10,247
810,4	-9,167
810,9	-8,967
811,3	-13,687
811,7	-12,007
812,2	-6,487
812,6	-12,727
813	-9,367
813,5	-3,367
813,9	-6,367
814,3	-5,607
814,8	0,673
815,2	-4,887
815,6	-9,847
816,1	0,153
816,5	-3,687
816,9	-4,167
817,3	1,033
817,8	2,753
818,2	-6,287
818,6	-3,607
819,1	-7,527
819,5	-8,767
819,9	-8,047
820,4	-9,127
820,8	-11,967
821,2	-11,087
821,7	-8,127
822,1	-8,007
822,5	-7,327
822,9	-8,087
823,4	-2,127
823,8	-2,847
824,2	-9,047
824,7	-9,647
825,1	-8,167
825,5	-12,247
826	-14,207
826,4	-8,967
826,8	-4,927
827,3	-6,927
827,7	-11,207
828,1	-11,167
828,5	-13,287
829	-18,087
829,4	-17,087
829,8	-14,487
830,3	-12,007
830,7	-7,487
831,1	-12,167
831,6	-8,527
832	-10,167
832,4	-18,727
832,8	-21,527
833,3	-13,047
833,7	-12,207
834,1	-12,087
834,6	-9,047
835	-9,087
835,4	-7,367
835,8	-13,687
836,3	-9,047
836,7	-4,887
837,1	-6,407
837,6	-10,207
838	-5,927
838,4	-10,327
838,9	-15,607
839,3	-13,327
839,7	-15,287
840,1	-13,887
840,6	-13,807
841	-12,367
841,4	-11,687
841,9	-6,007
842,3	-14,047
842,7	-12,007
843,1	-9,767
843,6	-16,567
844	-20,407
844,4	-15,247
844,9	-13,007
845,3	-13,607
845,7	-5,487
846,2	-4,647
846,6	-5,207
847	-14,607
847,4	-20,807
847,9	-22,647
848,3	-23,807
848,7	-28,007
849,2	-18,167
849,6	-18,647
850	-12,647
850,4	-14,367
850,9	-13,407
851,3	-18,087
851,7	-20,687
852,2	-26,887
852,6	-24,487
853	-24,047
853,4	-23,047
853,9	-19,647
854,3	-20,047
854,7	-19,207
855,2	-19,047
855,6	-17,087
856	-12,407
856,4	-8,607
856,9	-6,807
857,3	4,593
857,7	4,233
858,2	2,953
858,6	-2,287
859	-6,847
859,4	-18,287
859,9	-18,247
860,3	-16,687
860,7	-12,527
861,1	-12,687
861,6	-10,207
862	-13,407
862,4	-13,807
862,9	-19,207
863,3	-14,127
863,7	-15,007
864,1	-16,207
864,6	-15,887
865	-10,447
865,4	-17,327
865,9	-15,527
866,3	-14,527
866,7	-15,567
867,1	-14,567
867,6	-17,927
868	-20,567
868,4	-19,447
868,8	-18,087
869,3	-24,287
869,7	-16,567
870,1	-18,247
870,6	-18,327
871	-16,927
871,4	18,593
871,8	13,433
872,3	14,713
872,7	10,553
873,1	12,833
873,5	-17,127
874	-10,247
874,4	-9,807
874,8	-9,887
875,3	-15,087
875,7	-17,447
876,1	-22,687
876,5	-23,007
877	-16,127
877,4	-18,687
877,8	-22,047
878,2	-13,807
878,7	-13,487
879,1	-15,567
879,5	-14,487
879,9	-13,447
880,4	-17,527
880,8	-21,087
881,2	-22,447
881,7	-24,047
882,1	-25,687
882,5	-29,887
882,9	-25,047
883,4	-26,127
883,8	-24,767
884,2	-21,527
884,6	-15,487
885,1	-18,287
885,5	-14,967
885,9	-12,687
886,3	-14,727
886,8	-17,167
887,2	-16,567
887,6	-16,487
888	-19,487
888,5	-18,487
888,9	-18,007
889,3	-18,607
889,8	-20,807
890,2	-15,887
890,6	-13,687
891	-20,767
891,5	-21,087
891,9	-19,807
892,3	-21,207
892,7	-25,247
893,2	-20,567
893,6	-21,127
894	-20,087
894,4	-25,167
894,9	-29,167
895,3	-31,767
895,7	-28,327
896,1	-34,207
896,6	-31,887
897	-29,287
897,4	-24,607
897,8	-22,687
898,3	-22,767
898,7	-16,887
899,1	-17,167
899,5	-21,087
900	-28,087
900,4	-22,007
900,8	-27,487
901,2	-22,927
901,7	-20,167
902,1	-17,487
902,5	-19,167
902,9	-17,447
903,4	-18,247
903,8	-18,047
904,2	-13,287
904,6	-19,647
905,1	-16,287
905,5	-18,007
905,9	-20,047
906,3	-26,927
906,8	-22,327
907,2	-30,527
907,6	-32,207
908	-31,807
908,5	-29,287
908,9	-28,607
909,3	-28,367
909,7	-25,767
910,2	-25,167
910,6	-29,287
911	-30,967
911,4	-29,727
911,9	-28,847
912,3	-27,247
912,7	-22,087
913,1	-26,167
913,6	-25,727
914	-31,367
914,4	-41,247
914,8	-39,247
915,3	-36,887
915,7	-36,127
916,1	-32,567
916,5	-24,687
916,9	-26,087
917,4	-21,407
917,8	-22,127
918,2	-17,567
918,6	-19,847
919,1	-21,487
919,5	-27,807
919,9	-26,247
920,3	-29,327
920,8	-26,847
921,2	-29,647
921,6	-26,367
922	-27,487
922,5	-22,007
922,9	-23,807
923,3	-16,607
923,7	-19,127
924,2	-17,567
924,6	-25,847
925	-25,647
925,4	-30,407
925,8	-27,127
926,3	-31,967
926,7	-32,727
927,1	-26,847
927,5	-26,167
928	-30,367
928,4	-34,207
928,8	-30,407
929,2	-34,887
929,7	-33,127
930,1	-26,767
930,5	-14,647
930,9	-11,287
931,3	-11,087
931,8	-17,687
932,2	-19,527
932,6	-28,167
933	-32,607
933,5	-33,847
933,9	-26,087
934,3	-26,807
934,7	-25,207
935,2	-20,807
935,6	-20,967
936	-29,687
936,4	-35,847
936,8	-41,847
937,3	-46,007
937,7	-42,887
938,1	-38,407
938,5	-32,687
939	-27,407
939,4	-29,487
939,8	-34,047
940,2	-38,207
940,6	-40,807
941,1	-40,727
941,5	-38,447
941,9	-35,607
942,3	-26,847
942,8	-28,327
943,2	-26,207
943,6	-27,847
944	-28,527
944,4	-35,407
944,9	-31,327
945,3	-30,967
945,7	-32,207
946,1	-32,247
946,6	-30,087
947	-30,127
947,4	-31,727
947,8	-26,527
948,2	-26,727
948,7	-28,007
949,1	-21,847
949,5	-15,727
949,9	-19,127
950,3	-18,967
950,8	-20,887
951,2	-19,967
951,6	-25,327
952	-22,527
952,5	-20,927
952,9	-14,487
953,3	-26,127
953,7	-26,127
954,1	-29,887
954,6	-32,327
955	-28,367
955,4	-20,047
955,8	-16,687
956,2	-14,767
956,7	-17,807
957,1	-23,807
957,5	-30,407
957,9	-34,287
958,3	-36,487
958,8	-29,687
959,2	-32,047
959,6	-30,687
960	-30,807
960,5	-28,967
960,9	-32,967
961,3	-26,887
961,7	-21,207
962,1	-19,127
962,6	-18,847
963	-14,967
963,4	-12,527
963,8	-13,527
964,2	-20,767
964,7	-16,247
965,1	-22,647
965,5	-35,927
965,9	-37,567
966,3	-28,287
966,8	-28,647
967,2	-29,007
967,6	-21,367
968	-24,327
968,4	-25,847
968,9	-29,727
969,3	-19,007
969,7	-24,047
970,1	-27,447
970,5	-28,927
971	-26,047
971,4	-30,167
971,8	-29,607
972,2	-26,527
972,6	-32,327
973,1	-37,527
973,5	-44,047
973,9	-43,727
974,3	-43,567
974,7	-35,967
975,2	-38,487
975,6	-36,727
976	-35,567
976,4	-35,687
976,8	-33,127
977,3	-32,527
977,7	-26,047
978,1	-23,287
978,5	-19,287
978,9	-28,567
979,4	-24,527
979,8	-23,127
980,2	-21,967
980,6	-18,647
981	-10,087
981,5	-7,207
981,9	-12,447
982,3	-15,007
982,7	-20,367
983,1	-21,767
983,6	-23,007
984	-21,407
984,4	-19,727
984,8	-19,607
985,2	-20,967
985,6	-23,327
986,1	-30,647
986,5	-29,327
986,9	-27,807
987,3	-30,047
987,7	-30,167
988,2	-28,847
988,6	-33,327
989	-36,567
989,4	-41,887
989,8	-44,167
990,3	-47,567
990,7	-47,327
991,1	-43,207
991,5	-34,327
991,9	-34,007
992,3	-27,487
992,8	-27,407
993,2	-30,327
993,6	-28,407
994	-24,967
994,4	-24,647
994,9	-19,967
995,3	-19,647
995,7	-26,607
996,1	-27,767
996,5	-26,647
996,9	-33,687
997,4	-37,887
997,8	-39,807
998,2	-36,967
998,6	-40,167
999	-40,527
999,5	-37,727
999,9	-32,487
1000,3	-36,167
1000,7	-39,447
1001,1	-33,167
1001,5	-31,687
1002	-35,607
1002,4	-35,847
1002,8	-33,207
1003,2	-33,487
1003,6	-33,807
1004	-30,327
1004,5	-29,367
1004,9	-25,567
1005,3	-31,567
1005,7	-33,127
1006,1	-35,407
1006,6	-35,247
1007	-37,647
1007,4	-30,167
1007,8	-29,487
1008,2	-31,807
1008,6	-28,767
1009,1	-28,727
1009,5	-29,127
1009,9	-27,727
1010,3	-19,487
1010,7	-21,927
1011,1	-18,847
1011,6	-15,887
1012	-19,087
1012,4	-25,327
1012,8	-26,967
1013,2	-31,127
1013,6	-34,647
1014,1	-33,447
1014,5	-31,287
1014,9	-26,407
1015,3	-24,727
1015,7	-26,007
1016,1	-27,127
1016,6	-29,047
1017	-34,247
1017,4	-31,647
1017,8	-33,727
1018,2	-28,807
1018,6	-31,807
1019,1	-30,887
1019,5	-30,247
1019,9	-26,007
1020,3	-30,967
1020,7	-27,407
1021,1	-28,127
1021,6	-27,927
1022	-31,247
1022,4	-30,007
1022,8	-32,407
1023,2	-32,727
1023,6	-37,807
1024,1	-37,727
1024,5	-37,487
1024,9	-35,367
1025,3	-38,207
1025,7	-34,767
1026,1	-31,287
1026,6	-26,487
1027	-20,647
1027,4	-16,447
1027,8	-16,647
1028,2	-21,967
1028,6	-24,967
1029	-32,767
1029,5	-39,007
1029,9	-43,887
1030,3	-47,647
1030,7	-46,647
1031,1	-43,607
1031,5	-41,527
1032	-36,207
1032,4	-33,607
1032,8	-37,767
1033,2	-43,327
1033,6	-39,527
1034	-41,327
1034,4	-40,247
1034,9	-33,127
1035,3	-27,727
1035,7	-34,807
1036,1	-32,287
1036,5	-28,087
1036,9	-30,087
1037,4	-32,327
1037,8	-22,607
1038,2	-26,767
1038,6	-30,287
1039	-30,847
1039,4	-29,047
1039,8	-38,047
1040,3	-36,847
1040,7	-33,767
1041,1	-36,887
1041,5	-37,767
1041,9	-29,367
1042,3	-33,087
1042,7	-34,047
1043,2	-31,127
1043,6	-33,127
1044	-34,527
1044,4	-31,247
1044,8	-29,927
1045,2	-34,127
1045,6	-25,167
1046,1	-25,047
1046,5	-21,887
1046,9	-31,807
1047,3	-31,607
1047,7	-34,287
1048,1	-39,567
1048,5	-48,167
1049	-42,167
1049,4	-37,727
1049,8	-41,367
1050,2	-33,527
1050,6	-23,687
1051	-19,247
1051,4	-25,287
1051,9	-24,727
1052,3	-31,607
1052,7	-37,647
1053,1	-40,647
1053,5	-43,527
1053,9	-43,567
1054,3	-44,567
1054,8	-44,847
1055,2	-43,047
1055,6	-39,687
1056	-37,847
1056,4	-35,207
1056,8	-31,767
1057,2	-34,487
1057,6	-33,127
1058,1	-38,207
1058,5	-40,287
1058,9	-44,447
1059,3	-45,887
1059,7	-47,527
1060,1	-45,047
1060,5	-46,367
1061	-44,007
1061,4	-40,927
1061,8	-38,967
1062,2	-40,007
1062,6	-39,167
1063	-37,407
1063,4	-37,047
1063,8	-34,887
1064,3	-31,727
1064,7	-25,287
1065,1	-30,527
1065,5	-25,727
1065,9	-25,847
1066,3	-29,447
1066,7	-34,047
1067,1	-26,567
1067,6	-30,327
1068	-31,847
1068,4	-26,607
1068,8	-23,207
1069,2	-22,127
1069,6	-25,087
1070	-15,247
1070,4	-22,647
1070,9	-31,807
1071,3	-35,687
1071,7	-34,127
1072,1	-46,607
1072,5	-43,807
1072,9	-36,327
1073,3	-35,767
1073,7	-36,767
1074,2	-38,647
1074,6	-36,847
1075	-37,847
1075,4	-34,607
1075,8	-39,127
1076,2	-35,847
1076,6	-34,047
1077	-31,367
1077,5	-38,647
1077,9	-30,127
1078,3	-25,327
1078,7	-24,407
1079,1	-31,207
1079,5	-29,407
1079,9	-29,247
1080,3	-33,167
1080,7	-34,207
1081,2	-30,487
1081,6	-24,087
1082	-30,647
1082,4	-29,407
1082,8	-28,687
1083,2	-24,567
1083,6	-29,127
1084	-22,247
1084,5	-20,887
1084,9	-25,607
1085,3	-27,047
1085,7	-26,247
1086,1	-32,607
1086,5	-34,607
1086,9	-37,847
1087,3	-41,167
1087,7	-42,207
1088,2	-41,447
1088,6	-40,927
1089	-36,367
1089,4	-35,927
1089,8	-36,607
1090,2	-37,247
1090,6	-32,607
1091	-30,607
1091,4	-29,087
1091,9	-27,167
1092,3	-24,407
1092,7	-25,847
1093,1	-25,047
1093,5	-24,847
1093,9	-24,327
1094,3	-20,327
1094,7	-18,287
1095,1	-17,967
1095,5	-18,287
1096	-16,607
1096,4	-20,007
1096,8	-20,767
1097,2	-20,007
1097,6	-13,127
1098	-14,207
1098,4	-14,207
1098,8	-11,047
1099,2	-15,007
1099,6	-19,887
1100,1	-20,287
1100,5	-20,447
1100,9	-25,927
1101,3	-23,247
1101,7	-26,647
1102,1	-28,967
1102,5	-28,207
1102,9	-29,087
1103,3	-31,007
1103,7	-29,007
1104,2	-28,447
1104,6	-29,407
1105	-27,447
1105,4	-27,807
1105,8	-22,527
1106,2	-16,247
1106,6	-11,207
1107	-8,207
1107,4	-0,847
1107,8	-0,017
1108,3	-0,3
