Data from Subt2_00053.txt Node
Date: Fri Aug 11 16:12:40 MSK 2023
User: vat
Spectrometer: MAYP114033
Trigger mode: 0
Integration Time (sec): 5,000000E-1
Scans to average: 5
Electric dark correction enabled: true
Nonlinearity correction enabled: false
Boxcar width: 2
XAxis mode: Wavelengths
Number of Pixels in Spectrum: 2068
>>>>>Begin Spectral Data<<<<<
199,4	0,633
199,9	0,783
200,4	-5,007
200,8	-7,207
201,3	-13,167
201,8	-13,487
202,2	-10,767
202,7	-4,527
203,2	-7,247
203,6	-5,967
204,1	-9,007
204,6	-16,767
205	-19,367
205,5	-20,087
206	-12,207
206,4	-12,687
206,9	-12,927
207,4	-12,247
207,8	-7,287
208,3	-12,847
208,8	-9,567
209,2	-8,767
209,7	-12,527
210,2	-11,967
210,6	-16,167
211,1	-20,407
211,5	-19,887
212	-17,127
212,5	-19,207
212,9	-16,127
213,4	-18,727
213,9	-14,767
214,3	-14,127
214,8	-14,807
215,3	-13,247
215,7	-9,647
216,2	-10,247
216,7	-19,727
217,1	-20,567
217,6	-22,447
218,1	-26,487
218,5	-32,687
219	-19,807
219,5	-19,407
219,9	-19,727
220,4	-16,767
220,9	-12,367
221,3	-19,487
221,8	-17,567
222,3	-18,407
222,7	-18,407
223,2	-16,367
223,6	-16,447
224,1	-19,047
224,6	-15,327
225	-17,567
225,5	-19,007
226	-16,407
226,4	-20,647
226,9	-28,967
227,4	-22,207
227,8	-23,967
228,3	-27,887
228,8	-29,567
229,2	-23,367
229,7	-31,967
230,2	-31,807
230,6	-30,567
231,1	-29,607
231,5	-29,807
232	-27,807
232,5	-27,367
232,9	-28,447
233,4	-24,007
233,9	-27,647
234,3	-21,327
234,8	-21,887
235,3	-20,007
235,7	-17,767
236,2	-12,327
236,7	-17,247
237,1	-21,527
237,6	-20,047
238,1	-20,567
238,5	-23,447
239	-20,927
239,4	-22,047
239,9	-17,607
240,4	-16,847
240,8	-14,967
241,3	-14,407
241,8	-8,607
242,2	-9,767
242,7	-11,927
243,2	-15,847
243,6	-15,807
244,1	-18,247
244,6	-22,167
245	-22,887
245,5	-25,647
245,9	-23,727
246,4	-21,487
246,9	-22,687
247,3	-25,167
247,8	-19,847
248,3	-25,287
248,7	-30,087
249,2	-32,327
249,7	-34,847
250,1	-31,487
250,6	-30,407
251	-25,887
251,5	-22,407
252	-25,847
252,4	-35,567
252,9	-33,087
253,4	-40,367
253,8	-39,447
254,3	-27,047
254,8	-21,687
255,2	-18,047
255,7	-8,047
256,1	-12,047
256,6	-21,407
257,1	-21,447
257,5	-26,247
258	-29,767
258,5	-30,247
258,9	-22,567
259,4	-18,647
259,9	-19,167
260,3	-20,487
260,8	-14,047
261,2	-15,527
261,7	-16,087
262,2	-16,327
262,6	-14,967
263,1	-13,607
263,6	-16,727
264	-16,647
264,5	-18,927
264,9	-19,807
265,4	-28,487
265,9	-20,767
266,3	-21,647
266,8	-17,807
267,3	-20,407
267,7	-15,367
268,2	-19,967
268,7	-22,607
269,1	-25,167
269,6	-25,847
270	-28,647
270,5	-30,287
271	-32,887
271,4	-35,527
271,9	-31,127
272,4	-24,527
272,8	-26,687
273,3	-25,327
273,7	-20,167
274,2	-14,447
274,7	-20,367
275,1	-17,567
275,6	-12,567
276,1	-16,967
276,5	-21,407
277	-21,687
277,4	-24,927
277,9	-27,287
278,4	-24,847
278,8	-26,407
279,3	-26,807
279,8	-27,327
280,2	-28,527
280,7	-27,327
281,1	-27,527
281,6	-26,727
282,1	-19,447
282,5	-18,967
283	-17,527
283,4	-16,407
283,9	-15,687
284,4	-17,247
284,8	-14,527
285,3	-16,447
285,8	-18,607
286,2	-16,007
286,7	-14,607
287,1	-22,127
287,6	-24,087
288,1	-21,687
288,5	-18,687
289	-18,807
289,5	-17,287
289,9	-14,847
290,4	-13,727
290,8	-20,487
291,3	-26,167
291,8	-22,367
292,2	-19,247
292,7	-24,087
293,1	-23,367
293,6	-20,287
294,1	-20,927
294,5	-33,967
295	-26,047
295,5	-19,367
295,9	-16,807
296,4	-16,527
296,8	-4,447
297,3	-10,927
297,8	-19,687
298,2	-24,527
298,7	-24,527
299,1	-27,247
299,6	-21,287
300,1	-21,407
300,5	-17,687
301	-14,767
301,5	-18,367
301,9	-24,447
302,4	-22,887
302,8	-27,007
303,3	-29,527
303,8	-29,207
304,2	-30,127
304,7	-28,087
305,1	-24,687
305,6	-24,807
306,1	-21,927
306,5	-18,567
307	-19,487
307,4	-20,047
307,9	-19,047
308,4	-18,447
308,8	-14,927
309,3	-14,167
309,8	-12,687
310,2	-13,767
310,7	-15,087
311,1	-27,527
311,6	-27,847
312,1	-29,167
312,5	-29,727
313	-33,247
313,4	-28,087
313,9	-26,607
314,4	-25,447
314,8	-28,647
315,3	-26,127
315,7	-22,007
316,2	-28,087
316,7	-29,687
317,1	-28,367
317,6	-28,447
318	-30,967
318,5	-26,327
319	-27,607
319,4	-30,927
319,9	-27,087
320,3	-25,287
320,8	-24,927
321,3	-25,087
321,7	-18,087
322,2	-23,047
322,6	-22,927
323,1	-26,487
323,6	-27,647
324	-27,887
324,5	-28,967
324,9	-30,887
325,4	-23,167
325,9	-19,927
326,3	-16,127
326,8	-12,287
327,2	-17,207
327,7	-26,847
328,2	-30,247
328,6	-34,287
329,1	-34,847
329,5	-27,327
330	-24,687
330,5	-27,287
330,9	-33,047
331,4	-30,447
331,8	-35,527
332,3	-31,647
332,8	-30,927
333,2	-32,527
333,7	-34,527
334,1	-30,527
334,6	-34,327
335,1	-29,887
335,5	-21,287
336	-18,887
336,4	-18,127
336,9	-16,687
337,4	-17,967
337,8	-19,887
338,3	-22,367
338,7	-21,687
339,2	-23,127
339,7	-20,847
340,1	-17,087
340,6	-14,367
341	-15,607
341,5	-14,807
342	-15,927
342,4	-18,527
342,9	-19,767
343,3	-23,927
343,8	-23,367
344,2	-19,727
344,7	-21,527
345,2	-23,527
345,6	-18,567
346,1	-18,367
346,5	-17,527
347	-22,807
347,5	-23,367
347,9	-23,207
348,4	-22,127
348,8	-31,247
349,3	-21,607
349,8	-20,287
350,2	-15,527
350,7	-14,327
351,1	-10,127
351,6	-12,167
352	-13,447
352,5	-11,807
353	-13,367
353,4	-12,287
353,9	-8,367
354,3	3,073
354,8	0,073
355,3	11,833
355,7	22,433
356,2	23,393
356,6	26,153
357,1	43,833
357,5	52,753
358	69,833
358,5	96,273
358,9	117,833
359,4	134,953
359,8	160,153
360,3	189,593
360,8	218,033
361,2	259,673
361,7	298,873
362,1	345,673
362,6	393,113
363	447,313
363,5	496,073
364	548,153
364,4	605,473
364,9	664,513
365,3	725,993
365,8	782,033
366,3	843,993
366,7	893,353
367,2	937,353
367,6	967,313
368,1	993,433
368,5	1008,313
369	1015,793
369,5	1011,953
369,9	1011,633
370,4	997,713
370,8	976,753
371,3	954,993
371,7	926,913
372,2	885,593
372,7	843,553
373,1	799,473
373,6	749,073
374	701,153
374,5	657,713
374,9	613,553
375,4	571,873
375,9	528,273
376,3	487,833
376,8	447,473
377,2	409,753
377,7	373,353
378,2	339,033
378,6	303,353
379,1	268,033
379,5	244,313
380	219,673
380,4	199,433
380,9	185,753
381,4	171,313
381,8	161,113
382,3	150,313
382,7	137,513
383,2	126,393
383,6	124,433
384,1	109,793
384,6	98,833
385	92,393
385,5	85,513
385,9	73,313
386,4	65,753
386,8	54,873
387,3	52,913
387,7	47,713
388,2	36,313
388,7	35,553
389,1	33,113
389,6	23,913
390	13,753
390,5	14,273
390,9	6,353
391,4	5,353
391,9	8,393
392,3	11,433
392,8	11,873
393,2	10,633
393,7	13,353
394,1	11,433
394,6	9,193
395,1	6,233
395,5	9,273
396	7,233
396,4	-4,167
396,9	-6,727
397,3	-2,807
397,8	-1,647
398,2	0,753
398,7	7,953
399,2	14,753
399,6	8,113
400,1	8,313
400,5	2,873
401	5,353
401,4	-2,447
401,9	-5,967
402,4	-12,647
402,8	-12,887
403,3	-18,487
403,7	-21,127
404,2	-13,967
404,6	-9,407
405,1	-3,687
405,5	1,393
406	4,833
406,5	6,033
406,9	3,673
407,4	1,153
407,8	4,713
408,3	9,473
408,7	7,033
409,2	8,673
409,6	8,993
410,1	11,993
410,6	16,433
411	18,513
411,5	20,233
411,9	27,553
412,4	30,953
412,8	30,233
413,3	37,313
413,7	48,873
414,2	46,113
414,7	48,273
415,1	57,113
415,6	59,553
416	65,113
416,5	73,993
416,9	83,433
417,4	85,433
417,8	90,033
418,3	86,433
418,8	96,433
419,2	103,673
419,7	116,473
420,1	126,113
420,6	138,473
421	148,193
421,5	149,113
421,9	153,673
422,4	167,873
422,8	177,953
423,3	181,753
423,8	202,593
424,2	217,113
424,7	227,353
425,1	241,793
425,6	255,033
426	256,713
426,5	267,153
426,9	282,793
427,4	298,593
427,9	322,473
428,3	345,193
428,8	360,993
429,2	378,913
429,7	398,993
430,1	411,793
430,6	426,793
431	445,033
431,5	467,193
431,9	485,913
432,4	514,193
432,8	547,073
433,3	579,553
433,8	604,153
434,2	639,073
434,7	668,513
435,1	700,833
435,6	741,993
436	784,233
436,5	818,953
436,9	858,553
437,4	900,353
437,8	939,633
438,3	983,473
438,8	1028,513
439,2	1075,113
439,7	1123,793
440,1	1169,073
440,6	1214,313
441	1266,113
441,5	1319,993
441,9	1370,313
442,4	1423,873
442,8	1486,273
443,3	1549,113
443,7	1610,193
444,2	1678,553
444,7	1747,033
445,1	1820,593
445,6	1886,873
446	1956,713
446,5	2034,673
446,9	2114,513
447,4	2182,073
447,8	2260,873
448,3	2341,793
448,7	2420,633
449,2	2501,913
449,6	2592,953
450,1	2681,753
450,6	2776,673
451	2863,433
451,5	2955,473
451,9	3042,833
452,4	3138,513
452,8	3232,993
453,3	3332,073
453,7	3434,273
454,2	3547,953
454,6	3652,633
455,1	3757,673
455,5	3866,633
456	3974,633
456,4	4080,793
456,9	4192,913
457,3	4310,753
457,8	4422,153
458,3	4533,673
458,7	4650,553
459,2	4773,353
459,6	4891,833
460,1	5011,953
460,5	5136,193
461	5245,433
461,4	5370,593
461,9	5494,113
462,3	5623,713
462,8	5755,913
463,2	5905,153
463,7	6019,233
464,1	6148,873
464,6	6267,433
465	6389,993
465,5	6517,553
466	6652,433
466,4	6785,313
466,9	6912,193
467,3	7040,393
467,8	7154,473
468,2	7284,233
468,7	7395,313
469,1	7530,233
469,6	7654,193
470	7778,193
470,5	7894,593
470,9	8013,673
471,4	8120,713
471,8	8236,953
472,3	8346,153
472,7	8460,553
473,2	8590,953
473,6	8700,753
474,1	8808,273
474,5	8919,233
475	9009,833
475,4	9096,233
475,9	9200,273
476,4	9293,873
476,8	9379,193
477,3	9471,433
477,7	9554,873
478,2	9639,873
478,6	9722,633
479,1	9805,953
479,5	9883,073
480	9961,953
480,4	10025,273
480,9	10089,673
481,3	10158,393
481,8	10230,393
482,2	10284,953
482,7	10346,273
483,1	10393,953
483,6	10442,713
484	10487,873
484,5	10518,393
484,9	10556,913
485,4	10599,073
485,8	10620,473
486,3	10641,233
486,7	10677,153
487,2	10700,273
487,6	10707,393
488,1	10718,593
488,5	10727,073
489	10740,993
489,4	10736,833
489,9	10745,193
490,4	10751,553
490,8	10744,033
491,3	10721,473
491,7	10707,553
492,2	10684,233
492,6	10639,793
493,1	10613,913
493,5	10582,993
494	10544,033
494,4	10509,633
494,9	10489,953
495,3	10450,673
495,8	10416,113
496,2	10383,233
496,7	10342,673
497,1	10291,233
497,6	10239,473
498	10189,233
498,5	10127,033
498,9	10073,673
499,4	10020,273
499,8	9965,833
500,3	9916,233
500,7	9871,433
501,2	9804,633
501,6	9751,273
502,1	9703,153
502,5	9624,953
503	9553,193
503,4	9491,553
503,9	9430,793
504,3	9349,033
504,8	9275,153
505,2	9197,393
505,7	9132,673
506,1	9044,793
506,6	8972,313
507	8899,753
507,5	8836,673
507,9	8753,593
508,4	8679,913
508,8	8609,473
509,3	8530,033
509,7	8442,153
510,2	8360,873
510,6	8283,113
511,1	8197,233
511,5	8117,713
512	8034,513
512,4	7955,153
512,9	7867,113
513,3	7786,033
513,8	7710,073
514,2	7633,313
514,7	7542,313
515,1	7463,113
515,6	7380,953
516	7294,953
516,5	7209,673
516,9	7136,233
517,4	7049,353
517,8	6957,673
518,3	6887,553
518,7	6809,713
519,2	6724,713
519,6	6653,393
520,1	6591,473
520,5	6515,233
521	6448,313
521,4	6371,753
521,9	6297,833
522,3	6210,873
522,8	6130,553
523,2	6058,233
523,7	5994,953
524,1	5915,153
524,6	5848,233
525	5773,673
525,5	5690,633
525,9	5613,473
526,4	5551,153
526,8	5481,913
527,3	5414,113
527,7	5358,273
528,2	5303,833
528,6	5241,433
529,1	5180,633
529,5	5131,033
530	5070,193
530,4	5008,633
530,9	4947,353
531,3	4889,073
531,8	4821,793
532,2	4759,593
532,6	4699,793
533,1	4644,953
533,5	4599,473
534	4544,993
534,4	4490,633
534,9	4433,993
535,3	4382,793
535,8	4329,553
536,2	4285,033
536,7	4243,353
537,1	4201,633
537,6	4161,113
538	4120,353
538,5	4077,953
538,9	4030,833
539,4	3985,553
539,8	3935,953
540,3	3878,353
540,7	3827,553
541,2	3786,313
541,6	3737,273
542,1	3693,153
542,5	3660,873
543	3617,873
543,4	3564,953
543,9	3533,113
544,3	3495,353
544,8	3449,513
545,2	3416,793
545,7	3383,953
546,1	3344,273
546,5	3314,073
547	3279,313
547,4	3242,473
547,9	3209,553
548,3	3176,473
548,8	3138,713
549,2	3106,873
549,7	3079,353
550,1	3051,873
550,6	3025,993
551	2987,753
551,5	2958,673
551,9	2929,433
552,4	2904,513
552,8	2875,313
553,3	2859,113
553,7	2840,993
554,2	2810,513
554,6	2778,673
555,1	2759,593
555,5	2739,593
555,9	2710,193
556,4	2687,433
556,8	2669,633
557,3	2640,673
557,7	2609,833
558,2	2583,753
558,6	2561,873
559,1	2533,913
559,5	2506,553
560	2488,033
560,4	2473,433
560,9	2451,193
561,3	2437,073
561,8	2419,153
562,2	2392,553
562,7	2363,833
563,1	2341,033
563,6	2315,313
564	2295,673
564,4	2281,273
564,9	2264,433
565,3	2248,713
565,8	2229,473
566,2	2212,273
566,7	2198,313
567,1	2184,913
567,6	2169,793
568	2155,353
568,5	2134,753
568,9	2113,393
569,4	2100,993
569,8	2080,113
570,3	2060,073
570,7	2046,593
571,1	2030,673
571,6	2012,913
572	1998,873
572,5	1989,793
572,9	1978,513
573,4	1964,273
573,8	1942,153
574,3	1931,273
574,7	1914,353
575,2	1894,073
575,6	1879,873
576,1	1870,033
576,5	1856,233
576,9	1844,553
577,4	1831,753
577,8	1816,673
578,3	1800,433
578,7	1793,393
579,2	1784,513
579,6	1774,073
580,1	1766,073
580,5	1756,713
581	1738,393
581,4	1722,513
581,9	1714,193
582,3	1704,993
582,7	1689,913
583,2	1678,513
583,6	1663,953
584,1	1644,193
584,5	1627,113
585	1611,633
585,4	1595,713
585,9	1586,313
586,3	1577,793
586,8	1568,713
587,2	1559,313
587,6	1553,233
588,1	1542,153
588,5	1529,113
589	1518,873
589,4	1510,433
589,9	1501,953
590,3	1491,793
590,8	1482,873
591,2	1469,593
591,7	1463,713
592,1	1448,393
592,5	1435,113
593	1422,913
593,4	1413,393
593,9	1399,873
594,3	1398,273
594,8	1395,193
595,2	1390,793
595,7	1382,113
596,1	1379,353
596,6	1366,793
597	1358,953
597,4	1352,633
597,9	1348,553
598,3	1336,473
598,8	1333,193
599,2	1327,113
599,7	1321,593
600,1	1319,313
600,6	1313,513
601	1303,593
601,4	1291,873
601,9	1283,673
602,3	1269,353
602,8	1262,433
603,2	1256,353
603,7	1253,313
604,1	1244,113
604,6	1238,873
605	1235,993
605,4	1224,913
605,9	1206,993
606,3	1201,273
606,8	1193,513
607,2	1184,393
607,7	1179,033
608,1	1183,353
608,6	1177,193
609	1169,193
609,4	1161,193
609,9	1156,673
610,3	1150,233
610,8	1141,953
611,2	1133,553
611,7	1124,193
612,1	1110,713
612,6	1094,353
613	1087,753
613,4	1084,913
613,9	1083,713
614,3	1084,513
614,8	1080,913
615,2	1073,753
615,7	1063,713
616,1	1048,313
616,6	1035,233
617	1028,753
617,4	1027,113
617,9	1022,793
618,3	1018,113
618,8	1013,153
619,2	1007,873
619,7	999,193
620,1	986,153
620,5	983,753
621	976,713
621,4	966,913
621,9	956,913
622,3	950,233
622,8	949,033
623,2	947,993
623,6	944,953
624,1	941,673
624,5	940,633
625	922,553
625,4	907,233
625,9	903,313
626,3	897,713
626,8	888,153
627,2	887,353
627,6	888,793
628,1	881,913
628,5	873,113
629	874,233
629,4	869,993
629,9	860,233
630,3	851,113
630,7	844,513
631,2	836,233
631,6	827,353
632,1	822,313
632,5	822,673
633	817,433
633,4	807,393
633,8	797,633
634,3	789,633
634,7	779,353
635,2	770,553
635,6	770,273
636,1	768,753
636,5	773,553
636,9	765,033
637,4	764,153
637,8	754,793
638,3	745,113
638,7	733,753
639,2	733,913
639,6	728,313
640	718,833
640,5	718,473
640,9	708,353
641,4	700,113
641,8	695,993
642,2	698,553
642,7	690,913
643,1	687,833
643,6	681,993
644	672,833
644,5	667,793
644,9	670,953
645,3	670,633
645,8	667,353
646,2	663,313
646,7	657,273
647,1	652,273
647,6	643,473
648	635,393
648,4	634,033
648,9	636,113
649,3	625,113
649,8	626,473
650,2	626,833
650,6	620,433
651,1	612,313
651,5	612,953
652	606,833
652,4	603,593
652,9	599,673
653,3	596,633
653,7	591,193
654,2	586,673
654,6	587,353
655,1	582,713
655,5	576,113
655,9	570,593
656,4	560,393
656,8	553,993
657,3	551,113
657,7	548,353
658,2	542,033
658,6	540,353
659	535,913
659,5	536,953
659,9	524,833
660,4	527,593
660,8	528,633
661,2	520,273
661,7	508,913
662,1	510,473
662,6	500,073
663	491,193
663,4	489,753
663,9	485,033
664,3	478,633
664,8	478,993
665,2	477,393
665,6	479,673
666,1	479,833
666,5	475,353
667	473,913
667,4	465,393
667,9	458,313
668,3	452,633
668,7	458,353
669,2	451,433
669,6	453,913
670,1	447,233
670,5	446,553
670,9	438,513
671,4	433,833
671,8	433,193
672,3	433,353
672,7	431,753
673,1	424,353
673,6	421,953
674	419,473
674,5	413,313
674,9	404,473
675,3	402,633
675,8	403,633
676,2	397,833
676,7	399,793
677,1	397,353
677,5	397,273
678	389,673
678,4	388,233
678,9	378,473
679,3	377,033
679,7	372,433
680,2	375,073
680,6	361,233
681,1	357,513
681,5	357,873
681,9	353,713
682,4	350,113
682,8	353,313
683,3	356,233
683,7	346,153
684,1	343,713
684,6	339,993
685	342,393
685,5	336,113
685,9	340,633
686,3	337,593
686,8	331,073
687,2	324,233
687,7	329,793
688,1	329,193
688,5	333,393
689	329,953
689,4	321,553
689,9	307,873
690,3	299,433
690,7	294,193
691,2	293,673
691,6	300,993
692	306,513
692,5	307,473
692,9	304,793
693,4	297,153
693,8	295,913
694,2	291,153
694,7	288,833
695,1	284,273
695,6	289,473
696	286,913
696,4	281,673
696,9	285,073
697,3	285,673
697,8	278,313
698,2	276,313
698,6	278,193
699,1	271,793
699,5	273,193
699,9	270,753
700,4	264,913
700,8	258,113
701,3	251,073
701,7	243,673
702,1	240,353
702,6	235,993
703	235,793
703,5	234,473
703,9	228,473
704,3	233,393
704,8	236,753
705,2	234,273
705,6	236,833
706,1	235,393
706,5	227,193
707	226,233
707,4	224,193
707,8	220,513
708,3	226,993
708,7	231,713
709,2	225,113
709,6	220,393
710	213,273
710,5	203,273
710,9	191,273
711,3	186,393
711,8	188,713
712,2	193,353
712,7	197,873
713,1	207,273
713,5	212,753
714	214,153
714,4	207,273
714,8	203,873
715,3	203,753
715,7	205,153
716,2	199,233
716,6	200,393
717	199,873
717,5	195,993
717,9	190,633
718,3	185,273
718,8	189,833
719,2	184,033
719,7	179,673
720,1	177,953
720,5	176,553
721	167,273
721,4	164,753
721,8	165,313
722,3	156,753
722,7	159,233
723,2	161,753
723,6	162,193
724	161,593
724,5	168,233
724,9	171,953
725,3	164,673
725,8	168,593
726,2	162,113
726,7	159,833
727,1	155,073
727,5	157,753
728	151,193
728,4	152,913
728,8	149,553
729,3	149,513
729,7	152,433
730,1	151,353
730,6	149,513
731	145,513
731,5	143,873
731,9	142,753
732,3	139,473
732,8	138,393
733,2	141,113
733,6	143,393
734,1	134,433
734,5	137,193
734,9	137,433
735,4	130,713
735,8	121,953
736,3	128,353
736,7	124,873
737,1	124,713
737,6	127,553
738	127,073
738,4	124,833
738,9	130,593
739,3	132,513
739,7	129,953
740,2	126,913
740,6	121,393
741,1	112,873
741,5	106,393
741,9	111,793
742,4	111,473
742,8	112,553
743,2	115,553
743,7	112,353
744,1	115,073
744,5	116,793
745	121,113
745,4	121,353
745,8	124,393
746,3	116,753
746,7	114,753
747,2	110,953
747,6	110,073
748	110,113
748,5	112,233
748,9	111,353
749,3	109,193
749,8	102,833
750,2	95,313
750,6	95,113
751,1	97,193
751,5	95,713
751,9	99,193
752,4	108,273
752,8	105,353
753,3	103,713
753,7	105,913
754,1	104,993
754,6	102,793
755	98,513
755,4	101,673
755,9	100,273
756,3	94,793
756,7	92,593
757,2	93,713
757,6	88,353
758	90,713
758,5	88,833
758,9	85,553
759,3	83,673
759,8	85,713
760,2	79,393
760,6	82,273
761,1	80,193
761,5	79,793
761,9	78,553
762,4	79,073
762,8	79,473
763,3	82,753
763,7	80,753
764,1	78,073
764,6	77,313
765	78,993
765,4	75,873
765,9	76,833
766,3	76,353
766,7	71,193
767,2	67,793
767,6	69,313
768	74,233
768,5	76,193
768,9	81,113
769,3	80,033
769,8	77,313
770,2	72,113
770,6	69,153
771,1	68,553
771,5	70,273
771,9	73,953
772,4	70,593
772,8	71,513
773,2	68,513
773,7	69,793
774,1	67,913
774,5	70,473
775	69,433
775,4	68,953
775,8	66,833
776,3	62,673
776,7	60,193
777,1	59,993
777,6	65,393
778	62,193
778,4	69,113
778,9	68,073
779,3	62,433
779,7	55,273
780,2	58,193
780,6	53,273
781	56,953
781,5	59,873
781,9	59,233
782,3	56,633
782,8	59,513
783,2	59,913
783,6	60,513
784,1	60,033
784,5	55,513
784,9	48,953
785,4	47,513
785,8	48,393
786,2	45,873
786,7	51,513
787,1	48,673
787,5	42,033
788	40,993
788,4	46,953
788,8	41,713
789,3	49,113
789,7	53,753
790,1	57,113
790,6	53,393
791	54,553
791,4	50,953
791,9	46,073
792,3	37,913
792,7	40,593
793,2	42,513
793,6	38,873
794	42,113
794,5	47,433
794,9	42,673
795,3	39,473
795,8	46,993
796,2	45,113
796,6	39,313
797,1	40,193
797,5	41,553
797,9	36,593
798,4	35,873
798,8	41,593
799,2	42,273
799,7	40,313
800,1	38,473
800,5	39,193
801	35,793
801,4	31,233
801,8	32,073
802,2	34,673
802,7	35,033
803,1	31,473
803,5	32,673
804	33,633
804,4	28,833
804,8	30,513
805,3	33,953
805,7	30,593
806,1	32,873
806,6	37,393
807	31,193
807,4	28,873
807,9	38,793
808,3	31,233
808,7	24,753
809,2	27,713
809,6	29,313
810	24,033
810,4	24,633
810,9	23,433
811,3	21,833
811,7	20,073
812,2	20,633
812,6	17,313
813	19,473
813,5	22,593
813,9	21,553
814,3	26,833
814,8	35,313
815,2	31,833
815,6	28,513
816,1	29,353
816,5	25,433
816,9	23,433
817,3	26,393
817,8	25,073
818,2	22,513
818,6	20,153
819,1	18,553
819,5	21,193
819,9	18,873
820,4	19,673
820,8	17,913
821,2	15,633
821,7	18,193
822,1	20,433
822,5	15,633
822,9	13,473
823,4	10,913
823,8	12,913
824,2	9,633
824,7	13,073
825,1	14,513
825,5	15,873
826	9,353
826,4	11,153
826,8	12,753
827,3	11,993
827,7	9,993
828,1	8,593
828,5	8,073
829	2,913
829,4	3,273
829,8	5,233
830,3	9,193
830,7	11,073
831,1	8,593
831,6	9,393
832	11,913
832,4	5,273
832,8	5,593
833,3	14,313
833,7	14,313
834,1	10,433
834,6	10,793
835	13,513
835,4	14,673
835,8	14,073
836,3	15,833
836,7	17,473
837,1	8,353
837,6	4,313
838	0,913
838,4	0,553
838,9	-3,607
839,3	2,633
839,7	1,433
840,1	5,193
840,6	3,673
841	6,113
841,4	8,553
841,9	10,113
842,3	4,033
842,7	3,833
843,1	7,313
843,6	0,553
844	-0,207
844,4	2,833
844,9	7,473
845,3	6,233
845,7	6,953
846,2	7,193
846,6	9,553
847	-1,887
847,4	-6,087
847,9	-1,647
848,3	-7,327
848,7	-8,007
849,2	-0,887
849,6	0,113
850	-3,927
850,4	-1,527
850,9	-1,727
851,3	-0,127
851,7	-3,407
852,2	-2,607
852,6	-4,767
853	-8,967
853,4	-5,807
853,9	-1,447
854,3	-1,687
854,7	3,633
855,2	8,353
855,6	6,353
856	2,833
856,4	0,273
856,9	-4,767
857,3	-10,967
857,7	-12,967
858,2	-11,407
858,6	-9,447
859	-11,047
859,4	-4,927
859,9	-3,287
860,3	1,513
860,7	1,553
861,1	7,113
861,6	3,793
862	-2,727
862,4	-10,367
862,9	-9,607
863,3	-8,207
863,7	-13,647
864,1	-10,567
864,6	-7,367
865	-4,407
865,4	-6,567
865,9	0,233
866,3	-2,527
866,7	-2,047
867,1	-4,167
867,6	-5,447
868	-4,727
868,4	-2,567
868,8	-3,527
869,3	-6,567
869,7	-7,367
870,1	-10,887
870,6	-13,167
871	-12,847
871,4	19,233
871,8	17,833
872,3	17,753
872,7	13,913
873,1	17,153
873,5	-14,087
874	-10,167
874,4	-8,367
874,8	-4,127
875,3	-5,207
875,7	-4,407
876,1	-9,607
876,5	-12,767
877	-7,447
877,4	-10,327
877,8	-10,687
878,2	-8,567
878,7	-3,247
879,1	-4,007
879,5	-4,527
879,9	-7,087
880,4	-5,167
880,8	-7,687
881,2	-9,407
881,7	-9,007
882,1	-8,727
882,5	-9,807
882,9	-12,327
883,4	-15,007
883,8	-14,127
884,2	-13,367
884,6	-10,767
885,1	-7,367
885,5	-4,687
885,9	-6,567
886,3	-7,007
886,8	-9,807
887,2	-8,127
887,6	-5,967
888	-6,887
888,5	-7,647
888,9	-3,327
889,3	-7,007
889,8	-9,607
890,2	-6,127
890,6	-2,887
891	-9,207
891,5	-7,047
891,9	-4,727
892,3	-6,647
892,7	-11,527
893,2	-2,767
893,6	-3,847
894	-9,287
894,4	-11,087
894,9	-9,287
895,3	-15,207
895,7	-14,727
896,1	-12,607
896,6	-8,287
897	-5,407
897,4	-9,087
897,8	-10,647
898,3	-10,447
898,7	-5,647
899,1	-7,847
899,5	-7,487
900	-8,807
900,4	-5,687
900,8	-14,927
901,2	-11,567
901,7	-9,327
902,1	-8,167
902,5	-8,047
902,9	-6,127
903,4	-3,607
903,8	-5,327
904,2	-2,327
904,6	-8,527
905,1	-6,847
905,5	-17,967
905,9	-19,927
906,3	-24,207
906,8	-18,807
907,2	-19,447
907,6	-17,527
908	-11,167
908,5	-7,527
908,9	-12,567
909,3	-18,847
909,7	-13,127
910,2	-16,167
910,6	-23,047
911	-17,647
911,4	-13,127
911,9	-15,607
912,3	-10,167
912,7	-8,607
913,1	-11,007
913,6	-14,007
914	-17,487
914,4	-29,847
914,8	-25,647
915,3	-26,207
915,7	-24,647
916,1	-23,367
916,5	-12,847
916,9	-14,607
917,4	-13,247
917,8	-13,327
918,2	-12,127
918,6	-18,447
919,1	-16,407
919,5	-22,727
919,9	-18,127
920,3	-17,767
920,8	-15,687
921,2	-19,487
921,6	-16,167
922	-21,647
922,5	-14,647
922,9	-15,767
923,3	-12,327
923,7	-9,847
924,2	-5,967
924,6	-12,807
925	-8,847
925,4	-7,007
925,8	-11,607
926,3	-14,527
926,7	-19,687
927,1	-17,327
927,5	-24,047
928	-23,687
928,4	-22,447
928,8	-15,687
929,2	-22,007
929,7	-19,047
930,1	-15,047
930,5	-11,327
930,9	-11,847
931,3	-11,127
931,8	-17,567
932,2	-17,687
932,6	-24,007
933	-24,527
933,5	-24,967
933,9	-12,367
934,3	-15,447
934,7	-14,887
935,2	-12,087
935,6	-12,887
936	-25,087
936,4	-25,847
936,8	-25,767
937,3	-31,407
937,7	-28,007
938,1	-24,207
938,5	-22,927
939	-24,327
939,4	-23,287
939,8	-19,607
940,2	-14,007
940,6	-15,167
941,1	-10,567
941,5	-12,607
941,9	-18,767
942,3	-14,567
942,8	-16,607
943,2	-17,807
943,6	-20,047
944	-22,007
944,4	-29,727
944,9	-28,407
945,3	-29,047
945,7	-30,767
946,1	-32,807
946,6	-35,127
947	-31,087
947,4	-30,527
947,8	-20,287
948,2	-15,327
948,7	-13,127
949,1	-10,007
949,5	-6,367
949,9	-10,207
950,3	-8,087
950,8	-5,727
951,2	-10,327
951,6	-9,167
952	-9,447
952,5	-12,127
952,9	-10,807
953,3	-14,607
953,7	-15,927
954,1	-13,407
954,6	-12,607
955	-13,727
955,4	-9,807
955,8	-12,687
956,2	-15,767
956,7	-17,527
957,1	-21,087
957,5	-22,647
957,9	-23,967
958,3	-21,847
958,8	-17,727
959,2	-19,687
959,6	-20,767
960	-19,407
960,5	-20,647
960,9	-21,287
961,3	-16,487
961,7	-9,607
962,1	-13,047
962,6	-10,367
963	-9,847
963,4	-5,687
963,8	-8,407
964,2	-8,847
964,7	-11,407
965,1	-19,607
965,5	-30,047
965,9	-36,847
966,3	-28,687
966,8	-27,407
967,2	-26,047
967,6	-22,207
968	-19,407
968,4	-23,647
968,9	-28,287
969,3	-17,727
969,7	-15,887
970,1	-19,127
970,5	-21,127
971	-13,927
971,4	-18,527
971,8	-21,047
972,2	-17,727
972,6	-18,287
973,1	-24,647
973,5	-30,007
973,9	-33,647
974,3	-35,327
974,7	-35,447
975,2	-34,047
975,6	-33,047
976	-24,767
976,4	-25,487
976,8	-19,047
977,3	-18,367
977,7	-14,767
978,1	-18,847
978,5	-11,527
978,9	-19,647
979,4	-15,567
979,8	-13,087
980,2	-12,287
980,6	-12,807
981	-5,887
981,5	-7,847
981,9	-7,247
982,3	-7,127
982,7	-14,007
983,1	-22,407
983,6	-21,247
984	-23,487
984,4	-21,927
984,8	-18,127
985,2	-12,127
985,6	-18,407
986,1	-21,887
986,5	-25,687
986,9	-24,327
987,3	-29,927
987,7	-30,247
988,2	-27,887
988,6	-24,167
989	-23,767
989,4	-23,927
989,8	-20,087
990,3	-25,967
990,7	-29,087
991,1	-28,527
991,5	-19,967
991,9	-18,447
992,3	-12,447
992,8	-9,487
993,2	-11,207
993,6	-13,167
994	-16,367
994,4	-18,727
994,9	-17,527
995,3	-17,727
995,7	-21,047
996,1	-20,047
996,5	-17,167
996,9	-23,007
997,4	-24,167
997,8	-26,687
998,2	-25,687
998,6	-28,007
999	-23,247
999,5	-26,367
999,9	-23,167
1000,3	-24,487
1000,7	-25,287
1001,1	-26,607
1001,5	-24,567
1002	-26,687
1002,4	-26,127
1002,8	-25,327
1003,2	-26,607
1003,6	-26,847
1004	-22,087
1004,5	-26,727
1004,9	-22,887
1005,3	-28,487
1005,7	-27,967
1006,1	-34,447
1006,6	-31,247
1007	-36,647
1007,4	-29,727
1007,8	-30,047
1008,2	-26,327
1008,6	-21,407
1009,1	-15,727
1009,5	-17,887
1009,9	-19,207
1010,3	-17,527
1010,7	-20,487
1011,1	-25,287
1011,6	-18,247
1012	-14,727
1012,4	-17,487
1012,8	-19,687
1013,2	-19,207
1013,6	-29,367
1014,1	-30,607
1014,5	-30,007
1014,9	-25,567
1015,3	-27,727
1015,7	-23,167
1016,1	-25,647
1016,6	-24,887
1017	-27,887
1017,4	-23,167
1017,8	-23,367
1018,2	-15,367
1018,6	-22,527
1019,1	-19,287
1019,5	-21,327
1019,9	-18,767
1020,3	-24,167
1020,7	-16,487
1021,1	-20,767
1021,6	-17,527
1022	-13,527
1022,4	-11,807
1022,8	-11,727
1023,2	-9,287
1023,6	-13,007
1024,1	-21,447
1024,5	-22,047
1024,9	-25,487
1025,3	-27,607
1025,7	-26,127
1026,1	-20,207
1026,6	-21,567
1027	-18,047
1027,4	-16,807
1027,8	-16,767
1028,2	-19,687
1028,6	-13,167
1029	-18,287
1029,5	-21,567
1029,9	-22,607
1030,3	-23,047
1030,7	-32,487
1031,1	-22,767
1031,5	-22,007
1032	-22,167
1032,4	-24,407
1032,8	-20,767
1033,2	-27,847
1033,6	-30,887
1034	-31,327
1034,4	-31,567
1034,9	-31,607
1035,3	-31,487
1035,7	-28,927
1036,1	-31,887
1036,5	-29,287
1036,9	-23,127
1037,4	-31,247
1037,8	-25,887
1038,2	-23,487
1038,6	-26,807
1039	-33,847
1039,4	-27,727
1039,8	-30,567
1040,3	-30,847
1040,7	-25,887
1041,1	-26,207
1041,5	-23,767
1041,9	-29,727
1042,3	-37,087
1042,7	-39,167
1043,2	-38,807
1043,6	-41,807
1044	-36,487
1044,4	-25,767
1044,8	-22,287
1045,2	-25,007
1045,6	-16,567
1046,1	-17,607
1046,5	-14,127
1046,9	-21,687
1047,3	-19,807
1047,7	-24,247
1048,1	-26,207
1048,5	-38,087
1049	-35,567
1049,4	-35,767
1049,8	-35,407
1050,2	-31,407
1050,6	-25,847
1051	-23,127
1051,4	-21,887
1051,9	-27,367
1052,3	-30,447
1052,7	-31,927
1053,1	-35,007
1053,5	-40,927
1053,9	-37,367
1054,3	-36,487
1054,8	-35,567
1055,2	-32,567
1055,6	-24,807
1056	-25,247
1056,4	-28,207
1056,8	-23,127
1057,2	-20,007
1057,6	-22,687
1058,1	-22,847
1058,5	-25,367
1058,9	-30,687
1059,3	-35,047
1059,7	-33,207
1060,1	-31,087
1060,5	-27,927
1061	-27,367
1061,4	-29,247
1061,8	-26,767
1062,2	-29,287
1062,6	-28,447
1063	-29,287
1063,4	-32,327
1063,8	-32,767
1064,3	-29,767
1064,7	-29,087
1065,1	-28,367
1065,5	-17,967
1065,9	-20,607
1066,3	-23,927
1066,7	-26,287
1067,1	-30,967
1067,6	-35,167
1068	-38,007
1068,4	-32,727
1068,8	-30,327
1069,2	-19,407
1069,6	-20,687
1070	-14,287
1070,4	-20,207
1070,9	-17,327
1071,3	-20,647
1071,7	-24,087
1072,1	-29,807
1072,5	-24,967
1072,9	-27,367
1073,3	-31,127
1073,7	-26,367
1074,2	-27,367
1074,6	-28,367
1075	-30,487
1075,4	-22,607
1075,8	-28,807
1076,2	-24,527
1076,6	-22,127
1077	-16,967
1077,5	-27,207
1077,9	-19,967
1078,3	-22,407
1078,7	-22,167
1079,1	-26,087
1079,5	-21,527
1079,9	-26,127
1080,3	-25,247
1080,7	-25,807
1081,2	-25,767
1081,6	-25,527
1082	-24,487
1082,4	-23,687
1082,8	-29,327
1083,2	-23,407
1083,6	-22,167
1084	-17,247
1084,5	-19,087
1084,9	-13,967
1085,3	-12,167
1085,7	-15,887
1086,1	-19,047
1086,5	-19,767
1086,9	-23,367
1087,3	-29,167
1087,7	-23,007
1088,2	-21,327
1088,6	-22,407
1089	-19,967
1089,4	-20,327
1089,8	-27,527
1090,2	-30,807
1090,6	-25,327
1091	-23,247
1091,4	-16,727
1091,9	-14,927
1092,3	-16,247
1092,7	-17,887
1093,1	-18,807
1093,5	-25,847
1093,9	-23,807
1094,3	-20,967
1094,7	-19,607
1095,1	-21,927
1095,5	-21,607
1096	-21,847
1096,4	-18,247
1096,8	-19,927
1097,2	-18,807
1097,6	-11,007
1098	-10,447
1098,4	-15,167
1098,8	-13,927
1099,2	-12,487
1099,6	-17,967
1100,1	-16,287
1100,5	-14,007
1100,9	-10,007
1101,3	-11,527
1101,7	-12,407
1102,1	-17,527
1102,5	-16,687
1102,9	-19,647
1103,3	-19,047
1103,7	-17,367
1104,2	-15,767
1104,6	-18,607
1105	-17,807
1105,4	-17,967
1105,8	-18,967
1106,2	-13,647
1106,6	-9,167
1107	-7,047
1107,4	-3,647
1107,8	-0,317
1108,3	-0,567
