Data from Subt2_00090.txt Node
Date: Fri Aug 11 16:50:45 MSK 2023
User: vat
Spectrometer: MAYP114033
Trigger mode: 0
Integration Time (sec): 5,000000E-1
Scans to average: 5
Electric dark correction enabled: true
Nonlinearity correction enabled: false
Boxcar width: 2
XAxis mode: Wavelengths
Number of Pixels in Spectrum: 2068
>>>>>Begin Spectral Data<<<<<
199,4	0,467
199,9	0,45
200,4	-3,6
200,8	-7,96
201,3	-9,16
201,8	-11,72
202,2	-18,76
202,7	-14,84
203,2	-14,28
203,6	-17,12
204,1	-16,56
204,6	-14,28
205	-17,84
205,5	-17,68
206	-18,32
206,4	-19,16
206,9	-14,2
207,4	-9,92
207,8	-8,6
208,3	-7,44
208,8	-4,4
209,2	-5,84
209,7	-9,16
210,2	-10,44
210,6	-10,24
211,1	-12,64
211,5	-14,92
212	-15,36
212,5	-17,6
212,9	-19,8
213,4	-23,12
213,9	-27
214,3	-29,4
214,8	-30,36
215,3	-28,76
215,7	-28,28
216,2	-23,92
216,7	-25,32
217,1	-22,68
217,6	-22,04
218,1	-18,96
218,5	-16,16
219	-8,68
219,5	-1,52
219,9	-5,08
220,4	-4,6
220,9	-11,88
221,3	-16,6
221,8	-23,92
222,3	-17,28
222,7	-20,36
223,2	-18,48
223,6	-15,08
224,1	-8,08
224,6	-6,24
225	-2,32
225,5	1,52
226	2,88
226,4	-12,12
226,9	-16,08
227,4	-20,32
227,8	-23,6
228,3	-31
228,8	-21,96
229,2	-23,84
229,7	-28,04
230,2	-22,28
230,6	-22,24
231,1	-21,84
231,5	-20,48
232	-11,72
232,5	-11,76
232,9	-9,88
233,4	-10,28
233,9	-13,52
234,3	-14,16
234,8	-16,96
235,3	-15,56
235,7	-18,4
236,2	-16,64
236,7	-23,64
237,1	-19,56
237,6	-21,76
238,1	-13,12
238,5	-11,8
239	-10,28
239,4	-16,84
239,9	-12,16
240,4	-11,96
240,8	-7,64
241,3	-6,48
241,8	-8,28
242,2	-13,96
242,7	-18,44
243,2	-21,68
243,6	-18,48
244,1	-18,08
244,6	-18,8
245	-23,24
245,5	-22,48
245,9	-20
246,4	-17,88
246,9	-13,68
247,3	-9,32
247,8	-13,56
248,3	-18,28
248,7	-14,28
249,2	-14,24
249,7	-18,72
250,1	-17,52
250,6	-19,2
251	-27,52
251,5	-24,88
252	-23,4
252,4	-16,92
252,9	-14
253,4	-10,92
253,8	-11,96
254,3	-8,96
254,8	-13
255,2	-12,8
255,7	-9,04
256,1	-12
256,6	-12,76
257,1	-13,72
257,5	-13,08
258	-14,04
258,5	-18,2
258,9	-23,08
259,4	-27,08
259,9	-24,2
260,3	-24,52
260,8	-18,8
261,2	-14,28
261,7	-13,04
262,2	-18,84
262,6	-22,48
263,1	-22,48
263,6	-18,16
264	-12,12
264,5	-7,52
264,9	-3,32
265,4	-7
265,9	-12,12
266,3	-11,68
266,8	-12,72
267,3	-15,08
267,7	-12,68
268,2	-11,32
268,7	-13,88
269,1	-14,28
269,6	-13,8
270	-15,56
270,5	-17,32
271	-21,72
271,4	-26,16
271,9	-26,4
272,4	-25,52
272,8	-24,76
273,3	-21,24
273,7	-13,48
274,2	-13,4
274,7	-12,64
275,1	-12,92
275,6	-20,28
276,1	-27,76
276,5	-27,52
277	-24,44
277,4	-25,12
277,9	-10,88
278,4	-14
278,8	-10,32
279,3	-15,68
279,8	-15,32
280,2	-19,28
280,7	-14,88
281,1	-20,08
281,6	-19,08
282,1	-19,48
282,5	-23,44
283	-17,44
283,4	-16,48
283,9	-13,6
284,4	-9,8
284,8	-14,56
285,3	-20,36
285,8	-21,12
286,2	-25,32
286,7	-29,2
287,1	-27,76
287,6	-24,04
288,1	-21,88
288,5	-14,52
289	-15,08
289,5	-15,52
289,9	-17,56
290,4	-16,56
290,8	-19,68
291,3	-19,6
291,8	-14,24
292,2	-11,68
292,7	-15
293,1	-15,12
293,6	-15,64
294,1	-15,6
294,5	-17,12
295	-12,4
295,5	-12,4
295,9	-13,8
296,4	-12,52
296,8	-13,64
297,3	-21
297,8	-19,48
298,2	-13,68
298,7	-16,68
299,1	-17,12
299,6	-12,2
300,1	-15,56
300,5	-17,68
301	-15,4
301,5	-12,92
301,9	-15,28
302,4	-11,68
302,8	-10,4
303,3	-12,6
303,8	-14,12
304,2	-11,88
304,7	-12,96
305,1	-14,24
305,6	-16,72
306,1	-16,52
306,5	-16,68
307	-15,96
307,4	-14,4
307,9	-13,76
308,4	-15,96
308,8	-14,56
309,3	-13,28
309,8	-10,96
310,2	-10,64
310,7	-5,08
311,1	-13,16
311,6	-17,92
312,1	-24
312,5	-20,84
313	-26,2
313,4	-21,44
313,9	-18,92
314,4	-21,24
314,8	-25,64
315,3	-22,52
315,7	-18,28
316,2	-17,2
316,7	-15,16
317,1	-17,76
317,6	-23,16
318	-22,44
318,5	-23,88
319	-21,68
319,4	-11,68
319,9	-10,12
320,3	-13,2
320,8	-16,12
321,3	-10,32
321,7	-15,6
322,2	-9,08
322,6	-10,4
323,1	-13,28
323,6	-16,48
324	-15,56
324,5	-21,92
324,9	-18,76
325,4	-16,4
325,9	-18,88
326,3	-14,36
326,8	-13,16
327,2	-16,08
327,7	-17,56
328,2	-15,76
328,6	-15,28
329,1	-12,64
329,5	-12,72
330	-5,6
330,5	-9,12
330,9	-16,76
331,4	-23,08
331,8	-27,24
332,3	-32,96
332,8	-30,6
333,2	-28,68
333,7	-24,8
334,1	-17,64
334,6	-20,76
335,1	-16,6
335,5	-16,44
336	-18,8
336,4	-18,96
336,9	-12,8
337,4	-22,56
337,8	-21,12
338,3	-16,36
338,7	-13,32
339,2	-14,96
339,7	-10,4
340,1	-9,24
340,6	-6,04
341	-5,32
341,5	0,04
342	-6,2
342,4	-6,04
342,9	-11,76
343,3	-18
343,8	-24,72
344,2	-15,64
344,7	-20,76
345,2	-22,8
345,6	-21,76
346,1	-17,96
346,5	-18
347	-9,24
347,5	-4,6
347,9	-4,28
348,4	-7,4
348,8	-9,08
349,3	-17,12
349,8	-14,76
350,2	-12,84
350,7	-11,56
351,1	-9,36
351,6	-2,16
352	-5,28
352,5	-4,76
353	0,72
353,4	2,64
353,9	2,8
354,3	2,28
354,8	3,12
355,3	5,24
355,7	7,68
356,2	9,96
356,6	18,48
357,1	32,08
357,5	40,68
358	49,44
358,5	66,64
358,9	83,08
359,4	99,88
359,8	125,96
360,3	151,16
360,8	173,2
361,2	200,32
361,7	226,64
362,1	247,28
362,6	282,48
363	319,24
363,5	362,48
364	407,76
364,4	454,76
364,9	497,24
365,3	546,24
365,8	587,16
366,3	615,84
366,7	651,16
367,2	685,12
367,6	706,04
368,1	718,88
368,5	739,84
369	750,04
369,5	748,96
369,9	743,4
370,4	733,44
370,8	713,16
371,3	686,2
371,7	658,32
372,2	625,92
372,7	594,76
373,1	563,68
373,6	527,56
374	496,48
374,5	463,24
374,9	433,24
375,4	401,4
375,9	374,64
376,3	345,04
376,8	318,8
377,2	289,88
377,7	263,44
378,2	240,48
378,6	219,24
379,1	195,44
379,5	179,8
380	163,8
380,4	149
380,9	130,88
381,4	115,04
381,8	103,44
382,3	90,56
382,7	79,76
383,2	70,16
383,6	67,52
384,1	54,2
384,6	49,52
385	42,2
385,5	36,92
385,9	31,52
386,4	35,84
386,8	33,16
387,3	32,44
387,7	34,92
388,2	35,12
388,7	25,92
389,1	20,56
389,6	20,64
390	16,04
390,5	10,12
390,9	10,04
391,4	12,08
391,9	12,52
392,3	7,56
392,8	9,04
393,2	7,48
393,7	7,48
394,1	0,44
394,6	2
395,1	-0,92
395,5	1,8
396	1,44
396,4	4,04
396,9	1,64
397,3	0,96
397,8	-2,04
398,2	-9,76
398,7	-11,28
399,2	-15,2
399,6	-13,76
400,1	-14,24
400,5	-11,32
401	-14,92
401,4	-13,12
401,9	-14,96
402,4	-14,36
402,8	-13,92
403,3	-14,12
403,7	-12,64
404,2	-13,6
404,6	-15,6
405,1	-9,64
405,5	-6,16
406	-4,8
406,5	-8,36
406,9	-8,6
407,4	-9,88
407,8	-13,44
408,3	-11,36
408,7	-6,48
409,2	-4,6
409,6	-5,6
410,1	1,4
410,6	5,96
411	13,32
411,5	12,96
411,9	12,48
412,4	11,04
412,8	9,36
413,3	8,32
413,7	9,72
414,2	11,08
414,7	12,56
415,1	12,52
415,6	6,36
416	7,08
416,5	4,72
416,9	7,52
417,4	4,6
417,8	12,92
418,3	20,92
418,8	21,96
419,2	24,36
419,7	27,76
420,1	30,6
420,6	23,68
421	25,48
421,5	21,08
421,9	19,68
422,4	16,52
422,8	21,36
423,3	21,56
423,8	22,36
424,2	25,48
424,7	24,48
425,1	21,56
425,6	25,2
426	26,92
426,5	29,48
426,9	28,2
427,4	31,08
427,9	30,4
428,3	31,44
428,8	33,28
429,2	39,04
429,7	39,32
430,1	43,36
430,6	48,8
431	45,44
431,5	45,4
431,9	49,84
432,4	44,28
432,8	47,56
433,3	52,8
433,8	62,08
434,2	61,12
434,7	70,76
435,1	63,84
435,6	63,8
436	55,32
436,5	63,6
436,9	66,44
437,4	77,76
437,8	79,2
438,3	88,08
438,8	82,8
439,2	87,96
439,7	87,32
440,1	96,4
440,6	101,72
441	111,32
441,5	114,92
441,9	116,28
442,4	116,8
442,8	117,2
443,3	125,4
443,7	130,64
444,2	150,72
444,7	167,6
445,1	181,4
445,6	192,48
446	202,64
446,5	203,68
446,9	207,36
447,4	213,6
447,8	214,16
448,3	223,44
448,7	230,28
449,2	237,64
449,6	250,4
450,1	263,28
450,6	268,8
451	282,64
451,5	293,04
451,9	305,48
452,4	322,08
452,8	338
453,3	351,8
453,7	365,4
454,2	375,12
454,6	382,68
455,1	391,36
455,5	408,48
456	421,8
456,4	442,32
456,9	453,84
457,3	469,92
457,8	476,8
458,3	488,52
458,7	492,96
459,2	511,64
459,6	524,72
460,1	531,84
460,5	556,44
461	576,44
461,4	590,84
461,9	608,92
462,3	634,96
462,8	645,76
463,2	659,72
463,7	679,04
464,1	699,44
464,6	715,76
465	737,6
465,5	752,8
466	764,44
466,4	781,08
466,9	798
467,3	812,04
467,8	835,8
468,2	858,52
468,7	868,12
469,1	883,12
469,6	900,68
470	921,24
470,5	930,32
470,9	955,08
471,4	971
471,8	989,4
472,3	997,72
472,7	1022,28
473,2	1040,44
473,6	1065,96
474,1	1078,32
474,5	1099,4
475	1122,84
475,4	1141,4
475,9	1153,28
476,4	1177,24
476,8	1190,56
477,3	1204,4
477,7	1218,36
478,2	1237,2
478,6	1251,96
479,1	1268,44
479,5	1281,32
480	1290,8
480,4	1306,76
480,9	1321,72
481,3	1338
481,8	1353,64
482,2	1371,44
482,7	1382,8
483,1	1394,8
483,6	1407,64
484	1415,48
484,5	1427,72
484,9	1447,16
485,4	1453,92
485,8	1463,88
486,3	1482,24
486,7	1492,32
487,2	1502,96
487,6	1513,8
488,1	1523,52
488,5	1523,56
489	1533,48
489,4	1533,56
489,9	1540,76
490,4	1557,04
490,8	1569,48
491,3	1576,56
491,7	1585,36
492,2	1599,16
492,6	1604,24
493,1	1615,64
493,5	1621,72
494	1624,64
494,4	1630,4
494,9	1631,56
495,3	1630,56
495,8	1637,56
496,2	1646,32
496,7	1646,92
497,1	1653,84
497,6	1660,12
498	1666,12
498,5	1663,56
498,9	1671,64
499,4	1666,52
499,8	1675,64
500,3	1674,12
500,7	1685,64
501,2	1691,04
501,6	1704,12
502,1	1703,64
502,5	1708,16
503	1705,72
503,4	1702
503,9	1692,04
504,3	1687,72
504,8	1689,16
505,2	1689,16
505,7	1692,68
506,1	1703,88
506,6	1709,44
507	1705,28
507,5	1704,2
507,9	1698,44
508,4	1695,68
508,8	1688,28
509,3	1694,6
509,7	1694,2
510,2	1691,32
510,6	1694,04
511,1	1698,12
511,5	1693,56
512	1691,88
512,4	1694,64
512,9	1689,48
513,3	1689,76
513,8	1690,72
514,2	1699,64
514,7	1692,32
515,1	1689,44
515,6	1689
516	1683,88
516,5	1677,36
516,9	1682,36
517,4	1677,96
517,8	1671,6
518,3	1673,16
518,7	1676,12
519,2	1679,64
519,6	1677,36
520,1	1681,36
520,5	1682,84
521	1672,2
521,4	1667,08
521,9	1670,76
522,3	1669,64
522,8	1666,04
523,2	1668,24
523,7	1673,24
524,1	1674,16
524,6	1673
525	1668,24
525,5	1670,16
525,9	1665,8
526,4	1661
526,8	1652,4
527,3	1654,08
527,7	1644,6
528,2	1640,96
528,6	1643,16
529,1	1648,72
529,5	1651,4
530	1661,52
530,4	1659,52
530,9	1658,28
531,3	1653,84
531,8	1648,88
532,2	1639,52
532,6	1643,24
533,1	1646,44
533,5	1643,24
534	1647,24
534,4	1651,44
534,9	1647,44
535,3	1644,12
535,8	1644,24
536,2	1647,16
536,7	1643,88
537,1	1649,2
537,6	1651,32
538	1660,52
538,5	1660,68
538,9	1663,72
539,4	1662,4
539,8	1661,76
540,3	1662,44
540,7	1657,04
541,2	1658,44
541,6	1655,12
542,1	1655,04
542,5	1653,64
543	1649,24
543,4	1646,48
543,9	1654,32
544,3	1655,96
544,8	1656,96
545,2	1660,64
545,7	1663,48
546,1	1659,12
546,5	1657,72
547	1657,16
547,4	1659,04
547,9	1659,4
548,3	1659,72
548,8	1659,44
549,2	1659,68
549,7	1657,56
550,1	1663,84
550,6	1667,84
551	1666,56
551,5	1664,28
551,9	1668,48
552,4	1662,12
552,8	1660,4
553,3	1661,08
553,7	1671,96
554,2	1668,28
554,6	1674,84
555,1	1675,28
555,5	1681,72
555,9	1677,32
556,4	1683,72
556,8	1678,48
557,3	1675,68
557,7	1670,24
558,2	1665,6
558,6	1669,84
559,1	1676,28
559,5	1675,08
560	1678,08
560,4	1678,32
560,9	1673,12
561,3	1666,48
561,8	1675,92
562,2	1674,2
562,7	1674,96
563,1	1676,52
563,6	1679,4
564	1675,24
564,4	1674,52
564,9	1679,72
565,3	1678,52
565,8	1682,56
566,2	1683,16
566,7	1684,08
567,1	1679,2
567,6	1680,08
568	1679,72
568,5	1679,6
568,9	1681,72
569,4	1689,24
569,8	1686,96
570,3	1682,48
570,7	1681,16
571,1	1675,36
571,6	1667,24
572	1672
572,5	1672,16
572,9	1673,56
573,4	1686,48
573,8	1679,84
574,3	1676,84
574,7	1679,32
575,2	1680,4
575,6	1670
576,1	1684,84
576,5	1685,4
576,9	1676,12
577,4	1670,96
577,8	1666,96
578,3	1654,88
578,7	1651,6
579,2	1658,92
579,6	1659,56
580,1	1661,08
580,5	1654,48
581	1653,4
581,4	1648,88
581,9	1644,32
582,3	1643,4
582,7	1647,52
583,2	1645,72
583,6	1638,96
584,1	1637,12
584,5	1636,96
585	1634,04
585,4	1626,12
585,9	1618,88
586,3	1613,92
586,8	1602,48
587,2	1591,4
587,6	1596,4
588,1	1593,48
588,5	1589,52
589	1586,04
589,4	1592
589,9	1584,2
590,3	1588,08
590,8	1582,12
591,2	1584,08
591,7	1583,24
592,1	1578,48
592,5	1569,92
593	1573,28
593,4	1569,68
593,9	1565,44
594,3	1564,4
594,8	1563,44
595,2	1558,32
595,7	1552,48
596,1	1540,32
596,6	1537,8
597	1540,4
597,4	1533,32
597,9	1526,92
598,3	1535,68
598,8	1529,44
599,2	1520,28
599,7	1521
600,1	1516,48
600,6	1509,76
601	1502,84
601,4	1499,12
601,9	1497
602,3	1497,52
602,8	1493,6
603,2	1496,6
603,7	1494,16
604,1	1486,68
604,6	1489,52
605	1481,72
605,4	1474,52
605,9	1471,68
606,3	1468,44
606,8	1462,12
607,2	1462,08
607,7	1466,88
608,1	1462,72
608,6	1460
609	1458,4
609,4	1454,76
609,9	1443,96
610,3	1437,36
610,8	1435,32
611,2	1423,32
611,7	1413,16
612,1	1399,64
612,6	1392,8
613	1381,44
613,4	1381,52
613,9	1377,8
614,3	1374,28
614,8	1375,28
615,2	1371,64
615,7	1362,76
616,1	1358,32
616,6	1358,8
617	1345,6
617,4	1337,96
617,9	1330,6
618,3	1326,52
618,8	1316,4
619,2	1321,68
619,7	1317,32
620,1	1318,88
620,5	1308,44
621	1300,24
621,4	1286,32
621,9	1275,08
622,3	1266,96
622,8	1267,84
623,2	1260,08
623,6	1261,64
624,1	1258,92
624,5	1251,52
625	1241,48
625,4	1241,48
625,9	1233,12
626,3	1233,64
626,8	1228,16
627,2	1228,04
627,6	1226,2
628,1	1216,44
628,5	1199,8
629	1195,6
629,4	1182,48
629,9	1176,48
630,3	1175,32
630,7	1176,48
631,2	1165,96
631,6	1165,88
632,1	1161,4
632,5	1152,24
633	1147,48
633,4	1146,56
633,8	1134,64
634,3	1126,04
634,7	1121,68
635,2	1123,28
635,6	1110,28
636,1	1112,28
636,5	1103,48
636,9	1096,76
637,4	1091,36
637,8	1091,76
638,3	1076,44
638,7	1072,36
639,2	1068,48
639,6	1057,36
640	1051,36
640,5	1044,44
640,9	1043,96
641,4	1039,84
641,8	1026,96
642,2	1018,2
642,7	1018,84
643,1	1011,36
643,6	1003,88
644	1007,6
644,5	1009,36
644,9	1004,4
645,3	990,76
645,8	982,8
646,2	977,84
646,7	967,04
647,1	967,32
647,6	968,76
648	970,72
648,4	965
648,9	959,28
649,3	953,52
649,8	947,08
650,2	944,76
650,6	937,84
651,1	941,04
651,5	929,68
652	928
652,4	919,6
652,9	912,36
653,3	908,36
653,7	909,96
654,2	905,36
654,6	897,68
655,1	895,28
655,5	882,96
655,9	876,84
656,4	870,2
656,8	868,56
657,3	863,92
657,7	857,92
658,2	848,36
658,6	847,6
659	839,76
659,5	834,92
659,9	835,6
660,4	836,36
660,8	828,2
661,2	827,28
661,7	822,72
662,1	815,72
662,6	806,36
663	803,04
663,4	795,92
663,9	796,24
664,3	790,16
664,8	784,84
665,2	779,88
665,6	783,44
666,1	770,56
666,5	766,92
667	769
667,4	768,44
667,9	753,48
668,3	750,24
668,7	745,64
669,2	737
669,6	726,08
670,1	724
670,5	722,16
670,9	716,28
671,4	711,6
671,8	708,2
672,3	706,56
672,7	702,36
673,1	701,6
673,6	694,72
674	688,36
674,5	676,88
674,9	674,08
675,3	672,52
675,8	674,76
676,2	674,72
676,7	672,12
677,1	663,52
677,5	652,16
678	646,08
678,4	638,8
678,9	632,4
679,3	631,92
679,7	629,04
680,2	624,72
680,6	622
681,1	625,36
681,5	620,32
681,9	615,64
682,4	611
682,8	608,4
683,3	599,8
683,7	594,68
684,1	597,44
684,6	591,2
685	585,88
685,5	585,52
685,9	581
686,3	575,76
686,8	570,8
687,2	567,12
687,7	559,12
688,1	559,16
688,5	559,04
689	553,96
689,4	552,4
689,9	546,44
690,3	536,72
690,7	525,96
691,2	527,08
691,6	525,92
692	529,8
692,5	534,64
692,9	534,72
693,4	530,8
693,8	526,56
694,2	517,44
694,7	512,12
695,1	503,52
695,6	501,04
696	495,28
696,4	497,68
696,9	489,68
697,3	489,16
697,8	486,68
698,2	482
698,6	475,16
699,1	480,24
699,5	480,88
699,9	476,96
700,4	475,8
700,8	481,52
701,3	474,6
701,7	465,44
702,1	465,36
702,6	459,68
703	446,64
703,5	443
703,9	439,24
704,3	436,72
704,8	434,2
705,2	434,96
705,6	434,32
706,1	434,16
706,5	424,04
707	420,68
707,4	415,88
707,8	410,44
708,3	407,6
708,7	413,92
709,2	412,16
709,6	414,92
710	412,48
710,5	411,16
710,9	405,36
711,3	407,08
711,8	400,64
712,2	402,32
712,7	391,16
713,1	383,64
713,5	379,72
714	370,56
714,4	361,52
714,8	369,24
715,3	373,24
715,7	371,2
716,2	373
716,6	374,28
717	367,84
717,5	362,84
717,9	361,72
718,3	356,28
718,8	352,68
719,2	349,96
719,7	343,56
720,1	339,72
720,5	336,32
721	327,4
721,4	327,04
721,8	332,6
722,3	329,56
722,7	332,88
723,2	334,2
723,6	330,28
724	315,24
724,5	309,36
724,9	305,64
725,3	305,36
725,8	302,72
726,2	309,8
726,7	302,6
727,1	301,08
727,5	293,72
728	292,96
728,4	287,24
728,8	289,24
729,3	289,12
729,7	291,36
730,1	289,16
730,6	291,08
731	292,32
731,5	289,12
731,9	287,56
732,3	285,32
732,8	277,84
733,2	270,4
733,6	266,44
734,1	262,28
734,5	256,88
734,9	261,32
735,4	260,32
735,8	260,52
736,3	266,92
736,7	266,16
737,1	255,28
737,6	265,24
738	263,28
738,4	256
738,9	253,92
739,3	257,4
739,7	245,24
740,2	246,04
740,6	244,6
741,1	249,96
741,5	250,84
741,9	256,24
742,4	251,76
742,8	251
743,2	248,92
743,7	245,36
744,1	239
744,5	237,84
745	237,4
745,4	229,84
745,8	226,96
746,3	222,36
746,7	219,88
747,2	215,04
747,6	216,76
748	213,6
748,5	216,4
748,9	217,88
749,3	214,04
749,8	212,24
750,2	219,32
750,6	215,64
751,1	214,2
751,5	217,72
751,9	221,16
752,4	216,24
752,8	219,36
753,3	220,32
753,7	219,52
754,1	218,88
754,6	216,16
755	214,52
755,4	210,2
755,9	203,72
756,3	198,36
756,7	193,08
757,2	189,64
757,6	185,44
758	186,52
758,5	183,48
758,9	187,68
759,3	179,16
759,8	183,04
760,2	183,6
760,6	185,16
761,1	186,56
761,5	194,72
761,9	189,64
762,4	187,68
762,8	180,72
763,3	172,08
763,7	164,96
764,1	162,68
764,6	166,16
765	167,72
765,4	165,92
765,9	166,56
766,3	167,08
766,7	162,04
767,2	162,88
767,6	163,56
768	165,08
768,5	160,84
768,9	156,24
769,3	155,36
769,8	158,32
770,2	156,08
770,6	163,16
771,1	166,2
771,5	163,28
771,9	157,96
772,4	158,16
772,8	150,88
773,2	152,36
773,7	154,36
774,1	159,64
774,5	153,16
775	150,88
775,4	144,16
775,8	140,08
776,3	137,68
776,7	139,8
777,1	138,28
777,6	136,52
778	137,08
778,4	133,32
778,9	134,88
779,3	137,56
779,7	141,12
780,2	138,68
780,6	133,08
781	129,64
781,5	129,2
781,9	120,48
782,3	119,88
782,8	117,56
783,2	109,84
783,6	107,04
784,1	112,56
784,5	108,12
784,9	113,4
785,4	118,56
785,8	115,92
786,2	117,36
786,7	118,6
787,1	121,08
787,5	117,04
788	117,76
788,4	112,8
788,8	109,76
789,3	98,16
789,7	98,28
790,1	95,92
790,6	92,88
791	90,4
791,4	99,44
791,9	105,48
792,3	107
792,7	104,48
793,2	105,48
793,6	100,04
794	97,08
794,5	94,76
794,9	98,2
795,3	99,68
795,8	100,76
796,2	98,12
796,6	98,68
797,1	93,4
797,5	89,92
797,9	89,12
798,4	87,72
798,8	89,4
799,2	92,4
799,7	90,6
800,1	86,52
800,5	85,48
801	87
801,4	84,6
801,8	90,56
802,2	96,68
802,7	101,92
803,1	98,32
803,5	96,16
804	92,24
804,4	87,68
804,8	77,24
805,3	70,12
805,7	71,48
806,1	69,68
806,6	65,72
807	65,8
807,4	69,28
807,9	69,76
808,3	70,16
808,7	66,6
809,2	69,64
809,6	69,64
810	71,28
810,4	69,84
810,9	78,68
811,3	79,64
811,7	75,4
812,2	66,4
812,6	67,48
813	58,4
813,5	59
813,9	59,2
814,3	63,04
814,8	64,96
815,2	71,16
815,6	65,76
816,1	59,72
816,5	60,28
816,9	57,12
817,3	53,6
817,8	52,2
818,2	58,76
818,6	58,16
819,1	53,12
819,5	50,92
819,9	49,84
820,4	49,16
820,8	51,08
821,2	55,4
821,7	56,84
822,1	54,24
822,5	52,32
822,9	50,68
823,4	50,48
823,8	53,08
824,2	60,44
824,7	62
825,1	59,52
825,5	56,72
826	51,44
826,4	44,92
826,8	42
827,3	41
827,7	40,84
828,1	35,32
828,5	37,4
829	37
829,4	37,12
829,8	38,56
830,3	47,08
830,7	52,56
831,1	51,36
831,6	55,84
832	54,4
832,4	55,08
832,8	49,04
833,3	47,72
833,7	42,08
834,1	40,92
834,6	38,96
835	40,2
835,4	37,68
835,8	35,04
836,3	33,84
836,7	33,56
837,1	33,44
837,6	38,2
838	41,04
838,4	42,48
838,9	39,04
839,3	38,28
839,7	39,12
840,1	39,8
840,6	35,16
841	31,08
841,4	24,12
841,9	17,56
842,3	12,4
842,7	13,52
843,1	19,48
843,6	23,44
844	28,08
844,4	32,4
844,9	35,28
845,3	33,36
845,7	35,16
846,2	35,24
846,6	30
847	29,76
847,4	27,08
847,9	25,2
848,3	19,48
848,7	24,72
849,2	17,88
849,6	19,4
850	17,52
850,4	20,12
850,9	23,36
851,3	28,56
851,7	23,2
852,2	22,2
852,6	17,04
853	13,36
853,4	15,2
853,9	21,48
854,3	24,28
854,7	29,56
855,2	28
855,6	19,16
856	15,68
856,4	13,84
856,9	12,44
857,3	8,32
857,7	15,96
858,2	15,4
858,6	12,64
859	14,72
859,4	18,4
859,9	14,68
860,3	13,28
860,7	11,2
861,1	15,96
861,6	12,48
862	11,88
862,4	10,32
862,9	14,68
863,3	8
863,7	9,52
864,1	11,32
864,6	17,28
865	16,6
865,4	14,36
865,9	10,32
866,3	8,52
866,7	7,68
867,1	9,6
867,6	10,76
868	16,92
868,4	15,44
868,8	14,32
869,3	19,08
869,7	15,72
870,1	11,56
870,6	11,32
871	12,12
871,4	7,24
871,8	11,68
872,3	9,16
872,7	6
873,1	4,6
873,5	-0,08
874	-3,44
874,4	4,64
874,8	10,52
875,3	8,52
875,7	15,2
876,1	16,12
876,5	6,88
877	1,32
877,4	4
877,8	-0,48
878,2	-1,52
878,7	3,2
879,1	6,92
879,5	7,84
879,9	8,92
880,4	13,12
880,8	14,68
881,2	11,92
881,7	8,96
882,1	7,88
882,5	3,64
882,9	3,08
883,4	2,04
883,8	5,76
884,2	5,2
884,6	7,64
885,1	6,76
885,5	3,72
885,9	0,16
886,3	2,64
886,8	3,36
887,2	-0,92
887,6	5,56
888	8,12
888,5	5,72
888,9	2,12
889,3	1,68
889,8	-5,12
890,2	-12,44
890,6	-11,4
891	-10,4
891,5	-7,04
891,9	2,04
892,3	3,04
892,7	1,64
893,2	0,12
893,6	-3,44
894	-5,84
894,4	-4,88
894,9	-7
895,3	-4,36
895,7	-1,92
896,1	-1,8
896,6	-0,8
897	2,44
897,4	0,52
897,8	4,16
898,3	2,44
898,7	-0,24
899,1	4,2
899,5	4,08
900	1,04
900,4	1,12
900,8	-0,88
901,2	-9,56
901,7	-11,72
902,1	-12,88
902,5	-10,96
902,9	-9,32
903,4	-9,04
903,8	-6,44
904,2	-9,24
904,6	-5,72
905,1	0,8
905,5	2,88
905,9	2,76
906,3	5,32
906,8	-0,2
907,2	-1,28
907,6	-0,4
908	-0,24
908,5	1,64
908,9	-2,36
909,3	-7,2
909,7	-10,08
910,2	-12,24
910,6	-7,12
911	-3,12
911,4	1,84
911,9	-0,8
912,3	-2,64
912,7	-10,44
913,1	-10,24
913,6	-11,92
914	-10,44
914,4	-11,76
914,8	-13,36
915,3	-18,76
915,7	-20,36
916,1	-16,08
916,5	-17,48
916,9	-18,48
917,4	-14,68
917,8	-14,2
918,2	-14,24
918,6	-7,36
919,1	-4,6
919,5	-6,68
919,9	-6,24
920,3	-4,08
920,8	2,76
921,2	6,24
921,6	7,88
922	1,6
922,5	-5,6
922,9	-16,16
923,3	-19,84
923,7	-19,16
924,2	-20,68
924,6	-18,08
925	-14
925,4	-13,72
925,8	-12,96
926,3	-12,52
926,7	-16,4
927,1	-13,44
927,5	-12,28
928	-18,16
928,4	-11,76
928,8	-9,88
929,2	-13,6
929,7	-15,24
930,1	-7,4
930,5	-3,96
930,9	-6,28
931,3	-6,76
931,8	-7,52
932,2	-9,84
932,6	-16,76
933	-14,72
933,5	-16,52
933,9	-19,2
934,3	-15,76
934,7	-12,88
935,2	-16,4
935,6	-20,4
936	-18,52
936,4	-25,48
936,8	-28,56
937,3	-19,44
937,7	-18,96
938,1	-18,88
938,5	-19,24
939	-16,68
939,4	-21,24
939,8	-13,92
940,2	-13,28
940,6	-10,8
941,1	-12,16
941,5	-11,36
941,9	-20,88
942,3	-19,72
942,8	-15,24
943,2	-13,6
943,6	-11,28
944	-2,28
944,4	-4,56
944,9	-7,96
945,3	-8,04
945,7	-8,8
946,1	-9,16
946,6	-9,92
947	-13,36
947,4	-19,2
947,8	-26,56
948,2	-30,04
948,7	-24
949,1	-23,88
949,5	-18,68
949,9	-9,88
950,3	-11,6
950,8	-13,24
951,2	-14,12
951,6	-9,6
952	-13,08
952,5	-11,16
952,9	-15,32
953,3	-15,4
953,7	-18,32
954,1	-20,44
954,6	-15,36
955	-13,36
955,4	-13,24
955,8	-17,56
956,2	-12,32
956,7	-21,12
957,1	-20,32
957,5	-15,64
957,9	-10,88
958,3	-15,96
958,8	-11,76
959,2	-11,72
959,6	-13,44
960	-12
960,5	-11,52
960,9	-8,52
961,3	-10,32
961,7	-8,84
962,1	-8,84
962,6	-2,6
963	-5,84
963,4	-7,16
963,8	-6,44
964,2	-8,4
964,7	-5,48
965,1	-3,76
965,5	-3,12
965,9	-2,24
966,3	-6,56
966,8	-13,92
967,2	-18,32
967,6	-14,64
968	-20,68
968,4	-16,72
968,9	-23,32
969,3	-20,2
969,7	-23,8
970,1	-21,88
970,5	-23,6
971	-18,32
971,4	-20,92
971,8	-25,48
972,2	-23,24
972,6	-22,8
973,1	-24,08
973,5	-21,48
973,9	-15,68
974,3	-17,32
974,7	-17,28
975,2	-10,04
975,6	-10,32
976	-11,72
976,4	-12,56
976,8	-10,44
977,3	-13,92
977,7	-9,44
978,1	-13,48
978,5	-12,44
978,9	-15,92
979,4	-13,36
979,8	-17,44
980,2	-15,6
980,6	-14,12
981	-13,16
981,5	-21,28
981,9	-19,52
982,3	-13,52
982,7	-17,84
983,1	-15,4
983,6	-7,88
984	-13,6
984,4	-18,4
984,8	-20,24
985,2	-18,24
985,6	-25,64
986,1	-20,08
986,5	-16,4
986,9	-14,2
987,3	-22,76
987,7	-16,6
988,2	-21,76
988,6	-23,32
989	-17,84
989,4	-14,12
989,8	-19,68
990,3	-18,84
990,7	-22,28
991,1	-19,92
991,5	-20,68
991,9	-21,92
992,3	-25,64
992,8	-25,56
993,2	-30,84
993,6	-28,2
994	-25,24
994,4	-16,76
994,9	-12,56
995,3	-15,12
995,7	-17,2
996,1	-12,36
996,5	-16,88
996,9	-18,6
997,4	-16,28
997,8	-18,36
998,2	-20,72
998,6	-19,16
999	-21,08
999,5	-17,92
999,9	-18,08
1000,3	-25,44
1000,7	-23,48
1001,1	-20,96
1001,5	-21,96
1002	-18
1002,4	-13,32
1002,8	-15,2
1003,2	-11,92
1003,6	-14,08
1004	-19,84
1004,5	-21,72
1004,9	-22,2
1005,3	-20,4
1005,7	-17,52
1006,1	-10,72
1006,6	-7,76
1007	-2,48
1007,4	-11,28
1007,8	-13,56
1008,2	-16,56
1008,6	-14,72
1009,1	-19,88
1009,5	-15,96
1009,9	-17,96
1010,3	-18,68
1010,7	-24,64
1011,1	-20,2
1011,6	-23,92
1012	-18,08
1012,4	-15,84
1012,8	-10,6
1013,2	-12,8
1013,6	-10,4
1014,1	-16,96
1014,5	-16,32
1014,9	-20,24
1015,3	-27,48
1015,7	-25
1016,1	-22,84
1016,6	-26,8
1017	-25,84
1017,4	-21,76
1017,8	-20,04
1018,2	-19,4
1018,6	-15,28
1019,1	-15,44
1019,5	-15,68
1019,9	-21,04
1020,3	-24,32
1020,7	-24,16
1021,1	-17,68
1021,6	-17,08
1022	-17,04
1022,4	-14,16
1022,8	-15,44
1023,2	-24,48
1023,6	-22,92
1024,1	-22,64
1024,5	-24,28
1024,9	-22,4
1025,3	-20,2
1025,7	-21,08
1026,1	-18,32
1026,6	-20,28
1027	-18,76
1027,4	-12,28
1027,8	-14,48
1028,2	-20,16
1028,6	-18,12
1029	-22,52
1029,5	-26,04
1029,9	-19,8
1030,3	-11
1030,7	-9,92
1031,1	-9,84
1031,5	-11,52
1032	-11,28
1032,4	-17,6
1032,8	-17,68
1033,2	-13,96
1033,6	-7,48
1034	-12,48
1034,4	-10,76
1034,9	-8,96
1035,3	-17,12
1035,7	-14,96
1036,1	-13,08
1036,5	-15,72
1036,9	-20,76
1037,4	-22,76
1037,8	-35,24
1038,2	-40,76
1038,6	-37,28
1039	-34,52
1039,4	-27,84
1039,8	-25,6
1040,3	-25,92
1040,7	-26,24
1041,1	-23,4
1041,5	-22,96
1041,9	-20,44
1042,3	-14,16
1042,7	-15,8
1043,2	-21,2
1043,6	-22
1044	-20,48
1044,4	-25,84
1044,8	-27,76
1045,2	-25,52
1045,6	-26,12
1046,1	-25,4
1046,5	-28,24
1046,9	-21,28
1047,3	-20,96
1047,7	-20,64
1048,1	-20,44
1048,5	-11,12
1049	-19,24
1049,4	-21,12
1049,8	-19
1050,2	-18,44
1050,6	-18,64
1051	-18,84
1051,4	-15,16
1051,9	-19,28
1052,3	-29,64
1052,7	-32,4
1053,1	-28,44
1053,5	-31,72
1053,9	-28,72
1054,3	-25,64
1054,8	-30,36
1055,2	-31,76
1055,6	-31,92
1056	-33,32
1056,4	-31,88
1056,8	-26,76
1057,2	-25,04
1057,6	-24,52
1058,1	-23,96
1058,5	-19,44
1058,9	-17,36
1059,3	-16,56
1059,7	-17,36
1060,1	-14,68
1060,5	-15,64
1061	-18,44
1061,4	-17,68
1061,8	-17,4
1062,2	-27,36
1062,6	-26,04
1063	-25,64
1063,4	-26,4
1063,8	-28,48
1064,3	-17,72
1064,7	-21,12
1065,1	-20,32
1065,5	-18,64
1065,9	-17,84
1066,3	-23,56
1066,7	-20,48
1067,1	-18,6
1067,6	-25,12
1068	-21,24
1068,4	-17
1068,8	-14,4
1069,2	-18,16
1069,6	-13,72
1070	-12,68
1070,4	-8,84
1070,9	-9,2
1071,3	-10,52
1071,7	-10,52
1072,1	-12,52
1072,5	-19,84
1072,9	-23,64
1073,3	-19,04
1073,7	-17,6
1074,2	-19,08
1074,6	-21,76
1075	-25,32
1075,4	-24,04
1075,8	-21,72
1076,2	-15,12
1076,6	-7,6
1077	-8,6
1077,5	-16,4
1077,9	-24,36
1078,3	-27,56
1078,7	-30,44
1079,1	-22,6
1079,5	-15,76
1079,9	-10,84
1080,3	-7
1080,7	-3,36
1081,2	-8
1081,6	-7,32
1082	-2,4
1082,4	-11,24
1082,8	-14,88
1083,2	-13,24
1083,6	-16,16
1084	-18,08
1084,5	-17,84
1084,9	-14,12
1085,3	-14
1085,7	-13,24
1086,1	-14,68
1086,5	-9,84
1086,9	-17,2
1087,3	-21,6
1087,7	-22,96
1088,2	-23,96
1088,6	-22,72
1089	-27,64
1089,4	-21,44
1089,8	-18,72
1090,2	-18,16
1090,6	-19,56
1091	-11,56
1091,4	-16,2
1091,9	-22,64
1092,3	-23,2
1092,7	-25,12
1093,1	-22,44
1093,5	-20,32
1093,9	-14,4
1094,3	-13,68
1094,7	-11,8
1095,1	-12,8
1095,5	-14,96
1096	-18
1096,4	-18,8
1096,8	-17,64
1097,2	-12,88
1097,6	-12,84
1098	-12,04
1098,4	-14,96
1098,8	-20,32
1099,2	-24,24
1099,6	-22,44
1100,1	-17,92
1100,5	-11,4
1100,9	-4,2
1101,3	-5,76
1101,7	-3,6
1102,1	-3,56
1102,5	-7,2
1102,9	-7,84
1103,3	-9,4
1103,7	-8,76
1104,2	-12,16
1104,6	-13,84
1105	-14,76
1105,4	-15
1105,8	-18,72
1106,2	-15,68
1106,6	-11,08
1107	-9,84
1107,4	-4,96
1107,8	0,25
1108,3	0,4
