Data from Subt2_00068.txt Node
Date: Fri Aug 11 16:27:02 MSK 2023
User: vat
Spectrometer: MAYP114033
Trigger mode: 0
Integration Time (sec): 5,000000E-1
Scans to average: 5
Electric dark correction enabled: true
Nonlinearity correction enabled: false
Boxcar width: 2
XAxis mode: Wavelengths
Number of Pixels in Spectrum: 2068
>>>>>Begin Spectral Data<<<<<
199,4	-0,867
199,9	-0,433
200,4	-7,373
200,8	-10,893
201,3	-18,573
201,8	-25,893
202,2	-29,333
202,7	-27,253
203,2	-28,413
203,6	-26,773
204,1	-28,013
204,6	-31,493
205	-30,893
205,5	-35,333
206	-31,493
206,4	-26,653
206,9	-26,173
207,4	-28,133
207,8	-26,493
208,3	-29,013
208,8	-31,653
209,2	-34,333
209,7	-34,173
210,2	-31,973
210,6	-37,693
211,1	-40,693
211,5	-36,053
212	-38,413
212,5	-39,293
212,9	-36,933
213,4	-38,413
213,9	-41,413
214,3	-41,293
214,8	-45,013
215,3	-45,933
215,7	-46,133
216,2	-41,933
216,7	-45,653
217,1	-44,573
217,6	-43,653
218,1	-42,653
218,5	-49,853
219	-41,533
219,5	-37,973
219,9	-37,093
220,4	-37,653
220,9	-36,213
221,3	-40,893
221,8	-44,053
222,3	-45,573
222,7	-41,293
223,2	-38,813
223,6	-38,653
224,1	-40,013
224,6	-38,133
225	-45,253
225,5	-42,493
226	-40,293
226,4	-38,333
226,9	-40,973
227,4	-33,533
227,8	-38,253
228,3	-43,893
228,8	-40,253
229,2	-39,653
229,7	-48,933
230,2	-44,733
230,6	-46,093
231,1	-53,333
231,5	-55,213
232	-52,173
232,5	-57,573
232,9	-58,533
233,4	-55,413
233,9	-56,533
234,3	-51,613
234,8	-47,333
235,3	-42,213
235,7	-41,013
236,2	-37,893
236,7	-40,453
237,1	-48,573
237,6	-49,733
238,1	-52,853
238,5	-55,973
239	-54,493
239,4	-55,173
239,9	-52,173
240,4	-47,253
240,8	-45,013
241,3	-44,053
241,8	-35,933
242,2	-35,373
242,7	-40,133
243,2	-41,453
243,6	-40,813
244,1	-43,373
244,6	-48,573
245	-46,173
245,5	-46,453
245,9	-48,533
246,4	-47,733
246,9	-44,693
247,3	-48,013
247,8	-51,173
248,3	-51,773
248,7	-55,493
249,2	-56,133
249,7	-52,733
250,1	-47,333
250,6	-48,493
251	-47,973
251,5	-47,533
252	-53,813
252,4	-57,373
252,9	-57,013
253,4	-56,933
253,8	-54,653
254,3	-47,653
254,8	-48,693
255,2	-42,173
255,7	-36,373
256,1	-41,253
256,6	-45,173
257,1	-43,493
257,5	-46,293
258	-47,893
258,5	-46,173
258,9	-37,493
259,4	-30,733
259,9	-34,533
260,3	-40,613
260,8	-36,013
261,2	-38,573
261,7	-41,333
262,2	-44,173
262,6	-40,013
263,1	-38,933
263,6	-44,853
264	-48,493
264,5	-44,453
264,9	-44,413
265,4	-52,813
265,9	-54,093
266,3	-51,333
266,8	-48,973
267,3	-52,613
267,7	-51,493
268,2	-44,973
268,7	-45,173
269,1	-45,893
269,6	-46,293
270	-44,333
270,5	-51,493
271	-54,533
271,4	-58,653
271,9	-55,333
272,4	-54,253
272,8	-54,133
273,3	-52,093
273,7	-44,333
274,2	-41,813
274,7	-41,493
275,1	-39,613
275,6	-38,933
276,1	-43,853
276,5	-44,533
277	-42,973
277,4	-40,773
277,9	-41,853
278,4	-42,293
278,8	-41,453
279,3	-41,693
279,8	-47,373
280,2	-50,533
280,7	-52,573
281,1	-57,053
281,6	-63,813
282,1	-58,333
282,5	-52,693
283	-50,733
283,4	-46,573
283,9	-42,253
284,4	-41,853
284,8	-43,173
285,3	-41,373
285,8	-43,053
286,2	-39,413
286,7	-39,333
287,1	-40,813
287,6	-43,573
288,1	-43,453
288,5	-44,533
289	-46,613
289,5	-46,733
289,9	-40,573
290,4	-40,773
290,8	-38,533
291,3	-37,573
291,8	-34,533
292,2	-35,013
292,7	-29,333
293,1	-32,613
293,6	-31,493
294,1	-34,733
294,5	-41,213
295	-43,093
295,5	-42,293
295,9	-44,653
296,4	-45,293
296,8	-38,733
297,3	-40,733
297,8	-42,093
298,2	-43,893
298,7	-40,333
299,1	-44,893
299,6	-43,493
300,1	-47,093
300,5	-41,133
301	-40,973
301,5	-40,413
301,9	-47,853
302,4	-46,573
302,8	-52,973
303,3	-52,853
303,8	-53,373
304,2	-47,853
304,7	-41,133
305,1	-36,173
305,6	-36,373
306,1	-37,573
306,5	-38,293
307	-38,093
307,4	-35,693
307,9	-36,813
308,4	-34,413
308,8	-32,933
309,3	-37,813
309,8	-42,093
310,2	-41,773
310,7	-42,973
311,1	-52,453
311,6	-54,173
312,1	-55,613
312,5	-59,853
313	-63,573
313,4	-57,533
313,9	-60,133
314,4	-57,893
314,8	-52,853
315,3	-49,213
315,7	-46,413
316,2	-44,413
316,7	-46,213
317,1	-48,973
317,6	-49,573
318	-48,293
318,5	-47,213
319	-46,893
319,4	-48,413
319,9	-47,173
320,3	-49,373
320,8	-41,933
321,3	-41,493
321,7	-35,853
322,2	-35,613
322,6	-34,533
323,1	-47,213
323,6	-44,173
324	-46,533
324,5	-47,533
324,9	-53,333
325,4	-43,373
325,9	-46,013
326,3	-39,533
326,8	-39,613
327,2	-35,453
327,7	-40,293
328,2	-39,813
328,6	-48,333
329,1	-49,813
329,5	-46,853
330	-41,373
330,5	-50,133
330,9	-48,453
331,4	-44,813
331,8	-53,413
332,3	-58,933
332,8	-53,653
333,2	-56,213
333,7	-58,013
334,1	-56,653
334,6	-57,813
335,1	-51,653
335,5	-51,533
336	-48,493
336,4	-44,093
336,9	-42,533
337,4	-48,253
337,8	-43,693
338,3	-44,693
338,7	-46,333
339,2	-43,653
339,7	-37,373
340,1	-44,893
340,6	-48,653
341	-43,853
341,5	-46,693
342	-48,533
342,4	-42,213
342,9	-41,093
343,3	-45,253
343,8	-39,413
344,2	-36,653
344,7	-31,373
345,2	-30,613
345,6	-32,653
346,1	-40,253
346,5	-38,053
347	-44,493
347,5	-44,013
347,9	-38,573
348,4	-31,893
348,8	-39,693
349,3	-40,133
349,8	-41,493
350,2	-39,973
350,7	-45,613
351,1	-43,093
351,6	-41,333
352	-39,493
352,5	-38,013
353	-36,373
353,4	-33,773
353,9	-23,893
354,3	-19,933
354,8	-19,013
355,3	-3,653
355,7	8,707
356,2	9,067
356,6	18,427
357,1	36,267
357,5	46,547
358	59,707
358,5	84,747
358,9	108,347
359,4	129,347
359,8	151,827
360,3	186,307
360,8	217,267
361,2	263,187
361,7	308,867
362,1	358,627
362,6	410,667
363	471,707
363,5	526,707
364	583,427
364,4	656,947
364,9	721,827
365,3	785,787
365,8	851,707
366,3	925,267
366,7	977,267
367,2	1022,627
367,6	1060,867
368,1	1094,627
368,5	1100,827
369	1112,667
369,5	1111,307
369,9	1106,387
370,4	1087,867
370,8	1062,507
371,3	1028,547
371,7	991,107
372,2	947,267
372,7	889,747
373,1	848,507
373,6	793,987
374	748,827
374,5	700,867
374,9	657,787
375,4	608,987
375,9	565,907
376,3	521,307
376,8	477,427
377,2	440,027
377,7	403,227
378,2	368,627
378,6	330,867
379,1	295,947
379,5	266,467
380	236,947
380,4	212,747
380,9	191,747
381,4	169,547
381,8	152,427
382,3	141,587
382,7	125,187
383,2	116,027
383,6	110,987
384,1	98,667
384,6	84,507
385	74,507
385,5	68,587
385,9	59,307
386,4	50,507
386,8	43,707
387,3	41,427
387,7	36,027
388,2	25,027
388,7	24,907
389,1	15,627
389,6	5,507
390	-3,013
390,5	-1,533
390,9	-8,213
391,4	-6,493
391,9	-7,013
392,3	-10,133
392,8	-10,293
393,2	-12,413
393,7	-12,733
394,1	-14,173
394,6	-9,293
395,1	-10,893
395,5	-9,893
396	-14,493
396,4	-17,053
396,9	-22,693
397,3	-23,613
397,8	-26,733
398,2	-23,493
398,7	-18,533
399,2	-17,533
399,6	-20,573
400,1	-18,053
400,5	-20,053
401	-25,813
401,4	-30,253
401,9	-30,693
402,4	-32,813
402,8	-36,013
403,3	-35,413
403,7	-32,173
404,2	-30,613
404,6	-32,533
405,1	-28,293
405,5	-23,613
406	-24,573
406,5	-24,773
406,9	-24,413
407,4	-24,733
407,8	-21,773
408,3	-16,653
408,7	-18,693
409,2	-13,453
409,6	-9,133
410,1	-9,933
410,6	-5,693
411	-0,853
411,5	2,867
411,9	12,187
412,4	20,267
412,8	19,867
413,3	26,587
413,7	33,627
414,2	32,147
414,7	38,267
415,1	45,907
415,6	45,507
416	48,147
416,5	53,947
416,9	57,267
417,4	57,067
417,8	66,627
418,3	75,907
418,8	85,627
419,2	93,107
419,7	107,547
420,1	118,867
420,6	121,227
421	127,507
421,5	127,827
421,9	137,347
422,4	147,307
422,8	161,907
423,3	170,347
423,8	186,267
424,2	197,147
424,7	208,387
425,1	217,067
425,6	226,867
426	238,787
426,5	253,907
426,9	271,827
427,4	292,427
427,9	316,907
428,3	335,467
428,8	352,267
429,2	364,587
429,7	380,867
430,1	393,467
430,6	412,387
431	428,107
431,5	458,307
431,9	477,427
432,4	508,227
432,8	540,387
433,3	572,787
433,8	597,027
434,2	627,987
434,7	655,227
435,1	681,267
435,6	715,947
436	758,427
436,5	799,027
436,9	840,747
437,4	893,387
437,8	934,347
438,3	973,427
438,8	1015,307
439,2	1060,547
439,7	1101,387
440,1	1147,667
440,6	1192,987
441	1252,587
441,5	1305,427
441,9	1355,707
442,4	1411,667
442,8	1476,627
443,3	1531,587
443,7	1595,027
444,2	1659,867
444,7	1726,347
445,1	1794,267
445,6	1859,467
446	1925,427
446,5	2000,627
446,9	2080,747
447,4	2151,387
447,8	2226,667
448,3	2303,347
448,7	2380,587
449,2	2449,187
449,6	2524,827
450,1	2603,467
450,6	2680,827
451	2763,467
451,5	2849,387
451,9	2930,427
452,4	3025,107
452,8	3127,587
453,3	3214,467
453,7	3303,347
454,2	3413,707
454,6	3502,267
455,1	3584,187
455,5	3675,907
456	3771,147
456,4	3843,707
456,9	3929,987
457,3	4034,627
457,8	4131,147
458,3	4232,227
458,7	4331,227
459,2	4432,067
459,6	4523,507
460,1	4617,947
460,5	4716,267
461	4819,507
461,4	4925,867
461,9	5023,907
462,3	5127,227
462,8	5209,187
463,2	5300,307
463,7	5381,187
464,1	5483,467
464,6	5568,227
465	5668,547
465,5	5758,187
466	5854,147
466,4	5920,307
466,9	6003,987
467,3	6095,427
467,8	6184,667
468,2	6269,267
468,7	6359,187
469,1	6445,387
469,6	6521,187
470	6599,107
470,5	6677,667
470,9	6754,907
471,4	6816,667
471,8	6891,907
472,3	6963,787
472,7	7030,867
473,2	7097,867
473,6	7159,947
474,1	7207,907
474,5	7264,027
475	7325,267
475,4	7379,387
475,9	7453,947
476,4	7514,427
476,8	7563,907
477,3	7599,107
477,7	7641,747
478,2	7678,787
478,6	7711,387
479,1	7754,907
479,5	7797,587
480	7833,147
480,4	7861,347
480,9	7891,347
481,3	7905,947
481,8	7941,347
482,2	7957,027
482,7	7974,227
483,1	7991,187
483,6	8005,907
484	8013,747
484,5	8039,627
484,9	8058,107
485,4	8065,147
485,8	8079,387
486,3	8070,067
486,7	8062,827
487,2	8055,707
487,6	8055,347
488,1	8050,427
488,5	8039,267
489	8032,587
489,4	8020,667
489,9	8007,587
490,4	7979,427
490,8	7972,027
491,3	7955,787
491,7	7928,187
492,2	7905,347
492,6	7883,427
493,1	7847,227
493,5	7813,347
494	7775,307
494,4	7733,787
494,9	7693,467
495,3	7667,987
495,8	7633,107
496,2	7606,747
496,7	7586,747
497,1	7556,907
497,6	7516,827
498	7461,347
498,5	7418,627
498,9	7367,907
499,4	7326,987
499,8	7284,707
500,3	7249,027
500,7	7199,347
501,2	7147,467
501,6	7106,387
502,1	7050,827
502,5	7005,027
503	6954,907
503,4	6910,507
503,9	6860,147
504,3	6818,187
504,8	6765,507
505,2	6721,387
505,7	6662,307
506,1	6610,667
506,6	6547,587
507	6487,387
507,5	6435,547
507,9	6385,067
508,4	6315,467
508,8	6265,307
509,3	6213,547
509,7	6147,587
510,2	6096,467
510,6	6048,307
511,1	5991,267
511,5	5932,267
512	5870,867
512,4	5813,307
512,9	5754,307
513,3	5688,507
513,8	5631,707
514,2	5582,427
514,7	5521,307
515,1	5465,027
515,6	5409,067
516	5341,867
516,5	5283,187
516,9	5227,147
517,4	5161,107
517,8	5098,907
518,3	5054,867
518,7	4997,627
519,2	4932,067
519,6	4873,747
520,1	4831,547
520,5	4769,747
521	4712,987
521,4	4655,947
521,9	4608,947
522,3	4544,147
522,8	4493,387
523,2	4441,627
523,7	4382,667
524,1	4325,747
524,6	4266,867
525	4220,387
525,5	4165,267
525,9	4128,947
526,4	4078,467
526,8	4031,307
527,3	3967,947
527,7	3923,187
528,2	3865,787
528,6	3820,347
529,1	3785,507
529,5	3751,827
530	3704,107
530,4	3655,467
530,9	3602,227
531,3	3553,707
531,8	3501,267
532,2	3461,627
532,6	3423,507
533,1	3383,347
533,5	3330,587
534	3274,827
534,4	3225,307
534,9	3181,547
535,3	3141,867
535,8	3103,027
536,2	3073,627
536,7	3033,427
537,1	2995,467
537,6	2960,067
538	2921,627
538,5	2888,107
538,9	2848,827
539,4	2805,707
539,8	2761,827
540,3	2726,027
540,7	2686,387
541,2	2648,467
541,6	2622,627
542,1	2583,587
542,5	2553,587
543	2515,107
543,4	2481,027
543,9	2433,987
544,3	2407,347
544,8	2367,187
545,2	2333,147
545,7	2300,307
546,1	2275,307
546,5	2241,427
547	2208,867
547,4	2175,907
547,9	2151,547
548,3	2122,067
548,8	2095,947
549,2	2076,587
549,7	2061,467
550,1	2039,107
550,6	2014,867
551	1978,547
551,5	1951,467
551,9	1918,307
552,4	1889,307
552,8	1861,467
553,3	1849,707
553,7	1828,267
554,2	1807,387
554,6	1782,787
555,1	1762,907
555,5	1739,627
555,9	1719,707
556,4	1697,987
556,8	1685,827
557,3	1670,867
557,7	1649,107
558,2	1622,387
558,6	1605,707
559,1	1569,787
559,5	1540,507
560	1519,787
560,4	1496,427
560,9	1475,027
561,3	1467,027
561,8	1450,347
562,2	1430,947
562,7	1417,787
563,1	1395,187
563,6	1377,427
564	1359,267
564,4	1339,387
564,9	1318,787
565,3	1305,747
565,8	1286,347
566,2	1272,947
566,7	1260,547
567,1	1246,947
567,6	1230,227
568	1211,707
568,5	1199,787
568,9	1185,667
569,4	1171,027
569,8	1156,027
570,3	1144,147
570,7	1130,747
571,1	1116,187
571,6	1103,427
572	1084,467
572,5	1074,187
572,9	1057,587
573,4	1050,747
573,8	1032,627
574,3	1033,747
574,7	1014,747
575,2	995,787
575,6	976,587
576,1	965,507
576,5	949,147
576,9	940,427
577,4	931,787
577,8	918,387
578,3	908,987
578,7	897,587
579,2	882,347
579,6	875,947
580,1	866,027
580,5	858,267
581	843,667
581,4	839,147
581,9	824,107
582,3	817,827
582,7	801,827
583,2	788,587
583,6	775,907
584,1	764,667
584,5	755,587
585	748,347
585,4	742,427
585,9	734,347
586,3	728,347
586,8	717,507
587,2	710,987
587,6	701,867
588,1	688,307
588,5	680,787
589	671,667
589,4	660,307
589,9	652,227
590,3	649,947
590,8	640,067
591,2	628,867
591,7	633,347
592,1	628,467
592,5	615,707
593	609,387
593,4	607,907
593,9	590,867
594,3	585,587
594,8	584,707
595,2	582,347
595,7	573,587
596,1	572,947
596,6	566,347
597	556,987
597,4	548,627
597,9	545,027
598,3	539,267
598,8	536,147
599,2	537,347
599,7	532,747
600,1	534,427
600,6	524,507
601	519,427
601,4	514,547
601,9	504,627
602,3	492,227
602,8	487,307
603,2	483,027
603,7	478,027
604,1	474,987
604,6	469,227
605	471,947
605,4	463,747
605,9	449,707
606,3	448,747
606,8	445,587
607,2	437,107
607,7	426,787
608,1	432,227
608,6	429,427
609	422,027
609,4	421,107
609,9	420,067
610,3	411,987
610,8	405,147
611,2	396,507
611,7	388,467
612,1	389,947
612,6	385,987
613	386,507
613,4	391,467
613,9	393,027
614,3	386,507
614,8	382,667
615,2	375,707
615,7	372,467
616,1	359,627
616,6	356,787
617	350,827
617,4	353,027
617,9	350,707
618,3	355,467
618,8	349,467
619,2	352,947
619,7	348,227
620,1	335,747
620,5	323,987
621	322,747
621,4	317,827
621,9	310,507
622,3	315,347
622,8	323,227
623,2	322,147
623,6	321,947
624,1	318,587
624,5	308,307
625	294,427
625,4	287,467
625,9	280,027
626,3	275,827
626,8	279,107
627,2	279,067
627,6	279,987
628,1	279,187
628,5	277,667
629	279,747
629,4	279,627
629,9	276,667
630,3	273,667
630,7	269,147
631,2	260,827
631,6	258,187
632,1	257,827
632,5	256,507
633	255,387
633,4	254,187
633,8	253,387
634,3	248,227
634,7	245,747
635,2	245,227
635,6	240,187
636,1	240,587
636,5	243,027
636,9	238,227
637,4	238,427
637,8	238,507
638,3	223,707
638,7	210,827
639,2	209,267
639,6	204,067
640	199,907
640,5	206,427
640,9	209,467
641,4	207,107
641,8	204,307
642,2	204,907
642,7	206,627
643,1	209,867
643,6	202,547
644	203,987
644,5	209,067
644,9	206,547
645,3	207,627
645,8	212,707
646,2	207,907
646,7	203,227
647,1	205,187
647,6	198,947
648	198,187
648,4	201,707
648,9	197,667
649,3	186,387
649,8	184,667
650,2	181,227
650,6	175,347
651,1	174,827
651,5	176,587
652	177,227
652,4	176,067
652,9	177,387
653,3	175,707
653,7	176,227
654,2	178,107
654,6	178,587
655,1	181,547
655,5	181,267
655,9	183,147
656,4	173,227
656,8	170,147
657,3	161,947
657,7	162,627
658,2	158,227
658,6	158,467
659	158,467
659,5	160,907
659,9	153,867
660,4	149,707
660,8	155,067
661,2	155,667
661,7	146,827
662,1	150,627
662,6	151,907
663	146,187
663,4	142,947
663,9	145,947
664,3	142,427
664,8	139,187
665,2	138,107
665,6	141,267
666,1	141,827
666,5	137,907
667	143,987
667,4	136,787
667,9	131,827
668,3	125,227
668,7	128,027
669,2	120,707
669,6	125,827
670,1	124,747
670,5	124,627
670,9	125,267
671,4	128,227
671,8	130,667
672,3	126,027
672,7	133,667
673,1	129,867
673,6	124,027
674	120,587
674,5	120,227
674,9	112,627
675,3	111,107
675,8	109,507
676,2	109,467
676,7	113,947
677,1	111,027
677,5	110,747
678	111,147
678,4	116,867
678,9	109,547
679,3	109,867
679,7	109,027
680,2	108,387
680,6	91,587
681,1	92,427
681,5	100,787
681,9	100,867
682,4	101,587
682,8	106,027
683,3	111,827
683,7	104,867
684,1	104,627
684,6	106,307
685	109,227
685,5	103,107
685,9	101,227
686,3	95,387
686,8	91,507
687,2	89,587
687,7	90,627
688,1	96,427
688,5	100,347
689	96,067
689,4	93,267
689,9	90,867
690,3	86,747
690,7	81,547
691,2	84,387
691,6	84,027
692	80,587
692,5	77,347
692,9	80,787
693,4	77,907
693,8	80,107
694,2	81,947
694,7	84,587
695,1	79,947
695,6	77,707
696	76,627
696,4	78,507
696,9	80,427
697,3	84,667
697,8	86,027
698,2	84,467
698,6	77,907
699,1	70,227
699,5	69,587
699,9	67,427
700,4	62,867
700,8	66,667
701,3	62,027
701,7	60,827
702,1	61,747
702,6	61,947
703	63,307
703,5	66,467
703,9	62,547
704,3	63,147
704,8	66,187
705,2	63,067
705,6	70,587
706,1	68,507
706,5	63,987
707	62,107
707,4	62,747
707,8	47,827
708,3	53,627
708,7	57,587
709,2	51,467
709,6	49,427
710	57,787
710,5	54,227
710,9	45,867
711,3	48,987
711,8	45,547
712,2	45,547
712,7	41,347
713,1	51,307
713,5	55,747
714	60,267
714,4	57,787
714,8	64,627
715,3	59,387
715,7	57,507
716,2	54,267
716,6	52,827
717	52,147
717,5	54,347
717,9	55,387
718,3	54,987
718,8	55,867
719,2	47,947
719,7	48,107
720,1	45,227
720,5	41,827
721	38,027
721,4	38,707
721,8	36,347
722,3	33,307
722,7	30,947
723,2	32,227
723,6	28,947
724	26,667
724,5	29,067
724,9	39,267
725,3	36,547
725,8	42,307
726,2	41,227
726,7	38,147
727,1	33,547
727,5	38,427
728	38,427
728,4	42,507
728,8	44,707
729,3	47,787
729,7	49,427
730,1	42,947
730,6	37,387
731	35,827
731,5	36,587
731,9	33,907
732,3	40,187
732,8	41,427
733,2	41,907
733,6	39,427
734,1	35,747
734,5	32,947
734,9	38,587
735,4	32,707
735,8	27,627
736,3	29,987
736,7	28,547
737,1	24,907
737,6	31,267
738	27,347
738,4	23,787
738,9	27,827
739,3	24,987
739,7	18,427
740,2	17,187
740,6	18,227
741,1	14,987
741,5	15,107
741,9	22,747
742,4	26,147
742,8	20,307
743,2	19,107
743,7	16,067
744,1	12,147
744,5	9,547
745	19,027
745,4	23,467
745,8	25,387
746,3	22,747
746,7	22,227
747,2	15,547
747,6	12,667
748	9,827
748,5	15,427
748,9	14,067
749,3	19,107
749,8	16,547
750,2	15,307
750,6	8,707
751,1	12,827
751,5	11,267
751,9	13,867
752,4	17,787
752,8	20,067
753,3	22,107
753,7	23,907
754,1	19,267
754,6	20,147
755	18,827
755,4	17,227
755,9	14,987
756,3	17,347
756,7	17,267
757,2	14,027
757,6	12,947
758	16,667
758,5	15,227
758,9	15,027
759,3	15,867
759,8	17,827
760,2	13,227
760,6	10,867
761,1	7,107
761,5	9,227
761,9	10,947
762,4	8,747
762,8	12,107
763,3	12,627
763,7	11,187
764,1	6,747
764,6	12,147
765	13,907
765,4	14,107
765,9	11,707
766,3	9,307
766,7	-0,053
767,2	-2,573
767,6	-3,773
768	3,187
768,5	5,227
768,9	10,787
769,3	11,507
769,8	9,667
770,2	4,027
770,6	5,907
771,1	8,547
771,5	7,867
771,9	14,787
772,4	16,907
772,8	18,707
773,2	13,787
773,7	10,787
774,1	7,147
774,5	3,707
775	-0,933
775,4	2,667
775,8	4,107
776,3	1,027
776,7	1,427
777,1	2,347
777,6	-0,613
778	-1,853
778,4	2,867
778,9	7,267
779,3	1,027
779,7	0,787
780,2	1,547
780,6	-3,493
781	-5,533
781,5	-3,013
781,9	-10,533
782,3	-9,653
782,8	-8,653
783,2	-9,493
783,6	-6,253
784,1	-1,693
784,5	-7,573
784,9	-10,693
785,4	-5,213
785,8	-7,453
786,2	-13,133
786,7	-7,653
787,1	-7,693
787,5	-18,333
788	-17,053
788,4	-12,893
788,8	-12,413
789,3	-9,213
789,7	-5,173
790,1	-6,373
790,6	-6,013
791	-7,253
791,4	-3,293
791,9	-7,693
792,3	-9,173
792,7	-7,773
793,2	-7,613
793,6	-14,533
794	-12,533
794,5	-8,093
794,9	-7,693
795,3	-13,933
795,8	-9,573
796,2	-7,013
796,6	-14,453
797,1	-17,733
797,5	-14,933
797,9	-15,293
798,4	-13,493
798,8	-6,253
799,2	-3,573
799,7	-2,133
800,1	-4,293
800,5	-7,213
801	-13,333
801,4	-14,413
801,8	-10,053
802,2	-8,253
802,7	-2,733
803,1	-3,613
803,5	-3,333
804	-5,133
804,4	-7,493
804,8	-14,653
805,3	-13,053
805,7	-14,813
806,1	-14,533
806,6	-16,173
807	-17,933
807,4	-20,373
807,9	-12,373
808,3	-12,893
808,7	-14,733
809,2	-5,533
809,6	-5,533
810	-13,373
810,4	-21,133
810,9	-18,133
811,3	-29,533
811,7	-24,413
812,2	-15,813
812,6	-13,853
813	-13,333
813,5	-3,253
813,9	-4,693
814,3	-8,293
814,8	-4,893
815,2	-9,093
815,6	-18,093
816,1	-18,693
816,5	-25,773
816,9	-23,853
817,3	-22,493
817,8	-26,013
818,2	-29,173
818,6	-23,133
819,1	-25,293
819,5	-21,893
819,9	-19,253
820,4	-13,413
820,8	-20,813
821,2	-25,293
821,7	-22,173
822,1	-20,653
822,5	-25,013
822,9	-22,373
823,4	-19,333
823,8	-25,293
824,2	-25,293
824,7	-25,333
825,1	-25,813
825,5	-25,613
826	-28,853
826,4	-29,853
826,8	-28,973
827,3	-30,333
827,7	-31,173
828,1	-26,133
828,5	-24,733
829	-21,853
829,4	-18,413
829,8	-21,893
830,3	-19,573
830,7	-18,533
831,1	-28,773
831,6	-26,173
832	-28,093
832,4	-31,413
832,8	-32,133
833,3	-24,973
833,7	-24,093
834,1	-24,733
834,6	-29,653
835	-31,893
835,4	-29,453
835,8	-30,533
836,3	-19,253
836,7	-14,373
837,1	-12,773
837,6	-17,693
838	-25,013
838,4	-32,493
838,9	-35,493
839,3	-35,173
839,7	-31,413
840,1	-20,093
840,6	-22,893
841	-13,493
841,4	-17,093
841,9	-15,933
842,3	-28,933
842,7	-23,253
843,1	-29,173
843,6	-29,453
844	-34,493
844,4	-30,053
844,9	-31,973
845,3	-35,493
845,7	-33,093
846,2	-32,493
846,6	-31,613
847	-38,493
847,4	-37,773
847,9	-36,293
848,3	-36,373
848,7	-38,253
849,2	-31,213
849,6	-34,933
850	-31,733
850,4	-32,573
850,9	-33,093
851,3	-34,973
851,7	-34,453
852,2	-40,093
852,6	-43,173
853	-41,413
853,4	-39,373
853,9	-37,573
854,3	-31,453
854,7	-21,253
855,2	-22,773
855,6	-26,533
856	-25,053
856,4	-31,213
856,9	-38,813
857,3	-37,693
857,7	-32,813
858,2	-30,893
858,6	-31,493
859	-29,493
859,4	-25,573
859,9	-25,933
860,3	-23,813
860,7	-25,413
861,1	-21,613
861,6	-25,973
862	-30,573
862,4	-36,653
862,9	-34,253
863,3	-34,013
863,7	-34,653
864,1	-30,773
864,6	-27,133
865	-26,733
865,4	-33,213
865,9	-33,013
866,3	-38,773
866,7	-41,573
867,1	-38,053
867,6	-39,973
868	-41,213
868,4	-34,533
868,8	-32,453
869,3	-34,613
869,7	-32,573
870,1	-35,173
870,6	-39,893
871	-40,013
871,4	-44,653
871,8	-46,013
872,3	-44,853
872,7	-43,213
873,1	-40,053
873,5	-34,453
874	-33,893
874,4	-26,573
874,8	-29,093
875,3	-31,093
875,7	-32,813
876,1	-31,013
876,5	-36,333
877	-35,053
877,4	-36,373
877,8	-38,253
878,2	-38,773
878,7	-37,533
879,1	-38,293
879,5	-37,493
879,9	-37,493
880,4	-35,293
880,8	-37,253
881,2	-33,653
881,7	-38,133
882,1	-34,133
882,5	-37,293
882,9	-32,453
883,4	-33,373
883,8	-29,773
884,2	-34,213
884,6	-28,213
885,1	-34,813
885,5	-32,253
885,9	-33,053
886,3	-36,133
886,8	-39,973
887,2	-34,693
887,6	-35,053
888	-43,173
888,5	-36,053
888,9	-35,533
889,3	-35,933
889,8	-35,453
890,2	-27,813
890,6	-29,333
891	-30,133
891,5	-32,133
891,9	-35,253
892,3	-33,933
892,7	-33,973
893,2	-31,253
893,6	-32,613
894	-30,173
894,4	-31,413
894,9	-39,213
895,3	-41,693
895,7	-42,773
896,1	-41,133
896,6	-42,653
897	-34,653
897,4	-37,133
897,8	-29,373
898,3	-34,173
898,7	-25,173
899,1	-28,333
899,5	-24,173
900	-31,813
900,4	-26,373
900,8	-36,573
901,2	-32,813
901,7	-31,933
902,1	-31,333
902,5	-32,653
902,9	-30,813
903,4	-28,213
903,8	-34,293
904,2	-30,053
904,6	-39,973
905,1	-36,773
905,5	-45,053
905,9	-44,613
906,3	-47,693
906,8	-41,413
907,2	-40,453
907,6	-39,293
908	-36,293
908,5	-37,733
908,9	-37,653
909,3	-45,133
909,7	-44,653
910,2	-45,293
910,6	-47,613
911	-49,013
911,4	-48,693
911,9	-45,573
912,3	-42,573
912,7	-39,133
913,1	-40,853
913,6	-35,413
914	-40,973
914,4	-49,893
914,8	-48,853
915,3	-50,093
915,7	-48,093
916,1	-50,013
916,5	-41,253
916,9	-43,453
917,4	-39,613
917,8	-46,013
918,2	-33,053
918,6	-34,613
919,1	-29,693
919,5	-31,413
919,9	-24,053
920,3	-33,093
920,8	-35,373
921,2	-39,253
921,6	-41,933
922	-50,573
922,5	-42,173
922,9	-42,493
923,3	-39,493
923,7	-34,413
924,2	-35,413
924,6	-43,213
925	-40,173
925,4	-41,973
925,8	-43,373
926,3	-40,973
926,7	-42,093
927,1	-38,773
927,5	-42,333
928	-47,853
928,4	-47,493
928,8	-42,253
929,2	-50,413
929,7	-44,893
930,1	-31,893
930,5	-28,013
930,9	-30,213
931,3	-29,813
931,8	-37,453
932,2	-43,133
932,6	-46,493
933	-47,133
933,5	-46,893
933,9	-38,653
934,3	-44,973
934,7	-43,893
935,2	-42,613
935,6	-41,653
936	-50,173
936,4	-50,933
936,8	-54,173
937,3	-55,693
937,7	-50,253
938,1	-48,493
938,5	-47,053
939	-49,933
939,4	-50,293
939,8	-50,493
940,2	-49,293
940,6	-45,693
941,1	-42,493
941,5	-44,613
941,9	-50,093
942,3	-43,933
942,8	-50,453
943,2	-46,493
943,6	-48,053
944	-49,453
944,4	-54,813
944,9	-45,973
945,3	-44,813
945,7	-46,733
946,1	-42,653
946,6	-43,293
947	-44,293
947,4	-48,173
947,8	-41,653
948,2	-40,413
948,7	-38,293
949,1	-35,013
949,5	-30,733
949,9	-36,853
950,3	-40,133
950,8	-37,733
951,2	-42,173
951,6	-45,453
952	-40,653
952,5	-38,013
952,9	-42,013
953,3	-48,253
953,7	-48,893
954,1	-48,413
954,6	-46,213
955	-41,653
955,4	-34,093
955,8	-30,013
956,2	-33,773
956,7	-41,093
957,1	-46,933
957,5	-51,053
957,9	-52,813
958,3	-44,133
958,8	-41,093
959,2	-37,533
959,6	-42,693
960	-48,293
960,5	-49,133
960,9	-51,053
961,3	-49,933
961,7	-38,413
962,1	-33,413
962,6	-34,053
963	-27,613
963,4	-24,333
963,8	-26,333
964,2	-31,813
964,7	-33,733
965,1	-43,133
965,5	-55,973
965,9	-59,333
966,3	-53,973
966,8	-52,453
967,2	-51,493
967,6	-43,573
968	-43,573
968,4	-45,173
968,9	-52,693
969,3	-42,333
969,7	-46,213
970,1	-45,653
970,5	-45,653
971	-39,093
971,4	-45,173
971,8	-39,053
972,2	-40,373
972,6	-44,093
973,1	-46,933
973,5	-50,133
973,9	-57,933
974,3	-53,733
974,7	-48,053
975,2	-48,333
975,6	-50,253
976	-46,333
976,4	-51,373
976,8	-47,173
977,3	-50,293
977,7	-43,853
978,1	-43,333
978,5	-40,573
978,9	-53,293
979,4	-43,733
979,8	-41,533
980,2	-39,133
980,6	-36,733
981	-29,253
981,5	-34,253
981,9	-40,053
982,3	-40,773
982,7	-44,733
983,1	-43,933
983,6	-39,733
984	-34,893
984,4	-36,173
984,8	-34,373
985,2	-30,333
985,6	-39,493
986,1	-47,573
986,5	-47,893
986,9	-47,933
987,3	-51,973
987,7	-47,613
988,2	-48,133
988,6	-46,733
989	-47,213
989,4	-56,293
989,8	-55,733
990,3	-52,613
990,7	-51,453
991,1	-50,133
991,5	-38,893
991,9	-36,573
992,3	-35,413
992,8	-37,933
993,2	-37,853
993,6	-38,253
994	-42,973
994,4	-44,693
994,9	-38,453
995,3	-37,613
995,7	-42,413
996,1	-40,133
996,5	-37,293
996,9	-48,973
997,4	-51,933
997,8	-50,333
998,2	-52,213
998,6	-52,453
999	-46,573
999,5	-49,253
999,9	-45,053
1000,3	-44,693
1000,7	-45,413
1001,1	-42,813
1001,5	-38,213
1002	-45,213
1002,4	-41,773
1002,8	-43,133
1003,2	-46,533
1003,6	-43,893
1004	-37,973
1004,5	-41,533
1004,9	-37,333
1005,3	-43,493
1005,7	-49,093
1006,1	-48,853
1006,6	-46,613
1007	-50,533
1007,4	-42,533
1007,8	-38,613
1008,2	-42,853
1008,6	-42,973
1009,1	-41,093
1009,5	-44,293
1009,9	-50,013
1010,3	-48,413
1010,7	-46,213
1011,1	-46,133
1011,6	-36,773
1012	-33,333
1012,4	-33,893
1012,8	-41,293
1013,2	-44,573
1013,6	-56,693
1014,1	-56,293
1014,5	-53,853
1014,9	-44,973
1015,3	-43,053
1015,7	-38,453
1016,1	-42,853
1016,6	-46,653
1017	-51,093
1017,4	-45,333
1017,8	-42,693
1018,2	-34,133
1018,6	-34,613
1019,1	-38,613
1019,5	-40,493
1019,9	-39,453
1020,3	-48,733
1020,7	-50,053
1021,1	-48,893
1021,6	-48,373
1022	-46,533
1022,4	-41,773
1022,8	-37,293
1023,2	-38,013
1023,6	-42,733
1024,1	-46,813
1024,5	-46,693
1024,9	-50,493
1025,3	-46,413
1025,7	-43,733
1026,1	-45,213
1026,6	-48,253
1027	-49,453
1027,4	-52,733
1027,8	-51,373
1028,2	-53,173
1028,6	-45,573
1029	-43,973
1029,5	-39,933
1029,9	-46,773
1030,3	-50,973
1030,7	-55,013
1031,1	-53,213
1031,5	-60,293
1032	-59,973
1032,4	-54,253
1032,8	-56,973
1033,2	-57,733
1033,6	-56,133
1034	-51,533
1034,4	-49,173
1034,9	-47,173
1035,3	-50,013
1035,7	-51,333
1036,1	-53,213
1036,5	-54,133
1036,9	-51,093
1037,4	-51,293
1037,8	-43,213
1038,2	-45,533
1038,6	-49,053
1039	-53,573
1039,4	-49,733
1039,8	-55,413
1040,3	-56,413
1040,7	-54,613
1041,1	-51,653
1041,5	-56,933
1041,9	-56,853
1042,3	-56,093
1042,7	-53,253
1043,2	-59,613
1043,6	-57,133
1044	-54,853
1044,4	-47,973
1044,8	-49,813
1045,2	-48,373
1045,6	-43,413
1046,1	-42,813
1046,5	-42,733
1046,9	-52,253
1047,3	-46,133
1047,7	-49,093
1048,1	-53,173
1048,5	-58,613
1049	-51,013
1049,4	-53,653
1049,8	-52,133
1050,2	-45,533
1050,6	-37,693
1051	-38,293
1051,4	-39,293
1051,9	-43,853
1052,3	-49,253
1052,7	-60,093
1053,1	-61,733
1053,5	-68,253
1053,9	-65,213
1054,3	-67,053
1054,8	-65,813
1055,2	-65,813
1055,6	-60,213
1056	-58,173
1056,4	-55,133
1056,8	-51,413
1057,2	-45,693
1057,6	-41,133
1058,1	-44,693
1058,5	-49,693
1058,9	-56,693
1059,3	-57,893
1059,7	-61,613
1060,1	-63,733
1060,5	-63,493
1061	-55,853
1061,4	-56,893
1061,8	-55,773
1062,2	-54,573
1062,6	-50,173
1063	-51,373
1063,4	-53,613
1063,8	-54,333
1064,3	-49,213
1064,7	-47,613
1065,1	-49,973
1065,5	-42,653
1065,9	-42,573
1066,3	-44,173
1066,7	-48,093
1067,1	-45,933
1067,6	-51,853
1068	-52,013
1068,4	-49,453
1068,8	-48,373
1069,2	-44,773
1069,6	-43,533
1070	-38,733
1070,4	-44,973
1070,9	-47,533
1071,3	-52,253
1071,7	-53,933
1072,1	-62,453
1072,5	-61,813
1072,9	-62,773
1073,3	-58,973
1073,7	-60,053
1074,2	-58,053
1074,6	-54,693
1075	-50,373
1075,4	-46,253
1075,8	-45,173
1076,2	-48,253
1076,6	-48,253
1077	-45,773
1077,5	-52,293
1077,9	-51,533
1078,3	-44,133
1078,7	-43,853
1079,1	-44,933
1079,5	-44,333
1079,9	-42,853
1080,3	-45,853
1080,7	-45,093
1081,2	-45,613
1081,6	-41,293
1082	-43,493
1082,4	-41,533
1082,8	-41,533
1083,2	-34,813
1083,6	-37,613
1084	-32,533
1084,5	-32,173
1084,9	-35,013
1085,3	-40,293
1085,7	-45,453
1086,1	-50,573
1086,5	-53,653
1086,9	-56,493
1087,3	-56,373
1087,7	-55,893
1088,2	-50,493
1088,6	-48,213
1089	-48,933
1089,4	-50,693
1089,8	-45,893
1090,2	-53,173
1090,6	-51,733
1091	-44,693
1091,4	-39,613
1091,9	-40,853
1092,3	-38,933
1092,7	-37,013
1093,1	-35,813
1093,5	-39,333
1093,9	-39,373
1094,3	-37,093
1094,7	-37,613
1095,1	-41,613
1095,5	-44,373
1096	-45,693
1096,4	-46,893
1096,8	-52,253
1097,2	-50,933
1097,6	-42,853
1098	-39,373
1098,4	-38,013
1098,8	-29,853
1099,2	-27,693
1099,6	-32,093
1100,1	-28,533
1100,5	-25,253
1100,9	-30,413
1101,3	-34,853
1101,7	-36,053
1102,1	-40,333
1102,5	-44,373
1102,9	-46,333
1103,3	-43,893
1103,7	-40,773
1104,2	-42,093
1104,6	-40,573
1105	-36,173
1105,4	-32,853
1105,8	-29,933
1106,2	-21,093
1106,6	-14,413
1107	-8,293
1107,4	-2,773
1107,8	0,317
1108,3	-0,333
