Data from Subt2_00089.txt Node
Date: Fri Aug 11 16:49:47 MSK 2023
User: vat
Spectrometer: MAYP114033
Trigger mode: 0
Integration Time (sec): 5,000000E-1
Scans to average: 5
Electric dark correction enabled: true
Nonlinearity correction enabled: false
Boxcar width: 2
XAxis mode: Wavelengths
Number of Pixels in Spectrum: 2068
>>>>>Begin Spectral Data<<<<<
199,4	0,667
199,9	0,4
200,4	-1,24
200,8	0,08
201,3	-0,68
201,8	-2,96
202,2	-7,12
202,7	-8,36
203,2	-9,24
203,6	-13,8
204,1	-13,52
204,6	-12,16
205	-10,96
205,5	-10,28
206	-9,24
206,4	-10,72
206,9	-10,12
207,4	-9,24
207,8	-10,68
208,3	-8,56
208,8	-5,68
209,2	-5,04
209,7	-5,92
210,2	-7,4
210,6	-5,68
211,1	-6,48
211,5	-8,08
212	-7,16
212,5	-10,24
212,9	-12,64
213,4	-14,8
213,9	-18,84
214,3	-22,44
214,8	-22,2
215,3	-24,28
215,7	-25,6
216,2	-20,2
216,7	-23,36
217,1	-20,64
217,6	-21,32
218,1	-23,48
218,5	-24,96
219	-17,04
219,5	-19,72
219,9	-19,52
220,4	-10,24
220,9	-10,68
221,3	-14,08
221,8	-13,8
222,3	-12,8
222,7	-19,16
223,2	-18,76
223,6	-15,16
224,1	-16,4
224,6	-9,84
225	-10,8
225,5	-13,8
226	-14
226,4	-17,6
226,9	-23,52
227,4	-23,84
227,8	-19,4
228,3	-28,84
228,8	-19,96
229,2	-22,04
229,7	-20,52
230,2	-22,84
230,6	-22,24
231,1	-22,24
231,5	-18,68
232	-14,6
232,5	-10,84
232,9	-5,12
233,4	-8,84
233,9	-8,96
234,3	-12,32
234,8	-15,4
235,3	-13,24
235,7	-13,04
236,2	-17,4
236,7	-17,44
237,1	-19,2
237,6	-19,12
238,1	-13,2
238,5	-11,44
239	-13,36
239,4	-13,4
239,9	-11,48
240,4	-13,24
240,8	-11,68
241,3	-8,16
241,8	-6,92
242,2	-15,92
242,7	-17,2
243,2	-20,8
243,6	-24,16
244,1	-30,28
244,6	-32,52
245	-36,64
245,5	-33,76
245,9	-30,8
246,4	-23,6
246,9	-17,28
247,3	-14,6
247,8	-19,8
248,3	-21,88
248,7	-19,68
249,2	-20
249,7	-24,36
250,1	-18,12
250,6	-17,36
251	-25,6
251,5	-26,56
252	-23,76
252,4	-20,68
252,9	-20,2
253,4	-14,76
253,8	-8,64
254,3	-7,28
254,8	-9
255,2	-7,76
255,7	-1,4
256,1	-8,48
256,6	-5,92
257,1	-8,56
257,5	-11
258	-17,56
258,5	-19,08
258,9	-23,32
259,4	-24,64
259,9	-18,72
260,3	-21,08
260,8	-12
261,2	-9,8
261,7	-9,52
262,2	-18,72
262,6	-18,24
263,1	-25,08
263,6	-22,44
264	-23,72
264,5	-18,84
264,9	-14,12
265,4	-14,2
265,9	-17,2
266,3	-14,44
266,8	-9,56
267,3	-12,28
267,7	-10,76
268,2	-10,28
268,7	-2,44
269,1	-6,08
269,6	-6,56
270	-9,96
270,5	-10,08
271	-16,4
271,4	-15,76
271,9	-14,56
272,4	-11,44
272,8	-12,6
273,3	-12,88
273,7	-13,16
274,2	-10,4
274,7	-7,16
275,1	-7,84
275,6	-11,64
276,1	-19,2
276,5	-20,48
277	-21,68
277,4	-21,28
277,9	-14,48
278,4	-11,08
278,8	-12,72
279,3	-12,48
279,8	-9,04
280,2	-9,08
280,7	-8,04
281,1	-11,16
281,6	-17,2
282,1	-20,24
282,5	-29,84
283	-24,8
283,4	-22,32
283,9	-15,92
284,4	-15,24
284,8	-16,16
285,3	-15,36
285,8	-13,2
286,2	-16,12
286,7	-15,52
287,1	-11,4
287,6	-14,64
288,1	-14,92
288,5	-15,8
289	-16,8
289,5	-17,04
289,9	-19,24
290,4	-23,8
290,8	-17,72
291,3	-22,32
291,8	-13,96
292,2	-10,56
292,7	-10,4
293,1	-17,08
293,6	-14,44
294,1	-23,8
294,5	-27,08
295	-18,36
295,5	-17,08
295,9	-18,52
296,4	-13,28
296,8	-9
297,3	-14,08
297,8	-5,48
298,2	0,56
298,7	-3,92
299,1	-8,44
299,6	-9,84
300,1	-22,32
300,5	-20,92
301	-18,52
301,5	-22,16
301,9	-22,68
302,4	-19,24
302,8	-21,16
303,3	-19,08
303,8	-18,96
304,2	-17,96
304,7	-15,88
305,1	-20,16
305,6	-25,72
306,1	-19,92
306,5	-23,32
307	-20
307,4	-21
307,9	-20,68
308,4	-14,4
308,8	-11,08
309,3	-15,52
309,8	-12,32
310,2	-9,72
310,7	-17,84
311,1	-23,28
311,6	-28,04
312,1	-28,68
312,5	-27,92
313	-28,44
313,4	-23,8
313,9	-12,6
314,4	-15,84
314,8	-19,36
315,3	-20,32
315,7	-20,56
316,2	-27,84
316,7	-29,76
317,1	-28,08
317,6	-27,4
318	-27,12
318,5	-23,68
319	-23,4
319,4	-16,32
319,9	-13,16
320,3	-10,6
320,8	-13,04
321,3	-5,12
321,7	-7,44
322,2	-6,64
322,6	-6,96
323,1	-7,36
323,6	-11,44
324	-8,92
324,5	-13,76
324,9	-14,32
325,4	-13,32
325,9	-11,6
326,3	-15,04
326,8	-12,16
327,2	-10,96
327,7	-10,08
328,2	-11,32
328,6	-11,56
329,1	-13,84
329,5	-13,88
330	-12,76
330,5	-9,72
330,9	-11,32
331,4	-18
331,8	-22,92
332,3	-24,28
332,8	-24,96
333,2	-28,64
333,7	-25,08
334,1	-21,08
334,6	-25
335,1	-28,12
335,5	-25,12
336	-20,04
336,4	-22,48
336,9	-18,52
337,4	-20,84
337,8	-21,12
338,3	-22,4
338,7	-16,2
339,2	-14,72
339,7	-12
340,1	-9,28
340,6	-7,44
341	-4,36
341,5	-8,48
342	-8,72
342,4	-8,52
342,9	-10,28
343,3	-22,44
343,8	-20,64
344,2	-16,36
344,7	-17,76
345,2	-18,08
345,6	-14,16
346,1	-13,96
346,5	-11,24
347	-11,28
347,5	-10,8
347,9	-6,36
348,4	-6,88
348,8	-14
349,3	-12,56
349,8	-8,84
350,2	-10,96
350,7	-13,72
351,1	-7,32
351,6	-11,16
352	-15,48
352,5	-20,24
353	-14,24
353,4	-13,28
353,9	-6,24
354,3	-0,88
354,8	4,2
355,3	9,72
355,7	10,96
356,2	14,6
356,6	17,88
357,1	33,92
357,5	44,12
358	59,44
358,5	71,92
358,9	88,36
359,4	99,76
359,8	118,44
360,3	138,32
360,8	165,6
361,2	191,52
361,7	218,88
362,1	247,24
362,6	280,64
363	317,32
363,5	358,44
364	402,44
364,4	447,36
364,9	488,4
365,3	530,68
365,8	572,76
366,3	605,48
366,7	641,36
367,2	673,56
367,6	695,52
368,1	711,08
368,5	729,72
369	734,12
369,5	732,64
369,9	730,76
370,4	716
370,8	697
371,3	673,96
371,7	651,52
372,2	618,52
372,7	588,48
373,1	555,44
373,6	519,92
374	484,36
374,5	452,56
374,9	424,36
375,4	392,48
375,9	365,08
376,3	335,84
376,8	308,32
377,2	281,96
377,7	262,56
378,2	236,56
378,6	214,72
379,1	191,88
379,5	176,48
380	159,96
380,4	143,56
380,9	130,84
381,4	122,96
381,8	109,24
382,3	98,24
382,7	94,48
383,2	82,32
383,6	74,96
384,1	65,72
384,6	57,32
385	47,08
385,5	44,08
385,9	39,76
386,4	40,28
386,8	39,48
387,3	35,44
387,7	30,96
388,2	26,64
388,7	21,16
389,1	13,24
389,6	12,88
390	11,64
390,5	8,88
390,9	5,72
391,4	8,56
391,9	9,52
392,3	5,44
392,8	2,36
393,2	2,44
393,7	2,96
394,1	0,76
394,6	8,16
395,1	4,52
395,5	4,6
396	1,64
396,4	5,16
396,9	0,52
397,3	8,84
397,8	8,96
398,2	4,96
398,7	3,48
399,2	2,28
399,6	-2,88
400,1	-5,76
400,5	-6,6
401	-5,72
401,4	-7,36
401,9	-5,48
402,4	-3,8
402,8	-1,96
403,3	-7,68
403,7	-4,64
404,2	-7,24
404,6	-10,8
405,1	-7,04
405,5	-0,56
406	-5,68
406,5	-9,24
406,9	-6,92
407,4	-6,52
407,8	-12,64
408,3	-11,64
408,7	-8,28
409,2	-13,88
409,6	-14,32
410,1	-11,84
410,6	0,4
411	5,28
411,5	12
411,9	11,88
412,4	16,56
412,8	13,44
413,3	16,52
413,7	19,16
414,2	23,84
414,7	22,76
415,1	21,88
415,6	17,36
416	22,24
416,5	22,36
416,9	26,56
417,4	24,2
417,8	33,08
418,3	34,2
418,8	35,48
419,2	35,36
419,7	41,56
420,1	39,8
420,6	36,92
421	33,76
421,5	35,4
421,9	31,52
422,4	28,52
422,8	33,8
423,3	35,52
423,8	32,24
424,2	38,52
424,7	40,88
425,1	39,36
425,6	44,72
426	50,2
426,5	50,84
426,9	53,92
427,4	60,44
427,9	63,2
428,3	62,88
428,8	66,16
429,2	68,36
429,7	66,16
430,1	67,92
430,6	71,96
431	72
431,5	75,76
431,9	81,96
432,4	82,2
432,8	87,08
433,3	92,44
433,8	95,6
434,2	95,52
434,7	101,4
435,1	105,16
435,6	108,16
436	111,76
436,5	123,4
436,9	126,12
437,4	130,8
437,8	130,32
438,3	137,96
438,8	134,32
439,2	143,8
439,7	149,4
440,1	166,24
440,6	171,08
441	178,8
441,5	185,92
441,9	197,12
442,4	203,16
442,8	215,24
443,3	234,64
443,7	243,8
444,2	256,8
444,7	272,88
445,1	283,88
445,6	295,36
446	310,4
446,5	318,68
446,9	332,64
447,4	347,56
447,8	357,44
448,3	369,88
448,7	391,72
449,2	403,4
449,6	416,28
450,1	431,04
450,6	443,44
451	453,68
451,5	464,52
451,9	483,24
452,4	507,96
452,8	533,24
453,3	557,92
453,7	581,52
454,2	600,2
454,6	613,92
455,1	632,68
455,5	652,68
456	671,64
456,4	692,48
456,9	715,44
457,3	734,2
457,8	753,36
458,3	776,64
458,7	799,76
459,2	826,48
459,6	850,8
460,1	869,08
460,5	903,2
461	928,64
461,4	949,04
461,9	977,88
462,3	1008,84
462,8	1028,56
463,2	1056,52
463,7	1085,44
464,1	1112,04
464,6	1135,68
465	1162,32
465,5	1185,92
466	1207,6
466,4	1235,36
466,9	1267,28
467,3	1288,64
467,8	1314,88
468,2	1346,6
468,7	1364,64
469,1	1381,92
469,6	1416,8
470	1454
470,5	1476,84
470,9	1510,04
471,4	1538
471,8	1556,44
472,3	1579,4
472,7	1611,84
473,2	1637,76
473,6	1672,16
474,1	1699,36
474,5	1722,04
475	1754,32
475,4	1787,2
475,9	1816,24
476,4	1843,96
476,8	1868,4
477,3	1888,4
477,7	1905,16
478,2	1930,72
478,6	1963,24
479,1	1990,08
479,5	2011,44
480	2036,8
480,4	2058,32
480,9	2078,64
481,3	2098,44
481,8	2119,8
482,2	2143,32
482,7	2154,36
483,1	2169,84
483,6	2188,68
484	2205,6
484,5	2218,76
484,9	2248,96
485,4	2259,6
485,8	2275,64
486,3	2288,92
486,7	2302,36
487,2	2315,4
487,6	2332,4
488,1	2341,92
488,5	2353,36
489	2367,92
489,4	2367,72
489,9	2379,2
490,4	2388,56
490,8	2396,36
491,3	2408,52
491,7	2430,8
492,2	2443,8
492,6	2457,76
493,1	2471,8
493,5	2474,36
494	2463,16
494,4	2469,88
494,9	2475,24
495,3	2476,04
495,8	2477,52
496,2	2489,64
496,7	2488,32
497,1	2489,6
497,6	2492,8
498	2497,36
498,5	2496,56
498,9	2498,08
499,4	2493,6
499,8	2487,44
500,3	2482,2
500,7	2483,8
501,2	2481,76
501,6	2488,72
502,1	2491,2
502,5	2498,24
503	2493,08
503,4	2489,88
503,9	2482,2
504,3	2484,2
504,8	2484,4
505,2	2479,64
505,7	2480,28
506,1	2473,72
506,6	2470,36
507	2459,68
507,5	2450,88
507,9	2442,64
508,4	2443,16
508,8	2434,4
509,3	2426,84
509,7	2433,16
510,2	2427,92
510,6	2423,84
511,1	2415,64
511,5	2415,28
512	2406,52
512,4	2404,64
512,9	2396,96
513,3	2394,52
513,8	2391,12
514,2	2382,36
514,7	2370,92
515,1	2364,72
515,6	2358,72
516	2348,68
516,5	2351,52
516,9	2348,88
517,4	2344,44
517,8	2339,56
518,3	2328,4
518,7	2314,04
519,2	2311,12
519,6	2301,48
520,1	2298,88
520,5	2299,72
521	2290,72
521,4	2281,96
521,9	2282,64
522,3	2271,8
522,8	2267,68
523,2	2266,6
523,7	2258,6
524,1	2246,76
524,6	2238,64
525	2226,16
525,5	2219,12
525,9	2216,48
526,4	2206,6
526,8	2200,8
527,3	2201,76
527,7	2195,52
528,2	2192,2
528,6	2198
529,1	2199,68
529,5	2194,12
530	2196,96
530,4	2189,68
530,9	2177,2
531,3	2171,6
531,8	2163,88
532,2	2149,2
532,6	2148,16
533,1	2146,08
533,5	2135,12
534	2130,64
534,4	2130,72
534,9	2127,44
535,3	2128,44
535,8	2124,68
536,2	2127,32
536,7	2123,92
537,1	2117,56
537,6	2116,08
538	2124
538,5	2120,36
538,9	2124,16
539,4	2125,2
539,8	2122,96
540,3	2113,24
540,7	2112
541,2	2104,96
541,6	2095,92
542,1	2090,12
542,5	2094,92
543	2092,2
543,4	2088,8
543,9	2092,12
544,3	2092
544,8	2089,92
545,2	2091,6
545,7	2093,48
546,1	2095,32
546,5	2090,88
547	2082,2
547,4	2067,96
547,9	2061,76
548,3	2056,72
548,8	2052,6
549,2	2056,52
549,7	2054,48
550,1	2057,24
550,6	2053,64
551	2050,92
551,5	2046,96
551,9	2054,88
552,4	2050,96
552,8	2047,56
553,3	2049,2
553,7	2051,04
554,2	2047,12
554,6	2049,64
555,1	2048,92
555,5	2055,88
555,9	2054,76
556,4	2053,52
556,8	2048,52
557,3	2050,96
557,7	2042,84
558,2	2043,56
558,6	2044,2
559,1	2049,24
559,5	2041,32
560	2039,08
560,4	2034,72
560,9	2035,72
561,3	2020,6
561,8	2026
562,2	2021,48
562,7	2025,24
563,1	2024,44
563,6	2033,28
564	2031,92
564,4	2030,16
564,9	2022,4
565,3	2012,32
565,8	2009,56
566,2	2006,36
566,7	2006,4
567,1	1998,52
567,6	2007,68
568	2000,04
568,5	1990,96
568,9	1988,2
569,4	1991,96
569,8	1981,24
570,3	1978,48
570,7	1979,28
571,1	1975,96
571,6	1971,96
572	1972,76
572,5	1969,88
572,9	1971,64
573,4	1971,72
573,8	1963,56
574,3	1954,68
574,7	1957,48
575,2	1956,68
575,6	1953,56
576,1	1967,68
576,5	1967,32
576,9	1967,12
577,4	1958,56
577,8	1944,72
578,3	1928,24
578,7	1931,92
579,2	1927,68
579,6	1921,76
580,1	1928,52
580,5	1920,6
581	1913,4
581,4	1903,76
581,9	1897,36
582,3	1893,64
582,7	1894,72
583,2	1881,84
583,6	1880,28
584,1	1878,76
584,5	1877,48
585	1873,52
585,4	1868,64
585,9	1858
586,3	1853
586,8	1844,48
587,2	1835,6
587,6	1834
588,1	1834,56
588,5	1829,36
589	1825,2
589,4	1824,2
589,9	1820,16
590,3	1810,44
590,8	1807,32
591,2	1802,24
591,7	1800
592,1	1791,08
592,5	1787,76
593	1774,64
593,4	1767,6
593,9	1752,96
594,3	1746,36
594,8	1742,76
595,2	1744,92
595,7	1741,6
596,1	1745,36
596,6	1748,72
597	1745,48
597,4	1738,64
597,9	1734,96
598,3	1730,32
598,8	1720,36
599,2	1712,44
599,7	1711,44
600,1	1701,52
600,6	1695,92
601	1691,56
601,4	1685
601,9	1674,72
602,3	1672,72
602,8	1663,04
603,2	1666
603,7	1663,2
604,1	1663,88
604,6	1663,44
605	1657,16
605,4	1641,52
605,9	1634,8
606,3	1628
606,8	1615,44
607,2	1613,08
607,7	1610,44
608,1	1603,6
608,6	1597,36
609	1593,6
609,4	1588,52
609,9	1581
610,3	1574,36
610,8	1566,56
611,2	1565,4
611,7	1556,84
612,1	1548,28
612,6	1545,4
613	1539,6
613,4	1525,56
613,9	1516,68
614,3	1512,68
614,8	1508,76
615,2	1506,6
615,7	1505,36
616,1	1502,36
616,6	1489,64
617	1477,28
617,4	1458,52
617,9	1445,52
618,3	1436,4
618,8	1441,44
619,2	1436,64
619,7	1435,44
620,1	1429,16
620,5	1423,68
621	1411,04
621,4	1405,48
621,9	1394,32
622,3	1392,92
622,8	1388,24
623,2	1376,32
623,6	1365,24
624,1	1361,2
624,5	1351,8
625	1345
625,4	1343,6
625,9	1340,72
626,3	1331,16
626,8	1324,48
627,2	1316,84
627,6	1299,52
628,1	1297
628,5	1293,84
629	1283,48
629,4	1277,48
629,9	1280,08
630,3	1265,76
630,7	1262,04
631,2	1255,72
631,6	1252,4
632,1	1252,8
632,5	1250,8
633	1241,6
633,4	1240,32
633,8	1224,76
634,3	1207,92
634,7	1200,28
635,2	1198,52
635,6	1185,2
636,1	1184,24
636,5	1179,6
636,9	1171,48
637,4	1160,32
637,8	1157,68
638,3	1148,04
638,7	1144,04
639,2	1140,72
639,6	1136,4
640	1125
640,5	1122,76
640,9	1117,52
641,4	1108,28
641,8	1100,44
642,2	1097,08
642,7	1088,2
643,1	1081,88
643,6	1075,48
644	1065,32
644,5	1056,64
644,9	1051,28
645,3	1043,6
645,8	1034,96
646,2	1032,88
646,7	1019,12
647,1	1014,28
647,6	1011,64
648	1007,08
648,4	1000,2
648,9	1005,84
649,3	1000,12
649,8	988,4
650,2	987
650,6	979,72
651,1	977,64
651,5	967,88
652	969,28
652,4	962,84
652,9	954,24
653,3	942,2
653,7	937,2
654,2	927,68
654,6	920,96
655,1	915,88
655,5	911,44
655,9	907,92
656,4	898,24
656,8	892,64
657,3	893,56
657,7	889,36
658,2	882,6
658,6	882,48
659	878,52
659,5	872,24
659,9	864,96
660,4	863,16
660,8	854,44
661,2	850,08
661,7	846,2
662,1	841,56
662,6	830,92
663	830,68
663,4	823,52
663,9	818,28
664,3	817,48
664,8	816,4
665,2	808,68
665,6	805,8
666,1	797,44
666,5	787,96
667	778,76
667,4	775,08
667,9	766,24
668,3	761,64
668,7	758,24
669,2	746,84
669,6	740,84
670,1	735,92
670,5	733,72
670,9	730,4
671,4	732,6
671,8	725,64
672,3	720,76
672,7	715,28
673,1	714,6
673,6	707,56
674	704,64
674,5	693,4
674,9	688,32
675,3	678,92
675,8	677,36
676,2	671,92
676,7	677,48
677,1	668,2
677,5	661,64
678	654,76
678,4	648,64
678,9	637,64
679,3	633,04
679,7	630,52
680,2	629,92
680,6	621,2
681,1	625,6
681,5	627,92
681,9	618,72
682,4	612,84
682,8	616,52
683,3	604,88
683,7	594,6
684,1	596,6
684,6	588,88
685	581,48
685,5	577,84
685,9	576,44
686,3	569,88
686,8	567,48
687,2	563,32
687,7	561,72
688,1	557,36
688,5	555,56
689	551,36
689,4	550,04
689,9	540,24
690,3	536,4
690,7	528,48
691,2	521,6
691,6	512,4
692	507,76
692,5	508,88
692,9	502,24
693,4	498,8
693,8	496,12
694,2	493,88
694,7	486,52
695,1	485,52
695,6	481,96
696	476,28
696,4	476,52
696,9	470,2
697,3	469,52
697,8	471,64
698,2	474,28
698,6	471,52
699,1	471,04
699,5	471,32
699,9	464,56
700,4	458,84
700,8	455,36
701,3	450,76
701,7	439,2
702,1	441,8
702,6	437,44
703	433,36
703,5	426,36
703,9	426,48
704,3	421,16
704,8	421,4
705,2	414,52
705,6	415,84
706,1	412,48
706,5	402,36
707	402,84
707,4	400,52
707,8	396,12
708,3	391,52
708,7	397,6
709,2	384,92
709,6	384,52
710	387,36
710,5	389,2
710,9	381,56
711,3	383,8
711,8	384,8
712,2	385,76
712,7	380,04
713,1	374,28
713,5	369,84
714	359,4
714,4	347,84
714,8	347,08
715,3	346,32
715,7	345,76
716,2	343,64
716,6	344,84
717	337,04
717,5	338,68
717,9	339,08
718,3	336,96
718,8	330,32
719,2	327,76
719,7	323,96
720,1	317,16
720,5	317,48
721	309,32
721,4	308,04
721,8	301,76
722,3	299
722,7	295,76
723,2	293,48
723,6	291,6
724	290,6
724,5	284,4
724,9	282,24
725,3	287,8
725,8	286,44
726,2	285,32
726,7	282,56
727,1	279,88
727,5	270,32
728	267,28
728,4	262,72
728,8	258,4
729,3	259,28
729,7	263,12
730,1	261,48
730,6	260,72
731	266,56
731,5	264,96
731,9	265,8
732,3	265,2
732,8	258,92
733,2	250,24
733,6	242,68
734,1	238,76
734,5	230,8
734,9	234,32
735,4	238,16
735,8	243,32
736,3	240
736,7	245,12
737,1	240,72
737,6	245,92
738	239,88
738,4	238,96
738,9	232,44
739,3	231,96
739,7	223,56
740,2	223,72
740,6	218,2
741,1	218,2
741,5	218,12
741,9	218,08
742,4	219,16
742,8	220,48
743,2	220,56
743,7	218,36
744,1	212,64
744,5	207,08
745	204,44
745,4	198,52
745,8	191
746,3	186,04
746,7	182,4
747,2	185,2
747,6	190,32
748	197,84
748,5	202,28
748,9	199,2
749,3	188,24
749,8	181,56
750,2	177,44
750,6	169,16
751,1	169,24
751,5	174
751,9	178,36
752,4	178,32
752,8	191,16
753,3	188,8
753,7	187,16
754,1	184,96
754,6	180,52
755	169,68
755,4	173,68
755,9	171,24
756,3	166,32
756,7	163,52
757,2	165
757,6	157,56
758	162,8
758,5	162,64
758,9	167,52
759,3	159,16
759,8	164
760,2	157,48
760,6	155,56
761,1	150,76
761,5	150,68
761,9	148,36
762,4	146,16
762,8	143,52
763,3	141,48
763,7	144,24
764,1	143,68
764,6	144,6
765	145,24
765,4	144,08
765,9	140,08
766,3	135,44
766,7	134,32
767,2	131,92
767,6	135,08
768	138,6
768,5	139,12
768,9	139,04
769,3	141,88
769,8	139,56
770,2	134,76
770,6	137,76
771,1	135,16
771,5	133,6
771,9	132,64
772,4	133,68
772,8	128,52
773,2	131,2
773,7	128,64
774,1	128,72
774,5	131,08
775	131,16
775,4	125,08
775,8	125,56
776,3	119,68
776,7	110,04
777,1	106,76
777,6	104,92
778	105,08
778,4	110,44
778,9	116,6
779,3	112
779,7	111,8
780,2	108
780,6	102,6
781	104,72
781,5	108,52
781,9	108,92
782,3	105,36
782,8	99,28
783,2	90,28
783,6	89,04
784,1	87,52
784,5	87,04
784,9	93,12
785,4	102,04
785,8	102,04
786,2	101,84
786,7	101,68
787,1	102,24
787,5	90,04
788	86,92
788,4	84,72
788,8	85,6
789,3	76,48
789,7	80,72
790,1	81,36
790,6	79,2
791	79,8
791,4	86,08
791,9	84,76
792,3	87,64
792,7	89,36
793,2	84,44
793,6	82,48
794	83,68
794,5	78,8
794,9	79,48
795,3	84,4
795,8	80,68
796,2	79,56
796,6	80,92
797,1	75,52
797,5	69,92
797,9	71,04
798,4	69,68
798,8	70,08
799,2	71,4
799,7	72,36
800,1	64,92
800,5	66,44
801	68,2
801,4	67,88
801,8	65,2
802,2	76,2
802,7	78,24
803,1	73,16
803,5	74,16
804	78,8
804,4	76,68
804,8	66,24
805,3	56,36
805,7	54,52
806,1	45,6
806,6	45,44
807	47,12
807,4	54,48
807,9	51,52
808,3	55,24
808,7	51,36
809,2	51,56
809,6	49,36
810	52,32
810,4	50,2
810,9	51,24
811,3	56,2
811,7	54,52
812,2	49,88
812,6	50,28
813	43,04
813,5	38,44
813,9	38,32
814,3	42,16
814,8	48,08
815,2	53,48
815,6	55,52
816,1	53,68
816,5	52,72
816,9	44,52
817,3	44,56
817,8	42,96
818,2	43,72
818,6	45,32
819,1	43,76
819,5	40,44
819,9	36,2
820,4	38,32
820,8	33,44
821,2	42,52
821,7	40,4
822,1	42,44
822,5	41,52
822,9	42,48
823,4	37,4
823,8	41
824,2	42,24
824,7	40,12
825,1	39,96
825,5	34,92
826	32,12
826,4	32
826,8	35,12
827,3	33,44
827,7	38
828,1	36,44
828,5	32,8
829	31,24
829,4	27,28
829,8	25,88
830,3	32,04
830,7	33,32
831,1	30,52
831,6	36,72
832	34,88
832,4	37,16
832,8	35,4
833,3	39,48
833,7	41,2
834,1	38,04
834,6	28
835	26,32
835,4	16,12
835,8	7,2
836,3	10,6
836,7	12,88
837,1	12,4
837,6	23,4
838	30,12
838,4	34,32
838,9	32,12
839,3	34,56
839,7	33,48
840,1	34,56
840,6	24,44
841	20,52
841,4	17,36
841,9	14,84
842,3	10,44
842,7	12,24
843,1	14,92
843,6	12,88
844	12,64
844,4	14,6
844,9	18,52
845,3	21,24
845,7	28,04
846,2	28,12
846,6	21,44
847	18,12
847,4	15,28
847,9	13,68
848,3	12,28
848,7	14,88
849,2	14,08
849,6	13
850	8,68
850,4	8,56
850,9	9,6
851,3	10,24
851,7	10,84
852,2	6,52
852,6	6,24
853	7,4
853,4	8,8
853,9	9,48
854,3	15,04
854,7	16,24
855,2	16
855,6	10,08
856	9,48
856,4	10,64
856,9	9,76
857,3	7,72
857,7	16,64
858,2	19,36
858,6	17
859	18,32
859,4	17
859,9	9,8
860,3	8,88
860,7	8,68
861,1	6,08
861,6	2,6
862	4,84
862,4	0,48
862,9	-0,88
863,3	-2,04
863,7	0,6
864,1	1,72
864,6	4
865	6,76
865,4	3,48
865,9	2,52
866,3	-2,44
866,7	-2,76
867,1	-0,36
867,6	5,6
868	8,12
868,4	11,2
868,8	13,08
869,3	14,44
869,7	14,76
870,1	13,8
870,6	16,36
871	15,8
871,4	-3,6
871,8	-6,76
872,3	-4,56
872,7	-15,28
873,1	-15,68
873,5	-7,52
874	-10,4
874,4	-8,4
874,8	1,24
875,3	-0,04
875,7	5,96
876,1	11,44
876,5	7,72
877	4,2
877,4	4,16
877,8	6,36
878,2	3,72
878,7	8,88
879,1	13,44
879,5	16,4
879,9	16
880,4	16,84
880,8	13,76
881,2	7,12
881,7	-0
882,1	-8,36
882,5	-9,2
882,9	-11,84
883,4	-10,2
883,8	-5,72
884,2	0,32
884,6	2,64
885,1	2,04
885,5	-0,92
885,9	-5,64
886,3	-5,24
886,8	-10,92
887,2	-9,16
887,6	-2,16
888	1,64
888,5	2,84
888,9	9,8
889,3	4,92
889,8	1,44
890,2	0,32
890,6	-2,68
891	-4,68
891,5	-0,48
891,9	-1,56
892,3	-1,88
892,7	-0,16
893,2	-2,48
893,6	-8,52
894	-5,2
894,4	-7,08
894,9	-8,4
895,3	-9,4
895,7	-4,04
896,1	-2,28
896,6	2,04
897	5,48
897,4	3,52
897,8	1,28
898,3	-1,96
898,7	-3,84
899,1	-7,04
899,5	-7,64
900	-7,76
900,4	-6,68
900,8	-10,24
901,2	-13,52
901,7	-7,4
902,1	-7,12
902,5	-7,44
902,9	-5,4
903,4	-6,28
903,8	-9,52
904,2	-9,28
904,6	-6,04
905,1	-2,36
905,5	0,28
905,9	-0,56
906,3	-6,28
906,8	-10,4
907,2	-10,56
907,6	-8,36
908	-9,32
908,5	-3,92
908,9	-1,64
909,3	-5,56
909,7	-6,6
910,2	1,64
910,6	3,36
911	-5,68
911,4	-2,84
911,9	-4,08
912,3	-14,24
912,7	-15,04
913,1	-7,56
913,6	-12,64
914	-13,48
914,4	-9,64
914,8	-12,8
915,3	-14,96
915,7	-11,84
916,1	-5,04
916,5	-3,64
916,9	-0,28
917,4	3,12
917,8	5,76
918,2	0,36
918,6	-1,72
919,1	-3,04
919,5	-8,8
919,9	-9,76
920,3	-8,48
920,8	-3,96
921,2	-4,36
921,6	-4,96
922	-8,92
922,5	-10,32
922,9	-16,16
923,3	-18,12
923,7	-16,76
924,2	-19,16
924,6	-22
925	-20,12
925,4	-17,64
925,8	-19
926,3	-18,48
926,7	-15,64
927,1	-14,12
927,5	-15,64
928	-15,96
928,4	-10,6
928,8	-13,52
929,2	-13,68
929,7	-14,56
930,1	-8,68
930,5	-5,92
930,9	-7,32
931,3	-10,72
931,8	-6,52
932,2	-10,32
932,6	-20,28
933	-18,68
933,5	-18,76
933,9	-17,44
934,3	-10,6
934,7	-1,6
935,2	3,36
935,6	1,44
936	-4,68
936,4	-14,72
936,8	-22,56
937,3	-25,68
937,7	-25,4
938,1	-19,88
938,5	-13,6
939	-7,8
939,4	-8,44
939,8	-7,64
940,2	-15,48
940,6	-15,44
941,1	-14,88
941,5	-13,28
941,9	-15,4
942,3	-12,52
942,8	-14,72
943,2	-15,56
943,6	-15,08
944	-12,96
944,4	-19,8
944,9	-18,56
945,3	-19,52
945,7	-18,28
946,1	-13,36
946,6	-8,16
947	-9,4
947,4	-7,96
947,8	-13,8
948,2	-18,2
948,7	-9,88
949,1	-9,28
949,5	-12,92
949,9	-9,32
950,3	-7,16
950,8	-13,32
951,2	-19,4
951,6	-16,36
952	-14,96
952,5	-21,96
952,9	-18,36
953,3	-17,72
953,7	-14
954,1	-20,04
954,6	-9,84
955	-10,88
955,4	-6,68
955,8	-10,04
956,2	-4,36
956,7	-10,92
957,1	-10,6
957,5	-8,16
957,9	-6,28
958,3	-16,6
958,8	-14,2
959,2	-13,12
959,6	-16,16
960	-13,32
960,5	-7,36
960,9	-9,92
961,3	-10,68
961,7	-9
962,1	-9,96
962,6	-4,52
963	-2,84
963,4	-8,96
963,8	-12,08
964,2	-17
964,7	-17,08
965,1	-15,24
965,5	-7,64
965,9	-4,8
966,3	-7,04
966,8	-10,6
967,2	-13,72
967,6	-13,16
968	-13,72
968,4	-13
968,9	-17,48
969,3	-15,8
969,7	-22,12
970,1	-24,52
970,5	-27,56
971	-22,52
971,4	-20,16
971,8	-22,52
972,2	-21,32
972,6	-18,12
973,1	-18,04
973,5	-19,6
973,9	-14,32
974,3	-14,2
974,7	-16,04
975,2	-8,4
975,6	-11,56
976	-12,88
976,4	-13
976,8	-9,72
977,3	-17,72
977,7	-14,8
978,1	-16,72
978,5	-16
978,9	-16,36
979,4	-17,6
979,8	-19,92
980,2	-16,16
980,6	-16,64
981	-18,96
981,5	-20,72
981,9	-15,44
982,3	-15,84
982,7	-20,32
983,1	-19,76
983,6	-15,44
984	-19,88
984,4	-25,08
984,8	-24,08
985,2	-17,68
985,6	-19,68
986,1	-14,2
986,5	-8,6
986,9	-6,84
987,3	-15,96
987,7	-12,24
988,2	-14,84
988,6	-16,2
989	-11,12
989,4	-5,36
989,8	-10,56
990,3	-12,52
990,7	-13,76
991,1	-14,28
991,5	-16,76
991,9	-14,44
992,3	-22,48
992,8	-24,08
993,2	-27,36
993,6	-23,32
994	-23,2
994,4	-11,72
994,9	-7,84
995,3	-14,8
995,7	-15,52
996,1	-16
996,5	-18,96
996,9	-18,96
997,4	-12,8
997,8	-15,56
998,2	-13,76
998,6	-14,4
999	-17,84
999,5	-15,36
999,9	-14,88
1000,3	-17,64
1000,7	-13,24
1001,1	-16,8
1001,5	-16,96
1002	-15,16
1002,4	-17,32
1002,8	-20,72
1003,2	-13,96
1003,6	-12,44
1004	-15,56
1004,5	-14,64
1004,9	-15,6
1005,3	-19,56
1005,7	-20,12
1006,1	-15,08
1006,6	-9,12
1007	-6,24
1007,4	-3,52
1007,8	-3,16
1008,2	-3,32
1008,6	-2,2
1009,1	-6,8
1009,5	-11,28
1009,9	-14,72
1010,3	-23,56
1010,7	-32,96
1011,1	-32,2
1011,6	-25,96
1012	-22,8
1012,4	-16,32
1012,8	-8
1013,2	-5,52
1013,6	-11
1014,1	-14,88
1014,5	-18,12
1014,9	-24,76
1015,3	-26,16
1015,7	-19,84
1016,1	-17,6
1016,6	-12,96
1017	-11,12
1017,4	-10,28
1017,8	-8,56
1018,2	-9,76
1018,6	-12,64
1019,1	-14,6
1019,5	-20,6
1019,9	-26,4
1020,3	-26,24
1020,7	-30,12
1021,1	-27,4
1021,6	-24,08
1022	-19,68
1022,4	-17,08
1022,8	-8,76
1023,2	-6,04
1023,6	-7,48
1024,1	-10,32
1024,5	-14,84
1024,9	-19,16
1025,3	-23,72
1025,7	-23,4
1026,1	-22,92
1026,6	-24,6
1027	-23,76
1027,4	-18,32
1027,8	-18,4
1028,2	-22,48
1028,6	-19,68
1029	-21,6
1029,5	-25,08
1029,9	-19,72
1030,3	-17,6
1030,7	-15,68
1031,1	-19,24
1031,5	-22,64
1032	-24,56
1032,4	-22,24
1032,8	-18,44
1033,2	-14,52
1033,6	-9,44
1034	-6,92
1034,4	-5,64
1034,9	-7,12
1035,3	-11,2
1035,7	-10,04
1036,1	-14,52
1036,5	-18,2
1036,9	-19,56
1037,4	-21,84
1037,8	-24,8
1038,2	-28,72
1038,6	-27,2
1039	-28,68
1039,4	-24,32
1039,8	-26,28
1040,3	-18,48
1040,7	-18,08
1041,1	-17,6
1041,5	-16,32
1041,9	-14,6
1042,3	-16,44
1042,7	-14,6
1043,2	-16,52
1043,6	-19,2
1044	-15,04
1044,4	-18,36
1044,8	-23
1045,2	-17,64
1045,6	-15,12
1046,1	-19,32
1046,5	-19,04
1046,9	-17,52
1047,3	-26,04
1047,7	-28,76
1048,1	-30,8
1048,5	-29,84
1049	-34,76
1049,4	-30
1049,8	-25,04
1050,2	-22,32
1050,6	-20,44
1051	-17,76
1051,4	-14,24
1051,9	-16,2
1052,3	-20,12
1052,7	-22,92
1053,1	-20,08
1053,5	-26,52
1053,9	-22,4
1054,3	-25,8
1054,8	-27,56
1055,2	-30,48
1055,6	-28,44
1056	-31,64
1056,4	-19,68
1056,8	-13,48
1057,2	-15
1057,6	-10,2
1058,1	-10,84
1058,5	-21,8
1058,9	-18,44
1059,3	-11,64
1059,7	-16,36
1060,1	-10,8
1060,5	-2,72
1061	-6,64
1061,4	-7,88
1061,8	-10,8
1062,2	-20,6
1062,6	-25
1063	-25,88
1063,4	-26,32
1063,8	-24,92
1064,3	-17,28
1064,7	-18,12
1065,1	-22,28
1065,5	-21,76
1065,9	-19,6
1066,3	-24,24
1066,7	-18,2
1067,1	-12,96
1067,6	-18,12
1068	-21,72
1068,4	-20,92
1068,8	-20,12
1069,2	-26
1069,6	-19,92
1070	-14,04
1070,4	-13,44
1070,9	-10,24
1071,3	-10,04
1071,7	-14,96
1072,1	-16,16
1072,5	-12,12
1072,9	-24,56
1073,3	-20,08
1073,7	-10,24
1074,2	-11,36
1074,6	-18,76
1075	-15,04
1075,4	-16,24
1075,8	-23,8
1076,2	-19,88
1076,6	-6,92
1077	-5,72
1077,5	-7,72
1077,9	-7
1078,3	-10,32
1078,7	-19,44
1079,1	-16,32
1079,5	-11,4
1079,9	-9,16
1080,3	-7,72
1080,7	-1,76
1081,2	-2,12
1081,6	-1,68
1082	3,44
1082,4	2,8
1082,8	-4,48
1083,2	-8,88
1083,6	-14,48
1084	-23,16
1084,5	-23,04
1084,9	-19,2
1085,3	-17,44
1085,7	-12,88
1086,1	-13,24
1086,5	-14,92
1086,9	-20,56
1087,3	-21,32
1087,7	-21,48
1088,2	-18,2
1088,6	-15,56
1089	-14,48
1089,4	-14,72
1089,8	-16,28
1090,2	-19,32
1090,6	-23,68
1091	-22
1091,4	-23,44
1091,9	-27,12
1092,3	-22,68
1092,7	-14,8
1093,1	-12,4
1093,5	-10,44
1093,9	-6
1094,3	-10,04
1094,7	-15,72
1095,1	-20,2
1095,5	-17,76
1096	-17,48
1096,4	-12,84
1096,8	-6,44
1097,2	-2,04
1097,6	-5,72
1098	-6,12
1098,4	-11
1098,8	-14,32
1099,2	-14,96
1099,6	-12,32
1100,1	-11,72
1100,5	-8,88
1100,9	-7,76
1101,3	-10
1101,7	-11,52
1102,1	-9,6
1102,5	-9,16
1102,9	-10,36
1103,3	-12,24
1103,7	-8,48
1104,2	-11,16
1104,6	-13,68
1105	-15
1105,4	-10,84
1105,8	-13,92
1106,2	-11,32
1106,6	-7,48
1107	-5,68
1107,4	-4,16
1107,8	-0,1
1108,3	-0,067
