Data from Subt2_00065.txt Node
Date: Fri Aug 11 16:23:55 MSK 2023
User: vat
Spectrometer: MAYP114033
Trigger mode: 0
Integration Time (sec): 5,000000E-1
Scans to average: 5
Electric dark correction enabled: true
Nonlinearity correction enabled: false
Boxcar width: 2
XAxis mode: Wavelengths
Number of Pixels in Spectrum: 2068
>>>>>Begin Spectral Data<<<<<
199,4	-0,133
199,9	-0,433
200,4	-9,813
200,8	-12,573
201,3	-20,653
201,8	-22,573
202,2	-23,733
202,7	-18,973
203,2	-20,413
203,6	-18,093
204,1	-20,733
204,6	-24,813
205	-26,493
205,5	-25,773
206	-23,453
206,4	-24,213
206,9	-23,613
207,4	-26,773
207,8	-25,373
208,3	-27,973
208,8	-27,173
209,2	-30,773
209,7	-27,693
210,2	-32,333
210,6	-33,253
211,1	-32,493
211,5	-32,333
212	-32,013
212,5	-31,973
212,9	-30,493
213,4	-37,453
213,9	-33,933
214,3	-36,813
214,8	-39,813
215,3	-41,213
215,7	-39,773
216,2	-35,573
216,7	-40,733
217,1	-40,413
217,6	-43,333
218,1	-42,293
218,5	-51,613
219	-40,933
219,5	-35,413
219,9	-34,173
220,4	-32,933
220,9	-31,813
221,3	-35,493
221,8	-43,573
222,3	-43,413
222,7	-42,373
223,2	-39,733
223,6	-42,213
224,1	-39,253
224,6	-40,813
225	-43,653
225,5	-41,693
226	-38,453
226,4	-41,133
226,9	-43,533
227,4	-39,533
227,8	-41,613
228,3	-44,333
228,8	-42,453
229,2	-40,293
229,7	-46,853
230,2	-45,853
230,6	-46,733
231,1	-46,733
231,5	-46,733
232	-45,373
232,5	-48,173
232,9	-51,173
233,4	-46,093
233,9	-46,053
234,3	-38,933
234,8	-36,653
235,3	-33,293
235,7	-34,213
236,2	-34,213
236,7	-36,653
237,1	-45,333
237,6	-43,213
238,1	-47,773
238,5	-44,373
239	-45,493
239,4	-41,533
239,9	-37,493
240,4	-33,773
240,8	-33,573
241,3	-35,573
241,8	-30,973
242,2	-34,293
242,7	-33,053
243,2	-32,533
243,6	-29,333
244,1	-28,893
244,6	-30,853
245	-34,773
245,5	-37,333
245,9	-39,693
246,4	-37,493
246,9	-40,973
247,3	-41,533
247,8	-45,653
248,3	-44,773
248,7	-50,253
249,2	-46,813
249,7	-44,173
250,1	-40,213
250,6	-40,733
251	-41,133
251,5	-42,333
252	-48,613
252,4	-49,613
252,9	-48,493
253,4	-49,933
253,8	-46,013
254,3	-36,213
254,8	-36,013
255,2	-32,133
255,7	-28,453
256,1	-34,333
256,6	-42,453
257,1	-45,053
257,5	-47,733
258	-51,053
258,5	-42,173
258,9	-36,653
259,4	-31,613
259,9	-35,053
260,3	-34,373
260,8	-36,733
261,2	-38,773
261,7	-36,133
262,2	-35,893
262,6	-36,973
263,1	-38,013
263,6	-39,253
264	-41,013
264,5	-38,933
264,9	-34,893
265,4	-35,373
265,9	-31,573
266,3	-29,973
266,8	-25,213
267,3	-29,813
267,7	-37,733
268,2	-41,133
268,7	-41,613
269,1	-50,173
269,6	-54,413
270	-49,453
270,5	-46,173
271	-51,693
271,4	-52,493
271,9	-45,013
272,4	-43,133
272,8	-46,133
273,3	-43,533
273,7	-41,613
274,2	-38,493
274,7	-40,053
275,1	-41,973
275,6	-42,613
276,1	-40,613
276,5	-46,693
277	-47,133
277,4	-44,133
277,9	-47,093
278,4	-49,013
278,8	-47,813
279,3	-42,013
279,8	-45,213
280,2	-41,333
280,7	-43,613
281,1	-42,573
281,6	-44,973
282,1	-36,093
282,5	-34,533
283	-29,613
283,4	-30,933
283,9	-32,653
284,4	-39,173
284,8	-35,973
285,3	-36,213
285,8	-33,893
286,2	-32,733
286,7	-30,093
287,1	-37,773
287,6	-37,493
288,1	-33,653
288,5	-33,493
289	-33,613
289,5	-33,853
289,9	-32,293
290,4	-33,373
290,8	-30,653
291,3	-35,853
291,8	-35,013
292,2	-37,373
292,7	-40,213
293,1	-47,013
293,6	-43,493
294,1	-45,573
294,5	-51,493
295	-48,093
295,5	-43,653
295,9	-41,693
296,4	-36,573
296,8	-29,093
297,3	-32,573
297,8	-33,853
298,2	-33,653
298,7	-35,773
299,1	-39,213
299,6	-35,413
300,1	-38,653
300,5	-40,933
301	-41,213
301,5	-40,493
301,9	-48,413
302,4	-46,013
302,8	-51,773
303,3	-54,733
303,8	-57,093
304,2	-56,973
304,7	-57,773
305,1	-53,653
305,6	-51,013
306,1	-46,773
306,5	-40,893
307	-38,693
307,4	-34,933
307,9	-31,893
308,4	-34,573
308,8	-32,373
309,3	-29,293
309,8	-31,453
310,2	-32,493
310,7	-33,373
311,1	-40,053
311,6	-41,013
312,1	-38,813
312,5	-41,493
313	-43,413
313,4	-43,293
313,9	-42,773
314,4	-42,453
314,8	-39,173
315,3	-34,413
315,7	-35,293
316,2	-43,453
316,7	-42,173
317,1	-43,893
317,6	-47,333
318	-42,453
318,5	-38,293
319	-41,853
319,4	-46,053
319,9	-44,133
320,3	-43,373
320,8	-38,613
321,3	-42,293
321,7	-34,853
322,2	-34,493
322,6	-34,053
323,1	-42,373
323,6	-39,773
324	-40,693
324,5	-44,573
324,9	-47,333
325,4	-38,733
325,9	-37,773
326,3	-31,973
326,8	-29,533
327,2	-31,453
327,7	-38,253
328,2	-41,453
328,6	-50,133
329,1	-48,573
329,5	-44,653
330	-40,373
330,5	-37,893
330,9	-34,573
331,4	-30,853
331,8	-36,013
332,3	-37,133
332,8	-39,893
333,2	-46,533
333,7	-47,493
334,1	-42,573
334,6	-44,333
335,1	-37,373
335,5	-31,013
336	-33,413
336,4	-31,293
336,9	-28,333
337,4	-28,573
337,8	-25,533
338,3	-26,973
338,7	-31,693
339,2	-32,253
339,7	-31,053
340,1	-32,053
340,6	-29,973
341	-23,613
341,5	-25,453
342	-26,573
342,4	-29,653
342,9	-26,933
343,3	-35,573
343,8	-34,373
344,2	-28,493
344,7	-25,853
345,2	-27,173
345,6	-20,093
346,1	-15,853
346,5	-20,293
347	-23,533
347,5	-19,453
347,9	-15,333
348,4	-17,333
348,8	-14,973
349,3	-4,453
349,8	4,267
350,2	12,787
350,7	25,667
351,1	38,987
351,6	57,067
352	70,707
352,5	100,427
353	131,787
353,4	172,667
353,9	222,787
354,3	288,187
354,8	354,227
355,3	445,507
355,7	542,627
356,2	645,867
356,6	770,787
357,1	917,187
357,5	1079,747
358	1272,587
358,5	1500,587
358,9	1748,107
359,4	2043,067
359,8	2363,307
360,3	2721,867
360,8	3122,387
361,2	3581,547
361,7	4074,547
362,1	4617,587
362,6	5210,627
363	5841,147
363,5	6490,627
364	7182,147
364,4	7900,307
364,9	8615,507
365,3	9325,187
365,8	10014,467
366,3	10652,547
366,7	11231,187
367,2	11716,387
367,6	12111,827
368,1	12405,787
368,5	12571,187
369	12638,027
369,5	12622,987
369,9	12498,347
370,4	12276,707
370,8	11975,627
371,3	11587,107
371,7	11123,747
372,2	10618,547
372,7	10087,547
373,1	9531,067
373,6	8958,667
374	8383,867
374,5	7811,427
374,9	7239,747
375,4	6693,467
375,9	6165,467
376,3	5665,267
376,8	5200,907
377,2	4770,747
377,7	4359,227
378,2	3980,907
378,6	3620,507
379,1	3282,067
379,5	2973,467
380	2705,987
380,4	2464,787
380,9	2262,147
381,4	2078,587
381,8	1909,907
382,3	1751,747
382,7	1607,787
383,2	1477,147
383,6	1362,147
384,1	1258,227
384,6	1161,547
385	1069,147
385,5	994,827
385,9	912,627
386,4	839,707
386,8	773,547
387,3	724,867
387,7	664,627
388,2	610,107
388,7	561,187
389,1	510,027
389,6	459,107
390	415,907
390,5	382,067
390,9	347,027
391,4	319,307
391,9	292,187
392,3	267,947
392,8	248,907
393,2	229,747
393,7	213,827
394,1	197,107
394,6	183,467
395,1	164,667
395,5	148,947
396	139,107
396,4	121,827
396,9	113,307
397,3	105,667
397,8	102,867
398,2	88,787
398,7	88,547
399,2	80,387
399,6	74,027
400,1	63,747
400,5	59,467
401	50,547
401,4	39,467
401,9	30,467
402,4	23,147
402,8	18,787
403,3	15,347
403,7	13,507
404,2	14,507
404,6	11,427
405,1	13,507
405,5	15,867
406	14,547
406,5	7,347
406,9	6,667
407,4	4,067
407,8	1,387
408,3	-0,373
408,7	1,667
409,2	-3,053
409,6	-6,333
410,1	-8,613
410,6	-8,293
411	-11,853
411,5	-2,973
411,9	3,747
412,4	5,827
412,8	1,987
413,3	5,947
413,7	7,347
414,2	1,947
414,7	4,107
415,1	10,907
415,6	8,907
416	13,107
416,5	14,787
416,9	13,307
417,4	13,627
417,8	13,827
418,3	10,587
418,8	16,947
419,2	21,787
419,7	25,467
420,1	30,187
420,6	27,187
421	23,827
421,5	19,427
421,9	24,227
422,4	27,547
422,8	35,587
423,3	39,587
423,8	46,827
424,2	47,387
424,7	50,507
425,1	47,427
425,6	47,467
426	48,507
426,5	51,467
426,9	56,267
427,4	62,707
427,9	71,227
428,3	71,627
428,8	71,147
429,2	77,547
429,7	87,187
430,1	90,747
430,6	97,627
431	104,347
431,5	107,547
431,9	105,107
432,4	113,427
432,8	124,827
433,3	129,627
433,8	130,067
434,2	136,827
434,7	137,307
435,1	147,467
435,6	159,747
436	173,987
436,5	180,667
436,9	189,347
437,4	197,347
437,8	203,547
438,3	211,027
438,8	220,827
439,2	236,467
439,7	244,547
440,1	250,947
440,6	260,747
441	274,427
441,5	282,347
441,9	285,067
442,4	292,707
442,8	301,187
443,3	306,427
443,7	308,267
444,2	324,307
444,7	337,307
445,1	351,827
445,6	363,987
446	373,147
446,5	387,387
446,9	397,467
447,4	401,987
447,8	410,347
448,3	425,107
448,7	430,107
449,2	447,787
449,6	466,267
450,1	478,667
450,6	496,867
451	506,227
451,5	510,027
451,9	513,347
452,4	524,307
452,8	532,827
453,3	543,467
453,7	559,747
454,2	582,867
454,6	603,667
455,1	612,267
455,5	625,227
456	636,827
456,4	644,267
456,9	658,387
457,3	680,787
457,8	700,067
458,3	711,347
458,7	724,667
459,2	734,187
459,6	748,147
460,1	758,907
460,5	776,587
461	785,307
461,4	799,827
461,9	809,467
462,3	821,987
462,8	837,227
463,2	863,147
463,7	868,187
464,1	882,027
464,6	899,587
465	907,387
465,5	910,947
466	927,787
466,4	937,107
466,9	945,427
467,3	960,747
467,8	971,907
468,2	989,987
468,7	1001,227
469,1	1014,147
469,6	1018,707
470	1032,107
470,5	1037,907
470,9	1043,307
471,4	1044,747
471,8	1065,947
472,3	1069,867
472,7	1073,587
473,2	1088,307
473,6	1097,787
474,1	1097,107
474,5	1105,307
475	1112,667
475,4	1113,587
475,9	1121,187
476,4	1123,387
476,8	1128,347
477,3	1136,587
477,7	1142,707
478,2	1147,907
478,6	1142,267
479,1	1145,227
479,5	1145,187
480	1145,867
480,4	1140,467
480,9	1148,067
481,3	1146,667
481,8	1151,467
482,2	1156,427
482,7	1160,987
483,1	1157,227
483,6	1156,987
484	1158,747
484,5	1155,547
484,9	1157,507
485,4	1156,347
485,8	1151,747
486,3	1143,387
486,7	1138,587
487,2	1130,427
487,6	1126,107
488,1	1123,787
488,5	1116,827
489	1111,467
489,4	1114,227
489,9	1121,707
490,4	1122,587
490,8	1120,347
491,3	1114,587
491,7	1101,467
492,2	1092,867
492,6	1082,587
493,1	1072,827
493,5	1069,787
494	1063,347
494,4	1056,107
494,9	1049,707
495,3	1046,507
495,8	1033,027
496,2	1030,307
496,7	1024,027
497,1	1014,747
497,6	1006,787
498	1003,267
498,5	990,387
498,9	977,907
499,4	970,307
499,8	965,307
500,3	952,467
500,7	951,107
501,2	947,267
501,6	940,187
502,1	930,907
502,5	924,907
503	918,627
503,4	910,307
503,9	910,787
504,3	900,187
504,8	895,187
505,2	878,707
505,7	870,587
506,1	865,267
506,6	858,547
507	850,067
507,5	849,987
507,9	838,907
508,4	824,067
508,8	817,027
509,3	809,387
509,7	794,307
510,2	799,027
510,6	793,147
511,1	781,627
511,5	780,187
512	770,907
512,4	752,507
512,9	738,147
513,3	731,227
513,8	720,627
514,2	718,907
514,7	711,347
515,1	706,067
515,6	697,867
516	690,907
516,5	677,947
516,9	670,987
517,4	663,227
517,8	652,147
518,3	650,027
518,7	650,947
519,2	645,147
519,6	636,307
520,1	635,587
520,5	621,227
521	612,627
521,4	598,707
521,9	593,747
522,3	587,507
522,8	582,307
523,2	578,947
523,7	576,747
524,1	570,547
524,6	562,347
525	559,627
525,5	552,027
525,9	547,467
526,4	545,627
526,8	535,507
527,3	522,387
527,7	516,267
528,2	510,067
528,6	502,587
529,1	503,307
529,5	504,307
530	495,827
530,4	492,427
530,9	481,467
531,3	477,987
531,8	471,107
532,2	467,747
532,6	463,747
533,1	460,987
533,5	452,307
534	443,307
534,4	437,467
534,9	428,747
535,3	427,427
535,8	420,187
536,2	417,707
536,7	414,027
537,1	410,667
537,6	404,787
538	412,347
538,5	414,427
538,9	409,067
539,4	403,627
539,8	397,907
540,3	383,787
540,7	367,147
541,2	363,667
541,6	364,147
542,1	353,907
542,5	349,947
543	347,387
543,4	336,787
543,9	328,147
544,3	332,267
544,8	324,867
545,2	317,747
545,7	314,107
546,1	308,147
546,5	303,467
547	301,427
547,4	300,747
547,9	299,467
548,3	296,467
548,8	294,827
549,2	293,347
549,7	296,067
550,1	294,827
550,6	293,187
551	285,347
551,5	281,187
551,9	274,587
552,4	274,107
552,8	270,307
553,3	270,627
553,7	272,987
554,2	267,907
554,6	265,547
555,1	261,227
555,5	261,947
555,9	257,787
556,4	253,627
556,8	251,947
557,3	250,107
557,7	243,427
558,2	236,827
558,6	240,907
559,1	229,467
559,5	230,787
560	228,107
560,4	226,507
560,9	223,027
561,3	226,347
561,8	222,867
562,2	218,987
562,7	220,067
563,1	210,787
563,6	209,587
564	205,267
564,4	204,867
564,9	202,827
565,3	207,947
565,8	202,387
566,2	200,907
566,7	193,867
567,1	192,627
567,6	187,347
568	186,547
568,5	186,587
568,9	188,027
569,4	183,547
569,8	180,707
570,3	177,307
570,7	175,987
571,1	175,227
571,6	175,987
572	176,027
572,5	181,867
572,9	176,427
573,4	172,267
573,8	165,667
574,3	166,427
574,7	157,747
575,2	155,227
575,6	154,947
576,1	153,107
576,5	149,827
576,9	148,867
577,4	148,467
577,8	147,307
578,3	146,147
578,7	144,307
579,2	139,387
579,6	138,947
580,1	140,027
580,5	139,467
581	135,427
581,4	140,867
581,9	135,427
582,3	131,387
582,7	127,227
583,2	128,387
583,6	121,147
584,1	122,387
584,5	121,707
585	122,027
585,4	123,147
585,9	127,627
586,3	123,147
586,8	126,187
587,2	126,707
587,6	123,867
588,1	116,947
588,5	121,787
589	113,187
589,4	106,467
589,9	105,027
590,3	112,267
590,8	106,827
591,2	108,547
591,7	113,787
592,1	110,507
592,5	104,107
593	103,347
593,4	102,267
593,9	99,627
594,3	99,587
594,8	98,027
595,2	101,587
595,7	96,867
596,1	102,387
596,6	101,947
597	98,267
597,4	94,707
597,9	99,907
598,3	95,507
598,8	101,987
599,2	110,027
599,7	114,427
600,1	115,067
600,6	112,067
601	108,387
601,4	102,907
601,9	96,027
602,3	90,107
602,8	89,427
603,2	86,747
603,7	84,267
604,1	83,387
604,6	87,147
605	87,547
605,4	84,107
605,9	79,067
606,3	77,147
606,8	74,187
607,2	69,467
607,7	67,187
608,1	70,707
608,6	72,907
609	71,547
609,4	72,987
609,9	76,387
610,3	76,227
610,8	76,587
611,2	69,587
611,7	67,827
612,1	64,627
612,6	62,267
613	67,267
613,4	76,147
613,9	85,907
614,3	87,747
614,8	85,987
615,2	81,627
615,7	80,027
616,1	69,547
616,6	63,747
617	68,547
617,4	68,307
617,9	67,187
618,3	66,987
618,8	69,707
619,2	70,827
619,7	70,547
620,1	65,027
620,5	62,667
621	63,467
621,4	59,467
621,9	54,267
622,3	54,267
622,8	59,587
623,2	59,747
623,6	62,587
624,1	63,427
624,5	65,227
625	58,907
625,4	52,467
625,9	51,107
626,3	51,707
626,8	52,067
627,2	52,947
627,6	56,267
628,1	53,267
628,5	51,187
629	53,067
629,4	58,067
629,9	56,427
630,3	57,987
630,7	58,667
631,2	56,547
631,6	54,507
632,1	54,507
632,5	53,627
633	53,347
633,4	52,467
633,8	46,547
634,3	44,667
634,7	45,667
635,2	42,907
635,6	44,307
636,1	53,267
636,5	59,827
636,9	57,147
637,4	63,067
637,8	63,147
638,3	56,347
638,7	53,107
639,2	51,147
639,6	46,467
640	40,107
640,5	40,787
640,9	38,147
641,4	36,587
641,8	36,147
642,2	42,187
642,7	40,067
643,1	46,387
643,6	43,987
644	45,267
644,5	46,307
644,9	46,747
645,3	39,507
645,8	40,307
646,2	36,507
646,7	32,587
647,1	37,587
647,6	36,827
648	37,907
648,4	38,107
648,9	38,667
649,3	27,347
649,8	31,507
650,2	34,987
650,6	30,707
651,1	31,027
651,5	33,747
652	30,707
652,4	28,267
652,9	33,947
653,3	32,827
653,7	33,067
654,2	36,587
654,6	40,667
655,1	40,467
655,5	38,587
655,9	42,507
656,4	36,787
656,8	30,867
657,3	27,707
657,7	33,427
658,2	34,787
658,6	37,627
659	39,107
659,5	41,027
659,9	34,747
660,4	34,227
660,8	33,987
661,2	29,187
661,7	29,787
662,1	31,387
662,6	29,387
663	24,827
663,4	28,187
663,9	24,667
664,3	22,827
664,8	22,827
665,2	23,587
665,6	31,067
666,1	34,027
666,5	33,267
667	34,387
667,4	30,947
667,9	25,067
668,3	22,187
668,7	24,787
669,2	20,667
669,6	23,507
670,1	22,467
670,5	28,347
670,9	24,627
671,4	27,227
671,8	29,627
672,3	30,387
672,7	29,187
673,1	28,987
673,6	27,347
674	29,667
674,5	23,627
674,9	17,867
675,3	21,627
675,8	25,227
676,2	25,227
676,7	30,547
677,1	33,787
677,5	32,787
678	27,027
678,4	29,987
678,9	25,627
679,3	24,027
679,7	25,707
680,2	28,507
680,6	20,627
681,1	21,507
681,5	23,187
681,9	20,547
682,4	19,107
682,8	20,467
683,3	27,187
683,7	25,267
684,1	25,307
684,6	28,187
685	28,187
685,5	25,027
685,9	28,867
686,3	26,107
686,8	23,307
687,2	20,147
687,7	19,467
688,1	16,747
688,5	25,187
689	20,467
689,4	22,787
689,9	19,987
690,3	16,907
690,7	10,907
691,2	19,907
691,6	18,587
692	22,507
692,5	26,347
692,9	23,027
693,4	16,707
693,8	24,227
694,2	21,507
694,7	16,427
695,1	19,227
695,6	21,267
696	18,787
696,4	22,347
696,9	28,867
697,3	27,027
697,8	24,587
698,2	25,987
698,6	21,747
699,1	15,667
699,5	22,627
699,9	24,707
700,4	19,427
700,8	17,787
701,3	18,067
701,7	10,747
702,1	6,067
702,6	3,747
703	5,307
703,5	5,707
703,9	3,507
704,3	11,107
704,8	10,307
705,2	10,227
705,6	15,107
706,1	14,667
706,5	9,747
707	14,027
707,4	13,827
707,8	5,587
708,3	10,307
708,7	16,867
709,2	9,587
709,6	10,227
710	12,547
710,5	10,307
710,9	-1,653
711,3	-1,453
711,8	-3,093
712,2	1,187
712,7	-4,053
713,1	3,267
713,5	13,107
714	12,987
714,4	10,907
714,8	17,227
715,3	18,267
715,7	16,347
716,2	13,947
716,6	8,987
717	10,707
717,5	5,507
717,9	4,907
718,3	3,747
718,8	5,907
719,2	0,467
719,7	4,227
720,1	4,147
720,5	5,147
721	4,307
721,4	4,227
721,8	0,827
722,3	-2,453
722,7	-4,613
723,2	2,707
723,6	5,387
724	6,187
724,5	5,307
724,9	16,107
725,3	8,427
725,8	9,307
726,2	13,027
726,7	17,787
727,1	12,267
727,5	13,787
728	15,387
728,4	14,147
728,8	6,747
729,3	9,747
729,7	12,747
730,1	5,107
730,6	2,467
731	6,827
731,5	5,747
731,9	6,587
732,3	10,347
732,8	6,467
733,2	4,187
733,6	1,027
734,1	-0,653
734,5	-1,253
734,9	5,267
735,4	2,587
735,8	1,267
736,3	-3,893
736,7	-5,733
737,1	-7,533
737,6	-3,093
738	-3,093
738,4	0,147
738,9	2,387
739,3	0,907
739,7	-1,173
740,2	-3,933
740,6	-6,053
741,1	-6,613
741,5	-4,653
741,9	0,067
742,4	-0,413
742,8	-0,333
743,2	-0,013
743,7	-1,053
744,1	-3,933
744,5	-3,813
745	-0,373
745,4	1,747
745,8	-2,013
746,3	0,147
746,7	0,347
747,2	-0,453
747,6	1,427
748	5,027
748,5	3,667
748,9	2,387
749,3	-0,693
749,8	-7,733
750,2	-13,453
750,6	-14,173
751,1	-11,533
751,5	-7,813
751,9	-5,653
752,4	-1,493
752,8	-1,413
753,3	0,067
753,7	0,747
754,1	-1,093
754,6	5,267
755	2,547
755,4	2,667
755,9	0,587
756,3	-1,693
756,7	-4,253
757,2	-5,413
757,6	-7,853
758	-5,173
758,5	-1,813
758,9	-5,333
759,3	-5,333
759,8	-1,213
760,2	-1,933
760,6	-4,173
761,1	-7,533
761,5	-7,933
761,9	-11,773
762,4	-18,053
762,8	-18,493
763,3	-14,453
763,7	-13,693
764,1	-12,213
764,6	-8,933
765	-2,173
765,4	-4,613
765,9	-5,253
766,3	-5,053
766,7	-9,533
767,2	-13,133
767,6	-13,973
768	-7,573
768,5	-9,773
768,9	-5,613
769,3	-12,053
769,8	-12,293
770,2	-20,693
770,6	-17,893
771,1	-18,053
771,5	-17,573
771,9	-12,813
772,4	-8,333
772,8	-7,573
773,2	-8,973
773,7	-2,653
774,1	-4,573
774,5	-9,613
775	-12,733
775,4	-11,973
775,8	-7,693
776,3	-11,693
776,7	-7,213
777,1	-8,413
777,6	-9,373
778	-14,133
778,4	-9,213
778,9	-10,413
779,3	-12,373
779,7	-10,893
780,2	-10,733
780,6	-14,893
781	-14,093
781,5	-11,133
781,9	-19,973
782,3	-25,053
782,8	-21,653
783,2	-18,413
783,6	-17,373
784,1	-12,893
784,5	-16,533
784,9	-21,133
785,4	-24,133
785,8	-27,573
786,2	-32,613
786,7	-23,693
787,1	-23,333
787,5	-26,253
788	-21,973
788,4	-16,693
788,8	-19,373
789,3	-18,213
789,7	-18,853
790,1	-21,573
790,6	-18,453
791	-24,853
791,4	-21,333
791,9	-23,253
792,3	-23,293
792,7	-22,293
793,2	-13,573
793,6	-18,533
794	-14,653
794,5	-13,853
794,9	-13,933
795,3	-21,653
795,8	-20,813
796,2	-21,533
796,6	-26,293
797,1	-30,133
797,5	-29,653
797,9	-26,773
798,4	-25,573
798,8	-18,253
799,2	-17,413
799,7	-14,573
800,1	-18,053
800,5	-23,013
801	-33,373
801,4	-34,813
801,8	-34,093
802,2	-27,253
802,7	-24,253
803,1	-16,853
803,5	-17,133
804	-17,733
804,4	-25,453
804,8	-32,813
805,3	-34,013
805,7	-31,173
806,1	-29,773
806,6	-27,053
807	-26,293
807,4	-30,533
807,9	-25,693
808,3	-27,013
808,7	-33,333
809,2	-27,093
809,6	-24,813
810	-34,693
810,4	-33,013
810,9	-27,013
811,3	-27,453
811,7	-20,933
812,2	-18,893
812,6	-24,853
813	-19,973
813,5	-17,973
813,9	-21,373
814,3	-14,893
814,8	-7,333
815,2	-16,413
815,6	-22,613
816,1	-28,133
816,5	-36,893
816,9	-38,533
817,3	-38,133
817,8	-38,373
818,2	-37,293
818,6	-36,093
819,1	-42,333
819,5	-36,893
819,9	-31,933
820,4	-28,413
820,8	-26,213
821,2	-21,653
821,7	-21,453
822,1	-21,773
822,5	-24,613
822,9	-29,013
823,4	-27,613
823,8	-28,413
824,2	-30,373
824,7	-30,093
825,1	-22,133
825,5	-22,893
826	-27,493
826,4	-31,133
826,8	-30,493
827,3	-36,493
827,7	-40,173
828,1	-38,173
828,5	-34,653
829	-34,693
829,4	-35,053
829,8	-33,053
830,3	-31,093
830,7	-30,973
831,1	-35,293
831,6	-32,293
832	-32,653
832,4	-35,053
832,8	-35,173
833,3	-31,733
833,7	-27,053
834,1	-25,853
834,6	-29,333
835	-24,933
835,4	-23,973
835,8	-28,133
836,3	-27,613
836,7	-21,173
837,1	-25,973
837,6	-26,893
838	-30,013
838,4	-33,813
838,9	-41,333
839,3	-39,053
839,7	-33,413
840,1	-26,533
840,6	-25,613
841	-18,933
841,4	-19,973
841,9	-22,573
842,3	-31,533
842,7	-31,373
843,1	-32,493
843,6	-39,973
844	-43,853
844,4	-40,253
844,9	-39,213
845,3	-35,493
845,7	-29,253
846,2	-26,693
846,6	-23,573
847	-25,093
847,4	-35,533
847,9	-33,493
848,3	-37,813
848,7	-36,853
849,2	-35,053
849,6	-37,093
850	-35,893
850,4	-32,373
850,9	-34,453
851,3	-37,733
851,7	-33,333
852,2	-36,533
852,6	-38,853
853	-42,493
853,4	-39,373
853,9	-41,053
854,3	-39,893
854,7	-35,213
855,2	-33,133
855,6	-31,853
856	-29,293
856,4	-30,133
856,9	-34,053
857,3	-34,813
857,7	-35,413
858,2	-32,533
858,6	-30,573
859	-28,013
859,4	-27,413
859,9	-29,933
860,3	-32,493
860,7	-35,213
861,1	-36,093
861,6	-33,893
862	-36,173
862,4	-31,813
862,9	-32,653
863,3	-34,053
863,7	-39,333
864,1	-37,053
864,6	-38,653
865	-33,973
865,4	-35,573
865,9	-34,613
866,3	-36,053
866,7	-36,493
867,1	-37,893
867,6	-37,213
868	-35,613
868,4	-31,493
868,8	-31,653
869,3	-32,573
869,7	-33,133
870,1	-36,893
870,6	-39,013
871	-40,293
871,4	-10,693
871,8	-15,413
872,3	-11,533
872,7	-13,373
873,1	-8,693
873,5	-39,133
874	-30,893
874,4	-25,973
874,8	-26,173
875,3	-30,253
875,7	-30,573
876,1	-35,693
876,5	-41,373
877	-39,613
877,4	-37,013
877,8	-37,093
878,2	-32,413
878,7	-29,733
879,1	-25,253
879,5	-28,533
879,9	-30,053
880,4	-28,493
880,8	-33,413
881,2	-38,893
881,7	-44,653
882,1	-40,853
882,5	-44,053
882,9	-39,613
883,4	-34,413
883,8	-31,333
884,2	-31,493
884,6	-31,173
885,1	-30,173
885,5	-31,013
885,9	-30,653
886,3	-33,973
886,8	-31,253
887,2	-27,533
887,6	-30,533
888	-37,293
888,5	-36,213
888,9	-34,533
889,3	-42,133
889,8	-39,693
890,2	-30,453
890,6	-28,013
891	-36,533
891,5	-36,813
891,9	-40,413
892,3	-38,893
892,7	-41,573
893,2	-32,613
893,6	-29,053
894	-31,813
894,4	-33,293
894,9	-36,013
895,3	-38,053
895,7	-35,413
896,1	-30,573
896,6	-27,813
897	-24,893
897,4	-30,693
897,8	-35,453
898,3	-38,733
898,7	-31,533
899,1	-31,853
899,5	-31,813
900	-35,813
900,4	-30,973
900,8	-46,173
901,2	-44,853
901,7	-42,693
902,1	-39,813
902,5	-42,453
902,9	-39,453
903,4	-39,453
903,8	-42,453
904,2	-38,293
904,6	-40,133
905,1	-36,133
905,5	-35,093
905,9	-30,133
906,3	-30,813
906,8	-25,693
907,2	-26,573
907,6	-29,173
908	-29,173
908,5	-33,213
908,9	-38,533
909,3	-43,213
909,7	-41,013
910,2	-41,173
910,6	-45,053
911	-40,773
911,4	-42,653
911,9	-44,133
912,3	-46,093
912,7	-41,693
913,1	-48,533
913,6	-41,133
914	-41,933
914,4	-45,573
914,8	-45,853
915,3	-40,013
915,7	-42,613
916,1	-47,453
916,5	-39,733
916,9	-41,973
917,4	-44,853
917,8	-42,733
918,2	-33,133
918,6	-38,533
919,1	-32,053
919,5	-33,133
919,9	-29,493
920,3	-33,733
920,8	-32,253
921,2	-33,573
921,6	-33,773
922	-45,413
922,5	-41,173
922,9	-46,773
923,3	-47,773
923,7	-42,973
924,2	-36,933
924,6	-42,573
925	-34,333
925,4	-33,533
925,8	-35,413
926,3	-35,293
926,7	-37,813
927,1	-34,053
927,5	-36,373
928	-40,373
928,4	-38,973
928,8	-30,293
929,2	-39,013
929,7	-35,893
930,1	-28,213
930,5	-26,533
930,9	-34,133
931,3	-31,893
931,8	-35,293
932,2	-35,453
932,6	-41,293
933	-37,813
933,5	-36,533
933,9	-36,533
934,3	-42,493
934,7	-41,213
935,2	-35,133
935,6	-39,253
936	-42,493
936,4	-47,333
936,8	-46,813
937,3	-58,013
937,7	-56,333
938,1	-51,773
938,5	-45,893
939	-53,613
939,4	-48,493
939,8	-44,293
940,2	-44,573
940,6	-46,253
941,1	-41,373
941,5	-41,733
941,9	-50,253
942,3	-49,413
942,8	-48,173
943,2	-39,653
943,6	-40,253
944	-36,053
944,4	-41,293
944,9	-42,013
945,3	-48,373
945,7	-46,653
946,1	-44,133
946,6	-43,813
947	-38,893
947,4	-39,533
947,8	-40,973
948,2	-42,653
948,7	-39,333
949,1	-35,933
949,5	-32,453
949,9	-33,213
950,3	-30,333
950,8	-30,213
951,2	-38,173
951,6	-41,973
952	-42,173
952,5	-40,733
952,9	-36,613
953,3	-39,373
953,7	-31,773
954,1	-29,653
954,6	-33,773
955	-35,253
955,4	-27,413
955,8	-30,493
956,2	-35,973
956,7	-34,453
957,1	-40,733
957,5	-46,733
957,9	-51,373
958,3	-45,573
958,8	-43,853
959,2	-41,653
959,6	-36,133
960	-36,133
960,5	-36,173
960,9	-41,413
961,3	-38,493
961,7	-38,933
962,1	-37,453
962,6	-37,693
963	-31,373
963,4	-28,173
963,8	-27,653
964,2	-34,133
964,7	-33,053
965,1	-38,813
965,5	-49,693
965,9	-52,613
966,3	-42,693
966,8	-41,893
967,2	-44,013
967,6	-42,333
968	-45,373
968,4	-47,653
968,9	-53,573
969,3	-44,933
969,7	-44,293
970,1	-43,013
970,5	-47,293
971	-41,413
971,4	-43,013
971,8	-40,333
972,2	-37,013
972,6	-37,053
973,1	-43,253
973,5	-46,253
973,9	-46,093
974,3	-49,733
974,7	-44,213
975,2	-43,853
975,6	-44,253
976	-43,133
976,4	-45,813
976,8	-41,533
977,3	-40,773
977,7	-39,973
978,1	-39,053
978,5	-33,293
978,9	-45,213
979,4	-39,533
979,8	-33,333
980,2	-31,973
980,6	-31,413
981	-23,653
981,5	-24,573
981,9	-31,053
982,3	-31,373
982,7	-33,453
983,1	-36,373
983,6	-35,373
984	-32,613
984,4	-31,693
984,8	-28,133
985,2	-26,893
985,6	-33,373
986,1	-44,293
986,5	-48,293
986,9	-51,613
987,3	-54,973
987,7	-52,213
988,2	-50,293
988,6	-48,893
989	-50,453
989,4	-50,973
989,8	-49,893
990,3	-49,773
990,7	-53,333
991,1	-51,973
991,5	-45,533
991,9	-46,293
992,3	-42,533
992,8	-36,853
993,2	-37,173
993,6	-38,333
994	-43,293
994,4	-44,013
994,9	-46,533
995,3	-43,853
995,7	-45,773
996,1	-44,373
996,5	-38,533
996,9	-41,493
997,4	-50,093
997,8	-56,013
998,2	-50,613
998,6	-53,773
999	-50,733
999,5	-47,773
999,9	-40,533
1000,3	-42,573
1000,7	-44,093
1001,1	-44,813
1001,5	-41,693
1002	-48,453
1002,4	-49,853
1002,8	-48,693
1003,2	-46,573
1003,6	-42,813
1004	-35,053
1004,5	-34,293
1004,9	-30,773
1005,3	-35,773
1005,7	-40,053
1006,1	-43,893
1006,6	-41,733
1007	-46,213
1007,4	-42,013
1007,8	-40,133
1008,2	-40,213
1008,6	-41,573
1009,1	-41,653
1009,5	-44,453
1009,9	-49,413
1010,3	-49,973
1010,7	-52,613
1011,1	-45,853
1011,6	-37,653
1012	-34,813
1012,4	-31,973
1012,8	-30,933
1013,2	-37,933
1013,6	-47,453
1014,1	-45,053
1014,5	-45,973
1014,9	-43,293
1015,3	-44,373
1015,7	-39,053
1016,1	-45,933
1016,6	-48,733
1017	-51,333
1017,4	-45,493
1017,8	-48,093
1018,2	-38,813
1018,6	-39,413
1019,1	-40,213
1019,5	-38,813
1019,9	-33,773
1020,3	-39,813
1020,7	-41,533
1021,1	-40,573
1021,6	-42,733
1022	-44,493
1022,4	-39,973
1022,8	-32,533
1023,2	-32,213
1023,6	-33,093
1024,1	-34,573
1024,5	-35,933
1024,9	-40,693
1025,3	-43,013
1025,7	-42,293
1026,1	-41,093
1026,6	-43,373
1027	-43,453
1027,4	-44,133
1027,8	-44,853
1028,2	-49,133
1028,6	-47,253
1029	-43,773
1029,5	-41,733
1029,9	-45,733
1030,3	-42,333
1030,7	-41,253
1031,1	-46,413
1031,5	-48,093
1032	-50,453
1032,4	-52,973
1032,8	-58,973
1033,2	-55,693
1033,6	-57,213
1034	-51,493
1034,4	-55,213
1034,9	-53,733
1035,3	-53,933
1035,7	-53,413
1036,1	-58,653
1036,5	-51,453
1036,9	-48,293
1037,4	-54,333
1037,8	-48,213
1038,2	-45,053
1038,6	-53,453
1039	-56,653
1039,4	-45,013
1039,8	-52,253
1040,3	-54,053
1040,7	-47,293
1041,1	-48,293
1041,5	-54,333
1041,9	-52,373
1042,3	-52,133
1042,7	-57,613
1043,2	-54,773
1043,6	-51,973
1044	-49,373
1044,4	-47,053
1044,8	-35,853
1045,2	-37,893
1045,6	-40,013
1046,1	-39,973
1046,5	-42,853
1046,9	-54,653
1047,3	-51,613
1047,7	-49,453
1048,1	-53,413
1048,5	-56,133
1049	-51,133
1049,4	-53,773
1049,8	-55,813
1050,2	-51,333
1050,6	-41,413
1051	-42,133
1051,4	-43,013
1051,9	-41,893
1052,3	-43,093
1052,7	-53,293
1053,1	-60,173
1053,5	-65,533
1053,9	-68,613
1054,3	-71,293
1054,8	-67,373
1055,2	-56,893
1055,6	-50,253
1056	-46,213
1056,4	-46,293
1056,8	-42,853
1057,2	-44,373
1057,6	-37,853
1058,1	-42,253
1058,5	-43,813
1058,9	-45,333
1059,3	-43,373
1059,7	-48,253
1060,1	-45,973
1060,5	-46,373
1061	-49,893
1061,4	-58,213
1061,8	-54,493
1062,2	-55,933
1062,6	-55,013
1063	-50,013
1063,4	-47,013
1063,8	-50,173
1064,3	-47,653
1064,7	-44,693
1065,1	-47,893
1065,5	-41,413
1065,9	-42,253
1066,3	-48,453
1066,7	-45,373
1067,1	-45,213
1067,6	-51,453
1068	-47,213
1068,4	-38,893
1068,8	-44,053
1069,2	-39,053
1069,6	-40,533
1070	-36,053
1070,4	-43,973
1070,9	-45,573
1071,3	-53,613
1071,7	-48,173
1072,1	-63,613
1072,5	-55,893
1072,9	-54,853
1073,3	-52,253
1073,7	-56,693
1074,2	-49,693
1074,6	-51,573
1075	-49,413
1075,4	-44,973
1075,8	-49,413
1076,2	-52,933
1076,6	-49,853
1077	-48,613
1077,5	-52,333
1077,9	-38,653
1078,3	-36,053
1078,7	-40,533
1079,1	-41,533
1079,5	-41,853
1079,9	-47,413
1080,3	-47,933
1080,7	-46,293
1081,2	-49,933
1081,6	-45,453
1082	-46,093
1082,4	-39,893
1082,8	-40,013
1083,2	-36,013
1083,6	-36,773
1084	-36,013
1084,5	-41,813
1084,9	-42,573
1085,3	-41,253
1085,7	-42,653
1086,1	-43,813
1086,5	-48,373
1086,9	-51,213
1087,3	-50,493
1087,7	-48,973
1088,2	-43,493
1088,6	-36,533
1089	-34,373
1089,4	-34,533
1089,8	-41,213
1090,2	-50,213
1090,6	-42,093
1091	-40,133
1091,4	-38,893
1091,9	-31,853
1092,3	-28,213
1092,7	-35,133
1093,1	-36,573
1093,5	-39,373
1093,9	-38,733
1094,3	-39,853
1094,7	-38,613
1095,1	-35,613
1095,5	-35,133
1096	-35,333
1096,4	-40,173
1096,8	-41,613
1097,2	-45,373
1097,6	-39,653
1098	-41,093
1098,4	-33,973
1098,8	-30,573
1099,2	-25,173
1099,6	-27,413
1100,1	-23,773
1100,5	-23,973
1100,9	-28,253
1101,3	-30,733
1101,7	-34,653
1102,1	-37,853
1102,5	-37,533
1102,9	-35,173
1103,3	-38,133
1103,7	-34,453
1104,2	-33,493
1104,6	-34,413
1105	-33,053
1105,4	-29,493
1105,8	-27,773
1106,2	-21,853
1106,6	-13,813
1107	-9,533
1107,4	-3,173
1107,8	0,917
1108,3	1,067
