Data from Subt2_00012.txt Node
Date: Fri Aug 11 15:24:15 MSK 2023
User: vat
Spectrometer: MAYP114033
Trigger mode: 0
Integration Time (sec): 5,000000E-1
Scans to average: 5
Electric dark correction enabled: true
Nonlinearity correction enabled: false
Boxcar width: 2
XAxis mode: Wavelengths
Number of Pixels in Spectrum: 2068
>>>>>Begin Spectral Data<<<<<
199,4	0,767
199,9	1,017
200,4	-1,033
200,8	-3,873
201,3	-4,393
201,8	-4,953
202,2	-1,993
202,7	-4,193
203,2	-5,393
203,6	-6,513
204,1	-6,753
204,6	-16,193
205	-17,553
205,5	-16,593
206	-11,793
206,4	-13,953
206,9	-12,993
207,4	-12,153
207,8	-9,553
208,3	-13,353
208,8	-14,953
209,2	-10,993
209,7	-8,633
210,2	-13,673
210,6	-17,433
211,1	-12,073
211,5	-12,073
212	-14,313
212,5	-12,353
212,9	-11,193
213,4	-12,953
213,9	-15,993
214,3	-15,433
214,8	-13,673
215,3	-13,273
215,7	-12,153
216,2	-11,673
216,7	-15,633
217,1	-17,673
217,6	-21,353
218,1	-25,193
218,5	-22,673
219	-15,753
219,5	-17,913
219,9	-13,393
220,4	-5,473
220,9	-2,073
221,3	-5,753
221,8	-6,153
222,3	-6,433
222,7	-14,593
223,2	-17,233
223,6	-25,193
224,1	-21,793
224,6	-24,833
225	-27,713
225,5	-30,873
226	-27,993
226,4	-26,193
226,9	-23,313
227,4	-16,713
227,8	-15,073
228,3	-5,153
228,8	-5,353
229,2	-6,833
229,7	-10,913
230,2	-13,313
230,6	-17,793
231,1	-27,633
231,5	-27,753
232	-27,193
232,5	-24,553
232,9	-24,313
233,4	-22,673
233,9	-23,193
234,3	-29,833
234,8	-31,833
235,3	-25,513
235,7	-22,313
236,2	-19,433
236,7	-13,193
237,1	-15,233
237,6	-17,753
238,1	-16,633
238,5	-20,513
239	-24,913
239,4	-17,913
239,9	-22,873
240,4	-20,753
240,8	-19,953
241,3	-16,793
241,8	-20,433
242,2	-20,193
242,7	-20,353
243,2	-12,673
243,6	-7,913
244,1	-11,753
244,6	-9,193
245	-6,153
245,5	-11,273
245,9	-12,713
246,4	-12,113
246,9	-15,993
247,3	-24,153
247,8	-24,793
248,3	-24,033
248,7	-18,793
249,2	-13,353
249,7	-9,793
250,1	-10,713
250,6	-12,833
251	-15,153
251,5	-15,393
252	-16,353
252,4	-15,313
252,9	-14,633
253,4	-16,393
253,8	-21,633
254,3	-23,673
254,8	-26,713
255,2	-24,553
255,7	-21,713
256,1	-15,553
256,6	-6,593
257,1	-6,913
257,5	-10,913
258	-12,233
258,5	-11,233
258,9	-14,753
259,4	-11,713
259,9	-9,833
260,3	-11,633
260,8	-14,073
261,2	-18,153
261,7	-21,273
262,2	-21,553
262,6	-23,193
263,1	-26,073
263,6	-22,113
264	-18,433
264,5	-15,193
264,9	-12,073
265,4	-12,793
265,9	-12,713
266,3	-13,913
266,8	-15,673
267,3	-15,753
267,7	-11,073
268,2	-14,553
268,7	-13,673
269,1	-13,273
269,6	-10,953
270	-6,873
270,5	-3,993
271	-10,753
271,4	-10,113
271,9	-13,953
272,4	-18,873
272,8	-21,753
273,3	-17,953
273,7	-23,393
274,2	-23,153
274,7	-28,633
275,1	-22,833
275,6	-20,193
276,1	-17,553
276,5	-19,913
277	-14,673
277,4	-22,513
277,9	-24,193
278,4	-22,313
278,8	-17,633
279,3	-19,833
279,8	-13,593
280,2	-12,713
280,7	-13,833
281,1	-14,993
281,6	-14,033
282,1	-20,473
282,5	-25,073
283	-25,073
283,4	-24,393
283,9	-20,953
284,4	-16,793
284,8	-7,633
285,3	-8,833
285,8	-7,833
286,2	-15,153
286,7	-14,673
287,1	-20,033
287,6	-19,593
288,1	-23,273
288,5	-21,833
289	-23,033
289,5	-23,633
289,9	-24,033
290,4	-20,673
290,8	-18,673
291,3	-17,593
291,8	-14,113
292,2	-11,073
292,7	-12,433
293,1	-8,513
293,6	-11,353
294,1	-12,113
294,5	-23,273
295	-20,753
295,5	-23,233
295,9	-16,953
296,4	-23,593
296,8	-18,193
297,3	-21,233
297,8	-24,153
298,2	-23,873
298,7	-24,193
299,1	-20,313
299,6	-16,713
300,1	-13,113
300,5	-12,553
301	-1,033
301,5	-1,553
301,9	-6,753
302,4	-3,953
302,8	-9,153
303,3	-15,713
303,8	-14,593
304,2	-10,393
304,7	-17,353
305,1	-18,873
305,6	-17,313
306,1	-21,033
306,5	-21,153
307	-17,713
307,4	-14,153
307,9	-12,433
308,4	-12,673
308,8	-13,113
309,3	-14,273
309,8	-12,233
310,2	-13,873
310,7	-12,553
311,1	-9,513
311,6	-10,513
312,1	-14,153
312,5	-12,913
313	-8,713
313,4	-15,633
313,9	-10,793
314,4	-10,033
314,8	-13,753
315,3	-18,153
315,7	-11,553
316,2	-12,993
316,7	-16,473
317,1	-21,273
317,6	-17,833
318	-21,633
318,5	-27,953
319	-23,193
319,4	-22,713
319,9	-22,753
320,3	-20,313
320,8	-21,433
321,3	-26,753
321,7	-16,753
322,2	-16,393
322,6	-13,033
323,1	-6,953
323,6	-1,593
324	-4,393
324,5	-5,713
324,9	-9,473
325,4	-6,793
325,9	-9,433
326,3	-5,913
326,8	-5,513
327,2	-3,713
327,7	-8,553
328,2	-5,673
328,6	-13,233
329,1	-15,953
329,5	-17,473
330	-15,713
330,5	-12,713
330,9	-12,553
331,4	-10,513
331,8	-12,113
332,3	-12,913
332,8	-17,233
333,2	-16,753
333,7	-17,873
334,1	-20,673
334,6	-17,473
335,1	-18,073
335,5	-14,953
336	-17,073
336,4	-7,833
336,9	-14,273
337,4	-13,313
337,8	-12,473
338,3	-8,473
338,7	-12,633
339,2	-7,473
339,7	-6,993
340,1	-6,513
340,6	-4,513
341	-0,913
341,5	-2,913
342	-3,673
342,4	0,607
342,9	0,407
343,3	-5,753
343,8	-8,153
344,2	-8,673
344,7	-13,233
345,2	-16,673
345,6	-12,793
346,1	-10,233
346,5	-9,193
347	-6,233
347,5	-8,233
347,9	-4,113
348,4	0,287
348,8	2,727
349,3	6,167
349,8	19,967
350,2	19,847
350,7	25,007
351,1	33,807
351,6	40,367
352	48,007
352,5	66,047
353	89,767
353,4	110,687
353,9	135,607
354,3	169,127
354,8	204,847
355,3	251,207
355,7	309,687
356,2	374,687
356,6	438,407
357,1	519,127
357,5	612,607
358	708,887
358,5	834,447
358,9	984,887
359,4	1147,447
359,8	1312,327
360,3	1519,047
360,8	1734,927
361,2	1970,207
361,7	2235,407
362,1	2543,287
362,6	2870,047
363	3222,767
363,5	3586,247
364	3966,687
364,4	4347,967
364,9	4731,807
365,3	5112,567
365,8	5479,967
366,3	5819,567
366,7	6132,007
367,2	6392,767
367,6	6590,527
368,1	6745,487
368,5	6848,127
369	6877,127
369,5	6849,767
369,9	6795,367
370,4	6678,047
370,8	6510,727
371,3	6295,887
371,7	6057,127
372,2	5774,647
372,7	5469,327
373,1	5149,887
373,6	4834,847
374	4514,927
374,5	4200,327
374,9	3901,207
375,4	3605,967
375,9	3325,527
376,3	3059,047
376,8	2803,287
377,2	2564,247
377,7	2340,967
378,2	2141,767
378,6	1949,847
379,1	1779,247
379,5	1621,687
380	1481,527
380,4	1345,927
380,9	1228,327
381,4	1118,927
381,8	1017,927
382,3	930,887
382,7	851,647
383,2	788,847
383,6	725,367
384,1	671,087
384,6	622,927
385	582,447
385,5	533,847
385,9	496,047
386,4	463,087
386,8	424,607
387,3	388,527
387,7	354,527
388,2	327,407
388,7	301,367
389,1	271,887
389,6	248,087
390	229,127
390,5	208,327
390,9	188,887
391,4	175,727
391,9	157,407
392,3	148,207
392,8	134,887
393,2	126,327
393,7	118,847
394,1	117,127
394,6	105,207
395,1	99,847
395,5	87,247
396	76,087
396,4	69,167
396,9	61,047
397,3	54,087
397,8	50,607
398,2	47,207
398,7	41,367
399,2	38,047
399,6	31,247
400,1	29,807
400,5	33,327
401	29,647
401,4	29,767
401,9	30,407
402,4	19,887
402,8	8,527
403,3	4,727
403,7	1,767
404,2	-1,153
404,6	1,767
405,1	5,567
405,5	6,167
406	6,567
406,5	4,447
406,9	3,887
407,4	0,687
407,8	-0,993
408,3	-2,153
408,7	-2,753
409,2	5,367
409,6	5,887
410,1	6,407
410,6	2,647
411	7,047
411,5	4,807
411,9	9,087
412,4	11,927
412,8	14,807
413,3	10,167
413,7	10,207
414,2	10,847
414,7	7,447
415,1	12,687
415,6	18,887
416	17,247
416,5	15,287
416,9	19,327
417,4	22,647
417,8	21,047
418,3	21,007
418,8	22,447
419,2	20,807
419,7	21,127
420,1	18,967
420,6	13,127
421	8,287
421,5	9,807
421,9	6,807
422,4	10,767
422,8	15,127
423,3	21,367
423,8	22,327
424,2	19,847
424,7	19,127
425,1	22,287
425,6	18,567
426	13,687
426,5	12,967
426,9	8,007
427,4	9,687
427,9	10,887
428,3	13,127
428,8	12,047
429,2	12,327
429,7	12,487
430,1	12,847
430,6	6,287
431	12,167
431,5	15,687
431,9	4,567
432,4	1,247
432,8	10,487
433,3	6,807
433,8	4,447
434,2	10,207
434,7	9,207
435,1	5,127
435,6	-0,193
436	-0,993
436,5	-1,673
436,9	-0,153
437,4	2,327
437,8	3,407
438,3	-2,753
438,8	-4,233
439,2	-4,833
439,7	-10,593
440,1	-8,873
440,6	-5,113
441	-8,633
441,5	-10,313
441,9	-6,273
442,4	-12,473
442,8	-14,313
443,3	-11,793
443,7	-16,513
444,2	-20,513
444,7	-15,833
445,1	-8,353
445,6	-6,033
446	5,727
446,5	14,447
446,9	15,167
447,4	11,607
447,8	11,927
448,3	3,927
448,7	1,167
449,2	4,687
449,6	6,567
450,1	6,527
450,6	8,527
451	7,087
451,5	0,727
451,9	-3,753
452,4	-4,673
452,8	-3,873
453,3	-5,593
453,7	-4,633
454,2	-1,113
454,6	-3,393
455,1	-6,473
455,5	-8,193
456	-7,433
456,4	-7,353
456,9	-6,753
457,3	-0,873
457,8	4,167
458,3	6,047
458,7	4,487
459,2	11,087
459,6	4,207
460,1	6,247
460,5	6,487
461	13,247
461,4	14,327
461,9	18,047
462,3	12,207
462,8	16,807
463,2	13,527
463,7	4,807
464,1	9,407
464,6	12,527
465	15,047
465,5	14,727
466	22,927
466,4	24,767
466,9	23,087
467,3	22,247
467,8	22,247
468,2	22,727
468,7	23,127
469,1	22,927
469,6	20,767
470	22,367
470,5	19,767
470,9	16,967
471,4	22,287
471,8	17,047
472,3	15,447
472,7	10,687
473,2	12,367
473,6	10,447
474,1	13,367
474,5	7,607
475	22,087
475,4	19,607
475,9	18,007
476,4	20,567
476,8	28,687
477,3	25,927
477,7	26,567
478,2	24,927
478,6	27,087
479,1	29,047
479,5	21,367
480	21,247
480,4	24,447
480,9	20,007
481,3	25,447
481,8	29,967
482,2	29,367
482,7	29,527
483,1	29,287
483,6	26,327
484	28,127
484,5	27,767
484,9	24,287
485,4	24,487
485,8	18,167
486,3	14,447
486,7	18,087
487,2	22,447
487,6	27,127
488,1	25,887
488,5	30,247
489	33,087
489,4	33,167
489,9	29,567
490,4	34,327
490,8	29,967
491,3	27,447
491,7	31,247
492,2	31,887
492,6	31,327
493,1	37,247
493,5	35,527
494	37,887
494,4	41,567
494,9	40,087
495,3	33,487
495,8	39,047
496,2	38,967
496,7	38,647
497,1	43,207
497,6	46,367
498	39,207
498,5	36,407
498,9	38,327
499,4	36,007
499,8	37,887
500,3	44,967
500,7	49,447
501,2	50,887
501,6	49,407
502,1	52,567
502,5	50,447
503	48,887
503,4	41,687
503,9	44,927
504,3	39,127
504,8	35,407
505,2	33,007
505,7	37,087
506,1	41,167
506,6	46,407
507	47,447
507,5	48,807
507,9	49,207
508,4	42,967
508,8	44,047
509,3	46,567
509,7	44,807
510,2	46,207
510,6	52,407
511,1	50,047
511,5	50,447
512	56,087
512,4	56,287
512,9	53,407
513,3	56,247
513,8	57,047
514,2	54,087
514,7	49,727
515,1	49,727
515,6	45,447
516	54,167
516,5	51,927
516,9	51,047
517,4	48,407
517,8	47,727
518,3	38,687
518,7	45,407
519,2	50,247
519,6	55,967
520,1	57,767
520,5	63,527
521	60,247
521,4	53,567
521,9	53,167
522,3	52,327
522,8	51,127
523,2	51,927
523,7	57,407
524,1	61,007
524,6	62,207
525	65,567
525,5	69,847
525,9	75,647
526,4	73,327
526,8	76,647
527,3	69,207
527,7	63,207
528,2	58,367
528,6	56,927
529,1	54,447
529,5	57,847
530	61,567
530,4	68,807
530,9	69,567
531,3	69,367
531,8	76,887
532,2	73,607
532,6	69,407
533,1	66,127
533,5	65,967
534	67,127
534,4	73,087
534,9	68,807
535,3	76,007
535,8	76,367
536,2	65,527
536,7	59,287
537,1	60,687
537,6	58,087
538	60,127
538,5	58,047
538,9	61,167
539,4	67,807
539,8	71,367
540,3	65,367
540,7	67,047
541,2	62,967
541,6	59,007
542,1	58,047
542,5	68,527
543	70,487
543,4	71,287
543,9	75,767
544,3	72,687
544,8	69,287
545,2	75,287
545,7	77,087
546,1	74,567
546,5	77,647
547	75,407
547,4	70,927
547,9	68,847
548,3	69,367
548,8	67,407
549,2	72,647
549,7	77,407
550,1	83,047
550,6	86,167
551	86,127
551,5	87,647
551,9	84,967
552,4	83,287
552,8	81,807
553,3	82,167
553,7	79,207
554,2	74,767
554,6	79,207
555,1	78,327
555,5	79,407
555,9	76,567
556,4	85,247
556,8	79,367
557,3	78,087
557,7	74,607
558,2	83,527
558,6	81,527
559,1	81,327
559,5	83,687
560	86,247
560,4	78,807
560,9	77,807
561,3	78,407
561,8	75,127
562,2	75,927
562,7	82,847
563,1	84,567
563,6	88,367
564	96,927
564,4	99,927
564,9	96,287
565,3	95,047
565,8	94,167
566,2	87,167
566,7	84,047
567,1	82,447
567,6	81,647
568	87,527
568,5	85,007
568,9	78,807
569,4	79,527
569,8	79,727
570,3	78,807
570,7	84,647
571,1	90,047
571,6	93,527
572	94,287
572,5	86,607
572,9	89,487
573,4	88,687
573,8	83,447
574,3	87,007
574,7	90,167
575,2	83,367
575,6	85,727
576,1	86,647
576,5	77,167
576,9	78,527
577,4	80,167
577,8	78,087
578,3	79,607
578,7	84,407
579,2	83,847
579,6	82,287
580,1	78,287
580,5	78,087
581	78,047
581,4	72,607
581,9	78,887
582,3	84,127
582,7	84,567
583,2	86,727
583,6	92,367
584,1	80,207
584,5	72,727
585	72,167
585,4	68,727
585,9	70,967
586,3	78,887
586,8	80,967
587,2	74,127
587,6	79,807
588,1	76,847
588,5	74,127
589	80,247
589,4	86,527
589,9	87,767
590,3	90,047
590,8	92,327
591,2	88,767
591,7	89,967
592,1	87,727
592,5	86,327
593	74,127
593,4	72,007
593,9	68,767
594,3	63,247
594,8	55,167
595,2	72,047
595,7	81,967
596,1	82,007
596,6	87,967
597	93,127
597,4	88,807
597,9	80,887
598,3	85,047
598,8	81,767
599,2	78,047
599,7	74,127
600,1	74,047
600,6	66,767
601	60,807
601,4	63,727
601,9	69,847
602,3	72,367
602,8	70,287
603,2	67,087
603,7	69,647
604,1	65,607
604,6	62,207
605	70,607
605,4	74,327
605,9	72,127
606,3	70,887
606,8	73,927
607,2	73,967
607,7	74,887
608,1	74,607
608,6	80,127
609	76,447
609,4	71,087
609,9	72,007
610,3	68,927
610,8	62,607
611,2	62,367
611,7	61,567
612,1	61,327
612,6	62,487
613	59,567
613,4	63,687
613,9	65,207
614,3	66,687
614,8	64,967
615,2	69,007
615,7	71,087
616,1	66,847
616,6	68,327
617	69,087
617,4	64,167
617,9	57,327
618,3	58,647
618,8	50,727
619,2	51,207
619,7	53,287
620,1	53,927
620,5	59,007
621	58,327
621,4	58,287
621,9	55,207
622,3	54,687
622,8	51,607
623,2	47,887
623,6	47,447
624,1	56,727
624,5	55,287
625	55,527
625,4	60,007
625,9	59,727
626,3	54,247
626,8	59,167
627,2	57,407
627,6	60,527
628,1	60,487
628,5	57,567
629	51,927
629,4	51,727
629,9	48,367
630,3	45,807
630,7	44,767
631,2	44,087
631,6	39,527
632,1	42,927
632,5	40,047
633	44,527
633,4	44,847
633,8	40,607
634,3	36,367
634,7	39,287
635,2	37,047
635,6	32,727
636,1	41,807
636,5	44,367
636,9	40,647
637,4	39,847
637,8	45,447
638,3	39,967
638,7	36,967
639,2	43,327
639,6	44,487
640	48,327
640,5	51,487
640,9	49,727
641,4	41,727
641,8	33,047
642,2	27,167
642,7	27,327
643,1	28,727
643,6	30,567
644	34,967
644,5	27,047
644,9	27,047
645,3	29,407
645,8	31,287
646,2	28,847
646,7	35,887
647,1	31,127
647,6	27,647
648	28,327
648,4	34,607
648,9	38,407
649,3	35,567
649,8	37,007
650,2	41,367
650,6	41,127
651,1	37,687
651,5	42,607
652	41,127
652,4	33,087
652,9	19,207
653,3	18,127
653,7	19,527
654,2	19,647
654,6	19,167
655,1	23,247
655,5	21,927
655,9	20,727
656,4	20,527
656,8	19,047
657,3	24,087
657,7	21,607
658,2	19,247
658,6	22,247
659	23,767
659,5	22,367
659,9	23,527
660,4	25,127
660,8	21,967
661,2	26,647
661,7	30,567
662,1	32,527
662,6	24,087
663	22,007
663,4	19,047
663,9	15,287
664,3	13,247
664,8	22,687
665,2	20,127
665,6	17,447
666,1	15,647
666,5	12,607
667	9,447
667,4	8,967
667,9	11,727
668,3	12,487
668,7	13,207
669,2	16,567
669,6	20,327
670,1	16,647
670,5	13,367
670,9	11,767
671,4	7,967
671,8	5,367
672,3	8,087
672,7	10,167
673,1	11,807
673,6	11,407
674	12,247
674,5	9,567
674,9	10,967
675,3	10,647
675,8	13,927
676,2	17,487
676,7	21,927
677,1	20,327
677,5	18,927
678	17,647
678,4	20,527
678,9	14,647
679,3	15,407
679,7	19,727
680,2	18,847
680,6	12,727
681,1	14,127
681,5	15,647
681,9	7,367
682,4	8,287
682,8	1,447
683,3	0,887
683,7	2,407
684,1	13,367
684,6	8,847
685	13,127
685,5	10,887
685,9	6,567
686,3	7,607
686,8	10,207
687,2	13,847
687,7	11,327
688,1	17,687
688,5	16,447
689	16,727
689,4	18,767
689,9	23,607
690,3	24,407
690,7	16,847
691,2	16,687
691,6	6,607
692	7,327
692,5	2,927
692,9	5,367
693,4	2,927
693,8	11,567
694,2	11,567
694,7	13,487
695,1	13,807
695,6	15,047
696	10,287
696,4	11,887
696,9	7,047
697,3	6,967
697,8	6,007
698,2	8,247
698,6	4,967
699,1	2,847
699,5	-0,313
699,9	0,687
700,4	-1,033
700,8	-5,073
701,3	-7,473
701,7	1,887
702,1	2,007
702,6	3,727
703	9,607
703,5	11,327
703,9	2,327
704,3	4,927
704,8	4,967
705,2	3,487
705,6	4,727
706,1	4,687
706,5	-0,033
707	0,207
707,4	3,927
707,8	6,687
708,3	7,567
708,7	6,287
709,2	1,367
709,6	-4,233
710	-7,113
710,5	-9,233
710,9	-10,353
711,3	-2,513
711,8	3,727
712,2	7,967
712,7	11,007
713,1	12,447
713,5	8,087
714	3,167
714,4	-1,473
714,8	-2,553
715,3	-0,433
715,7	2,847
716,2	-1,433
716,6	-4,193
717	-2,233
717,5	-2,113
717,9	-5,113
718,3	-8,553
718,8	-2,073
719,2	-6,593
719,7	-7,233
720,1	-8,793
720,5	-0,553
721	-3,833
721,4	0,887
721,8	2,327
722,3	3,287
722,7	-1,473
723,2	1,007
723,6	-5,433
724	-9,513
724,5	-3,393
724,9	-0,273
725,3	-2,753
725,8	0,247
726,2	-1,673
726,7	-10,873
727,1	-21,073
727,5	-19,593
728	-18,233
728,4	-19,073
728,8	-14,553
729,3	-1,953
729,7	1,927
730,1	6,487
730,6	6,807
731	5,407
731,5	3,127
731,9	-1,553
732,3	-7,793
732,8	-5,633
733,2	-6,753
733,6	-8,313
734,1	-12,793
734,5	-14,953
734,9	-6,273
735,4	-3,873
735,8	-0,753
736,3	3,327
736,7	9,287
737,1	4,367
737,6	2,167
738	-2,913
738,4	-5,513
738,9	-10,433
739,3	-16,953
739,7	-22,233
740,2	-22,753
740,6	-22,673
741,1	-20,193
741,5	-18,353
741,9	-12,033
742,4	-5,873
742,8	-2,393
743,2	-4,473
743,7	-3,513
744,1	-7,673
744,5	-12,073
745	-14,273
745,4	-8,273
745,8	-7,993
746,3	-1,953
746,7	-3,153
747,2	-6,753
747,6	-15,233
748	-15,793
748,5	-23,353
748,9	-19,233
749,3	-12,073
749,8	-6,353
750,2	-7,633
750,6	-2,033
751,1	-2,553
751,5	-4,673
751,9	-7,793
752,4	-3,753
752,8	-4,433
753,3	-4,713
753,7	-4,953
754,1	-8,273
754,6	-10,553
755	-8,273
755,4	-3,753
755,9	-3,713
756,3	2,487
756,7	5,327
757,2	-1,273
757,6	-8,673
758	-11,913
758,5	-10,193
758,9	-10,233
759,3	-6,793
759,8	-9,473
760,2	-8,273
760,6	-9,753
761,1	-12,233
761,5	-10,953
761,9	-4,593
762,4	-2,633
762,8	-10,273
763,3	-12,353
763,7	-17,833
764,1	-18,913
764,6	-18,353
765	-8,033
765,4	-6,673
765,9	-0,313
766,3	-2,513
766,7	-1,833
767,2	-4,993
767,6	-5,073
768	-13,393
768,5	-10,553
768,9	-11,713
769,3	-11,793
769,8	-7,393
770,2	0,407
770,6	1,167
771,1	-1,393
771,5	-7,313
771,9	-11,713
772,4	-15,153
772,8	-20,113
773,2	-20,673
773,7	-14,953
774,1	-14,953
774,5	-19,113
775	-18,073
775,4	-19,473
775,8	-18,313
776,3	-16,073
776,7	-9,073
777,1	-6,153
777,6	-1,393
778	-1,553
778,4	-2,713
778,9	-1,713
779,3	-7,393
779,7	-9,793
780,2	-12,153
780,6	-14,993
781	-15,793
781,5	-7,233
781,9	-7,353
782,3	-10,993
782,8	-9,433
783,2	-10,633
783,6	-14,553
784,1	-13,873
784,5	-9,593
784,9	-13,353
785,4	-13,793
785,8	-18,433
786,2	-18,353
786,7	-21,553
787,1	-18,113
787,5	-24,353
788	-21,433
788,4	-25,113
788,8	-24,113
789,3	-25,793
789,7	-19,753
790,1	-15,553
790,6	-8,193
791	-7,873
791,4	-2,113
791,9	2,327
792,3	-10,633
792,7	-11,073
793,2	-5,673
793,6	-7,833
794	-11,073
794,5	0,007
794,9	-7,033
795,3	-16,673
795,8	-17,513
796,2	-18,473
796,6	-17,793
797,1	-13,153
797,5	-12,193
797,9	-14,913
798,4	-17,993
798,8	-18,753
799,2	-18,633
799,7	-18,393
800,1	-15,993
800,5	-12,273
801	-13,473
801,4	-16,673
801,8	-8,993
802,2	-11,233
802,7	-9,713
803,1	-11,113
803,5	-15,433
804	-21,313
804,4	-26,193
804,8	-26,553
805,3	-19,793
805,7	-17,033
806,1	-16,113
806,6	-8,593
807	-8,793
807,4	-18,913
807,9	-13,953
808,3	-10,033
808,7	-12,873
809,2	-16,393
809,6	-18,433
810	-19,073
810,4	-18,873
810,9	-18,953
811,3	-14,633
811,7	-9,153
812,2	-12,433
812,6	-13,193
813	-13,313
813,5	-10,913
813,9	-6,553
814,3	-5,153
814,8	-7,553
815,2	-5,153
815,6	-8,153
816,1	-7,633
816,5	-9,873
816,9	-8,033
817,3	-11,273
817,8	-17,313
818,2	-18,033
818,6	-15,873
819,1	-20,193
819,5	-14,073
819,9	-11,233
820,4	-14,113
820,8	-14,553
821,2	-10,313
821,7	-10,793
822,1	-7,033
822,5	-11,153
822,9	-7,593
823,4	-11,153
823,8	-16,233
824,2	-19,193
824,7	-17,513
825,1	-17,313
825,5	-14,753
826	-11,873
826,4	-10,353
826,8	-11,713
827,3	-15,193
827,7	-15,953
828,1	-20,233
828,5	-21,273
829	-19,353
829,4	-18,353
829,8	-20,033
830,3	-15,113
830,7	-14,873
831,1	-16,833
831,6	-17,873
832	-15,113
832,4	-13,833
832,8	-17,553
833,3	-12,353
833,7	-11,473
834,1	-16,953
834,6	-23,953
835	-21,153
835,4	-23,673
835,8	-23,153
836,3	-20,593
836,7	-16,713
837,1	-19,153
837,6	-15,313
838	-12,553
838,4	-16,153
838,9	-18,273
839,3	-16,713
839,7	-23,153
840,1	-32,353
840,6	-28,153
841	-25,473
841,4	-25,233
841,9	-17,953
842,3	-11,113
842,7	-13,313
843,1	-14,033
843,6	-15,433
844	-18,753
844,4	-15,713
844,9	-14,953
845,3	-5,873
845,7	-7,473
846,2	-5,393
846,6	-2,633
847	-6,473
847,4	-12,073
847,9	-4,313
848,3	-9,433
848,7	-16,273
849,2	-9,593
849,6	-9,273
850	-14,553
850,4	-12,873
850,9	-9,433
851,3	-5,393
851,7	-9,673
852,2	-9,473
852,6	-13,713
853	-18,993
853,4	-29,833
853,9	-27,753
854,3	-25,673
854,7	-20,233
855,2	-18,833
855,6	-12,113
856	-11,873
856,4	-11,193
856,9	-10,273
857,3	-5,633
857,7	-8,353
858,2	-8,353
858,6	-19,153
859	-20,713
859,4	-26,673
859,9	-25,513
860,3	-29,793
860,7	-18,233
861,1	-20,753
861,6	-17,033
862	-18,993
862,4	-11,913
862,9	-14,593
863,3	-8,273
863,7	-9,153
864,1	-8,113
864,6	-9,593
865	-6,793
865,4	-10,313
865,9	-9,193
866,3	-8,473
866,7	-11,873
867,1	-20,073
867,6	-21,433
868	-25,033
868,4	-24,793
868,8	-25,473
869,3	-27,833
869,7	-24,633
870,1	-27,153
870,6	-23,513
871	-18,753
871,4	-46,873
871,8	-46,913
872,3	-38,873
872,7	-42,713
873,1	-50,673
873,5	-14,753
874	-18,073
874,4	-21,833
874,8	-23,113
875,3	-16,833
875,7	-17,433
876,1	-14,153
876,5	-13,033
877	-14,673
877,4	-14,153
877,8	-13,313
878,2	-11,593
878,7	-13,793
879,1	-11,353
879,5	-14,433
879,9	-15,193
880,4	-21,553
880,8	-21,553
881,2	-19,393
881,7	-19,073
882,1	-16,993
882,5	-14,553
882,9	-6,153
883,4	-3,913
883,8	-7,593
884,2	-12,233
884,6	-14,913
885,1	-26,713
885,5	-34,153
885,9	-21,713
886,3	-23,873
886,8	-23,673
887,2	-22,953
887,6	-22,553
888	-30,753
888,5	-18,313
888,9	-14,873
889,3	-16,993
889,8	-13,233
890,2	-15,633
890,6	-22,993
891	-22,713
891,5	-14,113
891,9	-9,273
892,3	-4,753
892,7	0,007
893,2	-4,193
893,6	-7,913
894	-16,193
894,4	-20,953
894,9	-18,593
895,3	-19,753
895,7	-21,873
896,1	-12,233
896,6	-10,513
897	-15,473
897,4	-13,153
897,8	-12,433
898,3	-21,953
898,7	-21,553
899,1	-21,673
899,5	-16,753
900	-19,353
900,4	-14,313
900,8	-10,513
901,2	-13,273
901,7	-13,753
902,1	-12,633
902,5	-14,353
902,9	-11,753
903,4	-14,753
903,8	-18,793
904,2	-16,473
904,6	-13,713
905,1	-8,553
905,5	-5,273
905,9	-4,913
906,3	-1,033
906,8	-4,473
907,2	-9,313
907,6	-4,873
908	-2,113
908,5	0,527
908,9	2,207
909,3	0,407
909,7	-3,593
910,2	-6,113
910,6	-8,353
911	-4,953
911,4	-8,073
911,9	-10,153
912,3	-8,553
912,7	-11,553
913,1	-19,313
913,6	-25,113
914	-21,473
914,4	-21,873
914,8	-19,033
915,3	-11,633
915,7	-3,953
916,1	-3,153
916,5	-4,233
916,9	-5,873
917,4	-9,953
917,8	-11,673
918,2	-10,633
918,6	-9,233
919,1	-7,233
919,5	-5,353
919,9	-7,433
920,3	-9,233
920,8	-16,233
921,2	-13,913
921,6	-16,513
922	-16,433
922,5	-18,433
922,9	-18,313
923,3	-18,393
923,7	-17,633
924,2	-16,593
924,6	-4,353
925	12,727
925,4	1,527
925,8	2,767
926,3	-0,633
926,7	-9,713
927,1	-17,753
927,5	-8,633
928	-9,473
928,4	-3,513
928,8	-9,673
929,2	-10,913
929,7	-12,433
930,1	-10,473
930,5	-11,753
930,9	-7,873
931,3	-5,633
931,8	-7,953
932,2	-9,473
932,6	-11,513
933	-7,753
933,5	-12,393
933,9	-14,393
934,3	-14,873
934,7	-15,753
935,2	-19,793
935,6	-21,833
936	-20,553
936,4	-18,193
936,8	-17,873
937,3	-19,993
937,7	-20,953
938,1	-20,273
938,5	-19,193
939	-17,873
939,4	-19,273
939,8	-20,073
940,2	-22,873
940,6	-28,473
941,1	-28,953
941,5	-23,793
941,9	-16,953
942,3	-15,633
942,8	-18,393
943,2	-17,913
943,6	-21,153
944	-21,473
944,4	-23,633
944,9	-20,313
945,3	-23,913
945,7	-25,673
946,1	-30,393
946,6	-24,033
947	-23,433
947,4	-22,713
947,8	-22,633
948,2	-20,473
948,7	-22,233
949,1	-18,433
949,5	-18,113
949,9	-9,353
950,3	-13,873
950,8	-13,353
951,2	-12,713
951,6	-10,913
952	-18,153
952,5	-12,593
952,9	-13,713
953,3	-20,953
953,7	-19,913
954,1	-13,873
954,6	-18,553
955	-21,633
955,4	-17,753
955,8	-17,953
956,2	-24,833
956,7	-19,633
957,1	-13,913
957,5	-12,233
957,9	-18,713
958,3	-15,073
958,8	-21,553
959,2	-25,313
959,6	-23,433
960	-20,193
960,5	-26,433
960,9	-17,633
961,3	-15,993
961,7	-24,033
962,1	-18,433
962,6	-12,713
963	-20,793
963,4	-17,873
963,8	-15,993
964,2	-20,873
964,7	-23,953
965,1	-19,153
965,5	-26,593
965,9	-28,153
966,3	-24,233
966,8	-24,433
967,2	-28,753
967,6	-29,353
968	-22,273
968,4	-23,393
968,9	-24,273
969,3	-23,073
969,7	-20,313
970,1	-25,633
970,5	-22,953
971	-16,673
971,4	-17,993
971,8	-13,113
972,2	-10,673
972,6	-17,873
973,1	-23,593
973,5	-16,993
973,9	-25,473
974,3	-25,993
974,7	-23,113
975,2	-21,753
975,6	-25,153
976	-19,833
976,4	-18,873
976,8	-18,033
977,3	-20,913
977,7	-18,793
978,1	-15,993
978,5	-17,273
978,9	-19,873
979,4	-19,633
979,8	-22,993
980,2	-21,473
980,6	-20,553
981	-15,513
981,5	-12,913
981,9	-10,273
982,3	-13,993
982,7	-13,033
983,1	-13,833
983,6	-8,473
984	-7,153
984,4	-9,913
984,8	-9,033
985,2	-10,993
985,6	-17,513
986,1	-18,953
986,5	-15,593
986,9	-21,193
987,3	-22,673
987,7	-17,713
988,2	-16,233
988,6	-18,873
989	-15,593
989,4	-17,113
989,8	-21,633
990,3	-27,193
990,7	-24,113
991,1	-27,433
991,5	-23,033
991,9	-20,473
992,3	-15,033
992,8	-11,393
993,2	-6,993
993,6	-6,633
994	-3,673
994,4	-2,833
994,9	-5,793
995,3	-9,593
995,7	-13,473
996,1	-13,913
996,5	-16,153
996,9	-15,353
997,4	-14,393
997,8	-15,353
998,2	-16,313
998,6	-20,753
999	-22,993
999,5	-23,753
999,9	-22,713
1000,3	-22,913
1000,7	-19,473
1001,1	-22,833
1001,5	-18,753
1002	-18,553
1002,4	-20,553
1002,8	-21,873
1003,2	-15,433
1003,6	-18,393
1004	-16,953
1004,5	-18,393
1004,9	-15,913
1005,3	-22,073
1005,7	-23,913
1006,1	-21,593
1006,6	-19,313
1007	-13,513
1007,4	-13,033
1007,8	-10,513
1008,2	-14,033
1008,6	-13,193
1009,1	-20,433
1009,5	-16,993
1009,9	-19,953
1010,3	-16,393
1010,7	-15,913
1011,1	-11,153
1011,6	-11,313
1012	-11,873
1012,4	-15,033
1012,8	-20,873
1013,2	-23,273
1013,6	-25,913
1014,1	-23,313
1014,5	-19,313
1014,9	-14,193
1015,3	-19,193
1015,7	-18,673
1016,1	-16,913
1016,6	-21,673
1017	-21,753
1017,4	-18,993
1017,8	-18,753
1018,2	-24,433
1018,6	-15,833
1019,1	-20,353
1019,5	-18,153
1019,9	-16,433
1020,3	-4,433
1020,7	-10,593
1021,1	-13,513
1021,6	-13,593
1022	-18,753
1022,4	-23,993
1022,8	-24,673
1023,2	-22,513
1023,6	-20,993
1024,1	-23,193
1024,5	-27,633
1024,9	-28,073
1025,3	-27,673
1025,7	-32,473
1026,1	-29,953
1026,6	-29,993
1027	-30,513
1027,4	-35,433
1027,8	-38,273
1028,2	-36,993
1028,6	-35,753
1029	-32,433
1029,5	-28,873
1029,9	-21,593
1030,3	-21,233
1030,7	-13,793
1031,1	-22,313
1031,5	-20,433
1032	-21,993
1032,4	-24,113
1032,8	-34,353
1033,2	-29,633
1033,6	-24,193
1034	-23,833
1034,4	-18,113
1034,9	-13,793
1035,3	-9,393
1035,7	-15,433
1036,1	-18,193
1036,5	-19,113
1036,9	-23,193
1037,4	-30,553
1037,8	-28,353
1038,2	-26,433
1038,6	-30,513
1039	-24,193
1039,4	-11,313
1039,8	-7,113
1040,3	-12,393
1040,7	-14,393
1041,1	-23,793
1041,5	-33,073
1041,9	-34,593
1042,3	-29,153
1042,7	-25,193
1043,2	-23,393
1043,6	-22,873
1044	-26,913
1044,4	-32,073
1044,8	-30,473
1045,2	-24,233
1045,6	-30,033
1046,1	-27,433
1046,5	-24,633
1046,9	-24,153
1047,3	-24,233
1047,7	-20,553
1048,1	-22,233
1048,5	-24,113
1049	-25,833
1049,4	-30,273
1049,8	-32,113
1050,2	-30,153
1050,6	-26,033
1051	-31,513
1051,4	-27,113
1051,9	-24,353
1052,3	-24,273
1052,7	-30,313
1053,1	-28,113
1053,5	-30,073
1053,9	-24,673
1054,3	-30,073
1054,8	-22,433
1055,2	-16,593
1055,6	-18,713
1056	-19,553
1056,4	-12,873
1056,8	-17,473
1057,2	-18,273
1057,6	-18,233
1058,1	-21,713
1058,5	-21,033
1058,9	-23,353
1059,3	-24,513
1059,7	-21,353
1060,1	-28,273
1060,5	-30,353
1061	-22,953
1061,4	-23,393
1061,8	-20,673
1062,2	-12,713
1062,6	-14,073
1063	-17,193
1063,4	-15,833
1063,8	-18,433
1064,3	-16,313
1064,7	-16,433
1065,1	-14,153
1065,5	-13,433
1065,9	-10,313
1066,3	-13,793
1066,7	-12,313
1067,1	-14,833
1067,6	-16,553
1068	-22,993
1068,4	-20,873
1068,8	-18,993
1069,2	-24,113
1069,6	-24,513
1070	-22,633
1070,4	-25,113
1070,9	-26,353
1071,3	-20,393
1071,7	-20,073
1072,1	-17,993
1072,5	-16,353
1072,9	-14,673
1073,3	-13,313
1073,7	-22,233
1074,2	-27,953
1074,6	-26,793
1075	-32,353
1075,4	-32,233
1075,8	-19,993
1076,2	-11,073
1076,6	-11,673
1077	-5,113
1077,5	-12,393
1077,9	-17,913
1078,3	-19,393
1078,7	-17,593
1079,1	-20,113
1079,5	-12,273
1079,9	-12,953
1080,3	-13,113
1080,7	-13,393
1081,2	-12,353
1081,6	-17,913
1082	-21,313
1082,4	-24,313
1082,8	-26,633
1083,2	-24,393
1083,6	-23,953
1084	-18,593
1084,5	-17,393
1084,9	-21,113
1085,3	-21,873
1085,7	-16,993
1086,1	-12,153
1086,5	-12,433
1086,9	-6,793
1087,3	-11,353
1087,7	-7,873
1088,2	-10,833
1088,6	-8,593
1089	-10,793
1089,4	-9,433
1089,8	-16,313
1090,2	-16,953
1090,6	-16,873
1091	-16,833
1091,4	-20,833
1091,9	-26,153
1092,3	-28,993
1092,7	-29,393
1093,1	-29,473
1093,5	-23,273
1093,9	-19,033
1094,3	-13,593
1094,7	-19,473
1095,1	-17,633
1095,5	-18,033
1096	-14,993
1096,4	-16,473
1096,8	-11,313
1097,2	-13,953
1097,6	-12,593
1098	-14,393
1098,4	-14,313
1098,8	-18,753
1099,2	-18,553
1099,6	-15,793
1100,1	-14,233
1100,5	-15,953
1100,9	-12,153
1101,3	-7,793
1101,7	-15,433
1102,1	-15,353
1102,5	-14,553
1102,9	-10,593
1103,3	-12,233
1103,7	-5,113
1104,2	-1,873
1104,6	-3,193
1105	-5,273
1105,4	-1,753
1105,8	-6,113
1106,2	-7,713
1106,6	-2,353
1107	-0,913
1107,4	-2,713
1107,8	-0,683
1108,3	1,5
