Data from Subt2_00067.txt Node
Date: Fri Aug 11 16:26:20 MSK 2023
User: vat
Spectrometer: MAYP114033
Trigger mode: 0
Integration Time (sec): 5,000000E-1
Scans to average: 5
Electric dark correction enabled: true
Nonlinearity correction enabled: false
Boxcar width: 2
XAxis mode: Wavelengths
Number of Pixels in Spectrum: 2068
>>>>>Begin Spectral Data<<<<<
199,4	0,067
199,9	0,267
200,4	-7,733
200,8	-11,853
201,3	-19,253
201,8	-22,613
202,2	-24,893
202,7	-22,733
203,2	-26,173
203,6	-24,253
204,1	-27,213
204,6	-34,453
205	-34,373
205,5	-32,493
206	-27,653
206,4	-26,973
206,9	-22,373
207,4	-24,613
207,8	-26,333
208,3	-30,053
208,8	-30,013
209,2	-37,613
209,7	-38,853
210,2	-36,893
210,6	-42,373
211,1	-43,493
211,5	-36,493
212	-29,973
212,5	-31,533
212,9	-32,613
213,4	-35,733
213,9	-37,453
214,3	-43,813
214,8	-46,413
215,3	-45,333
215,7	-46,213
216,2	-43,413
216,7	-46,133
217,1	-44,253
217,6	-44,173
218,1	-46,173
218,5	-50,573
219	-44,173
219,5	-38,853
219,9	-39,893
220,4	-32,533
220,9	-32,773
221,3	-31,653
221,8	-35,493
222,3	-36,773
222,7	-35,533
223,2	-36,133
223,6	-40,053
224,1	-44,693
224,6	-41,453
225	-45,613
225,5	-39,973
226	-37,053
226,4	-33,293
226,9	-33,373
227,4	-28,013
227,8	-31,533
228,3	-41,933
228,8	-47,333
229,2	-45,413
229,7	-55,373
230,2	-54,693
230,6	-49,933
231,1	-48,693
231,5	-52,693
232	-48,013
232,5	-45,293
232,9	-48,533
233,4	-45,133
233,9	-48,413
234,3	-47,773
234,8	-49,373
235,3	-44,613
235,7	-43,173
236,2	-36,373
236,7	-38,293
237,1	-46,213
237,6	-48,653
238,1	-49,813
238,5	-52,573
239	-47,333
239,4	-45,133
239,9	-36,533
240,4	-35,173
240,8	-35,093
241,3	-40,013
241,8	-37,173
242,2	-39,493
242,7	-37,533
243,2	-37,933
243,6	-37,693
244,1	-38,493
244,6	-45,053
245	-49,533
245,5	-49,493
245,9	-47,493
246,4	-40,373
246,9	-41,213
247,3	-46,213
247,8	-45,133
248,3	-43,693
248,7	-51,853
249,2	-52,533
249,7	-50,453
250,1	-52,653
250,6	-59,893
251	-60,053
251,5	-53,733
252	-57,013
252,4	-57,413
252,9	-50,173
253,4	-49,853
253,8	-49,613
254,3	-40,013
254,8	-37,893
255,2	-37,893
255,7	-32,573
256,1	-36,293
256,6	-39,653
257,1	-42,293
257,5	-47,293
258	-51,213
258,5	-48,293
258,9	-42,253
259,4	-38,773
259,9	-38,013
260,3	-41,013
260,8	-35,573
261,2	-39,093
261,7	-35,573
262,2	-37,573
262,6	-30,653
263,1	-35,693
263,6	-38,653
264	-43,173
264,5	-43,333
264,9	-47,533
265,4	-49,613
265,9	-46,933
266,3	-43,493
266,8	-42,093
267,3	-38,373
267,7	-38,653
268,2	-41,373
268,7	-43,053
269,1	-40,173
269,6	-46,853
270	-49,613
270,5	-50,333
271	-56,373
271,4	-60,853
271,9	-57,493
272,4	-52,333
272,8	-49,973
273,3	-49,693
273,7	-44,333
274,2	-40,573
274,7	-42,373
275,1	-39,613
275,6	-34,093
276,1	-37,333
276,5	-42,533
277	-41,733
277,4	-44,813
277,9	-47,453
278,4	-47,253
278,8	-41,893
279,3	-40,293
279,8	-42,373
280,2	-43,653
280,7	-42,293
281,1	-46,093
281,6	-46,373
282,1	-39,653
282,5	-38,453
283	-39,333
283,4	-41,293
283,9	-39,933
284,4	-45,213
284,8	-40,693
285,3	-35,533
285,8	-36,813
286,2	-38,653
286,7	-34,573
287,1	-38,773
287,6	-41,693
288,1	-39,333
288,5	-37,493
289	-37,813
289,5	-36,613
289,9	-36,933
290,4	-32,973
290,8	-34,933
291,3	-36,533
291,8	-33,733
292,2	-31,533
292,7	-37,653
293,1	-40,613
293,6	-42,853
294,1	-45,373
294,5	-51,573
295	-41,693
295,5	-34,173
295,9	-31,933
296,4	-35,573
296,8	-30,173
297,3	-38,893
297,8	-45,973
298,2	-53,813
298,7	-50,573
299,1	-54,693
299,6	-49,293
300,1	-50,093
300,5	-41,693
301	-41,253
301,5	-43,173
301,9	-45,813
302,4	-46,813
302,8	-48,293
303,3	-49,213
303,8	-53,573
304,2	-57,093
304,7	-51,093
305,1	-48,213
305,6	-45,813
306,1	-39,813
306,5	-37,093
307	-39,373
307,4	-38,973
307,9	-36,173
308,4	-33,173
308,8	-30,613
309,3	-31,933
309,8	-34,253
310,2	-38,613
310,7	-46,693
311,1	-53,933
311,6	-51,173
312,1	-52,693
312,5	-53,613
313	-48,373
313,4	-47,493
313,9	-48,293
314,4	-49,973
314,8	-49,853
315,3	-48,453
315,7	-46,333
316,2	-49,933
316,7	-49,853
317,1	-50,053
317,6	-51,773
318	-48,453
318,5	-44,093
319	-45,733
319,4	-47,013
319,9	-43,253
320,3	-42,413
320,8	-38,173
321,3	-34,853
321,7	-28,173
322,2	-32,253
322,6	-33,213
323,1	-42,853
323,6	-46,653
324	-45,853
324,5	-47,253
324,9	-49,533
325,4	-45,653
325,9	-42,693
326,3	-42,573
326,8	-44,213
327,2	-47,293
327,7	-51,893
328,2	-51,373
328,6	-55,533
329,1	-54,453
329,5	-47,733
330	-40,853
330,5	-43,973
330,9	-44,653
331,4	-38,773
331,8	-48,013
332,3	-50,373
332,8	-51,693
333,2	-56,373
333,7	-53,653
334,1	-49,453
334,6	-49,333
335,1	-45,533
335,5	-42,693
336	-46,453
336,4	-43,053
336,9	-41,613
337,4	-41,933
337,8	-39,653
338,3	-41,573
338,7	-47,333
339,2	-48,413
339,7	-48,173
340,1	-49,093
340,6	-43,693
341	-39,653
341,5	-42,013
342	-38,253
342,4	-39,453
342,9	-43,853
343,3	-42,493
343,8	-40,933
344,2	-36,053
344,7	-34,413
345,2	-34,253
345,6	-36,373
346,1	-35,133
346,5	-39,973
347	-43,533
347,5	-45,733
347,9	-43,253
348,4	-43,213
348,8	-47,293
349,3	-43,013
349,8	-42,893
350,2	-41,853
350,7	-45,573
351,1	-43,133
351,6	-37,893
352	-32,533
352,5	-27,253
353	-24,533
353,4	-21,213
353,9	-16,813
354,3	-14,253
354,8	-15,653
355,3	2,987
355,7	12,347
356,2	16,467
356,6	28,387
357,1	48,387
357,5	59,027
358	81,987
358,5	110,707
358,9	141,067
359,4	168,307
359,8	199,467
360,3	238,827
360,8	277,347
361,2	327,827
361,7	382,547
362,1	444,507
362,6	509,507
363	579,467
363,5	645,947
364	725,427
364,4	807,147
364,9	886,387
365,3	978,467
365,8	1062,547
366,3	1136,827
366,7	1200,747
367,2	1265,387
367,6	1302,507
368,1	1342,187
368,5	1366,987
369	1384,547
369,5	1382,947
369,9	1383,187
370,4	1362,067
370,8	1334,947
371,3	1295,667
371,7	1249,947
372,2	1189,907
372,7	1130,067
373,1	1065,267
373,6	1005,947
374	944,187
374,5	883,867
374,9	819,187
375,4	758,667
375,9	698,787
376,3	635,787
376,8	584,347
377,2	538,587
377,7	491,187
378,2	443,507
378,6	402,107
379,1	362,227
379,5	330,027
380	297,347
380,4	269,627
380,9	247,227
381,4	224,507
381,8	196,387
382,3	181,547
382,7	165,467
383,2	147,107
383,6	133,267
384,1	121,187
384,6	107,507
385	92,267
385,5	89,587
385,9	79,347
386,4	69,907
386,8	61,707
387,3	60,027
387,7	49,427
388,2	36,427
388,7	37,787
389,1	30,467
389,6	24,587
390	14,987
390,5	17,707
390,9	8,707
391,4	4,347
391,9	-1,613
392,3	-1,733
392,8	-6,933
393,2	-7,933
393,7	-3,533
394,1	-0,173
394,6	-1,813
395,1	-3,773
395,5	-4,653
396	-11,013
396,4	-24,853
396,9	-27,253
397,3	-26,693
397,8	-29,493
398,2	-28,253
398,7	-17,853
399,2	-18,933
399,6	-22,773
400,1	-20,493
400,5	-23,933
401	-27,013
401,4	-27,453
401,9	-26,053
402,4	-32,173
402,8	-30,973
403,3	-31,453
403,7	-28,653
404,2	-25,133
404,6	-22,813
405,1	-16,253
405,5	-9,813
406	-11,013
406,5	-12,733
406,9	-7,973
407,4	-10,533
407,8	-12,493
408,3	-8,053
408,7	-4,933
409,2	-3,373
409,6	-3,573
410,1	-0,013
410,6	2,187
411	2,587
411,5	2,707
411,9	13,227
412,4	14,787
412,8	18,427
413,3	22,347
413,7	34,347
414,2	33,827
414,7	40,667
415,1	47,747
415,6	49,387
416	54,867
416,5	57,987
416,9	65,947
417,4	65,947
417,8	75,347
418,3	76,547
418,8	85,267
419,2	88,267
419,7	101,787
420,1	110,587
420,6	113,347
421	119,067
421,5	118,067
421,9	124,547
422,4	134,507
422,8	148,467
423,3	156,867
423,8	172,347
424,2	185,467
424,7	192,347
425,1	205,467
425,6	214,147
426	228,027
426,5	231,267
426,9	247,147
427,4	258,427
427,9	283,147
428,3	297,707
428,8	315,027
429,2	336,027
429,7	354,747
430,1	368,547
430,6	385,347
431	406,467
431,5	424,347
431,9	436,507
432,4	456,307
432,8	481,947
433,3	509,467
433,8	528,907
434,2	557,427
434,7	579,907
435,1	611,507
435,6	642,067
436	680,827
436,5	718,427
436,9	755,987
437,4	792,707
437,8	830,507
438,3	863,947
438,8	896,227
439,2	941,147
439,7	979,267
440,1	1013,067
440,6	1051,787
441	1100,387
441,5	1139,627
441,9	1181,307
442,4	1224,707
442,8	1280,147
443,3	1331,227
443,7	1380,827
444,2	1438,147
444,7	1498,227
445,1	1550,987
445,6	1604,187
446	1660,067
446,5	1718,787
446,9	1777,987
447,4	1835,667
447,8	1899,427
448,3	1967,627
448,7	2025,947
449,2	2089,227
449,6	2150,227
450,1	2212,667
450,6	2281,987
451	2342,747
451,5	2412,747
451,9	2482,747
452,4	2553,587
452,8	2622,707
453,3	2707,427
453,7	2777,267
454,2	2857,307
454,6	2933,827
455,1	3001,947
455,5	3074,187
456	3147,747
456,4	3215,267
456,9	3282,667
457,3	3365,267
457,8	3435,387
458,3	3513,427
458,7	3598,427
459,2	3683,867
459,6	3756,107
460,1	3826,667
460,5	3900,787
461	3973,707
461,4	4043,667
461,9	4119,787
462,3	4203,587
462,8	4279,947
463,2	4354,147
463,7	4418,347
464,1	4493,227
464,6	4566,307
465	4632,107
465,5	4700,187
466	4780,987
466,4	4839,587
466,9	4908,987
467,3	4979,907
467,8	5046,667
468,2	5110,267
468,7	5177,027
469,1	5231,187
469,6	5287,667
470	5352,467
470,5	5408,587
470,9	5460,907
471,4	5515,907
471,8	5584,067
472,3	5625,387
472,7	5668,907
473,2	5722,427
473,6	5771,947
474,1	5805,867
474,5	5853,787
475	5906,747
475,4	5954,547
475,9	5983,987
476,4	6022,267
476,8	6056,307
477,3	6089,187
477,7	6120,587
478,2	6165,627
478,6	6192,267
479,1	6221,587
479,5	6245,387
480	6268,507
480,4	6294,747
480,9	6317,227
481,3	6327,907
481,8	6355,907
482,2	6371,227
482,7	6367,627
483,1	6380,747
483,6	6396,267
484	6401,627
484,5	6404,787
484,9	6417,307
485,4	6421,387
485,8	6425,707
486,3	6432,227
486,7	6434,507
487,2	6435,467
487,6	6432,027
488,1	6426,867
488,5	6402,987
489	6387,107
489,4	6381,507
489,9	6364,147
490,4	6343,347
490,8	6343,267
491,3	6321,747
491,7	6303,787
492,2	6290,947
492,6	6271,227
493,1	6245,907
493,5	6231,587
494	6191,907
494,4	6166,427
494,9	6146,547
495,3	6111,187
495,8	6089,027
496,2	6072,907
496,7	6049,827
497,1	6016,547
497,6	5996,747
498	5964,587
498,5	5929,747
498,9	5896,787
499,4	5872,347
499,8	5819,347
500,3	5786,787
500,7	5746,347
501,2	5706,827
501,6	5671,067
502,1	5642,467
502,5	5602,347
503	5574,947
503,4	5544,667
503,9	5493,787
504,3	5460,947
504,8	5418,907
505,2	5374,467
505,7	5329,187
506,1	5308,067
506,6	5260,947
507	5225,427
507,5	5183,147
507,9	5136,747
508,4	5073,987
508,8	5037,907
509,3	4988,307
509,7	4945,307
510,2	4905,987
510,6	4875,507
511,1	4830,467
511,5	4793,947
512	4744,427
512,4	4701,707
512,9	4653,307
513,3	4612,947
513,8	4562,547
514,2	4521,787
514,7	4473,427
515,1	4429,467
515,6	4374,787
516	4332,267
516,5	4291,267
516,9	4243,347
517,4	4208,187
517,8	4161,667
518,3	4116,547
518,7	4066,107
519,2	4016,547
519,6	3951,227
520,1	3914,307
520,5	3868,947
521	3824,827
521,4	3777,467
521,9	3742,907
522,3	3697,867
522,8	3648,227
523,2	3621,947
523,7	3591,187
524,1	3558,947
524,6	3514,387
525	3487,267
525,5	3431,947
525,9	3389,627
526,4	3340,267
526,8	3298,987
527,3	3243,107
527,7	3209,427
528,2	3174,347
528,6	3138,867
529,1	3110,547
529,5	3089,667
530	3048,267
530,4	3008,347
530,9	2966,187
531,3	2925,147
531,8	2876,787
532,2	2841,667
532,6	2799,907
533,1	2764,187
533,5	2724,867
534	2685,667
534,4	2652,747
534,9	2623,787
535,3	2589,147
535,8	2560,827
536,2	2531,067
536,7	2490,627
537,1	2458,467
537,6	2427,267
538	2391,267
538,5	2368,627
538,9	2344,067
539,4	2315,267
539,8	2289,307
540,3	2260,627
540,7	2225,187
541,2	2199,787
541,6	2168,227
542,1	2132,667
542,5	2105,227
543	2076,467
543,4	2035,747
543,9	2000,827
544,3	1979,787
544,8	1951,147
545,2	1921,827
545,7	1901,707
546,1	1882,947
546,5	1854,107
547	1828,547
547,4	1807,067
547,9	1785,387
548,3	1766,507
548,8	1750,107
549,2	1727,547
549,7	1712,547
550,1	1689,627
550,6	1663,667
551	1640,587
551,5	1625,707
551,9	1604,547
552,4	1582,467
552,8	1563,067
553,3	1538,547
553,7	1516,027
554,2	1493,547
554,6	1478,987
555,1	1463,467
555,5	1454,347
555,9	1435,627
556,4	1418,467
556,8	1397,747
557,3	1377,147
557,7	1352,267
558,2	1330,187
558,6	1311,507
559,1	1292,427
559,5	1276,307
560	1264,587
560,4	1255,387
560,9	1237,667
561,3	1227,867
561,8	1214,627
562,2	1193,387
562,7	1176,827
563,1	1165,187
563,6	1144,947
564	1123,067
564,4	1108,787
564,9	1089,707
565,3	1072,787
565,8	1059,907
566,2	1050,507
566,7	1037,987
567,1	1029,547
567,6	1011,427
568	997,307
568,5	981,387
568,9	962,667
569,4	947,867
569,8	934,187
570,3	932,787
570,7	925,587
571,1	920,467
571,6	915,267
572	909,987
572,5	894,707
572,9	872,707
573,4	863,467
573,8	848,027
574,3	843,147
574,7	829,187
575,2	822,787
575,6	806,467
576,1	789,467
576,5	776,107
576,9	765,227
577,4	758,147
577,8	750,467
578,3	744,347
578,7	729,267
579,2	717,227
579,6	711,067
580,1	701,547
580,5	696,227
581	688,027
581,4	682,987
581,9	671,627
582,3	665,307
582,7	655,667
583,2	649,267
583,6	643,907
584,1	636,067
584,5	626,507
585	619,507
585,4	611,467
585,9	603,667
586,3	590,387
586,8	590,747
587,2	584,707
587,6	580,627
588,1	571,307
588,5	569,907
589	555,987
589,4	544,907
589,9	535,867
590,3	532,587
590,8	527,507
591,2	521,627
591,7	524,067
592,1	525,627
592,5	515,227
593	509,947
593,4	504,387
593,9	489,627
594,3	476,747
594,8	474,707
595,2	467,987
595,7	460,267
596,1	458,227
596,6	458,067
597	445,107
597,4	441,107
597,9	434,947
598,3	433,187
598,8	430,707
599,2	434,187
599,7	434,267
600,1	435,707
600,6	429,747
601	419,667
601,4	415,507
601,9	402,467
602,3	393,427
602,8	388,267
603,2	385,227
603,7	380,587
604,1	384,667
604,6	385,627
605	384,587
605,4	382,107
605,9	375,667
606,3	368,747
606,8	366,547
607,2	361,467
607,7	352,987
608,1	353,627
608,6	343,907
609	337,587
609,4	333,227
609,9	333,227
610,3	328,227
610,8	332,587
611,2	321,907
611,7	316,507
612,1	314,387
612,6	309,347
613	306,867
613,4	317,547
613,9	321,867
614,3	319,787
614,8	315,467
615,2	310,187
615,7	301,787
616,1	290,307
616,6	287,747
617	284,747
617,4	282,747
617,9	281,147
618,3	278,787
618,8	269,787
619,2	272,147
619,7	272,347
620,1	265,507
620,5	261,507
621	263,667
621,4	256,627
621,9	251,507
622,3	251,147
622,8	261,267
623,2	258,067
623,6	260,547
624,1	261,187
624,5	258,147
625	245,147
625,4	237,507
625,9	234,347
626,3	230,947
626,8	234,467
627,2	237,427
627,6	241,147
628,1	236,667
628,5	233,747
629	231,267
629,4	227,787
629,9	225,467
630,3	224,267
630,7	218,587
631,2	207,667
631,6	207,947
632,1	207,267
632,5	206,027
633	206,227
633,4	206,707
633,8	200,667
634,3	193,507
634,7	194,027
635,2	193,827
635,6	195,507
636,1	201,307
636,5	210,187
636,9	201,707
637,4	197,587
637,8	194,707
638,3	182,867
638,7	173,667
639,2	176,587
639,6	173,747
640	170,507
640,5	173,347
640,9	172,067
641,4	167,747
641,8	170,667
642,2	173,627
642,7	173,587
643,1	169,307
643,6	167,427
644	164,547
644,5	159,267
644,9	160,387
645,3	166,187
645,8	160,347
646,2	158,907
646,7	155,387
647,1	153,827
647,6	149,987
648	156,587
648,4	157,787
648,9	158,027
649,3	145,787
649,8	145,547
650,2	147,227
650,6	136,707
651,1	143,867
651,5	149,067
652	149,507
652,4	141,627
652,9	150,467
653,3	144,107
653,7	143,947
654,2	144,107
654,6	150,867
655,1	143,907
655,5	139,547
655,9	139,347
656,4	133,067
656,8	123,227
657,3	126,547
657,7	130,427
658,2	127,427
658,6	124,987
659	132,427
659,5	131,907
659,9	124,667
660,4	124,627
660,8	126,747
661,2	126,027
661,7	124,387
662,1	125,147
662,6	122,027
663	117,627
663,4	114,347
663,9	109,907
664,3	108,267
664,8	111,747
665,2	111,747
665,6	112,947
666,1	113,747
666,5	113,747
667	117,387
667,4	112,787
667,9	108,227
668,3	106,507
668,7	111,267
669,2	101,427
669,6	105,547
670,1	103,427
670,5	103,667
670,9	98,907
671,4	102,707
671,8	98,747
672,3	97,987
672,7	102,187
673,1	99,747
673,6	89,827
674	93,387
674,5	96,507
674,9	88,547
675,3	89,587
675,8	97,027
676,2	94,907
676,7	92,107
677,1	90,667
677,5	90,187
678	84,107
678,4	84,627
678,9	81,467
679,3	83,467
679,7	82,587
680,2	85,987
680,6	82,547
681,1	82,027
681,5	84,707
681,9	85,107
682,4	84,107
682,8	86,787
683,3	88,907
683,7	84,587
684,1	85,187
684,6	87,907
685	88,907
685,5	86,347
685,9	87,347
686,3	84,787
686,8	81,027
687,2	75,307
687,7	72,947
688,1	73,947
688,5	77,947
689	75,947
689,4	75,387
689,9	74,947
690,3	70,547
690,7	65,187
691,2	67,067
691,6	67,747
692	68,147
692,5	69,867
692,9	67,787
693,4	64,187
693,8	66,787
694,2	67,747
694,7	66,747
695,1	62,987
695,6	63,227
696	61,027
696,4	64,347
696,9	66,707
697,3	70,427
697,8	70,187
698,2	68,987
698,6	61,987
699,1	57,067
699,5	62,227
699,9	62,707
700,4	63,547
700,8	64,587
701,3	60,067
701,7	57,627
702,1	51,187
702,6	43,867
703	44,867
703,5	45,547
703,9	42,787
704,3	51,027
704,8	56,027
705,2	55,987
705,6	61,627
706,1	53,667
706,5	52,787
707	53,747
707,4	51,107
707,8	47,067
708,3	52,227
708,7	50,307
709,2	43,547
709,6	41,667
710	39,627
710,5	39,427
710,9	32,027
711,3	31,507
711,8	28,707
712,2	31,307
712,7	31,827
713,1	41,747
713,5	48,227
714	51,387
714,4	52,987
714,8	55,387
715,3	49,307
715,7	48,187
716,2	48,867
716,6	42,427
717	44,027
717,5	44,867
717,9	46,507
718,3	44,787
718,8	50,707
719,2	42,307
719,7	40,547
720,1	35,667
720,5	30,787
721	28,187
721,4	29,827
721,8	27,867
722,3	27,147
722,7	26,187
723,2	25,707
723,6	25,787
724	29,067
724,5	30,427
724,9	39,867
725,3	38,747
725,8	39,667
726,2	38,467
726,7	39,547
727,1	38,227
727,5	34,107
728	31,307
728,4	26,027
728,8	26,947
729,3	22,827
729,7	23,347
730,1	21,027
730,6	21,987
731	18,947
731,5	22,107
731,9	29,427
732,3	33,707
732,8	33,427
733,2	30,147
733,6	32,707
734,1	25,587
734,5	25,987
734,9	29,467
735,4	25,587
735,8	20,547
736,3	24,747
736,7	22,467
737,1	27,787
737,6	34,987
738	31,107
738,4	26,427
738,9	26,987
739,3	17,507
739,7	13,667
740,2	11,467
740,6	10,467
741,1	4,907
741,5	9,187
741,9	15,147
742,4	16,347
742,8	15,787
743,2	22,867
743,7	17,307
744,1	13,867
744,5	11,067
745	15,067
745,4	11,587
745,8	15,947
746,3	15,827
746,7	20,947
747,2	12,307
747,6	14,027
748	10,667
748,5	8,907
748,9	6,027
749,3	12,347
749,8	8,947
750,2	11,067
750,6	10,627
751,1	6,387
751,5	8,987
751,9	13,627
752,4	9,907
752,8	12,307
753,3	15,867
753,7	15,307
754,1	11,627
754,6	19,587
755	17,227
755,4	19,547
755,9	11,627
756,3	10,307
756,7	8,227
757,2	4,627
757,6	6,827
758	11,267
758,5	8,467
758,9	8,387
759,3	7,667
759,8	9,307
760,2	10,827
760,6	14,027
761,1	9,587
761,5	13,627
761,9	11,147
762,4	2,947
762,8	4,787
763,3	0,347
763,7	-0,013
764,1	-2,813
764,6	4,147
765	4,067
765,4	7,027
765,9	4,467
766,3	3,547
766,7	-1,173
767,2	-2,653
767,6	-1,093
768	2,827
768,5	3,827
768,9	9,107
769,3	6,547
769,8	3,507
770,2	1,187
770,6	3,587
771,1	3,747
771,5	5,027
771,9	15,107
772,4	15,507
772,8	16,987
773,2	11,907
773,7	10,547
774,1	9,667
774,5	6,507
775	4,987
775,4	9,667
775,8	9,907
776,3	2,187
776,7	7,027
777,1	3,107
777,6	-0,293
778	-0,093
778,4	3,547
778,9	-1,613
779,3	-6,293
779,7	-5,213
780,2	-4,133
780,6	-9,093
781	-6,933
781,5	-3,013
781,9	-7,933
782,3	-11,133
782,8	-10,693
783,2	-10,973
783,6	-11,093
784,1	-9,133
784,5	-11,773
784,9	-12,413
785,4	-11,213
785,8	-6,653
786,2	-13,013
786,7	-8,013
787,1	-8,933
787,5	-16,933
788	-17,493
788,4	-7,973
788,8	-6,893
789,3	0,187
789,7	3,987
790,1	0,547
790,6	0,227
791	-4,893
791,4	-11,653
791,9	-12,973
792,3	-15,493
792,7	-13,253
793,2	-9,093
793,6	-11,013
794	-10,133
794,5	-6,453
794,9	-7,773
795,3	-15,933
795,8	-12,613
796,2	-10,133
796,6	-11,613
797,1	-15,853
797,5	-13,213
797,9	-15,493
798,4	-16,973
798,8	-17,573
799,2	-13,533
799,7	-12,573
800,1	-9,573
800,5	-8,733
801	-10,413
801,4	-14,973
801,8	-13,933
802,2	-14,133
802,7	-10,093
803,1	-14,453
803,5	-12,773
804	-10,653
804,4	-16,093
804,8	-22,213
805,3	-14,533
805,7	-16,293
806,1	-13,573
806,6	-8,533
807	-15,093
807,4	-19,213
807,9	-16,733
808,3	-21,013
808,7	-25,333
809,2	-15,893
809,6	-14,973
810	-16,973
810,4	-20,293
810,9	-17,333
811,3	-22,973
811,7	-19,373
812,2	-14,173
812,6	-16,733
813	-12,973
813,5	-8,693
813,9	-14,413
814,3	-18,093
814,8	-10,213
815,2	-18,893
815,6	-22,133
816,1	-23,413
816,5	-28,613
816,9	-30,213
817,3	-28,093
817,8	-28,813
818,2	-31,533
818,6	-23,973
819,1	-28,613
819,5	-25,733
819,9	-25,093
820,4	-20,613
820,8	-26,213
821,2	-19,973
821,7	-18,373
822,1	-13,653
822,5	-12,533
822,9	-18,013
823,4	-20,173
823,8	-21,013
824,2	-24,893
824,7	-30,013
825,1	-23,133
825,5	-26,773
826	-32,653
826,4	-36,573
826,8	-29,973
827,3	-32,373
827,7	-37,813
828,1	-34,893
828,5	-32,213
829	-35,853
829,4	-33,413
829,8	-27,653
830,3	-27,333
830,7	-28,213
831,1	-30,013
831,6	-25,613
832	-22,613
832,4	-23,533
832,8	-18,493
833,3	-11,133
833,7	-9,133
834,1	-14,533
834,6	-15,733
835	-13,613
835,4	-15,533
835,8	-21,213
836,3	-17,853
836,7	-13,293
837,1	-21,173
837,6	-26,533
838	-27,453
838,4	-29,853
838,9	-32,933
839,3	-34,413
839,7	-26,333
840,1	-22,813
840,6	-19,533
841	-14,693
841,4	-7,613
841,9	-11,453
842,3	-17,013
842,7	-17,013
843,1	-21,973
843,6	-29,133
844	-33,413
844,4	-34,133
844,9	-35,533
845,3	-30,373
845,7	-28,653
846,2	-24,093
846,6	-20,053
847	-21,573
847,4	-27,493
847,9	-23,333
848,3	-30,413
848,7	-35,653
849,2	-35,653
849,6	-43,173
850	-43,053
850,4	-47,013
850,9	-43,533
851,3	-40,813
851,7	-38,053
852,2	-37,733
852,6	-28,293
853	-28,573
853,4	-26,333
853,9	-22,973
854,3	-23,253
854,7	-24,173
855,2	-21,653
855,6	-26,973
856	-27,253
856,4	-29,893
856,9	-30,333
857,3	-35,333
857,7	-35,173
858,2	-30,333
858,6	-28,333
859	-29,733
859,4	-20,813
859,9	-17,893
860,3	-21,053
860,7	-24,533
861,1	-22,773
861,6	-32,533
862	-35,293
862,4	-32,933
862,9	-31,453
863,3	-32,973
863,7	-30,253
864,1	-28,213
864,6	-31,573
865	-29,693
865,4	-28,613
865,9	-27,093
866,3	-30,293
866,7	-30,813
867,1	-34,133
867,6	-37,253
868	-37,293
868,4	-33,133
868,8	-31,253
869,3	-33,333
869,7	-31,333
870,1	-34,653
870,6	-37,773
871	-36,213
871,4	12,067
871,8	8,627
872,3	7,307
872,7	6,107
873,1	8,347
873,5	-33,013
874	-28,453
874,4	-22,493
874,8	-25,693
875,3	-28,813
875,7	-30,453
876,1	-34,813
876,5	-38,253
877	-28,333
877,4	-29,453
877,8	-33,533
878,2	-30,493
878,7	-30,333
879,1	-34,093
879,5	-33,813
879,9	-33,453
880,4	-31,293
880,8	-32,053
881,2	-33,293
881,7	-36,373
882,1	-34,333
882,5	-41,493
882,9	-45,613
883,4	-44,653
883,8	-42,133
884,2	-39,573
884,6	-35,653
885,1	-33,613
885,5	-30,573
885,9	-29,533
886,3	-33,293
886,8	-28,013
887,2	-26,053
887,6	-27,653
888	-35,893
888,5	-34,053
888,9	-36,533
889,3	-38,173
889,8	-37,773
890,2	-30,253
890,6	-28,413
891	-29,973
891,5	-28,053
891,9	-28,573
892,3	-31,373
892,7	-35,933
893,2	-30,453
893,6	-30,733
894	-36,413
894,4	-34,493
894,9	-35,093
895,3	-35,573
895,7	-34,453
896,1	-32,613
896,6	-29,613
897	-26,213
897,4	-31,373
897,8	-30,533
898,3	-27,893
898,7	-23,533
899,1	-25,053
899,5	-22,893
900	-28,333
900,4	-27,773
900,8	-35,893
901,2	-31,933
901,7	-33,053
902,1	-29,093
902,5	-27,693
902,9	-25,413
903,4	-24,453
903,8	-25,293
904,2	-24,653
904,6	-36,293
905,1	-39,053
905,5	-43,133
905,9	-46,253
906,3	-50,493
906,8	-41,173
907,2	-40,933
907,6	-43,933
908	-39,453
908,5	-38,893
908,9	-39,933
909,3	-45,773
909,7	-41,213
910,2	-45,453
910,6	-43,933
911	-39,853
911,4	-32,333
911,9	-35,133
912,3	-34,293
912,7	-33,533
913,1	-38,493
913,6	-37,773
914	-42,013
914,4	-44,733
914,8	-46,453
915,3	-44,013
915,7	-41,933
916,1	-40,253
916,5	-32,613
916,9	-29,693
917,4	-28,973
917,8	-32,653
918,2	-25,333
918,6	-29,013
919,1	-30,333
919,5	-40,453
919,9	-40,773
920,3	-45,173
920,8	-44,973
921,2	-50,893
921,6	-49,013
922	-54,293
922,5	-53,933
922,9	-57,933
923,3	-47,653
923,7	-40,893
924,2	-38,733
924,6	-40,133
925	-34,093
925,4	-38,693
925,8	-39,453
926,3	-37,373
926,7	-37,173
927,1	-32,533
927,5	-33,853
928	-38,413
928,4	-40,013
928,8	-36,013
929,2	-46,293
929,7	-42,013
930,1	-36,133
930,5	-32,493
930,9	-35,533
931,3	-32,653
931,8	-42,413
932,2	-44,613
932,6	-49,613
933	-51,213
933,5	-53,453
933,9	-40,453
934,3	-44,213
934,7	-41,573
935,2	-31,573
935,6	-30,933
936	-41,813
936,4	-40,733
936,8	-42,773
937,3	-52,093
937,7	-49,693
938,1	-49,373
938,5	-52,293
939	-53,173
939,4	-54,893
939,8	-56,733
940,2	-54,493
940,6	-55,613
941,1	-55,333
941,5	-54,773
941,9	-53,333
942,3	-48,933
942,8	-46,013
943,2	-39,253
943,6	-41,613
944	-41,413
944,4	-48,533
944,9	-45,013
945,3	-46,893
945,7	-50,013
946,1	-52,093
946,6	-53,253
947	-50,933
947,4	-54,093
947,8	-46,653
948,2	-43,813
948,7	-38,173
949,1	-35,133
949,5	-29,933
949,9	-35,133
950,3	-36,373
950,8	-36,053
951,2	-41,133
951,6	-41,893
952	-41,373
952,5	-36,573
952,9	-35,133
953,3	-39,573
953,7	-41,013
954,1	-38,293
954,6	-44,133
955	-45,333
955,4	-38,853
955,8	-38,493
956,2	-42,613
956,7	-44,373
957,1	-46,853
957,5	-55,893
957,9	-52,053
958,3	-48,413
958,8	-45,933
959,2	-43,813
959,6	-40,093
960	-49,133
960,5	-44,853
960,9	-48,093
961,3	-46,133
961,7	-40,213
962,1	-37,333
962,6	-38,013
963	-28,853
963,4	-28,893
963,8	-26,893
964,2	-32,373
964,7	-35,653
965,1	-46,133
965,5	-53,893
965,9	-61,453
966,3	-53,533
966,8	-49,293
967,2	-43,693
967,6	-38,733
968	-38,533
968,4	-39,893
968,9	-46,253
969,3	-41,453
969,7	-42,613
970,1	-45,293
970,5	-46,653
971	-42,933
971,4	-49,253
971,8	-47,373
972,2	-39,893
972,6	-39,853
973,1	-44,973
973,5	-41,213
973,9	-43,173
974,3	-46,173
974,7	-44,293
975,2	-39,573
975,6	-43,133
976	-42,293
976,4	-42,733
976,8	-37,573
977,3	-42,053
977,7	-40,773
978,1	-40,813
978,5	-41,853
978,9	-52,893
979,4	-46,213
979,8	-44,093
980,2	-43,653
980,6	-42,293
981	-34,933
981,5	-38,453
981,9	-42,213
982,3	-39,853
982,7	-40,213
983,1	-45,813
983,6	-40,493
984	-35,293
984,4	-36,093
984,8	-30,653
985,2	-27,133
985,6	-33,293
986,1	-39,613
986,5	-40,693
986,9	-46,933
987,3	-50,973
987,7	-46,173
988,2	-44,813
988,6	-44,613
989	-45,973
989,4	-50,053
989,8	-57,373
990,3	-60,613
990,7	-66,573
991,1	-59,893
991,5	-52,013
991,9	-48,373
992,3	-45,573
992,8	-40,453
993,2	-40,413
993,6	-43,133
994	-43,533
994,4	-44,653
994,9	-45,053
995,3	-48,693
995,7	-49,253
996,1	-47,493
996,5	-40,853
996,9	-44,373
997,4	-44,093
997,8	-47,893
998,2	-48,053
998,6	-53,533
999	-47,133
999,5	-48,613
999,9	-44,573
1000,3	-43,573
1000,7	-44,453
1001,1	-46,893
1001,5	-49,333
1002	-48,653
1002,4	-52,373
1002,8	-49,973
1003,2	-50,613
1003,6	-48,133
1004	-38,853
1004,5	-37,453
1004,9	-36,973
1005,3	-39,253
1005,7	-40,973
1006,1	-52,293
1006,6	-54,973
1007	-56,733
1007,4	-51,773
1007,8	-49,333
1008,2	-44,973
1008,6	-42,733
1009,1	-45,453
1009,5	-51,213
1009,9	-57,613
1010,3	-55,893
1010,7	-53,813
1011,1	-48,613
1011,6	-40,693
1012	-35,533
1012,4	-37,493
1012,8	-42,173
1013,2	-47,333
1013,6	-54,413
1014,1	-51,773
1014,5	-50,053
1014,9	-42,093
1015,3	-38,413
1015,7	-32,933
1016,1	-37,973
1016,6	-45,173
1017	-50,533
1017,4	-50,053
1017,8	-52,933
1018,2	-42,493
1018,6	-43,933
1019,1	-46,533
1019,5	-42,853
1019,9	-41,973
1020,3	-54,893
1020,7	-49,813
1021,1	-51,093
1021,6	-54,253
1022	-52,413
1022,4	-44,973
1022,8	-45,133
1023,2	-44,293
1023,6	-46,693
1024,1	-49,853
1024,5	-50,413
1024,9	-52,653
1025,3	-52,173
1025,7	-48,813
1026,1	-47,453
1026,6	-46,973
1027	-44,093
1027,4	-48,093
1027,8	-47,493
1028,2	-50,573
1028,6	-52,813
1029	-51,453
1029,5	-47,773
1029,9	-49,173
1030,3	-50,173
1030,7	-48,893
1031,1	-51,693
1031,5	-56,813
1032	-64,093
1032,4	-60,813
1032,8	-62,493
1033,2	-63,933
1033,6	-58,693
1034	-52,493
1034,4	-53,893
1034,9	-54,373
1035,3	-55,893
1035,7	-56,253
1036,1	-54,653
1036,5	-50,133
1036,9	-48,613
1037,4	-50,053
1037,8	-43,013
1038,2	-49,773
1038,6	-53,533
1039	-56,733
1039,4	-49,693
1039,8	-59,173
1040,3	-62,973
1040,7	-63,813
1041,1	-64,733
1041,5	-71,413
1041,9	-64,813
1042,3	-63,493
1042,7	-63,293
1043,2	-59,013
1043,6	-54,853
1044	-60,093
1044,4	-51,133
1044,8	-44,453
1045,2	-48,453
1045,6	-45,133
1046,1	-39,893
1046,5	-40,773
1046,9	-54,173
1047,3	-51,653
1047,7	-54,173
1048,1	-57,653
1048,5	-65,773
1049	-63,893
1049,4	-63,373
1049,8	-62,213
1050,2	-57,133
1050,6	-46,733
1051	-39,093
1051,4	-37,293
1051,9	-42,253
1052,3	-47,693
1052,7	-56,133
1053,1	-58,893
1053,5	-66,293
1053,9	-65,533
1054,3	-69,893
1054,8	-71,733
1055,2	-69,093
1055,6	-64,133
1056	-63,053
1056,4	-61,853
1056,8	-57,173
1057,2	-56,293
1057,6	-55,613
1058,1	-56,213
1058,5	-50,613
1058,9	-52,453
1059,3	-55,413
1059,7	-62,533
1060,1	-60,893
1060,5	-62,693
1061	-64,413
1061,4	-61,133
1061,8	-48,173
1062,2	-49,013
1062,6	-48,573
1063	-46,373
1063,4	-54,293
1063,8	-56,653
1064,3	-53,453
1064,7	-52,133
1065,1	-48,973
1065,5	-35,373
1065,9	-36,493
1066,3	-40,293
1066,7	-42,493
1067,1	-46,933
1067,6	-52,773
1068	-54,533
1068,4	-47,373
1068,8	-46,333
1069,2	-39,573
1069,6	-44,573
1070	-39,893
1070,4	-51,173
1070,9	-56,693
1071,3	-56,453
1071,7	-55,053
1072,1	-65,333
1072,5	-57,453
1072,9	-50,693
1073,3	-58,733
1073,7	-59,453
1074,2	-55,653
1074,6	-55,413
1075	-55,013
1075,4	-44,973
1075,8	-43,253
1076,2	-47,013
1076,6	-47,013
1077	-47,933
1077,5	-58,173
1077,9	-58,733
1078,3	-50,493
1078,7	-48,653
1079,1	-48,213
1079,5	-41,253
1079,9	-39,893
1080,3	-45,453
1080,7	-47,013
1081,2	-50,133
1081,6	-45,453
1082	-47,053
1082,4	-40,613
1082,8	-39,733
1083,2	-32,613
1083,6	-36,893
1084	-32,573
1084,5	-37,693
1084,9	-39,893
1085,3	-43,973
1085,7	-43,973
1086,1	-47,773
1086,5	-48,973
1086,9	-53,853
1087,3	-57,053
1087,7	-58,733
1088,2	-56,333
1088,6	-51,573
1089	-52,773
1089,4	-49,653
1089,8	-46,813
1090,2	-51,853
1090,6	-49,613
1091	-42,573
1091,4	-44,453
1091,9	-47,053
1092,3	-45,013
1092,7	-44,893
1093,1	-44,373
1093,5	-42,893
1093,9	-41,293
1094,3	-37,613
1094,7	-39,293
1095,1	-39,893
1095,5	-40,813
1096	-41,133
1096,4	-42,133
1096,8	-40,893
1097,2	-35,933
1097,6	-26,693
1098	-24,853
1098,4	-27,773
1098,8	-24,973
1099,2	-31,133
1099,6	-36,533
1100,1	-35,813
1100,5	-35,853
1100,9	-39,053
1101,3	-35,333
1101,7	-36,093
1102,1	-41,373
1102,5	-37,733
1102,9	-41,413
1103,3	-46,373
1103,7	-44,413
1104,2	-38,413
1104,6	-38,693
1105	-32,413
1105,4	-28,813
1105,8	-22,773
1106,2	-17,773
1106,6	-10,453
1107	-7,453
1107,4	-0,093
1107,8	-0,383
1108,3	-0,667
