Data from Subt2_00035.txt Node
Date: Fri Aug 11 15:50:18 MSK 2023
User: vat
Spectrometer: MAYP114033
Trigger mode: 0
Integration Time (sec): 5,000000E-1
Scans to average: 5
Electric dark correction enabled: true
Nonlinearity correction enabled: false
Boxcar width: 2
XAxis mode: Wavelengths
Number of Pixels in Spectrum: 2068
>>>>>Begin Spectral Data<<<<<
199,4	-1
199,9	0
200,4	-15,88
200,8	-30,4
201,3	-45,6
201,8	-54,12
202,2	-66,64
202,7	-62,76
203,2	-60,44
203,6	-56,68
204,1	-60,4
204,6	-65,08
205	-68,84
205,5	-73,64
206	-71,96
206,4	-76,76
206,9	-81,88
207,4	-87,08
207,8	-82,84
208,3	-86,36
208,8	-82,12
209,2	-76,6
209,7	-72,6
210,2	-79,96
210,6	-79,12
211,1	-80,76
211,5	-82,72
212	-84,32
212,5	-80,4
212,9	-87,36
213,4	-90,04
213,9	-92,56
214,3	-88,44
214,8	-95,52
215,3	-92,84
215,7	-93,88
216,2	-95,68
216,7	-100
217,1	-92,72
217,6	-95,36
218,1	-94,48
218,5	-91
219	-92,88
219,5	-97,96
219,9	-98,24
220,4	-92,12
220,9	-89,08
221,3	-80,6
221,8	-78,36
222,3	-78,44
222,7	-88,24
223,2	-87,6
223,6	-95,6
224,1	-96,24
224,6	-95,16
225	-98,16
225,5	-100,76
226	-99,68
226,4	-94,28
226,9	-93,8
227,4	-82,2
227,8	-83,56
228,3	-81,04
228,8	-83,08
229,2	-86,56
229,7	-94,84
230,2	-97,16
230,6	-101,12
231,1	-112,12
231,5	-113,88
232	-112,44
232,5	-106,36
232,9	-104,72
233,4	-96,16
233,9	-91,68
234,3	-96,44
234,8	-95,52
235,3	-97,36
235,7	-98,28
236,2	-94,8
236,7	-91,8
237,1	-90,84
237,6	-89,68
238,1	-91,24
238,5	-100,24
239	-98,48
239,4	-102,76
239,9	-100,64
240,4	-98,12
240,8	-88,08
241,3	-91,12
241,8	-97,84
242,2	-99
242,7	-103,84
243,2	-106,76
243,6	-105,92
244,1	-105,44
244,6	-104,76
245	-92,2
245,5	-95
245,9	-94,52
246,4	-86,48
246,9	-90,64
247,3	-99,2
247,8	-93,52
248,3	-86,84
248,7	-88,44
249,2	-81,04
249,7	-78,44
250,1	-83,64
250,6	-85,88
251	-85,56
251,5	-92,04
252	-97,56
252,4	-94,28
252,9	-98,8
253,4	-100
253,8	-99,68
254,3	-98,96
254,8	-101,72
255,2	-93,2
255,7	-92,56
256,1	-82,56
256,6	-77,28
257,1	-77,04
257,5	-81,2
258	-84,4
258,5	-91,8
258,9	-92,08
259,4	-91,52
259,9	-96,92
260,3	-95,96
260,8	-98,4
261,2	-101,76
261,7	-106,2
262,2	-105,6
262,6	-107,2
263,1	-108,4
263,6	-102,52
264	-99,16
264,5	-94,28
264,9	-94,28
265,4	-93,8
265,9	-92
266,3	-90,4
266,8	-88,72
267,3	-91,6
267,7	-86,84
268,2	-96,6
268,7	-95,44
269,1	-98,76
269,6	-98,68
270	-98,64
270,5	-96,4
271	-104,76
271,4	-104,12
271,9	-95,52
272,4	-93,32
272,8	-95,24
273,3	-96,28
273,7	-95,28
274,2	-98,92
274,7	-101,8
275,1	-96,96
275,6	-92,56
276,1	-102,04
276,5	-104,52
277	-106,72
277,4	-113,76
277,9	-112,28
278,4	-109
278,8	-102,72
279,3	-107,12
279,8	-101,8
280,2	-98,64
280,7	-93,08
281,1	-92,28
281,6	-84,32
282,1	-87,64
282,5	-96,12
283	-97,2
283,4	-98,64
283,9	-98,56
284,4	-97,36
284,8	-88,72
285,3	-88,68
285,8	-89,08
286,2	-97,32
286,7	-94,68
287,1	-96,28
287,6	-96,52
288,1	-99,76
288,5	-90,68
289	-89,6
289,5	-89,28
289,9	-87,48
290,4	-86,52
290,8	-92,28
291,3	-94,56
291,8	-94,36
292,2	-96,52
292,7	-91,56
293,1	-90,36
293,6	-94,8
294,1	-92,52
294,5	-94,64
295	-97
295,5	-91,44
295,9	-84,76
296,4	-95,8
296,8	-95,6
297,3	-94,68
297,8	-103,48
298,2	-99,6
298,7	-97,88
299,1	-90,72
299,6	-90,96
300,1	-84,2
300,5	-89,76
301	-78,2
301,5	-83,96
301,9	-89,2
302,4	-91,04
302,8	-88,84
303,3	-97,24
303,8	-100,88
304,2	-98,32
304,7	-104,04
305,1	-107,04
305,6	-107,16
306,1	-101,28
306,5	-104,96
307	-93,24
307,4	-90,2
307,9	-84,92
308,4	-85,48
308,8	-82,56
309,3	-91,2
309,8	-91,04
310,2	-89,6
310,7	-90,08
311,1	-90,36
311,6	-87,92
312,1	-91,96
312,5	-93
313	-89,76
313,4	-89,56
313,9	-87,12
314,4	-82,76
314,8	-85,36
315,3	-87,72
315,7	-83,52
316,2	-83,28
316,7	-87,44
317,1	-89,92
317,6	-93,8
318	-92,16
318,5	-101,28
319	-97,68
319,4	-100,08
319,9	-102
320,3	-106,16
320,8	-108,6
321,3	-112,92
321,7	-99,4
322,2	-90,92
322,6	-92,36
323,1	-85,48
323,6	-81,6
324	-86,56
324,5	-90,72
324,9	-89,76
325,4	-85,16
325,9	-83,72
326,3	-88,04
326,8	-85,64
327,2	-85,96
327,7	-91,64
328,2	-90,6
328,6	-86,64
329,1	-88,56
329,5	-85
330	-74,56
330,5	-78,44
330,9	-85,4
331,4	-81,8
331,8	-85,44
332,3	-91,32
332,8	-92,48
333,2	-85,52
333,7	-89,56
334,1	-88,6
334,6	-85,84
335,1	-81,68
335,5	-84,2
336	-90,16
336,4	-87,64
336,9	-93,04
337,4	-93,56
337,8	-92,36
338,3	-84,6
338,7	-86,2
339,2	-84,24
339,7	-84,32
340,1	-87,36
340,6	-84,72
341	-84,24
341,5	-82,92
342	-84,32
342,4	-80,76
342,9	-79,48
343,3	-82,64
343,8	-87,24
344,2	-85,68
344,7	-84,76
345,2	-86,44
345,6	-83,56
346,1	-77
346,5	-80,96
347	-84,6
347,5	-85,72
347,9	-78,96
348,4	-79,8
348,8	-76,52
349,3	-66,92
349,8	-61,64
350,2	-61,2
350,7	-55,36
351,1	-46,72
351,6	-42,08
352	-29,56
352,5	-9,64
353	20,68
353,4	45,36
353,9	80,92
354,3	111,16
354,8	149,6
355,3	194,64
355,7	257,36
356,2	323,84
356,6	407,68
357,1	505,6
357,5	611,8
358	732,36
358,5	867,08
358,9	1034,24
359,4	1211,36
359,8	1406,36
360,3	1639,24
360,8	1895,84
361,2	2166,76
361,7	2471
362,1	2808,4
362,6	3175,56
363	3574,8
363,5	4002,16
364	4442,08
364,4	4901,64
364,9	5350,68
365,3	5795,88
365,8	6224,68
366,3	6627,72
366,7	6977,28
367,2	7290,68
367,6	7530,52
368,1	7709,96
368,5	7825,36
369	7874,64
369,5	7859,16
369,9	7799,16
370,4	7649,76
370,8	7456,76
371,3	7219,6
371,7	6936,52
372,2	6615,36
372,7	6284,68
373,1	5922,2
373,6	5551,52
374	5182,8
374,5	4818,04
374,9	4463,6
375,4	4126,4
375,9	3811,08
376,3	3500,36
376,8	3201,68
377,2	2931,08
377,7	2677,56
378,2	2434,64
378,6	2208,68
379,1	2015,96
379,5	1830,68
380	1671,48
380,4	1527,48
380,9	1395,6
381,4	1268,28
381,8	1155,24
382,3	1049,2
382,7	952,2
383,2	874,68
383,6	800,28
384,1	738,16
384,6	675,8
385	624,12
385,5	570,76
385,9	526,8
386,4	483,76
386,8	443,32
387,3	401,28
387,7	360
388,2	326,32
388,7	294
389,1	259,08
389,6	230,04
390	208,8
390,5	180,76
390,9	156,92
391,4	140,08
391,9	120,12
392,3	106,68
392,8	95,08
393,2	81,64
393,7	65,68
394,1	63,36
394,6	46,76
395,1	40,64
395,5	32,88
396	30,08
396,4	18,84
396,9	13,04
397,3	-1,92
397,8	-9,76
398,2	-17
398,7	-23,6
399,2	-28,64
399,6	-31,6
400,1	-34,08
400,5	-37,52
401	-36,64
401,4	-38,68
401,9	-33,08
402,4	-39,24
402,8	-45,76
403,3	-48,96
403,7	-51,56
404,2	-61,56
404,6	-65,76
405,1	-61,12
405,5	-61,72
406	-59,44
406,5	-60,48
406,9	-53,44
407,4	-54,36
407,8	-61,04
408,3	-59,88
408,7	-61,12
409,2	-55,96
409,6	-60,08
410,1	-57,8
410,6	-65,16
411	-64,48
411,5	-72,28
411,9	-66,68
412,4	-62,12
412,8	-61,72
413,3	-64,36
413,7	-60,32
414,2	-58,36
414,7	-63,72
415,1	-57,32
415,6	-50,4
416	-47,16
416,5	-48,88
416,9	-44,6
417,4	-44,76
417,8	-39,36
418,3	-44,96
418,8	-41,08
419,2	-39,6
419,7	-33,76
420,1	-41,16
420,6	-37,4
421	-45,68
421,5	-39,24
421,9	-42,36
422,4	-38,28
422,8	-35
423,3	-24,56
423,8	-26,16
424,2	-22,8
424,7	-15,76
425,1	-13,32
425,6	-7,84
426	-9,08
426,5	-4,52
426,9	-9,44
427,4	-5,48
427,9	-8,84
428,3	-4,28
428,8	-3,12
429,2	1,48
429,7	10,52
430,1	16,92
430,6	24,56
431	35,08
431,5	48,12
431,9	43,88
432,4	45,08
432,8	49,84
433,3	58,28
433,8	57,28
434,2	67,16
434,7	83,96
435,1	91,92
435,6	93,88
436	101,84
436,5	109,12
436,9	114,48
437,4	125,96
437,8	136,56
438,3	146,68
438,8	152,88
439,2	157,16
439,7	164,36
440,1	170,4
440,6	171,56
441	179,12
441,5	190,08
441,9	197,44
442,4	202,56
442,8	221,48
443,3	232,72
443,7	242
444,2	257,48
444,7	270,84
445,1	285,88
445,6	307,84
446	328,28
446,5	341,08
446,9	358,36
447,4	374,88
447,8	380,32
448,3	388,8
448,7	401,84
449,2	417,36
449,6	428,52
450,1	452,08
450,6	462,2
451	477,56
451,5	488,12
451,9	500,52
452,4	517,52
452,8	552,2
453,3	566,32
453,7	585,64
454,2	615,2
454,6	633,32
455,1	642,12
455,5	671,72
456	693,36
456,4	699,08
456,9	713,92
457,3	740,8
457,8	760,68
458,3	788,68
458,7	817,32
459,2	848,68
459,6	867,28
460,1	892,52
460,5	914,76
461	945
461,4	970,68
461,9	998,52
462,3	1022,08
462,8	1047,32
463,2	1077,92
463,7	1096,12
464,1	1127,72
464,6	1156,08
465	1180,72
465,5	1196,72
466	1225,96
466,4	1249,48
466,9	1272,92
467,3	1302,4
467,8	1326,44
468,2	1349,08
468,7	1366,28
469,1	1384,04
469,6	1404,88
470	1434,08
470,5	1459,12
470,9	1482,96
471,4	1504,44
471,8	1520,84
472,3	1533,72
472,7	1551,24
473,2	1569,08
473,6	1586,16
474,1	1600,36
474,5	1621,36
475	1637,52
475,4	1653,76
475,9	1676,36
476,4	1695,68
476,8	1714,52
477,3	1731,6
477,7	1737,24
478,2	1740,4
478,6	1753,76
479,1	1769,48
479,5	1778,28
480	1798
480,4	1817,16
480,9	1828,92
481,3	1831,64
481,8	1837,56
482,2	1844,8
482,7	1852,48
483,1	1855,04
483,6	1859,68
484	1867,84
484,5	1870,04
484,9	1865,8
485,4	1873,76
485,8	1869,88
486,3	1867,04
486,7	1869,64
487,2	1867,84
487,6	1860,56
488,1	1859,76
488,5	1862,32
489	1857,04
489,4	1858,32
489,9	1853,6
490,4	1846,96
490,8	1833,32
491,3	1829,32
491,7	1824
492,2	1821,72
492,6	1812,16
493,1	1810,68
493,5	1795,6
494	1779,12
494,4	1760,28
494,9	1755,84
495,3	1744,32
495,8	1734,6
496,2	1734,56
496,7	1731,16
497,1	1715,88
497,6	1703,68
498	1688,88
498,5	1667,4
498,9	1651,4
499,4	1637,68
499,8	1620,52
500,3	1610,04
500,7	1592,88
501,2	1580,2
501,6	1561,44
502,1	1550,28
502,5	1533,36
503	1525,24
503,4	1506,44
503,9	1501,8
504,3	1486,8
504,8	1478,64
505,2	1464,92
505,7	1455,4
506,1	1441,6
506,6	1425,12
507	1406
507,5	1393,6
507,9	1377,32
508,4	1363,92
508,8	1353,64
509,3	1341,84
509,7	1319,88
510,2	1308,88
510,6	1293,08
511,1	1278,84
511,5	1269,44
512	1257,6
512,4	1239,44
512,9	1224,72
513,3	1206,56
513,8	1191,52
514,2	1186,88
514,7	1166,12
515,1	1155,84
515,6	1142,12
516	1130,56
516,5	1103,84
516,9	1096,88
517,4	1074,12
517,8	1061,64
518,3	1046,96
518,7	1041,68
519,2	1028,24
519,6	1018,36
520,1	1004
520,5	993,4
521	977,6
521,4	961,32
521,9	949,12
522,3	933,12
522,8	919,16
523,2	910,68
523,7	908,12
524,1	900,32
524,6	892,92
525	876,56
525,5	865,52
525,9	858,92
526,4	844,52
526,8	833,88
527,3	821,96
527,7	809,6
528,2	786,56
528,6	778,28
529,1	765,32
529,5	758,4
530	750,4
530,4	749,32
530,9	741,12
531,3	735,24
531,8	728,24
532,2	716,48
532,6	702,92
533,1	688,32
533,5	675,12
534	661,4
534,4	655,28
534,9	646,64
535,3	652,12
535,8	647,64
536,2	638,8
536,7	632,28
537,1	622,24
537,6	604,84
538	595,16
538,5	588
538,9	575,44
539,4	576,52
539,8	565,52
540,3	559,56
540,7	554,8
541,2	546,4
541,6	540,36
542,1	540,68
542,5	535,6
543	529,16
543,4	526,36
543,9	515,24
544,3	505,36
544,8	502,8
545,2	501,92
545,7	498,88
546,1	494,36
546,5	494,32
547	484,16
547,4	480,96
547,9	473,04
548,3	465,04
548,8	456,12
549,2	456,76
549,7	447,64
550,1	445,2
550,6	439,2
551	433,88
551,5	432,24
551,9	426,8
552,4	421,44
552,8	417,8
553,3	414,16
553,7	404,68
554,2	398,24
554,6	403,8
555,1	400,04
555,5	398,64
555,9	395,96
556,4	398
556,8	387,68
557,3	381,36
557,7	377,6
558,2	373,52
558,6	364,44
559,1	353,6
559,5	356,92
560	348,64
560,4	343,64
560,9	340,56
561,3	342,08
561,8	336,72
562,2	338,72
562,7	330,48
563,1	329,76
563,6	329,32
564	329,92
564,4	329,96
564,9	334,72
565,3	324,28
565,8	320,68
566,2	317,28
566,7	310,36
567,1	304,6
567,6	309,84
568	305,44
568,5	299,12
568,9	288,92
569,4	286,8
569,8	280,8
570,3	279,52
570,7	274,12
571,1	274,48
571,6	274,16
572	278,68
572,5	271,96
572,9	277,64
573,4	281,36
573,8	275,16
574,3	262,4
574,7	266,28
575,2	255,44
575,6	245,84
576,1	245
576,5	241,24
576,9	236,08
577,4	235,84
577,8	235,44
578,3	234,32
578,7	240,08
579,2	234,8
579,6	236,68
580,1	234,16
580,5	232,72
581	230,72
581,4	228,4
581,9	222,76
582,3	222,28
582,7	217,84
583,2	206,32
583,6	204,8
584,1	204,44
584,5	200,28
585	196,88
585,4	194,92
585,9	193
586,3	186,68
586,8	184,2
587,2	180,28
587,6	187,96
588,1	188,36
588,5	190,12
589	193,6
589,4	195,16
589,9	195,6
590,3	190,84
590,8	190,2
591,2	183,6
591,7	183,72
592,1	184,52
592,5	180,92
593	171,88
593,4	169,28
593,9	165,36
594,3	153,6
594,8	151,12
595,2	156,6
595,7	165,04
596,1	167,56
596,6	172,76
597	174,96
597,4	173,84
597,9	170,6
598,3	162,96
598,8	160,76
599,2	157,04
599,7	154,48
600,1	150,48
600,6	152,16
601	144,24
601,4	145,76
601,9	141,36
602,3	133,96
602,8	134,2
603,2	127,56
603,7	128,92
604,1	123,28
604,6	125,92
605	126,08
605,4	129,4
605,9	130,64
606,3	140,24
606,8	139,68
607,2	139,4
607,7	137,12
608,1	130,68
608,6	131,92
609	130
609,4	124,16
609,9	130,08
610,3	126,8
610,8	119,08
611,2	117
611,7	119,72
612,1	115,08
612,6	111,48
613	111,68
613,4	115,48
613,9	108,88
614,3	109,76
614,8	114,04
615,2	113,96
615,7	114
616,1	113,72
616,6	111,32
617	108,48
617,4	99,68
617,9	95,76
618,3	91,32
618,8	86,56
619,2	83,72
619,7	89,72
620,1	81,36
620,5	86,12
621	84,48
621,4	85,28
621,9	80,04
622,3	81,96
622,8	79,96
623,2	75,4
623,6	76
624,1	78,68
624,5	78,4
625	75,52
625,4	80,36
625,9	79,4
626,3	80,32
626,8	83,8
627,2	82,44
627,6	85,4
628,1	83,08
628,5	80,92
629	75,32
629,4	70,84
629,9	70,28
630,3	68,2
630,7	66,76
631,2	66,88
631,6	71,56
632,1	71,2
632,5	70,12
633	68,68
633,4	70,6
633,8	62,08
634,3	59
634,7	57,88
635,2	51,48
635,6	47,52
636,1	52,56
636,5	60,44
636,9	54,96
637,4	55,88
637,8	59
638,3	55,68
638,7	41,4
639,2	50,36
639,6	52,16
640	50,28
640,5	52,6
640,9	53,6
641,4	42,44
641,8	39,36
642,2	37,6
642,7	40,44
643,1	33,64
643,6	37,12
644	38,68
644,5	28,32
644,9	31,32
645,3	40,24
645,8	35,64
646,2	36,28
646,7	42,4
647,1	34,92
647,6	25,72
648	29,96
648,4	31,52
648,9	34,6
649,3	32,56
649,8	41,48
650,2	49,76
650,6	45,44
651,1	41,92
651,5	43,44
652	46,2
652,4	34,76
652,9	31,84
653,3	28,4
653,7	27,24
654,2	17,12
654,6	23,28
655,1	21,44
655,5	23,76
655,9	27,2
656,4	22,8
656,8	13,76
657,3	15,76
657,7	12,84
658,2	8,72
658,6	18,12
659	19
659,5	17,64
659,9	14,64
660,4	8,2
660,8	5,76
661,2	4,92
661,7	3
662,1	7,6
662,6	6,48
663	1,68
663,4	3,32
663,9	8,12
664,3	11,68
664,8	19,6
665,2	20,88
665,6	16,84
666,1	13,84
666,5	3,56
667	2,92
667,4	-2,32
667,9	9,08
668,3	1,52
668,7	4,16
669,2	4,48
669,6	9,8
670,1	3,64
670,5	11,4
670,9	9,76
671,4	-0,16
671,8	0,44
672,3	-0,72
672,7	-4,32
673,1	-4,28
673,6	6,6
674	6,48
674,5	4,96
674,9	3,52
675,3	0,76
675,8	-4,2
676,2	-10,16
676,7	-8,44
677,1	-3,68
677,5	-2,32
678	-6,88
678,4	5,88
678,9	1,4
679,3	-5,04
679,7	0,56
680,2	1,8
680,6	-9
681,1	-10,96
681,5	-5,88
681,9	-9,84
682,4	-12,8
682,8	-17,64
683,3	-14,2
683,7	-19,36
684,1	-18,08
684,6	-16,76
685	-17,96
685,5	-26,68
685,9	-27,72
686,3	-31,2
686,8	-29,84
687,2	-25,36
687,7	-21,8
688,1	-15,4
688,5	-12
689	-10,28
689,4	-4,16
689,9	-8,08
690,3	-8,72
690,7	-13,48
691,2	-13,88
691,6	-23,92
692	-15,92
692,5	-16,92
692,9	-13,52
693,4	-16,72
693,8	-11,88
694,2	-11,8
694,7	-10,16
695,1	-16,04
695,6	-17,16
696	-20,56
696,4	-26,24
696,9	-27,6
697,3	-22,96
697,8	-30,2
698,2	-30,04
698,6	-33,96
699,1	-39,32
699,5	-43,52
699,9	-35,64
700,4	-36,84
700,8	-32,8
701,3	-31,96
701,7	-24,2
702,1	-19,48
702,6	-20,4
703	-18,12
703,5	-20,96
703,9	-31
704,3	-33,68
704,8	-35,36
705,2	-37,24
705,6	-36,04
706,1	-32,4
706,5	-37,12
707	-36,44
707,4	-31,56
707,8	-31,84
708,3	-30,52
708,7	-35,84
709,2	-36,64
709,6	-43,48
710	-48,12
710,5	-51,96
710,9	-45,96
711,3	-44,92
711,8	-43,08
712,2	-34,36
712,7	-33,68
713,1	-35,28
713,5	-29,44
714	-29,8
714,4	-35,64
714,8	-39,96
715,3	-38,96
715,7	-38,4
716,2	-41,84
716,6	-39,68
717	-33,16
717,5	-33,44
717,9	-38,6
718,3	-39,6
718,8	-33
719,2	-37,28
719,7	-40,04
720,1	-39,92
720,5	-32,4
721	-41,28
721,4	-36,56
721,8	-34,04
722,3	-39,96
722,7	-48,96
723,2	-45,76
723,6	-48,52
724	-48,44
724,5	-42,72
724,9	-38,4
725,3	-41
725,8	-43,64
726,2	-42,36
726,7	-43,64
727,1	-48,88
727,5	-58,12
728	-58,32
728,4	-67,52
728,8	-64,8
729,3	-56,72
729,7	-45,72
730,1	-39,28
730,6	-32,04
731	-37,32
731,5	-38,44
731,9	-44,2
732,3	-47,6
732,8	-52,76
733,2	-44,76
733,6	-45,64
734,1	-44,6
734,5	-46,2
734,9	-36,72
735,4	-41,56
735,8	-41,96
736,3	-42,56
736,7	-42,64
737,1	-49,12
737,6	-47,68
738	-51,84
738,4	-53,24
738,9	-51,76
739,3	-49,4
739,7	-57,24
740,2	-62,24
740,6	-58,56
741,1	-60,4
741,5	-60
741,9	-54,88
742,4	-43,36
742,8	-42,68
743,2	-51,72
743,7	-54,08
744,1	-54,84
744,5	-59,88
745	-63,2
745,4	-50,52
745,8	-49
746,3	-45,4
746,7	-49,68
747,2	-47,76
747,6	-55,36
748	-58,44
748,5	-67,16
748,9	-58,12
749,3	-54,12
749,8	-50,36
750,2	-53,28
750,6	-52,16
751,1	-60,24
751,5	-63,88
751,9	-62,72
752,4	-56,8
752,8	-51,76
753,3	-45,24
753,7	-45,88
754,1	-51
754,6	-52,92
755	-51,96
755,4	-53,16
755,9	-57,12
756,3	-57,52
756,7	-50,6
757,2	-55,6
757,6	-58,84
758	-54,52
758,5	-47,92
758,9	-51,48
759,3	-48,28
759,8	-46,68
760,2	-49,88
760,6	-52,84
761,1	-56,96
761,5	-62,36
761,9	-68,32
762,4	-64,2
762,8	-65,8
763,3	-68,52
763,7	-66,72
764,1	-63,96
764,6	-63,32
765	-61,24
765,4	-54,48
765,9	-50,72
766,3	-53,56
766,7	-56,92
767,2	-57,96
767,6	-67,48
768	-71,88
768,5	-62,84
768,9	-59,52
769,3	-62,04
769,8	-55,96
770,2	-55,52
770,6	-62,08
771,1	-66,4
771,5	-67,36
771,9	-63,56
772,4	-63,16
772,8	-63,64
773,2	-63,04
773,7	-57,32
774,1	-65,92
774,5	-64,76
775	-64,72
775,4	-64,4
775,8	-66,48
776,3	-65,2
776,7	-64,48
777,1	-54,84
777,6	-59,6
778	-58,48
778,4	-51,6
778,9	-49,64
779,3	-66
779,7	-58,56
780,2	-63,88
780,6	-70,52
781	-72,28
781,5	-68,4
781,9	-79,56
782,3	-80,84
782,8	-75,28
783,2	-76,72
783,6	-75,56
784,1	-68,04
784,5	-64,08
784,9	-74,28
785,4	-71,12
785,8	-71,72
786,2	-75,76
786,7	-75,64
787,1	-67,64
787,5	-78,72
788	-73,12
788,4	-74
788,8	-79,44
789,3	-80,04
789,7	-73,68
790,1	-76,68
790,6	-70
791	-66,88
791,4	-68,16
791,9	-65,44
792,3	-70,96
792,7	-69,72
793,2	-65,32
793,6	-64,12
794	-61,48
794,5	-55,56
794,9	-64
795,3	-72,92
795,8	-72,96
796,2	-78,56
796,6	-76,64
797,1	-66,36
797,5	-65,04
797,9	-67,64
798,4	-65,4
798,8	-68,4
799,2	-72,28
799,7	-70,08
800,1	-71,4
800,5	-70,56
801	-73,28
801,4	-72,48
801,8	-65
802,2	-67,76
802,7	-68,16
803,1	-66,56
803,5	-74,56
804	-80,2
804,4	-79,72
804,8	-79,24
805,3	-74,44
805,7	-76,92
806,1	-75,72
806,6	-71,04
807	-74,72
807,4	-82,12
807,9	-72,24
808,3	-73,16
808,7	-80,32
809,2	-78,44
809,6	-75,92
810	-75,6
810,4	-78,92
810,9	-72,48
811,3	-72,52
811,7	-75,28
812,2	-80,68
812,6	-79,8
813	-76,4
813,5	-71,04
813,9	-61,88
814,3	-59,64
814,8	-57,16
815,2	-60
815,6	-65,96
816,1	-71,96
816,5	-74
816,9	-77,8
817,3	-83,4
817,8	-85,12
818,2	-81,76
818,6	-83
819,1	-84,96
819,5	-80,52
819,9	-79,04
820,4	-80,12
820,8	-74,56
821,2	-69,24
821,7	-67,92
822,1	-64,44
822,5	-67,4
822,9	-73,32
823,4	-75,96
823,8	-81,84
824,2	-85,6
824,7	-86,84
825,1	-85,48
825,5	-83,52
826	-81,96
826,4	-84,48
826,8	-81,64
827,3	-81
827,7	-81,56
828,1	-83,76
828,5	-85,28
829	-88,44
829,4	-86,8
829,8	-86,6
830,3	-83,6
830,7	-83,04
831,1	-85,28
831,6	-88,52
832	-90,4
832,4	-87,2
832,8	-85,56
833,3	-82,64
833,7	-79,8
834,1	-85,6
834,6	-90,52
835	-93,72
835,4	-92,4
835,8	-90,64
836,3	-83,4
836,7	-81
837,1	-77,36
837,6	-75,68
838	-72,28
838,4	-72,72
838,9	-71,56
839,3	-71,48
839,7	-71,88
840,1	-80,08
840,6	-82,92
841	-79,88
841,4	-84,56
841,9	-85,4
842,3	-83,24
842,7	-82,16
843,1	-87,52
843,6	-76,72
844	-79,04
844,4	-76,8
844,9	-82,2
845,3	-77,92
845,7	-86,16
846,2	-80,88
846,6	-79,64
847	-77,04
847,4	-81,48
847,9	-79,92
848,3	-87,12
848,7	-88,96
849,2	-85,68
849,6	-85,4
850	-83,76
850,4	-83
850,9	-84,96
851,3	-79,28
851,7	-84
852,2	-87,64
852,6	-89,16
853	-89,92
853,4	-99,68
853,9	-97,84
854,3	-95,84
854,7	-88,44
855,2	-86,08
855,6	-83,68
856	-83,72
856,4	-86,48
856,9	-89,08
857,3	-93,96
857,7	-93,2
858,2	-89,52
858,6	-90,04
859	-92,88
859,4	-96,32
859,9	-98,68
860,3	-98,44
860,7	-92,08
861,1	-92,92
861,6	-86,6
862	-81,52
862,4	-81,72
862,9	-84,4
863,3	-77,36
863,7	-76,44
864,1	-80,92
864,6	-78,68
865	-79,12
865,4	-82,04
865,9	-84,04
866,3	-82,12
866,7	-83,44
867,1	-85,12
867,6	-88,72
868	-90,2
868,4	-99,48
868,8	-104,56
869,3	-109,6
869,7	-103,48
870,1	-99,68
870,6	-88,88
871	-83,08
871,4	-144,24
871,8	-145,24
872,3	-149,6
872,7	-152,04
873,1	-156,44
873,5	-92,84
874	-97,96
874,4	-95,96
874,8	-97,72
875,3	-99,48
875,7	-92,92
876,1	-93,88
876,5	-95,48
877	-94,4
877,4	-90,76
877,8	-90,76
878,2	-85,08
878,7	-82,88
879,1	-80,72
879,5	-78,24
879,9	-79,56
880,4	-85,24
880,8	-89,96
881,2	-94,56
881,7	-95,84
882,1	-94,84
882,5	-95,56
882,9	-85,52
883,4	-77,04
883,8	-79,6
884,2	-86,96
884,6	-88,76
885,1	-96,36
885,5	-101,76
885,9	-94,68
886,3	-96,04
886,8	-92,72
887,2	-89,84
887,6	-91,44
888	-102,52
888,5	-94,04
888,9	-97
889,3	-104,12
889,8	-101,72
890,2	-88,36
890,6	-87,04
891	-80,24
891,5	-70,88
891,9	-71,56
892,3	-78,8
892,7	-82,92
893,2	-87,4
893,6	-90,72
894	-90,32
894,4	-92,24
894,9	-88,28
895,3	-90,72
895,7	-91,6
896,1	-88,8
896,6	-91,4
897	-90,08
897,4	-89,88
897,8	-87,8
898,3	-97,48
898,7	-97,72
899,1	-102,12
899,5	-97,2
900	-100,36
900,4	-92,36
900,8	-90,44
901,2	-93
901,7	-96,68
902,1	-97,36
902,5	-100,72
902,9	-97,52
903,4	-99,68
903,8	-100,16
904,2	-96,36
904,6	-90,52
905,1	-91,12
905,5	-90,56
905,9	-87,96
906,3	-83,8
906,8	-85,64
907,2	-85,16
907,6	-78,08
908	-75,08
908,5	-82
908,9	-81,48
909,3	-83,8
909,7	-90
910,2	-88,52
910,6	-85,44
911	-85,8
911,4	-81,92
911,9	-83,24
912,3	-87,36
912,7	-90,76
913,1	-92,6
913,6	-99,08
914	-92,48
914,4	-94,68
914,8	-90,56
915,3	-89,64
915,7	-85,44
916,1	-92,84
916,5	-89,52
916,9	-89,44
917,4	-93,36
917,8	-92,76
918,2	-88,72
918,6	-86,36
919,1	-90,52
919,5	-87,04
919,9	-90,72
920,3	-88,84
920,8	-94,28
921,2	-87,72
921,6	-92
922	-92,48
922,5	-96,6
922,9	-99,08
923,3	-98,04
923,7	-92,8
924,2	-93,96
924,6	-89,64
925	-78
925,4	-87,32
925,8	-89,32
926,3	-86,08
926,7	-82,16
927,1	-89,28
927,5	-91,68
928	-90,04
928,4	-86,68
928,8	-94,8
929,2	-93,2
929,7	-88,76
930,1	-90,12
930,5	-93,36
930,9	-91,24
931,3	-94,04
931,8	-97
932,2	-96,48
932,6	-98,48
933	-95,8
933,5	-92,6
933,9	-90,44
934,3	-90,08
934,7	-86,16
935,2	-85,44
935,6	-88,4
936	-91,08
936,4	-95,28
936,8	-96,76
937,3	-97,04
937,7	-100,28
938,1	-92,68
938,5	-87,6
939	-86,72
939,4	-90,64
939,8	-87,56
940,2	-92,64
940,6	-96,08
941,1	-98,44
941,5	-96,28
941,9	-96,36
942,3	-99,52
942,8	-101,52
943,2	-102,08
943,6	-106,52
944	-110,6
944,4	-108,52
944,9	-107
945,3	-108,84
945,7	-110,12
946,1	-105,56
946,6	-105,56
947	-104,04
947,4	-100,52
947,8	-97,52
948,2	-97,16
948,7	-87,88
949,1	-87,92
949,5	-88,32
949,9	-82,08
950,3	-85,32
950,8	-88,48
951,2	-85,88
951,6	-92,24
952	-94,8
952,5	-89,52
952,9	-91,2
953,3	-98,36
953,7	-93,16
954,1	-87
954,6	-91,52
955	-91,04
955,4	-89,48
955,8	-79,76
956,2	-92,76
956,7	-90,12
957,1	-90,6
957,5	-86,44
957,9	-98,92
958,3	-94,92
958,8	-97,08
959,2	-93
959,6	-96,24
960	-92,48
960,5	-93
960,9	-91,12
961,3	-98,48
961,7	-103,92
962,1	-98,92
962,6	-96,2
963	-97,84
963,4	-98,16
963,8	-88,44
964,2	-98,12
964,7	-98,64
965,1	-101,2
965,5	-100,88
965,9	-103,2
966,3	-98,32
966,8	-99,88
967,2	-93,24
967,6	-88,92
968	-88,48
968,4	-83,72
968,9	-86,16
969,3	-91,68
969,7	-97,8
970,1	-95,48
970,5	-98,2
971	-91
971,4	-92,68
971,8	-87,32
972,2	-92,64
972,6	-94,08
973,1	-100,64
973,5	-94,12
973,9	-99,36
974,3	-97,4
974,7	-95,6
975,2	-92,12
975,6	-98,52
976	-97,12
976,4	-96,12
976,8	-99,32
977,3	-106,28
977,7	-100,2
978,1	-98,32
978,5	-97,32
978,9	-95,6
979,4	-94,64
979,8	-100,32
980,2	-99,84
980,6	-100,44
981	-98
981,5	-97,32
981,9	-91,72
982,3	-90,52
982,7	-85,2
983,1	-88,28
983,6	-81,72
984	-82,32
984,4	-88,2
984,8	-92,76
985,2	-97,32
985,6	-100,04
986,1	-94,6
986,5	-89,44
986,9	-90,4
987,3	-88
987,7	-87,04
988,2	-92,28
988,6	-96,24
989	-99,96
989,4	-101,48
989,8	-106,4
990,3	-112,04
990,7	-104,6
991,1	-103,72
991,5	-97,12
991,9	-95
992,3	-90,48
992,8	-94,6
993,2	-95,92
993,6	-98,16
994	-95,16
994,4	-95,4
994,9	-93,16
995,3	-92,68
995,7	-96,12
996,1	-93,76
996,5	-95,44
996,9	-98
997,4	-98,76
997,8	-101,08
998,2	-102,16
998,6	-101,76
999	-105,48
999,5	-104,56
999,9	-100,08
1000,3	-100,4
1000,7	-101,96
1001,1	-102,32
1001,5	-98,32
1002	-97,48
1002,4	-102,64
1002,8	-100,08
1003,2	-95,92
1003,6	-91,88
1004	-93,48
1004,5	-87,04
1004,9	-82,2
1005,3	-84,08
1005,7	-91,52
1006,1	-86,04
1006,6	-94,12
1007	-92,12
1007,4	-92,72
1007,8	-87,68
1008,2	-95,92
1008,6	-94,64
1009,1	-99,8
1009,5	-97,32
1009,9	-102,72
1010,3	-99,04
1010,7	-100,56
1011,1	-97,04
1011,6	-96,44
1012	-100
1012,4	-99,6
1012,8	-96,68
1013,2	-98,12
1013,6	-96,88
1014,1	-91,68
1014,5	-88,12
1014,9	-84,56
1015,3	-84,8
1015,7	-88,04
1016,1	-88,24
1016,6	-92,28
1017	-90,56
1017,4	-100,76
1017,8	-104,48
1018,2	-108,52
1018,6	-106,56
1019,1	-111,36
1019,5	-106,12
1019,9	-103,04
1020,3	-95,56
1020,7	-100,92
1021,1	-103,08
1021,6	-99,08
1022	-99,52
1022,4	-101,04
1022,8	-101
1023,2	-101,72
1023,6	-99,32
1024,1	-100,28
1024,5	-106,96
1024,9	-105,4
1025,3	-103,52
1025,7	-113,96
1026,1	-116,52
1026,6	-107,56
1027	-109,48
1027,4	-110,6
1027,8	-110,56
1028,2	-109,24
1028,6	-114
1029	-110,04
1029,5	-110
1029,9	-103,72
1030,3	-100,04
1030,7	-102,08
1031,1	-106,28
1031,5	-102,56
1032	-105,4
1032,4	-108,16
1032,8	-104,04
1033,2	-98,44
1033,6	-93,72
1034	-89,08
1034,4	-86,36
1034,9	-91,04
1035,3	-89,4
1035,7	-102,52
1036,1	-106,96
1036,5	-106,72
1036,9	-103,48
1037,4	-115,12
1037,8	-111,48
1038,2	-117,48
1038,6	-120,92
1039	-124,44
1039,4	-120,52
1039,8	-121,24
1040,3	-119,04
1040,7	-117,52
1041,1	-122,04
1041,5	-119,88
1041,9	-119,16
1042,3	-116,36
1042,7	-117,92
1043,2	-112,92
1043,6	-111,48
1044	-109,32
1044,4	-109,44
1044,8	-108,44
1045,2	-111,04
1045,6	-115,72
1046,1	-116,8
1046,5	-124,2
1046,9	-121,8
1047,3	-111,52
1047,7	-113,4
1048,1	-108,32
1048,5	-99,8
1049	-102,24
1049,4	-110
1049,8	-106,36
1050,2	-114,8
1050,6	-111,16
1051	-114
1051,4	-112,4
1051,9	-110,92
1052,3	-111,24
1052,7	-122,76
1053,1	-123,92
1053,5	-121,36
1053,9	-121,04
1054,3	-116,72
1054,8	-109,64
1055,2	-103,36
1055,6	-100,92
1056	-99,32
1056,4	-98,84
1056,8	-99,2
1057,2	-106,24
1057,6	-117,84
1058,1	-115,84
1058,5	-115,48
1058,9	-116,44
1059,3	-111,64
1059,7	-101
1060,1	-107,48
1060,5	-105,48
1061	-106,12
1061,4	-104,88
1061,8	-107,72
1062,2	-107,72
1062,6	-113,44
1063	-116,16
1063,4	-116
1063,8	-121,56
1064,3	-115,12
1064,7	-108,36
1065,1	-103,04
1065,5	-103,12
1065,9	-100,2
1066,3	-105,64
1066,7	-113,64
1067,1	-113,56
1067,6	-115,6
1068	-113,68
1068,4	-112,6
1068,8	-110,12
1069,2	-109,68
1069,6	-107,48
1070	-104,24
1070,4	-106,4
1070,9	-103,96
1071,3	-103,68
1071,7	-105
1072,1	-105,84
1072,5	-106,96
1072,9	-105,44
1073,3	-97,04
1073,7	-99,72
1074,2	-109,44
1074,6	-102,16
1075	-104,44
1075,4	-111,68
1075,8	-109,12
1076,2	-104,52
1076,6	-103,44
1077	-104,36
1077,5	-107,44
1077,9	-106,12
1078,3	-98,04
1078,7	-99,48
1079,1	-92,72
1079,5	-89,44
1079,9	-88,68
1080,3	-91,76
1080,7	-91,08
1081,2	-93,28
1081,6	-95,16
1082	-92,24
1082,4	-92,2
1082,8	-91,6
1083,2	-97,72
1083,6	-95,24
1084	-99,08
1084,5	-100,28
1084,9	-104,4
1085,3	-98,52
1085,7	-100,28
1086,1	-96,68
1086,5	-97,72
1086,9	-96,96
1087,3	-100,28
1087,7	-99,08
1088,2	-98,52
1088,6	-90,52
1089	-85,8
1089,4	-82,6
1089,8	-79,68
1090,2	-86,04
1090,6	-93,72
1091	-95,04
1091,4	-99,08
1091,9	-106,28
1092,3	-100,28
1092,7	-95,76
1093,1	-99,08
1093,5	-95,84
1093,9	-91,64
1094,3	-91,84
1094,7	-89,32
1095,1	-86,48
1095,5	-87,88
1096	-83,76
1096,4	-85,32
1096,8	-86,4
1097,2	-84,28
1097,6	-77,76
1098	-81,48
1098,4	-75,24
1098,8	-83,04
1099,2	-82,88
1099,6	-80,2
1100,1	-74,04
1100,5	-73,92
1100,9	-65,48
1101,3	-65
1101,7	-72,68
1102,1	-75,56
1102,5	-76,16
1102,9	-73,16
1103,3	-77,84
1103,7	-68,32
1104,2	-65,64
1104,6	-67,36
1105	-66,8
1105,4	-61,32
1105,8	-58
1106,2	-45,52
1106,6	-30,76
1107	-20,12
1107,4	-6,6
1107,8	-0,55
1108,3	-0,4
