Data from Subt2_00009.txt Node
Date: Fri Aug 11 15:21:03 MSK 2023
User: vat
Spectrometer: MAYP114033
Trigger mode: 0
Integration Time (sec): 5,000000E-1
Scans to average: 5
Electric dark correction enabled: true
Nonlinearity correction enabled: false
Boxcar width: 2
XAxis mode: Wavelengths
Number of Pixels in Spectrum: 2068
>>>>>Begin Spectral Data<<<<<
199,4	1,067
199,9	1,333
200,4	0,693
200,8	-0,107
201,3	-0,147
201,8	-3,107
202,2	-0,707
202,7	-2,827
203,2	-1,187
203,6	-1,587
204,1	3,333
204,6	1,413
205	1,813
205,5	-1,147
206	4,053
206,4	-1,427
206,9	-5,827
207,4	-10,067
207,8	-8,787
208,3	-13,067
208,8	-12,027
209,2	-7,827
209,7	-2,627
210,2	-4,947
210,6	-6,347
211,1	-5,587
211,5	-7,347
212	-5,147
212,5	-2,507
212,9	-3,867
213,4	-5,027
213,9	-3,387
214,3	-2,187
214,8	-4,707
215,3	-1,827
215,7	-0,667
216,2	-3,187
216,7	-10,947
217,1	-8,947
217,6	-13,107
218,1	-13,027
218,5	-12,307
219	-6,427
219,5	-9,187
219,9	-4,547
220,4	3,213
220,9	10,013
221,3	5,613
221,8	7,413
222,3	2,773
222,7	-6,747
223,2	-13,667
223,6	-16,747
224,1	-18,147
224,6	-16,547
225	-18,587
225,5	-17,027
226	-14,787
226,4	-15,267
226,9	-11,187
227,4	-5,987
227,8	-7,027
228,3	-2,587
228,8	-3,667
229,2	-5,307
229,7	-8,507
230,2	-10,147
230,6	-14,947
231,1	-14,587
231,5	-19,547
232	-19,627
232,5	-14,347
232,9	-10,147
233,4	-8,707
233,9	-4,947
234,3	-5,827
234,8	-9,347
235,3	-11,787
235,7	-12,067
236,2	-10,227
236,7	-9,547
237,1	-10,707
237,6	-8,107
238,1	-10,187
238,5	-13,307
239	-8,987
239,4	-0,067
239,9	0,973
240,4	1,893
240,8	1,333
241,3	-4,987
241,8	-13,307
242,2	-15,947
242,7	-15,427
243,2	-16,107
243,6	-10,707
244,1	-11,547
244,6	0,613
245	6,133
245,5	7,093
245,9	5,653
246,4	2,333
246,9	-8,307
247,3	-12,747
247,8	-7,827
248,3	0,013
248,7	6,093
249,2	10,133
249,7	10,853
250,1	8,613
250,6	-1,227
251	1,933
251,5	-2,227
252	-8,107
252,4	-8,867
252,9	-10,827
253,4	-20,147
253,8	-19,827
254,3	-16,987
254,8	-22,907
255,2	-15,907
255,7	-9,347
256,1	-4,027
256,6	1,933
257,1	1,853
257,5	-0,307
258	1,053
258,5	2,733
258,9	0,213
259,4	3,373
259,9	0,053
260,3	-2,907
260,8	-9,307
261,2	-11,627
261,7	-12,147
262,2	-10,147
262,6	-11,467
263,1	-14,587
263,6	-14,067
264	-11,307
264,5	-6,867
264,9	-3,947
265,4	-2,227
265,9	3,173
266,3	2,573
266,8	0,653
267,3	-5,907
267,7	-2,627
268,2	-7,267
268,7	-5,067
269,1	-8,227
269,6	-6,387
270	-5,667
270,5	-6,067
271	-11,947
271,4	-11,067
271,9	-8,867
272,4	-7,627
272,8	-7,707
273,3	-3,187
273,7	-3,507
274,2	-0,987
274,7	-5,507
275,1	-3,627
275,6	-5,067
276,1	-4,427
276,5	-11,787
277	-11,107
277,4	-16,787
277,9	-13,267
278,4	-18,067
278,8	-10,907
279,3	-9,867
279,8	-7,867
280,2	-8,827
280,7	-3,987
281,1	-5,787
281,6	-9,067
282,1	-8,747
282,5	-19,267
283	-16,427
283,4	-14,707
283,9	-14,627
284,4	-13,747
284,8	-6,427
285,3	-8,427
285,8	-12,707
286,2	-13,387
286,7	-9,627
287,1	-8,667
287,6	-10,227
288,1	-3,627
288,5	-3,867
289	-9,227
289,5	-9,107
289,9	-8,947
290,4	-13,107
290,8	-12,387
291,3	-8,507
291,8	-7,427
292,2	-7,147
292,7	-9,587
293,1	-8,547
293,6	-13,787
294,1	-13,547
294,5	-13,147
295	-10,467
295,5	-10,027
295,9	-5,147
296,4	-12,107
296,8	-14,147
297,3	-13,227
297,8	-18,147
298,2	-13,747
298,7	-10,787
299,1	-8,947
299,6	-9,587
300,1	-1,347
300,5	-1,707
301	3,373
301,5	1,853
301,9	-1,507
302,4	-8,187
302,8	-13,387
303,3	-15,787
303,8	-13,547
304,2	-12,027
304,7	-12,667
305,1	-15,187
305,6	-19,747
306,1	-23,387
306,5	-24,667
307	-18,547
307,4	-13,147
307,9	-10,387
308,4	-7,227
308,8	-6,267
309,3	-10,267
309,8	-9,427
310,2	-8,347
310,7	-11,667
311,1	-10,587
311,6	-9,907
312,1	-14,467
312,5	-12,067
313	-6,987
313,4	-9,787
313,9	-3,747
314,4	-1,427
314,8	-4,267
315,3	-7,667
315,7	-3,507
316,2	-7,827
316,7	-10,267
317,1	-12,707
317,6	-12,987
318	-13,067
318,5	-15,307
319	-10,107
319,4	-14,387
319,9	-8,667
320,3	-7,867
320,8	-10,667
321,3	-17,787
321,7	-4,507
322,2	-1,227
322,6	-1,387
323,1	-0,027
323,6	2,773
324	0,013
324,5	-4,507
324,9	-4,747
325,4	4,373
325,9	8,973
326,3	9,533
326,8	9,173
327,2	5,373
327,7	1,853
328,2	2,253
328,6	-2,187
329,1	-5,547
329,5	-0,787
330	1,773
330,5	1,333
330,9	-1,987
331,4	2,613
331,8	-1,747
332,3	-3,467
332,8	-5,347
333,2	-2,827
333,7	-8,987
334,1	-4,147
334,6	-1,947
335,1	2,013
335,5	5,493
336	3,533
336,4	9,173
336,9	3,933
337,4	1,253
337,8	0,373
338,3	5,173
338,7	0,413
339,2	-1,467
339,7	-3,427
340,1	-5,227
340,6	-1,067
341	-3,947
341,5	-5,547
342	-6,987
342,4	2,293
342,9	0,853
343,3	-0,507
343,8	6,533
344,2	7,413
344,7	-0,347
345,2	-3,667
345,6	2,453
346,1	-2,227
346,5	1,413
347	4,053
347,5	4,653
347,9	-2,387
348,4	0,173
348,8	-4,707
349,3	-7,547
349,8	-5,707
350,2	2,213
350,7	-1,027
351,1	1,693
351,6	0,573
352	3,413
352,5	4,293
353	17,213
353,4	20,653
353,9	22,893
354,3	22,773
354,8	22,853
355,3	17,813
355,7	25,813
356,2	35,413
356,6	38,293
357,1	41,413
357,5	54,333
358	54,533
358,5	65,133
358,9	85,333
359,4	103,733
359,8	111,773
360,3	135,933
360,8	156,973
361,2	173,133
361,7	192,533
362,1	224,333
362,6	258,213
363	293,693
363,5	333,653
364	377,933
364,4	414,733
364,9	448,493
365,3	482,333
365,8	513,173
366,3	546,093
366,7	577,733
367,2	603,453
367,6	625,373
368,1	646,493
368,5	655,133
369	657,973
369,5	664,373
369,9	664,373
370,4	658,253
370,8	645,053
371,3	625,693
371,7	603,053
372,2	576,453
372,7	539,533
373,1	512,493
373,6	484,293
374	447,333
374,5	416,213
374,9	396,493
375,4	362,253
375,9	341,253
376,3	317,173
376,8	288,333
377,2	261,133
377,7	241,773
378,2	215,853
378,6	200,413
379,1	186,933
379,5	173,813
380	162,053
380,4	152,653
380,9	138,453
381,4	125,533
381,8	108,493
382,3	96,173
382,7	84,773
383,2	78,693
383,6	70,893
384,1	66,653
384,6	62,093
385	57,293
385,5	49,933
385,9	46,493
386,4	47,813
386,8	45,173
387,3	38,533
387,7	30,053
388,2	29,813
388,7	23,573
389,1	22,013
389,6	24,893
390	28,613
390,5	27,613
390,9	23,813
391,4	19,213
391,9	13,133
392,3	12,733
392,8	7,013
393,2	8,653
393,7	9,693
394,1	9,373
394,6	7,373
395,1	8,773
395,5	9,653
396	9,133
396,4	8,373
396,9	2,013
397,3	1,133
397,8	-3,747
398,2	-4,107
398,7	-2,107
399,2	-4,227
399,6	-8,027
400,1	-6,867
400,5	-7,827
401	-10,387
401,4	-4,427
401,9	2,853
402,4	2,133
402,8	4,893
403,3	8,373
403,7	10,853
404,2	9,333
404,6	8,493
405,1	7,333
405,5	4,133
406	6,213
406,5	7,933
406,9	12,733
407,4	9,813
407,8	11,493
408,3	8,773
408,7	9,253
409,2	12,533
409,6	12,813
410,1	9,853
410,6	10,253
411	8,493
411,5	8,613
411,9	16,213
412,4	30,853
412,8	33,853
413,3	27,333
413,7	33,133
414,2	36,973
414,7	29,133
415,1	36,733
415,6	53,133
416	51,013
416,5	55,413
416,9	67,293
417,4	73,733
417,8	75,053
418,3	78,293
418,8	84,253
419,2	88,133
419,7	95,013
420,1	99,773
420,6	103,733
421	102,453
421,5	109,173
421,9	109,253
422,4	114,453
422,8	124,853
423,3	137,773
423,8	147,453
424,2	155,453
424,7	165,973
425,1	177,253
425,6	187,293
426	190,453
426,5	199,613
426,9	203,453
427,4	209,973
427,9	216,853
428,3	229,293
428,8	238,573
429,2	252,933
429,7	268,653
430,1	278,853
430,6	283,693
431	302,053
431,5	322,653
431,9	330,813
432,4	347,653
432,8	373,933
433,3	395,053
433,8	406,653
434,2	427,613
434,7	451,693
435,1	467,253
435,6	481,013
436	503,933
436,5	528,813
436,9	554,133
437,4	589,973
437,8	620,773
438,3	646,053
438,8	679,533
439,2	707,333
439,7	735,973
440,1	767,813
440,6	804,533
441	833,053
441,5	860,533
441,9	897,413
442,4	936,493
442,8	980,453
443,3	1025,133
443,7	1072,253
444,2	1112,733
444,7	1157,253
445,1	1206,613
445,6	1258,493
446	1312,933
446,5	1373,933
446,9	1427,173
447,4	1475,133
447,8	1520,533
448,3	1573,053
448,7	1618,613
449,2	1674,013
449,6	1728,893
450,1	1794,453
450,6	1851,653
451	1909,613
451,5	1962,613
451,9	2028,773
452,4	2090,693
452,8	2153,493
453,3	2218,733
453,7	2287,693
454,2	2346,853
454,6	2414,133
455,1	2478,813
455,5	2548,973
456	2613,253
456,4	2683,053
456,9	2738,373
457,3	2806,533
457,8	2867,613
458,3	2944,573
458,7	3014,533
459,2	3102,493
459,6	3175,373
460,1	3255,733
460,5	3329,293
461	3406,693
461,4	3469,693
461,9	3545,533
462,3	3614,813
462,8	3688,973
463,2	3757,613
463,7	3828,453
464,1	3895,453
464,6	3961,773
465	4023,053
465,5	4093,453
466	4173,613
466,4	4246,893
466,9	4321,493
467,3	4392,693
467,8	4463,413
468,2	4522,613
468,7	4590,973
469,1	4656,293
469,6	4724,973
470	4783,293
470,5	4842,453
470,9	4899,293
471,4	4958,693
471,8	5013,413
472,3	5062,933
472,7	5110,413
473,2	5162,253
473,6	5219,133
474,1	5269,853
474,5	5324,733
475	5386,453
475,4	5438,973
475,9	5484,173
476,4	5529,853
476,8	5580,573
477,3	5627,093
477,7	5668,893
478,2	5709,293
478,6	5753,813
479,1	5794,533
479,5	5827,053
480	5863,933
480,4	5898,653
480,9	5924,453
481,3	5956,253
481,8	5979,653
482,2	5988,373
482,7	6008,613
483,1	6041,453
483,6	6063,693
484	6084,173
484,5	6110,813
484,9	6125,133
485,4	6128,413
485,8	6136,173
486,3	6147,533
486,7	6171,453
487,2	6185,093
487,6	6200,373
488,1	6207,373
488,5	6223,973
489	6211,093
489,4	6208,733
489,9	6200,013
490,4	6193,373
490,8	6182,613
491,3	6184,253
491,7	6176,013
492,2	6160,213
492,6	6153,453
493,1	6143,533
493,5	6118,493
494	6109,373
494,4	6111,973
494,9	6092,973
495,3	6072,093
495,8	6067,293
496,2	6046,693
496,7	6011,733
497,1	5990,373
497,6	5971,093
498	5944,253
498,5	5923,213
498,9	5899,333
499,4	5868,813
499,8	5834,093
500,3	5810,173
500,7	5771,973
501,2	5751,413
501,6	5724,573
502,1	5698,613
502,5	5669,133
503	5647,973
503,4	5621,893
503,9	5604,333
504,3	5566,733
504,8	5524,093
505,2	5481,853
505,7	5430,173
506,1	5380,813
506,6	5347,733
507	5315,093
507,5	5276,893
507,9	5234,933
508,4	5195,213
508,8	5155,333
509,3	5110,653
509,7	5073,813
510,2	5032,973
510,6	4990,533
511,1	4948,493
511,5	4908,933
512	4865,013
512,4	4835,653
512,9	4800,533
513,3	4756,773
513,8	4718,173
514,2	4673,733
514,7	4630,053
515,1	4591,173
515,6	4545,733
516	4497,453
516,5	4454,973
516,9	4404,013
517,4	4347,333
517,8	4307,213
518,3	4265,293
518,7	4229,573
519,2	4180,773
519,6	4144,013
520,1	4096,533
520,5	4058,453
521	4008,013
521,4	3967,853
521,9	3926,813
522,3	3891,613
522,8	3846,093
523,2	3805,453
523,7	3777,693
524,1	3732,333
524,6	3684,293
525	3646,773
525,5	3605,933
525,9	3567,813
526,4	3534,093
526,8	3491,733
527,3	3448,013
527,7	3413,213
528,2	3364,013
528,6	3323,733
529,1	3299,653
529,5	3264,373
530	3219,773
530,4	3185,293
530,9	3145,253
531,3	3100,053
531,8	3068,213
532,2	3034,893
532,6	2999,693
533,1	2961,573
533,5	2926,013
534	2888,853
534,4	2852,173
534,9	2815,813
535,3	2794,773
535,8	2766,693
536,2	2731,173
536,7	2697,253
537,1	2664,933
537,6	2623,133
538	2586,653
538,5	2549,453
538,9	2528,213
539,4	2506,813
539,8	2477,013
540,3	2442,333
540,7	2425,413
541,2	2391,853
541,6	2357,093
542,1	2335,493
542,5	2323,573
543	2294,093
543,4	2263,893
543,9	2238,213
544,3	2201,653
544,8	2174,893
545,2	2154,653
545,7	2135,693
546,1	2109,133
546,5	2095,333
547	2060,733
547,4	2031,053
547,9	2000,253
548,3	1978,093
548,8	1947,893
549,2	1929,533
549,7	1906,133
550,1	1894,933
550,6	1878,093
551	1860,173
551,5	1839,253
551,9	1819,373
552,4	1794,453
552,8	1771,813
553,3	1746,973
553,7	1727,773
554,2	1707,453
554,6	1692,893
555,1	1672,653
555,5	1660,653
555,9	1644,573
556,4	1631,613
556,8	1611,813
557,3	1594,493
557,7	1570,453
558,2	1552,253
558,6	1529,773
559,1	1517,533
559,5	1503,853
560	1495,973
560,4	1475,893
560,9	1462,733
561,3	1434,453
561,8	1412,853
562,2	1391,653
562,7	1376,893
563,1	1361,453
563,6	1359,293
564	1351,573
564,4	1344,413
564,9	1333,733
565,3	1318,573
565,8	1298,093
566,2	1275,973
566,7	1255,253
567,1	1243,493
567,6	1224,773
568	1216,813
568,5	1206,773
568,9	1189,053
569,4	1170,973
569,8	1163,733
570,3	1145,253
570,7	1135,973
571,1	1127,093
571,6	1126,093
572	1120,293
572,5	1108,453
572,9	1096,853
573,4	1091,413
573,8	1068,533
574,3	1056,933
574,7	1049,213
575,2	1036,093
575,6	1023,653
576,1	1016,053
576,5	996,413
576,9	984,253
577,4	979,573
577,8	968,853
578,3	963,493
578,7	961,613
579,2	953,173
579,6	939,133
580,1	926,413
580,5	914,413
581	898,693
581,4	888,773
581,9	879,013
582,3	865,413
582,7	857,533
583,2	848,493
583,6	837,933
584,1	830,133
584,5	828,453
585	817,013
585,4	810,813
585,9	803,813
586,3	799,253
586,8	794,013
587,2	787,213
587,6	780,253
588,1	773,653
588,5	765,173
589	758,573
589,4	757,253
589,9	754,493
590,3	745,813
590,8	744,613
591,2	734,293
591,7	722,493
592,1	718,773
592,5	715,493
593	696,413
593,4	695,173
593,9	694,773
594,3	684,413
594,8	669,613
595,2	670,613
595,7	664,973
596,1	658,573
596,6	654,293
597	659,213
597,4	658,893
597,9	652,253
598,3	646,333
598,8	639,533
599,2	630,173
599,7	621,653
600,1	613,013
600,6	609,133
601	605,653
601,4	605,973
601,9	604,733
602,3	605,453
602,8	594,173
603,2	586,133
603,7	584,413
604,1	575,573
604,6	569,373
605	571,693
605,4	566,453
605,9	560,253
606,3	559,813
606,8	556,653
607,2	554,133
607,7	555,293
608,1	545,053
608,6	544,893
609	539,613
609,4	531,333
609,9	522,333
610,3	518,253
610,8	505,613
611,2	503,493
611,7	494,973
612,1	497,373
612,6	500,173
613	498,613
613,4	491,413
613,9	487,853
614,3	485,213
614,8	477,013
615,2	474,493
615,7	471,813
616,1	471,773
616,6	465,693
617	464,813
617,4	456,733
617,9	454,133
618,3	448,813
618,8	441,853
619,2	438,773
619,7	444,013
620,1	439,613
620,5	441,653
621	439,573
621,4	438,573
621,9	430,293
622,3	431,613
622,8	426,213
623,2	423,213
623,6	416,733
624,1	417,653
624,5	410,653
625	409,293
625,4	405,613
625,9	403,173
626,3	398,093
626,8	393,373
627,2	386,333
627,6	383,093
628,1	383,133
628,5	380,493
629	380,933
629,4	375,813
629,9	376,533
630,3	371,613
630,7	366,053
631,2	360,573
631,6	360,733
632,1	355,333
632,5	354,973
633	354,573
633,4	354,933
633,8	349,013
634,3	352,133
634,7	345,613
635,2	342,493
635,6	339,253
636,1	342,813
636,5	340,853
636,9	332,293
637,4	329,853
637,8	329,213
638,3	321,613
638,7	316,853
639,2	323,773
639,6	321,533
640	324,493
640,5	329,653
640,9	324,493
641,4	316,893
641,8	312,013
642,2	300,653
642,7	292,773
643,1	289,733
643,6	289,133
644	289,053
644,5	288,173
644,9	293,973
645,3	297,053
645,8	301,733
646,2	300,253
646,7	298,373
647,1	288,173
647,6	284,293
648	276,173
648,4	279,253
648,9	286,733
649,3	290,653
649,8	292,933
650,2	298,333
650,6	294,133
651,1	285,413
651,5	284,933
652	283,533
652,4	274,813
652,9	270,973
653,3	271,453
653,7	272,893
654,2	267,973
654,6	270,893
655,1	268,493
655,5	268,053
655,9	262,293
656,4	256,493
656,8	251,733
657,3	253,133
657,7	247,933
658,2	246,853
658,6	254,613
659	251,413
659,5	247,893
659,9	250,173
660,4	246,613
660,8	242,533
661,2	242,333
661,7	245,653
662,1	244,853
662,6	237,333
663	228,133
663,4	229,933
663,9	224,533
664,3	220,533
664,8	229,493
665,2	233,173
665,6	227,653
666,1	227,373
666,5	226,053
667	221,693
667,4	223,053
667,9	231,693
668,3	228,653
668,7	228,413
669,2	229,093
669,6	229,333
670,1	225,733
670,5	225,333
670,9	221,173
671,4	215,813
671,8	213,613
672,3	211,453
672,7	209,133
673,1	210,013
673,6	212,573
674	213,893
674,5	207,813
674,9	213,533
675,3	208,413
675,8	208,373
676,2	204,013
676,7	201,853
677,1	198,093
677,5	201,053
678	200,893
678,4	204,493
678,9	200,933
679,3	200,453
679,7	203,613
680,2	200,293
680,6	192,533
681,1	196,053
681,5	193,813
681,9	184,973
682,4	185,973
682,8	182,733
683,3	181,693
683,7	179,653
684,1	184,493
684,6	181,253
685	179,093
685,5	175,813
685,9	174,413
686,3	172,213
686,8	167,733
687,2	169,533
687,7	170,253
688,1	173,053
688,5	178,493
689	180,653
689,4	184,453
689,9	181,853
690,3	182,013
690,7	175,053
691,2	178,173
691,6	170,293
692	174,173
692,5	169,893
692,9	168,133
693,4	164,693
693,8	168,253
694,2	167,893
694,7	169,813
695,1	172,693
695,6	176,573
696	177,093
696,4	172,813
696,9	170,293
697,3	165,933
697,8	160,853
698,2	154,773
698,6	154,253
699,1	148,573
699,5	144,693
699,9	142,413
700,4	144,413
700,8	147,373
701,3	146,973
701,7	154,773
702,1	154,853
702,6	155,293
703	151,373
703,5	151,893
703,9	145,013
704,3	143,453
704,8	142,933
705,2	147,213
705,6	146,013
706,1	147,853
706,5	150,693
707	150,493
707,4	146,973
707,8	148,133
708,3	148,613
708,7	142,893
709,2	139,853
709,6	135,893
710	135,853
710,5	130,813
710,9	129,613
711,3	128,613
711,8	131,333
712,2	132,133
712,7	129,373
713,1	128,213
713,5	130,813
714	125,053
714,4	121,213
714,8	119,533
715,3	123,253
715,7	124,893
716,2	123,733
716,6	123,333
717	125,733
717,5	125,213
717,9	120,213
718,3	122,613
718,8	124,653
719,2	123,653
719,7	117,973
720,1	118,933
720,5	118,333
721	115,213
721,4	118,213
721,8	122,773
722,3	116,853
722,7	114,293
723,2	119,693
723,6	113,493
724	109,173
724,5	114,573
724,9	118,253
725,3	116,013
725,8	117,693
726,2	119,373
726,7	115,053
727,1	107,573
727,5	103,173
728	104,413
728,4	101,453
728,8	103,333
729,3	111,693
729,7	117,213
730,1	119,533
730,6	122,853
731	120,213
731,5	114,613
731,9	104,813
732,3	105,453
732,8	100,973
733,2	106,533
733,6	108,493
734,1	108,453
734,5	106,333
734,9	111,853
735,4	109,733
735,8	109,773
736,3	114,453
736,7	113,533
737,1	111,933
737,6	108,773
738	103,293
738,4	101,813
738,9	101,533
739,3	95,293
739,7	93,533
740,2	94,213
740,6	92,133
741,1	89,133
741,5	97,213
741,9	96,013
742,4	97,973
742,8	96,613
743,2	95,733
743,7	90,133
744,1	86,893
744,5	86,893
745	84,613
745,4	89,813
745,8	84,213
746,3	92,213
746,7	86,573
747,2	87,213
747,6	78,693
748	82,333
748,5	71,973
748,9	76,893
749,3	85,013
749,8	91,213
750,2	88,093
750,6	90,253
751,1	96,013
751,5	90,333
751,9	88,373
752,4	96,093
752,8	98,533
753,3	94,653
753,7	96,093
754,1	91,973
754,6	88,333
755	94,853
755,4	94,773
755,9	91,453
756,3	96,213
756,7	100,333
757,2	91,613
757,6	84,093
758	83,453
758,5	80,213
758,9	76,013
759,3	81,493
759,8	81,373
760,2	80,493
760,6	77,973
761,1	73,093
761,5	70,853
761,9	70,973
762,4	71,013
762,8	73,333
763,3	75,453
763,7	66,493
764,1	64,253
764,6	66,613
765	66,373
765,4	67,133
765,9	75,893
766,3	80,573
766,7	82,293
767,2	74,573
767,6	71,733
768	67,893
768,5	66,253
768,9	65,613
769,3	70,413
769,8	68,613
770,2	72,093
770,6	73,733
771,1	65,813
771,5	58,213
771,9	59,253
772,4	54,253
772,8	49,013
773,2	56,453
773,7	66,173
774,1	64,933
774,5	65,013
775	66,853
775,4	61,133
775,8	60,253
776,3	67,373
776,7	70,453
777,1	71,693
777,6	76,413
778	77,133
778,4	71,853
778,9	73,133
779,3	67,093
779,7	64,653
780,2	63,053
780,6	59,333
781	54,453
781,5	60,773
781,9	59,093
782,3	56,213
782,8	63,373
783,2	67,413
783,6	67,013
784,1	65,093
784,5	63,773
784,9	53,693
785,4	52,533
785,8	48,293
786,2	47,293
786,7	51,573
787,1	58,173
787,5	50,773
788	52,453
788,4	49,373
788,8	43,973
789,3	44,173
789,7	47,733
790,1	47,933
790,6	51,733
791	50,133
791,4	49,573
791,9	54,053
792,3	46,573
792,7	50,453
793,2	58,733
793,6	56,613
794	54,573
794,5	63,093
794,9	59,093
795,3	51,373
795,8	51,293
796,2	47,333
796,6	47,213
797,1	50,813
797,5	52,573
797,9	54,773
798,4	54,533
798,8	53,253
799,2	48,173
799,7	48,653
800,1	43,813
800,5	44,533
801	38,493
801,4	38,213
801,8	35,013
802,2	35,213
802,7	35,253
803,1	38,333
803,5	38,693
804	40,253
804,4	40,453
804,8	41,893
805,3	48,973
805,7	45,333
806,1	46,813
806,6	54,573
807	52,693
807,4	45,013
807,9	53,333
808,3	53,173
808,7	47,253
809,2	48,533
809,6	53,013
810	47,893
810,4	47,093
810,9	44,173
811,3	40,053
811,7	34,653
812,2	38,293
812,6	32,813
813	27,413
813,5	34,613
813,9	41,893
814,3	37,253
814,8	40,333
815,2	42,693
815,6	35,573
816,1	30,453
816,5	27,453
816,9	32,213
817,3	30,933
817,8	32,013
818,2	30,453
818,6	31,013
819,1	26,853
819,5	31,413
819,9	29,853
820,4	29,653
820,8	35,693
821,2	35,093
821,7	33,613
822,1	37,013
822,5	34,053
822,9	28,853
823,4	32,733
823,8	32,133
824,2	30,093
824,7	33,973
825,1	32,733
825,5	30,453
826	32,813
826,4	31,253
826,8	25,893
827,3	24,973
827,7	24,733
828,1	22,133
828,5	16,173
829	17,773
829,4	19,253
829,8	16,573
830,3	19,613
830,7	27,773
831,1	29,093
831,6	31,333
832	30,173
832,4	30,333
832,8	26,013
833,3	22,213
833,7	22,453
834,1	18,573
834,6	17,173
835	13,453
835,4	18,293
835,8	14,613
836,3	22,933
836,7	20,693
837,1	26,173
837,6	25,653
838	27,013
838,4	18,013
838,9	15,853
839,3	12,133
839,7	8,293
840,1	4,493
840,6	10,613
841	11,173
841,4	13,533
841,9	20,453
842,3	26,213
842,7	24,173
843,1	25,133
843,6	25,573
844	18,533
844,4	13,773
844,9	11,213
845,3	10,893
845,7	9,613
846,2	8,893
846,6	10,493
847	10,693
847,4	13,093
847,9	12,813
848,3	9,733
848,7	11,253
849,2	14,813
849,6	11,453
850	14,413
850,4	19,293
850,9	14,093
851,3	19,893
851,7	16,413
852,2	12,773
852,6	9,853
853	16,413
853,4	5,253
853,9	7,933
854,3	6,173
854,7	11,173
855,2	7,533
855,6	11,933
856	10,493
856,4	12,893
856,9	15,813
857,3	16,053
857,7	19,173
858,2	27,053
858,6	27,333
859	24,493
859,4	21,333
859,9	18,013
860,3	13,093
860,7	15,533
861,1	12,933
861,6	18,453
862	20,613
862,4	23,493
862,9	18,933
863,3	22,853
863,7	19,813
864,1	16,173
864,6	17,093
865	16,133
865,4	18,453
865,9	17,773
866,3	14,733
866,7	10,333
867,1	11,493
867,6	8,333
868	6,253
868,4	11,013
868,8	4,533
869,3	-0,467
869,7	0,373
870,1	0,533
870,6	-1,427
871	8,413
871,4	21,653
871,8	15,373
872,3	16,693
872,7	16,053
873,1	12,933
873,5	4,733
874	5,773
874,4	3,733
874,8	1,693
875,3	1,853
875,7	3,253
876,1	2,973
876,5	4,373
877	1,453
877,4	0,813
877,8	0,613
878,2	-0,427
878,7	1,933
879,1	4,133
879,5	6,613
879,9	8,413
880,4	11,413
880,8	9,933
881,2	12,733
881,7	8,413
882,1	5,453
882,5	1,933
882,9	4,173
883,4	5,933
883,8	4,413
884,2	1,373
884,6	-1,787
885,1	-1,867
885,5	-6,947
885,9	0,533
886,3	2,693
886,8	-0,427
887,2	-6,867
887,6	-8,027
888	-19,867
888,5	-16,707
888,9	-6,707
889,3	-6,587
889,8	0,093
890,2	5,173
890,6	1,173
891	-0,547
891,5	6,373
891,9	6,653
892,3	10,533
892,7	13,973
893,2	13,493
893,6	11,213
894	9,373
894,4	10,453
894,9	11,373
895,3	6,773
895,7	6,853
896,1	7,973
896,6	5,413
897	5,733
897,4	14,133
897,8	12,533
898,3	5,613
898,7	1,853
899,1	-0,787
899,5	1,453
900	-3,307
900,4	0,053
900,8	0,373
901,2	-3,547
901,7	-14,187
902,1	-13,107
902,5	-11,267
902,9	-9,667
903,4	-11,507
903,8	-10,347
904,2	-8,267
904,6	-3,747
905,1	0,973
905,5	6,373
905,9	6,813
906,3	13,453
906,8	7,493
907,2	6,933
907,6	6,133
908	10,333
908,5	9,453
908,9	13,213
909,3	7,773
909,7	9,693
910,2	13,293
910,6	13,693
911	11,813
911,4	10,893
911,9	7,493
912,3	3,133
912,7	-0,067
913,1	-4,387
913,6	-1,507
914	1,053
914,4	-0,827
914,8	-0,867
915,3	4,773
915,7	4,533
916,1	5,253
916,5	7,213
916,9	8,413
917,4	6,173
917,8	6,173
918,2	5,013
918,6	5,013
919,1	0,013
919,5	-0,547
919,9	-4,107
920,3	-6,347
920,8	-11,267
921,2	-8,027
921,6	-11,307
922	-7,867
922,5	-8,267
922,9	-7,387
923,3	-2,987
923,7	-0,107
924,2	0,013
924,6	6,693
925	14,413
925,4	2,893
925,8	1,093
926,3	0,253
926,7	-1,667
927,1	-3,667
927,5	2,973
928	6,933
928,4	8,973
928,8	4,933
929,2	-0,147
929,7	0,933
930,1	-1,347
930,5	-2,187
930,9	-2,027
931,3	-0,387
931,8	-4,387
932,2	3,853
932,6	-0,267
933	-2,227
933,5	-1,067
933,9	1,533
934,3	-5,267
934,7	-3,387
935,2	-3,147
935,6	-6,067
936	-15,227
936,4	-14,707
936,8	-12,067
937,3	-8,907
937,7	-7,387
938,1	3,813
938,5	5,413
939	4,733
939,4	2,053
939,8	0,453
940,2	-6,187
940,6	-9,347
941,1	-13,427
941,5	-14,747
941,9	-13,547
942,3	-12,467
942,8	-17,507
943,2	-16,467
943,6	-15,147
944	-16,227
944,4	-15,507
944,9	-8,027
945,3	-6,787
945,7	-11,227
946,1	-6,747
946,6	-5,187
947	-6,427
947,4	-10,427
947,8	-4,387
948,2	-7,947
948,7	-7,587
949,1	-10,427
949,5	-9,427
949,9	-6,067
950,3	-8,387
950,8	-6,307
951,2	-6,827
951,6	-6,067
952	-12,427
952,5	-6,787
952,9	-8,787
953,3	-2,707
953,7	-5,427
954,1	3,493
954,6	-1,387
955	-0,147
955,4	-3,187
955,8	3,813
956,2	-6,387
956,7	-1,147
957,1	-3,187
957,5	-3,787
957,9	-10,307
958,3	-11,627
958,8	-17,627
959,2	-11,867
959,6	-14,827
960	-11,827
960,5	-10,427
960,9	-6,187
961,3	-10,507
961,7	-14,827
962,1	-9,987
962,6	-8,227
963	-14,587
963,4	-13,987
963,8	-8,467
964,2	-14,187
964,7	-12,867
965,1	-7,867
965,5	-12,387
965,9	-10,547
966,3	-7,187
966,8	-6,467
967,2	-1,507
967,6	-2,107
968	-0,627
968,4	0,933
968,9	-4,627
969,3	-11,227
969,7	-5,427
970,1	-9,427
970,5	-10,907
971	-3,987
971,4	-3,307
971,8	-4,307
972,2	0,973
972,6	1,733
973,1	-0,427
973,5	2,093
973,9	-2,987
974,3	-4,427
974,7	-5,827
975,2	-7,427
975,6	-9,027
976	-7,827
976,4	-8,947
976,8	-12,787
977,3	-14,307
977,7	-16,907
978,1	-16,947
978,5	-17,827
978,9	-12,987
979,4	-14,347
979,8	-12,267
980,2	-9,187
980,6	-8,147
981	-6,027
981,5	-2,107
981,9	-0,387
982,3	0,293
982,7	2,213
983,1	-0,347
983,6	1,493
984	3,533
984,4	0,613
984,8	1,773
985,2	1,733
985,6	1,053
986,1	-0,787
986,5	5,773
986,9	0,533
987,3	-1,147
987,7	-2,827
988,2	-1,387
988,6	-2,787
989	-4,587
989,4	-4,627
989,8	-3,667
990,3	-5,907
990,7	-7,747
991,1	-9,307
991,5	-4,467
991,9	-5,147
992,3	-3,267
992,8	3,333
993,2	6,893
993,6	4,493
994	11,573
994,4	10,613
994,9	4,613
995,3	3,013
995,7	-0,107
996,1	-3,747
996,5	-9,627
996,9	-9,907
997,4	-10,227
997,8	-11,907
998,2	-16,347
998,6	-13,827
999	-15,507
999,5	-17,427
999,9	-12,147
1000,3	-8,267
1000,7	-7,067
1001,1	-8,907
1001,5	1,413
1002	-2,107
1002,4	-0,267
1002,8	-1,947
1003,2	1,573
1003,6	-7,067
1004	-5,067
1004,5	-5,227
1004,9	-3,547
1005,3	-7,227
1005,7	-2,827
1006,1	-4,467
1006,6	-4,867
1007	-1,907
1007,4	-5,107
1007,8	-10,907
1008,2	-7,147
1008,6	-7,347
1009,1	-12,307
1009,5	-1,947
1009,9	6,573
1010,3	2,333
1010,7	-1,027
1011,1	1,973
1011,6	-5,187
1012	-11,947
1012,4	-12,387
1012,8	-16,507
1013,2	-14,507
1013,6	-8,027
1014,1	-8,947
1014,5	-6,427
1014,9	-2,507
1015,3	-5,827
1015,7	-8,427
1016,1	-2,787
1016,6	-2,627
1017	0,173
1017,4	-0,067
1017,8	-6,227
1018,2	-6,667
1018,6	-8,627
1019,1	-6,627
1019,5	-1,187
1019,9	2,293
1020,3	0,293
1020,7	2,493
1021,1	-7,267
1021,6	-3,867
1022	-4,507
1022,4	-1,427
1022,8	0,053
1023,2	1,653
1023,6	-3,667
1024,1	-9,027
1024,5	-16,467
1024,9	-19,627
1025,3	-18,307
1025,7	-20,147
1026,1	-13,187
1026,6	-7,747
1027	-6,107
1027,4	-8,667
1027,8	-10,387
1028,2	-13,147
1028,6	-14,907
1029	-17,787
1029,5	-18,267
1029,9	-15,307
1030,3	-12,747
1030,7	-11,827
1031,1	-15,427
1031,5	-6,547
1032	-7,147
1032,4	-14,227
1032,8	-15,027
1033,2	-8,067
1033,6	-11,627
1034	-16,427
1034,4	-5,827
1034,9	-6,907
1035,3	-5,507
1035,7	-7,467
1036,1	2,013
1036,5	2,853
1036,9	5,813
1037,4	0,453
1037,8	3,013
1038,2	-2,187
1038,6	-11,867
1039	-15,467
1039,4	-8,227
1039,8	-7,147
1040,3	-9,547
1040,7	-7,827
1041,1	-5,067
1041,5	-13,467
1041,9	-15,547
1042,3	-13,547
1042,7	-8,947
1043,2	-14,067
1043,6	-12,507
1044	-11,027
1044,4	-10,027
1044,8	-12,627
1045,2	-12,787
1045,6	-14,107
1046,1	-12,987
1046,5	-21,987
1046,9	-24,467
1047,3	-17,947
1047,7	-18,107
1048,1	-12,947
1048,5	-10,227
1049	-2,667
1049,4	-9,587
1049,8	-11,947
1050,2	-21,227
1050,6	-15,427
1051	-23,067
1051,4	-22,747
1051,9	-18,787
1052,3	-15,667
1052,7	-15,867
1053,1	-16,667
1053,5	-8,187
1053,9	-5,667
1054,3	-5,947
1054,8	-1,907
1055,2	4,173
1055,6	-1,947
1056	-4,427
1056,4	-3,707
1056,8	-4,827
1057,2	-6,307
1057,6	-3,867
1058,1	-0,707
1058,5	1,853
1058,9	1,333
1059,3	-1,587
1059,7	2,373
1060,1	1,413
1060,5	-0,587
1061	0,093
1061,4	4,333
1061,8	2,253
1062,2	7,973
1062,6	4,493
1063	-1,907
1063,4	-4,627
1063,8	-8,507
1064,3	-11,867
1064,7	-5,587
1065,1	1,653
1065,5	-3,587
1065,9	3,573
1066,3	-5,627
1066,7	-14,107
1067,1	-20,507
1067,6	-15,147
1068	-19,387
1068,4	-12,267
1068,8	-8,947
1069,2	-10,187
1069,6	-9,707
1070	-11,027
1070,4	-10,947
1070,9	-7,547
1071,3	-3,107
1071,7	-5,987
1072,1	-2,347
1072,5	-6,787
1072,9	-8,907
1073,3	-6,827
1073,7	-7,707
1074,2	-14,987
1074,6	-12,107
1075	-16,187
1075,4	-15,867
1075,8	-14,987
1076,2	-7,787
1076,6	-8,507
1077	-3,707
1077,5	-9,067
1077,9	-7,947
1078,3	-5,947
1078,7	-2,307
1079,1	0,453
1079,5	1,093
1079,9	1,533
1080,3	-2,147
1080,7	-3,547
1081,2	-3,907
1081,6	-7,267
1082	-7,307
1082,4	-4,347
1082,8	-4,747
1083,2	-5,507
1083,6	-0,747
1084	-0,427
1084,5	-4,067
1084,9	-10,107
1085,3	-9,267
1085,7	-4,267
1086,1	-0,307
1086,5	-2,027
1086,9	6,453
1087,3	2,413
1087,7	0,213
1088,2	-0,347
1088,6	3,573
1089	2,013
1089,4	4,613
1089,8	0,693
1090,2	-1,787
1090,6	-5,107
1091	-6,067
1091,4	-7,547
1091,9	-5,707
1092,3	-5,507
1092,7	-4,427
1093,1	-6,707
1093,5	-6,667
1093,9	-8,067
1094,3	-5,547
1094,7	-8,507
1095,1	-8,787
1095,5	-8,667
1096	-7,507
1096,4	-10,187
1096,8	-3,707
1097,2	-3,187
1097,6	0,853
1098	-5,507
1098,4	-2,867
1098,8	-11,387
1099,2	-8,587
1099,6	-10,307
1100,1	-3,947
1100,5	-2,707
1100,9	2,733
1101,3	3,493
1101,7	1,373
1102,1	0,933
1102,5	-3,667
1102,9	-1,347
1103,3	-5,067
1103,7	-3,067
1104,2	-1,267
1104,6	-0,827
1105	-5,227
1105,4	-2,747
1105,8	-2,627
1106,2	-4,227
1106,6	-1,667
1107	0,813
1107,4	1,213
1107,8	-0,867
1108,3	0,4
