Data from Subt2_00045.txt Node
Date: Fri Aug 11 16:05:15 MSK 2023
User: vat
Spectrometer: MAYP114033
Trigger mode: 0
Integration Time (sec): 5,000000E-1
Scans to average: 5
Electric dark correction enabled: true
Nonlinearity correction enabled: false
Boxcar width: 2
XAxis mode: Wavelengths
Number of Pixels in Spectrum: 2068
>>>>>Begin Spectral Data<<<<<
199,4	0,5
199,9	0,467
200,4	-1,393
200,8	-0,673
201,3	-5,993
201,8	-5,233
202,2	-3,113
202,7	-1,473
203,2	-3,353
203,6	0,407
204,1	-1,713
204,6	-8,393
205	-10,313
205,5	-10,673
206	-8,273
206,4	-7,833
206,9	-4,273
207,4	-3,073
207,8	-1,113
208,3	-2,833
208,8	-2,913
209,2	-2,833
209,7	-4,993
210,2	-4,433
210,6	-4,993
211,1	-4,193
211,5	-3,553
212	1,407
212,5	4,447
212,9	1,367
213,4	-2,033
213,9	-1,313
214,3	-3,353
214,8	-10,073
215,3	-6,233
215,7	-6,313
216,2	-5,473
216,7	-10,553
217,1	-10,473
217,6	-10,713
218,1	-8,713
218,5	-14,033
219	-8,393
219,5	-4,353
219,9	-6,753
220,4	-8,353
220,9	-4,633
221,3	-4,233
221,8	-6,913
222,3	-10,753
222,7	-8,873
223,2	-7,153
223,6	-15,313
224,1	-18,273
224,6	-12,273
225	-13,033
225,5	-14,913
226	-10,433
226,4	-7,113
226,9	-12,313
227,4	-7,913
227,8	-12,233
228,3	-13,193
228,8	-16,313
229,2	-13,073
229,7	-19,273
230,2	-14,593
230,6	-13,233
231,1	-15,793
231,5	-17,273
232	-18,913
232,5	-20,713
232,9	-26,833
233,4	-22,873
233,9	-17,113
234,3	-11,593
234,8	-7,313
235,3	-2,593
235,7	0,727
236,2	-1,833
236,7	-5,353
237,1	-9,673
237,6	-5,793
238,1	-9,073
238,5	-9,993
239	-4,393
239,4	-6,153
239,9	-4,193
240,4	-1,233
240,8	-1,913
241,3	-3,393
241,8	0,847
242,2	0,847
242,7	4,967
243,2	6,207
243,6	4,447
244,1	3,207
244,6	-2,313
245	-3,553
245,5	-4,553
245,9	-9,393
246,4	-8,993
246,9	-5,513
247,3	-16,353
247,8	-17,633
248,3	-9,313
248,7	-11,833
249,2	-17,753
249,7	-14,793
250,1	-13,553
250,6	-21,073
251	-21,313
251,5	-14,033
252	-14,353
252,4	-17,913
252,9	-12,353
253,4	-14,113
253,8	-15,073
254,3	-11,193
254,8	-12,473
255,2	-6,873
255,7	-2,913
256,1	-8,313
256,6	-9,993
257,1	-5,193
257,5	-11,753
258	-12,193
258,5	-9,233
258,9	-9,393
259,4	-9,353
259,9	-11,433
260,3	-12,633
260,8	-8,633
261,2	-5,153
261,7	-2,513
262,2	-1,833
262,6	1,727
263,1	0,567
263,6	-4,513
264	-4,833
264,5	-8,473
264,9	-9,433
265,4	-13,953
265,9	-11,953
266,3	-12,793
266,8	-4,953
267,3	-2,633
267,7	-1,233
268,2	1,527
268,7	6,047
269,1	1,767
269,6	-4,953
270	-6,513
270,5	-9,913
271	-16,393
271,4	-20,953
271,9	-19,193
272,4	-14,473
272,8	-12,873
273,3	-14,953
273,7	-7,473
274,2	-2,073
274,7	-5,233
275,1	-5,873
275,6	-2,713
276,1	-8,793
276,5	-13,833
277	-13,273
277,4	-13,553
277,9	-14,233
278,4	-10,433
278,8	-11,033
279,3	-15,633
279,8	-21,033
280,2	-21,833
280,7	-19,913
281,1	-17,713
281,6	-8,513
282,1	2,327
282,5	0,767
283	-3,033
283,4	-4,393
283,9	-7,673
284,4	-13,193
284,8	-9,113
285,3	-3,193
285,8	-3,793
286,2	-3,673
286,7	-3,673
287,1	-7,233
287,6	-11,753
288,1	-6,993
288,5	-0,713
289	1,167
289,5	5,167
289,9	4,887
290,4	1,847
290,8	-6,113
291,3	-8,113
291,8	-6,873
292,2	-6,993
292,7	-7,513
293,1	-8,073
293,6	-7,513
294,1	-9,713
294,5	-13,033
295	-10,313
295,5	-6,793
295,9	-3,793
296,4	-5,353
296,8	3,447
297,3	2,167
297,8	-1,553
298,2	-6,073
298,7	-9,233
299,1	-17,193
299,6	-16,233
300,1	-20,033
300,5	-15,953
301	-11,193
301,5	-6,513
301,9	-10,073
302,4	-8,513
302,8	-15,353
303,3	-16,593
303,8	-17,593
304,2	-17,273
304,7	-12,633
305,1	-9,273
305,6	-6,793
306,1	-4,553
306,5	-4,353
307	-4,713
307,4	-0,193
307,9	-2,353
308,4	0,207
308,8	2,447
309,3	1,647
309,8	-0,833
310,2	-5,513
310,7	-13,913
311,1	-21,833
311,6	-21,193
312,1	-22,593
312,5	-21,673
313	-23,033
313,4	-20,433
313,9	-18,233
314,4	-14,193
314,8	-8,473
315,3	-5,953
315,7	2,487
316,2	-1,993
316,7	-3,513
317,1	-4,793
317,6	-6,233
318	-9,113
318,5	-8,313
319	-13,033
319,4	-17,313
319,9	-13,673
320,3	-13,273
320,8	-9,673
321,3	-6,233
321,7	-0,993
322,2	-3,553
322,6	-5,193
323,1	-14,593
323,6	-14,033
324	-14,313
324,5	-15,953
324,9	-17,073
325,4	-9,353
325,9	-10,793
326,3	-5,033
326,8	-2,553
327,2	-3,793
327,7	-4,233
328,2	-3,553
328,6	-12,793
329,1	-12,393
329,5	-5,633
330	-3,313
330,5	-4,273
330,9	-1,753
331,4	-3,033
331,8	-11,313
332,3	-13,233
332,8	-12,993
333,2	-20,553
333,7	-16,313
334,1	-11,833
334,6	-16,393
335,1	-15,913
335,5	-7,153
336	-8,913
336,4	-9,553
336,9	-4,033
337,4	-3,513
337,8	-5,113
338,3	-4,673
338,7	-5,673
339,2	-7,753
339,7	-6,673
340,1	-5,793
340,6	-4,833
341	-4,433
341,5	-4,113
342	-2,393
342,4	-6,273
342,9	-7,233
343,3	-10,153
343,8	-10,553
344,2	-10,753
344,7	-3,753
345,2	-3,233
345,6	-2,233
346,1	-1,313
346,5	-0,313
347	-8,873
347,5	-10,433
347,9	-7,033
348,4	-3,193
348,8	-7,513
349,3	0,247
349,8	2,727
350,2	4,887
350,7	3,607
351,1	6,207
351,6	6,887
352	14,287
352,5	20,927
353	25,927
353,4	34,167
353,9	46,967
354,3	57,327
354,8	70,727
355,3	97,527
355,7	122,967
356,2	148,807
356,6	176,247
357,1	210,767
357,5	243,807
358	283,487
358,5	336,447
358,9	400,087
359,4	458,247
359,8	525,927
360,3	605,447
360,8	689,807
361,2	786,527
361,7	902,327
362,1	1024,967
362,6	1165,007
363	1305,647
363,5	1458,767
364	1614,847
364,4	1788,487
364,9	1953,367
365,3	2119,887
365,8	2275,967
366,3	2422,767
366,7	2553,287
367,2	2666,407
367,6	2759,327
368,1	2829,247
368,5	2879,487
369	2902,967
369,5	2896,207
369,9	2878,687
370,4	2833,687
370,8	2771,247
371,3	2678,607
371,7	2587,447
372,2	2470,007
372,7	2342,207
373,1	2216,127
373,6	2089,927
374	1951,687
374,5	1827,127
374,9	1704,087
375,4	1573,007
375,9	1453,367
376,3	1342,727
376,8	1234,727
377,2	1130,527
377,7	1038,167
378,2	947,287
378,6	860,687
379,1	780,127
379,5	709,127
380	643,527
380,4	590,567
380,9	544,927
381,4	494,887
381,8	459,487
382,3	422,927
382,7	386,327
383,2	353,247
383,6	331,127
384,1	306,007
384,6	279,247
385	256,927
385,5	237,647
385,9	210,527
386,4	191,407
386,8	177,887
387,3	165,007
387,7	155,767
388,2	144,527
388,7	136,367
389,1	123,247
389,6	112,247
390	99,487
390,5	97,287
390,9	84,607
391,4	78,327
391,9	69,127
392,3	62,207
392,8	53,327
393,2	47,247
393,7	48,247
394,1	48,767
394,6	44,687
395,1	45,207
395,5	44,727
396	41,367
396,4	33,207
396,9	34,527
397,3	32,127
397,8	31,407
398,2	29,847
398,7	34,007
399,2	29,287
399,6	26,127
400,1	22,607
400,5	20,727
401	15,527
401,4	16,807
401,9	14,007
402,4	9,247
402,8	10,247
403,3	10,327
403,7	10,647
404,2	14,007
404,6	19,087
405,1	15,607
405,5	20,327
406	19,367
406,5	18,247
406,9	15,207
407,4	18,527
407,8	12,527
408,3	16,327
408,7	17,087
409,2	17,847
409,6	12,087
410,1	15,927
410,6	13,687
411	13,127
411,5	13,567
411,9	21,407
412,4	23,967
412,8	21,607
413,3	23,007
413,7	34,487
414,2	30,047
414,7	33,967
415,1	40,407
415,6	41,607
416	37,487
416,5	42,647
416,9	47,287
417,4	47,047
417,8	47,767
418,3	49,807
418,8	51,927
419,2	48,807
419,7	56,687
420,1	60,087
420,6	59,607
421	61,407
421,5	59,927
421,9	59,567
422,4	67,367
422,8	72,087
423,3	76,967
423,8	85,767
424,2	86,807
424,7	89,007
425,1	95,007
425,6	98,767
426	104,367
426,5	107,927
426,9	113,327
427,4	118,367
427,9	131,287
428,3	136,287
428,8	146,287
429,2	159,487
429,7	173,127
430,1	174,287
430,6	183,807
431	188,327
431,5	194,087
431,9	191,167
432,4	204,687
432,8	216,807
433,3	232,807
433,8	242,207
434,2	259,087
434,7	265,607
435,1	279,887
435,6	295,807
436	315,207
436,5	334,807
436,9	356,647
437,4	382,647
437,8	404,367
438,3	421,847
438,8	443,527
439,2	472,247
439,7	488,367
440,1	508,447
440,6	533,287
441	560,407
441,5	588,087
441,9	612,967
442,4	640,207
442,8	673,207
443,3	705,767
443,7	735,287
444,2	774,007
444,7	813,167
445,1	853,967
445,6	891,767
446	931,727
446,5	974,207
446,9	1017,287
447,4	1058,567
447,8	1105,927
448,3	1150,927
448,7	1194,407
449,2	1241,287
449,6	1289,127
450,1	1332,607
450,6	1392,367
451	1439,007
451,5	1490,607
451,9	1538,607
452,4	1598,207
452,8	1647,807
453,3	1715,567
453,7	1785,527
454,2	1859,927
454,6	1929,607
455,1	2002,007
455,5	2066,007
456	2130,047
456,4	2196,367
456,9	2264,287
457,3	2333,687
457,8	2408,727
458,3	2484,047
458,7	2558,087
459,2	2638,967
459,6	2715,167
460,1	2796,047
460,5	2880,927
461	2968,527
461,4	3055,007
461,9	3136,767
462,3	3221,727
462,8	3307,687
463,2	3393,167
463,7	3473,847
464,1	3563,287
464,6	3650,447
465	3733,607
465,5	3826,407
466	3916,047
466,4	3998,167
466,9	4081,527
467,3	4166,327
467,8	4253,927
468,2	4338,087
468,7	4428,447
469,1	4514,527
469,6	4596,727
470	4671,167
470,5	4762,847
470,9	4839,927
471,4	4920,087
471,8	5011,567
472,3	5094,407
472,7	5170,247
473,2	5264,927
473,6	5349,567
474,1	5419,807
474,5	5498,607
475	5572,207
475,4	5645,167
475,9	5719,687
476,4	5792,367
476,8	5856,367
477,3	5929,207
477,7	5987,007
478,2	6052,527
478,6	6117,927
479,1	6186,167
479,5	6235,847
480	6294,527
480,4	6344,887
480,9	6394,647
481,3	6443,767
481,8	6486,247
482,2	6536,047
482,7	6580,847
483,1	6623,407
483,6	6651,927
484	6704,967
484,5	6733,207
484,9	6767,447
485,4	6788,327
485,8	6813,967
486,3	6826,567
486,7	6848,367
487,2	6862,727
487,6	6887,327
488,1	6912,767
488,5	6923,967
489	6940,367
489,4	6948,607
489,9	6959,847
490,4	6961,287
490,8	6965,607
491,3	6962,567
491,7	6955,167
492,2	6947,447
492,6	6935,327
493,1	6927,167
493,5	6912,007
494	6899,607
494,4	6888,247
494,9	6873,007
495,3	6851,607
495,8	6833,847
496,2	6819,007
496,7	6791,567
497,1	6772,807
497,6	6747,407
498	6714,567
498,5	6682,967
498,9	6657,007
499,4	6627,487
499,8	6602,607
500,3	6574,207
500,7	6548,167
501,2	6515,567
501,6	6476,487
502,1	6443,087
502,5	6404,247
503	6362,367
503,4	6320,847
503,9	6287,167
504,3	6229,447
504,8	6202,807
505,2	6167,047
505,7	6127,487
506,1	6092,047
506,6	6063,767
507	6011,807
507,5	5967,487
507,9	5923,167
508,4	5859,607
508,8	5819,727
509,3	5778,207
509,7	5727,007
510,2	5684,247
510,6	5651,127
511,1	5596,567
511,5	5545,567
512	5498,767
512,4	5444,847
512,9	5393,087
513,3	5356,007
513,8	5319,327
514,2	5272,007
514,7	5229,167
515,1	5182,207
515,6	5118,927
516	5061,727
516,5	5020,727
516,9	4966,687
517,4	4923,127
517,8	4873,447
518,3	4826,687
518,7	4773,447
519,2	4727,607
519,6	4669,087
520,1	4631,007
520,5	4586,367
521	4549,527
521,4	4495,327
521,9	4456,887
522,3	4414,967
522,8	4368,247
523,2	4316,047
523,7	4283,527
524,1	4238,247
524,6	4190,887
525	4149,567
525,5	4108,287
525,9	4072,047
526,4	4041,287
526,8	4005,927
527,3	3964,967
527,7	3927,567
528,2	3888,527
528,6	3851,447
529,1	3816,527
529,5	3788,727
530	3754,087
530,4	3713,847
530,9	3662,287
531,3	3622,007
531,8	3575,847
532,2	3532,927
532,6	3495,607
533,1	3465,087
533,5	3428,407
534	3391,727
534,4	3365,367
534,9	3332,927
535,3	3309,407
535,8	3289,687
536,2	3255,047
536,7	3216,927
537,1	3180,647
537,6	3144,967
538	3106,207
538,5	3084,687
538,9	3055,687
539,4	3025,727
539,8	2999,687
540,3	2975,367
540,7	2941,967
541,2	2917,807
541,6	2893,567
542,1	2867,327
542,5	2828,367
543	2805,407
543,4	2776,727
543,9	2753,167
544,3	2733,527
544,8	2719,727
545,2	2692,287
545,7	2666,447
546,1	2651,047
546,5	2620,807
547	2598,287
547,4	2575,047
547,9	2551,727
548,3	2515,567
548,8	2494,007
549,2	2465,007
549,7	2451,407
550,1	2433,407
550,6	2417,887
551	2394,767
551,5	2376,127
551,9	2355,127
552,4	2335,847
552,8	2314,447
553,3	2298,687
553,7	2283,647
554,2	2260,887
554,6	2246,447
555,1	2230,687
555,5	2213,447
555,9	2199,127
556,4	2181,407
556,8	2167,247
557,3	2156,247
557,7	2133,327
558,2	2113,087
558,6	2102,887
559,1	2076,847
559,5	2061,247
560	2047,527
560,4	2029,527
560,9	2010,847
561,3	2001,687
561,8	1988,047
562,2	1975,287
562,7	1964,887
563,1	1957,967
563,6	1940,727
564	1926,767
564,4	1916,087
564,9	1904,287
565,3	1884,847
565,8	1874,567
566,2	1851,367
566,7	1826,247
567,1	1816,247
567,6	1803,167
568	1788,447
568,5	1780,407
568,9	1772,167
569,4	1747,687
569,8	1734,767
570,3	1725,847
570,7	1714,447
571,1	1709,087
571,6	1707,607
572	1696,047
572,5	1685,927
572,9	1671,247
573,4	1660,087
573,8	1644,927
574,3	1634,367
574,7	1618,247
575,2	1609,927
575,6	1596,127
576,1	1586,487
576,5	1581,727
576,9	1571,207
577,4	1565,967
577,8	1560,447
578,3	1547,927
578,7	1534,767
579,2	1523,127
579,6	1510,527
580,1	1500,647
580,5	1490,087
581	1469,887
581,4	1464,887
581,9	1458,007
582,3	1445,287
582,7	1434,847
583,2	1431,207
583,6	1420,367
584,1	1404,647
584,5	1393,047
585	1386,327
585,4	1379,047
585,9	1369,767
586,3	1361,167
586,8	1358,007
587,2	1351,567
587,6	1342,207
588,1	1335,527
588,5	1325,287
589	1312,927
589,4	1302,647
589,9	1291,567
590,3	1285,247
590,8	1280,767
591,2	1277,287
591,7	1272,247
592,1	1267,127
592,5	1254,167
593	1240,607
593,4	1224,727
593,9	1209,887
594,3	1201,127
594,8	1198,087
595,2	1193,727
595,7	1190,287
596,1	1193,287
596,6	1190,207
597	1177,647
597,4	1169,647
597,9	1164,327
598,3	1152,807
598,8	1144,367
599,2	1148,767
599,7	1147,767
600,1	1142,367
600,6	1140,087
601	1134,567
601,4	1128,767
601,9	1119,287
602,3	1109,887
602,8	1101,447
603,2	1092,967
603,7	1083,407
604,1	1076,287
604,6	1071,167
605	1068,447
605,4	1063,367
605,9	1049,287
606,3	1048,607
606,8	1043,927
607,2	1033,287
607,7	1026,367
608,1	1026,807
608,6	1020,607
609	1014,447
609,4	1009,687
609,9	999,047
610,3	990,847
610,8	987,487
611,2	972,967
611,7	959,687
612,1	961,847
612,6	955,567
613	947,447
613,4	952,087
613,9	955,167
614,3	946,247
614,8	940,887
615,2	930,967
615,7	917,847
616,1	901,447
616,6	896,407
617	886,727
617,4	878,487
617,9	879,207
618,3	886,287
618,8	878,407
619,2	880,327
619,7	878,287
620,1	865,967
620,5	853,887
621	853,007
621,4	843,927
621,9	836,167
622,3	840,167
622,8	839,727
623,2	832,967
623,6	828,407
624,1	830,927
624,5	819,647
625	806,207
625,4	798,047
625,9	792,607
626,3	785,047
626,8	782,447
627,2	778,207
627,6	775,527
628,1	769,367
628,5	765,607
629	760,887
629,4	759,007
629,9	753,047
630,3	745,727
630,7	737,047
631,2	733,007
631,6	727,927
632,1	720,367
632,5	715,687
633	708,967
633,4	699,127
633,8	691,767
634,3	688,287
634,7	684,487
635,2	674,447
635,6	670,767
636,1	671,887
636,5	671,847
636,9	667,047
637,4	670,007
637,8	664,087
638,3	656,127
638,7	652,687
639,2	650,007
639,6	645,247
640	640,847
640,5	632,767
640,9	621,367
641,4	616,287
641,8	611,287
642,2	612,047
642,7	612,527
643,1	619,887
643,6	618,527
644	614,287
644,5	613,327
644,9	611,167
645,3	602,087
645,8	594,767
646,2	586,567
646,7	574,927
647,1	571,887
647,6	562,247
648	560,807
648,4	564,367
648,9	561,967
649,3	550,767
649,8	549,647
650,2	542,807
650,6	533,167
651,1	535,567
651,5	535,007
652	532,567
652,4	526,967
652,9	523,327
653,3	518,047
653,7	516,407
654,2	514,087
654,6	516,527
655,1	520,087
655,5	514,727
655,9	513,287
656,4	506,247
656,8	500,207
657,3	490,967
657,7	486,607
658,2	476,927
658,6	475,127
659	479,647
659,5	479,127
659,9	471,127
660,4	469,807
660,8	470,847
661,2	458,247
661,7	452,207
662,1	452,567
662,6	453,847
663	445,207
663,4	443,847
663,9	437,527
664,3	437,687
664,8	428,047
665,2	427,327
665,6	431,487
666,1	433,847
666,5	428,607
667	434,127
667,4	418,807
667,9	406,687
668,3	404,047
668,7	404,127
669,2	399,247
669,6	407,407
670,1	409,487
670,5	402,287
670,9	394,967
671,4	394,167
671,8	392,527
672,3	383,727
672,7	383,527
673,1	378,487
673,6	368,847
674	370,287
674,5	367,967
674,9	363,767
675,3	365,367
675,8	362,647
676,2	358,007
676,7	361,567
677,1	357,007
677,5	347,167
678	350,007
678,4	347,647
678,9	338,487
679,3	339,527
679,7	337,647
680,2	327,567
680,6	312,767
681,1	309,887
681,5	308,447
681,9	313,047
682,4	314,487
682,8	316,687
683,3	319,527
683,7	317,967
684,1	313,807
684,6	313,287
685	314,247
685,5	310,487
685,9	312,487
686,3	309,087
686,8	304,007
687,2	301,727
687,7	302,847
688,1	294,807
688,5	292,647
689	289,567
689,4	286,967
689,9	278,367
690,3	274,887
690,7	278,167
691,2	279,047
691,6	280,007
692	281,287
692,5	286,607
692,9	278,567
693,4	276,087
693,8	277,727
694,2	274,367
694,7	266,287
695,1	264,087
695,6	265,567
696	258,607
696,4	258,407
696,9	265,567
697,3	263,967
697,8	255,207
698,2	254,807
698,6	254,287
699,1	239,727
699,5	242,607
699,9	245,327
700,4	238,927
700,8	233,047
701,3	231,607
701,7	227,687
702,1	222,767
702,6	225,647
703	229,607
703,5	226,807
703,9	222,607
704,3	225,447
704,8	220,087
705,2	216,647
705,6	225,407
706,1	220,367
706,5	211,487
707	218,327
707,4	213,487
707,8	203,607
708,3	209,807
708,7	215,447
709,2	202,727
709,6	201,367
710	202,567
710,5	197,047
710,9	189,567
711,3	187,647
711,8	189,047
712,2	190,607
712,7	189,807
713,1	195,567
713,5	201,807
714	194,807
714,4	190,767
714,8	191,647
715,3	191,767
715,7	188,607
716,2	187,487
716,6	184,207
717	183,287
717,5	179,607
717,9	178,567
718,3	179,047
718,8	181,367
719,2	174,807
719,7	170,687
720,1	171,007
720,5	174,807
721	169,927
721,4	170,447
721,8	168,567
722,3	162,567
722,7	152,927
723,2	158,767
723,6	157,767
724	157,447
724,5	158,807
724,9	166,047
725,3	156,447
725,8	159,487
726,2	154,327
726,7	154,847
727,1	152,247
727,5	154,047
728	144,367
728,4	143,087
728,8	142,887
729,3	139,407
729,7	137,127
730,1	143,967
730,6	148,647
731	141,047
731,5	146,687
731,9	149,007
732,3	146,207
732,8	138,367
733,2	141,007
733,6	139,887
734,1	134,087
734,5	131,807
734,9	136,807
735,4	136,367
735,8	128,047
736,3	129,887
736,7	131,567
737,1	128,647
737,6	131,287
738	132,207
738,4	131,447
738,9	128,767
739,3	129,367
739,7	123,007
740,2	118,167
740,6	118,287
741,1	117,887
741,5	116,967
741,9	116,607
742,4	117,927
742,8	114,567
743,2	117,247
743,7	111,887
744,1	115,727
744,5	117,087
745	122,527
745,4	121,487
745,8	125,847
746,3	123,527
746,7	119,687
747,2	112,727
747,6	109,487
748	106,207
748,5	109,887
748,9	110,767
749,3	115,527
749,8	110,567
750,2	110,647
750,6	103,447
751,1	101,047
751,5	97,967
751,9	103,287
752,4	105,767
752,8	108,807
753,3	110,807
753,7	108,607
754,1	106,727
754,6	110,367
755	101,807
755,4	102,207
755,9	106,927
756,3	102,687
756,7	95,327
757,2	94,247
757,6	91,647
758	88,567
758,5	91,607
758,9	90,327
759,3	99,647
759,8	100,087
760,2	96,447
760,6	94,167
761,1	90,367
761,5	87,727
761,9	89,887
762,4	86,447
762,8	87,007
763,3	91,247
763,7	86,847
764,1	84,887
764,6	87,847
765	89,207
765,4	83,727
765,9	82,087
766,3	81,487
766,7	77,287
767,2	73,927
767,6	80,087
768	84,487
768,5	78,487
768,9	81,487
769,3	86,127
769,8	83,887
770,2	81,727
770,6	85,767
771,1	88,727
771,5	82,767
771,9	83,287
772,4	82,567
772,8	88,487
773,2	87,527
773,7	88,167
774,1	84,687
774,5	82,927
775	75,327
775,4	74,207
775,8	73,567
776,3	70,647
776,7	72,807
777,1	78,727
777,6	78,807
778	77,127
778,4	84,807
778,9	80,167
779,3	68,167
779,7	66,607
780,2	70,087
780,6	61,807
781	64,047
781,5	70,287
781,9	63,367
782,3	56,287
782,8	62,087
783,2	65,407
783,6	68,367
784,1	73,247
784,5	71,527
784,9	69,287
785,4	68,407
785,8	65,167
786,2	58,567
786,7	65,047
787,1	58,247
787,5	49,007
788	50,687
788,4	56,327
788,8	52,647
789,3	57,887
789,7	63,167
790,1	58,327
790,6	56,727
791	56,247
791,4	55,607
791,9	50,607
792,3	49,167
792,7	48,607
793,2	51,567
793,6	47,207
794	52,567
794,5	54,727
794,9	54,527
795,3	47,887
795,8	51,687
796,2	49,967
796,6	46,247
797,1	44,887
797,5	47,687
797,9	43,807
798,4	45,087
798,8	47,607
799,2	49,287
799,7	48,127
800,1	49,207
800,5	41,927
801	38,007
801,4	33,167
801,8	34,927
802,2	38,927
802,7	44,487
803,1	44,727
803,5	45,207
804	47,207
804,4	43,687
804,8	40,847
805,3	43,127
805,7	41,447
806,1	38,207
806,6	36,727
807	33,167
807,4	33,967
807,9	38,127
808,3	33,047
808,7	35,207
809,2	42,167
809,6	42,167
810	36,207
810,4	40,847
810,9	39,967
811,3	30,487
811,7	34,327
812,2	41,767
812,6	36,727
813	38,127
813,5	46,007
813,9	38,407
814,3	40,087
814,8	44,607
815,2	40,607
815,6	34,247
816,1	37,407
816,5	29,847
816,9	29,887
817,3	28,567
817,8	26,847
818,2	23,767
818,6	25,407
819,1	23,607
819,5	29,327
819,9	35,407
820,4	39,607
820,8	36,047
821,2	35,047
821,7	32,527
822,1	32,727
822,5	25,647
822,9	29,367
823,4	30,407
823,8	31,287
824,2	27,527
824,7	31,207
825,1	31,527
825,5	30,607
826	23,287
826,4	20,527
826,8	16,287
827,3	13,687
827,7	9,487
828,1	14,287
828,5	16,527
829	17,367
829,4	16,047
829,8	15,807
830,3	20,327
830,7	21,127
831,1	11,367
831,6	21,127
832	21,127
832,4	14,287
832,8	15,167
833,3	27,207
833,7	23,887
834,1	23,567
834,6	20,207
835	20,087
835,4	23,047
835,8	18,047
836,3	22,487
836,7	26,207
837,1	21,567
837,6	15,727
838	15,567
838,4	12,287
838,9	8,287
839,3	10,767
839,7	11,007
840,1	19,407
840,6	19,247
841	23,487
841,4	28,047
841,9	31,567
842,3	17,247
842,7	17,047
843,1	19,047
843,6	9,927
844	3,287
844,4	8,007
844,9	12,367
845,3	9,567
845,7	13,647
846,2	16,647
846,6	18,887
847	9,367
847,4	7,807
847,9	6,327
848,3	0,367
848,7	-1,433
849,2	4,127
849,6	2,567
850	5,247
850,4	7,167
850,9	6,127
851,3	5,887
851,7	1,127
852,2	2,567
852,6	7,927
853	8,607
853,4	12,087
853,9	20,287
854,3	22,127
854,7	21,847
855,2	18,847
855,6	15,407
856	14,567
856,4	8,607
856,9	7,567
857,3	10,767
857,7	14,727
858,2	13,647
858,6	14,447
859	11,447
859,4	15,087
859,9	9,327
860,3	13,207
860,7	10,727
861,1	11,207
861,6	6,127
862	0,927
862,4	-3,793
862,9	-0,473
863,3	-1,153
863,7	1,007
864,1	10,327
864,6	13,407
865	17,167
865,4	16,047
865,9	11,007
866,3	3,327
866,7	1,727
867,1	1,127
867,6	-0,673
868	-1,233
868,4	5,167
868,8	2,967
869,3	0,007
869,7	5,447
870,1	5,567
870,6	2,607
871	7,287
871,4	-10,873
871,8	-14,553
872,3	-13,113
872,7	-15,273
873,1	-13,513
873,5	6,087
874	13,167
874,4	20,887
874,8	23,207
875,3	18,407
875,7	17,327
876,1	12,487
876,5	4,807
877	9,367
877,4	8,407
877,8	7,287
878,2	9,847
878,7	14,487
879,1	11,047
879,5	10,927
879,9	8,087
880,4	7,967
880,8	5,527
881,2	5,127
881,7	2,727
882,1	3,287
882,5	-1,513
882,9	-0,673
883,4	-1,673
883,8	0,287
884,2	1,967
884,6	5,687
885,1	0,047
885,5	0,807
885,9	2,407
886,3	-1,153
886,8	1,127
887,2	5,687
887,6	6,807
888	-1,753
888,5	2,167
888,9	1,687
889,3	1,527
889,8	1,927
890,2	6,807
890,6	7,607
891	2,327
891,5	2,727
891,9	-0,273
892,3	-0,153
892,7	-2,993
893,2	0,407
893,6	0,567
894	-2,233
894,4	-0,833
894,9	-1,033
895,3	-0,713
895,7	-0,233
896,1	7,167
896,6	11,567
897	10,727
897,4	7,487
897,8	6,327
898,3	-1,353
898,7	-0,873
899,1	0,167
899,5	-0,913
900	-3,513
900,4	3,127
900,8	-3,193
901,2	0,927
901,7	0,407
902,1	0,887
902,5	0,967
902,9	5,847
903,4	9,327
903,8	10,007
904,2	11,967
904,6	8,647
905,1	3,847
905,5	-4,353
905,9	-3,033
906,3	-4,913
906,8	0,047
907,2	1,847
907,6	3,647
908	3,687
908,5	2,047
908,9	-2,953
909,3	-6,713
909,7	-6,993
910,2	-4,753
910,6	-3,113
911	-1,953
911,4	-1,313
911,9	-1,233
912,3	-1,033
912,7	-4,473
913,1	-0,153
913,6	1,767
914	-4,793
914,4	-14,873
914,8	-10,793
915,3	-17,633
915,7	-15,153
916,1	-14,473
916,5	-4,233
916,9	-0,033
917,4	6,487
917,8	4,407
918,2	8,367
918,6	5,287
919,1	2,607
919,5	-9,913
919,9	-4,513
920,3	-3,593
920,8	1,407
921,2	-3,513
921,6	-0,913
922	-11,153
922,5	-10,673
922,9	-19,673
923,3	-10,793
923,7	-5,593
924,2	0,847
924,6	0,407
925	3,007
925,4	0,767
925,8	-3,793
926,3	-7,193
926,7	-11,473
927,1	-9,993
927,5	-15,793
928	-16,313
928,4	-15,713
928,8	-9,633
929,2	-11,233
929,7	-6,793
930,1	2,207
930,5	6,207
930,9	1,287
931,3	-0,553
931,8	-7,873
932,2	-14,153
932,6	-22,473
933	-22,393
933,5	-21,273
933,9	-13,353
934,3	-14,593
934,7	-7,473
935,2	-0,913
935,6	2,847
936	-3,193
936,4	-1,633
936,8	-9,113
937,3	-7,593
937,7	-9,153
938,1	-5,313
938,5	-7,833
939	-6,833
939,4	-12,153
939,8	-13,433
940,2	-15,513
940,6	-15,113
941,1	-13,593
941,5	-14,113
941,9	-15,873
942,3	-12,953
942,8	-7,953
943,2	-2,433
943,6	-6,433
944	-3,353
944,4	-8,153
944,9	-9,993
945,3	-8,833
945,7	-8,553
946,1	-14,073
946,6	-15,833
947	-11,793
947,4	-13,633
947,8	-9,553
948,2	-4,633
948,7	-4,673
949,1	-6,633
949,5	-7,193
949,9	-5,793
950,3	-5,953
950,8	-0,553
951,2	0,927
951,6	-2,273
952	-2,313
952,5	-0,793
952,9	2,367
953,3	-6,633
953,7	-5,553
954,1	-8,553
954,6	-6,313
955	-11,353
955,4	-4,433
955,8	-2,793
956,2	-3,273
956,7	-11,673
957,1	-11,753
957,5	-15,033
957,9	-16,393
958,3	-11,193
958,8	-6,633
959,2	-5,393
959,6	-6,433
960	-5,273
960,5	-9,993
960,9	-12,673
961,3	-10,393
961,7	-4,633
962,1	-5,073
962,6	-1,353
963	4,087
963,4	4,007
963,8	2,087
964,2	-4,793
964,7	-4,353
965,1	-6,273
965,5	-16,273
965,9	-17,153
966,3	-7,953
966,8	-12,233
967,2	-16,833
967,6	-12,033
968	-21,473
968,4	-21,993
968,9	-22,753
969,3	-11,193
969,7	-8,273
970,1	-1,633
970,5	-9,953
971	-6,673
971,4	-12,553
971,8	-11,633
972,2	-8,473
972,6	-6,193
973,1	-9,073
973,5	-13,793
973,9	-19,273
974,3	-18,753
974,7	-14,673
975,2	-15,193
975,6	-14,593
976	-10,513
976,4	-15,433
976,8	-13,353
977,3	-9,793
977,7	-7,273
978,1	-4,433
978,5	-1,393
978,9	-6,913
979,4	-1,673
979,8	3,207
980,2	0,887
980,6	-0,233
981	4,687
981,5	-0,513
981,9	-3,233
982,3	-6,313
982,7	-3,913
983,1	-5,633
983,6	-3,113
984	-0,593
984,4	4,247
984,8	2,127
985,2	5,207
985,6	0,087
986,1	-9,873
986,5	-14,113
986,9	-14,433
987,3	-19,713
987,7	-19,833
988,2	-18,593
988,6	-15,673
989	-10,833
989,4	-11,193
989,8	-13,433
990,3	-15,633
990,7	-20,073
991,1	-21,513
991,5	-17,713
991,9	-16,353
992,3	-12,433
992,8	-10,513
993,2	-10,513
993,6	-8,593
994	-5,593
994,4	-2,473
994,9	-0,233
995,3	-3,073
995,7	-12,993
996,1	-12,913
996,5	-12,473
996,9	-18,353
997,4	-22,993
997,8	-20,233
998,2	-21,153
998,6	-23,953
999	-19,313
999,5	-14,073
999,9	-11,473
1000,3	-13,113
1000,7	-11,993
1001,1	-11,793
1001,5	-15,793
1002	-17,873
1002,4	-19,313
1002,8	-22,033
1003,2	-24,393
1003,6	-21,993
1004	-19,393
1004,5	-14,113
1004,9	-9,833
1005,3	-12,673
1005,7	-14,273
1006,1	-17,393
1006,6	-18,313
1007	-19,713
1007,4	-14,473
1007,8	-11,993
1008,2	-9,193
1008,6	-13,433
1009,1	-15,473
1009,5	-18,553
1009,9	-18,913
1010,3	-14,993
1010,7	-13,833
1011,1	-5,993
1011,6	-0,513
1012	-4,233
1012,4	-10,313
1012,8	-15,113
1013,2	-20,273
1013,6	-24,233
1014,1	-19,993
1014,5	-16,273
1014,9	-11,753
1015,3	-13,073
1015,7	-12,913
1016,1	-14,393
1016,6	-19,313
1017	-16,393
1017,4	-15,913
1017,8	-15,473
1018,2	-7,313
1018,6	-6,753
1019,1	-5,513
1019,5	-1,553
1019,9	3,167
1020,3	-10,233
1020,7	-11,073
1021,1	-13,593
1021,6	-16,793
1022	-18,033
1022,4	-13,713
1022,8	-4,313
1023,2	-3,593
1023,6	-6,033
1024,1	-9,513
1024,5	-4,033
1024,9	-11,713
1025,3	-17,913
1025,7	-15,273
1026,1	-13,873
1026,6	-17,513
1027	-11,633
1027,4	-6,553
1027,8	0,927
1028,2	1,007
1028,6	6,487
1029	4,087
1029,5	7,047
1029,9	-3,233
1030,3	-5,993
1030,7	-10,313
1031,1	-14,633
1031,5	-21,313
1032	-20,073
1032,4	-20,593
1032,8	-17,353
1033,2	-16,793
1033,6	-17,753
1034	-18,593
1034,4	-15,793
1034,9	-22,753
1035,3	-22,713
1035,7	-14,873
1036,1	-17,993
1036,5	-15,953
1036,9	-9,753
1037,4	-10,993
1037,8	-9,153
1038,2	-5,633
1038,6	-10,153
1039	-15,353
1039,4	-11,193
1039,8	-19,673
1040,3	-24,033
1040,7	-17,353
1041,1	-14,753
1041,5	-18,033
1041,9	-16,433
1042,3	-15,033
1042,7	-16,713
1043,2	-15,233
1043,6	-14,753
1044	-16,353
1044,4	-12,193
1044,8	-9,873
1045,2	-13,633
1045,6	-3,553
1046,1	-1,993
1046,5	1,767
1046,9	-4,113
1047,3	5,447
1047,7	-4,273
1048,1	-3,153
1048,5	-12,713
1049	-10,433
1049,4	-15,993
1049,8	-11,953
1050,2	-5,433
1050,6	4,567
1051	5,367
1051,4	3,927
1051,9	-2,633
1052,3	-8,673
1052,7	-18,153
1053,1	-18,233
1053,5	-22,873
1053,9	-16,833
1054,3	-19,833
1054,8	-16,593
1055,2	-15,393
1055,6	-14,913
1056	-15,633
1056,4	-12,393
1056,8	-7,233
1057,2	-9,593
1057,6	-3,753
1058,1	-6,913
1058,5	-11,753
1058,9	-18,113
1059,3	-18,073
1059,7	-17,193
1060,1	-13,473
1060,5	-7,073
1061	-4,793
1061,4	-8,433
1061,8	-10,513
1062,2	-9,593
1062,6	-10,153
1063	-7,833
1063,4	-7,393
1063,8	-8,873
1064,3	-12,473
1064,7	-12,313
1065,1	-13,913
1065,5	-8,233
1065,9	-6,953
1066,3	-5,113
1066,7	-6,273
1067,1	-8,993
1067,6	-11,313
1068	-13,993
1068,4	-12,073
1068,8	-15,513
1069,2	-14,393
1069,6	-16,993
1070	-9,473
1070,4	-15,353
1070,9	-19,033
1071,3	-16,353
1071,7	-14,353
1072,1	-24,833
1072,5	-22,593
1072,9	-18,033
1073,3	-20,593
1073,7	-19,513
1074,2	-21,833
1074,6	-22,873
1075	-19,313
1075,4	-12,713
1075,8	-21,673
1076,2	-14,673
1076,6	-13,593
1077	-13,713
1077,5	-22,433
1077,9	-13,913
1078,3	-11,793
1078,7	-13,553
1079,1	-11,913
1079,5	-6,633
1079,9	-6,473
1080,3	-6,953
1080,7	-6,873
1081,2	-9,873
1081,6	-6,113
1082	-12,353
1082,4	-8,993
1082,8	-3,713
1083,2	0,727
1083,6	-5,193
1084	4,847
1084,5	0,367
1084,9	1,567
1085,3	-1,833
1085,7	-1,513
1086,1	-6,513
1086,5	-8,193
1086,9	-16,553
1087,3	-18,313
1087,7	-18,433
1088,2	-19,113
1088,6	-21,793
1089	-22,393
1089,4	-20,313
1089,8	-22,433
1090,2	-19,873
1090,6	-13,113
1091	-8,553
1091,4	-6,273
1091,9	-3,673
1092,3	-5,433
1092,7	-8,313
1093,1	-7,393
1093,5	-10,353
1093,9	-9,273
1094,3	-10,113
1094,7	-10,433
1095,1	-6,673
1095,5	-4,993
1096	-3,833
1096,4	-3,513
1096,8	1,567
1097,2	-2,593
1097,6	1,007
1098	0,527
1098,4	-0,113
1098,8	-1,193
1099,2	-4,353
1099,6	-4,553
1100,1	-4,073
1100,5	-3,153
1100,9	-3,033
1101,3	1,807
1101,7	-6,033
1102,1	-8,793
1102,5	-9,393
1102,9	-15,313
1103,3	-15,793
1103,7	-14,593
1104,2	-13,753
1104,6	-12,353
1105	-7,913
1105,4	-9,433
1105,8	-6,553
1106,2	-4,513
1106,6	-3,433
1107	-2,673
1107,4	-0,273
1107,8	0,267
1108,3	-0,3
