Data from Subt2_00026.txt Node
Date: Fri Aug 11 15:40:50 MSK 2023
User: vat
Spectrometer: MAYP114033
Trigger mode: 0
Integration Time (sec): 5,000000E-1
Scans to average: 5
Electric dark correction enabled: true
Nonlinearity correction enabled: false
Boxcar width: 2
XAxis mode: Wavelengths
Number of Pixels in Spectrum: 2068
>>>>>Begin Spectral Data<<<<<
199,4	-0,467
199,9	0,383
200,4	-7,307
200,8	-17,867
201,3	-27,987
201,8	-35,427
202,2	-40,547
202,7	-44,907
203,2	-40,267
203,6	-38,107
204,1	-40,027
204,6	-47,147
205	-50,347
205,5	-57,707
206	-54,587
206,4	-57,267
206,9	-61,827
207,4	-60,987
207,8	-53,267
208,3	-57,307
208,8	-55,267
209,2	-49,547
209,7	-45,587
210,2	-55,467
210,6	-57,707
211,1	-62,467
211,5	-63,867
212	-63,387
212,5	-56,227
212,9	-57,107
213,4	-53,067
213,9	-58,707
214,3	-60,747
214,8	-70,107
215,3	-68,467
215,7	-67,747
216,2	-67,947
216,7	-69,507
217,1	-64,347
217,6	-63,987
218,1	-64,947
218,5	-57,747
219	-55,507
219,5	-58,027
219,9	-63,067
220,4	-56,307
220,9	-57,467
221,3	-57,347
221,8	-58,627
222,3	-58,587
222,7	-69,267
223,2	-68,667
223,6	-74,307
224,1	-71,227
224,6	-70,627
225	-71,067
225,5	-74,467
226	-71,307
226,4	-69,587
226,9	-67,547
227,4	-62,827
227,8	-63,507
228,3	-66,907
228,8	-69,507
229,2	-74,907
229,7	-82,187
230,2	-79,467
230,6	-76,267
231,1	-83,067
231,5	-80,147
232	-71,027
232,5	-71,947
232,9	-71,227
233,4	-65,707
233,9	-68,147
234,3	-74,147
234,8	-73,987
235,3	-77,707
235,7	-72,267
236,2	-66,747
236,7	-67,987
237,1	-69,027
237,6	-68,987
238,1	-73,107
238,5	-74,307
239	-76,787
239,4	-75,027
239,9	-69,467
240,4	-69,387
240,8	-71,267
241,3	-70,547
241,8	-73,787
242,2	-78,147
242,7	-79,147
243,2	-74,467
243,6	-70,787
244,1	-69,907
244,6	-67,027
245	-63,587
245,5	-68,067
245,9	-68,587
246,4	-71,947
246,9	-77,627
247,3	-83,267
247,8	-79,067
248,3	-76,627
248,7	-66,387
249,2	-64,787
249,7	-59,867
250,1	-67,667
250,6	-66,707
251	-69,307
251,5	-67,987
252	-68,747
252,4	-63,867
252,9	-64,907
253,4	-72,107
253,8	-71,947
254,3	-76,867
254,8	-77,387
255,2	-82,027
255,7	-77,147
256,1	-69,987
256,6	-63,227
257,1	-66,227
257,5	-59,467
258	-56,387
258,5	-59,787
258,9	-63,627
259,4	-62,627
259,9	-69,227
260,3	-73,827
260,8	-74,627
261,2	-78,907
261,7	-75,227
262,2	-72,747
262,6	-76,947
263,1	-87,187
263,6	-82,827
264	-83,867
264,5	-79,347
264,9	-71,787
265,4	-69,107
265,9	-64,547
266,3	-64,547
266,8	-63,107
267,3	-69,787
267,7	-63,987
268,2	-65,107
268,7	-62,467
269,1	-66,747
269,6	-60,027
270	-50,907
270,5	-53,507
271	-60,827
271,4	-61,467
271,9	-69,347
272,4	-77,067
272,8	-79,587
273,3	-78,787
273,7	-77,627
274,2	-70,907
274,7	-72,827
275,1	-65,827
275,6	-62,347
276,1	-67,267
276,5	-73,147
277	-71,027
277,4	-79,427
277,9	-75,027
278,4	-70,387
278,8	-66,587
279,3	-68,907
279,8	-63,067
280,2	-67,227
280,7	-66,427
281,1	-62,347
281,6	-61,067
282,1	-61,347
282,5	-70,987
283	-79,827
283,4	-82,387
283,9	-79,227
284,4	-80,467
284,8	-67,347
285,3	-56,667
285,8	-55,627
286,2	-60,987
286,7	-58,507
287,1	-65,147
287,6	-73,107
288,1	-72,427
288,5	-69,507
289	-71,467
289,5	-68,627
289,9	-63,027
290,4	-68,987
290,8	-65,667
291,3	-67,067
291,8	-65,507
292,2	-66,347
292,7	-61,227
293,1	-69,067
293,6	-71,507
294,1	-68,547
294,5	-72,867
295	-73,547
295,5	-66,387
295,9	-59,307
296,4	-69,067
296,8	-72,227
297,3	-68,347
297,8	-74,307
298,2	-73,307
298,7	-75,107
299,1	-63,987
299,6	-67,787
300,1	-65,747
300,5	-66,787
301	-56,187
301,5	-62,987
301,9	-66,987
302,4	-69,067
302,8	-71,667
303,3	-77,067
303,8	-76,587
304,2	-78,227
304,7	-81,427
305,1	-81,467
305,6	-83,547
306,1	-82,627
306,5	-83,307
307	-75,067
307,4	-74,347
307,9	-65,907
308,4	-68,107
308,8	-62,787
309,3	-67,787
309,8	-69,827
310,2	-72,667
310,7	-72,507
311,1	-69,067
311,6	-67,907
312,1	-66,067
312,5	-65,267
313	-59,707
313,4	-61,307
313,9	-56,787
314,4	-56,707
314,8	-61,227
315,3	-61,707
315,7	-65,507
316,2	-67,587
316,7	-70,507
317,1	-70,987
317,6	-75,827
318	-74,147
318,5	-75,107
319	-71,067
319,4	-75,827
319,9	-72,307
320,3	-69,867
320,8	-72,587
321,3	-77,107
321,7	-66,547
322,2	-64,027
322,6	-61,667
323,1	-59,947
323,6	-54,387
324	-58,507
324,5	-59,827
324,9	-63,707
325,4	-62,107
325,9	-66,067
326,3	-65,827
326,8	-67,147
327,2	-69,427
327,7	-75,547
328,2	-73,427
328,6	-70,947
329,1	-70,747
329,5	-64,787
330	-54,667
330,5	-54,867
330,9	-61,587
331,4	-63,987
331,8	-73,427
332,3	-78,907
332,8	-79,787
333,2	-76,267
333,7	-76,427
334,1	-73,667
334,6	-69,027
335,1	-66,427
335,5	-65,467
336	-70,107
336,4	-67,227
336,9	-71,227
337,4	-75,187
337,8	-72,187
338,3	-63,947
338,7	-64,627
339,2	-65,707
339,7	-69,467
340,1	-77,187
340,6	-76,867
341	-78,587
341,5	-79,507
342	-75,947
342,4	-67,707
342,9	-70,427
343,3	-67,547
343,8	-66,547
344,2	-66,067
344,7	-69,707
345,2	-73,627
345,6	-72,227
346,1	-69,987
346,5	-71,707
347	-73,307
347,5	-71,867
347,9	-68,507
348,4	-70,507
348,8	-65,947
349,3	-64,267
349,8	-59,107
350,2	-63,467
350,7	-62,907
351,1	-64,627
351,6	-61,187
352	-65,507
352,5	-64,707
353	-52,187
353,4	-50,627
353,9	-51,627
354,3	-43,347
354,8	-37,507
355,3	-39,267
355,7	-32,987
356,2	-26,867
356,6	-29,267
357,1	-27,267
357,5	-23,627
358	-22,307
358,5	-10,627
358,9	10,653
359,4	30,693
359,8	42,333
360,3	62,893
360,8	80,173
361,2	97,453
361,7	112,453
362,1	138,493
362,6	171,013
363	208,053
363,5	238,533
364	276,133
364,4	312,973
364,9	346,933
365,3	374,813
365,8	408,413
366,3	432,613
366,7	460,733
367,2	481,013
367,6	496,813
368,1	511,893
368,5	527,253
369	525,773
369,5	525,933
369,9	529,933
370,4	518,613
370,8	500,973
371,3	491,053
371,7	468,453
372,2	442,013
372,7	417,173
373,1	393,133
373,6	361,053
374	334,173
374,5	304,333
374,9	277,093
375,4	251,453
375,9	230,733
376,3	214,173
376,8	183,973
377,2	160,013
377,7	137,613
378,2	120,053
378,6	97,613
379,1	91,973
379,5	86,213
380	77,573
380,4	66,973
380,9	59,493
381,4	46,253
381,8	32,053
382,3	22,373
382,7	11,333
383,2	9,253
383,6	3,373
384,1	-2,307
384,6	-9,027
385	-7,667
385,5	-16,627
385,9	-15,427
386,4	-12,387
386,8	-6,827
387,3	-17,707
387,7	-24,507
388,2	-29,427
388,7	-28,867
389,1	-37,987
389,6	-33,387
390	-32,907
390,5	-33,427
390,9	-43,107
391,4	-46,227
391,9	-51,107
392,3	-51,027
392,8	-53,107
393,2	-46,787
393,7	-48,667
394,1	-49,667
394,6	-53,627
395,1	-50,387
395,5	-55,227
396	-52,867
396,4	-52,747
396,9	-53,067
397,3	-57,387
397,8	-59,787
398,2	-55,907
398,7	-55,027
399,2	-54,347
399,6	-51,107
400,1	-45,027
400,5	-47,267
401	-49,627
401,4	-51,627
401,9	-50,427
402,4	-56,227
402,8	-59,347
403,3	-56,907
403,7	-52,467
404,2	-54,067
404,6	-54,147
405,1	-49,107
405,5	-50,507
406	-48,067
406,5	-50,267
406,9	-50,707
407,4	-52,187
407,8	-51,707
408,3	-47,827
408,7	-46,907
409,2	-40,547
409,6	-38,787
410,1	-39,827
410,6	-49,907
411	-51,427
411,5	-58,147
411,9	-60,227
412,4	-53,507
412,8	-49,907
413,3	-53,747
413,7	-46,227
414,2	-40,427
414,7	-46,427
415,1	-39,387
415,6	-30,027
416	-25,187
416,5	-24,107
416,9	-12,067
417,4	-8,347
417,8	-4,507
418,3	-10,667
418,8	-8,027
419,2	-12,667
419,7	-10,267
420,1	-14,347
420,6	-16,187
421	-22,107
421,5	-17,027
421,9	-24,067
422,4	-17,547
422,8	-10,427
423,3	1,253
423,8	6,613
424,2	9,093
424,7	14,813
425,1	20,973
425,6	22,733
426	16,293
426,5	25,893
426,9	16,493
427,4	18,933
427,9	19,333
428,3	24,813
428,8	20,013
429,2	25,533
429,7	28,853
430,1	31,573
430,6	34,533
431	43,653
431,5	52,053
431,9	46,293
432,4	49,493
432,8	57,333
433,3	61,933
433,8	63,613
434,2	76,013
434,7	84,653
435,1	83,613
435,6	89,653
436	92,693
436,5	100,933
436,9	104,773
437,4	117,893
437,8	122,373
438,3	133,053
438,8	135,093
439,2	136,973
439,7	137,413
440,1	145,413
440,6	150,533
441	158,933
441,5	169,293
441,9	186,853
442,4	192,693
442,8	203,213
443,3	211,493
443,7	221,373
444,2	227,253
444,7	239,733
445,1	251,493
445,6	267,173
446	284,493
446,5	298,533
446,9	318,173
447,4	329,533
447,8	340,333
448,3	346,893
448,7	356,413
449,2	366,253
449,6	379,053
450,1	395,053
450,6	411,853
451	428,773
451,5	439,133
451,9	452,093
452,4	469,053
452,8	487,333
453,3	496,093
453,7	507,173
454,2	525,413
454,6	538,773
455,1	546,973
455,5	570,973
456	591,813
456,4	609,213
456,9	623,373
457,3	641,213
457,8	653,453
458,3	673,333
458,7	690,653
459,2	712,013
459,6	729,973
460,1	752,053
460,5	773,893
461	799,493
461,4	812,813
461,9	837,853
462,3	858,933
462,8	871,813
463,2	890,773
463,7	909,133
464,1	928,413
464,6	940,133
465	960,333
465,5	971,213
466	989,933
466,4	1004,093
466,9	1023,973
467,3	1041,173
467,8	1058,413
468,2	1080,173
468,7	1097,533
469,1	1117,333
469,6	1136,453
470	1155,733
470,5	1168,893
470,9	1188,693
471,4	1201,733
471,8	1207,653
472,3	1221,653
472,7	1232,893
473,2	1247,773
473,6	1263,653
474,1	1284,493
474,5	1300,133
475	1320,813
475,4	1331,413
475,9	1347,733
476,4	1365,133
476,8	1380,853
477,3	1397,813
477,7	1411,813
478,2	1422,853
478,6	1429,333
479,1	1445,413
479,5	1451,693
480	1461,773
480,4	1473,093
480,9	1485,413
481,3	1497,453
481,8	1515,773
482,2	1528,853
482,7	1539,693
483,1	1554,933
483,6	1560,773
484	1564,533
484,5	1570,373
484,9	1572,773
485,4	1572,133
485,8	1576,733
486,3	1585,093
486,7	1594,973
487,2	1608,173
487,6	1615,453
488,1	1624,453
488,5	1628,253
489	1634,773
489,4	1629,373
489,9	1633,013
490,4	1629,213
490,8	1634,933
491,3	1634,773
491,7	1642,213
492,2	1643,853
492,6	1646,213
493,1	1650,613
493,5	1651,733
494	1651,013
494,4	1651,973
494,9	1647,653
495,3	1641,373
495,8	1643,533
496,2	1647,493
496,7	1649,933
497,1	1650,013
497,6	1648,453
498	1637,093
498,5	1633,973
498,9	1627,493
499,4	1630,613
499,8	1626,733
500,3	1624,293
500,7	1619,253
501,2	1618,933
501,6	1611,773
502,1	1616,293
502,5	1619,013
503	1617,293
503,4	1609,253
503,9	1606,013
504,3	1590,373
504,8	1587,013
505,2	1579,773
505,7	1577,053
506,1	1575,373
506,6	1569,973
507	1558,453
507,5	1556,973
507,9	1556,093
508,4	1552,613
508,8	1553,653
509,3	1554,413
509,7	1547,533
510,2	1542,013
510,6	1538,013
511,1	1529,933
511,5	1521,653
512	1518,693
512,4	1510,733
512,9	1501,573
513,3	1494,173
513,8	1493,773
514,2	1488,413
514,7	1484,293
515,1	1479,493
515,6	1474,493
516	1472,973
516,5	1461,293
516,9	1458,133
517,4	1453,133
517,8	1453,053
518,3	1441,733
518,7	1446,253
519,2	1438,693
519,6	1433,973
520,1	1422,733
520,5	1420,853
521	1400,933
521,4	1395,613
521,9	1389,653
522,3	1382,533
522,8	1373,173
523,2	1377,173
523,7	1374,733
524,1	1368,293
524,6	1370,133
525	1364,013
525,5	1362,213
525,9	1359,093
526,4	1355,973
526,8	1343,093
527,3	1336,173
527,7	1324,253
528,2	1316,453
528,6	1311,133
529,1	1312,613
529,5	1312,813
530	1315,733
530,4	1315,653
530,9	1314,093
531,3	1314,173
531,8	1314,973
532,2	1308,053
532,6	1301,333
533,1	1293,853
533,5	1288,413
534	1279,013
534,4	1278,493
534,9	1276,013
535,3	1280,213
535,8	1273,453
536,2	1268,013
536,7	1262,853
537,1	1252,773
537,6	1242,013
538	1239,093
538,5	1230,093
538,9	1229,453
539,4	1240,133
539,8	1238,493
540,3	1235,773
540,7	1244,573
541,2	1234,333
541,6	1223,373
542,1	1225,973
542,5	1227,813
543	1219,693
543,4	1221,133
543,9	1219,853
544,3	1218,733
544,8	1217,213
545,2	1224,533
545,7	1228,693
546,1	1229,253
546,5	1224,573
547	1219,413
547,4	1211,813
547,9	1204,133
548,3	1198,053
548,8	1193,373
549,2	1193,213
549,7	1194,373
550,1	1195,573
550,6	1196,173
551	1193,613
551,5	1196,413
551,9	1194,413
552,4	1199,093
552,8	1197,333
553,3	1201,693
553,7	1197,573
554,2	1198,373
554,6	1200,733
555,1	1195,573
555,5	1193,093
555,9	1194,133
556,4	1194,813
556,8	1184,653
557,3	1185,373
557,7	1179,893
558,2	1179,053
558,6	1170,653
559,1	1164,413
559,5	1164,213
560	1167,573
560,4	1162,293
560,9	1161,853
561,3	1157,773
561,8	1155,253
562,2	1153,853
562,7	1146,773
563,1	1145,573
563,6	1154,253
564	1155,853
564,4	1160,773
564,9	1164,573
565,3	1161,413
565,8	1154,573
566,2	1149,533
566,7	1143,573
567,1	1142,893
567,6	1140,493
568	1143,573
568,5	1139,613
568,9	1129,373
569,4	1131,333
569,8	1129,253
570,3	1126,213
570,7	1126,413
571,1	1119,613
571,6	1116,013
572	1119,893
572,5	1116,253
572,9	1115,093
573,4	1125,973
573,8	1120,733
574,3	1115,173
574,7	1111,413
575,2	1109,213
575,6	1098,053
576,1	1093,053
576,5	1079,813
576,9	1075,613
577,4	1075,413
577,8	1076,293
578,3	1072,173
578,7	1081,373
579,2	1080,133
579,6	1077,373
580,1	1069,413
580,5	1073,493
581	1069,293
581,4	1058,853
581,9	1050,173
582,3	1055,053
582,7	1044,453
583,2	1034,453
583,6	1040,213
584,1	1040,733
584,5	1027,173
585	1025,333
585,4	1018,613
585,9	1014,373
586,3	1008,333
586,8	1005,413
587,2	1003,733
587,6	1012,333
588,1	1010,093
588,5	1005,213
589	1011,973
589,4	1009,813
589,9	1002,013
590,3	994,093
590,8	992,533
591,2	975,653
591,7	975,613
592,1	977,493
592,5	978,613
593	970,493
593,4	972,333
593,9	959,973
594,3	951,253
594,8	942,413
595,2	951,133
595,7	958,613
596,1	963,013
596,6	964,613
597	972,573
597,4	967,093
597,9	959,133
598,3	951,693
598,8	943,493
599,2	928,733
599,7	922,413
600,1	915,093
600,6	910,973
601	906,413
601,4	903,973
601,9	902,453
602,3	902,893
602,8	901,813
603,2	894,293
603,7	893,773
604,1	880,333
604,6	875,853
605	877,773
605,4	878,253
605,9	878,093
606,3	883,173
606,8	885,973
607,2	880,893
607,7	878,093
608,1	870,933
608,6	871,053
609	863,333
609,4	855,653
609,9	849,693
610,3	846,133
610,8	837,413
611,2	829,853
611,7	829,253
612,1	823,653
612,6	820,373
613	812,413
613,4	813,213
613,9	803,933
614,3	802,093
614,8	797,453
615,2	794,093
615,7	786,693
616,1	779,613
616,6	773,253
617	767,213
617,4	761,733
617,9	760,653
618,3	751,933
618,8	748,733
619,2	746,413
619,7	746,173
620,1	734,013
620,5	745,573
621	741,933
621,4	737,093
621,9	734,773
622,3	732,333
622,8	722,973
623,2	712,893
623,6	711,613
624,1	705,493
624,5	698,573
625	694,773
625,4	695,893
625,9	685,333
626,3	681,133
626,8	685,693
627,2	681,413
627,6	682,533
628,1	683,613
628,5	677,973
629	669,053
629,4	662,973
629,9	656,333
630,3	646,933
630,7	647,533
631,2	638,693
631,6	631,893
632,1	630,773
632,5	630,493
633	623,693
633,4	623,453
633,8	617,333
634,3	614,213
634,7	608,133
635,2	598,373
635,6	600,613
636,1	601,053
636,5	600,693
636,9	592,453
637,4	593,813
637,8	594,533
638,3	584,053
638,7	572,773
639,2	577,293
639,6	573,733
640	563,893
640,5	564,973
640,9	562,573
641,4	548,333
641,8	542,933
642,2	534,573
642,7	530,493
643,1	517,373
643,6	525,253
644	523,333
644,5	517,813
644,9	519,693
645,3	529,493
645,8	523,653
646,2	520,613
646,7	521,573
647,1	512,533
647,6	505,373
648	496,813
648,4	494,453
648,9	487,573
649,3	482,693
649,8	482,373
650,2	494,053
650,6	493,813
651,1	495,813
651,5	502,133
652	494,693
652,4	474,573
652,9	459,653
653,3	452,613
653,7	445,293
654,2	439,253
654,6	445,613
655,1	444,453
655,5	443,413
655,9	445,773
656,4	444,053
656,8	430,453
657,3	433,013
657,7	430,453
658,2	416,493
658,6	416,133
659	412,533
659,5	403,573
659,9	400,893
660,4	397,293
660,8	392,493
661,2	396,493
661,7	398,453
662,1	393,253
662,6	388,093
663	382,973
663,4	378,893
663,9	372,453
664,3	368,053
664,8	371,053
665,2	366,493
665,6	363,813
666,1	363,293
666,5	355,453
667	355,453
667,4	354,573
667,9	351,813
668,3	344,933
668,7	344,253
669,2	341,613
669,6	347,373
670,1	341,613
670,5	342,413
670,9	340,653
671,4	326,813
671,8	312,093
672,3	310,693
672,7	303,773
673,1	299,693
673,6	300,573
674	297,053
674,5	291,573
674,9	288,173
675,3	285,453
675,8	286,613
676,2	283,853
676,7	281,853
677,1	286,293
677,5	285,813
678	284,333
678,4	291,253
678,9	289,253
679,3	282,493
679,7	282,973
680,2	276,213
680,6	267,133
681,1	264,533
681,5	267,093
681,9	261,773
682,4	260,773
682,8	256,533
683,3	257,533
683,7	249,893
684,1	248,573
684,6	244,573
685	240,893
685,5	229,973
685,9	226,173
686,3	229,053
686,8	224,573
687,2	224,373
687,7	224,173
688,1	228,293
688,5	223,053
689	226,413
689,4	223,853
689,9	223,653
690,3	218,853
690,7	212,293
691,2	210,053
691,6	205,933
692	205,733
692,5	207,373
692,9	208,773
693,4	203,853
693,8	212,933
694,2	216,253
694,7	213,333
695,1	211,013
695,6	209,773
696	203,533
696,4	199,173
696,9	196,533
697,3	197,653
697,8	191,653
698,2	185,973
698,6	180,773
699,1	177,133
699,5	166,413
699,9	170,613
700,4	167,773
700,8	167,213
701,3	162,493
701,7	173,053
702,1	171,853
702,6	177,573
703	177,173
703,5	179,493
703,9	165,893
704,3	162,813
704,8	156,213
705,2	156,373
705,6	148,733
706,1	151,093
706,5	149,333
707	148,333
707,4	144,853
707,8	148,013
708,3	153,093
708,7	146,813
709,2	144,253
709,6	141,853
710	137,013
710,5	129,173
710,9	131,893
711,3	131,533
711,8	134,013
712,2	136,653
712,7	133,093
713,1	129,533
713,5	130,093
714	122,333
714,4	114,453
714,8	114,133
715,3	110,973
715,7	111,413
716,2	104,733
716,6	110,253
717	107,893
717,5	110,573
717,9	106,613
718,3	111,693
718,8	109,213
719,2	104,733
719,7	98,533
720,1	93,693
720,5	89,613
721	85,773
721,4	85,213
721,8	89,813
722,3	80,693
722,7	75,733
723,2	71,973
723,6	74,933
724	71,533
724,5	79,693
724,9	86,213
725,3	90,813
725,8	84,893
726,2	87,973
726,7	81,693
727,1	73,853
727,5	69,773
728	69,293
728,4	58,213
728,8	63,573
729,3	75,253
729,7	76,973
730,1	82,613
730,6	86,653
731	82,613
731,5	73,293
731,9	68,733
732,3	64,573
732,8	59,253
733,2	62,573
733,6	65,413
734,1	64,293
734,5	63,053
734,9	67,133
735,4	66,653
735,8	65,093
736,3	61,493
736,7	60,773
737,1	61,973
737,6	57,053
738	49,293
738,4	50,413
738,9	49,333
739,3	47,493
739,7	47,773
740,2	45,053
740,6	46,933
741,1	47,253
741,5	45,493
741,9	45,813
742,4	50,853
742,8	46,653
743,2	43,813
743,7	42,133
744,1	37,773
744,5	33,613
745	38,413
745,4	45,533
745,8	47,573
746,3	52,453
746,7	49,013
747,2	40,653
747,6	29,613
748	21,573
748,5	15,893
748,9	21,973
749,3	30,813
749,8	33,453
750,2	34,693
750,6	33,613
751,1	33,373
751,5	30,173
751,9	30,613
752,4	35,773
752,8	35,493
753,3	36,173
753,7	30,653
754,1	25,213
754,6	23,293
755	30,933
755,4	29,253
755,9	29,053
756,3	33,693
756,7	32,253
757,2	18,253
757,6	15,253
758	12,973
758,5	14,213
758,9	16,173
759,3	24,533
759,8	24,333
760,2	27,133
760,6	20,853
761,1	19,013
761,5	11,493
761,9	4,333
762,4	8,813
762,8	8,973
763,3	6,533
763,7	4,693
764,1	8,093
764,6	2,853
765	5,133
765,4	4,093
765,9	12,013
766,3	12,533
766,7	14,813
767,2	12,813
767,6	11,533
768	-0,507
768,5	2,653
768,9	5,213
769,3	3,653
769,8	2,533
770,2	8,853
770,6	5,893
771,1	1,373
771,5	-3,227
771,9	-3,107
772,4	-3,667
772,8	-9,987
773,2	-8,507
773,7	-3,947
774,1	-8,107
774,5	-10,827
775	-3,267
775,4	-11,307
775,8	-10,507
776,3	-6,627
776,7	-6,467
777,1	-3,907
777,6	-2,027
778	-5,427
778,4	-0,787
778,9	1,253
779,3	-8,427
779,7	-4,867
780,2	-6,987
780,6	-13,347
781	-16,347
781,5	-17,067
781,9	-23,587
782,3	-23,587
782,8	-23,587
783,2	-18,787
783,6	-11,907
784,1	-17,267
784,5	-15,467
784,9	-18,707
785,4	-20,067
785,8	-20,227
786,2	-14,587
786,7	-12,667
787,1	-8,827
787,5	-10,067
788	-10,827
788,4	-12,427
788,8	-15,427
789,3	-17,747
789,7	-21,307
790,1	-22,907
790,6	-13,587
791	-12,627
791,4	-11,907
791,9	-8,667
792,3	-15,107
792,7	-13,907
793,2	-13,667
793,6	-12,107
794	-6,827
794,5	1,413
794,9	-13,747
795,3	-18,267
795,8	-18,307
796,2	-25,947
796,6	-27,027
797,1	-18,187
797,5	-21,787
797,9	-28,867
798,4	-31,867
798,8	-30,507
799,2	-32,627
799,7	-27,627
800,1	-27,307
800,5	-24,467
801	-36,387
801,4	-38,827
801,8	-36,147
802,2	-37,747
802,7	-36,347
803,1	-33,027
803,5	-31,267
804	-37,347
804,4	-37,787
804,8	-33,987
805,3	-30,987
805,7	-42,067
806,1	-41,147
806,6	-34,107
807	-41,427
807,4	-44,147
807,9	-35,387
808,3	-33,507
808,7	-36,707
809,2	-36,387
809,6	-39,387
810	-36,787
810,4	-35,947
810,9	-37,787
811,3	-36,427
811,7	-35,547
812,2	-40,627
812,6	-43,667
813	-45,067
813,5	-39,267
813,9	-31,307
814,3	-26,987
814,8	-20,787
815,2	-22,147
815,6	-30,227
816,1	-34,627
816,5	-46,667
816,9	-49,667
817,3	-49,507
817,8	-50,787
818,2	-53,027
818,6	-48,827
819,1	-51,387
819,5	-48,387
819,9	-47,947
820,4	-47,467
820,8	-37,947
821,2	-36,747
821,7	-35,267
822,1	-32,027
822,5	-30,987
822,9	-33,267
823,4	-32,787
823,8	-37,787
824,2	-39,507
824,7	-39,267
825,1	-41,187
825,5	-41,987
826	-37,387
826,4	-41,027
826,8	-44,147
827,3	-47,867
827,7	-47,067
828,1	-51,347
828,5	-48,427
829	-46,147
829,4	-46,027
829,8	-50,547
830,3	-44,507
830,7	-50,947
831,1	-52,587
831,6	-55,747
832	-53,267
832,4	-58,107
832,8	-53,467
833,3	-54,787
833,7	-47,067
834,1	-52,707
834,6	-53,187
835	-55,147
835,4	-55,147
835,8	-54,027
836,3	-50,027
836,7	-49,067
837,1	-51,027
837,6	-49,667
838	-52,027
838,4	-55,467
838,9	-58,627
839,3	-53,307
839,7	-49,067
840,1	-54,667
840,6	-53,387
841	-54,067
841,4	-59,227
841,9	-61,667
842,3	-58,787
842,7	-58,667
843,1	-54,707
843,6	-49,267
844	-54,467
844,4	-49,827
844,9	-54,787
845,3	-51,827
845,7	-55,547
846,2	-53,147
846,6	-53,827
847	-51,147
847,4	-54,867
847,9	-56,947
848,3	-57,107
848,7	-59,627
849,2	-57,947
849,6	-59,107
850	-49,907
850,4	-48,667
850,9	-46,907
851,3	-40,907
851,7	-43,667
852,2	-48,347
852,6	-54,227
853	-60,387
853,4	-71,627
853,9	-68,907
854,3	-71,427
854,7	-67,507
855,2	-64,827
855,6	-58,507
856	-62,067
856,4	-64,347
856,9	-61,867
857,3	-62,827
857,7	-60,707
858,2	-50,747
858,6	-52,627
859	-55,227
859,4	-53,147
859,9	-56,987
860,3	-62,787
860,7	-51,787
861,1	-51,547
861,6	-52,787
862	-51,947
862,4	-47,107
862,9	-52,187
863,3	-53,427
863,7	-51,027
864,1	-52,107
864,6	-51,907
865	-53,707
865,4	-51,987
865,9	-54,107
866,3	-55,147
866,7	-61,507
867,1	-62,627
867,6	-63,747
868	-66,587
868,4	-66,227
868,8	-66,427
869,3	-70,227
869,7	-68,507
870,1	-66,827
870,6	-63,227
871	-60,547
871,4	-37,947
871,8	-41,867
872,3	-42,347
872,7	-43,307
873,1	-43,707
873,5	-65,587
874	-63,587
874,4	-67,587
874,8	-65,827
875,3	-68,147
875,7	-62,507
876,1	-63,987
876,5	-55,747
877	-61,027
877,4	-58,627
877,8	-54,947
878,2	-52,667
878,7	-59,947
879,1	-56,947
879,5	-52,787
879,9	-56,667
880,4	-60,507
880,8	-60,907
881,2	-61,707
881,7	-65,987
882,1	-62,787
882,5	-63,787
882,9	-53,787
883,4	-50,387
883,8	-52,667
884,2	-59,467
884,6	-56,467
885,1	-61,947
885,5	-67,707
885,9	-67,067
886,3	-67,387
886,8	-71,707
887,2	-71,187
887,6	-70,427
888	-70,307
888,5	-67,947
888,9	-63,907
889,3	-70,787
889,8	-69,227
890,2	-70,827
890,6	-66,507
891	-65,587
891,5	-58,787
891,9	-58,467
892,3	-53,987
892,7	-54,507
893,2	-57,307
893,6	-57,387
894	-62,947
894,4	-67,667
894,9	-66,387
895,3	-65,387
895,7	-66,867
896,1	-59,947
896,6	-60,387
897	-58,827
897,4	-53,827
897,8	-54,267
898,3	-59,667
898,7	-58,387
899,1	-61,107
899,5	-61,267
900	-61,707
900,4	-56,467
900,8	-56,987
901,2	-65,707
901,7	-69,147
902,1	-67,227
902,5	-65,347
902,9	-62,787
903,4	-59,147
903,8	-57,947
904,2	-61,867
904,6	-60,747
905,1	-59,107
905,5	-60,147
905,9	-58,067
906,3	-49,467
906,8	-52,387
907,2	-53,707
907,6	-55,067
908	-55,867
908,5	-57,587
908,9	-57,947
909,3	-58,387
909,7	-58,147
910,2	-56,307
910,6	-58,107
911	-57,107
911,4	-57,587
911,9	-58,587
912,3	-63,347
912,7	-65,547
913,1	-71,227
913,6	-77,067
914	-75,467
914,4	-75,467
914,8	-71,787
915,3	-68,547
915,7	-64,027
916,1	-62,107
916,5	-55,787
916,9	-58,827
917,4	-58,307
917,8	-54,667
918,2	-55,267
918,6	-58,307
919,1	-59,507
919,5	-61,067
919,9	-63,547
920,3	-59,707
920,8	-64,547
921,2	-62,987
921,6	-60,027
922	-63,147
922,5	-64,187
922,9	-72,747
923,3	-67,867
923,7	-69,947
924,2	-67,027
924,6	-67,147
925	-46,067
925,4	-51,947
925,8	-53,467
926,3	-59,387
926,7	-53,147
927,1	-62,107
927,5	-66,587
928	-63,547
928,4	-56,267
928,8	-67,147
929,2	-71,307
929,7	-65,347
930,1	-69,227
930,5	-70,187
930,9	-69,107
931,3	-65,467
931,8	-69,947
932,2	-66,947
932,6	-74,747
933	-75,187
933,5	-71,267
933,9	-71,667
934,3	-72,667
934,7	-65,987
935,2	-66,427
935,6	-73,227
936	-75,627
936,4	-78,347
936,8	-80,867
937,3	-82,267
937,7	-83,867
938,1	-78,867
938,5	-74,187
939	-70,787
939,4	-67,547
939,8	-66,547
940,2	-72,507
940,6	-77,907
941,1	-79,747
941,5	-78,867
941,9	-74,027
942,3	-71,507
942,8	-70,387
943,2	-73,907
943,6	-76,587
944	-83,867
944,4	-79,307
944,9	-76,547
945,3	-72,187
945,7	-72,467
946,1	-68,227
946,6	-70,707
947	-69,387
947,4	-71,627
947,8	-71,187
948,2	-71,547
948,7	-68,227
949,1	-67,907
949,5	-68,467
949,9	-60,227
950,3	-64,667
950,8	-64,907
951,2	-65,867
951,6	-64,387
952	-73,827
952,5	-68,867
952,9	-69,307
953,3	-73,507
953,7	-73,907
954,1	-67,427
954,6	-69,227
955	-73,027
955,4	-69,827
955,8	-63,547
956,2	-72,867
956,7	-66,427
957,1	-60,027
957,5	-60,107
957,9	-69,387
958,3	-63,387
958,8	-69,907
959,2	-71,787
959,6	-78,507
960	-77,067
960,5	-78,507
960,9	-75,947
961,3	-78,307
961,7	-76,347
962,1	-72,147
962,6	-72,827
963	-73,227
963,4	-69,467
963,8	-68,267
964,2	-74,867
964,7	-73,667
965,1	-74,867
965,5	-85,347
965,9	-82,947
966,3	-75,227
966,8	-70,587
967,2	-69,707
967,6	-63,827
968	-63,067
968,4	-63,987
968,9	-73,547
969,3	-76,667
969,7	-78,987
970,1	-78,707
970,5	-83,827
971	-72,307
971,4	-73,547
971,8	-68,067
972,2	-63,627
972,6	-61,347
973,1	-67,347
973,5	-62,867
973,9	-63,147
974,3	-67,107
974,7	-64,827
975,2	-65,027
975,6	-72,267
976	-71,027
976,4	-71,707
976,8	-72,427
977,3	-73,107
977,7	-66,027
978,1	-66,787
978,5	-67,267
978,9	-67,347
979,4	-72,147
979,8	-71,267
980,2	-70,467
980,6	-68,387
981	-66,027
981,5	-62,747
981,9	-60,707
982,3	-63,627
982,7	-62,587
983,1	-62,947
983,6	-56,667
984	-58,507
984,4	-58,467
984,8	-59,587
985,2	-63,547
985,6	-68,547
986,1	-68,387
986,5	-64,307
986,9	-62,587
987,3	-61,187
987,7	-60,587
988,2	-60,347
988,6	-59,547
989	-64,667
989,4	-65,467
989,8	-68,507
990,3	-73,707
990,7	-77,507
991,1	-79,627
991,5	-75,507
991,9	-70,827
992,3	-65,827
992,8	-63,827
993,2	-62,307
993,6	-62,307
994	-60,667
994,4	-65,267
994,9	-70,627
995,3	-69,187
995,7	-74,347
996,1	-74,427
996,5	-71,547
996,9	-66,027
997,4	-68,187
997,8	-70,267
998,2	-66,467
998,6	-68,827
999	-75,987
999,5	-78,987
999,9	-73,467
1000,3	-76,507
1000,7	-72,747
1001,1	-68,147
1001,5	-58,187
1002	-62,147
1002,4	-63,907
1002,8	-63,227
1003,2	-63,547
1003,6	-64,627
1004	-62,467
1004,5	-65,147
1004,9	-64,467
1005,3	-68,067
1005,7	-70,707
1006,1	-70,147
1006,6	-69,867
1007	-69,507
1007,4	-70,267
1007,8	-73,147
1008,2	-73,307
1008,6	-75,587
1009,1	-78,867
1009,5	-77,627
1009,9	-81,187
1010,3	-84,867
1010,7	-85,187
1011,1	-80,427
1011,6	-78,947
1012	-78,867
1012,4	-71,547
1012,8	-73,267
1013,2	-72,427
1013,6	-72,147
1014,1	-71,507
1014,5	-75,867
1014,9	-66,387
1015,3	-70,827
1015,7	-70,867
1016,1	-63,307
1016,6	-63,587
1017	-67,827
1017,4	-71,387
1017,8	-73,547
1018,2	-81,187
1018,6	-76,147
1019,1	-79,387
1019,5	-78,107
1019,9	-77,747
1020,3	-71,467
1020,7	-74,667
1021,1	-78,627
1021,6	-74,347
1022	-75,467
1022,4	-74,227
1022,8	-78,187
1023,2	-72,587
1023,6	-76,267
1024,1	-72,707
1024,5	-77,227
1024,9	-77,627
1025,3	-80,627
1025,7	-76,387
1026,1	-81,067
1026,6	-76,187
1027	-74,187
1027,4	-78,227
1027,8	-87,187
1028,2	-83,227
1028,6	-89,667
1029	-85,747
1029,5	-82,507
1029,9	-76,667
1030,3	-81,547
1030,7	-80,347
1031,1	-90,907
1031,5	-85,707
1032	-91,947
1032,4	-94,027
1032,8	-92,827
1033,2	-85,707
1033,6	-83,547
1034	-79,787
1034,4	-73,107
1034,9	-70,907
1035,3	-69,947
1035,7	-79,427
1036,1	-79,867
1036,5	-77,947
1036,9	-82,587
1037,4	-88,507
1037,8	-83,867
1038,2	-83,067
1038,6	-85,627
1039	-82,147
1039,4	-74,907
1039,8	-69,867
1040,3	-70,867
1040,7	-70,587
1041,1	-74,827
1041,5	-82,227
1041,9	-84,467
1042,3	-79,467
1042,7	-76,627
1043,2	-75,867
1043,6	-74,547
1044	-77,427
1044,4	-83,427
1044,8	-89,267
1045,2	-90,107
1045,6	-92,827
1046,1	-94,787
1046,5	-95,627
1046,9	-96,627
1047,3	-90,627
1047,7	-93,707
1048,1	-94,067
1048,5	-90,867
1049	-84,667
1049,4	-85,587
1049,8	-79,387
1050,2	-80,027
1050,6	-82,427
1051	-93,067
1051,4	-101,627
1051,9	-103,827
1052,3	-105,427
1052,7	-110,147
1053,1	-105,147
1053,5	-96,907
1053,9	-92,867
1054,3	-90,427
1054,8	-84,107
1055,2	-80,747
1055,6	-80,787
1056	-79,587
1056,4	-78,427
1056,8	-75,667
1057,2	-78,027
1057,6	-83,347
1058,1	-82,787
1058,5	-76,347
1058,9	-78,547
1059,3	-78,227
1059,7	-69,107
1060,1	-70,507
1060,5	-73,467
1061	-77,107
1061,4	-73,507
1061,8	-79,107
1062,2	-78,067
1062,6	-76,387
1063	-75,707
1063,4	-76,427
1063,8	-88,907
1064,3	-87,987
1064,7	-91,907
1065,1	-90,787
1065,5	-91,987
1065,9	-76,867
1066,3	-79,387
1066,7	-79,347
1067,1	-79,467
1067,6	-78,187
1068	-81,787
1068,4	-84,067
1068,8	-82,387
1069,2	-79,227
1069,6	-85,107
1070	-84,507
1070,4	-85,827
1070,9	-84,587
1071,3	-84,867
1071,7	-77,067
1072,1	-72,067
1072,5	-73,027
1072,9	-73,347
1073,3	-68,667
1073,7	-76,547
1074,2	-87,227
1074,6	-78,427
1075	-85,347
1075,4	-86,387
1075,8	-80,987
1076,2	-72,027
1076,6	-72,147
1077	-68,587
1077,5	-74,347
1077,9	-76,667
1078,3	-76,227
1078,7	-80,307
1079,1	-71,307
1079,5	-70,747
1079,9	-69,947
1080,3	-69,267
1080,7	-69,987
1081,2	-78,387
1081,6	-75,987
1082	-72,347
1082,4	-73,027
1082,8	-69,667
1083,2	-70,187
1083,6	-70,427
1084	-72,267
1084,5	-76,107
1084,9	-82,427
1085,3	-76,827
1085,7	-75,787
1086,1	-76,707
1086,5	-71,307
1086,9	-63,387
1087,3	-71,907
1087,7	-71,747
1088,2	-66,667
1088,6	-65,547
1089	-68,027
1089,4	-60,147
1089,8	-57,707
1090,2	-61,107
1090,6	-67,827
1091	-64,347
1091,4	-68,707
1091,9	-74,907
1092,3	-74,707
1092,7	-69,627
1093,1	-74,587
1093,5	-73,387
1093,9	-70,107
1094,3	-70,307
1094,7	-71,987
1095,1	-72,467
1095,5	-73,227
1096	-69,507
1096,4	-72,667
1096,8	-67,947
1097,2	-67,347
1097,6	-64,627
1098	-72,507
1098,4	-65,187
1098,8	-74,187
1099,2	-67,427
1099,6	-59,347
1100,1	-52,947
1100,5	-53,267
1100,9	-43,667
1101,3	-44,987
1101,7	-54,427
1102,1	-52,387
1102,5	-52,347
1102,9	-49,067
1103,3	-52,707
1103,7	-46,387
1104,2	-47,747
1104,6	-47,387
1105	-50,987
1105,4	-44,987
1105,8	-45,187
1106,2	-35,707
1106,6	-25,227
1107	-16,707
1107,4	-8,987
1107,8	-0,817
1108,3	0,667
