Data from Subt2_00001.txt Node
Date: Fri Aug 11 15:09:30 MSK 2023
User: vat
Spectrometer: MAYP114033
Trigger mode: 0
Integration Time (sec): 5,000000E-1
Scans to average: 5
Electric dark correction enabled: true
Nonlinearity correction enabled: false
Boxcar width: 2
XAxis mode: Wavelengths
Number of Pixels in Spectrum: 2068
>>>>>Begin Spectral Data<<<<<
199,4	-1,3
199,9	-0,867
200,4	-0,087
200,8	1,433
201,3	4,153
201,8	7,313
202,2	9,113
202,7	10,393
203,2	10,993
203,6	9,353
204,1	8,793
204,6	8,793
205	9,193
205,5	4,713
206	5,993
206,4	2,913
206,9	5,113
207,4	1,673
207,8	5,393
208,3	4,233
208,8	4,953
209,2	-2,687
209,7	-1,647
210,2	-6,367
210,6	-4,127
211,1	-5,487
211,5	-2,087
212	-2,647
212,5	1,033
212,9	0,073
213,4	7,793
213,9	10,073
214,3	12,673
214,8	13,193
215,3	11,513
215,7	6,913
216,2	4,913
216,7	6,913
217,1	3,393
217,6	4,473
218,1	3,673
218,5	1,313
219	0,153
219,5	-2,847
219,9	-8,127
220,4	-12,127
220,9	-9,447
221,3	-12,407
221,8	-12,847
222,3	-10,127
222,7	-5,567
223,2	-8,487
223,6	-11,287
224,1	-3,287
224,6	-0,327
225	2,233
225,5	3,953
226	4,913
226,4	-0,927
226,9	-1,127
227,4	-4,447
227,8	-0,967
228,3	-2,247
228,8	-1,407
229,2	-1,847
229,7	-3,287
230,2	-4,367
230,6	3,153
231,1	9,473
231,5	6,153
232	6,713
232,5	3,993
232,9	0,673
233,4	-2,047
233,9	4,193
234,3	5,913
234,8	8,193
235,3	5,833
235,7	12,833
236,2	9,233
236,7	6,793
237,1	8,833
237,6	8,833
238,1	1,993
238,5	-2,407
239	-4,167
239,4	-6,807
239,9	-9,007
240,4	-8,447
240,8	-2,807
241,3	4,153
241,8	4,993
242,2	9,033
242,7	12,753
243,2	11,473
243,6	9,513
244,1	10,193
244,6	9,473
245	5,193
245,5	5,393
245,9	-3,327
246,4	-2,407
246,9	-6,247
247,3	-14,207
247,8	-12,287
248,3	0,433
248,7	0,193
249,2	4,633
249,7	10,953
250,1	5,153
250,6	-1,327
251	-4,007
251,5	-5,367
252	-4,287
252,4	1,873
252,9	3,833
253,4	5,913
253,8	11,353
254,3	11,633
254,8	13,113
255,2	9,553
255,7	11,073
256,1	6,593
256,6	4,753
257,1	-5,887
257,5	-3,767
258	-10,927
258,5	-13,207
258,9	-10,487
259,4	-0,887
259,9	2,393
260,3	10,593
260,8	11,033
261,2	12,553
261,7	10,953
262,2	7,633
262,6	2,393
263,1	6,633
263,6	2,273
264	0,233
264,5	0,913
264,9	0,473
265,4	3,273
265,9	-0,647
266,3	6,273
266,8	8,593
267,3	11,513
267,7	7,833
268,2	17,153
268,7	13,633
269,1	13,673
269,6	9,033
270	13,113
270,5	9,153
271	8,753
271,4	6,873
271,9	7,193
272,4	9,153
272,8	10,993
273,3	16,473
273,7	16,793
274,2	25,633
274,7	16,433
275,1	19,513
275,6	13,593
276,1	13,993
276,5	10,913
277	18,873
277,4	14,513
277,9	9,393
278,4	6,593
278,8	6,673
279,3	0,953
279,8	1,833
280,2	10,233
280,7	13,273
281,1	10,433
281,6	12,393
282,1	14,273
282,5	12,633
283	11,553
283,4	14,113
283,9	9,033
284,4	7,433
284,8	5,473
285,3	5,753
285,8	0,993
286,2	6,193
286,7	6,193
287,1	11,233
287,6	12,633
288,1	13,073
288,5	18,153
289	18,393
289,5	8,153
289,9	11,713
290,4	12,993
290,8	6,073
291,3	3,513
291,8	3,873
292,2	-7,687
292,7	-2,767
293,1	-1,887
293,6	-2,047
294,1	-0,487
294,5	4,233
295	-1,607
295,5	3,433
295,9	7,033
296,4	13,553
296,8	17,233
297,3	21,713
297,8	12,913
298,2	6,873
298,7	3,353
299,1	-1,127
299,6	-4,967
300,1	-3,167
300,5	-1,407
301	-0,447
301,5	2,913
301,9	6,233
302,4	14,073
302,8	14,793
303,3	12,233
303,8	10,593
304,2	6,793
304,7	-1,367
305,1	2,273
305,6	3,113
306,1	3,633
306,5	8,793
307	12,393
307,4	13,673
307,9	11,553
308,4	11,433
308,8	9,193
309,3	8,153
309,8	2,393
310,2	2,793
310,7	2,393
311,1	-0,047
311,6	-4,767
312,1	0,873
312,5	0,593
313	1,713
313,4	2,513
313,9	4,593
314,4	3,233
314,8	4,913
315,3	4,513
315,7	-1,487
316,2	5,393
316,7	0,833
317,1	8,313
317,6	7,513
318	15,873
318,5	8,513
319	15,073
319,4	6,873
319,9	7,873
320,3	7,993
320,8	14,313
321,3	16,073
321,7	24,633
322,2	24,793
322,6	19,073
323,1	12,473
323,6	9,793
324	3,793
324,5	2,913
324,9	8,593
325,4	13,353
325,9	11,073
326,3	10,553
326,8	10,953
327,2	14,273
327,7	16,553
328,2	11,873
328,6	10,953
329,1	8,153
329,5	5,833
330	3,633
330,5	7,233
330,9	9,033
331,4	14,353
331,8	15,433
332,3	16,113
332,8	20,873
333,2	16,193
333,7	14,193
334,1	9,913
334,6	5,193
335,1	-1,007
335,5	6,833
336	3,673
336,4	3,793
336,9	6,553
337,4	13,993
337,8	8,633
338,3	12,153
338,7	8,233
339,2	8,313
339,7	0,073
340,1	3,073
340,6	0,513
341	4,393
341,5	4,113
342	5,913
342,4	7,593
342,9	9,793
343,3	8,473
343,8	5,833
344,2	6,153
344,7	3,193
345,2	4,353
345,6	4,633
346,1	7,833
346,5	11,033
347	8,713
347,5	7,313
347,9	10,673
348,4	9,353
348,8	11,233
349,3	8,873
349,8	9,993
350,2	6,833
350,7	12,713
351,1	5,113
351,6	14,673
352	13,473
352,5	16,113
353	11,073
353,4	17,513
353,9	17,393
354,3	27,833
354,8	27,473
355,3	32,033
355,7	37,913
356,2	39,593
356,6	37,153
357,1	46,593
357,5	49,473
358	53,113
358,5	58,393
358,9	64,473
359,4	71,913
359,8	84,713
360,3	95,313
360,8	108,553
361,2	118,393
361,7	133,473
362,1	145,953
362,6	161,873
363	178,873
363,5	210,913
364	235,473
364,4	258,513
364,9	279,593
365,3	301,913
365,8	319,873
366,3	338,513
366,7	357,593
367,2	376,073
367,6	397,993
368,1	402,593
368,5	412,193
369	419,233
369,5	426,993
369,9	426,233
370,4	431,953
370,8	424,713
371,3	425,273
371,7	418,713
372,2	412,993
372,7	403,353
373,1	397,913
373,6	392,833
374	377,673
374,5	370,153
374,9	362,313
375,4	355,993
375,9	347,793
376,3	350,593
376,8	350,113
377,2	354,753
377,7	359,673
378,2	368,113
378,6	376,553
379,1	385,793
379,5	399,633
380	421,993
380,4	440,993
380,9	467,553
381,4	498,513
381,8	532,753
382,3	561,953
382,7	598,393
383,2	637,793
383,6	677,113
384,1	723,633
384,6	764,473
385	822,193
385,5	882,873
385,9	939,713
386,4	998,433
386,8	1079,313
387,3	1146,313
387,7	1216,393
388,2	1301,593
388,7	1378,833
389,1	1470,753
389,6	1570,313
390	1675,393
390,5	1778,993
390,9	1906,073
391,4	2016,673
391,9	2136,353
392,3	2262,793
392,8	2398,833
393,2	2535,913
393,7	2682,353
394,1	2841,433
394,6	3019,593
395,1	3199,993
395,5	3377,593
396	3563,633
396,4	3749,753
396,9	3934,473
397,3	4130,233
397,8	4347,473
398,2	4570,233
398,7	4799,713
399,2	5030,913
399,6	5266,433
400,1	5507,313
400,5	5764,273
401	6022,353
401,4	6292,593
401,9	6570,193
402,4	6852,953
402,8	7146,513
403,3	7452,153
403,7	7753,673
404,2	8068,153
404,6	8398,753
405,1	8709,833
405,5	9048,313
406	9397,273
406,5	9758,313
406,9	10103,233
407,4	10488,673
407,8	10853,633
408,3	11236,593
408,7	11613,353
409,2	12012,793
409,6	12408,233
410,1	12832,113
410,6	13243,873
411	13664,473
411,5	14100,793
411,9	14537,113
412,4	14975,673
412,8	15419,633
413,3	15869,993
413,7	16316,713
414,2	16767,913
414,7	17205,993
415,1	17670,713
415,6	18148,953
416	18625,633
416,5	19099,273
416,9	19597,673
417,4	20080,513
417,8	20559,473
418,3	21059,593
418,8	21563,473
419,2	22063,513
419,7	22560,353
420,1	23069,553
420,6	23552,753
421	24050,473
421,5	24564,433
421,9	25090,913
422,4	25609,193
422,8	26115,553
423,3	26641,833
423,8	27134,873
424,2	27639,433
424,7	28135,153
425,1	28644,393
425,6	29118,073
426	29619,873
426,5	30096,753
426,9	30599,473
427,4	31092,873
427,9	31601,113
428,3	32098,473
428,8	32610,473
429,2	33086,953
429,7	33587,273
430,1	34085,513
430,6	34566,953
431	35035,513
431,5	35529,153
431,9	36020,553
432,4	36497,553
432,8	36974,993
433,3	37443,393
433,8	37901,953
434,2	38375,033
434,7	38834,993
435,1	39279,313
435,6	39729,793
436	40175,593
436,5	40605,833
436,9	41031,433
437,4	41451,633
437,8	41878,113
438,3	42276,073
438,8	42667,353
439,2	43053,193
439,7	43451,553
440,1	43829,993
440,6	44195,113
441	44560,393
441,5	44908,553
441,9	45254,273
442,4	45602,313
442,8	45934,633
443,3	46254,273
443,7	46588,673
444,2	46889,993
444,7	47179,913
445,1	47476,593
445,6	47766,233
446	48015,593
446,5	48307,353
446,9	48566,633
447,4	48836,593
447,8	49066,473
448,3	49302,073
448,7	49495,073
449,2	49688,833
449,6	49843,433
450,1	50010,193
450,6	50189,033
451	50317,993
451,5	50454,873
451,9	50607,193
452,4	50745,673
452,8	50897,553
453,3	51059,273
453,7	51184,313
454,2	51319,753
454,6	51439,433
455,1	51513,233
455,5	51610,233
456	51702,953
456,4	51748,793
456,9	51786,393
457,3	51846,993
457,8	51896,193
458,3	51939,193
458,7	51986,433
459,2	52033,473
459,6	52038,753
460,1	52019,793
460,5	52039,233
461	52037,073
461,4	52005,513
461,9	51978,513
462,3	51986,553
462,8	51937,473
463,2	51897,553
463,7	51866,433
464,1	51813,313
464,6	51706,233
465	51629,033
465,5	51554,553
466	51467,353
466,4	51378,833
466,9	51282,433
467,3	51203,193
467,8	51086,753
468,2	50962,753
468,7	50837,433
469,1	50721,833
469,6	50570,673
470	50433,913
470,5	50308,353
470,9	50168,473
471,4	50025,193
471,8	49852,993
472,3	49683,593
472,7	49504,113
473,2	49331,953
473,6	49157,873
474,1	48996,553
474,5	48817,513
475	48631,793
475,4	48449,833
475,9	48248,313
476,4	48075,153
476,8	47868,833
477,3	47663,953
477,7	47443,913
478,2	47234,593
478,6	46983,713
479,1	46782,593
479,5	46543,833
480	46313,433
480,4	46066,433
480,9	45825,113
481,3	45552,593
481,8	45302,873
482,2	45065,153
482,7	44811,393
483,1	44559,913
483,6	44324,633
484	44057,233
484,5	43774,113
484,9	43506,233
485,4	43228,793
485,8	42927,553
486,3	42667,433
486,7	42398,633
487,2	42117,873
487,6	41837,993
488,1	41552,313
488,5	41263,913
489	40979,153
489,4	40699,593
489,9	40413,273
490,4	40133,073
490,8	39820,753
491,3	39522,633
491,7	39217,953
492,2	38915,833
492,6	38637,753
493,1	38354,233
493,5	38044,673
494	37738,273
494,4	37470,993
494,9	37179,513
495,3	36908,353
495,8	36619,393
496,2	36347,313
496,7	36042,673
497,1	35732,873
497,6	35455,553
498	35192,833
498,5	34918,433
498,9	34655,553
499,4	34387,353
499,8	34092,713
500,3	33806,793
500,7	33534,873
501,2	33255,433
501,6	32981,673
502,1	32715,633
502,5	32446,473
503	32187,913
503,4	31911,353
503,9	31663,353
504,3	31416,513
504,8	31199,073
505,2	30929,513
505,7	30669,113
506,1	30406,193
506,6	30127,993
507	29835,113
507,5	29563,153
507,9	29298,633
508,4	29028,633
508,8	28763,153
509,3	28486,913
509,7	28230,873
510,2	27960,633
510,6	27705,073
511,1	27452,953
511,5	27200,393
512	26955,753
512,4	26717,553
512,9	26469,513
513,3	26218,073
513,8	25990,593
514,2	25759,513
514,7	25511,193
515,1	25273,673
515,6	25035,153
516	24791,433
516,5	24520,833
516,9	24273,153
517,4	24032,753
517,8	23793,713
518,3	23541,753
518,7	23300,193
519,2	23061,473
519,6	22819,233
520,1	22591,393
520,5	22353,673
521	22122,673
521,4	21894,033
521,9	21644,633
522,3	21398,593
522,8	21179,433
523,2	20984,153
523,7	20762,593
524,1	20564,193
524,6	20356,753
525	20126,353
525,5	19889,833
525,9	19692,913
526,4	19473,513
526,8	19266,433
527,3	19065,873
527,7	18853,953
528,2	18651,433
528,6	18461,193
529,1	18261,473
529,5	18076,473
530	17894,033
530,4	17687,793
530,9	17496,953
531,3	17294,913
531,8	17092,433
532,2	16893,513
532,6	16710,113
533,1	16505,553
533,5	16327,833
534	16157,953
534,4	15996,713
534,9	15819,993
535,3	15654,433
535,8	15480,673
536,2	15305,033
536,7	15117,633
537,1	14944,033
537,6	14761,473
538	14595,553
538,5	14427,553
538,9	14274,593
539,4	14105,673
539,8	13967,033
540,3	13808,673
540,7	13656,633
541,2	13480,473
541,6	13326,353
542,1	13165,873
542,5	13020,953
543	12867,393
543,4	12730,073
543,9	12587,913
544,3	12435,393
544,8	12282,593
545,2	12141,673
545,7	12006,793
546,1	11864,873
546,5	11738,273
547	11598,433
547,4	11453,553
547,9	11314,673
548,3	11177,793
548,8	11042,993
549,2	10921,073
549,7	10792,353
550,1	10667,553
550,6	10544,313
551	10406,193
551,5	10285,753
551,9	10168,073
552,4	10044,593
552,8	9931,073
553,3	9822,793
553,7	9698,473
554,2	9585,473
554,6	9476,913
555,1	9369,753
555,5	9265,593
555,9	9154,673
556,4	9048,153
556,8	8947,073
557,3	8840,873
557,7	8737,473
558,2	8642,953
558,6	8545,793
559,1	8440,313
559,5	8341,673
560	8241,273
560,4	8145,833
560,9	8039,953
561,3	7947,753
561,8	7839,313
562,2	7746,953
562,7	7629,953
563,1	7537,713
563,6	7434,753
564	7352,553
564,4	7257,553
564,9	7195,793
565,3	7124,073
565,8	7036,233
566,2	6960,233
566,7	6881,873
567,1	6803,833
567,6	6711,793
568	6646,513
568,5	6559,953
568,9	6481,953
569,4	6391,993
569,8	6322,073
570,3	6239,233
570,7	6166,673
571,1	6092,873
571,6	6013,953
572	5932,993
572,5	5858,873
572,9	5779,993
573,4	5705,513
573,8	5637,953
574,3	5571,393
574,7	5509,753
575,2	5445,833
575,6	5375,713
576,1	5321,793
576,5	5253,473
576,9	5177,313
577,4	5108,313
577,8	5050,713
578,3	4986,673
578,7	4926,313
579,2	4870,513
579,6	4808,913
580,1	4741,633
580,5	4676,993
581	4622,113
581,4	4568,313
581,9	4513,433
582,3	4460,473
582,7	4396,833
583,2	4345,873
583,6	4278,873
584,1	4228,153
584,5	4184,313
585	4136,193
585,4	4073,193
585,9	4024,353
586,3	3974,273
586,8	3913,753
587,2	3866,153
587,6	3823,393
588,1	3780,513
588,5	3732,233
589	3685,313
589,4	3636,033
589,9	3578,033
590,3	3522,313
590,8	3477,353
591,2	3433,953
591,7	3399,953
592,1	3366,433
592,5	3334,593
593	3299,513
593,4	3268,833
593,9	3223,593
594,3	3188,913
594,8	3155,993
595,2	3113,713
595,7	3067,833
596,1	3027,833
596,6	2989,113
597	2949,953
597,4	2914,553
597,9	2878,153
598,3	2851,353
598,8	2820,153
599,2	2789,393
599,7	2761,793
600,1	2737,913
600,6	2696,713
601	2663,873
601,4	2631,513
601,9	2590,953
602,3	2546,633
602,8	2521,313
603,2	2492,833
603,7	2458,953
604,1	2431,113
604,6	2405,433
605	2376,993
605,4	2344,193
605,9	2316,913
606,3	2294,713
606,8	2272,593
607,2	2237,713
607,7	2208,193
608,1	2177,673
608,6	2147,193
609	2118,953
609,4	2085,833
609,9	2064,313
610,3	2043,393
610,8	2023,513
611,2	1999,953
611,7	1988,793
612,1	1959,993
612,6	1936,633
613	1908,553
613,4	1885,473
613,9	1855,833
614,3	1827,673
614,8	1806,633
615,2	1781,113
615,7	1753,473
616,1	1738,393
616,6	1717,393
617	1695,953
617,4	1675,833
617,9	1660,833
618,3	1640,793
618,8	1621,433
619,2	1595,153
619,7	1574,553
620,1	1545,233
620,5	1530,233
621	1517,833
621,4	1505,673
621,9	1486,953
622,3	1466,513
622,8	1438,993
623,2	1406,433
623,6	1392,273
624,1	1374,273
624,5	1362,833
625	1349,513
625,4	1348,793
625,9	1325,753
626,3	1310,153
626,8	1288,593
627,2	1273,913
627,6	1253,873
628,1	1233,993
628,5	1213,833
629	1201,513
629,4	1184,233
629,9	1172,313
630,3	1157,073
630,7	1146,673
631,2	1137,753
631,6	1116,913
632,1	1104,313
632,5	1093,793
633	1079,233
633,4	1065,073
633,8	1055,393
634,3	1036,433
634,7	1024,273
635,2	1006,353
635,6	993,913
636,1	983,713
636,5	965,313
636,9	951,313
637,4	946,273
637,8	933,593
638,3	921,113
638,7	910,153
639,2	896,513
639,6	887,793
640	879,313
640,5	867,993
640,9	865,513
641,4	858,153
641,8	844,873
642,2	832,193
642,7	825,593
643,1	805,633
643,6	791,713
644	784,793
644,5	776,953
644,9	760,913
645,3	753,233
645,8	749,513
646,2	731,953
646,7	718,353
647,1	711,033
647,6	708,313
648	691,513
648,4	688,713
648,9	682,873
649,3	679,273
649,8	672,153
650,2	671,273
650,6	669,033
651,1	657,273
651,5	644,793
652	634,633
652,4	625,833
652,9	611,513
653,3	611,593
653,7	610,153
654,2	604,513
654,6	596,433
655,1	587,313
655,5	583,953
655,9	573,953
656,4	568,713
656,8	562,993
657,3	554,873
657,7	537,393
658,2	535,393
658,6	529,153
659	522,673
659,5	525,393
659,9	525,233
660,4	514,713
660,8	504,033
661,2	499,273
661,7	487,513
662,1	479,633
662,6	471,473
663	466,273
663,4	455,753
663,9	449,273
664,3	441,073
664,8	435,833
665,2	434,073
665,6	435,073
666,1	430,393
666,5	425,713
667	418,313
667,4	412,753
667,9	406,833
668,3	401,593
668,7	400,793
669,2	394,593
669,6	383,193
670,1	378,953
670,5	375,793
670,9	367,833
671,4	366,073
671,8	362,393
672,3	352,793
672,7	349,913
673,1	347,553
673,6	346,233
674	347,433
674,5	345,473
674,9	335,953
675,3	328,953
675,8	327,273
676,2	321,113
676,7	317,673
677,1	318,953
677,5	315,313
678	305,193
678,4	300,793
678,9	298,153
679,3	289,033
679,7	281,673
680,2	280,873
680,6	275,993
681,1	271,273
681,5	269,793
681,9	261,233
682,4	255,833
682,8	254,553
683,3	248,833
683,7	247,033
684,1	252,393
684,6	253,313
685	252,353
685,5	251,433
685,9	247,753
686,3	248,713
686,8	241,113
687,2	239,993
687,7	241,033
688,1	240,153
688,5	226,273
689	223,713
689,4	221,593
689,9	212,313
690,3	212,633
690,7	216,833
691,2	217,713
691,6	214,753
692	214,433
692,5	209,353
692,9	207,913
693,4	201,273
693,8	195,273
694,2	191,393
694,7	186,873
695,1	185,593
695,6	183,793
696	178,793
696,4	182,673
696,9	178,953
697,3	174,713
697,8	176,553
698,2	177,753
698,6	167,913
699,1	167,353
699,5	165,673
699,9	158,473
700,4	155,713
700,8	156,673
701,3	155,753
701,7	156,193
702,1	153,313
702,6	144,953
703	145,753
703,5	137,513
703,9	137,313
704,3	141,393
704,8	142,113
705,2	142,793
705,6	143,633
706,1	142,633
706,5	130,433
707	137,433
707,4	130,833
707,8	136,233
708,3	137,153
708,7	144,233
709,2	137,913
709,6	141,313
710	136,913
710,5	130,953
710,9	129,433
711,3	129,273
711,8	123,193
712,2	121,993
712,7	114,873
713,1	112,073
713,5	108,313
714	102,553
714,4	101,113
714,8	105,073
715,3	97,673
715,7	99,193
716,2	103,913
716,6	102,033
717	95,993
717,5	98,513
717,9	98,073
718,3	102,313
718,8	104,593
719,2	109,233
719,7	110,193
720,1	105,473
720,5	95,713
721	91,473
721,4	88,473
721,8	94,913
722,3	95,833
722,7	99,793
723,2	94,833
723,6	93,153
724	79,233
724,5	75,593
724,9	78,353
725,3	81,753
725,8	78,433
726,2	84,633
726,7	92,713
727,1	85,113
727,5	82,233
728	80,033
728,4	75,833
728,8	67,233
729,3	62,833
729,7	62,673
730,1	64,073
730,6	65,873
731	63,513
731,5	66,393
731,9	65,193
732,3	69,393
732,8	65,233
733,2	68,513
733,6	67,233
734,1	66,713
734,5	60,193
734,9	63,633
735,4	62,233
735,8	64,513
736,3	68,113
736,7	70,433
737,1	67,033
737,6	63,033
738	61,633
738,4	53,953
738,9	53,913
739,3	55,033
739,7	54,353
740,2	51,073
740,6	57,833
741,1	55,633
741,5	54,633
741,9	55,513
742,4	54,913
742,8	47,313
743,2	48,113
743,7	46,593
744,1	45,673
744,5	45,553
745	40,673
745,4	35,633
745,8	35,993
746,3	32,433
746,7	27,793
747,2	33,713
747,6	41,833
748	46,393
748,5	48,953
748,9	49,313
749,3	50,633
749,8	47,393
750,2	43,513
750,6	43,393
751,1	44,913
751,5	47,473
751,9	46,193
752,4	41,313
752,8	41,273
753,3	33,033
753,7	28,913
754,1	30,433
754,6	31,593
755	28,593
755,4	37,753
755,9	33,033
756,3	26,193
756,7	28,753
757,2	31,673
757,6	27,473
758	30,593
758,5	37,673
758,9	39,873
759,3	38,113
759,8	40,153
760,2	38,593
760,6	30,273
761,1	29,913
761,5	31,833
761,9	35,513
762,4	38,633
762,8	34,993
763,3	32,793
763,7	34,193
764,1	28,433
764,6	26,153
765	28,993
765,4	27,033
765,9	27,113
766,3	26,673
766,7	25,153
767,2	31,073
767,6	22,753
768	24,113
768,5	21,953
768,9	25,633
769,3	21,073
769,8	23,153
770,2	16,193
770,6	16,713
771,1	15,673
771,5	18,713
771,9	21,273
772,4	25,273
772,8	32,633
773,2	27,913
773,7	26,953
774,1	24,753
774,5	18,553
775	12,033
775,4	17,713
775,8	15,153
776,3	19,113
776,7	22,633
777,1	22,273
777,6	17,433
778	15,313
778,4	14,553
778,9	11,633
779,3	13,633
779,7	12,873
780,2	18,993
780,6	20,513
781	24,513
781,5	27,793
781,9	25,953
782,3	22,193
782,8	22,193
783,2	19,993
783,6	20,313
784,1	24,193
784,5	21,793
784,9	22,073
785,4	24,473
785,8	16,233
786,2	16,633
786,7	17,673
787,1	14,633
787,5	10,913
788	13,353
788,4	12,273
788,8	9,033
789,3	12,433
789,7	11,713
790,1	17,873
790,6	17,513
791	22,993
791,4	24,113
791,9	21,593
792,3	12,513
792,7	9,953
793,2	6,353
793,6	0,593
794	3,793
794,5	9,273
794,9	16,193
795,3	17,553
795,8	20,753
796,2	20,273
796,6	18,393
797,1	7,913
797,5	5,073
797,9	0,593
798,4	0,873
798,8	-4,327
799,2	-1,447
799,7	-2,527
800,1	1,313
800,5	3,393
801	4,433
801,4	3,713
801,8	8,033
802,2	8,913
802,7	10,233
803,1	9,393
803,5	13,193
804	14,113
804,4	9,993
804,8	2,793
805,3	6,393
805,7	7,353
806,1	2,433
806,6	7,353
807	8,873
807,4	8,953
807,9	5,073
808,3	8,433
808,7	5,153
809,2	4,593
809,6	7,873
810	11,273
810,4	11,793
810,9	5,353
811,3	4,953
811,7	0,513
812,2	-6,687
812,6	-10,367
813	-2,247
813,5	1,793
813,9	2,193
814,3	4,793
814,8	4,673
815,2	3,513
815,6	1,873
816,1	6,153
816,5	6,753
816,9	5,313
817,3	2,113
817,8	3,073
818,2	-0,087
818,6	-3,967
819,1	-2,007
819,5	1,913
819,9	-4,247
820,4	-5,887
820,8	2,033
821,2	5,673
821,7	4,913
822,1	3,113
822,5	5,553
822,9	5,153
823,4	4,353
823,8	5,673
824,2	8,953
824,7	7,473
825,1	5,993
825,5	4,473
826	1,713
826,4	6,993
826,8	6,233
827,3	7,153
827,7	7,033
828,1	-1,327
828,5	1,033
829	2,153
829,4	-0,367
829,8	-2,007
830,3	5,233
830,7	2,633
831,1	0,513
831,6	0,153
832	2,313
832,4	8,033
832,8	4,353
833,3	10,993
833,7	14,913
834,1	19,713
834,6	13,913
835	15,873
835,4	4,473
835,8	-1,927
836,3	-6,087
836,7	-3,047
837,1	-5,847
837,6	2,593
838	3,633
838,4	6,393
838,9	4,913
839,3	7,593
839,7	7,833
840,1	9,753
840,6	5,193
841	9,233
841,4	8,553
841,9	11,793
842,3	14,433
842,7	13,633
843,1	4,593
843,6	9,833
844	-1,527
844,4	-2,847
844,9	-1,127
845,3	6,953
845,7	-2,367
846,2	-0,167
846,6	-3,127
847	-4,727
847,4	-8,447
847,9	-6,807
848,3	-9,607
848,7	-4,567
849,2	-3,167
849,6	1,393
850	7,233
850,4	14,273
850,9	15,193
851,3	14,193
851,7	13,073
852,2	9,633
852,6	2,073
853	-0,207
853,4	0,193
853,9	-4,327
854,3	-5,527
854,7	3,833
855,2	1,273
855,6	-2,007
856	-3,167
856,4	-5,127
856,9	-12,527
857,3	-11,767
857,7	-5,367
858,2	-4,647
858,6	-5,927
859	-3,527
859,4	-12,487
859,9	-16,367
860,3	-15,167
860,7	-10,807
861,1	-7,007
861,6	1,593
862	2,513
862,4	1,233
862,9	2,873
863,3	0,833
863,7	2,473
864,1	0,633
864,6	-0,207
865	-7,647
865,4	-6,007
865,9	-6,287
866,3	-6,207
866,7	-6,967
867,1	-5,727
867,6	-9,527
868	-8,287
868,4	-7,527
868,8	-7,567
869,3	-1,247
869,7	-0,567
870,1	-2,367
870,6	-1,847
871	1,513
871,4	3,153
871,8	-1,287
872,3	-1,607
872,7	4,313
873,1	4,233
873,5	-4,487
874	0,553
874,4	2,713
874,8	-1,967
875,3	-0,367
875,7	0,753
876,1	4,473
876,5	4,713
877	4,433
877,4	6,873
877,8	14,193
878,2	10,673
878,7	9,713
879,1	9,513
879,5	2,273
879,9	-8,047
880,4	-9,287
880,8	-10,927
881,2	-13,487
881,7	-9,167
882,1	1,153
882,5	8,393
882,9	3,593
883,4	3,473
883,8	0,633
884,2	2,313
884,6	-6,767
885,1	-3,967
885,5	-5,607
885,9	-8,207
886,3	-16,487
886,8	-14,807
887,2	-14,727
887,6	-7,007
888	-3,927
888,5	1,113
888,9	2,513
889,3	3,273
889,8	-0,447
890,2	-1,767
890,6	-8,767
891	-3,367
891,5	-8,007
891,9	-6,127
892,3	-3,247
892,7	-1,367
893,2	-7,927
893,6	-0,727
894	-1,407
894,4	-4,207
894,9	-3,407
895,3	-4,207
895,7	-5,447
896,1	-10,567
896,6	-7,847
897	-1,087
897,4	2,713
897,8	-0,207
898,3	5,673
898,7	1,033
899,1	-1,447
899,5	-3,527
900	-5,287
900,4	-8,567
900,8	-3,847
901,2	-1,087
901,7	-0,247
902,1	4,953
902,5	3,153
902,9	3,313
903,4	-4,367
903,8	-7,407
904,2	-11,607
904,6	-8,887
905,1	-12,487
905,5	-8,887
905,9	-3,647
906,3	-2,247
906,8	-5,567
907,2	-3,087
907,6	-2,487
908	-5,487
908,5	-4,767
908,9	-0,567
909,3	1,353
909,7	0,353
910,2	-0,087
910,6	1,633
911	0,913
911,4	3,393
911,9	2,153
912,3	4,393
912,7	1,673
913,1	4,313
913,6	0,153
914	3,833
914,4	2,073
914,8	4,873
915,3	3,513
915,7	0,993
916,1	-6,207
916,5	-2,767
916,9	0,473
917,4	-0,527
917,8	3,833
918,2	11,113
918,6	4,633
919,1	-2,687
919,5	2,193
919,9	-0,247
920,3	-2,127
920,8	4,233
921,2	10,073
921,6	7,353
922	5,713
922,5	7,953
922,9	8,193
923,3	6,473
923,7	4,993
924,2	3,873
924,6	0,113
925	-3,927
925,4	-4,727
925,8	-6,167
926,3	-5,807
926,7	-7,047
927,1	-6,367
927,5	-3,647
928	-6,047
928,4	-4,407
928,8	-4,007
929,2	-6,687
929,7	-12,447
930,1	-16,607
930,5	-16,967
930,9	-19,527
931,3	-17,407
931,8	-18,607
932,2	-16,527
932,6	-19,967
933	-21,527
933,5	-19,407
933,9	-17,007
934,3	-10,527
934,7	-8,927
935,2	-2,207
935,6	-2,927
936	-5,967
936,4	-3,407
936,8	0,313
937,3	1,393
937,7	1,033
938,1	9,873
938,5	6,793
939	11,993
939,4	3,913
939,8	5,673
940,2	1,953
940,6	-1,727
941,1	-3,527
941,5	0,593
941,9	-5,967
942,3	-5,327
942,8	4,113
943,2	0,033
943,6	-3,007
944	0,433
944,4	-5,047
944,9	-12,767
945,3	-15,567
945,7	-16,887
946,1	-20,047
946,6	-17,287
947	-14,887
947,4	-8,527
947,8	-1,727
948,2	3,633
948,7	7,513
949,1	7,833
949,5	9,273
949,9	9,273
950,3	8,273
950,8	2,633
951,2	4,313
951,6	-3,887
952	-5,447
952,5	-5,447
952,9	-2,927
953,3	-12,887
953,7	-8,247
954,1	-5,047
954,6	-7,687
955	-9,087
955,4	-3,367
955,8	-4,127
956,2	-9,647
956,7	-7,687
957,1	-4,127
957,5	-4,687
957,9	-1,087
958,3	2,993
958,8	9,793
959,2	1,753
959,6	1,833
960	-6,007
960,5	-13,047
960,9	-17,807
961,3	-14,247
961,7	-12,487
962,1	-13,247
962,6	-5,167
963	-4,327
963,4	-7,327
963,8	-6,487
964,2	-5,167
964,7	-7,167
965,1	-13,287
965,5	-4,647
965,9	-12,647
966,3	-10,607
966,8	-15,127
967,2	-12,807
967,6	-15,807
968	-7,687
968,4	-7,247
968,9	-5,487
969,3	-4,447
969,7	0,953
970,1	-2,567
970,5	2,313
971	3,233
971,4	8,153
971,8	0,473
972,2	-0,287
972,6	-7,367
973,1	-4,807
973,5	-8,447
973,9	-0,727
974,3	2,953
974,7	10,073
975,2	10,033
975,6	6,233
976	0,633
976,4	1,953
976,8	-0,247
977,3	-3,247
977,7	1,473
978,1	-2,207
978,5	-2,327
978,9	-6,407
979,4	0,433
979,8	0,073
980,2	4,073
980,6	5,753
981	4,193
981,5	1,193
981,9	6,273
982,3	8,433
982,7	0,873
983,1	4,633
983,6	2,673
984	-6,247
984,4	-6,967
984,8	-5,047
985,2	-9,647
985,6	-8,127
986,1	-0,807
986,5	-5,127
986,9	-4,967
987,3	-0,047
987,7	-3,287
988,2	-5,847
988,6	-0,047
989	-0,327
989,4	-4,247
989,8	-1,087
990,3	1,193
990,7	-3,807
991,1	0,273
991,5	6,913
991,9	3,193
992,3	2,033
992,8	4,473
993,2	5,873
993,6	3,353
994	2,713
994,4	-5,047
994,9	-7,767
995,3	-12,687
995,7	-12,247
996,1	-7,887
996,5	-6,127
996,9	-8,327
997,4	-8,127
997,8	-10,727
998,2	-9,247
998,6	-10,527
999	-6,367
999,5	-3,327
999,9	0,913
1000,3	-3,647
1000,7	3,913
1001,1	4,073
1001,5	2,193
1002	-0,887
1002,4	5,033
1002,8	3,113
1003,2	0,313
1003,6	-2,087
1004	-4,407
1004,5	-5,967
1004,9	-6,127
1005,3	-5,167
1005,7	-2,007
1006,1	-3,767
1006,6	-1,687
1007	-3,167
1007,4	-1,367
1007,8	-2,167
1008,2	-1,807
1008,6	-5,727
1009,1	-9,367
1009,5	-7,807
1009,9	-4,687
1010,3	1,353
1010,7	7,433
1011,1	11,273
1011,6	8,513
1012	3,113
1012,4	2,633
1012,8	-4,887
1013,2	-3,607
1013,6	-1,647
1014,1	0,313
1014,5	0,953
1014,9	-2,047
1015,3	-2,327
1015,7	-5,167
1016,1	-0,087
1016,6	-1,767
1017	0,993
1017,4	-3,967
1017,8	4,753
1018,2	-3,007
1018,6	-4,607
1019,1	-3,087
1019,5	-1,047
1019,9	-4,087
1020,3	-6,167
1020,7	-5,407
1021,1	-7,407
1021,6	-5,527
1022	-12,487
1022,4	-7,127
1022,8	-4,367
1023,2	2,993
1023,6	6,353
1024,1	11,153
1024,5	11,153
1024,9	6,713
1025,3	5,433
1025,7	-1,447
1026,1	-7,447
1026,6	-10,927
1027	-9,367
1027,4	-12,927
1027,8	-10,007
1028,2	-2,127
1028,6	4,313
1029	1,753
1029,5	1,033
1029,9	1,313
1030,3	0,233
1030,7	-4,287
1031,1	-0,087
1031,5	1,713
1032	-1,567
1032,4	-4,847
1032,8	-4,767
1033,2	-6,807
1033,6	-8,407
1034	-5,087
1034,4	-6,647
1034,9	-3,087
1035,3	-2,007
1035,7	-7,407
1036,1	-16,367
1036,5	-12,327
1036,9	-11,487
1037,4	-13,687
1037,8	-8,527
1038,2	-1,767
1038,6	1,873
1039	-5,607
1039,4	-3,247
1039,8	-5,807
1040,3	-11,767
1040,7	-18,327
1041,1	-10,167
1041,5	-14,727
1041,9	-14,407
1042,3	-1,087
1042,7	-0,127
1043,2	-1,007
1043,6	5,713
1044	14,913
1044,4	9,313
1044,8	11,753
1045,2	2,553
1045,6	-4,727
1046,1	-8,727
1046,5	-3,407
1046,9	-4,687
1047,3	-3,287
1047,7	2,593
1048,1	-2,807
1048,5	-10,287
1049	-11,327
1049,4	-7,287
1049,8	-10,607
1050,2	-1,887
1050,6	-1,487
1051	2,633
1051,4	9,913
1051,9	11,393
1052,3	-0,287
1052,7	2,713
1053,1	-1,207
1053,5	-4,287
1053,9	2,313
1054,3	5,833
1054,8	2,473
1055,2	2,633
1055,6	-0,447
1056	-3,647
1056,4	-1,807
1056,8	-3,087
1057,2	-5,127
1057,6	-8,847
1058,1	-14,327
1058,5	-13,647
1058,9	-7,447
1059,3	-5,127
1059,7	0,073
1060,1	5,793
1060,5	5,033
1061	-0,487
1061,4	2,633
1061,8	5,513
1062,2	3,273
1062,6	0,753
1063	-2,767
1063,4	-10,807
1063,8	-20,087
1064,3	-25,127
1064,7	-24,487
1065,1	-15,687
1065,5	-9,087
1065,9	-6,967
1066,3	-7,007
1066,7	-6,767
1067,1	-11,487
1067,6	-9,767
1068	-9,487
1068,4	-4,647
1068,8	-2,447
1069,2	0,433
1069,6	-1,727
1070	3,993
1070,4	2,993
1070,9	3,153
1071,3	3,913
1071,7	6,153
1072,1	-1,607
1072,5	-2,687
1072,9	-0,727
1073,3	-0,047
1073,7	2,753
1074,2	9,553
1074,6	10,433
1075	11,673
1075,4	8,553
1075,8	2,593
1076,2	-2,367
1076,6	0,593
1077	-1,767
1077,5	2,153
1077,9	7,313
1078,3	4,913
1078,7	5,833
1079,1	3,673
1079,5	-0,087
1079,9	-5,047
1080,3	-1,247
1080,7	-6,847
1081,2	-2,927
1081,6	0,593
1082	0,313
1082,4	1,353
1082,8	5,713
1083,2	7,793
1083,6	2,073
1084	1,033
1084,5	0,393
1084,9	-0,887
1085,3	-10,287
1085,7	-4,207
1086,1	-3,007
1086,5	-2,887
1086,9	0,713
1087,3	3,033
1087,7	0,513
1088,2	0,073
1088,6	1,993
1089	-0,407
1089,4	-4,247
1089,8	-0,007
1090,2	0,793
1090,6	-2,127
1091	-5,127
1091,4	3,953
1091,9	4,673
1092,3	2,073
1092,7	6,353
1093,1	10,193
1093,5	0,593
1093,9	-9,167
1094,3	-8,207
1094,7	-9,447
1095,1	-10,527
1095,5	-3,367
1096	0,313
1096,4	-2,047
1096,8	0,833
1097,2	1,793
1097,6	1,833
1098	5,273
1098,4	8,273
1098,8	1,033
1099,2	-0,167
1099,6	-8,127
1100,1	-10,447
1100,5	-7,087
1100,9	-7,287
1101,3	-10,647
1101,7	-2,847
1102,1	-0,927
1102,5	-6,407
1102,9	0,273
1103,3	4,553
1103,7	4,473
1104,2	2,313
1104,6	3,953
1105	-0,487
1105,4	1,433
1105,8	-5,607
1106,2	-4,887
1106,6	-3,567
1107	-2,047
1107,4	-5,967
1107,8	0,733
1108,3	0,5
