Data from Subt2_00093.txt Node
Date: Fri Aug 11 16:53:45 MSK 2023
User: vat
Spectrometer: MAYP114033
Trigger mode: 0
Integration Time (sec): 5,000000E-1
Scans to average: 5
Electric dark correction enabled: true
Nonlinearity correction enabled: false
Boxcar width: 2
XAxis mode: Wavelengths
Number of Pixels in Spectrum: 2068
>>>>>Begin Spectral Data<<<<<
199,4	0,6
199,9	-0,167
200,4	-4,707
200,8	-7,427
201,3	-8,707
201,8	-11,667
202,2	-14,667
202,7	-11,187
203,2	-9,867
203,6	-11,947
204,1	-13,107
204,6	-11,267
205	-11,507
205,5	-11,067
206	-12,907
206,4	-11,787
206,9	-12,227
207,4	-14,427
207,8	-18,587
208,3	-15,147
208,8	-10,987
209,2	-11,867
209,7	-14,747
210,2	-9,467
210,6	-12,547
211,1	-18,307
211,5	-18,587
212	-15,587
212,5	-21,227
212,9	-19,707
213,4	-17,907
213,9	-20,307
214,3	-21,187
214,8	-24,827
215,3	-29,867
215,7	-35,587
216,2	-29,907
216,7	-30,667
217,1	-29,747
217,6	-29,267
218,1	-25,827
218,5	-31,187
219	-28,667
219,5	-20,947
219,9	-18,107
220,4	-13,547
220,9	-13,467
221,3	-11,507
221,8	-16,467
222,3	-10,267
222,7	-14,307
223,2	-8,347
223,6	-9,147
224,1	-5,787
224,6	-9,067
225	-10,667
225,5	-15,427
226	-12,467
226,4	-21,427
226,9	-23,187
227,4	-26,267
227,8	-25,587
228,3	-37,627
228,8	-29,827
229,2	-30,547
229,7	-28,067
230,2	-27,227
230,6	-23,547
231,1	-21,787
231,5	-18,707
232	-13,107
232,5	-16,427
232,9	-12,147
233,4	-13,547
233,9	-14,387
234,3	-17,107
234,8	-11,627
235,3	-12,307
235,7	-16,827
236,2	-22,187
236,7	-24,387
237,1	-24,507
237,6	-25,907
238,1	-21,267
238,5	-20,707
239	-21,347
239,4	-24,747
239,9	-18,227
240,4	-12,627
240,8	-7,547
241,3	-4,467
241,8	-4,787
242,2	-18,467
242,7	-26,867
243,2	-29,347
243,6	-28,187
244,1	-32,307
244,6	-29,827
245	-29,827
245,5	-29,027
245,9	-31,267
246,4	-23,267
246,9	-20,867
247,3	-21,387
247,8	-25,507
248,3	-24,427
248,7	-29,707
249,2	-29,467
249,7	-29,507
250,1	-26,547
250,6	-33,787
251	-36,547
251,5	-33,627
252	-30,947
252,4	-30,027
252,9	-19,987
253,4	-16,947
253,8	-18,987
254,3	-21,307
254,8	-19,947
255,2	-23,907
255,7	-21,747
256,1	-23,347
256,6	-21,747
257,1	-22,627
257,5	-23,907
258	-23,227
258,5	-19,307
258,9	-19,147
259,4	-24,147
259,9	-20,347
260,3	-21,187
260,8	-16,587
261,2	-14,267
261,7	-12,347
262,2	-17,227
262,6	-21,707
263,1	-31,747
263,6	-31,307
264	-25,147
264,5	-22,307
264,9	-18,107
265,4	-15,987
265,9	-17,867
266,3	-19,947
266,8	-17,147
267,3	-16,947
267,7	-11,427
268,2	-12,707
268,7	-11,547
269,1	-15,747
269,6	-14,067
270	-18,387
270,5	-22,027
271	-28,547
271,4	-28,387
271,9	-28,787
272,4	-33,227
272,8	-28,267
273,3	-25,387
273,7	-25,107
274,2	-29,227
274,7	-22,627
275,1	-23,307
275,6	-24,107
276,1	-24,267
276,5	-19,267
277	-20,187
277,4	-24,227
277,9	-17,027
278,4	-21,027
278,8	-19,667
279,3	-21,707
279,8	-18,547
280,2	-20,547
280,7	-18,147
281,1	-23,067
281,6	-24,587
282,1	-22,987
282,5	-28,547
283	-25,427
283,4	-25,227
283,9	-20,307
284,4	-20,027
284,8	-20,067
285,3	-20,187
285,8	-18,347
286,2	-19,107
286,7	-18,627
287,1	-18,747
287,6	-17,827
288,1	-20,827
288,5	-20,507
289	-26,867
289,5	-28,227
289,9	-26,307
290,4	-25,747
290,8	-28,667
291,3	-24,507
291,8	-14,027
292,2	-19,067
292,7	-17,067
293,1	-14,867
293,6	-12,347
294,1	-23,947
294,5	-23,867
295	-24,267
295,5	-22,507
295,9	-27,467
296,4	-19,947
296,8	-19,067
297,3	-19,147
297,8	-18,987
298,2	-14,947
298,7	-20,547
299,1	-22,347
299,6	-23,907
300,1	-28,547
300,5	-27,827
301	-24,987
301,5	-24,027
301,9	-24,387
302,4	-19,387
302,8	-18,987
303,3	-19,707
303,8	-20,507
304,2	-17,987
304,7	-16,907
305,1	-18,867
305,6	-20,667
306,1	-18,747
306,5	-22,267
307	-25,347
307,4	-23,907
307,9	-23,547
308,4	-23,867
308,8	-20,187
309,3	-22,747
309,8	-24,867
310,2	-24,707
310,7	-22,147
311,1	-30,907
311,6	-31,787
312,1	-29,867
312,5	-29,507
313	-32,267
313,4	-31,307
313,9	-21,107
314,4	-22,827
314,8	-22,947
315,3	-22,707
315,7	-16,307
316,2	-24,707
316,7	-28,267
317,1	-27,987
317,6	-26,787
318	-26,547
318,5	-22,787
319	-23,187
319,4	-18,107
319,9	-19,627
320,3	-19,787
320,8	-21,987
321,3	-17,067
321,7	-18,707
322,2	-16,387
322,6	-20,147
323,1	-25,827
323,6	-30,107
324	-28,827
324,5	-28,387
324,9	-25,187
325,4	-23,267
325,9	-20,307
326,3	-21,387
326,8	-20,107
327,2	-24,507
327,7	-25,347
328,2	-23,387
328,6	-21,427
329,1	-27,627
329,5	-23,107
330	-14,387
330,5	-15,107
330,9	-21,347
331,4	-19,627
331,8	-23,707
332,3	-26,627
332,8	-30,067
333,2	-29,347
333,7	-27,547
334,1	-21,827
334,6	-27,987
335,1	-23,987
335,5	-24,067
336	-27,147
336,4	-30,947
336,9	-27,307
337,4	-32,947
337,8	-31,027
338,3	-26,067
338,7	-22,507
339,2	-21,147
339,7	-12,867
340,1	-10,707
340,6	-8,147
341	-7,027
341,5	-0,507
342	-4,747
342,4	-4,747
342,9	-10,667
343,3	-14,507
343,8	-21,227
344,2	-21,507
344,7	-25,947
345,2	-20,027
345,6	-19,187
346,1	-19,147
346,5	-15,507
347	-12,787
347,5	-17,587
347,9	-13,067
348,4	-10,547
348,8	-11,307
349,3	-12,427
349,8	-7,587
350,2	-10,427
350,7	-10,587
351,1	-11,467
351,6	-6,627
352	-14,027
352,5	-13,587
353	-14,627
353,4	-10,707
353,9	-10,827
354,3	-0,667
354,8	1,253
355,3	7,013
355,7	13,733
356,2	18,773
356,6	21,253
357,1	36,173
357,5	41,773
358	49,253
358,5	60,933
358,9	78,573
359,4	89,493
359,8	112,893
360,3	130,333
360,8	155,973
361,2	178,013
361,7	205,453
362,1	232,093
362,6	269,893
363	310,493
363,5	349,453
364	395,173
364,4	439,533
364,9	483,573
365,3	524,173
365,8	567,773
366,3	601,653
366,7	637,413
367,2	671,213
367,6	691,973
368,1	709,533
368,5	721,973
369	728,293
369,5	725,093
369,9	722,213
370,4	707,013
370,8	692,573
371,3	669,973
371,7	645,933
372,2	613,853
372,7	583,293
373,1	545,093
373,6	513,773
374	475,253
374,5	446,093
374,9	419,373
375,4	393,693
375,9	366,093
376,3	338,893
376,8	311,213
377,2	287,533
377,7	265,853
378,2	242,053
378,6	219,053
379,1	195,733
379,5	173,733
380	155,093
380,4	136,133
380,9	123,493
381,4	113,173
381,8	103,413
382,3	94,293
382,7	86,013
383,2	76,133
383,6	67,493
384,1	58,093
384,6	49,453
385	42,333
385,5	37,453
385,9	30,573
386,4	31,653
386,8	25,093
387,3	24,973
387,7	24,613
388,2	24,093
388,7	12,533
389,1	10,653
389,6	9,613
390	6,373
390,5	4,173
390,9	3,253
391,4	5,893
391,9	1,173
392,3	-4,427
392,8	-3,587
393,2	-0,667
393,7	-5,787
394,1	-5,987
394,6	-3,027
395,1	-7,867
395,5	-8,067
396	-5,027
396,4	-4,027
396,9	-3,947
397,3	-2,547
397,8	-6,907
398,2	-11,307
398,7	-11,347
399,2	-7,787
399,6	-10,467
400,1	-4,787
400,5	-1,027
401	-3,427
401,4	-7,507
401,9	-1,267
402,4	-3,347
402,8	-7,827
403,3	-10,707
403,7	-14,387
404,2	-20,587
404,6	-24,827
405,1	-16,547
405,5	-14,107
406	-10,787
406,5	-12,027
406,9	-9,547
407,4	-11,387
407,8	-11,267
408,3	-12,147
408,7	-10,627
409,2	-10,947
409,6	-10,027
410,1	-7,467
410,6	-4,707
411	0,453
411,5	2,693
411,9	2,493
412,4	6,653
412,8	12,693
413,3	13,653
413,7	14,493
414,2	14,053
414,7	12,773
415,1	8,813
415,6	6,773
416	8,213
416,5	10,933
416,9	12,453
417,4	15,173
417,8	23,053
418,3	30,573
418,8	34,813
419,2	36,173
419,7	39,213
420,1	40,493
420,6	34,573
421	31,493
421,5	33,253
421,9	31,653
422,4	28,573
422,8	35,533
423,3	31,533
423,8	33,133
424,2	37,773
424,7	37,413
425,1	32,973
425,6	44,013
426	40,613
426,5	40,893
426,9	44,893
427,4	54,533
427,9	55,013
428,3	59,013
428,8	58,933
429,2	60,533
429,7	56,733
430,1	55,893
430,6	66,853
431	73,053
431,5	78,373
431,9	84,733
432,4	88,013
432,8	86,373
433,3	86,373
433,8	91,133
434,2	96,973
434,7	103,333
435,1	106,413
435,6	114,093
436	116,973
436,5	120,973
436,9	127,213
437,4	134,093
437,8	139,973
438,3	145,173
438,8	144,973
439,2	148,373
439,7	155,693
440,1	161,853
440,6	170,693
441	184,613
441,5	195,533
441,9	204,173
442,4	211,493
442,8	220,573
443,3	235,733
443,7	249,053
444,2	266,813
444,7	279,013
445,1	292,573
445,6	301,533
446	316,573
446,5	316,693
446,9	329,133
447,4	338,093
447,8	347,133
448,3	360,813
448,7	382,693
449,2	400,613
449,6	420,013
450,1	437,093
450,6	445,773
451	458,373
451,5	469,893
451,9	485,453
452,4	509,213
452,8	532,773
453,3	555,453
453,7	581,693
454,2	597,653
454,6	612,013
455,1	629,853
455,5	649,733
456	661,573
456,4	685,213
456,9	703,013
457,3	719,613
457,8	738,293
458,3	764,733
458,7	785,213
459,2	807,573
459,6	829,053
460,1	843,893
460,5	872,613
461	895,413
461,4	917,773
461,9	945,173
462,3	975,253
462,8	991,453
463,2	1016,133
463,7	1044,613
464,1	1071,893
464,6	1093,013
465	1121,733
465,5	1146,053
466	1165,213
466,4	1191,373
466,9	1222,133
467,3	1238,173
467,8	1263,613
468,2	1293,853
468,7	1310,453
469,1	1332,733
469,6	1366,093
470	1390,413
470,5	1410,853
470,9	1435,253
471,4	1455,173
471,8	1475,693
472,3	1499,573
472,7	1529,653
473,2	1556,413
473,6	1589,413
474,1	1614,333
474,5	1643,453
475	1669,293
475,4	1693,533
475,9	1717,693
476,4	1735,973
476,8	1756,253
477,3	1775,093
477,7	1802,653
478,2	1823,413
478,6	1851,613
479,1	1868,013
479,5	1889,613
480	1901,413
480,4	1918,053
480,9	1938,733
481,3	1963,213
481,8	1978,973
482,2	2002,613
482,7	2009,773
483,1	2018,853
483,6	2027,653
484	2039,893
484,5	2052,613
484,9	2083,173
485,4	2102,133
485,8	2118,453
486,3	2134,573
486,7	2145,213
487,2	2161,453
487,6	2171,973
488,1	2184,173
488,5	2189,653
489	2203,013
489,4	2202,653
489,9	2211,453
490,4	2227,653
490,8	2239,733
491,3	2245,613
491,7	2262,453
492,2	2264,613
492,6	2270,733
493,1	2278,173
493,5	2284,573
494	2280,653
494,4	2299,173
494,9	2299,733
495,3	2300,773
495,8	2302,773
496,2	2309,773
496,7	2305,773
497,1	2308,053
497,6	2308,773
498	2313,893
498,5	2308,453
498,9	2308,893
499,4	2312,253
499,8	2319,213
500,3	2314,533
500,7	2319,173
501,2	2318,453
501,6	2308,333
502,1	2304,613
502,5	2306,013
503	2300,373
503,4	2297,453
503,9	2304,413
504,3	2301,573
504,8	2304,173
505,2	2304,653
505,7	2310,933
506,1	2309,173
506,6	2312,573
507	2305,773
507,5	2296,573
507,9	2283,413
508,4	2270,693
508,8	2262,493
509,3	2257,613
509,7	2261,173
510,2	2258,213
510,6	2255,773
511,1	2248,813
511,5	2243,333
512	2227,653
512,4	2221,893
512,9	2220,333
513,3	2217,173
513,8	2216,093
514,2	2226,373
514,7	2220,813
515,1	2213,653
515,6	2206,653
516	2200,813
516,5	2193,213
516,9	2186,533
517,4	2172,973
517,8	2167,333
518,3	2153,973
518,7	2143,173
519,2	2141,373
519,6	2143,413
520,1	2141,493
520,5	2138,893
521	2135,693
521,4	2124,293
521,9	2119,413
522,3	2112,493
522,8	2106,333
523,2	2096,093
523,7	2093,813
524,1	2088,733
524,6	2082,773
525	2080,853
525,5	2068,813
525,9	2061,933
526,4	2051,453
526,8	2040,533
527,3	2035,053
527,7	2037,373
528,2	2040,533
528,6	2041,173
529,1	2047,093
529,5	2043,573
530	2048,213
530,4	2037,373
530,9	2030,453
531,3	2017,333
531,8	2009,053
532,2	1993,453
532,6	1995,613
533,1	1994,773
533,5	1989,533
534	1984,693
534,4	1987,693
534,9	1981,693
535,3	1980,253
535,8	1982,853
536,2	1987,893
536,7	1979,573
537,1	1984,373
537,6	1976,373
538	1974,373
538,5	1972,933
538,9	1979,013
539,4	1964,893
539,8	1966,493
540,3	1957,933
540,7	1948,373
541,2	1938,413
541,6	1936,493
542,1	1930,613
542,5	1934,733
543	1933,133
543,4	1929,573
543,9	1930,853
544,3	1933,613
544,8	1932,653
545,2	1934,853
545,7	1938,893
546,1	1935,493
546,5	1933,773
547	1933,213
547,4	1932,653
547,9	1924,693
548,3	1920,573
548,8	1916,613
549,2	1911,813
549,7	1902,333
550,1	1902,013
550,6	1902,293
551	1897,893
551,5	1893,333
551,9	1891,493
552,4	1895,013
552,8	1893,533
553,3	1891,173
553,7	1893,933
554,2	1900,333
554,6	1901,613
555,1	1899,533
555,5	1910,213
555,9	1910,493
556,4	1905,133
556,8	1895,653
557,3	1895,253
557,7	1884,773
558,2	1877,333
558,6	1880,653
559,1	1883,333
559,5	1878,333
560	1878,733
560,4	1878,973
560,9	1875,373
561,3	1867,333
561,8	1875,853
562,2	1871,493
562,7	1872,533
563,1	1877,213
563,6	1874,253
564	1863,413
564,4	1866,693
564,9	1871,333
565,3	1857,093
565,8	1861,773
566,2	1861,533
566,7	1858,733
567,1	1847,773
567,6	1854,173
568	1862,373
568,5	1863,373
568,9	1858,293
569,4	1861,573
569,8	1853,253
570,3	1844,533
570,7	1842,813
571,1	1835,813
571,6	1834,053
572	1839,293
572,5	1837,053
572,9	1831,653
573,4	1843,053
573,8	1830,533
574,3	1822,333
574,7	1814,493
575,2	1822,293
575,6	1810,533
576,1	1812,133
576,5	1808,933
576,9	1812,133
577,4	1798,133
577,8	1794,493
578,3	1795,413
578,7	1799,893
579,2	1789,053
579,6	1780,533
580,1	1776,013
580,5	1771,213
581	1767,693
581,4	1765,933
581,9	1771,813
582,3	1776,933
582,7	1777,733
583,2	1764,253
583,6	1763,213
584,1	1754,853
584,5	1745,693
585	1733,333
585,4	1734,253
585,9	1728,413
586,3	1730,493
586,8	1731,133
587,2	1729,293
587,6	1723,493
588,1	1720,733
588,5	1709,813
589	1706,533
589,4	1703,533
589,9	1701,413
590,3	1696,733
590,8	1697,013
591,2	1686,293
591,7	1687,973
592,1	1682,693
592,5	1686,173
593	1679,413
593,4	1678,133
593,9	1673,413
594,3	1667,933
594,8	1659,693
595,2	1665,013
595,7	1663,053
596,1	1657,533
596,6	1657,413
597	1647,573
597,4	1638,613
597,9	1631,933
598,3	1628,573
598,8	1618,173
599,2	1620,173
599,7	1609,773
600,1	1608,533
600,6	1603,293
601	1599,333
601,4	1595,253
601,9	1599,173
602,3	1590,813
602,8	1584,693
603,2	1585,053
603,7	1575,893
604,1	1571,813
604,6	1568,853
605	1564,413
605,4	1562,453
605,9	1559,613
606,3	1555,733
606,8	1555,133
607,2	1552,813
607,7	1546,573
608,1	1540,373
608,6	1532,533
609	1520,093
609,4	1516,133
609,9	1510,453
610,3	1509,333
610,8	1508,693
611,2	1504,093
611,7	1494,013
612,1	1487,333
612,6	1472,573
613	1457,293
613,4	1453,373
613,9	1450,453
614,3	1439,253
614,8	1445,253
615,2	1448,573
615,7	1446,133
616,1	1438,693
616,6	1433,573
617	1418,493
617,4	1409,613
617,9	1398,973
618,3	1395,573
618,8	1392,813
619,2	1395,173
619,7	1382,893
620,1	1379,533
620,5	1372,813
621	1360,933
621,4	1351,973
621,9	1345,893
622,3	1338,693
622,8	1332,133
623,2	1331,613
623,6	1317,333
624,1	1316,053
624,5	1313,053
625	1305,293
625,4	1300,333
625,9	1298,093
626,3	1290,893
626,8	1281,333
627,2	1275,173
627,6	1263,293
628,1	1263,653
628,5	1259,533
629	1255,773
629,4	1243,053
629,9	1238,413
630,3	1232,893
630,7	1223,733
631,2	1209,893
631,6	1209,773
632,1	1208,773
632,5	1195,573
633	1194,853
633,4	1197,293
633,8	1184,853
634,3	1180,413
634,7	1178,373
635,2	1173,653
635,6	1162,733
636,1	1165,213
636,5	1155,573
636,9	1151,053
637,4	1137,613
637,8	1132,053
638,3	1120,053
638,7	1117,173
639,2	1112,293
639,6	1109,173
640	1102,213
640,5	1098,933
640,9	1091,653
641,4	1086,133
641,8	1081,253
642,2	1077,333
642,7	1076,053
643,1	1074,253
643,6	1064,133
644	1055,053
644,5	1053,253
644,9	1050,293
645,3	1041,493
645,8	1031,293
646,2	1030,693
646,7	1020,413
647,1	1015,293
647,6	1009,053
648	1015,013
648,4	1008,413
648,9	1002,613
649,3	995,933
649,8	988,253
650,2	983,213
650,6	974,733
651,1	984,853
651,5	974,333
652	969,093
652,4	965,453
652,9	956,133
653,3	934,693
653,7	933,293
654,2	929,413
654,6	922,933
655,1	922,053
655,5	923,293
655,9	919,533
656,4	911,293
656,8	902,773
657,3	899,653
657,7	885,373
658,2	876,093
658,6	877,213
659	869,693
659,5	864,893
659,9	870,613
660,4	873,573
660,8	871,893
661,2	871,453
661,7	862,213
662,1	853,333
662,6	843,013
663	833,373
663,4	823,253
663,9	825,133
664,3	821,613
664,8	815,493
665,2	814,133
665,6	816,733
666,1	808,613
666,5	803,013
667	798,133
667,4	795,333
667,9	785,453
668,3	782,853
668,7	780,213
669,2	772,253
669,6	768,373
670,1	768,133
670,5	762,173
670,9	756,933
671,4	756,013
671,8	745,173
672,3	735,453
672,7	728,293
673,1	723,533
673,6	720,453
674	714,853
674,5	706,093
674,9	702,773
675,3	693,293
675,8	691,493
676,2	690,813
676,7	694,173
677,1	691,773
677,5	686,413
678	677,333
678,4	671,453
678,9	661,893
679,3	651,653
679,7	653,573
680,2	650,013
680,6	642,493
681,1	641,013
681,5	639,013
681,9	632,613
682,4	626,493
682,8	630,533
683,3	622,573
683,7	623,373
684,1	622,973
684,6	616,653
685	608,813
685,5	609,093
685,9	601,493
686,3	593,613
686,8	590,573
687,2	586,053
687,7	579,733
688,1	577,333
688,5	576,613
689	579,093
689,4	578,293
689,9	571,373
690,3	568,493
690,7	559,973
691,2	549,853
691,6	539,893
692	538,293
692,5	535,653
692,9	536,613
693,4	536,013
693,8	533,573
694,2	526,493
694,7	525,653
695,1	520,693
695,6	518,133
696	517,853
696,4	522,813
696,9	516,213
697,3	515,373
697,8	509,693
698,2	506,973
698,6	502,333
699,1	504,853
699,5	500,653
699,9	498,813
700,4	492,133
700,8	494,333
701,3	484,973
701,7	476,053
702,1	475,373
702,6	468,333
703	457,253
703,5	449,013
703,9	447,453
704,3	447,053
704,8	449,253
705,2	447,653
705,6	451,533
706,1	449,093
706,5	435,133
707	437,973
707,4	437,013
707,8	429,973
708,3	428,573
708,7	436,893
709,2	427,013
709,6	422,573
710	425,613
710,5	425,693
710,9	416,013
711,3	414,813
711,8	407,933
712,2	405,213
712,7	394,733
713,1	391,773
713,5	387,333
714	383,933
714,4	379,933
714,8	385,413
715,3	384,693
715,7	384,453
716,2	383,253
716,6	379,693
717	375,453
717,5	371,693
717,9	365,453
718,3	359,853
718,8	356,533
719,2	346,493
719,7	343,373
720,1	341,213
720,5	339,293
721	330,253
721,4	335,453
721,8	329,813
722,3	327,333
722,7	332,853
723,2	331,173
723,6	328,733
724	325,413
724,5	321,093
724,9	314,773
725,3	316,413
725,8	308,573
726,2	310,253
726,7	304,173
727,1	301,493
727,5	292,893
728	288,813
728,4	283,173
728,8	282,973
729,3	283,093
729,7	286,493
730,1	288,053
730,6	293,013
731	291,013
731,5	284,133
731,9	277,773
732,3	274,693
732,8	267,733
733,2	266,173
733,6	266,133
734,1	267,333
734,5	265,373
734,9	265,373
735,4	270,213
735,8	268,933
736,3	274,693
736,7	272,093
737,1	267,293
737,6	265,613
738	263,133
738,4	256,493
738,9	255,893
739,3	252,093
739,7	242,493
740,2	245,613
740,6	238,213
741,1	235,093
741,5	235,933
741,9	239,213
742,4	232,053
742,8	235,213
743,2	238,933
743,7	240,173
744,1	236,933
744,5	238,533
745	232,893
745,4	226,933
745,8	220,413
746,3	216,533
746,7	213,653
747,2	212,973
747,6	211,293
748	214,293
748,5	216,893
748,9	212,773
749,3	209,813
749,8	209,013
750,2	214,133
750,6	207,893
751,1	207,453
751,5	208,893
751,9	210,253
752,4	201,933
752,8	204,933
753,3	207,093
753,7	205,493
754,1	208,973
754,6	205,293
755	204,493
755,4	198,053
755,9	191,853
756,3	184,573
756,7	182,053
757,2	173,613
757,6	169,493
758	174,373
758,5	169,533
758,9	172,653
759,3	171,013
759,8	177,493
760,2	178,493
760,6	176,853
761,1	172,093
761,5	175,853
761,9	171,973
762,4	166,773
762,8	169,453
763,3	169,053
763,7	166,893
764,1	160,013
764,6	161,133
765	152,653
765,4	148,373
765,9	143,293
766,3	144,813
766,7	140,053
767,2	145,813
767,6	146,373
768	151,733
768,5	146,693
768,9	146,733
769,3	142,013
769,8	143,613
770,2	141,613
770,6	145,773
771,1	141,653
771,5	142,893
771,9	140,093
772,4	137,173
772,8	139,893
773,2	144,533
773,7	148,573
774,1	150,893
774,5	149,493
775	138,053
775,4	133,733
775,8	128,853
776,3	128,133
776,7	121,613
777,1	127,533
777,6	126,213
778	128,013
778,4	123,653
778,9	131,613
779,3	131,093
779,7	131,133
780,2	124,093
780,6	122,373
781	122,013
781,5	121,893
781,9	113,653
782,3	112,013
782,8	107,213
783,2	98,013
783,6	94,773
784,1	102,213
784,5	96,053
784,9	99,293
785,4	105,333
785,8	103,173
786,2	103,253
786,7	109,253
787,1	110,693
787,5	104,373
788	102,813
788,4	100,573
788,8	101,773
789,3	92,573
789,7	91,853
790,1	93,573
790,6	88,853
791	84,493
791,4	93,533
791,9	97,213
792,3	93,813
792,7	91,533
793,2	88,893
793,6	87,693
794	85,413
794,5	84,253
794,9	90,413
795,3	91,773
795,8	85,373
796,2	84,613
796,6	85,933
797,1	79,813
797,5	74,373
797,9	77,493
798,4	76,533
798,8	80,413
799,2	79,253
799,7	80,053
800,1	78,253
800,5	77,613
801	76,053
801,4	79,533
801,8	82,933
802,2	88,773
802,7	93,933
803,1	90,493
803,5	83,213
804	82,493
804,4	77,493
804,8	72,493
805,3	64,293
805,7	65,573
806,1	63,253
806,6	60,533
807	54,053
807,4	60,413
807,9	62,293
808,3	63,133
808,7	58,813
809,2	61,333
809,6	60,253
810	58,213
810,4	55,173
810,9	59,173
811,3	59,573
811,7	54,693
812,2	52,653
812,6	53,373
813	51,813
813,5	52,533
813,9	54,293
814,3	56,333
814,8	60,253
815,2	61,413
815,6	59,493
816,1	52,813
816,5	54,413
816,9	50,093
817,3	43,653
817,8	45,893
818,2	51,893
818,6	50,493
819,1	47,693
819,5	53,373
819,9	44,253
820,4	45,453
820,8	44,373
821,2	48,853
821,7	39,893
822,1	42,493
822,5	36,613
822,9	39,373
823,4	33,733
823,8	39,973
824,2	41,373
824,7	46,853
825,1	39,413
825,5	37,773
826	33,853
826,4	31,133
826,8	30,653
827,3	37,573
827,7	40,453
828,1	40,893
828,5	47,413
829	45,013
829,4	38,933
829,8	39,893
830,3	40,333
830,7	35,853
831,1	32,893
831,6	34,493
832	34,213
832,4	37,013
832,8	36,653
833,3	35,653
833,7	40,453
834,1	37,613
834,6	36,253
835	36,333
835,4	36,973
835,8	26,613
836,3	23,093
836,7	22,133
837,1	21,493
837,6	24,813
838	28,493
838,4	31,453
838,9	29,533
839,3	30,453
839,7	33,093
840,1	34,853
840,6	32,213
841	27,733
841,4	23,573
841,9	19,493
842,3	14,813
842,7	14,013
843,1	16,413
843,6	9,133
844	7,373
844,4	9,573
844,9	13,453
845,3	13,733
845,7	21,773
846,2	23,933
846,6	21,213
847	19,973
847,4	19,853
847,9	22,653
848,3	20,373
848,7	21,173
849,2	23,453
849,6	25,573
850	22,533
850,4	20,333
850,9	22,253
851,3	21,413
851,7	15,053
852,2	13,413
852,6	13,253
853	14,733
853,4	11,973
853,9	12,933
854,3	14,213
854,7	17,373
855,2	15,693
855,6	10,893
856	13,893
856,4	10,013
856,9	7,053
857,3	4,213
857,7	11,693
858,2	10,253
858,6	12,053
859	12,373
859,4	12,853
859,9	5,333
860,3	5,733
860,7	2,613
861,1	3,893
861,6	0,093
862	6,053
862,4	6,133
862,9	11,653
863,3	5,093
863,7	2,533
864,1	-0,187
864,6	1,173
865	0,333
865,4	1,653
865,9	4,093
866,3	4,893
866,7	4,373
867,1	4,573
867,6	8,373
868	12,253
868,4	8,053
868,8	8,573
869,3	14,373
869,7	11,093
870,1	8,813
870,6	13,933
871	12,773
871,4	-14,787
871,8	-7,747
872,3	-9,587
872,7	-20,387
873,1	-19,307
873,5	-1,667
874	-6,227
874,4	-0,147
874,8	10,213
875,3	5,453
875,7	9,293
876,1	9,253
876,5	5,253
877	-0,227
877,4	1,933
877,8	1,093
878,2	-0,547
878,7	4,333
879,1	8,013
879,5	9,053
879,9	6,373
880,4	9,853
880,8	0,493
881,2	0,053
881,7	-1,747
882,1	-4,187
882,5	-8,347
882,9	-1,667
883,4	-5,187
883,8	-5,707
884,2	-2,667
884,6	1,333
885,1	-2,227
885,5	-2,427
885,9	-1,867
886,3	-5,267
886,8	-7,467
887,2	-5,747
887,6	-1,427
888	-2,627
888,5	2,853
888,9	2,453
889,3	1,373
889,8	-1,427
890,2	-3,347
890,6	-6,467
891	-7,827
891,5	-7,307
891,9	-6,067
892,3	-6,107
892,7	-3,427
893,2	-2,707
893,6	-4,827
894	-9,027
894,4	-11,587
894,9	-11,907
895,3	-12,427
895,7	-14,947
896,1	-11,387
896,6	-9,947
897	-7,387
897,4	-7,947
897,8	-6,387
898,3	-6,587
898,7	-9,427
899,1	-8,307
899,5	-9,627
900	-8,387
900,4	-8,267
900,8	-8,467
901,2	-16,667
901,7	-12,427
902,1	-10,867
902,5	-9,987
902,9	-6,867
903,4	-5,587
903,8	-7,467
904,2	-13,147
904,6	-7,747
905,1	-5,027
905,5	-2,667
905,9	-3,427
906,3	0,493
906,8	-8,787
907,2	-4,667
907,6	-8,587
908	-3,107
908,5	-5,827
908,9	-4,467
909,3	-14,147
909,7	-13,627
910,2	-21,267
910,6	-17,307
911	-17,587
911,4	-14,747
911,9	-18,067
912,3	-14,507
912,7	-17,547
913,1	-17,267
913,6	-16,907
914	-16,067
914,4	-16,707
914,8	-15,587
915,3	-15,387
915,7	-13,067
916,1	-5,147
916,5	-2,947
916,9	-4,707
917,4	-1,427
917,8	-3,507
918,2	-8,667
918,6	-15,107
919,1	-11,227
919,5	-15,307
919,9	-12,427
920,3	-12,147
920,8	-6,067
921,2	-7,467
921,6	-6,747
922	-10,747
922,5	-8,547
922,9	-13,747
923,3	-14,347
923,7	-12,787
924,2	-16,307
924,6	-18,187
925	-13,347
925,4	-12,227
925,8	-10,627
926,3	-8,667
926,7	-6,507
927,1	-5,667
927,5	-7,867
928	-13,267
928,4	-13,347
928,8	-17,507
929,2	-17,187
929,7	-15,907
930,1	-14,987
930,5	-9,907
930,9	-10,987
931,3	-15,307
931,8	-13,667
932,2	-14,467
932,6	-17,587
933	-16,347
933,5	-13,107
933,9	-15,747
934,3	-10,707
934,7	-6,267
935,2	-5,067
935,6	-14,787
936	-22,147
936,4	-26,787
936,8	-31,347
937,3	-27,627
937,7	-23,507
938,1	-17,027
938,5	-17,627
939	-16,347
939,4	-21,907
939,8	-19,347
940,2	-17,867
940,6	-15,827
941,1	-16,067
941,5	-15,107
941,9	-18,867
942,3	-20,267
942,8	-15,827
943,2	-12,667
943,6	-11,267
944	-7,267
944,4	-9,227
944,9	-14,467
945,3	-17,067
945,7	-14,227
946,1	-14,467
946,6	-14,387
947	-13,947
947,4	-16,627
947,8	-26,387
948,2	-26,027
948,7	-18,827
949,1	-20,107
949,5	-22,387
949,9	-14,627
950,3	-15,467
950,8	-20,067
951,2	-22,907
951,6	-15,227
952	-18,507
952,5	-24,867
952,9	-27,987
953,3	-28,827
953,7	-33,027
954,1	-36,547
954,6	-29,467
955	-25,147
955,4	-19,987
955,8	-21,907
956,2	-19,987
956,7	-24,827
957,1	-26,267
957,5	-25,347
957,9	-20,067
958,3	-20,427
958,8	-17,427
959,2	-16,147
959,6	-15,387
960	-18,307
960,5	-12,347
960,9	-14,387
961,3	-12,907
961,7	-12,187
962,1	-13,307
962,6	-15,347
963	-14,827
963,4	-20,427
963,8	-26,387
964,2	-24,987
964,7	-20,227
965,1	-16,387
965,5	-17,267
965,9	-13,427
966,3	-13,947
966,8	-22,347
967,2	-26,387
967,6	-20,627
968	-23,507
968,4	-20,267
968,9	-23,187
969,3	-20,387
969,7	-25,907
970,1	-24,067
970,5	-25,387
971	-15,067
971,4	-19,827
971,8	-18,827
972,2	-15,067
972,6	-19,707
973,1	-24,027
973,5	-18,467
973,9	-17,347
974,3	-18,467
974,7	-15,947
975,2	-6,747
975,6	-8,107
976	-7,307
976,4	-10,187
976,8	-6,747
977,3	-14,867
977,7	-10,267
978,1	-13,827
978,5	-12,067
978,9	-20,307
979,4	-20,107
979,8	-27,427
980,2	-25,827
980,6	-26,387
981	-23,027
981,5	-28,507
981,9	-22,347
982,3	-19,387
982,7	-24,227
983,1	-26,107
983,6	-21,187
984	-28,467
984,4	-31,707
984,8	-33,427
985,2	-25,867
985,6	-29,187
986,1	-25,627
986,5	-19,267
986,9	-15,667
987,3	-22,227
987,7	-22,227
988,2	-22,947
988,6	-30,947
989	-23,947
989,4	-21,507
989,8	-20,707
990,3	-21,387
990,7	-19,187
991,1	-22,147
991,5	-23,267
991,9	-20,467
992,3	-23,227
992,8	-23,547
993,2	-24,387
993,6	-24,267
994	-24,147
994,4	-15,107
994,9	-15,347
995,3	-18,867
995,7	-16,947
996,1	-15,187
996,5	-19,387
996,9	-16,347
997,4	-14,467
997,8	-19,387
998,2	-22,267
998,6	-27,067
999	-31,467
999,5	-28,627
999,9	-29,547
1000,3	-31,427
1000,7	-23,627
1001,1	-24,107
1001,5	-24,547
1002	-17,867
1002,4	-18,947
1002,8	-20,787
1003,2	-13,667
1003,6	-13,667
1004	-14,227
1004,5	-9,747
1004,9	-6,747
1005,3	-12,107
1005,7	-13,667
1006,1	-15,027
1006,6	-12,827
1007	-14,707
1007,4	-10,187
1007,8	-10,107
1008,2	-7,707
1008,6	-10,627
1009,1	-16,707
1009,5	-16,507
1009,9	-20,587
1010,3	-26,147
1010,7	-30,427
1011,1	-23,307
1011,6	-28,227
1012	-25,627
1012,4	-17,547
1012,8	-12,587
1013,2	-15,387
1013,6	-15,107
1014,1	-13,627
1014,5	-19,187
1014,9	-26,627
1015,3	-28,867
1015,7	-32,067
1016,1	-32,827
1016,6	-38,347
1017	-33,507
1017,4	-30,627
1017,8	-23,707
1018,2	-26,227
1018,6	-17,827
1019,1	-20,507
1019,5	-24,307
1019,9	-30,947
1020,3	-30,587
1020,7	-36,027
1021,1	-29,907
1021,6	-30,307
1022	-22,867
1022,4	-23,027
1022,8	-17,027
1023,2	-21,027
1023,6	-19,987
1024,1	-22,747
1024,5	-19,467
1024,9	-21,907
1025,3	-22,947
1025,7	-22,707
1026,1	-21,907
1026,6	-22,947
1027	-19,627
1027,4	-15,267
1027,8	-11,507
1028,2	-9,387
1028,6	-9,427
1029	-11,867
1029,5	-13,507
1029,9	-17,787
1030,3	-20,027
1030,7	-24,347
1031,1	-27,707
1031,5	-33,227
1032	-32,107
1032,4	-36,387
1032,8	-29,547
1033,2	-31,107
1033,6	-25,947
1034	-26,667
1034,4	-21,187
1034,9	-25,347
1035,3	-25,427
1035,7	-24,507
1036,1	-27,427
1036,5	-32,667
1036,9	-29,187
1037,4	-32,787
1037,8	-37,267
1038,2	-37,867
1038,6	-34,707
1039	-35,347
1039,4	-27,987
1039,8	-28,627
1040,3	-23,147
1040,7	-21,827
1041,1	-17,467
1041,5	-18,027
1041,9	-17,627
1042,3	-18,587
1042,7	-21,587
1043,2	-30,947
1043,6	-31,347
1044	-24,667
1044,4	-26,507
1044,8	-29,147
1045,2	-22,307
1045,6	-20,187
1046,1	-24,987
1046,5	-31,347
1046,9	-27,947
1047,3	-29,987
1047,7	-34,947
1048,1	-35,107
1048,5	-30,987
1049	-32,987
1049,4	-32,747
1049,8	-29,227
1050,2	-27,187
1050,6	-19,907
1051	-21,907
1051,4	-24,027
1051,9	-26,467
1052,3	-26,587
1052,7	-32,547
1053,1	-33,427
1053,5	-35,267
1053,9	-31,667
1054,3	-32,267
1054,8	-32,667
1055,2	-31,627
1055,6	-30,547
1056	-37,267
1056,4	-35,187
1056,8	-33,627
1057,2	-26,627
1057,6	-20,147
1058,1	-15,107
1058,5	-23,707
1058,9	-19,067
1059,3	-21,907
1059,7	-26,147
1060,1	-21,107
1060,5	-11,307
1061	-17,907
1061,4	-14,827
1061,8	-16,187
1062,2	-22,467
1062,6	-26,227
1063	-18,307
1063,4	-20,627
1063,8	-18,187
1064,3	-15,827
1064,7	-15,627
1065,1	-18,787
1065,5	-15,347
1065,9	-20,787
1066,3	-23,347
1066,7	-20,827
1067,1	-19,387
1067,6	-23,227
1068	-18,707
1068,4	-14,827
1068,8	-18,707
1069,2	-25,667
1069,6	-27,107
1070	-24,707
1070,4	-26,587
1070,9	-19,707
1071,3	-22,747
1071,7	-23,267
1072,1	-31,147
1072,5	-31,347
1072,9	-36,427
1073,3	-29,627
1073,7	-23,987
1074,2	-22,307
1074,6	-23,227
1075	-29,267
1075,4	-27,147
1075,8	-30,667
1076,2	-21,747
1076,6	-18,067
1077	-17,147
1077,5	-22,867
1077,9	-22,147
1078,3	-28,107
1078,7	-34,547
1079,1	-26,267
1079,5	-18,147
1079,9	-19,587
1080,3	-11,587
1080,7	-3,947
1081,2	-7,307
1081,6	-7,947
1082	-0,787
1082,4	-8,587
1082,8	-11,067
1083,2	-11,747
1083,6	-17,787
1084	-22,547
1084,5	-25,867
1084,9	-25,787
1085,3	-19,507
1085,7	-17,387
1086,1	-21,747
1086,5	-16,547
1086,9	-19,947
1087,3	-24,947
1087,7	-25,227
1088,2	-22,867
1088,6	-23,147
1089	-23,907
1089,4	-20,787
1089,8	-16,227
1090,2	-13,987
1090,6	-16,187
1091	-16,787
1091,4	-24,147
1091,9	-32,907
1092,3	-36,027
1092,7	-36,307
1093,1	-32,707
1093,5	-27,147
1093,9	-18,507
1094,3	-15,027
1094,7	-12,987
1095,1	-13,347
1095,5	-11,507
1096	-18,027
1096,4	-17,267
1096,8	-15,667
1097,2	-13,707
1097,6	-19,867
1098	-18,067
1098,4	-23,147
1098,8	-23,547
1099,2	-23,587
1099,6	-20,507
1100,1	-18,547
1100,5	-13,987
1100,9	-10,987
1101,3	-12,187
1101,7	-12,627
1102,1	-6,587
1102,5	-6,827
1102,9	-6,427
1103,3	-7,987
1103,7	-7,667
1104,2	-14,187
1104,6	-16,147
1105	-17,987
1105,4	-16,227
1105,8	-15,667
1106,2	-11,427
1106,6	-7,027
1107	-6,427
1107,4	-3,427
1107,8	0,333
1108,3	-0,2
