Data from Subt2_00011.txt Node
Date: Fri Aug 11 15:23:10 MSK 2023
User: vat
Spectrometer: MAYP114033
Trigger mode: 0
Integration Time (sec): 5,000000E-1
Scans to average: 5
Electric dark correction enabled: true
Nonlinearity correction enabled: false
Boxcar width: 2
XAxis mode: Wavelengths
Number of Pixels in Spectrum: 2068
>>>>>Begin Spectral Data<<<<<
199,4	-0,067
199,9	0,783
200,4	-3,307
200,8	-6,267
201,3	-6,627
201,8	-6,627
202,2	-8,147
202,7	-6,347
203,2	-4,307
203,6	-6,027
204,1	-5,987
204,6	-7,747
205	-8,987
205,5	-16,387
206	-8,787
206,4	-12,347
206,9	-16,667
207,4	-16,907
207,8	-5,747
208,3	-8,787
208,8	-7,307
209,2	-0,347
209,7	-1,947
210,2	-9,907
210,6	-13,867
211,1	-13,467
211,5	-13,507
212	-7,267
212,5	-5,547
212,9	-8,387
213,4	-7,907
213,9	-13,107
214,3	-12,707
214,8	-17,107
215,3	-12,627
215,7	-13,827
216,2	-11,147
216,7	-18,547
217,1	-13,067
217,6	-17,227
218,1	-19,787
218,5	-21,787
219	-19,187
219,5	-22,867
219,9	-19,947
220,4	-11,787
220,9	-5,067
221,3	-2,707
221,8	-2,347
222,3	-4,587
222,7	-11,067
223,2	-13,427
223,6	-19,507
224,1	-16,587
224,6	-19,427
225	-16,267
225,5	-20,627
226	-19,547
226,4	-15,187
226,9	-10,387
227,4	-12,667
227,8	-10,547
228,3	-8,027
228,8	-13,507
229,2	-15,627
229,7	-19,347
230,2	-22,627
230,6	-20,107
231,1	-20,147
231,5	-20,387
232	-18,587
232,5	-13,227
232,9	-12,707
233,4	-13,867
233,9	-12,467
234,3	-15,187
234,8	-17,587
235,3	-21,227
235,7	-22,707
236,2	-22,587
236,7	-22,427
237,1	-23,507
237,6	-22,787
238,1	-19,907
238,5	-19,827
239	-19,347
239,4	-16,067
239,9	-12,067
240,4	-7,547
240,8	-6,747
241,3	-6,107
241,8	-13,187
242,2	-15,387
242,7	-16,387
243,2	-14,747
243,6	-11,827
244,1	-7,547
244,6	-6,707
245	-5,427
245,5	-9,187
245,9	-7,147
246,4	-10,027
246,9	-15,947
247,3	-25,587
247,8	-21,267
248,3	-19,987
248,7	-13,387
249,2	-6,267
249,7	1,173
250,1	-6,787
250,6	-6,467
251	-9,627
251,5	-13,347
252	-18,227
252,4	-12,907
252,9	-12,307
253,4	-16,187
253,8	-19,707
254,3	-20,307
254,8	-23,947
255,2	-23,547
255,7	-19,467
256,1	-10,107
256,6	-7,987
257,1	-7,507
257,5	-13,227
258	-15,147
258,5	-18,507
258,9	-18,427
259,4	-14,587
259,9	-14,067
260,3	-8,827
260,8	-12,307
261,2	-12,587
261,7	-14,227
262,2	-17,467
262,6	-18,987
263,1	-20,427
263,6	-21,027
264	-21,867
264,5	-20,067
264,9	-20,307
265,4	-21,307
265,9	-15,867
266,3	-13,027
266,8	-6,987
267,3	-15,787
267,7	-8,547
268,2	-16,067
268,7	-17,587
269,1	-19,307
269,6	-13,867
270	-14,347
270,5	-11,187
271	-10,867
271,4	-13,907
271,9	-12,707
272,4	-14,987
272,8	-16,947
273,3	-17,947
273,7	-18,587
274,2	-18,547
274,7	-15,227
275,1	-12,107
275,6	-8,187
276,1	-8,627
276,5	-9,187
277	-17,387
277,4	-21,947
277,9	-24,987
278,4	-23,147
278,8	-25,387
279,3	-24,867
279,8	-22,307
280,2	-20,627
280,7	-22,627
281,1	-16,667
281,6	-10,627
282,1	-11,347
282,5	-18,027
283	-20,987
283,4	-20,187
283,9	-21,187
284,4	-18,347
284,8	-11,307
285,3	-4,147
285,8	-9,867
286,2	-13,027
286,7	-12,867
287,1	-17,507
287,6	-24,387
288,1	-20,747
288,5	-19,467
289	-20,107
289,5	-18,387
289,9	-13,747
290,4	-15,547
290,8	-14,507
291,3	-15,107
291,8	-15,547
292,2	-20,387
292,7	-17,747
293,1	-15,347
293,6	-17,787
294,1	-11,547
294,5	-9,187
295	-8,147
295,5	-11,147
295,9	-8,267
296,4	-16,707
296,8	-16,347
297,3	-14,027
297,8	-17,987
298,2	-11,947
298,7	-9,467
299,1	-6,707
299,6	-10,867
300,1	-6,627
300,5	-6,627
301	-2,707
301,5	-2,707
301,9	-5,307
302,4	-6,187
302,8	-9,627
303,3	-9,587
303,8	-11,747
304,2	-9,427
304,7	-17,067
305,1	-23,307
305,6	-26,187
306,1	-26,987
306,5	-30,067
307	-15,227
307,4	-11,907
307,9	-12,947
308,4	-8,987
308,8	-11,307
309,3	-16,267
309,8	-16,307
310,2	-14,107
310,7	-17,547
311,1	-10,627
311,6	-11,187
312,1	-10,347
312,5	-11,747
313	-8,267
313,4	-11,147
313,9	-6,347
314,4	-4,267
314,8	-7,787
315,3	-8,187
315,7	-7,067
316,2	-9,747
316,7	-15,027
317,1	-18,347
317,6	-20,507
318	-18,267
318,5	-23,547
319	-19,227
319,4	-15,467
319,9	-10,987
320,3	-11,907
320,8	-14,427
321,3	-20,267
321,7	-14,587
322,2	-12,867
322,6	-9,227
323,1	-2,747
323,6	3,493
324	0,733
324,5	-3,587
324,9	-10,147
325,4	-6,147
325,9	-7,827
326,3	-4,267
326,8	0,613
327,2	-0,547
327,7	-0,627
328,2	-1,787
328,6	-3,867
329,1	-13,107
329,5	-7,067
330	-11,507
330,5	-8,787
330,9	-11,187
331,4	-7,107
331,8	-8,627
332,3	-8,307
332,8	-12,467
333,2	-12,747
333,7	-19,027
334,1	-18,027
334,6	-13,107
335,1	-6,307
335,5	-1,867
336	1,973
336,4	1,253
336,9	-3,787
337,4	-5,187
337,8	-4,787
338,3	-1,867
338,7	1,333
339,2	-0,827
339,7	-0,827
340,1	-1,947
340,6	3,653
341	1,093
341,5	1,573
342	-0,067
342,4	5,693
342,9	0,333
343,3	0,613
343,8	2,093
344,2	-1,347
344,7	-7,027
345,2	-2,867
345,6	-3,427
346,1	-3,267
346,5	1,973
347	5,293
347,5	1,613
347,9	6,533
348,4	12,053
348,8	14,773
349,3	15,773
349,8	21,533
350,2	24,973
350,7	30,053
351,1	41,333
351,6	46,453
352	61,533
352,5	78,373
353	105,613
353,4	128,453
353,9	163,653
354,3	195,213
354,8	242,533
355,3	295,533
355,7	359,773
356,2	429,053
356,6	512,333
357,1	601,853
357,5	711,373
358	833,053
358,5	974,933
358,9	1144,653
359,4	1337,053
359,8	1529,293
360,3	1758,253
360,8	2020,813
361,2	2300,013
361,7	2606,493
362,1	2963,813
362,6	3344,173
363	3757,253
363,5	4183,453
364	4632,573
364,4	5084,573
364,9	5545,653
365,3	5982,333
365,8	6421,213
366,3	6828,133
366,7	7191,893
367,2	7497,173
367,6	7758,453
368,1	7950,173
368,5	8071,613
369	8120,333
369,5	8110,053
369,9	8035,213
370,4	7898,933
370,8	7692,093
371,3	7452,173
371,7	7171,293
372,2	6843,533
372,7	6491,973
373,1	6137,133
373,6	5767,533
374	5389,013
374,5	5026,773
374,9	4667,293
375,4	4321,853
375,9	3987,493
376,3	3669,853
376,8	3362,453
377,2	3080,493
377,7	2814,893
378,2	2570,893
378,6	2349,573
379,1	2149,573
379,5	1958,933
380	1796,253
380,4	1641,973
380,9	1499,053
381,4	1370,613
381,8	1254,733
382,3	1144,213
382,7	1053,373
383,2	977,933
383,6	901,933
384,1	841,533
384,6	780,453
385	728,293
385,5	668,893
385,9	628,573
386,4	587,813
386,8	553,133
387,3	508,333
387,7	472,853
388,2	435,133
388,7	396,253
389,1	353,813
389,6	327,133
390	297,333
390,5	271,493
390,9	249,973
391,4	234,213
391,9	208,973
392,3	193,973
392,8	171,533
393,2	160,893
393,7	143,053
394,1	138,493
394,6	128,853
395,1	125,813
395,5	109,293
396	105,813
396,4	93,253
396,9	81,933
397,3	71,133
397,8	70,453
398,2	61,133
398,7	57,693
399,2	51,893
399,6	45,813
400,1	40,173
400,5	42,133
401	38,893
401,4	41,573
401,9	45,813
402,4	38,253
402,8	28,173
403,3	28,853
403,7	24,093
404,2	16,453
404,6	10,093
405,1	17,133
405,5	11,373
406	10,893
406,5	11,293
406,9	20,293
407,4	18,613
407,8	17,413
408,3	17,733
408,7	19,893
409,2	23,693
409,6	22,893
410,1	22,213
410,6	18,693
411	20,613
411,5	10,613
411,9	11,013
412,4	16,533
412,8	17,453
413,3	6,813
413,7	15,813
414,2	17,093
414,7	13,493
415,1	18,293
415,6	27,933
416	30,333
416,5	29,133
416,9	35,053
417,4	35,853
417,8	38,813
418,3	35,533
418,8	40,053
419,2	36,333
419,7	41,493
420,1	41,493
420,6	36,093
421	34,013
421,5	37,773
421,9	33,333
422,4	34,093
422,8	42,893
423,3	46,253
423,8	45,333
424,2	52,853
424,7	53,973
425,1	52,373
425,6	54,653
426	54,173
426,5	51,613
426,9	48,253
427,4	54,133
427,9	50,973
428,3	53,413
428,8	52,933
429,2	55,213
429,7	56,573
430,1	58,893
430,6	59,653
431	66,093
431,5	75,573
431,9	71,733
432,4	78,453
432,8	83,893
433,3	85,893
433,8	82,013
434,2	85,213
434,7	86,733
435,1	89,973
435,6	89,253
436	92,013
436,5	101,853
436,9	105,173
437,4	113,693
437,8	120,853
438,3	129,333
438,8	132,653
439,2	134,333
439,7	136,053
440,1	137,253
440,6	138,253
441	135,973
441,5	139,333
441,9	145,253
442,4	152,613
442,8	159,613
443,3	170,213
443,7	179,053
444,2	184,213
444,7	192,053
445,1	203,453
445,6	216,733
446	230,773
446,5	243,493
446,9	253,013
447,4	258,813
447,8	261,813
448,3	263,293
448,7	269,653
449,2	276,973
449,6	285,693
450,1	299,533
450,6	309,813
451	321,613
451,5	328,573
451,9	342,173
452,4	352,013
452,8	366,973
453,3	374,253
453,7	383,933
454,2	390,213
454,6	397,733
455,1	406,893
455,5	424,533
456	437,093
456,4	459,293
456,9	470,333
457,3	482,173
457,8	487,973
458,3	510,133
458,7	519,013
459,2	541,813
459,6	555,893
460,1	574,893
460,5	581,173
461	591,093
461,4	602,973
461,9	614,133
462,3	627,893
462,8	651,853
463,2	668,333
463,7	677,213
464,1	697,573
464,6	711,773
465	723,133
465,5	741,733
466	761,573
466,4	775,293
466,9	791,893
467,3	805,013
467,8	814,493
468,2	826,293
468,7	844,333
469,1	855,613
469,6	869,293
470	879,613
470,5	889,333
470,9	897,733
471,4	911,013
471,8	920,933
472,3	942,413
472,7	953,693
473,2	964,453
473,6	969,613
474,1	986,253
474,5	991,173
475	1008,693
475,4	1018,573
475,9	1035,213
476,4	1048,733
476,8	1061,213
477,3	1070,933
477,7	1082,613
478,2	1089,013
478,6	1091,973
479,1	1098,053
479,5	1103,453
480	1111,573
480,4	1120,893
480,9	1126,493
481,3	1146,373
481,8	1153,573
482,2	1161,453
482,7	1166,493
483,1	1172,213
483,6	1166,773
484	1177,573
484,5	1178,413
484,9	1187,813
485,4	1188,813
485,8	1190,493
486,3	1188,213
486,7	1188,973
487,2	1185,453
487,6	1198,213
488,1	1206,773
488,5	1212,293
489	1223,373
489,4	1228,493
489,9	1216,733
490,4	1209,773
490,8	1211,533
491,3	1205,813
491,7	1205,133
492,2	1207,853
492,6	1212,413
493,1	1207,533
493,5	1210,773
494	1215,573
494,4	1220,613
494,9	1217,213
495,3	1210,733
495,8	1208,733
496,2	1198,173
496,7	1185,973
497,1	1178,453
497,6	1176,413
498	1162,173
498,5	1156,773
498,9	1152,173
499,4	1149,893
499,8	1149,133
500,3	1150,893
500,7	1147,853
501,2	1152,653
501,6	1145,453
502,1	1137,973
502,5	1127,893
503	1122,093
503,4	1112,573
503,9	1111,693
504,3	1102,333
504,8	1097,373
505,2	1089,773
505,7	1085,893
506,1	1076,973
506,6	1075,693
507	1072,053
507,5	1072,413
507,9	1062,213
508,4	1055,493
508,8	1052,133
509,3	1050,133
509,7	1037,413
510,2	1032,733
510,6	1027,293
511,1	1014,453
511,5	1007,773
512	1002,813
512,4	997,453
512,9	991,613
513,3	985,293
513,8	977,293
514,2	971,773
514,7	964,533
515,1	955,493
515,6	948,653
516	940,093
516,5	928,053
516,9	911,933
517,4	904,373
517,8	891,733
518,3	882,373
518,7	884,613
519,2	882,973
519,6	877,973
520,1	875,573
520,5	870,013
521	860,013
521,4	852,053
521,9	840,533
522,3	835,773
522,8	827,773
523,2	822,693
523,7	822,173
524,1	817,213
524,6	810,973
525	805,533
525,5	789,773
525,9	785,693
526,4	778,253
526,8	764,693
527,3	752,653
527,7	747,973
528,2	732,613
528,6	726,813
529,1	724,173
529,5	722,093
530	716,413
530,4	715,333
530,9	710,493
531,3	703,253
531,8	702,053
532,2	696,133
532,6	689,053
533,1	678,333
533,5	670,333
534	659,613
534,4	651,893
534,9	645,693
535,3	649,733
535,8	648,373
536,2	641,733
536,7	635,893
537,1	629,333
537,6	620,893
538	605,893
538,5	597,173
538,9	590,333
539,4	590,573
539,8	583,133
540,3	581,453
540,7	579,493
541,2	574,213
541,6	560,573
542,1	557,653
542,5	559,813
543	555,933
543,4	551,253
543,9	544,493
544,3	534,973
544,8	530,333
545,2	527,213
545,7	527,093
546,1	525,853
546,5	524,933
547	515,173
547,4	508,333
547,9	500,333
548,3	493,613
548,8	485,773
549,2	484,933
549,7	477,213
550,1	476,693
550,6	478,693
551	473,013
551,5	467,693
551,9	466,653
552,4	459,493
552,8	452,733
553,3	455,013
553,7	450,733
554,2	447,333
554,6	451,853
555,1	449,653
555,5	443,093
555,9	439,493
556,4	443,653
556,8	435,013
557,3	427,533
557,7	418,573
558,2	426,373
558,6	412,133
559,1	404,173
559,5	401,613
560	404,453
560,4	388,733
560,9	388,053
561,3	387,933
561,8	382,853
562,2	375,173
562,7	374,653
563,1	370,893
563,6	369,213
564	370,893
564,4	378,133
564,9	376,253
565,3	373,893
565,8	371,013
566,2	366,093
566,7	353,893
567,1	353,053
567,6	351,253
568	349,413
568,5	347,253
568,9	342,253
569,4	338,733
569,8	338,893
570,3	339,533
570,7	335,853
571,1	339,173
571,6	337,133
572	332,413
572,5	325,093
572,9	324,453
573,4	322,493
573,8	318,213
574,3	317,373
574,7	313,093
575,2	310,053
575,6	308,693
576,1	304,093
576,5	298,013
576,9	298,773
577,4	300,173
577,8	292,653
578,3	288,813
578,7	287,213
579,2	287,373
579,6	283,733
580,1	282,853
580,5	287,413
581	286,733
581,4	284,893
581,9	289,173
582,3	288,213
582,7	286,613
583,2	281,893
583,6	279,813
584,1	267,533
584,5	266,173
585	259,533
585,4	257,173
585,9	255,133
586,3	253,973
586,8	255,093
587,2	251,773
587,6	254,413
588,1	247,253
588,5	249,853
589	248,973
589,4	250,093
589,9	255,693
590,3	256,773
590,8	253,453
591,2	246,013
591,7	246,773
592,1	241,613
592,5	245,653
593	238,093
593,4	234,653
593,9	232,653
594,3	224,293
594,8	216,053
595,2	222,253
595,7	232,253
596,1	235,453
596,6	235,933
597	236,653
597,4	230,573
597,9	224,013
598,3	219,413
598,8	220,733
599,2	220,973
599,7	225,693
600,1	222,693
600,6	217,613
601	211,293
601,4	212,213
601,9	206,733
602,3	209,813
602,8	210,133
603,2	210,173
603,7	209,413
604,1	205,613
604,6	199,773
605	201,093
605,4	196,413
605,9	194,973
606,3	195,093
606,8	199,933
607,2	198,013
607,7	205,173
608,1	199,093
608,6	203,773
609	199,173
609,4	194,293
609,9	187,693
610,3	185,533
610,8	179,773
611,2	177,813
611,7	179,733
612,1	184,413
612,6	185,973
613	183,013
613,4	181,333
613,9	180,053
614,3	178,013
614,8	171,733
615,2	179,173
615,7	183,133
616,1	179,533
616,6	174,933
617	175,733
617,4	166,173
617,9	161,573
618,3	159,733
618,8	160,493
619,2	160,773
619,7	162,253
620,1	155,213
620,5	158,253
621	156,173
621,4	160,093
621,9	158,973
622,3	159,133
622,8	156,973
623,2	150,693
623,6	145,413
624,1	149,493
624,5	148,493
625	147,533
625,4	151,053
625,9	149,333
626,3	144,173
626,8	149,853
627,2	148,573
627,6	149,253
628,1	145,973
628,5	149,293
629	142,733
629,4	136,173
629,9	138,093
630,3	136,613
630,7	133,213
631,2	133,373
631,6	139,373
632,1	135,733
632,5	138,253
633	133,893
633,4	136,093
633,8	129,573
634,3	128,693
634,7	128,733
635,2	125,773
635,6	121,813
636,1	125,453
636,5	127,013
636,9	122,813
637,4	129,973
637,8	132,213
638,3	127,053
638,7	123,973
639,2	128,253
639,6	123,333
640	124,253
640,5	131,693
640,9	129,773
641,4	125,133
641,8	124,293
642,2	123,813
642,7	121,253
643,1	115,293
643,6	116,213
644	114,733
644,5	106,973
644,9	103,013
645,3	109,093
645,8	111,853
646,2	111,573
646,7	109,893
647,1	106,533
647,6	102,613
648	96,293
648,4	100,693
648,9	102,813
649,3	102,373
649,8	107,173
650,2	116,293
650,6	109,973
651,1	109,173
651,5	113,813
652	113,773
652,4	105,053
652,9	97,053
653,3	100,013
653,7	100,893
654,2	94,373
654,6	100,133
655,1	101,453
655,5	97,853
655,9	95,853
656,4	94,493
656,8	86,293
657,3	88,173
657,7	90,173
658,2	85,493
658,6	87,253
659	86,133
659,5	89,693
659,9	86,093
660,4	86,053
660,8	88,373
661,2	90,893
661,7	88,173
662,1	92,853
662,6	88,293
663	82,533
663,4	81,693
663,9	80,493
664,3	76,733
664,8	85,133
665,2	85,213
665,6	84,613
666,1	89,493
666,5	91,813
667	87,733
667,4	91,373
667,9	97,213
668,3	95,253
668,7	93,653
669,2	93,053
669,6	93,093
670,1	82,293
670,5	76,053
670,9	71,813
671,4	75,813
671,8	73,213
672,3	79,493
672,7	85,013
673,1	91,853
673,6	88,373
674	84,653
674,5	84,493
674,9	82,013
675,3	75,333
675,8	71,533
676,2	73,093
676,7	69,733
677,1	71,253
677,5	68,413
678	68,213
678,4	73,813
678,9	66,533
679,3	62,333
679,7	66,653
680,2	68,733
680,6	62,013
681,1	70,213
681,5	73,813
681,9	67,013
682,4	64,853
682,8	63,213
683,3	61,893
683,7	62,253
684,1	71,653
684,6	71,253
685	69,293
685,5	66,853
685,9	67,573
686,3	65,893
686,8	67,333
687,2	72,133
687,7	74,333
688,1	73,573
688,5	73,853
689	72,613
689,4	77,653
689,9	76,293
690,3	77,053
690,7	72,333
691,2	77,813
691,6	68,733
692	70,933
692,5	69,933
692,9	71,573
693,4	67,413
693,8	70,893
694,2	71,333
694,7	74,413
695,1	72,853
695,6	73,653
696	70,493
696,4	66,933
696,9	59,773
697,3	63,653
697,8	60,053
698,2	61,133
698,6	58,853
699,1	58,093
699,5	55,333
699,9	61,573
700,4	57,493
700,8	59,773
701,3	58,973
701,7	64,293
702,1	60,853
702,6	66,693
703	68,413
703,5	69,533
703,9	58,773
704,3	56,293
704,8	54,093
705,2	51,893
705,6	49,933
706,1	53,413
706,5	57,053
707	54,773
707,4	58,213
707,8	63,773
708,3	69,973
708,7	67,573
709,2	66,893
709,6	59,333
710	55,173
710,5	46,853
710,9	43,613
711,3	44,253
711,8	50,413
712,2	49,973
712,7	50,413
713,1	50,653
713,5	55,693
714	53,093
714,4	53,013
714,8	52,253
715,3	52,613
715,7	50,053
716,2	42,533
716,6	43,013
717	39,893
717,5	42,053
717,9	44,333
718,3	49,333
718,8	54,573
719,2	53,333
719,7	52,173
720,1	46,573
720,5	49,813
721	42,933
721,4	49,293
721,8	52,133
722,3	52,733
722,7	45,333
723,2	45,333
723,6	40,933
724	34,893
724,5	39,933
724,9	48,253
725,3	45,453
725,8	41,653
726,2	44,133
726,7	39,053
727,1	32,013
727,5	32,853
728	35,373
728,4	32,093
728,8	31,173
729,3	35,173
729,7	39,253
730,1	42,933
730,6	46,213
731	46,373
731,5	49,093
731,9	41,933
732,3	43,293
732,8	40,413
733,2	42,613
733,6	38,493
734,1	41,933
734,5	39,853
734,9	43,573
735,4	45,733
735,8	45,333
736,3	47,013
736,7	49,693
737,1	51,013
737,6	48,933
738	45,413
738,4	41,013
738,9	36,693
739,3	31,413
739,7	26,893
740,2	29,373
740,6	29,773
741,1	31,413
741,5	32,613
741,9	35,973
742,4	36,813
742,8	39,773
743,2	38,653
743,7	40,773
744,1	39,533
744,5	39,653
745	39,133
745,4	44,213
745,8	42,333
746,3	44,093
746,7	42,973
747,2	43,533
747,6	36,893
748	33,813
748,5	29,813
748,9	34,893
749,3	33,413
749,8	37,053
750,2	35,853
750,6	33,493
751,1	26,453
751,5	30,373
751,9	28,293
752,4	34,613
752,8	38,133
753,3	39,053
753,7	36,933
754,1	35,213
754,6	33,853
755	35,173
755,4	36,173
755,9	29,373
756,3	33,133
756,7	33,373
757,2	27,293
757,6	20,693
758	25,413
758,5	23,413
758,9	22,133
759,3	31,613
759,8	34,653
760,2	33,253
760,6	31,093
761,1	30,413
761,5	26,173
761,9	24,213
762,4	27,573
762,8	25,613
763,3	23,093
763,7	16,653
764,1	17,493
764,6	18,333
765	20,693
765,4	23,533
765,9	30,693
766,3	32,573
766,7	27,813
767,2	23,293
767,6	22,213
768	16,733
768,5	19,133
768,9	20,973
769,3	24,853
769,8	23,733
770,2	23,653
770,6	22,333
771,1	21,573
771,5	16,493
771,9	13,493
772,4	16,413
772,8	17,533
773,2	17,133
773,7	23,933
774,1	23,453
774,5	21,293
775	19,293
775,4	15,653
775,8	15,213
776,3	19,693
776,7	23,013
777,1	23,533
777,6	27,573
778	22,213
778,4	23,133
778,9	25,093
779,3	18,733
779,7	17,133
780,2	18,973
780,6	14,333
781	9,653
781,5	14,413
781,9	15,653
782,3	13,853
782,8	15,213
783,2	23,573
783,6	25,333
784,1	22,213
784,5	27,733
784,9	24,893
785,4	16,573
785,8	14,693
786,2	14,093
786,7	13,853
787,1	19,133
787,5	11,653
788	9,573
788,4	6,933
788,8	3,853
789,3	-0,627
789,7	8,093
790,1	8,813
790,6	19,493
791	17,213
791,4	23,893
791,9	22,093
792,3	21,693
792,7	18,573
793,2	25,133
793,6	16,893
794	21,013
794,5	22,253
794,9	13,333
795,3	6,773
795,8	12,293
796,2	9,893
796,6	13,253
797,1	17,693
797,5	19,413
797,9	15,813
798,4	17,693
798,8	19,133
799,2	23,133
799,7	22,773
800,1	18,693
800,5	18,133
801	10,973
801,4	9,413
801,8	16,373
802,2	19,333
802,7	16,893
803,1	19,413
803,5	15,493
804	8,733
804,4	9,133
804,8	6,813
805,3	7,293
805,7	3,253
806,1	4,173
806,6	5,493
807	7,013
807,4	1,173
807,9	10,733
808,3	8,733
808,7	7,413
809,2	8,933
809,6	15,093
810	8,253
810,4	12,533
810,9	12,613
811,3	10,293
811,7	5,253
812,2	3,693
812,6	2,173
813	2,413
813,5	8,333
813,9	16,093
814,3	19,733
814,8	16,053
815,2	13,173
815,6	4,853
816,1	1,093
816,5	3,293
816,9	6,453
817,3	5,293
817,8	6,653
818,2	7,133
818,6	1,093
819,1	-3,067
819,5	-2,147
819,9	2,013
820,4	1,213
820,8	2,293
821,2	6,853
821,7	7,613
822,1	6,893
822,5	3,213
822,9	9,213
823,4	6,173
823,8	3,653
824,2	1,493
824,7	3,613
825,1	1,213
825,5	-0,947
826	4,853
826,4	4,613
826,8	1,693
827,3	-0,427
827,7	3,053
828,1	-1,187
828,5	-2,307
829	-2,467
829,4	-1,787
829,8	-5,707
830,3	-0,387
830,7	-1,707
831,1	1,333
831,6	-0,907
832	-0,627
832,4	0,333
832,8	-0,947
833,3	-3,707
833,7	-1,027
834,1	-7,107
834,6	-12,067
835	-11,107
835,4	-10,787
835,8	-9,147
836,3	0,293
836,7	-2,667
837,1	-4,667
837,6	-6,027
838	-8,187
838,4	-14,867
838,9	-12,987
839,3	-10,467
839,7	-3,427
840,1	-9,907
840,6	-3,227
841	0,173
841,4	-2,507
841,9	-2,947
842,3	2,533
842,7	-3,067
843,1	-7,307
843,6	-2,507
844	-12,027
844,4	-11,827
844,9	-13,987
845,3	-8,907
845,7	-12,627
846,2	-4,347
846,6	-0,947
847	2,853
847,4	-3,067
847,9	-1,907
848,3	-3,227
848,7	-9,187
849,2	-9,547
849,6	-5,667
850	-4,067
850,4	-4,747
850,9	-0,907
851,3	7,733
851,7	-0,147
852,2	-2,267
852,6	-1,467
853	-3,707
853,4	-11,747
853,9	-4,467
854,3	-8,227
854,7	-13,027
855,2	-12,867
855,6	-9,387
856	-10,467
856,4	-5,387
856,9	1,013
857,3	3,573
857,7	-0,307
858,2	3,253
858,6	-1,027
859	-5,267
859,4	-14,227
859,9	-13,267
860,3	-17,347
860,7	-10,347
861,1	-13,187
861,6	-3,707
862	-1,947
862,4	-0,707
862,9	-5,027
863,3	-0,067
863,7	-2,187
864,1	-3,067
864,6	0,173
865	0,453
865,4	1,653
865,9	3,293
866,3	-1,347
866,7	-6,667
867,1	-9,827
867,6	-12,267
868	-16,747
868,4	-16,347
868,8	-16,067
869,3	-20,187
869,7	-20,987
870,1	-23,587
870,6	-19,867
871	-19,147
871,4	-48,587
871,8	-49,387
872,3	-46,307
872,7	-49,867
873,1	-46,267
873,5	-11,907
874	-8,987
874,4	-8,507
874,8	-8,787
875,3	-12,147
875,7	-8,187
876,1	-9,227
876,5	-5,987
877	-4,747
877,4	-5,267
877,8	-6,867
878,2	-7,187
878,7	-9,067
879,1	-8,987
879,5	-12,707
879,9	-10,587
880,4	-14,867
880,8	-18,507
881,2	-16,027
881,7	-9,827
882,1	-9,307
882,5	-9,987
882,9	-3,867
883,4	0,733
883,8	-2,787
884,2	-11,907
884,6	-8,547
885,1	-11,827
885,5	-20,187
885,9	-16,427
886,3	-15,587
886,8	-21,347
887,2	-22,947
887,6	-20,507
888	-25,827
888,5	-14,027
888,9	-7,387
889,3	-9,627
889,8	-9,827
890,2	-8,467
890,6	-13,267
891	-15,667
891,5	-11,547
891,9	-12,187
892,3	-8,427
892,7	-6,867
893,2	-4,187
893,6	-4,947
894	-7,747
894,4	-14,027
894,9	-16,667
895,3	-20,867
895,7	-20,187
896,1	-14,467
896,6	-13,187
897	-8,587
897,4	-5,467
897,8	-4,387
898,3	-8,987
898,7	-5,787
899,1	-11,107
899,5	-9,267
900	-16,307
900,4	-14,907
900,8	-14,627
901,2	-15,987
901,7	-15,987
902,1	-12,147
902,5	-8,067
902,9	-6,747
903,4	-2,667
903,8	-8,267
904,2	-8,107
904,6	-6,227
905,1	-3,427
905,5	-3,387
905,9	1,893
906,3	8,053
906,8	5,413
907,2	1,573
907,6	-0,507
908	-5,907
908,5	-7,587
908,9	-11,467
909,3	-10,947
909,7	-10,547
910,2	-2,067
910,6	-3,347
911	4,253
911,4	4,573
911,9	-0,467
912,3	-2,827
912,7	-5,547
913,1	-11,827
913,6	-12,427
914	-7,347
914,4	-8,387
914,8	-5,747
915,3	-5,147
915,7	-5,667
916,1	-7,147
916,5	-4,267
916,9	-8,107
917,4	-9,467
917,8	-13,147
918,2	-12,307
918,6	-14,427
919,1	-12,947
919,5	-10,987
919,9	-7,187
920,3	-9,267
920,8	-17,267
921,2	-15,827
921,6	-21,307
922	-22,267
922,5	-20,947
922,9	-23,667
923,3	-21,587
923,7	-19,067
924,2	-19,667
924,6	-19,267
925	-5,267
925,4	-12,547
925,8	-8,787
926,3	-10,307
926,7	-3,707
927,1	-9,027
927,5	-0,707
928	-1,587
928,4	4,373
928,8	-1,947
929,2	2,693
929,7	2,253
930,1	3,013
930,5	-4,147
930,9	-2,107
931,3	-6,787
931,8	-10,147
932,2	-11,507
932,6	-9,707
933	-10,987
933,5	-6,227
933,9	-9,507
934,3	-10,347
934,7	-8,387
935,2	-11,547
935,6	-19,347
936	-19,867
936,4	-21,707
936,8	-23,587
937,3	-22,867
937,7	-21,547
938,1	-18,947
938,5	-15,707
939	-15,787
939,4	-14,947
939,8	-15,747
940,2	-17,387
940,6	-16,547
941,1	-16,307
941,5	-14,787
941,9	-12,147
942,3	-11,267
942,8	-16,467
943,2	-16,187
943,6	-20,627
944	-17,987
944,4	-19,347
944,9	-12,947
945,3	-16,547
945,7	-17,307
946,1	-16,747
946,6	-15,507
947	-21,067
947,4	-19,027
947,8	-16,187
948,2	-15,227
948,7	-10,787
949,1	-8,187
949,5	-7,667
949,9	-0,707
950,3	-9,547
950,8	-8,467
951,2	-10,307
951,6	-7,827
952	-14,587
952,5	-10,787
952,9	-15,667
953,3	-16,987
953,7	-18,827
954,1	-14,107
954,6	-13,507
955	-13,467
955,4	-10,067
955,8	-5,147
956,2	-9,387
956,7	-8,707
957,1	-6,987
957,5	-6,027
957,9	-14,747
958,3	-14,547
958,8	-14,227
959,2	-10,747
959,6	-11,747
960	-11,707
960,5	-15,907
960,9	-16,507
961,3	-23,547
961,7	-26,267
962,1	-26,107
962,6	-22,387
963	-31,827
963,4	-25,467
963,8	-23,987
964,2	-23,467
964,7	-21,107
965,1	-11,427
965,5	-14,467
965,9	-12,387
966,3	-8,947
966,8	-10,267
967,2	-10,947
967,6	-12,067
968	-10,507
968,4	-9,867
968,9	-12,827
969,3	-18,467
969,7	-21,387
970,1	-25,987
970,5	-21,707
971	-17,187
971,4	-13,187
971,8	-8,907
972,2	-5,187
972,6	-7,307
973,1	-10,147
973,5	-8,427
973,9	-14,187
974,3	-15,587
974,7	-16,507
975,2	-17,907
975,6	-15,667
976	-10,787
976,4	-16,027
976,8	-18,227
977,3	-15,547
977,7	-16,067
978,1	-16,587
978,5	-10,387
978,9	-13,507
979,4	-20,227
979,8	-23,267
980,2	-23,947
980,6	-22,227
981	-15,267
981,5	-14,347
981,9	-14,707
982,3	-14,707
982,7	-9,387
983,1	-8,627
983,6	-0,827
984	-1,027
984,4	-0,947
984,8	-8,587
985,2	-14,107
985,6	-18,787
986,1	-13,427
986,5	-10,107
986,9	-11,667
987,3	-15,827
987,7	-12,827
988,2	-13,347
988,6	-19,587
989	-16,947
989,4	-11,827
989,8	-14,307
990,3	-17,387
990,7	-14,747
991,1	-20,267
991,5	-18,827
991,9	-17,507
992,3	-16,587
992,8	-13,147
993,2	-5,747
993,6	-9,427
994	-7,187
994,4	-9,187
994,9	-12,627
995,3	-17,507
995,7	-16,347
996,1	-14,387
996,5	-17,707
996,9	-10,427
997,4	-13,027
997,8	-13,307
998,2	-15,067
998,6	-15,707
999	-23,067
999,5	-19,667
999,9	-18,987
1000,3	-18,867
1000,7	-18,187
1001,1	-17,907
1001,5	-19,267
1002	-15,107
1002,4	-15,267
1002,8	-11,067
1003,2	-8,867
1003,6	-2,867
1004	-10,507
1004,5	-12,187
1004,9	-10,707
1005,3	-11,827
1005,7	-20,547
1006,1	-14,907
1006,6	-16,827
1007	-17,387
1007,4	-15,027
1007,8	-13,107
1008,2	-12,507
1008,6	-10,387
1009,1	-17,147
1009,5	-19,747
1009,9	-19,507
1010,3	-22,987
1010,7	-23,347
1011,1	-11,987
1011,6	-11,307
1012	-12,427
1012,4	-10,547
1012,8	-14,627
1013,2	-17,987
1013,6	-20,107
1014,1	-13,587
1014,5	-10,827
1014,9	-11,107
1015,3	-8,187
1015,7	-5,387
1016,1	-8,747
1016,6	-10,827
1017	-7,747
1017,4	-15,587
1017,8	-16,227
1018,2	-18,747
1018,6	-15,587
1019,1	-18,227
1019,5	-14,267
1019,9	-17,467
1020,3	-10,427
1020,7	-17,187
1021,1	-18,747
1021,6	-22,187
1022	-21,787
1022,4	-27,107
1022,8	-21,507
1023,2	-12,707
1023,6	-10,347
1024,1	-7,867
1024,5	-12,867
1024,9	-20,827
1025,3	-25,707
1025,7	-29,027
1026,1	-28,347
1026,6	-21,987
1027	-18,507
1027,4	-18,107
1027,8	-18,547
1028,2	-20,707
1028,6	-22,507
1029	-18,987
1029,5	-20,947
1029,9	-15,707
1030,3	-15,507
1030,7	-9,707
1031,1	-17,907
1031,5	-14,307
1032	-16,147
1032,4	-20,427
1032,8	-25,667
1033,2	-17,067
1033,6	-17,547
1034	-16,067
1034,4	-10,387
1034,9	-10,867
1035,3	-11,227
1035,7	-14,867
1036,1	-14,547
1036,5	-14,667
1036,9	-14,987
1037,4	-18,427
1037,8	-14,867
1038,2	-17,987
1038,6	-20,547
1039	-20,347
1039,4	-17,427
1039,8	-18,387
1040,3	-12,507
1040,7	-11,307
1041,1	-10,387
1041,5	-16,987
1041,9	-15,627
1042,3	-20,667
1042,7	-19,507
1043,2	-20,787
1043,6	-17,147
1044	-13,827
1044,4	-11,067
1044,8	-13,747
1045,2	-16,547
1045,6	-26,307
1046,1	-26,707
1046,5	-34,787
1046,9	-29,587
1047,3	-20,507
1047,7	-11,867
1048,1	-10,307
1048,5	-6,427
1049	-10,707
1049,4	-18,267
1049,8	-14,307
1050,2	-24,627
1050,6	-23,307
1051	-27,347
1051,4	-24,307
1051,9	-30,307
1052,3	-27,587
1052,7	-27,947
1053,1	-25,187
1053,5	-25,387
1053,9	-20,827
1054,3	-24,507
1054,8	-19,787
1055,2	-9,427
1055,6	-6,227
1056	-6,507
1056,4	2,373
1056,8	-1,107
1057,2	-6,387
1057,6	-15,587
1058,1	-15,187
1058,5	-14,187
1058,9	-16,987
1059,3	-22,227
1059,7	-11,467
1060,1	-14,067
1060,5	-17,827
1061	-11,347
1061,4	-9,427
1061,8	-8,467
1062,2	-5,227
1062,6	-3,227
1063	-4,987
1063,4	-6,547
1063,8	-14,987
1064,3	-13,587
1064,7	-11,547
1065,1	-13,187
1065,5	-12,067
1065,9	-3,307
1066,3	-10,907
1066,7	-16,027
1067,1	-17,427
1067,6	-15,707
1068	-21,787
1068,4	-18,267
1068,8	-16,947
1069,2	-20,987
1069,6	-20,347
1070	-18,547
1070,4	-14,707
1070,9	-13,827
1071,3	-4,067
1071,7	-4,027
1072,1	-0,787
1072,5	-5,147
1072,9	-5,747
1073,3	-8,107
1073,7	-10,947
1074,2	-25,147
1074,6	-25,027
1075	-25,067
1075,4	-27,507
1075,8	-23,827
1076,2	-18,227
1076,6	-14,427
1077	-15,347
1077,5	-16,067
1077,9	-16,187
1078,3	-7,907
1078,7	-7,427
1079,1	-6,467
1079,5	-7,707
1079,9	-10,027
1080,3	-12,467
1080,7	-16,467
1081,2	-12,947
1081,6	-9,947
1082	-9,147
1082,4	-9,627
1082,8	-5,907
1083,2	-4,107
1083,6	-5,507
1084	-3,587
1084,5	-0,707
1084,9	-5,667
1085,3	-7,027
1085,7	-8,147
1086,1	-7,867
1086,5	-13,467
1086,9	-3,867
1087,3	-8,147
1087,7	-5,187
1088,2	-6,747
1088,6	-4,227
1089	-15,627
1089,4	-19,187
1089,8	-17,667
1090,2	-16,387
1090,6	-14,627
1091	-11,267
1091,4	-9,107
1091,9	-17,067
1092,3	-21,667
1092,7	-28,867
1093,1	-28,787
1093,5	-24,507
1093,9	-21,667
1094,3	-17,067
1094,7	-15,627
1095,1	-19,507
1095,5	-20,667
1096	-15,787
1096,4	-16,387
1096,8	-10,627
1097,2	-5,267
1097,6	-2,267
1098	-8,827
1098,4	-5,747
1098,8	-15,827
1099,2	-15,587
1099,6	-14,987
1100,1	-8,627
1100,5	-9,947
1100,9	-2,747
1101,3	1,573
1101,7	-6,027
1102,1	-7,987
1102,5	-11,147
1102,9	-7,107
1103,3	-15,187
1103,7	-9,747
1104,2	-11,347
1104,6	-10,147
1105	-15,427
1105,4	-9,387
1105,8	-10,747
1106,2	-7,867
1106,6	-5,307
1107	-1,347
1107,4	-1,307
1107,8	-0,967
1108,3	0,8
