Data from Subt2_00086.txt Node
Date: Fri Aug 11 16:46:47 MSK 2023
User: vat
Spectrometer: MAYP114033
Trigger mode: 0
Integration Time (sec): 5,000000E-1
Scans to average: 5
Electric dark correction enabled: true
Nonlinearity correction enabled: false
Boxcar width: 2
XAxis mode: Wavelengths
Number of Pixels in Spectrum: 2068
>>>>>Begin Spectral Data<<<<<
199,4	1,033
199,9	0,85
200,4	-0,94
200,8	-2,62
201,3	-3,62
201,8	-4,74
202,2	-7,02
202,7	-4,38
203,2	-5,62
203,6	-5,34
204,1	-5,7
204,6	-7,46
205	-9,5
205,5	-10,5
206	-15,66
206,4	-18,58
206,9	-13,94
207,4	-15,74
207,8	-15,06
208,3	-11,02
208,8	-7,66
209,2	-9,02
209,7	-10,38
210,2	-8,5
210,6	-10,86
211,1	-11,42
211,5	-13,02
212	-10,02
212,5	-12,66
212,9	-11,78
213,4	-12,26
213,9	-15,78
214,3	-15,46
214,8	-19,74
215,3	-16,26
215,7	-23,26
216,2	-17,22
216,7	-20,66
217,1	-17,46
217,6	-21,46
218,1	-13,66
218,5	-16,62
219	-12,42
219,5	-8,54
219,9	-13,34
220,4	-10,7
220,9	-8,74
221,3	-9,74
221,8	-16,34
222,3	-10,14
222,7	-15,5
223,2	-17,42
223,6	-15,66
224,1	-8,94
224,6	-8,5
225	-12,34
225,5	-13,26
226	-14,1
226,4	-18,94
226,9	-21,14
227,4	-15,02
227,8	-20,46
228,3	-24,58
228,8	-19,66
229,2	-19,34
229,7	-16,82
230,2	-7,98
230,6	-9,66
231,1	-8,98
231,5	-4,62
232	-6,26
232,5	-6,38
232,9	-6,98
233,4	-13,06
233,9	-15,06
234,3	-13,18
234,8	-16,54
235,3	-10,26
235,7	-10,18
236,2	-11,38
236,7	-17,1
237,1	-12,98
237,6	-15,98
238,1	-8,38
238,5	-10,82
239	-9,78
239,4	-13,14
239,9	-9,58
240,4	-11,26
240,8	-5,86
241,3	-3,14
241,8	-7,58
242,2	-14,02
242,7	-15,62
243,2	-22,62
243,6	-26,3
244,1	-26,9
244,6	-23,78
245	-26,86
245,5	-22,18
245,9	-20,58
246,4	-14,74
246,9	-13,26
247,3	-12,74
247,8	-16,02
248,3	-17,18
248,7	-19,18
249,2	-22,34
249,7	-20,66
250,1	-19,94
250,6	-26,3
251	-27,26
251,5	-22,7
252	-19,58
252,4	-16,14
252,9	-9,98
253,4	-10,5
253,8	-11,58
254,3	-9,74
254,8	-10,06
255,2	-6,5
255,7	-2,62
256,1	-7,26
256,6	-10,26
257,1	-10,74
257,5	-9,58
258	-9,38
258,5	-4,58
258,9	-7,26
259,4	-9,82
259,9	-9,22
260,3	-9,38
260,8	-9,34
261,2	-7,9
261,7	-7,14
262,2	-12,3
262,6	-15,14
263,1	-17,14
263,6	-12,26
264	-14,94
264,5	-16,66
264,9	-12,1
265,4	-11,74
265,9	-16,18
266,3	-13,9
266,8	-8,94
267,3	-11,46
267,7	-10,74
268,2	-9,14
268,7	-6,78
269,1	-6,38
269,6	-6,06
270	-9,22
270,5	-14,94
271	-19,62
271,4	-19,3
271,9	-22,06
272,4	-20,7
272,8	-20,58
273,3	-15,26
273,7	-10,42
274,2	-8,74
274,7	-7,46
275,1	-1,66
275,6	-6,94
276,1	-19,26
276,5	-16,82
277	-13,3
277,4	-19,74
277,9	-13,26
278,4	-12,66
278,8	-10,74
279,3	-17,14
279,8	-15,62
280,2	-17,74
280,7	-11,06
281,1	-15,82
281,6	-15,54
282,1	-13,18
282,5	-14,22
283	-14,74
283,4	-14,5
283,9	-10,58
284,4	-10,98
284,8	-16,58
285,3	-14,62
285,8	-10,18
286,2	-11,54
286,7	-14,06
287,1	-13,5
287,6	-14,46
288,1	-19,9
288,5	-19,54
289	-22,26
289,5	-18,78
289,9	-19,18
290,4	-15,94
290,8	-12,86
291,3	-9,54
291,8	-1,66
292,2	-3,86
292,7	-4,34
293,1	-5,86
293,6	-1,9
294,1	-13,62
294,5	-11,34
295	-6,22
295,5	-6,98
295,9	-13,18
296,4	-6,98
296,8	-4,38
297,3	-12,3
297,8	-11,46
298,2	-10,14
298,7	-12,18
299,1	-20,14
299,6	-16,62
300,1	-25,22
300,5	-19,14
301	-17,5
301,5	-15,86
301,9	-22,62
302,4	-14,78
302,8	-18,62
303,3	-20,22
303,8	-17,78
304,2	-10,86
304,7	-10,82
305,1	-9,38
305,6	-11,78
306,1	-13,54
306,5	-16,42
307	-14,74
307,4	-14,22
307,9	-13,18
308,4	-10,1
308,8	-8,74
309,3	-11,14
309,8	-11,94
310,2	-10,38
310,7	-8,78
311,1	-12,62
311,6	-10,82
312,1	-10,62
312,5	-13,3
313	-20,7
313,4	-18,26
313,9	-19,74
314,4	-22,54
314,8	-20,18
315,3	-19,54
315,7	-19,3
316,2	-15,98
316,7	-19,66
317,1	-20,62
317,6	-20,14
318	-16,62
318,5	-18,46
319	-17,94
319,4	-8,06
319,9	-9,1
320,3	-10,5
320,8	-14,34
321,3	-5,1
321,7	-8,46
322,2	-2,58
322,6	-7,34
323,1	-10,3
323,6	-13,86
324	-18,7
324,5	-20,14
324,9	-17,46
325,4	-13,5
325,9	-12,66
326,3	-8,38
326,8	-8,58
327,2	-7,74
327,7	-9,14
328,2	-10,58
328,6	-11,58
329,1	-15,78
329,5	-15,26
330	-9,94
330,5	-9,94
330,9	-10,02
331,4	-12,38
331,8	-16,14
332,3	-18,5
332,8	-17,98
333,2	-20,38
333,7	-14,3
334,1	-7,54
334,6	-13,06
335,1	-9,14
335,5	-10,42
336	-9,06
336,4	-15,66
336,9	-6,58
337,4	-12,34
337,8	-10,94
338,3	-6,98
338,7	-1,94
339,2	-11,18
339,7	-7,82
340,1	-1,22
340,6	-5,66
341	-6,1
341,5	1,34
342	-2,06
342,4	-7,34
342,9	-6,46
343,3	-14,98
343,8	-14,86
344,2	-7,54
344,7	-9,5
345,2	-13,42
345,6	-1,34
346,1	-6,02
346,5	-9,74
347	-6,78
347,5	-3,94
347,9	-6,18
348,4	-2,1
348,8	-3,14
349,3	-4,38
349,8	-0,5
350,2	-2,14
350,7	-5,34
351,1	-8,58
351,6	-2,3
352	-10,3
352,5	-11,3
353	-5,38
353,4	2,78
353,9	-2,7
354,3	4,34
354,8	6,06
355,3	6,3
355,7	6,78
356,2	16,46
356,6	22,46
357,1	39,02
357,5	52,18
358	66,54
358,5	77,62
358,9	93,06
359,4	101,5
359,8	119,14
360,3	131,94
360,8	153,46
361,2	175,58
361,7	208,46
362,1	238,62
362,6	277,98
363	319,1
363,5	359,82
364	401,5
364,4	440,22
364,9	484,86
365,3	526,26
365,8	567,94
366,3	607,34
366,7	647,02
367,2	680,5
367,6	705,5
368,1	721,5
368,5	733,1
369	736,5
369,5	732,54
369,9	724,14
370,4	716,34
370,8	697,9
371,3	674,38
371,7	646,18
372,2	609,98
372,7	575,94
373,1	541,5
373,6	510,26
374	479,22
374,5	457,5
374,9	428,26
375,4	400,22
375,9	374,7
376,3	347,66
376,8	318,38
377,2	292,58
377,7	267,22
378,2	242,38
378,6	216,3
379,1	193,78
379,5	180,62
380	166,34
380,4	150,1
380,9	139,46
381,4	123,94
381,8	110,46
382,3	99,86
382,7	93,18
383,2	86,42
383,6	83,38
384,1	72,34
384,6	63,66
385	51,1
385,5	42,34
385,9	33,74
386,4	36,46
386,8	32,74
387,3	33,78
387,7	31,22
388,2	29,82
388,7	19,42
389,1	14,3
389,6	6,9
390	8,42
390,5	7,54
390,9	6,9
391,4	4,62
391,9	7,02
392,3	3,5
392,8	2,78
393,2	4,46
393,7	4,78
394,1	3,74
394,6	3,54
395,1	-3,74
395,5	-1,42
396	-0,38
396,4	1,46
396,9	-0,1
397,3	5,66
397,8	-0,66
398,2	-4,98
398,7	-5,14
399,2	-7,02
399,6	-6,02
400,1	-7,14
400,5	-2,38
401	-4,62
401,4	-4,74
401,9	-4,74
402,4	-0,58
402,8	-0,98
403,3	-2,22
403,7	-3,7
404,2	-3,14
404,6	-8,02
405,1	-10,22
405,5	-10,9
406	-13,94
406,5	-16,38
406,9	-16,18
407,4	-12,82
407,8	-12,62
408,3	-4,42
408,7	0,14
409,2	0,7
409,6	-2,54
410,1	0,82
410,6	4,34
411	5,02
411,5	3,1
411,9	4,98
412,4	9,86
412,8	8,46
413,3	5,94
413,7	10,58
414,2	16,14
414,7	10,78
415,1	10,54
415,6	11,26
416	9,46
416,5	4,86
416,9	6,58
417,4	11,1
417,8	14,82
418,3	24,3
418,8	28,14
419,2	31,22
419,7	28,46
420,1	27,02
420,6	24,54
421	24,26
421,5	23,94
421,9	21,26
422,4	20,9
422,8	21,14
423,3	22,78
423,8	21,1
424,2	22,78
424,7	22,78
425,1	22,18
425,6	22,86
426	23,26
426,5	27,66
426,9	31,9
427,4	35,14
427,9	33,66
428,3	38,5
428,8	37,98
429,2	36,1
429,7	33,74
430,1	36,5
430,6	35,86
431	34,34
431,5	35,14
431,9	39,5
432,4	36,46
432,8	40,46
433,3	44,86
433,8	51,86
434,2	51,34
434,7	58,5
435,1	57,58
435,6	60,06
436	60,5
436,5	67,78
436,9	71,02
437,4	76,74
437,8	72,06
438,3	72,26
438,8	68,1
439,2	69,18
439,7	70,26
440,1	84,62
440,6	92,26
441	98,74
441,5	100,18
441,9	105,34
442,4	104,98
442,8	105,42
443,3	115,62
443,7	125,62
444,2	133,26
444,7	143,82
445,1	153,5
445,6	154,82
446	163,18
446,5	162,66
446,9	164,74
447,4	173,74
447,8	181,78
448,3	186,62
448,7	205,02
449,2	212,5
449,6	217,82
450,1	230,58
450,6	235,66
451	239,5
451,5	249,14
451,9	254,18
452,4	265,38
452,8	281,62
453,3	297,94
453,7	314,78
454,2	330,18
454,6	338,86
455,1	348,1
455,5	358,5
456	365,42
456,4	380,58
456,9	388,66
457,3	401,46
457,8	408,62
458,3	421,74
458,7	431,22
459,2	450,3
459,6	462,38
460,1	480,94
460,5	506,06
461	518,42
461,4	536,42
461,9	554,06
462,3	569,06
462,8	582,3
463,2	603,66
463,7	618,1
464,1	638,14
464,6	653,34
465	661,7
465,5	677,66
466	684,86
466,4	696,94
466,9	712,26
467,3	729,18
467,8	745,74
468,2	769,3
468,7	781,78
469,1	795,14
469,6	813,94
470	834,86
470,5	849,58
470,9	871,9
471,4	891,1
471,8	908,26
472,3	915,9
472,7	939,38
473,2	956,58
473,6	979,42
474,1	996,62
474,5	1020,26
475	1032,62
475,4	1051,98
475,9	1065,9
476,4	1078,7
476,8	1090,3
477,3	1103,98
477,7	1114,42
478,2	1133,26
478,6	1150,82
479,1	1163,5
479,5	1177,42
480	1192,26
480,4	1202,1
480,9	1219,94
481,3	1247,46
481,8	1265,3
482,2	1286,34
482,7	1300,5
483,1	1307,38
483,6	1307,34
484	1316,74
484,5	1329,78
484,9	1343,94
485,4	1362,62
485,8	1380,66
486,3	1392,78
486,7	1396,82
487,2	1412,22
487,6	1419,22
488,1	1425,5
488,5	1431,3
489	1444,58
489,4	1448,9
489,9	1456,38
490,4	1467,34
490,8	1483,38
491,3	1491,34
491,7	1501,02
492,2	1518,86
492,6	1528,9
493,1	1536,06
493,5	1543,46
494	1542,06
494,4	1537,74
494,9	1549,14
495,3	1552,26
495,8	1550,94
496,2	1568,06
496,7	1572,62
497,1	1573,34
497,6	1575,94
498	1588,06
498,5	1579,7
498,9	1583,3
499,4	1580,06
499,8	1589,82
500,3	1584,98
500,7	1594,46
501,2	1602,86
501,6	1609,1
502,1	1607,74
502,5	1615,14
503	1613,82
503,4	1611,18
503,9	1617,06
504,3	1617,74
504,8	1622,3
505,2	1627,5
505,7	1624,22
506,1	1624,14
506,6	1625,42
507	1626,54
507,5	1621,78
507,9	1630,1
508,4	1631,3
508,8	1634,14
509,3	1630,1
509,7	1637,94
510,2	1638,7
510,6	1637,9
511,1	1635,06
511,5	1629,98
512	1628,62
512,4	1625,7
512,9	1625,46
513,3	1624,3
513,8	1633,82
514,2	1638,62
514,7	1645,06
515,1	1652,82
515,6	1657,82
516	1660,02
516,5	1656,06
516,9	1650,26
517,4	1643,14
517,8	1645,42
518,3	1641,38
518,7	1639,42
519,2	1638,22
519,6	1634,82
520,1	1631,1
520,5	1633,18
521	1633,22
521,4	1639,98
521,9	1643,34
522,3	1639,06
522,8	1637,18
523,2	1644,5
523,7	1650,3
524,1	1652,02
524,6	1663,34
525	1670,06
525,5	1668,9
525,9	1665,62
526,4	1663,5
526,8	1659,38
527,3	1656,02
527,7	1651,46
528,2	1642,7
528,6	1653,66
529,1	1659,22
529,5	1665,66
530	1676,14
530,4	1685,86
530,9	1677,74
531,3	1683,66
531,8	1678,02
532,2	1678,18
532,6	1684,58
533,1	1687,54
533,5	1679,82
534	1680,34
534,4	1678,74
534,9	1684,18
535,3	1688,98
535,8	1692,86
536,2	1700,82
536,7	1697,66
537,1	1693,58
537,6	1693,78
538	1701,7
538,5	1704,7
538,9	1712,78
539,4	1712,34
539,8	1716,54
540,3	1709,74
540,7	1705,78
541,2	1701,1
541,6	1700,82
542,1	1700,9
542,5	1714,06
543	1723,34
543,4	1730,02
543,9	1736,46
544,3	1745,82
544,8	1740,7
545,2	1739,18
545,7	1746,46
546,1	1745,38
546,5	1745,54
547	1748,98
547,4	1751,02
547,9	1747,82
548,3	1749,42
548,8	1746,74
549,2	1750,62
549,7	1746,58
550,1	1747,9
550,6	1750,82
551	1751,58
551,5	1752,26
551,9	1758,9
552,4	1764,9
552,8	1769,7
553,3	1770,22
553,7	1774,46
554,2	1778,22
554,6	1781,46
555,1	1787,06
555,5	1804,7
555,9	1803,98
556,4	1807,58
556,8	1800,9
557,3	1801,3
557,7	1796,46
558,2	1798,94
558,6	1801,78
559,1	1812,46
559,5	1813,18
560	1812,62
560,4	1818,62
560,9	1820,26
561,3	1818,82
561,8	1819,9
562,2	1823,18
562,7	1818,82
563,1	1818,5
563,6	1818,06
564	1815,1
564,4	1807,94
564,9	1811,66
565,3	1809,66
565,8	1808,98
566,2	1812,22
566,7	1815,62
567,1	1812,74
567,6	1821,94
568	1833,14
568,5	1835,22
568,9	1832,18
569,4	1844,06
569,8	1833,54
570,3	1829,02
570,7	1826,86
571,1	1825,38
571,6	1820,3
572	1829,06
572,5	1823,34
572,9	1826,78
573,4	1835,18
573,8	1828,18
574,3	1826,34
574,7	1830,86
575,2	1831,38
575,6	1827,38
576,1	1832,66
576,5	1832,26
576,9	1830,98
577,4	1824,1
577,8	1816,78
578,3	1813,78
578,7	1810,34
579,2	1804,94
579,6	1799,62
580,1	1803,54
580,5	1792,34
581	1791,78
581,4	1793,74
581,9	1797,5
582,3	1800,38
582,7	1807,9
583,2	1803,66
583,6	1794,26
584,1	1787,14
584,5	1781,18
585	1774,74
585,4	1770,1
585,9	1764,82
586,3	1765,54
586,8	1761,74
587,2	1756,34
587,6	1755,3
588,1	1754,54
588,5	1743,42
589	1742,1
589,4	1739,66
589,9	1735,7
590,3	1734,58
590,8	1741,58
591,2	1732,38
591,7	1735,54
592,1	1728,18
592,5	1727,78
593	1720,06
593,4	1719,02
593,9	1711,38
594,3	1716,46
594,8	1708,06
595,2	1704,5
595,7	1703,54
596,1	1699,9
596,6	1693,86
597	1699,18
597,4	1694,86
597,9	1685,42
598,3	1684,7
598,8	1677,62
599,2	1666,7
599,7	1664,42
600,1	1662,82
600,6	1652,5
601	1651,62
601,4	1648,14
601,9	1648,5
602,3	1652,1
602,8	1645,98
603,2	1639,86
603,7	1635,82
604,1	1630,78
604,6	1625,1
605	1626,74
605,4	1624,66
605,9	1625,7
606,3	1617,3
606,8	1610,9
607,2	1599,5
607,7	1595,78
608,1	1584,22
608,6	1588,1
609	1584,38
609,4	1589,58
609,9	1585,66
610,3	1579,74
610,8	1566,94
611,2	1558,34
611,7	1548,98
612,1	1540,74
612,6	1533,42
613	1528,5
613,4	1522,42
613,9	1522,42
614,3	1514,34
614,8	1520,94
615,2	1512,3
615,7	1508,5
616,1	1496,54
616,6	1494,06
617	1476,38
617,4	1472,54
617,9	1459,82
618,3	1455,7
618,8	1441,82
619,2	1439,62
619,7	1438,26
620,1	1435,7
620,5	1422,74
621	1423,14
621,4	1418,18
621,9	1406,54
622,3	1403,22
622,8	1408,66
623,2	1397,46
623,6	1387,38
624,1	1380,9
624,5	1376,22
625	1365,02
625,4	1361,5
625,9	1365,02
626,3	1358,3
626,8	1348,34
627,2	1344,06
627,6	1334,14
628,1	1326,26
628,5	1318,38
629	1317,94
629,4	1304,14
629,9	1302,34
630,3	1293,98
630,7	1289,38
631,2	1269,5
631,6	1268,86
632,1	1264,58
632,5	1255,38
633	1250,38
633,4	1255,3
633,8	1240,74
634,3	1233,5
634,7	1231,9
635,2	1228,74
635,6	1213,18
636,1	1211,7
636,5	1206,98
636,9	1198,46
637,4	1188,26
637,8	1189,66
638,3	1175,54
638,7	1165,22
639,2	1160,82
639,6	1156,34
640	1144,5
640,5	1144,1
640,9	1139,86
641,4	1133,02
641,8	1124,42
642,2	1122,74
642,7	1119,38
643,1	1110,78
643,6	1100,46
644	1096,42
644,5	1089,46
644,9	1081,38
645,3	1076,98
645,8	1065,02
646,2	1056,06
646,7	1042,22
647,1	1043,46
647,6	1034,14
648	1037,58
648,4	1033,82
648,9	1036,06
649,3	1029,82
649,8	1030,18
650,2	1022,7
650,6	1013,82
651,1	1015,1
651,5	1007,54
652	1000,42
652,4	1003,7
652,9	1003,22
653,3	987,62
653,7	979,22
654,2	972,74
654,6	960,9
655,1	952,94
655,5	951,5
655,9	948,02
656,4	940,3
656,8	927,58
657,3	921,42
657,7	912,74
658,2	905,22
658,6	900,42
659	899,82
659,5	897,82
659,9	899,14
660,4	896,74
660,8	893,18
661,2	886,14
661,7	880,3
662,1	875,1
662,6	870,5
663	867,78
663,4	866,5
663,9	859,46
664,3	849,18
664,8	841,22
665,2	833,94
665,6	830,5
666,1	821,98
666,5	822,86
667	814,66
667,4	809,1
667,9	799,42
668,3	796,46
668,7	784,66
669,2	783,54
669,6	780,78
670,1	778,38
670,5	779,34
670,9	776,82
671,4	771,74
671,8	765,22
672,3	756,46
672,7	746,06
673,1	742,02
673,6	738,9
674	734,34
674,5	728,26
674,9	725,22
675,3	720,9
675,8	713,22
676,2	708,9
676,7	707,22
677,1	700,7
677,5	693,58
678	684,06
678,4	675,3
678,9	666,1
679,3	660,78
679,7	656,74
680,2	662,26
680,6	658,1
681,1	661,18
681,5	659,9
681,9	657,46
682,4	649,1
682,8	645,86
683,3	635,18
683,7	632,14
684,1	623,78
684,6	613,46
685	608,54
685,5	609,86
685,9	597,22
686,3	595,54
686,8	593,02
687,2	589,22
687,7	580,86
688,1	583,42
688,5	581,54
689	580,18
689,4	577,18
689,9	568,98
690,3	567,18
690,7	559,06
691,2	558,06
691,6	552,62
692	553,98
692,5	551,42
692,9	544,22
693,4	539,58
693,8	539,54
694,2	531,06
694,7	524,74
695,1	528,62
695,6	526,26
696	523,06
696,4	524,78
696,9	516,82
697,3	506,1
697,8	500,66
698,2	498,14
698,6	492,14
699,1	498,18
699,5	502,46
699,9	498,9
700,4	491,3
700,8	493,5
701,3	485,86
701,7	479,1
702,1	477,5
702,6	474,1
703	467,54
703,5	463,9
703,9	457,7
704,3	452,5
704,8	446,38
705,2	442,58
705,6	439,54
706,1	438,22
706,5	426,78
707	431,34
707,4	429,74
707,8	424,3
708,3	422,38
708,7	432,46
709,2	424,54
709,6	420,58
710	422,38
710,5	417,34
710,9	412,86
711,3	413,82
711,8	415,3
712,2	415,38
712,7	410,5
713,1	401,74
713,5	397,9
714	380,94
714,4	373,38
714,8	374,38
715,3	374,06
715,7	371,62
716,2	378,78
716,6	377,38
717	376,34
717,5	375,86
717,9	371,78
718,3	364,34
718,8	360,22
719,2	350,46
719,7	342,02
720,1	336,38
720,5	334,82
721	328,26
721,4	333,34
721,8	333,34
722,3	333,14
722,7	333,34
723,2	331,46
723,6	329,86
724	322,38
724,5	315,22
724,9	306,98
725,3	307,58
725,8	300,78
726,2	302,7
726,7	298,86
727,1	306,22
727,5	299,38
728	297,86
728,4	295,18
728,8	292,26
729,3	290,18
729,7	289,5
730,1	284,58
730,6	286,42
731	290,9
731,5	284,42
731,9	288,7
732,3	291,82
732,8	283,46
733,2	281,7
733,6	282,7
734,1	277,54
734,5	272,22
734,9	279,46
735,4	281,5
735,8	277,66
736,3	277,86
736,7	277,58
737,1	267,98
737,6	265,74
738	260,66
738,4	261,3
738,9	258,26
739,3	260,02
739,7	246,02
740,2	250,7
740,6	240,86
741,1	241,38
741,5	239,38
741,9	247,78
742,4	245,5
742,8	242,38
743,2	243,78
743,7	244,02
744,1	237,86
744,5	240,1
745	237,9
745,4	228,86
745,8	224,9
746,3	224,02
746,7	214,66
747,2	215,66
747,6	217,86
748	220,38
748,5	221,82
748,9	220,74
749,3	219,34
749,8	219,38
750,2	217,74
750,6	215,54
751,1	214,94
751,5	214,06
751,9	212,7
752,4	211,38
752,8	212,5
753,3	211,42
753,7	210,3
754,1	209,7
754,6	200,7
755	194,54
755,4	201,22
755,9	192,62
756,3	196,26
756,7	197,46
757,2	199,42
757,6	186,98
758	199,42
758,5	190,66
758,9	191,66
759,3	184,3
759,8	187,42
760,2	178,42
760,6	176,9
761,1	176,42
761,5	178,42
761,9	175,74
762,4	175,3
762,8	172,54
763,3	169,22
763,7	164,7
764,1	159,58
764,6	158,22
765	154,66
765,4	153,86
765,9	156,7
766,3	159,62
766,7	161,9
767,2	163,06
767,6	162,14
768	162,54
768,5	157,9
768,9	150,78
769,3	151,86
769,8	152,02
770,2	147,98
770,6	158,18
771,1	159,02
771,5	155,42
771,9	152,26
772,4	153,18
772,8	142,7
773,2	144,58
773,7	150,66
774,1	146,58
774,5	143,14
775	139,1
775,4	131,98
775,8	129,06
776,3	130,1
776,7	126,22
777,1	127,54
777,6	132,62
778	133,78
778,4	136,58
778,9	140,9
779,3	142,1
779,7	139,42
780,2	129,78
780,6	125,34
781	123,14
781,5	122,58
781,9	119,94
782,3	122,66
782,8	117,26
783,2	110,98
783,6	109,18
784,1	107,06
784,5	106,46
784,9	111,58
785,4	116,02
785,8	113,26
786,2	117,42
786,7	115,86
787,1	113,14
787,5	111,42
788	110,86
788,4	105,26
788,8	103,98
789,3	97,58
789,7	93,22
790,1	88,94
790,6	88,86
791	84,38
791,4	89,5
791,9	90,58
792,3	91,94
792,7	90,06
793,2	91,14
793,6	91,66
794	92,9
794,5	96,42
794,9	96,86
795,3	100,06
795,8	98,5
796,2	99,78
796,6	94,9
797,1	95,26
797,5	92,02
797,9	91,98
798,4	89,7
798,8	90,66
799,2	88,22
799,7	87,3
800,1	84,74
800,5	82,06
801	87,06
801,4	89,78
801,8	93,14
802,2	96,74
802,7	104,18
803,1	98,42
803,5	93,38
804	87,5
804,4	86,26
804,8	77,3
805,3	72,38
805,7	70,74
806,1	71,26
806,6	68,06
807	64,42
807,4	74,3
807,9	78,94
808,3	74,7
808,7	70,5
809,2	72,9
809,6	66,82
810	63,5
810,4	61,42
810,9	64,98
811,3	65,66
811,7	61,54
812,2	60,06
812,6	61,62
813	59,38
813,5	59,14
813,9	60,5
814,3	61,42
814,8	66,54
815,2	68,54
815,6	69,14
816,1	63,82
816,5	65,74
816,9	60,46
817,3	59,22
817,8	60,9
818,2	60,3
818,6	59,02
819,1	54,1
819,5	51,7
819,9	48,98
820,4	56,18
820,8	57,78
821,2	67,22
821,7	66,42
822,1	58,74
822,5	51,86
822,9	47,38
823,4	39,26
823,8	39,78
824,2	44,5
824,7	42,26
825,1	45,3
825,5	45,7
826	45,14
826,4	45,54
826,8	50,34
827,3	46,34
827,7	50,22
828,1	42,78
828,5	40,98
829	37,34
829,4	37,38
829,8	34,1
830,3	42,58
830,7	47,26
831,1	52,1
831,6	52,78
832	54,86
832,4	56,66
832,8	55,82
833,3	52,7
833,7	54,3
834,1	51,54
834,6	48,42
835	43,06
835,4	41,9
835,8	33,66
836,3	34,06
836,7	36,58
837,1	35,86
837,6	39,98
838	45,82
838,4	51,02
838,9	43,54
839,3	42,66
839,7	41,78
840,1	46,38
840,6	38,02
841	35,74
841,4	36,18
841,9	26,54
842,3	15,82
842,7	16,42
843,1	19,46
843,6	16,9
844	20,02
844,4	20,22
844,9	21,14
845,3	22,5
845,7	25,38
846,2	25,06
846,6	25,54
847	25,54
847,4	24,1
847,9	25,9
848,3	27,18
848,7	33,14
849,2	29,38
849,6	31,9
850	30,02
850,4	33,26
850,9	29,06
851,3	29,06
851,7	21,3
852,2	20,38
852,6	18,54
853	17,26
853,4	20,54
853,9	27,02
854,3	28,42
854,7	27,74
855,2	30,02
855,6	23,34
856	22,34
856,4	24,38
856,9	20,86
857,3	15,54
857,7	23,02
858,2	21,86
858,6	13,14
859	20,38
859,4	26,34
859,9	22,9
860,3	24,14
860,7	22,74
861,1	20,58
861,6	19,82
862	21,7
862,4	18,3
862,9	24,54
863,3	15,58
863,7	15,82
864,1	15,74
864,6	19,1
865	17,5
865,4	16,9
865,9	10,38
866,3	9,02
866,7	4,06
867,1	5,82
867,6	9,66
868	10,78
868,4	10,7
868,8	11,94
869,3	16,58
869,7	14,42
870,1	17,22
870,6	16,5
871	16,7
871,4	-4,82
871,8	0,18
872,3	-5,78
872,7	-9,78
873,1	-8,1
873,5	3,06
874	0,5
874,4	10,02
874,8	12,3
875,3	10,86
875,7	15,54
876,1	17,3
876,5	8,74
877	7,54
877,4	6,22
877,8	4,02
878,2	0,34
878,7	6,06
879,1	6,78
879,5	10,78
879,9	12,54
880,4	16,46
880,8	11,9
881,2	16,62
881,7	12,94
882,1	8,02
882,5	8,14
882,9	8,74
883,4	4,66
883,8	7,22
884,2	7,58
884,6	4,86
885,1	4,5
885,5	0,42
885,9	-3,02
886,3	0,18
886,8	-2,18
887,2	-1,86
887,6	3,86
888	4,02
888,5	6,54
888,9	9,62
889,3	3,22
889,8	-1,94
890,2	-0,3
890,6	-2,46
891	-2,5
891,5	4,7
891,9	9,06
892,3	6,06
892,7	7,66
893,2	4,9
893,6	0,86
894	0,34
894,4	-3,38
894,9	-6,9
895,3	-4,54
895,7	-0,94
896,1	2,14
896,6	9,38
897	9,74
897,4	4,58
897,8	5,42
898,3	0,5
898,7	-2,26
899,1	0,34
899,5	1,5
900	0,5
900,4	0,74
900,8	-3,42
901,2	-6,58
901,7	-0,54
902,1	1,38
902,5	1,86
902,9	2,34
903,4	-0,02
903,8	-2,06
904,2	-9,7
904,6	-5,94
905,1	-4,42
905,5	-3,98
905,9	-6,14
906,3	-3,66
906,8	-7,34
907,2	-1,18
907,6	2,18
908	8,82
908,5	10,46
908,9	11,18
909,3	3,54
909,7	1,74
910,2	-2,74
910,6	2,02
911	-3,3
911,4	0,82
911,9	-0,46
912,3	-3,38
912,7	-7,14
913,1	-4,22
913,6	-11,98
914	-14,94
914,4	-14,82
914,8	-17,3
915,3	-17,54
915,7	-12,1
916,1	-9,54
916,5	-6,22
916,9	-9,14
917,4	-4,42
917,8	0,38
918,2	3,82
918,6	2,02
919,1	5,98
919,5	1,98
919,9	1,7
920,3	0,5
920,8	8,34
921,2	4,66
921,6	4,66
922	-1,98
922,5	-4,22
922,9	-11,82
923,3	-7,86
923,7	-10,14
924,2	-12,98
924,6	-14,78
925	-11,7
925,4	-10,74
925,8	-7,58
926,3	-8,38
926,7	-5,34
927,1	-4,5
927,5	-10,5
928	-14,26
928,4	-8,02
928,8	-9,34
929,2	-15,7
929,7	-9,22
930,1	-6,22
930,5	-2,38
930,9	1,34
931,3	-3,7
931,8	-4,94
932,2	-8,7
932,6	-13,42
933	-18,98
933,5	-11,1
933,9	-13,86
934,3	-11,66
934,7	-7,94
935,2	-6,54
935,6	-11,46
936	-13,38
936,4	-13,94
936,8	-16,3
937,3	-11,78
937,7	-12,7
938,1	-8,22
938,5	-5,46
939	-6,78
939,4	-10,5
939,8	-6,06
940,2	-12,1
940,6	-14,74
941,1	-14,54
941,5	-16,82
941,9	-15,42
942,3	-12,3
942,8	-10,42
943,2	-6,66
943,6	-1,38
944	-1,5
944,4	1,02
944,9	1,58
945,3	-4,14
945,7	-3,02
946,1	-4,82
946,6	-7,34
947	-9,06
947,4	-7,9
947,8	-12,94
948,2	-12,98
948,7	-4,66
949,1	-7,22
949,5	-9,58
949,9	-8,5
950,3	-7,58
950,8	-12,7
951,2	-14,3
951,6	-5,42
952	-5,66
952,5	-12,1
952,9	-10,46
953,3	-9,02
953,7	-10,94
954,1	-13,1
954,6	-6,66
955	-10,46
955,4	-4,38
955,8	-10,22
956,2	-9,06
956,7	-11,5
957,1	-9,42
957,5	-10,82
957,9	-12,18
958,3	-14,66
958,8	-11,46
959,2	-12,66
959,6	-14,1
960	-9,62
960,5	-0,46
960,9	-5,46
961,3	-5,14
961,7	-4,62
962,1	-0,98
962,6	-2,82
963	-2,66
963,4	-8,74
963,8	-9,18
964,2	-16,26
964,7	-16,22
965,1	-12,82
965,5	-9,3
965,9	-10,98
966,3	-6,62
966,8	-10,1
967,2	-12,62
967,6	-10,58
968	-8,38
968,4	-9,74
968,9	-14,34
969,3	-11,78
969,7	-14,06
970,1	-19,14
970,5	-18,18
971	-11,5
971,4	-14,54
971,8	-15,14
972,2	-12,98
972,6	-16,86
973,1	-19,1
973,5	-19,74
973,9	-18,7
974,3	-15,74
974,7	-15,58
975,2	-7,06
975,6	0,58
976	2,74
976,4	0,02
976,8	2,98
977,3	-0,82
977,7	-4,5
978,1	-10,34
978,5	-8,78
978,9	-12,02
979,4	-17,9
979,8	-20,34
980,2	-19,22
980,6	-20,46
981	-17,34
981,5	-15,18
981,9	-12,34
982,3	-8,58
982,7	-13,5
983,1	-13,46
983,6	-13,02
984	-16,9
984,4	-21,18
984,8	-17,1
985,2	-15,54
985,6	-18,22
986,1	-11,1
986,5	-6,9
986,9	-8,9
987,3	-13,98
987,7	-16,46
988,2	-22,18
988,6	-21,22
989	-14,1
989,4	-13,34
989,8	-8,22
990,3	-11,86
990,7	-13,26
991,1	-14,54
991,5	-11,22
991,9	-13,86
992,3	-12,7
992,8	-16,5
993,2	-22,46
993,6	-26,18
994	-24,3
994,4	-21,18
994,9	-17,26
995,3	-13,42
995,7	-9,42
996,1	-8,02
996,5	-7,54
996,9	-8,3
997,4	-8,58
997,8	-14,86
998,2	-15,78
998,6	-16,42
999	-18,14
999,5	-16,78
999,9	-12,54
1000,3	-14,86
1000,7	-12,26
1001,1	-11,7
1001,5	-8,58
1002	-11,74
1002,4	-10,58
1002,8	-11,9
1003,2	-12,3
1003,6	-13,7
1004	-13,46
1004,5	-14,22
1004,9	-15,7
1005,3	-12,38
1005,7	-11,7
1006,1	-7,06
1006,6	-6,22
1007	-4,78
1007,4	-8,7
1007,8	-9,06
1008,2	-10,62
1008,6	-8,14
1009,1	-9,46
1009,5	-5,86
1009,9	-10,26
1010,3	-14,94
1010,7	-16,14
1011,1	-13,7
1011,6	-21,38
1012	-21,62
1012,4	-18,46
1012,8	-19,82
1013,2	-19,22
1013,6	-16,78
1014,1	-16,86
1014,5	-19,7
1014,9	-21,82
1015,3	-26,58
1015,7	-19,02
1016,1	-15,06
1016,6	-12,3
1017	-9,18
1017,4	-8,62
1017,8	-11,78
1018,2	-19,02
1018,6	-18,9
1019,1	-19,22
1019,5	-17,58
1019,9	-20,82
1020,3	-13,78
1020,7	-13,78
1021,1	-14,46
1021,6	-11,58
1022	-7,78
1022,4	-11,3
1022,8	-7,1
1023,2	-5,3
1023,6	-9,14
1024,1	-9,1
1024,5	-7,3
1024,9	-10,46
1025,3	-14,3
1025,7	-13,14
1026,1	-19,38
1026,6	-21,82
1027	-17,46
1027,4	-12,86
1027,8	-12,94
1028,2	-10,74
1028,6	-9,22
1029	-9,5
1029,5	-10,82
1029,9	-10,82
1030,3	-3,62
1030,7	-0,42
1031,1	-6,26
1031,5	-10,06
1032	-8,5
1032,4	-16,78
1032,8	-18,62
1033,2	-19,5
1033,6	-15,58
1034	-11,94
1034,4	-7,3
1034,9	-2,26
1035,3	-2,86
1035,7	-3,78
1036,1	-11,42
1036,5	-10,7
1036,9	-15,9
1037,4	-12,86
1037,8	-15,22
1038,2	-13,9
1038,6	-15,66
1039	-19,98
1039,4	-21,78
1039,8	-22,54
1040,3	-23,82
1040,7	-25,26
1041,1	-19,26
1041,5	-19,9
1041,9	-16,26
1042,3	-14,22
1042,7	-11,98
1043,2	-19,34
1043,6	-16,06
1044	-10,94
1044,4	-9,82
1044,8	-16,58
1045,2	-3,94
1045,6	0,06
1046,1	-8,06
1046,5	-13,98
1046,9	-12,62
1047,3	-20,18
1047,7	-27,26
1048,1	-24,7
1048,5	-18,46
1049	-17,3
1049,4	-18,58
1049,8	-21,58
1050,2	-21,06
1050,6	-21,3
1051	-20,74
1051,4	-20,22
1051,9	-17,94
1052,3	-22,3
1052,7	-27,58
1053,1	-25,9
1053,5	-22,3
1053,9	-19,62
1054,3	-19,02
1054,8	-17,98
1055,2	-20,78
1055,6	-26,66
1056	-28,3
1056,4	-26,02
1056,8	-21,5
1057,2	-15,98
1057,6	-18,3
1058,1	-15,62
1058,5	-13,94
1058,9	-14,46
1059,3	-15,94
1059,7	-8,94
1060,1	-7,26
1060,5	-7,58
1061	-9,34
1061,4	-9,94
1061,8	-14,86
1062,2	-25,3
1062,6	-27,22
1063	-24,06
1063,4	-26,1
1063,8	-21,58
1064,3	-13,54
1064,7	-15,86
1065,1	-21,7
1065,5	-15,42
1065,9	-20,22
1066,3	-24,54
1066,7	-21,38
1067,1	-15,22
1067,6	-23,62
1068	-22,02
1068,4	-15,62
1068,8	-14,26
1069,2	-17,66
1069,6	-11,02
1070	-1,18
1070,4	-4,42
1070,9	-1,26
1071,3	1,26
1071,7	0,02
1072,1	-9,06
1072,5	-6,86
1072,9	-15,14
1073,3	-14,58
1073,7	-13,26
1074,2	-11,42
1074,6	-15,54
1075	-22,14
1075,4	-24,62
1075,8	-22,34
1076,2	-19,54
1076,6	-16,78
1077	-3,14
1077,5	-5,66
1077,9	-10,02
1078,3	-16,34
1078,7	-17,82
1079,1	-23,86
1079,5	-17,34
1079,9	-19,58
1080,3	-14,3
1080,7	-11,74
1081,2	-6,06
1081,6	-8,38
1082	-2,06
1082,4	-3,46
1082,8	-7,3
1083,2	-11,9
1083,6	-14,94
1084	-18,26
1084,5	-24,94
1084,9	-19,94
1085,3	-15,7
1085,7	-9,94
1086,1	-11,18
1086,5	-8,1
1086,9	-11,1
1087,3	-17,7
1087,7	-22,18
1088,2	-21,02
1088,6	-15,3
1089	-18,14
1089,4	-10,5
1089,8	-9,58
1090,2	-6,62
1090,6	-11,5
1091	-12,94
1091,4	-20,7
1091,9	-23,58
1092,3	-26,14
1092,7	-23,7
1093,1	-14,46
1093,5	-10,14
1093,9	-1,3
1094,3	-2,82
1094,7	-3,62
1095,1	-6,86
1095,5	-8,74
1096	-11,26
1096,4	-5,98
1096,8	-3,06
1097,2	-5,02
1097,6	-7,62
1098	-12,38
1098,4	-18,98
1098,8	-23,34
1099,2	-21,42
1099,6	-15,58
1100,1	-11,54
1100,5	-7,78
1100,9	-1,26
1101,3	-4,26
1101,7	-6,42
1102,1	-7,02
1102,5	-5,26
1102,9	-6,82
1103,3	-6,74
1103,7	-5,18
1104,2	-11,94
1104,6	-13,86
1105	-16,02
1105,4	-12,9
1105,8	-11,94
1106,2	-4,9
1106,6	-2,94
1107	-2,02
1107,4	-0,54
1107,8	0
1108,3	-0,633
