Data from Subt2_00069.txt Node
Date: Fri Aug 11 16:27:45 MSK 2023
User: vat
Spectrometer: MAYP114033
Trigger mode: 0
Integration Time (sec): 5,000000E-1
Scans to average: 5
Electric dark correction enabled: true
Nonlinearity correction enabled: false
Boxcar width: 2
XAxis mode: Wavelengths
Number of Pixels in Spectrum: 2068
>>>>>Begin Spectral Data<<<<<
199,4	-0,033
199,9	-0,083
200,4	-7,313
200,8	-11,473
201,3	-20,753
201,8	-26,233
202,2	-26,993
202,7	-27,593
203,2	-29,873
203,6	-27,673
204,1	-27,313
204,6	-36,233
205	-32,273
205,5	-33,433
206	-28,153
206,4	-28,393
206,9	-27,193
207,4	-30,313
207,8	-30,073
208,3	-32,033
208,8	-33,913
209,2	-35,353
209,7	-40,473
210,2	-39,593
210,6	-42,993
211,1	-44,353
211,5	-41,393
212	-36,153
212,5	-36,313
212,9	-37,353
213,4	-39,233
213,9	-42,193
214,3	-42,233
214,8	-44,673
215,3	-44,033
215,7	-43,313
216,2	-36,473
216,7	-42,833
217,1	-40,993
217,6	-42,193
218,1	-42,753
218,5	-48,913
219	-42,993
219,5	-42,033
219,9	-40,913
220,4	-37,313
220,9	-37,633
221,3	-40,513
221,8	-41,513
222,3	-41,833
222,7	-42,513
223,2	-42,993
223,6	-45,473
224,1	-45,433
224,6	-49,913
225	-55,793
225,5	-52,993
226	-50,313
226,4	-51,593
226,9	-50,393
227,4	-45,393
227,8	-52,233
228,3	-49,313
228,8	-55,473
229,2	-53,793
229,7	-55,913
230,2	-46,273
230,6	-52,073
231,1	-46,353
231,5	-46,233
232	-46,113
232,5	-50,153
232,9	-47,713
233,4	-49,433
233,9	-53,873
234,3	-49,353
234,8	-47,513
235,3	-45,953
235,7	-41,353
236,2	-32,513
236,7	-39,833
237,1	-45,393
237,6	-47,273
238,1	-48,033
238,5	-52,953
239	-47,153
239,4	-44,473
239,9	-39,513
240,4	-41,353
240,8	-37,193
241,3	-40,833
241,8	-36,433
242,2	-38,753
242,7	-38,313
243,2	-39,193
243,6	-36,593
244,1	-41,553
244,6	-43,833
245	-36,233
245,5	-39,753
245,9	-42,673
246,4	-38,313
246,9	-37,553
247,3	-48,513
247,8	-46,473
248,3	-42,353
248,7	-48,873
249,2	-50,233
249,7	-47,753
250,1	-48,433
250,6	-48,993
251	-42,753
251,5	-37,113
252	-45,673
252,4	-48,433
252,9	-48,273
253,4	-51,193
253,8	-52,673
254,3	-39,353
254,8	-37,433
255,2	-33,113
255,7	-33,633
256,1	-36,553
256,6	-42,393
257,1	-45,073
257,5	-55,273
258	-53,953
258,5	-52,313
258,9	-49,193
259,4	-46,833
259,9	-44,513
260,3	-44,113
260,8	-40,273
261,2	-40,873
261,7	-39,393
262,2	-40,713
262,6	-41,433
263,1	-43,673
263,6	-47,673
264	-46,513
264,5	-46,033
264,9	-45,073
265,4	-50,593
265,9	-44,073
266,3	-41,313
266,8	-33,833
267,3	-33,593
267,7	-30,513
268,2	-36,153
268,7	-40,953
269,1	-47,313
269,6	-51,473
270	-52,073
270,5	-53,753
271	-52,953
271,4	-54,273
271,9	-53,713
272,4	-54,953
272,8	-53,873
273,3	-58,113
273,7	-55,233
274,2	-48,593
274,7	-49,873
275,1	-47,753
275,6	-46,993
276,1	-49,673
276,5	-57,073
277	-57,513
277,4	-58,033
277,9	-56,393
278,4	-49,913
278,8	-45,153
279,3	-41,153
279,8	-41,633
280,2	-43,673
280,7	-49,393
281,1	-57,153
281,6	-58,833
282,1	-53,313
282,5	-51,473
283	-46,833
283,4	-44,273
283,9	-39,793
284,4	-45,393
284,8	-43,393
285,3	-44,113
285,8	-39,873
286,2	-42,993
286,7	-42,713
287,1	-45,353
287,6	-47,473
288,1	-46,553
288,5	-42,393
289	-39,513
289,5	-37,553
289,9	-32,713
290,4	-30,993
290,8	-31,633
291,3	-34,953
291,8	-35,233
292,2	-40,993
292,7	-45,273
293,1	-49,113
293,6	-42,513
294,1	-39,953
294,5	-46,073
295	-41,193
295,5	-37,993
295,9	-41,753
296,4	-46,153
296,8	-35,953
297,3	-42,753
297,8	-45,113
298,2	-48,153
298,7	-48,153
299,1	-50,713
299,6	-42,833
300,1	-48,873
300,5	-45,873
301	-39,593
301,5	-40,793
301,9	-46,353
302,4	-43,593
302,8	-47,553
303,3	-52,113
303,8	-52,273
304,2	-55,833
304,7	-53,033
305,1	-51,993
305,6	-51,753
306,1	-48,753
306,5	-51,913
307	-53,433
307,4	-49,633
307,9	-48,513
308,4	-49,593
308,8	-45,073
309,3	-41,433
309,8	-40,233
310,2	-44,553
310,7	-46,593
311,1	-50,113
311,6	-53,353
312,1	-51,513
312,5	-53,393
313	-53,313
313,4	-50,633
313,9	-49,033
314,4	-53,713
314,8	-45,313
315,3	-46,033
315,7	-44,993
316,2	-50,753
316,7	-49,593
317,1	-55,513
317,6	-53,193
318	-46,753
318,5	-41,113
319	-47,233
319,4	-45,153
319,9	-46,113
320,3	-48,193
320,8	-43,553
321,3	-37,793
321,7	-33,433
322,2	-34,913
322,6	-34,833
323,1	-39,873
323,6	-46,393
324	-46,793
324,5	-49,993
324,9	-57,193
325,4	-52,913
325,9	-46,873
326,3	-45,553
326,8	-41,993
327,2	-40,593
327,7	-46,873
328,2	-47,793
328,6	-51,233
329,1	-48,113
329,5	-41,913
330	-37,713
330,5	-38,313
330,9	-36,993
331,4	-37,873
331,8	-48,033
332,3	-49,193
332,8	-53,273
333,2	-59,873
333,7	-58,433
334,1	-52,793
334,6	-58,233
335,1	-53,673
335,5	-45,793
336	-45,433
336,4	-43,673
336,9	-39,553
337,4	-35,873
337,8	-38,833
338,3	-37,513
338,7	-38,473
339,2	-38,073
339,7	-40,993
340,1	-44,233
340,6	-46,233
341	-47,593
341,5	-47,113
342	-41,633
342,4	-39,073
342,9	-39,313
343,3	-37,633
343,8	-37,673
344,2	-40,233
344,7	-38,993
345,2	-39,873
345,6	-40,113
346,1	-38,273
346,5	-38,713
347	-37,393
347,5	-38,193
347,9	-30,113
348,4	-33,393
348,8	-37,313
349,3	-36,113
349,8	-35,313
350,2	-37,793
350,7	-35,273
351,1	-36,833
351,6	-38,233
352	-39,273
352,5	-38,793
353	-36,953
353,4	-31,793
353,9	-22,953
354,3	-15,233
354,8	-17,433
355,3	-6,713
355,7	-4,593
356,2	-5,593
356,6	-1,873
357,1	15,087
357,5	22,127
358	38,447
358,5	57,327
358,9	75,727
359,4	89,767
359,8	106,407
360,3	134,247
360,8	154,567
361,2	187,647
361,7	217,407
362,1	256,527
362,6	293,607
363	338,207
363,5	381,167
364	433,367
364,4	484,567
364,9	535,967
365,3	590,167
365,8	638,287
366,3	683,167
366,7	727,447
367,2	765,647
367,6	791,287
368,1	814,807
368,5	832,887
369	836,007
369,5	834,927
369,9	837,687
370,4	825,007
370,8	807,407
371,3	780,967
371,7	754,007
372,2	718,367
372,7	682,367
373,1	641,807
373,6	608,487
374	572,247
374,5	531,727
374,9	491,567
375,4	455,407
375,9	420,927
376,3	382,047
376,8	351,487
377,2	324,647
377,7	296,607
378,2	267,407
378,6	235,647
379,1	205,767
379,5	183,487
380	161,087
380,4	142,647
380,9	133,767
381,4	122,847
381,8	107,407
382,3	96,807
382,7	82,527
383,2	73,127
383,6	67,407
384,1	63,767
384,6	56,567
385	49,847
385,5	47,527
385,9	39,967
386,4	29,607
386,8	20,767
387,3	25,007
387,7	18,567
388,2	7,087
388,7	9,647
389,1	6,407
389,6	-0,313
390	-6,473
390,5	-8,353
390,9	-13,753
391,4	-16,433
391,9	-23,873
392,3	-25,833
392,8	-21,993
393,2	-24,513
393,7	-21,393
394,1	-21,113
394,6	-19,513
395,1	-18,633
395,5	-18,473
396	-21,353
396,4	-28,273
396,9	-30,033
397,3	-31,673
397,8	-32,433
398,2	-30,113
398,7	-23,633
399,2	-24,473
399,6	-28,193
400,1	-24,353
400,5	-26,833
401	-26,273
401,4	-27,953
401,9	-26,193
402,4	-36,233
402,8	-36,073
403,3	-37,153
403,7	-35,553
404,2	-31,153
404,6	-25,833
405,1	-21,673
405,5	-15,713
406	-15,433
406,5	-18,073
406,9	-20,913
407,4	-17,833
407,8	-20,313
408,3	-12,073
408,7	-10,193
409,2	-3,433
409,6	-6,953
410,1	-3,553
410,6	-6,113
411	-2,073
411,5	1,567
411,9	15,007
412,4	23,087
412,8	22,887
413,3	25,167
413,7	37,167
414,2	31,927
414,7	34,287
415,1	44,687
415,6	46,167
416	46,247
416,5	52,127
416,9	61,287
417,4	68,567
417,8	78,167
418,3	85,247
418,8	96,807
419,2	105,367
419,7	118,207
420,1	129,887
420,6	138,247
421	146,007
421,5	146,767
421,9	154,207
422,4	168,087
422,8	180,727
423,3	191,007
423,8	209,567
424,2	221,847
424,7	236,287
425,1	250,567
425,6	269,247
426	284,367
426,5	296,007
426,9	308,047
427,4	327,847
427,9	353,647
428,3	374,047
428,8	400,647
429,2	425,327
429,7	449,167
430,1	465,687
430,6	492,487
431	513,607
431,5	542,247
431,9	569,487
432,4	602,567
432,8	638,367
433,3	674,967
433,8	702,767
434,2	734,887
434,7	762,807
435,1	796,887
435,6	839,847
436	889,367
436,5	933,247
436,9	985,047
437,4	1034,287
437,8	1085,207
438,3	1136,727
438,8	1191,127
439,2	1249,087
439,7	1302,047
440,1	1352,487
440,6	1402,287
441	1468,527
441,5	1530,407
441,9	1590,327
442,4	1654,247
442,8	1734,807
443,3	1804,807
443,7	1876,047
444,2	1960,207
444,7	2044,727
445,1	2125,847
445,6	2204,167
446	2289,687
446,5	2382,607
446,9	2470,127
447,4	2554,927
447,8	2651,047
448,3	2742,847
448,7	2823,087
449,2	2915,607
449,6	3006,367
450,1	3099,047
450,6	3204,367
451	3300,567
451,5	3408,487
451,9	3512,007
452,4	3617,287
452,8	3717,287
453,3	3830,087
453,7	3936,967
454,2	4056,527
454,6	4174,127
455,1	4285,487
455,5	4402,967
456	4514,807
456,4	4621,967
456,9	4733,327
457,3	4854,247
457,8	4966,527
458,3	5082,407
458,7	5197,247
459,2	5320,447
459,6	5442,047
460,1	5561,967
460,5	5685,007
461	5810,087
461,4	5921,807
461,9	6032,127
462,3	6158,487
462,8	6270,727
463,2	6400,327
463,7	6522,887
464,1	6655,327
464,6	6777,047
465	6895,367
465,5	7012,567
466	7121,687
466,4	7225,807
466,9	7332,687
467,3	7445,967
467,8	7537,647
468,2	7652,527
468,7	7759,647
469,1	7854,647
469,6	7939,727
470	8045,167
470,5	8140,807
470,9	8225,407
471,4	8325,927
471,8	8437,807
472,3	8522,367
472,7	8611,127
473,2	8719,207
473,6	8800,087
474,1	8878,327
474,5	8966,927
475	9045,927
475,4	9113,167
475,9	9188,447
476,4	9260,807
476,8	9327,607
477,3	9381,047
477,7	9440,487
478,2	9502,047
478,6	9552,847
479,1	9607,287
479,5	9666,687
480	9717,047
480,4	9772,247
480,9	9827,687
481,3	9867,647
481,8	9903,127
482,2	9933,207
482,7	9947,007
483,1	9962,807
483,6	9980,087
484	10003,927
484,5	10019,407
484,9	10036,767
485,4	10051,767
485,8	10067,487
486,3	10074,127
486,7	10083,087
487,2	10092,527
487,6	10093,687
488,1	10100,567
488,5	10093,327
489	10093,087
489,4	10087,327
489,9	10064,127
490,4	10035,607
490,8	10018,367
491,3	9977,607
491,7	9933,207
492,2	9918,007
492,6	9885,727
493,1	9846,927
493,5	9818,447
494	9775,727
494,4	9733,167
494,9	9693,327
495,3	9643,327
495,8	9600,807
496,2	9558,047
496,7	9513,927
497,1	9467,047
497,6	9421,087
498	9363,367
498,5	9327,647
498,9	9270,967
499,4	9211,007
499,8	9158,007
500,3	9111,887
500,7	9043,927
501,2	8983,167
501,6	8923,647
502,1	8861,687
502,5	8800,287
503	8736,367
503,4	8670,207
503,9	8604,367
504,3	8534,647
504,8	8457,247
505,2	8389,407
505,7	8327,607
506,1	8271,607
506,6	8206,007
507	8132,647
507,5	8064,767
507,9	7985,047
508,4	7901,767
508,8	7836,527
509,3	7766,087
509,7	7689,407
510,2	7632,767
510,6	7547,407
511,1	7464,607
511,5	7384,967
512	7298,167
512,4	7230,447
512,9	7162,927
513,3	7093,807
513,8	7030,287
514,2	6975,687
514,7	6874,807
515,1	6801,607
515,6	6723,727
516	6642,767
516,5	6554,847
516,9	6477,327
517,4	6410,167
517,8	6333,927
518,3	6259,807
518,7	6194,607
519,2	6123,247
519,6	6038,327
520,1	5973,487
520,5	5909,247
521	5843,247
521,4	5775,847
521,9	5712,207
522,3	5632,607
522,8	5564,167
523,2	5496,287
523,7	5429,247
524,1	5364,807
524,6	5295,807
525	5231,327
525,5	5148,167
525,9	5089,167
526,4	5019,447
526,8	4961,647
527,3	4894,807
527,7	4842,047
528,2	4777,927
528,6	4724,407
529,1	4664,247
529,5	4605,927
530	4550,767
530,4	4488,727
530,9	4423,447
531,3	4359,407
531,8	4303,847
532,2	4245,487
532,6	4191,567
533,1	4147,247
533,5	4107,247
534	4041,407
534,4	3991,447
534,9	3938,487
535,3	3882,647
535,8	3832,687
536,2	3787,087
536,7	3732,767
537,1	3678,607
537,6	3634,047
538	3581,567
538,5	3540,727
538,9	3500,847
539,4	3460,887
539,8	3414,487
540,3	3371,567
540,7	3320,487
541,2	3277,127
541,6	3231,647
542,1	3181,367
542,5	3138,767
543	3100,047
543,4	3055,527
543,9	3023,327
544,3	2982,887
544,8	2940,447
545,2	2898,287
545,7	2862,007
546,1	2819,367
546,5	2794,567
547	2754,487
547,4	2722,887
547,9	2685,647
548,3	2654,367
548,8	2619,167
549,2	2591,327
549,7	2562,887
550,1	2534,207
550,6	2503,087
551	2463,127
551,5	2426,327
551,9	2395,087
552,4	2364,647
552,8	2336,047
553,3	2310,527
553,7	2289,687
554,2	2255,007
554,6	2227,647
555,1	2196,647
555,5	2174,167
555,9	2153,167
556,4	2125,447
556,8	2101,207
557,3	2075,687
557,7	2048,647
558,2	2017,207
558,6	2004,967
559,1	1973,047
559,5	1952,847
560	1928,007
560,4	1902,287
560,9	1879,767
561,3	1863,807
561,8	1844,727
562,2	1824,887
562,7	1809,807
563,1	1784,647
563,6	1760,447
564	1738,407
564,4	1719,767
564,9	1696,887
565,3	1678,127
565,8	1660,567
566,2	1636,007
566,7	1613,407
567,1	1598,007
567,6	1581,047
568	1561,007
568,5	1549,927
568,9	1532,127
569,4	1513,767
569,8	1497,167
570,3	1485,047
570,7	1467,607
571,1	1455,047
571,6	1441,927
572	1427,047
572,5	1412,927
572,9	1398,687
573,4	1383,007
573,8	1365,527
574,3	1349,847
574,7	1333,887
575,2	1316,567
575,6	1299,647
576,1	1285,367
576,5	1267,807
576,9	1255,287
577,4	1244,687
577,8	1231,287
578,3	1214,047
578,7	1203,847
579,2	1184,927
579,6	1173,087
580,1	1160,127
580,5	1154,407
581	1141,167
581,4	1134,607
581,9	1121,167
582,3	1113,247
582,7	1100,127
583,2	1088,127
583,6	1071,327
584,1	1056,327
584,5	1043,807
585	1023,807
585,4	1018,407
585,9	1014,927
586,3	1004,927
586,8	995,167
587,2	992,367
587,6	976,607
588,1	961,887
588,5	953,287
589	940,447
589,4	928,607
589,9	923,007
590,3	917,247
590,8	907,407
591,2	897,487
591,7	894,527
592,1	888,207
592,5	878,727
593	872,087
593,4	869,127
593,9	853,447
594,3	839,247
594,8	827,767
595,2	813,647
595,7	801,567
596,1	802,527
596,6	799,167
597	796,127
597,4	795,207
597,9	789,407
598,3	782,567
598,8	775,807
599,2	771,207
599,7	767,207
600,1	767,847
600,6	756,847
601	751,927
601,4	747,807
601,9	737,047
602,3	722,887
602,8	714,847
603,2	705,047
603,7	698,447
604,1	695,167
604,6	694,807
605	695,647
605,4	680,407
605,9	669,007
606,3	666,647
606,8	657,047
607,2	646,087
607,7	652,687
608,1	652,927
608,6	647,487
609	646,207
609,4	644,727
609,9	636,887
610,3	623,687
610,8	615,687
611,2	597,727
611,7	588,047
612,1	578,887
612,6	577,127
613	575,607
613,4	580,847
613,9	582,007
614,3	579,047
614,8	574,287
615,2	564,447
615,7	556,687
616,1	542,927
616,6	540,527
617	534,927
617,4	535,087
617,9	538,807
618,3	544,247
618,8	538,047
619,2	539,367
619,7	536,127
620,1	521,087
620,5	509,567
621	511,367
621,4	505,047
621,9	494,927
622,3	493,287
622,8	498,487
623,2	487,727
623,6	487,807
624,1	485,687
624,5	479,607
625	460,767
625,4	454,927
625,9	444,407
626,3	446,887
626,8	447,247
627,2	448,607
627,6	450,327
628,1	447,407
628,5	434,807
629	433,447
629,4	431,207
629,9	425,327
630,3	420,047
630,7	415,247
631,2	413,407
631,6	414,167
632,1	410,567
632,5	414,727
633	415,527
633,4	405,047
633,8	397,167
634,3	392,727
634,7	381,407
635,2	375,727
635,6	372,807
636,1	375,927
636,5	383,167
636,9	380,807
637,4	380,007
637,8	380,047
638,3	370,687
638,7	358,447
639,2	356,007
639,6	351,207
640	343,407
640,5	347,487
640,9	346,807
641,4	344,767
641,8	344,087
642,2	349,567
642,7	340,287
643,1	342,847
643,6	336,847
644	332,047
644,5	330,247
644,9	332,447
645,3	322,607
645,8	322,327
646,2	319,647
646,7	312,967
647,1	310,927
647,6	311,687
648	312,687
648,4	313,407
648,9	313,127
649,3	301,567
649,8	296,567
650,2	293,887
650,6	284,407
651,1	283,047
651,5	285,687
652	286,887
652,4	286,007
652,9	287,127
653,3	285,767
653,7	285,967
654,2	286,927
654,6	286,407
655,1	286,687
655,5	283,447
655,9	280,887
656,4	269,967
656,8	267,927
657,3	264,127
657,7	265,287
658,2	262,487
658,6	261,887
659	260,167
659,5	258,567
659,9	248,407
660,4	248,047
660,8	250,647
661,2	243,207
661,7	239,487
662,1	240,567
662,6	235,127
663	226,847
663,4	228,327
663,9	225,127
664,3	226,527
664,8	227,607
665,2	233,127
665,6	236,047
666,1	239,087
666,5	233,607
667	235,647
667,4	227,447
667,9	220,367
668,3	218,807
668,7	220,647
669,2	214,967
669,6	213,327
670,1	210,487
670,5	209,047
670,9	206,287
671,4	212,327
671,8	213,127
672,3	211,127
672,7	211,647
673,1	205,607
673,6	196,727
674	196,167
674,5	193,167
674,9	184,887
675,3	187,567
675,8	184,887
676,2	180,927
676,7	183,207
677,1	186,767
677,5	185,847
678	183,927
678,4	185,327
678,9	178,927
679,3	176,687
679,7	175,367
680,2	173,287
680,6	171,007
681,1	165,607
681,5	166,727
681,9	168,447
682,4	170,487
682,8	170,367
683,3	177,647
683,7	171,447
684,1	160,607
684,6	164,407
685	162,607
685,5	152,887
685,9	155,927
686,3	155,967
686,8	145,607
687,2	138,967
687,7	143,327
688,1	143,127
688,5	146,247
689	145,567
689,4	147,487
689,9	145,367
690,3	137,407
690,7	131,767
691,2	130,887
691,6	131,447
692	130,967
692,5	132,687
692,9	132,767
693,4	130,607
693,8	126,927
694,2	126,247
694,7	121,207
695,1	122,727
695,6	121,767
696	121,247
696,4	117,887
696,9	125,327
697,3	125,527
697,8	125,807
698,2	128,487
698,6	129,647
699,1	124,007
699,5	122,127
699,9	121,807
700,4	120,167
700,8	120,047
701,3	115,007
701,7	112,127
702,1	108,447
702,6	101,247
703	102,087
703,5	105,247
703,9	103,847
704,3	108,647
704,8	108,687
705,2	104,247
705,6	113,327
706,1	109,447
706,5	101,527
707	105,727
707,4	104,687
707,8	87,167
708,3	93,167
708,7	95,527
709,2	87,367
709,6	87,047
710	89,407
710,5	81,407
710,9	74,567
711,3	80,207
711,8	81,087
712,2	86,047
712,7	85,807
713,1	97,007
713,5	94,647
714	91,367
714,4	86,367
714,8	91,127
715,3	82,207
715,7	83,487
716,2	78,767
716,6	78,727
717	78,727
717,5	79,647
717,9	78,127
718,3	82,007
718,8	83,167
719,2	77,207
719,7	77,487
720,1	79,647
720,5	73,087
721	68,887
721,4	73,167
721,8	69,287
722,3	62,527
722,7	61,767
723,2	61,767
723,6	60,007
724	64,247
724,5	64,327
724,9	70,607
725,3	67,047
725,8	66,807
726,2	58,967
726,7	60,047
727,1	60,167
727,5	64,807
728	58,207
728,4	61,767
728,8	61,127
729,3	61,127
729,7	58,687
730,1	58,127
730,6	57,887
731	60,247
731,5	57,487
731,9	56,847
732,3	59,047
732,8	54,527
733,2	45,807
733,6	46,327
734,1	45,887
734,5	48,887
734,9	53,607
735,4	57,007
735,8	56,927
736,3	54,887
736,7	46,407
737,1	46,487
737,6	47,847
738	44,607
738,4	44,647
738,9	49,247
739,3	47,407
739,7	41,727
740,2	40,807
740,6	41,407
741,1	41,207
741,5	40,447
741,9	46,207
742,4	49,007
742,8	48,767
743,2	47,487
743,7	44,887
744,1	46,047
744,5	43,807
745	47,127
745,4	48,647
745,8	54,327
746,3	49,687
746,7	46,127
747,2	44,607
747,6	42,727
748	36,007
748,5	39,807
748,9	41,567
749,3	36,127
749,8	36,207
750,2	32,527
750,6	27,287
751,1	26,327
751,5	32,807
751,9	30,247
752,4	36,167
752,8	38,047
753,3	34,127
753,7	30,727
754,1	30,087
754,6	32,487
755	29,207
755,4	33,087
755,9	31,967
756,3	31,327
756,7	32,167
757,2	31,047
757,6	32,887
758	34,607
758,5	34,687
758,9	30,327
759,3	33,727
759,8	29,487
760,2	22,087
760,6	21,407
761,1	19,327
761,5	18,007
761,9	21,367
762,4	21,207
762,8	20,807
763,3	18,527
763,7	18,727
764,1	17,047
764,6	21,367
765	24,367
765,4	26,567
765,9	25,567
766,3	20,647
766,7	17,007
767,2	16,807
767,6	15,087
768	16,007
768,5	17,807
768,9	17,567
769,3	14,087
769,8	10,647
770,2	8,447
770,6	9,407
771,1	7,287
771,5	6,207
771,9	11,567
772,4	10,647
772,8	12,527
773,2	15,367
773,7	18,407
774,1	18,287
774,5	15,967
775	12,967
775,4	13,167
775,8	14,247
776,3	10,607
776,7	16,447
777,1	14,287
777,6	14,207
778	7,647
778,4	14,447
778,9	10,287
779,3	9,127
779,7	9,207
780,2	15,207
780,6	7,687
781	10,127
781,5	12,367
781,9	2,847
782,3	-2,993
782,8	0,687
783,2	0,447
783,6	2,007
784,1	11,047
784,5	7,327
784,9	4,287
785,4	2,527
785,8	-1,633
786,2	-11,153
786,7	-2,753
787,1	-2,913
787,5	-6,233
788	-0,473
788,4	7,847
788,8	4,207
789,3	4,887
789,7	7,887
790,1	2,967
790,6	1,047
791	-3,113
791,4	0,687
791,9	-6,193
792,3	-5,513
792,7	-5,833
793,2	-0,393
793,6	-3,673
794	2,727
794,5	1,487
794,9	2,687
795,3	-2,633
795,8	-1,873
796,2	-3,233
796,6	-6,033
797,1	-9,913
797,5	-7,473
797,9	-8,193
798,4	-9,793
798,8	-1,953
799,2	2,727
799,7	2,687
800,1	2,247
800,5	1,727
801	-6,033
801,4	-7,033
801,8	-6,833
802,2	-4,753
802,7	-1,113
803,1	-4,473
803,5	-8,153
804	-6,673
804,4	-11,073
804,8	-19,113
805,3	-7,473
805,7	-4,033
806,1	-4,113
806,6	-1,793
807	1,887
807,4	-5,713
807,9	-5,113
808,3	-9,593
808,7	-14,593
809,2	-10,073
809,6	-13,833
810	-17,953
810,4	-19,313
810,9	-21,113
811,3	-29,553
811,7	-26,073
812,2	-23,713
812,6	-25,953
813	-20,953
813,5	-15,273
813,9	-14,193
814,3	-13,833
814,8	-8,953
815,2	-17,873
815,6	-24,233
816,1	-25,553
816,5	-25,073
816,9	-20,673
817,3	-14,033
817,8	-8,353
818,2	-8,393
818,6	-8,753
819,1	-14,433
819,5	-13,593
819,9	-18,193
820,4	-16,153
820,8	-18,233
821,2	-19,433
821,7	-13,793
822,1	-13,073
822,5	-16,393
822,9	-20,073
823,4	-15,913
823,8	-22,113
824,2	-21,913
824,7	-19,833
825,1	-12,753
825,5	-14,433
826	-18,953
826,4	-21,673
826,8	-22,753
827,3	-26,673
827,7	-31,673
828,1	-25,433
828,5	-26,793
829	-22,273
829,4	-28,353
829,8	-26,953
830,3	-27,833
830,7	-19,353
831,1	-30,513
831,6	-24,553
832	-24,473
832,4	-25,593
832,8	-28,953
833,3	-18,873
833,7	-14,873
834,1	-11,553
834,6	-13,633
835	-11,953
835,4	-13,353
835,8	-16,353
836,3	-18,033
836,7	-16,553
837,1	-22,353
837,6	-24,353
838	-29,153
838,4	-32,353
838,9	-37,273
839,3	-35,673
839,7	-35,153
840,1	-26,993
840,6	-25,273
841	-19,673
841,4	-17,473
841,9	-21,473
842,3	-26,393
842,7	-26,313
843,1	-23,473
843,6	-27,673
844	-25,353
844,4	-26,753
844,9	-27,673
845,3	-27,433
845,7	-22,753
846,2	-25,873
846,6	-20,713
847	-24,873
847,4	-35,633
847,9	-36,193
848,3	-35,473
848,7	-42,313
849,2	-38,553
849,6	-36,553
850	-34,513
850,4	-34,353
850,9	-31,833
851,3	-27,073
851,7	-27,153
852,2	-31,833
852,6	-32,593
853	-33,553
853,4	-33,953
853,9	-32,353
854,3	-26,713
854,7	-21,633
855,2	-23,473
855,6	-26,753
856	-26,833
856,4	-31,153
856,9	-34,033
857,3	-36,193
857,7	-34,073
858,2	-33,513
858,6	-34,753
859	-36,233
859,4	-27,633
859,9	-29,113
860,3	-25,273
860,7	-22,753
861,1	-20,793
861,6	-25,153
862	-28,113
862,4	-30,593
862,9	-31,473
863,3	-32,753
863,7	-31,153
864,1	-27,033
864,6	-26,593
865	-26,073
865,4	-26,073
865,9	-28,353
866,3	-33,833
866,7	-35,753
867,1	-35,913
867,6	-40,033
868	-39,753
868,4	-35,753
868,8	-34,913
869,3	-35,633
869,7	-33,713
870,1	-37,433
870,6	-43,193
871	-43,473
871,4	-69,673
871,8	-71,193
872,3	-70,673
872,7	-64,713
873,1	-61,473
873,5	-34,993
874	-31,513
874,4	-28,913
874,8	-32,633
875,3	-35,353
875,7	-33,473
876,1	-35,233
876,5	-40,313
877	-35,193
877,4	-35,833
877,8	-39,513
878,2	-36,073
878,7	-28,633
879,1	-24,633
879,5	-28,033
879,9	-29,273
880,4	-29,913
880,8	-32,153
881,2	-40,153
881,7	-38,113
882,1	-34,913
882,5	-38,873
882,9	-38,593
883,4	-36,433
883,8	-38,753
884,2	-40,433
884,6	-36,633
885,1	-35,513
885,5	-32,153
885,9	-31,033
886,3	-30,953
886,8	-29,233
887,2	-31,873
887,6	-35,393
888	-41,033
888,5	-43,033
888,9	-42,753
889,3	-41,953
889,8	-43,473
890,2	-39,353
890,6	-32,633
891	-34,633
891,5	-32,193
891,9	-33,793
892,3	-29,713
892,7	-35,073
893,2	-33,433
893,6	-37,713
894	-35,913
894,4	-40,233
894,9	-39,353
895,3	-37,313
895,7	-33,593
896,1	-31,833
896,6	-32,993
897	-36,233
897,4	-40,273
897,8	-37,473
898,3	-37,913
898,7	-27,673
899,1	-28,513
899,5	-30,353
900	-39,953
900,4	-34,473
900,8	-44,793
901,2	-42,553
901,7	-37,313
902,1	-33,433
902,5	-39,073
902,9	-34,993
903,4	-31,953
903,8	-38,313
904,2	-34,273
904,6	-39,673
905,1	-35,153
905,5	-36,873
905,9	-37,433
906,3	-39,193
906,8	-31,153
907,2	-38,913
907,6	-39,753
908	-36,913
908,5	-42,673
908,9	-48,273
909,3	-49,833
909,7	-50,833
910,2	-50,753
910,6	-49,873
911	-47,113
911,4	-45,793
911,9	-42,873
912,3	-41,753
912,7	-41,993
913,1	-40,873
913,6	-40,193
914	-42,113
914,4	-48,633
914,8	-50,313
915,3	-54,993
915,7	-51,393
916,1	-54,273
916,5	-44,793
916,9	-39,793
917,4	-33,593
917,8	-32,193
918,2	-26,593
918,6	-34,313
919,1	-29,593
919,5	-35,793
919,9	-36,793
920,3	-37,393
920,8	-35,993
921,2	-43,433
921,6	-43,313
922	-49,833
922,5	-47,793
922,9	-50,273
923,3	-43,273
923,7	-41,473
924,2	-38,753
924,6	-43,433
925	-39,313
925,4	-43,273
925,8	-47,113
926,3	-46,513
926,7	-46,673
927,1	-38,633
927,5	-40,793
928	-39,193
928,4	-37,233
928,8	-37,153
929,2	-48,393
929,7	-41,673
930,1	-30,513
930,5	-28,473
930,9	-29,233
931,3	-26,753
931,8	-34,313
932,2	-40,313
932,6	-45,073
933	-43,313
933,5	-44,473
933,9	-40,073
934,3	-47,993
934,7	-46,833
935,2	-45,833
935,6	-46,633
936	-52,233
936,4	-47,513
936,8	-46,953
937,3	-45,873
937,7	-42,593
938,1	-41,673
938,5	-43,633
939	-46,113
939,4	-48,233
939,8	-47,193
940,2	-47,913
940,6	-50,153
941,1	-48,793
941,5	-46,793
941,9	-51,033
942,3	-46,593
942,8	-43,393
943,2	-36,513
943,6	-44,473
944	-43,873
944,4	-47,633
944,9	-46,593
945,3	-53,593
945,7	-54,353
946,1	-58,513
946,6	-63,113
947	-61,473
947,4	-57,873
947,8	-48,753
948,2	-42,113
948,7	-34,673
949,1	-30,753
949,5	-32,473
949,9	-33,473
950,3	-35,633
950,8	-37,313
951,2	-42,153
951,6	-41,833
952	-41,993
952,5	-39,953
952,9	-37,593
953,3	-43,073
953,7	-41,033
954,1	-42,953
954,6	-44,033
955	-40,113
955,4	-38,633
955,8	-40,473
956,2	-44,513
956,7	-48,393
957,1	-54,473
957,5	-55,513
957,9	-56,873
958,3	-50,113
958,8	-43,833
959,2	-41,353
959,6	-42,273
960	-44,113
960,5	-45,793
960,9	-52,273
961,3	-55,753
961,7	-47,033
962,1	-43,353
962,6	-40,073
963	-35,873
963,4	-29,553
963,8	-31,713
964,2	-38,233
964,7	-39,153
965,1	-42,953
965,5	-49,793
965,9	-51,513
966,3	-40,633
966,8	-41,313
967,2	-40,153
967,6	-38,793
968	-41,313
968,4	-45,913
968,9	-47,313
969,3	-42,753
969,7	-43,393
970,1	-44,713
970,5	-46,033
971	-43,673
971,4	-43,073
971,8	-41,313
972,2	-38,633
972,6	-40,873
973,1	-44,353
973,5	-49,753
973,9	-53,393
974,3	-54,953
974,7	-52,833
975,2	-52,673
975,6	-51,433
976	-50,633
976,4	-45,953
976,8	-39,873
977,3	-40,913
977,7	-40,233
978,1	-36,793
978,5	-36,153
978,9	-45,033
979,4	-39,233
979,8	-38,593
980,2	-36,873
980,6	-40,473
981	-36,473
981,5	-38,193
981,9	-36,193
982,3	-38,753
982,7	-36,913
983,1	-38,273
983,6	-36,713
984	-34,313
984,4	-36,353
984,8	-41,313
985,2	-41,313
985,6	-46,273
986,1	-56,713
986,5	-54,153
986,9	-47,833
987,3	-51,953
987,7	-47,673
988,2	-43,953
988,6	-42,193
989	-45,633
989,4	-49,473
989,8	-55,593
990,3	-56,473
990,7	-61,473
991,1	-56,633
991,5	-49,633
991,9	-45,633
992,3	-46,513
992,8	-41,673
993,2	-44,753
993,6	-37,193
994	-41,433
994,4	-39,273
994,9	-35,513
995,3	-36,433
995,7	-45,433
996,1	-43,953
996,5	-40,673
996,9	-50,593
997,4	-55,793
997,8	-62,433
998,2	-58,593
998,6	-61,153
999	-58,873
999,5	-57,113
999,9	-50,033
1000,3	-53,753
1000,7	-55,913
1001,1	-54,553
1001,5	-51,233
1002	-52,513
1002,4	-53,833
1002,8	-51,113
1003,2	-50,113
1003,6	-47,833
1004	-40,993
1004,5	-44,153
1004,9	-44,313
1005,3	-51,433
1005,7	-55,193
1006,1	-57,993
1006,6	-50,113
1007	-51,113
1007,4	-47,473
1007,8	-45,913
1008,2	-45,713
1008,6	-47,673
1009,1	-50,913
1009,5	-50,313
1009,9	-54,633
1010,3	-54,633
1010,7	-57,833
1011,1	-52,033
1011,6	-45,953
1012	-39,273
1012,4	-39,793
1012,8	-36,153
1013,2	-39,873
1013,6	-47,993
1014,1	-47,673
1014,5	-47,433
1014,9	-48,153
1015,3	-47,553
1015,7	-45,473
1016,1	-51,993
1016,6	-55,633
1017	-59,233
1017,4	-52,913
1017,8	-48,913
1018,2	-41,113
1018,6	-40,393
1019,1	-40,393
1019,5	-41,313
1019,9	-43,673
1020,3	-47,753
1020,7	-48,713
1021,1	-45,633
1021,6	-48,153
1022	-43,913
1022,4	-40,033
1022,8	-37,793
1023,2	-39,553
1023,6	-43,353
1024,1	-47,753
1024,5	-54,633
1024,9	-60,313
1025,3	-61,873
1025,7	-56,353
1026,1	-57,033
1026,6	-53,473
1027	-46,993
1027,4	-43,313
1027,8	-48,273
1028,2	-46,473
1028,6	-42,473
1029	-46,273
1029,5	-49,073
1029,9	-45,993
1030,3	-49,993
1030,7	-52,633
1031,1	-53,193
1031,5	-56,993
1032	-59,113
1032,4	-56,273
1032,8	-61,233
1033,2	-62,113
1033,6	-56,953
1034	-56,113
1034,4	-62,233
1034,9	-58,993
1035,3	-57,273
1035,7	-58,993
1036,1	-60,753
1036,5	-54,753
1036,9	-55,193
1037,4	-53,033
1037,8	-51,713
1038,2	-51,473
1038,6	-50,553
1039	-53,833
1039,4	-56,513
1039,8	-60,633
1040,3	-64,353
1040,7	-68,113
1041,1	-60,473
1041,5	-60,673
1041,9	-52,073
1042,3	-47,313
1042,7	-45,513
1043,2	-49,193
1043,6	-43,833
1044	-50,753
1044,4	-49,913
1044,8	-44,953
1045,2	-47,753
1045,6	-51,353
1046,1	-49,073
1046,5	-49,673
1046,9	-60,073
1047,3	-56,713
1047,7	-60,193
1048,1	-61,753
1048,5	-68,993
1049	-62,193
1049,4	-63,513
1049,8	-60,673
1050,2	-53,753
1050,6	-40,473
1051	-37,233
1051,4	-35,673
1051,9	-39,713
1052,3	-47,433
1052,7	-59,553
1053,1	-63,273
1053,5	-73,193
1053,9	-67,953
1054,3	-73,153
1054,8	-69,153
1055,2	-69,353
1055,6	-62,913
1056	-61,393
1056,4	-57,993
1056,8	-56,033
1057,2	-52,353
1057,6	-46,433
1058,1	-46,553
1058,5	-47,433
1058,9	-50,113
1059,3	-52,233
1059,7	-56,553
1060,1	-60,633
1060,5	-59,513
1061	-57,153
1061,4	-59,793
1061,8	-56,993
1062,2	-55,593
1062,6	-56,113
1063	-59,313
1063,4	-56,713
1063,8	-59,393
1064,3	-53,273
1064,7	-46,233
1065,1	-42,593
1065,5	-38,833
1065,9	-39,593
1066,3	-44,313
1066,7	-48,033
1067,1	-48,713
1067,6	-50,793
1068	-48,793
1068,4	-47,913
1068,8	-48,753
1069,2	-45,473
1069,6	-49,673
1070	-48,073
1070,4	-54,073
1070,9	-58,553
1071,3	-61,673
1071,7	-57,193
1072,1	-62,113
1072,5	-57,233
1072,9	-54,753
1073,3	-53,833
1073,7	-58,553
1074,2	-61,033
1074,6	-60,193
1075	-56,433
1075,4	-55,033
1075,8	-57,273
1076,2	-58,753
1076,6	-59,633
1077	-58,313
1077,5	-61,633
1077,9	-54,313
1078,3	-48,353
1078,7	-42,273
1079,1	-44,473
1079,5	-40,633
1079,9	-42,553
1080,3	-41,353
1080,7	-42,473
1081,2	-43,313
1081,6	-42,833
1082	-44,393
1082,4	-42,433
1082,8	-44,913
1083,2	-41,713
1083,6	-45,673
1084	-41,033
1084,5	-41,353
1084,9	-44,793
1085,3	-47,193
1085,7	-45,353
1086,1	-50,313
1086,5	-53,713
1086,9	-53,393
1087,3	-55,193
1087,7	-52,513
1088,2	-47,393
1088,6	-46,833
1089	-44,833
1089,4	-43,553
1089,8	-49,753
1090,2	-58,633
1090,6	-54,793
1091	-56,833
1091,4	-54,233
1091,9	-49,233
1092,3	-46,153
1092,7	-46,833
1093,1	-43,313
1093,5	-46,593
1093,9	-46,993
1094,3	-44,673
1094,7	-46,233
1095,1	-44,233
1095,5	-44,153
1096	-43,833
1096,4	-41,793
1096,8	-39,513
1097,2	-40,153
1097,6	-32,793
1098	-30,913
1098,4	-30,193
1098,8	-29,073
1099,2	-27,153
1099,6	-31,313
1100,1	-31,153
1100,5	-28,633
1100,9	-29,473
1101,3	-29,713
1101,7	-31,553
1102,1	-33,353
1102,5	-38,313
1102,9	-38,593
1103,3	-43,873
1103,7	-39,353
1104,2	-40,113
1104,6	-37,673
1105	-35,153
1105,4	-32,233
1105,8	-32,593
1106,2	-23,713
1106,6	-18,033
1107	-13,793
1107,4	-6,313
1107,8	0,117
1108,3	-0,5
