Data from Subt2_00095.txt Node
Date: Fri Aug 11 16:55:17 MSK 2023
User: vat
Spectrometer: MAYP114033
Trigger mode: 0
Integration Time (sec): 5,000000E-1
Scans to average: 5
Electric dark correction enabled: true
Nonlinearity correction enabled: false
Boxcar width: 2
XAxis mode: Wavelengths
Number of Pixels in Spectrum: 2068
>>>>>Begin Spectral Data<<<<<
199,4	1,5
199,9	0,75
200,4	-1,54
200,8	-3,94
201,3	-7,26
201,8	-9,54
202,2	-13,54
202,7	-11,98
203,2	-9,98
203,6	-11,22
204,1	-11,46
204,6	-9,66
205	-13,14
205,5	-15,54
206	-16,82
206,4	-19,34
206,9	-19,06
207,4	-19,74
207,8	-21,18
208,3	-15,86
208,8	-12,7
209,2	-12,9
209,7	-13,7
210,2	-11,42
210,6	-15,66
211,1	-18,7
211,5	-19,26
212	-16,3
212,5	-17,98
212,9	-20,98
213,4	-21,66
213,9	-23,46
214,3	-25,34
214,8	-26,22
215,3	-21,94
215,7	-27,82
216,2	-25,22
216,7	-28,66
217,1	-29,5
217,6	-32,62
218,1	-25,1
218,5	-23,7
219	-18,94
219,5	-18,62
219,9	-17,46
220,4	-14,82
220,9	-17,18
221,3	-16,1
221,8	-16,3
222,3	-15,18
222,7	-19,06
223,2	-20,34
223,6	-20,5
224,1	-17,26
224,6	-13,9
225	-11,42
225,5	-14,9
226	-15,98
226,4	-25,58
226,9	-28,98
227,4	-32,78
227,8	-31,58
228,3	-40,7
228,8	-31,06
229,2	-35,1
229,7	-35,86
230,2	-28,94
230,6	-24,54
231,1	-25,86
231,5	-16,98
232	-10,26
232,5	-13,78
232,9	-8,98
233,4	-9,42
233,9	-14,46
234,3	-14,74
234,8	-15,66
235,3	-13,5
235,7	-18,3
236,2	-18,94
236,7	-19,46
237,1	-15,18
237,6	-15,82
238,1	-8,74
238,5	-8,26
239	-15,3
239,4	-19,3
239,9	-15,86
240,4	-14,98
240,8	-12,98
241,3	-6,1
241,8	-10,38
242,2	-17,1
242,7	-22,02
243,2	-26,34
243,6	-33,74
244,1	-33,7
244,6	-34,66
245	-34,78
245,5	-35,3
245,9	-27,38
246,4	-21,86
246,9	-17,9
247,3	-19,14
247,8	-22,62
248,3	-25,06
248,7	-26,62
249,2	-30,38
249,7	-30,66
250,1	-23,3
250,6	-24,3
251	-29,42
251,5	-26,7
252	-22,34
252,4	-20,82
252,9	-18,7
253,4	-15,38
253,8	-12,78
254,3	-14,06
254,8	-15,74
255,2	-16,54
255,7	-14,38
256,1	-22,22
256,6	-21,7
257,1	-24,82
257,5	-28,58
258	-25,74
258,5	-22,78
258,9	-24,06
259,4	-21,98
259,9	-18,94
260,3	-22,02
260,8	-16,62
261,2	-11,1
261,7	-14,82
262,2	-20,42
262,6	-18,22
263,1	-22,78
263,6	-24,3
264	-23,14
264,5	-19,34
264,9	-22,5
265,4	-24,94
265,9	-27,86
266,3	-25,34
266,8	-23,26
267,3	-22,66
267,7	-18,74
268,2	-16,82
268,7	-13,62
269,1	-12,34
269,6	-10,1
270	-15,22
270,5	-19,06
271	-19,38
271,4	-22,82
271,9	-27,02
272,4	-23,98
272,8	-27,54
273,3	-32,06
273,7	-25,3
274,2	-21,78
274,7	-18,66
275,1	-14,62
275,6	-10,78
276,1	-20,94
276,5	-23,38
277	-25,5
277,4	-21,18
277,9	-21,54
278,4	-19,94
278,8	-15,62
279,3	-17,86
279,8	-21,14
280,2	-18,02
280,7	-14,02
281,1	-19,94
281,6	-22,38
282,1	-25,74
282,5	-32,66
283	-31,38
283,4	-26,38
283,9	-21,58
284,4	-15,06
284,8	-20,46
285,3	-20,3
285,8	-26,58
286,2	-27,26
286,7	-32,14
287,1	-24,3
287,6	-24,5
288,1	-17,1
288,5	-18,38
289	-20,7
289,5	-19,82
289,9	-22,46
290,4	-24,78
290,8	-22,9
291,3	-23,46
291,8	-19,66
292,2	-18,26
292,7	-21,7
293,1	-23,62
293,6	-13,06
294,1	-25,78
294,5	-27,5
295	-22,06
295,5	-20,58
295,9	-28,94
296,4	-17,58
296,8	-18,18
297,3	-21,78
297,8	-18,86
298,2	-17,9
298,7	-23,38
299,1	-25,46
299,6	-28,14
300,1	-33,38
300,5	-29,22
301	-28,9
301,5	-23,38
301,9	-22,98
302,4	-23,94
302,8	-26,62
303,3	-25,06
303,8	-29,3
304,2	-25,98
304,7	-16,94
305,1	-16,58
305,6	-19,78
306,1	-17,42
306,5	-19,5
307	-22,18
307,4	-21,3
307,9	-19,94
308,4	-20,1
308,8	-18,54
309,3	-18,22
309,8	-19,46
310,2	-21,98
310,7	-24,1
311,1	-32,66
311,6	-39,94
312,1	-38,5
312,5	-35,3
313	-33,38
313,4	-23,3
313,9	-18,54
314,4	-23,86
314,8	-31,18
315,3	-31,02
315,7	-30,82
316,2	-30,66
316,7	-32,66
317,1	-28,3
317,6	-30,86
318	-28,9
318,5	-25,3
319	-27,18
319,4	-19,22
319,9	-18,1
320,3	-20,18
320,8	-27,94
321,3	-17,86
321,7	-20,02
322,2	-20,5
322,6	-25,9
323,1	-24,66
323,6	-26,54
324	-26,86
324,5	-24,94
324,9	-22,74
325,4	-24,54
325,9	-26,7
326,3	-25,46
326,8	-23,9
327,2	-19,38
327,7	-16,62
328,2	-18,46
328,6	-19,54
329,1	-22,58
329,5	-25,46
330	-23,58
330,5	-19,9
330,9	-21,54
331,4	-26,82
331,8	-30,94
332,3	-28,06
332,8	-25,94
333,2	-25,9
333,7	-14,42
334,1	-12,34
334,6	-20,5
335,1	-21,66
335,5	-22,7
336	-24,86
336,4	-27,02
336,9	-19,42
337,4	-24,5
337,8	-21,02
338,3	-17,42
338,7	-8,3
339,2	-9,9
339,7	-6,14
340,1	-8,66
340,6	-10,38
341	-12,14
341,5	-11,14
342	-14,74
342,4	-11,22
342,9	-17,18
343,3	-19,78
343,8	-17,9
344,2	-6,14
344,7	-11,02
345,2	-9,58
345,6	-9,06
346,1	-12,18
346,5	-17,7
347	-14,5
347,5	-10,14
347,9	-4,94
348,4	1,66
348,8	0,9
349,3	4,98
349,8	6,46
350,2	6,7
350,7	4,94
351,1	11,02
351,6	15,66
352	25,34
352,5	34,98
353	56,1
353,4	79,22
353,9	100,14
354,3	124,38
354,8	148,22
355,3	177,02
355,7	215,38
356,2	267,3
356,6	325,62
357,1	400,38
357,5	475,74
358	561,62
358,5	655,22
358,9	763,7
359,4	880,46
359,8	1018,94
360,3	1169,06
360,8	1344,98
361,2	1533,98
361,7	1751,5
362,1	1987,14
362,6	2242,94
363	2503,22
363,5	2784,26
364	3076,26
364,4	3371,22
364,9	3678,14
365,3	3987,74
365,8	4274,1
366,3	4544,42
366,7	4781,02
367,2	4977,82
367,6	5134,1
368,1	5260,22
368,5	5321,46
369	5359,94
369,5	5344,02
369,9	5292,1
370,4	5189,42
370,8	5057,14
371,3	4888,7
371,7	4705,78
372,2	4483,66
372,7	4253,1
373,1	4022,82
373,6	3773,18
374	3520,38
374,5	3281,58
374,9	3053,9
375,4	2818,98
375,9	2605,9
376,3	2400,9
376,8	2203,42
377,2	2012,58
377,7	1849,5
378,2	1688,86
378,6	1531,42
379,1	1395,02
379,5	1271,7
380	1156,3
380,4	1047,74
380,9	960,34
381,4	872,78
381,8	798,26
382,3	723,38
382,7	661,98
383,2	600,82
383,6	554,86
384,1	506,54
384,6	468,38
385	429,34
385,5	395,74
385,9	363,7
386,4	338,46
386,8	312,18
387,3	288,62
387,7	270,98
388,2	251,78
388,7	228,34
389,1	208,34
389,6	191,94
390	170,82
390,5	155,46
390,9	140,02
391,4	126,34
391,9	112,86
392,3	100,74
392,8	90,06
393,2	81,34
393,7	77,62
394,1	72,38
394,6	67,9
395,1	56,66
395,5	56,06
396	52,62
396,4	48,06
396,9	45,18
397,3	44,26
397,8	34,54
398,2	27,74
398,7	26,58
399,2	21,66
399,6	16,38
400,1	15,66
400,5	14,46
401	10,46
401,4	10,14
401,9	14,06
402,4	13,74
402,8	6,78
403,3	7,06
403,7	7,06
404,2	7,54
404,6	5,54
405,1	9,46
405,5	5,86
406	4,34
406,5	0,5
406,9	-2,14
407,4	-2,38
407,8	3,5
408,3	3,86
408,7	9,98
409,2	11,62
409,6	16,9
410,1	18,54
410,6	24,66
411	18,18
411,5	17,86
411,9	15,14
412,4	15,94
412,8	18,1
413,3	24,82
413,7	28,78
414,2	31,22
414,7	29,22
415,1	28,14
415,6	22,86
416	24,54
416,5	18,86
416,9	18,94
417,4	18,1
417,8	27,9
418,3	33,98
418,8	40,22
419,2	44,02
419,7	44,7
420,1	44,9
420,6	43,9
421	44,7
421,5	42,98
421,9	42,82
422,4	39,82
422,8	35,42
423,3	38,18
423,8	37,66
424,2	39,98
424,7	38,18
425,1	38,3
425,6	41,38
426	41,5
426,5	39,66
426,9	35,46
427,4	43,86
427,9	39,9
428,3	41,1
428,8	45,14
429,2	53,86
429,7	49,66
430,1	47,18
430,6	51,78
431	47,34
431,5	45,82
431,9	45,82
432,4	44,54
432,8	40,74
433,3	38,86
433,8	42,98
434,2	38,06
434,7	43,46
435,1	42,5
435,6	44,06
436	38,18
436,5	43,86
436,9	42,9
437,4	47,14
437,8	47,06
438,3	46,86
438,8	37,82
439,2	39,54
439,7	37,06
440,1	41,14
440,6	40,38
441	44,58
441,5	42,78
441,9	41,1
442,4	37,26
442,8	38,98
443,3	47,38
443,7	48,46
444,2	52,86
444,7	59,9
445,1	65,22
445,6	61,02
446	64,66
446,5	57,7
446,9	53,9
447,4	54,74
447,8	53,86
448,3	54,46
448,7	65,18
449,2	69,46
449,6	69,22
450,1	73,06
450,6	70,74
451	67,18
451,5	64,9
451,9	64,62
452,4	70,38
452,8	71,98
453,3	78,62
453,7	81,5
454,2	82,34
454,6	74,86
455,1	72,82
455,5	71,22
456	66,58
456,4	68,7
456,9	72,22
457,3	71,66
457,8	68,22
458,3	69,06
458,7	64,02
459,2	66,26
459,6	69,02
460,1	67,74
460,5	75,54
461	75,82
461,4	75,74
461,9	72,7
462,3	71,94
462,8	72,86
463,2	77,34
463,7	77,46
464,1	81,86
464,6	81,78
465	80,9
465,5	76,42
466	76,34
466,4	76,38
466,9	83,9
467,3	76,82
467,8	76,06
468,2	73,7
468,7	69,66
469,1	64,3
469,6	70,5
470	76,82
470,5	72,66
470,9	76,98
471,4	76,46
471,8	78,18
472,3	76,54
472,7	87,42
473,2	84,58
473,6	91,58
474,1	85,34
474,5	84,54
475	84,42
475,4	90,54
475,9	88,1
476,4	87,9
476,8	88,34
477,3	84,82
477,7	85,86
478,2	88,26
478,6	93,1
479,1	92,1
479,5	92,9
480	86,42
480,4	80,86
480,9	83,98
481,3	89,18
481,8	86,46
482,2	89,22
482,7	87,78
483,1	82,58
483,6	79,9
484	83,42
484,5	84,42
484,9	87,98
485,4	90,38
485,8	89,38
486,3	84,14
486,7	80,42
487,2	86,98
487,6	86,22
488,1	81,7
488,5	78,74
489	82,38
489,4	74,06
489,9	72,3
490,4	80,98
490,8	84,38
491,3	87,22
491,7	90,14
492,2	92,42
492,6	92,94
493,1	93,06
493,5	88,38
494	84,78
494,4	82,42
494,9	78,86
495,3	76,22
495,8	76,22
496,2	81,5
496,7	81,74
497,1	80,9
497,6	82,94
498	83,58
498,5	77,86
498,9	77,78
499,4	70,62
499,8	76,3
500,3	74,98
500,7	79,02
501,2	83,82
501,6	90,66
502,1	84,9
502,5	83,06
503	76,42
503,4	69,18
503,9	69,5
504,3	65,66
504,8	66,7
505,2	70,98
505,7	69,82
506,1	68,14
506,6	75,78
507	76,86
507,5	74,74
507,9	76,38
508,4	76,06
508,8	69,58
509,3	65,5
509,7	63,14
510,2	64,3
510,6	65,3
511,1	63,86
511,5	62,14
512	59,42
512,4	59,94
512,9	56,42
513,3	58,1
513,8	65,46
514,2	72,18
514,7	68,54
515,1	67,86
515,6	75,14
516	72,1
516,5	72,3
516,9	73,7
517,4	73,38
517,8	68,34
518,3	67,7
518,7	68,58
519,2	69,66
519,6	68,74
520,1	69,98
520,5	70,26
521	65,34
521,4	67,74
521,9	68,62
522,3	67,1
522,8	66,42
523,2	68,14
523,7	69,06
524,1	72,14
524,6	76,66
525	77,9
525,5	78,34
525,9	75,66
526,4	66,46
526,8	57,22
527,3	54,54
527,7	50,3
528,2	45,98
528,6	57,74
529,1	60,02
529,5	66,5
530	70,86
530,4	71,66
530,9	65,86
531,3	69,54
531,8	61,94
532,2	56,86
532,6	58,98
533,1	61,1
533,5	51,86
534	54,9
534,4	57,18
534,9	60,3
535,3	60,98
535,8	63,98
536,2	66,02
536,7	63,22
537,1	61,54
537,6	63,94
538	71,86
538,5	72,58
538,9	79,62
539,4	77,26
539,8	75,3
540,3	69,02
540,7	65,1
541,2	60,54
541,6	59,18
542,1	55,7
542,5	59,46
543	55,54
543,4	58,62
543,9	60,3
544,3	64,18
544,8	62,86
545,2	71,22
545,7	69,58
546,1	71,9
546,5	68,58
547	66,66
547,4	61,66
547,9	57,94
548,3	54,46
548,8	52,14
549,2	49,78
549,7	44,18
550,1	48,58
550,6	43,7
551	43,22
551,5	43,7
551,9	48,14
552,4	41,34
552,8	46,42
553,3	45,5
553,7	52,26
554,2	50,94
554,6	59,78
555,1	58,3
555,5	64,74
555,9	60,9
556,4	61,1
556,8	49,66
557,3	47,98
557,7	46,78
558,2	42,82
558,6	42,34
559,1	50,22
559,5	51,9
560	49,98
560,4	50,82
560,9	51,82
561,3	49,86
561,8	55,54
562,2	56,1
562,7	54,5
563,1	59,62
563,6	56,06
564	52,5
564,4	51,9
564,9	56,98
565,3	47,66
565,8	47,18
566,2	46,66
566,7	47,02
567,1	41,66
567,6	43,46
568	48,7
568,5	45,46
568,9	41,82
569,4	50,26
569,8	49,18
570,3	50,34
570,7	54,86
571,1	51,58
571,6	45,38
572	52,9
572,5	46,7
572,9	46,38
573,4	52,42
573,8	51,98
574,3	46,18
574,7	49,34
575,2	53,22
575,6	50,9
576,1	58,86
576,5	57,1
576,9	58,22
577,4	44,46
577,8	41,18
578,3	35,18
578,7	40,38
579,2	45,58
579,6	51,18
580,1	52,62
580,5	43,14
581	43,22
581,4	36,18
581,9	36,62
582,3	39,54
582,7	49,98
583,2	48,82
583,6	50,98
584,1	48,86
584,5	51,3
585	48,5
585,4	42,98
585,9	37,62
586,3	41,42
586,8	39,46
587,2	37,14
587,6	44,5
588,1	45,18
588,5	42,58
589	39,14
589,4	40,22
589,9	37,46
590,3	36,94
590,8	38,98
591,2	39,38
591,7	42,9
592,1	40,94
592,5	45,46
593	39,5
593,4	42,22
593,9	41,54
594,3	42,26
594,8	36,46
595,2	39,74
595,7	39,62
596,1	36,46
596,6	38,18
597	44,78
597,4	43,1
597,9	45,14
598,3	45,78
598,8	38,38
599,2	33,1
599,7	28,9
600,1	18,06
600,6	15,46
601	17,3
601,4	18,78
601,9	23,58
602,3	25,98
602,8	22,78
603,2	26,06
603,7	20,7
604,1	20,18
604,6	23,62
605	27,5
605,4	24,82
605,9	32,82
606,3	36,18
606,8	38,58
607,2	36,38
607,7	39,22
608,1	33,46
608,6	31,66
609	34,1
609,4	40,86
609,9	42,9
610,3	43,66
610,8	40,14
611,2	33,34
611,7	29,02
612,1	24,18
612,6	21,18
613	19,22
613,4	18,74
613,9	17,66
614,3	10,82
614,8	13,74
615,2	18,86
615,7	17,82
616,1	15,74
616,6	22,98
617	23,58
617,4	19,66
617,9	15,26
618,3	15,62
618,8	14,5
619,2	15,9
619,7	15,06
620,1	19,5
620,5	23,18
621	17,1
621,4	16,22
621,9	13,02
622,3	13,06
622,8	7,94
623,2	6,74
623,6	4,18
624,1	5,06
624,5	4,22
625	4,78
625,4	9,42
625,9	11,86
626,3	10,9
626,8	10,26
627,2	11,78
627,6	5,86
628,1	5,06
628,5	9,14
629	9,06
629,4	4,02
629,9	10,3
630,3	8,14
630,7	6,62
631,2	2,3
631,6	6,9
632,1	9,58
632,5	11,7
633	13,38
633,4	23,1
633,8	19,14
634,3	17,14
634,7	11,82
635,2	15,62
635,6	7,46
636,1	9,26
636,5	11,74
636,9	15,46
637,4	13,7
637,8	18,9
638,3	16,82
638,7	13,06
639,2	11,98
639,6	9,02
640	7,02
640,5	9,78
640,9	15,58
641,4	18,7
641,8	14,34
642,2	13,26
642,7	9,86
643,1	4,42
643,6	0,18
644	3,86
644,5	6,02
644,9	9,94
645,3	7,22
645,8	3,94
646,2	8,1
646,7	2,02
647,1	7,66
647,6	6,98
648	12,82
648,4	7,74
648,9	11,14
649,3	2,94
649,8	6,34
650,2	5,94
650,6	0,82
651,1	4,42
651,5	0,14
652	-2,86
652,4	-0,46
652,9	-0,02
653,3	-5,3
653,7	-2,54
654,2	-3,54
654,6	-5,18
655,1	-4,06
655,5	-5,34
655,9	-3,46
656,4	-8,06
656,8	-10,26
657,3	-10,62
657,7	-8,42
658,2	-12,98
658,6	-5,18
659	-5,5
659,5	-3,82
659,9	-4,5
660,4	6,26
660,8	5,54
661,2	6,62
661,7	5,58
662,1	1,7
662,6	-6,46
663	-8,02
663,4	-12,54
663,9	-11,82
664,3	-3,18
664,8	-3,18
665,2	-2,66
665,6	8,5
666,1	8,46
666,5	6,26
667	12,02
667,4	11,78
667,9	6,26
668,3	5,02
668,7	1,54
669,2	-11,22
669,6	-6,58
670,1	-5,02
670,5	-2,86
670,9	-1,14
671,4	2,42
671,8	-2,7
672,3	-8,58
672,7	-6,42
673,1	-4,02
673,6	-2,54
674	-4,22
674,5	-12,26
674,9	-12,22
675,3	-16,58
675,8	-15,02
676,2	-11,06
676,7	-1,66
677,1	-5,26
677,5	-7,66
678	-9,62
678,4	-10,58
678,9	-15,98
679,3	-15,82
679,7	-12,66
680,2	-11,3
680,6	-18,18
681,1	-7,14
681,5	-7,74
681,9	-8,5
682,4	-3,78
682,8	5,34
683,3	-2,54
683,7	-3,02
684,1	0,78
684,6	-3,58
685	-11,66
685,5	-11,82
685,9	-11,42
686,3	-14,98
686,8	-17,26
687,2	-14,3
687,7	-18,26
688,1	-21,54
688,5	-18,86
689	-14,54
689,4	-10,7
689,9	-9,02
690,3	-4,7
690,7	-7,78
691,2	-10,98
691,6	-15,94
692	-14,74
692,5	-10,82
692,9	-15,18
693,4	-11,9
693,8	-4,98
694,2	-5,06
694,7	-6,78
695,1	-4,5
695,6	-5,06
696	-9,38
696,4	-8,78
696,9	-8,66
697,3	-7,02
697,8	-4,34
698,2	-1,54
698,6	0,1
699,1	-0,1
699,5	3,7
699,9	0,3
700,4	-4,66
700,8	-1,14
701,3	-6,58
701,7	-8,3
702,1	-6,38
702,6	-9,7
703	-16,7
703,5	-15,7
703,9	-18,46
704,3	-17,66
704,8	-12,82
705,2	-8,9
705,6	-9,18
706,1	-10,78
706,5	-19,02
707	-15,02
707,4	-16,26
707,8	-15,42
708,3	-15,9
708,7	-9,5
709,2	-12,38
709,6	-13,34
710	-13,3
710,5	-9,02
710,9	-9,98
711,3	-13,06
711,8	-12,22
712,2	-10,46
712,7	-15,94
713,1	-18,42
713,5	-13,46
714	-18,22
714,4	-18,46
714,8	-12,86
715,3	-12,86
715,7	-12,02
716,2	-9,66
716,6	-9,14
717	-14,66
717,5	-13,22
717,9	-16,3
718,3	-19,82
718,8	-16,46
719,2	-14,86
719,7	-15,1
720,1	-16,98
720,5	-13,06
721	-22,58
721,4	-20,3
721,8	-19,54
722,3	-14,34
722,7	-11,58
723,2	-7,66
723,6	-10,78
724	-15,22
724,5	-23,02
724,9	-25,82
725,3	-21,62
725,8	-16,66
726,2	-14,74
726,7	-14,62
727,1	-9,7
727,5	-15,14
728	-17,9
728,4	-17,22
728,8	-14,46
729,3	-18,14
729,7	-18,38
730,1	-19,7
730,6	-20,9
731	-24,98
731,5	-23,58
731,9	-22,18
732,3	-16,66
732,8	-19,1
733,2	-20,3
733,6	-18,94
734,1	-15,22
734,5	-24,94
734,9	-20,26
735,4	-15,62
735,8	-18,38
736,3	-16,14
736,7	-9,54
737,1	-14,46
737,6	-10,9
738	-9,42
738,4	-9,46
738,9	-13,38
739,3	-9,78
739,7	-16,7
740,2	-19,82
740,6	-24,42
741,1	-24,62
741,5	-19,94
741,9	-14,54
742,4	-12,5
742,8	-13,7
743,2	-11,14
743,7	-16,22
744,1	-22,1
744,5	-22,7
745	-24,1
745,4	-23,02
745,8	-24,54
746,3	-26,18
746,7	-27,46
747,2	-25,66
747,6	-25,34
748	-20,86
748,5	-14,78
748,9	-13,06
749,3	-17,34
749,8	-16,58
750,2	-16,3
750,6	-21,06
751,1	-21,18
751,5	-18,78
751,9	-18,7
752,4	-24,3
752,8	-19,98
753,3	-19,62
753,7	-16,18
754,1	-11,62
754,6	-6,1
755	-6,06
755,4	-3,22
755,9	-6,38
756,3	-12,18
756,7	-13,9
757,2	-14,58
757,6	-23,34
758	-17,98
758,5	-15,38
758,9	-11,3
759,3	-12,9
759,8	-5,82
760,2	-10,46
760,6	-9,1
761,1	-14,34
761,5	-11,34
761,9	-13,14
762,4	-13,9
762,8	-19,22
763,3	-18,42
763,7	-22,26
764,1	-23,54
764,6	-21,66
765	-17,9
765,4	-15,42
765,9	-19,38
766,3	-20,82
766,7	-22,02
767,2	-24,38
767,6	-27,26
768	-16,3
768,5	-19,62
768,9	-20,86
769,3	-18,58
769,8	-15,7
770,2	-23,18
770,6	-10,9
771,1	-7,58
771,5	-8,62
771,9	-8,9
772,4	-5,82
772,8	-13,3
773,2	-16,86
773,7	-17,5
774,1	-21,42
774,5	-25,74
775	-27,9
775,4	-28,06
775,8	-28,62
776,3	-23,98
776,7	-22,98
777,1	-21,86
777,6	-22,14
778	-19,06
778,4	-18,14
778,9	-12,58
779,3	-8,54
779,7	-8,38
780,2	-12,62
780,6	-16,74
781	-19,38
781,5	-21,58
781,9	-21,74
782,3	-21,86
782,8	-28,78
783,2	-32,22
783,6	-32,46
784,1	-31,9
784,5	-34,46
784,9	-28,94
785,4	-21,54
785,8	-22,98
786,2	-21,9
786,7	-16,82
787,1	-12,46
787,5	-18,86
788	-19,14
788,4	-17,94
788,8	-18,86
789,3	-27,3
789,7	-26,02
790,1	-24,54
790,6	-22,82
791	-26,58
791,4	-20,06
791,9	-22,5
792,3	-26,54
792,7	-30,58
793,2	-32,22
793,6	-34,74
794	-29,82
794,5	-27,02
794,9	-26,34
795,3	-20,38
795,8	-19,34
796,2	-19,82
796,6	-18,06
797,1	-17,3
797,5	-19,46
797,9	-18,66
798,4	-22,46
798,8	-19,38
799,2	-22,7
799,7	-24,94
800,1	-27,14
800,5	-27,26
801	-26,74
801,4	-23,86
801,8	-20,06
802,2	-16,14
802,7	-7,34
803,1	-13,22
803,5	-14,34
804	-12,14
804,4	-13,9
804,8	-20,02
805,3	-21,22
805,7	-21,1
806,1	-28,1
806,6	-27,46
807	-31,62
807,4	-29,38
807,9	-25,06
808,3	-22,66
808,7	-29,3
809,2	-25,3
809,6	-23,94
810	-23,78
810,4	-24,98
810,9	-19,18
811,3	-20,78
811,7	-25,5
812,2	-28,26
812,6	-26,58
813	-28,06
813,5	-26,7
813,9	-26,62
814,3	-24,78
814,8	-18,86
815,2	-13,22
815,6	-17,7
816,1	-19,46
816,5	-20,98
816,9	-24,06
817,3	-28,9
817,8	-25,1
818,2	-18,3
818,6	-14,7
819,1	-23,18
819,5	-21,62
819,9	-25,42
820,4	-24,14
820,8	-25,5
821,2	-16,14
821,7	-19,9
822,1	-18,78
822,5	-25,5
822,9	-25,5
823,4	-29,02
823,8	-28,14
824,2	-24,58
824,7	-23,58
825,1	-26,58
825,5	-24,58
826	-25,7
826,4	-24,38
826,8	-22,34
827,3	-19,7
827,7	-20,74
828,1	-19,62
828,5	-21,62
829	-23,06
829,4	-26,34
829,8	-25,82
830,3	-21,06
830,7	-22,38
831,1	-14,58
831,6	-16,18
832	-19,14
832,4	-19,1
832,8	-15,06
833,3	-22,58
833,7	-15,3
834,1	-16,22
834,6	-16,62
835	-20,46
835,4	-18,02
835,8	-23,3
836,3	-19,98
836,7	-20,9
837,1	-18,7
837,6	-14,5
838	-9,06
838,4	-7,9
838,9	-8,78
839,3	-6,14
839,7	-4,7
840,1	-6,66
840,6	-9,86
841	-12,82
841,4	-15,7
841,9	-25,5
842,3	-30,66
842,7	-30,86
843,1	-32,18
843,6	-35,58
844	-31,1
844,4	-27,86
844,9	-24,9
845,3	-22,14
845,7	-16,1
846,2	-15,02
846,6	-16,78
847	-18,18
847,4	-20,94
847,9	-23,02
848,3	-21,82
848,7	-18,46
849,2	-19,98
849,6	-16,66
850	-17,5
850,4	-24,66
850,9	-22,26
851,3	-20,38
851,7	-23,38
852,2	-29,46
852,6	-28,3
853	-31,62
853,4	-32,78
853,9	-29,78
854,3	-20,78
854,7	-18,06
855,2	-18,5
855,6	-22,46
856	-20,54
856,4	-22,42
856,9	-19,78
857,3	-23,42
857,7	-18,7
858,2	-19,54
858,6	-21,54
859	-20,22
859,4	-18,02
859,9	-20,3
860,3	-22,46
860,7	-26,38
861,1	-29,98
861,6	-32,98
862	-26,46
862,4	-29,82
862,9	-25,34
863,3	-27,46
863,7	-24,94
864,1	-28,3
864,6	-20,94
865	-18,34
865,4	-18,9
865,9	-21,02
866,3	-21,54
866,7	-26,22
867,1	-24,7
867,6	-23,94
868	-24,14
868,4	-25,78
868,8	-21,1
869,3	-15,14
869,7	-15,14
870,1	-10,7
870,6	-8,26
871	-8,22
871,4	-83,1
871,8	-78,86
872,3	-83,58
872,7	-89,06
873,1	-87,58
873,5	-22,9
874	-27,46
874,4	-21,18
874,8	-19,26
875,3	-23,42
875,7	-22,58
876,1	-16,42
876,5	-22,7
877	-21,18
877,4	-20,3
877,8	-16,5
878,2	-20,86
878,7	-10,5
879,1	-9,82
879,5	-7,86
879,9	-11,5
880,4	-9,1
880,8	-15,66
881,2	-15,9
881,7	-19,18
882,1	-22,3
882,5	-25,86
882,9	-23,74
883,4	-21,74
883,8	-16,26
884,2	-13,3
884,6	-12,26
885,1	-16,14
885,5	-20,14
885,9	-27,42
886,3	-30,58
886,8	-32,34
887,2	-32,3
887,6	-30,74
888	-27,18
888,5	-22,02
888,9	-14,22
889,3	-18,46
889,8	-17,9
890,2	-21,26
890,6	-21,58
891	-27,26
891,5	-20,5
891,9	-19,58
892,3	-20,14
892,7	-22,14
893,2	-20,5
893,6	-24,58
894	-24,38
894,4	-24,06
894,9	-23,02
895,3	-21,74
895,7	-18,46
896,1	-15,66
896,6	-13,74
897	-9,34
897,4	-20,02
897,8	-19,26
898,3	-22,78
898,7	-23,46
899,1	-29,38
899,5	-27,46
900	-30,42
900,4	-31,1
900,8	-32,5
901,2	-29,58
901,7	-22,66
902,1	-22,22
902,5	-19,22
902,9	-18,74
903,4	-20,38
903,8	-20,5
904,2	-23,46
904,6	-24,3
905,1	-23,7
905,5	-24,5
905,9	-26,5
906,3	-26,1
906,8	-29,34
907,2	-27,3
907,6	-29,14
908	-25,82
908,5	-23,9
908,9	-23,82
909,3	-29,22
909,7	-27,94
910,2	-26,22
910,6	-24,14
911	-23,42
911,4	-19,66
911,9	-20,9
912,3	-27,02
912,7	-26,3
913,1	-22,34
913,6	-23,26
914	-25,14
914,4	-22,74
914,8	-25,58
915,3	-28,78
915,7	-27,78
916,1	-22,5
916,5	-22,22
916,9	-20,18
917,4	-16,06
917,8	-19,18
918,2	-19,22
918,6	-21,34
919,1	-20,42
919,5	-24,62
919,9	-20,5
920,3	-20,7
920,8	-14,1
921,2	-12,54
921,6	-13,14
922	-12,74
922,5	-14,3
922,9	-18,86
923,3	-20,46
923,7	-20,94
924,2	-28,58
924,6	-28,38
925	-23,02
925,4	-25,86
925,8	-20,7
926,3	-19,62
926,7	-21,22
927,1	-21,82
927,5	-20,18
928	-22,98
928,4	-20,62
928,8	-17,58
929,2	-22,98
929,7	-21,5
930,1	-19,66
930,5	-16,22
930,9	-16,58
931,3	-18,38
931,8	-20,62
932,2	-24,02
932,6	-28,1
933	-33,18
933,5	-30,26
933,9	-31,62
934,3	-30,94
934,7	-23,3
935,2	-14,3
935,6	-18,02
936	-20,26
936,4	-22,02
936,8	-24,54
937,3	-28,1
937,7	-24,42
938,1	-23,46
938,5	-20,34
939	-20,62
939,4	-21,42
939,8	-22,26
940,2	-21,86
940,6	-19,46
941,1	-18,1
941,5	-18,38
941,9	-18,14
942,3	-13,22
942,8	-15,86
943,2	-17,46
943,6	-18,06
944	-18,14
944,4	-23,18
944,9	-24,38
945,3	-27,26
945,7	-21,42
946,1	-23,38
946,6	-22,66
947	-21,62
947,4	-21,18
947,8	-27,7
948,2	-26,9
948,7	-20,42
949,1	-23,26
949,5	-24,66
949,9	-25,02
950,3	-22,62
950,8	-27,18
951,2	-28,98
951,6	-24,78
952	-25,62
952,5	-27,34
952,9	-28,34
953,3	-25,18
953,7	-25,3
954,1	-24,98
954,6	-20,3
955	-24,1
955,4	-22,78
955,8	-26,46
956,2	-23,9
956,7	-29,58
957,1	-21,54
957,5	-19,06
957,9	-12,26
958,3	-17,9
958,8	-15,78
959,2	-13,46
959,6	-16,42
960	-14,58
960,5	-11,22
960,9	-16,42
961,3	-17,3
961,7	-17,62
962,1	-20,18
962,6	-13,82
963	-10,5
963,4	-17,66
963,8	-17,38
964,2	-21,66
964,7	-20,9
965,1	-16,38
965,5	-15,94
965,9	-14,46
966,3	-16,5
966,8	-21,78
967,2	-30,42
967,6	-29,62
968	-31,18
968,4	-29,54
968,9	-33,7
969,3	-24,34
969,7	-24,18
970,1	-25,3
970,5	-22,54
971	-19,14
971,4	-23,54
971,8	-27,86
972,2	-27,02
972,6	-29,06
973,1	-30,22
973,5	-32,22
973,9	-28,62
974,3	-29,5
974,7	-28,74
975,2	-19,78
975,6	-15,82
976	-15,86
976,4	-9,3
976,8	-8,66
977,3	-17,22
977,7	-18,5
978,1	-19,94
978,5	-23,62
978,9	-26,9
979,4	-24,26
979,8	-24,38
980,2	-23,06
980,6	-21,74
981	-20,94
981,5	-25,62
981,9	-23,02
982,3	-18,86
982,7	-29,78
983,1	-28,18
983,6	-24,54
984	-28,54
984,4	-33,86
984,8	-29,78
985,2	-28,26
985,6	-33,98
986,1	-29,58
986,5	-24,7
986,9	-24,1
987,3	-23,3
987,7	-20,82
988,2	-24,7
988,6	-27,02
989	-22,26
989,4	-30,14
989,8	-27,58
990,3	-30,06
990,7	-31,9
991,1	-30,74
991,5	-24,58
991,9	-24,18
992,3	-24,18
992,8	-24,7
993,2	-33,18
993,6	-33,5
994	-29,18
994,4	-26,82
994,9	-28,06
995,3	-24,82
995,7	-23,62
996,1	-25,7
996,5	-26,5
996,9	-20,62
997,4	-15,54
997,8	-17,54
998,2	-19,34
998,6	-21,3
999	-22,74
999,5	-25,66
999,9	-25,3
1000,3	-30,18
1000,7	-24,86
1001,1	-29,42
1001,5	-30,78
1002	-32,22
1002,4	-29,62
1002,8	-31,58
1003,2	-26,26
1003,6	-27,7
1004	-32,82
1004,5	-30,06
1004,9	-28,5
1005,3	-33,1
1005,7	-25,26
1006,1	-20,98
1006,6	-20,94
1007	-19,62
1007,4	-15,26
1007,8	-18,74
1008,2	-17,14
1008,6	-12,66
1009,1	-16,38
1009,5	-16,5
1009,9	-22,46
1010,3	-24,54
1010,7	-31,14
1011,1	-26,18
1011,6	-28,1
1012	-22,42
1012,4	-19,06
1012,8	-13,02
1013,2	-16,42
1013,6	-18,42
1014,1	-19,82
1014,5	-21,66
1014,9	-29,9
1015,3	-30,98
1015,7	-24,46
1016,1	-19,22
1016,6	-16,7
1017	-12,74
1017,4	-11,06
1017,8	-14,94
1018,2	-23,38
1018,6	-22,06
1019,1	-28,02
1019,5	-35,38
1019,9	-41,34
1020,3	-39,3
1020,7	-45,26
1021,1	-38,94
1021,6	-35,62
1022	-30,66
1022,4	-31,42
1022,8	-25,06
1023,2	-28,94
1023,6	-26,7
1024,1	-25,42
1024,5	-23,66
1024,9	-24,58
1025,3	-25,1
1025,7	-28,02
1026,1	-30,94
1026,6	-30,1
1027	-30,34
1027,4	-26,78
1027,8	-24,9
1028,2	-23,02
1028,6	-26,22
1029	-26,38
1029,5	-24,82
1029,9	-23,14
1030,3	-22,94
1030,7	-20,26
1031,1	-26,02
1031,5	-29,02
1032	-27,62
1032,4	-27,74
1032,8	-25,14
1033,2	-23,74
1033,6	-19,38
1034	-21,86
1034,4	-25,62
1034,9	-25,3
1035,3	-28,54
1035,7	-29,26
1036,1	-34,94
1036,5	-32,26
1036,9	-36,22
1037,4	-37,9
1037,8	-44,78
1038,2	-38,3
1038,6	-40,58
1039	-42,58
1039,4	-35,5
1039,8	-32,66
1040,3	-34,14
1040,7	-34,58
1041,1	-33,22
1041,5	-35,3
1041,9	-35,5
1042,3	-38,02
1042,7	-33,26
1043,2	-31,78
1043,6	-31,1
1044	-25,02
1044,4	-24,66
1044,8	-27,62
1045,2	-26,9
1045,6	-21,02
1046,1	-26,5
1046,5	-29,86
1046,9	-26,22
1047,3	-28,5
1047,7	-38,26
1048,1	-33,62
1048,5	-24,22
1049	-26,98
1049,4	-25,94
1049,8	-25,38
1050,2	-23,78
1050,6	-23,3
1051	-24,42
1051,4	-26,66
1051,9	-21,34
1052,3	-27,18
1052,7	-35,26
1053,1	-31,26
1053,5	-28,66
1053,9	-26,42
1054,3	-27,5
1054,8	-27,66
1055,2	-28,78
1055,6	-32,78
1056	-34,26
1056,4	-32,82
1056,8	-27,5
1057,2	-27,5
1057,6	-23,46
1058,1	-24,22
1058,5	-29,26
1058,9	-25,3
1059,3	-24,58
1059,7	-26,22
1060,1	-22,3
1060,5	-16,54
1061	-17,34
1061,4	-18,58
1061,8	-20,78
1062,2	-34,02
1062,6	-37,94
1063	-39,74
1063,4	-41,3
1063,8	-37,98
1064,3	-25,94
1064,7	-26,86
1065,1	-29,9
1065,5	-25,58
1065,9	-26,22
1066,3	-33,5
1066,7	-25,5
1067,1	-19,66
1067,6	-27,86
1068	-27,82
1068,4	-22,58
1068,8	-31,34
1069,2	-36,14
1069,6	-32,02
1070	-30,54
1070,4	-30,78
1070,9	-18,58
1071,3	-22,18
1071,7	-21,5
1072,1	-24,5
1072,5	-25,46
1072,9	-32,98
1073,3	-26,9
1073,7	-21,14
1074,2	-18,1
1074,6	-19,98
1075	-23,62
1075,4	-27,26
1075,8	-31,98
1076,2	-25,66
1076,6	-22,38
1077	-18,78
1077,5	-18,86
1077,9	-18,94
1078,3	-27,22
1078,7	-29,02
1079,1	-27,7
1079,5	-23,3
1079,9	-21,26
1080,3	-15,42
1080,7	-11,38
1081,2	-13,18
1081,6	-12,54
1082	-9,26
1082,4	-11,86
1082,8	-13,94
1083,2	-13,46
1083,6	-17,54
1084	-19,02
1084,5	-22,62
1084,9	-22,94
1085,3	-20,06
1085,7	-16,46
1086,1	-19,62
1086,5	-18,62
1086,9	-20,58
1087,3	-20,54
1087,7	-24,34
1088,2	-24,74
1088,6	-19,46
1089	-21,58
1089,4	-23,18
1089,8	-17,82
1090,2	-17,34
1090,6	-26,54
1091	-22,5
1091,4	-24,9
1091,9	-29,22
1092,3	-31,62
1092,7	-23,3
1093,1	-27,14
1093,5	-24,3
1093,9	-18,86
1094,3	-16,62
1094,7	-18,82
1095,1	-17,02
1095,5	-15,02
1096	-18,18
1096,4	-16,78
1096,8	-13,9
1097,2	-10,94
1097,6	-19,18
1098	-23,22
1098,4	-26,34
1098,8	-31,1
1099,2	-31,54
1099,6	-24,82
1100,1	-23,82
1100,5	-20,14
1100,9	-18,94
1101,3	-20,54
1101,7	-22,82
1102,1	-17,34
1102,5	-18,14
1102,9	-16,74
1103,3	-14,82
1103,7	-9,86
1104,2	-15,42
1104,6	-15,78
1105	-15,94
1105,4	-17,1
1105,8	-20,46
1106,2	-14,66
1106,6	-10,5
1107	-7,5
1107,4	-3,98
1107,8	-0
1108,3	-0,167
