Data from Subt2_00044.txt Node
Date: Fri Aug 11 16:04:25 MSK 2023
User: vat
Spectrometer: MAYP114033
Trigger mode: 0
Integration Time (sec): 5,000000E-1
Scans to average: 5
Electric dark correction enabled: true
Nonlinearity correction enabled: false
Boxcar width: 2
XAxis mode: Wavelengths
Number of Pixels in Spectrum: 2068
>>>>>Begin Spectral Data<<<<<
199,4	-1,7
199,9	-0,6
200,4	-3,58
200,8	-2,02
201,3	-5,38
201,8	-5,98
202,2	-2,94
202,7	-0,06
203,2	-1,42
203,6	-0,7
204,1	-0,9
204,6	-7,1
205	-9,22
205,5	-9,58
206	-4,78
206,4	-5,14
206,9	-1,02
207,4	-0,7
207,8	-0,58
208,3	-1,9
208,8	-2,38
209,2	-7,14
209,7	-6,26
210,2	-2,18
210,6	-5,94
211,1	-2,46
211,5	1,74
212	-0,7
212,5	-2,86
212,9	-3,58
213,4	-9,22
213,9	-10,9
214,3	-8,02
214,8	-10,06
215,3	-9,54
215,7	-8,06
216,2	-3,58
216,7	-7,22
217,1	-8,14
217,6	-7,22
218,1	-10,14
218,5	-17,3
219	-11,42
219,5	-7,94
219,9	-6,66
220,4	-3,62
220,9	2,1
221,3	-2,14
221,8	-1,26
222,3	-2,58
222,7	-3,98
223,2	-5,98
223,6	-8,38
224,1	-15,02
224,6	-13,1
225	-10,66
225,5	-10,94
226	-6,66
226,4	-5,5
226,9	-6,7
227,4	-5,5
227,8	-9,46
228,3	-15,06
228,8	-16,86
229,2	-17,86
229,7	-24,3
230,2	-19,74
230,6	-15,9
231,1	-12,46
231,5	-14,42
232	-11,54
232,5	-12,7
232,9	-15,7
233,4	-16,02
233,9	-15,18
234,3	-10,82
234,8	-9,14
235,3	-3,98
235,7	-4,1
236,2	-0,7
236,7	-5,02
237,1	-13,34
237,6	-14,22
238,1	-14,94
238,5	-20,98
239	-20,82
239,4	-16,7
239,9	-11,58
240,4	-10,94
240,8	-9,1
241,3	-7,82
241,8	-4,54
242,2	-10,62
242,7	-9,3
243,2	-7,38
243,6	-8,26
244,1	-9,22
244,6	-5,46
245	-4,9
245,5	-5,34
245,9	-1,66
246,4	0,82
246,9	-4,62
247,3	-7,1
247,8	-8,02
248,3	-8,06
248,7	-14,42
249,2	-16,18
249,7	-16,02
250,1	-14,98
250,6	-16,9
251	-16,86
251,5	-16,66
252	-20,06
252,4	-23,14
252,9	-22,34
253,4	-19,1
253,8	-13,98
254,3	-8,94
254,8	-9,22
255,2	-6,9
255,7	-5,38
256,1	-9,58
256,6	-11,22
257,1	-6,9
257,5	-8,14
258	-6,66
258,5	-2,9
258,9	-3,66
259,4	0,78
259,9	-3,66
260,3	-4,78
260,8	-2,62
261,2	-0,86
261,7	-1,14
262,2	-2,3
262,6	-4,38
263,1	-4,22
263,6	-6,78
264	-12,06
264,5	-12,98
264,9	-16,94
265,4	-19,66
265,9	-15,74
266,3	-15,74
266,8	-9,1
267,3	-4,26
267,7	-7,06
268,2	-4,06
268,7	-1,86
269,1	-2,62
269,6	-7,94
270	-1,82
270,5	-10,14
271	-12,98
271,4	-16,62
271,9	-9,7
272,4	-11,74
272,8	-10,94
273,3	-12,62
273,7	-5,18
274,2	-4,42
274,7	-10,74
275,1	-4,98
275,6	0,26
276,1	-1,94
276,5	-7,98
277	-0,7
277,4	-5,42
277,9	-10,5
278,4	-15,3
278,8	-16,26
279,3	-15,26
279,8	-16,82
280,2	-16,3
280,7	-16,34
281,1	-9,82
281,6	-16,5
282,1	-8,14
282,5	-6,58
283	-5,74
283,4	-8,94
283,9	-7,14
284,4	-13,06
284,8	-9,74
285,3	-9,62
285,8	-9,66
286,2	-6,74
286,7	-9,14
287,1	-12,3
287,6	-10,34
288,1	-4,1
288,5	-3,98
289	-0,22
289,5	-0,22
289,9	2,86
290,4	0,34
290,8	-0,14
291,3	-3,22
291,8	-0,62
292,2	-7,06
292,7	-9,14
293,1	-13,58
293,6	-10,38
294,1	-10,82
294,5	-13,7
295	-10,54
295,5	-2,62
295,9	-6,26
296,4	-8,18
296,8	-1,62
297,3	-7,78
297,8	-11,06
298,2	-13,22
298,7	-11,26
299,1	-13,7
299,6	-7,82
300,1	-6,54
300,5	-3,62
301	-2,18
301,5	-4,78
301,9	-10,34
302,4	-12,54
302,8	-16,18
303,3	-19,5
303,8	-18,62
304,2	-21,42
304,7	-24,34
305,1	-21,5
305,6	-22,06
306,1	-17,9
306,5	-14,46
307	-12,18
307,4	-11,14
307,9	-13,86
308,4	-14,82
308,8	-9,54
309,3	-4,62
309,8	-4,38
310,2	1,42
310,7	1,54
311,1	-10,1
311,6	-15,06
312,1	-13,86
312,5	-19,18
313	-20,62
313,4	-17,22
313,9	-14,7
314,4	-12,42
314,8	-8,86
315,3	-5,22
315,7	-3,26
316,2	-7,54
316,7	-8,5
317,1	-9,46
317,6	-16,3
318	-11,42
318,5	-9,3
319	-13,7
319,4	-19,5
319,9	-13,14
320,3	-14,1
320,8	-7,18
321,3	-0,14
321,7	6,98
322,2	3,26
322,6	2,7
323,1	-6,42
323,6	-7,78
324	-5,78
324,5	-11,18
324,9	-10,58
325,4	-6,62
325,9	-4,86
326,3	-3,46
326,8	-1,62
327,2	-9,06
327,7	-8,06
328,2	-16,54
328,6	-20,14
329,1	-16,74
329,5	-7,22
330	-11,54
330,5	-11,78
330,9	-13,18
331,4	-11,9
331,8	-17,14
332,3	-14,7
332,8	-11,62
333,2	-16,74
333,7	-15,34
334,1	-15,62
334,6	-19,02
335,1	-17,02
335,5	-8,14
336	-5,06
336,4	-2,94
336,9	0,74
337,4	-2,22
337,8	-3,38
338,3	-6,46
338,7	-7,62
339,2	-7,98
339,7	-3,46
340,1	-3,98
340,6	-5,54
341	-9,34
341,5	-12,78
342	-12,98
342,4	-14,62
342,9	-13,5
343,3	-11,82
343,8	-9,38
344,2	-11,46
344,7	-7,18
345,2	-7,7
345,6	-8,98
346,1	-5,62
346,5	-0,78
347	-7,62
347,5	-12,1
347,9	-7,06
348,4	-9,34
348,8	-13,54
349,3	-9,66
349,8	-6,58
350,2	-4,82
350,7	-6,94
351,1	-3,78
351,6	-0,74
352	-0,42
352,5	3,98
353	4,18
353,4	3,7
353,9	4,82
354,3	7,58
354,8	3,5
355,3	15,5
355,7	16,34
356,2	20,9
356,6	30,9
357,1	40,7
357,5	46,46
358	64,66
358,5	82,58
358,9	97,06
359,4	112,3
359,8	127,54
360,3	148,3
360,8	165,62
361,2	196,06
361,7	224,82
362,1	260,86
362,6	291,66
363	331,14
363,5	363,62
364	401,38
364,4	447,78
364,9	495,74
365,3	542,86
365,8	586,58
366,3	633,62
366,7	666,54
367,2	698,3
367,6	725,1
368,1	749,62
368,5	761,3
369	764,42
369,5	760,46
369,9	757,74
370,4	739,98
370,8	730,34
371,3	713,7
371,7	685,34
372,2	650,22
372,7	619,42
373,1	578,18
373,6	539,54
374	511,26
374,5	479,06
374,9	450,86
375,4	423,54
375,9	398,14
376,3	369,82
376,8	343,42
377,2	310,7
377,7	284,3
378,2	261,06
378,6	230,62
379,1	205,14
379,5	192,3
380	169,58
380,4	148,18
380,9	142,22
381,4	131,54
381,8	120,78
382,3	117,38
382,7	110,58
383,2	99,18
383,6	95,5
384,1	84,3
384,6	77,38
385	70,38
385,5	70,94
385,9	64,94
386,4	58,98
386,8	50,3
387,3	50,26
387,7	41,22
388,2	30,42
388,7	32,06
389,1	26,02
389,6	17,9
390	13,7
390,5	15,02
390,9	11,1
391,4	16,1
391,9	15,5
392,3	19,5
392,8	18,38
393,2	15,7
393,7	19,06
394,1	17,78
394,6	16,82
395,1	14,18
395,5	12,98
396	8,9
396,4	4,22
396,9	4,58
397,3	5,82
397,8	10,9
398,2	9,02
398,7	15,86
399,2	14,02
399,6	11,14
400,1	8,22
400,5	6,02
401	6,26
401,4	2,82
401,9	4,3
402,4	3,34
402,8	5,22
403,3	-0,66
403,7	-1,82
404,2	2,22
404,6	-3,1
405,1	-4,42
405,5	1,1
406	5,02
406,5	1,94
406,9	8,78
407,4	10,62
407,8	10,22
408,3	14,02
408,7	16,82
409,2	19,14
409,6	20,78
410,1	25,06
410,6	29,1
411	30,1
411,5	33,62
411,9	42,38
412,4	48,34
412,8	47,9
413,3	54,18
413,7	59,46
414,2	54,98
414,7	56,26
415,1	62,94
415,6	61,54
416	65,66
416,5	70,78
416,9	75,42
417,4	75,82
417,8	81,74
418,3	83,38
418,8	92,86
419,2	100,86
419,7	110,26
420,1	118,74
420,6	119,22
421	124,42
421,5	128,38
421,9	132,98
422,4	143,62
422,8	157,18
423,3	162,86
423,8	170,02
424,2	181,82
424,7	187,02
425,1	196,9
425,6	207,18
426	217,7
426,5	226,06
426,9	241,06
427,4	254,42
427,9	271,18
428,3	279,38
428,8	290,3
429,2	306,22
429,7	321,3
430,1	337,46
430,6	359,82
431	380,86
431,5	397,42
431,9	413,58
432,4	433,14
432,8	462,98
433,3	490,54
433,8	512,54
434,2	544,22
434,7	569,86
435,1	592,86
435,6	621,46
436	657,9
436,5	686,66
436,9	717,02
437,4	757,78
437,8	790,54
438,3	829,62
438,8	868,78
439,2	911,74
439,7	942,5
440,1	982,58
440,6	1009,9
441	1055,66
441,5	1104,06
441,9	1153,34
442,4	1202,34
442,8	1268,46
443,3	1312,54
443,7	1362,46
444,2	1421,82
444,7	1478,62
445,1	1537,98
445,6	1601,74
446	1663,42
446,5	1728,38
446,9	1797,3
447,4	1860,9
447,8	1935,18
448,3	2010,86
448,7	2079,7
449,2	2152,58
449,6	2232,7
450,1	2307,54
450,6	2390,42
451	2465,42
451,5	2546,82
451,9	2620,9
452,4	2713,22
452,8	2799,66
453,3	2889,9
453,7	2991,94
454,2	3097,58
454,6	3196,46
455,1	3295,02
455,5	3398,46
456	3485,22
456,4	3572,42
456,9	3665,42
457,3	3769,18
457,8	3877,34
458,3	3987,62
458,7	4098,18
459,2	4209,62
459,6	4321,94
460,1	4427,3
460,5	4537,62
461	4653,3
461,4	4771,46
461,9	4886,46
462,3	5015,94
462,8	5143,38
463,2	5264,38
463,7	5373,78
464,1	5486,46
464,6	5596,34
465	5703,94
465,5	5827,02
466	5955,7
466,4	6068,02
466,9	6189,22
467,3	6312,98
467,8	6431,58
468,2	6543,86
468,7	6661,74
469,1	6770,06
469,6	6882,38
470	6983,98
470,5	7091,66
470,9	7192,18
471,4	7305,74
471,8	7416,18
472,3	7520,58
472,7	7635,02
473,2	7750,38
473,6	7850,54
474,1	7952,78
474,5	8052,78
475	8143,02
475,4	8249,5
475,9	8348,58
476,4	8444,62
476,8	8543,42
477,3	8638,46
477,7	8716,62
478,2	8801,38
478,6	8868,02
479,1	8947,14
479,5	9017,7
480	9102,22
480,4	9169,54
480,9	9247,86
481,3	9308,86
481,8	9382,22
482,2	9439,18
482,7	9504,1
483,1	9560,5
483,6	9611,3
484	9653,06
484,5	9691,22
484,9	9724,66
485,4	9745,86
485,8	9777,94
486,3	9796,26
486,7	9825,94
487,2	9839,62
487,6	9876,94
488,1	9902,74
488,5	9916,22
489	9925,5
489,4	9932,94
489,9	9920,1
490,4	9912,7
490,8	9925,1
491,3	9903,14
491,7	9902,82
492,2	9892,58
492,6	9877,46
493,1	9851,42
493,5	9840,54
494	9809,18
494,4	9785,42
494,9	9756,06
495,3	9723,98
495,8	9679,54
496,2	9653,94
496,7	9625,46
497,1	9585,66
497,6	9556,22
498	9528,5
498,5	9478,98
498,9	9435,5
499,4	9389,58
499,8	9331,5
500,3	9267,38
500,7	9227,7
501,2	9163,66
501,6	9122,98
502,1	9078,46
502,5	9047,62
503	8985,38
503,4	8947,98
503,9	8876,98
504,3	8804,66
504,8	8735,9
505,2	8678,7
505,7	8610,18
506,1	8560,18
506,6	8504,06
507	8434,82
507,5	8367,02
507,9	8293,62
508,4	8211,94
508,8	8150,38
509,3	8082,3
509,7	8002,14
510,2	7924,42
510,6	7862,7
511,1	7783,14
511,5	7701,94
512	7619,66
512,4	7552,74
512,9	7474,18
513,3	7394,66
513,8	7328,82
514,2	7267,74
514,7	7192,66
515,1	7121,7
515,6	7047,7
516	6969,86
516,5	6899,9
516,9	6825,82
517,4	6745,62
517,8	6677,06
518,3	6610,54
518,7	6541,38
519,2	6474,78
519,6	6406,82
520,1	6341,3
520,5	6268,78
521	6203,86
521,4	6123,22
521,9	6053,78
522,3	5982,66
522,8	5915,22
523,2	5853,1
523,7	5788,26
524,1	5723,18
524,6	5651,06
525	5593,42
525,5	5522,3
525,9	5466,46
526,4	5413,42
526,8	5356,02
527,3	5289,9
527,7	5230,54
528,2	5178,66
528,6	5106,78
529,1	5058,22
529,5	5006,86
530	4948,9
530,4	4894,54
530,9	4845,74
531,3	4786,22
531,8	4743,18
532,2	4689,9
532,6	4628,06
533,1	4578,1
533,5	4528,66
534	4466,94
534,4	4411,38
534,9	4361,34
535,3	4317,26
535,8	4269,9
536,2	4226,82
536,7	4184,62
537,1	4144,18
537,6	4099,78
538	4058,9
538,5	4017,54
538,9	3980,06
539,4	3935,62
539,8	3893,94
540,3	3851,54
540,7	3805,1
541,2	3765,02
541,6	3730,9
542,1	3685,06
542,5	3649,1
543	3611,02
543,4	3569,22
543,9	3529,38
544,3	3503,14
544,8	3458,78
545,2	3425,58
545,7	3390,66
546,1	3364,14
546,5	3326,02
547	3299,58
547,4	3276,46
547,9	3246,9
548,3	3208,62
548,8	3180,94
549,2	3147,62
549,7	3114,78
550,1	3088,86
550,6	3067,02
551	3029,38
551,5	3006,86
551,9	2972,02
552,4	2939,26
552,8	2909,62
553,3	2895,14
553,7	2868,62
554,2	2840,7
554,6	2825,1
555,1	2801,3
555,5	2784,42
555,9	2754,74
556,4	2734,9
556,8	2700,58
557,3	2677,18
557,7	2643,22
558,2	2624,46
558,6	2598,78
559,1	2578,58
559,5	2563,06
560	2545,42
560,4	2522,98
560,9	2505,62
561,3	2499,22
561,8	2475,82
562,2	2450,94
562,7	2436,22
563,1	2422,06
563,6	2394,34
564	2379,5
564,4	2367,46
564,9	2344,18
565,3	2314,22
565,8	2291,86
566,2	2270,7
566,7	2250,1
567,1	2240,06
567,6	2233,94
568	2221,94
568,5	2206,74
568,9	2185,7
569,4	2163,3
569,8	2146,9
570,3	2135,06
570,7	2118,26
571,1	2102,94
571,6	2089,46
572	2071,98
572,5	2058,9
572,9	2040,26
573,4	2031,14
573,8	2013,14
574,3	2007,38
574,7	1986,74
575,2	1968,62
575,6	1949,86
576,1	1938,98
576,5	1926,14
576,9	1914,9
577,4	1912,86
577,8	1906,82
578,3	1897,06
578,7	1883,22
579,2	1864,14
579,6	1846,66
580,1	1834,46
580,5	1816,78
581	1797,46
581,4	1794,3
581,9	1783,46
582,3	1764,82
582,7	1750,66
583,2	1737,94
583,6	1716,74
584,1	1696,34
584,5	1685,78
585	1680,78
585,4	1671,58
585,9	1662,26
586,3	1656,98
586,8	1647,5
587,2	1632,18
587,6	1617,66
588,1	1608,18
588,5	1596,58
589	1585,26
589,4	1574,18
589,9	1570,66
590,3	1568,22
590,8	1559,3
591,2	1551,54
591,7	1547,66
592,1	1529,94
592,5	1515,06
593	1506,34
593,4	1494,82
593,9	1483,42
594,3	1480,06
594,8	1470,74
595,2	1465,78
595,7	1464,86
596,1	1462,02
596,6	1452,1
597	1439,26
597,4	1427,5
597,9	1421,42
598,3	1408,66
598,8	1399,06
599,2	1402,34
599,7	1394,78
600,1	1385,34
600,6	1379,54
601	1373,18
601,4	1361,94
601,9	1356,06
602,3	1342,18
602,8	1329,18
603,2	1324,22
603,7	1313,18
604,1	1305,3
604,6	1304,98
605	1303,78
605,4	1295,42
605,9	1292,3
606,3	1278,98
606,8	1262,22
607,2	1248,26
607,7	1240,18
608,1	1230,42
608,6	1224,54
609	1223,78
609,4	1218,14
609,9	1211,14
610,3	1199,66
610,8	1199,58
611,2	1186,82
611,7	1179,26
612,1	1176,26
612,6	1168,94
613	1159,74
613,4	1155,62
613,9	1151,22
614,3	1136,02
614,8	1133,82
615,2	1128,54
615,7	1116,58
616,1	1110,66
616,6	1104,98
617	1091,54
617,4	1081,54
617,9	1083,74
618,3	1071,54
618,8	1065,9
619,2	1064,5
619,7	1061,7
620,1	1046,26
620,5	1045,62
621	1045,46
621,4	1038,3
621,9	1025,66
622,3	1020,78
622,8	1017,58
623,2	1004,78
623,6	1001,22
624,1	993,82
624,5	983,9
625	962,5
625,4	952,1
625,9	939,42
626,3	933,54
626,8	927,82
627,2	928,34
627,6	929,66
628,1	926,38
628,5	922,14
629	919,7
629,4	918,38
629,9	908,7
630,3	899,54
630,7	895,18
631,2	891,78
631,6	882,94
632,1	877,26
632,5	878,82
633	869,7
633,4	862,1
633,8	854,3
634,3	848,22
634,7	835,62
635,2	830,78
635,6	822,94
636,1	819,98
636,5	819,78
636,9	820,42
637,4	813,18
637,8	807,66
638,3	796,62
638,7	782,22
639,2	774,54
639,6	765,62
640	757,82
640,5	761,14
640,9	760,74
641,4	751,5
641,8	747,9
642,2	749,46
642,7	738,66
643,1	739,46
643,6	734,9
644	733,78
644,5	725,66
644,9	725,58
645,3	715,18
645,8	712,86
646,2	707,26
646,7	703,18
647,1	697,86
647,6	692,5
648	687,98
648,4	688,9
648,9	689,78
649,3	677,74
649,8	674,82
650,2	670,34
650,6	658,22
651,1	649,5
651,5	650,38
652	646,34
652,4	641,02
652,9	641,18
653,3	639,58
653,7	635,46
654,2	632,5
654,6	637,26
655,1	633,22
655,5	623,3
655,9	621,54
656,4	612,86
656,8	601,02
657,3	592,82
657,7	595,9
658,2	588,02
658,6	583,1
659	576,46
659,5	577,98
659,9	563,86
660,4	566,02
660,8	563,3
661,2	561,82
661,7	555,98
662,1	554,98
662,6	543,38
663	536,34
663,4	530,66
663,9	520,82
664,3	519,3
664,8	520,46
665,2	518,46
665,6	523,02
666,1	524,18
666,5	516,18
667	513,82
667,4	506,94
667,9	498,62
668,3	495,06
668,7	497,3
669,2	490,74
669,6	492,74
670,1	485,9
670,5	478,22
670,9	470,62
671,4	474,54
671,8	471,54
672,3	470,02
672,7	473,98
673,1	468,22
673,6	453,38
674	450,94
674,5	445,06
674,9	437,7
675,3	441,86
675,8	440,98
676,2	434,66
676,7	434,7
677,1	426,38
677,5	419,9
678	416,18
678,4	416,7
678,9	408,38
679,3	408,5
679,7	404,74
680,2	402,34
680,6	392,42
681,1	394,18
681,5	394,58
681,9	389,22
682,4	387,02
682,8	386,86
683,3	384,46
683,7	380,9
684,1	378,86
684,6	376,38
685	372,3
685,5	364,34
685,9	362,62
686,3	362,3
686,8	353,66
687,2	352,62
687,7	353,42
688,1	350,78
688,5	351,98
689	355,06
689,4	352,5
689,9	351,18
690,3	345,02
690,7	335,7
691,2	335,3
691,6	334,14
692	328,34
692,5	330,02
692,9	331,66
693,4	325,02
693,8	327,54
694,2	330,46
694,7	322,46
695,1	317,54
695,6	315,1
696	313,1
696,4	305,74
696,9	316,42
697,3	314,38
697,8	314,02
698,2	307,46
698,6	309,26
699,1	295,9
699,5	297,58
699,9	292,22
700,4	290,34
700,8	285,1
701,3	282,02
701,7	278,42
702,1	279,46
702,6	271,82
703	272,9
703,5	272,86
703,9	271,18
704,3	270,7
704,8	275,14
705,2	271,62
705,6	273,38
706,1	265,7
706,5	262,42
707	260,5
707,4	256,98
707,8	245,98
708,3	249,02
708,7	250,58
709,2	241,86
709,6	238,94
710	243,38
710,5	238,22
710,9	223,54
711,3	221,98
711,8	224,38
712,2	224,26
712,7	223,02
713,1	236,3
713,5	239,14
714	230,46
714,4	226,9
714,8	228,62
715,3	221,7
715,7	222,54
716,2	219,34
716,6	215,98
717	215,94
717,5	214,42
717,9	208,58
718,3	209,02
718,8	209,62
719,2	204,46
719,7	200,94
720,1	200,62
720,5	200,9
721	193,38
721,4	189,14
721,8	188,9
722,3	186,18
722,7	182,02
723,2	181,26
723,6	181,06
724	179,54
724,5	178,82
724,9	186,18
725,3	183,3
725,8	185,62
726,2	183,3
726,7	185,62
727,1	181,26
727,5	194,06
728	189,94
728,4	190,78
728,8	184,34
729,3	186,78
729,7	177,26
730,1	177,7
730,6	173,78
731	172,62
731,5	167,38
731,9	166,06
732,3	166,26
732,8	170,46
733,2	169,94
733,6	171,66
734,1	170,7
734,5	167,62
734,9	165,74
735,4	164,34
735,8	158,06
736,3	156,38
736,7	151,62
737,1	147,86
737,6	153,26
738	154,26
738,4	148,58
738,9	152,66
739,3	153,66
739,7	146,42
740,2	143,18
740,6	149,06
741,1	145,58
741,5	141,62
741,9	144,1
742,4	142,94
742,8	138,5
743,2	138,78
743,7	133,38
744,1	135,74
744,5	133,98
745	138,66
745,4	136,02
745,8	142,42
746,3	136,86
746,7	133,14
747,2	128,42
747,6	129,5
748	124,58
748,5	123,58
748,9	124,78
749,3	121,94
749,8	120,9
750,2	117,86
750,6	114,26
751,1	114,7
751,5	118,74
751,9	116,62
752,4	120,66
752,8	124,82
753,3	126,46
753,7	123,06
754,1	120,26
754,6	126,5
755	117,78
755,4	119,1
755,9	119,02
756,3	113,94
756,7	109,46
757,2	109,86
757,6	104,94
758	104,58
758,5	107,82
758,9	104,74
759,3	106,5
759,8	108,02
760,2	103,74
760,6	98,74
761,1	93,74
761,5	98,22
761,9	100,66
762,4	97,26
762,8	102,18
763,3	99,66
763,7	97,42
764,1	95,9
764,6	102,42
765	102,98
765,4	104,02
765,9	96,02
766,3	90,74
766,7	86,06
767,2	85,98
767,6	87,74
768	90,18
768,5	88,38
768,9	88,3
769,3	84,9
769,8	81,26
770,2	82,06
770,6	86,98
771,1	87,86
771,5	92,94
771,9	99,94
772,4	102,18
772,8	103,66
773,2	102,94
773,7	102,22
774,1	99,86
774,5	94,98
775	91,34
775,4	93,5
775,8	89,82
776,3	85,98
776,7	86,7
777,1	86,42
777,6	85,58
778	81,7
778,4	85,5
778,9	84,26
779,3	83,38
779,7	80,98
780,2	85,54
780,6	82,1
781	84,1
781,5	85,18
781,9	83,66
782,3	77,78
782,8	75,78
783,2	76,02
783,6	72,1
784,1	71,18
784,5	67,82
784,9	64,98
785,4	63,54
785,8	64,5
786,2	58,34
786,7	63,42
787,1	63,58
787,5	60,82
788	62,38
788,4	67,54
788,8	67,46
789,3	70,38
789,7	71,38
790,1	68,3
790,6	71,7
791	70,46
791,4	71,02
791,9	68,42
792,3	66,1
792,7	60,62
793,2	62,06
793,6	55,7
794	55,9
794,5	57,62
794,9	58,1
795,3	51,26
795,8	56,54
796,2	51,62
796,6	47,42
797,1	44,3
797,5	46,74
797,9	47,74
798,4	51,38
798,8	52,66
799,2	55,3
799,7	58,54
800,1	55,98
800,5	55,06
801	51,9
801,4	51,14
801,8	50,1
802,2	51,78
802,7	52,5
803,1	52,62
803,5	51,14
804	52,82
804,4	47,7
804,8	46,62
805,3	49,14
805,7	50,7
806,1	46,38
806,6	46,02
807	36,94
807,4	34,9
807,9	36,66
808,3	36,5
808,7	34,86
809,2	46,7
809,6	46,26
810	38,98
810,4	38,18
810,9	43,66
811,3	34,9
811,7	36,74
812,2	44,1
812,6	39,18
813	36,54
813,5	42,5
813,9	43,34
814,3	43,5
814,8	49,22
815,2	46,62
815,6	41,66
816,1	39,42
816,5	30,38
816,9	32,62
817,3	28,54
817,8	30,54
818,2	28,18
818,6	30,06
819,1	26,14
819,5	31,9
819,9	33,7
820,4	35,1
820,8	39,62
821,2	36,26
821,7	36,58
822,1	37,18
822,5	33,18
822,9	24,42
823,4	26,98
823,8	30,1
824,2	30,3
824,7	32,7
825,1	38,14
825,5	38,58
826	33,62
826,4	30,9
826,8	31,22
827,3	30,22
827,7	21,86
828,1	19,06
828,5	18,02
829	15,58
829,4	14,78
829,8	21,98
830,3	25,94
830,7	28,62
831,1	28,3
831,6	32,62
832	33,34
832,4	29,1
832,8	26,9
833,3	28,22
833,7	23,54
834,1	20,74
834,6	21,26
835	22,02
835,4	24,78
835,8	24,82
836,3	28,34
836,7	29,58
837,1	24,74
837,6	21,58
838	19,02
838,4	15,3
838,9	8,54
839,3	12,3
839,7	11,62
840,1	19,3
840,6	19,3
841	27,26
841,4	30,94
841,9	33,3
842,3	26,06
842,7	27,1
843,1	25,02
843,6	15,14
844	11,38
844,4	8,5
844,9	11,7
845,3	11,26
845,7	14,78
846,2	17,26
846,6	21,3
847	17,18
847,4	13,26
847,9	17,22
848,3	13,54
848,7	14,1
849,2	12,54
849,6	11,38
850	11,98
850,4	12,5
850,9	11,22
851,3	11,46
851,7	13,06
852,2	11,18
852,6	13,34
853	11,82
853,4	14,94
853,9	12,78
854,3	12,42
854,7	13,98
855,2	15,78
855,6	11,58
856	15,62
856,4	15,1
856,9	11,9
857,3	9,66
857,7	11,62
858,2	9,02
858,6	10,18
859	8,58
859,4	18,22
859,9	18,82
860,3	19,5
860,7	18,34
861,1	20,98
861,6	19,86
862	16,3
862,4	17,94
862,9	15,98
863,3	15,86
863,7	10,9
864,1	14,26
864,6	13,06
865	13,1
865,4	12,62
865,9	7,94
866,3	5,9
866,7	9,46
867,1	15,06
867,6	12,58
868	15,14
868,4	19,54
868,8	15,74
869,3	13,46
869,7	14,06
870,1	11,3
870,6	5,86
871	9,66
871,4	-5,06
871,8	-5,74
872,3	-7,66
872,7	-7,66
873,1	-8,82
873,5	0,74
874	4,34
874,4	10,82
874,8	8,06
875,3	7,5
875,7	12,62
876,1	7,66
876,5	4,74
877	12,38
877,4	9,22
877,8	8,58
878,2	10,22
878,7	14,02
879,1	8,82
879,5	10,18
879,9	4,26
880,4	10,26
880,8	6,46
881,2	6,7
881,7	1,98
882,1	4,66
882,5	-3,46
882,9	-3,3
883,4	-1,26
883,8	4,58
884,2	5,38
884,6	10,14
885,1	8,7
885,5	6,02
885,9	1,5
886,3	-2,46
886,8	-3,9
887,2	-2,5
887,6	-2,1
888	-5,58
888,5	1,5
888,9	5,38
889,3	6,9
889,8	7,94
890,2	13,3
890,6	12,78
891	2,86
891,5	3,86
891,9	2,9
892,3	2,14
892,7	0,42
893,2	4,82
893,6	4,98
894	5,26
894,4	8,22
894,9	7,34
895,3	10,06
895,7	10,02
896,1	9,9
896,6	10,82
897	5,22
897,4	1,18
897,8	-0,54
898,3	-2,22
898,7	-1,22
899,1	-4,54
899,5	-2,54
900	-8,98
900,4	-4,06
900,8	-12,06
901,2	-2,82
901,7	-0,26
902,1	5,1
902,5	2,02
902,9	6,42
903,4	4,22
903,8	-0,7
904,2	3,18
904,6	-2,26
905,1	-4,62
905,5	-6,7
905,9	-2,78
906,3	-11,34
906,8	-5,94
907,2	-5,42
907,6	-6,02
908	-12,78
908,5	-9,82
908,9	-10,7
909,3	-15,78
909,7	-10,58
910,2	-7,86
910,6	-7,62
911	-8,58
911,4	-7,22
911,9	-10,26
912,3	-8,3
912,7	-10,78
913,1	-10,1
913,6	-4,46
914	-5,22
914,4	-11,54
914,8	-9,34
915,3	-12,58
915,7	-14,02
916,1	-18,14
916,5	-13,3
916,9	-10,5
917,4	-0,74
917,8	3,18
918,2	7,1
918,6	4,22
919,1	4,34
919,5	-4,02
919,9	-7,18
920,3	-7,1
920,8	-4,06
921,2	-11,78
921,6	-8,18
922	-12,62
922,5	-9,7
922,9	-10,06
923,3	-2,78
923,7	-3,7
924,2	-0,78
924,6	-5,94
925	-4,54
925,4	-7,7
925,8	-6,78
926,3	-5,02
926,7	-6,98
927,1	-6,18
927,5	-4,54
928	-13,7
928,4	-17,54
928,8	-10,1
929,2	-12,7
929,7	-15,18
930,1	-8,86
930,5	-4,22
930,9	-6,14
931,3	-5,66
931,8	-7,26
932,2	-8,06
932,6	-8,46
933	-10,66
933,5	-12,7
933,9	-3,26
934,3	-3,3
934,7	-6,54
935,2	-3,58
935,6	-0,06
936	-6,9
936,4	-11,18
936,8	-13,42
937,3	-17,54
937,7	-16,22
938,1	-17,82
938,5	-10,38
939	-11,06
939,4	-10,54
939,8	-10,26
940,2	-8,94
940,6	-7,86
941,1	-8,22
941,5	-10,66
941,9	-19,54
942,3	-13,1
942,8	-19,22
943,2	-12,78
943,6	-13,7
944	-3,78
944,4	-12,02
944,9	-8,62
945,3	-11,78
945,7	-11,9
946,1	-18,22
946,6	-18,02
947	-14,3
947,4	-13,42
947,8	-2,9
948,2	0,38
948,7	2,3
949,1	1,26
949,5	3,38
949,9	-3,7
950,3	-2,54
950,8	-1,22
951,2	-4,62
951,6	-5,66
952	-4,22
952,5	-1,66
952,9	-2,02
953,3	-7,7
953,7	-8,34
954,1	-11,82
954,6	-15,94
955	-13,46
955,4	-5,82
955,8	-4,1
956,2	-2,42
956,7	-3,38
957,1	-7,9
957,5	-10,06
957,9	-13,78
958,3	-10,38
958,8	-8,74
959,2	-8,98
959,6	-5,9
960	-7,02
960,5	-8,5
960,9	-12,06
961,3	-8,9
961,7	-8,7
962,1	-4,86
962,6	-6,74
963	-0,98
963,4	2,62
963,8	0,62
964,2	-4,1
964,7	0,18
965,1	-8,54
965,5	-17,14
965,9	-19,3
966,3	-11,86
966,8	-12,26
967,2	-11,54
967,6	-9,38
968	-10,94
968,4	-12,66
968,9	-15,22
969,3	-8,98
969,7	-8,02
970,1	-7,1
970,5	-11,58
971	-12,46
971,4	-14,58
971,8	-13,06
972,2	-11,14
972,6	-9,82
973,1	-6,98
973,5	-8,74
973,9	-15,14
974,3	-16,74
974,7	-11,82
975,2	-15,22
975,6	-16,42
976	-13,34
976,4	-12,18
976,8	-10,5
977,3	-4,3
977,7	3,58
978,1	5,86
978,5	9,74
978,9	-2,14
979,4	-0,18
979,8	0,78
980,2	2,58
980,6	-2,66
981	6,58
981,5	6,26
981,9	2,94
982,3	-0,66
982,7	2,5
983,1	1,26
983,6	-2,38
984	-2,34
984,4	-4,3
984,8	-5,9
985,2	-3,98
985,6	-7,78
986,1	-12,86
986,5	-13,02
986,9	-12,82
987,3	-17,18
987,7	-15,58
988,2	-10,02
988,6	-7,42
989	-5,9
989,4	-12,1
989,8	-10,94
990,3	-16,22
990,7	-18,34
991,1	-22,06
991,5	-12,86
991,9	-13,06
992,3	-12,14
992,8	-4,26
993,2	-0,02
993,6	-0,14
994	-1,22
994,4	0,66
994,9	1,78
995,3	-3,14
995,7	-7,98
996,1	-3,3
996,5	-0,26
996,9	-11,38
997,4	-10,78
997,8	-7,14
998,2	-8,5
998,6	-13,94
999	-10,14
999,5	-11,3
999,9	-11,42
1000,3	-15,38
1000,7	-12,58
1001,1	-10,5
1001,5	-9,02
1002	-14,74
1002,4	-16,14
1002,8	-15,66
1003,2	-16,98
1003,6	-12,82
1004	-2,18
1004,5	-1,58
1004,9	-0,78
1005,3	-2,86
1005,7	-8,62
1006,1	-16,06
1006,6	-16,34
1007	-18,5
1007,4	-12,58
1007,8	-8,34
1008,2	-6,7
1008,6	-3,22
1009,1	-6,14
1009,5	-8,1
1009,9	-11,38
1010,3	-12,5
1010,7	-14,74
1011,1	-8,18
1011,6	-2,18
1012	3,1
1012,4	-0,78
1012,8	-1,66
1013,2	-8,98
1013,6	-19,94
1014,1	-18,1
1014,5	-9,46
1014,9	-9,22
1015,3	-7,82
1015,7	-1,34
1016,1	-11,1
1016,6	-21,5
1017	-21,58
1017,4	-14,14
1017,8	-19,3
1018,2	-10,62
1018,6	-5,02
1019,1	-3,18
1019,5	-6,06
1019,9	-0,3
1020,3	-7,42
1020,7	-9,9
1021,1	-12,22
1021,6	-13,22
1022	-12,98
1022,4	-7,58
1022,8	-2,46
1023,2	0,1
1023,6	-5,5
1024,1	-7,54
1024,5	-12,5
1024,9	-16,98
1025,3	-19,42
1025,7	-12,26
1026,1	-12,38
1026,6	-11,42
1027	-5,66
1027,4	-3,38
1027,8	-3,98
1028,2	-5,62
1028,6	4,98
1029	-0,86
1029,5	-4,3
1029,9	-4,58
1030,3	-6,94
1030,7	-14,18
1031,1	-11,7
1031,5	-11,22
1032	-13,5
1032,4	-14,06
1032,8	-13,1
1033,2	-11,58
1033,6	-10,78
1034	-10,34
1034,4	-8,02
1034,9	-15,1
1035,3	-19,78
1035,7	-19,78
1036,1	-21,18
1036,5	-22,74
1036,9	-15,78
1037,4	-14,06
1037,8	-9,34
1038,2	-5,3
1038,6	-3,58
1039	-4,62
1039,4	-2,14
1039,8	-9,58
1040,3	-11,18
1040,7	-11,42
1041,1	-11,38
1041,5	-12,66
1041,9	-10,42
1042,3	-16,38
1042,7	-18,54
1043,2	-20,3
1043,6	-19,14
1044	-17,02
1044,4	-9,06
1044,8	-4,3
1045,2	-5,3
1045,6	-2,58
1046,1	0,94
1046,5	0,78
1046,9	-6,54
1047,3	-5,06
1047,7	-8,22
1048,1	-16,26
1048,5	-20,7
1049	-16,22
1049,4	-16,7
1049,8	-14,98
1050,2	-4,86
1050,6	0,54
1051	-1,02
1051,4	-0,5
1051,9	-5,74
1052,3	-12,98
1052,7	-19,54
1053,1	-15,54
1053,5	-20,14
1053,9	-17,7
1054,3	-23,86
1054,8	-18,02
1055,2	-20,18
1055,6	-19,54
1056	-16,18
1056,4	-10,62
1056,8	-11,74
1057,2	-10,82
1057,6	-8,38
1058,1	-13,58
1058,5	-17,3
1058,9	-23,06
1059,3	-25,26
1059,7	-19,14
1060,1	-19,02
1060,5	-14,9
1061	-14,06
1061,4	-16,7
1061,8	-21,3
1062,2	-19,5
1062,6	-16,86
1063	-16,26
1063,4	-18,82
1063,8	-17,5
1064,3	-13,3
1064,7	-13,94
1065,1	-14,22
1065,5	-4,02
1065,9	-7,22
1066,3	-13,98
1066,7	-18,9
1067,1	-19,3
1067,6	-16,26
1068	-16,5
1068,4	-9,18
1068,8	-7,02
1069,2	-0,22
1069,6	-7,06
1070	1,7
1070,4	-2,02
1070,9	-7,5
1071,3	-14,1
1071,7	-12,78
1072,1	-23,94
1072,5	-23,34
1072,9	-16,82
1073,3	-15,86
1073,7	-15,74
1074,2	-14,26
1074,6	-17,62
1075	-16,42
1075,4	-14,5
1075,8	-20,1
1076,2	-17,78
1076,6	-16,7
1077	-14,74
1077,5	-17,5
1077,9	-14,74
1078,3	-14,58
1078,7	-11,38
1079,1	-15,66
1079,5	-13,86
1079,9	-10,34
1080,3	-12,18
1080,7	-13,5
1081,2	-13,54
1081,6	-10,98
1082	-13,06
1082,4	-11,86
1082,8	-11,5
1083,2	-3,94
1083,6	-4,7
1084	2,14
1084,5	3,9
1084,9	2,38
1085,3	-0,02
1085,7	-0,18
1086,1	-7,26
1086,5	-13,18
1086,9	-10,82
1087,3	-17,1
1087,7	-16,02
1088,2	-10,38
1088,6	-6,38
1089	-7,78
1089,4	-4,78
1089,8	-7,02
1090,2	-13,14
1090,6	-8,86
1091	-5,54
1091,4	-3,18
1091,9	2,22
1092,3	4,58
1092,7	4,22
1093,1	1,74
1093,5	-1,46
1093,9	-5,3
1094,3	-7,34
1094,7	-10,7
1095,1	-12,66
1095,5	-11,5
1096	-14,34
1096,4	-10,26
1096,8	-7,62
1097,2	-5,7
1097,6	-0,98
1098	5,38
1098,4	1,3
1098,8	2,58
1099,2	2,46
1099,6	-3,14
1100,1	-4,66
1100,5	0,74
1100,9	-3,5
1101,3	-2,3
1101,7	-4,5
1102,1	-8,02
1102,5	-13,26
1102,9	-11,74
1103,3	-13,58
1103,7	-9,94
1104,2	-11,66
1104,6	-8,98
1105	-10,66
1105,4	-8,78
1105,8	-8,46
1106,2	-3,86
1106,6	-3,98
1107	-0,54
1107,4	-0,58
1107,8	-0,1
1108,3	-0,367
