Data from Subt2_00013.txt Node
Date: Fri Aug 11 15:25:20 MSK 2023
User: vat
Spectrometer: MAYP114033
Trigger mode: 0
Integration Time (sec): 5,000000E-1
Scans to average: 5
Electric dark correction enabled: true
Nonlinearity correction enabled: false
Boxcar width: 2
XAxis mode: Wavelengths
Number of Pixels in Spectrum: 2068
>>>>>Begin Spectral Data<<<<<
199,4	1,067
199,9	1,233
200,4	-0,827
200,8	-4,387
201,3	-7,507
201,8	-6,267
202,2	-6,467
202,7	-8,707
203,2	-8,707
203,6	-9,507
204,1	-12,827
204,6	-15,267
205	-16,027
205,5	-17,587
206	-11,347
206,4	-17,987
206,9	-20,987
207,4	-21,387
207,8	-17,707
208,3	-23,387
208,8	-15,547
209,2	-12,267
209,7	-8,467
210,2	-16,867
210,6	-16,667
211,1	-19,267
211,5	-16,547
212	-21,067
212,5	-17,027
212,9	-17,387
213,4	-15,867
213,9	-19,587
214,3	-15,347
214,8	-17,027
215,3	-16,827
215,7	-16,147
216,2	-16,107
216,7	-22,107
217,1	-16,467
217,6	-15,427
218,1	-16,547
218,5	-18,547
219	-16,667
219,5	-22,307
219,9	-24,347
220,4	-22,707
220,9	-19,747
221,3	-19,907
221,8	-14,667
222,3	-16,187
222,7	-18,867
223,2	-20,027
223,6	-16,667
224,1	-19,067
224,6	-21,587
225	-24,387
225,5	-27,107
226	-29,027
226,4	-28,467
226,9	-24,347
227,4	-22,027
227,8	-13,027
228,3	-8,867
228,8	-8,227
229,2	-15,907
229,7	-16,507
230,2	-25,067
230,6	-28,547
231,1	-31,547
231,5	-22,627
232	-25,187
232,5	-17,307
232,9	-15,787
233,4	-17,067
233,9	-19,387
234,3	-17,947
234,8	-22,427
235,3	-25,147
235,7	-24,707
236,2	-21,387
236,7	-23,907
237,1	-25,307
237,6	-23,787
238,1	-22,827
238,5	-29,027
239	-25,867
239,4	-24,667
239,9	-23,867
240,4	-19,387
240,8	-13,307
241,3	-16,587
241,8	-24,027
242,2	-27,467
242,7	-29,707
243,2	-29,347
243,6	-27,107
244,1	-20,947
244,6	-16,547
245	-12,867
245,5	-18,467
245,9	-12,147
246,4	-11,787
246,9	-15,667
247,3	-21,107
247,8	-19,147
248,3	-20,187
248,7	-19,827
249,2	-15,467
249,7	-13,027
250,1	-11,987
250,6	-12,067
251	-10,547
251,5	-13,187
252	-13,467
252,4	-14,067
252,9	-15,387
253,4	-21,867
253,8	-23,187
254,3	-28,707
254,8	-30,427
255,2	-31,227
255,7	-25,267
256,1	-18,427
256,6	-11,427
257,1	-9,867
257,5	-7,667
258	-9,107
258,5	-8,027
258,9	-12,547
259,4	-7,387
259,9	-12,987
260,3	-16,907
260,8	-21,787
261,2	-23,627
261,7	-30,787
262,2	-30,067
262,6	-29,387
263,1	-32,387
263,6	-28,187
264	-23,907
264,5	-22,427
264,9	-25,907
265,4	-28,987
265,9	-31,027
266,3	-32,267
266,8	-28,587
267,3	-24,267
267,7	-19,067
268,2	-19,747
268,7	-15,547
269,1	-18,507
269,6	-16,747
270	-11,787
270,5	-6,827
271	-11,787
271,4	-8,227
271,9	-9,387
272,4	-11,667
272,8	-16,747
273,3	-17,787
273,7	-20,227
274,2	-17,707
274,7	-23,387
275,1	-20,147
275,6	-16,987
276,1	-20,707
276,5	-24,267
277	-25,587
277,4	-28,747
277,9	-30,307
278,4	-29,307
278,8	-26,187
279,3	-25,947
279,8	-20,827
280,2	-20,867
280,7	-21,027
281,1	-22,347
281,6	-20,867
282,1	-24,427
282,5	-30,227
283	-32,387
283,4	-32,987
283,9	-33,507
284,4	-32,347
284,8	-23,787
285,3	-20,227
285,8	-15,947
286,2	-16,187
286,7	-14,707
287,1	-16,987
287,6	-21,867
288,1	-25,867
288,5	-24,387
289	-28,147
289,5	-27,547
289,9	-18,227
290,4	-19,467
290,8	-20,067
291,3	-17,267
291,8	-20,867
292,2	-27,387
292,7	-19,987
293,1	-16,667
293,6	-18,747
294,1	-13,027
294,5	-14,267
295	-18,907
295,5	-19,587
295,9	-19,827
296,4	-25,267
296,8	-23,147
297,3	-17,027
297,8	-20,827
298,2	-14,427
298,7	-13,827
299,1	-9,067
299,6	-14,387
300,1	-12,947
300,5	-17,267
301	-13,227
301,5	-19,907
301,9	-22,187
302,4	-20,627
302,8	-19,227
303,3	-22,267
303,8	-22,707
304,2	-19,787
304,7	-25,667
305,1	-27,787
305,6	-31,667
306,1	-28,747
306,5	-32,547
307	-21,707
307,4	-20,187
307,9	-13,587
308,4	-16,667
308,8	-17,867
309,3	-20,907
309,8	-21,667
310,2	-24,347
310,7	-24,347
311,1	-20,947
311,6	-23,347
312,1	-21,707
312,5	-22,507
313	-14,267
313,4	-16,227
313,9	-10,747
314,4	-14,707
314,8	-16,067
315,3	-20,587
315,7	-21,507
316,2	-25,787
316,7	-27,747
317,1	-28,427
317,6	-34,467
318	-34,227
318,5	-33,867
319	-26,947
319,4	-29,867
319,9	-21,027
320,3	-20,707
320,8	-27,587
321,3	-34,427
321,7	-23,947
322,2	-25,747
322,6	-24,267
323,1	-20,787
323,6	-14,867
324	-15,787
324,5	-16,667
324,9	-14,107
325,4	-12,147
325,9	-11,667
326,3	-13,507
326,8	-13,227
327,2	-14,187
327,7	-11,747
328,2	-12,827
328,6	-16,107
329,1	-16,707
329,5	-16,667
330	-17,147
330,5	-8,187
330,9	-10,387
331,4	-10,827
331,8	-10,827
332,3	-16,267
332,8	-30,947
333,2	-25,067
333,7	-29,907
334,1	-31,867
334,6	-24,387
335,1	-21,147
335,5	-21,507
336	-19,267
336,4	-18,467
336,9	-25,027
337,4	-21,467
337,8	-24,867
338,3	-17,987
338,7	-19,467
339,2	-15,507
339,7	-17,627
340,1	-16,907
340,6	-17,587
341	-16,827
341,5	-20,947
342	-26,827
342,4	-19,107
342,9	-19,227
343,3	-19,227
343,8	-16,067
344,2	-13,547
344,7	-19,427
345,2	-18,267
345,6	-14,147
346,1	-11,827
346,5	-7,027
347	-8,467
347,5	-13,987
347,9	-16,147
348,4	-19,027
348,8	-22,707
349,3	-22,507
349,8	-18,267
350,2	-22,587
350,7	-23,627
351,1	-17,307
351,6	-16,107
352	-12,947
352,5	-3,747
353	9,933
353,4	10,573
353,9	12,613
354,3	16,773
354,8	20,893
355,3	16,333
355,7	26,813
356,2	40,373
356,6	39,693
357,1	49,853
357,5	70,853
358	81,253
358,5	96,653
358,9	127,813
359,4	156,613
359,8	170,973
360,3	204,573
360,8	234,613
361,2	268,013
361,7	298,573
362,1	355,773
362,6	410,253
363	478,333
363,5	533,253
364	599,133
364,4	653,893
364,9	712,893
365,3	766,973
365,8	832,533
366,3	887,813
366,7	939,413
367,2	986,573
367,6	1021,533
368,1	1049,133
368,5	1070,973
369	1076,253
369,5	1077,893
369,9	1072,133
370,4	1052,213
370,8	1025,093
371,3	1001,973
371,7	963,533
372,2	917,413
372,7	871,293
373,1	826,493
373,6	775,213
374	721,413
374,5	674,333
374,9	630,413
375,4	586,533
375,9	543,493
376,3	501,813
376,8	456,493
377,2	418,973
377,7	377,693
378,2	342,413
378,6	309,573
379,1	292,693
379,5	265,813
380	244,893
380,4	231,453
380,9	212,533
381,4	184,293
381,8	164,053
382,3	146,493
382,7	127,373
383,2	116,373
383,6	107,333
384,1	99,013
384,6	91,213
385	84,933
385,5	77,373
385,9	73,013
386,4	70,693
386,8	68,453
387,3	57,573
387,7	51,573
388,2	48,773
388,7	44,853
389,1	33,973
389,6	32,813
390	28,853
390,5	24,573
390,9	18,973
391,4	14,053
391,9	9,253
392,3	4,293
392,8	-0,987
393,2	-0,667
393,7	1,253
394,1	5,653
394,6	0,293
395,1	2,253
395,5	1,493
396	0,893
396,4	-4,307
396,9	-0,347
397,3	-3,627
397,8	-8,547
398,2	-5,027
398,7	-8,067
399,2	-12,667
399,6	-10,147
400,1	-8,507
400,5	-9,827
401	-9,627
401,4	-3,387
401,9	-6,467
402,4	-11,187
402,8	-14,147
403,3	-10,107
403,7	-11,827
404,2	-8,627
404,6	-5,667
405,1	-2,307
405,5	-5,387
406	-3,587
406,5	-5,147
406,9	-2,787
407,4	-3,307
407,8	-1,467
408,3	-0,387
408,7	1,653
409,2	7,933
409,6	3,013
410,1	-1,587
410,6	-1,187
411	1,573
411,5	-3,387
411,9	4,933
412,4	14,213
412,8	13,413
413,3	7,933
413,7	13,773
414,2	18,893
414,7	15,773
415,1	24,213
415,6	36,413
416	38,813
416,5	41,373
416,9	52,733
417,4	56,853
417,8	57,133
418,3	57,933
418,8	64,653
419,2	66,733
419,7	74,613
420,1	82,653
420,6	84,893
421	83,733
421,5	94,213
421,9	97,813
422,4	101,213
422,8	114,093
423,3	122,333
423,8	125,493
424,2	129,373
424,7	141,653
425,1	149,533
425,6	161,133
426	162,173
426,5	176,293
426,9	176,493
427,4	188,813
427,9	192,493
428,3	203,773
428,8	204,773
429,2	219,133
429,7	229,453
430,1	241,933
430,6	255,493
431	275,253
431,5	291,973
431,9	297,733
432,4	311,893
432,8	328,493
433,3	350,493
433,8	363,973
434,2	387,893
434,7	409,453
435,1	433,133
435,6	449,693
436	471,053
436,5	493,893
436,9	518,133
437,4	550,653
437,8	573,853
438,3	604,693
438,8	634,733
439,2	663,093
439,7	692,173
440,1	723,773
440,6	755,653
441	791,733
441,5	825,613
441,9	860,333
442,4	905,413
442,8	940,533
443,3	975,853
443,7	1020,453
444,2	1065,213
444,7	1108,133
445,1	1167,293
445,6	1227,133
446	1281,973
446,5	1337,813
446,9	1387,613
447,4	1442,013
447,8	1488,573
448,3	1542,333
448,7	1593,133
449,2	1653,853
449,6	1704,413
450,1	1769,853
450,6	1829,053
451	1897,453
451,5	1952,533
451,9	2022,493
452,4	2090,493
452,8	2166,253
453,3	2226,653
453,7	2301,493
454,2	2376,533
454,6	2436,573
455,1	2497,253
455,5	2579,613
456	2652,533
456,4	2711,933
456,9	2782,973
457,3	2860,533
457,8	2933,733
458,3	3015,533
458,7	3110,093
459,2	3195,333
459,6	3279,093
460,1	3361,133
460,5	3431,813
461	3507,613
461,4	3594,613
461,9	3672,253
462,3	3745,693
462,8	3842,533
463,2	3925,933
463,7	3996,653
464,1	4080,053
464,6	4157,373
465	4219,893
465,5	4292,413
466	4375,373
466,4	4455,333
466,9	4533,893
467,3	4616,853
467,8	4686,493
468,2	4761,893
468,7	4830,373
469,1	4900,053
469,6	4977,373
470	5052,293
470,5	5128,293
470,9	5200,853
471,4	5271,373
471,8	5329,293
472,3	5392,013
472,7	5445,813
473,2	5508,133
473,6	5580,053
474,1	5643,653
474,5	5699,573
475	5766,053
475,4	5824,453
475,9	5874,453
476,4	5939,653
476,8	6000,013
477,3	6055,173
477,7	6105,453
478,2	6151,493
478,6	6196,693
479,1	6240,173
479,5	6272,613
480	6311,093
480,4	6350,173
480,9	6380,693
481,3	6420,813
481,8	6459,773
482,2	6494,373
482,7	6529,053
483,1	6560,693
483,6	6600,413
484	6627,533
484,5	6658,573
484,9	6674,773
485,4	6690,853
485,8	6699,373
486,3	6721,333
486,7	6736,773
487,2	6759,853
487,6	6776,173
488,1	6782,293
488,5	6795,053
489	6794,613
489,4	6800,413
489,9	6803,493
490,4	6803,013
490,8	6797,373
491,3	6790,293
491,7	6780,733
492,2	6770,053
492,6	6763,573
493,1	6754,613
493,5	6744,413
494	6722,333
494,4	6711,733
494,9	6693,893
495,3	6670,693
495,8	6653,573
496,2	6648,053
496,7	6627,533
497,1	6610,293
497,6	6587,853
498	6558,773
498,5	6527,373
498,9	6492,853
499,4	6464,853
499,8	6440,293
500,3	6417,013
500,7	6388,853
501,2	6363,653
501,6	6329,813
502,1	6300,093
502,5	6267,813
503	6230,213
503,4	6192,933
503,9	6160,413
504,3	6126,013
504,8	6087,373
505,2	6047,693
505,7	6018,573
506,1	5973,853
506,6	5926,853
507	5890,933
507,5	5860,933
507,9	5816,973
508,4	5779,933
508,8	5742,293
509,3	5700,733
509,7	5649,453
510,2	5600,653
510,6	5558,693
511,1	5513,133
511,5	5468,013
512	5428,653
512,4	5387,653
512,9	5341,333
513,3	5291,293
513,8	5242,333
514,2	5199,293
514,7	5147,813
515,1	5090,133
515,6	5037,253
516	4993,733
516,5	4931,893
516,9	4882,173
517,4	4838,933
517,8	4793,773
518,3	4737,773
518,7	4697,613
519,2	4649,653
519,6	4606,293
520,1	4558,853
520,5	4511,413
521	4464,253
521,4	4416,053
521,9	4366,733
522,3	4314,453
522,8	4273,213
523,2	4223,853
523,7	4187,773
524,1	4142,213
524,6	4095,853
525	4048,733
525,5	4007,173
525,9	3959,613
526,4	3911,493
526,8	3862,613
527,3	3823,173
527,7	3775,093
528,2	3722,053
528,6	3686,373
529,1	3656,413
529,5	3604,733
530	3563,653
530,4	3532,853
530,9	3485,333
531,3	3444,213
531,8	3413,973
532,2	3372,493
532,6	3327,053
533,1	3286,013
533,5	3243,893
534	3197,893
534,4	3157,973
534,9	3115,893
535,3	3092,813
535,8	3056,733
536,2	3017,293
536,7	2982,373
537,1	2950,853
537,6	2900,453
538	2865,453
538,5	2827,893
538,9	2795,773
539,4	2766,573
539,8	2734,373
540,3	2698,453
540,7	2669,453
541,2	2630,493
541,6	2591,853
542,1	2567,093
542,5	2539,333
543	2516,653
543,4	2488,333
543,9	2460,693
544,3	2432,533
544,8	2407,373
545,2	2375,133
545,7	2352,893
546,1	2327,333
546,5	2305,933
547	2273,453
547,4	2247,013
547,9	2221,533
548,3	2193,053
548,8	2154,053
549,2	2133,133
549,7	2106,613
550,1	2080,133
550,6	2054,773
551	2034,693
551,5	2008,733
551,9	1983,053
552,4	1962,653
552,8	1943,093
553,3	1917,013
553,7	1892,653
554,2	1870,573
554,6	1852,133
555,1	1832,893
555,5	1813,813
555,9	1794,093
556,4	1776,213
556,8	1750,453
557,3	1727,053
557,7	1713,693
558,2	1701,213
558,6	1677,053
559,1	1660,293
559,5	1639,333
560	1612,093
560,4	1585,493
560,9	1566,413
561,3	1543,813
561,8	1531,733
562,2	1516,973
562,7	1502,613
563,1	1493,253
563,6	1480,813
564	1467,373
564,4	1454,773
564,9	1439,933
565,3	1426,333
565,8	1408,573
566,2	1388,053
566,7	1370,373
567,1	1356,773
567,6	1335,053
568	1325,613
568,5	1310,333
568,9	1295,813
569,4	1277,653
569,8	1267,733
570,3	1247,893
570,7	1236,413
571,1	1219,973
571,6	1214,013
572	1201,893
572,5	1191,133
572,9	1174,253
573,4	1167,973
573,8	1150,413
574,3	1137,653
574,7	1129,093
575,2	1118,133
575,6	1104,613
576,1	1091,493
576,5	1077,773
576,9	1063,413
577,4	1056,013
577,8	1041,573
578,3	1031,533
578,7	1024,853
579,2	1016,013
579,6	1001,133
580,1	993,413
580,5	986,653
581	973,773
581,4	958,253
581,9	951,853
582,3	942,573
582,7	933,533
583,2	920,133
583,6	920,973
584,1	913,853
584,5	898,253
585	883,453
585,4	879,973
585,9	862,413
586,3	857,093
586,8	855,213
587,2	843,013
587,6	833,413
588,1	832,733
588,5	817,773
589	816,133
589,4	819,773
589,9	814,613
590,3	799,173
590,8	795,653
591,2	779,293
591,7	770,253
592,1	764,253
592,5	757,893
593	744,133
593,4	737,373
593,9	726,533
594,3	715,453
594,8	709,013
595,2	709,733
595,7	708,093
596,1	708,093
596,6	707,093
597	703,533
597,4	698,053
597,9	690,213
598,3	677,773
598,8	673,373
599,2	669,133
599,7	659,133
600,1	660,133
600,6	656,653
601	645,333
601,4	638,973
601,9	639,093
602,3	632,213
602,8	630,013
603,2	620,413
603,7	614,973
604,1	607,253
604,6	593,693
605	589,453
605,4	586,773
605,9	584,813
606,3	585,373
606,8	582,733
607,2	576,453
607,7	574,493
608,1	570,733
608,6	567,733
609	562,853
609,4	555,373
609,9	552,493
610,3	545,333
610,8	536,133
611,2	530,173
611,7	530,133
612,1	523,373
612,6	522,493
613	514,853
613,4	518,573
613,9	514,373
614,3	513,453
614,8	508,093
615,2	509,133
615,7	506,813
616,1	499,573
616,6	500,493
617	496,613
617,4	488,853
617,9	481,013
618,3	471,533
618,8	461,573
619,2	453,213
619,7	449,653
620,1	445,933
620,5	452,653
621	453,533
621,4	456,573
621,9	451,693
622,3	444,413
622,8	441,613
623,2	431,093
623,6	423,813
624,1	422,053
624,5	422,893
625	418,093
625,4	417,573
625,9	416,813
626,3	419,013
626,8	419,333
627,2	414,813
627,6	415,773
628,1	412,493
628,5	406,453
629	395,973
629,4	395,053
629,9	388,933
630,3	383,773
630,7	381,533
631,2	380,133
631,6	373,093
632,1	374,173
632,5	377,133
633	373,493
633,4	369,453
633,8	369,213
634,3	361,453
634,7	356,413
635,2	359,213
635,6	363,853
636,1	361,733
636,5	360,013
636,9	349,973
637,4	344,693
637,8	340,493
638,3	337,933
638,7	338,573
639,2	342,573
639,6	336,533
640	339,693
640,5	335,013
640,9	327,613
641,4	321,573
641,8	319,733
642,2	315,493
642,7	320,573
643,1	321,613
643,6	320,933
644	320,253
644,5	313,493
644,9	310,813
645,3	311,693
645,8	312,213
646,2	312,133
646,7	309,373
647,1	304,733
647,6	301,373
648	300,453
648,4	302,933
648,9	306,173
649,3	304,133
649,8	306,133
650,2	313,293
650,6	309,373
651,1	303,533
651,5	307,453
652	306,773
652,4	292,453
652,9	281,173
653,3	282,613
653,7	279,493
654,2	270,493
654,6	277,413
655,1	282,613
655,5	281,413
655,9	276,293
656,4	276,613
656,8	264,733
657,3	260,253
657,7	258,053
658,2	256,733
658,6	260,613
659	261,973
659,5	263,973
659,9	263,893
660,4	266,613
660,8	260,653
661,2	264,933
661,7	258,013
662,1	257,893
662,6	246,613
663	240,093
663,4	240,333
663,9	244,933
664,3	239,373
664,8	244,173
665,2	248,733
665,6	240,813
666,1	235,973
666,5	236,693
667	239,373
667,4	234,773
667,9	240,213
668,3	243,093
668,7	240,813
669,2	240,533
669,6	242,653
670,1	240,213
670,5	236,053
670,9	230,733
671,4	216,933
671,8	213,413
672,3	208,573
672,7	208,693
673,1	211,693
673,6	217,373
674	220,173
674,5	218,333
674,9	215,333
675,3	213,533
675,8	209,773
676,2	202,493
676,7	203,973
677,1	207,973
677,5	204,653
678	209,773
678,4	220,373
678,9	214,213
679,3	206,813
679,7	214,053
680,2	207,933
680,6	197,253
681,1	196,413
681,5	199,133
681,9	187,453
682,4	188,013
682,8	186,213
683,3	187,373
683,7	188,093
684,1	192,493
684,6	191,613
685	187,893
685,5	188,373
685,9	185,133
686,3	189,013
686,8	185,773
687,2	189,013
687,7	182,933
688,1	184,013
688,5	182,053
689	182,693
689,4	184,013
689,9	180,213
690,3	184,293
690,7	180,893
691,2	180,333
691,6	176,573
692	186,653
692,5	180,573
692,9	180,293
693,4	178,893
693,8	182,133
694,2	176,093
694,7	177,493
695,1	177,653
695,6	178,893
696	175,333
696,4	172,853
696,9	168,133
697,3	166,533
697,8	160,933
698,2	158,413
698,6	156,413
699,1	153,053
699,5	145,253
699,9	152,613
700,4	153,933
700,8	154,813
701,3	155,293
701,7	162,733
702,1	156,813
702,6	156,093
703	154,893
703,5	155,573
703,9	151,413
704,3	155,253
704,8	154,493
705,2	156,293
705,6	152,173
706,1	145,253
706,5	144,253
707	138,453
707,4	140,053
707,8	140,133
708,3	147,453
708,7	143,013
709,2	148,013
709,6	143,733
710	147,653
710,5	144,373
710,9	143,533
711,3	140,933
711,8	142,053
712,2	140,973
712,7	139,253
713,1	137,733
713,5	143,293
714	138,733
714,4	131,933
714,8	131,613
715,3	127,773
715,7	123,693
716,2	125,893
716,6	124,293
717	122,493
717,5	125,893
717,9	122,973
718,3	121,773
718,8	127,373
719,2	124,613
719,7	120,053
720,1	122,813
720,5	125,973
721	120,893
721,4	125,653
721,8	128,213
722,3	124,493
722,7	115,493
723,2	122,493
723,6	115,493
724	113,973
724,5	115,773
724,9	120,533
725,3	113,533
725,8	115,093
726,2	114,653
726,7	108,733
727,1	100,973
727,5	96,413
728	95,653
728,4	91,693
728,8	92,733
729,3	100,293
729,7	101,533
730,1	106,613
730,6	109,533
731	107,493
731,5	110,973
731,9	110,813
732,3	106,733
732,8	102,693
733,2	107,173
733,6	103,533
734,1	102,853
734,5	96,253
734,9	104,573
735,4	100,613
735,8	102,333
736,3	105,573
736,7	109,973
737,1	105,573
737,6	99,893
738	92,053
738,4	90,253
738,9	89,613
739,3	89,693
739,7	91,093
740,2	89,173
740,6	87,653
741,1	92,973
741,5	93,613
741,9	94,293
742,4	97,853
742,8	101,173
743,2	96,053
743,7	95,373
744,1	95,813
744,5	90,813
745	84,173
745,4	85,453
745,8	81,493
746,3	83,933
746,7	82,453
747,2	78,853
747,6	76,773
748	78,933
748,5	73,493
748,9	76,733
749,3	83,413
749,8	82,413
750,2	75,973
750,6	76,853
751,1	81,093
751,5	77,213
751,9	77,773
752,4	82,893
752,8	86,093
753,3	82,973
753,7	82,573
754,1	79,653
754,6	76,693
755	78,213
755,4	77,053
755,9	77,013
756,3	78,853
756,7	86,293
757,2	79,613
757,6	72,133
758	71,853
758,5	70,613
758,9	58,773
759,3	64,973
759,8	62,613
760,2	63,413
760,6	64,733
761,1	66,013
761,5	58,333
761,9	63,253
762,4	66,093
762,8	62,293
763,3	62,933
763,7	61,893
764,1	58,933
764,6	61,413
765	64,133
765,4	65,933
765,9	73,573
766,3	78,133
766,7	73,133
767,2	70,133
767,6	63,253
768	53,533
768,5	55,493
768,9	50,253
769,3	47,973
769,8	53,093
770,2	61,453
770,6	61,373
771,1	65,053
771,5	60,253
771,9	61,013
772,4	52,893
772,8	48,133
773,2	44,853
773,7	55,173
774,1	52,893
774,5	56,213
775	59,373
775,4	59,333
775,8	56,373
776,3	56,613
776,7	55,053
777,1	55,853
777,6	59,293
778	58,453
778,4	61,773
778,9	64,653
779,3	61,733
779,7	57,853
780,2	53,653
780,6	45,933
781	42,813
781,5	43,933
781,9	43,333
782,3	50,533
782,8	56,013
783,2	60,013
783,6	59,933
784,1	59,373
784,5	54,213
784,9	48,773
785,4	45,573
785,8	40,653
786,2	38,093
786,7	38,293
787,1	43,213
787,5	37,533
788	40,653
788,4	40,853
788,8	39,853
789,3	35,333
789,7	38,173
790,1	40,533
790,6	45,893
791	42,093
791,4	47,733
791,9	52,733
792,3	42,653
792,7	41,493
793,2	51,973
793,6	47,213
794	42,773
794,5	49,853
794,9	44,013
795,3	31,773
795,8	33,253
796,2	29,613
796,6	30,733
797,1	38,333
797,5	37,453
797,9	33,693
798,4	36,253
798,8	36,773
799,2	36,333
799,7	43,813
800,1	45,213
800,5	44,693
801	39,253
801,4	30,893
801,8	32,213
802,2	28,653
802,7	27,573
803,1	28,693
803,5	31,773
804	25,333
804,4	23,533
804,8	26,573
805,3	30,613
805,7	24,893
806,1	25,053
806,6	28,813
807	21,653
807,4	16,413
807,9	24,773
808,3	24,133
808,7	24,693
809,2	30,453
809,6	26,853
810	23,413
810,4	20,253
810,9	16,813
811,3	17,933
811,7	18,093
812,2	18,733
812,6	26,893
813	24,333
813,5	26,453
813,9	25,533
814,3	24,573
814,8	21,493
815,2	23,133
815,6	17,733
816,1	22,053
816,5	21,813
816,9	17,973
817,3	19,013
817,8	16,693
818,2	16,373
818,6	15,173
819,1	13,293
819,5	17,653
819,9	21,533
820,4	21,733
820,8	22,773
821,2	25,733
821,7	24,893
822,1	25,573
822,5	27,053
822,9	30,213
823,4	31,693
823,8	24,013
824,2	21,333
824,7	15,453
825,1	12,133
825,5	11,773
826	14,493
826,4	14,693
826,8	14,573
827,3	14,693
827,7	17,013
828,1	19,293
828,5	16,013
829	18,333
829,4	17,413
829,8	11,053
830,3	11,213
830,7	15,333
831,1	17,333
831,6	14,533
832	14,373
832,4	12,053
832,8	4,533
833,3	0,493
833,7	4,333
834,1	1,933
834,6	-0,147
835	2,333
835,4	3,853
835,8	3,253
836,3	9,653
836,7	12,093
837,1	12,293
837,6	5,733
838	3,173
838,4	-2,867
838,9	-5,507
839,3	-4,987
839,7	-1,667
840,1	-4,827
840,6	0,133
841	4,773
841,4	6,493
841,9	12,333
842,3	18,253
842,7	13,693
843,1	13,733
843,6	13,173
844	2,813
844,4	-2,507
844,9	-6,627
845,3	-3,907
845,7	-4,027
846,2	0,773
846,6	7,253
847	10,413
847,4	6,093
847,9	0,733
848,3	2,293
848,7	-0,267
849,2	3,133
849,6	0,373
850	7,533
850,4	6,893
850,9	6,613
851,3	7,533
851,7	3,213
852,2	5,493
852,6	5,773
853	1,933
853,4	-2,267
853,9	0,973
854,3	-6,587
854,7	-8,307
855,2	-8,107
855,6	-7,147
856	-8,067
856,4	-7,667
856,9	-3,267
857,3	4,013
857,7	6,653
858,2	9,213
858,6	4,973
859	0,773
859,4	-4,787
859,9	-5,387
860,3	-3,587
860,7	5,773
861,1	5,333
861,6	5,253
862	4,933
862,4	2,853
862,9	-1,027
863,3	5,733
863,7	2,093
864,1	-1,547
864,6	4,293
865	-0,307
865,4	-5,987
865,9	-0,467
866,3	-0,827
866,7	-8,547
867,1	-6,267
867,6	-4,587
868	-12,787
868,4	-7,307
868,8	-9,867
869,3	-10,187
869,7	-12,027
870,1	-7,467
870,6	-10,147
871	-2,307
871,4	25,773
871,8	22,173
872,3	20,613
872,7	20,333
873,1	14,853
873,5	-16,747
874	-15,147
874,4	-18,147
874,8	-18,627
875,3	-16,307
875,7	-10,307
876,1	-10,547
876,5	-2,467
877	-6,307
877,4	-9,907
877,8	-8,667
878,2	-10,187
878,7	-10,707
879,1	-10,147
879,5	-7,587
879,9	-9,507
880,4	-8,827
880,8	-11,947
881,2	-9,387
881,7	-9,107
882,1	-6,907
882,5	-5,627
882,9	-2,867
883,4	-1,267
883,8	-3,907
884,2	-8,347
884,6	-11,547
885,1	-14,667
885,5	-19,627
885,9	-14,787
886,3	-14,867
886,8	-15,307
887,2	-13,867
887,6	-10,307
888	-18,027
888,5	-13,987
888,9	-11,067
889,3	-18,507
889,8	-19,827
890,2	-16,387
890,6	-21,867
891	-16,947
891,5	-9,227
891,9	-2,867
892,3	-1,147
892,7	1,853
893,2	-1,787
893,6	-3,827
894	-11,627
894,4	-14,227
894,9	-11,787
895,3	-11,907
895,7	-12,547
896,1	-8,907
896,6	-7,947
897	-6,107
897,4	-6,347
897,8	-5,627
898,3	-7,747
898,7	-5,667
899,1	-6,547
899,5	-3,587
900	-7,507
900,4	-7,307
900,8	-9,507
901,2	-11,947
901,7	-14,427
902,1	-14,107
902,5	-10,787
902,9	-8,987
903,4	-14,347
903,8	-16,867
904,2	-15,907
904,6	-14,187
905,1	-8,467
905,5	-9,067
905,9	-4,067
906,3	0,293
906,8	0,533
907,2	-6,547
907,6	-0,507
908	-7,147
908,5	-9,427
908,9	-14,827
909,3	-16,067
909,7	-21,267
910,2	-17,267
910,6	-13,187
911	-8,947
911,4	-6,947
911,9	-6,387
912,3	-9,027
912,7	-13,067
913,1	-19,947
913,6	-25,347
914	-21,627
914,4	-18,147
914,8	-12,707
915,3	-7,507
915,7	-6,427
916,1	-9,907
916,5	-6,187
916,9	-11,027
917,4	-14,867
917,8	-9,027
918,2	-5,747
918,6	-12,947
919,1	-11,907
919,5	-9,187
919,9	-6,187
920,3	-4,667
920,8	-2,227
921,2	0,173
921,6	-4,627
922	-13,627
922,5	-14,627
922,9	-21,987
923,3	-20,547
923,7	-17,707
924,2	-12,867
924,6	-11,827
925	1,133
925,4	-8,627
925,8	-10,307
926,3	-12,667
926,7	-13,947
927,1	-20,347
927,5	-19,667
928	-19,707
928,4	-19,827
928,8	-20,907
929,2	-20,507
929,7	-14,467
930,1	-12,547
930,5	-12,027
930,9	-14,147
931,3	-14,267
931,8	-22,987
932,2	-19,787
932,6	-24,627
933	-22,427
933,5	-21,947
933,9	-21,627
934,3	-25,187
934,7	-20,907
935,2	-19,667
935,6	-19,547
936	-18,307
936,4	-16,347
936,8	-19,507
937,3	-18,267
937,7	-21,987
938,1	-17,787
938,5	-16,427
939	-13,547
939,4	-17,027
939,8	-15,387
940,2	-16,827
940,6	-25,467
941,1	-27,907
941,5	-26,227
941,9	-31,307
942,3	-31,867
942,8	-30,787
943,2	-31,587
943,6	-34,107
944	-28,147
944,4	-31,267
944,9	-30,587
945,3	-29,147
945,7	-34,827
946,1	-37,467
946,6	-34,307
947	-28,547
947,4	-28,867
947,8	-22,587
948,2	-18,027
948,7	-14,307
949,1	-17,547
949,5	-17,587
949,9	-15,507
950,3	-23,227
950,8	-23,667
951,2	-19,347
951,6	-15,707
952	-20,027
952,5	-14,027
952,9	-15,067
953,3	-18,027
953,7	-21,627
954,1	-15,347
954,6	-20,947
955	-20,507
955,4	-18,867
955,8	-15,267
956,2	-19,427
956,7	-16,547
957,1	-17,667
957,5	-13,627
957,9	-16,387
958,3	-17,347
958,8	-14,747
959,2	-12,707
959,6	-14,707
960	-14,267
960,5	-15,547
960,9	-12,747
961,3	-17,347
961,7	-27,267
962,1	-21,187
962,6	-20,267
963	-26,947
963,4	-24,707
963,8	-20,347
964,2	-33,227
964,7	-33,427
965,1	-30,787
965,5	-33,867
965,9	-38,147
966,3	-26,467
966,8	-27,627
967,2	-27,587
967,6	-28,107
968	-21,227
968,4	-22,267
968,9	-20,507
969,3	-21,987
969,7	-18,067
970,1	-20,147
970,5	-21,667
971	-16,907
971,4	-18,027
971,8	-14,547
972,2	-10,627
972,6	-9,347
973,1	-12,587
973,5	-7,547
973,9	-13,907
974,3	-15,067
974,7	-17,547
975,2	-23,547
975,6	-26,827
976	-22,067
976,4	-22,347
976,8	-24,467
977,3	-19,147
977,7	-16,307
978,1	-14,627
978,5	-13,107
978,9	-13,627
979,4	-18,387
979,8	-19,627
980,2	-19,747
980,6	-19,027
981	-15,867
981,5	-13,027
981,9	-12,667
982,3	-15,947
982,7	-16,187
983,1	-13,107
983,6	-9,427
984	-9,787
984,4	-10,187
984,8	-10,867
985,2	-18,307
985,6	-19,907
986,1	-17,387
986,5	-18,907
986,9	-21,187
987,3	-22,067
987,7	-23,907
988,2	-23,747
988,6	-18,707
989	-21,387
989,4	-17,907
989,8	-20,147
990,3	-26,427
990,7	-31,707
991,1	-35,907
991,5	-35,667
991,9	-33,427
992,3	-31,387
992,8	-28,707
993,2	-19,187
993,6	-15,267
994	-9,947
994,4	-8,267
994,9	-6,627
995,3	-10,667
995,7	-12,547
996,1	-13,987
996,5	-13,747
996,9	-10,307
997,4	-8,267
997,8	-12,387
998,2	-10,467
998,6	-11,347
999	-21,307
999,5	-26,027
999,9	-25,947
1000,3	-30,547
1000,7	-27,947
1001,1	-24,067
1001,5	-18,227
1002	-15,867
1002,4	-15,787
1002,8	-18,707
1003,2	-16,307
1003,6	-18,987
1004	-22,907
1004,5	-18,787
1004,9	-17,347
1005,3	-20,187
1005,7	-21,027
1006,1	-14,907
1006,6	-18,827
1007	-17,067
1007,4	-17,587
1007,8	-19,987
1008,2	-20,067
1008,6	-23,627
1009,1	-32,627
1009,5	-27,747
1009,9	-22,867
1010,3	-19,187
1010,7	-15,107
1011,1	-3,507
1011,6	-7,707
1012	-10,107
1012,4	-16,987
1012,8	-22,547
1013,2	-25,707
1013,6	-24,987
1014,1	-23,107
1014,5	-20,227
1014,9	-14,907
1015,3	-16,467
1015,7	-15,627
1016,1	-16,747
1016,6	-18,227
1017	-19,267
1017,4	-22,427
1017,8	-25,667
1018,2	-27,507
1018,6	-24,547
1019,1	-27,747
1019,5	-24,827
1019,9	-23,427
1020,3	-19,507
1020,7	-19,787
1021,1	-21,427
1021,6	-21,867
1022	-23,587
1022,4	-23,107
1022,8	-21,627
1023,2	-20,107
1023,6	-15,667
1024,1	-17,067
1024,5	-28,827
1024,9	-35,307
1025,3	-34,427
1025,7	-41,987
1026,1	-39,467
1026,6	-32,067
1027	-26,307
1027,4	-26,227
1027,8	-22,187
1028,2	-19,427
1028,6	-20,267
1029	-22,747
1029,5	-24,947
1029,9	-22,907
1030,3	-26,427
1030,7	-21,347
1031,1	-25,587
1031,5	-19,227
1032	-24,227
1032,4	-28,187
1032,8	-35,187
1033,2	-31,507
1033,6	-29,907
1034	-28,107
1034,4	-23,667
1034,9	-21,627
1035,3	-20,187
1035,7	-23,187
1036,1	-18,227
1036,5	-9,307
1036,9	-11,707
1037,4	-15,387
1037,8	-16,747
1038,2	-22,587
1038,6	-29,347
1039	-21,867
1039,4	-17,547
1039,8	-15,387
1040,3	-15,707
1040,7	-19,467
1041,1	-25,307
1041,5	-31,467
1041,9	-32,387
1042,3	-34,067
1042,7	-29,707
1043,2	-25,187
1043,6	-20,947
1044	-20,587
1044,4	-20,387
1044,8	-24,507
1045,2	-30,707
1045,6	-35,347
1046,1	-37,747
1046,5	-39,067
1046,9	-37,107
1047,3	-30,267
1047,7	-28,587
1048,1	-27,707
1048,5	-26,347
1049	-24,547
1049,4	-29,827
1049,8	-27,667
1050,2	-27,427
1050,6	-25,187
1051	-24,827
1051,4	-19,467
1051,9	-20,747
1052,3	-22,507
1052,7	-25,467
1053,1	-35,067
1053,5	-35,307
1053,9	-29,667
1054,3	-30,507
1054,8	-25,467
1055,2	-13,227
1055,6	-16,827
1056	-21,867
1056,4	-13,347
1056,8	-9,907
1057,2	-10,867
1057,6	-12,427
1058,1	-14,587
1058,5	-21,827
1058,9	-27,707
1059,3	-31,387
1059,7	-23,267
1060,1	-21,667
1060,5	-20,267
1061	-17,027
1061,4	-12,267
1061,8	-12,507
1062,2	-10,467
1062,6	-10,467
1063	-16,547
1063,4	-18,507
1063,8	-24,387
1064,3	-22,707
1064,7	-16,587
1065,1	-9,747
1065,5	-15,667
1065,9	-13,187
1066,3	-17,267
1066,7	-25,587
1067,1	-28,747
1067,6	-24,787
1068	-27,387
1068,4	-29,107
1068,8	-27,507
1069,2	-28,147
1069,6	-26,027
1070	-24,867
1070,4	-26,187
1070,9	-21,147
1071,3	-19,627
1071,7	-19,747
1072,1	-18,387
1072,5	-19,627
1072,9	-22,747
1073,3	-22,747
1073,7	-28,427
1074,2	-33,227
1074,6	-23,987
1075	-28,787
1075,4	-31,667
1075,8	-31,107
1076,2	-28,387
1076,6	-28,627
1077	-21,387
1077,5	-21,147
1077,9	-17,507
1078,3	-13,027
1078,7	-16,987
1079,1	-19,467
1079,5	-18,427
1079,9	-16,467
1080,3	-18,147
1080,7	-21,867
1081,2	-15,507
1081,6	-17,627
1082	-16,147
1082,4	-21,987
1082,8	-18,827
1083,2	-26,507
1083,6	-24,467
1084	-30,667
1084,5	-28,067
1084,9	-27,427
1085,3	-22,747
1085,7	-26,267
1086,1	-21,147
1086,5	-19,347
1086,9	-19,187
1087,3	-26,027
1087,7	-19,227
1088,2	-20,987
1088,6	-19,747
1089	-19,547
1089,4	-15,347
1089,8	-17,107
1090,2	-16,227
1090,6	-17,867
1091	-13,987
1091,4	-17,787
1091,9	-22,467
1092,3	-27,547
1092,7	-25,827
1093,1	-28,987
1093,5	-26,947
1093,9	-25,227
1094,3	-22,627
1094,7	-25,107
1095,1	-26,267
1095,5	-27,507
1096	-22,227
1096,4	-24,027
1096,8	-20,787
1097,2	-19,587
1097,6	-14,587
1098	-17,867
1098,4	-14,347
1098,8	-19,467
1099,2	-18,347
1099,6	-16,667
1100,1	-16,107
1100,5	-17,627
1100,9	-13,467
1101,3	-12,147
1101,7	-18,707
1102,1	-19,627
1102,5	-16,747
1102,9	-13,467
1103,3	-17,987
1103,7	-13,587
1104,2	-12,227
1104,6	-16,147
1105	-23,187
1105,4	-20,787
1105,8	-21,307
1106,2	-18,667
1106,6	-12,467
1107	-5,547
1107,4	-2,147
1107,8	-0,117
1108,3	1
