Data from Subt2_00004.txt Node
Date: Fri Aug 11 15:15:45 MSK 2023
User: vat
Spectrometer: MAYP114033
Trigger mode: 0
Integration Time (sec): 5,000000E-1
Scans to average: 5
Electric dark correction enabled: true
Nonlinearity correction enabled: false
Boxcar width: 2
XAxis mode: Wavelengths
Number of Pixels in Spectrum: 2068
>>>>>Begin Spectral Data<<<<<
199,4	-2,5
199,9	-2,033
200,4	-7,113
200,8	-6,033
201,3	-7,033
201,8	-12,993
202,2	-18,793
202,7	-15,713
203,2	-22,113
203,6	-25,633
204,1	-25,593
204,6	-26,553
205	-29,153
205,5	-27,193
206	-24,073
206,4	-21,113
206,9	-15,313
207,4	-16,833
207,8	-18,433
208,3	-21,833
208,8	-26,193
209,2	-34,393
209,7	-35,033
210,2	-34,113
210,6	-35,753
211,1	-33,633
211,5	-32,673
212	-32,753
212,5	-33,513
212,9	-27,113
213,4	-18,353
213,9	-12,993
214,3	-15,873
214,8	-15,233
215,3	-22,233
215,7	-32,513
216,2	-33,513
216,7	-29,273
217,1	-30,793
217,6	-35,673
218,1	-31,033
218,5	-34,433
219	-34,473
219,5	-36,593
219,9	-31,393
220,4	-39,633
220,9	-36,913
221,3	-37,713
221,8	-36,193
222,3	-38,473
222,7	-30,953
223,2	-29,273
223,6	-32,993
224,1	-32,153
224,6	-29,673
225	-32,873
225,5	-35,673
226	-33,913
226,4	-36,113
226,9	-33,593
227,4	-34,873
227,8	-37,393
228,3	-39,353
228,8	-37,353
229,2	-36,593
229,7	-33,233
230,2	-33,433
230,6	-26,713
231,1	-23,993
231,5	-31,953
232	-33,113
232,5	-34,353
232,9	-36,873
233,4	-37,073
233,9	-29,873
234,3	-29,473
234,8	-24,033
235,3	-29,073
235,7	-29,593
236,2	-33,673
236,7	-38,833
237,1	-41,513
237,6	-36,193
238,1	-40,433
238,5	-47,913
239	-46,273
239,4	-49,753
239,9	-49,713
240,4	-49,113
240,8	-40,753
241,3	-36,953
241,8	-35,393
242,2	-36,873
242,7	-32,193
243,2	-30,473
243,6	-32,873
244,1	-28,033
244,6	-29,513
245	-32,353
245,5	-38,193
245,9	-38,713
246,4	-41,953
246,9	-45,193
247,3	-46,153
247,8	-35,913
248,3	-33,273
248,7	-29,953
249,2	-20,353
249,7	-23,113
250,1	-33,913
250,6	-39,553
251	-44,313
251,5	-54,873
252	-50,913
252,4	-39,913
252,9	-37,593
253,4	-32,513
253,8	-20,113
254,3	-22,953
254,8	-30,033
255,2	-26,553
255,7	-28,753
256,1	-33,553
256,6	-30,073
257,1	-33,873
257,5	-32,633
258	-36,673
258,5	-36,313
258,9	-37,313
259,4	-30,713
259,9	-31,073
260,3	-26,113
260,8	-26,833
261,2	-31,433
261,7	-29,393
262,2	-31,353
262,6	-32,473
263,1	-34,753
263,6	-31,073
264	-36,553
264,5	-40,313
264,9	-37,393
265,4	-32,673
265,9	-34,753
266,3	-30,473
266,8	-24,673
267,3	-25,513
267,7	-28,353
268,2	-26,433
268,7	-25,233
269,1	-26,033
269,6	-31,913
270	-30,353
270,5	-31,433
271	-34,313
271,4	-33,353
271,9	-33,593
272,4	-31,233
272,8	-30,953
273,3	-25,193
273,7	-33,073
274,2	-26,353
274,7	-33,593
275,1	-33,433
275,6	-39,473
276,1	-34,873
276,5	-34,513
277	-29,913
277,4	-28,193
277,9	-30,553
278,4	-30,713
278,8	-30,433
279,3	-30,233
279,8	-28,673
280,2	-22,393
280,7	-18,953
281,1	-21,953
281,6	-21,753
282,1	-28,113
282,5	-27,793
283	-29,353
283,4	-28,673
283,9	-34,353
284,4	-26,393
284,8	-31,913
285,3	-34,153
285,8	-33,753
286,2	-29,193
286,7	-33,313
287,1	-31,553
287,6	-27,193
288,1	-29,393
288,5	-28,153
289	-24,313
289,5	-27,273
289,9	-24,833
290,4	-24,313
290,8	-25,233
291,3	-26,633
291,8	-25,233
292,2	-31,233
292,7	-28,233
293,1	-30,633
293,6	-33,713
294,1	-37,433
294,5	-39,993
295	-41,793
295,5	-33,953
295,9	-30,753
296,4	-26,233
296,8	-21,873
297,3	-22,553
297,8	-29,633
298,2	-30,633
298,7	-31,713
299,1	-32,353
299,6	-31,033
300,1	-24,513
300,5	-23,313
301	-24,873
301,5	-27,713
301,9	-24,913
302,4	-23,433
302,8	-26,433
303,3	-26,753
303,8	-27,673
304,2	-32,233
304,7	-36,753
305,1	-38,313
305,6	-32,473
306,1	-28,553
306,5	-27,513
307	-29,513
307,4	-21,873
307,9	-27,633
308,4	-28,673
308,8	-28,633
309,3	-30,113
309,8	-37,913
310,2	-36,393
310,7	-37,913
311,1	-38,433
311,6	-39,233
312,1	-34,513
312,5	-30,833
313	-28,793
313,4	-34,513
313,9	-33,353
314,4	-35,953
314,8	-30,633
315,3	-30,033
315,7	-26,433
316,2	-19,553
316,7	-20,993
317,1	-23,753
317,6	-26,753
318	-19,873
318,5	-21,993
319	-19,793
319,4	-28,193
319,9	-25,073
320,3	-27,113
320,8	-30,633
321,3	-29,593
321,7	-22,753
322,2	-23,473
322,6	-29,953
323,1	-37,553
323,6	-37,473
324	-37,033
324,5	-40,713
324,9	-38,713
325,4	-32,073
325,9	-33,513
326,3	-34,593
326,8	-32,433
327,2	-31,193
327,7	-27,833
328,2	-30,433
328,6	-29,913
329,1	-31,593
329,5	-26,153
330	-28,513
330,5	-29,153
330,9	-33,153
331,4	-30,073
331,8	-35,513
332,3	-32,713
332,8	-26,073
333,2	-27,073
333,7	-26,353
334,1	-25,233
334,6	-29,593
335,1	-30,553
335,5	-25,233
336	-29,593
336,4	-29,433
336,9	-30,193
337,4	-31,873
337,8	-38,353
338,3	-39,353
338,7	-39,833
339,2	-36,393
339,7	-35,473
340,1	-30,633
340,6	-25,993
341	-27,713
341,5	-28,953
342	-30,513
342,4	-37,033
342,9	-35,433
343,3	-40,353
343,8	-41,833
344,2	-43,913
344,7	-38,633
345,2	-39,593
345,6	-30,153
346,1	-32,433
346,5	-26,713
347	-28,033
347,5	-27,593
347,9	-27,353
348,4	-27,193
348,8	-27,993
349,3	-26,473
349,8	-27,233
350,2	-27,793
350,7	-19,513
351,1	-26,233
351,6	-25,633
352	-23,953
352,5	-25,113
353	-31,113
353,4	-25,753
353,9	-18,553
354,3	-14,713
354,8	-13,553
355,3	-8,553
355,7	-1,793
356,2	0,887
356,6	5,727
357,1	15,287
357,5	20,327
358	25,327
358,5	32,727
358,9	42,607
359,4	56,807
359,8	76,767
360,3	95,527
360,8	118,287
361,2	143,727
361,7	168,127
362,1	187,967
362,6	217,007
363	242,247
363,5	275,127
364	310,687
364,4	350,287
364,9	387,327
365,3	428,567
365,8	462,047
366,3	493,527
366,7	525,247
367,2	557,967
367,6	576,527
368,1	589,967
368,5	603,567
369	610,807
369,5	606,607
369,9	597,647
370,4	590,127
370,8	573,927
371,3	559,047
371,7	539,407
372,2	524,647
372,7	496,367
373,1	468,847
373,6	443,367
374	404,287
374,5	374,007
374,9	349,967
375,4	323,247
375,9	287,287
376,3	271,607
376,8	249,887
377,2	227,487
377,7	205,167
378,2	189,087
378,6	169,207
379,1	155,567
379,5	141,967
380	126,847
380,4	117,767
380,9	107,687
381,4	92,687
381,8	77,087
382,3	69,807
382,7	63,847
383,2	56,767
383,6	51,807
384,1	50,687
384,6	44,847
385	35,047
385,5	33,487
385,9	28,927
386,4	21,487
386,8	22,127
387,3	20,207
387,7	9,447
388,2	4,367
388,7	1,007
389,1	-2,033
389,6	-1,353
390	1,327
390,5	-0,433
390,9	-0,833
391,4	-8,833
391,9	-15,513
392,3	-16,153
392,8	-15,593
393,2	-12,393
393,7	-9,993
394,1	-8,793
394,6	-2,353
395,1	-2,553
395,5	-6,393
396	-7,713
396,4	-7,393
396,9	-16,553
397,3	-20,353
397,8	-14,033
398,2	-13,473
398,7	-11,273
399,2	-7,713
399,6	-6,393
400,1	-11,233
400,5	-10,113
401	-18,153
401,4	-17,713
401,9	-17,073
402,4	-15,033
402,8	-14,673
403,3	-3,993
403,7	-11,353
404,2	-8,633
404,6	-5,793
405,1	-5,313
405,5	-4,633
406	4,247
406,5	6,087
406,9	6,247
407,4	11,167
407,8	7,447
408,3	4,207
408,7	0,887
409,2	-3,313
409,6	-4,953
410,1	-0,753
410,6	6,247
411	13,887
411,5	27,127
411,9	39,087
412,4	46,327
412,8	50,127
413,3	52,927
413,7	51,047
414,2	54,167
414,7	49,647
415,1	52,287
415,6	55,927
416	65,127
416,5	66,007
416,9	78,287
417,4	82,447
417,8	85,807
418,3	91,167
418,8	96,887
419,2	106,207
419,7	117,527
420,1	129,407
420,6	131,127
421	135,887
421,5	144,447
421,9	154,167
422,4	163,367
422,8	179,207
423,3	189,007
423,8	202,327
424,2	207,367
424,7	215,687
425,1	224,287
425,6	242,087
426	246,407
426,5	263,807
426,9	279,447
427,4	296,927
427,9	307,767
428,3	324,287
428,8	333,047
429,2	348,727
429,7	363,127
430,1	385,247
430,6	405,007
431	425,967
431,5	452,887
431,9	476,367
432,4	503,767
432,8	532,527
433,3	567,527
433,8	590,407
434,2	620,247
434,7	650,807
435,1	683,407
435,6	719,607
436	754,967
436,5	798,927
436,9	838,927
437,4	883,167
437,8	924,167
438,3	974,447
438,8	1016,847
439,2	1068,407
439,7	1111,847
440,1	1162,167
440,6	1206,527
441	1258,847
441,5	1308,807
441,9	1370,167
442,4	1434,767
442,8	1505,847
443,3	1572,607
443,7	1632,407
444,2	1696,967
444,7	1758,287
445,1	1826,967
445,6	1906,767
446	1991,607
446,5	2071,287
446,9	2149,647
447,4	2227,327
447,8	2306,807
448,3	2386,567
448,7	2485,007
449,2	2579,487
449,6	2674,767
450,1	2761,887
450,6	2850,287
451	2928,767
451,5	3020,207
451,9	3119,647
452,4	3217,047
452,8	3327,487
453,3	3436,767
453,7	3542,847
454,2	3651,447
454,6	3763,287
455,1	3875,727
455,5	4001,007
456	4120,487
456,4	4227,407
456,9	4348,567
457,3	4468,607
457,8	4575,967
458,3	4699,487
458,7	4828,167
459,2	4948,807
459,6	5072,727
460,1	5190,127
460,5	5309,327
461	5440,087
461,4	5559,607
461,9	5678,367
462,3	5817,887
462,8	5947,687
463,2	6063,567
463,7	6203,567
464,1	6343,527
464,6	6482,047
465	6612,887
465,5	6754,207
466	6877,567
466,4	7003,527
466,9	7127,247
467,3	7257,767
467,8	7378,287
468,2	7508,407
468,7	7625,447
469,1	7736,447
469,6	7858,327
470	7986,767
470,5	8119,887
470,9	8232,927
471,4	8351,127
471,8	8464,447
472,3	8557,127
472,7	8648,887
473,2	8772,767
473,6	8883,167
474,1	8993,167
474,5	9109,967
475	9223,487
475,4	9304,927
475,9	9403,887
476,4	9489,807
476,8	9578,807
477,3	9660,967
477,7	9761,687
478,2	9852,207
478,6	9933,847
479,1	10018,287
479,5	10092,727
480	10157,567
480,4	10214,127
480,9	10286,567
481,3	10345,367
481,8	10400,367
482,2	10466,287
482,7	10523,367
483,1	10561,047
483,6	10605,887
484	10655,927
484,5	10692,047
484,9	10734,367
485,4	10780,807
485,8	10828,367
486,3	10845,367
486,7	10870,127
487,2	10891,327
487,6	10900,967
488,1	10905,367
488,5	10918,367
489	10918,567
489,4	10923,407
489,9	10932,967
490,4	10917,567
490,8	10910,047
491,3	10900,847
491,7	10886,287
492,2	10863,527
492,6	10852,727
493,1	10823,327
493,5	10796,767
494	10756,487
494,4	10715,807
494,9	10676,687
495,3	10652,927
495,8	10611,847
496,2	10576,407
496,7	10546,327
497,1	10504,367
497,6	10464,447
498	10442,727
498,5	10393,967
498,9	10348,327
499,4	10304,247
499,8	10243,047
500,3	10172,127
500,7	10121,967
501,2	10068,927
501,6	10009,527
502,1	9956,007
502,5	9888,407
503	9820,927
503,4	9755,167
503,9	9696,727
504,3	9630,527
504,8	9569,407
505,2	9513,487
505,7	9430,367
506,1	9368,847
506,6	9296,087
507	9235,927
507,5	9163,567
507,9	9110,687
508,4	9025,767
508,8	8958,087
509,3	8879,847
509,7	8800,927
510,2	8722,367
510,6	8633,647
511,1	8559,287
511,5	8480,607
512	8395,607
512,4	8308,927
512,9	8227,127
513,3	8142,007
513,8	8057,647
514,2	7987,807
514,7	7899,687
515,1	7826,967
515,6	7738,727
516	7670,087
516,5	7582,647
516,9	7496,367
517,4	7424,327
517,8	7348,687
518,3	7256,007
518,7	7168,087
519,2	7110,687
519,6	7027,847
520,1	6949,407
520,5	6870,807
521	6799,287
521,4	6703,487
521,9	6622,487
522,3	6548,447
522,8	6472,607
523,2	6402,927
523,7	6337,687
524,1	6270,927
524,6	6200,007
525	6127,407
525,5	6048,887
525,9	5971,407
526,4	5901,007
526,8	5831,487
527,3	5772,047
527,7	5712,207
528,2	5654,887
528,6	5592,207
529,1	5519,007
529,5	5455,327
530	5380,647
530,4	5320,767
530,9	5256,967
531,3	5199,447
531,8	5124,407
532,2	5069,927
532,6	5010,167
533,1	4947,487
533,5	4885,767
534	4827,327
534,4	4768,407
534,9	4710,847
535,3	4661,607
535,8	4618,007
536,2	4573,247
536,7	4525,847
537,1	4465,927
537,6	4401,487
538	4336,127
538,5	4287,407
538,9	4224,727
539,4	4175,127
539,8	4138,447
540,3	4088,807
540,7	4041,607
541,2	4001,447
541,6	3966,807
542,1	3913,687
542,5	3882,567
543	3833,447
543,4	3793,447
543,9	3745,007
544,3	3703,967
544,8	3656,887
545,2	3615,447
545,7	3572,687
546,1	3530,127
546,5	3497,807
547	3456,367
547,4	3424,807
547,9	3383,407
548,3	3349,927
548,8	3313,447
549,2	3285,487
549,7	3245,887
550,1	3216,247
550,6	3175,007
551	3136,127
551,5	3100,207
551,9	3075,767
552,4	3041,887
552,8	3015,247
553,3	2987,327
553,7	2958,327
554,2	2927,447
554,6	2906,407
555,1	2884,047
555,5	2856,927
555,9	2826,247
556,4	2789,807
556,8	2752,687
557,3	2723,247
557,7	2691,967
558,2	2668,847
558,6	2650,367
559,1	2632,087
559,5	2607,687
560	2579,527
560,4	2553,927
560,9	2525,127
561,3	2510,447
561,8	2479,927
562,2	2464,847
562,7	2437,047
563,1	2417,567
563,6	2384,407
564	2369,567
564,4	2344,727
564,9	2334,847
565,3	2312,127
565,8	2283,807
566,2	2259,047
566,7	2233,247
567,1	2210,447
567,6	2193,927
568	2179,047
568,5	2161,087
568,9	2149,527
569,4	2126,767
569,8	2102,767
570,3	2084,247
570,7	2070,767
571,1	2057,807
571,6	2034,567
572	2017,647
572,5	2003,287
572,9	1983,847
573,4	1959,047
573,8	1955,007
574,3	1933,687
574,7	1922,927
575,2	1906,407
575,6	1888,967
576,1	1865,567
576,5	1864,047
576,9	1833,807
577,4	1812,487
577,8	1801,567
578,3	1789,447
578,7	1771,967
579,2	1769,047
579,6	1758,527
580,1	1743,487
580,5	1728,767
581	1709,927
581,4	1686,567
581,9	1661,487
582,3	1650,087
582,7	1631,967
583,2	1619,407
583,6	1611,007
584,1	1611,967
584,5	1603,407
585	1594,487
585,4	1575,967
585,9	1565,007
586,3	1549,327
586,8	1530,607
587,2	1525,007
587,6	1525,567
588,1	1508,367
588,5	1498,087
589	1484,687
589,4	1463,807
589,9	1447,727
590,3	1435,807
590,8	1422,727
591,2	1411,927
591,7	1407,487
592,1	1392,247
592,5	1391,047
593	1386,927
593,4	1386,447
593,9	1378,727
594,3	1378,167
594,8	1368,247
595,2	1359,887
595,7	1345,447
596,1	1333,647
596,6	1324,767
597	1315,647
597,4	1300,367
597,9	1289,207
598,3	1279,407
598,8	1265,007
599,2	1249,047
599,7	1248,807
600,1	1243,567
600,6	1231,047
601	1226,527
601,4	1226,367
601,9	1207,687
602,3	1188,927
602,8	1187,487
603,2	1177,327
603,7	1169,447
604,1	1163,927
604,6	1167,287
605	1160,487
605,4	1157,287
605,9	1148,487
606,3	1142,727
606,8	1133,207
607,2	1125,687
607,7	1116,167
608,1	1103,367
608,6	1100,607
609	1096,247
609,4	1087,967
609,9	1075,807
610,3	1077,247
610,8	1072,447
611,2	1062,967
611,7	1055,807
612,1	1053,407
612,6	1038,647
613	1023,687
613,4	1025,647
613,9	1015,007
614,3	1002,367
614,8	999,247
615,2	994,967
615,7	978,647
616,1	979,887
616,6	971,447
617	971,807
617,4	962,167
617,9	953,247
618,3	946,127
618,8	944,327
619,2	930,847
619,7	925,487
620,1	920,287
620,5	915,207
621	907,367
621,4	905,967
621,9	898,967
622,3	885,367
622,8	873,887
623,2	858,567
623,6	853,767
624,1	854,527
624,5	855,207
625	852,247
625,4	863,447
625,9	851,807
626,3	845,087
626,8	841,887
627,2	835,127
627,6	828,607
628,1	822,007
628,5	808,407
629	802,887
629,4	795,407
629,9	790,127
630,3	784,247
630,7	781,967
631,2	772,807
631,6	763,687
632,1	756,087
632,5	752,527
633	748,767
633,4	744,087
633,8	737,207
634,3	727,087
634,7	721,047
635,2	710,447
635,6	705,727
636,1	707,487
636,5	702,687
636,9	694,647
637,4	692,327
637,8	694,647
638,3	690,447
638,7	687,447
639,2	689,527
639,6	686,607
640	673,887
640,5	666,127
640,9	659,847
641,4	654,927
641,8	650,687
642,2	645,167
642,7	633,847
643,1	629,087
643,6	624,127
644	624,407
644,5	629,527
644,9	632,567
645,3	625,127
645,8	622,767
646,2	611,727
646,7	594,207
647,1	591,287
647,6	591,727
648	582,087
648,4	582,247
648,9	583,727
649,3	576,927
649,8	576,767
650,2	581,567
650,6	576,367
651,1	570,247
651,5	568,767
652	561,247
652,4	555,927
652,9	549,447
653,3	551,407
653,7	544,927
654,2	542,687
654,6	529,927
655,1	527,087
655,5	525,447
655,9	526,927
656,4	523,767
656,8	526,967
657,3	524,647
657,7	515,167
658,2	507,687
658,6	504,647
659	498,127
659,5	496,527
659,9	496,807
660,4	494,567
660,8	493,327
661,2	489,527
661,7	483,247
662,1	483,127
662,6	476,047
663	463,887
663,4	458,287
663,9	456,927
664,3	450,527
664,8	451,407
665,2	456,007
665,6	454,767
666,1	452,487
666,5	449,007
667	444,287
667,4	441,607
667,9	442,487
668,3	440,727
668,7	440,807
669,2	435,927
669,6	430,807
670,1	429,607
670,5	422,167
670,9	415,247
671,4	418,287
671,8	410,207
672,3	399,447
672,7	403,687
673,1	401,167
673,6	395,207
674	396,487
674,5	394,927
674,9	385,087
675,3	378,367
675,8	374,007
676,2	369,567
676,7	365,487
677,1	368,487
677,5	363,367
678	358,647
678,4	356,887
678,9	355,807
679,3	347,487
679,7	349,887
680,2	349,207
680,6	348,327
681,1	345,967
681,5	347,087
681,9	341,887
682,4	337,087
682,8	330,727
683,3	325,447
683,7	320,887
684,1	320,207
684,6	322,687
685	323,567
685,5	318,487
685,9	321,007
686,3	319,047
686,8	314,687
687,2	313,287
687,7	321,167
688,1	313,007
688,5	306,607
689	298,687
689,4	291,967
689,9	284,967
690,3	283,487
690,7	285,727
691,2	295,207
691,6	296,087
692	296,487
692,5	296,487
692,9	297,367
693,4	294,207
693,8	289,447
694,2	282,647
694,7	281,967
695,1	278,727
695,6	276,767
696	272,167
696,4	270,527
696,9	263,087
697,3	259,607
697,8	251,527
698,2	256,887
698,6	261,247
699,1	265,447
699,5	261,527
699,9	261,687
700,4	254,807
700,8	248,487
701,3	242,527
701,7	245,007
702,1	239,847
702,6	233,647
703	233,567
703,5	227,967
703,9	225,207
704,3	227,007
704,8	230,527
705,2	224,767
705,6	226,727
706,1	223,647
706,5	211,767
707	212,087
707,4	214,887
707,8	219,007
708,3	218,967
708,7	226,927
709,2	220,367
709,6	219,567
710	215,807
710,5	211,887
710,9	207,167
711,3	205,967
711,8	207,327
712,2	204,767
712,7	199,127
713,1	202,447
713,5	202,327
714	189,087
714,4	186,047
714,8	190,967
715,3	185,567
715,7	189,047
716,2	189,927
716,6	186,007
717	179,927
717,5	178,207
717,9	181,207
718,3	184,047
718,8	181,767
719,2	184,487
719,7	180,607
720,1	169,967
720,5	163,767
721	164,927
721,4	164,487
721,8	164,847
722,3	164,407
722,7	166,567
723,2	168,327
723,6	158,047
724	155,887
724,5	150,687
724,9	149,687
725,3	145,447
725,8	148,007
726,2	145,207
726,7	151,367
727,1	150,927
727,5	153,367
728	154,087
728,4	152,487
728,8	147,847
729,3	143,007
729,7	138,767
730,1	133,447
730,6	136,687
731	138,687
731,5	138,567
731,9	133,527
732,3	133,527
732,8	126,047
733,2	123,087
733,6	125,207
734,1	126,687
734,5	127,127
734,9	133,327
735,4	130,407
735,8	123,487
736,3	119,887
736,7	123,887
737,1	124,607
737,6	120,687
738	127,967
738,4	127,607
738,9	119,727
739,3	114,327
739,7	119,407
740,2	113,047
740,6	119,167
741,1	122,287
741,5	123,407
741,9	115,087
742,4	113,087
742,8	105,407
743,2	101,407
743,7	99,087
744,1	103,167
744,5	107,647
745	101,847
745,4	103,087
745,8	107,727
746,3	107,127
746,7	101,607
747,2	101,927
747,6	102,927
748	96,367
748,5	94,127
748,9	95,527
749,3	97,687
749,8	97,967
750,2	101,127
750,6	102,327
751,1	92,567
751,5	98,327
751,9	96,847
752,4	94,687
752,8	89,927
753,3	97,047
753,7	93,567
754,1	91,207
754,6	87,207
755	90,007
755,4	91,087
755,9	78,287
756,3	74,887
756,7	72,727
757,2	72,087
757,6	71,607
758	78,487
758,5	82,087
758,9	85,607
759,3	81,047
759,8	79,367
760,2	80,887
760,6	77,247
761,1	80,847
761,5	84,207
761,9	81,687
762,4	79,847
762,8	74,967
763,3	71,927
763,7	78,127
764,1	80,007
764,6	82,887
765	87,207
765,4	83,847
765,9	79,927
766,3	79,167
766,7	77,007
767,2	79,567
767,6	73,207
768	70,887
768,5	65,647
768,9	69,367
769,3	64,367
769,8	68,007
770,2	64,087
770,6	65,007
771,1	64,007
771,5	69,087
771,9	68,007
772,4	68,167
772,8	68,247
773,2	58,447
773,7	54,847
774,1	59,087
774,5	58,447
775	55,567
775,4	62,567
775,8	60,967
776,3	57,647
776,7	51,487
777,1	53,127
777,6	52,447
778	50,447
778,4	50,767
778,9	57,487
779,3	57,967
779,7	52,847
780,2	53,807
780,6	54,447
781	53,087
781,5	52,887
781,9	46,367
782,3	46,087
782,8	44,287
783,2	40,327
783,6	34,807
784,1	35,687
784,5	37,127
784,9	38,207
785,4	37,647
785,8	41,527
786,2	39,647
786,7	37,807
787,1	35,007
787,5	37,727
788	37,927
788,4	44,327
788,8	39,287
789,3	40,487
789,7	40,327
790,1	42,287
790,6	43,407
791	48,527
791,4	49,727
791,9	46,407
792,3	38,167
792,7	38,527
793,2	33,127
793,6	29,487
794	30,447
794,5	39,207
794,9	42,127
795,3	46,807
795,8	49,807
796,2	48,087
796,6	47,807
797,1	41,007
797,5	35,567
797,9	28,847
798,4	28,567
798,8	22,247
799,2	19,927
799,7	21,047
800,1	25,967
800,5	27,967
801	23,647
801,4	23,807
801,8	24,687
802,2	17,887
802,7	21,927
803,1	25,567
803,5	33,567
804	32,127
804,4	32,927
804,8	22,927
805,3	19,967
805,7	15,847
806,1	17,087
806,6	22,167
807	25,047
807,4	30,207
807,9	29,047
808,3	32,127
808,7	24,127
809,2	25,807
809,6	24,407
810	21,527
810,4	18,327
810,9	19,687
811,3	17,887
811,7	17,527
812,2	10,807
812,6	6,887
813	10,047
813,5	11,247
813,9	14,247
814,3	23,087
814,8	26,647
815,2	24,567
815,6	23,207
816,1	19,247
816,5	13,407
816,9	9,607
817,3	8,167
817,8	6,407
818,2	3,807
818,6	2,647
819,1	6,927
819,5	7,167
819,9	3,007
820,4	5,047
820,8	11,167
821,2	6,767
821,7	12,007
822,1	14,487
822,5	16,167
822,9	14,407
823,4	17,847
823,8	11,807
824,2	9,967
824,7	2,607
825,1	-1,713
825,5	-5,393
826	-4,913
826,4	0,127
826,8	2,247
827,3	5,087
827,7	3,287
828,1	1,447
828,5	0,047
829	0,287
829,4	-1,273
829,8	0,807
830,3	6,247
830,7	3,007
831,1	3,367
831,6	2,247
832	5,127
832,4	0,207
832,8	3,327
833,3	4,687
833,7	8,927
834,1	6,407
834,6	5,727
835	1,407
835,4	-2,753
835,8	-7,153
836,3	-8,073
836,7	-5,633
837,1	-7,153
837,6	-0,353
838	-2,793
838,4	2,087
838,9	-2,353
839,3	1,527
839,7	-4,833
840,1	-1,473
840,6	-12,353
841	-7,953
841,4	-12,553
841,9	-7,393
842,3	-6,073
842,7	-5,353
843,1	-7,513
843,6	-1,473
844	-7,713
844,4	-5,473
844,9	-2,753
845,3	-0,313
845,7	-6,433
846,2	-4,713
846,6	-7,153
847	-12,313
847,4	-15,473
847,9	-17,873
848,3	-21,553
848,7	-18,233
849,2	-14,193
849,6	-13,113
850	-2,993
850,4	4,447
850,9	5,407
851,3	6,407
851,7	4,207
852,2	-2,313
852,6	-11,313
853	-12,313
853,4	-16,553
853,9	-15,513
854,3	-7,753
854,7	-0,873
855,2	0,207
855,6	1,647
856	-4,713
856,4	-9,593
856,9	-15,193
857,3	-22,713
857,7	-21,673
858,2	-8,673
858,6	-12,193
859	-11,353
859,4	-15,673
859,9	-17,393
860,3	-23,033
860,7	-23,233
861,1	-17,873
861,6	-15,873
862	-8,553
862,4	-11,073
862,9	-4,553
863,3	-9,073
863,7	-0,073
864,1	-4,473
864,6	-6,873
865	-14,953
865,4	-10,713
865,9	-13,873
866,3	-15,033
866,7	-11,393
867,1	-11,073
867,6	-19,833
868	-15,353
868,4	-17,233
868,8	-24,353
869,3	-20,233
869,7	-18,433
870,1	-21,913
870,6	-22,633
871	-10,073
871,4	53,207
871,8	53,007
872,3	46,767
872,7	55,287
873,1	47,007
873,5	-19,633
874	-17,713
874,4	-13,153
874,8	-23,393
875,3	-17,233
875,7	-19,553
876,1	-18,993
876,5	-23,713
877	-14,433
877,4	-17,993
877,8	-11,873
878,2	-13,313
878,7	-19,233
879,1	-23,713
879,5	-26,913
879,9	-35,313
880,4	-34,953
880,8	-25,273
881,2	-27,433
881,7	-24,953
882,1	-17,073
882,5	-9,833
882,9	-12,673
883,4	-11,793
883,8	-17,873
884,2	-15,873
884,6	-27,993
885,1	-29,513
885,5	-30,433
885,9	-23,273
886,3	-27,233
886,8	-21,633
887,2	-19,833
887,6	-17,913
888	-22,593
888,5	-24,713
888,9	-26,273
889,3	-20,913
889,8	-20,553
890,2	-25,553
890,6	-24,553
891	-16,833
891,5	-24,273
891,9	-26,113
892,3	-18,393
892,7	-23,073
893,2	-35,353
893,6	-30,553
894	-33,713
894,4	-35,753
894,9	-30,233
895,3	-22,273
895,7	-23,513
896,1	-24,913
896,6	-22,913
897	-22,553
897,4	-23,753
897,8	-26,153
898,3	-25,313
898,7	-29,713
899,1	-31,713
899,5	-35,713
900	-41,793
900,4	-37,793
900,8	-33,993
901,2	-30,553
901,7	-22,753
902,1	-14,433
902,5	-16,873
902,9	-11,233
903,4	-17,313
903,8	-26,273
904,2	-29,753
904,6	-26,993
905,1	-38,633
905,5	-40,753
905,9	-34,433
906,3	-37,033
906,8	-34,593
907,2	-30,833
907,6	-26,713
908	-31,353
908,5	-30,913
908,9	-36,233
909,3	-34,993
909,7	-29,513
910,2	-25,993
910,6	-25,073
911	-20,153
911,4	-16,833
911,9	-21,673
912,3	-19,273
912,7	-18,833
913,1	-23,193
913,6	-24,793
914	-23,233
914,4	-23,153
914,8	-19,873
915,3	-16,553
915,7	-19,953
916,1	-22,473
916,5	-22,153
916,9	-26,953
917,4	-28,633
917,8	-25,113
918,2	-22,433
918,6	-22,913
919,1	-21,153
919,5	-19,513
919,9	-22,153
920,3	-22,953
920,8	-27,113
921,2	-28,193
921,6	-30,953
922	-33,993
922,5	-33,473
922,9	-32,353
923,3	-30,433
923,7	-29,513
924,2	-29,553
924,6	-30,113
925	-28,513
925,4	-24,393
925,8	-30,313
926,3	-29,233
926,7	-29,913
927,1	-29,753
927,5	-30,233
928	-25,633
928,4	-20,473
928,8	-23,273
929,2	-23,393
929,7	-29,873
930,1	-35,553
930,5	-40,353
930,9	-41,673
931,3	-45,273
931,8	-41,153
932,2	-38,513
932,6	-35,633
933	-35,313
933,5	-33,713
933,9	-34,593
934,3	-27,513
934,7	-30,393
935,2	-30,033
935,6	-30,073
936	-33,033
936,4	-37,433
936,8	-31,033
937,3	-22,953
937,7	-29,113
938,1	-24,393
938,5	-21,633
939	-22,993
939,4	-32,473
939,8	-24,913
940,2	-26,953
940,6	-28,393
941,1	-27,233
941,5	-22,873
941,9	-27,793
942,3	-29,913
942,8	-25,433
943,2	-28,193
943,6	-30,393
944	-29,473
944,4	-33,833
944,9	-41,473
945,3	-47,313
945,7	-50,153
946,1	-50,913
946,6	-40,473
947	-36,713
947,4	-31,473
947,8	-25,513
948,2	-26,633
948,7	-30,633
949,1	-28,673
949,5	-27,753
949,9	-29,793
950,3	-25,753
950,8	-26,073
951,2	-29,513
951,6	-30,833
952	-28,993
952,5	-29,633
952,9	-29,513
953,3	-32,193
953,7	-34,633
954,1	-39,033
954,6	-41,873
955	-44,713
955,4	-43,553
955,8	-42,193
956,2	-38,753
956,7	-34,193
957,1	-30,193
957,5	-32,113
957,9	-31,513
958,3	-29,833
958,8	-27,873
959,2	-27,833
959,6	-21,113
960	-24,073
960,5	-29,313
960,9	-35,513
961,3	-38,873
961,7	-45,833
962,1	-46,673
962,6	-46,073
963	-41,713
963,4	-45,433
963,8	-40,913
964,2	-36,513
964,7	-29,593
965,1	-34,513
965,5	-23,073
965,9	-29,433
966,3	-32,473
966,8	-42,433
967,2	-40,273
967,6	-45,233
968	-40,313
968,4	-38,833
968,9	-29,873
969,3	-29,713
969,7	-26,353
970,1	-24,753
970,5	-25,033
971	-30,193
971,4	-25,793
971,8	-30,913
972,2	-34,353
972,6	-29,273
973,1	-26,673
973,5	-28,713
973,9	-22,033
974,3	-20,473
974,7	-19,753
975,2	-17,673
975,6	-23,993
976	-30,953
976,4	-26,353
976,8	-29,513
977,3	-33,273
977,7	-25,793
978,1	-30,633
978,5	-34,553
978,9	-36,913
979,4	-33,393
979,8	-37,993
980,2	-34,633
980,6	-30,073
981	-30,073
981,5	-31,153
981,9	-30,993
982,3	-29,313
982,7	-33,153
983,1	-30,273
983,6	-31,553
984	-31,033
984,4	-31,393
984,8	-38,953
985,2	-40,153
985,6	-40,033
986,1	-35,953
986,5	-35,033
986,9	-23,793
987,3	-27,433
987,7	-28,113
988,2	-35,113
988,6	-36,313
989	-33,713
989,4	-34,553
989,8	-35,513
990,3	-28,233
990,7	-27,753
991,1	-36,793
991,5	-35,753
991,9	-34,673
992,3	-37,713
992,8	-36,993
993,2	-32,113
993,6	-29,033
994	-28,993
994,4	-33,393
994,9	-34,113
995,3	-39,033
995,7	-39,393
996,1	-37,273
996,5	-39,473
996,9	-38,713
997,4	-34,513
997,8	-39,633
998,2	-39,073
998,6	-31,313
999	-34,673
999,5	-33,033
999,9	-29,233
1000,3	-35,633
1000,7	-35,633
1001,1	-28,033
1001,5	-30,833
1002	-32,353
1002,4	-23,193
1002,8	-21,273
1003,2	-26,873
1003,6	-32,793
1004	-33,753
1004,5	-38,873
1004,9	-45,713
1005,3	-46,473
1005,7	-44,513
1006,1	-43,993
1006,6	-42,913
1007	-36,473
1007,4	-35,153
1007,8	-32,593
1008,2	-30,953
1008,6	-34,073
1009,1	-37,833
1009,5	-39,153
1009,9	-35,833
1010,3	-30,233
1010,7	-27,753
1011,1	-27,633
1011,6	-28,393
1012	-36,073
1012,4	-42,073
1012,8	-40,353
1013,2	-36,033
1013,6	-30,593
1014,1	-24,113
1014,5	-22,193
1014,9	-25,833
1015,3	-21,193
1015,7	-27,153
1016,1	-30,153
1016,6	-29,993
1017	-26,793
1017,4	-37,553
1017,8	-32,833
1018,2	-38,793
1018,6	-35,513
1019,1	-36,113
1019,5	-37,073
1019,9	-38,953
1020,3	-35,393
1020,7	-41,473
1021,1	-45,593
1021,6	-44,393
1022	-43,233
1022,4	-40,273
1022,8	-39,513
1023,2	-36,713
1023,6	-33,913
1024,1	-31,993
1024,5	-28,233
1024,9	-27,113
1025,3	-26,233
1025,7	-29,233
1026,1	-37,273
1026,6	-40,273
1027	-37,793
1027,4	-34,793
1027,8	-29,353
1028,2	-26,233
1028,6	-25,593
1029	-31,193
1029,5	-35,353
1029,9	-40,873
1030,3	-37,113
1030,7	-38,833
1031,1	-33,473
1031,5	-33,873
1032	-42,393
1032,4	-43,273
1032,8	-46,073
1033,2	-49,393
1033,6	-48,273
1034	-38,713
1034,4	-42,113
1034,9	-38,833
1035,3	-29,193
1035,7	-32,913
1036,1	-35,913
1036,5	-30,473
1036,9	-31,393
1037,4	-40,553
1037,8	-40,073
1038,2	-34,473
1038,6	-36,753
1039	-33,633
1039,4	-31,993
1039,8	-33,793
1040,3	-35,953
1040,7	-36,633
1041,1	-41,913
1041,5	-46,753
1041,9	-46,673
1042,3	-43,953
1042,7	-47,313
1043,2	-32,513
1043,6	-27,873
1044	-19,993
1044,4	-24,993
1044,8	-18,313
1045,2	-40,473
1045,6	-48,753
1046,1	-49,033
1046,5	-42,113
1046,9	-46,153
1047,3	-37,633
1047,7	-28,593
1048,1	-31,833
1048,5	-39,273
1049	-38,273
1049,4	-35,273
1049,8	-41,273
1050,2	-38,553
1050,6	-37,033
1051	-32,073
1051,4	-32,233
1051,9	-31,113
1052,3	-32,553
1052,7	-33,313
1053,1	-43,353
1053,5	-44,513
1053,9	-39,793
1054,3	-43,153
1054,8	-41,913
1055,2	-39,033
1055,6	-36,833
1056	-43,993
1056,4	-40,873
1056,8	-42,633
1057,2	-40,673
1057,6	-47,633
1058,1	-45,713
1058,5	-47,913
1058,9	-38,473
1059,3	-38,033
1059,7	-30,233
1060,1	-28,913
1060,5	-32,113
1061	-42,713
1061,4	-38,793
1061,8	-34,473
1062,2	-31,793
1062,6	-32,673
1063	-32,113
1063,4	-39,873
1063,8	-48,353
1064,3	-53,273
1064,7	-49,833
1065,1	-52,553
1065,5	-46,753
1065,9	-49,833
1066,3	-47,393
1066,7	-48,113
1067,1	-37,633
1067,6	-42,953
1068	-39,353
1068,4	-34,353
1068,8	-29,433
1069,2	-34,113
1069,6	-31,913
1070	-29,953
1070,4	-34,593
1070,9	-41,793
1071,3	-37,913
1071,7	-35,633
1072,1	-35,393
1072,5	-33,073
1072,9	-26,433
1073,3	-29,073
1073,7	-28,233
1074,2	-27,073
1074,6	-28,953
1075	-23,073
1075,4	-24,313
1075,8	-25,273
1076,2	-27,513
1076,6	-21,713
1077	-31,313
1077,5	-28,553
1077,9	-30,593
1078,3	-33,993
1078,7	-35,753
1079,1	-35,873
1079,5	-41,913
1079,9	-40,233
1080,3	-40,033
1080,7	-45,393
1081,2	-42,153
1081,6	-39,313
1082	-38,193
1082,4	-33,713
1082,8	-28,673
1083,2	-27,313
1083,6	-30,673
1084	-28,913
1084,5	-33,713
1084,9	-34,233
1085,3	-38,713
1085,7	-36,873
1086,1	-37,273
1086,5	-33,553
1086,9	-31,553
1087,3	-33,713
1087,7	-29,153
1088,2	-33,913
1088,6	-30,753
1089	-31,753
1089,4	-27,433
1089,8	-23,833
1090,2	-25,393
1090,6	-25,633
1091	-33,073
1091,4	-35,553
1091,9	-36,273
1092,3	-32,593
1092,7	-30,273
1093,1	-28,913
1093,5	-29,913
1093,9	-34,593
1094,3	-32,633
1094,7	-36,113
1095,1	-29,673
1095,5	-25,273
1096	-29,473
1096,4	-34,033
1096,8	-33,113
1097,2	-31,673
1097,6	-34,753
1098	-25,833
1098,4	-22,473
1098,8	-23,393
1099,2	-28,273
1099,6	-31,833
1100,1	-33,753
1100,5	-30,273
1100,9	-37,553
1101,3	-35,953
1101,7	-26,273
1102,1	-29,553
1102,5	-28,713
1102,9	-19,233
1103,3	-12,913
1103,7	-15,153
1104,2	-13,673
1104,6	-13,913
1105	-16,833
1105,4	-20,033
1105,8	-19,833
1106,2	-13,473
1106,6	-12,393
1107	-6,513
1107,4	-4,073
1107,8	0,667
1108,3	0,033
