Data from Subt2_00006.txt Node
Date: Fri Aug 11 15:17:28 MSK 2023
User: vat
Spectrometer: MAYP114033
Trigger mode: 0
Integration Time (sec): 5,000000E-1
Scans to average: 5
Electric dark correction enabled: true
Nonlinearity correction enabled: false
Boxcar width: 2
XAxis mode: Wavelengths
Number of Pixels in Spectrum: 2068
>>>>>Begin Spectral Data<<<<<
199,4	-2,067
199,9	-1,85
200,4	-8,08
200,8	-11,72
201,3	-18,28
201,8	-24,4
202,2	-29,28
202,7	-22,32
203,2	-20,88
203,6	-20,24
204,1	-19,92
204,6	-24,6
205	-30,72
205,5	-32,96
206	-33,48
206,4	-29,64
206,9	-27,12
207,4	-28,96
207,8	-28,64
208,3	-29,88
208,8	-34,32
209,2	-36,76
209,7	-38,32
210,2	-45,16
210,6	-41,64
211,1	-45,32
211,5	-42,84
212	-41,36
212,5	-36,28
212,9	-29,6
213,4	-23,24
213,9	-23,84
214,3	-26
214,8	-27,64
215,3	-32,48
215,7	-34
216,2	-28,08
216,7	-25,88
217,1	-26,88
217,6	-31,68
218,1	-28,08
218,5	-36,52
219	-33,76
219,5	-40,28
219,9	-42,72
220,4	-50,72
220,9	-45,68
221,3	-45,16
221,8	-39,08
222,3	-40,44
222,7	-39,96
223,2	-44,16
223,6	-46,96
224,1	-43,68
224,6	-36
225	-33,16
225,5	-31,36
226	-33,16
226,4	-32,16
226,9	-33,76
227,4	-41,36
227,8	-41
228,3	-44,12
228,8	-50,12
229,2	-50,32
229,7	-43,96
230,2	-47,76
230,6	-39,64
231,1	-40,12
231,5	-44
232	-43,44
232,5	-39,04
232,9	-43,4
233,4	-35,8
233,9	-33,6
234,3	-32,68
234,8	-33,56
235,3	-37,72
235,7	-33,96
236,2	-37,84
236,7	-38,24
237,1	-41,36
237,6	-39,48
238,1	-45,92
238,5	-47,28
239	-49,6
239,4	-47,44
239,9	-44,44
240,4	-45,92
240,8	-42,84
241,3	-39,76
241,8	-37,84
242,2	-39
242,7	-36,08
243,2	-35,6
243,6	-34,32
244,1	-36,56
244,6	-37
245	-35,32
245,5	-33,68
245,9	-40,84
246,4	-38,04
246,9	-40,32
247,3	-46
247,8	-40,76
248,3	-30,96
248,7	-27,04
249,2	-24,16
249,7	-19,64
250,1	-26,2
250,6	-30,88
251	-37,24
251,5	-44,8
252	-45,52
252,4	-43,16
252,9	-43,28
253,4	-42,2
253,8	-29,24
254,3	-35,72
254,8	-39,88
255,2	-39,76
255,7	-34,36
256,1	-42,12
256,6	-37,96
257,1	-39,08
257,5	-41,6
258	-53,36
258,5	-52,48
258,9	-46,76
259,4	-46,24
259,9	-42,68
260,3	-35,24
260,8	-30,88
261,2	-36,16
261,7	-28,36
262,2	-29,4
262,6	-30,36
263,1	-37
263,6	-38,16
264	-44
264,5	-45,12
264,9	-41,84
265,4	-32,96
265,9	-36,2
266,3	-31,56
266,8	-26,52
267,3	-30,84
267,7	-37
268,2	-34,16
268,7	-36,12
269,1	-41,8
269,6	-45
270	-43,16
270,5	-39,16
271	-37,8
271,4	-36,24
271,9	-38,44
272,4	-35,08
272,8	-43,16
273,3	-40,04
273,7	-42,56
274,2	-32,08
274,7	-40,8
275,1	-33,92
275,6	-36,76
276,1	-29,28
276,5	-32,08
277	-21,32
277,4	-17,76
277,9	-27,88
278,4	-35,28
278,8	-33
279,3	-38,48
279,8	-42,72
280,2	-37,64
280,7	-33,56
281,1	-38,32
281,6	-31,52
282,1	-30
282,5	-24,48
283	-21,92
283,4	-19,12
283,9	-31,92
284,4	-31,68
284,8	-38,48
285,3	-40,92
285,8	-41,6
286,2	-35
286,7	-33,76
287,1	-29,88
287,6	-30,12
288,1	-32,84
288,5	-28,64
289	-32,76
289,5	-35,08
289,9	-33,64
290,4	-32,76
290,8	-38,96
291,3	-40,2
291,8	-42,28
292,2	-49,6
292,7	-52,8
293,1	-47,48
293,6	-49,24
294,1	-49,28
294,5	-48,44
295	-45,84
295,5	-47,84
295,9	-42,2
296,4	-38,72
296,8	-31,08
297,3	-27,72
297,8	-28,52
298,2	-33,52
298,7	-33,48
299,1	-39,28
299,6	-39,96
300,1	-41,48
300,5	-37,96
301	-36,96
301,5	-38,96
301,9	-40,2
302,4	-39,04
302,8	-41,88
303,3	-42,76
303,8	-41,2
304,2	-39,44
304,7	-40,76
305,1	-37
305,6	-36,84
306,1	-34,28
306,5	-32,48
307	-31
307,4	-29,44
307,9	-26,8
308,4	-31,48
308,8	-34,92
309,3	-38,08
309,8	-43,76
310,2	-46,4
310,7	-44,6
311,1	-46,04
311,6	-48,56
312,1	-41,48
312,5	-39,76
313	-35,4
313,4	-39,16
313,9	-34,88
314,4	-34,2
314,8	-33,24
315,3	-36,84
315,7	-37,32
316,2	-32,56
316,7	-36,04
317,1	-35,4
317,6	-35,52
318	-28,28
318,5	-31,2
319	-31,52
319,4	-42,72
319,9	-39,8
320,3	-36,88
320,8	-37,68
321,3	-38,08
321,7	-24,32
322,2	-25,32
322,6	-29,52
323,1	-31,28
323,6	-37,28
324	-40,84
324,5	-45,24
324,9	-41,84
325,4	-39,44
325,9	-33,28
326,3	-31,12
326,8	-24,64
327,2	-31,12
327,7	-33,6
328,2	-40,72
328,6	-45,6
329,1	-49,88
329,5	-44,28
330	-39,44
330,5	-35,32
330,9	-37,92
331,4	-33,68
331,8	-36,96
332,3	-37,52
332,8	-32,16
333,2	-32,6
333,7	-32,4
334,1	-31,48
334,6	-38,12
335,1	-39,52
335,5	-34,52
336	-38,12
336,4	-37,48
336,9	-33,16
337,4	-32,52
337,8	-32,28
338,3	-32,48
338,7	-37,24
339,2	-34,96
339,7	-37,36
340,1	-36,32
340,6	-38,52
341	-34,36
341,5	-38,84
342	-39,64
342,4	-43,28
342,9	-38,84
343,3	-39,08
343,8	-44,16
344,2	-44,08
344,7	-47,04
345,2	-46,28
345,6	-45,52
346,1	-40,64
346,5	-40,12
347	-40,76
347,5	-44,88
347,9	-44,72
348,4	-41,52
348,8	-40,52
349,3	-35,96
349,8	-32
350,2	-33,08
350,7	-30,72
351,1	-33,32
351,6	-32,24
352	-30,16
352,5	-29,08
353	-29,72
353,4	-25,56
353,9	-18,32
354,3	-13,52
354,8	-11
355,3	-12,52
355,7	-3,84
356,2	-0,52
356,6	3,48
357,1	15,92
357,5	30,8
358	39,28
358,5	51,44
358,9	69,72
359,4	88,76
359,8	104,44
360,3	128,4
360,8	155,52
361,2	177,56
361,7	209,44
362,1	242,68
362,6	276,52
363	309,32
363,5	358,2
364	394,2
364,4	444
364,9	487,76
365,3	535,08
365,8	579,6
366,3	627,76
366,7	669,04
367,2	707,6
367,6	739,4
368,1	751,48
368,5	761,48
369	767,88
369,5	765,2
369,9	757,64
370,4	748,84
370,8	731,72
371,3	711,76
371,7	689,56
372,2	658,56
372,7	625,52
373,1	593,2
373,6	559,16
374	514,36
374,5	480,88
374,9	444,4
375,4	410,68
375,9	371,88
376,3	344,88
376,8	312,8
377,2	285,08
377,7	256,44
378,2	228,52
378,6	210,4
379,1	194,84
379,5	173,44
380	148,84
380,4	139,96
380,9	119,96
381,4	104,84
381,8	97,96
382,3	89,56
382,7	75,08
383,2	65,56
383,6	55,36
384,1	48,88
384,6	46,64
385	42,16
385,5	40,96
385,9	36,44
386,4	29,92
386,8	30,56
387,3	28,36
387,7	21,48
388,2	15,8
388,7	11,48
389,1	5,12
389,6	4,72
390	4
390,5	3,24
390,9	0,4
391,4	-3,64
391,9	-13,24
392,3	-15,56
392,8	-16,92
393,2	-20,04
393,7	-24,4
394,1	-19,04
394,6	-12,8
395,1	-9,44
395,5	-9,36
396	-1,48
396,4	-0,88
396,9	-3,36
397,3	-11,52
397,8	-5,12
398,2	-7,64
398,7	-13,48
399,2	-18,76
399,6	-17,08
400,1	-21,08
400,5	-22,12
401	-22
401,4	-18,96
401,9	-16,64
402,4	-15,44
402,8	-17,44
403,3	-14,16
403,7	-19,52
404,2	-20,52
404,6	-21,76
405,1	-24,12
405,5	-19,64
406	-15,36
406,5	-16,64
406,9	-16,52
407,4	-6,6
407,8	-12,56
408,3	-13,84
408,7	-9,76
409,2	-9,48
409,6	-12,32
410,1	-10,36
410,6	-1,04
411	2,52
411,5	13,44
411,9	21
412,4	32
412,8	33,2
413,3	33,4
413,7	28,48
414,2	29,4
414,7	26,4
415,1	24,04
415,6	29,96
416	40,04
416,5	48,84
416,9	54,84
417,4	64,04
417,8	69,32
418,3	78,96
418,8	84,24
419,2	93,48
419,7	97,76
420,1	109,88
420,6	114,36
421	122,28
421,5	132,12
421,9	144,8
422,4	153,04
422,8	163,92
423,3	165,6
423,8	178,36
424,2	189,36
424,7	200,12
425,1	208,76
425,6	221,16
426	231,64
426,5	245,28
426,9	256,52
427,4	269,32
427,9	288,28
428,3	300,44
428,8	318,48
429,2	342,36
429,7	369,92
430,1	395,88
430,6	419,88
431	437,96
431,5	456,44
431,9	479,6
432,4	499,52
432,8	530,48
433,3	566,4
433,8	596,64
434,2	625,32
434,7	662,84
435,1	693,84
435,6	729,88
436	768,44
436,5	809,68
436,9	854,12
437,4	892,32
437,8	934,32
438,3	978,12
438,8	1023,36
439,2	1068,4
439,7	1119,84
440,1	1168,36
440,6	1219,96
441	1272,92
441,5	1333,76
441,9	1393,76
442,4	1459,6
442,8	1521,08
443,3	1581,8
443,7	1637,64
444,2	1701,56
444,7	1761,8
445,1	1836,32
445,6	1917,12
446	1997,72
446,5	2077,12
446,9	2167,56
447,4	2245,44
447,8	2330,44
448,3	2409,8
448,7	2501,48
449,2	2586,32
449,6	2680,36
450,1	2763,2
450,6	2850,52
451	2949,88
451,5	3037,64
451,9	3133,04
452,4	3232,6
452,8	3340,92
453,3	3436,36
453,7	3541,72
454,2	3655,44
454,6	3765,32
455,1	3881,16
455,5	4006,2
456	4124,16
456,4	4233,72
456,9	4342,04
457,3	4461,32
457,8	4568,48
458,3	4691,72
458,7	4810,84
459,2	4941,96
459,6	5059,12
460,1	5177,64
460,5	5296,04
461	5414,4
461,4	5550,08
461,9	5685,48
462,3	5810,8
462,8	5935,64
463,2	6075,76
463,7	6197,92
464,1	6312,36
464,6	6438,32
465	6567,88
465,5	6689,4
466	6808,48
466,4	6934,6
466,9	7054,24
467,3	7168,24
467,8	7283,64
468,2	7396,48
468,7	7512,88
469,1	7639,32
469,6	7762,68
470	7887,4
470,5	8006,48
470,9	8113,76
471,4	8226,2
471,8	8331,84
472,3	8430,56
472,7	8530,24
473,2	8646,48
473,6	8744,4
474,1	8859,64
474,5	8964,44
475	9081,2
475,4	9184,36
475,9	9281,56
476,4	9364,68
476,8	9452
477,3	9516,28
477,7	9587,96
478,2	9669,76
478,6	9739,76
479,1	9817
479,5	9905,96
480	9972,6
480,4	10036,72
480,9	10112,36
481,3	10163,36
481,8	10211,72
482,2	10262,36
482,7	10307,36
483,1	10355
483,6	10397,92
484	10439,84
484,5	10475
484,9	10522,88
485,4	10546
485,8	10578,28
486,3	10599,36
486,7	10636
487,2	10663,2
487,6	10677,24
488,1	10697,96
488,5	10703,52
489	10705,88
489,4	10687,32
489,9	10688,04
490,4	10675,96
490,8	10678,32
491,3	10664,04
491,7	10649,16
492,2	10629,04
492,6	10614,72
493,1	10593,72
493,5	10558,32
494	10525,28
494,4	10495,4
494,9	10465,64
495,3	10423,4
495,8	10399,52
496,2	10368,04
496,7	10333,36
497,1	10295,92
497,6	10251,64
498	10204,36
498,5	10166,08
498,9	10118,08
499,4	10056,48
499,8	10010,2
500,3	9948,48
500,7	9898,52
501,2	9855,56
501,6	9795,08
502,1	9740,32
502,5	9694,24
503	9627,12
503,4	9564,48
503,9	9516,88
504,3	9448,68
504,8	9386,36
505,2	9324,32
505,7	9251,84
506,1	9189,24
506,6	9132,8
507	9058,24
507,5	8987,6
507,9	8919,88
508,4	8841,2
508,8	8768,48
509,3	8700,76
509,7	8631,48
510,2	8556,84
510,6	8475
511,1	8396,84
511,5	8323,32
512	8233,84
512,4	8149,36
512,9	8072,84
513,3	7995,8
513,8	7912,88
514,2	7851,48
514,7	7777,2
515,1	7716,68
515,6	7638,92
516	7572,08
516,5	7482,92
516,9	7405,4
517,4	7317,64
517,8	7233,68
518,3	7138,32
518,7	7060,44
519,2	6988,72
519,6	6907,68
520,1	6833,76
520,5	6760,32
521	6687,2
521,4	6608,92
521,9	6541,72
522,3	6476,08
522,8	6410,8
523,2	6355,12
523,7	6284,04
524,1	6213,12
524,6	6139,28
525	6077,28
525,5	5986,64
525,9	5925,12
526,4	5855,24
526,8	5790,32
527,3	5713,12
527,7	5659,64
528,2	5591
528,6	5525,92
529,1	5465,16
529,5	5410,92
530	5344,8
530,4	5287
530,9	5230,04
531,3	5169,12
531,8	5102,92
532,2	5048,08
532,6	4990,52
533,1	4935,68
533,5	4872,08
534	4816,72
534,4	4762,44
534,9	4697,6
535,3	4643,08
535,8	4589,16
536,2	4541,76
536,7	4490,16
537,1	4448,64
537,6	4399
538	4350,24
538,5	4309,64
538,9	4256,2
539,4	4203,8
539,8	4161,12
540,3	4119,36
540,7	4071,64
541,2	4025,68
541,6	3982,8
542,1	3931,72
542,5	3890,52
543	3841,8
543,4	3804,76
543,9	3768,6
544,3	3720,16
544,8	3668,12
545,2	3624,2
545,7	3578,32
546,1	3534,52
546,5	3494,92
547	3459,28
547,4	3428,76
547,9	3387,28
548,3	3349,12
548,8	3325,48
549,2	3293,08
549,7	3251,24
550,1	3233,4
550,6	3195,08
551	3154,04
551,5	3129,8
551,9	3107
552,4	3064,88
552,8	3031,8
553,3	3003,12
553,7	2968,84
554,2	2936,12
554,6	2910,16
555,1	2889,84
555,5	2868,64
555,9	2833,68
556,4	2798,6
556,8	2775,16
557,3	2754,28
557,7	2723,8
558,2	2703,72
558,6	2681,4
559,1	2652,72
559,5	2623,52
560	2599,96
560,4	2569,48
560,9	2546,44
561,3	2531,68
561,8	2502,24
562,2	2474,56
562,7	2453,04
563,1	2429,04
563,6	2393,4
564	2380,32
564,4	2357,8
564,9	2352,8
565,3	2336,68
565,8	2318,64
566,2	2288
566,7	2272,96
567,1	2241,2
567,6	2217,52
568	2206,72
568,5	2200,72
568,9	2179
569,4	2163,96
569,8	2148,24
570,3	2130,08
570,7	2105,44
571,1	2089,48
571,6	2069,88
572	2050,12
572,5	2026,92
572,9	2008,4
573,4	1983,56
573,8	1966,8
574,3	1947,48
574,7	1937,92
575,2	1913,4
575,6	1906,24
576,1	1889,6
576,5	1881,12
576,9	1857,36
577,4	1844,76
577,8	1829,72
578,3	1819,44
578,7	1804,72
579,2	1795,44
579,6	1785,88
580,1	1775,4
580,5	1758,04
581	1736,16
581,4	1720,68
581,9	1702,16
582,3	1686,76
582,7	1671,04
583,2	1662,36
583,6	1646,56
584,1	1636,88
584,5	1621,84
585	1612,88
585,4	1601,28
585,9	1589,08
586,3	1577,08
586,8	1566,68
587,2	1554
587,6	1544,8
588,1	1528,96
588,5	1518,6
589	1502,72
589,4	1490,12
589,9	1475,8
590,3	1459,6
590,8	1445,56
591,2	1438,44
591,7	1435,12
592,1	1426,44
592,5	1426,4
593	1420,88
593,4	1412,8
593,9	1390,2
594,3	1382,84
594,8	1374,8
595,2	1364,56
595,7	1358,68
596,1	1357,8
596,6	1346,08
597	1335,56
597,4	1330,44
597,9	1312,88
598,3	1306,2
598,8	1296,6
599,2	1288,8
599,7	1278,8
600,1	1275,72
600,6	1259,52
601	1259,04
601,4	1254,28
601,9	1243
602,3	1227,48
602,8	1226,28
603,2	1216,12
603,7	1205,16
604,1	1201
604,6	1196,88
605	1185,12
605,4	1168,48
605,9	1166,8
606,3	1159,24
606,8	1153,88
607,2	1147,32
607,7	1142,12
608,1	1129,04
608,6	1119,72
609	1114,64
609,4	1107,28
609,9	1104,92
610,3	1096,08
610,8	1092,88
611,2	1084,68
611,7	1081,56
612,1	1070,68
612,6	1062,8
613	1048,68
613,4	1042,6
613,9	1032,44
614,3	1022,6
614,8	1017,68
615,2	1010,4
615,7	997,88
616,1	999,12
616,6	992,88
617	987,72
617,4	984,28
617,9	981,52
618,3	965,84
618,8	954,24
619,2	942,88
619,7	936,72
620,1	929,68
620,5	924,24
621	927,72
621,4	928,4
621,9	921,36
622,3	905,88
622,8	900,36
623,2	886,16
623,6	881,12
624,1	871,68
624,5	873,84
625	874
625,4	879,96
625,9	867,48
626,3	870,64
626,8	863,28
627,2	850,52
627,6	841,04
628,1	835,4
628,5	822,28
629	819,72
629,4	812,68
629,9	805,48
630,3	799,76
630,7	798,6
631,2	794,08
631,6	795,72
632,1	790,92
632,5	782,12
633	770,96
633,4	761,32
633,8	743,32
634,3	735,68
634,7	730,32
635,2	721,8
635,6	719,92
636,1	716,2
636,5	710,24
636,9	709,24
637,4	710,96
637,8	706,4
638,3	709,32
638,7	705,88
639,2	701,24
639,6	700,24
640	697,12
640,5	691,6
640,9	691,28
641,4	688,32
641,8	681,16
642,2	671,88
642,7	666,72
643,1	653,08
643,6	647,56
644	647,68
644,5	642,84
644,9	636,52
645,3	638,2
645,8	635,36
646,2	623,8
646,7	616,48
647,1	616,88
647,6	608,84
648	599,56
648,4	600,36
648,9	600,64
649,3	590,48
649,8	588,24
650,2	583,36
650,6	578,88
651,1	576,76
651,5	574,76
652	570,92
652,4	571,44
652,9	564,4
653,3	561,12
653,7	560,36
654,2	555,52
654,6	547,32
655,1	539,72
655,5	535,8
655,9	529,52
656,4	532,76
656,8	534,84
657,3	533,36
657,7	526
658,2	526,2
658,6	517,04
659	512,08
659,5	511,6
659,9	509,6
660,4	503,44
660,8	499,88
661,2	494
661,7	482,68
662,1	478,8
662,6	470,2
663	458,48
663,4	457,72
663,9	460,44
664,3	459,24
664,8	459,04
665,2	462,8
665,6	458,24
666,1	451,44
666,5	447,52
667	442,36
667,4	441,68
667,9	439,88
668,3	434,84
668,7	430,72
669,2	425,76
669,6	419,08
670,1	418,08
670,5	414,04
670,9	408,56
671,4	408,4
671,8	403,8
672,3	397,32
672,7	404,08
673,1	400,44
673,6	396,68
674	396,64
674,5	396,04
674,9	381
675,3	377,44
675,8	377
676,2	372,48
676,7	365,4
677,1	374,4
677,5	374,24
678	372,2
678,4	367,88
678,9	366,2
679,3	359,84
679,7	358,32
680,2	355,8
680,6	356,24
681,1	351,28
681,5	356,12
681,9	350,6
682,4	345,2
682,8	340,36
683,3	344,28
683,7	338,68
684,1	340,24
684,6	339,36
685	341,24
685,5	329,76
685,9	326,32
686,3	321,32
686,8	316,96
687,2	314,56
687,7	320,8
688,1	311,48
688,5	309,6
689	304,64
689,4	303,44
689,9	298,64
690,3	301,32
690,7	294,24
691,2	302,16
691,6	293,32
692	291,28
692,5	290,28
692,9	294,92
693,4	286,44
693,8	288,64
694,2	286,24
694,7	280,76
695,1	277,12
695,6	277,36
696	273,88
696,4	270,68
696,9	275,84
697,3	278,6
697,8	273,24
698,2	267,52
698,6	260,92
699,1	254,96
699,5	242,04
699,9	244
700,4	245,8
700,8	249,12
701,3	246,68
701,7	255,12
702,1	250,84
702,6	245
703	243,48
703,5	232
703,9	228,6
704,3	227,44
704,8	230,08
705,2	227,96
705,6	235,4
706,1	235,12
706,5	227,24
707	222,88
707,4	222,88
707,8	223,24
708,3	219,08
708,7	220,44
709,2	218,64
709,6	216,4
710	212,8
710,5	209,52
710,9	207,48
711,3	209,52
711,8	210,2
712,2	207,52
712,7	201,64
713,1	203,16
713,5	201,12
714	191,6
714,4	190,44
714,8	188,32
715,3	185,36
715,7	188,32
716,2	194,16
716,6	190,84
717	194,32
717,5	188,96
717,9	183,92
718,3	180,32
718,8	182,32
719,2	181,84
719,7	181,56
720,1	176,36
720,5	171,56
721	165,4
721,4	162,08
721,8	166,76
722,3	167,68
722,7	164,84
723,2	168
723,6	164
724	156,24
724,5	155,84
724,9	163
725,3	160,4
725,8	162,96
726,2	160,6
726,7	161,32
727,1	154,2
727,5	154,12
728	148,84
728,4	157
728,8	150,6
729,3	147,88
729,7	145,92
730,1	143,48
730,6	138,8
731	138,52
731,5	139,72
731,9	136,96
732,3	135,44
732,8	128,56
733,2	129
733,6	122,04
734,1	123,36
734,5	125,44
734,9	126,28
735,4	123,76
735,8	129,48
736,3	131,12
736,7	129,36
737,1	128,04
737,6	124,84
738	125,08
738,4	115,6
738,9	116,16
739,3	116,52
739,7	113,64
740,2	113,2
740,6	121,8
741,1	117,96
741,5	118,4
741,9	117,28
742,4	113,52
742,8	104,28
743,2	101,72
743,7	96,96
744,1	99,12
744,5	96,68
745	93,32
745,4	96,28
745,8	97,6
746,3	96,52
746,7	91,24
747,2	91,64
747,6	95,36
748	100,04
748,5	104,52
748,9	107,44
749,3	109,88
749,8	99,88
750,2	92,12
750,6	86,88
751,1	86,32
751,5	88,52
751,9	92,32
752,4	94,48
752,8	95,44
753,3	92,2
753,7	90,96
754,1	91,4
754,6	90,36
755	88,6
755,4	97,88
755,9	91,6
756,3	86,4
756,7	85,28
757,2	88
757,6	82,56
758	82,52
758,5	92,92
758,9	95,08
759,3	94,44
759,8	91,04
760,2	90,32
760,6	79,56
761,1	78,88
761,5	75,08
761,9	73,2
762,4	75,84
762,8	71,2
763,3	69,08
763,7	76,12
764,1	80,28
764,6	79,88
765	84,56
765,4	81,56
765,9	75,12
766,3	71,92
766,7	71,92
767,2	76,64
767,6	74,48
768	76,6
768,5	73,44
768,9	73,6
769,3	62,96
769,8	60,28
770,2	54,72
770,6	55,68
771,1	57,12
771,5	67,08
771,9	67,36
772,4	64,12
772,8	63,88
773,2	58,28
773,7	56,04
774,1	56,88
774,5	54,72
775	54,12
775,4	52,48
775,8	45,12
776,3	46,52
776,7	44,24
777,1	44,48
777,6	42,12
778	43,88
778,4	43,8
778,9	50,2
779,3	45,84
779,7	49,16
780,2	47,6
780,6	46,92
781	48,72
781,5	53
781,9	43,08
782,3	48,2
782,8	50,72
783,2	42,16
783,6	39,72
784,1	45,36
784,5	38,52
784,9	33,8
785,4	38
785,8	34,72
786,2	34,44
786,7	36,8
787,1	35,08
787,5	32,08
788	35,44
788,4	36,2
788,8	33,44
789,3	35,16
789,7	37,16
790,1	37,36
790,6	40,04
791	40,04
791,4	41,2
791,9	37,44
792,3	34,2
792,7	30,28
793,2	27,68
793,6	26,4
794	29,84
794,5	30,12
794,9	34,24
795,3	39,4
795,8	39,28
796,2	38,4
796,6	39,24
797,1	37,68
797,5	33,72
797,9	27,8
798,4	27,56
798,8	28,4
799,2	23,04
799,7	19,08
800,1	25,48
800,5	21,4
801	18,12
801,4	21,6
801,8	23,2
802,2	20,08
802,7	26
803,1	23,2
803,5	22,76
804	25,56
804,4	24,32
804,8	22,72
805,3	21,96
805,7	19,8
806,1	17,52
806,6	21,04
807	18,16
807,4	25,8
807,9	21,64
808,3	22,88
808,7	22,08
809,2	23,52
809,6	16,8
810	20,52
810,4	19,2
810,9	10,92
811,3	6,84
811,7	9,4
812,2	4,88
812,6	0,12
813	10,72
813,5	16,08
813,9	13,4
814,3	16,52
814,8	21,6
815,2	17,72
815,6	13,24
816,1	17,2
816,5	15,56
816,9	14,16
817,3	11,44
817,8	10,64
818,2	4,84
818,6	-0,16
819,1	2,24
819,5	2,24
819,9	-5,16
820,4	-2,16
820,8	4,16
821,2	-0,56
821,7	2,36
822,1	5,76
822,5	8,04
822,9	5,84
823,4	8,84
823,8	4,2
824,2	6,24
824,7	2,12
825,1	0,28
825,5	-0,12
826	0,08
826,4	0,16
826,8	1,44
827,3	4,8
827,7	0,8
828,1	-5,32
828,5	-10,64
829	-13,88
829,4	-14,32
829,8	-10,32
830,3	-3,96
830,7	1,76
831,1	4,12
831,6	1,28
832	-1,64
832,4	-3,84
832,8	-1,12
833,3	-0,24
833,7	3,52
834,1	6,64
834,6	8,16
835	1,4
835,4	-4,24
835,8	-11,72
836,3	-15,48
836,7	-19,36
837,1	-17,52
837,6	-13,04
838	-10,24
838,4	-7,56
838,9	-6,64
839,3	-5,08
839,7	-6,56
840,1	-6,04
840,6	-12,2
841	-6,92
841,4	-13,44
841,9	-11,72
842,3	-11,4
842,7	-8,64
843,1	-13,64
843,6	-4,56
844	-12,6
844,4	-11,68
844,9	-9,88
845,3	-6,24
845,7	-16,56
846,2	-15,64
846,6	-18,08
847	-24,8
847,4	-25,76
847,9	-26,6
848,3	-27,8
848,7	-22
849,2	-19,4
849,6	-18,48
850	-6,52
850,4	-0,28
850,9	-4,76
851,3	0,64
851,7	-0,48
852,2	-6,08
852,6	-14,2
853	-13,8
853,4	-20,4
853,9	-27,28
854,3	-22,36
854,7	-16,28
855,2	-14,08
855,6	-12,2
856	-12,16
856,4	-17,44
856,9	-19,2
857,3	-26,72
857,7	-24,6
858,2	-17
858,6	-17,56
859	-14,16
859,4	-16,52
859,9	-20,4
860,3	-24,96
860,7	-22,08
861,1	-24,04
861,6	-16,24
862	-11,16
862,4	-8,88
862,9	-9,4
863,3	-15,04
863,7	-11,44
864,1	-13,96
864,6	-17,96
865	-22,8
865,4	-15,32
865,9	-25,24
866,3	-25,76
866,7	-28,56
867,1	-29,32
867,6	-32,64
868	-21,44
868,4	-23,36
868,8	-22,88
869,3	-19,52
869,7	-20,2
870,1	-25,6
870,6	-22,6
871	-14,76
871,4	-21,92
871,8	-22,64
872,3	-26,24
872,7	-24,52
873,1	-27,92
873,5	-20,96
874	-17,56
874,4	-15,6
874,8	-20,28
875,3	-17,96
875,7	-23,28
876,1	-28,72
876,5	-29,24
877	-23,48
877,4	-24,72
877,8	-14,68
878,2	-8,8
878,7	-13,68
879,1	-16,92
879,5	-17,12
879,9	-23,32
880,4	-25,32
880,8	-27,24
881,2	-32,44
881,7	-38,52
882,1	-33,6
882,5	-27,6
882,9	-25,68
883,4	-24,52
883,8	-21,04
884,2	-21,84
884,6	-34,8
885,1	-30,8
885,5	-27,44
885,9	-27,4
886,3	-31,24
886,8	-25,72
887,2	-30,84
887,6	-28,16
888	-31,92
888,5	-32,96
888,9	-34,8
889,3	-24,16
889,8	-26,6
890,2	-26
890,6	-28,44
891	-22
891,5	-31,28
891,9	-33,32
892,3	-29,08
892,7	-27,08
893,2	-32,6
893,6	-26,68
894	-23,6
894,4	-25,52
894,9	-22,36
895,3	-19,52
895,7	-18,8
896,1	-25,2
896,6	-21,36
897	-21,88
897,4	-23,04
897,8	-26,8
898,3	-23,88
898,7	-30,48
899,1	-34,84
899,5	-36,28
900	-37,32
900,4	-36,84
900,8	-31,84
901,2	-25,6
901,7	-23,92
902,1	-19,84
902,5	-24,8
902,9	-24,8
903,4	-29,08
903,8	-31,52
904,2	-35,12
904,6	-32,64
905,1	-36,48
905,5	-40,88
905,9	-39,68
906,3	-43,16
906,8	-41,2
907,2	-38,8
907,6	-32,88
908	-32,6
908,5	-32,4
908,9	-32,72
909,3	-35,68
909,7	-30,64
910,2	-34,2
910,6	-31,8
911	-29,28
911,4	-24,68
911,9	-32,44
912,3	-26,68
912,7	-24,8
913,1	-28,48
913,6	-30,52
914	-24,08
914,4	-24,96
914,8	-21,6
915,3	-21,36
915,7	-23,32
916,1	-31,36
916,5	-28,92
916,9	-32,24
917,4	-31,96
917,8	-34,72
918,2	-26,56
918,6	-33,84
919,1	-35,16
919,5	-34,8
919,9	-34,32
920,3	-39,8
920,8	-38,76
921,2	-36
921,6	-33,4
922	-34,36
922,5	-32,68
922,9	-28,68
923,3	-33
923,7	-31,96
924,2	-28,16
924,6	-26,44
925	-27,68
925,4	-22,88
925,8	-28,84
926,3	-32,64
926,7	-36,84
927,1	-37,24
927,5	-40,04
928	-38,36
928,4	-33,48
928,8	-31,88
929,2	-34,76
929,7	-37,24
930,1	-41,28
930,5	-42,2
930,9	-48,36
931,3	-47
931,8	-49,64
932,2	-47,64
932,6	-48,56
933	-46,64
933,5	-44,6
933,9	-41,52
934,3	-40,52
934,7	-40,8
935,2	-40,16
935,6	-44,12
936	-41,88
936,4	-41,68
936,8	-38
937,3	-35,52
937,7	-35,88
938,1	-30,2
938,5	-26,44
939	-29,44
939,4	-34,2
939,8	-29,64
940,2	-37,4
940,6	-40,88
941,1	-38,64
941,5	-30,32
941,9	-34,08
942,3	-38,48
942,8	-36,4
943,2	-41,32
943,6	-50,28
944	-50,84
944,4	-47,12
944,9	-47,52
945,3	-40,92
945,7	-39,56
946,1	-39
946,6	-32,76
947	-40,16
947,4	-41,08
947,8	-39,2
948,2	-36,8
948,7	-42,6
949,1	-33,04
949,5	-35,84
949,9	-30,32
950,3	-29,48
950,8	-30,16
951,2	-33,56
951,6	-26,84
952	-30,12
952,5	-33,88
952,9	-37,52
953,3	-39,68
953,7	-45,76
954,1	-43,76
954,6	-38,56
955	-38,24
955,4	-39,48
955,8	-38,92
956,2	-45
956,7	-52,16
957,1	-46,48
957,5	-52,4
957,9	-50,2
958,3	-46,68
958,8	-37
959,2	-43,36
959,6	-36
960	-39,88
960,5	-43,72
960,9	-46,2
961,3	-44,6
961,7	-41,76
962,1	-41,96
962,6	-37,56
963	-44,84
963,4	-43,28
963,8	-43,72
964,2	-44,56
964,7	-40,92
965,1	-37,48
965,5	-32,28
965,9	-36,6
966,3	-36,24
966,8	-38,16
967,2	-38,2
967,6	-40,72
968	-41,24
968,4	-37,76
968,9	-40,36
969,3	-41,92
969,7	-39,08
970,1	-37,08
970,5	-40
971	-43,4
971,4	-36,92
971,8	-41,32
972,2	-36,08
972,6	-32,16
973,1	-24,72
973,5	-25,6
973,9	-21,52
974,3	-20,72
974,7	-25,6
975,2	-28
975,6	-38,32
976	-38,16
976,4	-34,64
976,8	-32,44
977,3	-36,4
977,7	-27,76
978,1	-33,32
978,5	-42,44
978,9	-46,24
979,4	-42,96
979,8	-48,6
980,2	-46,84
980,6	-44,8
981	-43,48
981,5	-50,48
981,9	-45,08
982,3	-38,36
982,7	-35,44
983,1	-35,2
983,6	-27,96
984	-29
984,4	-38,04
984,8	-47,32
985,2	-48,64
985,6	-50,64
986,1	-45,36
986,5	-43,44
986,9	-36,16
987,3	-34
987,7	-33,08
988,2	-35,36
988,6	-29,8
989	-32,6
989,4	-32,48
989,8	-35,04
990,3	-37,64
990,7	-43,4
991,1	-39,68
991,5	-41,6
991,9	-39,92
992,3	-41,92
992,8	-43,32
993,2	-41,84
993,6	-39,52
994	-42,92
994,4	-40,68
994,9	-45,72
995,3	-50,4
995,7	-47,76
996,1	-43,36
996,5	-45,6
996,9	-36,6
997,4	-35,12
997,8	-45,2
998,2	-44,48
998,6	-43,32
999	-47,68
999,5	-42,72
999,9	-33,48
1000,3	-37,08
1000,7	-35,64
1001,1	-33,56
1001,5	-42,08
1002	-45,64
1002,4	-35
1002,8	-36,68
1003,2	-38,64
1003,6	-38,52
1004	-37,68
1004,5	-43,76
1004,9	-44,2
1005,3	-47,36
1005,7	-48,68
1006,1	-45,08
1006,6	-42,8
1007	-40,36
1007,4	-32,12
1007,8	-26,2
1008,2	-30,12
1008,6	-34,92
1009,1	-37,28
1009,5	-34,56
1009,9	-36,88
1010,3	-34,2
1010,7	-33,28
1011,1	-34,08
1011,6	-38,04
1012	-44,12
1012,4	-43,96
1012,8	-41,6
1013,2	-34,6
1013,6	-31,32
1014,1	-24,52
1014,5	-27,76
1014,9	-32,88
1015,3	-34,36
1015,7	-39,72
1016,1	-36,92
1016,6	-42
1017	-40,08
1017,4	-47,76
1017,8	-46,68
1018,2	-51,12
1018,6	-44,96
1019,1	-40,96
1019,5	-38,08
1019,9	-37,4
1020,3	-40,52
1020,7	-42,4
1021,1	-52,88
1021,6	-51,4
1022	-58,48
1022,4	-46,88
1022,8	-44,72
1023,2	-38,48
1023,6	-38,16
1024,1	-27,24
1024,5	-33,12
1024,9	-38,28
1025,3	-38,24
1025,7	-40,6
1026,1	-48,12
1026,6	-51,24
1027	-48,32
1027,4	-47,44
1027,8	-45,6
1028,2	-41,44
1028,6	-38,36
1029	-33,04
1029,5	-35,32
1029,9	-34
1030,3	-34,28
1030,7	-36,4
1031,1	-38
1031,5	-32,36
1032	-36,2
1032,4	-35,44
1032,8	-34,28
1033,2	-33,96
1033,6	-39,64
1034	-42,48
1034,4	-47,28
1034,9	-43,52
1035,3	-40,4
1035,7	-46,6
1036,1	-42,56
1036,5	-35,84
1036,9	-38,4
1037,4	-43
1037,8	-33,28
1038,2	-31,56
1038,6	-32,96
1039	-35
1039,4	-32,48
1039,8	-35,16
1040,3	-44,88
1040,7	-46,88
1041,1	-48,16
1041,5	-56,84
1041,9	-57,64
1042,3	-47,4
1042,7	-57,16
1043,2	-53,48
1043,6	-45,04
1044	-36,8
1044,4	-39,36
1044,8	-27,24
1045,2	-31,08
1045,6	-39,68
1046,1	-46,68
1046,5	-42,2
1046,9	-44,68
1047,3	-45,28
1047,7	-43,44
1048,1	-49,52
1048,5	-56,92
1049	-56,24
1049,4	-55,6
1049,8	-55,8
1050,2	-43,88
1050,6	-46,12
1051	-40,12
1051,4	-32,92
1051,9	-31,04
1052,3	-37,08
1052,7	-34,52
1053,1	-47,12
1053,5	-51,24
1053,9	-49,12
1054,3	-52,12
1054,8	-58,24
1055,2	-56,68
1055,6	-58,48
1056	-57,84
1056,4	-55,08
1056,8	-46,6
1057,2	-45,2
1057,6	-50,96
1058,1	-54,56
1058,5	-54,44
1058,9	-49,8
1059,3	-48,48
1059,7	-38,08
1060,1	-34,08
1060,5	-36,16
1061	-40,84
1061,4	-36,2
1061,8	-37,16
1062,2	-35,8
1062,6	-40,84
1063	-44,2
1063,4	-46,24
1063,8	-54,04
1064,3	-57,92
1064,7	-52,16
1065,1	-50,12
1065,5	-46,12
1065,9	-43,68
1066,3	-42,16
1066,7	-42,12
1067,1	-40,16
1067,6	-47,4
1068	-45,48
1068,4	-47,56
1068,8	-44,28
1069,2	-40,08
1069,6	-40,68
1070	-36,92
1070,4	-35,92
1070,9	-35,08
1071,3	-41,72
1071,7	-37,32
1072,1	-39,76
1072,5	-39,16
1072,9	-39,52
1073,3	-32,32
1073,7	-29
1074,2	-32,12
1074,6	-34,76
1075	-31,8
1075,4	-38,04
1075,8	-44,88
1076,2	-43,2
1076,6	-34
1077	-39,36
1077,5	-36,04
1077,9	-29,52
1078,3	-31,88
1078,7	-34,12
1079,1	-37,96
1079,5	-43,64
1079,9	-48,76
1080,3	-47,96
1080,7	-52,68
1081,2	-44,2
1081,6	-37,4
1082	-36,56
1082,4	-35,24
1082,8	-33,32
1083,2	-34,08
1083,6	-35,84
1084	-37,12
1084,5	-41,56
1084,9	-42,64
1085,3	-48,52
1085,7	-53
1086,1	-55,24
1086,5	-51,16
1086,9	-48,36
1087,3	-50,8
1087,7	-44,04
1088,2	-36,92
1088,6	-30,76
1089	-28,04
1089,4	-25,52
1089,8	-25,16
1090,2	-30,96
1090,6	-35
1091	-44,2
1091,4	-43,08
1091,9	-43,32
1092,3	-42,6
1092,7	-42,6
1093,1	-38,64
1093,5	-40,8
1093,9	-42,64
1094,3	-37,8
1094,7	-35,28
1095,1	-33,76
1095,5	-30,76
1096	-32,8
1096,4	-36,84
1096,8	-37
1097,2	-34,72
1097,6	-32,88
1098	-32,52
1098,4	-29,56
1098,8	-35,6
1099,2	-36,12
1099,6	-41,52
1100,1	-37,04
1100,5	-34,2
1100,9	-32,44
1101,3	-34,48
1101,7	-25,12
1102,1	-26,04
1102,5	-30,8
1102,9	-20,44
1103,3	-16,8
1103,7	-17,64
1104,2	-21,48
1104,6	-20,28
1105	-27,64
1105,4	-26,68
1105,8	-29,48
1106,2	-20,8
1106,6	-14,52
1107	-8,24
1107,4	-5,88
1107,8	0,8
1108,3	0,867
