Data from Subt2_00041.txt Node
Date: Fri Aug 11 16:01:48 MSK 2023
User: vat
Spectrometer: MAYP114033
Trigger mode: 0
Integration Time (sec): 5,000000E-1
Scans to average: 5
Electric dark correction enabled: true
Nonlinearity correction enabled: false
Boxcar width: 2
XAxis mode: Wavelengths
Number of Pixels in Spectrum: 2068
>>>>>Begin Spectral Data<<<<<
199,4	0,167
199,9	0,35
200,4	-2,46
200,8	-1,82
201,3	-5,46
201,8	-5,5
202,2	-2,7
202,7	-3,22
203,2	-4,06
203,6	-3,86
204,1	-4,1
204,6	-6,5
205	-5,46
205,5	-7,94
206	-3,34
206,4	-2,18
206,9	-3,54
207,4	1,74
207,8	3,58
208,3	2,98
208,8	1,62
209,2	0,62
209,7	-2,3
210,2	-1,22
210,6	-6,34
211,1	-9,82
211,5	-7,02
212	-6,42
212,5	-4,38
212,9	1,74
213,4	0,42
213,9	0,22
214,3	-0,22
214,8	-6,14
215,3	-11,54
215,7	-6,18
216,2	-8,42
216,7	-12,34
217,1	-12,42
217,6	-7,66
218,1	-13,5
218,5	-13,54
219	-8,66
219,5	-1,02
219,9	-1,94
220,4	2,54
220,9	3,66
221,3	2,66
221,8	-2,9
222,3	-7,22
222,7	-8,38
223,2	-7,9
223,6	-7,18
224,1	-8,14
224,6	-4,54
225	-5,14
225,5	-3,38
226	-1,42
226,4	-3,06
226,9	-4,94
227,4	1,58
227,8	-1,02
228,3	-6,9
228,8	-5,94
229,2	-4,22
229,7	-11,1
230,2	-8,54
230,6	-7,54
231,1	-5,94
231,5	-6,18
232	-6,06
232,5	-6,1
232,9	-9,74
233,4	-7,7
233,9	-8,86
234,3	-3,42
234,8	-3,1
235,3	0,1
235,7	-1,62
236,2	-0,22
236,7	-4,82
237,1	-11,86
237,6	-12,58
238,1	-10,98
238,5	-15,9
239	-15,18
239,4	-13,86
239,9	-4,94
240,4	-5,18
240,8	2,78
241,3	6,42
241,8	12,14
242,2	8,5
242,7	10,26
243,2	8,98
243,6	6,18
244,1	0,7
244,6	-3,38
245	-4,66
245,5	-8,54
245,9	-8,14
246,4	-7,22
246,9	-7,06
247,3	-7,58
247,8	-6,9
248,3	-7,26
248,7	-5,38
249,2	-7,78
249,7	-11,1
250,1	-11,34
250,6	-11,9
251	-16,98
251,5	-17,74
252	-19,06
252,4	-20,54
252,9	-18,58
253,4	-13,02
253,8	-9,42
254,3	-1,7
254,8	3,98
255,2	7,3
255,7	7,26
256,1	4,18
256,6	-2,22
257,1	-3,1
257,5	-6,58
258	-8,62
258,5	-2,58
258,9	3,46
259,4	3,74
259,9	5,7
260,3	5,22
260,8	7,62
261,2	9,5
261,7	11,5
262,2	9,74
262,6	14,02
263,1	14,66
263,6	7,58
264	-0,1
264,5	-2,38
264,9	-4,3
265,4	-10,58
265,9	-6,46
266,3	-3,98
266,8	-2,86
267,3	-3,58
267,7	-4,42
268,2	-4,26
268,7	1,3
269,1	-2,42
269,6	-2,46
270	-3,1
270,5	-4,62
271	-7,14
271,4	-8,62
271,9	-6,7
272,4	-4,98
272,8	-6,1
273,3	-11,1
273,7	0,86
274,2	2,9
274,7	2,38
275,1	-0,46
275,6	3,54
276,1	-9,14
276,5	-8,98
277	-8,94
277,4	-3,34
277,9	-5,26
278,4	1,5
278,8	-2,26
279,3	-0,22
279,8	-6,74
280,2	-8,66
280,7	-10,86
281,1	-9,22
281,6	-9,14
282,1	-0,66
282,5	-2,3
283	-1,22
283,4	-4,14
283,9	-5,46
284,4	-13,14
284,8	-6,1
285,3	-2,1
285,8	-4,22
286,2	-6,26
286,7	-5,86
287,1	-7,3
287,6	-8,58
288,1	-2,66
288,5	1,06
289	3,38
289,5	0,78
289,9	-1,94
290,4	-1,46
290,8	-1,86
291,3	-2,82
291,8	2,9
292,2	2,22
292,7	-3,58
293,1	-4,3
293,6	-1,86
294,1	-5,42
294,5	-8,18
295	-0,66
295,5	4,9
295,9	5,26
296,4	1,46
296,8	8,1
297,3	2,54
297,8	-3,34
298,2	-5,78
298,7	-0,14
299,1	-6,06
299,6	-5,46
300,1	-6,3
300,5	0,22
301	-2,06
301,5	3,66
301,9	4,9
302,4	0,66
302,8	-3,94
303,3	-5,3
303,8	-9,46
304,2	-12,82
304,7	-6,7
305,1	-6,18
305,6	-5,78
306,1	-4,46
306,5	0,66
307	1,26
307,4	0,38
307,9	3,46
308,4	3,58
308,8	1,3
309,3	2,02
309,8	0,42
310,2	-3,42
310,7	-7,5
311,1	-12,22
311,6	-12,82
312,1	-12,34
312,5	-12,74
313	-13,94
313,4	-18,5
313,9	-20,1
314,4	-17,46
314,8	-17,18
315,3	-12,5
315,7	-2,3
316,2	-7,66
316,7	-8,58
317,1	-10,82
317,6	-14,82
318	-19,38
318,5	-14,26
319	-20,78
319,4	-19,86
319,9	-11,54
320,3	-1,74
320,8	1,78
321,3	8,02
321,7	17,86
322,2	11,78
322,6	5,94
323,1	1,34
323,6	-0,86
324	-1,5
324,5	-6,62
324,9	-6,58
325,4	-3,94
325,9	-1,46
326,3	-3,22
326,8	1,98
327,2	0,46
327,7	-1,78
328,2	-3,58
328,6	-8,34
329,1	-7,5
329,5	-4,98
330	-5,06
330,5	-6,7
330,9	-8,42
331,4	-5,06
331,8	-9,74
332,3	-6,66
332,8	-6,86
333,2	-9,5
333,7	-14,7
334,1	-12,74
334,6	-17,14
335,1	-13,18
335,5	-10,26
336	-2,1
336,4	1,14
336,9	0,14
337,4	0,06
337,8	3,66
338,3	-1,78
338,7	-4,02
339,2	-2,9
339,7	-6,98
340,1	-9,54
340,6	-8,1
341	-8,22
341,5	-8,14
342	-4,74
342,4	-3,14
342,9	-1,38
343,3	-2,7
343,8	-1,02
344,2	1,7
344,7	1,42
345,2	-4,02
345,6	-2,66
346,1	-0,34
346,5	0,34
347	-2,46
347,5	-0,94
347,9	2,1
348,4	-0,14
348,8	-4,94
349,3	-6,66
349,8	-4,98
350,2	-3,14
350,7	-4,58
351,1	-7,22
351,6	-0,94
352	0,1
352,5	-0,06
353	0,38
353,4	7,58
353,9	8,98
354,3	10,74
354,8	13,38
355,3	25,78
355,7	32,7
356,2	37,78
356,6	44,1
357,1	51,34
357,5	61,1
358	73,02
358,5	93,22
358,9	110,66
359,4	127,94
359,8	138,86
360,3	156,78
360,8	171,3
361,2	195,9
361,7	225,7
362,1	260,42
362,6	299,14
363	339,38
363,5	381,14
364	420,18
364,4	469,58
364,9	511,82
365,3	556,62
365,8	600,58
366,3	643,74
366,7	678,06
367,2	708,98
367,6	734,54
368,1	762,18
368,5	772,42
369	778,66
369,5	781,14
369,9	779,3
370,4	757,02
370,8	751,74
371,3	731,78
371,7	704,86
372,2	679,02
372,7	649,7
373,1	608,14
373,6	571,18
374	534,22
374,5	496,3
374,9	466,1
375,4	431,26
375,9	402,38
376,3	377,14
376,8	345,78
377,2	314,34
377,7	292,3
378,2	267,46
378,6	245,02
379,1	226,78
379,5	207,82
380	183,9
380,4	167,74
380,9	152,02
381,4	137,5
381,8	129,7
382,3	123,74
382,7	111,06
383,2	100,5
383,6	93,1
384,1	82,34
384,6	79,14
385	73,38
385,5	70,22
385,9	65,38
386,4	60,62
386,8	48,06
387,3	49,1
387,7	44,42
388,2	36,14
388,7	36,94
389,1	35,98
389,6	29,66
390	29,18
390,5	30,42
390,9	20,54
391,4	20,06
391,9	17,22
392,3	11,9
392,8	12,14
393,2	16,9
393,7	22,18
394,1	25,38
394,6	28,62
395,1	30,86
395,5	31,66
396	24,02
396,4	17,82
396,9	19,54
397,3	19,58
397,8	16,62
398,2	15,7
398,7	21,14
399,2	17,9
399,6	14,02
400,1	12,58
400,5	13,1
401	12,54
401,4	10,7
401,9	7,62
402,4	4,34
402,8	7,66
403,3	2,02
403,7	-2,14
404,2	5,38
404,6	9,94
405,1	13,94
405,5	17,34
406	20,94
406,5	18,66
406,9	18,3
407,4	15,02
407,8	20,14
408,3	25,46
408,7	24,98
409,2	24,42
409,6	25,02
410,1	24,02
410,6	28,38
411	32,62
411,5	41,58
411,9	46,5
412,4	52,42
412,8	53,98
413,3	55,46
413,7	62,38
414,2	64,58
414,7	71,26
415,1	71,86
415,6	80,14
416	83,74
416,5	93,26
416,9	99,94
417,4	108,26
417,8	105,42
418,3	110,9
418,8	115,3
419,2	124,74
419,7	130,18
420,1	149,1
420,6	153,78
421	158,5
421,5	158,7
421,9	173,18
422,4	180,58
422,8	192,22
423,3	203,54
423,8	214,74
424,2	220,06
424,7	230,9
425,1	245,94
425,6	260,02
426	269,78
426,5	284,78
426,9	295,06
427,4	302,9
427,9	319,02
428,3	336,38
428,8	356,9
429,2	378,86
429,7	399,66
430,1	418,9
430,6	440,46
431	448,42
431,5	472,62
431,9	491,78
432,4	514,86
432,8	539,86
433,3	576,26
433,8	593,58
434,2	625,58
434,7	657,78
435,1	687,82
435,6	727,22
436	768,7
436,5	805,66
436,9	836,7
437,4	882,66
437,8	916,94
438,3	955,02
438,8	1002,3
439,2	1050,06
439,7	1091,9
440,1	1134,74
440,6	1185,5
441	1236,74
441,5	1294,66
441,9	1340,78
442,4	1395,94
442,8	1448,98
443,3	1502,06
443,7	1559,74
444,2	1626,98
444,7	1688,86
445,1	1763,98
445,6	1826,02
446	1888,46
446,5	1956,58
446,9	2029,66
447,4	2093,14
447,8	2165,06
448,3	2238,02
448,7	2310,9
449,2	2389,86
449,6	2474,1
450,1	2553,02
450,6	2636,46
451	2714,58
451,5	2789,34
451,9	2862,86
452,4	2945,5
452,8	3028,86
453,3	3116,78
453,7	3208,14
454,2	3309,9
454,6	3405,9
455,1	3502,94
455,5	3602,22
456	3699,3
456,4	3778,22
456,9	3869,66
457,3	3953,46
457,8	4052,82
458,3	4141,46
458,7	4235,34
459,2	4331,54
459,6	4432,74
460,1	4513,82
460,5	4619,38
461	4713,7
461,4	4814,54
461,9	4914,7
462,3	5004,82
462,8	5082,34
463,2	5189,02
463,7	5262,14
464,1	5342,62
464,6	5451,66
465	5545,22
465,5	5630,86
466	5729,1
466,4	5819,14
466,9	5894,98
467,3	5989,18
467,8	6074,14
468,2	6156,62
468,7	6247,06
469,1	6329,14
469,6	6400,54
470	6482,14
470,5	6565,66
470,9	6628,62
471,4	6710,02
471,8	6794,74
472,3	6853,62
472,7	6923,9
473,2	7001,1
473,6	7052,78
474,1	7108,26
474,5	7174,62
475	7232,74
475,4	7295,02
475,9	7356,34
476,4	7416,74
476,8	7463,22
477,3	7514,54
477,7	7573,7
478,2	7621,74
478,6	7656,94
479,1	7712,14
479,5	7747,94
480	7764,06
480,4	7795,94
480,9	7824,1
481,3	7843,74
481,8	7874,18
482,2	7906,38
482,7	7929,9
483,1	7958,86
483,6	7979,94
484	7997,94
484,5	8006,9
484,9	8023,86
485,4	8031,42
485,8	8039,54
486,3	8034,22
486,7	8033,82
487,2	8027,42
487,6	8031,66
488,1	8024,58
488,5	8026,18
489	8027,98
489,4	8024,18
489,9	8002,62
490,4	7983,06
490,8	7958,02
491,3	7932,02
491,7	7908,74
492,2	7883,66
492,6	7872,06
493,1	7859,98
493,5	7830,5
494	7794,38
494,4	7766,46
494,9	7733,94
495,3	7680,22
495,8	7646,34
496,2	7610,5
496,7	7582,9
497,1	7544,02
497,6	7530,38
498	7492,58
498,5	7461,42
498,9	7414,94
499,4	7363,62
499,8	7311,06
500,3	7268,26
500,7	7224,98
501,2	7187,02
501,6	7152,02
502,1	7113,06
502,5	7063,34
503	7004,86
503,4	6957,3
503,9	6914,02
504,3	6858,38
504,8	6810,54
505,2	6769,22
505,7	6715,14
506,1	6656,14
506,6	6597,02
507	6547,14
507,5	6496,18
507,9	6441,46
508,4	6380,62
508,8	6340,34
509,3	6282,74
509,7	6222,18
510,2	6152,58
510,6	6102,46
511,1	6028,82
511,5	5966,66
512	5910,42
512,4	5864,38
512,9	5807,22
513,3	5756,42
513,8	5708,06
514,2	5650,7
514,7	5590,74
515,1	5532,1
515,6	5473,26
516	5410,82
516,5	5348,5
516,9	5289,54
517,4	5223,14
517,8	5162,66
518,3	5104,82
518,7	5057,66
519,2	4996,86
519,6	4948,78
520,1	4890,82
520,5	4835,18
521	4767,3
521,4	4705,94
521,9	4642,86
522,3	4584,34
522,8	4524,78
523,2	4477,66
523,7	4422,42
524,1	4372,14
524,6	4329,22
525	4284,5
525,5	4237,26
525,9	4198,62
526,4	4151,9
526,8	4096,46
527,3	4040,9
527,7	3984,5
528,2	3935,42
528,6	3884,78
529,1	3851,86
529,5	3810,06
530	3764,86
530,4	3726,46
530,9	3675,74
531,3	3612,34
531,8	3574,02
532,2	3531,02
532,6	3476,54
533,1	3433,46
533,5	3393,94
534	3340,74
534,4	3298,34
534,9	3255,74
535,3	3218,58
535,8	3187,34
536,2	3147,42
536,7	3102,38
537,1	3064,62
537,6	3027,66
538	2983,78
538,5	2953,3
538,9	2922,98
539,4	2885,26
539,8	2851,74
540,3	2818,74
540,7	2772,98
541,2	2741,14
541,6	2703,1
542,1	2658,94
542,5	2621,3
543	2587,94
543,4	2540,9
543,9	2506,94
544,3	2478,5
544,8	2443,22
545,2	2413,18
545,7	2386,86
546,1	2357,66
546,5	2328,26
547	2303,14
547,4	2271,86
547,9	2241,5
548,3	2218,3
548,8	2186,82
549,2	2152,9
549,7	2130,58
550,1	2108,54
550,6	2081,66
551	2058,3
551,5	2038,54
551,9	2010,06
552,4	1981,02
552,8	1952,58
553,3	1924,26
553,7	1902,02
554,2	1881,38
554,6	1862,46
555,1	1848,1
555,5	1834,3
555,9	1810,9
556,4	1787,38
556,8	1769,42
557,3	1740,82
557,7	1720,38
558,2	1692,98
558,6	1677,18
559,1	1648,06
559,5	1627,42
560	1604,54
560,4	1590,7
560,9	1568,82
561,3	1557,7
561,8	1545,42
562,2	1525,38
562,7	1510,86
563,1	1490,66
563,6	1468,3
564	1448,02
564,4	1431,5
564,9	1406,94
565,3	1391,18
565,8	1371,58
566,2	1355,26
566,7	1334,7
567,1	1321,98
567,6	1309,26
568	1294,46
568,5	1280,22
568,9	1269,06
569,4	1248,82
569,8	1238,06
570,3	1222,02
570,7	1212,46
571,1	1198,98
571,6	1196,62
572	1174,98
572,5	1167,86
572,9	1148,02
573,4	1129,9
573,8	1112,26
574,3	1098,7
574,7	1081,94
575,2	1070,54
575,6	1063,06
576,1	1047,18
576,5	1036,86
576,9	1031,78
577,4	1022,54
577,8	1010,22
578,3	1005,14
578,7	996,98
579,2	978,66
579,6	967,34
580,1	958,66
580,5	948,98
581	931,22
581,4	922,58
581,9	908,42
582,3	898,22
582,7	873,06
583,2	864,78
583,6	855,42
584,1	844,82
584,5	832,62
585	834,3
585,4	829,18
585,9	822,86
586,3	815,3
586,8	814,06
587,2	802,18
587,6	790,38
588,1	778,18
588,5	771,98
589	754,98
589,4	746,58
589,9	744,74
590,3	735,78
590,8	726,3
591,2	723,78
591,7	727,1
592,1	716,02
592,5	713,46
593	709,1
593,4	700,86
593,9	686,9
594,3	680,14
594,8	674,14
595,2	665,94
595,7	656,42
596,1	654,74
596,6	650,18
597	640,22
597,4	632,06
597,9	631,42
598,3	626,54
598,8	624,1
599,2	623,98
599,7	619,9
600,1	618,14
600,6	608,5
601	596,26
601,4	592,74
601,9	592,5
602,3	580,74
602,8	571,38
603,2	566,22
603,7	556,58
604,1	550,34
604,6	547,86
605	551,98
605,4	549,66
605,9	541,42
606,3	535,42
606,8	530,38
607,2	523,26
607,7	519,66
608,1	522,94
608,6	521,46
609	518,9
609,4	513,38
609,9	513,02
610,3	505,74
610,8	499,5
611,2	489,34
611,7	483,62
612,1	472,9
612,6	468,86
613	471,86
613,4	474,86
613,9	473,86
614,3	471,62
614,8	468,18
615,2	460,1
615,7	450,06
616,1	445,34
616,6	444,1
617	437,82
617,4	434,82
617,9	436,98
618,3	432,82
618,8	426,26
619,2	425,38
619,7	420,3
620,1	409,42
620,5	402,22
621	410,7
621,4	405,38
621,9	399,58
622,3	403,14
622,8	405,3
623,2	393,5
623,6	398,42
624,1	398,5
624,5	389,58
625	382,98
625,4	379,02
625,9	369,9
626,3	368,38
626,8	368,42
627,2	367,86
627,6	368,26
628,1	372,58
628,5	366,46
629	365,82
629,4	362,22
629,9	355,34
630,3	344,62
630,7	339,98
631,2	335,34
631,6	331,22
632,1	331,62
632,5	329,5
633	328,38
633,4	327,58
633,8	324,66
634,3	320,42
634,7	321,3
635,2	321,02
635,6	315,38
636,1	323,58
636,5	326,34
636,9	321,74
637,4	321,74
637,8	319,18
638,3	305,26
638,7	300,22
639,2	294,9
639,6	287,3
640	292,06
640,5	293,7
640,9	285,42
641,4	286,34
641,8	286,06
642,2	280,3
642,7	275,66
643,1	281,3
643,6	279,66
644	275,02
644,5	281,62
644,9	281,94
645,3	279,3
645,8	275,66
646,2	275,78
646,7	265,82
647,1	266,66
647,6	267,3
648	264,86
648,4	269,98
648,9	269,3
649,3	258,14
649,8	255,9
650,2	258,38
650,6	248,26
651,1	251,34
651,5	254,94
652	249,98
652,4	246,46
652,9	248,98
653,3	245,74
653,7	248,26
654,2	246,82
654,6	251,02
655,1	249,7
655,5	245,3
655,9	240,3
656,4	240,34
656,8	237,34
657,3	235,02
657,7	235,86
658,2	237,94
658,6	228,98
659	225,86
659,5	226,02
659,9	219,1
660,4	217,74
660,8	222,78
661,2	221,66
661,7	220,58
662,1	224,02
662,6	219,1
663	215,42
663,4	213,34
663,9	207,34
664,3	202,98
664,8	205,5
665,2	203,66
665,6	207,26
666,1	204,9
666,5	200,62
667	199,3
667,4	196,06
667,9	189,94
668,3	188,86
668,7	197,26
669,2	193,9
669,6	195,22
670,1	192,46
670,5	195,38
670,9	186,58
671,4	190,98
671,8	192,74
672,3	193,46
672,7	192,9
673,1	192,78
673,6	187,58
674	188,1
674,5	183,78
674,9	181,46
675,3	179,7
675,8	179,46
676,2	176,82
676,7	176,34
677,1	170,1
677,5	168,7
678	165,54
678,4	165,42
678,9	165,02
679,3	166,1
679,7	167,74
680,2	165,02
680,6	157,78
681,1	158,82
681,5	163,22
681,9	160,14
682,4	164,98
682,8	165,38
683,3	165,74
683,7	161,02
684,1	162,66
684,6	161,5
685	163,98
685,5	160,02
685,9	162,86
686,3	158,94
686,8	147,58
687,2	142,14
687,7	144,22
688,1	140,98
688,5	143,14
689	149,58
689,4	151,46
689,9	149,62
690,3	144,06
690,7	142,9
691,2	139,94
691,6	140,7
692	140,42
692,5	145,86
692,9	143,54
693,4	141,78
693,8	142,1
694,2	141,62
694,7	134,78
695,1	136,14
695,6	137,46
696	139,46
696,4	138,58
696,9	148,46
697,3	146,94
697,8	146,74
698,2	144,98
698,6	139,94
699,1	129,58
699,5	130,82
699,9	125,58
700,4	123,7
700,8	122,06
701,3	121,3
701,7	118,5
702,1	117,42
702,6	112,86
703	114,34
703,5	113,14
703,9	114,3
704,3	119,54
704,8	121,78
705,2	121,5
705,6	130,26
706,1	128,26
706,5	124,5
707	126,22
707,4	128,5
707,8	117,54
708,3	121,3
708,7	123,1
709,2	121,58
709,6	114,34
710	118,78
710,5	110,86
710,9	104,54
711,3	95,78
711,8	100,98
712,2	97,42
712,7	99,62
713,1	103,5
713,5	108,98
714	108,58
714,4	106,5
714,8	106,38
715,3	105,54
715,7	104,82
716,2	101,58
716,6	105,62
717	105,86
717,5	107,86
717,9	105,9
718,3	107,7
718,8	135,62
719,2	175,74
719,7	171,98
720,1	173,78
720,5	167,38
721	134,26
721,4	85,98
721,8	83,62
722,3	81,82
722,7	86,94
723,2	90,18
723,6	90,7
724	93,98
724,5	95,14
724,9	99,38
725,3	96,26
725,8	99,22
726,2	94,26
726,7	94,26
727,1	88,1
727,5	90,7
728	88,98
728,4	92,02
728,8	89,38
729,3	91,34
729,7	87,9
730,1	84,62
730,6	81,3
731	77,78
731,5	73,86
731,9	76,98
732,3	83,26
732,8	83,7
733,2	80,38
733,6	87,18
734,1	77,46
734,5	72,3
734,9	73,02
735,4	74,18
735,8	63,54
736,3	70,46
736,7	69,42
737,1	71,74
737,6	77,14
738	79,18
738,4	80,98
738,9	82,1
739,3	75,78
739,7	69,54
740,2	63,46
740,6	58,5
741,1	55,18
741,5	61,38
741,9	67,54
742,4	66,9
742,8	67,06
743,2	70,74
743,7	65,22
744,1	64,14
744,5	67,34
745	69,62
745,4	65,54
745,8	67,02
746,3	62,38
746,7	63,46
747,2	60,46
747,6	66,62
748	65,14
748,5	68,5
748,9	66,26
749,3	67,66
749,8	60,7
750,2	57,9
750,6	56,86
751,1	56,62
751,5	57,82
751,9	64,22
752,4	68,98
752,8	70,74
753,3	68,22
753,7	69,66
754,1	65,34
754,6	71,18
755	64,9
755,4	70,58
755,9	67,78
756,3	67,62
756,7	62,7
757,2	60,14
757,6	58,58
758	57,46
758,5	52,82
758,9	50,54
759,3	54,58
759,8	52,9
760,2	49,34
760,6	50,26
761,1	45,22
761,5	42,66
761,9	48,42
762,4	49,98
762,8	52,22
763,3	55,86
763,7	56,74
764,1	50,9
764,6	52,62
765	60,5
765,4	58,1
765,9	58,02
766,3	55,1
766,7	52,62
767,2	48,58
767,6	50,14
768	55,1
768,5	56,82
768,9	58,82
769,3	56,62
769,8	49,86
770,2	45,82
770,6	50,46
771,1	47,5
771,5	50,5
771,9	58,02
772,4	60,1
772,8	59,86
773,2	63,98
773,7	60,06
774,1	59,22
774,5	54,1
775	49,58
775,4	49,14
775,8	51,38
776,3	48,18
776,7	52,5
777,1	53,9
777,6	55,26
778	51,5
778,4	55,46
778,9	52,94
779,3	48,5
779,7	43,1
780,2	42,66
780,6	39,14
781	40,5
781,5	42,58
781,9	41,18
782,3	37,38
782,8	40,58
783,2	42,58
783,6	44,94
784,1	50,38
784,5	45,34
784,9	39,3
785,4	38,9
785,8	40,02
786,2	32,46
786,7	39,86
787,1	43,66
787,5	37,86
788	36,1
788,4	37,86
788,8	37,94
789,3	39,22
789,7	42,98
790,1	43,46
790,6	45,78
791	44,18
791,4	47,38
791,9	41,02
792,3	39,78
792,7	37,38
793,2	41,34
793,6	28,94
794	31,3
794,5	32,22
794,9	34,7
795,3	32,06
795,8	41,46
796,2	43,42
796,6	37,54
797,1	35,22
797,5	39,54
797,9	37,86
798,4	36,02
798,8	41,98
799,2	39,58
799,7	34,74
800,1	35,9
800,5	35,5
801	31,18
801,4	34,46
801,8	35,22
802,2	34,06
802,7	37,58
803,1	35,82
803,5	29,54
804	30,9
804,4	28,54
804,8	24,74
805,3	28,18
805,7	34,1
806,1	32,78
806,6	34,86
807	27,54
807,4	26,54
807,9	28,46
808,3	24,26
808,7	19,18
809,2	29,86
809,6	28,34
810	21,38
810,4	24,5
810,9	27,42
811,3	26,9
811,7	26,78
812,2	34,14
812,6	27,1
813	24,5
813,5	22,06
813,9	24,22
814,3	25,14
814,8	31,9
815,2	29,3
815,6	27,66
816,1	25,38
816,5	17,46
816,9	17,9
817,3	21,22
817,8	18,94
818,2	20,18
818,6	26,18
819,1	22,06
819,5	28,7
819,9	29,42
820,4	29,42
820,8	24,58
821,2	28,42
821,7	25,54
822,1	28,74
822,5	29,26
822,9	30,38
823,4	25,98
823,8	23,34
824,2	23,26
824,7	20,94
825,1	21,14
825,5	18,1
826	16,54
826,4	13,9
826,8	15,1
827,3	17,78
827,7	15,54
828,1	17,02
828,5	16,06
829	12,22
829,4	6,62
829,8	9,54
830,3	11,74
830,7	13,42
831,1	12,54
831,6	15,1
832	18,9
832,4	15,66
832,8	15,7
833,3	20,22
833,7	24,54
834,1	19,98
834,6	16,58
835	21,5
835,4	24,86
835,8	23,98
836,3	27,06
836,7	30,34
837,1	23,78
837,6	19,18
838	14,46
838,4	14,82
838,9	8,34
839,3	5,54
839,7	8,38
840,1	15,06
840,6	11,34
841	20,58
841,4	21,34
841,9	19,38
842,3	11,38
842,7	16,94
843,1	15,3
843,6	10,5
844	9,42
844,4	10,5
844,9	6,9
845,3	7,34
845,7	14,62
846,2	13,46
846,6	16,94
847	13,18
847,4	8,3
847,9	9,9
848,3	8,38
848,7	-0,66
849,2	3,26
849,6	4,7
850	2,94
850,4	4,1
850,9	9,74
851,3	11,7
851,7	7,14
852,2	11,06
852,6	11,22
853	7,86
853,4	11,14
853,9	12,42
854,3	12,14
854,7	14,78
855,2	20,74
855,6	14,82
856	20,18
856,4	19,26
856,9	13,5
857,3	9,9
857,7	11,86
858,2	9,3
858,6	4,5
859	4,54
859,4	11,58
859,9	16,26
860,3	15,78
860,7	17,7
861,1	22,58
861,6	15,02
862	4,3
862,4	5,62
862,9	3,66
863,3	0,26
863,7	-2,38
864,1	2,02
864,6	1,66
865	4,7
865,4	3,14
865,9	5,3
866,3	1,42
866,7	3,26
867,1	2,54
867,6	4,34
868	7,18
868,4	16,42
868,8	14,82
869,3	15,54
869,7	10,9
870,1	6,26
870,6	2,46
871	8,18
871,4	63,38
871,8	62,74
872,3	64,46
872,7	58,54
873,1	58,14
873,5	3,7
874	7,58
874,4	10,1
874,8	9,98
875,3	6,3
875,7	5,1
876,1	6,42
876,5	3,62
877	10,78
877,4	8,86
877,8	6,06
878,2	7,74
878,7	6,5
879,1	3,3
879,5	5,22
879,9	0,38
880,4	2,46
880,8	0,22
881,2	-1,26
881,7	-8,02
882,1	-1,3
882,5	-3,26
882,9	-0,74
883,4	-0,82
883,8	3,94
884,2	3,3
884,6	0,5
885,1	4,14
885,5	9,74
885,9	4,9
886,3	6,98
886,8	10,1
887,2	8,22
887,6	5,22
888	0,66
888,5	2,1
888,9	3,54
889,3	3,5
889,8	3,06
890,2	12,34
890,6	11,06
891	4,78
891,5	1,38
891,9	1,62
892,3	0,78
892,7	3,54
893,2	5,26
893,6	8,34
894	10,38
894,4	9,1
894,9	6,22
895,3	7,66
895,7	7,82
896,1	6,54
896,6	10,9
897	7,7
897,4	5,7
897,8	8,5
898,3	5,54
898,7	9,62
899,1	9,38
899,5	7,82
900	0,38
900,4	4,86
900,8	1,5
901,2	-1,1
901,7	2,5
902,1	3,1
902,5	0,46
902,9	-1,38
903,4	7,1
903,8	6,7
904,2	9,3
904,6	2,9
905,1	4,02
905,5	-2,06
905,9	-4,38
906,3	-3,74
906,8	4,14
907,2	-0,46
907,6	0,54
908	1,94
908,5	0,7
908,9	-5,74
909,3	-5,26
909,7	-3,74
910,2	-0,82
910,6	-3,58
911	1,5
911,4	-2,5
911,9	-2,94
912,3	-5,58
912,7	-1,26
913,1	-4,18
913,6	-0,3
914	-8,18
914,4	-6,26
914,8	-9,5
915,3	-7,7
915,7	-7,94
916,1	-6,38
916,5	-4,94
916,9	-4,62
917,4	-5,46
917,8	-4,54
918,2	1,42
918,6	-4,94
919,1	-1,02
919,5	-3,46
919,9	-1,54
920,3	-4,62
920,8	1,42
921,2	-3,78
921,6	-2,86
922	-7,78
922,5	-3,06
922,9	-8,86
923,3	-5,3
923,7	-2,78
924,2	-1,66
924,6	-9,3
925	-8,14
925,4	-7,14
925,8	-9,38
926,3	-7,26
926,7	-2,78
927,1	0,7
927,5	-2,98
928	-0,7
928,4	-2,3
928,8	0,78
929,2	-3,42
929,7	1,5
930,1	1,74
930,5	1,42
930,9	-3,02
931,3	2,66
931,8	-2,66
932,2	-8,7
932,6	-8,62
933	-9,34
933,5	-11,14
933,9	-4,14
934,3	-3,18
934,7	-1,7
935,2	1,94
935,6	1,22
936	-7,66
936,4	-6,66
936,8	-9,42
937,3	-13,18
937,7	-10,46
938,1	-4,74
938,5	-0,82
939	-0,78
939,4	-3,62
939,8	-2,82
940,2	-1,38
940,6	-2,58
941,1	-2,3
941,5	2,78
941,9	-3,42
942,3	-3,3
942,8	-2,74
943,2	4,3
943,6	-0,9
944	-1,7
944,4	-4,06
944,9	-4,18
945,3	-7,98
945,7	-2,26
946,1	-0,7
946,6	-3,94
947	-2,3
947,4	-1,3
947,8	-0,22
948,2	0,9
948,7	2,18
949,1	7,42
949,5	7,7
949,9	3,98
950,3	1,5
950,8	1,14
951,2	-3,66
951,6	-10,38
952	-9,98
952,5	-8,94
952,9	-3,22
953,3	-9,02
953,7	-3,22
954,1	-2,34
954,6	-3,02
955	-2,94
955,4	2,78
955,8	2,14
956,2	3,9
956,7	1,78
957,1	-4,78
957,5	-10,18
957,9	-12,34
958,3	-13,74
958,8	-4,94
959,2	-4,34
959,6	-1,18
960	0,02
960,5	0,46
960,9	-3,5
961,3	1,62
961,7	5,86
962,1	7,1
962,6	10,78
963	12,66
963,4	13,94
963,8	14,42
964,2	8,86
964,7	7,94
965,1	0,38
965,5	-10,86
965,9	-17,06
966,3	-8,3
966,8	-9,58
967,2	-6,86
967,6	1,5
968	2,94
968,4	-3,34
968,9	-11,5
969,3	-3,06
969,7	-2,62
970,1	-4,82
970,5	-3,38
971	4,82
971,4	3,38
971,8	1,82
972,2	2,42
972,6	1,22
973,1	-3,02
973,5	-9,02
973,9	-11,06
974,3	-9,26
974,7	-1,14
975,2	-2,42
975,6	-2,58
976	-1,42
976,4	-5,3
976,8	-9,38
977,3	-6,26
977,7	-6,42
978,1	-3,42
978,5	1,42
978,9	-5,62
979,4	0,5
979,8	6,82
980,2	3,98
980,6	4,7
981	9,46
981,5	9,7
981,9	8,3
982,3	10,94
982,7	10,46
983,1	9,62
983,6	4,82
984	4,82
984,4	2,82
984,8	2,5
985,2	3,98
985,6	3,3
986,1	-5,02
986,5	-5,78
986,9	-6,1
987,3	-10,34
987,7	-8,94
988,2	-4,66
988,6	-3,46
989	-0,18
989,4	0,66
989,8	-5,9
990,3	-10,82
990,7	-13,5
991,1	-17,58
991,5	-12,62
991,9	-8,14
992,3	-4,3
992,8	0,54
993,2	-0,38
993,6	-5,58
994	-9,54
994,4	-10,18
994,9	-11,82
995,3	-11,54
995,7	-12,98
996,1	-7,42
996,5	-2,74
996,9	-8,54
997,4	-9,18
997,8	-10,58
998,2	-9,7
998,6	-18,58
999	-11,18
999,5	-10,86
999,9	-2,94
1000,3	-7,7
1000,7	-2,1
1001,1	-3,78
1001,5	-7,62
1002	-16,82
1002,4	-14,86
1002,8	-15,9
1003,2	-20,1
1003,6	-13,02
1004	-4,46
1004,5	-8,9
1004,9	-5,66
1005,3	-7,06
1005,7	-10,42
1006,1	-13,7
1006,6	-9,18
1007	-11,18
1007,4	-7,9
1007,8	-5,22
1008,2	-5,34
1008,6	-2,54
1009,1	-7,38
1009,5	-8,7
1009,9	-10,38
1010,3	-6,42
1010,7	-13,14
1011,1	-8,5
1011,6	-5,54
1012	-6,38
1012,4	-9,62
1012,8	-7,66
1013,2	-9,14
1013,6	-17,66
1014,1	-14,94
1014,5	-10,7
1014,9	-9,22
1015,3	-6,26
1015,7	3,9
1016,1	-0,62
1016,6	-5,34
1017	-4,62
1017,4	-2,18
1017,8	-3,42
1018,2	5,26
1018,6	2,94
1019,1	5,14
1019,5	7,5
1019,9	8,22
1020,3	2,58
1020,7	0,74
1021,1	0,1
1021,6	-3,7
1022	-6,42
1022,4	-8,22
1022,8	-4,38
1023,2	-4,66
1023,6	-7,54
1024,1	-6,86
1024,5	-6,02
1024,9	-9,14
1025,3	-10,22
1025,7	-10,1
1026,1	-6,46
1026,6	-7,82
1027	-3,82
1027,4	-7,98
1027,8	-5,54
1028,2	-11,42
1028,6	-10,06
1029	-9,82
1029,5	-7,62
1029,9	-9,26
1030,3	-7,42
1030,7	-7,9
1031,1	-9,7
1031,5	-12,3
1032	-16,82
1032,4	-20,7
1032,8	-20,18
1033,2	-22,1
1033,6	-22,78
1034	-20,06
1034,4	-14,1
1034,9	-11,58
1035,3	-9,22
1035,7	-7,3
1036,1	-9,3
1036,5	-6,74
1036,9	-4,7
1037,4	-6,18
1037,8	3,06
1038,2	5,3
1038,6	2,58
1039	-3,78
1039,4	1,3
1039,8	-6,82
1040,3	-7,22
1040,7	-7,58
1041,1	0,1
1041,5	-2,3
1041,9	4,26
1042,3	0,74
1042,7	-0,02
1043,2	-5,34
1043,6	-5,62
1044	-9,98
1044,4	-4,42
1044,8	-1,26
1045,2	-4,5
1045,6	-3,86
1046,1	-5,18
1046,5	-3,26
1046,9	-11,22
1047,3	-4,5
1047,7	-6,18
1048,1	-3,18
1048,5	-8,7
1049	-6,3
1049,4	-6,9
1049,8	-2,62
1050,2	4,82
1050,6	9,86
1051	9,66
1051,4	6,14
1051,9	2,26
1052,3	-9,26
1052,7	-15,9
1053,1	-8,9
1053,5	-14,58
1053,9	-12,74
1054,3	-13,34
1054,8	-9,02
1055,2	-16,5
1055,6	-12,14
1056	-10,82
1056,4	-16,54
1056,8	-12,74
1057,2	-6,66
1057,6	-2,62
1058,1	-4,22
1058,5	1,26
1058,9	0,3
1059,3	-3,54
1059,7	-8,54
1060,1	-9,34
1060,5	-8,06
1061	-10,02
1061,4	-10,58
1061,8	-6,42
1062,2	-8,22
1062,6	-7,58
1063	-13,66
1063,4	-17,98
1063,8	-18,18
1064,3	-18,26
1064,7	-16,74
1065,1	-11,3
1065,5	-1,46
1065,9	-3,98
1066,3	0,66
1066,7	-0,94
1067,1	1,02
1067,6	1,82
1068	5,46
1068,4	5,18
1068,8	4,82
1069,2	3,78
1069,6	-2,58
1070	0,9
1070,4	-1,54
1070,9	-8,02
1071,3	-8,98
1071,7	-9,38
1072,1	-21,34
1072,5	-17,14
1072,9	-9,9
1073,3	-12,22
1073,7	-10,46
1074,2	-6,02
1074,6	-7,34
1075	-9,54
1075,4	-10,94
1075,8	-13,62
1076,2	-13,78
1076,6	-17,34
1077	-16,5
1077,5	-16,7
1077,9	-15,98
1078,3	-15,86
1078,7	-15,06
1079,1	-15,26
1079,5	-12,42
1079,9	-11,9
1080,3	-10,06
1080,7	-7,58
1081,2	-10,1
1081,6	-5,9
1082	-5,94
1082,4	-2,94
1082,8	-3,74
1083,2	3,94
1083,6	2,34
1084	6,58
1084,5	1,26
1084,9	1,42
1085,3	-3,58
1085,7	-2,82
1086,1	-6,9
1086,5	-7,94
1086,9	-13,98
1087,3	-14,86
1087,7	-18,38
1088,2	-17,18
1088,6	-16,5
1089	-13,66
1089,4	-15,5
1089,8	-17,86
1090,2	-19,54
1090,6	-12,38
1091	-11,66
1091,4	-6,38
1091,9	-2,9
1092,3	-2,18
1092,7	-5,98
1093,1	-2,54
1093,5	-3,66
1093,9	0,62
1094,3	3,78
1094,7	1,86
1095,1	3,22
1095,5	2,62
1096	-0,3
1096,4	-2,02
1096,8	0,38
1097,2	-2,18
1097,6	-0,74
1098	-1,98
1098,4	-1,82
1098,8	3,86
1099,2	4,26
1099,6	5,3
1100,1	6,62
1100,5	5,54
1100,9	0,1
1101,3	-4,34
1101,7	-8,66
1102,1	-12,66
1102,5	-14,14
1102,9	-16,94
1103,3	-14,02
1103,7	-12,82
1104,2	-14,14
1104,6	-11,22
1105	-6,7
1105,4	-6,14
1105,8	-1,74
1106,2	3,34
1106,6	3,66
1107	1,5
1107,4	1,7
1107,8	-0,4
1108,3	-0,367
