Data from Subt2_00025.txt Node
Date: Fri Aug 11 15:39:40 MSK 2023
User: vat
Spectrometer: MAYP114033
Trigger mode: 0
Integration Time (sec): 5,000000E-1
Scans to average: 5
Electric dark correction enabled: true
Nonlinearity correction enabled: false
Boxcar width: 2
XAxis mode: Wavelengths
Number of Pixels in Spectrum: 2068
>>>>>Begin Spectral Data<<<<<
199,4	-2,433
199,9	-1,7
200,4	-9,22
200,8	-15,9
201,3	-23,7
201,8	-31,3
202,2	-35,7
202,7	-36,98
203,2	-37,5
203,6	-38,66
204,1	-42,74
204,6	-47,22
205	-50,82
205,5	-56,46
206	-51,14
206,4	-52,9
206,9	-60,26
207,4	-63,38
207,8	-58,5
208,3	-62,94
208,8	-59,5
209,2	-57,58
209,7	-55,86
210,2	-61,58
210,6	-62,7
211,1	-63,34
211,5	-57,7
212	-57,82
212,5	-54,82
212,9	-58,5
213,4	-58,94
213,9	-62,66
214,3	-59,22
214,8	-64,06
215,3	-59,02
215,7	-62,06
216,2	-64,3
216,7	-69,1
217,1	-66,54
217,6	-70,98
218,1	-65,54
218,5	-66,78
219	-63,9
219,5	-66,7
219,9	-63,22
220,4	-61,7
220,9	-54,94
221,3	-54,34
221,8	-48,5
222,3	-55,54
222,7	-63,78
223,2	-68,3
223,6	-71,3
224,1	-73,94
224,6	-70,46
225	-75,86
225,5	-73,9
226	-74,38
226,4	-70,42
226,9	-74,22
227,4	-60,82
227,8	-58,46
228,3	-56,3
228,8	-63,82
229,2	-61,78
229,7	-70,74
230,2	-79,42
230,6	-81,18
231,1	-78,62
231,5	-79,78
232	-77,82
232,5	-71,06
232,9	-68,66
233,4	-72,94
233,9	-69,62
234,3	-70,82
234,8	-73,22
235,3	-72,14
235,7	-73,82
236,2	-75,82
236,7	-76,5
237,1	-75,38
237,6	-78,26
238,1	-71,74
238,5	-73,14
239	-69,62
239,4	-69,22
239,9	-67,58
240,4	-66,58
240,8	-63,54
241,3	-64,18
241,8	-68,1
242,2	-69,82
242,7	-73,26
243,2	-73,18
243,6	-74,02
244,1	-73,58
244,6	-65,7
245	-58,9
245,5	-63,94
245,9	-63,98
246,4	-63,02
246,9	-70,1
247,3	-79,7
247,8	-76,1
248,3	-71,94
248,7	-68,34
249,2	-67,46
249,7	-59,62
250,1	-59,74
250,6	-66,46
251	-69,02
251,5	-70,1
252	-76,82
252,4	-73,26
252,9	-70,02
253,4	-75,7
253,8	-75,54
254,3	-76,18
254,8	-81,66
255,2	-82,06
255,7	-72,78
256,1	-69,9
256,6	-56,94
257,1	-55,5
257,5	-53,34
258	-54,3
258,5	-54,34
258,9	-54,66
259,4	-53,62
259,9	-55,54
260,3	-58,9
260,8	-60,94
261,2	-74,1
261,7	-77,38
262,2	-76,7
262,6	-74,34
263,1	-78,54
263,6	-71,54
264	-68,86
264,5	-68,38
264,9	-74,1
265,4	-71,7
265,9	-70,46
266,3	-69,66
266,8	-64,66
267,3	-63,9
267,7	-59,02
268,2	-59,38
268,7	-58,54
269,1	-60,1
269,6	-62,5
270	-61,7
270,5	-63,66
271	-69,1
271,4	-72,3
271,9	-68,82
272,4	-68,46
272,8	-66,98
273,3	-60,82
273,7	-60,62
274,2	-61,62
274,7	-68,26
275,1	-66,74
275,6	-70,18
276,1	-75,42
276,5	-75,38
277	-73,62
277,4	-78,14
277,9	-74,82
278,4	-70,06
278,8	-65,42
279,3	-73,3
279,8	-70,38
280,2	-71,22
280,7	-70,86
281,1	-69,1
281,6	-60,3
282,1	-64,94
282,5	-73,82
283	-77,58
283,4	-77,46
283,9	-75,46
284,4	-71,82
284,8	-65,86
285,3	-61,86
285,8	-65,22
286,2	-69,98
286,7	-63,9
287,1	-59,42
287,6	-62,18
288,1	-61,34
288,5	-58,38
289	-64,46
289,5	-70,06
289,9	-66,22
290,4	-65,98
290,8	-66,38
291,3	-69,18
291,8	-64,82
292,2	-67,3
292,7	-68,1
293,1	-70,22
293,6	-74,26
294,1	-69,78
294,5	-70,62
295	-70,54
295,5	-67,06
295,9	-62,06
296,4	-72,94
296,8	-71,94
297,3	-68,42
297,8	-72,06
298,2	-69,42
298,7	-72,74
299,1	-72,78
299,6	-73,54
300,1	-71,26
300,5	-68,38
301	-57,3
301,5	-60,62
301,9	-62,66
302,4	-65,26
302,8	-66,86
303,3	-72,62
303,8	-72,58
304,2	-72,9
304,7	-75,82
305,1	-78,78
305,6	-76,78
306,1	-72,14
306,5	-74,9
307	-65,14
307,4	-67,02
307,9	-65,66
308,4	-64,18
308,8	-61,22
309,3	-65,1
309,8	-61,22
310,2	-58,34
310,7	-60,58
311,1	-62,38
311,6	-59,42
312,1	-57,9
312,5	-61,14
313	-61,46
313,4	-59,62
313,9	-61,02
314,4	-63,62
314,8	-62,62
315,3	-64,06
315,7	-65,22
316,2	-66,78
316,7	-71,94
317,1	-77,98
317,6	-74,54
318	-69,46
318,5	-71,9
319	-66,54
319,4	-63,18
319,9	-62,62
320,3	-65,46
320,8	-69,94
321,3	-71,34
321,7	-67,7
322,2	-68,54
322,6	-68,98
323,1	-64,74
323,6	-61,74
324	-63,46
324,5	-65,74
324,9	-68,86
325,4	-59,1
325,9	-63,86
326,3	-58,42
326,8	-58,26
327,2	-56,82
327,7	-65,98
328,2	-65,66
328,6	-68,58
329,1	-71,14
329,5	-65,34
330	-56,3
330,5	-51,38
330,9	-58,62
331,4	-56,7
331,8	-59,26
332,3	-65,22
332,8	-69,54
333,2	-64,54
333,7	-61,46
334,1	-62,66
334,6	-58,5
335,1	-54,46
335,5	-54,62
336	-58,7
336,4	-61,1
336,9	-63,9
337,4	-65,94
337,8	-67,66
338,3	-60,86
338,7	-57,9
339,2	-64,98
339,7	-64,02
340,1	-64,22
340,6	-66,26
341	-67,58
341,5	-70,98
342	-72,9
342,4	-70,74
342,9	-71,98
343,3	-77,5
343,8	-69,42
344,2	-71,22
344,7	-71,62
345,2	-73,86
345,6	-66,9
346,1	-66,46
346,5	-61,66
347	-58,78
347,5	-59,46
347,9	-58,3
348,4	-55,06
348,8	-58,38
349,3	-58,82
349,8	-55,46
350,2	-54,06
350,7	-59,02
351,1	-54,54
351,6	-57,34
352	-57,46
352,5	-54,22
353	-44,82
353,4	-44,86
353,9	-40,38
354,3	-34,82
354,8	-32,62
355,3	-28,86
355,7	-17,22
356,2	-10,22
356,6	-8,7
357,1	-1,26
357,5	9,9
358	18,14
358,5	36,82
358,9	61,1
359,4	82,66
359,8	96,86
360,3	124,42
360,8	147,7
361,2	173,42
361,7	206,1
362,1	247,9
362,6	289,22
363	342,14
363,5	393,54
364	440,86
364,4	491,22
364,9	542,66
365,3	585,94
365,8	638,58
366,3	686,54
366,7	730,34
367,2	764,94
367,6	794,5
368,1	817,58
368,5	832,42
369	832,38
369,5	830,9
369,9	827,06
370,4	805,3
370,8	788,34
371,3	768,26
371,7	743,54
372,2	704,98
372,7	668,1
373,1	631,66
373,6	588,94
374	536,02
374,5	502,18
374,9	471,06
375,4	425,02
375,9	390,98
376,3	362,74
376,8	319,94
377,2	282,42
377,7	251,58
378,2	225,98
378,6	200,94
379,1	186,62
379,5	161,34
380	145,54
380,4	126,38
380,9	109,66
381,4	90,18
381,8	81,7
382,3	73,34
382,7	62,78
383,2	57,5
383,6	47,9
384,1	39,18
384,6	29,54
385	26,18
385,5	17,86
385,9	15,26
386,4	13,78
386,8	5,82
387,3	-8,34
387,7	-14,66
388,2	-13,98
388,7	-16,46
389,1	-21,14
389,6	-18,34
390	-18,9
390,5	-22,38
390,9	-24,86
391,4	-27,82
391,9	-30,18
392,3	-33,02
392,8	-39,62
393,2	-44,06
393,7	-40,86
394,1	-37,38
394,6	-40,78
395,1	-42,5
395,5	-47,62
396	-49,94
396,4	-52,46
396,9	-56,14
397,3	-54,62
397,8	-52,82
398,2	-53,42
398,7	-55,7
399,2	-57,22
399,6	-57,3
400,1	-57,06
400,5	-51,38
401	-47,54
401,4	-46,5
401,9	-47,78
402,4	-48,74
402,8	-60,78
403,3	-64,5
403,7	-57,1
404,2	-54,5
404,6	-58,82
405,1	-46,1
405,5	-45,54
406	-47,86
406,5	-47,62
406,9	-41,98
407,4	-49,18
407,8	-48,3
408,3	-44,74
408,7	-44,7
409,2	-41,34
409,6	-40,78
410,1	-43,18
410,6	-45,62
411	-43,74
411,5	-42,78
411,9	-37,9
412,4	-26,86
412,8	-29,62
413,3	-33,02
413,7	-27,66
414,2	-19,58
414,7	-24,74
415,1	-14,5
415,6	-1,74
416	-0,38
416,5	1,38
416,9	10,46
417,4	12,74
417,8	16,54
418,3	19,3
418,8	24,7
419,2	30,22
419,7	41,18
420,1	40,06
420,6	46,9
421	47,3
421,5	53,26
421,9	57,3
422,4	67,66
422,8	79,5
423,3	92,82
423,8	101,46
424,2	106,94
424,7	115,26
425,1	123,62
425,6	130,22
426	128,22
426,5	137,18
426,9	141,5
427,4	152,38
427,9	159,38
428,3	178,66
428,8	189,7
429,2	207,66
429,7	219,54
430,1	236,54
430,6	246,7
431	264,34
431,5	280,18
431,9	289,3
432,4	311,02
432,8	335,5
433,3	355,3
433,8	375,34
434,2	400,18
434,7	418,26
435,1	439,5
435,6	464,02
436	484,46
436,5	513,46
436,9	543,9
437,4	577,02
437,8	599,22
438,3	627,5
438,8	647,46
439,2	673,06
439,7	702,06
440,1	742,58
440,6	773,54
441	818,62
441,5	855,3
441,9	892,18
442,4	933,3
442,8	980,02
443,3	1025,38
443,7	1071,78
444,2	1121,9
444,7	1171,3
445,1	1225,78
445,6	1279,54
446	1330,54
446,5	1385,22
446,9	1437,46
447,4	1490,42
447,8	1535,42
448,3	1589,98
448,7	1635,54
449,2	1694,14
449,6	1755,22
450,1	1819,58
450,6	1878,82
451	1946,74
451,5	2010,86
451,9	2072,86
452,4	2141,82
452,8	2220,82
453,3	2281,34
453,7	2345,7
454,2	2415,7
454,6	2483,22
455,1	2540,34
455,5	2621,02
456	2688,94
456,4	2759,54
456,9	2820,26
457,3	2900,46
457,8	2966,98
458,3	3044,58
458,7	3121,54
459,2	3204,74
459,6	3276,3
460,1	3358,18
460,5	3432,66
461	3507,1
461,4	3587,66
461,9	3663,02
462,3	3734,26
462,8	3807,86
463,2	3876,14
463,7	3946,26
464,1	4026,18
464,6	4097,54
465	4173,42
465,5	4247,42
466	4316,1
466,4	4379,18
466,9	4458,38
467,3	4528,06
467,8	4594,46
468,2	4664,42
468,7	4736,54
469,1	4793,74
469,6	4854,46
470	4927,7
470,5	4993,94
470,9	5052,26
471,4	5114,22
471,8	5174,82
472,3	5230,86
472,7	5272,42
473,2	5327,46
473,6	5381,3
474,1	5436,82
474,5	5484,42
475	5554,06
475,4	5597,34
475,9	5652,7
476,4	5695,54
476,8	5739,5
477,3	5773,46
477,7	5813,7
478,2	5848,38
478,6	5891,78
479,1	5933,38
479,5	5970,3
480	6008,06
480,4	6028,58
480,9	6053,78
481,3	6072,9
481,8	6092,66
482,2	6119,66
482,7	6149,02
483,1	6163,58
483,6	6185,58
484	6209,58
484,5	6220,18
484,9	6231,02
485,4	6250,74
485,8	6268,42
486,3	6268,38
486,7	6279,66
487,2	6287,38
487,6	6294,42
488,1	6283,46
488,5	6293,26
489	6295,7
489,4	6292,98
489,9	6277,7
490,4	6279,26
490,8	6265,66
491,3	6251,46
491,7	6244,66
492,2	6236,5
492,6	6222,62
493,1	6219,5
493,5	6197,3
494	6165,7
494,4	6141,7
494,9	6120,14
495,3	6085,46
495,8	6068,94
496,2	6057,18
496,7	6032,74
497,1	6003,66
497,6	5983,74
498	5954,78
498,5	5927,58
498,9	5906,14
499,4	5879,5
499,8	5842,22
500,3	5810,82
500,7	5779,5
501,2	5742,3
501,6	5716,18
502,1	5686,86
502,5	5652,34
503	5622,14
503,4	5581,34
503,9	5553,46
504,3	5524,9
504,8	5492,38
505,2	5456,02
505,7	5426,22
506,1	5380,26
506,6	5335,98
507	5296,46
507,5	5247,54
507,9	5213,98
508,4	5167,42
508,8	5129,9
509,3	5086,78
509,7	5045,1
510,2	4997,82
510,6	4961,06
511,1	4906,3
511,5	4871,98
512	4828,74
512,4	4778,74
512,9	4723,46
513,3	4689,54
513,8	4642,1
514,2	4596,58
514,7	4552,82
515,1	4512,42
515,6	4461,66
516	4416,38
516,5	4368,9
516,9	4322,38
517,4	4272,7
517,8	4231,74
518,3	4185,38
518,7	4149,18
519,2	4110,82
519,6	4072,22
520,1	4019,82
520,5	3971,34
521	3926,14
521,4	3877,02
521,9	3833,06
522,3	3793,02
522,8	3751,1
523,2	3702,06
523,7	3658,62
524,1	3622,06
524,6	3583,78
525	3539,18
525,5	3496,9
525,9	3463,46
526,4	3422,94
526,8	3375,34
527,3	3336,78
527,7	3298,38
528,2	3255,74
528,6	3211,06
529,1	3178,3
529,5	3144,42
530	3110,34
530,4	3079,02
530,9	3042,82
531,3	3006,1
531,8	2970,18
532,2	2932,98
532,6	2886,34
533,1	2853,18
533,5	2816,22
534	2778,1
534,4	2746,02
534,9	2707,74
535,3	2676,54
535,8	2638,22
536,2	2600,26
536,7	2564,26
537,1	2538,9
537,6	2497,86
538	2469,02
538,5	2441,26
538,9	2408,3
539,4	2388,42
539,8	2366,46
540,3	2332,98
540,7	2302,5
541,2	2274,46
541,6	2234,62
542,1	2205,86
542,5	2177,78
543	2150,98
543,4	2124,94
543,9	2098,62
544,3	2070,46
544,8	2053,02
545,2	2031,9
545,7	2011,66
546,1	1993,34
546,5	1967,06
547	1941,14
547,4	1911,82
547,9	1879,62
548,3	1846,5
548,8	1823,06
549,2	1802,02
549,7	1777,86
550,1	1763,18
550,6	1740,5
551	1721,46
551,5	1693,54
551,9	1672,82
552,4	1645,62
552,8	1631,94
553,3	1605,94
553,7	1593,7
554,2	1574,86
554,6	1559,78
555,1	1539,7
555,5	1527,1
555,9	1506,94
556,4	1492,7
556,8	1478,06
557,3	1459,5
557,7	1436,26
558,2	1414,3
558,6	1397,66
559,1	1373,42
559,5	1357,54
560	1344,38
560,4	1332,86
560,9	1316,66
561,3	1303,82
561,8	1286,42
562,2	1267,7
562,7	1245,1
563,1	1228,7
563,6	1210,14
564	1201,42
564,4	1191,58
564,9	1183,42
565,3	1166,62
565,8	1158,22
566,2	1140,06
566,7	1123,66
567,1	1109,58
567,6	1095,3
568	1084,3
568,5	1071,46
568,9	1058,78
569,4	1051,22
569,8	1039,06
570,3	1026,38
570,7	1018,9
571,1	1009,34
571,6	995,38
572	989,46
572,5	976,1
572,9	963,1
573,4	954,82
573,8	939,26
574,3	921,98
574,7	917,98
575,2	900,3
575,6	884,54
576,1	881,46
576,5	871,18
576,9	858,34
577,4	858,38
577,8	851,02
578,3	838,3
578,7	831,14
579,2	818,94
579,6	800,3
580,1	789,82
580,5	780,14
581	771,02
581,4	758,5
581,9	749,94
582,3	740,82
582,7	735,98
583,2	724,34
583,6	722,74
584,1	717,42
584,5	700,46
585	685,74
585,4	676,7
585,9	666,74
586,3	662,46
586,8	661,82
587,2	657,62
587,6	663,86
588,1	651,54
588,5	644,54
589	643,74
589,4	636,1
589,9	629,5
590,3	623,18
590,8	619,74
591,2	602,58
591,7	602,46
592,1	593,46
592,5	590,5
593	572,62
593,4	572,1
593,9	563,14
594,3	549,14
594,8	542,06
595,2	543,66
595,7	544,94
596,1	544,62
596,6	544,62
597	541,58
597,4	539,74
597,9	530,54
598,3	518,54
598,8	515,62
599,2	509,9
599,7	502,02
600,1	498,06
600,6	494,42
601	485,02
601,4	481,9
601,9	477,06
602,3	471,7
602,8	466,38
603,2	462,22
603,7	455,94
604,1	449,26
604,6	441,22
605	437,58
605,4	436,26
605,9	436,62
606,3	438,18
606,8	441,3
607,2	442,5
607,7	437,42
608,1	429,02
608,6	429,46
609	422,58
609,4	415,66
609,9	413,9
610,3	411,58
610,8	404,22
611,2	402,02
611,7	403,5
612,1	398,14
612,6	394,46
613	389,26
613,4	389,62
613,9	381,62
614,3	380,46
614,8	380,94
615,2	376,94
615,7	372,86
616,1	367,94
616,6	360,54
617	358,62
617,4	352,78
617,9	347,54
618,3	337,9
618,8	330,42
619,2	326,14
619,7	328,74
620,1	321,66
620,5	324,74
621	329,86
621,4	329,34
621,9	325,82
622,3	327,06
622,8	328,1
623,2	323,54
623,6	321,14
624,1	320,3
624,5	316,54
625	314,86
625,4	312,86
625,9	305,26
626,3	309,3
626,8	311,42
627,2	301,42
627,6	300,58
628,1	302,5
628,5	291,1
629	282,06
629,4	280,02
629,9	279,1
630,3	274,42
630,7	273,14
631,2	270,74
631,6	272,3
632,1	273,9
632,5	268,78
633	268,38
633,4	272,5
633,8	263,5
634,3	258,66
634,7	262,1
635,2	256,74
635,6	251,22
636,1	256,86
636,5	252,98
636,9	240,02
637,4	240,5
637,8	242,38
638,3	239,94
638,7	235,22
639,2	245,78
639,6	236,06
640	233,42
640,5	233,38
640,9	232,7
641,4	219,5
641,8	222,54
642,2	219,5
642,7	215,22
643,1	208,66
643,6	213,54
644	215,58
644,5	207,42
644,9	208,66
645,3	215,06
645,8	209,86
646,2	202,42
646,7	205,26
647,1	200,14
647,6	195,34
648	191,54
648,4	201,3
648,9	202,9
649,3	202,18
649,8	205,78
650,2	218,98
650,6	210,02
651,1	212,38
651,5	215,26
652	211,66
652,4	197,38
652,9	191,5
653,3	185,62
653,7	185,1
654,2	184,78
654,6	190,66
655,1	197,02
655,5	195,22
655,9	197,1
656,4	196,34
656,8	189,02
657,3	183,06
657,7	181,54
658,2	174,78
658,6	175,42
659	177,86
659,5	180,22
659,9	179,94
660,4	176,34
660,8	167,58
661,2	167,38
661,7	164,9
662,1	166,86
662,6	161,7
663	164,26
663,4	164,58
663,9	167,42
664,3	165,58
664,8	174,58
665,2	168,9
665,6	163,9
666,1	162,1
666,5	156,06
667	154,78
667,4	155,34
667,9	162,34
668,3	158,46
668,7	160,14
669,2	152,42
669,6	157,66
670,1	150,42
670,5	150,06
670,9	144,42
671,4	143,82
671,8	136,54
672,3	138,58
672,7	137,42
673,1	140,14
673,6	141,54
674	142,54
674,5	140,26
674,9	137,3
675,3	132,62
675,8	131,14
676,2	130,82
676,7	127,06
677,1	130,42
677,5	129,34
678	134,78
678,4	138,94
678,9	131,5
679,3	126,14
679,7	132,14
680,2	123,02
680,6	112,9
681,1	118,42
681,5	119,14
681,9	114,06
682,4	113,5
682,8	111,26
683,3	111,82
683,7	110,74
684,1	111,18
684,6	108,02
685	109,54
685,5	104,34
685,9	101,34
686,3	102,5
686,8	103,98
687,2	105,34
687,7	106,3
688,1	108,54
688,5	110,34
689	109,1
689,4	110,98
689,9	106,5
690,3	115,66
690,7	110,18
691,2	113,3
691,6	108,82
692	115,46
692,5	108,02
692,9	112,26
693,4	112,42
693,8	116,42
694,2	115,3
694,7	116,38
695,1	112,86
695,6	112,5
696	107,54
696,4	101,06
696,9	95,18
697,3	97,98
697,8	93,94
698,2	92,98
698,6	92,06
699,1	90,18
699,5	85,26
699,9	87,86
700,4	85,66
700,8	86,78
701,3	86,18
701,7	89,98
702,1	94,06
702,6	95,06
703	96,66
703,5	95,34
703,9	86,82
704,3	79,42
704,8	76,02
705,2	75,54
705,6	77,7
706,1	79,3
706,5	75,78
707	81,62
707,4	81,66
707,8	79,78
708,3	79,94
708,7	78,1
709,2	66,62
709,6	60,7
710	56,22
710,5	53,74
710,9	51,9
711,3	60,62
711,8	66,62
712,2	70,26
712,7	68,78
713,1	67,98
713,5	66,78
714	62,3
714,4	58,86
714,8	63,14
715,3	64,62
715,7	65,62
716,2	66,3
716,6	64,78
717	60,1
717,5	61,94
717,9	59,98
718,3	54,1
718,8	63,74
719,2	63,26
719,7	58,54
720,1	53,22
720,5	58,3
721	51,46
721,4	55,98
721,8	59,58
722,3	64,02
722,7	58,3
723,2	60,3
723,6	52,22
724	51,06
724,5	48,14
724,9	52,26
725,3	50,7
725,8	50,7
726,2	49,22
726,7	47,82
727,1	41,06
727,5	32,74
728	28,62
728,4	23,7
728,8	27,82
729,3	34,1
729,7	40,18
730,1	45,54
730,6	49,1
731	44,54
731,5	43,1
731,9	36,38
732,3	36,46
732,8	33,82
733,2	39,82
733,6	38,26
734,1	36,62
734,5	36,98
734,9	42,58
735,4	39,02
735,8	42,98
736,3	48,46
736,7	47,3
737,1	41,42
737,6	42,38
738	35,34
738,4	31,78
738,9	29,66
739,3	29,62
739,7	22,74
740,2	22,26
740,6	25,86
741,1	28,54
741,5	30,42
741,9	31,94
742,4	35,66
742,8	30,26
743,2	26,34
743,7	28,62
744,1	25,5
744,5	16,66
745	22,9
745,4	27,1
745,8	27,02
746,3	32,54
746,7	35,78
747,2	31,98
747,6	25,3
748	20,14
748,5	15,94
748,9	17,46
749,3	18,98
749,8	27,54
750,2	25,02
750,6	21,94
751,1	23,98
751,5	21,7
751,9	13,3
752,4	13,5
752,8	16,78
753,3	17,78
753,7	19,9
754,1	20,46
754,6	23,54
755	25,18
755,4	27,14
755,9	20,78
756,3	21,06
756,7	26,46
757,2	18,82
757,6	11,02
758	11,82
758,5	13,5
758,9	11,86
759,3	19,46
759,8	16,06
760,2	20,58
760,6	20,22
761,1	10,66
761,5	5,22
761,9	4,26
762,4	3,94
762,8	-4,26
763,3	-3,1
763,7	-3,98
764,1	-0,3
764,6	-0,34
765	6,58
765,4	12,06
765,9	19,1
766,3	19,78
766,7	14,3
767,2	12,62
767,6	3,5
768	-1,22
768,5	-1,02
768,9	6,54
769,3	3,62
769,8	11,42
770,2	13,1
770,6	15,58
771,1	11,86
771,5	8,58
771,9	5,94
772,4	0,42
772,8	-8,34
773,2	-6,9
773,7	0,1
774,1	1,58
774,5	2,78
775	5,86
775,4	0,18
775,8	-2,06
776,3	-4,3
776,7	-6,02
777,1	-1,1
777,6	-0,66
778	1,54
778,4	5,78
778,9	9,74
779,3	-3,34
779,7	-4,14
780,2	-10,86
780,6	-18,18
781	-24,94
781,5	-14,98
781,9	-21,62
782,3	-17,54
782,8	-13,98
783,2	-4,66
783,6	-4,66
784,1	-1,38
784,5	-3,54
784,9	-10,1
785,4	-14,98
785,8	-16,82
786,2	-17,34
786,7	-13,7
787,1	-9,58
787,5	-13,86
788	-12,94
788,4	-10,86
788,8	-17,46
789,3	-14,1
789,7	-12,86
790,1	-14,22
790,6	-11,06
791	-10,66
791,4	-14,94
791,9	-9,3
792,3	-17,1
792,7	-13,14
793,2	-11,14
793,6	-12,54
794	-12,1
794,5	-2,34
794,9	-17,82
795,3	-20,18
795,8	-21,7
796,2	-26,82
796,6	-28,06
797,1	-19,26
797,5	-19,86
797,9	-20,58
798,4	-17,34
798,8	-10,62
799,2	-7,82
799,7	-9,86
800,1	-12,78
800,5	-14,7
801	-26,5
801,4	-26,26
801,8	-19,46
802,2	-15,74
802,7	-14,82
803,1	-12,02
803,5	-17,74
804	-19,82
804,4	-18,82
804,8	-18,3
805,3	-13,94
805,7	-20,14
806,1	-21,46
806,6	-18,22
807	-29,34
807,4	-35,34
807,9	-26,42
808,3	-27,66
808,7	-33,94
809,2	-26,42
809,6	-26,74
810	-27,38
810,4	-28,1
810,9	-31,66
811,3	-31,46
811,7	-32,7
812,2	-37,18
812,6	-35,86
813	-31,46
813,5	-24,86
813,9	-13,86
814,3	-8,86
814,8	-8,94
815,2	-13,22
815,6	-18,3
816,1	-26,14
816,5	-30,02
816,9	-25,7
817,3	-25,14
817,8	-28,7
818,2	-34,66
818,6	-39,62
819,1	-44,86
819,5	-41,22
819,9	-41,74
820,4	-34,02
820,8	-26,78
821,2	-26,1
821,7	-23,78
822,1	-19,38
822,5	-21,1
822,9	-21,46
823,4	-21,02
823,8	-27,5
824,2	-31,7
824,7	-32,86
825,1	-34,82
825,5	-35,46
826	-34,3
826,4	-31,74
826,8	-38,86
827,3	-40,86
827,7	-38,9
828,1	-36,94
828,5	-42,58
829	-39,22
829,4	-35,62
829,8	-42,82
830,3	-38,18
830,7	-38,54
831,1	-34,86
831,6	-42,9
832	-42,82
832,4	-47,38
832,8	-45,18
833,3	-45,46
833,7	-38,38
834,1	-41,66
834,6	-44,66
835	-54,54
835,4	-54,9
835,8	-52,94
836,3	-45,82
836,7	-44,02
837,1	-37,82
837,6	-41,62
838	-42,86
838,4	-50,18
838,9	-50,54
839,3	-49,22
839,7	-48,42
840,1	-55,38
840,6	-51,38
841	-48,3
841,4	-52,42
841,9	-48,18
842,3	-39,74
842,7	-40,34
843,1	-47,58
843,6	-38,1
844	-42,18
844,4	-44,94
844,9	-45,54
845,3	-37,3
845,7	-40,1
846,2	-43,82
846,6	-45,06
847	-43,58
847,4	-47,18
847,9	-49,98
848,3	-48,02
848,7	-46,54
849,2	-44,1
849,6	-44,66
850	-39,46
850,4	-35,62
850,9	-38,06
851,3	-34,74
851,7	-39,42
852,2	-41,66
852,6	-47,26
853	-45,74
853,4	-52,86
853,9	-47,7
854,3	-50,14
854,7	-42,1
855,2	-42,62
855,6	-38,82
856	-42,18
856,4	-43,46
856,9	-41,86
857,3	-44,06
857,7	-50,06
858,2	-43,14
858,6	-44,94
859	-49,9
859,4	-53,34
859,9	-49,9
860,3	-55,34
860,7	-49,62
861,1	-55,06
861,6	-46,5
862	-46,06
862,4	-45,42
862,9	-49,42
863,3	-44,14
863,7	-46,74
864,1	-48,06
864,6	-43,02
865	-43,1
865,4	-40,34
865,9	-42,02
866,3	-42,86
866,7	-48,66
867,1	-49,5
867,6	-48,38
868	-53,42
868,4	-53,54
868,8	-54,78
869,3	-58,18
869,7	-62,02
870,1	-58,54
870,6	-57,1
871	-57,06
871,4	-41,82
871,8	-49,9
872,3	-52,86
872,7	-50,3
873,1	-54,58
873,5	-65,14
874	-63,18
874,4	-62,18
874,8	-66,58
875,3	-59,94
875,7	-58,22
876,1	-57,98
876,5	-56,1
877	-61,02
877,4	-63,02
877,8	-58,58
878,2	-52,98
878,7	-52,82
879,1	-41,74
879,5	-36,26
879,9	-43,66
880,4	-44,26
880,8	-46,98
881,2	-54,1
881,7	-58,34
882,1	-51,46
882,5	-58,5
882,9	-48,78
883,4	-44,26
883,8	-47,62
884,2	-60,42
884,6	-57,66
885,1	-65,42
885,5	-70,14
885,9	-65,46
886,3	-60,62
886,8	-62,26
887,2	-66,06
887,6	-67,94
888	-71,22
888,5	-69,78
888,9	-67,58
889,3	-66,3
889,8	-65,34
890,2	-63,26
890,6	-61,58
891	-57,3
891,5	-53,1
891,9	-47,34
892,3	-45,78
892,7	-42,06
893,2	-45,5
893,6	-45,78
894	-51,82
894,4	-58,98
894,9	-66,38
895,3	-63,62
895,7	-65,66
896,1	-59,7
896,6	-53,14
897	-47,22
897,4	-49,34
897,8	-49,54
898,3	-56,1
898,7	-59,78
899,1	-61,1
899,5	-59,5
900	-64,82
900,4	-60,1
900,8	-62,06
901,2	-62,22
901,7	-65,82
902,1	-64,18
902,5	-66,5
902,9	-62,9
903,4	-69,02
903,8	-67,02
904,2	-64,5
904,6	-61,82
905,1	-61,26
905,5	-55,74
905,9	-54,22
906,3	-45,5
906,8	-48,1
907,2	-48,82
907,6	-54,5
908	-57,82
908,5	-65,26
908,9	-60,7
909,3	-60,86
909,7	-57,94
910,2	-54,9
910,6	-51,06
911	-50,1
911,4	-46,74
911,9	-51,82
912,3	-54,5
912,7	-58,58
913,1	-68,22
913,6	-75,5
914	-69,34
914,4	-70,34
914,8	-66,66
915,3	-59,3
915,7	-54,34
916,1	-53,62
916,5	-48,74
916,9	-51,54
917,4	-55,18
917,8	-57,54
918,2	-56,3
918,6	-58,06
919,1	-56,3
919,5	-54,86
919,9	-47,14
920,3	-50,3
920,8	-54,98
921,2	-59,78
921,6	-61,54
922	-68,3
922,5	-68,66
922,9	-73,14
923,3	-65,54
923,7	-64,42
924,2	-67,38
924,6	-66,42
925	-51,98
925,4	-56,94
925,8	-57,14
926,3	-56,82
926,7	-51,02
927,1	-55,78
927,5	-57,18
928	-54,3
928,4	-46,14
928,8	-56,18
929,2	-59,06
929,7	-59,94
930,1	-66,98
930,5	-70,7
930,9	-65,58
931,3	-63,22
931,8	-66,62
932,2	-60,82
932,6	-67,94
933	-70,5
933,5	-73,7
933,9	-69,7
934,3	-69,02
934,7	-62,42
935,2	-61,5
935,6	-61,62
936	-64,02
936,4	-70,3
936,8	-71,98
937,3	-71,42
937,7	-69,62
938,1	-66,66
938,5	-61,22
939	-64,34
939,4	-63,18
939,8	-65,82
940,2	-70,7
940,6	-75,3
941,1	-69,22
941,5	-67,38
941,9	-66,26
942,3	-61,06
942,8	-64,94
943,2	-72,46
943,6	-80,18
944	-78,1
944,4	-81,98
944,9	-69,66
945,3	-70,42
945,7	-67,7
946,1	-69,5
946,6	-71,14
947	-75,02
947,4	-74,26
947,8	-71,22
948,2	-66,74
948,7	-57,74
949,1	-61,22
949,5	-58,54
949,9	-53,74
950,3	-61,98
950,8	-62,02
951,2	-56,78
951,6	-58,38
952	-68,3
952,5	-63,9
952,9	-67,94
953,3	-70,94
953,7	-69,78
954,1	-61,66
954,6	-67,62
955	-68,02
955,4	-71,9
955,8	-62,7
956,2	-67,62
956,7	-61,7
957,1	-59,7
957,5	-57,74
957,9	-72,98
958,3	-71,02
958,8	-72,38
959,2	-70,34
959,6	-72,1
960	-66,1
960,5	-70,06
960,9	-66,58
961,3	-70,78
961,7	-72,3
962,1	-68,9
962,6	-66,5
963	-71,9
963,4	-72,66
963,8	-70,86
964,2	-76,18
964,7	-75,9
965,1	-71,46
965,5	-70,02
965,9	-70,98
966,3	-64,1
966,8	-63,86
967,2	-67,98
967,6	-69,54
968	-66,42
968,4	-65,74
968,9	-71,9
969,3	-70,1
969,7	-64,98
970,1	-63,3
970,5	-67,78
971	-57,82
971,4	-58,9
971,8	-59,26
972,2	-59,38
972,6	-58,58
973,1	-65,1
973,5	-64,46
973,9	-71,18
974,3	-73,46
974,7	-76,86
975,2	-77,42
975,6	-76,26
976	-71,42
976,4	-69,3
976,8	-64,54
977,3	-65,14
977,7	-65,42
978,1	-65,9
978,5	-66,02
978,9	-66,5
979,4	-68,46
979,8	-71,66
980,2	-70,74
980,6	-68,78
981	-72,66
981,5	-69,02
981,9	-67,82
982,3	-70,82
982,7	-71,62
983,1	-69,3
983,6	-62,46
984	-58,34
984,4	-60,34
984,8	-60,14
985,2	-65,86
985,6	-69,3
986,1	-69,9
986,5	-63,18
986,9	-66,86
987,3	-61,42
987,7	-64,42
988,2	-65,06
988,6	-69,06
989	-71,14
989,4	-75,5
989,8	-78,86
990,3	-82,9
990,7	-81,78
991,1	-84,86
991,5	-76,82
991,9	-73,62
992,3	-69,26
992,8	-68,82
993,2	-64,54
993,6	-66,34
994	-62,58
994,4	-64,74
994,9	-64,62
995,3	-61,54
995,7	-62,22
996,1	-61,06
996,5	-60,06
996,9	-62,18
997,4	-69,18
997,8	-71,46
998,2	-71,14
998,6	-70,58
999	-69,94
999,5	-67,1
999,9	-68,14
1000,3	-64,7
1000,7	-68,06
1001,1	-68,22
1001,5	-61,1
1002	-56,34
1002,4	-63,9
1002,8	-60,34
1003,2	-60,38
1003,6	-60,74
1004	-68,38
1004,5	-63,1
1004,9	-61,38
1005,3	-60,94
1005,7	-63,78
1006,1	-55,7
1006,6	-60,9
1007	-56,3
1007,4	-58,26
1007,8	-59,5
1008,2	-60,46
1008,6	-61,26
1009,1	-71,62
1009,5	-70,26
1009,9	-69,78
1010,3	-70,78
1010,7	-73,3
1011,1	-64,74
1011,6	-65,66
1012	-68,94
1012,4	-72,02
1012,8	-69,58
1013,2	-66,02
1013,6	-66,86
1014,1	-65,62
1014,5	-59,3
1014,9	-59,18
1015,3	-63,9
1015,7	-59,14
1016,1	-57,22
1016,6	-61,06
1017	-60,38
1017,4	-69,1
1017,8	-69,54
1018,2	-74,02
1018,6	-76,66
1019,1	-81,06
1019,5	-73,54
1019,9	-75,34
1020,3	-69,18
1020,7	-66,22
1021,1	-66,3
1021,6	-66,3
1022	-68,5
1022,4	-69,98
1022,8	-70,9
1023,2	-70,86
1023,6	-70,58
1024,1	-70,14
1024,5	-77,98
1024,9	-79,82
1025,3	-79,82
1025,7	-86,66
1026,1	-89,58
1026,6	-81,3
1027	-80,18
1027,4	-81,94
1027,8	-83,5
1028,2	-80,98
1028,6	-85,22
1029	-80,42
1029,5	-80,62
1029,9	-71,14
1030,3	-70,46
1030,7	-70,38
1031,1	-79,54
1031,5	-72,66
1032	-78,38
1032,4	-82,98
1032,8	-81,9
1033,2	-74,46
1033,6	-68,78
1034	-69,82
1034,4	-62,86
1034,9	-59,86
1035,3	-57,22
1035,7	-72,14
1036,1	-68,62
1036,5	-68,62
1036,9	-71,78
1037,4	-82,46
1037,8	-77,14
1038,2	-81,78
1038,6	-90,18
1039	-86,46
1039,4	-78,3
1039,8	-71,58
1040,3	-72,02
1040,7	-68,14
1041,1	-75,38
1041,5	-81,42
1041,9	-88,74
1042,3	-87,18
1042,7	-84,54
1043,2	-78,58
1043,6	-77,18
1044	-76,42
1044,4	-75,5
1044,8	-79,06
1045,2	-85,06
1045,6	-89,86
1046,1	-90,5
1046,5	-98,42
1046,9	-97,9
1047,3	-91,66
1047,7	-86,86
1048,1	-83,34
1048,5	-77,18
1049	-71,14
1049,4	-77,1
1049,8	-75,22
1050,2	-79,74
1050,6	-78,82
1051	-87,54
1051,4	-82,18
1051,9	-88,06
1052,3	-92,42
1052,7	-99,78
1053,1	-104,14
1053,5	-101,74
1053,9	-92,74
1054,3	-87,74
1054,8	-75,5
1055,2	-65,74
1055,6	-69,98
1056	-72,42
1056,4	-69,18
1056,8	-72,7
1057,2	-78,98
1057,6	-86,5
1058,1	-87,58
1058,5	-90,06
1058,9	-91,66
1059,3	-89,9
1059,7	-81,58
1060,1	-82,18
1060,5	-77,98
1061	-72,58
1061,4	-68,18
1061,8	-68,02
1062,2	-65,58
1062,6	-68,18
1063	-75,82
1063,4	-76,26
1063,8	-77,94
1064,3	-74,5
1064,7	-73,3
1065,1	-70,58
1065,5	-69,02
1065,9	-68,38
1066,3	-71,98
1066,7	-82,5
1067,1	-81,3
1067,6	-84,86
1068	-83,94
1068,4	-87,74
1068,8	-75,26
1069,2	-74,42
1069,6	-74,42
1070	-73,86
1070,4	-71,7
1070,9	-69,38
1071,3	-70,94
1071,7	-64,86
1072,1	-62,78
1072,5	-67,34
1072,9	-71,78
1073,3	-64,9
1073,7	-71,42
1074,2	-75,98
1074,6	-71,9
1075	-75,18
1075,4	-74,9
1075,8	-72,02
1076,2	-69,3
1076,6	-65,06
1077	-58,26
1077,5	-61,66
1077,9	-65,66
1078,3	-59,34
1078,7	-64,66
1079,1	-64,7
1079,5	-68,42
1079,9	-64,06
1080,3	-70,38
1080,7	-66,7
1081,2	-66,14
1081,6	-66,18
1082	-67,34
1082,4	-68,5
1082,8	-71,1
1083,2	-73,98
1083,6	-71,02
1084	-73,42
1084,5	-74,98
1084,9	-77,9
1085,3	-74,78
1085,7	-72,54
1086,1	-67,62
1086,5	-62,62
1086,9	-59,86
1087,3	-67,54
1087,7	-66,82
1088,2	-64,34
1088,6	-58,66
1089	-56,74
1089,4	-50,14
1089,8	-49,46
1090,2	-54,54
1090,6	-59,06
1091	-60,86
1091,4	-68,94
1091,9	-75,58
1092,3	-69,42
1092,7	-69,98
1093,1	-66,78
1093,5	-60,74
1093,9	-56,34
1094,3	-57,9
1094,7	-55,94
1095,1	-61,1
1095,5	-64,62
1096	-65,62
1096,4	-65,86
1096,8	-65,14
1097,2	-61,42
1097,6	-55,18
1098	-54,62
1098,4	-50,9
1098,8	-59,58
1099,2	-56,38
1099,6	-50,3
1100,1	-48,98
1100,5	-56,34
1100,9	-47,18
1101,3	-42,94
1101,7	-47,58
1102,1	-49,1
1102,5	-45,7
1102,9	-44,26
1103,3	-50,98
1103,7	-49,46
1104,2	-47,06
1104,6	-47,3
1105	-52,1
1105,4	-49,66
1105,8	-48,9
1106,2	-40,34
1106,6	-28,18
1107	-16,06
1107,4	-6,38
1107,8	0,1
1108,3	1,167
