Data from Subt2_00002.txt Node
Date: Fri Aug 11 15:13:23 MSK 2023
User: vat
Spectrometer: MAYP114033
Trigger mode: 0
Integration Time (sec): 5,000000E-1
Scans to average: 5
Electric dark correction enabled: true
Nonlinearity correction enabled: false
Boxcar width: 2
XAxis mode: Wavelengths
Number of Pixels in Spectrum: 2068
>>>>>Begin Spectral Data<<<<<
199,4	-0,633
199,9	-1,033
200,4	-3,233
200,8	-1,473
201,3	-5,153
201,8	-10,113
202,2	-15,553
202,7	-14,433
203,2	-15,913
203,6	-17,233
204,1	-17,233
204,6	-16,593
205	-19,873
205,5	-24,953
206	-19,313
206,4	-17,953
206,9	-15,153
207,4	-16,793
207,8	-15,273
208,3	-19,113
208,8	-23,033
209,2	-28,913
209,7	-26,873
210,2	-27,033
210,6	-26,513
211,1	-23,513
211,5	-20,953
212	-22,673
212,5	-28,073
212,9	-26,073
213,4	-22,673
213,9	-21,833
214,3	-23,233
214,8	-19,833
215,3	-22,153
215,7	-20,873
216,2	-20,353
216,7	-16,753
217,1	-18,513
217,6	-16,513
218,1	-19,913
218,5	-21,033
219	-20,793
219,5	-24,873
219,9	-32,113
220,4	-35,393
220,9	-31,913
221,3	-36,793
221,8	-34,553
222,3	-34,953
222,7	-35,473
223,2	-37,033
223,6	-31,393
224,1	-25,313
224,6	-22,713
225	-20,473
225,5	-18,393
226	-19,233
226,4	-20,713
226,9	-17,553
227,4	-17,953
227,8	-23,473
228,3	-27,353
228,8	-30,633
229,2	-29,313
229,7	-31,153
230,2	-30,593
230,6	-23,953
231,1	-15,873
231,5	-19,593
232	-14,593
232,5	-13,313
232,9	-11,513
233,4	-11,953
233,9	-12,993
234,3	-14,873
234,8	-13,673
235,3	-23,473
235,7	-23,113
236,2	-20,473
236,7	-23,993
237,1	-21,713
237,6	-20,233
238,1	-21,833
238,5	-23,793
239	-26,553
239,4	-29,153
239,9	-27,713
240,4	-30,953
240,8	-31,553
241,3	-27,073
241,8	-25,113
242,2	-26,673
242,7	-26,433
243,2	-22,913
243,6	-21,393
244,1	-21,073
244,6	-20,033
245	-21,633
245,5	-26,433
245,9	-29,953
246,4	-30,513
246,9	-33,873
247,3	-33,633
247,8	-29,353
248,3	-19,873
248,7	-22,393
249,2	-18,833
249,7	-14,313
250,1	-17,513
250,6	-21,953
251	-23,193
251,5	-24,393
252	-28,593
252,4	-22,393
252,9	-28,633
253,4	-21,833
253,8	-16,153
254,3	-18,233
254,8	-25,393
255,2	-25,313
255,7	-28,993
256,1	-32,273
256,6	-31,873
257,1	-35,953
257,5	-27,393
258	-32,313
258,5	-29,233
258,9	-25,873
259,4	-18,033
259,9	-21,633
260,3	-17,833
260,8	-21,433
261,2	-21,313
261,7	-19,233
262,2	-22,993
262,6	-23,113
263,1	-25,273
263,6	-27,793
264	-31,033
264,5	-30,113
264,9	-27,513
265,4	-26,353
265,9	-29,233
266,3	-27,673
266,8	-20,113
267,3	-21,473
267,7	-21,033
268,2	-13,793
268,7	-14,433
269,1	-18,433
269,6	-20,793
270	-21,713
270,5	-25,633
271	-26,993
271,4	-26,273
271,9	-29,633
272,4	-27,713
272,8	-25,193
273,3	-17,193
273,7	-19,193
274,2	-11,433
274,7	-14,233
275,1	-15,193
275,6	-23,433
276,1	-20,953
276,5	-24,713
277	-16,673
277,4	-15,673
277,9	-19,753
278,4	-25,593
278,8	-26,433
279,3	-27,873
279,8	-29,633
280,2	-24,033
280,7	-21,193
281,1	-20,193
281,6	-25,633
282,1	-27,433
282,5	-28,433
283	-28,953
283,4	-24,233
283,9	-23,753
284,4	-24,313
284,8	-22,913
285,3	-20,833
285,8	-27,313
286,2	-25,873
286,7	-20,073
287,1	-19,953
287,6	-20,953
288,1	-21,913
288,5	-15,753
289	-19,353
289,5	-22,713
289,9	-18,593
290,4	-16,833
290,8	-23,353
291,3	-22,473
291,8	-21,513
292,2	-28,273
292,7	-28,993
293,1	-29,513
293,6	-31,793
294,1	-34,913
294,5	-32,593
295	-35,273
295,5	-26,473
295,9	-22,273
296,4	-16,753
296,8	-14,673
297,3	-6,553
297,8	-12,753
298,2	-16,553
298,7	-12,313
299,1	-13,833
299,6	-19,393
300,1	-21,633
300,5	-20,153
301	-25,713
301,5	-25,873
301,9	-22,633
302,4	-19,633
302,8	-22,073
303,3	-20,553
303,8	-23,193
304,2	-21,353
304,7	-23,473
305,1	-21,713
305,6	-22,873
306,1	-21,673
306,5	-25,073
307	-22,313
307,4	-18,513
307,9	-18,793
308,4	-20,153
308,8	-19,713
309,3	-26,273
309,8	-30,993
310,2	-33,113
310,7	-31,353
311,1	-32,993
311,6	-29,433
312,1	-23,673
312,5	-19,353
313	-17,233
313,4	-22,513
313,9	-23,273
314,4	-26,473
314,8	-25,393
315,3	-24,193
315,7	-18,193
316,2	-14,473
316,7	-14,873
317,1	-15,553
317,6	-15,233
318	-13,313
318,5	-17,313
319	-17,273
319,4	-22,753
319,9	-23,993
320,3	-19,833
320,8	-17,393
321,3	-17,113
321,7	-8,673
322,2	-14,793
322,6	-22,233
323,1	-30,633
323,6	-36,513
324	-41,233
324,5	-37,993
324,9	-33,433
325,4	-23,553
325,9	-20,593
326,3	-18,593
326,8	-15,113
327,2	-18,033
327,7	-18,313
328,2	-19,113
328,6	-21,553
329,1	-25,673
329,5	-23,273
330	-25,153
330,5	-16,953
330,9	-21,473
331,4	-20,033
331,8	-17,993
332,3	-13,353
332,8	-16,033
333,2	-14,753
333,7	-11,953
334,1	-19,673
334,6	-29,793
335,1	-29,273
335,5	-21,073
336	-30,113
336,4	-29,873
336,9	-26,073
337,4	-23,113
337,8	-27,473
338,3	-21,513
338,7	-18,313
339,2	-19,393
339,7	-27,073
340,1	-28,993
340,6	-25,313
341	-24,593
341,5	-21,153
342	-18,993
342,4	-15,193
342,9	-17,073
343,3	-14,753
343,8	-18,233
344,2	-17,273
344,7	-20,073
345,2	-13,993
345,6	-15,153
346,1	-11,913
346,5	-8,073
347	-8,033
347,5	-13,633
347,9	-15,593
348,4	-18,313
348,8	-23,073
349,3	-26,513
349,8	-26,273
350,2	-25,993
350,7	-16,833
351,1	-17,953
351,6	-12,913
352	-10,433
352,5	-6,353
353	-9,633
353,4	-0,713
353,9	4,687
354,3	7,287
354,8	7,447
355,3	9,487
355,7	17,207
356,2	25,527
356,6	36,567
357,1	49,887
357,5	64,607
358	75,647
358,5	88,327
358,9	103,927
359,4	127,487
359,8	155,047
360,3	178,287
360,8	210,327
361,2	243,087
361,7	280,687
362,1	319,207
362,6	365,847
363	411,047
363,5	465,527
364	514,847
364,4	571,607
364,9	623,487
365,3	679,727
365,8	730,567
366,3	785,207
366,7	826,527
367,2	871,487
367,6	905,167
368,1	932,367
368,5	954,127
369	965,767
369,5	959,047
369,9	946,367
370,4	930,847
370,8	899,967
371,3	876,167
371,7	845,367
372,2	816,767
372,7	774,687
373,1	734,327
373,6	687,727
374	642,167
374,5	597,607
374,9	554,647
375,4	511,967
375,9	467,527
376,3	434,887
376,8	399,167
377,2	360,647
377,7	330,447
378,2	305,847
378,6	278,407
379,1	254,447
379,5	239,447
380	218,047
380,4	196,687
380,9	181,807
381,4	164,887
381,8	154,847
382,3	141,407
382,7	139,727
383,2	124,687
383,6	121,607
384,1	112,847
384,6	109,287
385	94,407
385,5	95,647
385,9	87,607
386,4	76,567
386,8	74,847
387,3	67,207
387,7	60,167
388,2	50,567
388,7	43,647
389,1	35,607
389,6	37,367
390	32,567
390,5	30,927
390,9	37,647
391,4	29,167
391,9	22,247
392,3	19,927
392,8	22,247
393,2	18,207
393,7	17,167
394,1	20,767
394,6	29,727
395,1	27,047
395,5	25,447
396	32,247
396,4	26,887
396,9	16,887
397,3	13,527
397,8	13,447
398,2	10,887
398,7	12,167
399,2	13,127
399,6	11,127
400,1	4,687
400,5	4,247
401	4,367
401,4	3,087
401,9	6,487
402,4	7,847
402,8	6,807
403,3	8,087
403,7	3,087
404,2	-2,273
404,6	0,647
405,1	1,007
405,5	0,727
406	6,447
406,5	8,127
406,9	3,207
407,4	2,967
407,8	0,887
408,3	-3,833
408,7	-4,153
409,2	-1,153
409,6	-0,473
410,1	-1,753
410,6	5,647
411	7,167
411,5	14,727
411,9	16,727
412,4	26,807
412,8	26,847
413,3	26,687
413,7	17,847
414,2	20,727
414,7	12,527
415,1	6,287
415,6	5,407
416	10,367
416,5	11,407
416,9	14,367
417,4	21,207
417,8	27,047
418,3	31,927
418,8	34,687
419,2	35,527
419,7	33,487
420,1	31,167
420,6	24,247
421	19,567
421,5	20,487
421,9	25,407
422,4	28,767
422,8	36,207
423,3	37,407
423,8	44,247
424,2	44,527
424,7	48,367
425,1	50,887
425,6	52,527
426	50,567
426,5	52,647
426,9	55,567
427,4	51,607
427,9	52,767
428,3	56,447
428,8	52,367
429,2	48,207
429,7	48,567
430,1	47,167
430,6	45,007
431	45,407
431,5	51,167
431,9	52,887
432,4	60,167
432,8	64,767
433,3	73,367
433,8	73,127
434,2	73,407
434,7	75,327
435,1	81,927
435,6	87,007
436	96,047
436,5	108,607
436,9	111,887
437,4	109,607
437,8	115,007
438,3	116,087
438,8	123,727
439,2	132,207
439,7	137,927
440,1	144,367
440,6	145,207
441	147,407
441,5	155,207
441,9	165,487
442,4	169,847
442,8	187,487
443,3	191,927
443,7	197,087
444,2	203,927
444,7	210,687
445,1	216,327
445,6	230,447
446	245,087
446,5	257,727
446,9	263,607
447,4	271,407
447,8	281,647
448,3	288,567
448,7	300,927
449,2	319,047
449,6	336,927
450,1	345,047
450,6	350,767
451	361,487
451,5	372,527
451,9	382,047
452,4	398,327
452,8	417,167
453,3	427,287
453,7	441,487
454,2	450,167
454,6	469,247
455,1	486,767
455,5	506,687
456	522,687
456,4	549,327
456,9	561,087
457,3	580,927
457,8	595,327
458,3	619,327
458,7	634,447
459,2	652,047
459,6	669,247
460,1	693,287
460,5	705,127
461	721,887
461,4	743,127
461,9	757,607
462,3	774,087
462,8	801,367
463,2	817,487
463,7	839,407
464,1	867,047
464,6	891,127
465	913,607
465,5	941,887
466	965,767
466,4	987,127
466,9	1007,967
467,3	1030,927
467,8	1053,367
468,2	1075,407
468,7	1089,167
469,1	1107,407
469,6	1129,887
470	1148,567
470,5	1174,807
470,9	1198,927
471,4	1230,247
471,8	1251,007
472,3	1273,247
472,7	1292,087
473,2	1318,247
473,6	1335,887
474,1	1357,727
474,5	1385,887
475	1405,247
475,4	1423,967
475,9	1442,847
476,4	1462,007
476,8	1480,167
477,3	1506,807
477,7	1532,967
478,2	1553,327
478,6	1570,447
479,1	1588,927
479,5	1605,327
480	1618,287
480,4	1640,887
480,9	1657,727
481,3	1675,207
481,8	1692,167
482,2	1716,007
482,7	1723,247
483,1	1738,527
483,6	1748,327
484	1760,287
484,5	1764,007
484,9	1783,367
485,4	1795,887
485,8	1812,647
486,3	1818,167
486,7	1834,927
487,2	1833,687
487,6	1843,127
488,1	1851,287
488,5	1861,207
489	1864,927
489,4	1880,607
489,9	1887,007
490,4	1887,927
490,8	1891,567
491,3	1896,407
491,7	1898,607
492,2	1898,847
492,6	1903,967
493,1	1906,127
493,5	1907,407
494	1909,167
494,4	1905,727
494,9	1898,087
495,3	1894,247
495,8	1890,287
496,2	1889,447
496,7	1887,767
497,1	1896,527
497,6	1903,887
498	1903,887
498,5	1896,567
498,9	1897,647
499,4	1888,287
499,8	1868,927
500,3	1859,287
500,7	1857,207
501,2	1858,087
501,6	1851,807
502,1	1850,367
502,5	1847,127
503	1839,927
503,4	1831,407
503,9	1829,047
504,3	1829,447
504,8	1823,287
505,2	1821,447
505,7	1803,007
506,1	1799,247
506,6	1788,527
507	1777,527
507,5	1766,127
507,9	1765,447
508,4	1756,167
508,8	1747,127
509,3	1742,487
509,7	1736,727
510,2	1729,287
510,6	1714,927
511,1	1712,007
511,5	1708,687
512	1686,487
512,4	1674,927
512,9	1665,967
513,3	1646,407
513,8	1632,007
514,2	1636,727
514,7	1624,647
515,1	1619,567
515,6	1609,767
516	1605,927
516,5	1589,967
516,9	1582,767
517,4	1576,967
517,8	1574,207
518,3	1559,847
518,7	1545,727
519,2	1538,927
519,6	1520,727
520,1	1513,367
520,5	1505,567
521	1502,007
521,4	1491,967
521,9	1480,447
522,3	1466,367
522,8	1459,367
523,2	1453,807
523,7	1453,127
524,1	1450,927
524,6	1448,367
525	1441,287
525,5	1430,687
525,9	1416,727
526,4	1405,247
526,8	1404,327
527,3	1394,127
527,7	1389,807
528,2	1381,447
528,6	1376,127
529,1	1363,367
529,5	1360,487
530	1358,887
530,4	1361,007
530,9	1362,007
531,3	1357,527
531,8	1349,087
532,2	1341,967
532,6	1332,367
533,1	1326,247
533,5	1321,207
534	1317,767
534,4	1317,927
534,9	1314,287
535,3	1314,727
535,8	1316,767
536,2	1314,727
536,7	1303,447
537,1	1305,087
537,6	1296,407
538	1283,887
538,5	1281,207
538,9	1278,207
539,4	1269,007
539,8	1267,327
540,3	1267,527
540,7	1269,647
541,2	1262,727
541,6	1262,007
542,1	1258,007
542,5	1260,687
543	1252,407
543,4	1253,087
543,9	1250,527
544,3	1248,007
544,8	1235,207
545,2	1223,127
545,7	1218,407
546,1	1213,087
546,5	1211,327
547	1215,367
547,4	1218,047
547,9	1215,087
548,3	1207,727
548,8	1208,887
549,2	1206,527
549,7	1204,567
550,1	1206,087
550,6	1209,847
551	1204,407
551,5	1204,007
551,9	1204,527
552,4	1202,247
552,8	1202,047
553,3	1192,407
553,7	1191,527
554,2	1186,647
554,6	1182,287
555,1	1179,647
555,5	1192,127
555,9	1183,127
556,4	1180,207
556,8	1185,727
557,3	1186,167
557,7	1177,687
558,2	1178,207
558,6	1186,247
559,1	1182,127
559,5	1176,687
560	1174,087
560,4	1178,967
560,9	1171,967
561,3	1178,327
561,8	1173,887
562,2	1170,087
562,7	1160,447
563,1	1156,487
563,6	1145,727
564	1146,567
564,4	1150,567
564,9	1157,447
565,3	1161,127
565,8	1153,087
566,2	1146,687
566,7	1143,527
567,1	1137,527
567,6	1131,487
568	1135,287
568,5	1144,167
568,9	1136,567
569,4	1126,167
569,8	1126,967
570,3	1127,367
570,7	1124,207
571,1	1130,887
571,6	1138,087
572	1135,687
572,5	1134,847
572,9	1132,327
573,4	1125,327
573,8	1122,567
574,3	1119,847
574,7	1116,887
575,2	1111,207
575,6	1108,687
576,1	1106,167
576,5	1105,607
576,9	1096,847
577,4	1096,327
577,8	1090,847
578,3	1090,327
578,7	1088,207
579,2	1090,047
579,6	1084,327
580,1	1082,287
580,5	1073,807
581	1066,767
581,4	1066,567
581,9	1060,167
582,3	1062,367
582,7	1061,407
583,2	1062,087
583,6	1056,127
584,1	1053,767
584,5	1052,567
585	1049,407
585,4	1040,807
585,9	1030,527
586,3	1027,607
586,8	1021,167
587,2	1017,887
587,6	1021,687
588,1	1024,167
588,5	1025,647
589	1018,647
589,4	1018,007
589,9	1009,767
590,3	1002,407
590,8	994,967
591,2	992,087
591,7	990,247
592,1	985,327
592,5	990,087
593	992,807
593,4	995,807
593,9	989,287
594,3	992,847
594,8	991,807
595,2	985,127
595,7	980,527
596,1	977,247
596,6	969,847
597	964,087
597,4	967,127
597,9	961,367
598,3	952,527
598,8	957,807
599,2	949,687
599,7	943,047
600,1	940,807
600,6	941,287
601	934,887
601,4	935,647
601,9	927,767
602,3	918,487
602,8	918,727
603,2	913,527
603,7	903,727
604,1	903,327
604,6	909,887
605	903,887
605,4	900,807
605,9	902,487
606,3	901,247
606,8	890,047
607,2	886,287
607,7	884,687
608,1	879,887
608,6	874,447
609	873,687
609,4	869,607
609,9	859,567
610,3	855,967
610,8	858,847
611,2	852,967
611,7	854,007
612,1	854,567
612,6	852,887
613	842,927
613,4	844,527
613,9	836,887
614,3	828,687
614,8	824,127
615,2	820,927
615,7	821,967
616,1	819,647
616,6	813,927
617	814,807
617,4	810,887
617,9	799,887
618,3	798,167
618,8	798,567
619,2	789,527
619,7	783,807
620,1	776,447
620,5	777,287
621	771,007
621,4	773,287
621,9	767,167
622,3	757,087
622,8	743,567
623,2	739,727
623,6	738,967
624,1	735,127
624,5	743,567
625	742,727
625,4	737,407
625,9	723,047
626,3	721,887
626,8	710,207
627,2	702,407
627,6	702,367
628,1	694,247
628,5	688,087
629	684,327
629,4	684,807
629,9	679,007
630,3	678,767
630,7	672,527
631,2	673,567
631,6	666,407
632,1	664,127
632,5	657,527
633	653,207
633,4	639,847
633,8	631,047
634,3	621,287
634,7	621,207
635,2	613,567
635,6	614,847
636,1	612,687
636,5	611,247
636,9	604,487
637,4	606,087
637,8	609,247
638,3	611,007
638,7	609,807
639,2	610,567
639,6	612,927
640	603,847
640,5	599,287
640,9	590,927
641,4	584,487
641,8	576,767
642,2	573,207
642,7	566,967
643,1	561,847
643,6	560,527
644	564,687
644,5	561,127
644,9	556,087
645,3	555,847
645,8	549,567
646,2	533,767
646,7	529,287
647,1	530,807
647,6	525,127
648	517,727
648,4	521,447
648,9	515,487
649,3	507,007
649,8	507,967
650,2	512,007
650,6	505,807
651,1	503,207
651,5	497,847
652	494,567
652,4	491,527
652,9	489,807
653,3	491,607
653,7	494,407
654,2	487,687
654,6	482,887
655,1	472,047
655,5	473,287
655,9	469,207
656,4	469,887
656,8	468,807
657,3	471,807
657,7	461,407
658,2	459,727
658,6	454,247
659	448,887
659,5	446,087
659,9	442,487
660,4	437,567
660,8	436,447
661,2	432,927
661,7	427,607
662,1	421,607
662,6	412,287
663	399,527
663,4	395,727
663,9	396,927
664,3	395,207
664,8	393,407
665,2	403,327
665,6	401,367
666,1	395,327
666,5	394,167
667	391,567
667,4	380,447
667,9	376,967
668,3	373,487
668,7	372,927
669,2	370,287
669,6	369,047
670,1	369,647
670,5	360,167
670,9	353,527
671,4	355,567
671,8	348,287
672,3	337,007
672,7	342,567
673,1	341,687
673,6	330,127
674	330,647
674,5	329,887
674,9	327,367
675,3	320,607
675,8	324,167
676,2	323,727
676,7	320,247
677,1	316,367
677,5	317,087
678	313,287
678,4	308,887
678,9	305,047
679,3	298,607
679,7	293,327
680,2	289,967
680,6	288,807
681,1	289,087
681,5	290,287
681,9	285,887
682,4	283,287
682,8	279,287
683,3	278,807
683,7	277,847
684,1	276,487
684,6	277,847
685	281,847
685,5	278,087
685,9	273,607
686,3	275,527
686,8	272,727
687,2	269,847
687,7	271,727
688,1	267,167
688,5	261,487
689	255,487
689,4	246,327
689,9	239,647
690,3	242,847
690,7	241,727
691,2	246,047
691,6	247,327
692	246,407
692,5	246,607
692,9	245,567
693,4	240,487
693,8	240,807
694,2	239,487
694,7	231,167
695,1	227,527
695,6	222,927
696	217,927
696,4	219,007
696,9	221,127
697,3	220,727
697,8	220,927
698,2	218,527
698,6	211,607
699,1	207,327
699,5	203,327
699,9	196,927
700,4	197,687
700,8	194,367
701,3	192,167
701,7	194,207
702,1	199,727
702,6	191,807
703	194,047
703,5	183,807
703,9	186,527
704,3	185,447
704,8	187,847
705,2	187,687
705,6	191,927
706,1	189,567
706,5	181,127
707	179,727
707,4	176,967
707,8	182,327
708,3	173,287
708,7	176,447
709,2	174,087
709,6	173,527
710	167,847
710,5	172,047
710,9	163,487
711,3	163,007
711,8	160,447
712,2	155,207
712,7	147,327
713,1	153,327
713,5	158,647
714	156,367
714,4	157,807
714,8	158,847
715,3	156,527
715,7	149,567
716,2	144,807
716,6	143,287
717	137,847
717,5	132,447
717,9	137,167
718,3	138,487
718,8	140,047
719,2	144,967
719,7	142,407
720,1	134,327
720,5	130,287
721	125,847
721,4	126,967
721,8	134,247
722,3	131,767
722,7	128,527
723,2	129,927
723,6	119,967
724	116,967
724,5	118,527
724,9	122,927
725,3	118,567
725,8	124,247
726,2	118,807
726,7	119,327
727,1	113,287
727,5	120,247
728	112,487
728,4	109,967
728,8	103,407
729,3	106,687
729,7	96,327
730,1	101,247
730,6	104,247
731	102,367
731,5	99,727
731,9	101,007
732,3	98,007
732,8	93,887
733,2	94,407
733,6	96,607
734,1	91,887
734,5	86,287
734,9	86,567
735,4	87,567
735,8	87,047
736,3	90,087
736,7	102,447
737,1	102,887
737,6	98,967
738	97,087
738,4	95,287
738,9	83,687
739,3	85,727
739,7	86,727
740,2	88,087
740,6	89,447
741,1	94,687
741,5	95,647
741,9	92,287
742,4	85,847
742,8	82,807
743,2	75,847
743,7	68,127
744,1	66,927
744,5	65,527
745	62,887
745,4	66,727
745,8	67,807
746,3	76,247
746,7	81,047
747,2	78,047
747,6	79,247
748	74,327
748,5	72,087
748,9	65,607
749,3	66,847
749,8	67,447
750,2	67,167
750,6	62,807
751,1	57,527
751,5	61,487
751,9	53,527
752,4	59,087
752,8	56,527
753,3	59,167
753,7	57,167
754,1	56,967
754,6	50,647
755	49,007
755,4	53,007
755,9	46,487
756,3	45,687
756,7	46,887
757,2	46,167
757,6	45,007
758	48,447
758,5	54,407
758,9	53,647
759,3	51,007
759,8	43,767
760,2	44,287
760,6	37,207
761,1	41,047
761,5	43,967
761,9	48,167
762,4	49,567
762,8	47,327
763,3	45,607
763,7	50,247
764,1	52,607
764,6	52,287
765	54,727
765,4	51,727
765,9	49,567
766,3	44,487
766,7	40,327
767,2	40,087
767,6	37,287
768	37,167
768,5	33,447
768,9	36,927
769,3	32,327
769,8	36,927
770,2	34,567
770,6	37,807
771,1	39,927
771,5	45,087
771,9	43,287
772,4	41,287
772,8	45,007
773,2	33,847
773,7	29,327
774,1	28,327
774,5	22,807
775	15,367
775,4	22,927
775,8	25,847
776,3	21,247
776,7	24,287
777,1	27,327
777,6	22,967
778	19,447
778,4	28,287
778,9	28,847
779,3	28,287
779,7	27,967
780,2	27,487
780,6	20,287
781	18,687
781,5	22,367
781,9	21,447
782,3	24,767
782,8	26,487
783,2	29,287
783,6	28,367
784,1	32,247
784,5	34,647
784,9	30,967
785,4	28,087
785,8	21,247
786,2	18,607
786,7	14,567
787,1	22,287
787,5	20,647
788	23,247
788,4	19,607
788,8	13,607
789,3	9,647
789,7	13,127
790,1	20,847
790,6	26,567
791	33,447
791,4	37,567
791,9	38,607
792,3	31,967
792,7	24,967
793,2	22,567
793,6	15,607
794	12,407
794,5	12,367
794,9	18,567
795,3	21,087
795,8	22,527
796,2	25,287
796,6	27,007
797,1	24,647
797,5	22,127
797,9	21,007
798,4	19,007
798,8	16,487
799,2	15,727
799,7	10,287
800,1	15,927
800,5	14,287
801	15,727
801,4	18,887
801,8	22,167
802,2	14,407
802,7	25,047
803,1	15,967
803,5	14,687
804	13,607
804,4	14,287
804,8	2,247
805,3	4,647
805,7	2,167
806,1	3,207
806,6	3,727
807	4,727
807,4	9,807
807,9	7,367
808,3	11,047
808,7	10,527
809,2	13,927
809,6	10,207
810	10,247
810,4	10,687
810,9	9,687
811,3	8,007
811,7	13,407
812,2	13,047
812,6	10,287
813	12,527
813,5	9,207
813,9	2,287
814,3	7,727
814,8	3,407
815,2	4,887
815,6	3,927
816,1	9,287
816,5	7,487
816,9	4,487
817,3	3,927
817,8	8,527
818,2	0,487
818,6	-5,233
819,1	1,007
819,5	-4,673
819,9	-12,873
820,4	-8,713
820,8	-6,913
821,2	-5,553
821,7	-1,353
822,1	-0,033
822,5	0,767
822,9	2,287
823,4	1,847
823,8	-0,233
824,2	-1,633
824,7	1,927
825,1	-0,193
825,5	-4,113
826	-4,833
826,4	3,607
826,8	-2,353
827,3	-0,993
827,7	-2,393
828,1	-7,953
828,5	-13,313
829	-13,713
829,4	-17,713
829,8	-11,273
830,3	-6,233
830,7	-6,793
831,1	-6,073
831,6	-5,873
832	-10,673
832,4	-8,353
832,8	-5,513
833,3	-2,833
833,7	-4,073
834,1	0,967
834,6	-4,913
835	-5,233
835,4	-6,073
835,8	-5,033
836,3	-11,513
836,7	-7,553
837,1	-11,713
837,6	-9,353
838	-10,913
838,4	-8,473
838,9	-13,553
839,3	-8,033
839,7	-10,753
840,1	-4,553
840,6	-10,673
841	-4,513
841,4	-11,113
841,9	-5,713
842,3	-9,673
842,7	-10,553
843,1	-15,153
843,6	-7,833
844	-18,353
844,4	-14,873
844,9	-8,353
845,3	-2,233
845,7	-8,873
846,2	-9,793
846,6	-10,953
847	-16,833
847,4	-21,713
847,9	-25,913
848,3	-24,073
848,7	-20,073
849,2	-15,153
849,6	-9,273
850	1,127
850,4	2,127
850,9	-0,113
851,3	3,447
851,7	-2,233
852,2	-7,873
852,6	-12,793
853	-12,793
853,4	-13,473
853,9	-16,633
854,3	-12,273
854,7	-3,953
855,2	-4,513
855,6	-4,473
856	-3,193
856,4	-7,953
856,9	-9,873
857,3	-12,753
857,7	-14,073
858,2	-7,393
858,6	-9,313
859	-7,393
859,4	-8,833
859,9	-13,353
860,3	-19,873
860,7	-16,313
861,1	-16,913
861,6	-13,393
862	-6,473
862,4	-4,593
862,9	0,327
863,3	-3,233
863,7	1,327
864,1	-6,473
864,6	-8,913
865	-15,273
865,4	-8,753
865,9	-12,113
866,3	-13,273
866,7	-10,353
867,1	-9,673
867,6	-19,793
868	-21,833
868,4	-19,313
868,8	-21,513
869,3	-24,113
869,7	-17,553
870,1	-13,833
870,6	-12,273
871	-7,633
871,4	-3,273
871,8	-2,513
872,3	-9,913
872,7	-1,473
873,1	-2,873
873,5	-11,153
874	-10,113
874,4	-5,113
874,8	-15,393
875,3	-19,553
875,7	-12,473
876,1	-16,593
876,5	-18,073
877	-12,313
877,4	-10,353
877,8	-9,753
878,2	-6,753
878,7	-5,073
879,1	-9,833
879,5	-13,233
879,9	-15,993
880,4	-17,633
880,8	-23,153
881,2	-21,833
881,7	-19,233
882,1	-13,313
882,5	-6,833
882,9	-8,633
883,4	-9,393
883,8	-8,713
884,2	-10,793
884,6	-23,353
885,1	-18,793
885,5	-17,633
885,9	-22,833
886,3	-24,753
886,8	-21,433
887,2	-24,673
887,6	-23,113
888	-22,873
888,5	-25,793
888,9	-27,473
889,3	-23,633
889,8	-27,673
890,2	-27,593
890,6	-28,273
891	-24,273
891,5	-26,873
891,9	-27,113
892,3	-21,953
892,7	-21,353
893,2	-22,153
893,6	-19,033
894	-22,113
894,4	-17,993
894,9	-17,713
895,3	-16,793
895,7	-17,073
896,1	-18,073
896,6	-19,553
897	-18,873
897,4	-18,313
897,8	-18,153
898,3	-13,793
898,7	-18,713
899,1	-15,593
899,5	-18,313
900	-17,593
900,4	-16,193
900,8	-13,433
901,2	-13,833
901,7	-9,593
902,1	-9,193
902,5	-12,433
902,9	-13,873
903,4	-17,033
903,8	-22,513
904,2	-26,273
904,6	-26,313
905,1	-28,113
905,5	-28,753
905,9	-23,833
906,3	-22,993
906,8	-22,113
907,2	-19,513
907,6	-15,193
908	-20,113
908,5	-20,353
908,9	-20,953
909,3	-21,593
909,7	-18,193
910,2	-13,553
910,6	-13,833
911	-11,753
911,4	-11,913
911,9	-14,993
912,3	-15,433
912,7	-16,353
913,1	-15,553
913,6	-17,073
914	-19,633
914,4	-17,993
914,8	-16,633
915,3	-18,193
915,7	-19,673
916,1	-21,873
916,5	-22,553
916,9	-20,513
917,4	-18,073
917,8	-15,593
918,2	-11,393
918,6	-14,393
919,1	-17,153
919,5	-15,513
919,9	-14,833
920,3	-14,593
920,8	-13,393
921,2	-12,473
921,6	-15,313
922	-17,913
922,5	-18,193
922,9	-18,833
923,3	-17,713
923,7	-17,073
924,2	-15,633
924,6	-14,273
925	-15,073
925,4	-13,833
925,8	-18,113
926,3	-18,273
926,7	-19,073
927,1	-16,873
927,5	-16,953
928	-15,193
928,4	-13,873
928,8	-17,313
929,2	-22,393
929,7	-28,753
930,1	-32,913
930,5	-35,073
930,9	-36,873
931,3	-28,393
931,8	-24,193
932,2	-21,073
932,6	-22,033
933	-23,033
933,5	-30,633
933,9	-35,393
934,3	-35,113
934,7	-32,553
935,2	-29,073
935,6	-23,513
936	-19,393
936,4	-24,913
936,8	-20,553
937,3	-20,513
937,7	-23,313
938,1	-20,233
938,5	-7,793
939	-13,233
939,4	-18,673
939,8	-17,153
940,2	-20,273
940,6	-26,553
941,1	-24,993
941,5	-19,673
941,9	-28,913
942,3	-31,313
942,8	-31,993
943,2	-29,753
943,6	-32,993
944	-24,073
944,4	-23,433
944,9	-24,473
945,3	-22,273
945,7	-27,313
946,1	-28,953
946,6	-27,193
947	-27,593
947,4	-29,753
947,8	-25,233
948,2	-25,753
948,7	-20,993
949,1	-15,593
949,5	-14,833
949,9	-12,753
950,3	-10,953
950,8	-14,153
951,2	-18,473
951,6	-22,313
952	-21,913
952,5	-23,713
952,9	-25,473
953,3	-28,833
953,7	-28,073
954,1	-27,393
954,6	-29,473
955	-30,393
955,4	-30,033
955,8	-35,313
956,2	-37,233
956,7	-37,393
957,1	-37,793
957,5	-34,713
957,9	-25,953
958,3	-20,953
958,8	-19,513
959,2	-22,913
959,6	-21,393
960	-28,513
960,5	-34,833
960,9	-33,473
961,3	-31,033
961,7	-34,393
962,1	-33,073
962,6	-26,313
963	-24,793
963,4	-30,793
963,8	-33,433
964,2	-34,833
964,7	-41,753
965,1	-42,633
965,5	-30,793
965,9	-29,553
966,3	-25,913
966,8	-25,593
967,2	-27,553
967,6	-30,873
968	-26,633
968,4	-25,193
968,9	-22,993
969,3	-28,553
969,7	-21,393
970,1	-19,553
970,5	-21,233
971	-18,473
971,4	-11,873
971,8	-17,913
972,2	-21,433
972,6	-17,473
973,1	-19,673
973,5	-17,873
973,9	-18,873
974,3	-13,033
974,7	-20,393
975,2	-18,393
975,6	-22,073
976	-21,153
976,4	-22,673
976,8	-19,713
977,3	-18,953
977,7	-15,273
978,1	-19,593
978,5	-26,153
978,9	-30,233
979,4	-24,713
979,8	-25,473
980,2	-22,713
980,6	-12,993
981	-9,593
981,5	-20,833
981,9	-18,913
982,3	-13,793
982,7	-18,953
983,1	-15,913
983,6	-11,793
984	-18,033
984,4	-23,513
984,8	-27,313
985,2	-32,113
985,6	-34,633
986,1	-30,513
986,5	-30,713
986,9	-25,593
987,3	-21,273
987,7	-18,593
988,2	-19,593
988,6	-16,313
989	-18,433
989,4	-22,473
989,8	-23,433
990,3	-21,673
990,7	-27,673
991,1	-29,913
991,5	-27,873
991,9	-28,513
992,3	-30,633
992,8	-24,793
993,2	-20,353
993,6	-18,993
994	-16,713
994,4	-22,193
994,9	-25,113
995,3	-23,193
995,7	-25,153
996,1	-25,513
996,5	-22,473
996,9	-25,273
997,4	-35,113
997,8	-39,273
998,2	-36,953
998,6	-35,833
999	-36,153
999,5	-27,073
999,9	-26,073
1000,3	-31,233
1000,7	-28,353
1001,1	-24,993
1001,5	-27,993
1002	-26,833
1002,4	-20,913
1002,8	-19,513
1003,2	-18,953
1003,6	-19,993
1004	-18,473
1004,5	-23,073
1004,9	-24,873
1005,3	-27,673
1005,7	-28,593
1006,1	-26,033
1006,6	-26,073
1007	-26,313
1007,4	-18,753
1007,8	-15,153
1008,2	-18,593
1008,6	-19,193
1009,1	-22,473
1009,5	-22,833
1009,9	-22,993
1010,3	-21,553
1010,7	-19,993
1011,1	-14,513
1011,6	-18,073
1012	-22,593
1012,4	-22,713
1012,8	-25,313
1013,2	-23,073
1013,6	-16,953
1014,1	-9,793
1014,5	-5,873
1014,9	-6,313
1015,3	-4,793
1015,7	-13,073
1016,1	-17,073
1016,6	-25,033
1017	-24,753
1017,4	-31,833
1017,8	-26,393
1018,2	-25,193
1018,6	-17,433
1019,1	-22,153
1019,5	-23,033
1019,9	-25,993
1020,3	-31,473
1020,7	-35,633
1021,1	-26,873
1021,6	-22,473
1022	-27,673
1022,4	-17,593
1022,8	-14,673
1023,2	-17,953
1023,6	-16,233
1024,1	-11,633
1024,5	-17,433
1024,9	-22,833
1025,3	-20,913
1025,7	-27,793
1026,1	-34,273
1026,6	-37,273
1027	-39,553
1027,4	-40,833
1027,8	-36,673
1028,2	-33,713
1028,6	-28,313
1029	-23,153
1029,5	-23,953
1029,9	-25,993
1030,3	-21,513
1030,7	-28,193
1031,1	-26,273
1031,5	-23,833
1032	-29,793
1032,4	-30,273
1032,8	-28,433
1033,2	-29,833
1033,6	-30,633
1034	-23,913
1034,4	-22,753
1034,9	-20,313
1035,3	-18,753
1035,7	-24,993
1036,1	-23,393
1036,5	-22,513
1036,9	-18,873
1037,4	-23,913
1037,8	-13,673
1038,2	-14,713
1038,6	-17,273
1039	-21,753
1039,4	-17,513
1039,8	-25,633
1040,3	-34,353
1040,7	-33,193
1041,1	-35,833
1041,5	-39,993
1041,9	-46,113
1042,3	-38,873
1042,7	-43,113
1043,2	-36,913
1043,6	-31,233
1044	-16,393
1044,4	-17,913
1044,8	-12,353
1045,2	-21,913
1045,6	-29,633
1046,1	-34,473
1046,5	-30,593
1046,9	-34,113
1047,3	-29,273
1047,7	-26,713
1048,1	-31,993
1048,5	-36,153
1049	-32,593
1049,4	-32,873
1049,8	-32,233
1050,2	-27,913
1050,6	-31,353
1051	-32,993
1051,4	-28,433
1051,9	-28,353
1052,3	-29,713
1052,7	-22,593
1053,1	-25,513
1053,5	-26,713
1053,9	-21,873
1054,3	-18,513
1054,8	-26,873
1055,2	-26,113
1055,6	-30,673
1056	-36,313
1056,4	-40,633
1056,8	-34,753
1057,2	-34,153
1057,6	-38,113
1058,1	-36,033
1058,5	-34,433
1058,9	-35,193
1059,3	-37,033
1059,7	-21,233
1060,1	-19,113
1060,5	-19,513
1061	-23,713
1061,4	-17,913
1061,8	-24,633
1062,2	-25,513
1062,6	-26,033
1063	-24,233
1063,4	-31,553
1063,8	-35,993
1064,3	-39,593
1064,7	-34,553
1065,1	-35,273
1065,5	-29,753
1065,9	-30,233
1066,3	-31,513
1066,7	-31,993
1067,1	-26,273
1067,6	-28,873
1068	-26,313
1068,4	-20,233
1068,8	-18,313
1069,2	-19,793
1069,6	-19,473
1070	-15,633
1070,4	-16,953
1070,9	-26,273
1071,3	-24,033
1071,7	-22,873
1072,1	-25,793
1072,5	-27,393
1072,9	-21,833
1073,3	-20,993
1073,7	-15,073
1074,2	-15,953
1074,6	-17,993
1075	-10,793
1075,4	-12,193
1075,8	-20,833
1076,2	-19,993
1076,6	-12,153
1077	-15,193
1077,5	-15,713
1077,9	-10,113
1078,3	-11,713
1078,7	-14,113
1079,1	-17,433
1079,5	-19,593
1079,9	-21,433
1080,3	-21,793
1080,7	-25,073
1081,2	-22,833
1081,6	-20,753
1082	-19,993
1082,4	-21,353
1082,8	-22,113
1083,2	-27,033
1083,6	-28,433
1084	-29,873
1084,5	-31,073
1084,9	-24,273
1085,3	-22,593
1085,7	-20,833
1086,1	-25,113
1086,5	-27,993
1086,9	-32,193
1087,3	-32,793
1087,7	-30,393
1088,2	-29,273
1088,6	-19,593
1089	-18,793
1089,4	-22,273
1089,8	-21,033
1090,2	-21,273
1090,6	-21,273
1091	-26,633
1091,4	-24,153
1091,9	-27,233
1092,3	-24,113
1092,7	-27,633
1093,1	-22,593
1093,5	-24,633
1093,9	-21,793
1094,3	-22,313
1094,7	-18,073
1095,1	-14,473
1095,5	-9,993
1096	-16,513
1096,4	-15,913
1096,8	-17,073
1097,2	-16,753
1097,6	-15,593
1098	-10,033
1098,4	-7,473
1098,8	-9,153
1099,2	-15,953
1099,6	-22,553
1100,1	-23,873
1100,5	-19,073
1100,9	-22,273
1101,3	-20,873
1101,7	-11,113
1102,1	-12,153
1102,5	-19,433
1102,9	-10,033
1103,3	-5,233
1103,7	-7,233
1104,2	-7,313
1104,6	-7,833
1105	-11,353
1105,4	-11,873
1105,8	-14,633
1106,2	-10,753
1106,6	-6,673
1107	-4,553
1107,4	-3,753
1107,8	0,517
1108,3	0,7
