Data from Subt2_00042.txt Node
Date: Fri Aug 11 16:02:35 MSK 2023
User: vat
Spectrometer: MAYP114033
Trigger mode: 0
Integration Time (sec): 5,000000E-1
Scans to average: 5
Electric dark correction enabled: true
Nonlinearity correction enabled: false
Boxcar width: 2
XAxis mode: Wavelengths
Number of Pixels in Spectrum: 2068
>>>>>Begin Spectral Data<<<<<
199,4	0,3
199,9	0,633
200,4	-5,247
200,8	-2,447
201,3	-3,967
201,8	-3,127
202,2	-1,487
202,7	3,153
203,2	-2,327
203,6	-2,047
204,1	-6,167
204,6	-10,567
205	-9,487
205,5	-9,647
206	-5,447
206,4	-2,847
206,9	2,353
207,4	3,353
207,8	7,353
208,3	5,553
208,8	6,953
209,2	0,713
209,7	-3,927
210,2	-3,887
210,6	-5,407
211,1	-11,247
211,5	-7,127
212	-1,007
212,5	-2,167
212,9	-2,727
213,4	-2,327
213,9	-1,487
214,3	-5,967
214,8	-5,727
215,3	-5,207
215,7	-3,807
216,2	-5,887
216,7	-7,047
217,1	-8,807
217,6	-9,727
218,1	-10,447
218,5	-14,567
219	-6,127
219,5	-6,447
219,9	-7,087
220,4	-0,247
220,9	3,313
221,3	-2,327
221,8	-1,167
222,3	-3,847
222,7	-4,487
223,2	-5,247
223,6	-7,047
224,1	-6,407
224,6	0,673
225	-4,407
225,5	-1,007
226	-0,767
226,4	-2,687
226,9	-8,447
227,4	-3,607
227,8	-7,247
228,3	-8,767
228,8	-5,327
229,2	-5,967
229,7	-13,887
230,2	-13,807
230,6	-11,087
231,1	-12,287
231,5	-8,847
232	-7,407
232,5	-6,847
232,9	-8,847
233,4	-7,247
233,9	-10,207
234,3	-3,447
234,8	-1,647
235,3	-1,367
235,7	-2,167
236,2	1,113
236,7	-2,687
237,1	-7,647
237,6	-8,327
238,1	-5,647
238,5	-7,527
239	-7,447
239,4	-1,887
239,9	0,833
240,4	-1,287
240,8	-0,047
241,3	1,153
241,8	-0,647
242,2	-3,007
242,7	-3,967
243,2	-5,207
243,6	-1,927
244,1	-3,767
244,6	-3,847
245	-3,847
245,5	-0,687
245,9	-5,447
246,4	1,433
246,9	3,833
247,3	-3,527
247,8	-8,127
248,3	-8,247
248,7	-19,567
249,2	-23,807
249,7	-21,367
250,1	-21,807
250,6	-22,247
251	-17,487
251,5	-13,007
252	-11,367
252,4	-10,767
252,9	-6,127
253,4	-6,207
253,8	-5,967
254,3	0,793
254,8	1,073
255,2	5,193
255,7	7,193
256,1	2,353
256,6	-8,327
257,1	-8,607
257,5	-14,167
258	-15,647
258,5	-9,887
258,9	-4,407
259,4	-3,367
259,9	-7,727
260,3	-10,767
260,8	-7,207
261,2	-6,447
261,7	-5,127
262,2	-3,527
262,6	1,393
263,1	-2,607
263,6	-2,447
264	-0,847
264,5	-6,167
264,9	-7,247
265,4	-9,127
265,9	-12,887
266,3	-10,807
266,8	0,113
267,3	-1,047
267,7	-1,247
268,2	5,953
268,7	2,833
269,1	-3,007
269,6	-7,087
270	-6,967
270,5	-16,727
271	-24,727
271,4	-32,407
271,9	-22,887
272,4	-21,207
272,8	-12,607
273,3	-8,727
273,7	5,793
274,2	7,753
274,7	8,073
275,1	4,313
275,6	1,633
276,1	-2,607
276,5	-5,447
277	-9,407
277,4	-9,647
277,9	-7,407
278,4	-5,567
278,8	-11,367
279,3	-6,927
279,8	-6,727
280,2	-4,807
280,7	-10,607
281,1	-7,007
281,6	-10,047
282,1	-3,407
282,5	-1,687
283	-1,407
283,4	-0,687
283,9	2,393
284,4	-6,447
284,8	-5,127
285,3	2,353
285,8	-0,367
286,2	-1,007
286,7	-0,527
287,1	-3,887
287,6	-8,487
288,1	-4,247
288,5	-4,447
289	-2,807
289,5	3,233
289,9	5,753
290,4	3,313
290,8	2,673
291,3	3,633
291,8	2,673
292,2	2,673
292,7	1,593
293,1	1,593
293,6	-1,127
294,1	-3,727
294,5	-13,287
295	-6,727
295,5	-1,807
295,9	-0,487
296,4	-0,687
296,8	9,553
297,3	1,473
297,8	-0,007
298,2	0,473
298,7	-0,887
299,1	-6,727
299,6	-1,527
300,1	-4,687
300,5	-2,207
301	0,473
301,5	3,713
301,9	-1,687
302,4	-3,327
302,8	-9,607
303,3	-15,447
303,8	-18,967
304,2	-16,167
304,7	-14,327
305,1	-10,407
305,6	-5,487
306,1	-0,767
306,5	-0,967
307	-2,487
307,4	-1,287
307,9	-2,727
308,4	-2,287
308,8	1,873
309,3	3,033
309,8	0,153
310,2	1,393
310,7	-3,087
311,1	-11,447
311,6	-11,807
312,1	-9,047
312,5	-12,327
313	-14,407
313,4	-16,127
313,9	-17,447
314,4	-15,167
314,8	-11,607
315,3	-5,367
315,7	-0,967
316,2	-2,407
316,7	-2,447
317,1	-6,127
317,6	-12,847
318	-10,807
318,5	-13,447
319	-17,407
319,4	-17,567
319,9	-13,287
320,3	-16,927
320,8	-5,447
321,3	-4,847
321,7	1,633
322,2	0,793
322,6	4,593
323,1	-0,967
323,6	-2,087
324	-1,567
324,5	-5,207
324,9	-2,767
325,4	-0,567
325,9	0,393
326,3	-3,127
326,8	-4,207
327,2	-10,407
327,7	-11,927
328,2	-10,967
328,6	-5,247
329,1	-1,687
329,5	-0,647
330	0,353
330,5	0,433
330,9	-1,767
331,4	2,873
331,8	2,193
332,3	1,353
332,8	-2,007
333,2	-11,247
333,7	-15,447
334,1	-15,007
334,6	-16,927
335,1	-9,407
335,5	-9,607
336	-7,007
336,4	-2,007
336,9	-4,727
337,4	-9,727
337,8	-1,167
338,3	-2,207
338,7	-4,447
339,2	0,153
339,7	2,873
340,1	-1,527
340,6	-2,847
341	-4,807
341,5	-8,207
342	-9,647
342,4	-8,807
342,9	-7,087
343,3	-8,647
343,8	-4,367
344,2	-3,087
344,7	-0,687
345,2	-1,847
345,6	-0,447
346,1	-2,407
346,5	-1,647
347	-4,647
347,5	-3,127
347,9	0,793
348,4	-0,927
348,8	-5,607
349,3	-8,767
349,8	-12,967
350,2	-13,767
350,7	-11,607
351,1	-14,327
351,6	-6,807
352	-4,487
352,5	-1,567
353	-7,607
353,4	0,393
353,9	6,673
354,3	10,873
354,8	12,993
355,3	27,033
355,7	30,073
356,2	29,153
356,6	36,913
357,1	45,033
357,5	51,753
358	67,993
358,5	81,393
358,9	94,513
359,4	110,073
359,8	125,953
360,3	146,113
360,8	167,113
361,2	196,713
361,7	225,313
362,1	258,033
362,6	286,953
363	323,473
363,5	354,793
364	389,353
364,4	433,913
364,9	473,833
365,3	520,313
365,8	562,593
366,3	603,193
366,7	631,553
367,2	670,193
367,6	693,113
368,1	713,193
368,5	719,073
369	725,953
369,5	715,393
369,9	712,113
370,4	702,993
370,8	692,993
371,3	675,513
371,7	655,233
372,2	626,113
372,7	589,953
373,1	555,993
373,6	523,313
374	490,593
374,5	453,753
374,9	423,793
375,4	391,953
375,9	364,833
376,3	336,913
376,8	318,153
377,2	297,513
377,7	278,433
378,2	251,193
378,6	227,913
379,1	198,793
379,5	176,633
380	158,713
380,4	146,953
380,9	136,993
381,4	127,953
381,8	124,233
382,3	120,073
382,7	111,393
383,2	100,473
383,6	97,993
384,1	86,913
384,6	79,473
385	69,433
385,5	72,193
385,9	65,113
386,4	58,273
386,8	50,033
387,3	56,273
387,7	48,953
388,2	40,953
388,7	41,073
389,1	37,273
389,6	29,313
390	22,873
390,5	21,993
390,9	19,353
391,4	17,233
391,9	15,553
392,3	16,793
392,8	20,313
393,2	18,593
393,7	22,913
394,1	21,073
394,6	21,793
395,1	24,713
395,5	27,153
396	21,713
396,4	15,473
396,9	15,753
397,3	12,153
397,8	12,633
398,2	14,193
398,7	19,673
399,2	21,113
399,6	19,553
400,1	18,193
400,5	14,433
401	14,353
401,4	10,033
401,9	7,033
402,4	3,553
402,8	8,953
403,3	4,673
403,7	1,193
404,2	6,113
404,6	8,513
405,1	12,193
405,5	20,873
406	23,913
406,5	21,273
406,9	19,153
407,4	15,553
407,8	17,313
408,3	21,353
408,7	22,913
409,2	26,833
409,6	25,873
410,1	27,193
410,6	29,153
411	31,593
411,5	34,313
411,9	42,193
412,4	46,313
412,8	49,713
413,3	54,113
413,7	67,673
414,2	72,073
414,7	74,353
415,1	82,433
415,6	82,353
416	82,953
416,5	91,313
416,9	103,553
417,4	111,273
417,8	124,513
418,3	131,433
418,8	141,593
419,2	148,353
419,7	160,193
420,1	174,793
420,6	180,513
421	183,993
421,5	183,273
421,9	191,233
422,4	197,633
422,8	214,753
423,3	228,713
423,8	252,233
424,2	263,193
424,7	274,833
425,1	288,153
425,6	301,313
426	311,673
426,5	328,753
426,9	348,433
427,4	365,233
427,9	390,033
428,3	407,353
428,8	426,913
429,2	450,313
429,7	475,513
430,1	491,993
430,6	516,593
431	538,273
431,5	568,353
431,9	586,993
432,4	618,673
432,8	656,433
433,3	685,913
433,8	712,713
434,2	751,313
434,7	786,273
435,1	821,913
435,6	866,593
436	908,433
436,5	948,473
436,9	994,353
437,4	1045,593
437,8	1095,393
438,3	1146,553
438,8	1203,353
439,2	1266,273
439,7	1312,673
440,1	1366,393
440,6	1420,513
441	1483,433
441,5	1537,353
441,9	1604,513
442,4	1673,393
442,8	1741,033
443,3	1807,353
443,7	1875,193
444,2	1950,273
444,7	2018,993
445,1	2107,193
445,6	2184,713
446	2268,193
446,5	2356,593
446,9	2451,753
447,4	2530,753
447,8	2621,353
448,3	2714,393
448,7	2797,473
449,2	2892,913
449,6	2988,313
450,1	3076,873
450,6	3176,073
451	3270,873
451,5	3358,353
451,9	3457,033
452,4	3561,553
452,8	3666,713
453,3	3778,993
453,7	3893,993
454,2	4013,673
454,6	4133,673
455,1	4241,233
455,5	4353,953
456	4464,313
456,4	4560,593
456,9	4671,073
457,3	4786,513
457,8	4907,393
458,3	5022,433
458,7	5159,473
459,2	5276,753
459,6	5399,113
460,1	5509,593
460,5	5625,193
461	5726,233
461,4	5842,273
461,9	5959,313
462,3	6077,833
462,8	6199,313
463,2	6319,633
463,7	6437,993
464,1	6563,713
464,6	6693,473
465	6813,793
465,5	6937,673
466	7050,673
466,4	7159,873
466,9	7261,153
467,3	7379,353
467,8	7491,433
468,2	7603,673
468,7	7699,513
469,1	7803,313
469,6	7893,393
470	7994,833
470,5	8098,873
470,9	8192,473
471,4	8284,273
471,8	8393,313
472,3	8484,273
472,7	8570,113
473,2	8665,953
473,6	8757,793
474,1	8837,353
474,5	8914,073
475	8997,233
475,4	9072,753
475,9	9146,233
476,4	9221,153
476,8	9301,833
477,3	9380,513
477,7	9453,513
478,2	9524,313
478,6	9571,593
479,1	9620,753
479,5	9659,273
480	9709,073
480,4	9755,073
480,9	9811,473
481,3	9855,913
481,8	9907,753
482,2	9937,233
482,7	9968,313
483,1	9989,833
483,6	10007,713
484	10032,233
484,5	10053,233
484,9	10072,273
485,4	10094,753
485,8	10114,353
486,3	10101,353
486,7	10112,593
487,2	10108,833
487,6	10111,753
488,1	10123,953
488,5	10122,953
489	10112,153
489,4	10103,833
489,9	10079,193
490,4	10049,873
490,8	10045,393
491,3	10020,833
491,7	10003,953
492,2	9988,513
492,6	9956,553
493,1	9910,993
493,5	9888,393
494	9837,553
494,4	9795,953
494,9	9745,513
495,3	9698,153
495,8	9653,673
496,2	9619,473
496,7	9578,753
497,1	9544,993
497,6	9509,993
498	9454,913
498,5	9406,873
498,9	9339,753
499,4	9274,833
499,8	9219,433
500,3	9166,873
500,7	9103,313
501,2	9058,793
501,6	9010,593
502,1	8953,193
502,5	8898,593
503	8836,113
503,4	8761,073
503,9	8700,113
504,3	8634,833
504,8	8563,313
505,2	8502,553
505,7	8435,993
506,1	8376,033
506,6	8303,393
507	8226,713
507,5	8150,073
507,9	8082,753
508,4	7994,553
508,8	7936,313
509,3	7873,193
509,7	7806,873
510,2	7743,513
510,6	7677,353
511,1	7590,913
511,5	7507,873
512	7427,353
512,4	7350,033
512,9	7269,273
513,3	7197,433
513,8	7127,793
514,2	7060,753
514,7	6979,153
515,1	6904,113
515,6	6827,553
516	6751,673
516,5	6667,433
516,9	6586,873
517,4	6522,633
517,8	6437,793
518,3	6360,433
518,7	6295,433
519,2	6222,433
519,6	6147,313
520,1	6096,473
520,5	6032,473
521	5951,673
521,4	5878,233
521,9	5803,193
522,3	5720,153
522,8	5645,913
523,2	5585,953
523,7	5524,953
524,1	5458,513
524,6	5390,553
525	5324,753
525,5	5253,473
525,9	5190,233
526,4	5133,993
526,8	5068,313
527,3	5013,633
527,7	4953,473
528,2	4895,953
528,6	4828,593
529,1	4775,593
529,5	4710,713
530	4658,793
530,4	4595,313
530,9	4533,233
531,3	4474,713
531,8	4421,233
532,2	4363,913
532,6	4315,913
533,1	4261,193
533,5	4214,993
534	4156,273
534,4	4102,153
534,9	4051,393
535,3	4009,193
535,8	3965,433
536,2	3918,473
536,7	3858,393
537,1	3803,953
537,6	3752,793
538	3690,353
538,5	3641,433
538,9	3598,913
539,4	3554,473
539,8	3516,633
540,3	3478,833
540,7	3435,753
541,2	3400,433
541,6	3356,953
542,1	3302,353
542,5	3263,033
543	3220,673
543,4	3169,233
543,9	3125,353
544,3	3093,793
544,8	3049,313
545,2	3004,953
545,7	2977,913
546,1	2951,313
546,5	2911,673
547	2874,113
547,4	2840,353
547,9	2797,273
548,3	2754,553
548,8	2718,993
549,2	2678,113
549,7	2648,593
550,1	2624,153
550,6	2594,273
551	2565,593
551,5	2547,273
551,9	2519,793
552,4	2488,353
552,8	2453,113
553,3	2421,233
553,7	2393,713
554,2	2366,993
554,6	2339,993
555,1	2325,713
555,5	2305,753
555,9	2280,673
556,4	2254,753
556,8	2234,793
557,3	2201,433
557,7	2174,833
558,2	2148,953
558,6	2128,913
559,1	2100,633
559,5	2082,793
560	2059,153
560,4	2030,593
560,9	1998,473
561,3	1979,673
561,8	1953,433
562,2	1926,753
562,7	1907,113
563,1	1888,153
563,6	1859,473
564	1843,233
564,4	1822,233
564,9	1801,313
565,3	1785,313
565,8	1768,633
566,2	1743,953
566,7	1732,473
567,1	1715,513
567,6	1694,793
568	1679,033
568,5	1668,033
568,9	1647,633
569,4	1625,233
569,8	1612,673
570,3	1598,393
570,7	1583,313
571,1	1566,993
571,6	1560,233
572	1542,913
572,5	1530,153
572,9	1506,673
573,4	1495,473
573,8	1468,593
574,3	1456,393
574,7	1432,993
575,2	1417,793
575,6	1397,033
576,1	1389,233
576,5	1369,353
576,9	1360,913
577,4	1345,393
577,8	1333,353
578,3	1315,793
578,7	1303,953
579,2	1284,713
579,6	1276,073
580,1	1261,833
580,5	1248,473
581	1234,593
581,4	1227,753
581,9	1214,633
582,3	1208,513
582,7	1201,153
583,2	1192,633
583,6	1181,673
584,1	1173,553
584,5	1163,673
585	1147,393
585,4	1136,753
585,9	1124,393
586,3	1108,353
586,8	1093,113
587,2	1084,713
587,6	1077,233
588,1	1064,233
588,5	1051,393
589	1040,553
589,4	1036,473
589,9	1024,913
590,3	1017,913
590,8	1012,673
591,2	1002,873
591,7	997,753
592,1	985,513
592,5	978,833
593	973,273
593,4	972,633
593,9	958,433
594,3	953,113
594,8	945,313
595,2	941,073
595,7	927,193
596,1	925,273
596,6	916,153
597	905,633
597,4	897,353
597,9	893,793
598,3	884,753
598,8	880,193
599,2	885,953
599,7	879,033
600,1	870,833
600,6	865,753
601	857,073
601,4	841,553
601,9	828,193
602,3	821,433
602,8	808,473
603,2	802,273
603,7	800,073
604,1	800,473
604,6	796,233
605	800,153
605,4	794,273
605,9	778,273
606,3	772,513
606,8	764,233
607,2	754,953
607,7	747,873
608,1	750,993
608,6	744,753
609	739,313
609,4	728,913
609,9	724,753
610,3	713,633
610,8	706,993
611,2	693,153
611,7	683,153
612,1	678,633
612,6	670,273
613	667,713
613,4	667,833
613,9	671,673
614,3	666,673
614,8	663,673
615,2	659,193
615,7	653,873
616,1	644,073
616,6	635,193
617	631,033
617,4	626,953
617,9	625,353
618,3	623,713
618,8	615,713
619,2	616,193
619,7	613,713
620,1	605,513
620,5	594,953
621	602,833
621,4	594,473
621,9	584,793
622,3	584,873
622,8	592,313
623,2	582,953
623,6	580,153
624,1	576,793
624,5	563,273
625	553,793
625,4	543,993
625,9	539,553
626,3	536,473
626,8	539,553
627,2	533,953
627,6	537,393
628,1	534,113
628,5	529,033
629	527,433
629,4	523,593
629,9	518,713
630,3	517,633
630,7	517,833
631,2	512,273
631,6	510,553
632,1	503,953
632,5	499,553
633	493,353
633,4	486,753
633,8	482,193
634,3	483,833
634,7	483,433
635,2	480,873
635,6	479,673
636,1	480,473
636,5	479,833
636,9	466,233
637,4	462,033
637,8	457,673
638,3	441,753
638,7	434,753
639,2	438,193
639,6	432,073
640	429,073
640,5	434,673
640,9	429,913
641,4	423,593
641,8	423,793
642,2	420,913
642,7	422,193
643,1	420,113
643,6	413,833
644	410,153
644,5	410,473
644,9	408,633
645,3	408,033
645,8	405,753
646,2	401,633
646,7	399,153
647,1	397,473
647,6	387,993
648	392,793
648,4	390,873
648,9	387,393
649,3	380,193
649,8	378,473
650,2	366,833
650,6	361,553
651,1	364,313
651,5	360,793
652	365,673
652,4	373,273
652,9	381,193
653,3	372,753
653,7	373,353
654,2	368,593
654,6	365,313
655,1	357,193
655,5	355,793
655,9	351,113
656,4	345,273
656,8	341,473
657,3	337,753
657,7	342,313
658,2	337,993
658,6	338,713
659	336,273
659,5	337,633
659,9	329,153
660,4	328,113
660,8	326,153
661,2	321,273
661,7	315,033
662,1	311,833
662,6	311,273
663	304,393
663,4	304,993
663,9	299,793
664,3	294,873
664,8	290,473
665,2	292,993
665,6	300,033
666,1	304,593
666,5	306,153
667	309,953
667,4	305,433
667,9	292,473
668,3	284,953
668,7	285,873
669,2	275,753
669,6	277,233
670,1	276,673
670,5	278,873
670,9	273,913
671,4	278,233
671,8	275,753
672,3	276,513
672,7	275,433
673,1	274,633
673,6	264,553
674	263,033
674,5	257,793
674,9	248,553
675,3	251,033
675,8	251,233
676,2	249,513
676,7	251,193
677,1	253,033
677,5	245,273
678	247,033
678,4	249,753
678,9	245,553
679,3	242,753
679,7	244,033
680,2	239,393
680,6	231,153
681,1	228,913
681,5	233,593
681,9	232,233
682,4	237,153
682,8	237,033
683,3	240,233
683,7	236,393
684,1	230,793
684,6	231,193
685	234,113
685,5	227,753
685,9	221,233
686,3	220,033
686,8	213,513
687,2	208,593
687,7	209,393
688,1	214,113
688,5	213,953
689	210,353
689,4	208,353
689,9	204,153
690,3	201,873
690,7	203,713
691,2	204,113
691,6	201,953
692	204,913
692,5	205,993
692,9	200,113
693,4	197,793
693,8	201,433
694,2	197,833
694,7	190,273
695,1	188,353
695,6	189,473
696	186,153
696,4	187,553
696,9	194,313
697,3	200,153
697,8	197,073
698,2	196,433
698,6	194,153
699,1	181,273
699,5	180,793
699,9	181,033
700,4	174,633
700,8	171,193
701,3	176,513
701,7	168,433
702,1	166,953
702,6	167,033
703	168,713
703,5	166,633
703,9	165,673
704,3	169,993
704,8	173,953
705,2	169,913
705,6	175,633
706,1	174,713
706,5	167,873
707	168,913
707,4	168,313
707,8	157,353
708,3	158,193
708,7	160,393
709,2	146,153
709,6	144,313
710	146,193
710,5	145,433
710,9	137,713
711,3	141,353
711,8	139,913
712,2	140,553
712,7	135,033
713,1	142,553
713,5	145,233
714	146,353
714,4	145,193
714,8	148,313
715,3	144,233
715,7	143,913
716,2	139,873
716,6	139,233
717	140,073
717,5	141,833
717,9	140,033
718,3	139,593
718,8	138,353
719,2	134,393
719,7	132,873
720,1	129,153
720,5	127,913
721	127,233
721,4	123,353
721,8	119,233
722,3	118,953
722,7	114,873
723,2	116,313
723,6	118,073
724	116,193
724,5	120,033
724,9	131,633
725,3	128,393
725,8	127,633
726,2	125,033
726,7	120,393
727,1	116,513
727,5	115,993
728	115,433
728,4	116,953
728,8	115,553
729,3	112,553
729,7	110,113
730,1	107,673
730,6	109,993
731	108,513
731,5	106,793
731,9	110,433
732,3	115,433
732,8	112,393
733,2	109,233
733,6	109,233
734,1	104,393
734,5	103,193
734,9	101,673
735,4	105,593
735,8	103,153
736,3	106,633
736,7	100,113
737,1	102,833
737,6	104,153
738	105,433
738,4	103,593
738,9	108,153
739,3	105,593
739,7	102,353
740,2	99,073
740,6	92,593
741,1	92,673
741,5	91,753
741,9	94,353
742,4	92,553
742,8	94,153
743,2	89,793
743,7	83,673
744,1	84,753
744,5	85,553
745	86,553
745,4	90,673
745,8	95,593
746,3	85,913
746,7	83,473
747,2	80,113
747,6	74,633
748	75,193
748,5	83,873
748,9	81,553
749,3	85,993
749,8	85,713
750,2	83,193
750,6	79,113
751,1	81,633
751,5	78,513
751,9	81,353
752,4	87,233
752,8	87,073
753,3	87,713
753,7	88,193
754,1	85,913
754,6	84,513
755	80,393
755,4	83,513
755,9	84,953
756,3	82,793
756,7	80,873
757,2	82,353
757,6	77,233
758	76,313
758,5	77,633
758,9	75,633
759,3	75,713
759,8	77,593
760,2	75,153
760,6	72,913
761,1	68,033
761,5	68,833
761,9	72,033
762,4	69,033
762,8	71,713
763,3	70,313
763,7	69,873
764,1	64,313
764,6	66,673
765	65,633
765,4	70,633
765,9	69,753
766,3	71,513
766,7	68,633
767,2	71,233
767,6	67,913
768	71,793
768,5	66,753
768,9	70,313
769,3	66,073
769,8	63,273
770,2	57,073
770,6	59,313
771,1	60,233
771,5	57,793
771,9	65,353
772,4	61,673
772,8	64,193
773,2	60,553
773,7	65,353
774,1	59,993
774,5	64,633
775	62,993
775,4	63,513
775,8	60,753
776,3	62,953
776,7	64,993
777,1	64,113
777,6	63,073
778	60,353
778,4	62,473
778,9	61,033
779,3	57,993
779,7	63,833
780,2	66,473
780,6	58,473
781	58,993
781,5	63,353
781,9	55,593
782,3	52,153
782,8	54,313
783,2	53,673
783,6	51,673
784,1	50,433
784,5	44,993
784,9	46,273
785,4	43,553
785,8	47,153
786,2	46,793
786,7	53,913
787,1	49,273
787,5	48,673
788	43,353
788,4	41,753
788,8	41,873
789,3	46,953
789,7	44,393
790,1	41,233
790,6	46,313
791	39,553
791,4	40,393
791,9	39,953
792,3	42,553
792,7	39,073
793,2	41,913
793,6	36,273
794	38,993
794,5	38,913
794,9	41,433
795,3	39,273
795,8	42,953
796,2	44,153
796,6	41,753
797,1	34,193
797,5	38,393
797,9	37,593
798,4	35,233
798,8	39,073
799,2	42,913
799,7	39,753
800,1	38,033
800,5	39,153
801	33,393
801,4	33,073
801,8	39,873
802,2	41,673
802,7	38,433
803,1	41,433
803,5	41,393
804	37,553
804,4	34,633
804,8	34,673
805,3	34,993
805,7	34,313
806,1	33,473
806,6	35,873
807	35,313
807,4	34,313
807,9	39,353
808,3	37,233
808,7	34,073
809,2	36,713
809,6	36,713
810	30,393
810,4	30,753
810,9	29,873
811,3	27,233
811,7	25,633
812,2	28,953
812,6	25,713
813	26,193
813,5	27,353
813,9	25,793
814,3	25,193
814,8	33,033
815,2	31,273
815,6	29,553
816,1	31,073
816,5	30,673
816,9	28,353
817,3	28,913
817,8	31,113
818,2	29,633
818,6	27,953
819,1	22,233
819,5	23,473
819,9	17,273
820,4	19,393
820,8	20,833
821,2	26,033
821,7	31,353
822,1	37,553
822,5	34,313
822,9	30,633
823,4	31,353
823,8	28,113
824,2	21,913
824,7	21,793
825,1	24,193
825,5	22,313
826	19,833
826,4	18,593
826,8	21,673
827,3	19,473
827,7	13,593
828,1	9,793
828,5	13,033
829	10,193
829,4	8,913
829,8	8,593
830,3	15,193
830,7	17,753
831,1	15,393
831,6	25,033
832	27,433
832,4	20,793
832,8	20,393
833,3	24,593
833,7	17,513
834,1	16,553
834,6	18,753
835	18,273
835,4	19,913
835,8	22,993
836,3	22,873
836,7	23,233
837,1	19,633
837,6	17,033
838	11,473
838,4	12,273
838,9	8,753
839,3	9,193
839,7	9,593
840,1	20,153
840,6	21,953
841	30,113
841,4	36,033
841,9	37,673
842,3	30,033
842,7	30,113
843,1	25,353
843,6	14,433
844	11,353
844,4	11,233
844,9	10,673
845,3	8,033
845,7	17,593
846,2	15,673
846,6	17,673
847	12,833
847,4	11,153
847,9	8,193
848,3	6,913
848,7	1,273
849,2	6,313
849,6	4,473
850	9,593
850,4	13,113
850,9	11,393
851,3	9,153
851,7	7,993
852,2	2,513
852,6	2,553
853	2,833
853,4	3,473
853,9	6,473
854,3	4,273
854,7	6,193
855,2	13,873
855,6	14,393
856	15,073
856,4	19,273
856,9	14,193
857,3	7,793
857,7	7,953
858,2	11,353
858,6	6,873
859	8,713
859,4	16,713
859,9	19,473
860,3	20,153
860,7	22,273
861,1	19,553
861,6	13,233
862	5,993
862,4	5,233
862,9	6,793
863,3	7,633
863,7	3,833
864,1	7,273
864,6	6,953
865	6,113
865,4	6,993
865,9	12,193
866,3	11,193
866,7	9,993
867,1	11,153
867,6	10,833
868	10,753
868,4	12,713
868,8	15,473
869,3	17,673
869,7	17,393
870,1	13,993
870,6	10,833
871	10,473
871,4	32,753
871,8	30,753
872,3	35,873
872,7	35,033
873,1	35,753
873,5	11,233
874	15,673
874,4	17,673
874,8	16,633
875,3	14,473
875,7	16,073
876,1	14,313
876,5	10,073
877	16,873
877,4	14,633
877,8	10,913
878,2	11,313
878,7	10,713
879,1	11,793
879,5	15,273
879,9	9,673
880,4	16,553
880,8	15,753
881,2	10,313
881,7	6,033
882,1	6,633
882,5	-1,127
882,9	-0,927
883,4	1,513
883,8	4,353
884,2	10,073
884,6	11,153
885,1	9,753
885,5	10,273
885,9	9,113
886,3	7,513
886,8	9,233
887,2	12,113
887,6	11,873
888	3,233
888,5	0,273
888,9	4,033
889,3	1,033
889,8	-3,447
890,2	5,113
890,6	9,713
891	3,033
891,5	3,633
891,9	7,353
892,3	5,553
892,7	2,993
893,2	5,553
893,6	9,793
894	6,513
894,4	7,553
894,9	7,233
895,3	5,673
895,7	2,673
896,1	6,593
896,6	7,113
897	10,713
897,4	10,353
897,8	11,473
898,3	7,313
898,7	10,513
899,1	7,073
899,5	3,713
900	-3,767
900,4	3,273
900,8	-3,767
901,2	-2,687
901,7	1,633
902,1	8,193
902,5	-0,407
902,9	4,673
903,4	7,753
903,8	7,833
904,2	12,033
904,6	15,353
905,1	15,233
905,5	9,993
905,9	9,233
906,3	3,153
906,8	4,793
907,2	2,593
907,6	1,593
908	-0,047
908,5	2,633
908,9	-1,807
909,3	-6,647
909,7	-1,047
910,2	0,273
910,6	-6,687
911	-4,887
911,4	-3,447
911,9	-5,247
912,3	-5,687
912,7	-0,207
913,1	0,353
913,6	2,833
914	-3,607
914,4	-10,887
914,8	-15,087
915,3	-15,127
915,7	-12,927
916,1	-10,367
916,5	1,113
916,9	5,073
917,4	5,033
917,8	0,153
918,2	4,953
918,6	1,713
919,1	2,313
919,5	5,433
919,9	12,593
920,3	12,513
920,8	15,713
921,2	10,313
921,6	2,673
922	-6,967
922,5	-6,167
922,9	-12,407
923,3	-5,487
923,7	1,953
924,2	6,833
924,6	1,433
925	1,753
925,4	-0,367
925,8	-6,247
926,3	-7,407
926,7	-9,087
927,1	-6,487
927,5	-9,447
928	-7,887
928,4	-6,207
928,8	0,993
929,2	-2,527
929,7	2,833
930,1	7,473
930,5	11,953
930,9	8,993
931,3	12,433
931,8	1,753
932,2	-3,287
932,6	-8,767
933	-8,527
933,5	-13,127
933,9	-1,447
934,3	-4,727
934,7	-0,087
935,2	0,873
935,6	2,033
936	-3,007
936,4	-0,607
936,8	-4,007
937,3	-9,767
937,7	-6,887
938,1	-9,287
938,5	-10,207
939	-13,727
939,4	-13,247
939,8	-9,967
940,2	-9,407
940,6	-8,007
941,1	-10,087
941,5	-9,807
941,9	-16,487
942,3	-11,767
942,8	-12,607
943,2	-3,807
943,6	-5,327
944	-4,687
944,4	-7,087
944,9	-6,047
945,3	-9,887
945,7	-9,407
946,1	-8,367
946,6	-12,087
947	-11,007
947,4	-11,247
947,8	-4,927
948,2	-1,967
948,7	1,833
949,1	4,833
949,5	6,193
949,9	3,513
950,3	0,753
950,8	-0,247
951,2	-0,847
951,6	-2,607
952	-3,887
952,5	-3,527
952,9	1,393
953,3	-8,007
953,7	-4,047
954,1	-3,647
954,6	0,433
955	-6,327
955,4	1,473
955,8	-1,847
956,2	2,833
956,7	-3,087
957,1	-3,087
957,5	-8,127
957,9	-6,527
958,3	-12,327
958,8	-7,167
959,2	-7,407
959,6	-3,927
960	-3,607
960,5	-1,047
960,9	-3,447
961,3	-1,247
961,7	-0,767
962,1	-2,327
962,6	-3,167
963	-0,207
963,4	6,393
963,8	11,393
964,2	8,833
964,7	9,833
965,1	5,593
965,5	-8,327
965,9	-14,247
966,3	-7,927
966,8	-9,207
967,2	-8,487
967,6	0,033
968	2,473
968,4	-0,687
968,9	-0,287
969,3	1,273
969,7	-1,607
970,1	-2,247
970,5	-5,287
971	-2,207
971,4	-0,527
971,8	4,113
972,2	0,273
972,6	-3,087
973,1	-9,287
973,5	-18,607
973,9	-22,967
974,3	-19,927
974,7	-12,247
975,2	-11,207
975,6	-6,087
976	-4,007
976,4	-4,487
976,8	-5,207
977,3	-0,967
977,7	-1,887
978,1	-1,607
978,5	-0,287
978,9	-7,487
979,4	-4,847
979,8	-3,567
980,2	-1,847
980,6	0,033
981	8,753
981,5	10,353
981,9	12,353
982,3	8,353
982,7	1,673
983,1	-0,447
983,6	-3,007
984	-1,407
984,4	0,793
984,8	3,473
985,2	3,913
985,6	2,073
986,1	-5,927
986,5	-6,447
986,9	-6,047
987,3	-7,007
987,7	-8,287
988,2	-5,527
988,6	-5,247
989	-6,287
989,4	-8,687
989,8	-8,327
990,3	-14,687
990,7	-16,087
991,1	-11,287
991,5	-9,447
991,9	-10,567
992,3	-4,127
992,8	-1,807
993,2	-0,567
993,6	0,953
994	-1,647
994,4	-6,287
994,9	-3,127
995,3	-9,567
995,7	-13,007
996,1	-11,247
996,5	-4,087
996,9	-10,887
997,4	-14,527
997,8	-16,447
998,2	-15,647
998,6	-20,487
999	-17,447
999,5	-16,847
999,9	-14,567
1000,3	-17,247
1000,7	-13,927
1001,1	-12,847
1001,5	-9,207
1002	-13,887
1002,4	-10,407
1002,8	-8,247
1003,2	-7,287
1003,6	-7,327
1004	2,313
1004,5	-4,607
1004,9	-6,247
1005,3	-12,127
1005,7	-16,807
1006,1	-21,087
1006,6	-15,647
1007	-13,007
1007,4	-7,847
1007,8	-1,247
1008,2	-1,327
1008,6	3,353
1009,1	-1,367
1009,5	-2,807
1009,9	-5,847
1010,3	-0,527
1010,7	-2,447
1011,1	2,313
1011,6	5,833
1012	7,993
1012,4	3,073
1012,8	-1,567
1013,2	-6,247
1013,6	-13,167
1014,1	-11,647
1014,5	-11,727
1014,9	-9,287
1015,3	-6,007
1015,7	-2,807
1016,1	-10,007
1016,6	-14,727
1017	-15,807
1017,4	-17,087
1017,8	-17,127
1018,2	-6,887
1018,6	-0,647
1019,1	-1,007
1019,5	5,673
1019,9	9,273
1020,3	0,593
1020,7	-3,927
1021,1	0,513
1021,6	-1,327
1022	-6,047
1022,4	-2,727
1022,8	1,473
1023,2	-6,847
1023,6	-14,167
1024,1	-13,647
1024,5	-12,447
1024,9	-11,487
1025,3	-12,327
1025,7	-10,367
1026,1	-8,567
1026,6	-8,407
1027	-8,367
1027,4	-3,567
1027,8	-3,967
1028,2	-0,847
1028,6	-0,927
1029	-0,007
1029,5	-1,247
1029,9	-1,247
1030,3	-6,007
1030,7	-6,007
1031,1	-10,407
1031,5	-9,727
1032	-13,367
1032,4	-13,327
1032,8	-12,927
1033,2	-10,287
1033,6	-14,127
1034	-11,727
1034,4	-10,967
1034,9	-9,927
1035,3	-14,367
1035,7	-14,407
1036,1	-17,567
1036,5	-19,407
1036,9	-18,527
1037,4	-18,647
1037,8	-8,927
1038,2	-2,727
1038,6	-4,847
1039	-10,527
1039,4	-2,167
1039,8	-10,407
1040,3	-15,367
1040,7	-8,727
1041,1	-5,607
1041,5	-8,967
1041,9	-2,327
1042,3	-2,647
1042,7	0,473
1043,2	-2,007
1043,6	-1,447
1044	-6,167
1044,4	0,113
1044,8	-3,367
1045,2	-3,407
1045,6	-3,407
1046,1	-0,047
1046,5	1,233
1046,9	-8,527
1047,3	-5,807
1047,7	-4,607
1048,1	-6,087
1048,5	-14,047
1049	-10,047
1049,4	-6,647
1049,8	-10,927
1050,2	-5,207
1050,6	-0,247
1051	4,873
1051,4	3,233
1051,9	4,993
1052,3	-2,927
1052,7	-8,087
1053,1	-9,367
1053,5	-15,527
1053,9	-12,807
1054,3	-14,887
1054,8	-15,727
1055,2	-18,087
1055,6	-13,487
1056	-15,807
1056,4	-14,527
1056,8	-10,567
1057,2	-5,207
1057,6	-4,487
1058,1	-8,407
1058,5	-8,847
1058,9	-9,167
1059,3	-11,807
1059,7	-11,727
1060,1	-7,807
1060,5	-8,367
1061	-9,727
1061,4	-14,447
1061,8	-15,607
1062,2	-16,727
1062,6	-13,367
1063	-14,647
1063,4	-14,447
1063,8	-10,647
1064,3	-10,727
1064,7	-10,567
1065,1	-8,047
1065,5	-5,087
1065,9	-7,007
1066,3	-12,247
1066,7	-14,687
1067,1	-16,087
1067,6	-12,687
1068	-14,727
1068,4	-3,327
1068,8	-6,287
1069,2	-1,287
1069,6	-5,167
1070	1,433
1070,4	-4,607
1070,9	-3,047
1071,3	-5,087
1071,7	-5,687
1072,1	-15,887
1072,5	-15,807
1072,9	-14,327
1073,3	-12,807
1073,7	-10,767
1074,2	-8,007
1074,6	-6,487
1075	-4,367
1075,4	-1,647
1075,8	-2,327
1076,2	-3,327
1076,6	-4,567
1077	-5,847
1077,5	-15,007
1077,9	-14,887
1078,3	-11,567
1078,7	-10,167
1079,1	-9,247
1079,5	-7,367
1079,9	-9,567
1080,3	-12,087
1080,7	-8,287
1081,2	-10,327
1081,6	-8,047
1082	-8,727
1082,4	-7,367
1082,8	-9,247
1083,2	-3,087
1083,6	-0,007
1084	1,953
1084,5	1,273
1084,9	-0,487
1085,3	-4,207
1085,7	-7,847
1086,1	-10,447
1086,5	-12,207
1086,9	-14,367
1087,3	-14,167
1087,7	-12,447
1088,2	-6,567
1088,6	-6,967
1089	-8,087
1089,4	-7,167
1089,8	-10,407
1090,2	-12,167
1090,6	-4,807
1091	1,313
1091,4	2,793
1091,9	9,993
1092,3	9,033
1092,7	5,473
1093,1	1,073
1093,5	-1,367
1093,9	-4,807
1094,3	-3,527
1094,7	-3,607
1095,1	-1,647
1095,5	-4,727
1096	-2,287
1096,4	-5,207
1096,8	-5,167
1097,2	-4,207
1097,6	1,993
1098	2,513
1098,4	6,793
1098,8	8,793
1099,2	5,513
1099,6	2,153
1100,1	-0,567
1100,5	0,593
1100,9	0,753
1101,3	2,073
1101,7	0,673
1102,1	0,233
1102,5	-1,567
1102,9	-4,487
1103,3	-5,807
1103,7	-7,447
1104,2	-7,327
1104,6	-6,127
1105	-5,687
1105,4	-4,687
1105,8	2,033
1106,2	2,793
1106,6	0,393
1107	0,993
1107,4	1,833
1107,8	-0,217
1108,3	0,1
