Data from Subt2_00052.txt Node
Date: Fri Aug 11 16:11:55 MSK 2023
User: vat
Spectrometer: MAYP114033
Trigger mode: 0
Integration Time (sec): 5,000000E-1
Scans to average: 5
Electric dark correction enabled: true
Nonlinearity correction enabled: false
Boxcar width: 2
XAxis mode: Wavelengths
Number of Pixels in Spectrum: 2068
>>>>>Begin Spectral Data<<<<<
199,4	0,167
199,9	0,317
200,4	-2,393
200,8	-4,833
201,3	-10,793
201,8	-12,153
202,2	-11,233
202,7	-11,753
203,2	-11,033
203,6	-9,873
204,1	-15,673
204,6	-18,033
205	-16,273
205,5	-17,073
206	-15,473
206,4	-9,033
206,9	-10,513
207,4	-11,993
207,8	-10,353
208,3	-11,513
208,8	-14,153
209,2	-14,513
209,7	-17,393
210,2	-21,273
210,6	-21,393
211,1	-24,833
211,5	-23,313
212	-20,673
212,5	-15,473
212,9	-13,673
213,4	-10,273
213,9	-11,873
214,3	-13,113
214,8	-18,153
215,3	-19,873
215,7	-22,473
216,2	-20,033
216,7	-22,713
217,1	-24,033
217,6	-23,153
218,1	-25,513
218,5	-33,993
219	-28,713
219,5	-22,993
219,9	-24,633
220,4	-18,193
220,9	-10,953
221,3	-11,553
221,8	-15,313
222,3	-16,033
222,7	-18,793
223,2	-18,833
223,6	-19,873
224,1	-22,273
224,6	-17,873
225	-19,633
225,5	-20,553
226	-20,353
226,4	-18,473
226,9	-25,033
227,4	-21,433
227,8	-22,193
228,3	-29,713
228,8	-29,673
229,2	-26,553
229,7	-29,553
230,2	-25,873
230,6	-19,393
231,1	-18,393
231,5	-17,393
232	-17,953
232,5	-23,793
232,9	-25,953
233,4	-25,193
233,9	-29,073
234,3	-23,433
234,8	-17,633
235,3	-20,033
235,7	-15,513
236,2	-12,633
236,7	-15,033
237,1	-23,153
237,6	-21,073
238,1	-26,713
238,5	-26,073
239	-28,033
239,4	-23,753
239,9	-16,153
240,4	-15,953
240,8	-16,113
241,3	-14,633
241,8	-15,953
242,2	-18,873
242,7	-17,513
243,2	-16,433
243,6	-16,713
244,1	-15,433
244,6	-17,513
245	-16,953
245,5	-18,593
245,9	-19,753
246,4	-14,273
246,9	-15,553
247,3	-17,313
247,8	-18,473
248,3	-17,313
248,7	-26,833
249,2	-31,033
249,7	-27,993
250,1	-26,313
250,6	-32,033
251	-27,273
251,5	-19,433
252	-25,433
252,4	-26,193
252,9	-18,833
253,4	-21,273
253,8	-26,353
254,3	-20,393
254,8	-23,473
255,2	-20,313
255,7	-14,153
256,1	-15,233
256,6	-19,593
257,1	-20,713
257,5	-26,473
258	-33,193
258,5	-29,353
258,9	-27,153
259,4	-20,273
259,9	-20,153
260,3	-15,953
260,8	-16,313
261,2	-14,913
261,7	-11,633
262,2	-13,313
262,6	-13,233
263,1	-7,233
263,6	-9,113
264	-12,753
264,5	-15,233
264,9	-17,913
265,4	-22,913
265,9	-19,793
266,3	-19,313
266,8	-9,513
267,3	-9,673
267,7	-14,273
268,2	-16,193
268,7	-15,873
269,1	-24,553
269,6	-29,313
270	-25,833
270,5	-29,393
271	-30,273
271,4	-28,873
271,9	-27,513
272,4	-27,073
272,8	-26,553
273,3	-31,033
273,7	-25,633
274,2	-15,753
274,7	-16,753
275,1	-15,113
275,6	-13,433
276,1	-20,953
276,5	-26,033
277	-24,473
277,4	-24,953
277,9	-23,793
278,4	-17,553
278,8	-17,993
279,3	-18,833
279,8	-21,273
280,2	-23,233
280,7	-23,473
281,1	-26,993
281,6	-25,433
282,1	-16,753
282,5	-15,273
283	-16,953
283,4	-17,993
283,9	-20,113
284,4	-29,393
284,8	-27,153
285,3	-27,193
285,8	-25,593
286,2	-27,593
286,7	-30,393
287,1	-33,233
287,6	-32,513
288,1	-22,993
288,5	-19,073
289	-10,673
289,5	-10,993
289,9	-7,953
290,4	-11,953
290,8	-11,153
291,3	-14,873
291,8	-10,433
292,2	-12,673
292,7	-16,153
293,1	-16,993
293,6	-14,433
294,1	-16,553
294,5	-24,313
295	-19,793
295,5	-19,193
295,9	-22,593
296,4	-20,193
296,8	-13,673
297,3	-14,393
297,8	-16,833
298,2	-17,753
298,7	-20,273
299,1	-17,473
299,6	-17,673
300,1	-16,713
300,5	-11,073
301	-11,673
301,5	-14,913
301,9	-22,873
302,4	-26,313
302,8	-28,473
303,3	-28,433
303,8	-30,753
304,2	-25,073
304,7	-19,633
305,1	-22,673
305,6	-19,353
306,1	-18,033
306,5	-14,753
307	-17,353
307,4	-12,713
307,9	-14,713
308,4	-11,993
308,8	-13,593
309,3	-10,193
309,8	-16,153
310,2	-19,953
310,7	-21,913
311,1	-31,953
311,6	-34,233
312,1	-28,713
312,5	-27,593
313	-28,593
313,4	-23,913
313,9	-22,353
314,4	-21,873
314,8	-19,113
315,3	-16,753
315,7	-15,153
316,2	-19,713
316,7	-21,433
317,1	-24,193
317,6	-26,513
318	-19,713
318,5	-18,833
319	-19,833
319,4	-20,673
319,9	-17,113
320,3	-22,353
320,8	-16,913
321,3	-18,433
321,7	-12,953
322,2	-17,993
322,6	-15,073
323,1	-23,953
323,6	-24,393
324	-25,873
324,5	-24,433
324,9	-31,113
325,4	-24,513
325,9	-23,753
326,3	-26,193
326,8	-27,473
327,2	-25,033
327,7	-27,033
328,2	-26,873
328,6	-26,073
329,1	-21,553
329,5	-17,993
330	-17,913
330,5	-20,593
330,9	-19,833
331,4	-21,713
331,8	-30,393
332,3	-29,793
332,8	-27,393
333,2	-34,353
333,7	-33,033
334,1	-25,353
334,6	-25,753
335,1	-22,953
335,5	-16,393
336	-17,073
336,4	-18,793
336,9	-16,513
337,4	-19,113
337,8	-18,993
338,3	-21,553
338,7	-24,113
339,2	-26,473
339,7	-20,873
340,1	-25,833
340,6	-23,713
341	-18,513
341,5	-16,793
342	-21,473
342,4	-20,353
342,9	-17,313
343,3	-17,193
343,8	-19,513
344,2	-18,513
344,7	-11,993
345,2	-14,233
345,6	-19,793
346,1	-18,193
346,5	-15,713
347	-22,153
347,5	-26,433
347,9	-21,153
348,4	-20,953
348,8	-27,273
349,3	-27,793
349,8	-23,113
350,2	-18,353
350,7	-18,633
351,1	-16,073
351,6	-11,473
352	-8,993
352,5	-4,833
353	-4,393
353,4	0,967
353,9	7,527
354,3	8,607
354,8	4,887
355,3	19,687
355,7	23,927
356,2	29,007
356,6	43,767
357,1	57,207
357,5	68,167
358	89,047
358,5	114,607
358,9	131,247
359,4	160,727
359,8	180,007
360,3	213,567
360,8	243,327
361,2	288,487
361,7	328,607
362,1	381,647
362,6	430,927
363	489,087
363,5	546,327
364	606,287
364,4	679,607
364,9	747,407
365,3	816,527
365,8	883,927
366,3	952,887
366,7	1008,047
367,2	1062,607
367,6	1099,047
368,1	1130,407
368,5	1149,607
369	1154,487
369,5	1150,327
369,9	1148,927
370,4	1130,807
370,8	1107,087
371,3	1078,127
371,7	1039,607
372,2	993,327
372,7	941,927
373,1	887,167
373,6	835,207
374	786,367
374,5	736,407
374,9	689,767
375,4	640,367
375,9	593,287
376,3	546,807
376,8	502,327
377,2	459,967
377,7	422,727
378,2	379,207
378,6	343,927
379,1	309,447
379,5	281,647
380	252,727
380,4	233,407
380,9	211,767
381,4	193,127
381,8	180,087
382,3	165,887
382,7	152,207
383,2	137,887
383,6	131,527
384,1	116,367
384,6	106,567
385	92,887
385,5	91,567
385,9	83,487
386,4	76,127
386,8	69,407
387,3	70,007
387,7	62,807
388,2	47,847
388,7	45,407
389,1	37,527
389,6	29,167
390	18,727
390,5	25,207
390,9	17,327
391,4	16,367
391,9	15,927
392,3	15,367
392,8	10,807
393,2	9,647
393,7	9,607
394,1	10,527
394,6	15,127
395,1	10,847
395,5	12,007
396	14,527
396,4	3,687
396,9	-0,753
397,3	3,407
397,8	1,367
398,2	1,927
398,7	7,607
399,2	7,847
399,6	3,207
400,1	1,607
400,5	-4,233
401	0,807
401,4	1,087
401,9	-2,513
402,4	-2,553
402,8	-2,473
403,3	-6,113
403,7	-7,873
404,2	0,087
404,6	2,367
405,1	7,487
405,5	11,687
406	13,007
406,5	8,367
406,9	2,567
407,4	1,687
407,8	-0,673
408,3	5,807
408,7	9,167
409,2	21,327
409,6	20,047
410,1	27,487
410,6	28,607
411	35,487
411,5	39,927
411,9	50,647
412,4	58,207
412,8	56,047
413,3	53,647
413,7	62,767
414,2	61,807
414,7	65,487
415,1	76,207
415,6	84,567
416	89,047
416,5	98,127
416,9	102,727
417,4	110,687
417,8	116,647
418,3	121,207
418,8	132,567
419,2	140,367
419,7	153,247
420,1	167,007
420,6	175,287
421	180,647
421,5	188,527
421,9	197,687
422,4	214,007
422,8	230,447
423,3	246,007
423,8	262,367
424,2	276,927
424,7	287,207
425,1	296,247
425,6	313,687
426	331,407
426,5	348,567
426,9	368,967
427,4	392,687
427,9	419,647
428,3	438,487
428,8	461,967
429,2	487,487
429,7	520,687
430,1	544,287
430,6	574,367
431	600,727
431,5	634,527
431,9	651,367
432,4	684,767
432,8	723,487
433,3	762,807
433,8	794,047
434,2	840,207
434,7	877,967
435,1	915,127
435,6	959,367
436	1008,367
436,5	1048,647
436,9	1099,407
437,4	1149,407
437,8	1202,727
438,3	1255,567
438,8	1318,407
439,2	1377,447
439,7	1441,647
440,1	1498,047
440,6	1556,727
441	1623,927
441,5	1685,767
441,9	1747,247
442,4	1815,167
442,8	1895,767
443,3	1972,567
443,7	2047,807
444,2	2139,247
444,7	2220,887
445,1	2302,087
445,6	2378,247
446	2466,527
446,5	2551,567
446,9	2653,207
447,4	2742,567
447,8	2835,887
448,3	2933,927
448,7	3028,087
449,2	3122,447
449,6	3225,487
450,1	3338,287
450,6	3449,167
451	3556,887
451,5	3659,727
451,9	3768,127
452,4	3876,847
452,8	3985,167
453,3	4097,647
453,7	4216,327
454,2	4335,927
454,6	4458,567
455,1	4573,087
455,5	4689,207
456	4812,847
456,4	4923,247
456,9	5042,007
457,3	5174,407
457,8	5298,447
458,3	5426,167
458,7	5558,927
459,2	5684,447
459,6	5811,727
460,1	5945,327
460,5	6070,767
461	6206,927
461,4	6342,247
461,9	6471,327
462,3	6604,367
462,8	6733,327
463,2	6858,087
463,7	6985,367
464,1	7116,807
464,6	7244,767
465	7373,887
465,5	7501,727
466	7626,207
466,4	7750,247
466,9	7873,887
467,3	8006,647
467,8	8144,607
468,2	8269,527
468,7	8386,487
469,1	8503,487
469,6	8612,527
470	8715,527
470,5	8830,927
470,9	8945,967
471,4	9062,007
471,8	9180,367
472,3	9302,887
472,7	9404,487
473,2	9510,527
473,6	9613,887
474,1	9705,807
474,5	9781,927
475	9876,927
475,4	9967,287
475,9	10060,007
476,4	10147,927
476,8	10238,967
477,3	10310,767
477,7	10397,207
478,2	10471,407
478,6	10528,607
479,1	10596,527
479,5	10676,807
480	10721,887
480,4	10784,447
480,9	10847,927
481,3	10905,087
481,8	10945,967
482,2	11003,487
482,7	11037,287
483,1	11074,927
483,6	11108,687
484	11140,727
484,5	11165,207
484,9	11189,247
485,4	11212,287
485,8	11219,687
486,3	11230,247
486,7	11245,967
487,2	11246,167
487,6	11244,927
488,1	11253,527
488,5	11246,247
489	11229,847
489,4	11219,807
489,9	11224,687
490,4	11212,287
490,8	11209,287
491,3	11193,767
491,7	11164,207
492,2	11127,647
492,6	11086,407
493,1	11046,887
493,5	11005,127
494	10966,687
494,4	10920,967
494,9	10876,087
495,3	10831,727
495,8	10780,967
496,2	10741,447
496,7	10696,207
497,1	10656,007
497,6	10595,327
498	10547,607
498,5	10481,527
498,9	10412,287
499,4	10343,607
499,8	10277,967
500,3	10209,007
500,7	10151,927
501,2	10091,447
501,6	10015,407
502,1	9950,007
502,5	9875,127
503	9798,047
503,4	9714,687
503,9	9660,567
504,3	9587,847
504,8	9518,607
505,2	9450,567
505,7	9379,567
506,1	9293,127
506,6	9220,727
507	9134,847
507,5	9046,847
507,9	8970,767
508,4	8877,127
508,8	8780,607
509,3	8691,447
509,7	8599,167
510,2	8515,567
510,6	8430,367
511,1	8344,847
511,5	8265,247
512	8182,847
512,4	8098,767
512,9	8023,687
513,3	7943,727
513,8	7863,967
514,2	7777,607
514,7	7678,087
515,1	7584,727
515,6	7490,607
516	7396,407
516,5	7317,247
516,9	7229,567
517,4	7149,727
517,8	7070,207
518,3	6984,327
518,7	6901,527
519,2	6818,247
519,6	6731,207
520,1	6651,767
520,5	6591,647
521	6507,047
521,4	6428,607
521,9	6347,407
522,3	6272,047
522,8	6181,967
523,2	6109,687
523,7	6038,167
524,1	5964,167
524,6	5883,127
525	5814,167
525,5	5736,807
525,9	5673,647
526,4	5606,127
526,8	5536,607
527,3	5467,767
527,7	5401,927
528,2	5334,687
528,6	5273,887
529,1	5217,127
529,5	5150,127
530	5089,767
530,4	5028,407
530,9	4960,087
531,3	4882,367
531,8	4815,007
532,2	4742,567
532,6	4673,047
533,1	4610,127
533,5	4556,247
534	4497,087
534,4	4453,567
534,9	4394,087
535,3	4340,247
535,8	4293,487
536,2	4238,327
536,7	4169,447
537,1	4122,207
537,6	4078,487
538	4028,127
538,5	3985,607
538,9	3943,687
539,4	3892,047
539,8	3838,327
540,3	3789,327
540,7	3731,447
541,2	3681,127
541,6	3641,407
542,1	3587,647
542,5	3539,567
543	3499,567
543,4	3462,447
543,9	3417,087
544,3	3377,607
544,8	3343,247
545,2	3292,687
545,7	3249,447
546,1	3214,327
546,5	3178,407
547	3135,047
547,4	3107,527
547,9	3072,287
548,3	3032,607
548,8	3000,207
549,2	2966,127
549,7	2935,767
550,1	2910,007
550,6	2875,527
551	2842,567
551,5	2818,367
551,9	2787,807
552,4	2748,527
552,8	2717,127
553,3	2693,527
553,7	2661,647
554,2	2630,607
554,6	2605,127
555,1	2580,287
555,5	2552,487
555,9	2522,447
556,4	2492,567
556,8	2469,287
557,3	2446,807
557,7	2420,207
558,2	2396,807
558,6	2378,567
559,1	2350,847
559,5	2328,047
560	2301,687
560,4	2276,127
560,9	2247,687
561,3	2233,167
561,8	2211,607
562,2	2188,847
562,7	2165,687
563,1	2148,007
563,6	2116,407
564	2085,647
564,4	2062,527
564,9	2046,087
565,3	2022,127
565,8	2005,807
566,2	1991,167
566,7	1975,407
567,1	1953,887
567,6	1935,287
568	1922,687
568,5	1912,567
568,9	1889,967
569,4	1871,287
569,8	1858,807
570,3	1833,127
570,7	1813,647
571,1	1797,447
571,6	1782,007
572	1764,247
572,5	1753,007
572,9	1735,007
573,4	1722,527
573,8	1703,327
574,3	1693,287
574,7	1675,647
575,2	1650,967
575,6	1635,007
576,1	1623,127
576,5	1604,447
576,9	1587,127
577,4	1579,847
577,8	1572,367
578,3	1560,207
578,7	1545,727
579,2	1535,607
579,6	1520,887
580,1	1500,887
580,5	1494,127
581	1484,447
581,4	1468,967
581,9	1456,847
582,3	1446,327
582,7	1421,887
583,2	1411,487
583,6	1404,287
584,1	1395,927
584,5	1382,367
585	1377,247
585,4	1361,447
585,9	1350,247
586,3	1332,487
586,8	1323,007
587,2	1309,967
587,6	1297,647
588,1	1287,247
588,5	1274,927
589	1263,607
589,4	1249,207
589,9	1239,047
590,3	1233,087
590,8	1226,927
591,2	1221,167
591,7	1218,927
592,1	1209,807
592,5	1189,447
593	1184,527
593,4	1170,807
593,9	1148,767
594,3	1143,367
594,8	1144,527
595,2	1132,007
595,7	1122,647
596,1	1129,087
596,6	1117,807
597	1110,247
597,4	1107,407
597,9	1102,367
598,3	1092,727
598,8	1088,407
599,2	1077,607
599,7	1070,767
600,1	1072,727
600,6	1066,687
601	1059,007
601,4	1061,407
601,9	1046,887
602,3	1030,287
602,8	1023,007
603,2	1024,607
603,7	1011,887
604,1	1010,447
604,6	1004,007
605	1004,087
605,4	982,927
605,9	968,367
606,3	965,527
606,8	959,647
607,2	945,967
607,7	949,767
608,1	950,487
608,6	937,367
609	933,367
609,4	926,367
609,9	918,167
610,3	911,407
610,8	907,967
611,2	894,287
611,7	886,927
612,1	879,087
612,6	868,047
613	865,487
613,4	869,287
613,9	868,927
614,3	861,727
614,8	861,087
615,2	852,087
615,7	841,327
616,1	826,527
616,6	820,087
617	807,967
617,4	804,127
617,9	802,447
618,3	798,767
618,8	786,007
619,2	785,847
619,7	783,247
620,1	773,327
620,5	768,767
621	777,207
621,4	765,887
621,9	753,727
622,3	746,647
622,8	748,847
623,2	736,247
623,6	740,487
624,1	734,127
624,5	731,567
625	716,927
625,4	709,127
625,9	696,527
626,3	696,847
626,8	693,487
627,2	690,767
627,6	689,367
628,1	686,727
628,5	677,847
629	675,887
629,4	674,527
629,9	668,567
630,3	662,887
630,7	655,007
631,2	650,007
631,6	643,087
632,1	636,527
632,5	632,727
633	628,807
633,4	618,527
633,8	611,207
634,3	607,487
634,7	604,087
635,2	595,687
635,6	598,007
636,1	595,487
636,5	596,687
636,9	592,407
637,4	595,167
637,8	580,727
638,3	575,647
638,7	566,807
639,2	563,407
639,6	555,327
640	553,607
640,5	548,087
640,9	543,367
641,4	537,967
641,8	538,167
642,2	534,807
642,7	534,407
643,1	532,487
643,6	525,087
644	521,007
644,5	522,407
644,9	522,007
645,3	522,247
645,8	522,767
646,2	517,087
646,7	511,047
647,1	506,367
647,6	499,167
648	492,047
648,4	492,007
648,9	488,487
649,3	483,687
649,8	482,967
650,2	485,367
650,6	480,447
651,1	479,967
651,5	472,887
652	470,007
652,4	464,927
652,9	462,527
653,3	462,607
653,7	462,727
654,2	461,007
654,6	462,127
655,1	457,407
655,5	448,647
655,9	442,447
656,4	433,767
656,8	424,447
657,3	425,007
657,7	424,607
658,2	426,327
658,6	424,207
659	426,127
659,5	419,167
659,9	408,487
660,4	403,767
660,8	403,127
661,2	394,927
661,7	392,447
662,1	400,687
662,6	400,647
663	393,167
663,4	395,047
663,9	387,687
664,3	375,847
664,8	371,607
665,2	371,647
665,6	375,607
666,1	381,767
666,5	376,767
667	372,687
667,4	365,047
667,9	350,727
668,3	341,207
668,7	344,087
669,2	343,327
669,6	342,527
670,1	345,727
670,5	348,767
670,9	345,767
671,4	339,287
671,8	343,847
672,3	339,127
672,7	335,007
673,1	330,127
673,6	325,247
674	320,687
674,5	313,327
674,9	307,247
675,3	307,527
675,8	309,887
676,2	310,287
676,7	313,007
677,1	312,007
677,5	310,807
678	306,327
678,4	306,647
678,9	302,967
679,3	301,087
679,7	296,167
680,2	298,167
680,6	282,767
681,1	281,727
681,5	279,287
681,9	278,687
682,4	275,727
682,8	279,807
683,3	277,207
683,7	278,727
684,1	276,207
684,6	275,727
685	272,767
685,5	270,727
685,9	268,927
686,3	260,647
686,8	252,327
687,2	250,847
687,7	248,207
688,1	244,207
688,5	249,207
689	250,407
689,4	247,687
689,9	240,967
690,3	238,927
690,7	233,447
691,2	232,167
691,6	233,527
692	233,527
692,5	230,327
692,9	230,167
693,4	228,687
693,8	227,647
694,2	235,887
694,7	235,807
695,1	231,247
695,6	228,567
696	227,247
696,4	220,727
696,9	226,127
697,3	228,327
697,8	226,327
698,2	223,087
698,6	219,327
699,1	212,127
699,5	213,767
699,9	209,047
700,4	200,727
700,8	200,967
701,3	193,967
701,7	188,647
702,1	187,447
702,6	190,047
703	192,127
703,5	194,247
703,9	191,167
704,3	193,607
704,8	193,247
705,2	182,967
705,6	185,767
706,1	185,567
706,5	179,767
707	179,727
707,4	181,687
707,8	177,047
708,3	178,727
708,7	181,407
709,2	176,647
709,6	175,607
710	172,647
710,5	169,767
710,9	160,647
711,3	156,167
711,8	156,887
712,2	157,367
712,7	154,487
713,1	160,887
713,5	167,567
714	165,127
714,4	161,047
714,8	161,367
715,3	160,327
715,7	160,887
716,2	155,047
716,6	155,087
717	155,567
717,5	153,487
717,9	147,247
718,3	147,487
718,8	146,927
719,2	144,727
719,7	143,287
720,1	143,327
720,5	143,647
721	138,927
721,4	133,847
721,8	132,247
722,3	130,087
722,7	126,807
723,2	130,047
723,6	130,647
724	129,967
724,5	130,087
724,9	138,007
725,3	133,847
725,8	134,327
726,2	130,727
726,7	127,807
727,1	121,047
727,5	122,327
728	116,727
728,4	114,487
728,8	114,887
729,3	114,407
729,7	114,967
730,1	114,127
730,6	117,527
731	118,007
731,5	115,527
731,9	112,607
732,3	117,447
732,8	114,407
733,2	111,087
733,6	110,247
734,1	109,127
734,5	106,887
734,9	105,887
735,4	103,607
735,8	101,247
736,3	100,607
736,7	96,767
737,1	101,247
737,6	102,487
738	104,367
738,4	106,407
738,9	107,767
739,3	104,927
739,7	107,447
740,2	106,007
740,6	96,567
741,1	92,607
741,5	89,927
741,9	86,687
742,4	82,767
742,8	84,527
743,2	87,007
743,7	88,447
744,1	90,487
744,5	88,967
745	93,327
745,4	96,327
745,8	96,687
746,3	91,847
746,7	89,967
747,2	86,527
747,6	85,247
748	79,647
748,5	81,287
748,9	84,527
749,3	82,327
749,8	76,407
750,2	75,327
750,6	72,487
751,1	72,527
751,5	76,487
751,9	79,847
752,4	83,287
752,8	86,167
753,3	84,607
753,7	84,207
754,1	81,967
754,6	86,367
755	85,007
755,4	91,127
755,9	90,647
756,3	87,287
756,7	80,927
757,2	74,407
757,6	69,487
758	68,967
758,5	69,167
758,9	68,527
759,3	70,487
759,8	69,927
760,2	68,247
760,6	73,127
761,1	70,047
761,5	73,647
761,9	76,247
762,4	70,567
762,8	70,407
763,3	71,887
763,7	67,727
764,1	61,367
764,6	65,327
765	63,647
765,4	60,167
765,9	58,047
766,3	58,687
766,7	54,247
767,2	52,127
767,6	50,407
768	58,447
768,5	58,887
768,9	61,927
769,3	57,727
769,8	56,247
770,2	48,687
770,6	48,607
771,1	51,207
771,5	55,367
771,9	60,967
772,4	56,447
772,8	58,967
773,2	53,047
773,7	54,967
774,1	54,927
774,5	57,967
775	52,487
775,4	54,807
775,8	51,367
776,3	44,287
776,7	46,167
777,1	50,847
777,6	54,367
778	52,567
778,4	63,047
778,9	60,287
779,3	54,527
779,7	48,727
780,2	50,807
780,6	43,047
781	45,087
781,5	49,407
781,9	48,927
782,3	38,967
782,8	42,887
783,2	45,167
783,6	45,207
784,1	39,847
784,5	39,367
784,9	37,527
785,4	36,407
785,8	30,127
786,2	33,847
786,7	41,127
787,1	32,207
787,5	25,367
788	30,927
788,4	30,527
788,8	31,967
789,3	38,887
789,7	40,887
790,1	35,887
790,6	34,807
791	29,047
791,4	31,047
791,9	31,927
792,3	28,207
792,7	27,647
793,2	29,487
793,6	23,807
794	28,487
794,5	34,047
794,9	37,287
795,3	37,687
795,8	42,287
796,2	40,167
796,6	36,327
797,1	33,167
797,5	31,687
797,9	30,207
798,4	25,327
798,8	31,207
799,2	35,287
799,7	33,887
800,1	34,247
800,5	33,727
801	30,687
801,4	24,687
801,8	27,207
802,2	29,327
802,7	28,127
803,1	23,327
803,5	28,967
804	28,567
804,4	22,647
804,8	25,567
805,3	28,127
805,7	27,927
806,1	32,087
806,6	33,127
807	28,527
807,4	27,127
807,9	26,367
808,3	23,927
808,7	19,127
809,2	24,967
809,6	24,607
810	20,127
810,4	14,687
810,9	14,567
811,3	11,687
811,7	10,687
812,2	15,127
812,6	10,287
813	18,807
813,5	23,567
813,9	21,767
814,3	22,807
814,8	31,487
815,2	22,367
815,6	16,447
816,1	16,327
816,5	12,647
816,9	12,407
817,3	17,767
817,8	15,847
818,2	12,367
818,6	9,487
819,1	7,367
819,5	7,607
819,9	8,807
820,4	13,447
820,8	14,567
821,2	13,687
821,7	14,247
822,1	13,167
822,5	11,527
822,9	8,167
823,4	7,927
823,8	6,287
824,2	5,527
824,7	5,767
825,1	10,367
825,5	10,647
826	8,247
826,4	4,527
826,8	8,567
827,3	9,887
827,7	6,767
828,1	6,447
828,5	10,327
829	5,367
829,4	2,487
829,8	1,447
830,3	3,207
830,7	7,887
831,1	8,207
831,6	5,967
832	9,487
832,4	8,087
832,8	3,407
833,3	5,567
833,7	9,727
834,1	6,887
834,6	4,367
835	6,767
835,4	11,327
835,8	12,207
836,3	16,367
836,7	18,487
837,1	15,327
837,6	10,327
838	5,087
838,4	-0,633
838,9	-2,633
839,3	-2,273
839,7	0,807
840,1	7,327
840,6	8,807
841	16,127
841,4	15,047
841,9	13,447
842,3	3,247
842,7	1,927
843,1	-3,593
843,6	-4,873
844	-7,233
844,4	-1,673
844,9	4,327
845,3	8,767
845,7	9,007
846,2	5,167
846,6	8,087
847	-2,193
847,4	-10,273
847,9	-7,833
848,3	-10,153
848,7	-14,793
849,2	-13,233
849,6	-17,073
850	-15,433
850,4	-17,833
850,9	-15,073
851,3	-7,913
851,7	-6,953
852,2	-7,993
852,6	0,767
853	-1,193
853,4	-4,553
853,9	-1,273
854,3	0,927
854,7	2,687
855,2	2,247
855,6	-1,153
856	-2,993
856,4	-7,673
856,9	-12,353
857,3	-14,353
857,7	-10,753
858,2	-7,113
858,6	-10,353
859	-6,233
859,4	-3,793
859,9	2,607
860,3	2,687
860,7	5,327
861,1	4,167
861,6	1,127
862	-8,353
862,4	-8,553
862,9	-8,793
863,3	-8,353
863,7	-5,513
864,1	-4,353
864,6	-6,233
865	-3,513
865,4	-6,193
865,9	-7,273
866,3	-7,753
866,7	-6,313
867,1	-6,473
867,6	-9,593
868	-11,673
868,4	-3,273
868,8	-1,473
869,3	2,287
869,7	3,967
870,1	1,087
870,6	-4,473
871	-9,873
871,4	36,167
871,8	29,407
872,3	37,007
872,7	32,007
873,1	36,687
873,5	-14,033
874	-8,473
874,4	-7,313
874,8	-9,673
875,3	-9,073
875,7	-9,833
876,1	-8,713
876,5	-19,633
877	-9,873
877,4	-12,593
877,8	-12,433
878,2	-13,153
878,7	-4,313
879,1	-7,673
879,5	-8,393
879,9	-8,753
880,4	-6,633
880,8	-12,753
881,2	-11,353
881,7	-10,673
882,1	-15,633
882,5	-17,993
882,9	-14,393
883,4	-17,073
883,8	-16,673
884,2	-9,833
884,6	-8,993
885,1	-13,713
885,5	-8,313
885,9	-11,353
886,3	-12,873
886,8	-10,713
887,2	-4,913
887,6	-9,393
888	-10,753
888,5	-12,473
888,9	-9,833
889,3	-9,353
889,8	-9,513
890,2	-4,793
890,6	-3,033
891	-13,393
891,5	-15,753
891,9	-15,633
892,3	-16,713
892,7	-18,513
893,2	-8,473
893,6	-6,553
894	-8,873
894,4	-10,273
894,9	-10,873
895,3	-16,393
895,7	-19,953
896,1	-13,033
896,6	-6,953
897	-6,073
897,4	-5,833
897,8	-1,793
898,3	-10,913
898,7	-5,233
899,1	-6,753
899,5	-10,073
900	-17,153
900,4	-13,393
900,8	-24,393
901,2	-19,513
901,7	-14,393
902,1	-10,033
902,5	-9,153
902,9	-6,073
903,4	-6,193
903,8	-8,113
904,2	-2,793
904,6	-5,113
905,1	-5,593
905,5	-11,833
905,9	-7,713
906,3	-9,113
906,8	-8,313
907,2	-10,393
907,6	-5,473
908	-4,993
908,5	-6,433
908,9	-5,033
909,3	-14,433
909,7	-14,873
910,2	-16,193
910,6	-20,033
911	-19,113
911,4	-10,553
911,9	-9,073
912,3	-13,393
912,7	-12,593
913,1	-15,873
913,6	-11,993
914	-19,793
914,4	-23,193
914,8	-27,873
915,3	-24,393
915,7	-24,593
916,1	-22,833
916,5	-18,673
916,9	-10,953
917,4	-12,113
917,8	-16,953
918,2	-15,993
918,6	-16,753
919,1	-20,273
919,5	-21,593
919,9	-21,113
920,3	-19,273
920,8	-16,753
921,2	-15,673
921,6	-15,513
922	-16,113
922,5	-13,793
922,9	-16,193
923,3	-13,193
923,7	-14,233
924,2	-7,273
924,6	-12,793
925	-7,273
925,4	-10,273
925,8	-11,473
926,3	-17,913
926,7	-17,673
927,1	-18,313
927,5	-21,873
928	-19,313
928,4	-18,993
928,8	-14,473
929,2	-21,153
929,7	-16,713
930,1	-17,033
930,5	-8,913
930,9	-10,753
931,3	-9,593
931,8	-14,193
932,2	-12,673
932,6	-23,473
933	-26,233
933,5	-27,953
933,9	-22,153
934,3	-26,273
934,7	-19,673
935,2	-14,753
935,6	-10,353
936	-16,673
936,4	-20,433
936,8	-28,713
937,3	-32,473
937,7	-29,233
938,1	-31,873
938,5	-31,593
939	-29,273
939,4	-26,153
939,8	-29,193
940,2	-22,633
940,6	-19,353
941,1	-19,193
941,5	-22,473
941,9	-26,033
942,3	-26,833
942,8	-29,633
943,2	-24,953
943,6	-29,113
944	-26,033
944,4	-30,833
944,9	-23,073
945,3	-26,073
945,7	-20,153
946,1	-23,273
946,6	-21,073
947	-21,073
947,4	-20,993
947,8	-22,313
948,2	-19,153
948,7	-17,353
949,1	-16,633
949,5	-13,873
949,9	-13,513
950,3	-13,793
950,8	-13,713
951,2	-17,593
951,6	-22,313
952	-21,193
952,5	-22,473
952,9	-19,353
953,3	-21,273
953,7	-17,793
954,1	-17,233
954,6	-15,673
955	-12,873
955,4	-10,113
955,8	-5,313
956,2	-5,793
956,7	-10,273
957,1	-17,993
957,5	-19,153
957,9	-24,113
958,3	-24,113
958,8	-18,993
959,2	-12,233
959,6	-16,473
960	-17,473
960,5	-20,673
960,9	-23,113
961,3	-26,713
961,7	-17,993
962,1	-16,393
962,6	-12,953
963	-9,233
963,4	-6,593
963,8	-5,793
964,2	-8,393
964,7	-9,873
965,1	-15,193
965,5	-22,913
965,9	-27,953
966,3	-27,673
966,8	-26,873
967,2	-23,033
967,6	-20,313
968	-18,713
968,4	-19,473
968,9	-24,273
969,3	-22,833
969,7	-19,313
970,1	-23,113
970,5	-22,673
971	-19,713
971,4	-21,193
971,8	-19,593
972,2	-18,473
972,6	-18,393
973,1	-19,033
973,5	-23,833
973,9	-30,233
974,3	-31,113
974,7	-27,993
975,2	-25,433
975,6	-24,513
976	-19,633
976,4	-18,793
976,8	-13,593
977,3	-16,353
977,7	-9,113
978,1	-12,593
978,5	-11,033
978,9	-28,673
979,4	-23,313
979,8	-28,953
980,2	-23,633
980,6	-21,033
981	-7,513
981,5	-10,393
981,9	-7,873
982,3	-9,553
982,7	-13,833
983,1	-17,393
983,6	-13,113
984	-13,913
984,4	-11,753
984,8	-11,153
985,2	-5,953
985,6	-8,153
986,1	-13,113
986,5	-13,033
986,9	-15,513
987,3	-16,633
987,7	-18,633
988,2	-15,673
988,6	-17,033
989	-15,393
989,4	-22,273
989,8	-27,233
990,3	-30,273
990,7	-36,113
991,1	-29,993
991,5	-23,113
991,9	-17,313
992,3	-12,473
992,8	-5,473
993,2	-5,873
993,6	-7,313
994	-7,713
994,4	-6,873
994,9	-8,833
995,3	-9,553
995,7	-15,593
996,1	-13,513
996,5	-14,553
996,9	-18,153
997,4	-24,793
997,8	-25,033
998,2	-29,353
998,6	-28,593
999	-22,233
999,5	-21,153
999,9	-15,873
1000,3	-13,833
1000,7	-15,793
1001,1	-20,033
1001,5	-14,473
1002	-18,313
1002,4	-20,153
1002,8	-19,713
1003,2	-19,433
1003,6	-20,513
1004	-15,353
1004,5	-18,393
1004,9	-17,073
1005,3	-19,913
1005,7	-24,713
1006,1	-26,633
1006,6	-22,073
1007	-27,433
1007,4	-26,233
1007,8	-23,153
1008,2	-25,513
1008,6	-25,153
1009,1	-23,233
1009,5	-21,713
1009,9	-22,353
1010,3	-20,353
1010,7	-17,953
1011,1	-14,673
1011,6	-12,193
1012	-13,313
1012,4	-17,153
1012,8	-25,433
1013,2	-24,753
1013,6	-29,073
1014,1	-31,153
1014,5	-26,673
1014,9	-18,913
1015,3	-20,313
1015,7	-18,873
1016,1	-22,953
1016,6	-31,873
1017	-37,073
1017,4	-32,833
1017,8	-33,673
1018,2	-22,953
1018,6	-21,833
1019,1	-24,393
1019,5	-21,593
1019,9	-21,513
1020,3	-28,953
1020,7	-27,433
1021,1	-20,753
1021,6	-27,153
1022	-22,513
1022,4	-19,033
1022,8	-12,073
1023,2	-15,673
1023,6	-19,713
1024,1	-25,953
1024,5	-25,393
1024,9	-28,713
1025,3	-27,993
1025,7	-25,073
1026,1	-24,993
1026,6	-24,513
1027	-16,993
1027,4	-19,793
1027,8	-18,433
1028,2	-19,313
1028,6	-18,153
1029	-22,433
1029,5	-19,753
1029,9	-22,673
1030,3	-24,793
1030,7	-26,833
1031,1	-23,993
1031,5	-26,953
1032	-28,513
1032,4	-26,073
1032,8	-28,553
1033,2	-34,873
1033,6	-36,233
1034	-35,393
1034,4	-34,873
1034,9	-33,753
1035,3	-32,073
1035,7	-28,793
1036,1	-29,793
1036,5	-24,433
1036,9	-19,273
1037,4	-21,793
1037,8	-16,273
1038,2	-18,313
1038,6	-19,553
1039	-24,033
1039,4	-23,073
1039,8	-32,313
1040,3	-30,953
1040,7	-30,073
1041,1	-27,993
1041,5	-27,233
1041,9	-24,113
1042,3	-26,713
1042,7	-32,953
1043,2	-35,433
1043,6	-36,753
1044	-34,313
1044,4	-22,633
1044,8	-11,313
1045,2	-11,553
1045,6	-5,873
1046,1	-3,913
1046,5	-6,633
1046,9	-19,793
1047,3	-17,993
1047,7	-22,873
1048,1	-25,033
1048,5	-34,233
1049	-29,073
1049,4	-29,113
1049,8	-23,553
1050,2	-19,793
1050,6	-10,553
1051	-8,073
1051,4	-10,993
1051,9	-16,513
1052,3	-21,913
1052,7	-33,593
1053,1	-40,233
1053,5	-43,953
1053,9	-40,753
1054,3	-40,993
1054,8	-35,513
1055,2	-37,113
1055,6	-31,233
1056	-35,753
1056,4	-33,313
1056,8	-29,553
1057,2	-20,153
1057,6	-22,353
1058,1	-19,673
1058,5	-22,153
1058,9	-26,673
1059,3	-30,193
1059,7	-30,273
1060,1	-32,433
1060,5	-32,673
1061	-28,113
1061,4	-34,593
1061,8	-32,513
1062,2	-35,873
1062,6	-33,353
1063	-34,153
1063,4	-28,073
1063,8	-25,993
1064,3	-19,673
1064,7	-15,673
1065,1	-15,513
1065,5	-10,793
1065,9	-17,713
1066,3	-16,553
1066,7	-21,233
1067,1	-19,473
1067,6	-21,873
1068	-17,553
1068,4	-16,793
1068,8	-19,273
1069,2	-18,313
1069,6	-23,313
1070	-16,433
1070,4	-20,753
1070,9	-20,993
1071,3	-22,793
1071,7	-24,153
1072,1	-34,713
1072,5	-31,193
1072,9	-26,393
1073,3	-27,313
1073,7	-27,473
1074,2	-26,913
1074,6	-31,073
1075	-36,353
1075,4	-31,393
1075,8	-26,993
1076,2	-25,913
1076,6	-24,833
1077	-23,913
1077,5	-31,993
1077,9	-35,033
1078,3	-31,233
1078,7	-28,713
1079,1	-29,593
1079,5	-28,793
1079,9	-24,833
1080,3	-28,473
1080,7	-30,233
1081,2	-28,793
1081,6	-21,833
1082	-26,273
1082,4	-24,513
1082,8	-21,273
1083,2	-16,353
1083,6	-20,233
1084	-10,793
1084,5	-10,353
1084,9	-16,153
1085,3	-16,833
1085,7	-13,913
1086,1	-21,073
1086,5	-25,313
1086,9	-25,433
1087,3	-28,713
1087,7	-30,433
1088,2	-29,793
1088,6	-24,153
1089	-24,673
1089,4	-21,313
1089,8	-27,593
1090,2	-28,753
1090,6	-27,553
1091	-23,233
1091,4	-25,113
1091,9	-18,473
1092,3	-14,913
1092,7	-19,553
1093,1	-18,353
1093,5	-17,793
1093,9	-18,513
1094,3	-18,793
1094,7	-18,313
1095,1	-19,633
1095,5	-24,473
1096	-24,113
1096,4	-25,353
1096,8	-22,673
1097,2	-24,353
1097,6	-14,313
1098	-13,273
1098,4	-15,033
1098,8	-9,313
1099,2	-7,313
1099,6	-10,633
1100,1	-10,793
1100,5	-5,553
1100,9	-12,153
1101,3	-11,953
1101,7	-16,313
1102,1	-19,513
1102,5	-20,393
1102,9	-21,393
1103,3	-25,873
1103,7	-23,713
1104,2	-19,393
1104,6	-20,913
1105	-15,673
1105,4	-12,393
1105,8	-11,553
1106,2	-10,113
1106,6	-8,033
1107	-7,073
1107,4	-3,073
1107,8	-0,183
1108,3	-1,1
