Data from Subt2_00028.txt Node
Date: Fri Aug 11 15:42:58 MSK 2023
User: vat
Spectrometer: MAYP114033
Trigger mode: 0
Integration Time (sec): 5,000000E-1
Scans to average: 5
Electric dark correction enabled: true
Nonlinearity correction enabled: false
Boxcar width: 2
XAxis mode: Wavelengths
Number of Pixels in Spectrum: 2068
>>>>>Begin Spectral Data<<<<<
199,4	-0,333
199,9	-0,317
200,4	-10,787
200,8	-19,947
201,3	-29,067
201,8	-35,347
202,2	-43,027
202,7	-45,867
203,2	-42,987
203,6	-42,947
204,1	-47,667
204,6	-52,787
205	-50,707
205,5	-59,027
206	-55,187
206,4	-59,147
206,9	-64,147
207,4	-69,507
207,8	-61,347
208,3	-63,427
208,8	-56,587
209,2	-52,907
209,7	-49,067
210,2	-59,907
210,6	-65,627
211,1	-67,627
211,5	-67,187
212	-67,827
212,5	-64,307
212,9	-64,507
213,4	-67,627
213,9	-71,427
214,3	-73,427
214,8	-80,467
215,3	-77,547
215,7	-82,707
216,2	-80,227
216,7	-79,747
217,1	-76,787
217,6	-85,067
218,1	-83,587
218,5	-84,267
219	-82,787
219,5	-83,547
219,9	-81,187
220,4	-76,587
220,9	-71,667
221,3	-69,667
221,8	-62,347
222,3	-59,187
222,7	-64,667
223,2	-63,947
223,6	-74,187
224,1	-78,067
224,6	-82,827
225	-85,827
225,5	-92,867
226	-86,987
226,4	-84,467
226,9	-80,387
227,4	-69,587
227,8	-64,987
228,3	-66,747
228,8	-65,427
229,2	-66,987
229,7	-76,627
230,2	-78,307
230,6	-74,987
231,1	-80,147
231,5	-80,067
232	-80,467
232,5	-76,307
232,9	-73,627
233,4	-74,347
233,9	-75,867
234,3	-76,547
234,8	-80,027
235,3	-84,867
235,7	-83,947
236,2	-78,907
236,7	-80,187
237,1	-80,347
237,6	-79,747
238,1	-77,227
238,5	-82,427
239	-74,987
239,4	-73,587
239,9	-71,067
240,4	-73,187
240,8	-68,147
241,3	-72,267
241,8	-74,587
242,2	-77,707
242,7	-78,347
243,2	-75,347
243,6	-73,707
244,1	-76,067
244,6	-75,107
245	-74,187
245,5	-81,067
245,9	-76,227
246,4	-73,067
246,9	-74,667
247,3	-78,507
247,8	-73,627
248,3	-74,067
248,7	-76,747
249,2	-72,307
249,7	-67,107
250,1	-71,307
250,6	-74,067
251	-71,027
251,5	-72,307
252	-77,307
252,4	-73,787
252,9	-70,427
253,4	-74,747
253,8	-73,627
254,3	-74,427
254,8	-81,227
255,2	-84,667
255,7	-81,987
256,1	-78,827
256,6	-69,027
257,1	-70,667
257,5	-69,387
258	-65,867
258,5	-66,547
258,9	-69,307
259,4	-64,107
259,9	-66,587
260,3	-74,467
260,8	-74,907
261,2	-81,067
261,7	-82,067
262,2	-79,267
262,6	-76,187
263,1	-80,267
263,6	-80,467
264	-82,547
264,5	-83,187
264,9	-82,387
265,4	-86,507
265,9	-77,627
266,3	-74,227
266,8	-73,107
267,3	-77,427
267,7	-70,387
268,2	-75,907
268,7	-73,747
269,1	-76,987
269,6	-72,347
270	-67,427
270,5	-69,827
271	-79,987
271,4	-78,187
271,9	-79,347
272,4	-82,027
272,8	-83,107
273,3	-78,627
273,7	-79,067
274,2	-79,867
274,7	-83,347
275,1	-75,027
275,6	-71,347
276,1	-73,467
276,5	-74,027
277	-76,107
277,4	-85,827
277,9	-85,467
278,4	-83,547
278,8	-79,107
279,3	-78,067
279,8	-75,747
280,2	-74,267
280,7	-71,427
281,1	-70,827
281,6	-68,867
282,1	-67,467
282,5	-74,507
283	-75,747
283,4	-75,427
283,9	-75,227
284,4	-71,147
284,8	-65,267
285,3	-64,667
285,8	-67,187
286,2	-73,787
286,7	-73,147
287,1	-78,707
287,6	-84,707
288,1	-86,907
288,5	-85,747
289	-85,827
289,5	-83,707
289,9	-74,827
290,4	-76,027
290,8	-71,907
291,3	-74,667
291,8	-74,067
292,2	-79,187
292,7	-75,707
293,1	-74,987
293,6	-73,427
294,1	-67,067
294,5	-69,147
295	-69,867
295,5	-72,627
295,9	-69,587
296,4	-78,027
296,8	-76,387
297,3	-72,227
297,8	-68,427
298,2	-72,107
298,7	-74,827
299,1	-71,787
299,6	-72,347
300,1	-72,147
300,5	-73,747
301	-63,467
301,5	-67,867
301,9	-70,147
302,4	-74,307
302,8	-73,547
303,3	-76,907
303,8	-80,027
304,2	-80,707
304,7	-84,307
305,1	-85,547
305,6	-86,707
306,1	-82,267
306,5	-87,747
307	-75,027
307,4	-73,827
307,9	-70,387
308,4	-70,627
308,8	-66,027
309,3	-78,347
309,8	-75,267
310,2	-74,187
310,7	-75,467
311,1	-72,547
311,6	-68,907
312,1	-67,387
312,5	-70,267
313	-63,827
313,4	-63,467
313,9	-61,507
314,4	-63,507
314,8	-66,627
315,3	-69,227
315,7	-73,427
316,2	-74,827
316,7	-83,107
317,1	-83,027
317,6	-86,467
318	-78,827
318,5	-83,067
319	-78,707
319,4	-81,427
319,9	-78,627
320,3	-80,347
320,8	-82,147
321,3	-84,787
321,7	-76,227
322,2	-74,547
322,6	-73,907
323,1	-68,547
323,6	-63,987
324	-65,587
324,5	-68,547
324,9	-75,507
325,4	-72,187
325,9	-73,667
326,3	-74,187
326,8	-69,347
327,2	-67,187
327,7	-69,107
328,2	-69,467
328,6	-75,187
329,1	-77,347
329,5	-73,427
330	-69,467
330,5	-60,067
330,9	-56,027
331,4	-58,667
331,8	-63,387
332,3	-68,107
332,8	-76,747
333,2	-75,467
333,7	-73,587
334,1	-72,067
334,6	-69,787
335,1	-66,187
335,5	-66,467
336	-66,587
336,4	-60,867
336,9	-60,587
337,4	-62,227
337,8	-61,027
338,3	-57,587
338,7	-62,667
339,2	-64,787
339,7	-67,027
340,1	-73,667
340,6	-76,467
341	-76,987
341,5	-75,227
342	-76,387
342,4	-72,347
342,9	-74,867
343,3	-75,547
343,8	-74,867
344,2	-71,907
344,7	-65,867
345,2	-66,227
345,6	-60,907
346,1	-62,307
346,5	-63,707
347	-70,267
347,5	-67,867
347,9	-65,947
348,4	-63,347
348,8	-63,147
349,3	-56,467
349,8	-49,867
350,2	-50,467
350,7	-47,467
351,1	-35,227
351,6	-33,587
352	-25,027
352,5	-9,627
353	9,013
353,4	20,173
353,9	50,253
354,3	73,813
354,8	99,613
355,3	137,133
355,7	186,253
356,2	234,133
356,6	286,053
357,1	350,653
357,5	425,373
358	505,933
358,5	605,053
358,9	724,693
359,4	854,053
359,8	984,093
360,3	1151,573
360,8	1328,893
361,2	1516,213
361,7	1726,013
362,1	1975,053
362,6	2228,253
363	2499,653
363,5	2795,493
364	3114,933
364,4	3416,693
364,9	3731,813
365,3	4039,733
365,8	4340,093
366,3	4600,573
366,7	4842,413
367,2	5040,773
367,6	5200,333
368,1	5322,013
368,5	5400,053
369	5422,373
369,5	5414,893
369,9	5363,973
370,4	5257,173
370,8	5122,213
371,3	4955,213
371,7	4754,173
372,2	4532,973
372,7	4303,253
373,1	4050,053
373,6	3802,413
374	3543,493
374,5	3294,853
374,9	3047,133
375,4	2807,893
375,9	2587,173
376,3	2376,373
376,8	2164,333
377,2	1973,373
377,7	1792,253
378,2	1631,413
378,6	1483,733
379,1	1354,773
379,5	1222,013
380	1117,933
380,4	1015,893
380,9	919,173
381,4	832,133
381,8	758,013
382,3	689,693
382,7	622,813
383,2	568,933
383,6	518,533
384,1	478,213
384,6	437,933
385	399,413
385,5	364,653
385,9	334,853
386,4	303,173
386,8	275,053
387,3	251,653
387,7	226,213
388,2	204,013
388,7	186,413
389,1	161,733
389,6	139,213
390	124,093
390,5	107,133
390,9	92,133
391,4	84,213
391,9	71,773
392,3	57,733
392,8	45,373
393,2	38,653
393,7	29,413
394,1	24,213
394,6	18,893
395,1	17,413
395,5	15,013
396	8,693
396,4	4,413
396,9	-0,227
397,3	-2,347
397,8	-14,867
398,2	-15,867
398,7	-18,667
399,2	-24,827
399,6	-31,107
400,1	-29,787
400,5	-30,947
401	-29,987
401,4	-32,587
401,9	-33,667
402,4	-44,827
402,8	-49,947
403,3	-52,827
403,7	-46,827
404,2	-51,347
404,6	-50,707
405,1	-50,707
405,5	-56,067
406	-60,547
406,5	-61,707
406,9	-54,467
407,4	-57,507
407,8	-54,067
408,3	-51,107
408,7	-50,587
409,2	-48,827
409,6	-48,907
410,1	-56,067
410,6	-64,827
411	-65,027
411,5	-66,987
411,9	-62,907
412,4	-54,827
412,8	-51,427
413,3	-58,827
413,7	-55,427
414,2	-55,427
414,7	-58,947
415,1	-53,787
415,6	-45,547
416	-46,867
416,5	-44,427
416,9	-44,187
417,4	-42,427
417,8	-37,307
418,3	-40,947
418,8	-35,747
419,2	-33,027
419,7	-32,867
420,1	-41,987
420,6	-48,907
421	-57,547
421,5	-54,747
421,9	-58,267
422,4	-52,827
422,8	-45,587
423,3	-40,867
423,8	-39,027
424,2	-40,787
424,7	-31,747
425,1	-30,427
425,6	-33,667
426	-39,227
426,5	-33,987
426,9	-47,387
427,4	-43,987
427,9	-43,827
428,3	-45,707
428,8	-54,107
429,2	-51,347
429,7	-52,747
430,1	-55,187
430,6	-60,747
431	-57,027
431,5	-53,307
431,9	-60,347
432,4	-63,907
432,8	-54,987
433,3	-50,907
433,8	-57,947
434,2	-53,427
434,7	-45,907
435,1	-47,987
435,6	-53,147
436	-55,507
436,5	-57,427
436,9	-61,227
437,4	-56,587
437,8	-54,587
438,3	-53,147
438,8	-52,427
439,2	-54,787
439,7	-59,187
440,1	-58,667
440,6	-59,307
441	-63,787
441,5	-65,827
441,9	-67,587
442,4	-66,627
442,8	-67,067
443,3	-66,107
443,7	-66,347
444,2	-64,027
444,7	-67,067
445,1	-63,347
445,6	-61,467
446	-56,107
446,5	-49,787
446,9	-50,027
447,4	-48,947
447,8	-47,827
448,3	-48,547
448,7	-55,867
449,2	-53,387
449,6	-54,387
450,1	-53,147
450,6	-54,467
451	-53,387
451,5	-59,987
451,9	-62,787
452,4	-59,787
452,8	-59,427
453,3	-61,467
453,7	-61,107
454,2	-56,387
454,6	-59,587
455,1	-66,627
455,5	-63,627
456	-58,387
456,4	-63,787
456,9	-71,067
457,3	-66,347
457,8	-64,267
458,3	-63,987
458,7	-58,387
459,2	-52,947
459,6	-50,667
460,1	-53,347
460,5	-56,627
461	-49,267
461,4	-49,507
461,9	-43,547
462,3	-43,067
462,8	-30,747
463,2	-38,507
463,7	-38,747
464,1	-39,427
464,6	-39,587
465	-48,027
465,5	-48,467
466	-47,387
466,4	-46,227
466,9	-47,747
467,3	-48,027
467,8	-48,387
468,2	-39,867
468,7	-41,267
469,1	-37,387
469,6	-33,387
470	-29,307
470,5	-36,067
470,9	-35,867
471,4	-40,267
471,8	-46,707
472,3	-43,987
472,7	-46,867
473,2	-49,627
473,6	-44,467
474,1	-47,227
474,5	-51,187
475	-45,587
475,4	-45,867
475,9	-42,147
476,4	-36,587
476,8	-38,427
477,3	-40,707
477,7	-43,507
478,2	-53,427
478,6	-55,707
479,1	-53,387
479,5	-54,307
480	-52,547
480,4	-49,027
480,9	-45,827
481,3	-41,307
481,8	-40,547
482,2	-39,467
482,7	-41,227
483,1	-41,747
483,6	-47,867
484	-42,147
484,5	-44,627
484,9	-46,627
485,4	-49,227
485,8	-51,667
486,3	-60,147
486,7	-52,547
487,2	-53,187
487,6	-48,707
488,1	-41,387
488,5	-32,987
489	-33,147
489,4	-25,307
489,9	-28,667
490,4	-32,747
490,8	-36,867
491,3	-40,507
491,7	-38,667
492,2	-35,587
492,6	-38,747
493,1	-35,307
493,5	-38,867
494	-38,387
494,4	-41,587
494,9	-41,627
495,3	-47,587
495,8	-41,867
496,2	-42,147
496,7	-37,267
497,1	-33,707
497,6	-33,147
498	-37,347
498,5	-43,867
498,9	-45,467
499,4	-43,987
499,8	-39,547
500,3	-37,627
500,7	-35,107
501,2	-30,867
501,6	-34,547
502,1	-34,707
502,5	-35,267
503	-36,707
503,4	-43,907
503,9	-39,347
504,3	-44,027
504,8	-48,067
505,2	-45,867
505,7	-43,787
506,1	-46,067
506,6	-43,667
507	-38,187
507,5	-37,707
507,9	-38,347
508,4	-36,467
508,8	-34,867
509,3	-35,347
509,7	-38,307
510,2	-33,027
510,6	-30,747
511,1	-31,067
511,5	-29,947
512	-30,027
512,4	-33,427
512,9	-35,707
513,3	-37,707
513,8	-31,467
514,2	-27,107
514,7	-33,507
515,1	-36,267
515,6	-39,867
516	-47,187
516,5	-53,747
516,9	-47,707
517,4	-49,147
517,8	-43,347
518,3	-41,267
518,7	-31,227
519,2	-31,187
519,6	-30,747
520,1	-32,987
520,5	-28,227
521	-35,307
521,4	-37,987
521,9	-36,507
522,3	-36,427
522,8	-40,627
523,2	-32,347
523,7	-24,947
524,1	-22,787
524,6	-18,187
525	-19,747
525,5	-26,467
525,9	-24,307
526,4	-26,107
526,8	-30,027
527,3	-36,507
527,7	-37,027
528,2	-46,307
528,6	-43,307
529,1	-46,667
529,5	-40,387
530	-38,867
530,4	-29,307
530,9	-25,547
531,3	-24,107
531,8	-16,667
532,2	-17,267
532,6	-21,107
533,1	-26,307
533,5	-23,907
534	-26,827
534,4	-23,907
534,9	-25,387
535,3	-17,187
535,8	-17,067
536,2	-23,427
536,7	-25,307
537,1	-29,267
537,6	-33,907
538	-36,147
538,5	-37,627
538,9	-37,227
539,4	-32,267
539,8	-33,187
540,3	-34,387
540,7	-29,227
541,2	-30,147
541,6	-29,147
542,1	-29,067
542,5	-20,507
543	-22,787
543,4	-22,987
543,9	-23,027
544,3	-27,427
544,8	-29,867
545,2	-20,227
545,7	-19,867
546,1	-22,227
546,5	-19,147
547	-21,067
547,4	-28,307
547,9	-28,227
548,3	-26,507
548,8	-25,227
549,2	-24,987
549,7	-28,587
550,1	-25,507
550,6	-27,107
551	-26,867
551,5	-26,547
551,9	-24,307
552,4	-26,587
552,8	-24,747
553,3	-23,547
553,7	-20,947
554,2	-18,747
554,6	-14,787
555,1	-20,627
555,5	-19,467
555,9	-22,627
556,4	-24,907
556,8	-28,147
557,3	-24,507
557,7	-28,347
558,2	-25,267
558,6	-25,067
559,1	-27,307
559,5	-26,467
560	-27,147
560,4	-30,267
560,9	-25,827
561,3	-26,427
561,8	-27,187
562,2	-28,587
562,7	-29,147
563,1	-29,827
563,6	-23,947
564	-21,067
564,4	-13,467
564,9	-9,507
565,3	-11,707
565,8	-14,227
566,2	-19,267
566,7	-22,067
567,1	-27,307
567,6	-27,907
568	-24,227
568,5	-17,307
568,9	-20,387
569,4	-12,307
569,8	-11,507
570,3	-13,067
570,7	-14,187
571,1	-16,747
571,6	-17,307
572	-17,187
572,5	-21,947
572,9	-22,587
573,4	-15,427
573,8	-19,347
574,3	-19,587
574,7	-12,947
575,2	-18,147
575,6	-23,147
576,1	-24,987
576,5	-32,707
576,9	-37,747
577,4	-29,427
577,8	-32,387
578,3	-28,387
578,7	-21,787
579,2	-20,947
579,6	-21,787
580,1	-20,627
580,5	-22,787
581	-21,627
581,4	-24,907
581,9	-29,147
582,3	-30,147
582,7	-24,067
583,2	-30,707
583,6	-25,187
584,1	-29,147
584,5	-28,587
585	-38,227
585,4	-32,187
585,9	-37,307
586,3	-35,267
586,8	-37,507
587,2	-38,427
587,6	-32,347
588,1	-34,067
588,5	-31,947
589	-24,547
589,4	-20,707
589,9	-20,307
590,3	-17,107
590,8	-16,707
591,2	-17,827
591,7	-19,147
592,1	-17,427
592,5	-18,467
593	-22,507
593,4	-25,827
593,9	-25,507
594,3	-38,987
594,8	-40,307
595,2	-34,307
595,7	-27,107
596,1	-20,587
596,6	-14,547
597	-10,107
597,4	-16,107
597,9	-19,787
598,3	-28,067
598,8	-26,867
599,2	-32,307
599,7	-30,947
600,1	-33,707
600,6	-33,107
601	-41,907
601,4	-39,667
601,9	-40,027
602,3	-40,467
602,8	-35,907
603,2	-35,027
603,7	-35,627
604,1	-35,627
604,6	-33,787
605	-33,787
605,4	-33,707
605,9	-32,387
606,3	-29,027
606,8	-27,107
607,2	-26,667
607,7	-22,787
608,1	-22,507
608,6	-17,027
609	-18,867
609,4	-25,227
609,9	-24,667
610,3	-26,787
610,8	-34,627
611,2	-34,627
611,7	-30,067
612,1	-27,307
612,6	-29,987
613	-30,947
613,4	-29,627
613,9	-34,267
614,3	-38,187
614,8	-33,587
615,2	-31,467
615,7	-31,627
616,1	-25,627
616,6	-30,187
617	-30,107
617,4	-28,507
617,9	-27,867
618,3	-35,507
618,8	-37,307
619,2	-37,507
619,7	-42,667
620,1	-49,707
620,5	-47,587
621	-43,427
621,4	-44,187
621,9	-42,987
622,3	-42,787
622,8	-40,747
623,2	-46,627
623,6	-44,427
624,1	-43,507
624,5	-41,587
625	-43,427
625,4	-37,627
625,9	-40,507
626,3	-43,187
626,8	-41,387
627,2	-42,427
627,6	-38,147
628,1	-33,427
628,5	-30,987
629	-31,387
629,4	-32,587
629,9	-33,827
630,3	-40,267
630,7	-39,427
631,2	-46,227
631,6	-46,107
632,1	-43,747
632,5	-41,027
633	-41,307
633,4	-36,427
633,8	-41,867
634,3	-45,787
634,7	-47,227
635,2	-52,187
635,6	-51,107
636,1	-41,667
636,5	-38,547
636,9	-44,707
637,4	-42,907
637,8	-38,827
638,3	-49,027
638,7	-54,147
639,2	-44,867
639,6	-46,667
640	-49,587
640,5	-43,587
640,9	-44,147
641,4	-55,347
641,8	-50,907
642,2	-51,107
642,7	-48,187
643,1	-55,307
643,6	-54,347
644	-54,627
644,5	-60,867
644,9	-62,787
645,3	-52,667
645,8	-47,107
646,2	-51,467
646,7	-50,267
647,1	-50,107
647,6	-56,907
648	-59,947
648,4	-56,067
648,9	-56,187
649,3	-61,947
649,8	-51,547
650,2	-44,667
650,6	-43,507
651,1	-42,227
651,5	-33,947
652	-35,227
652,4	-44,307
652,9	-54,747
653,3	-54,707
653,7	-61,147
654,2	-63,787
654,6	-54,467
655,1	-53,387
655,5	-53,827
655,9	-44,387
656,4	-48,187
656,8	-56,667
657,3	-52,067
657,7	-47,507
658,2	-55,347
658,6	-50,627
659	-48,187
659,5	-49,907
659,9	-57,347
660,4	-56,427
660,8	-57,307
661,2	-56,347
661,7	-55,987
662,1	-46,387
662,6	-51,587
663	-59,467
663,4	-58,307
663,9	-53,787
664,3	-59,467
664,8	-51,627
665,2	-48,147
665,6	-53,747
666,1	-58,907
666,5	-60,107
667	-63,827
667,4	-65,107
667,9	-56,227
668,3	-59,267
668,7	-60,387
669,2	-59,587
669,6	-56,907
670,1	-60,587
670,5	-56,387
670,9	-55,707
671,4	-59,707
671,8	-59,307
672,3	-58,467
672,7	-58,227
673,1	-59,667
673,6	-54,187
674	-54,827
674,5	-52,907
674,9	-55,307
675,3	-55,827
675,8	-61,107
676,2	-63,187
676,7	-65,147
677,1	-61,947
677,5	-64,427
678	-60,107
678,4	-54,867
678,9	-59,547
679,3	-61,747
679,7	-54,467
680,2	-58,027
680,6	-61,027
681,1	-58,667
681,5	-55,427
681,9	-60,907
682,4	-61,587
682,8	-68,027
683,3	-63,467
683,7	-64,347
684,1	-56,027
684,6	-57,067
685	-55,467
685,5	-62,507
685,9	-63,427
686,3	-68,547
686,8	-70,267
687,2	-66,507
687,7	-70,107
688,1	-67,947
688,5	-63,467
689	-56,147
689,4	-55,907
689,9	-56,587
690,3	-53,347
690,7	-59,947
691,2	-58,547
691,6	-66,947
692	-57,787
692,5	-57,827
692,9	-52,307
693,4	-53,267
693,8	-43,867
694,2	-44,427
694,7	-41,707
695,1	-46,027
695,6	-45,627
696	-45,467
696,4	-44,907
696,9	-50,347
697,3	-50,427
697,8	-52,867
698,2	-56,427
698,6	-66,747
699,1	-71,747
699,5	-75,787
699,9	-79,507
700,4	-80,427
700,8	-73,867
701,3	-72,187
701,7	-58,787
702,1	-50,587
702,6	-49,587
703	-48,707
703,5	-49,347
703,9	-61,907
704,3	-65,627
704,8	-63,147
705,2	-59,067
705,6	-62,107
706,1	-60,907
706,5	-64,147
707	-64,307
707,4	-67,667
707,8	-64,827
708,3	-61,587
708,7	-63,707
709,2	-67,747
709,6	-71,187
710	-69,747
710,5	-68,667
710,9	-67,307
711,3	-62,987
711,8	-55,347
712,2	-50,507
712,7	-58,747
713,1	-56,107
713,5	-48,547
714	-58,027
714,4	-64,227
714,8	-56,987
715,3	-58,907
715,7	-67,467
716,2	-70,827
716,6	-69,547
717	-76,027
717,5	-73,787
717,9	-71,187
718,3	-65,827
718,8	-59,227
719,2	-59,667
719,7	-65,187
720,1	-66,427
720,5	-65,667
721	-73,787
721,4	-63,347
721,8	-56,827
722,3	-62,027
722,7	-64,267
723,2	-60,907
723,6	-71,067
724	-71,667
724,5	-67,267
724,9	-65,067
725,3	-67,387
725,8	-64,467
726,2	-64,307
726,7	-62,227
727,1	-65,187
727,5	-67,667
728	-65,827
728,4	-71,107
728,8	-67,747
729,3	-65,427
729,7	-62,027
730,1	-58,627
730,6	-55,187
731	-61,947
731,5	-62,387
731,9	-65,227
732,3	-69,347
732,8	-73,867
733,2	-70,347
733,6	-69,747
734,1	-68,187
734,5	-67,667
734,9	-61,067
735,4	-66,227
735,8	-62,787
736,3	-65,747
736,7	-65,587
737,1	-65,507
737,6	-62,147
738	-67,347
738,4	-68,307
738,9	-66,787
739,3	-69,347
739,7	-72,627
740,2	-74,227
740,6	-69,907
741,1	-70,587
741,5	-66,147
741,9	-68,067
742,4	-63,987
742,8	-65,987
743,2	-69,107
743,7	-72,507
744,1	-71,147
744,5	-73,987
745	-76,987
745,4	-70,027
745,8	-70,507
746,3	-64,587
746,7	-68,747
747,2	-65,467
747,6	-72,307
748	-71,947
748,5	-77,947
748,9	-72,107
749,3	-70,307
749,8	-69,147
750,2	-74,587
750,6	-73,227
751,1	-72,627
751,5	-70,307
751,9	-71,067
752,4	-65,547
752,8	-66,347
753,3	-64,267
753,7	-66,387
754,1	-65,867
754,6	-66,787
755	-60,267
755,4	-63,467
755,9	-67,507
756,3	-67,987
756,7	-64,587
757,2	-75,227
757,6	-79,267
758	-76,267
758,5	-70,707
758,9	-71,707
759,3	-64,627
759,8	-58,027
760,2	-56,547
760,6	-61,227
761,1	-67,867
761,5	-70,987
761,9	-78,467
762,4	-76,627
762,8	-79,027
763,3	-76,787
763,7	-82,187
764,1	-79,907
764,6	-81,787
765	-76,027
765,4	-71,347
765,9	-61,587
766,3	-60,147
766,7	-59,947
767,2	-61,787
767,6	-70,907
768	-79,667
768,5	-74,867
768,9	-72,867
769,3	-75,307
769,8	-69,907
770,2	-66,347
770,6	-68,107
771,1	-72,387
771,5	-74,027
771,9	-71,587
772,4	-70,147
772,8	-72,907
773,2	-70,387
773,7	-66,987
774,1	-74,387
774,5	-74,507
775	-79,547
775,4	-87,987
775,8	-86,507
776,3	-80,347
776,7	-81,787
777,1	-69,667
777,6	-64,667
778	-67,707
778,4	-64,227
778,9	-62,547
779,3	-71,747
779,7	-72,987
780,2	-71,667
780,6	-79,027
781	-79,627
781,5	-77,387
781,9	-82,787
782,3	-83,747
782,8	-80,747
783,2	-76,147
783,6	-73,947
784,1	-73,907
784,5	-72,667
784,9	-73,147
785,4	-73,707
785,8	-78,067
786,2	-73,147
786,7	-68,667
787,1	-66,427
787,5	-72,227
788	-70,627
788,4	-69,707
788,8	-78,467
789,3	-78,227
789,7	-75,227
790,1	-69,547
790,6	-63,827
791	-61,347
791,4	-61,387
791,9	-57,667
792,3	-64,507
792,7	-61,227
793,2	-54,427
793,6	-53,267
794	-48,507
794,5	-44,427
794,9	-56,747
795,3	-67,387
795,8	-73,667
796,2	-83,547
796,6	-85,067
797,1	-81,507
797,5	-85,147
797,9	-80,987
798,4	-80,627
798,8	-76,507
799,2	-72,307
799,7	-62,907
800,1	-65,387
800,5	-62,107
801	-66,867
801,4	-66,387
801,8	-68,067
802,2	-69,747
802,7	-70,147
803,1	-70,067
803,5	-75,347
804	-75,347
804,4	-74,507
804,8	-75,907
805,3	-73,587
805,7	-79,787
806,1	-78,947
806,6	-75,827
807	-75,347
807,4	-82,947
807,9	-72,227
808,3	-75,227
808,7	-79,227
809,2	-80,467
809,6	-77,787
810	-79,787
810,4	-78,307
810,9	-77,187
811,3	-75,707
811,7	-77,787
812,2	-80,667
812,6	-80,547
813	-79,347
813,5	-73,427
813,9	-62,027
814,3	-60,347
814,8	-55,827
815,2	-60,787
815,6	-67,347
816,1	-69,107
816,5	-66,787
816,9	-71,187
817,3	-67,387
817,8	-67,627
818,2	-73,427
818,6	-78,627
819,1	-77,347
819,5	-77,307
819,9	-76,387
820,4	-75,547
820,8	-72,427
821,2	-74,147
821,7	-66,627
822,1	-64,147
822,5	-65,227
822,9	-63,707
823,4	-65,227
823,8	-74,867
824,2	-78,587
824,7	-75,827
825,1	-81,187
825,5	-74,147
826	-70,787
826,4	-70,147
826,8	-73,667
827,3	-69,147
827,7	-70,107
828,1	-66,907
828,5	-69,267
829	-63,587
829,4	-64,387
829,8	-67,267
830,3	-69,147
830,7	-68,307
831,1	-70,587
831,6	-74,627
832	-76,827
832,4	-71,947
832,8	-71,267
833,3	-72,267
833,7	-68,307
834,1	-70,027
834,6	-76,067
835	-81,387
835,4	-82,547
835,8	-76,387
836,3	-71,347
836,7	-70,907
837,1	-68,147
837,6	-66,707
838	-68,627
838,4	-75,427
838,9	-73,587
839,3	-70,907
839,7	-65,107
840,1	-72,627
840,6	-69,947
841	-73,147
841,4	-79,227
841,9	-86,747
842,3	-82,307
842,7	-85,427
843,1	-89,627
843,6	-78,227
844	-77,987
844,4	-76,267
844,9	-75,867
845,3	-64,947
845,7	-68,187
846,2	-69,187
846,6	-71,547
847	-70,587
847,4	-75,227
847,9	-75,067
848,3	-74,867
848,7	-72,867
849,2	-70,027
849,6	-76,507
850	-76,267
850,4	-77,987
850,9	-77,987
851,3	-73,427
851,7	-76,707
852,2	-81,467
852,6	-80,067
853	-79,667
853,4	-88,827
853,9	-81,627
854,3	-77,147
854,7	-73,467
855,2	-73,747
855,6	-70,467
856	-67,907
856,4	-71,867
856,9	-68,307
857,3	-67,587
857,7	-62,707
858,2	-63,307
858,6	-65,907
859	-67,027
859,4	-75,907
859,9	-81,427
860,3	-80,147
860,7	-71,907
861,1	-75,187
861,6	-66,587
862	-60,387
862,4	-60,587
862,9	-66,907
863,3	-62,867
863,7	-68,187
864,1	-72,667
864,6	-69,507
865	-71,387
865,4	-73,387
865,9	-71,467
866,3	-73,187
866,7	-81,027
867,1	-78,227
867,6	-76,307
868	-80,027
868,4	-76,507
868,8	-73,467
869,3	-79,347
869,7	-81,547
870,1	-77,067
870,6	-76,027
871	-72,827
871,4	-55,947
871,8	-56,147
872,3	-59,267
872,7	-60,707
873,1	-65,947
873,5	-80,867
874	-82,387
874,4	-82,947
874,8	-80,587
875,3	-81,707
875,7	-78,707
876,1	-80,627
876,5	-75,267
877	-79,307
877,4	-75,147
877,8	-67,347
878,2	-63,427
878,7	-64,107
879,1	-63,027
879,5	-59,787
879,9	-63,747
880,4	-65,187
880,8	-65,987
881,2	-66,227
881,7	-71,547
882,1	-70,547
882,5	-76,587
882,9	-72,827
883,4	-71,427
883,8	-70,827
884,2	-76,587
884,6	-76,307
885,1	-82,347
885,5	-84,507
885,9	-79,627
886,3	-77,827
886,8	-77,427
887,2	-72,947
887,6	-76,227
888	-82,347
888,5	-82,427
888,9	-83,867
889,3	-94,987
889,8	-86,187
890,2	-78,427
890,6	-74,147
891	-66,547
891,5	-56,147
891,9	-59,347
892,3	-61,027
892,7	-60,707
893,2	-61,227
893,6	-62,307
894	-65,747
894,4	-70,147
894,9	-71,867
895,3	-73,307
895,7	-74,067
896,1	-69,427
896,6	-70,387
897	-69,827
897,4	-66,627
897,8	-68,147
898,3	-74,027
898,7	-73,547
899,1	-73,307
899,5	-73,587
900	-77,587
900,4	-75,227
900,8	-73,947
901,2	-77,027
901,7	-80,027
902,1	-74,227
902,5	-71,547
902,9	-73,707
903,4	-77,467
903,8	-81,867
904,2	-79,187
904,6	-78,307
905,1	-74,467
905,5	-68,627
905,9	-63,387
906,3	-62,947
906,8	-64,107
907,2	-65,787
907,6	-70,587
908	-68,867
908,5	-71,987
908,9	-70,547
909,3	-69,107
909,7	-66,667
910,2	-66,147
910,6	-62,747
911	-61,867
911,4	-64,467
911,9	-66,227
912,3	-68,667
912,7	-71,987
913,1	-78,027
913,6	-79,067
914	-75,907
914,4	-78,467
914,8	-75,667
915,3	-70,707
915,7	-68,507
916,1	-71,227
916,5	-67,147
916,9	-69,507
917,4	-75,027
917,8	-74,587
918,2	-73,267
918,6	-73,827
919,1	-72,347
919,5	-72,267
919,9	-71,707
920,3	-69,547
920,8	-71,347
921,2	-70,227
921,6	-70,267
922	-77,667
922,5	-76,347
922,9	-84,147
923,3	-81,747
923,7	-80,387
924,2	-74,187
924,6	-73,627
925	-59,387
925,4	-66,467
925,8	-66,947
926,3	-71,867
926,7	-69,507
927,1	-77,867
927,5	-75,067
928	-69,907
928,4	-64,227
928,8	-73,827
929,2	-71,707
929,7	-69,187
930,1	-73,187
930,5	-72,147
930,9	-67,827
931,3	-68,227
931,8	-75,027
932,2	-72,827
932,6	-75,667
933	-75,827
933,5	-70,547
933,9	-69,827
934,3	-68,627
934,7	-64,627
935,2	-64,747
935,6	-72,187
936	-75,787
936,4	-79,067
936,8	-86,067
937,3	-86,547
937,7	-85,267
938,1	-79,107
938,5	-81,507
939	-75,227
939,4	-78,107
939,8	-81,027
940,2	-85,067
940,6	-83,507
941,1	-84,867
941,5	-80,027
941,9	-77,867
942,3	-75,267
942,8	-77,227
943,2	-83,027
943,6	-83,747
944	-83,587
944,4	-83,547
944,9	-78,627
945,3	-78,787
945,7	-81,547
946,1	-77,427
946,6	-77,987
947	-76,987
947,4	-78,627
947,8	-77,027
948,2	-78,947
948,7	-77,667
949,1	-79,267
949,5	-74,707
949,9	-67,427
950,3	-68,787
950,8	-67,147
951,2	-64,107
951,6	-63,667
952	-69,987
952,5	-69,787
952,9	-70,307
953,3	-74,667
953,7	-76,227
954,1	-73,587
954,6	-75,067
955	-76,627
955,4	-80,827
955,8	-73,587
956,2	-79,747
956,7	-76,427
957,1	-74,507
957,5	-73,547
957,9	-83,067
958,3	-83,427
958,8	-90,947
959,2	-90,627
959,6	-91,267
960	-86,267
960,5	-87,467
960,9	-76,787
961,3	-76,907
961,7	-73,707
962,1	-67,827
962,6	-65,547
963	-70,227
963,4	-69,507
963,8	-69,467
964,2	-77,747
964,7	-75,147
965,1	-76,187
965,5	-83,027
965,9	-86,347
966,3	-83,747
966,8	-80,467
967,2	-82,867
967,6	-81,107
968	-76,427
968,4	-74,107
968,9	-78,387
969,3	-73,387
969,7	-77,307
970,1	-75,787
970,5	-78,267
971	-71,707
971,4	-78,347
971,8	-68,667
972,2	-69,507
972,6	-68,427
973,1	-75,427
973,5	-70,147
973,9	-72,627
974,3	-77,227
974,7	-77,067
975,2	-74,387
975,6	-74,027
976	-76,987
976,4	-73,747
976,8	-75,427
977,3	-83,307
977,7	-81,987
978,1	-78,787
978,5	-80,107
978,9	-79,107
979,4	-72,947
979,8	-74,987
980,2	-73,747
980,6	-71,827
981	-71,387
981,5	-75,467
981,9	-77,187
982,3	-77,267
982,7	-71,627
983,1	-68,267
983,6	-59,227
984	-56,507
984,4	-58,107
984,8	-60,827
985,2	-68,667
985,6	-75,347
986,1	-73,347
986,5	-69,507
986,9	-76,427
987,3	-74,827
987,7	-70,147
988,2	-68,907
988,6	-69,747
989	-70,227
989,4	-68,867
989,8	-75,667
990,3	-82,187
990,7	-85,307
991,1	-88,467
991,5	-86,267
991,9	-80,067
992,3	-79,507
992,8	-79,987
993,2	-72,147
993,6	-72,787
994	-72,707
994,4	-70,747
994,9	-68,147
995,3	-70,547
995,7	-75,427
996,1	-76,027
996,5	-77,427
996,9	-83,787
997,4	-85,747
997,8	-83,067
998,2	-80,187
998,6	-77,707
999	-75,267
999,5	-75,227
999,9	-77,947
1000,3	-82,707
1000,7	-83,387
1001,1	-83,267
1001,5	-76,627
1002	-71,147
1002,4	-75,267
1002,8	-71,547
1003,2	-66,827
1003,6	-67,067
1004	-72,827
1004,5	-67,907
1004,9	-67,507
1005,3	-76,547
1005,7	-81,227
1006,1	-71,747
1006,6	-72,707
1007	-71,227
1007,4	-72,907
1007,8	-70,547
1008,2	-75,587
1008,6	-79,107
1009,1	-90,147
1009,5	-80,907
1009,9	-85,427
1010,3	-81,907
1010,7	-81,027
1011,1	-73,627
1011,6	-78,467
1012	-79,227
1012,4	-81,707
1012,8	-84,547
1013,2	-83,427
1013,6	-83,747
1014,1	-81,267
1014,5	-83,627
1014,9	-75,627
1015,3	-77,587
1015,7	-71,187
1016,1	-69,147
1016,6	-64,387
1017	-67,027
1017,4	-70,107
1017,8	-75,667
1018,2	-81,267
1018,6	-84,187
1019,1	-86,347
1019,5	-81,547
1019,9	-81,387
1020,3	-73,707
1020,7	-74,547
1021,1	-76,947
1021,6	-78,227
1022	-80,427
1022,4	-81,907
1022,8	-84,667
1023,2	-79,547
1023,6	-81,267
1024,1	-79,547
1024,5	-85,667
1024,9	-86,307
1025,3	-85,387
1025,7	-89,027
1026,1	-91,787
1026,6	-82,947
1027	-82,707
1027,4	-92,147
1027,8	-96,067
1028,2	-94,907
1028,6	-99,627
1029	-94,947
1029,5	-89,227
1029,9	-81,267
1030,3	-82,747
1030,7	-81,107
1031,1	-90,507
1031,5	-88,667
1032	-97,187
1032,4	-101,827
1032,8	-105,187
1033,2	-96,787
1033,6	-92,427
1034	-87,027
1034,4	-78,547
1034,9	-82,747
1035,3	-79,627
1035,7	-90,587
1036,1	-87,307
1036,5	-87,747
1036,9	-81,067
1037,4	-89,947
1037,8	-85,387
1038,2	-91,907
1038,6	-95,547
1039	-97,667
1039,4	-92,867
1039,8	-89,507
1040,3	-90,827
1040,7	-90,907
1041,1	-89,107
1041,5	-90,947
1041,9	-96,147
1042,3	-89,747
1042,7	-86,307
1043,2	-84,547
1043,6	-85,667
1044	-80,787
1044,4	-84,867
1044,8	-87,627
1045,2	-91,467
1045,6	-95,587
1046,1	-102,187
1046,5	-102,667
1046,9	-98,427
1047,3	-92,307
1047,7	-86,147
1048,1	-82,147
1048,5	-80,747
1049	-82,907
1049,4	-91,027
1049,8	-92,347
1050,2	-93,867
1050,6	-88,187
1051	-93,907
1051,4	-93,747
1051,9	-99,307
1052,3	-104,227
1052,7	-110,227
1053,1	-104,147
1053,5	-95,427
1053,9	-91,707
1054,3	-88,307
1054,8	-89,507
1055,2	-86,587
1055,6	-90,987
1056	-85,707
1056,4	-83,467
1056,8	-77,787
1057,2	-82,267
1057,6	-85,467
1058,1	-91,907
1058,5	-91,347
1058,9	-93,667
1059,3	-89,027
1059,7	-87,347
1060,1	-88,347
1060,5	-85,787
1061	-86,827
1061,4	-89,787
1061,8	-88,787
1062,2	-77,467
1062,6	-77,467
1063	-79,627
1063,4	-78,867
1063,8	-84,307
1064,3	-87,387
1064,7	-87,267
1065,1	-83,507
1065,5	-83,947
1065,9	-79,107
1066,3	-84,347
1066,7	-88,027
1067,1	-88,387
1067,6	-87,827
1068	-90,107
1068,4	-89,227
1068,8	-88,547
1069,2	-82,667
1069,6	-81,107
1070	-78,067
1070,4	-78,307
1070,9	-78,707
1071,3	-84,107
1071,7	-81,227
1072,1	-77,707
1072,5	-79,347
1072,9	-75,867
1073,3	-69,787
1073,7	-74,747
1074,2	-84,827
1074,6	-75,627
1075	-78,627
1075,4	-80,947
1075,8	-80,947
1076,2	-71,307
1076,6	-72,907
1077	-74,347
1077,5	-81,827
1077,9	-82,547
1078,3	-80,587
1078,7	-80,867
1079,1	-72,547
1079,5	-68,667
1079,9	-68,747
1080,3	-74,587
1080,7	-78,587
1081,2	-83,107
1081,6	-83,987
1082	-77,107
1082,4	-76,187
1082,8	-75,747
1083,2	-79,547
1083,6	-73,147
1084	-77,907
1084,5	-77,947
1084,9	-83,227
1085,3	-78,307
1085,7	-84,827
1086,1	-81,547
1086,5	-80,347
1086,9	-73,627
1087,3	-79,027
1087,7	-74,427
1088,2	-73,707
1088,6	-68,827
1089	-72,467
1089,4	-66,947
1089,8	-65,747
1090,2	-68,587
1090,6	-72,667
1091	-70,027
1091,4	-69,547
1091,9	-72,947
1092,3	-71,867
1092,7	-72,387
1093,1	-76,307
1093,5	-75,747
1093,9	-77,707
1094,3	-80,347
1094,7	-80,827
1095,1	-76,747
1095,5	-81,227
1096	-78,187
1096,4	-77,787
1096,8	-74,827
1097,2	-73,667
1097,6	-63,907
1098	-66,747
1098,4	-59,787
1098,8	-64,187
1099,2	-58,347
1099,6	-60,867
1100,1	-52,227
1100,5	-53,867
1100,9	-45,427
1101,3	-41,987
1101,7	-45,667
1102,1	-48,147
1102,5	-47,627
1102,9	-44,307
1103,3	-51,547
1103,7	-42,867
1104,2	-44,387
1104,6	-43,827
1105	-46,827
1105,4	-44,467
1105,8	-44,307
1106,2	-32,587
1106,6	-22,187
1107	-14,787
1107,4	-5,307
1107,8	-0,167
1108,3	0,4
