Data from Subt2_00039.txt Node
Date: Fri Aug 11 15:59:48 MSK 2023
User: vat
Spectrometer: MAYP114033
Trigger mode: 0
Integration Time (sec): 5,000000E-1
Scans to average: 5
Electric dark correction enabled: true
Nonlinearity correction enabled: false
Boxcar width: 2
XAxis mode: Wavelengths
Number of Pixels in Spectrum: 2068
>>>>>Begin Spectral Data<<<<<
199,4	1,733
199,9	0,9
200,4	-3,16
200,8	-0,28
201,3	-2,04
201,8	-0,68
202,2	3,6
202,7	7,8
203,2	2,16
203,6	1,28
204,1	-1,36
204,6	-5,84
205	-5,24
205,5	-5,48
206	-0,36
206,4	0,4
206,9	2
207,4	3,2
207,8	5,16
208,3	2,8
208,8	5,28
209,2	0,52
209,7	0,24
210,2	1,64
210,6	0,28
211,1	-5,36
211,5	-0,2
212	-3,8
212,5	-2,48
212,9	-3,96
213,4	-3,56
213,9	-3,12
214,3	1,84
214,8	0,28
215,3	4,48
215,7	7,84
216,2	8,68
216,7	4,16
217,1	2,44
217,6	1,44
218,1	0,28
218,5	-4,56
219	1,92
219,5	7,12
219,9	8,6
220,4	8,24
220,9	11,64
221,3	8
221,8	2,32
222,3	-0,12
222,7	4,4
223,2	3
223,6	-0,08
224,1	-2
224,6	-1,08
225	-5,2
225,5	-1,32
226	1
226,4	-0,44
226,9	-4,16
227,4	-4,04
227,8	-9,28
228,3	-9,68
228,8	-5,72
229,2	-4,24
229,7	-8,68
230,2	-5,6
230,6	-7,4
231,1	-8,48
231,5	-6,04
232	-0,08
232,5	0,56
232,9	-3,08
233,4	-3,32
233,9	-6,92
234,3	-10,52
234,8	-8,88
235,3	-7,76
235,7	-2,36
236,2	-3,88
236,7	-3,52
237,1	-9,68
237,6	-6,4
238,1	-10,6
238,5	-8,36
239	-4,64
239,4	-3,8
239,9	3,84
240,4	7,96
240,8	9,36
241,3	10,44
241,8	17,92
242,2	9,48
242,7	11,96
243,2	14,2
243,6	11,32
244,1	3,96
244,6	2,76
245	-1,96
245,5	-5,08
245,9	-5,8
246,4	-7,6
246,9	-2
247,3	-5,08
247,8	-5,44
248,3	-4,52
248,7	-9,84
249,2	-14,12
249,7	-13,44
250,1	-15,24
250,6	-17,08
251	-11,72
251,5	-8,28
252	-12,36
252,4	-11,92
252,9	-6,72
253,4	-8,8
253,8	-10,44
254,3	-0,16
254,8	-2,08
255,2	-3,32
255,7	7,96
256,1	5,44
256,6	-2,64
257,1	1,16
257,5	-0,76
258	-7,76
258,5	-2,24
258,9	3,2
259,4	4,16
259,9	0,44
260,3	2,48
260,8	-2,64
261,2	-4,24
261,7	-5,4
262,2	-3,92
262,6	-1,24
263,1	8,32
263,6	7,72
264	13,48
264,5	6,52
264,9	1,32
265,4	-10
265,9	-8,72
266,3	-9,52
266,8	-1,24
267,3	0,44
267,7	2
268,2	1,72
268,7	1,92
269,1	3
269,6	2,88
270	6,28
270,5	3,92
271	-3,64
271,4	-4,48
271,9	-4,32
272,4	-3,12
272,8	-4,04
273,3	1,8
273,7	5,68
274,2	9,68
274,7	7,92
275,1	10,56
275,6	8,44
276,1	6,96
276,5	6,48
277	5,44
277,4	6,72
277,9	8,04
278,4	6,92
278,8	0,56
279,3	0,32
279,8	-6,2
280,2	-9,24
280,7	-14,08
281,1	-10,76
281,6	-9,88
282,1	1,24
282,5	-1,44
283	3,12
283,4	1,92
283,9	1,88
284,4	-4,96
284,8	1,36
285,3	1,76
285,8	0,96
286,2	0,92
286,7	3,24
287,1	1,92
287,6	-0,52
288,1	0,68
288,5	2,72
289	-1,8
289,5	-3,56
289,9	-3,44
290,4	-0,44
290,8	0,52
291,3	0,8
291,8	0,92
292,2	5,84
292,7	2,92
293,1	0,4
293,6	5,8
294,1	3,92
294,5	-1,56
295	-0,44
295,5	2,52
295,9	-0,36
296,4	1,96
296,8	8,2
297,3	6,8
297,8	2,24
298,2	-2
298,7	-0,6
299,1	-6,16
299,6	-2,84
300,1	-2,64
300,5	2,72
301	2,44
301,5	3,8
301,9	0,4
302,4	-1,4
302,8	-5,52
303,3	-4,08
303,8	-6,16
304,2	-11,96
304,7	-7
305,1	-5,92
305,6	-8,44
306,1	-5,4
306,5	4,84
307	-0,6
307,4	2,12
307,9	4,36
308,4	5,04
308,8	4,04
309,3	10,4
309,8	9,76
310,2	7,68
310,7	2,08
311,1	-3,12
311,6	-8,92
312,1	-9,6
312,5	-12,2
313	-10,84
313,4	-11,12
313,9	-7,76
314,4	-3,08
314,8	0,28
315,3	2,24
315,7	1,72
316,2	-1,8
316,7	-7,28
317,1	-9,4
317,6	-11,8
318	-9,6
318,5	-7,76
319	-9,72
319,4	-12
319,9	-3,64
320,3	1,64
320,8	5,12
321,3	7,24
321,7	14,24
322,2	7,32
322,6	3,28
323,1	-2,16
323,6	-5,12
324	-6,4
324,5	-8
324,9	-9,84
325,4	-3,68
325,9	2,36
326,3	6
326,8	7,56
327,2	8,84
327,7	6,76
328,2	2,84
328,6	-1,6
329,1	-0,92
329,5	0,76
330	-3,08
330,5	-6,6
330,9	-8,04
331,4	-6,04
331,8	-10,56
332,3	-5,8
332,8	-3,48
333,2	-8,36
333,7	-10,68
334,1	-8,88
334,6	-14,6
335,1	-11,2
335,5	-5,28
336	-5,16
336,4	-1,92
336,9	-1,84
337,4	-1,48
337,8	1,04
338,3	0,68
338,7	-8,48
339,2	-4,08
339,7	-2,44
340,1	-8,76
340,6	-11,96
341	-4,76
341,5	-6,96
342	-8,2
342,4	-3,44
342,9	2,24
343,3	0,48
343,8	0,28
344,2	2,44
344,7	1,64
345,2	4,08
345,6	1,24
346,1	-0,6
346,5	1,92
347	-0,8
347,5	-5,68
347,9	0,8
348,4	7,44
348,8	6
349,3	8,16
349,8	8,28
350,2	5,68
350,7	1,8
351,1	-2,08
351,6	-1,76
352	-0,2
352,5	5,16
353	5,28
353,4	6,68
353,9	15,64
354,3	24,32
354,8	22,4
355,3	33,92
355,7	39
356,2	38,04
356,6	43,08
357,1	52,96
357,5	63
358	83,44
358,5	101,76
358,9	117,56
359,4	138,4
359,8	148,76
360,3	161,36
360,8	182,24
361,2	207,4
361,7	230,08
362,1	270,36
362,6	314,96
363	350,48
363,5	388,4
364	434,6
364,4	478,72
364,9	515,44
365,3	562,6
365,8	605,96
366,3	651,12
366,7	683,96
367,2	720,4
367,6	743,4
368,1	768,92
368,5	779,6
369	784,56
369,5	773,2
369,9	772,84
370,4	753,32
370,8	736,96
371,3	721,48
371,7	702,96
372,2	670,32
372,7	643,2
373,1	612,72
373,6	569,6
374	539,72
374,5	502,28
374,9	469,48
375,4	427
375,9	402,92
376,3	369,36
376,8	349,24
377,2	319,52
377,7	297,32
378,2	268,48
378,6	247,4
379,1	219,64
379,5	201
380	183,52
380,4	170,64
380,9	155,4
381,4	144,2
381,8	135,16
382,3	128,84
382,7	115,88
383,2	108,28
383,6	105,56
384,1	97,64
384,6	85,76
385	77,96
385,5	72,04
385,9	66,24
386,4	58,16
386,8	53,4
387,3	57,36
387,7	55,48
388,2	41,92
388,7	43,84
389,1	40,64
389,6	32,04
390	23,92
390,5	24,6
390,9	21,2
391,4	16,56
391,9	17,52
392,3	19,16
392,8	24,2
393,2	21,32
393,7	28,44
394,1	26,12
394,6	27,6
395,1	27,56
395,5	28,28
396	20,76
396,4	14,84
396,9	13,68
397,3	15,44
397,8	18,2
398,2	25,36
398,7	33,96
399,2	34,6
399,6	29,2
400,1	26,96
400,5	21,48
401	23,36
401,4	20,72
401,9	20,6
402,4	14,72
402,8	20,4
403,3	18,56
403,7	18,08
404,2	24,8
404,6	29,76
405,1	32,84
405,5	34,68
406	36,88
406,5	34,2
406,9	33,2
407,4	32,08
407,8	32,32
408,3	39,64
408,7	44,04
409,2	51,84
409,6	51,08
410,1	54,56
410,6	55,96
411	59
411,5	64,72
411,9	79,72
412,4	88,76
412,8	92,08
413,3	97,24
413,7	103,12
414,2	100,12
414,7	103,16
415,1	107,28
415,6	108,12
416	114,76
416,5	120,12
416,9	131,24
417,4	140,36
417,8	149,76
418,3	150,32
418,8	163,88
419,2	165,84
419,7	174,44
420,1	184,56
420,6	188,2
421	191,8
421,5	195,36
421,9	205,96
422,4	215
422,8	232,72
423,3	240,44
423,8	255,56
424,2	261,48
424,7	268,52
425,1	278,12
425,6	286,24
426	297,16
426,5	309,84
426,9	322,08
427,4	333,2
427,9	351,08
428,3	359,84
428,8	366,32
429,2	376,96
429,7	390,04
430,1	401,72
430,6	417,04
431	427,52
431,5	450,04
431,9	454
432,4	471,44
432,8	491,88
433,3	516,16
433,8	531,8
434,2	559,16
434,7	571,96
435,1	585,36
435,6	606,52
436	630,32
436,5	649,92
436,9	674,56
437,4	705,48
437,8	728,96
438,3	746,8
438,8	773,48
439,2	807,04
439,7	828,72
440,1	855,8
440,6	878,64
441	910,44
441,5	936,2
441,9	961,44
442,4	982,68
442,8	1017,4
443,3	1045,08
443,7	1064,16
444,2	1096,76
444,7	1130,72
445,1	1167,24
445,6	1194,08
446	1229,04
446,5	1265,44
446,9	1300,88
447,4	1328,48
447,8	1364,8
448,3	1406
448,7	1429,24
449,2	1459,32
449,6	1495,92
450,1	1529
450,6	1564,64
451	1602,76
451,5	1645,16
451,9	1675,64
452,4	1712,96
452,8	1746,12
453,3	1780,6
453,7	1817,68
454,2	1855,16
454,6	1902,24
455,1	1935,88
455,5	1980,52
456	2017,72
456,4	2055,08
456,9	2080,8
457,3	2125,68
457,8	2162,84
458,3	2201,24
458,7	2243,44
459,2	2284,8
459,6	2322,12
460,1	2357,8
460,5	2390,76
461	2425,48
461,4	2463,52
461,9	2504,72
462,3	2543,76
462,8	2585,92
463,2	2626,12
463,7	2653,68
464,1	2680,6
464,6	2713,28
465	2745,08
465,5	2772,24
466	2807,8
466,4	2842,68
466,9	2876,12
467,3	2906,56
467,8	2936,72
468,2	2964,84
468,7	2988,6
469,1	3010,16
469,6	3028,76
470	3050,84
470,5	3082,28
470,9	3100,24
471,4	3123,64
471,8	3159,52
472,3	3195,8
472,7	3213,12
473,2	3242,04
473,6	3270
474,1	3274,92
474,5	3280,92
475	3300,32
475,4	3316,84
475,9	3334,32
476,4	3353,08
476,8	3371,2
477,3	3392,6
477,7	3410,16
478,2	3422,8
478,6	3437,4
479,1	3449,96
479,5	3452,6
480	3458,16
480,4	3464,36
480,9	3472,32
481,3	3480,88
481,8	3494,8
482,2	3506
482,7	3509,8
483,1	3520,56
483,6	3522,72
484	3523,12
484,5	3521,44
484,9	3522,2
485,4	3519,68
485,8	3514,04
486,3	3508,76
486,7	3503,84
487,2	3495,72
487,6	3487,88
488,1	3490,44
488,5	3490,44
489	3485,88
489,4	3483,92
489,9	3478,24
490,4	3468,16
490,8	3448,8
491,3	3445,44
491,7	3435,28
492,2	3430,04
492,6	3420,16
493,1	3416,52
493,5	3400,76
494	3388,72
494,4	3373,4
494,9	3352,44
495,3	3338,12
495,8	3323,2
496,2	3312,28
496,7	3297,36
497,1	3283,96
497,6	3265,92
498	3249,2
498,5	3226,36
498,9	3203,96
499,4	3198,32
499,8	3184
500,3	3161,96
500,7	3149,52
501,2	3131,92
501,6	3098,96
502,1	3083,68
502,5	3067,96
503	3043,52
503,4	3029,04
503,9	3025,16
504,3	2993,96
504,8	2983,84
505,2	2966,68
505,7	2947,72
506,1	2927,6
506,6	2915,16
507	2886,56
507,5	2864,44
507,9	2836,24
508,4	2811,52
508,8	2793,12
509,3	2769,08
509,7	2748,4
510,2	2731,48
510,6	2704,64
511,1	2668,92
511,5	2650,56
512	2616,88
512,4	2592,96
512,9	2576,28
513,3	2559,52
513,8	2538,76
514,2	2518,4
514,7	2497,24
515,1	2467,12
515,6	2443,4
516	2412,6
516,5	2399,2
516,9	2375,68
517,4	2356,36
517,8	2338,96
518,3	2318,16
518,7	2290,72
519,2	2262,04
519,6	2235,32
520,1	2212,2
520,5	2193,16
521	2172,8
521,4	2150,56
521,9	2129,72
522,3	2101,2
522,8	2072,16
523,2	2049,24
523,7	2035,24
524,1	2010,88
524,6	1990,16
525	1979,28
525,5	1965,48
525,9	1942,72
526,4	1926,44
526,8	1904,24
527,3	1877,04
527,7	1846,12
528,2	1824,28
528,6	1807,92
529,1	1790,84
529,5	1777,84
530	1765,32
530,4	1747,12
530,9	1715,16
531,3	1699,64
531,8	1670,88
532,2	1648,84
532,6	1629,84
533,1	1616,32
533,5	1594,56
534	1576,6
534,4	1558,44
534,9	1537
535,3	1516,4
535,8	1505,36
536,2	1492,84
536,7	1476,72
537,1	1458,28
537,6	1450,64
538	1433,8
538,5	1418,16
538,9	1403
539,4	1383,8
539,8	1364,96
540,3	1344,88
540,7	1320,44
541,2	1300,84
541,6	1293,28
542,1	1275,52
542,5	1256,04
543	1235,12
543,4	1213,08
543,9	1192,24
544,3	1178,64
544,8	1165,36
545,2	1155,04
545,7	1152,8
546,1	1149,44
546,5	1130,36
547	1112,6
547,4	1100,16
547,9	1082,6
548,3	1060,4
548,8	1045,72
549,2	1036,8
549,7	1029,24
550,1	1020,48
550,6	1006,68
551	995,72
551,5	982,96
551,9	966,24
552,4	953,96
552,8	941,48
553,3	927,68
553,7	921,2
554,2	913,56
554,6	899,2
555,1	893,4
555,5	890,04
555,9	875,32
556,4	863,64
556,8	854,4
557,3	842,64
557,7	827,4
558,2	819,88
558,6	817,24
559,1	800,16
559,5	791,24
560	784,64
560,4	772,6
560,9	752,92
561,3	755,88
561,8	746,6
562,2	734,76
562,7	725,32
563,1	718,76
563,6	701,28
564	688,44
564,4	679,32
564,9	672,6
565,3	666,88
565,8	657,12
566,2	650,24
566,7	648,04
567,1	637,8
567,6	627,28
568	625,4
568,5	621,76
568,9	608,96
569,4	602,2
569,8	597,6
570,3	590,68
570,7	585,36
571,1	580,56
571,6	579,76
572	572,28
572,5	563,12
572,9	549,24
573,4	543,56
573,8	531,04
574,3	528,92
574,7	523,8
575,2	514,36
575,6	504,24
576,1	495,96
576,5	487,6
576,9	479,4
577,4	479,16
577,8	474,64
578,3	466,36
578,7	461,76
579,2	454,32
579,6	450,88
580,1	449,88
580,5	449,8
581	442,44
581,4	440,88
581,9	437,72
582,3	430,12
582,7	424,08
583,2	418,68
583,6	411,52
584,1	399
584,5	397,04
585	390,76
585,4	382,28
585,9	379,2
586,3	379,6
586,8	376,4
587,2	374,36
587,6	371,28
588,1	366,28
588,5	356,4
589	345,64
589,4	340,56
589,9	335,88
590,3	337,12
590,8	338,64
591,2	341,56
591,7	341,48
592,1	340,24
592,5	331,8
593	330,96
593,4	323,4
593,9	309,72
594,3	308,28
594,8	305,28
595,2	302,56
595,7	301,56
596,1	311,56
596,6	307,64
597	301,8
597,4	297,4
597,9	291,56
598,3	288,36
598,8	285,88
599,2	289,56
599,7	287,16
600,1	291,16
600,6	278,84
601	278,8
601,4	276,4
601,9	269,52
602,3	260,12
602,8	263,4
603,2	255,04
603,7	251,72
604,1	251,88
604,6	249,32
605	249,68
605,4	251,52
605,9	246,88
606,3	245,72
606,8	244,04
607,2	238,64
607,7	234,36
608,1	231,44
608,6	229,84
609	230,56
609,4	226,28
609,9	227,96
610,3	229,28
610,8	228,56
611,2	220,12
611,7	218,28
612,1	214,8
612,6	208,72
613	206,8
613,4	211,68
613,9	215,44
614,3	209,92
614,8	211,16
615,2	209,48
615,7	200,92
616,1	194,48
616,6	194,32
617	191,16
617,4	187,32
617,9	188,52
618,3	192,4
618,8	194,72
619,2	197,68
619,7	200,64
620,1	199,8
620,5	191,8
621	187,12
621,4	182,8
621,9	173,24
622,3	173,12
622,8	183,04
623,2	184,68
623,6	186,6
624,1	189,88
624,5	187,6
625	173,92
625,4	169,84
625,9	162
626,3	158,4
626,8	158,08
627,2	158,48
627,6	157,36
628,1	158,64
628,5	156,68
629	154,72
629,4	157,04
629,9	155,16
630,3	150,6
630,7	149,8
631,2	151,28
631,6	152,2
632,1	152,8
632,5	152,56
633	153,48
633,4	149,72
633,8	144,24
634,3	144,96
634,7	146
635,2	147,24
635,6	149
636,1	152,84
636,5	154,84
636,9	157,12
637,4	153,32
637,8	146,6
638,3	137,32
638,7	130,28
639,2	124,56
639,6	127,24
640	128,2
640,5	131
640,9	129,6
641,4	129,28
641,8	123,28
642,2	122
642,7	121,76
643,1	125,64
643,6	120,08
644	119,48
644,5	123,08
644,9	122,52
645,3	116,64
645,8	123,24
646,2	122,32
646,7	120,72
647,1	122,68
647,6	121,2
648	112,72
648,4	113,16
648,9	110,2
649,3	102,36
649,8	104,8
650,2	110,04
650,6	107,28
651,1	109,6
651,5	111,64
652	112,8
652,4	113,16
652,9	111,16
653,3	111,56
653,7	111,52
654,2	111,08
654,6	113,92
655,1	119,48
655,5	116,92
655,9	115,08
656,4	112
656,8	113,12
657,3	107,04
657,7	113,88
658,2	116
658,6	112,12
659	109,84
659,5	108,68
659,9	99,48
660,4	99,28
660,8	100
661,2	93,16
661,7	94,28
662,1	97,92
662,6	98,36
663	101,68
663,4	103,24
663,9	97,72
664,3	93,68
664,8	92,6
665,2	88,92
665,6	95,88
666,1	104,28
666,5	102,6
667	106,52
667,4	106,12
667,9	101,04
668,3	97,72
668,7	99,4
669,2	96,68
669,6	94,88
670,1	94,64
670,5	94,88
670,9	95,88
671,4	90,04
671,8	92,8
672,3	90,44
672,7	93,16
673,1	91,08
673,6	90,84
674	94,6
674,5	93,4
674,9	91,12
675,3	90,92
675,8	92,12
676,2	89,4
676,7	88,68
677,1	82
677,5	78,72
678	78,2
678,4	78,72
678,9	73,8
679,3	79,16
679,7	82,4
680,2	85,32
680,6	75,76
681,1	80,68
681,5	80,76
681,9	83
682,4	77,96
682,8	83,24
683,3	84,64
683,7	84,2
684,1	79
684,6	84,08
685	85,8
685,5	84,72
685,9	86,32
686,3	83,72
686,8	76,4
687,2	75,2
687,7	75,56
688,1	73,68
688,5	80,8
689	84,24
689,4	79,8
689,9	79,44
690,3	75,32
690,7	71,16
691,2	73,16
691,6	74,88
692	75,76
692,5	80,72
692,9	77,52
693,4	73,52
693,8	79,6
694,2	81,48
694,7	75,8
695,1	78,04
695,6	78,24
696	74,36
696,4	70,24
696,9	77,96
697,3	79,72
697,8	81,88
698,2	83,8
698,6	85,2
699,1	77,68
699,5	78,68
699,9	77,52
700,4	73,44
700,8	68
701,3	66,92
701,7	64,84
702,1	59,6
702,6	55,16
703	59,52
703,5	64,6
703,9	60,04
704,3	68,16
704,8	76,04
705,2	69,96
705,6	71,72
706,1	75,16
706,5	70,56
707	67,56
707,4	72,52
707,8	65,2
708,3	66,88
708,7	73,28
709,2	71,16
709,6	66,92
710	68,72
710,5	64,08
710,9	48,76
711,3	46,44
711,8	46,76
712,2	49,64
712,7	49,92
713,1	63,24
713,5	69,56
714	70,8
714,4	68,28
714,8	73,24
715,3	71,44
715,7	68,44
716,2	67,84
716,6	66,8
717	66,96
717,5	62,76
717,9	60,56
718,3	61,8
718,8	60,72
719,2	55,04
719,7	53,64
720,1	55
720,5	52,04
721	53,36
721,4	48,84
721,8	48,88
722,3	46,48
722,7	43,84
723,2	43,28
723,6	48,64
724	49,56
724,5	49,84
724,9	59,08
725,3	54,88
725,8	57,24
726,2	55,36
726,7	56,76
727,1	51,76
727,5	55,88
728	47,08
728,4	48,44
728,8	49,68
729,3	53,2
729,7	53,48
730,1	53,88
730,6	52,84
731	51
731,5	49,76
731,9	48,8
732,3	55,04
732,8	57,44
733,2	56,56
733,6	55,04
734,1	54,72
734,5	54,68
734,9	50,72
735,4	45,72
735,8	43,44
736,3	49,6
736,7	48,04
737,1	50,28
737,6	56,8
738	58,56
738,4	53,36
738,9	54,88
739,3	59,28
739,7	59,48
740,2	54,68
740,6	54,2
741,1	52,32
741,5	49,36
741,9	49,4
742,4	56,88
742,8	57,08
743,2	56,24
743,7	53,56
744,1	52,72
744,5	46,56
745	47,44
745,4	46,72
745,8	50,36
746,3	47,04
746,7	40,8
747,2	36,6
747,6	40,52
748	37,44
748,5	46,08
748,9	50,48
749,3	57,56
749,8	55,04
750,2	54,04
750,6	52,48
751,1	59,24
751,5	53,2
751,9	54,72
752,4	56,56
752,8	53,8
753,3	48,44
753,7	48,28
754,1	43,84
754,6	45,68
755	42,32
755,4	44,4
755,9	52,64
756,3	50,32
756,7	48,36
757,2	48,48
757,6	49,56
758	44,32
758,5	45,64
758,9	49,08
759,3	48,28
759,8	45,24
760,2	41,96
760,6	42,72
761,1	37
761,5	37,24
761,9	43,8
762,4	43,4
762,8	47,84
763,3	44,8
763,7	49,4
764,1	41,76
764,6	46
765	46
765,4	47,6
765,9	38,72
766,3	40,04
766,7	32,32
767,2	29,68
767,6	35,32
768	44,08
768,5	40,48
768,9	43,44
769,3	39,52
769,8	34,16
770,2	27,08
770,6	31,04
771,1	33,04
771,5	34,28
771,9	40,72
772,4	46,24
772,8	49,4
773,2	50,76
773,7	48,56
774,1	44,4
774,5	38,28
775	33,56
775,4	36,16
775,8	41,4
776,3	39,8
776,7	47,28
777,1	50,12
777,6	46,48
778	43,76
778,4	48,04
778,9	42,8
779,3	38,72
779,7	33,08
780,2	36,36
780,6	28,44
781	34,56
781,5	31,6
781,9	38,32
782,3	37,32
782,8	42,68
783,2	39,12
783,6	45,36
784,1	44,84
784,5	37,16
784,9	34,96
785,4	36,36
785,8	40,96
786,2	33,84
786,7	38,36
787,1	38,16
787,5	31
788	29,76
788,4	36
788,8	39,48
789,3	42,48
789,7	47,64
790,1	42,52
790,6	41,76
791	37,4
791,4	35,12
791,9	31,76
792,3	31,68
792,7	28
793,2	30,36
793,6	29,24
794	33,64
794,5	33,8
794,9	37,56
795,3	31,2
795,8	34,96
796,2	32,96
796,6	31,88
797,1	30,08
797,5	36,76
797,9	34,92
798,4	33,36
798,8	36,28
799,2	34,76
799,7	30,92
800,1	31,52
800,5	31,76
801	24,08
801,4	22,92
801,8	27,68
802,2	30,52
802,7	30,84
803,1	32,16
803,5	31,4
804	31,68
804,4	23,28
804,8	19,52
805,3	29,84
805,7	27,68
806,1	22,04
806,6	23,68
807	19,48
807,4	9,44
807,9	17,8
808,3	18,72
808,7	20,2
809,2	28,52
809,6	28,84
810	24,92
810,4	29,2
810,9	26,2
811,3	23,2
811,7	27,52
812,2	31,04
812,6	24,72
813	27,56
813,5	30,76
813,9	29,8
814,3	26,96
814,8	33,16
815,2	27,2
815,6	19,56
816,1	17,48
816,5	18,32
816,9	18,04
817,3	19,52
817,8	20,64
818,2	17,16
818,6	16
819,1	12,12
819,5	18,16
819,9	21,56
820,4	24,84
820,8	23
821,2	25,56
821,7	25,48
822,1	27,84
822,5	25,56
822,9	21,2
823,4	21
823,8	23,88
824,2	22,12
824,7	24,84
825,1	29,4
825,5	28,04
826	22,24
826,4	17,32
826,8	18,16
827,3	16,56
827,7	9,48
828,1	9,52
828,5	12,76
829	14,12
829,4	13,08
829,8	17,8
830,3	21,84
830,7	25,04
831,1	20,04
831,6	25,4
832	27,08
832,4	22,48
832,8	21,72
833,3	29,08
833,7	27,68
834,1	26,68
834,6	24,8
835	27,48
835,4	26,28
835,8	30,04
836,3	29,72
836,7	36,88
837,1	27,84
837,6	23
838	19,36
838,4	18,36
838,9	9,52
839,3	11,68
839,7	14,16
840,1	13
840,6	12,28
841	18
841,4	18
841,9	16,8
842,3	12,52
842,7	17,4
843,1	17,76
843,6	14,16
844	15,12
844,4	18,68
844,9	15,2
845,3	10,96
845,7	18,04
846,2	17,72
846,6	18,36
847	16,04
847,4	13,8
847,9	11,84
848,3	6,32
848,7	8,32
849,2	11,88
849,6	17,08
850	18,88
850,4	20,96
850,9	16,76
851,3	19,32
851,7	10,32
852,2	9,44
852,6	10,08
853	10,04
853,4	8,6
853,9	13,96
854,3	16,44
854,7	16,88
855,2	18,88
855,6	17,6
856	20,96
856,4	19,24
856,9	17,56
857,3	15,6
857,7	14,64
858,2	14,04
858,6	11,16
859	9,64
859,4	14,12
859,9	10,44
860,3	10,2
860,7	14,36
861,1	13,96
861,6	9,32
862	11
862,4	10,24
862,9	4,32
863,3	8,96
863,7	9
864,1	13,44
864,6	13,84
865	16,96
865,4	13,04
865,9	15,2
866,3	10,04
866,7	6,6
867,1	7,52
867,6	3,56
868	2,64
868,4	8,88
868,8	10,72
869,3	9,64
869,7	9,48
870,1	5,48
870,6	-4,44
871	-4,2
871,4	-25,88
871,8	-24,2
872,3	-24,28
872,7	-19
873,1	-15
873,5	10,48
874	9,6
874,4	11,24
874,8	8,56
875,3	10,08
875,7	9,52
876,1	12,52
876,5	13,4
877	20,32
877,4	13,48
877,8	4,72
878,2	10
878,7	13,32
879,1	12,44
879,5	12,76
879,9	15,88
880,4	17,08
880,8	14,64
881,2	11,8
881,7	6,28
882,1	7,6
882,5	0,28
882,9	-2,16
883,4	-1,88
883,8	6,6
884,2	8,64
884,6	14,88
885,1	14,56
885,5	15,4
885,9	12,44
886,3	10,68
886,8	7,4
887,2	8,8
887,6	8,6
888	1,68
888,5	-1,92
888,9	-0
889,3	1,4
889,8	-4,68
890,2	0,6
890,6	2,24
891	-5,12
891,5	-5,72
891,9	1,64
892,3	4
892,7	4,44
893,2	16,24
893,6	19,48
894	18,36
894,4	14,52
894,9	14,88
895,3	4,56
895,7	4,48
896,1	4
896,6	11,44
897	11,12
897,4	15,08
897,8	12,44
898,3	8,96
898,7	12,64
899,1	12,8
899,5	14,08
900	10,28
900,4	15,44
900,8	3,76
901,2	7,96
901,7	8,48
902,1	9,4
902,5	5,24
902,9	5,84
903,4	4,08
903,8	-1
904,2	6,92
904,6	5,64
905,1	11,48
905,5	6,44
905,9	10,4
906,3	3,16
906,8	9,76
907,2	3,44
907,6	4,56
908	0,88
908,5	4,04
908,9	-3,24
909,3	-0,92
909,7	-0,76
910,2	2,28
910,6	1,6
911	5,36
911,4	1,84
911,9	5,08
912,3	5,68
912,7	4,08
913,1	4,84
913,6	9,92
914	6,24
914,4	1,36
914,8	-0,64
915,3	-2,04
915,7	-0,12
916,1	-1,84
916,5	3,8
916,9	5,16
917,4	6,04
917,8	0,16
918,2	8,16
918,6	2,24
919,1	1,2
919,5	0,52
919,9	6,64
920,3	4,4
920,8	7,28
921,2	-0,64
921,6	-6,8
922	-9,28
922,5	-6,88
922,9	-9,76
923,3	1,12
923,7	5,04
924,2	4,64
924,6	-0,96
925	2,8
925,4	0,28
925,8	1,2
926,3	2,48
926,7	-0,32
927,1	6
927,5	4,92
928	3,92
928,4	3,2
928,8	8,28
929,2	2,16
929,7	8,44
930,1	6,24
930,5	6,24
930,9	3,32
931,3	0,04
931,8	-7,52
932,2	-8,56
932,6	-15,12
933	-12,36
933,5	-12,72
933,9	-3,68
934,3	-3,28
934,7	1,4
935,2	3,56
935,6	3,8
936	-2
936,4	-4,48
936,8	-5,24
937,3	-6,12
937,7	-7,6
938,1	-12,08
938,5	-7,44
939	-5,04
939,4	-12,44
939,8	-6,92
940,2	-1,08
940,6	0,36
941,1	-4,4
941,5	1,04
941,9	-2,2
942,3	1,92
942,8	2,84
943,2	8,84
943,6	-0,04
944	2,84
944,4	-6,32
944,9	-8,2
945,3	-13,28
945,7	-8,28
946,1	-13,2
946,6	-14,88
947	-13,84
947,4	-8,88
947,8	-4,2
948,2	1,24
948,7	0,92
949,1	3,8
949,5	4,16
949,9	3,56
950,3	2,96
950,8	10,72
951,2	8,32
951,6	4,56
952	-0,16
952,5	-0,44
952,9	1,24
953,3	-2,12
953,7	-1,76
954,1	3,64
954,6	3,96
955	2,44
955,4	3,52
955,8	8,08
956,2	1,44
956,7	-3,36
957,1	-6,64
957,5	-5,24
957,9	-7,52
958,3	-1,96
958,8	0,76
959,2	0,48
959,6	-0,84
960	-6,56
960,5	-2,88
960,9	0,2
961,3	1,48
961,7	6,12
962,1	10,88
962,6	10,16
963	12,68
963,4	19,64
963,8	17,2
964,2	13,76
964,7	12,72
965,1	2,84
965,5	-8,28
965,9	-8,8
966,3	0,2
966,8	-0,84
967,2	5,12
967,6	10,96
968	11,44
968,4	5,44
968,9	1,12
969,3	3,4
969,7	-0,6
970,1	-1,24
970,5	-2,52
971	5,12
971,4	1,84
971,8	3,4
972,2	3,04
972,6	2
973,1	-7,88
973,5	-10,04
973,9	-12,68
974,3	-11,92
974,7	-5,52
975,2	-5,24
975,6	-1,04
976	2,48
976,4	0,08
976,8	-2,68
977,3	-0,8
977,7	0,28
978,1	-1,36
978,5	8,72
978,9	3,48
979,4	11,44
979,8	14,12
980,2	18,4
980,6	12,4
981	17,32
981,5	12,8
981,9	6,96
982,3	5,24
982,7	4,96
983,1	6,24
983,6	9,84
984	11,2
984,4	12,2
984,8	9,48
985,2	12
985,6	9,36
986,1	3,24
986,5	-3,16
986,9	-3,24
987,3	-10,68
987,7	-14,64
988,2	-10,92
988,6	-4,04
989	-3,68
989,4	-6,04
989,8	-2,32
990,3	-4,64
990,7	-5,32
991,1	-2,12
991,5	6,16
991,9	5,72
992,3	9,76
992,8	8,64
993,2	11,32
993,6	12,36
994	9,2
994,4	8,68
994,9	7,4
995,3	1,76
995,7	-5,32
996,1	0,28
996,5	1,84
996,9	-5,2
997,4	-3,08
997,8	-2,56
998,2	-8,36
998,6	-14,4
999	-5,4
999,5	-9,24
999,9	-6,24
1000,3	-5,32
1000,7	-2,76
1001,1	-1,68
1001,5	2,8
1002	-0,44
1002,4	2,12
1002,8	0,8
1003,2	-1
1003,6	-1,08
1004	-0,16
1004,5	-2,88
1004,9	0,4
1005,3	-4,04
1005,7	-5
1006,1	-7,4
1006,6	-6,08
1007	-9,16
1007,4	-3,96
1007,8	-7,52
1008,2	-7,36
1008,6	-5,76
1009,1	-5,48
1009,5	-8,76
1009,9	-4,84
1010,3	-1,64
1010,7	-0,32
1011,1	2,08
1011,6	10,52
1012	6,68
1012,4	6,12
1012,8	1,2
1013,2	-1,2
1013,6	-7,52
1014,1	-0,2
1014,5	5,16
1014,9	5,4
1015,3	9,56
1015,7	8,04
1016,1	-2,24
1016,6	-9
1017	-5
1017,4	-1,24
1017,8	2,32
1018,2	11,12
1018,6	9,04
1019,1	10,44
1019,5	12,4
1019,9	14,8
1020,3	9,12
1020,7	11,32
1021,1	7,48
1021,6	2,84
1022	0,4
1022,4	5,36
1022,8	8,12
1023,2	8,24
1023,6	5,16
1024,1	4
1024,5	0,48
1024,9	-3,04
1025,3	-6,08
1025,7	-5,32
1026,1	-6,36
1026,6	-6,56
1027	-0,8
1027,4	1
1027,8	4,92
1028,2	3,16
1028,6	8,24
1029	5,2
1029,5	7,56
1029,9	2,84
1030,3	7,04
1030,7	3,96
1031,1	3,52
1031,5	-5,24
1032	-7,2
1032,4	-9,12
1032,8	-12,4
1033,2	-10,88
1033,6	-5,04
1034	-0,44
1034,4	-2,96
1034,9	-0,68
1035,3	-7,48
1035,7	-6,56
1036,1	-12,36
1036,5	-9,48
1036,9	-7,24
1037,4	-2,36
1037,8	0,36
1038,2	1,2
1038,6	-2,2
1039	-5,2
1039,4	-2,68
1039,8	-7,28
1040,3	-5,76
1040,7	-0,64
1041,1	-2,44
1041,5	-7,84
1041,9	-3,12
1042,3	-4,76
1042,7	-4,08
1043,2	-0,56
1043,6	1,64
1044	-1,24
1044,4	3,04
1044,8	3,64
1045,2	4
1045,6	10,8
1046,1	12,52
1046,5	12,32
1046,9	5,88
1047,3	9,72
1047,7	7,16
1048,1	8,36
1048,5	6,96
1049	9,16
1049,4	4,92
1049,8	3,6
1050,2	11
1050,6	15,08
1051	16,88
1051,4	15,4
1051,9	13,88
1052,3	6,36
1052,7	-1,08
1053,1	-3,96
1053,5	-8,64
1053,9	-7,8
1054,3	-11,24
1054,8	-10,04
1055,2	-8,52
1055,6	-4,52
1056	-6,08
1056,4	-7,64
1056,8	-3,24
1057,2	-0,32
1057,6	1,44
1058,1	0,8
1058,5	-2,4
1058,9	-3,16
1059,3	-5,64
1059,7	-9,56
1060,1	-8,36
1060,5	-4
1061	-6,88
1061,4	-8,88
1061,8	-2,4
1062,2	-1,28
1062,6	1,08
1063	5,08
1063,4	4,4
1063,8	5,84
1064,3	5,48
1064,7	5,8
1065,1	4,68
1065,5	8,88
1065,9	0,68
1066,3	2,84
1066,7	-0,92
1067,1	-6,88
1067,6	-8,8
1068	-5,2
1068,4	-8,36
1068,8	-7,76
1069,2	0,92
1069,6	1,92
1070	7,52
1070,4	3,56
1070,9	-1,4
1071,3	-6,48
1071,7	-6
1072,1	-14,36
1072,5	-11,68
1072,9	-2,96
1073,3	-3,92
1073,7	-7,24
1074,2	-6,8
1074,6	-3,28
1075	-6,16
1075,4	0,28
1075,8	-3,6
1076,2	0
1076,6	-3,08
1077	-1,68
1077,5	-8,88
1077,9	-2
1078,3	-4,2
1078,7	1
1079,1	2,52
1079,5	6,44
1079,9	5,28
1080,3	6,44
1080,7	5,44
1081,2	1,8
1081,6	3,68
1082	-2,28
1082,4	-1,52
1082,8	-1,8
1083,2	7,88
1083,6	6,8
1084	12,68
1084,5	9,6
1084,9	7,92
1085,3	1,04
1085,7	-1,88
1086,1	-3,68
1086,5	-8,84
1086,9	-13
1087,3	-13,48
1087,7	-13,24
1088,2	-6,72
1088,6	-2,72
1089	-1,2
1089,4	-6,76
1089,8	-7,16
1090,2	-11,84
1090,6	-9,32
1091	-10,08
1091,4	-3
1091,9	-0,68
1092,3	0,28
1092,7	1,52
1093,1	6,8
1093,5	1,48
1093,9	-0,04
1094,3	0,48
1094,7	-1,44
1095,1	-2,72
1095,5	-1,04
1096	-1,88
1096,4	-3,72
1096,8	-1,24
1097,2	-3,36
1097,6	3,08
1098	5,6
1098,4	5,64
1098,8	10,88
1099,2	15,4
1099,6	10,08
1100,1	11,68
1100,5	14,6
1100,9	8,72
1101,3	5,6
1101,7	4,48
1102,1	-0,32
1102,5	-5,04
1102,9	-7,76
1103,3	-8,68
1103,7	-7,04
1104,2	-7,56
1104,6	-7,52
1105	-5,28
1105,4	-4,48
1105,8	-1,96
1106,2	0,6
1106,6	1,92
1107	2,36
1107,4	2,4
1107,8	0,15
1108,3	0,333
