Data from Subt2_00027.txt Node
Date: Fri Aug 11 15:41:55 MSK 2023
User: vat
Spectrometer: MAYP114033
Trigger mode: 0
Integration Time (sec): 5,000000E-1
Scans to average: 5
Electric dark correction enabled: true
Nonlinearity correction enabled: false
Boxcar width: 2
XAxis mode: Wavelengths
Number of Pixels in Spectrum: 2068
>>>>>Begin Spectral Data<<<<<
199,4	-0,433
199,9	0,133
200,4	-10,687
200,8	-14,207
201,3	-19,767
201,8	-27,447
202,2	-35,887
202,7	-35,687
203,2	-41,767
203,6	-45,887
204,1	-47,887
204,6	-48,847
205	-48,807
205,5	-50,447
206	-45,167
206,4	-47,847
206,9	-54,127
207,4	-59,087
207,8	-53,447
208,3	-58,887
208,8	-57,287
209,2	-54,647
209,7	-52,887
210,2	-62,807
210,6	-64,007
211,1	-65,127
211,5	-62,127
212	-63,767
212,5	-61,367
212,9	-63,127
213,4	-63,167
213,9	-71,327
214,3	-66,527
214,8	-73,207
215,3	-67,167
215,7	-69,567
216,2	-68,367
216,7	-72,687
217,1	-66,487
217,6	-76,087
218,1	-75,967
218,5	-71,767
219	-71,367
219,5	-75,607
219,9	-72,247
220,4	-65,407
220,9	-65,567
221,3	-61,767
221,8	-57,607
222,3	-59,687
222,7	-68,007
223,2	-66,727
223,6	-72,087
224,1	-69,127
224,6	-69,847
225	-69,487
225,5	-72,207
226	-71,767
226,4	-72,207
226,9	-67,327
227,4	-63,767
227,8	-63,367
228,3	-61,487
228,8	-65,487
229,2	-69,367
229,7	-78,567
230,2	-79,767
230,6	-79,727
231,1	-79,367
231,5	-79,687
232	-74,007
232,5	-69,727
232,9	-70,327
233,4	-71,167
233,9	-72,407
234,3	-74,327
234,8	-76,447
235,3	-73,527
235,7	-75,047
236,2	-71,727
236,7	-72,167
237,1	-70,087
237,6	-74,047
238,1	-72,647
238,5	-77,527
239	-76,887
239,4	-77,287
239,9	-75,207
240,4	-74,127
240,8	-72,247
241,3	-72,687
241,8	-78,047
242,2	-82,967
242,7	-86,487
243,2	-83,127
243,6	-84,087
244,1	-83,407
244,6	-74,967
245	-68,607
245,5	-71,007
245,9	-63,527
246,4	-62,607
246,9	-71,447
247,3	-79,207
247,8	-72,447
248,3	-74,127
248,7	-69,847
249,2	-60,927
249,7	-53,327
250,1	-61,207
250,6	-62,847
251	-66,207
251,5	-69,847
252	-76,727
252,4	-68,847
252,9	-70,727
253,4	-72,047
253,8	-72,407
254,3	-71,887
254,8	-80,647
255,2	-77,727
255,7	-77,207
256,1	-73,487
256,6	-66,487
257,1	-66,087
257,5	-67,847
258	-65,007
258,5	-64,927
258,9	-68,567
259,4	-63,767
259,9	-67,527
260,3	-71,167
260,8	-75,487
261,2	-79,367
261,7	-79,927
262,2	-73,167
262,6	-75,647
263,1	-76,927
263,6	-71,607
264	-73,927
264,5	-76,127
264,9	-68,647
265,4	-71,207
265,9	-67,727
266,3	-67,007
266,8	-63,567
267,3	-69,407
267,7	-58,367
268,2	-62,567
268,7	-58,087
269,1	-62,727
269,6	-60,487
270	-60,007
270,5	-58,927
271	-67,527
271,4	-61,287
271,9	-61,967
272,4	-67,647
272,8	-73,247
273,3	-69,407
273,7	-74,487
274,2	-74,007
274,7	-75,647
275,1	-68,847
275,6	-65,127
276,1	-72,567
276,5	-76,287
277	-77,327
277,4	-86,727
277,9	-86,887
278,4	-80,047
278,8	-77,167
279,3	-80,327
279,8	-69,927
280,2	-71,407
280,7	-70,887
281,1	-68,047
281,6	-63,927
282,1	-71,047
282,5	-80,447
283	-84,247
283,4	-86,167
283,9	-85,727
284,4	-86,167
284,8	-80,047
285,3	-79,567
285,8	-78,327
286,2	-77,607
286,7	-72,807
287,1	-70,047
287,6	-69,527
288,1	-70,887
288,5	-73,727
289	-73,767
289,5	-72,647
289,9	-66,207
290,4	-64,447
290,8	-63,687
291,3	-62,127
291,8	-61,367
292,2	-67,007
292,7	-68,247
293,1	-70,127
293,6	-73,447
294,1	-73,367
294,5	-72,607
295	-75,327
295,5	-69,927
295,9	-66,847
296,4	-70,807
296,8	-77,207
297,3	-70,847
297,8	-78,967
298,2	-77,887
298,7	-83,367
299,1	-67,927
299,6	-70,127
300,1	-64,167
300,5	-65,847
301	-57,647
301,5	-69,847
301,9	-69,727
302,4	-71,287
302,8	-72,727
303,3	-74,887
303,8	-75,167
304,2	-78,407
304,7	-81,167
305,1	-80,727
305,6	-82,327
306,1	-80,247
306,5	-83,807
307	-72,647
307,4	-71,567
307,9	-71,767
308,4	-66,727
308,8	-62,807
309,3	-73,327
309,8	-71,967
310,2	-72,247
310,7	-77,487
311,1	-77,567
311,6	-71,607
312,1	-71,847
312,5	-67,167
313	-59,767
313,4	-57,727
313,9	-52,367
314,4	-52,447
314,8	-54,007
315,3	-57,487
315,7	-61,847
316,2	-68,727
316,7	-71,487
317,1	-71,087
317,6	-78,527
318	-71,887
318,5	-74,327
319	-72,207
319,4	-75,607
319,9	-68,727
320,3	-70,807
320,8	-76,847
321,3	-79,447
321,7	-74,807
322,2	-70,847
322,6	-69,127
323,1	-62,047
323,6	-59,247
324	-61,447
324,5	-63,047
324,9	-67,967
325,4	-63,127
325,9	-65,327
326,3	-60,167
326,8	-62,447
327,2	-65,007
327,7	-74,167
328,2	-73,567
328,6	-79,407
329,1	-80,087
329,5	-74,847
330	-65,727
330,5	-64,167
330,9	-65,047
331,4	-63,607
331,8	-65,687
332,3	-70,727
332,8	-69,247
333,2	-70,527
333,7	-71,247
334,1	-68,487
334,6	-61,767
335,1	-62,047
335,5	-57,007
336	-61,367
336,4	-62,887
336,9	-71,727
337,4	-71,847
337,8	-73,527
338,3	-68,047
338,7	-69,767
339,2	-62,647
339,7	-64,967
340,1	-67,407
340,6	-64,367
341	-60,727
341,5	-68,607
342	-67,487
342,4	-63,487
342,9	-63,927
343,3	-68,087
343,8	-62,807
344,2	-65,367
344,7	-67,527
345,2	-72,927
345,6	-64,527
346,1	-64,127
346,5	-64,647
347	-64,847
347,5	-63,367
347,9	-61,847
348,4	-58,047
348,8	-52,007
349,3	-45,567
349,8	-37,047
350,2	-34,007
350,7	-37,447
351,1	-27,807
351,6	-20,687
352	-12,847
352,5	0,673
353	29,673
353,4	49,993
353,9	75,393
354,3	105,873
354,8	141,433
355,3	184,273
355,7	238,393
356,2	297,713
356,6	362,033
357,1	438,433
357,5	525,553
358	618,753
358,5	736,033
358,9	875,193
359,4	1026,193
359,8	1189,953
360,3	1389,713
360,8	1603,553
361,2	1832,353
361,7	2087,633
362,1	2373,473
362,6	2677,233
363	3003,113
363,5	3354,313
364	3721,313
364,4	4097,393
364,9	4475,433
365,3	4850,233
365,8	5209,273
366,3	5541,233
366,7	5841,153
367,2	6088,633
367,6	6293,473
368,1	6439,313
368,5	6541,073
369	6575,393
369,5	6572,593
369,9	6506,233
370,4	6402,913
370,8	6240,673
371,3	6045,353
371,7	5813,793
372,2	5559,033
372,7	5279,113
373,1	4988,633
373,6	4684,233
374	4370,393
374,5	4063,873
374,9	3759,433
375,4	3473,113
375,9	3203,673
376,3	2946,233
376,8	2700,353
377,2	2477,033
377,7	2259,393
378,2	2058,353
378,6	1876,633
379,1	1713,593
379,5	1556,033
380	1414,393
380,4	1293,673
380,9	1180,553
381,4	1071,153
381,8	972,713
382,3	891,473
382,7	813,753
383,2	748,793
383,6	685,033
384,1	634,953
384,6	583,153
385	535,593
385,5	490,633
385,9	454,753
386,4	422,073
386,8	389,713
387,3	351,393
387,7	316,113
388,2	290,713
388,7	262,513
389,1	229,553
389,6	207,633
390	187,753
390,5	163,033
390,9	144,673
391,4	126,993
391,9	110,113
392,3	97,273
392,8	84,353
393,2	73,633
393,7	67,553
394,1	64,153
394,6	51,273
395,1	48,753
395,5	36,833
396	30,473
396,4	15,473
396,9	8,953
397,3	2,073
397,8	-5,287
398,2	-10,287
398,7	-6,767
399,2	-18,007
399,6	-22,727
400,1	-28,327
400,5	-26,527
401	-32,327
401,4	-29,247
401,9	-29,167
402,4	-27,727
402,8	-35,167
403,3	-37,287
403,7	-38,487
404,2	-44,727
404,6	-47,247
405,1	-44,847
405,5	-49,327
406	-46,927
406,5	-46,527
406,9	-45,727
407,4	-51,007
407,8	-50,007
408,3	-46,247
408,7	-48,647
409,2	-41,327
409,6	-41,887
410,1	-41,447
410,6	-49,567
411	-48,727
411,5	-53,327
411,9	-48,127
412,4	-46,647
412,8	-46,607
413,3	-53,647
413,7	-51,727
414,2	-48,567
414,7	-50,087
415,1	-45,367
415,6	-35,487
416	-35,247
416,5	-34,927
416,9	-29,767
417,4	-27,447
417,8	-20,367
418,3	-23,687
418,8	-23,607
419,2	-21,967
419,7	-19,487
420,1	-29,687
420,6	-27,527
421	-31,167
421,5	-31,567
421,9	-31,727
422,4	-25,647
422,8	-18,087
423,3	-14,687
423,8	-9,767
424,2	-7,047
424,7	-6,447
425,1	-7,767
425,6	-7,047
426	-9,327
426,5	-8,607
426,9	-5,847
427,4	-1,567
427,9	-0,367
428,3	1,113
428,8	3,593
429,2	3,113
429,7	7,513
430,1	13,513
430,6	15,273
431	14,313
431,5	18,033
431,9	7,673
432,4	8,353
432,8	8,313
433,3	16,313
433,8	19,473
434,2	27,753
434,7	35,793
435,1	47,273
435,6	45,753
436	47,113
436,5	55,433
436,9	55,313
437,4	59,713
437,8	68,713
438,3	72,473
438,8	74,713
439,2	77,713
439,7	77,793
440,1	83,033
440,6	86,873
441	90,833
441,5	93,913
441,9	102,913
442,4	103,353
442,8	112,433
443,3	117,793
443,7	125,113
444,2	128,993
444,7	136,913
445,1	151,433
445,6	166,833
446	181,033
446,5	198,433
446,9	209,953
447,4	214,833
447,8	216,153
448,3	219,713
448,7	217,193
449,2	228,673
449,6	235,873
450,1	244,513
450,6	251,033
451	264,393
451,5	263,633
451,9	274,033
452,4	289,113
452,8	306,633
453,3	313,993
453,7	326,353
454,2	335,593
454,6	341,153
455,1	343,633
455,5	358,313
456	371,793
456,4	382,713
456,9	392,033
457,3	411,473
457,8	420,233
458,3	434,353
458,7	450,633
459,2	472,753
459,6	481,833
460,1	498,913
460,5	513,913
461	525,753
461,4	537,193
461,9	555,033
462,3	566,593
462,8	583,433
463,2	600,073
463,7	604,273
464,1	624,673
464,6	641,433
465	655,833
465,5	661,673
466	677,073
466,4	683,073
466,9	694,673
467,3	709,233
467,8	726,633
468,2	749,273
468,7	761,473
469,1	771,353
469,6	779,993
470	795,753
470,5	806,513
470,9	818,433
471,4	834,433
471,8	845,033
472,3	854,993
472,7	859,873
473,2	866,713
473,6	871,673
474,1	879,913
474,5	887,993
475	902,073
475,4	916,273
475,9	931,553
476,4	943,433
476,8	958,553
477,3	968,233
477,7	975,033
478,2	973,673
478,6	977,993
479,1	983,393
479,5	989,833
480	994,353
480,4	1005,513
480,9	1008,633
481,3	1017,233
481,8	1023,673
482,2	1028,993
482,7	1027,593
483,1	1033,833
483,6	1032,353
484	1037,953
484,5	1041,353
484,9	1047,873
485,4	1044,633
485,8	1043,753
486,3	1036,433
486,7	1035,473
487,2	1035,113
487,6	1043,633
488,1	1045,273
488,5	1049,273
489	1052,313
489,4	1055,873
489,9	1054,393
490,4	1047,753
490,8	1050,713
491,3	1050,433
491,7	1052,153
492,2	1047,593
492,6	1046,553
493,1	1043,353
493,5	1040,593
494	1037,633
494,4	1032,913
494,9	1034,433
495,3	1028,033
495,8	1029,033
496,2	1023,153
496,7	1022,153
497,1	1012,873
497,6	1000,913
498	987,113
498,5	979,633
498,9	975,553
499,4	976,393
499,8	970,753
500,3	965,273
500,7	958,033
501,2	946,993
501,6	934,113
502,1	934,153
502,5	930,433
503	929,073
503,4	921,073
503,9	920,593
504,3	906,633
504,8	895,193
505,2	885,153
505,7	882,273
506,1	872,673
506,6	868,593
507	863,473
507,5	860,513
507,9	854,033
508,4	850,873
508,8	847,513
509,3	845,433
509,7	830,153
510,2	824,113
510,6	814,273
511,1	806,633
511,5	792,673
512	790,153
512,4	776,153
512,9	765,193
513,3	758,553
513,8	759,353
514,2	755,713
514,7	751,073
515,1	743,793
515,6	731,473
516	725,113
516,5	711,473
516,9	707,033
517,4	704,353
517,8	701,113
518,3	696,633
518,7	694,753
519,2	688,633
519,6	681,473
520,1	676,113
520,5	667,353
521	660,473
521,4	651,153
521,9	642,753
522,3	632,713
522,8	622,913
523,2	618,273
523,7	618,793
524,1	612,993
524,6	607,233
525	594,473
525,5	585,353
525,9	577,433
526,4	566,313
526,8	560,513
527,3	553,633
527,7	543,753
528,2	533,113
528,6	533,113
529,1	530,273
529,5	525,033
530	523,593
530,4	523,673
530,9	517,913
531,3	508,873
531,8	512,993
532,2	507,833
532,6	500,553
533,1	489,233
533,5	484,513
534	474,433
534,4	463,993
534,9	451,073
535,3	459,673
535,8	456,913
536,2	446,073
536,7	442,153
537,1	440,433
537,6	426,993
538	416,353
538,5	409,393
538,9	411,073
539,4	410,753
539,8	404,673
540,3	400,513
540,7	402,753
541,2	391,353
541,6	380,913
542,1	375,953
542,5	382,833
543	377,473
543,4	374,233
543,9	370,473
544,3	367,313
544,8	353,433
545,2	357,913
545,7	359,073
546,1	359,833
546,5	362,113
547	358,033
547,4	349,553
547,9	343,953
548,3	336,273
548,8	329,273
549,2	328,913
549,7	321,153
550,1	315,193
550,6	313,233
551	307,433
551,5	305,553
551,9	303,193
552,4	304,273
552,8	300,993
553,3	292,673
553,7	288,433
554,2	285,073
554,6	284,153
555,1	279,593
555,5	281,593
555,9	277,353
556,4	280,593
556,8	277,073
557,3	275,793
557,7	270,913
558,2	271,673
558,6	264,153
559,1	256,633
559,5	254,553
560	257,273
560,4	250,833
560,9	247,713
561,3	242,753
561,8	243,793
562,2	241,233
562,7	233,153
563,1	232,273
563,6	235,993
564	233,873
564,4	232,033
564,9	234,633
565,3	231,953
565,8	225,393
566,2	217,353
566,7	212,233
567,1	204,073
567,6	203,313
568	204,753
568,5	206,593
568,9	198,753
569,4	206,513
569,8	202,993
570,3	199,873
570,7	198,633
571,1	200,313
571,6	196,993
572	196,433
572,5	194,153
572,9	189,473
573,4	192,833
573,8	190,633
574,3	186,873
574,7	187,153
575,2	189,113
575,6	187,033
576,1	188,233
576,5	183,033
576,9	179,513
577,4	174,513
577,8	168,233
578,3	159,873
578,7	165,313
579,2	163,753
579,6	164,833
580,1	161,033
580,5	164,633
581	161,593
581,4	155,553
581,9	153,073
582,3	154,233
582,7	152,833
583,2	146,753
583,6	149,873
584,1	146,273
584,5	141,233
585	138,313
585,4	134,793
585,9	138,553
586,3	132,553
586,8	134,233
587,2	128,673
587,6	136,233
588,1	128,193
588,5	130,113
589	136,553
589,4	143,993
589,9	145,873
590,3	144,193
590,8	147,953
591,2	134,833
591,7	130,633
592,1	128,513
592,5	125,353
593	117,113
593,4	120,113
593,9	116,873
594,3	105,953
594,8	103,313
595,2	112,833
595,7	117,033
596,1	120,113
596,6	128,313
597	133,433
597,4	131,513
597,9	130,273
598,3	126,793
598,8	122,993
599,2	118,433
599,7	113,073
600,1	108,833
600,6	106,673
601	99,313
601,4	99,393
601,9	99,393
602,3	101,553
602,8	100,673
603,2	99,913
603,7	103,873
604,1	97,993
604,6	93,113
605	93,913
605,4	97,633
605,9	96,713
606,3	104,953
606,8	106,873
607,2	107,713
607,7	104,873
608,1	100,113
608,6	103,193
609	103,113
609,4	99,553
609,9	94,313
610,3	95,033
610,8	86,593
611,2	81,353
611,7	85,993
612,1	94,633
612,6	95,553
613	91,153
613,4	95,233
613,9	87,993
614,3	82,793
614,8	80,313
615,2	80,273
615,7	81,153
616,1	79,673
616,6	77,793
617	75,153
617,4	73,113
617,9	70,393
618,3	63,393
618,8	61,793
619,2	62,073
619,7	68,873
620,1	62,233
620,5	73,993
621	72,833
621,4	75,993
621,9	69,033
622,3	70,473
622,8	67,193
623,2	61,913
623,6	56,873
624,1	57,113
624,5	57,113
625	58,633
625,4	65,633
625,9	67,193
626,3	69,833
626,8	67,793
627,2	65,153
627,6	68,433
628,1	64,353
628,5	61,233
629	63,873
629,4	58,113
629,9	54,913
630,3	55,233
630,7	54,673
631,2	51,193
631,6	53,393
632,1	54,513
632,5	51,433
633	50,833
633,4	49,353
633,8	40,473
634,3	36,553
634,7	37,633
635,2	29,953
635,6	30,393
636,1	41,393
636,5	42,393
636,9	41,273
637,4	47,153
637,8	51,193
638,3	42,793
638,7	37,713
639,2	37,713
639,6	36,833
640	36,233
640,5	41,793
640,9	38,873
641,4	34,513
641,8	33,553
642,2	28,673
642,7	27,913
643,1	28,113
643,6	31,233
644	31,793
644,5	33,273
644,9	35,153
645,3	40,353
645,8	39,233
646,2	38,873
646,7	39,353
647,1	34,433
647,6	28,233
648	27,833
648,4	35,513
648,9	34,193
649,3	30,033
649,8	39,353
650,2	46,793
650,6	38,233
651,1	35,473
651,5	45,113
652	43,113
652,4	33,193
652,9	23,593
653,3	24,713
653,7	21,153
654,2	17,553
654,6	24,393
655,1	31,953
655,5	31,353
655,9	31,113
656,4	33,233
656,8	21,673
657,3	17,393
657,7	18,593
658,2	15,193
658,6	11,713
659	14,673
659,5	17,913
659,9	15,593
660,4	12,993
660,8	12,113
661,2	12,913
661,7	15,993
662,1	22,313
662,6	16,633
663	17,553
663,4	20,113
663,9	20,993
664,3	14,073
664,8	22,393
665,2	20,793
665,6	15,513
666,1	10,633
666,5	10,113
667	13,633
667,4	11,313
667,9	20,153
668,3	18,553
668,7	17,553
669,2	12,353
669,6	16,273
670,1	13,913
670,5	13,033
670,9	13,473
671,4	6,153
671,8	7,953
672,3	2,193
672,7	4,073
673,1	1,753
673,6	15,393
674	11,433
674,5	13,473
674,9	8,713
675,3	8,713
675,8	4,753
676,2	4,273
676,7	6,633
677,1	13,393
677,5	15,073
678	10,233
678,4	14,553
678,9	7,833
679,3	5,993
679,7	5,113
680,2	6,593
680,6	-4,927
681,1	-3,087
681,5	1,113
681,9	-5,287
682,4	-4,647
682,8	-6,087
683,3	-1,447
683,7	-8,087
684,1	1,313
684,6	1,713
685	8,593
685,5	1,753
685,9	2,553
686,3	1,753
686,8	-1,047
687,2	-2,047
687,7	-2,287
688,1	0,913
688,5	3,833
689	3,633
689,4	3,393
689,9	0,633
690,3	1,713
690,7	-3,487
691,2	-0,367
691,6	-3,207
692	0,593
692,5	-2,047
692,9	-2,367
693,4	-5,567
693,8	-0,247
694,2	1,233
694,7	4,673
695,1	4,193
695,6	7,753
696	7,713
696,4	8,753
696,9	5,513
697,3	7,833
697,8	3,793
698,2	2,993
698,6	0,553
699,1	-6,607
699,5	-11,967
699,9	-8,687
700,4	-11,087
700,8	-7,327
701,3	-8,007
701,7	-0,527
702,1	-0,287
702,6	2,753
703	1,193
703,5	5,473
703,9	-2,967
704,3	-6,407
704,8	-10,967
705,2	-11,567
705,6	-9,527
706,1	-8,127
706,5	-7,567
707	-7,127
707,4	-9,967
707,8	-14,847
708,3	-10,087
708,7	-9,167
709,2	-13,127
709,6	-10,087
710	-5,807
710,5	-9,367
710,9	-12,887
711,3	-4,567
711,8	-5,607
712,2	-4,407
712,7	-4,967
713,1	-6,487
713,5	-8,247
714	-6,647
714,4	-11,127
714,8	-10,207
715,3	-8,567
715,7	-7,847
716,2	-12,847
716,6	-14,327
717	-14,967
717,5	-12,567
717,9	-17,567
718,3	-17,687
718,8	-12,607
719,2	-19,887
719,7	-21,807
720,1	-23,807
720,5	-18,967
721	-21,967
721,4	-14,807
721,8	-17,167
722,3	-19,407
722,7	-31,687
723,2	-31,127
723,6	-33,887
724	-33,607
724,5	-23,047
724,9	-13,607
725,3	-11,207
725,8	-12,207
726,2	-6,607
726,7	-12,167
727,1	-19,807
727,5	-27,567
728	-24,287
728,4	-27,607
728,8	-28,927
729,3	-18,527
729,7	-11,527
730,1	-12,647
730,6	-8,967
731	-11,607
731,5	-14,607
731,9	-20,927
732,3	-16,367
732,8	-24,767
733,2	-14,887
733,6	-14,407
734,1	-11,927
734,5	-21,567
734,9	-13,687
735,4	-21,847
735,8	-20,247
736,3	-20,447
736,7	-12,367
737,1	-14,207
737,6	-7,127
738	-12,927
738,4	-16,567
738,9	-20,207
739,3	-22,327
739,7	-29,127
740,2	-30,527
740,6	-23,527
741,1	-21,967
741,5	-19,687
741,9	-14,967
742,4	-12,287
742,8	-16,247
743,2	-17,607
743,7	-21,087
744,1	-23,207
744,5	-24,247
745	-24,447
745,4	-14,567
745,8	-14,327
746,3	-11,887
746,7	-14,047
747,2	-12,647
747,6	-23,647
748	-23,247
748,5	-25,207
748,9	-21,367
749,3	-20,847
749,8	-21,567
750,2	-28,007
750,6	-33,127
751,1	-35,927
751,5	-37,927
751,9	-37,207
752,4	-35,247
752,8	-30,367
753,3	-28,247
753,7	-25,607
754,1	-26,647
754,6	-23,767
755	-20,607
755,4	-16,527
755,9	-21,967
756,3	-21,407
756,7	-15,847
757,2	-26,407
757,6	-35,807
758	-33,447
758,5	-30,487
758,9	-32,727
759,3	-25,167
759,8	-21,047
760,2	-20,327
760,6	-26,727
761,1	-33,927
761,5	-38,327
761,9	-40,247
762,4	-36,607
762,8	-33,607
763,3	-32,927
763,7	-31,887
764,1	-30,647
764,6	-34,447
765	-31,727
765,4	-26,447
765,9	-25,087
766,3	-30,487
766,7	-31,967
767,2	-35,847
767,6	-42,807
768	-49,167
768,5	-41,247
768,9	-37,527
769,3	-39,767
769,8	-34,487
770,2	-29,247
770,6	-29,327
771,1	-28,847
771,5	-30,127
771,9	-29,887
772,4	-34,687
772,8	-41,167
773,2	-47,527
773,7	-41,007
774,1	-44,967
774,5	-39,687
775	-33,807
775,4	-30,487
775,8	-29,167
776,3	-27,727
776,7	-32,967
777,1	-29,887
777,6	-32,327
778	-34,967
778,4	-32,607
778,9	-27,887
779,3	-36,407
779,7	-36,207
780,2	-37,447
780,6	-42,247
781	-44,927
781,5	-40,367
781,9	-44,487
782,3	-45,607
782,8	-40,447
783,2	-34,287
783,6	-36,167
784,1	-34,487
784,5	-36,687
784,9	-40,047
785,4	-41,647
785,8	-45,447
786,2	-45,887
786,7	-40,487
787,1	-40,567
787,5	-53,607
788	-49,047
788,4	-52,007
788,8	-57,367
789,3	-56,407
789,7	-48,767
790,1	-49,247
790,6	-41,247
791	-41,727
791,4	-40,447
791,9	-36,207
792,3	-42,927
792,7	-39,487
793,2	-31,807
793,6	-37,967
794	-34,047
794,5	-24,847
794,9	-31,367
795,3	-39,847
795,8	-35,807
796,2	-43,087
796,6	-47,767
797,1	-46,807
797,5	-48,007
797,9	-49,607
798,4	-50,687
798,8	-44,647
799,2	-39,607
799,7	-36,207
800,1	-39,607
800,5	-33,767
801	-42,127
801,4	-44,287
801,8	-43,807
802,2	-43,407
802,7	-46,967
803,1	-42,767
803,5	-44,967
804	-45,287
804,4	-43,407
804,8	-45,367
805,3	-40,087
805,7	-54,967
806,1	-57,287
806,6	-55,167
807	-58,207
807,4	-65,807
807,9	-47,807
808,3	-44,367
808,7	-46,767
809,2	-41,447
809,6	-40,807
810	-46,927
810,4	-49,487
810,9	-49,207
811,3	-51,727
811,7	-53,487
812,2	-53,367
812,6	-52,567
813	-52,167
813,5	-48,567
813,9	-44,127
814,3	-45,007
814,8	-42,447
815,2	-42,047
815,6	-45,727
816,1	-44,367
816,5	-47,407
816,9	-47,207
817,3	-47,527
817,8	-49,487
818,2	-56,287
818,6	-54,167
819,1	-61,247
819,5	-57,607
819,9	-54,407
820,4	-51,567
820,8	-49,287
821,2	-44,207
821,7	-47,567
822,1	-47,407
822,5	-47,447
822,9	-45,287
823,4	-48,687
823,8	-49,847
824,2	-52,047
824,7	-51,927
825,1	-54,727
825,5	-54,007
826	-55,047
826,4	-54,367
826,8	-59,047
827,3	-58,807
827,7	-52,727
828,1	-55,607
828,5	-59,087
829	-60,567
829,4	-62,007
829,8	-66,607
830,3	-60,927
830,7	-59,567
831,1	-56,927
831,6	-60,887
832	-63,087
832,4	-64,767
832,8	-63,647
833,3	-60,927
833,7	-58,407
834,1	-61,087
834,6	-66,687
835	-67,567
835,4	-66,127
835,8	-62,807
836,3	-58,367
836,7	-53,607
837,1	-55,807
837,6	-62,447
838	-62,687
838,4	-65,127
838,9	-66,407
839,3	-61,527
839,7	-55,527
840,1	-60,047
840,6	-62,927
841	-61,927
841,4	-64,127
841,9	-63,607
842,3	-61,287
842,7	-58,207
843,1	-62,127
843,6	-61,327
844	-70,487
844,4	-69,407
844,9	-74,647
845,3	-61,447
845,7	-60,727
846,2	-53,327
846,6	-54,967
847	-55,047
847,4	-65,687
847,9	-73,287
848,3	-76,367
848,7	-73,127
849,2	-69,087
849,6	-65,367
850	-58,607
850,4	-59,727
850,9	-60,607
851,3	-51,967
851,7	-58,687
852,2	-61,407
852,6	-62,487
853	-63,887
853,4	-75,407
853,9	-73,287
854,3	-72,247
854,7	-66,607
855,2	-71,087
855,6	-69,527
856	-67,567
856,4	-70,567
856,9	-71,327
857,3	-66,207
857,7	-60,207
858,2	-57,327
858,6	-59,927
859	-54,607
859,4	-59,167
859,9	-63,087
860,3	-64,847
860,7	-57,287
861,1	-64,767
861,6	-58,287
862	-57,247
862,4	-57,487
862,9	-60,007
863,3	-58,767
863,7	-61,607
864,1	-62,367
864,6	-60,447
865	-57,927
865,4	-55,007
865,9	-57,767
866,3	-55,807
866,7	-58,807
867,1	-63,247
867,6	-67,087
868	-69,967
868,4	-73,167
868,8	-74,527
869,3	-78,207
869,7	-75,487
870,1	-70,087
870,6	-70,727
871	-63,287
871,4	-94,367
871,8	-97,007
872,3	-97,967
872,7	-94,847
873,1	-102,167
873,5	-66,927
874	-63,207
874,4	-65,887
874,8	-65,887
875,3	-65,167
875,7	-64,607
876,1	-71,327
876,5	-67,647
877	-72,927
877,4	-71,207
877,8	-64,767
878,2	-65,247
878,7	-66,567
879,1	-60,847
879,5	-57,607
879,9	-61,687
880,4	-61,767
880,8	-64,807
881,2	-65,567
881,7	-71,087
882,1	-69,247
882,5	-69,207
882,9	-62,607
883,4	-62,007
883,8	-60,167
884,2	-63,447
884,6	-64,287
885,1	-68,207
885,5	-73,807
885,9	-75,367
886,3	-78,767
886,8	-75,447
887,2	-75,327
887,6	-72,887
888	-74,927
888,5	-70,287
888,9	-70,567
889,3	-75,287
889,8	-76,727
890,2	-75,887
890,6	-74,887
891	-71,687
891,5	-64,567
891,9	-61,607
892,3	-51,727
892,7	-53,327
893,2	-55,687
893,6	-56,167
894	-59,607
894,4	-73,407
894,9	-74,607
895,3	-74,767
895,7	-75,527
896,1	-69,847
896,6	-69,167
897	-64,607
897,4	-62,447
897,8	-66,527
898,3	-68,127
898,7	-63,927
899,1	-65,927
899,5	-65,727
900	-65,767
900,4	-65,967
900,8	-67,607
901,2	-73,527
901,7	-74,687
902,1	-71,967
902,5	-69,007
902,9	-62,767
903,4	-61,407
903,8	-61,567
904,2	-57,087
904,6	-56,127
905,1	-56,767
905,5	-57,687
905,9	-57,847
906,3	-57,327
906,8	-59,847
907,2	-65,167
907,6	-61,207
908	-62,927
908,5	-63,087
908,9	-61,007
909,3	-59,647
909,7	-60,727
910,2	-56,247
910,6	-60,007
911	-61,727
911,4	-56,527
911,9	-59,447
912,3	-61,767
912,7	-61,527
913,1	-66,807
913,6	-75,207
914	-69,447
914,4	-69,887
914,8	-71,007
915,3	-65,127
915,7	-58,647
916,1	-61,687
916,5	-60,847
916,9	-59,447
917,4	-62,247
917,8	-64,407
918,2	-61,727
918,6	-64,127
919,1	-61,287
919,5	-63,127
919,9	-63,967
920,3	-68,247
920,8	-75,567
921,2	-80,407
921,6	-77,287
922	-79,887
922,5	-77,407
922,9	-76,047
923,3	-72,967
923,7	-71,167
924,2	-71,927
924,6	-70,927
925	-56,367
925,4	-62,647
925,8	-69,087
926,3	-67,407
926,7	-61,727
927,1	-69,487
927,5	-65,367
928	-60,887
928,4	-58,607
928,8	-68,007
929,2	-68,567
929,7	-66,687
930,1	-67,607
930,5	-66,527
930,9	-63,527
931,3	-60,167
931,8	-68,847
932,2	-67,167
932,6	-69,967
933	-72,287
933,5	-73,567
933,9	-72,007
934,3	-75,647
934,7	-75,007
935,2	-70,567
935,6	-72,967
936	-73,207
936,4	-74,247
936,8	-73,447
937,3	-79,967
937,7	-83,007
938,1	-78,847
938,5	-76,327
939	-74,967
939,4	-74,927
939,8	-70,727
940,2	-71,967
940,6	-72,167
941,1	-77,327
941,5	-71,607
941,9	-75,287
942,3	-82,207
942,8	-89,327
943,2	-86,767
943,6	-97,567
944	-95,687
944,4	-87,847
944,9	-77,927
945,3	-76,407
945,7	-74,807
946,1	-76,407
946,6	-75,567
947	-76,607
947,4	-78,687
947,8	-71,207
948,2	-71,207
948,7	-71,647
949,1	-71,847
949,5	-74,407
949,9	-68,767
950,3	-67,927
950,8	-65,887
951,2	-67,887
951,6	-63,767
952	-74,287
952,5	-71,847
952,9	-71,287
953,3	-71,207
953,7	-74,167
954,1	-67,207
954,6	-67,287
955	-68,447
955,4	-68,487
955,8	-63,687
956,2	-67,727
956,7	-65,607
957,1	-62,847
957,5	-63,687
957,9	-71,887
958,3	-68,767
958,8	-75,527
959,2	-77,887
959,6	-80,287
960	-80,767
960,5	-86,687
960,9	-80,167
961,3	-78,767
961,7	-77,647
962,1	-69,247
962,6	-64,607
963	-73,687
963,4	-76,887
963,8	-79,047
964,2	-86,287
964,7	-88,127
965,1	-79,687
965,5	-78,727
965,9	-78,327
966,3	-75,647
966,8	-69,647
967,2	-73,607
967,6	-75,087
968	-66,247
968,4	-59,407
968,9	-70,567
969,3	-73,887
969,7	-77,327
970,1	-81,327
970,5	-86,487
971	-75,847
971,4	-74,647
971,8	-72,007
972,2	-74,567
972,6	-71,287
973,1	-75,647
973,5	-71,487
973,9	-70,007
974,3	-69,047
974,7	-68,327
975,2	-67,527
975,6	-71,287
976	-69,207
976,4	-67,047
976,8	-70,807
977,3	-72,727
977,7	-67,807
978,1	-68,247
978,5	-74,887
978,9	-80,447
979,4	-81,687
979,8	-84,127
980,2	-86,447
980,6	-80,407
981	-73,967
981,5	-76,447
981,9	-77,887
982,3	-74,407
982,7	-69,167
983,1	-71,247
983,6	-62,607
984	-56,527
984,4	-61,927
984,8	-65,247
985,2	-63,847
985,6	-71,887
986,1	-74,087
986,5	-67,287
986,9	-69,407
987,3	-74,567
987,7	-70,887
988,2	-69,207
988,6	-76,447
989	-79,047
989,4	-73,207
989,8	-76,767
990,3	-81,167
990,7	-77,087
991,1	-77,887
991,5	-74,247
991,9	-68,687
992,3	-69,887
992,8	-68,247
993,2	-66,927
993,6	-67,527
994	-70,127
994,4	-67,807
994,9	-67,287
995,3	-67,287
995,7	-72,447
996,1	-69,287
996,5	-70,287
996,9	-69,247
997,4	-71,967
997,8	-72,487
998,2	-69,607
998,6	-68,247
999	-74,047
999,5	-74,167
999,9	-70,647
1000,3	-72,487
1000,7	-73,567
1001,1	-72,407
1001,5	-68,727
1002	-71,567
1002,4	-74,647
1002,8	-73,127
1003,2	-67,327
1003,6	-61,967
1004	-60,167
1004,5	-59,167
1004,9	-60,087
1005,3	-69,607
1005,7	-72,327
1006,1	-72,487
1006,6	-73,047
1007	-66,847
1007,4	-65,207
1007,8	-71,207
1008,2	-71,447
1008,6	-75,527
1009,1	-81,967
1009,5	-77,407
1009,9	-80,247
1010,3	-79,687
1010,7	-79,127
1011,1	-74,087
1011,6	-73,327
1012	-68,327
1012,4	-71,327
1012,8	-72,207
1013,2	-74,967
1013,6	-79,767
1014,1	-79,247
1014,5	-74,767
1014,9	-72,727
1015,3	-70,927
1015,7	-68,967
1016,1	-70,367
1016,6	-68,727
1017	-65,727
1017,4	-73,447
1017,8	-73,327
1018,2	-74,007
1018,6	-75,567
1019,1	-73,727
1019,5	-69,847
1019,9	-70,287
1020,3	-67,287
1020,7	-71,447
1021,1	-74,687
1021,6	-69,007
1022	-70,367
1022,4	-72,927
1022,8	-72,887
1023,2	-74,767
1023,6	-78,647
1024,1	-79,127
1024,5	-81,727
1024,9	-78,807
1025,3	-82,487
1025,7	-86,047
1026,1	-85,967
1026,6	-80,247
1027	-84,327
1027,4	-86,207
1027,8	-90,407
1028,2	-89,487
1028,6	-94,127
1029	-92,087
1029,5	-86,967
1029,9	-76,567
1030,3	-77,647
1030,7	-74,327
1031,1	-78,967
1031,5	-77,727
1032	-79,887
1032,4	-86,927
1032,8	-90,407
1033,2	-83,647
1033,6	-82,407
1034	-82,447
1034,4	-78,567
1034,9	-74,447
1035,3	-76,207
1035,7	-83,847
1036,1	-87,927
1036,5	-82,487
1036,9	-81,967
1037,4	-87,887
1037,8	-86,527
1038,2	-86,967
1038,6	-92,487
1039	-91,367
1039,4	-88,127
1039,8	-84,087
1040,3	-89,127
1040,7	-85,367
1041,1	-92,327
1041,5	-92,087
1041,9	-93,727
1042,3	-84,087
1042,7	-84,367
1043,2	-81,767
1043,6	-83,087
1044	-74,607
1044,4	-83,087
1044,8	-84,447
1045,2	-86,167
1045,6	-90,847
1046,1	-101,247
1046,5	-101,647
1046,9	-101,047
1047,3	-94,527
1047,7	-90,447
1048,1	-86,087
1048,5	-86,007
1049	-81,127
1049,4	-88,127
1049,8	-88,087
1050,2	-90,687
1050,6	-86,647
1051	-96,967
1051,4	-94,727
1051,9	-96,807
1052,3	-99,727
1052,7	-102,327
1053,1	-97,207
1053,5	-92,647
1053,9	-83,527
1054,3	-81,247
1054,8	-77,607
1055,2	-72,247
1055,6	-75,367
1056	-79,167
1056,4	-73,167
1056,8	-71,727
1057,2	-76,047
1057,6	-80,807
1058,1	-86,687
1058,5	-89,527
1058,9	-91,447
1059,3	-90,287
1059,7	-85,407
1060,1	-85,407
1060,5	-84,207
1061	-86,327
1061,4	-90,927
1061,8	-89,247
1062,2	-85,447
1062,6	-85,887
1063	-88,367
1063,4	-80,807
1063,8	-84,087
1064,3	-77,447
1064,7	-76,087
1065,1	-70,727
1065,5	-69,327
1065,9	-68,767
1066,3	-76,767
1066,7	-83,727
1067,1	-84,207
1067,6	-91,567
1068	-91,687
1068,4	-89,247
1068,8	-83,607
1069,2	-82,727
1069,6	-78,967
1070	-77,287
1070,4	-79,207
1070,9	-75,767
1071,3	-74,887
1071,7	-72,727
1072,1	-70,207
1072,5	-66,487
1072,9	-67,607
1073,3	-61,167
1073,7	-65,847
1074,2	-78,447
1074,6	-79,567
1075	-82,607
1075,4	-90,007
1075,8	-85,607
1076,2	-76,967
1076,6	-72,567
1077	-70,087
1077,5	-71,767
1077,9	-74,567
1078,3	-67,767
1078,7	-64,207
1079,1	-63,687
1079,5	-57,407
1079,9	-59,407
1080,3	-61,487
1080,7	-65,327
1081,2	-69,287
1081,6	-76,287
1082	-68,687
1082,4	-72,247
1082,8	-77,287
1083,2	-75,007
1083,6	-68,487
1084	-76,127
1084,5	-78,727
1084,9	-83,287
1085,3	-82,967
1085,7	-88,127
1086,1	-81,527
1086,5	-76,087
1086,9	-66,487
1087,3	-68,327
1087,7	-63,567
1088,2	-64,407
1088,6	-60,367
1089	-64,767
1089,4	-59,607
1089,8	-61,647
1090,2	-63,767
1090,6	-67,807
1091	-72,927
1091,4	-74,327
1091,9	-77,047
1092,3	-74,287
1092,7	-77,247
1093,1	-70,447
1093,5	-72,927
1093,9	-69,487
1094,3	-70,127
1094,7	-68,207
1095,1	-68,087
1095,5	-69,687
1096	-70,727
1096,4	-71,127
1096,8	-70,007
1097,2	-71,567
1097,6	-67,087
1098	-68,247
1098,4	-66,167
1098,8	-68,447
1099,2	-63,087
1099,6	-61,327
1100,1	-59,047
1100,5	-60,727
1100,9	-55,887
1101,3	-52,527
1101,7	-55,447
1102,1	-54,167
1102,5	-51,367
1102,9	-50,687
1103,3	-54,567
1103,7	-50,727
1104,2	-48,527
1104,6	-50,407
1105	-51,167
1105,4	-48,127
1105,8	-44,047
1106,2	-35,287
1106,6	-23,687
1107	-13,687
1107,4	-5,527
1107,8	-0,717
1108,3	0,233
