Data from Subt2_00079.txt Node
Date: Fri Aug 11 16:38:55 MSK 2023
User: vat
Spectrometer: MAYP114033
Trigger mode: 0
Integration Time (sec): 5,000000E-1
Scans to average: 5
Electric dark correction enabled: true
Nonlinearity correction enabled: false
Boxcar width: 2
XAxis mode: Wavelengths
Number of Pixels in Spectrum: 2068
>>>>>Begin Spectral Data<<<<<
199,4	1,2
199,9	0,733
200,4	-2,867
200,8	-2,787
201,3	-4,387
201,8	-1,507
202,2	-1,147
202,7	4,453
203,2	2,053
203,6	5,653
204,1	2,853
204,6	2,053
205	-4,747
205,5	-1,107
206	-5,707
206,4	-9,347
206,9	-8,427
207,4	-4,067
207,8	-5,027
208,3	-6,147
208,8	0,093
209,2	1,693
209,7	-4,427
210,2	-0,307
210,6	2,093
211,1	0,173
211,5	-3,107
212	1,413
212,5	-8,387
212,9	-10,507
213,4	-12,587
213,9	-12,307
214,3	-9,387
214,8	-7,387
215,3	-5,627
215,7	-6,227
216,2	-5,427
216,7	-10,907
217,1	-14,027
217,6	-12,507
218,1	-9,547
218,5	-11,187
219	-5,347
219,5	-0,267
219,9	-2,987
220,4	0,573
220,9	0,973
221,3	0,973
221,8	-3,587
222,3	-3,627
222,7	-9,747
223,2	-9,467
223,6	-6,907
224,1	1,093
224,6	7,613
225	2,693
225,5	1,893
226	0,653
226,4	-7,147
226,9	-13,267
227,4	-8,507
227,8	-12,187
228,3	-17,707
228,8	-12,547
229,2	-14,947
229,7	-16,747
230,2	-10,467
230,6	-15,507
231,1	-14,867
231,5	-8,267
232	-4,027
232,5	-5,067
232,9	-1,347
233,4	-4,947
233,9	-5,467
234,3	-2,147
234,8	-3,547
235,3	-2,227
235,7	-1,387
236,2	-7,107
236,7	-11,107
237,1	-8,027
237,6	-7,747
238,1	-4,547
238,5	-2,227
239	-5,027
239,4	-3,867
239,9	2,173
240,4	0,333
240,8	5,293
241,3	6,653
241,8	5,653
242,2	-0,227
242,7	-1,427
243,2	-6,107
243,6	-8,347
244,1	-16,427
244,6	-13,707
245	-16,227
245,5	-14,427
245,9	-10,027
246,4	-1,667
246,9	-2,947
247,3	1,293
247,8	-0,227
248,3	0,573
248,7	0,213
249,2	-0,227
249,7	-6,307
250,1	-6,747
250,6	-12,067
251	-18,987
251,5	-17,547
252	-10,027
252,4	-7,387
252,9	-4,787
253,4	-3,147
253,8	-6,387
254,3	-4,707
254,8	-5,907
255,2	-5,787
255,7	-0,427
256,1	-0,227
256,6	0,493
257,1	1,053
257,5	-0,947
258	-1,827
258,5	0,213
258,9	-9,107
259,4	-12,907
259,9	-12,347
260,3	-11,427
260,8	-8,907
261,2	-2,307
261,7	-2,267
262,2	-5,387
262,6	-8,707
263,1	-13,107
263,6	-8,347
264	-4,107
264,5	-0,827
264,9	0,653
265,4	2,733
265,9	-5,547
266,3	-6,107
266,8	-1,987
267,3	-3,027
267,7	-3,867
268,2	1,013
268,7	-0,187
269,1	-2,467
269,6	1,213
270	-3,307
270,5	-8,707
271	-10,267
271,4	-7,067
271,9	-12,907
272,4	-10,827
272,8	-7,107
273,3	-3,987
273,7	-6,107
274,2	-1,747
274,7	9,493
275,1	9,173
275,6	8,733
276,1	2,813
276,5	2,653
277	-4,667
277,4	-6,587
277,9	-3,467
278,4	-4,587
278,8	-5,467
279,3	-8,227
279,8	-6,547
280,2	-8,227
280,7	-1,347
281,1	-6,427
281,6	-6,747
282,1	-4,147
282,5	-9,907
283	-10,307
283,4	-3,427
283,9	1,653
284,4	0,773
284,8	-0,627
285,3	-0,747
285,8	-3,827
286,2	-8,427
286,7	-12,867
287,1	-7,147
287,6	-5,147
288,1	-3,747
288,5	-0,387
289	0,093
289,5	-3,427
289,9	-6,947
290,4	-8,227
290,8	-5,667
291,3	-4,587
291,8	2,773
292,2	2,253
292,7	2,333
293,1	-2,507
293,6	-1,907
294,1	-11,347
294,5	-11,027
295	-2,667
295,5	-4,067
295,9	-7,107
296,4	0,533
296,8	3,613
297,3	-7,187
297,8	-1,907
298,2	1,853
298,7	-3,387
299,1	-10,387
299,6	-10,267
300,1	-15,987
300,5	-14,667
301	-13,947
301,5	-8,267
301,9	-10,307
302,4	-9,147
302,8	-11,707
303,3	-8,547
303,8	-13,227
304,2	-6,267
304,7	-1,067
305,1	-0,947
305,6	-3,427
306,1	-1,147
306,5	-7,307
307	-7,867
307,4	-8,867
307,9	-12,987
308,4	-9,427
308,8	-0,667
309,3	-9,387
309,8	-5,547
310,2	-3,187
310,7	-4,827
311,1	-13,587
311,6	-7,987
312,1	-6,987
312,5	-2,867
313	-2,227
313,4	1,493
313,9	3,213
314,4	-4,387
314,8	-9,907
315,3	-14,387
315,7	-15,587
316,2	-16,867
316,7	-17,267
317,1	-16,387
317,6	-12,627
318	-6,227
318,5	-1,427
319	2,013
319,4	8,733
319,9	7,773
320,3	2,733
320,8	-6,107
321,3	-2,787
321,7	-5,827
322,2	-2,867
322,6	-6,867
323,1	-2,827
323,6	-9,147
324	-7,347
324,5	-8,307
324,9	-1,627
325,4	-4,067
325,9	-3,227
326,3	-0,107
326,8	-3,187
327,2	-2,267
327,7	-4,707
328,2	-0,587
328,6	-5,787
329,1	-2,267
329,5	-4,227
330	2,133
330,5	5,853
330,9	6,933
331,4	0,653
331,8	-3,267
332,3	-1,667
332,8	-7,147
333,2	-9,707
333,7	-7,947
334,1	-5,307
334,6	-11,787
335,1	-13,307
335,5	-11,747
336	-8,187
336,4	-10,547
336,9	-5,947
337,4	-8,947
337,8	-9,907
338,3	-9,507
338,7	-6,107
339,2	-7,787
339,7	-2,947
340,1	-3,107
340,6	-0,427
341	-1,027
341,5	-0,067
342	-4,227
342,4	-3,627
342,9	-10,147
343,3	-11,827
343,8	-12,307
344,2	-4,307
344,7	-7,427
345,2	-4,627
345,6	-2,507
346,1	-5,187
346,5	-3,307
347	3,053
347,5	4,653
347,9	5,613
348,4	10,933
348,8	4,893
349,3	0,573
349,8	0,253
350,2	0,693
350,7	-3,307
351,1	-0,467
351,6	7,013
352	6,173
352,5	7,013
353	10,293
353,4	12,653
353,9	8,253
354,3	14,133
354,8	9,493
355,3	14,693
355,7	20,973
356,2	33,653
356,6	41,813
357,1	64,253
357,5	78,733
358	93,013
358,5	111,493
358,9	133,453
359,4	147,933
359,8	177,533
360,3	202,373
360,8	227,013
361,2	259,093
361,7	299,133
362,1	336,573
362,6	387,373
363	439,413
363,5	489,333
364	542,493
364,4	595,253
364,9	649,533
365,3	705,893
365,8	757,613
366,3	808,693
366,7	853,773
367,2	896,293
367,6	927,973
368,1	952,173
368,5	971,293
369	980,853
369,5	975,893
369,9	975,293
370,4	963,733
370,8	941,613
371,3	914,453
371,7	882,573
372,2	837,013
372,7	796,253
373,1	755,253
373,6	715,773
374	673,413
374,5	628,173
374,9	582,013
375,4	537,013
375,9	493,773
376,3	456,173
376,8	421,613
377,2	392,893
377,7	370,413
378,2	335,293
378,6	307,453
379,1	282,493
379,5	259,173
380	231,573
380,4	210,973
380,9	189,773
381,4	173,293
381,8	155,533
382,3	143,133
382,7	134,893
383,2	123,973
383,6	113,533
384,1	102,333
384,6	90,533
385	83,893
385,5	78,973
385,9	70,253
386,4	73,613
386,8	69,693
387,3	64,933
387,7	58,533
388,2	55,253
388,7	39,853
389,1	34,933
389,6	29,613
390	28,813
390,5	26,533
390,9	29,853
391,4	27,813
391,9	25,253
392,3	20,253
392,8	19,853
393,2	17,573
393,7	21,093
394,1	20,333
394,6	23,533
395,1	16,253
395,5	16,253
396	10,773
396,4	11,653
396,9	10,253
397,3	17,373
397,8	15,493
398,2	11,413
398,7	13,493
399,2	11,613
399,6	14,133
400,1	15,213
400,5	20,613
401	13,933
401,4	14,373
401,9	12,693
402,4	15,093
402,8	11,173
403,3	16,253
403,7	15,173
404,2	11,733
404,6	9,813
405,1	11,773
405,5	9,453
406	9,933
406,5	6,573
406,9	3,053
407,4	4,253
407,8	4,253
408,3	2,933
408,7	4,493
409,2	3,973
409,6	9,213
410,1	10,533
410,6	11,373
411	16,653
411,5	20,293
411,9	18,373
412,4	22,533
412,8	30,693
413,3	32,773
413,7	35,173
414,2	40,893
414,7	39,773
415,1	38,773
415,6	35,373
416	35,293
416,5	28,533
416,9	29,133
417,4	26,493
417,8	31,053
418,3	35,853
418,8	39,533
419,2	41,653
419,7	47,613
420,1	52,133
420,6	51,893
421	52,173
421,5	53,333
421,9	51,413
422,4	51,333
422,8	54,653
423,3	53,933
423,8	53,333
424,2	50,813
424,7	48,853
425,1	46,693
425,6	50,693
426	56,253
426,5	62,573
426,9	66,333
427,4	72,573
427,9	75,373
428,3	76,773
428,8	78,733
429,2	78,613
429,7	79,693
430,1	82,213
430,6	88,053
431	90,053
431,5	97,093
431,9	97,053
432,4	95,493
432,8	97,853
433,3	101,973
433,8	108,213
434,2	113,573
434,7	126,533
435,1	130,093
435,6	137,333
436	136,053
436,5	146,413
436,9	150,493
437,4	159,253
437,8	157,773
438,3	168,773
438,8	172,453
439,2	176,893
439,7	179,173
440,1	197,733
440,6	202,933
441	208,453
441,5	216,093
441,9	226,773
442,4	233,933
442,8	245,613
443,3	266,093
443,7	278,533
444,2	299,733
444,7	310,933
445,1	324,853
445,6	332,973
446	351,613
446,5	356,973
446,9	372,133
447,4	384,853
447,8	395,853
448,3	407,053
448,7	427,333
449,2	443,253
449,6	459,053
450,1	476,133
450,6	490,893
451	502,013
451,5	516,533
451,9	534,773
452,4	556,613
452,8	580,973
453,3	607,653
453,7	631,893
454,2	648,853
454,6	662,933
455,1	682,013
455,5	695,293
456	710,773
456,4	735,013
456,9	759,813
457,3	779,293
457,8	797,813
458,3	819,573
458,7	840,973
459,2	869,133
459,6	892,533
460,1	918,173
460,5	952,693
461	971,213
461,4	989,973
461,9	1012,013
462,3	1038,933
462,8	1061,813
463,2	1091,853
463,7	1116,253
464,1	1145,493
464,6	1176,213
465	1198,333
465,5	1220,293
466	1244,813
466,4	1269,333
466,9	1290,133
467,3	1320,653
467,8	1353,973
468,2	1386,653
468,7	1410,973
469,1	1431,333
469,6	1460,813
470	1487,573
470,5	1508,733
470,9	1541,573
471,4	1571,853
471,8	1588,293
472,3	1614,333
472,7	1648,693
473,2	1670,253
473,6	1708,173
474,1	1728,373
474,5	1752,093
475	1778,773
475,4	1807,893
475,9	1831,213
476,4	1867,893
476,8	1898,173
477,3	1922,493
477,7	1950,853
478,2	1973,133
478,6	1997,693
479,1	2019,173
479,5	2039,133
480	2050,613
480,4	2068,453
480,9	2083,133
481,3	2101,973
481,8	2121,333
482,2	2144,933
482,7	2158,733
483,1	2173,773
483,6	2192,253
484	2206,453
484,5	2223,453
484,9	2246,373
485,4	2265,213
485,8	2283,933
486,3	2295,533
486,7	2309,133
487,2	2318,693
487,6	2324,813
488,1	2320,973
488,5	2322,613
489	2332,973
489,4	2341,973
489,9	2353,973
490,4	2373,373
490,8	2387,733
491,3	2399,333
491,7	2413,733
492,2	2414,693
492,6	2422,653
493,1	2428,293
493,5	2422,733
494	2414,253
494,4	2423,133
494,9	2424,613
495,3	2426,813
495,8	2434,173
496,2	2444,453
496,7	2444,013
497,1	2446,493
497,6	2448,493
498	2446,773
498,5	2446,373
498,9	2453,653
499,4	2452,093
499,8	2450,133
500,3	2442,253
500,7	2436,893
501,2	2431,173
501,6	2431,053
502,1	2430,813
502,5	2434,853
503	2432,293
503,4	2430,453
503,9	2424,893
504,3	2422,333
504,8	2422,733
505,2	2413,573
505,7	2406,373
506,1	2395,293
506,6	2391,453
507	2381,613
507,5	2378,693
507,9	2369,813
508,4	2369,413
508,8	2365,013
509,3	2351,093
509,7	2354,213
510,2	2349,493
510,6	2335,813
511,1	2324,733
511,5	2322,013
512	2306,973
512,4	2304,293
512,9	2303,453
513,3	2291,173
513,8	2294,893
514,2	2288,293
514,7	2278,693
515,1	2271,813
515,6	2279,293
516	2262,453
516,5	2256,973
516,9	2244,933
517,4	2237,173
517,8	2225,133
518,3	2220,693
518,7	2217,253
519,2	2216,013
519,6	2208,573
520,1	2207,373
520,5	2209,133
521	2205,253
521,4	2195,453
521,9	2184,613
522,3	2173,933
522,8	2154,013
523,2	2147,213
523,7	2149,853
524,1	2147,933
524,6	2139,773
525	2130,853
525,5	2120,173
525,9	2112,613
526,4	2109,093
526,8	2101,573
527,3	2105,413
527,7	2100,173
528,2	2091,693
528,6	2095,533
529,1	2097,253
529,5	2095,653
530	2098,093
530,4	2092,493
530,9	2076,893
531,3	2072,733
531,8	2061,613
532,2	2050,333
532,6	2051,253
533,1	2052,973
533,5	2042,413
534	2047,493
534,4	2038,333
534,9	2031,773
535,3	2022,533
535,8	2015,213
536,2	2004,733
536,7	1998,053
537,1	2001,573
537,6	2002,093
538	2004,773
538,5	2001,373
538,9	2011,333
539,4	1992,613
539,8	1988,173
540,3	1981,133
540,7	1984,653
541,2	1979,813
541,6	1988,533
542,1	1984,773
542,5	1989,893
543	1984,453
543,4	1982,893
543,9	1975,493
544,3	1981,493
544,8	1980,973
545,2	1986,453
545,7	1980,213
546,1	1986,253
546,5	1973,213
547	1964,933
547,4	1955,573
547,9	1958,213
548,3	1955,293
548,8	1953,973
549,2	1953,933
549,7	1948,293
550,1	1944,733
550,6	1941,413
551	1939,773
551,5	1940,333
551,9	1942,133
552,4	1939,493
552,8	1937,493
553,3	1937,133
553,7	1937,013
554,2	1933,373
554,6	1932,973
555,1	1930,813
555,5	1934,693
555,9	1927,653
556,4	1927,613
556,8	1921,253
557,3	1917,813
557,7	1912,653
558,2	1910,933
558,6	1909,533
559,1	1913,933
559,5	1910,213
560	1906,693
560,4	1908,293
560,9	1908,893
561,3	1908,253
561,8	1914,613
562,2	1915,533
562,7	1915,653
563,1	1911,893
563,6	1908,533
564	1904,453
564,4	1903,373
564,9	1904,053
565,3	1897,813
565,8	1887,853
566,2	1885,573
566,7	1876,413
567,1	1870,653
567,6	1879,693
568	1883,693
568,5	1880,573
568,9	1879,573
569,4	1881,053
569,8	1875,853
570,3	1870,613
570,7	1867,373
571,1	1861,373
571,6	1853,293
572	1847,773
572,5	1847,173
572,9	1843,533
573,4	1849,733
573,8	1849,413
574,3	1843,653
574,7	1846,253
575,2	1848,253
575,6	1843,493
576,1	1842,733
576,5	1836,693
576,9	1824,333
577,4	1817,333
577,8	1813,053
578,3	1805,493
578,7	1807,573
579,2	1811,493
579,6	1805,173
580,1	1801,533
580,5	1793,893
581	1789,253
581,4	1783,973
581,9	1777,773
582,3	1777,493
582,7	1781,173
583,2	1781,173
583,6	1773,093
584,1	1770,293
584,5	1761,973
585	1750,973
585,4	1743,093
585,9	1738,333
586,3	1736,573
586,8	1728,053
587,2	1725,773
587,6	1720,013
588,1	1717,613
588,5	1714,213
589	1717,973
589,4	1709,493
589,9	1704,213
590,3	1700,333
590,8	1690,573
591,2	1681,253
591,7	1680,053
592,1	1675,693
592,5	1669,213
593	1668,493
593,4	1669,573
593,9	1661,093
594,3	1657,853
594,8	1646,973
595,2	1639,213
595,7	1631,773
596,1	1629,333
596,6	1626,413
597	1632,573
597,4	1628,413
597,9	1618,213
598,3	1616,853
598,8	1609,013
599,2	1598,653
599,7	1593,853
600,1	1589,973
600,6	1587,333
601	1581,973
601,4	1576,933
601,9	1569,373
602,3	1572,293
602,8	1558,213
603,2	1553,413
603,7	1548,533
604,1	1543,213
604,6	1535,053
605	1529,693
605,4	1526,453
605,9	1520,533
606,3	1521,213
606,8	1514,653
607,2	1511,453
607,7	1506,853
608,1	1499,013
608,6	1491,893
609	1481,893
609,4	1483,413
609,9	1471,253
610,3	1466,453
610,8	1457,853
611,2	1459,613
611,7	1449,533
612,1	1448,973
612,6	1435,733
613	1429,133
613,4	1416,533
613,9	1404,213
614,3	1389,653
614,8	1393,773
615,2	1388,853
615,7	1381,773
616,1	1379,893
616,6	1378,933
617	1369,853
617,4	1361,573
617,9	1354,653
618,3	1348,973
618,8	1338,333
619,2	1333,573
619,7	1332,293
620,1	1331,173
620,5	1318,733
621	1312,573
621,4	1303,213
621,9	1287,613
622,3	1279,653
622,8	1278,093
623,2	1274,293
623,6	1269,413
624,1	1268,933
624,5	1261,253
625	1250,053
625,4	1244,293
625,9	1241,133
626,3	1231,733
626,8	1221,653
627,2	1217,813
627,6	1205,493
628,1	1197,933
628,5	1192,613
629	1193,373
629,4	1189,693
629,9	1185,213
630,3	1181,533
630,7	1175,133
631,2	1164,853
631,6	1159,933
632,1	1157,693
632,5	1145,933
633	1137,733
633,4	1134,613
633,8	1120,293
634,3	1115,613
634,7	1110,973
635,2	1111,333
635,6	1098,933
636,1	1098,653
636,5	1092,093
636,9	1083,253
637,4	1073,693
637,8	1070,253
638,3	1054,493
638,7	1046,013
639,2	1044,653
639,6	1035,413
640	1024,493
640,5	1025,773
640,9	1022,493
641,4	1011,853
641,8	1001,773
642,2	1001,213
642,7	995,253
643,1	991,413
643,6	987,013
644	990,493
644,5	982,053
644,9	979,253
645,3	972,373
645,8	960,693
646,2	958,613
646,7	952,853
647,1	950,173
647,6	941,813
648	940,333
648,4	928,533
648,9	922,413
649,3	913,053
649,8	905,693
650,2	909,613
650,6	904,373
651,1	908,773
651,5	903,413
652	891,413
652,4	883,093
652,9	872,813
653,3	859,893
653,7	857,613
654,2	864,293
654,6	855,773
655,1	858,133
655,5	855,133
655,9	845,373
656,4	838,213
656,8	831,893
657,3	823,133
657,7	814,213
658,2	808,653
658,6	805,973
659	804,133
659,5	796,093
659,9	795,933
660,4	798,053
660,8	792,533
661,2	786,973
661,7	786,333
662,1	778,133
662,6	763,733
663	758,653
663,4	748,133
663,9	746,573
664,3	742,493
664,8	740,213
665,2	731,853
665,6	736,373
666,1	724,613
666,5	715,013
667	713,933
667,4	709,013
667,9	695,973
668,3	692,493
668,7	693,973
669,2	682,733
669,6	678,213
670,1	676,933
670,5	678,213
670,9	668,253
671,4	670,213
671,8	664,693
672,3	656,493
672,7	652,413
673,1	650,773
673,6	638,533
674	635,533
674,5	628,773
674,9	624,653
675,3	624,493
675,8	623,613
676,2	624,293
676,7	623,733
677,1	617,173
677,5	605,213
678	600,733
678,4	590,893
678,9	585,373
679,3	575,213
679,7	577,253
680,2	573,773
680,6	563,933
681,1	563,973
681,5	562,093
681,9	554,253
682,4	553,093
682,8	553,173
683,3	546,533
683,7	543,853
684,1	539,813
684,6	534,653
685	528,293
685,5	526,333
685,9	522,493
686,3	520,333
686,8	511,053
687,2	513,893
687,7	505,773
688,1	504,293
688,5	503,533
689	503,653
689,4	500,253
689,9	495,373
690,3	488,613
690,7	482,093
691,2	479,813
691,6	470,373
692	470,773
692,5	467,733
692,9	462,333
693,4	459,693
693,8	466,693
694,2	462,653
694,7	460,693
695,1	459,893
695,6	454,933
696	445,853
696,4	441,733
696,9	436,053
697,3	432,853
697,8	429,813
698,2	431,453
698,6	430,613
699,1	433,733
699,5	432,893
699,9	433,253
700,4	425,973
700,8	427,333
701,3	416,133
701,7	409,373
702,1	408,733
702,6	407,693
703	402,093
703,5	400,413
703,9	398,853
704,3	397,773
704,8	394,453
705,2	382,613
705,6	386,573
706,1	383,533
706,5	372,893
707	367,573
707,4	375,813
707,8	367,453
708,3	361,413
708,7	363,493
709,2	362,693
709,6	358,013
710	362,453
710,5	367,533
710,9	360,253
711,3	359,293
711,8	354,333
712,2	350,933
712,7	343,093
713,1	338,253
713,5	332,773
714	325,093
714,4	317,893
714,8	316,253
715,3	322,533
715,7	319,413
716,2	323,013
716,6	322,573
717	318,253
717,5	312,333
717,9	311,213
718,3	309,893
718,8	308,493
719,2	302,773
719,7	297,373
720,1	297,773
720,5	291,813
721	276,973
721,4	280,213
721,8	278,133
722,3	277,093
722,7	274,013
723,2	275,413
723,6	272,733
724	265,973
724,5	255,973
724,9	255,533
725,3	262,613
725,8	261,773
726,2	265,813
726,7	261,733
727,1	261,413
727,5	256,133
728	250,813
728,4	245,813
728,8	245,773
729,3	245,693
729,7	244,413
730,1	243,813
730,6	245,933
731	246,933
731,5	242,853
731,9	237,733
732,3	237,573
732,8	233,813
733,2	228,253
733,6	229,213
734,1	231,653
734,5	227,413
734,9	227,813
735,4	225,573
735,8	224,053
736,3	218,693
736,7	219,293
737,1	216,133
737,6	222,093
738	216,053
738,4	218,853
738,9	212,893
739,3	209,413
739,7	203,173
740,2	205,613
740,6	202,693
741,1	207,533
741,5	207,093
741,9	210,213
742,4	204,733
742,8	205,693
743,2	203,053
743,7	201,533
744,1	195,733
744,5	200,733
745	193,413
745,4	190,693
745,8	184,653
746,3	182,613
746,7	177,373
747,2	178,973
747,6	178,533
748	185,053
748,5	186,173
748,9	187,893
749,3	179,893
749,8	179,453
750,2	180,893
750,6	177,413
751,1	176,013
751,5	183,333
751,9	181,133
752,4	174,773
752,8	177,853
753,3	172,013
753,7	171,013
754,1	171,893
754,6	167,133
755	163,293
755,4	165,853
755,9	164,453
756,3	163,453
756,7	162,093
757,2	161,973
757,6	157,333
758	156,053
758,5	156,093
758,9	164,173
759,3	158,533
759,8	158,813
760,2	157,253
760,6	155,053
761,1	148,093
761,5	147,853
761,9	146,653
762,4	136,853
762,8	136,413
763,3	133,613
763,7	132,773
764,1	131,453
764,6	136,573
765	135,853
765,4	135,173
765,9	134,333
766,3	128,213
766,7	131,093
767,2	124,773
767,6	129,573
768	134,253
768,5	136,253
768,9	131,773
769,3	135,133
769,8	134,573
770,2	126,253
770,6	132,373
771,1	135,253
771,5	132,253
771,9	124,933
772,4	128,213
772,8	126,933
773,2	121,813
773,7	124,133
774,1	128,813
774,5	128,213
775	121,013
775,4	117,973
775,8	112,413
776,3	108,253
776,7	103,293
777,1	101,893
777,6	101,773
778	102,933
778,4	105,933
778,9	108,133
779,3	108,893
779,7	112,453
780,2	111,773
780,6	105,773
781	101,933
781,5	100,213
781,9	90,333
782,3	83,733
782,8	76,173
783,2	75,173
783,6	73,853
784,1	85,053
784,5	86,773
784,9	97,333
785,4	100,853
785,8	97,613
786,2	95,813
786,7	94,733
787,1	91,493
787,5	83,813
788	83,293
788,4	80,733
788,8	83,453
789,3	75,773
789,7	79,453
790,1	81,333
790,6	78,453
791	73,693
791,4	78,293
791,9	78,053
792,3	74,133
792,7	77,013
793,2	79,453
793,6	77,333
794	75,333
794,5	79,053
794,9	75,253
795,3	76,933
795,8	73,093
796,2	75,333
796,6	76,693
797,1	75,973
797,5	71,173
797,9	73,413
798,4	70,053
798,8	68,533
799,2	68,093
799,7	67,013
800,1	70,293
800,5	74,773
801	72,533
801,4	69,773
801,8	75,733
802,2	79,813
802,7	80,373
803,1	81,773
803,5	82,893
804	76,373
804,4	68,333
804,8	63,893
805,3	57,813
805,7	57,773
806,1	57,493
806,6	57,693
807	56,573
807,4	63,613
807,9	62,973
808,3	61,773
808,7	61,253
809,2	58,613
809,6	54,493
810	54,493
810,4	54,853
810,9	56,653
811,3	60,133
811,7	58,893
812,2	54,813
812,6	53,213
813	48,053
813,5	45,173
813,9	40,333
814,3	45,653
814,8	47,493
815,2	51,773
815,6	52,133
816,1	51,493
816,5	51,493
816,9	53,093
817,3	53,333
817,8	56,693
818,2	60,773
818,6	58,293
819,1	54,973
819,5	53,213
819,9	50,733
820,4	53,893
820,8	53,013
821,2	53,013
821,7	51,333
822,1	47,013
822,5	41,093
822,9	41,333
823,4	38,493
823,8	36,733
824,2	38,973
824,7	39,573
825,1	42,373
825,5	42,493
826	41,493
826,4	40,653
826,8	40,853
827,3	36,493
827,7	38,173
828,1	36,053
828,5	35,453
829	33,053
829,4	31,613
829,8	31,453
830,3	37,973
830,7	39,373
831,1	41,813
831,6	40,813
832	40,733
832,4	40,973
832,8	43,093
833,3	41,733
833,7	43,373
834,1	36,853
834,6	32,493
835	23,173
835,4	20,293
835,8	18,613
836,3	24,653
836,7	28,653
837,1	30,653
837,6	33,293
838	32,733
838,4	33,493
838,9	29,133
839,3	32,373
839,7	36,813
840,1	40,053
840,6	36,013
841	30,373
841,4	26,533
841,9	20,813
842,3	16,493
842,7	16,573
843,1	21,213
843,6	21,293
844	18,733
844,4	18,653
844,9	23,293
845,3	22,413
845,7	24,013
846,2	28,693
846,6	26,973
847	26,173
847,4	23,973
847,9	22,533
848,3	21,013
848,7	26,493
849,2	27,813
849,6	32,213
850	32,933
850,4	32,053
850,9	30,213
851,3	29,093
851,7	26,413
852,2	26,333
852,6	30,133
853	29,853
853,4	25,173
853,9	27,373
854,3	24,293
854,7	18,253
855,2	17,653
855,6	15,213
856	15,573
856,4	17,333
856,9	20,093
857,3	16,333
857,7	21,613
858,2	16,613
858,6	19,053
859	18,853
859,4	20,093
859,9	13,973
860,3	15,573
860,7	16,173
861,1	12,453
861,6	12,053
862	15,413
862,4	13,253
862,9	12,853
863,3	14,133
863,7	14,013
864,1	14,173
864,6	17,773
865	10,253
865,4	5,893
865,9	3,773
866,3	5,173
866,7	6,733
867,1	17,093
867,6	22,493
868	23,253
868,4	21,933
868,8	21,853
869,3	22,213
869,7	16,293
870,1	16,733
870,6	15,853
871	13,453
871,4	-19,587
871,8	-10,227
872,3	-12,187
872,7	-18,667
873,1	-17,387
873,5	7,013
874	2,693
874,4	9,173
874,8	16,213
875,3	13,133
875,7	17,853
876,1	16,333
876,5	10,013
877	5,413
877,4	5,733
877,8	6,733
878,2	5,293
878,7	13,933
879,1	18,333
879,5	19,853
879,9	16,653
880,4	21,093
880,8	15,333
881,2	11,133
881,7	7,093
882,1	-3,227
882,5	-7,347
882,9	-2,867
883,4	-1,747
883,8	-0,027
884,2	10,253
884,6	13,333
885,1	6,293
885,5	3,933
885,9	3,333
886,3	5,333
886,8	4,933
887,2	5,173
887,6	9,253
888	10,053
888,5	9,133
888,9	7,813
889,3	6,773
889,8	3,253
890,2	2,173
890,6	-1,627
891	-3,707
891,5	-0,947
891,9	0,613
892,3	1,133
892,7	-1,587
893,2	2,493
893,6	2,413
894	7,253
894,4	5,333
894,9	9,573
895,3	11,333
895,7	7,533
896,1	8,413
896,6	5,733
897	7,613
897,4	1,173
897,8	5,533
898,3	-0,867
898,7	4,333
899,1	3,613
899,5	3,293
900	2,453
900,4	4,173
900,8	-0,787
901,2	-7,067
901,7	-2,827
902,1	-3,027
902,5	-1,547
902,9	2,333
903,4	6,693
903,8	4,973
904,2	-2,347
904,6	0,133
905,1	0,253
905,5	3,493
905,9	4,573
906,3	10,253
906,8	4,933
907,2	7,493
907,6	4,733
908	6,053
908,5	6,813
908,9	7,973
909,3	2,493
909,7	2,293
910,2	1,173
910,6	4,813
911	2,773
911,4	6,933
911,9	3,293
912,3	0,293
912,7	-1,947
913,1	-0,907
913,6	-3,067
914	0,133
914,4	-0,347
914,8	-8,347
915,3	-8,267
915,7	-7,107
916,1	-8,067
916,5	-3,067
916,9	6,373
917,4	4,533
917,8	4,253
918,2	6,933
918,6	0,973
919,1	2,733
919,5	3,253
919,9	5,133
920,3	5,173
920,8	11,253
921,2	5,493
921,6	6,573
922	1,173
922,5	-1,027
922,9	-6,827
923,3	-10,147
923,7	-12,787
924,2	-11,827
924,6	-13,947
925	-10,427
925,4	-4,867
925,8	-0,707
926,3	2,453
926,7	3,573
927,1	7,693
927,5	4,973
928	2,133
928,4	3,093
928,8	3,373
929,2	-2,627
929,7	1,733
930,1	3,173
930,5	2,013
930,9	3,893
931,3	2,893
931,8	1,853
932,2	3,333
932,6	-0,467
933	-5,547
933,5	-2,387
933,9	-6,667
934,3	-9,947
934,7	-6,707
935,2	-5,547
935,6	-12,427
936	-12,307
936,4	-13,147
936,8	-14,667
937,3	-9,587
937,7	-6,907
938,1	-5,507
938,5	0,253
939	3,693
939,4	0,493
939,8	3,093
940,2	1,373
940,6	-0,867
941,1	-4,307
941,5	-0,667
941,9	-2,387
942,3	-1,547
942,8	-1,067
943,2	3,413
943,6	-0,907
944	3,213
944,4	-2,067
944,9	-3,147
945,3	-9,267
945,7	-4,707
946,1	-8,387
946,6	-2,267
947	-2,067
947,4	-0,787
947,8	-6,027
948,2	-3,187
948,7	2,053
949,1	-1,027
949,5	-1,627
949,9	3,613
950,3	4,733
950,8	-0,427
951,2	-6,227
951,6	0,813
952	-5,587
952,5	-11,667
952,9	-15,147
953,3	-10,387
953,7	-12,787
954,1	-9,347
954,6	-2,827
955	1,973
955,4	3,773
955,8	1,813
956,2	2,933
956,7	-2,067
957,1	-0,987
957,5	1,893
957,9	5,653
958,3	-0,267
958,8	2,733
959,2	2,093
959,6	-2,587
960	-6,307
960,5	0,613
960,9	-3,907
961,3	-3,187
961,7	-2,507
962,1	-2,587
962,6	-4,267
963	-0,507
963,4	-2,107
963,8	-0,027
964,2	-0,947
964,7	6,333
965,1	6,813
965,5	0,813
965,9	3,413
966,3	4,413
966,8	-8,947
967,2	-12,747
967,6	-6,507
968	-10,827
968,4	-7,067
968,9	-2,827
969,3	0,333
969,7	-3,347
970,1	-0,587
970,5	-6,747
971	-4,947
971,4	-6,067
971,8	-8,507
972,2	-7,547
972,6	-9,547
973,1	-9,387
973,5	-11,107
973,9	-8,547
974,3	-12,867
974,7	-10,187
975,2	-5,547
975,6	-0,067
976	3,653
976,4	5,853
976,8	5,293
977,3	-0,187
977,7	-3,267
978,1	-5,907
978,5	-5,787
978,9	-6,307
979,4	-5,147
979,8	-7,507
980,2	-8,187
980,6	-8,547
981	-6,627
981,5	-11,107
981,9	-6,427
982,3	-2,867
982,7	-4,027
983,1	-6,827
983,6	-0,867
984	-4,307
984,4	-10,387
984,8	-10,827
985,2	-6,667
985,6	-17,307
986,1	-14,547
986,5	-5,387
986,9	-5,147
987,3	-8,027
987,7	0,453
988,2	-5,907
988,6	-14,787
989	-4,827
989,4	-5,307
989,8	-4,107
990,3	-2,947
990,7	-3,267
991,1	-8,147
991,5	-5,107
991,9	-8,227
992,3	-9,587
992,8	-9,547
993,2	-13,267
993,6	-14,147
994	-12,027
994,4	-5,027
994,9	-3,227
995,3	-4,427
995,7	-3,387
996,1	-4,067
996,5	-8,107
996,9	-9,947
997,4	-3,067
997,8	-9,467
998,2	-8,747
998,6	-9,107
999	-6,467
999,5	-6,067
999,9	-5,827
1000,3	-4,307
1000,7	0,373
1001,1	-1,947
1001,5	-3,067
1002	4,093
1002,4	-0,627
1002,8	-1,747
1003,2	2,373
1003,6	-4,707
1004	-9,467
1004,5	-4,947
1004,9	-3,227
1005,3	-6,987
1005,7	0,373
1006,1	-1,667
1006,6	-0,827
1007	-0,747
1007,4	1,453
1007,8	-4,267
1008,2	1,013
1008,6	1,733
1009,1	-2,307
1009,5	-1,107
1009,9	-0,267
1010,3	-4,867
1010,7	-11,987
1011,1	-6,547
1011,6	-8,387
1012	-5,307
1012,4	0,573
1012,8	5,133
1013,2	1,093
1013,6	-0,187
1014,1	-4,267
1014,5	-10,547
1014,9	-12,787
1015,3	-14,467
1015,7	-11,187
1016,1	-10,267
1016,6	-7,947
1017	-8,587
1017,4	-6,347
1017,8	-5,027
1018,2	-6,507
1018,6	-3,787
1019,1	-3,947
1019,5	-9,947
1019,9	-15,107
1020,3	-16,627
1020,7	-19,987
1021,1	-19,627
1021,6	-14,227
1022	-12,467
1022,4	-10,547
1022,8	-6,387
1023,2	-8,547
1023,6	-10,027
1024,1	-11,067
1024,5	-8,267
1024,9	-10,547
1025,3	-6,947
1025,7	-7,227
1026,1	-3,467
1026,6	-10,667
1027	-4,707
1027,4	-2,827
1027,8	-1,827
1028,2	-1,347
1028,6	6,573
1029	2,533
1029,5	0,573
1029,9	5,013
1030,3	5,813
1030,7	1,813
1031,1	2,853
1031,5	-0,707
1032	-1,387
1032,4	-6,587
1032,8	-1,107
1033,2	-5,667
1033,6	-0,707
1034	-6,827
1034,4	-6,907
1034,9	-9,307
1035,3	-10,387
1035,7	-9,827
1036,1	-9,067
1036,5	-7,147
1036,9	-10,627
1037,4	-15,227
1037,8	-19,867
1038,2	-19,267
1038,6	-16,067
1039	-17,187
1039,4	-10,307
1039,8	-12,587
1040,3	-8,707
1040,7	-12,867
1041,1	-7,627
1041,5	-6,547
1041,9	0,773
1042,3	-3,067
1042,7	1,133
1043,2	-2,107
1043,6	-3,467
1044	-1,867
1044,4	-2,467
1044,8	-8,947
1045,2	-7,947
1045,6	-6,227
1046,1	-6,507
1046,5	-8,947
1046,9	-2,347
1047,3	-1,187
1047,7	-1,867
1048,1	-9,427
1048,5	-5,707
1049	-6,707
1049,4	-9,587
1049,8	-10,467
1050,2	-1,227
1050,6	2,773
1051	1,053
1051,4	6,573
1051,9	3,413
1052,3	-4,187
1052,7	-12,107
1053,1	-12,787
1053,5	-18,187
1053,9	-18,667
1054,3	-15,667
1054,8	-13,267
1055,2	-12,067
1055,6	-12,187
1056	-9,467
1056,4	-8,267
1056,8	-4,947
1057,2	-8,547
1057,6	-12,307
1058,1	-14,667
1058,5	-19,547
1058,9	-20,147
1059,3	-18,267
1059,7	-11,947
1060,1	-8,067
1060,5	-6,547
1061	-6,427
1061,4	-4,347
1061,8	-9,787
1062,2	-15,027
1062,6	-15,307
1063	-15,467
1063,4	-14,987
1063,8	-11,667
1064,3	-6,867
1064,7	-6,707
1065,1	-7,027
1065,5	-4,947
1065,9	-6,747
1066,3	-7,907
1066,7	-5,147
1067,1	-5,307
1067,6	-12,227
1068	-13,147
1068,4	-14,667
1068,8	-14,907
1069,2	-16,387
1069,6	-13,787
1070	-7,707
1070,4	-0,987
1070,9	3,933
1071,3	5,493
1071,7	1,733
1072,1	-1,107
1072,5	-9,147
1072,9	-15,387
1073,3	-16,347
1073,7	-7,827
1074,2	-9,787
1074,6	-11,347
1075	-14,387
1075,4	-11,987
1075,8	-8,547
1076,2	-0,867
1076,6	5,093
1077	8,213
1077,5	5,093
1077,9	1,213
1078,3	-2,907
1078,7	-9,987
1079,1	-9,867
1079,5	-3,747
1079,9	-6,107
1080,3	-0,907
1080,7	12,013
1081,2	10,853
1081,6	3,853
1082	7,293
1082,4	-0,587
1082,8	-4,387
1083,2	-3,907
1083,6	-5,667
1084	-12,507
1084,5	-13,627
1084,9	-18,227
1085,3	-19,507
1085,7	-14,027
1086,1	-13,787
1086,5	-9,307
1086,9	-8,747
1087,3	-10,427
1087,7	-12,627
1088,2	-11,467
1088,6	-9,867
1089	-9,747
1089,4	-6,267
1089,8	-5,107
1090,2	-6,387
1090,6	-9,827
1091	-11,627
1091,4	-12,187
1091,9	-13,827
1092,3	-10,187
1092,7	-9,427
1093,1	-8,067
1093,5	-7,947
1093,9	-6,467
1094,3	-4,747
1094,7	-0,627
1095,1	0,933
1095,5	2,133
1096	-0,387
1096,4	0,253
1096,8	-0,147
1097,2	4,373
1097,6	1,053
1098	3,653
1098,4	-3,467
1098,8	-4,627
1099,2	-5,867
1099,6	-0,547
1100,1	-2,147
1100,5	3,893
1100,9	1,053
1101,3	-3,707
1101,7	-6,947
1102,1	-3,987
1102,5	-3,827
1102,9	0,573
1103,3	4,013
1103,7	6,053
1104,2	2,933
1104,6	-1,267
1105	-3,187
1105,4	-6,147
1105,8	-9,027
1106,2	-6,507
1106,6	-3,467
1107	-4,827
1107,4	-2,347
1107,8	0,233
1108,3	0,067
