Data from Subt2_00088.txt Node
Date: Fri Aug 11 16:48:45 MSK 2023
User: vat
Spectrometer: MAYP114033
Trigger mode: 0
Integration Time (sec): 5,000000E-1
Scans to average: 5
Electric dark correction enabled: true
Nonlinearity correction enabled: false
Boxcar width: 2
XAxis mode: Wavelengths
Number of Pixels in Spectrum: 2068
>>>>>Begin Spectral Data<<<<<
199,4	0,833
199,9	0,15
200,4	-1,38
200,8	-1,62
201,3	-4,62
201,8	-5,22
202,2	-8,62
202,7	-8,06
203,2	-10,62
203,6	-6,54
204,1	-4,62
204,6	-3,22
205	-3,34
205,5	-5,58
206	-8,1
206,4	-11,74
206,9	-10,54
207,4	-10,86
207,8	-7,58
208,3	-9,86
208,8	-5,9
209,2	-1,98
209,7	-5,18
210,2	-4,02
210,6	-2,14
211,1	-4,06
211,5	-8,54
212	-6,58
212,5	-10,82
212,9	-10,5
213,4	-13,9
213,9	-20,46
214,3	-21,34
214,8	-25,98
215,3	-23,5
215,7	-27,9
216,2	-19,62
216,7	-24,46
217,1	-18,58
217,6	-25,02
218,1	-18,78
218,5	-21,26
219	-17,1
219,5	-16,06
219,9	-14,54
220,4	-9,1
220,9	-9,98
221,3	-8,26
221,8	-12,94
222,3	-17,66
222,7	-26,14
223,2	-26,46
223,6	-24,58
224,1	-20,34
224,6	-9,58
225	-6,02
225,5	-4,46
226	-4,74
226,4	-7,74
226,9	-11,02
227,4	-13,3
227,8	-18,22
228,3	-24,98
228,8	-20,58
229,2	-25,34
229,7	-27,02
230,2	-21,46
230,6	-18,9
231,1	-19,82
231,5	-15,02
232	-7,1
232,5	-7,38
232,9	-7,14
233,4	-9,06
233,9	-10,58
234,3	-11,9
234,8	-14,86
235,3	-10,58
235,7	-9,62
236,2	-13,26
236,7	-17,78
237,1	-11,62
237,6	-12,7
238,1	-8,74
238,5	-3,5
239	-1,54
239,4	-7,1
239,9	-5,3
240,4	-8,14
240,8	-9,22
241,3	-10,7
241,8	-14,02
242,2	-18,34
242,7	-19,1
243,2	-19,02
243,6	-13,78
244,1	-14,86
244,6	-15,06
245	-15,22
245,5	-14,98
245,9	-20,98
246,4	-12,78
246,9	-13,34
247,3	-11,9
247,8	-14,46
248,3	-16,46
248,7	-18,74
249,2	-14,3
249,7	-20,9
250,1	-21,94
250,6	-22,7
251	-24,54
251,5	-27,66
252	-19,74
252,4	-13,82
252,9	-5,66
253,4	-7,74
253,8	-4,58
254,3	-9,14
254,8	-10,42
255,2	-12,74
255,7	-5,62
256,1	-9,9
256,6	-4,5
257,1	-8,82
257,5	-12,1
258	-14,74
258,5	-11,9
258,9	-16,54
259,4	-16,98
259,9	-17,34
260,3	-22,18
260,8	-19,42
261,2	-12,1
261,7	-9,7
262,2	-10,66
262,6	-11,26
263,1	-15,38
263,6	-19,54
264	-20,58
264,5	-20,74
264,9	-14,46
265,4	-17,82
265,9	-19,58
266,3	-20,18
266,8	-16,18
267,3	-15,22
267,7	-12,94
268,2	-15,82
268,7	-13,78
269,1	-13,7
269,6	-18,82
270	-20,1
270,5	-17,46
271	-22,02
271,4	-23,94
271,9	-20,54
272,4	-19,18
272,8	-19,58
273,3	-17,86
273,7	-15,46
274,2	-18,3
274,7	-11,82
275,1	-12,94
275,6	-11,18
276,1	-18,18
276,5	-18,38
277	-24,38
277,4	-27,58
277,9	-20,82
278,4	-17,02
278,8	-10,62
279,3	-6,1
279,8	-1,58
280,2	-3,22
280,7	1,74
281,1	-1,34
281,6	-11,54
282,1	-16,54
282,5	-20,22
283	-20,22
283,4	-23,78
283,9	-14,66
284,4	-9,3
284,8	-12,1
285,3	-15,22
285,8	-13,98
286,2	-17,74
286,7	-19,34
287,1	-18,06
287,6	-20,58
288,1	-21,5
288,5	-22,78
289	-22,7
289,5	-23,74
289,9	-21,74
290,4	-18,22
290,8	-12,5
291,3	-11,38
291,8	-2,46
292,2	-1,7
292,7	-3,3
293,1	-9,3
293,6	-9,1
294,1	-19,54
294,5	-19,86
295	-18,78
295,5	-16,66
295,9	-17,18
296,4	-15,1
296,8	-16,66
297,3	-23,18
297,8	-19,14
298,2	-18,1
298,7	-16,94
299,1	-17,62
299,6	-12,42
300,1	-19,58
300,5	-17,02
301	-18,34
301,5	-18,46
301,9	-20,98
302,4	-18,38
302,8	-25,66
303,3	-24,3
303,8	-22,66
304,2	-17,74
304,7	-15,94
305,1	-10,86
305,6	-12,02
306,1	-12,02
306,5	-15,7
307	-13,58
307,4	-12,78
307,9	-18,9
308,4	-15,26
308,8	-14,1
309,3	-13,74
309,8	-15,74
310,2	-8,5
310,7	-12,42
311,1	-13,86
311,6	-19,62
312,1	-19,26
312,5	-20,1
313	-22,22
313,4	-22,86
313,9	-19,86
314,4	-23,02
314,8	-22,94
315,3	-23,3
315,7	-22,26
316,2	-20,7
316,7	-23,54
317,1	-20,9
317,6	-19,74
318	-16,26
318,5	-12,22
319	-11,3
319,4	-8,42
319,9	-7,98
320,3	-9,62
320,8	-21,62
321,3	-15,62
321,7	-20,98
322,2	-18,58
322,6	-19,58
323,1	-19,26
323,6	-22,86
324	-20,86
324,5	-24,86
324,9	-23,58
325,4	-17,7
325,9	-13,1
326,3	-12,06
326,8	-11,5
327,2	-14,38
327,7	-19,26
328,2	-19,18
328,6	-20,26
329,1	-18,18
329,5	-16,06
330	-8,58
330,5	-9,34
330,9	-13,18
331,4	-18,86
331,8	-23,94
332,3	-27,18
332,8	-27,02
333,2	-26,86
333,7	-25,14
334,1	-16,1
334,6	-21,54
335,1	-19,14
335,5	-17,1
336	-10,9
336,4	-18,42
336,9	-9,9
337,4	-18,9
337,8	-21,34
338,3	-19,22
338,7	-14,66
339,2	-16,54
339,7	-7,9
340,1	-4,9
340,6	-7,54
341	-6,18
341,5	-2,46
342	-8,82
342,4	-8,98
342,9	-9,34
343,3	-11,46
343,8	-17,74
344,2	-18,82
344,7	-21,54
345,2	-23,94
345,6	-27,06
346,1	-30,06
346,5	-21,3
347	-18,34
347,5	-16,86
347,9	-11,86
348,4	-6,9
348,8	-13,82
349,3	-12,82
349,8	-8,66
350,2	-5,86
350,7	-3,1
351,1	-1,9
351,6	-0,34
352	-5,74
352,5	-8,1
353	-3,02
353,4	6,98
353,9	14,58
354,3	23,22
354,8	27,7
355,3	31,02
355,7	35,62
356,2	39,06
356,6	51,58
357,1	69,7
357,5	87,98
358	105,86
358,5	129,22
358,9	149,58
359,4	171,9
359,8	206,94
360,3	241,34
360,8	280,42
361,2	326,74
361,7	378,02
362,1	425,78
362,6	485,3
363	553,98
363,5	621,86
364	696,86
364,4	768,74
364,9	850,1
365,3	925,06
365,8	996,78
366,3	1061,38
366,7	1130,34
367,2	1180,98
367,6	1226,06
368,1	1263,54
368,5	1281,54
369	1290,58
369,5	1291,7
369,9	1278,18
370,4	1249,42
370,8	1225,66
371,3	1185,18
371,7	1137,98
372,2	1083,38
372,7	1029,82
373,1	967,98
373,6	910,74
374	854,38
374,5	799,9
374,9	748,02
375,4	696,34
375,9	641,34
376,3	590,58
376,8	545,1
377,2	499,46
377,7	462,98
378,2	423,94
378,6	386,26
379,1	350,66
379,5	322,02
380	294,26
380,4	269,94
380,9	245,38
381,4	224,7
381,8	206,54
382,3	184,78
382,7	170,1
383,2	154,22
383,6	141,9
384,1	127,94
384,6	115,82
385	101,34
385,5	92,06
385,9	81,14
386,4	77,18
386,8	72,94
387,3	70,62
387,7	66,42
388,2	63,18
388,7	52,38
389,1	44,5
389,6	41,1
390	38,7
390,5	29,7
390,9	29,18
391,4	29,34
391,9	23,1
392,3	18,78
392,8	23,06
393,2	21,9
393,7	16,78
394,1	17,5
394,6	14,58
395,1	6,54
395,5	4,46
396	5,94
396,4	6,02
396,9	6,66
397,3	7,9
397,8	4,14
398,2	2,94
398,7	4,06
399,2	5,78
399,6	3,5
400,1	4,18
400,5	2,7
401	-1,14
401,4	-10,9
401,9	-6,06
402,4	-6,14
402,8	-9,02
403,3	-13,7
403,7	-6,62
404,2	-11,62
404,6	-9,78
405,1	-3,02
405,5	-0,34
406	-0,58
406,5	-2,18
406,9	-4,66
407,4	-6,86
407,8	-7,5
408,3	-6,86
408,7	-6,38
409,2	-6,9
409,6	-5,98
410,1	-2,14
410,6	2,06
411	6,7
411,5	5,3
411,9	4,7
412,4	7,06
412,8	6,42
413,3	8,94
413,7	14,02
414,2	14,94
414,7	11,78
415,1	8,78
415,6	6,1
416	7,58
416,5	6,58
416,9	4,78
417,4	5,86
417,8	12,22
418,3	16,78
418,8	15,86
419,2	22,94
419,7	29,1
420,1	32,26
420,6	28,94
421	30,62
421,5	30,58
421,9	27,06
422,4	24,02
422,8	28,5
423,3	29,86
423,8	27,06
424,2	28,06
424,7	25,98
425,1	19,38
425,6	24,94
426	30,58
426,5	26,78
426,9	31,46
427,4	38,74
427,9	35,26
428,3	29,54
428,8	34,38
429,2	30,1
429,7	25,82
430,1	28,06
430,6	36,5
431	39,34
431,5	42,86
431,9	50,06
432,4	48,62
432,8	51,3
433,3	46,78
433,8	51,86
434,2	47,7
434,7	53,54
435,1	47,62
435,6	54,42
436	50,02
436,5	56,18
436,9	55,54
437,4	65,3
437,8	64,26
438,3	71,7
438,8	68,14
439,2	72,62
439,7	74,18
440,1	80,38
440,6	82,9
441	92,26
441,5	96,34
441,9	98,94
442,4	107,86
442,8	113,22
443,3	124,46
443,7	134,38
444,2	145,62
444,7	152,46
445,1	159,62
445,6	165,14
446	171,5
446,5	170,46
446,9	177,9
447,4	186,06
447,8	190,3
448,3	200,38
448,7	220,78
449,2	228,54
449,6	240,62
450,1	255,26
450,6	258,5
451	263,9
451,5	273,26
451,9	280,46
452,4	294,34
452,8	312,74
453,3	324,06
453,7	336,7
454,2	348,74
454,6	354,98
455,1	366,18
455,5	378,94
456	384,5
456,4	401,86
456,9	418,62
457,3	431,7
457,8	439,06
458,3	465,38
458,7	472,38
459,2	488,22
459,6	505,06
460,1	520,58
460,5	538,66
461	555,58
461,4	568,22
461,9	577,02
462,3	597,62
462,8	611,66
463,2	631,26
463,7	646,62
464,1	672,3
464,6	685,34
465	696,74
465,5	709,02
466	722,46
466,4	731,58
466,9	750,38
467,3	769,5
467,8	790,02
468,2	808,34
468,7	825,58
469,1	842,46
469,6	859,22
470	877,5
470,5	893,5
470,9	910,22
471,4	924,58
471,8	937,1
472,3	953,18
472,7	975,82
473,2	996,22
473,6	1019,02
474,1	1034,7
474,5	1057,78
475	1076,22
475,4	1099,22
475,9	1121,66
476,4	1142,34
476,8	1153,1
477,3	1165,58
477,7	1179,38
478,2	1193,34
478,6	1211,14
479,1	1230,54
479,5	1246,74
480	1257,26
480,4	1270,42
480,9	1284,66
481,3	1297,82
481,8	1315,94
482,2	1335,82
482,7	1342,46
483,1	1359,38
483,6	1373,46
484	1377,06
484,5	1384,14
484,9	1404,94
485,4	1410,86
485,8	1419,22
486,3	1433,66
486,7	1445,1
487,2	1459,94
487,6	1475,86
488,1	1485,58
488,5	1495,18
489	1511,02
489,4	1512,3
489,9	1521,78
490,4	1534,26
490,8	1542,1
491,3	1552,26
491,7	1570,02
492,2	1576,86
492,6	1583,42
493,1	1598,26
493,5	1598,58
494	1597,58
494,4	1608,1
494,9	1609,62
495,3	1615,06
495,8	1618,14
496,2	1625,5
496,7	1625,34
497,1	1638,38
497,6	1637,02
498	1645,78
498,5	1649,42
498,9	1651,98
499,4	1646,94
499,8	1657,98
500,3	1657,86
500,7	1662,42
501,2	1668,46
501,6	1670,94
502,1	1671,3
502,5	1676,74
503	1673,26
503,4	1670,7
503,9	1684,46
504,3	1677,22
504,8	1675,58
505,2	1680,1
505,7	1684,7
506,1	1678,42
506,6	1691,1
507	1694,9
507,5	1694,22
507,9	1691,06
508,4	1693,54
508,8	1687,78
509,3	1680,46
509,7	1682,18
510,2	1686,66
510,6	1686,7
511,1	1685,06
511,5	1693,3
512	1688,66
512,4	1687,7
512,9	1693,06
513,3	1703,46
513,8	1709,5
514,2	1718,18
514,7	1716,7
515,1	1710,26
515,6	1708,5
516	1700,7
516,5	1706,26
516,9	1716,18
517,4	1715,3
517,8	1707,26
518,3	1708,22
518,7	1701,98
519,2	1690,34
519,6	1690,22
520,1	1703,74
520,5	1709,26
521	1708,62
521,4	1711,42
521,9	1714,3
522,3	1706,34
522,8	1706,58
523,2	1708,86
523,7	1713,66
524,1	1713,22
524,6	1712,9
525	1709,38
525,5	1706,06
525,9	1711,14
526,4	1713,9
526,8	1710,42
527,3	1714,66
527,7	1717,58
528,2	1715,5
528,6	1723,18
529,1	1730,26
529,5	1728,86
530	1733,22
530,4	1731,02
530,9	1725,26
531,3	1721,74
531,8	1727,94
532,2	1722,3
532,6	1725,5
533,1	1722,54
533,5	1721,58
534	1714,74
534,4	1719,38
534,9	1717,02
535,3	1725,78
535,8	1723,18
536,2	1730,78
536,7	1735,54
537,1	1740,42
537,6	1730,82
538	1743,22
538,5	1734,82
538,9	1733,98
539,4	1735,5
539,8	1745,98
540,3	1744,5
540,7	1751,34
541,2	1753,58
541,6	1756,38
542,1	1767,22
542,5	1770,78
543	1771,98
543,4	1770,98
543,9	1771,78
544,3	1771,38
544,8	1774,34
545,2	1785,42
545,7	1785,9
546,1	1784,62
546,5	1776,02
547	1768,9
547,4	1760,98
547,9	1763,26
548,3	1764,3
548,8	1766,98
549,2	1774,74
549,7	1776,9
550,1	1778,94
550,6	1781,98
551	1782,42
551,5	1779,74
551,9	1783,5
552,4	1783,82
552,8	1786,18
553,3	1784,46
553,7	1793,54
554,2	1794,38
554,6	1800,7
555,1	1806,54
555,5	1819,38
555,9	1820,58
556,4	1823,58
556,8	1816,34
557,3	1813,02
557,7	1810,58
558,2	1814,94
558,6	1821,74
559,1	1826,06
559,5	1828,58
560	1828,02
560,4	1827,7
560,9	1823,3
561,3	1828,26
561,8	1832,66
562,2	1832,86
562,7	1833,38
563,1	1836,78
563,6	1836,02
564	1830,86
564,4	1832,5
564,9	1834,42
565,3	1831,78
565,8	1831,34
566,2	1835,18
566,7	1836,66
567,1	1832,5
567,6	1832,74
568	1837,1
568,5	1833,62
568,9	1831,5
569,4	1833,66
569,8	1831,74
570,3	1836,34
570,7	1838,1
571,1	1835,5
571,6	1833,46
572	1836,82
572,5	1826,62
572,9	1828,22
573,4	1833,58
573,8	1838,1
574,3	1833,46
574,7	1838,14
575,2	1840,34
575,6	1834,78
576,1	1833,7
576,5	1836,26
576,9	1833,22
577,4	1823,82
577,8	1825,66
578,3	1822,14
578,7	1820,3
579,2	1819,06
579,6	1820,14
580,1	1816,66
580,5	1807,7
581	1803,62
581,4	1801,22
581,9	1799,22
582,3	1802,34
582,7	1802,78
583,2	1804,86
583,6	1804,86
584,1	1802,26
584,5	1795,98
585	1797,58
585,4	1788,34
585,9	1782,82
586,3	1782,14
586,8	1778,5
587,2	1762,58
587,6	1758,66
588,1	1753,38
588,5	1749,06
589	1742,86
589,4	1748,66
589,9	1754,74
590,3	1745,22
590,8	1743,42
591,2	1739,22
591,7	1741,9
592,1	1735,86
592,5	1739,14
593	1736,82
593,4	1735,42
593,9	1728,22
594,3	1724,46
594,8	1722,94
595,2	1711,62
595,7	1713,06
596,1	1710,82
596,6	1703,26
597	1698,86
597,4	1696,42
597,9	1687,46
598,3	1681,7
598,8	1680,9
599,2	1675,58
599,7	1675,18
600,1	1670,66
600,6	1664,86
601	1662,66
601,4	1662,62
601,9	1660,14
602,3	1657,58
602,8	1656,34
603,2	1654,98
603,7	1645,54
604,1	1640,14
604,6	1638,74
605	1632,98
605,4	1622,3
605,9	1623,7
606,3	1620,66
606,8	1619,9
607,2	1613,06
607,7	1609,3
608,1	1604,42
608,6	1601,26
609	1593,22
609,4	1589,46
609,9	1579,02
610,3	1568,94
610,8	1561,62
611,2	1557,14
611,7	1549,74
612,1	1555,1
612,6	1546,38
613	1538,38
613,4	1530,74
613,9	1533,54
614,3	1518,94
614,8	1520,38
615,2	1512,5
615,7	1510,94
616,1	1493,86
616,6	1487,78
617	1476,46
617,4	1478,74
617,9	1462,9
618,3	1465,22
618,8	1459,66
619,2	1461,14
619,7	1446,62
620,1	1446,78
620,5	1438,94
621	1444,58
621,4	1432,14
621,9	1430,18
622,3	1426,34
622,8	1425,98
623,2	1406,94
623,6	1396,82
624,1	1390,46
624,5	1379,38
625	1365,9
625,4	1359,14
625,9	1370,34
626,3	1354,46
626,8	1346,1
627,2	1346,94
627,6	1341,94
628,1	1321,7
628,5	1321,42
629	1320,62
629,4	1308,94
629,9	1300,78
630,3	1302,06
630,7	1302,18
631,2	1289,38
631,6	1277,7
632,1	1276,1
632,5	1264,82
633	1256,9
633,4	1255,82
633,8	1248,18
634,3	1242,06
634,7	1237,26
635,2	1230,5
635,6	1211,38
636,1	1212,62
636,5	1206,82
636,9	1193,54
637,4	1182,34
637,8	1184,1
638,3	1172,22
638,7	1165,62
639,2	1165,98
639,6	1158,54
640	1151,22
640,5	1143,02
640,9	1136,26
641,4	1130,22
641,8	1131,3
642,2	1129,02
642,7	1125,82
643,1	1123,02
643,6	1110,58
644	1108,66
644,5	1107,46
644,9	1106,94
645,3	1099,3
645,8	1092,86
646,2	1083,86
646,7	1070,34
647,1	1067,22
647,6	1059,5
648	1059,02
648,4	1050,66
648,9	1046,02
649,3	1036,66
649,8	1030,02
650,2	1025,74
650,6	1022,74
651,1	1022,14
651,5	1013,14
652	1005,66
652,4	1006,46
652,9	993,94
653,3	984,86
653,7	985,26
654,2	986,14
654,6	974,02
655,1	970,58
655,5	965,14
655,9	959,02
656,4	950,22
656,8	942,18
657,3	937,26
657,7	936,74
658,2	927,26
658,6	925,78
659	922,1
659,5	922,5
659,9	916,66
660,4	914,5
660,8	907,54
661,2	900,66
661,7	893,22
662,1	885,82
662,6	878,74
663	872,62
663,4	873,18
663,9	869,66
664,3	865,46
664,8	861,26
665,2	857,58
665,6	856,9
666,1	846,82
666,5	840,18
667	837,38
667,4	831,02
667,9	815,14
668,3	807,42
668,7	803,9
669,2	790,22
669,6	789,82
670,1	789,94
670,5	789,42
670,9	785,74
671,4	788,26
671,8	779,14
672,3	769,38
672,7	766,54
673,1	762,54
673,6	751,18
674	747,74
674,5	745,26
674,9	734,26
675,3	723,98
675,8	728,3
676,2	726,14
676,7	725,1
677,1	723,78
677,5	724,54
678	719,34
678,4	712,18
678,9	701,34
679,3	694,98
679,7	687,22
680,2	679,82
680,6	664,82
681,1	666,54
681,5	667,02
681,9	658,54
682,4	655,22
682,8	663,42
683,3	655,34
683,7	645,94
684,1	645,82
684,6	634,42
685	622,26
685,5	616,38
685,9	613,66
686,3	609,14
686,8	605,14
687,2	606,3
687,7	599,86
688,1	598,66
688,5	599,22
689	600,46
689,4	596,66
689,9	595,62
690,3	588,18
690,7	580,58
691,2	579,9
691,6	576,54
692	579,06
692,5	583,98
692,9	581,54
693,4	573,18
693,8	572,54
694,2	560,06
694,7	550,06
695,1	541,78
695,6	540,5
696	529,82
696,4	528,22
696,9	525,9
697,3	521,74
697,8	515,98
698,2	517,46
698,6	516,9
699,1	515,9
699,5	515,46
699,9	513,66
700,4	507,9
700,8	508,58
701,3	500,22
701,7	496,7
702,1	498,14
702,6	492,94
703	487,18
703,5	488,66
703,9	484,54
704,3	478,26
704,8	475,5
705,2	473,3
705,6	467,34
706,1	465,62
706,5	456,22
707	461,06
707,4	457,62
707,8	453,18
708,3	452,7
708,7	456,06
709,2	444,86
709,6	438,18
710	438,74
710,5	431,1
710,9	426,98
711,3	430,74
711,8	432,62
712,2	431,66
712,7	429,38
713,1	420,54
713,5	415,22
714	408,66
714,4	403,66
714,8	405,18
715,3	411,5
715,7	410,1
716,2	407,02
716,6	402,62
717	393,62
717,5	386,3
717,9	377,82
718,3	372,62
718,8	371,22
719,2	367,46
719,7	365,74
720,1	363,34
720,5	363,94
721	357,66
721,4	361,06
721,8	355,46
722,3	355,26
722,7	352,62
723,2	348,94
723,6	344,3
724	342,62
724,5	336,86
724,9	328,18
725,3	329,54
725,8	329,54
726,2	327,22
726,7	321,22
727,1	325,14
727,5	318,1
728	315,06
728,4	315,86
728,8	321,74
729,3	319,14
729,7	319,14
730,1	313,62
730,6	310,82
731	303,66
731,5	300,7
731,9	298,82
732,3	300,86
732,8	294,7
733,2	289,46
733,6	292,94
734,1	294,86
734,5	289,82
734,9	298,54
735,4	306,98
735,8	303,46
736,3	300,22
736,7	299,98
737,1	288,42
737,6	284,74
738	281,58
738,4	281,02
738,9	280,74
739,3	283,22
739,7	277,1
740,2	275,3
740,6	268,18
741,1	266,18
741,5	264,94
741,9	267,58
742,4	262,78
742,8	262,82
743,2	261,82
743,7	255,58
744,1	250,5
744,5	252,9
745	251,06
745,4	247,62
745,8	242,86
746,3	237,26
746,7	227,42
747,2	225,38
747,6	226,34
748	229,86
748,5	232,34
748,9	241,62
749,3	234,74
749,8	229,86
750,2	232,9
750,6	230,54
751,1	222,98
751,5	231,54
751,9	231,9
752,4	226,62
752,8	230,58
753,3	230,86
753,7	223,34
754,1	224,34
754,6	223,82
755	218,66
755,4	221,7
755,9	220,42
756,3	215,66
756,7	211,06
757,2	211,22
757,6	199,34
758	202,9
758,5	202,46
758,9	204,38
759,3	194,5
759,8	198,14
760,2	193,3
760,6	188,74
761,1	184,54
761,5	187,82
761,9	192,1
762,4	188,98
762,8	187,02
763,3	184,66
763,7	183,18
764,1	174,1
764,6	177,06
765	176,5
765,4	176,74
765,9	172,9
766,3	172,98
766,7	170,06
767,2	171,38
767,6	170,22
768	172,98
768,5	168,86
768,9	168,06
769,3	167,5
769,8	168,06
770,2	167,06
770,6	175,58
771,1	177,62
771,5	176,42
771,9	172,38
772,4	171,14
772,8	163,42
773,2	159,58
773,7	158,86
774,1	161,06
774,5	156,98
775	153,18
775,4	149,34
775,8	148,38
776,3	145,34
776,7	140,86
777,1	140,22
777,6	139,78
778	136,74
778,4	136,54
778,9	143,98
779,3	144,14
779,7	142,7
780,2	147,54
780,6	142,9
781	138,5
781,5	138,62
781,9	132,78
782,3	120,98
782,8	120,62
783,2	115,7
783,6	115,66
784,1	124,22
784,5	126,14
784,9	128,86
785,4	132,94
785,8	129,26
786,2	126,02
786,7	121,38
787,1	117,34
787,5	110,58
788	110,98
788,4	102,82
788,8	106,42
789,3	101,14
789,7	105,66
790,1	102,1
790,6	104,22
791	97,18
791,4	103,9
791,9	101,42
792,3	98,86
792,7	97,62
793,2	96,74
793,6	90,14
794	89,9
794,5	94,06
794,9	96,06
795,3	102,86
795,8	99,5
796,2	100,74
796,6	96,22
797,1	92,22
797,5	85,14
797,9	88,62
798,4	82,18
798,8	89,62
799,2	89,98
799,7	91,06
800,1	92,1
800,5	91,42
801	88,22
801,4	87,14
801,8	89,58
802,2	90,1
802,7	94,06
803,1	91,74
803,5	90,98
804	89,38
804,4	88,86
804,8	82,22
805,3	77,98
805,7	82,62
806,1	80,18
806,6	77,78
807	79,02
807,4	82,34
807,9	76,82
808,3	77,22
808,7	73,62
809,2	75,38
809,6	69,38
810	74,78
810,4	72,74
810,9	76,06
811,3	75,74
811,7	75,18
812,2	64,58
812,6	65,34
813	62,3
813,5	61,78
813,9	60,5
814,3	62,7
814,8	66,42
815,2	67,42
815,6	67,82
816,1	64,94
816,5	70,46
816,9	67,14
817,3	62,18
817,8	60,7
818,2	65,54
818,6	63,38
819,1	56,1
819,5	58,5
819,9	54,3
820,4	54,66
820,8	51,94
821,2	55,14
821,7	51,3
822,1	56,1
822,5	55,54
822,9	52,82
823,4	53,02
823,8	53,78
824,2	55,38
824,7	52,1
825,1	53,18
825,5	55,18
826	56,54
826,4	48,98
826,8	51,42
827,3	49,3
827,7	46,18
828,1	43,22
828,5	43,34
829	40,1
829,4	41,34
829,8	38,5
830,3	43,26
830,7	46,86
831,1	44,98
831,6	46,94
832	48,46
832,4	48,42
832,8	46,62
833,3	50,38
833,7	47,82
834,1	46,74
834,6	44,78
835	42,22
835,4	33,22
835,8	27,5
836,3	28,74
836,7	29,58
837,1	29,74
837,6	39,66
838	44,82
838,4	47,3
838,9	45,26
839,3	47,22
839,7	50,78
840,1	50,34
840,6	43,66
841	37,86
841,4	34,42
841,9	29,14
842,3	22,98
842,7	26,42
843,1	35,18
843,6	30,74
844	28,1
844,4	35,74
844,9	36,22
845,3	31,54
845,7	34,58
846,2	37,42
846,6	32,14
847	27,46
847,4	24,06
847,9	24,14
848,3	17,5
848,7	21,14
849,2	24,3
849,6	26,78
850	27,74
850,4	31,46
850,9	31,02
851,3	29,78
851,7	25,5
852,2	20,9
852,6	19,06
853	15,86
853,4	16,42
853,9	17,42
854,3	21,86
854,7	20,3
855,2	23,58
855,6	20,06
856	24,54
856,4	23,7
856,9	26,98
857,3	20,14
857,7	26,66
858,2	23,94
858,6	23,82
859	25,58
859,4	28,06
859,9	22,5
860,3	21,02
860,7	17,62
861,1	11,26
861,6	9,66
862	9,46
862,4	6,14
862,9	10,3
863,3	10,62
863,7	13,78
864,1	17,86
864,6	23,82
865	20,34
865,4	18,9
865,9	17,06
866,3	14,9
866,7	12,74
867,1	14,26
867,6	15,86
868	17,3
868,4	16,26
868,8	15,9
869,3	18,22
869,7	16,38
870,1	16,38
870,6	18,86
871	18,22
871,4	-49,06
871,8	-41,78
872,3	-44,02
872,7	-53,9
873,1	-51,38
873,5	12,38
874	5,82
874,4	10,42
874,8	17,86
875,3	14,18
875,7	15,46
876,1	15,82
876,5	8,98
877	4,66
877,4	7,66
877,8	5,5
878,2	6,46
878,7	11,9
879,1	13,98
879,5	11,14
879,9	13,98
880,4	16,22
880,8	14,1
881,2	11,74
881,7	11,34
882,1	7,58
882,5	3,62
882,9	1,74
883,4	5,22
883,8	4,74
884,2	7,26
884,6	8,58
885,1	7,14
885,5	1,18
885,9	0,7
886,3	-0,3
886,8	-3,5
887,2	-5,66
887,6	-1,22
888	-1,26
888,5	0,46
888,9	4,78
889,3	2,58
889,8	0,26
890,2	-4,06
890,6	-3,82
891	-7,42
891,5	0,78
891,9	2,62
892,3	4,46
892,7	1,5
893,2	4,86
893,6	-3,14
894	-1,1
894,4	1,3
894,9	-2,14
895,3	-0,62
895,7	4,22
896,1	5,98
896,6	7,5
897	12,7
897,4	7,7
897,8	6,34
898,3	3,5
898,7	-3,7
899,1	-2,78
899,5	-4,06
900	-2,42
900,4	-0,1
900,8	1,54
901,2	-2,74
901,7	2,34
902,1	-1,86
902,5	-3,7
902,9	0,42
903,4	2,06
903,8	-3,9
904,2	-4,54
904,6	-1,94
905,1	-1,94
905,5	-5,66
905,9	-2,46
906,3	-2,54
906,8	-7,02
907,2	-2,9
907,6	1,7
908	2,86
908,5	3,34
908,9	1,54
909,3	-5,3
909,7	-5,82
910,2	-7,02
910,6	-1,86
911	-5,66
911,4	-6,38
911,9	-10,26
912,3	-14,66
912,7	-16,54
913,1	-12,18
913,6	-9,98
914	-11,02
914,4	-7,18
914,8	-10,78
915,3	-9,66
915,7	-8,82
916,1	-8,5
916,5	-7,34
916,9	-9,58
917,4	-7,34
917,8	-4,98
918,2	-0,02
918,6	-1,58
919,1	6,06
919,5	4,58
919,9	4,78
920,3	2,62
920,8	6,38
921,2	4,46
921,6	1,06
922	-4,42
922,5	-2,5
922,9	-7,82
923,3	-8,66
923,7	-8,82
924,2	-14,14
924,6	-18,46
925	-14,94
925,4	-13,66
925,8	-12,66
926,3	-9,98
926,7	-12,1
927,1	-13,38
927,5	-16,38
928	-21,78
928,4	-20,42
928,8	-16,74
929,2	-19,54
929,7	-18,18
930,1	-8,26
930,5	-4,42
930,9	-0,5
931,3	-1,74
931,8	-5,62
932,2	-11,02
932,6	-14,22
933	-21,98
933,5	-17,06
933,9	-15,54
934,3	-15,06
934,7	-13,82
935,2	-6,54
935,6	-13,82
936	-11,5
936,4	-10,42
936,8	-11,54
937,3	-11,62
937,7	-7,02
938,1	-7,22
938,5	-9,54
939	-6,46
939,4	-11,3
939,8	-13,22
940,2	-16,38
940,6	-13,58
941,1	-18,14
941,5	-16,1
941,9	-18,7
942,3	-16,62
942,8	-16,66
943,2	-12,62
943,6	-14,94
944	-14,18
944,4	-18,54
944,9	-20,3
945,3	-22,86
945,7	-19,78
946,1	-15,26
946,6	-8,5
947	-8,5
947,4	-10,98
947,8	-17,3
948,2	-22,54
948,7	-20,74
949,1	-19,9
949,5	-19,7
949,9	-18,14
950,3	-13,18
950,8	-13,18
951,2	-18,02
951,6	-12,94
952	-8,02
952,5	-12,66
952,9	-16,86
953,3	-15,34
953,7	-16,34
954,1	-24,06
954,6	-19,5
955	-19,78
955,4	-15,98
955,8	-18,5
956,2	-12,02
956,7	-18,1
957,1	-14,74
957,5	-15,34
957,9	-16,18
958,3	-20,14
958,8	-12,98
959,2	-13,9
959,6	-14,62
960	-6,22
960,5	-1,3
960,9	-4,66
961,3	-2,7
961,7	-3,38
962,1	-6,7
962,6	-3,14
963	-2,82
963,4	-8,7
963,8	-6,54
964,2	-9,14
964,7	-7,42
965,1	-3,66
965,5	-0,74
965,9	-0,3
966,3	0,18
966,8	-6,02
967,2	-13,06
967,6	-12,1
968	-17,18
968,4	-12,5
968,9	-17,62
969,3	-14,78
969,7	-17,02
970,1	-14,74
970,5	-20,82
971	-15,18
971,4	-14,66
971,8	-20,98
972,2	-21,58
972,6	-20,66
973,1	-24,3
973,5	-22,82
973,9	-18,74
974,3	-20,46
974,7	-24,66
975,2	-16,34
975,6	-14,22
976	-12,14
976,4	-8,58
976,8	-2,54
977,3	-11,46
977,7	-11,02
978,1	-13,7
978,5	-13,98
978,9	-15,78
979,4	-9,9
979,8	-12,94
980,2	-11,38
980,6	-13,9
981	-12,94
981,5	-22,66
981,9	-20,42
982,3	-14,14
982,7	-15,06
983,1	-15,82
983,6	-9,18
984	-10,58
984,4	-18,02
984,8	-18,7
985,2	-15,34
985,6	-18,9
986,1	-17,38
986,5	-14,54
986,9	-13,26
987,3	-18,1
987,7	-17,18
988,2	-19,94
988,6	-22,02
989	-18,82
989,4	-19,54
989,8	-20,46
990,3	-19,86
990,7	-18,82
991,1	-16,66
991,5	-16,54
991,9	-12,54
992,3	-20,5
992,8	-26,82
993,2	-34,42
993,6	-29,7
994	-26,9
994,4	-15,38
994,9	-10,46
995,3	-9,82
995,7	-12,26
996,1	-14,06
996,5	-17,7
996,9	-14,86
997,4	-8,5
997,8	-11,06
998,2	-13,42
998,6	-15,02
999	-18,42
999,5	-23,02
999,9	-24,06
1000,3	-27,7
1000,7	-20,7
1001,1	-20,26
1001,5	-13,78
1002	-10,58
1002,4	-7,94
1002,8	-14,5
1003,2	-9,94
1003,6	-13,38
1004	-12,14
1004,5	-11,98
1004,9	-5,58
1005,3	-9,26
1005,7	-5,66
1006,1	-4,78
1006,6	-0,9
1007	-4,78
1007,4	-2,26
1007,8	-2,5
1008,2	-4,3
1008,6	-5,74
1009,1	-8,82
1009,5	-12,62
1009,9	-19,3
1010,3	-23,7
1010,7	-25,22
1011,1	-21,18
1011,6	-16,78
1012	-13,26
1012,4	-9,82
1012,8	-11,54
1013,2	-16,02
1013,6	-24,86
1014,1	-23,3
1014,5	-23,22
1014,9	-24,42
1015,3	-24,5
1015,7	-17,1
1016,1	-22,1
1016,6	-26,98
1017	-25,74
1017,4	-27,26
1017,8	-24,14
1018,2	-22,86
1018,6	-18,9
1019,1	-19,18
1019,5	-22,26
1019,9	-30,54
1020,3	-32,1
1020,7	-33,62
1021,1	-29,46
1021,6	-22,14
1022	-19,54
1022,4	-16,38
1022,8	-12,54
1023,2	-17,62
1023,6	-17,38
1024,1	-18,14
1024,5	-19,22
1024,9	-22,26
1025,3	-22,58
1025,7	-24,86
1026,1	-23,38
1026,6	-24,34
1027	-20,02
1027,4	-16,58
1027,8	-17,66
1028,2	-15,14
1028,6	-17,9
1029	-22,14
1029,5	-20,3
1029,9	-18,62
1030,3	-19,3
1030,7	-14,34
1031,1	-13,54
1031,5	-16,02
1032	-13,86
1032,4	-14,86
1032,8	-14,82
1033,2	-13,42
1033,6	-14,86
1034	-15,74
1034,4	-20,7
1034,9	-19,06
1035,3	-23,34
1035,7	-19,38
1036,1	-23,62
1036,5	-20,22
1036,9	-22,98
1037,4	-24,66
1037,8	-34,62
1038,2	-28,5
1038,6	-26,86
1039	-29,62
1039,4	-23,38
1039,8	-19,82
1040,3	-26,3
1040,7	-30,22
1041,1	-27,34
1041,5	-27,5
1041,9	-19,34
1042,3	-16,9
1042,7	-16,3
1043,2	-18,7
1043,6	-19,14
1044	-21,02
1044,4	-25,7
1044,8	-27,14
1045,2	-19,18
1045,6	-15,26
1046,1	-12,86
1046,5	-8,26
1046,9	-3,5
1047,3	-9,98
1047,7	-16,14
1048,1	-21,26
1048,5	-19,62
1049	-20,38
1049,4	-22,82
1049,8	-23,66
1050,2	-21,86
1050,6	-20,62
1051	-22,98
1051,4	-21,7
1051,9	-22,34
1052,3	-27,22
1052,7	-33,5
1053,1	-32,98
1053,5	-30,46
1053,9	-26,06
1054,3	-24,14
1054,8	-19,86
1055,2	-17,02
1055,6	-20,22
1056	-23,78
1056,4	-18,38
1056,8	-18,1
1057,2	-21,86
1057,6	-19,98
1058,1	-18,18
1058,5	-26,22
1058,9	-25,94
1059,3	-23,18
1059,7	-21,14
1060,1	-19,74
1060,5	-11,9
1061	-11,18
1061,4	-9,54
1061,8	-13,78
1062,2	-19,18
1062,6	-18,58
1063	-22,42
1063,4	-20,46
1063,8	-20,54
1064,3	-14,7
1064,7	-21,58
1065,1	-18,54
1065,5	-15,9
1065,9	-15,38
1066,3	-20,46
1066,7	-19,1
1067,1	-14,66
1067,6	-24,7
1068	-24,86
1068,4	-21,1
1068,8	-16,7
1069,2	-23,18
1069,6	-18,86
1070	-14,3
1070,4	-13,54
1070,9	-10,94
1071,3	-17,78
1071,7	-17,78
1072,1	-21,58
1072,5	-21,3
1072,9	-28,5
1073,3	-16,94
1073,7	-15,42
1074,2	-12,34
1074,6	-14,78
1075	-16,74
1075,4	-23,26
1075,8	-21,1
1076,2	-15,38
1076,6	-13,34
1077	-13,14
1077,5	-12,06
1077,9	-15,74
1078,3	-23,06
1078,7	-25,54
1079,1	-22,54
1079,5	-17,3
1079,9	-14,26
1080,3	-8,78
1080,7	-5,5
1081,2	-4,38
1081,6	-5,06
1082	-2,74
1082,4	-7,3
1082,8	-6,42
1083,2	-8,22
1083,6	-11,18
1084	-15,22
1084,5	-19,1
1084,9	-20,06
1085,3	-19,58
1085,7	-14,98
1086,1	-16,66
1086,5	-9,86
1086,9	-12,5
1087,3	-14,78
1087,7	-21,3
1088,2	-22,74
1088,6	-20,58
1089	-21,82
1089,4	-15,22
1089,8	-9,66
1090,2	-5,38
1090,6	-12,3
1091	-9,62
1091,4	-19,02
1091,9	-26,5
1092,3	-25,54
1092,7	-22,02
1093,1	-20,78
1093,5	-16,06
1093,9	-9,34
1094,3	-13,74
1094,7	-15,06
1095,1	-18,94
1095,5	-18,46
1096	-16,58
1096,4	-13,82
1096,8	-11,18
1097,2	-4,94
1097,6	-8,38
1098	-12,86
1098,4	-14,22
1098,8	-17,9
1099,2	-18,22
1099,6	-15,34
1100,1	-13,26
1100,5	-7,26
1100,9	-6,26
1101,3	-11,46
1101,7	-9,66
1102,1	-8,74
1102,5	-13,14
1102,9	-10,62
1103,3	-10,42
1103,7	-9,34
1104,2	-9,9
1104,6	-11,7
1105	-10,42
1105,4	-7,74
1105,8	-6,02
1106,2	-4,7
1106,6	-0,54
1107	-1,74
1107,4	0,58
1107,8	0,7
1108,3	1,033
