Data from Absorbance_00009.txt Node
Date: Wed Aug 02 17:35:11 MSK 2023
User: vat
Spectrometer: MAYP114033
Trigger mode: 0
Integration Time (sec): 8,000000E-3
Scans to average: 10
Electric dark correction enabled: true
Nonlinearity correction enabled: false
Boxcar width: 3
XAxis mode: Wavelengths
Number of Pixels in Spectrum: 2068
>>>>>Begin Spectral Data<<<<<
199,4	-0
199,9	-0,113
200,4	0,251
200,8	0,637
201,3	0,801
201,8	0,901
202,2	0,931
202,7	0,923
203,2	0,969
203,6	1,003
204,1	1,026
204,6	1,039
205	1,053
205,5	1,062
206	1,09
206,4	1,127
206,9	1,139
207,4	1,143
207,8	1,152
208,3	1,161
208,8	1,173
209,2	1,212
209,7	1,221
210,2	1,231
210,6	1,246
211,1	1,247
211,5	1,271
212	1,284
212,5	1,309
212,9	1,301
213,4	1,321
213,9	1,34
214,3	1,387
214,8	1,381
215,3	1,419
215,7	1,377
216,2	1,398
216,7	1,421
217,1	1,433
217,6	1,428
218,1	1,446
218,5	1,474
219	1,512
219,5	1,547
219,9	1,539
220,4	1,546
220,9	1,554
221,3	1,574
221,8	1,574
222,3	1,597
222,7	1,611
223,2	1,648
223,6	1,665
224,1	1,693
224,6	1,706
225	1,718
225,5	1,709
226	1,7
226,4	1,717
226,9	1,735
227,4	1,729
227,8	1,757
228,3	1,748
228,8	1,759
229,2	1,763
229,7	1,765
230,2	1,786
230,6	1,82
231,1	1,817
231,5	1,833
232	1,847
232,5	1,891
232,9	1,902
233,4	1,869
233,9	1,881
234,3	1,895
234,8	1,913
235,3	1,95
235,7	1,957
236,2	1,972
236,7	2,029
237,1	2,014
237,6	2,004
238,1	2,01
238,5	1,991
239	1,976
239,4	1,969
239,9	1,964
240,4	1,977
240,8	1,992
241,3	1,991
241,8	2,008
242,2	2,012
242,7	2,006
243,2	2,025
243,6	2,05
244,1	2,051
244,6	2,062
245	2,072
245,5	2,097
245,9	2,121
246,4	2,13
246,9	2,132
247,3	2,138
247,8	2,157
248,3	2,17
248,7	2,15
249,2	2,155
249,7	2,146
250,1	2,15
250,6	2,165
251	2,163
251,5	2,153
252	2,167
252,4	2,149
252,9	2,143
253,4	2,136
253,8	2,126
254,3	2,115
254,8	2,123
255,2	2,136
255,7	2,153
256,1	2,156
256,6	2,147
257,1	2,171
257,5	2,175
258	2,15
258,5	2,143
258,9	2,142
259,4	2,13
259,9	2,124
260,3	2,111
260,8	2,088
261,2	2,116
261,7	2,127
262,2	2,123
262,6	2,137
263,1	2,145
263,6	2,129
264	2,175
264,5	2,165
264,9	2,151
265,4	2,168
265,9	2,167
266,3	2,166
266,8	2,196
267,3	2,164
267,7	2,143
268,2	2,141
268,7	2,135
269,1	2,111
269,6	2,102
270	2,082
270,5	2,09
271	2,108
271,4	2,107
271,9	2,107
272,4	2,12
272,8	2,138
273,3	2,146
273,7	2,131
274,2	2,121
274,7	2,122
275,1	2,089
275,6	2,069
276,1	2,045
276,5	2,023
277	2,012
277,4	1,97
277,9	1,938
278,4	1,909
278,8	1,881
279,3	1,837
279,8	1,787
280,2	1,723
280,7	1,673
281,1	1,606
281,6	1,536
282,1	1,462
282,5	1,396
283	1,325
283,4	1,257
283,9	1,191
284,4	1,131
284,8	1,077
285,3	1,03
285,8	0,984
286,2	0,943
286,7	0,907
287,1	0,876
287,6	0,848
288,1	0,825
288,5	0,802
289	0,785
289,5	0,77
289,9	0,758
290,4	0,747
290,8	0,737
291,3	0,728
291,8	0,72
292,2	0,713
292,7	0,708
293,1	0,703
293,6	0,699
294,1	0,695
294,5	0,692
295	0,69
295,5	0,687
295,9	0,684
296,4	0,68
296,8	0,678
297,3	0,676
297,8	0,673
298,2	0,67
298,7	0,666
299,1	0,664
299,6	0,662
300,1	0,658
300,5	0,655
301	0,652
301,5	0,648
301,9	0,645
302,4	0,641
302,8	0,638
303,3	0,635
303,8	0,631
304,2	0,627
304,7	0,624
305,1	0,62
305,6	0,618
306,1	0,612
306,5	0,608
307	0,605
307,4	0,6
307,9	0,596
308,4	0,593
308,8	0,587
309,3	0,584
309,8	0,58
310,2	0,575
310,7	0,57
311,1	0,564
311,6	0,559
312,1	0,554
312,5	0,549
313	0,544
313,4	0,538
313,9	0,533
314,4	0,528
314,8	0,523
315,3	0,518
315,7	0,512
316,2	0,507
316,7	0,501
317,1	0,496
317,6	0,49
318	0,485
318,5	0,48
319	0,474
319,4	0,469
319,9	0,465
320,3	0,459
320,8	0,454
321,3	0,448
321,7	0,443
322,2	0,437
322,6	0,431
323,1	0,426
323,6	0,421
324	0,415
324,5	0,41
324,9	0,405
325,4	0,4
325,9	0,395
326,3	0,39
326,8	0,385
327,2	0,38
327,7	0,375
328,2	0,37
328,6	0,365
329,1	0,359
329,5	0,353
330	0,347
330,5	0,342
330,9	0,337
331,4	0,332
331,8	0,327
332,3	0,323
332,8	0,318
333,2	0,314
333,7	0,31
334,1	0,305
334,6	0,3
335,1	0,294
335,5	0,289
336	0,284
336,4	0,28
336,9	0,275
337,4	0,27
337,8	0,266
338,3	0,261
338,7	0,256
339,2	0,252
339,7	0,248
340,1	0,244
340,6	0,239
341	0,235
341,5	0,231
342	0,227
342,4	0,223
342,9	0,219
343,3	0,215
343,8	0,212
344,2	0,208
344,7	0,204
345,2	0,201
345,6	0,197
346,1	0,193
346,5	0,189
347	0,186
347,5	0,182
347,9	0,179
348,4	0,176
348,8	0,173
349,3	0,17
349,8	0,167
350,2	0,164
350,7	0,161
351,1	0,158
351,6	0,154
352	0,151
352,5	0,148
353	0,146
353,4	0,143
353,9	0,14
354,3	0,138
354,8	0,136
355,3	0,133
355,7	0,131
356,2	0,128
356,6	0,126
357,1	0,124
357,5	0,122
358	0,12
358,5	0,118
358,9	0,116
359,4	0,115
359,8	0,111
360,3	0,11
360,8	0,108
361,2	0,106
361,7	0,103
362,1	0,101
362,6	0,099
363	0,098
363,5	0,096
364	0,093
364,4	0,091
364,9	0,09
365,3	0,088
365,8	0,087
366,3	0,086
366,7	0,084
367,2	0,084
367,6	0,083
368,1	0,082
368,5	0,08
369	0,079
369,5	0,078
369,9	0,076
370,4	0,075
370,8	0,073
371,3	0,072
371,7	0,071
372,2	0,07
372,7	0,07
373,1	0,068
373,6	0,066
374	0,065
374,5	0,063
374,9	0,062
375,4	0,061
375,9	0,059
376,3	0,058
376,8	0,057
377,2	0,056
377,7	0,055
378,2	0,055
378,6	0,054
379,1	0,053
379,5	0,052
380	0,052
380,4	0,051
380,9	0,05
381,4	0,048
381,8	0,048
382,3	0,048
382,7	0,046
383,2	0,046
383,6	0,046
384,1	0,045
384,6	0,044
385	0,043
385,5	0,042
385,9	0,042
386,4	0,041
386,8	0,041
387,3	0,04
387,7	0,039
388,2	0,039
388,7	0,038
389,1	0,038
389,6	0,037
390	0,035
390,5	0,035
390,9	0,034
391,4	0,033
391,9	0,033
392,3	0,033
392,8	0,032
393,2	0,032
393,7	0,032
394,1	0,031
394,6	0,031
395,1	0,03
395,5	0,03
396	0,03
396,4	0,029
396,9	0,028
397,3	0,027
397,8	0,027
398,2	0,027
398,7	0,026
399,2	0,025
399,6	0,024
400,1	0,025
400,5	0,024
401	0,023
401,4	0,022
401,9	0,022
402,4	0,021
402,8	0,021
403,3	0,021
403,7	0,02
404,2	0,019
404,6	0,019
405,1	0,019
405,5	0,018
406	0,018
406,5	0,018
406,9	0,018
407,4	0,018
407,8	0,017
408,3	0,016
408,7	0,016
409,2	0,015
409,6	0,015
410,1	0,015
410,6	0,016
411	0,015
411,5	0,015
411,9	0,014
412,4	0,014
412,8	0,014
413,3	0,014
413,7	0,013
414,2	0,013
414,7	0,012
415,1	0,012
415,6	0,011
416	0,01
416,5	0,01
416,9	0,01
417,4	0,01
417,8	0,01
418,3	0,009
418,8	0,009
419,2	0,01
419,7	0,009
420,1	0,009
420,6	0,009
421	0,009
421,5	0,009
421,9	0,008
422,4	0,008
422,8	0,007
423,3	0,007
423,8	0,006
424,2	0,006
424,7	0,006
425,1	0,006
425,6	0,006
426	0,006
426,5	0,006
426,9	0,006
427,4	0,006
427,9	0,005
428,3	0,005
428,8	0,004
429,2	0,004
429,7	0,004
430,1	0,004
430,6	0,004
431	0,004
431,5	0,004
431,9	0,004
432,4	0,004
432,8	0,004
433,3	0,004
433,8	0,004
434,2	0,004
434,7	0,004
435,1	0,004
435,6	0,004
436	0,004
436,5	0,003
436,9	0,003
437,4	0,003
437,8	0,003
438,3	0,002
438,8	0,002
439,2	0,001
439,7	0,001
440,1	0
440,6	0,001
441	0,001
441,5	0,001
441,9	0,001
442,4	0,001
442,8	0,001
443,3	0,001
443,7	0,001
444,2	0
444,7	0,001
445,1	-0
445,6	0
446	-0
446,5	0
446,9	0
447,4	-0
447,8	-0,001
448,3	0
448,7	0
449,2	0
449,6	-0
450,1	-0
450,6	0
451	0
451,5	-0
451,9	-0
452,4	-0
452,8	-0
453,3	-0,001
453,7	-0,002
454,2	-0,002
454,6	-0,002
455,1	-0,002
455,5	-0,002
456	-0,001
456,4	-0,001
456,9	-0
457,3	-0
457,8	-0
458,3	-0
458,7	-0,001
459,2	-0,001
459,6	-0,001
460,1	-0,001
460,5	-0,001
461	-0,001
461,4	-0,001
461,9	-0,001
462,3	-0,002
462,8	-0,002
463,2	-0,002
463,7	-0,001
464,1	-0,001
464,6	-0,002
465	-0,001
465,5	-0,001
466	-0,001
466,4	-0,001
466,9	-0,001
467,3	-0,001
467,8	-0,001
468,2	-0,001
468,7	-0,001
469,1	-0,001
469,6	-0,001
470	-0,001
470,5	-0,001
470,9	-0,001
471,4	-0,001
471,8	-0,001
472,3	-0,002
472,7	-0,002
473,2	-0,002
473,6	-0,002
474,1	-0,002
474,5	-0,002
475	-0,002
475,4	-0,002
475,9	-0,003
476,4	-0,003
476,8	-0,003
477,3	-0,002
477,7	-0,003
478,2	-0,002
478,6	-0,002
479,1	-0,002
479,5	-0,002
480	-0,002
480,4	-0,002
480,9	-0,002
481,3	-0,002
481,8	-0,002
482,2	-0,002
482,7	-0,002
483,1	-0,003
483,6	-0,003
484	-0,003
484,5	-0,003
484,9	-0,002
485,4	-0,003
485,8	-0,003
486,3	-0,003
486,7	-0,003
487,2	-0,003
487,6	-0,003
488,1	-0,003
488,5	-0,003
489	-0,003
489,4	-0,003
489,9	-0,002
490,4	-0,003
490,8	-0,002
491,3	-0,003
491,7	-0,003
492,2	-0,002
492,6	-0,003
493,1	-0,003
493,5	-0,002
494	-0,002
494,4	-0,002
494,9	-0,002
495,3	-0,001
495,8	-0,001
496,2	-0,001
496,7	-0,001
497,1	-0,002
497,6	-0,002
498	-0,002
498,5	-0,002
498,9	-0,003
499,4	-0,003
499,8	-0,003
500,3	-0,003
500,7	-0,003
501,2	-0,002
501,6	-0,002
502,1	-0,001
502,5	-0,001
503	-0,001
503,4	-0,001
503,9	-0,001
504,3	-0,002
504,8	-0,002
505,2	-0,003
505,7	-0,003
506,1	-0,003
506,6	-0,002
507	-0,002
507,5	-0,002
507,9	-0,002
508,4	-0,003
508,8	-0,003
509,3	-0,003
509,7	-0,003
510,2	-0,004
510,6	-0,003
511,1	-0,003
511,5	-0,003
512	-0,003
512,4	-0,002
512,9	-0,002
513,3	-0,002
513,8	-0,002
514,2	-0,001
514,7	-0,002
515,1	-0,002
515,6	-0,002
516	-0,002
516,5	-0,002
516,9	-0,002
517,4	-0,003
517,8	-0,002
518,3	-0,002
518,7	-0,002
519,2	-0,001
519,6	-0,001
520,1	-0,001
520,5	-0,001
521	-0,001
521,4	-0
521,9	-0
522,3	-0,001
522,8	-0,001
523,2	-0,001
523,7	-0,002
524,1	-0,002
524,6	-0,003
525	-0,003
525,5	-0,002
525,9	-0,002
526,4	-0,002
526,8	-0,003
527,3	-0,003
527,7	-0,002
528,2	-0,002
528,6	-0,002
529,1	-0,002
529,5	-0,002
530	-0,002
530,4	-0,001
530,9	-0,001
531,3	-0,002
531,8	-0,001
532,2	-0,001
532,6	-0,001
533,1	-0,001
533,5	-0,001
534	-0,001
534,4	-0,001
534,9	-0,002
535,3	-0,002
535,8	-0,002
536,2	-0,001
536,7	-0,001
537,1	-0,001
537,6	-0,001
538	-0,001
538,5	-0,001
538,9	-0,001
539,4	-0,002
539,8	-0,002
540,3	-0,002
540,7	-0,002
541,2	-0,003
541,6	-0,003
542,1	-0,003
542,5	-0,003
543	-0,003
543,4	-0,003
543,9	-0,002
544,3	-0,002
544,8	-0,002
545,2	-0,001
545,7	-0,002
546,1	-0,001
546,5	-0,001
547	-0,001
547,4	-0,002
547,9	-0,002
548,3	-0,002
548,8	-0,002
549,2	-0,002
549,7	-0,003
550,1	-0,002
550,6	-0,002
551	-0,001
551,5	-0,001
551,9	-0,001
552,4	-0,001
552,8	-0,001
553,3	-0,002
553,7	-0,002
554,2	-0,002
554,6	-0,003
555,1	-0,003
555,5	-0,002
555,9	-0,002
556,4	-0,002
556,8	-0,002
557,3	-0,002
557,7	-0,002
558,2	-0,002
558,6	-0,002
559,1	-0,003
559,5	-0,002
560	-0,003
560,4	-0,002
560,9	-0,003
561,3	-0,002
561,8	-0,002
562,2	-0,002
562,7	-0,002
563,1	-0,002
563,6	-0,002
564	-0,002
564,4	-0,002
564,9	-0,002
565,3	-0,002
565,8	-0,002
566,2	-0,003
566,7	-0,002
567,1	-0,002
567,6	-0,002
568	-0,002
568,5	-0,002
568,9	-0,002
569,4	-0,002
569,8	-0,002
570,3	-0,002
570,7	-0,002
571,1	-0,002
571,6	-0,002
572	-0,002
572,5	-0,002
572,9	-0,001
573,4	-0,002
573,8	-0,002
574,3	-0,002
574,7	-0,002
575,2	-0,002
575,6	-0,002
576,1	-0,002
576,5	-0,002
576,9	-0,002
577,4	-0,002
577,8	-0,002
578,3	-0,002
578,7	-0,002
579,2	-0,002
579,6	-0,002
580,1	-0,002
580,5	-0,002
581	-0,002
581,4	-0,002
581,9	-0,002
582,3	-0,002
582,7	-0,002
583,2	-0,002
583,6	-0,002
584,1	-0,002
584,5	-0,002
585	-0,002
585,4	-0,002
585,9	-0,002
586,3	-0,002
586,8	-0,002
587,2	-0,002
587,6	-0,002
588,1	-0,002
588,5	-0,002
589	-0,002
589,4	-0,002
589,9	-0,002
590,3	-0,002
590,8	-0,001
591,2	-0,002
591,7	-0,001
592,1	-0,001
592,5	-0,001
593	-0,001
593,4	-0,001
593,9	-0,001
594,3	-0,002
594,8	-0,002
595,2	-0,002
595,7	-0,002
596,1	-0,002
596,6	-0,002
597	-0,002
597,4	-0,002
597,9	-0,002
598,3	-0,001
598,8	-0,001
599,2	-0,001
599,7	-0,001
600,1	-0,002
600,6	-0,002
601	-0,002
601,4	-0,002
601,9	-0,002
602,3	-0,002
602,8	-0,002
603,2	-0,002
603,7	-0,002
604,1	-0,002
604,6	-0,001
605	-0,002
605,4	-0,001
605,9	-0,001
606,3	-0,001
606,8	-0,001
607,2	-0,001
607,7	-0,001
608,1	-0,001
608,6	-0,001
609	-0,002
609,4	-0,002
609,9	-0,001
610,3	-0,002
610,8	-0,002
611,2	-0,002
611,7	-0,002
612,1	-0,001
612,6	-0,002
613	-0,002
613,4	-0,002
613,9	-0,001
614,3	-0,001
614,8	-0,001
615,2	-0,002
615,7	-0,002
616,1	-0,002
616,6	-0,002
617	-0,002
617,4	-0,002
617,9	-0,002
618,3	-0,001
618,8	-0,001
619,2	-0,001
619,7	-0,002
620,1	-0,001
620,5	-0,001
621	-0,002
621,4	-0,002
621,9	-0,002
622,3	-0,001
622,8	-0,001
623,2	-0,001
623,6	-0,001
624,1	-0,001
624,5	-0,001
625	-0,001
625,4	-0,001
625,9	-0,001
626,3	-0,001
626,8	-0,002
627,2	-0,001
627,6	-0,001
628,1	-0,001
628,5	-0,001
629	-0,001
629,4	-0,001
629,9	-0
630,3	-0
630,7	-0,001
631,2	-0,001
631,6	-0,001
632,1	-0,001
632,5	-0,001
633	-0,001
633,4	-0,002
633,8	-0,002
634,3	-0,002
634,7	-0,002
635,2	-0,002
635,6	-0,001
636,1	-0,001
636,5	-0,001
636,9	-0,001
637,4	-0,001
637,8	-0,001
638,3	-0,001
638,7	-0,001
639,2	-0,001
639,6	-0,002
640	-0,001
640,5	-0,001
640,9	-0,001
641,4	-0,001
641,8	-0,001
642,2	-0,001
642,7	-0,001
643,1	-0,001
643,6	-0,002
644	-0,002
644,5	-0,002
644,9	-0,002
645,3	-0,002
645,8	-0,002
646,2	-0,002
646,7	-0,002
647,1	-0,002
647,6	-0,001
648	-0,002
648,4	-0,001
648,9	-0,001
649,3	-0,001
649,8	-0,001
650,2	-0,001
650,6	-0,001
651,1	-0,001
651,5	-0,001
652	-0,002
652,4	-0,001
652,9	-0,001
653,3	-0,001
653,7	-0,001
654,2	-0,001
654,6	-0
655,1	-0
655,5	-0
655,9	-0
656,4	0
656,8	-0
657,3	-0
657,7	-0
658,2	-0
658,6	-0,001
659	-0,001
659,5	-0,001
659,9	-0,001
660,4	-0,001
660,8	-0,001
661,2	-0,001
661,7	-0,001
662,1	-0,001
662,6	-0,001
663	-0
663,4	-0,001
663,9	-0,001
664,3	-0,001
664,8	-0
665,2	-0,001
665,6	-0
666,1	-0,001
666,5	-0,001
667	-0,001
667,4	-0,001
667,9	-0,001
668,3	-0,001
668,7	-0,001
669,2	-0,001
669,6	-0,001
670,1	-0,001
670,5	-0,001
670,9	-0,001
671,4	-0
671,8	-0,001
672,3	-0,001
672,7	-0,001
673,1	-0,001
673,6	-0,001
674	-0,002
674,5	-0,001
674,9	-0,002
675,3	-0,001
675,8	-0,001
676,2	-0,002
676,7	-0,001
677,1	-0,001
677,5	-0,001
678	-0,001
678,4	-0,001
678,9	-0,001
679,3	-0,001
679,7	-0,001
680,2	-0,001
680,6	-0,002
681,1	-0,002
681,5	-0,001
681,9	-0,001
682,4	-0,002
682,8	-0,001
683,3	-0,001
683,7	-0,001
684,1	-0,001
684,6	-0,002
685	-0,001
685,5	-0,001
685,9	-0,001
686,3	-0,001
686,8	-0,001
687,2	-0,001
687,7	-0,001
688,1	-0,001
688,5	-0,001
689	-0,001
689,4	-0,001
689,9	-0,002
690,3	-0,001
690,7	-0,001
691,2	-0,002
691,6	-0,001
692	-0,001
692,5	-0,001
692,9	-0,001
693,4	-0,001
693,8	-0,001
694,2	-0
694,7	-0
695,1	-0
695,6	-0,001
696	-0
696,4	-0,001
696,9	-0
697,3	-0,001
697,8	-0,001
698,2	-0,001
698,6	-0,001
699,1	-0,001
699,5	-0,001
699,9	-0,001
700,4	-0,001
700,8	-0,001
701,3	-0,001
701,7	-0,001
702,1	-0,001
702,6	-0,001
703	-0
703,5	-0
703,9	-0
704,3	-0
704,8	-0
705,2	-0,001
705,6	-0,001
706,1	-0,001
706,5	-0
707	-0
707,4	-0
707,8	-0
708,3	-0
708,7	-0
709,2	-0,001
709,6	-0,001
710	-0,001
710,5	-0,001
710,9	-0,001
711,3	-0,001
711,8	-0
712,2	0
712,7	-0
713,1	-0,001
713,5	-0,001
714	-0
714,4	-0,001
714,8	-0,001
715,3	-0,001
715,7	-0
716,2	-0
716,6	-0
717	-0,001
717,5	-0
717,9	-0,001
718,3	-0,001
718,8	-0,001
719,2	-0,001
719,7	-0,001
720,1	-0,001
720,5	-0,001
721	-0
721,4	-0
721,8	0
722,3	-0
722,7	-0
723,2	-0
723,6	-0,001
724	-0,001
724,5	-0,001
724,9	-0,001
725,3	-0,001
725,8	-0,001
726,2	-0,001
726,7	-0
727,1	-0,001
727,5	-0,001
728	-0,001
728,4	-0,002
728,8	-0,001
729,3	-0,002
729,7	-0,002
730,1	-0,001
730,6	-0,001
731	-0,001
731,5	-0,001
731,9	-0,001
732,3	-0,001
732,8	-0,001
733,2	-0,001
733,6	-0,001
734,1	-0,001
734,5	-0,001
734,9	-0,001
735,4	-0,001
735,8	-0,001
736,3	-0,001
736,7	-0,001
737,1	-0,001
737,6	-0,001
738	-0,001
738,4	-0,001
738,9	-0,001
739,3	-0,001
739,7	-0,001
740,2	-0
740,6	-0
741,1	-0
741,5	-0
741,9	-0,001
742,4	-0,001
742,8	-0,001
743,2	-0,001
743,7	-0,001
744,1	-0,001
744,5	-0,001
745	-0
745,4	0
745,8	0
746,3	0
746,7	0
747,2	-0
747,6	-0,001
748	-0,001
748,5	-0,001
748,9	-0,002
749,3	-0,001
749,8	-0,001
750,2	-0,001
750,6	-0
751,1	-0
751,5	-0,001
751,9	-0
752,4	-0
752,8	-0,001
753,3	-0,001
753,7	-0,001
754,1	-0,001
754,6	-0,001
755	-0,001
755,4	-0,001
755,9	-0,001
756,3	-0
756,7	-0
757,2	-0
757,6	-0
758	-0
758,5	-0
758,9	-0
759,3	-0
759,8	-0
760,2	-0
760,6	-0
761,1	-0
761,5	-0
761,9	-0
762,4	-0,001
762,8	-0,001
763,3	-0,001
763,7	-0,001
764,1	-0,001
764,6	-0,001
765	-0,001
765,4	-0,001
765,9	-0,001
766,3	-0,001
766,7	-0,001
767,2	-0,001
767,6	-0,001
768	-0,001
768,5	-0,001
768,9	-0
769,3	-0
769,8	-0
770,2	-0,001
770,6	-0
771,1	-0
771,5	-0,001
771,9	-0,001
772,4	-0,001
772,8	-0,001
773,2	-0,001
773,7	-0,001
774,1	-0,001
774,5	-0
775	-0
775,4	0
775,8	0
776,3	0
776,7	-0
777,1	0
777,6	-0
778	-0
778,4	-0
778,9	-0
779,3	-0
779,7	0
780,2	0
780,6	0
781	-0
781,5	-0
781,9	-0
782,3	-0,001
782,8	-0,001
783,2	-0,001
783,6	-0,001
784,1	-0,001
784,5	-0,001
784,9	-0,001
785,4	-0,001
785,8	-0,001
786,2	-0,001
786,7	-0,001
787,1	-0,001
787,5	-0
788	-0,001
788,4	-0
788,8	-0
789,3	-0
789,7	-0
790,1	0
790,6	0
791	0
791,4	0
791,9	0
792,3	0
792,7	0
793,2	-0
793,6	-0
794	-0
794,5	-0
794,9	-0
795,3	-0,001
795,8	-0,001
796,2	-0,001
796,6	-0,001
797,1	-0,001
797,5	-0,001
797,9	-0
798,4	-0
798,8	-0,001
799,2	-0,001
799,7	-0,001
800,1	-0,001
800,5	-0,001
801	-0,001
801,4	-0,001
801,8	-0,001
802,2	-0,001
802,7	-0
803,1	-0
803,5	-0
804	-0
804,4	0
804,8	0
805,3	0
805,7	-0
806,1	-0
806,6	-0,001
807	-0
807,4	-0,001
807,9	-0,001
808,3	-0,001
808,7	-0
809,2	-0,001
809,6	-0
810	-0,001
810,4	-0,001
810,9	-0,001
811,3	-0,001
811,7	-0,001
812,2	-0,001
812,6	-0,001
813	-0,001
813,5	-0,001
813,9	-0,001
814,3	-0
814,8	-0
815,2	-0
815,6	-0
816,1	-0,001
816,5	-0
816,9	-0,001
817,3	-0,001
817,8	-0,001
818,2	-0,001
818,6	-0,001
819,1	-0,001
819,5	-0,001
819,9	-0
820,4	-0
820,8	0
821,2	-0
821,7	-0
822,1	-0
822,5	-0
822,9	-0
823,4	-0
823,8	-0,001
824,2	-0
824,7	0
825,1	0
825,5	-0
826	-0,001
826,4	-0
826,8	-0
827,3	-0,001
827,7	-0,001
828,1	-0,001
828,5	-0,001
829	-0,001
829,4	-0,001
829,8	-0,001
830,3	-0,001
830,7	-0,001
831,1	-0,001
831,6	-0,002
832	-0,002
832,4	-0,001
832,8	-0,001
833,3	-0,001
833,7	-0,001
834,1	-0,001
834,6	-0,001
835	-0,001
835,4	-0,001
835,8	-0
836,3	-0
836,7	-0
837,1	0
837,6	-0
838	0
838,4	0
838,9	0
839,3	0,001
839,7	0
840,1	0
840,6	0
841	-0
841,4	-0
841,9	-0,001
842,3	-0,001
842,7	-0,001
843,1	-0
843,6	-0
844	0
844,4	-0
844,9	0
845,3	0
845,7	0
846,2	-0
846,6	-0
847	-0
847,4	-0
847,9	-0,001
848,3	-0
848,7	0
849,2	0
849,6	0,001
850	0
850,4	0
850,9	0
851,3	-0
851,7	-0
852,2	-0
852,6	-0
853	-0
853,4	-0
853,9	0
854,3	0
854,7	0
855,2	0,001
855,6	0
856	0
856,4	0,001
856,9	-0
857,3	-0
857,7	-0
858,2	-0
858,6	-0
859	-0
859,4	-0,001
859,9	-0
860,3	-0
860,7	0
861,1	-0
861,6	0
862	0
862,4	0
862,9	-0
863,3	0
863,7	0
864,1	-0
864,6	-0
865	-0
865,4	0
865,9	0
866,3	0
866,7	0
867,1	0
867,6	-0
868	-0
868,4	-0,001
868,8	-0,001
869,3	-0,001
869,7	-0,001
870,1	-0,001
870,6	-0,001
871	-0,001
871,4	-0
871,8	0
872,3	0
872,7	0
873,1	0
873,5	0,001
874	0
874,4	0
874,8	-0
875,3	-0
875,7	-0
876,1	-0
876,5	-0
877	-0
877,4	-0
877,8	0
878,2	0
878,7	0
879,1	0,001
879,5	0,001
879,9	0
880,4	0,001
880,8	0,001
881,2	0
881,7	0
882,1	0
882,5	0
882,9	0,001
883,4	0
883,8	0
884,2	0
884,6	-0
885,1	-0
885,5	-0,001
885,9	-0,001
886,3	-0
886,8	-0
887,2	-0
887,6	-0
888	-0
888,5	-0
888,9	-0,001
889,3	-0,001
889,8	-0
890,2	-0
890,6	-0
891	-0
891,5	0
891,9	0
892,3	0,001
892,7	0
893,2	0
893,6	0
894	0
894,4	0
894,9	0
895,3	-0
895,7	0
896,1	-0
896,6	-0
897	-0
897,4	0
897,8	-0
898,3	-0,001
898,7	-0,001
899,1	-0,001
899,5	-0,001
900	-0
900,4	-0,001
900,8	-0
901,2	-0
901,7	-0
902,1	0
902,5	-0
902,9	-0
903,4	-0
903,8	-0,001
904,2	-0,001
904,6	-0,001
905,1	-0,001
905,5	-0,001
905,9	-0,001
906,3	-0,001
906,8	-0,001
907,2	-0,001
907,6	-0,001
908	-0,001
908,5	-0
908,9	-0
909,3	0
909,7	0
910,2	0,001
910,6	0,001
911	0,001
911,4	0,001
911,9	0,001
912,3	0,001
912,7	0
913,1	0
913,6	-0
914	-0
914,4	-0,001
914,8	-0,001
915,3	-0,001
915,7	-0,001
916,1	-0,001
916,5	-0,001
916,9	-0,001
917,4	-0,001
917,8	-0,001
918,2	-0
918,6	-0,001
919,1	-0,001
919,5	-0,001
919,9	-0,001
920,3	-0,001
920,8	-0,001
921,2	-0,001
921,6	-0,001
922	-0
922,5	-0,001
922,9	-0,001
923,3	-0,001
923,7	-0,001
924,2	-0,001
924,6	-0,001
925	-0
925,4	-0
925,8	0
926,3	0
926,7	0,001
927,1	0,001
927,5	0,001
928	0
928,4	0
928,8	0
929,2	0
929,7	-0
930,1	-0
930,5	-0
930,9	-0
931,3	-0
931,8	-0
932,2	-0
932,6	-0
933	-0
933,5	0
933,9	0,001
934,3	0,001
934,7	0,001
935,2	0,001
935,6	0,001
936	0,001
936,4	0,001
936,8	0
937,3	0
937,7	0
938,1	0
938,5	0
939	0
939,4	0
939,8	-0
940,2	-0
940,6	-0,001
941,1	-0,001
941,5	-0,001
941,9	-0,001
942,3	-0,001
942,8	-0,001
943,2	-0,001
943,6	-0
944	-0,001
944,4	-0,001
944,9	-0
945,3	-0
945,7	-0
946,1	-0
946,6	-0,001
947	-0
947,4	0
947,8	-0
948,2	-0,001
948,7	-0,001
949,1	-0,001
949,5	-0,001
949,9	-0,001
950,3	-0,001
950,8	-0
951,2	0
951,6	0,001
952	0,001
952,5	0,001
952,9	0
953,3	-0
953,7	-0
954,1	-0,001
954,6	-0,002
955	-0,002
955,4	-0,002
955,8	-0,001
956,2	-0,001
956,7	-0,001
957,1	-0,001
957,5	-0,001
957,9	-0,001
958,3	-0,001
958,8	-0,001
959,2	0
959,6	0,001
960	0,001
960,5	0,001
960,9	0,001
961,3	0,001
961,7	0,001
962,1	0
962,6	-0
963	-0
963,4	0
963,8	0
964,2	-0
964,7	0
965,1	-0
965,5	-0
965,9	-0,001
966,3	-0,001
966,8	-0,001
967,2	-0,001
967,6	-0,001
968	-0
968,4	-0
968,9	-0
969,3	0
969,7	-0
970,1	-0
970,5	-0,001
971	-0,001
971,4	-0,001
971,8	-0
972,2	-0
972,6	0
973,1	0
973,5	0
973,9	-0
974,3	-0
974,7	-0
975,2	-0
975,6	-0,001
976	-0,001
976,4	-0
976,8	0
977,3	0,001
977,7	0
978,1	0,001
978,5	0,001
978,9	0,001
979,4	0,001
979,8	0,001
980,2	0,001
980,6	0,001
981	0,001
981,5	0,001
981,9	0,001
982,3	0,001
982,7	0
983,1	0,001
983,6	0,001
984	0,001
984,4	0,001
984,8	0
985,2	0
985,6	0
986,1	0
986,5	-0
986,9	-0,001
987,3	-0,001
987,7	0
988,2	0
988,6	0,001
989	0,002
989,4	0,002
989,8	0,002
990,3	0,002
990,7	0,002
991,1	0,002
991,5	0,001
991,9	0,001
992,3	0,001
992,8	0,001
993,2	-0,001
993,6	-0,001
994	-0,001
994,4	-0
994,9	-0
995,3	-0,001
995,7	-0,001
996,1	-0
996,5	-0,001
996,9	-0,001
997,4	-0,001
997,8	-0
998,2	-0
998,6	0
999	-0
999,5	0
999,9	0,001
1000,3	0,001
1000,7	0,001
1001,1	0,001
1001,5	0,001
1002	0,001
1002,4	0,001
1002,8	0,001
1003,2	0,001
1003,6	0,001
1004	0
1004,5	0
1004,9	-0
1005,3	-0,001
1005,7	-0,001
1006,1	-0,001
1006,6	-0,001
1007	-0,001
1007,4	-0,001
1007,8	-0,002
1008,2	-0,002
1008,6	-0,002
1009,1	-0,002
1009,5	-0,002
1009,9	-0,001
1010,3	-0,002
1010,7	-0,001
1011,1	-0,001
1011,6	-0
1012	0
1012,4	0,001
1012,8	0,001
1013,2	0,001
1013,6	0,001
1014,1	0,001
1014,5	0
1014,9	0,001
1015,3	0
1015,7	-0
1016,1	0
1016,6	-0
1017	-0
1017,4	-0
1017,8	-0,001
1018,2	-0,001
1018,6	-0,001
1019,1	-0,001
1019,5	-0,001
1019,9	-0,002
1020,3	-0,002
1020,7	-0,002
1021,1	-0,001
1021,6	-0,001
1022	-0,002
1022,4	-0,002
1022,8	-0,001
1023,2	-0,001
1023,6	-0,001
1024,1	-0,001
1024,5	-0
1024,9	-0
1025,3	-0
1025,7	-0
1026,1	0
1026,6	0
1027	0,001
1027,4	0
1027,8	0
1028,2	-0
1028,6	-0
1029	-0,001
1029,5	-0,001
1029,9	-0,002
1030,3	-0,001
1030,7	-0,001
1031,1	-0,001
1031,5	-0,001
1032	-0,001
1032,4	-0,001
1032,8	0
1033,2	-0
1033,6	-0,001
1034	0
1034,4	0
1034,9	0
1035,3	0
1035,7	-0
1036,1	-0
1036,5	0
1036,9	-0,001
1037,4	-0,001
1037,8	-0,001
1038,2	-0,001
1038,6	-0
1039	-0
1039,4	-0
1039,8	0
1040,3	0,001
1040,7	0
1041,1	-0
1041,5	-0
1041,9	-0,001
1042,3	-0
1042,7	-0,001
1043,2	-0
1043,6	-0
1044	0
1044,4	-0
1044,8	-0
1045,2	-0
1045,6	0
1046,1	-0
1046,5	-0
1046,9	-0,001
1047,3	-0
1047,7	0
1048,1	-0,001
1048,5	-0
1049	-0
1049,4	0
1049,8	-0,001
1050,2	-0,001
1050,6	-0,001
1051	0
1051,4	0
1051,9	0,001
1052,3	-0
1052,7	0
1053,1	0,001
1053,5	-0
1053,9	-0
1054,3	-0,001
1054,8	-0,001
1055,2	-0,002
1055,6	-0,001
1056	-0,002
1056,4	-0,003
1056,8	-0,002
1057,2	-0,002
1057,6	-0,002
1058,1	-0,001
1058,5	0
1058,9	0,001
1059,3	0,002
1059,7	0,001
1060,1	0
1060,5	-0
1061	-0
1061,4	-0,001
1061,8	-0,002
1062,2	-0,003
1062,6	-0,002
1063	-0,002
1063,4	-0,001
1063,8	-0,001
1064,3	-0,001
1064,7	-0
1065,1	-0
1065,5	-0,001
1065,9	-0,001
1066,3	-0,001
1066,7	-0,001
1067,1	-0,001
1067,6	-0,002
1068	-0
1068,4	-0,001
1068,8	-0,001
1069,2	-0,002
1069,6	-0,001
1070	0
1070,4	0
1070,9	-0,001
1071,3	-0,001
1071,7	-0,001
1072,1	-0,001
1072,5	0
1072,9	-0,001
1073,3	-0
1073,7	0
1074,2	-0
1074,6	0
1075	0,001
1075,4	-0,001
1075,8	-0,001
1076,2	-0,002
1076,6	-0,001
1077	-0
1077,5	-0
1077,9	-0,002
1078,3	0
1078,7	0,001
1079,1	0,001
1079,5	0,002
1079,9	0,001
1080,3	0
1080,7	0,002
1081,2	0,001
1081,6	0,001
1082	0,001
1082,4	-0,001
1082,8	0
1083,2	0,001
1083,6	-0
1084	-0,002
1084,5	-0,003
1084,9	-0,003
1085,3	-0,003
1085,7	-0,003
1086,1	-0
1086,5	-0
1086,9	0
1087,3	-0
1087,7	0,001
1088,2	0
1088,6	-0,003
1089	-0,005
1089,4	-0,006
1089,8	-0,006
1090,2	-0,007
1090,6	-0,008
1091	-0,004
1091,4	-0,003
1091,9	-0,008
1092,3	-0,006
1092,7	-0,008
1093,1	-0,008
1093,5	-0,007
1093,9	-0,006
1094,3	-0,004
1094,7	0,001
1095,1	0,002
1095,5	0,005
1096	0,004
1096,4	0,003
1096,8	-0,001
1097,2	-0,004
1097,6	-0,007
1098	-0,011
1098,4	-0,006
1098,8	-0,001
1099,2	0
1099,6	0,007
1100,1	0,01
1100,5	0,012
1100,9	0,013
1101,3	0,015
1101,7	0,017
1102,1	0,019
1102,5	0,015
1102,9	0,012
1103,3	0,022
1103,7	0,02
1104,2	0,016
1104,6	0,015
1105	0,014
1105,4	0,015
1105,8	0,026
1106,2	0,023
1106,6	0,034
1107	0,026
1107,4	0,034
1107,8	0,032
1108,3	0,586
