Data from Absorbance_00034.txt Node
Date: Wed Aug 02 18:10:01 MSK 2023
User: vat
Spectrometer: MAYP114033
Trigger mode: 0
Integration Time (sec): 8,000000E-3
Scans to average: 10
Electric dark correction enabled: true
Nonlinearity correction enabled: false
Boxcar width: 3
XAxis mode: Wavelengths
Number of Pixels in Spectrum: 2068
>>>>>Begin Spectral Data<<<<<
199,4	-0
199,9	0,22
200,4	0,464
200,8	0,685
201,3	0,823
201,8	0,909
202,2	0,936
202,7	0,942
203,2	0,962
203,6	0,996
204,1	1,039
204,6	1,042
205	1,057
205,5	1,068
206	1,079
206,4	1,102
206,9	1,116
207,4	1,115
207,8	1,129
208,3	1,136
208,8	1,139
209,2	1,147
209,7	1,156
210,2	1,156
210,6	1,169
211,1	1,186
211,5	1,214
212	1,228
212,5	1,266
212,9	1,287
213,4	1,295
213,9	1,314
214,3	1,347
214,8	1,328
215,3	1,362
215,7	1,359
216,2	1,37
216,7	1,422
217,1	1,441
217,6	1,421
218,1	1,465
218,5	1,471
219	1,484
219,5	1,492
219,9	1,482
220,4	1,497
220,9	1,531
221,3	1,547
221,8	1,572
222,3	1,595
222,7	1,623
223,2	1,649
223,6	1,67
224,1	1,688
224,6	1,686
225	1,692
225,5	1,711
226	1,716
226,4	1,719
226,9	1,718
227,4	1,748
227,8	1,763
228,3	1,77
228,8	1,762
229,2	1,77
229,7	1,799
230,2	1,814
230,6	1,808
231,1	1,816
231,5	1,833
232	1,849
232,5	1,877
232,9	1,854
233,4	1,856
233,9	1,873
234,3	1,891
234,8	1,887
235,3	1,893
235,7	1,908
236,2	1,946
236,7	1,994
237,1	1,984
237,6	1,974
238,1	1,99
238,5	2,013
239	1,996
239,4	1,981
239,9	1,965
240,4	1,98
240,8	1,996
241,3	2,007
241,8	1,993
242,2	1,995
242,7	2,008
243,2	2,009
243,6	2,01
244,1	2,015
244,6	2,003
245	2,027
245,5	2,054
245,9	2,07
246,4	2,095
246,9	2,115
247,3	2,122
247,8	2,13
248,3	2,138
248,7	2,127
249,2	2,122
249,7	2,105
250,1	2,116
250,6	2,115
251	2,126
251,5	2,119
252	2,123
252,4	2,109
252,9	2,116
253,4	2,106
253,8	2,11
254,3	2,121
254,8	2,138
255,2	2,145
255,7	2,169
256,1	2,145
256,6	2,138
257,1	2,141
257,5	2,124
258	2,113
258,5	2,114
258,9	2,103
259,4	2,109
259,9	2,108
260,3	2,099
260,8	2,096
261,2	2,1
261,7	2,091
262,2	2,11
262,6	2,126
263,1	2,111
263,6	2,099
264	2,113
264,5	2,118
264,9	2,118
265,4	2,114
265,9	2,119
266,3	2,141
266,8	2,175
267,3	2,168
267,7	2,149
268,2	2,158
268,7	2,159
269,1	2,141
269,6	2,132
270	2,128
270,5	2,143
271	2,148
271,4	2,136
271,9	2,114
272,4	2,115
272,8	2,112
273,3	2,107
273,7	2,107
274,2	2,12
274,7	2,127
275,1	2,132
275,6	2,131
276,1	2,129
276,5	2,108
277	2,078
277,4	2,044
277,9	2,043
278,4	2,029
278,8	2,013
279,3	2,008
279,8	1,997
280,2	1,986
280,7	1,986
281,1	1,947
281,6	1,926
282,1	1,897
282,5	1,865
283	1,818
283,4	1,745
283,9	1,668
284,4	1,596
284,8	1,513
285,3	1,428
285,8	1,344
286,2	1,267
286,7	1,196
287,1	1,131
287,6	1,071
288,1	1,019
288,5	0,971
289	0,929
289,5	0,891
289,9	0,861
290,4	0,834
290,8	0,812
291,3	0,793
291,8	0,777
292,2	0,763
292,7	0,753
293,1	0,743
293,6	0,737
294,1	0,729
294,5	0,722
295	0,717
295,5	0,713
295,9	0,709
296,4	0,705
296,8	0,7
297,3	0,699
297,8	0,695
298,2	0,692
298,7	0,688
299,1	0,685
299,6	0,683
300,1	0,682
300,5	0,679
301	0,678
301,5	0,676
301,9	0,675
302,4	0,673
302,8	0,67
303,3	0,667
303,8	0,664
304,2	0,661
304,7	0,659
305,1	0,656
305,6	0,652
306,1	0,648
306,5	0,645
307	0,642
307,4	0,639
307,9	0,634
308,4	0,63
308,8	0,625
309,3	0,622
309,8	0,617
310,2	0,613
310,7	0,608
311,1	0,604
311,6	0,6
312,1	0,596
312,5	0,591
313	0,586
313,4	0,581
313,9	0,576
314,4	0,571
314,8	0,566
315,3	0,561
315,7	0,555
316,2	0,55
316,7	0,545
317,1	0,539
317,6	0,532
318	0,527
318,5	0,522
319	0,514
319,4	0,508
319,9	0,502
320,3	0,495
320,8	0,488
321,3	0,48
321,7	0,472
322,2	0,465
322,6	0,458
323,1	0,45
323,6	0,443
324	0,435
324,5	0,427
324,9	0,419
325,4	0,413
325,9	0,404
326,3	0,398
326,8	0,391
327,2	0,385
327,7	0,379
328,2	0,372
328,6	0,366
329,1	0,359
329,5	0,353
330	0,346
330,5	0,34
330,9	0,334
331,4	0,328
331,8	0,322
332,3	0,317
332,8	0,31
333,2	0,306
333,7	0,302
334,1	0,297
334,6	0,292
335,1	0,288
335,5	0,283
336	0,279
336,4	0,273
336,9	0,269
337,4	0,264
337,8	0,259
338,3	0,254
338,7	0,25
339,2	0,246
339,7	0,242
340,1	0,238
340,6	0,234
341	0,23
341,5	0,226
342	0,222
342,4	0,219
342,9	0,214
343,3	0,21
343,8	0,207
344,2	0,203
344,7	0,2
345,2	0,197
345,6	0,193
346,1	0,19
346,5	0,187
347	0,184
347,5	0,181
347,9	0,177
348,4	0,175
348,8	0,172
349,3	0,168
349,8	0,165
350,2	0,161
350,7	0,158
351,1	0,155
351,6	0,152
352	0,149
352,5	0,147
353	0,145
353,4	0,142
353,9	0,14
354,3	0,138
354,8	0,137
355,3	0,135
355,7	0,132
356,2	0,13
356,6	0,129
357,1	0,127
357,5	0,125
358	0,122
358,5	0,12
358,9	0,118
359,4	0,116
359,8	0,113
360,3	0,111
360,8	0,109
361,2	0,108
361,7	0,105
362,1	0,102
362,6	0,101
363	0,1
363,5	0,098
364	0,095
364,4	0,093
364,9	0,092
365,3	0,091
365,8	0,089
366,3	0,088
366,7	0,087
367,2	0,086
367,6	0,086
368,1	0,084
368,5	0,082
369	0,081
369,5	0,08
369,9	0,079
370,4	0,078
370,8	0,075
371,3	0,075
371,7	0,074
372,2	0,072
372,7	0,071
373,1	0,069
373,6	0,068
374	0,067
374,5	0,066
374,9	0,065
375,4	0,064
375,9	0,062
376,3	0,061
376,8	0,06
377,2	0,059
377,7	0,058
378,2	0,058
378,6	0,057
379,1	0,056
379,5	0,055
380	0,055
380,4	0,053
380,9	0,053
381,4	0,052
381,8	0,051
382,3	0,05
382,7	0,049
383,2	0,048
383,6	0,048
384,1	0,047
384,6	0,046
385	0,046
385,5	0,045
385,9	0,045
386,4	0,044
386,8	0,044
387,3	0,043
387,7	0,043
388,2	0,042
388,7	0,042
389,1	0,041
389,6	0,04
390	0,039
390,5	0,038
390,9	0,037
391,4	0,037
391,9	0,036
392,3	0,036
392,8	0,035
393,2	0,035
393,7	0,035
394,1	0,034
394,6	0,033
395,1	0,033
395,5	0,033
396	0,033
396,4	0,033
396,9	0,032
397,3	0,032
397,8	0,032
398,2	0,031
398,7	0,031
399,2	0,03
399,6	0,029
400,1	0,029
400,5	0,029
401	0,028
401,4	0,027
401,9	0,028
402,4	0,027
402,8	0,026
403,3	0,026
403,7	0,026
404,2	0,025
404,6	0,024
405,1	0,024
405,5	0,024
406	0,023
406,5	0,023
406,9	0,022
407,4	0,023
407,8	0,022
408,3	0,021
408,7	0,021
409,2	0,02
409,6	0,02
410,1	0,02
410,6	0,02
411	0,019
411,5	0,019
411,9	0,019
412,4	0,018
412,8	0,019
413,3	0,018
413,7	0,018
414,2	0,018
414,7	0,019
415,1	0,018
415,6	0,018
416	0,018
416,5	0,017
416,9	0,016
417,4	0,016
417,8	0,015
418,3	0,014
418,8	0,014
419,2	0,014
419,7	0,014
420,1	0,014
420,6	0,014
421	0,013
421,5	0,013
421,9	0,013
422,4	0,013
422,8	0,013
423,3	0,012
423,8	0,012
424,2	0,012
424,7	0,012
425,1	0,011
425,6	0,011
426	0,011
426,5	0,011
426,9	0,011
427,4	0,011
427,9	0,01
428,3	0,01
428,8	0,009
429,2	0,009
429,7	0,009
430,1	0,009
430,6	0,009
431	0,009
431,5	0,009
431,9	0,009
432,4	0,009
432,8	0,009
433,3	0,009
433,8	0,008
434,2	0,008
434,7	0,008
435,1	0,008
435,6	0,008
436	0,008
436,5	0,007
436,9	0,008
437,4	0,007
437,8	0,007
438,3	0,006
438,8	0,007
439,2	0,006
439,7	0,006
440,1	0,005
440,6	0,005
441	0,006
441,5	0,006
441,9	0,006
442,4	0,005
442,8	0,005
443,3	0,005
443,7	0,005
444,2	0,004
444,7	0,004
445,1	0,004
445,6	0,004
446	0,004
446,5	0,004
446,9	0,004
447,4	0,003
447,8	0,003
448,3	0,003
448,7	0,003
449,2	0,003
449,6	0,003
450,1	0,002
450,6	0,003
451	0,004
451,5	0,003
451,9	0,003
452,4	0,003
452,8	0,003
453,3	0,003
453,7	0,002
454,2	0,002
454,6	0,002
455,1	0,002
455,5	0,002
456	0,002
456,4	0,002
456,9	0,002
457,3	0,002
457,8	0,002
458,3	0,002
458,7	0,002
459,2	0,002
459,6	0,002
460,1	0,002
460,5	0,002
461	0,003
461,4	0,003
461,9	0,003
462,3	0,002
462,8	0,002
463,2	0,002
463,7	0,001
464,1	0,001
464,6	0,001
465	0,001
465,5	0,002
466	0,002
466,4	0,002
466,9	0,002
467,3	0,002
467,8	0,002
468,2	0,002
468,7	0,001
469,1	0,001
469,6	0,003
470	0,002
470,5	0,002
470,9	0,002
471,4	0,002
471,8	0,002
472,3	0,001
472,7	0,001
473,2	0
473,6	0
474,1	0
474,5	0
475	0,001
475,4	0,001
475,9	0,001
476,4	0,002
476,8	0,002
477,3	0,002
477,7	0,002
478,2	0,002
478,6	0,002
479,1	0,002
479,5	0,002
480	0,002
480,4	0,001
480,9	0,001
481,3	0
481,8	0
482,2	0
482,7	0
483,1	-0
483,6	-0
484	-0
484,5	-0,001
484,9	-0,001
485,4	-0,002
485,8	-0,002
486,3	-0,001
486,7	-0,001
487,2	-0,001
487,6	-0,001
488,1	-0,001
488,5	0
489	0
489,4	0
489,9	-0
490,4	-0
490,8	0
491,3	-0
491,7	-0,001
492,2	-0,001
492,6	-0,001
493,1	-0
493,5	-0
494	-0
494,4	-0,001
494,9	-0
495,3	-0
495,8	0
496,2	0
496,7	-0
497,1	-0,001
497,6	-0
498	-0
498,5	-0
498,9	-0,001
499,4	-0,002
499,8	-0,002
500,3	-0,002
500,7	-0,001
501,2	-0,001
501,6	-0,001
502,1	0
502,5	0
503	0,001
503,4	0,001
503,9	0
504,3	-0,001
504,8	-0,001
505,2	-0,001
505,7	-0,002
506,1	-0,002
506,6	-0,001
507	-0,002
507,5	-0,002
507,9	-0,002
508,4	-0,002
508,8	-0,001
509,3	-0,002
509,7	-0,002
510,2	-0,001
510,6	-0,002
511,1	-0,002
511,5	-0,001
512	-0,001
512,4	-0,001
512,9	-0,002
513,3	-0,001
513,8	-0,001
514,2	-0
514,7	-0
515,1	-0
515,6	-0
516	-0
516,5	-0,001
516,9	-0,002
517,4	-0,002
517,8	-0,002
518,3	-0,002
518,7	-0,001
519,2	-0,001
519,6	-0
520,1	-0
520,5	-0
521	0
521,4	0
521,9	0
522,3	-0
522,8	-0,001
523,2	-0,001
523,7	-0,001
524,1	-0,001
524,6	-0,002
525	-0,002
525,5	-0,001
525,9	-0,001
526,4	-0,001
526,8	-0,001
527,3	-0,001
527,7	-0,001
528,2	-0,001
528,6	-0,002
529,1	-0,002
529,5	-0,002
530	-0,001
530,4	-0,001
530,9	-0,001
531,3	-0,001
531,8	-0
532,2	-0
532,6	0
533,1	-0
533,5	-0
534	-0,001
534,4	-0,001
534,9	-0,001
535,3	-0,001
535,8	-0,001
536,2	-0
536,7	-0,001
537,1	-0,001
537,6	-0,001
538	-0,001
538,5	-0
538,9	-0,001
539,4	-0,001
539,8	-0,001
540,3	-0,001
540,7	-0
541,2	-0,001
541,6	-0,001
542,1	-0,001
542,5	-0,001
543	-0,001
543,4	-0,001
543,9	-0,001
544,3	-0,001
544,8	-0,001
545,2	-0,001
545,7	-0,001
546,1	-0,001
546,5	-0
547	-0,001
547,4	-0
547,9	-0
548,3	0
548,8	-0
549,2	-0
549,7	-0
550,1	-0
550,6	0
551	0
551,5	0
551,9	-0
552,4	-0,001
552,8	-0,001
553,3	-0,002
553,7	-0,003
554,2	-0,003
554,6	-0,003
555,1	-0,003
555,5	-0,002
555,9	-0,002
556,4	-0,002
556,8	-0,002
557,3	-0,002
557,7	-0,002
558,2	-0,002
558,6	-0,002
559,1	-0,002
559,5	-0,002
560	-0,002
560,4	-0,002
560,9	-0,001
561,3	-0,001
561,8	-0,001
562,2	-0,001
562,7	-0
563,1	0,001
563,6	0
564	0
564,4	-0
564,9	0
565,3	-0
565,8	-0
566,2	-0,001
566,7	-0,001
567,1	-0,001
567,6	-0,001
568	-0,001
568,5	-0,001
568,9	-0,001
569,4	-0,001
569,8	-0,001
570,3	-0,001
570,7	-0,002
571,1	-0,002
571,6	-0,002
572	-0,001
572,5	-0,001
572,9	-0,001
573,4	-0,001
573,8	-0,001
574,3	-0,001
574,7	-0,001
575,2	-0,001
575,6	-0,001
576,1	-0,001
576,5	-0
576,9	-0
577,4	0
577,8	0
578,3	0
578,7	-0
579,2	-0
579,6	-0,001
580,1	-0
580,5	-0,001
581	-0,001
581,4	-0,001
581,9	-0,001
582,3	-0,001
582,7	-0,001
583,2	-0,001
583,6	-0,001
584,1	-0,001
584,5	-0,001
585	-0
585,4	-0,001
585,9	-0,001
586,3	-0,001
586,8	-0,001
587,2	-0
587,6	-0,001
588,1	-0,001
588,5	-0,001
589	-0
589,4	-0
589,9	-0
590,3	-0
590,8	0
591,2	-0
591,7	-0
592,1	-0
592,5	-0,001
593	-0,001
593,4	-0,001
593,9	-0,001
594,3	-0,001
594,8	-0,001
595,2	-0,001
595,7	-0,001
596,1	-0,001
596,6	-0,001
597	-0,001
597,4	-0,001
597,9	-0,001
598,3	-0,001
598,8	-0,001
599,2	-0,001
599,7	-0,001
600,1	-0,002
600,6	-0,001
601	-0,001
601,4	-0,001
601,9	-0,001
602,3	-0,001
602,8	-0,001
603,2	-0,001
603,7	-0,001
604,1	-0,001
604,6	-0,001
605	-0,001
605,4	-0
605,9	-0
606,3	0
606,8	0
607,2	0
607,7	-0
608,1	0
608,6	0
609	0
609,4	0
609,9	0
610,3	-0
610,8	-0
611,2	-0,001
611,7	-0,001
612,1	-0
612,6	-0
613	-0,001
613,4	-0,001
613,9	-0,001
614,3	-0,001
614,8	-0,001
615,2	-0,001
615,7	-0,002
616,1	-0,002
616,6	-0,001
617	-0,002
617,4	-0,001
617,9	-0,001
618,3	-0,001
618,8	-0,001
619,2	-0,001
619,7	-0,001
620,1	-0
620,5	-0,001
621	-0,001
621,4	-0,001
621,9	-0,001
622,3	-0,001
622,8	-0,001
623,2	-0,001
623,6	-0
624,1	-0,001
624,5	-0
625	-0
625,4	-0
625,9	-0
626,3	-0,001
626,8	-0,001
627,2	-0,001
627,6	-0,001
628,1	-0,001
628,5	-0,001
629	-0,001
629,4	-0
629,9	0
630,3	0
630,7	0
631,2	0
631,6	0
632,1	0
632,5	-0
633	-0,001
633,4	-0,001
633,8	-0,001
634,3	-0,001
634,7	-0,001
635,2	-0,001
635,6	-0,001
636,1	-0,001
636,5	-0,001
636,9	-0
637,4	-0
637,8	-0
638,3	-0,001
638,7	-0,001
639,2	-0
639,6	-0
640	-0
640,5	-0,001
640,9	-0
641,4	-0
641,8	-0
642,2	-0,001
642,7	-0,001
643,1	-0,001
643,6	-0,001
644	-0,001
644,5	-0,001
644,9	-0,001
645,3	-0,001
645,8	-0,002
646,2	-0,002
646,7	-0,002
647,1	-0,002
647,6	-0,002
648	-0,002
648,4	-0,001
648,9	-0,001
649,3	-0
649,8	-0
650,2	-0
650,6	0
651,1	0
651,5	-0
652	-0
652,4	-0,001
652,9	-0,001
653,3	-0,001
653,7	-0,001
654,2	-0,001
654,6	-0,002
655,1	-0,003
655,5	-0,003
655,9	-0,002
656,4	-0,001
656,8	0
657,3	0
657,7	0,001
658,2	0,002
658,6	0,002
659	0,003
659,5	0,005
659,9	0,002
660,4	0,001
660,8	0,001
661,2	0
661,7	-0
662,1	0
662,6	0
663	0
663,4	0
663,9	0
664,3	-0
664,8	0
665,2	0
665,6	0
666,1	-0
666,5	-0
667	-0
667,4	-0
667,9	-0,001
668,3	-0,001
668,7	-0
669,2	-0
669,6	-0
670,1	-0
670,5	-0
670,9	-0
671,4	-0
671,8	-0
672,3	-0,001
672,7	-0
673,1	-0
673,6	-0
674	-0,001
674,5	-0,001
674,9	-0,001
675,3	-0,001
675,8	-0,001
676,2	-0,001
676,7	-0,001
677,1	-0
677,5	-0,001
678	-0,001
678,4	-0,001
678,9	-0,001
679,3	-0,001
679,7	-0,001
680,2	-0,002
680,6	-0,002
681,1	-0,002
681,5	-0,002
681,9	-0,002
682,4	-0,002
682,8	-0,002
683,3	-0,001
683,7	-0,001
684,1	-0,001
684,6	-0,001
685	-0,001
685,5	-0,001
685,9	-0,001
686,3	-0,001
686,8	-0,001
687,2	-0,001
687,7	-0,001
688,1	-0,001
688,5	-0,001
689	-0,001
689,4	-0,001
689,9	-0,001
690,3	-0,001
690,7	-0,002
691,2	-0,002
691,6	-0,002
692	-0,001
692,5	-0,001
692,9	-0,001
693,4	-0,001
693,8	-0,001
694,2	0
694,7	0
695,1	0
695,6	-0
696	-0
696,4	0
696,9	-0
697,3	-0
697,8	-0,001
698,2	-0,001
698,6	-0,001
699,1	-0,001
699,5	-0,001
699,9	-0,001
700,4	-0
700,8	-0
701,3	-0
701,7	-0
702,1	-0
702,6	-0,001
703	-0,001
703,5	-0,001
703,9	-0,001
704,3	-0,001
704,8	-0,001
705,2	-0
705,6	-0
706,1	-0
706,5	-0
707	-0,001
707,4	-0,001
707,8	-0,001
708,3	-0,001
708,7	-0,001
709,2	-0,001
709,6	-0
710	0
710,5	-0
710,9	-0
711,3	-0
711,8	-0
712,2	-0
712,7	-0
713,1	-0,001
713,5	-0,001
714	-0,001
714,4	-0,001
714,8	-0,002
715,3	-0,002
715,7	-0,002
716,2	-0,001
716,6	-0,002
717	-0,002
717,5	-0,001
717,9	-0,001
718,3	-0,001
718,8	-0,001
719,2	-0,001
719,7	-0,001
720,1	-0
720,5	-0,001
721	-0
721,4	-0
721,8	-0
722,3	-0,001
722,7	-0,001
723,2	-0,001
723,6	-0,001
724	-0,001
724,5	-0,001
724,9	-0,001
725,3	-0,001
725,8	-0,001
726,2	-0,001
726,7	-0,001
727,1	-0,001
727,5	-0,001
728	-0,001
728,4	-0,001
728,8	-0,001
729,3	-0,001
729,7	-0,001
730,1	-0,001
730,6	-0,001
731	-0,001
731,5	-0,001
731,9	-0,001
732,3	-0,001
732,8	-0,001
733,2	-0,001
733,6	-0,001
734,1	-0,001
734,5	-0,001
734,9	-0,001
735,4	-0,001
735,8	-0,001
736,3	-0
736,7	-0
737,1	-0
737,6	-0,001
738	-0,001
738,4	-0,001
738,9	-0,001
739,3	-0,001
739,7	-0,001
740,2	-0,001
740,6	-0
741,1	-0,001
741,5	-0,001
741,9	-0,001
742,4	-0,001
742,8	-0,001
743,2	-0,001
743,7	-0,001
744,1	-0,001
744,5	-0,001
745	-0,001
745,4	-0
745,8	-0
746,3	-0
746,7	-0
747,2	-0,001
747,6	-0,001
748	-0,001
748,5	-0,001
748,9	-0,001
749,3	-0,001
749,8	-0,001
750,2	-0,001
750,6	-0,001
751,1	-0,001
751,5	-0
751,9	-0
752,4	-0,001
752,8	-0,001
753,3	-0
753,7	-0
754,1	-0,001
754,6	-0,001
755	-0
755,4	-0
755,9	-0
756,3	-0
756,7	-0
757,2	-0
757,6	-0
758	-0,001
758,5	-0
758,9	-0,001
759,3	-0,001
759,8	-0,001
760,2	-0,001
760,6	-0,001
761,1	-0,001
761,5	-0,001
761,9	-0,001
762,4	-0,001
762,8	-0,001
763,3	-0,001
763,7	-0,001
764,1	-0,001
764,6	-0,001
765	-0,001
765,4	-0,002
765,9	-0,002
766,3	-0,002
766,7	-0,002
767,2	-0,001
767,6	-0,001
768	-0,001
768,5	-0,001
768,9	-0,001
769,3	-0,001
769,8	-0,001
770,2	-0,001
770,6	-0,001
771,1	-0,001
771,5	-0,001
771,9	-0,001
772,4	-0,001
772,8	-0,001
773,2	-0,001
773,7	-0,001
774,1	-0,001
774,5	-0
775	0
775,4	0,001
775,8	0,001
776,3	0,001
776,7	0,001
777,1	0,001
777,6	0
778	0
778,4	-0,001
778,9	-0,001
779,3	-0,001
779,7	-0
780,2	-0
780,6	-0
781	-0
781,5	-0
781,9	0
782,3	0
782,8	-0
783,2	-0
783,6	-0,001
784,1	-0,001
784,5	-0,001
784,9	-0,001
785,4	-0,001
785,8	-0,001
786,2	-0,001
786,7	-0,001
787,1	-0,001
787,5	-0,001
788	-0,001
788,4	-0
788,8	-0
789,3	-0
789,7	-0
790,1	-0
790,6	-0
791	-0
791,4	-0
791,9	-0
792,3	0
792,7	-0
793,2	-0
793,6	-0
794	-0
794,5	-0
794,9	-0
795,3	-0
795,8	-0
796,2	0
796,6	0
797,1	0
797,5	-0
797,9	-0
798,4	-0
798,8	-0
799,2	-0,001
799,7	-0,001
800,1	-0,001
800,5	-0,001
801	-0,001
801,4	-0,001
801,8	-0
802,2	-0
802,7	0
803,1	0
803,5	0
804	0,001
804,4	0,001
804,8	0,001
805,3	0
805,7	-0
806,1	-0
806,6	-0,001
807	-0,001
807,4	-0,001
807,9	-0,001
808,3	-0,001
808,7	-0,001
809,2	-0,002
809,6	-0,001
810	-0,001
810,4	-0,002
810,9	-0,001
811,3	-0,001
811,7	-0,001
812,2	-0,001
812,6	-0,001
813	-0,001
813,5	-0,001
813,9	-0,001
814,3	-0
814,8	-0,001
815,2	-0,001
815,6	-0,001
816,1	-0,001
816,5	-0,001
816,9	-0,001
817,3	-0,001
817,8	-0,001
818,2	-0,001
818,6	-0,001
819,1	-0,001
819,5	-0,001
819,9	-0,001
820,4	-0,001
820,8	-0
821,2	0
821,7	0
822,1	0
822,5	0
822,9	0
823,4	0
823,8	0
824,2	0
824,7	0
825,1	-0
825,5	-0,001
826	-0,001
826,4	-0,001
826,8	-0,001
827,3	-0,001
827,7	-0,001
828,1	-0,001
828,5	-0,001
829	-0,001
829,4	-0,001
829,8	-0,001
830,3	-0,001
830,7	-0,001
831,1	-0,001
831,6	-0,001
832	-0,001
832,4	-0,001
832,8	-0,001
833,3	-0,001
833,7	-0,001
834,1	-0,001
834,6	-0,001
835	-0
835,4	-0
835,8	-0
836,3	0
836,7	0
837,1	-0
837,6	-0
838	-0
838,4	0
838,9	-0
839,3	-0
839,7	-0
840,1	-0
840,6	-0
841	-0
841,4	-0
841,9	-0
842,3	0
842,7	-0
843,1	-0
843,6	0
844	0
844,4	0
844,9	0
845,3	-0
845,7	0
846,2	-0
846,6	-0,001
847	-0
847,4	-0,001
847,9	-0,001
848,3	-0,001
848,7	-0
849,2	-0
849,6	0
850	-0
850,4	-0
850,9	-0
851,3	-0
851,7	-0,001
852,2	-0,001
852,6	-0,001
853	-0,001
853,4	-0,001
853,9	-0,001
854,3	-0,001
854,7	-0,001
855,2	-0,001
855,6	-0,001
856	-0
856,4	-0
856,9	-0
857,3	-0
857,7	-0
858,2	-0,001
858,6	-0,001
859	-0,001
859,4	-0,001
859,9	-0,001
860,3	-0,001
860,7	-0,001
861,1	-0,001
861,6	-0,001
862	-0,001
862,4	-0,001
862,9	-0,001
863,3	-0,001
863,7	-0,001
864,1	-0
864,6	-0
865	-0
865,4	-0
865,9	-0
866,3	-0
866,7	0
867,1	-0
867,6	-0
868	-0
868,4	-0,001
868,8	-0,001
869,3	-0
869,7	-0
870,1	-0
870,6	0
871	0
871,4	0
871,8	0,001
872,3	0,001
872,7	0,001
873,1	0
873,5	0,001
874	0
874,4	0
874,8	-0
875,3	-0,001
875,7	-0,001
876,1	-0
876,5	-0,001
877	-0
877,4	-0
877,8	-0
878,2	0
878,7	0
879,1	-0
879,5	-0
879,9	-0,001
880,4	-0
880,8	-0
881,2	-0
881,7	-0
882,1	-0
882,5	0
882,9	0
883,4	0
883,8	0
884,2	0
884,6	0
885,1	0
885,5	0
885,9	-0
886,3	0
886,8	0
887,2	0
887,6	0
888	-0
888,5	-0
888,9	-0
889,3	-0,001
889,8	-0
890,2	-0
890,6	-0
891	-0
891,5	-0
891,9	-0
892,3	0
892,7	-0,001
893,2	-0,001
893,6	-0,001
894	-0
894,4	-0,001
894,9	-0,001
895,3	-0,001
895,7	-0,001
896,1	-0,001
896,6	-0,001
897	-0,001
897,4	-0,001
897,8	-0,001
898,3	-0,001
898,7	-0,001
899,1	-0,001
899,5	-0,001
900	-0,001
900,4	-0,001
900,8	-0,001
901,2	-0
901,7	-0
902,1	-0
902,5	-0
902,9	-0
903,4	-0
903,8	-0
904,2	-0
904,6	-0
905,1	-0,001
905,5	-0,001
905,9	-0,001
906,3	-0
906,8	-0,001
907,2	-0
907,6	-0
908	-0
908,5	0
908,9	-0
909,3	-0
909,7	-0
910,2	-0
910,6	-0,001
911	-0
911,4	-0
911,9	-0
912,3	0
912,7	0,001
913,1	0,001
913,6	0
914	0
914,4	-0
914,8	-0
915,3	-0,001
915,7	-0,001
916,1	-0,001
916,5	-0,001
916,9	-0,001
917,4	-0,001
917,8	-0,001
918,2	-0
918,6	-0
919,1	0
919,5	-0,001
919,9	-0
920,3	0
920,8	0
921,2	-0
921,6	-0
922	-0
922,5	-0
922,9	-0,001
923,3	-0,001
923,7	-0,001
924,2	-0,001
924,6	-0,001
925	-0,001
925,4	-0
925,8	-0
926,3	-0,001
926,7	-0
927,1	-0
927,5	-0
928	-0
928,4	-0
928,8	-0
929,2	0
929,7	0
930,1	0
930,5	0
930,9	0,001
931,3	0,001
931,8	0,001
932,2	0,001
932,6	0,001
933	0,002
933,5	0,002
933,9	0,002
934,3	0,001
934,7	0,001
935,2	0,001
935,6	0,001
936	0,001
936,4	0,001
936,8	0
937,3	0
937,7	0
938,1	0
938,5	0,001
939	0
939,4	-0
939,8	0
940,2	0
940,6	-0
941,1	-0,001
941,5	-0,001
941,9	-0,001
942,3	-0,001
942,8	-0,001
943,2	-0,001
943,6	-0
944	-0
944,4	-0
944,9	-0
945,3	0
945,7	-0
946,1	-0
946,6	-0
947	0
947,4	-0
947,8	-0
948,2	-0,001
948,7	-0,001
949,1	-0,001
949,5	-0,001
949,9	-0,001
950,3	-0,001
950,8	-0,001
951,2	-0,001
951,6	-0,001
952	-0
952,5	0
952,9	0
953,3	-0
953,7	0
954,1	0
954,6	0
955	-0,001
955,4	-0,001
955,8	-0
956,2	-0
956,7	-0
957,1	-0,001
957,5	-0,001
957,9	-0,001
958,3	-0,001
958,8	-0,002
959,2	-0,001
959,6	-0
960	0
960,5	-0
960,9	-0,001
961,3	-0
961,7	0
962,1	0
962,6	-0
963	-0,001
963,4	-0
963,8	0
964,2	-0
964,7	-0,001
965,1	-0,001
965,5	-0,001
965,9	-0,001
966,3	-0,001
966,8	-0,001
967,2	-0
967,6	0
968	0
968,4	0,001
968,9	0
969,3	0,001
969,7	0,001
970,1	0,001
970,5	0,001
971	0,001
971,4	0,001
971,8	0,001
972,2	0,001
972,6	0,001
973,1	0,001
973,5	0
973,9	-0
974,3	-0
974,7	-0
975,2	-0,001
975,6	-0,002
976	-0,002
976,4	-0,001
976,8	-0,001
977,3	-0,001
977,7	-0,001
978,1	-0
978,5	0
978,9	0,001
979,4	0,001
979,8	0,001
980,2	0,001
980,6	0,001
981	0,001
981,5	0,001
981,9	0,001
982,3	0
982,7	-0
983,1	-0
983,6	-0
984	0
984,4	-0
984,8	-0,001
985,2	-0,001
985,6	-0
986,1	-0
986,5	-0,001
986,9	-0,001
987,3	-0,001
987,7	-0
988,2	0
988,6	0
989	0
989,4	-0
989,8	-0
990,3	0
990,7	0,001
991,1	0,001
991,5	0,001
991,9	0
992,3	0,001
992,8	0,001
993,2	-0
993,6	-0,001
994	-0,001
994,4	-0
994,9	-0
995,3	-0,001
995,7	-0,001
996,1	-0
996,5	-0
996,9	-0,001
997,4	-0,001
997,8	-0
998,2	0,001
998,6	0,001
999	0
999,5	0
999,9	0,001
1000,3	0,001
1000,7	0,001
1001,1	0,001
1001,5	0
1002	0
1002,4	0,001
1002,8	0,001
1003,2	0
1003,6	0
1004	0
1004,5	0
1004,9	0
1005,3	0
1005,7	0
1006,1	0
1006,6	0,001
1007	0,001
1007,4	0,001
1007,8	0
1008,2	0
1008,6	0
1009,1	-0,001
1009,5	-0,001
1009,9	-0,001
1010,3	-0,001
1010,7	-0
1011,1	-0,001
1011,6	-0
1012	0
1012,4	0,001
1012,8	0,001
1013,2	0,001
1013,6	0,002
1014,1	0,002
1014,5	0,001
1014,9	0,001
1015,3	0,001
1015,7	0
1016,1	0,001
1016,6	-0
1017	0
1017,4	0
1017,8	-0
1018,2	-0
1018,6	-0
1019,1	-0
1019,5	0
1019,9	0
1020,3	0
1020,7	0
1021,1	-0
1021,6	-0
1022	-0
1022,4	-0,001
1022,8	-0,001
1023,2	-0,002
1023,6	-0,001
1024,1	-0,001
1024,5	-0,001
1024,9	-0,001
1025,3	-0,001
1025,7	-0,001
1026,1	0
1026,6	0
1027	0,001
1027,4	0
1027,8	-0
1028,2	-0
1028,6	-0
1029	-0
1029,5	-0,001
1029,9	-0,001
1030,3	-0,001
1030,7	-0,001
1031,1	-0,001
1031,5	-0,001
1032	-0,001
1032,4	-0,002
1032,8	-0,001
1033,2	-0,001
1033,6	-0,001
1034	-0,001
1034,4	-0,001
1034,9	-0,001
1035,3	-0
1035,7	-0,001
1036,1	-0,001
1036,5	-0
1036,9	0
1037,4	-0
1037,8	0
1038,2	0
1038,6	0,001
1039	0,001
1039,4	0,001
1039,8	0
1040,3	0
1040,7	0
1041,1	0
1041,5	0
1041,9	0
1042,3	0
1042,7	-0,001
1043,2	-0
1043,6	-0,001
1044	0
1044,4	-0
1044,8	-0,001
1045,2	-0,002
1045,6	-0
1046,1	-0,001
1046,5	-0,002
1046,9	-0,002
1047,3	-0,002
1047,7	-0,002
1048,1	-0,002
1048,5	-0,002
1049	-0,002
1049,4	-0,001
1049,8	-0,002
1050,2	-0,002
1050,6	-0,002
1051	-0,002
1051,4	-0,002
1051,9	-0,002
1052,3	-0,003
1052,7	-0,001
1053,1	-0,001
1053,5	-0,001
1053,9	-0,001
1054,3	-0,001
1054,8	-0,002
1055,2	-0,002
1055,6	-0,002
1056	-0,002
1056,4	-0,002
1056,8	-0,003
1057,2	-0,002
1057,6	-0,001
1058,1	-0,001
1058,5	-0,001
1058,9	-0
1059,3	0
1059,7	-0
1060,1	-0
1060,5	-0,001
1061	-0,001
1061,4	-0,001
1061,8	-0,002
1062,2	-0,002
1062,6	-0,001
1063	-0,001
1063,4	0,001
1063,8	0
1064,3	0
1064,7	0,001
1065,1	0,001
1065,5	0
1065,9	-0,001
1066,3	-0,001
1066,7	-0,001
1067,1	-0,001
1067,6	-0,001
1068	-0,001
1068,4	-0,002
1068,8	-0,001
1069,2	-0,002
1069,6	-0
1070	0
1070,4	0,001
1070,9	0
1071,3	0,001
1071,7	0,001
1072,1	-0
1072,5	0
1072,9	-0,001
1073,3	-0,001
1073,7	-0,001
1074,2	-0,001
1074,6	-0,001
1075	0
1075,4	-0,002
1075,8	-0
1076,2	0
1076,6	0
1077	0,001
1077,5	-0
1077,9	-0,003
1078,3	-0,001
1078,7	-0,002
1079,1	-0,003
1079,5	-0,002
1079,9	-0,003
1080,3	-0,002
1080,7	0,001
1081,2	0,002
1081,6	0,002
1082	0,004
1082,4	0,003
1082,8	0,003
1083,2	0,003
1083,6	0,001
1084	0
1084,5	-0
1084,9	0
1085,3	-0,001
1085,7	-0,002
1086,1	-0,003
1086,5	-0,002
1086,9	-0,003
1087,3	-0,005
1087,7	-0,006
1088,2	-0,005
1088,6	-0,005
1089	-0,004
1089,4	-0,006
1089,8	-0,004
1090,2	-0,004
1090,6	-0,003
1091	0,001
1091,4	-0
1091,9	-0,005
1092,3	-0,005
1092,7	-0,009
1093,1	-0,007
1093,5	-0,007
1093,9	-0,007
1094,3	-0,006
1094,7	-0,001
1095,1	-0,003
1095,5	-0,001
1096	-0,007
1096,4	-0,007
1096,8	-0,012
1097,2	-0,015
1097,6	-0,018
1098	-0,015
1098,4	-0,013
1098,8	-0,008
1099,2	-0,012
1099,6	-0,01
1100,1	-0,005
1100,5	-0,005
1100,9	-0,002
1101,3	0,004
1101,7	0,004
1102,1	0,006
1102,5	0,006
1102,9	0,001
1103,3	0,009
1103,7	0,007
1104,2	0,001
1104,6	0,002
1105	0,012
1105,4	0,009
1105,8	0,01
1106,2	0,005
1106,6	0,007
1107	0,015
1107,4	0,027
1107,8	-0,005
1108,3	0,148
