Data from Absorbance_00031.txt Node
Date: Wed Aug 02 18:06:01 MSK 2023
User: vat
Spectrometer: MAYP114033
Trigger mode: 0
Integration Time (sec): 8,000000E-3
Scans to average: 10
Electric dark correction enabled: true
Nonlinearity correction enabled: false
Boxcar width: 3
XAxis mode: Wavelengths
Number of Pixels in Spectrum: 2068
>>>>>Begin Spectral Data<<<<<
199,4	-0
199,9	-0,14
200,4	0,236
200,8	0,568
201,3	0,753
201,8	0,847
202,2	0,875
202,7	0,903
203,2	0,947
203,6	0,973
204,1	1,014
204,6	1,019
205	1,037
205,5	1,061
206	1,059
206,4	1,071
206,9	1,098
207,4	1,102
207,8	1,126
208,3	1,15
208,8	1,155
209,2	1,175
209,7	1,202
210,2	1,188
210,6	1,189
211,1	1,184
211,5	1,181
212	1,187
212,5	1,214
212,9	1,223
213,4	1,238
213,9	1,254
214,3	1,296
214,8	1,311
215,3	1,341
215,7	1,32
216,2	1,328
216,7	1,364
217,1	1,398
217,6	1,411
218,1	1,427
218,5	1,429
219	1,468
219,5	1,501
219,9	1,511
220,4	1,528
220,9	1,548
221,3	1,571
221,8	1,601
222,3	1,62
222,7	1,614
223,2	1,635
223,6	1,653
224,1	1,645
224,6	1,642
225	1,653
225,5	1,672
226	1,69
226,4	1,696
226,9	1,701
227,4	1,715
227,8	1,739
228,3	1,756
228,8	1,763
229,2	1,769
229,7	1,79
230,2	1,805
230,6	1,833
231,1	1,853
231,5	1,845
232	1,868
232,5	1,899
232,9	1,887
233,4	1,881
233,9	1,892
234,3	1,903
234,8	1,925
235,3	1,928
235,7	1,933
236,2	1,972
236,7	1,992
237,1	1,989
237,6	1,972
238,1	1,975
238,5	1,987
239	1,976
239,4	1,974
239,9	1,983
240,4	1,998
240,8	2,027
241,3	2,032
241,8	2,026
242,2	2,02
242,7	2,004
243,2	2,005
243,6	2,01
244,1	1,994
244,6	2
245	2,017
245,5	2,052
245,9	2,071
246,4	2,084
246,9	2,082
247,3	2,108
247,8	2,111
248,3	2,111
248,7	2,098
249,2	2,1
249,7	2,107
250,1	2,113
250,6	2,114
251	2,12
251,5	2,12
252	2,13
252,4	2,132
252,9	2,123
253,4	2,124
253,8	2,113
254,3	2,122
254,8	2,122
255,2	2,129
255,7	2,134
256,1	2,137
256,6	2,134
257,1	2,132
257,5	2,119
258	2,114
258,5	2,113
258,9	2,118
259,4	2,102
259,9	2,091
260,3	2,096
260,8	2,099
261,2	2,118
261,7	2,119
262,2	2,11
262,6	2,132
263,1	2,152
263,6	2,141
264	2,173
264,5	2,171
264,9	2,178
265,4	2,181
265,9	2,202
266,3	2,182
266,8	2,232
267,3	2,184
267,7	2,17
268,2	2,159
268,7	2,159
269,1	2,132
269,6	2,132
270	2,106
270,5	2,137
271	2,136
271,4	2,143
271,9	2,134
272,4	2,145
272,8	2,175
273,3	2,166
273,7	2,167
274,2	2,166
274,7	2,161
275,1	2,164
275,6	2,151
276,1	2,128
276,5	2,146
277	2,112
277,4	2,106
277,9	2,1
278,4	2,099
278,8	2,097
279,3	2,109
279,8	2,107
280,2	2,111
280,7	2,105
281,1	2,087
281,6	2,09
282,1	2,078
282,5	2,057
283	2,032
283,4	2,008
283,9	1,991
284,4	1,984
284,8	1,96
285,3	1,953
285,8	1,929
286,2	1,894
286,7	1,853
287,1	1,796
287,6	1,737
288,1	1,67
288,5	1,595
289	1,525
289,5	1,448
289,9	1,377
290,4	1,305
290,8	1,239
291,3	1,177
291,8	1,115
292,2	1,056
292,7	1,005
293,1	0,959
293,6	0,918
294,1	0,877
294,5	0,841
295	0,809
295,5	0,78
295,9	0,755
296,4	0,732
296,8	0,712
297,3	0,695
297,8	0,68
298,2	0,666
298,7	0,653
299,1	0,642
299,6	0,632
300,1	0,623
300,5	0,614
301	0,606
301,5	0,599
301,9	0,594
302,4	0,587
302,8	0,581
303,3	0,576
303,8	0,571
304,2	0,566
304,7	0,56
305,1	0,554
305,6	0,55
306,1	0,546
306,5	0,542
307	0,537
307,4	0,532
307,9	0,529
308,4	0,525
308,8	0,52
309,3	0,515
309,8	0,51
310,2	0,505
310,7	0,501
311,1	0,497
311,6	0,492
312,1	0,488
312,5	0,485
313	0,48
313,4	0,476
313,9	0,473
314,4	0,469
314,8	0,464
315,3	0,46
315,7	0,456
316,2	0,452
316,7	0,446
317,1	0,442
317,6	0,438
318	0,433
318,5	0,428
319	0,423
319,4	0,419
319,9	0,416
320,3	0,412
320,8	0,408
321,3	0,406
321,7	0,402
322,2	0,399
322,6	0,396
323,1	0,391
323,6	0,388
324	0,383
324,5	0,379
324,9	0,375
325,4	0,372
325,9	0,367
326,3	0,363
326,8	0,359
327,2	0,355
327,7	0,351
328,2	0,348
328,6	0,343
329,1	0,339
329,5	0,334
330	0,331
330,5	0,326
330,9	0,323
331,4	0,319
331,8	0,315
332,3	0,312
332,8	0,308
333,2	0,306
333,7	0,302
334,1	0,298
334,6	0,294
335,1	0,291
335,5	0,287
336	0,283
336,4	0,278
336,9	0,274
337,4	0,27
337,8	0,267
338,3	0,263
338,7	0,259
339,2	0,255
339,7	0,252
340,1	0,248
340,6	0,244
341	0,24
341,5	0,236
342	0,233
342,4	0,229
342,9	0,226
343,3	0,222
343,8	0,219
344,2	0,216
344,7	0,213
345,2	0,21
345,6	0,207
346,1	0,203
346,5	0,2
347	0,197
347,5	0,195
347,9	0,191
348,4	0,188
348,8	0,186
349,3	0,183
349,8	0,18
350,2	0,177
350,7	0,173
351,1	0,171
351,6	0,168
352	0,165
352,5	0,162
353	0,16
353,4	0,157
353,9	0,154
354,3	0,152
354,8	0,15
355,3	0,148
355,7	0,144
356,2	0,141
356,6	0,139
357,1	0,136
357,5	0,135
358	0,132
358,5	0,13
358,9	0,128
359,4	0,127
359,8	0,124
360,3	0,122
360,8	0,12
361,2	0,119
361,7	0,116
362,1	0,114
362,6	0,112
363	0,11
363,5	0,107
364	0,105
364,4	0,103
364,9	0,102
365,3	0,101
365,8	0,099
366,3	0,098
366,7	0,097
367,2	0,097
367,6	0,095
368,1	0,094
368,5	0,092
369	0,091
369,5	0,09
369,9	0,088
370,4	0,087
370,8	0,085
371,3	0,084
371,7	0,083
372,2	0,082
372,7	0,081
373,1	0,079
373,6	0,077
374	0,077
374,5	0,075
374,9	0,074
375,4	0,073
375,9	0,071
376,3	0,071
376,8	0,07
377,2	0,068
377,7	0,068
378,2	0,068
378,6	0,067
379,1	0,066
379,5	0,065
380	0,065
380,4	0,064
380,9	0,063
381,4	0,062
381,8	0,061
382,3	0,06
382,7	0,058
383,2	0,058
383,6	0,057
384,1	0,057
384,6	0,055
385	0,055
385,5	0,055
385,9	0,054
386,4	0,053
386,8	0,052
387,3	0,051
387,7	0,05
388,2	0,05
388,7	0,049
389,1	0,048
389,6	0,047
390	0,046
390,5	0,046
390,9	0,045
391,4	0,043
391,9	0,043
392,3	0,042
392,8	0,042
393,2	0,041
393,7	0,041
394,1	0,041
394,6	0,04
395,1	0,039
395,5	0,039
396	0,039
396,4	0,039
396,9	0,037
397,3	0,037
397,8	0,038
398,2	0,038
398,7	0,037
399,2	0,037
399,6	0,037
400,1	0,037
400,5	0,036
401	0,035
401,4	0,034
401,9	0,034
402,4	0,033
402,8	0,032
403,3	0,032
403,7	0,031
404,2	0,03
404,6	0,03
405,1	0,03
405,5	0,03
406	0,03
406,5	0,029
406,9	0,03
407,4	0,03
407,8	0,03
408,3	0,03
408,7	0,029
409,2	0,029
409,6	0,028
410,1	0,027
410,6	0,027
411	0,027
411,5	0,026
411,9	0,026
412,4	0,026
412,8	0,026
413,3	0,026
413,7	0,026
414,2	0,027
414,7	0,026
415,1	0,026
415,6	0,026
416	0,025
416,5	0,025
416,9	0,025
417,4	0,024
417,8	0,024
418,3	0,024
418,8	0,024
419,2	0,024
419,7	0,024
420,1	0,023
420,6	0,023
421	0,023
421,5	0,023
421,9	0,022
422,4	0,022
422,8	0,022
423,3	0,022
423,8	0,021
424,2	0,022
424,7	0,022
425,1	0,021
425,6	0,022
426	0,021
426,5	0,021
426,9	0,021
427,4	0,021
427,9	0,021
428,3	0,021
428,8	0,021
429,2	0,021
429,7	0,02
430,1	0,021
430,6	0,02
431	0,02
431,5	0,021
431,9	0,02
432,4	0,02
432,8	0,019
433,3	0,019
433,8	0,019
434,2	0,018
434,7	0,018
435,1	0,018
435,6	0,018
436	0,018
436,5	0,018
436,9	0,018
437,4	0,018
437,8	0,018
438,3	0,018
438,8	0,018
439,2	0,017
439,7	0,018
440,1	0,017
440,6	0,017
441	0,018
441,5	0,017
441,9	0,017
442,4	0,017
442,8	0,017
443,3	0,017
443,7	0,017
444,2	0,016
444,7	0,016
445,1	0,015
445,6	0,016
446	0,015
446,5	0,015
446,9	0,015
447,4	0,014
447,8	0,014
448,3	0,015
448,7	0,015
449,2	0,015
449,6	0,015
450,1	0,015
450,6	0,016
451	0,016
451,5	0,016
451,9	0,015
452,4	0,015
452,8	0,016
453,3	0,015
453,7	0,015
454,2	0,015
454,6	0,015
455,1	0,015
455,5	0,015
456	0,015
456,4	0,014
456,9	0,015
457,3	0,014
457,8	0,014
458,3	0,014
458,7	0,014
459,2	0,015
459,6	0,015
460,1	0,015
460,5	0,015
461	0,015
461,4	0,015
461,9	0,014
462,3	0,013
462,8	0,013
463,2	0,013
463,7	0,013
464,1	0,013
464,6	0,013
465	0,014
465,5	0,014
466	0,015
466,4	0,015
466,9	0,015
467,3	0,015
467,8	0,014
468,2	0,014
468,7	0,013
469,1	0,013
469,6	0,013
470	0,013
470,5	0,013
470,9	0,014
471,4	0,014
471,8	0,014
472,3	0,014
472,7	0,014
473,2	0,014
473,6	0,014
474,1	0,014
474,5	0,014
475	0,013
475,4	0,013
475,9	0,013
476,4	0,013
476,8	0,013
477,3	0,013
477,7	0,013
478,2	0,013
478,6	0,013
479,1	0,014
479,5	0,014
480	0,013
480,4	0,013
480,9	0,014
481,3	0,014
481,8	0,014
482,2	0,014
482,7	0,014
483,1	0,013
483,6	0,012
484	0,012
484,5	0,011
484,9	0,011
485,4	0,01
485,8	0,01
486,3	0,011
486,7	0,011
487,2	0,011
487,6	0,011
488,1	0,011
488,5	0,012
489	0,012
489,4	0,013
489,9	0,013
490,4	0,012
490,8	0,013
491,3	0,012
491,7	0,012
492,2	0,012
492,6	0,011
493,1	0,012
493,5	0,012
494	0,012
494,4	0,012
494,9	0,012
495,3	0,013
495,8	0,013
496,2	0,013
496,7	0,013
497,1	0,012
497,6	0,012
498	0,013
498,5	0,012
498,9	0,012
499,4	0,012
499,8	0,013
500,3	0,012
500,7	0,013
501,2	0,013
501,6	0,013
502,1	0,013
502,5	0,013
503	0,013
503,4	0,013
503,9	0,013
504,3	0,013
504,8	0,013
505,2	0,012
505,7	0,012
506,1	0,013
506,6	0,013
507	0,012
507,5	0,013
507,9	0,013
508,4	0,013
508,8	0,013
509,3	0,013
509,7	0,012
510,2	0,011
510,6	0,011
511,1	0,01
511,5	0,01
512	0,01
512,4	0,01
512,9	0,01
513,3	0,011
513,8	0,011
514,2	0,011
514,7	0,011
515,1	0,012
515,6	0,011
516	0,011
516,5	0,011
516,9	0,011
517,4	0,012
517,8	0,012
518,3	0,012
518,7	0,013
519,2	0,013
519,6	0,013
520,1	0,013
520,5	0,013
521	0,012
521,4	0,012
521,9	0,011
522,3	0,011
522,8	0,011
523,2	0,012
523,7	0,012
524,1	0,012
524,6	0,012
525	0,012
525,5	0,013
525,9	0,013
526,4	0,012
526,8	0,012
527,3	0,011
527,7	0,011
528,2	0,011
528,6	0,011
529,1	0,011
529,5	0,011
530	0,011
530,4	0,011
530,9	0,011
531,3	0,012
531,8	0,012
532,2	0,012
532,6	0,012
533,1	0,012
533,5	0,012
534	0,012
534,4	0,012
534,9	0,012
535,3	0,011
535,8	0,011
536,2	0,012
536,7	0,012
537,1	0,012
537,6	0,011
538	0,012
538,5	0,012
538,9	0,012
539,4	0,011
539,8	0,011
540,3	0,011
540,7	0,011
541,2	0,01
541,6	0,011
542,1	0,011
542,5	0,011
543	0,011
543,4	0,011
543,9	0,011
544,3	0,012
544,8	0,011
545,2	0,011
545,7	0,011
546,1	0,011
546,5	0,01
547	0,01
547,4	0,01
547,9	0,01
548,3	0,01
548,8	0,011
549,2	0,011
549,7	0,011
550,1	0,011
550,6	0,011
551	0,011
551,5	0,011
551,9	0,011
552,4	0,011
552,8	0,011
553,3	0,01
553,7	0,01
554,2	0,01
554,6	0,01
555,1	0,01
555,5	0,01
555,9	0,01
556,4	0,01
556,8	0,011
557,3	0,011
557,7	0,011
558,2	0,011
558,6	0,011
559,1	0,011
559,5	0,011
560	0,012
560,4	0,011
560,9	0,011
561,3	0,012
561,8	0,011
562,2	0,011
562,7	0,011
563,1	0,011
563,6	0,011
564	0,011
564,4	0,011
564,9	0,011
565,3	0,011
565,8	0,011
566,2	0,01
566,7	0,01
567,1	0,011
567,6	0,011
568	0,011
568,5	0,011
568,9	0,011
569,4	0,011
569,8	0,011
570,3	0,01
570,7	0,01
571,1	0,01
571,6	0,01
572	0,01
572,5	0,01
572,9	0,011
573,4	0,01
573,8	0,011
574,3	0,011
574,7	0,01
575,2	0,01
575,6	0,01
576,1	0,01
576,5	0,01
576,9	0,01
577,4	0,011
577,8	0,01
578,3	0,01
578,7	0,01
579,2	0,01
579,6	0,01
580,1	0,01
580,5	0,01
581	0,01
581,4	0,01
581,9	0,01
582,3	0,01
582,7	0,01
583,2	0,01
583,6	0,01
584,1	0,01
584,5	0,01
585	0,01
585,4	0,01
585,9	0,01
586,3	0,009
586,8	0,009
587,2	0,01
587,6	0,009
588,1	0,01
588,5	0,009
589	0,01
589,4	0,01
589,9	0,01
590,3	0,01
590,8	0,011
591,2	0,011
591,7	0,011
592,1	0,01
592,5	0,01
593	0,01
593,4	0,01
593,9	0,01
594,3	0,01
594,8	0,01
595,2	0,01
595,7	0,01
596,1	0,01
596,6	0,01
597	0,01
597,4	0,01
597,9	0,01
598,3	0,009
598,8	0,009
599,2	0,009
599,7	0,009
600,1	0,009
600,6	0,009
601	0,009
601,4	0,009
601,9	0,009
602,3	0,009
602,8	0,009
603,2	0,009
603,7	0,009
604,1	0,009
604,6	0,009
605	0,009
605,4	0,009
605,9	0,009
606,3	0,009
606,8	0,009
607,2	0,009
607,7	0,009
608,1	0,009
608,6	0,009
609	0,009
609,4	0,01
609,9	0,01
610,3	0,009
610,8	0,009
611,2	0,009
611,7	0,009
612,1	0,009
612,6	0,009
613	0,009
613,4	0,009
613,9	0,009
614,3	0,009
614,8	0,009
615,2	0,008
615,7	0,008
616,1	0,007
616,6	0,007
617	0,007
617,4	0,007
617,9	0,007
618,3	0,008
618,8	0,008
619,2	0,008
619,7	0,008
620,1	0,008
620,5	0,008
621	0,008
621,4	0,008
621,9	0,008
622,3	0,008
622,8	0,008
623,2	0,008
623,6	0,008
624,1	0,008
624,5	0,008
625	0,008
625,4	0,008
625,9	0,008
626,3	0,007
626,8	0,007
627,2	0,007
627,6	0,007
628,1	0,007
628,5	0,007
629	0,007
629,4	0,008
629,9	0,008
630,3	0,008
630,7	0,008
631,2	0,008
631,6	0,008
632,1	0,008
632,5	0,008
633	0,008
633,4	0,007
633,8	0,007
634,3	0,007
634,7	0,007
635,2	0,007
635,6	0,007
636,1	0,008
636,5	0,008
636,9	0,008
637,4	0,008
637,8	0,008
638,3	0,008
638,7	0,008
639,2	0,008
639,6	0,007
640	0,007
640,5	0,007
640,9	0,007
641,4	0,007
641,8	0,006
642,2	0,006
642,7	0,006
643,1	0,007
643,6	0,007
644	0,006
644,5	0,007
644,9	0,007
645,3	0,006
645,8	0,006
646,2	0,005
646,7	0,006
647,1	0,005
647,6	0,006
648	0,006
648,4	0,006
648,9	0,007
649,3	0,007
649,8	0,007
650,2	0,008
650,6	0,008
651,1	0,008
651,5	0,007
652	0,007
652,4	0,007
652,9	0,007
653,3	0,007
653,7	0,006
654,2	0,006
654,6	0,006
655,1	0,005
655,5	0,005
655,9	0,004
656,4	0,003
656,8	0,004
657,3	0,004
657,7	0,004
658,2	0,005
658,6	0,004
659	0,006
659,5	0,01
659,9	0,008
660,4	0,007
660,8	0,007
661,2	0,007
661,7	0,007
662,1	0,007
662,6	0,007
663	0,007
663,4	0,007
663,9	0,006
664,3	0,006
664,8	0,006
665,2	0,006
665,6	0,006
666,1	0,006
666,5	0,007
667	0,007
667,4	0,007
667,9	0,006
668,3	0,006
668,7	0,005
669,2	0,006
669,6	0,005
670,1	0,005
670,5	0,006
670,9	0,006
671,4	0,006
671,8	0,006
672,3	0,006
672,7	0,006
673,1	0,006
673,6	0,006
674	0,006
674,5	0,006
674,9	0,006
675,3	0,006
675,8	0,006
676,2	0,006
676,7	0,006
677,1	0,006
677,5	0,005
678	0,005
678,4	0,004
678,9	0,004
679,3	0,004
679,7	0,004
680,2	0,004
680,6	0,004
681,1	0,004
681,5	0,004
681,9	0,004
682,4	0,005
682,8	0,006
683,3	0,006
683,7	0,005
684,1	0,005
684,6	0,006
685	0,005
685,5	0,005
685,9	0,005
686,3	0,005
686,8	0,006
687,2	0,006
687,7	0,005
688,1	0,005
688,5	0,004
689	0,004
689,4	0,004
689,9	0,004
690,3	0,004
690,7	0,004
691,2	0,004
691,6	0,004
692	0,004
692,5	0,004
692,9	0,005
693,4	0,004
693,8	0,004
694,2	0,005
694,7	0,005
695,1	0,005
695,6	0,005
696	0,004
696,4	0,005
696,9	0,004
697,3	0,004
697,8	0,004
698,2	0,004
698,6	0,005
699,1	0,005
699,5	0,005
699,9	0,004
700,4	0,005
700,8	0,005
701,3	0,005
701,7	0,005
702,1	0,005
702,6	0,005
703	0,005
703,5	0,005
703,9	0,005
704,3	0,006
704,8	0,006
705,2	0,006
705,6	0,006
706,1	0,006
706,5	0,006
707	0,005
707,4	0,005
707,8	0,005
708,3	0,005
708,7	0,005
709,2	0,005
709,6	0,005
710	0,005
710,5	0,005
710,9	0,005
711,3	0,005
711,8	0,005
712,2	0,005
712,7	0,005
713,1	0,004
713,5	0,004
714	0,004
714,4	0,004
714,8	0,004
715,3	0,004
715,7	0,004
716,2	0,004
716,6	0,004
717	0,004
717,5	0,004
717,9	0,004
718,3	0,004
718,8	0,004
719,2	0,004
719,7	0,005
720,1	0,005
720,5	0,005
721	0,005
721,4	0,005
721,8	0,005
722,3	0,005
722,7	0,005
723,2	0,005
723,6	0,005
724	0,005
724,5	0,005
724,9	0,005
725,3	0,005
725,8	0,004
726,2	0,004
726,7	0,004
727,1	0,004
727,5	0,004
728	0,004
728,4	0,003
728,8	0,003
729,3	0,003
729,7	0,003
730,1	0,004
730,6	0,004
731	0,004
731,5	0,004
731,9	0,004
732,3	0,004
732,8	0,004
733,2	0,004
733,6	0,003
734,1	0,003
734,5	0,003
734,9	0,004
735,4	0,004
735,8	0,004
736,3	0,004
736,7	0,004
737,1	0,004
737,6	0,004
738	0,004
738,4	0,004
738,9	0,004
739,3	0,004
739,7	0,004
740,2	0,004
740,6	0,004
741,1	0,004
741,5	0,004
741,9	0,003
742,4	0,003
742,8	0,003
743,2	0,003
743,7	0,003
744,1	0,003
744,5	0,003
745	0,004
745,4	0,004
745,8	0,004
746,3	0,005
746,7	0,005
747,2	0,004
747,6	0,004
748	0,004
748,5	0,004
748,9	0,003
749,3	0,003
749,8	0,004
750,2	0,004
750,6	0,004
751,1	0,004
751,5	0,004
751,9	0,004
752,4	0,004
752,8	0,004
753,3	0,004
753,7	0,004
754,1	0,004
754,6	0,003
755	0,003
755,4	0,003
755,9	0,004
756,3	0,003
756,7	0,003
757,2	0,003
757,6	0,003
758	0,003
758,5	0,003
758,9	0,003
759,3	0,004
759,8	0,004
760,2	0,004
760,6	0,003
761,1	0,003
761,5	0,003
761,9	0,003
762,4	0,003
762,8	0,003
763,3	0,003
763,7	0,003
764,1	0,003
764,6	0,003
765	0,003
765,4	0,003
765,9	0,003
766,3	0,003
766,7	0,003
767,2	0,003
767,6	0,003
768	0,003
768,5	0,003
768,9	0,003
769,3	0,004
769,8	0,004
770,2	0,004
770,6	0,004
771,1	0,004
771,5	0,004
771,9	0,004
772,4	0,003
772,8	0,003
773,2	0,003
773,7	0,003
774,1	0,003
774,5	0,003
775	0,004
775,4	0,004
775,8	0,004
776,3	0,004
776,7	0,004
777,1	0,004
777,6	0,004
778	0,003
778,4	0,004
778,9	0,003
779,3	0,004
779,7	0,004
780,2	0,004
780,6	0,004
781	0,003
781,5	0,003
781,9	0,003
782,3	0,003
782,8	0,003
783,2	0,003
783,6	0,002
784,1	0,003
784,5	0,003
784,9	0,003
785,4	0,003
785,8	0,003
786,2	0,003
786,7	0,003
787,1	0,003
787,5	0,003
788	0,003
788,4	0,003
788,8	0,003
789,3	0,003
789,7	0,003
790,1	0,004
790,6	0,004
791	0,004
791,4	0,004
791,9	0,004
792,3	0,004
792,7	0,003
793,2	0,003
793,6	0,003
794	0,003
794,5	0,003
794,9	0,003
795,3	0,003
795,8	0,003
796,2	0,003
796,6	0,003
797,1	0,003
797,5	0,003
797,9	0,004
798,4	0,004
798,8	0,004
799,2	0,004
799,7	0,003
800,1	0,004
800,5	0,003
801	0,003
801,4	0,003
801,8	0,003
802,2	0,003
802,7	0,003
803,1	0,003
803,5	0,003
804	0,003
804,4	0,003
804,8	0,003
805,3	0,003
805,7	0,003
806,1	0,003
806,6	0,003
807	0,003
807,4	0,003
807,9	0,003
808,3	0,002
808,7	0,002
809,2	0,002
809,6	0,002
810	0,002
810,4	0,002
810,9	0,002
811,3	0,002
811,7	0,002
812,2	0,002
812,6	0,002
813	0,002
813,5	0,002
813,9	0,003
814,3	0,003
814,8	0,003
815,2	0,003
815,6	0,003
816,1	0,003
816,5	0,003
816,9	0,003
817,3	0,003
817,8	0,002
818,2	0,002
818,6	0,002
819,1	0,002
819,5	0,002
819,9	0,003
820,4	0,003
820,8	0,003
821,2	0,003
821,7	0,004
822,1	0,003
822,5	0,004
822,9	0,003
823,4	0,003
823,8	0,003
824,2	0,003
824,7	0,003
825,1	0,003
825,5	0,003
826	0,003
826,4	0,002
826,8	0,002
827,3	0,002
827,7	0,002
828,1	0,002
828,5	0,002
829	0,002
829,4	0,002
829,8	0,002
830,3	0,002
830,7	0,002
831,1	0,002
831,6	0,002
832	0,002
832,4	0,002
832,8	0,002
833,3	0,002
833,7	0,002
834,1	0,002
834,6	0,003
835	0,003
835,4	0,003
835,8	0,004
836,3	0,003
836,7	0,003
837,1	0,004
837,6	0,003
838	0,003
838,4	0,003
838,9	0,003
839,3	0,004
839,7	0,004
840,1	0,003
840,6	0,003
841	0,003
841,4	0,003
841,9	0,003
842,3	0,003
842,7	0,003
843,1	0,003
843,6	0,003
844	0,004
844,4	0,003
844,9	0,003
845,3	0,003
845,7	0,003
846,2	0,003
846,6	0,002
847	0,002
847,4	0,002
847,9	0,002
848,3	0,002
848,7	0,002
849,2	0,002
849,6	0,003
850	0,003
850,4	0,003
850,9	0,003
851,3	0,003
851,7	0,002
852,2	0,002
852,6	0,003
853	0,002
853,4	0,002
853,9	0,002
854,3	0,002
854,7	0,002
855,2	0,002
855,6	0,002
856	0,003
856,4	0,003
856,9	0,003
857,3	0,003
857,7	0,003
858,2	0,003
858,6	0,002
859	0,002
859,4	0,002
859,9	0,002
860,3	0,001
860,7	0,001
861,1	0,001
861,6	0,001
862	0,002
862,4	0,002
862,9	0,002
863,3	0,002
863,7	0,002
864,1	0,002
864,6	0,002
865	0,002
865,4	0,002
865,9	0,002
866,3	0,002
866,7	0,002
867,1	0,002
867,6	0,002
868	0,002
868,4	0,002
868,8	0,002
869,3	0,003
869,7	0,003
870,1	0,003
870,6	0,003
871	0,003
871,4	0,003
871,8	0,003
872,3	0,003
872,7	0,003
873,1	0,003
873,5	0,003
874	0,003
874,4	0,002
874,8	0,002
875,3	0,002
875,7	0,002
876,1	0,002
876,5	0,002
877	0,002
877,4	0,003
877,8	0,002
878,2	0,003
878,7	0,003
879,1	0,003
879,5	0,003
879,9	0,003
880,4	0,003
880,8	0,004
881,2	0,003
881,7	0,003
882,1	0,003
882,5	0,003
882,9	0,003
883,4	0,003
883,8	0,003
884,2	0,003
884,6	0,003
885,1	0,003
885,5	0,003
885,9	0,003
886,3	0,003
886,8	0,003
887,2	0,002
887,6	0,002
888	0,002
888,5	0,002
888,9	0,002
889,3	0,002
889,8	0,002
890,2	0,002
890,6	0,003
891	0,003
891,5	0,003
891,9	0,003
892,3	0,003
892,7	0,003
893,2	0,003
893,6	0,003
894	0,003
894,4	0,002
894,9	0,002
895,3	0,002
895,7	0,002
896,1	0,001
896,6	0,001
897	0,002
897,4	0,002
897,8	0,002
898,3	0,002
898,7	0,002
899,1	0,002
899,5	0,002
900	0,002
900,4	0,002
900,8	0,002
901,2	0,002
901,7	0,002
902,1	0,003
902,5	0,003
902,9	0,003
903,4	0,003
903,8	0,003
904,2	0,003
904,6	0,002
905,1	0,002
905,5	0,002
905,9	0,002
906,3	0,002
906,8	0,002
907,2	0,002
907,6	0,002
908	0,003
908,5	0,003
908,9	0,003
909,3	0,003
909,7	0,003
910,2	0,003
910,6	0,003
911	0,003
911,4	0,002
911,9	0,002
912,3	0,003
912,7	0,003
913,1	0,003
913,6	0,003
914	0,003
914,4	0,003
914,8	0,003
915,3	0,002
915,7	0,002
916,1	0,002
916,5	0,002
916,9	0,002
917,4	0,002
917,8	0,002
918,2	0,003
918,6	0,003
919,1	0,003
919,5	0,002
919,9	0,003
920,3	0,003
920,8	0,003
921,2	0,002
921,6	0,002
922	0,003
922,5	0,003
922,9	0,003
923,3	0,002
923,7	0,002
924,2	0,001
924,6	0,002
925	0,002
925,4	0,002
925,8	0,002
926,3	0,002
926,7	0,003
927,1	0,003
927,5	0,003
928	0,002
928,4	0,003
928,8	0,002
929,2	0,003
929,7	0,003
930,1	0,003
930,5	0,003
930,9	0,003
931,3	0,003
931,8	0,003
932,2	0,003
932,6	0,003
933	0,003
933,5	0,003
933,9	0,003
934,3	0,003
934,7	0,004
935,2	0,004
935,6	0,004
936	0,004
936,4	0,004
936,8	0,003
937,3	0,003
937,7	0,003
938,1	0,002
938,5	0,002
939	0,002
939,4	0,002
939,8	0,001
940,2	0,002
940,6	0,002
941,1	0,002
941,5	0,002
941,9	0,002
942,3	0,002
942,8	0,002
943,2	0,002
943,6	0,002
944	0,002
944,4	0,002
944,9	0,003
945,3	0,003
945,7	0,003
946,1	0,003
946,6	0,003
947	0,003
947,4	0,002
947,8	0,002
948,2	0,002
948,7	0,002
949,1	0,001
949,5	0,001
949,9	0,001
950,3	0,002
950,8	0,002
951,2	0,002
951,6	0,002
952	0,002
952,5	0,002
952,9	0,002
953,3	0,002
953,7	0,002
954,1	0,002
954,6	0,002
955	0,002
955,4	0,002
955,8	0,002
956,2	0,002
956,7	0,001
957,1	0,001
957,5	0,001
957,9	0,001
958,3	0,001
958,8	0,001
959,2	0,002
959,6	0,003
960	0,003
960,5	0,003
960,9	0,003
961,3	0,003
961,7	0,003
962,1	0,003
962,6	0,003
963	0,003
963,4	0,003
963,8	0,003
964,2	0,003
964,7	0,002
965,1	0,003
965,5	0,002
965,9	0,002
966,3	0,001
966,8	0,001
967,2	0,001
967,6	0,002
968	0,002
968,4	0,002
968,9	0,003
969,3	0,003
969,7	0,003
970,1	0,003
970,5	0,003
971	0,003
971,4	0,003
971,8	0,003
972,2	0,003
972,6	0,003
973,1	0,003
973,5	0,002
973,9	0,002
974,3	0,002
974,7	0,002
975,2	0,002
975,6	0,002
976	0,002
976,4	0,003
976,8	0,003
977,3	0,003
977,7	0,003
978,1	0,003
978,5	0,003
978,9	0,003
979,4	0,003
979,8	0,003
980,2	0,003
980,6	0,002
981	0,002
981,5	0,003
981,9	0,002
982,3	0,002
982,7	0,001
983,1	0,002
983,6	0,003
984	0,002
984,4	0,003
984,8	0,002
985,2	0,002
985,6	0,002
986,1	0,002
986,5	0,001
986,9	0,001
987,3	0,001
987,7	0,001
988,2	0,001
988,6	0,001
989	0,001
989,4	0,001
989,8	0,001
990,3	0,002
990,7	0,002
991,1	0,002
991,5	0,002
991,9	0,002
992,3	0,002
992,8	0,003
993,2	0,002
993,6	0,002
994	0,002
994,4	0,002
994,9	0,002
995,3	0,002
995,7	0,001
996,1	0,001
996,5	0,002
996,9	0,001
997,4	0,001
997,8	0,001
998,2	0,002
998,6	0,002
999	0,002
999,5	0,002
999,9	0,003
1000,3	0,003
1000,7	0,002
1001,1	0,002
1001,5	0,002
1002	0,003
1002,4	0,003
1002,8	0,002
1003,2	0,002
1003,6	0,002
1004	0,003
1004,5	0,002
1004,9	0,002
1005,3	0,002
1005,7	0,002
1006,1	0,002
1006,6	0,002
1007	0,002
1007,4	0,002
1007,8	0,002
1008,2	0,002
1008,6	0,002
1009,1	0,002
1009,5	0,001
1009,9	0,001
1010,3	0,001
1010,7	0,001
1011,1	0,001
1011,6	0,001
1012	0,002
1012,4	0,002
1012,8	0,002
1013,2	0,002
1013,6	0,002
1014,1	0,002
1014,5	0,002
1014,9	0,002
1015,3	0,002
1015,7	0,001
1016,1	0,002
1016,6	0,002
1017	0,002
1017,4	0,002
1017,8	0,002
1018,2	0,001
1018,6	0,002
1019,1	0,002
1019,5	0,002
1019,9	0,002
1020,3	0,002
1020,7	0,001
1021,1	0,001
1021,6	0,001
1022	0,001
1022,4	0
1022,8	-0
1023,2	-0
1023,6	0
1024,1	0
1024,5	0,001
1024,9	0,001
1025,3	0,002
1025,7	0,002
1026,1	0,002
1026,6	0,002
1027	0,002
1027,4	0,001
1027,8	0,001
1028,2	0,001
1028,6	0,001
1029	0,001
1029,5	0
1029,9	-0
1030,3	0
1030,7	0,001
1031,1	0,001
1031,5	0,002
1032	0,002
1032,4	0,003
1032,8	0,003
1033,2	0,003
1033,6	0,002
1034	0,002
1034,4	0,002
1034,9	0,001
1035,3	0,002
1035,7	0,001
1036,1	0,001
1036,5	0,001
1036,9	0,002
1037,4	0,001
1037,8	0,001
1038,2	0,001
1038,6	0,002
1039	0,002
1039,4	0,002
1039,8	0,002
1040,3	0,002
1040,7	0,002
1041,1	0,002
1041,5	0,002
1041,9	0,001
1042,3	0,001
1042,7	-0
1043,2	0
1043,6	0
1044	0,001
1044,4	0
1044,8	0
1045,2	-0
1045,6	0,001
1046,1	0
1046,5	0
1046,9	-0,001
1047,3	-0
1047,7	0
1048,1	-0,001
1048,5	-0
1049	-0
1049,4	0,001
1049,8	0
1050,2	0
1050,6	0
1051	0,001
1051,4	0,001
1051,9	0,001
1052,3	0
1052,7	0,001
1053,1	0,001
1053,5	0,001
1053,9	0,001
1054,3	0,001
1054,8	0
1055,2	0,001
1055,6	-0
1056	-0,001
1056,4	-0,001
1056,8	-0,001
1057,2	-0,001
1057,6	-0,001
1058,1	-0
1058,5	0
1058,9	0,001
1059,3	0,002
1059,7	0,002
1060,1	0,002
1060,5	0,001
1061	-0
1061,4	-0,001
1061,8	-0,001
1062,2	-0,001
1062,6	-0
1063	-0,001
1063,4	0
1063,8	0
1064,3	0
1064,7	0
1065,1	-0
1065,5	-0
1065,9	0
1066,3	0
1066,7	0
1067,1	0
1067,6	0,001
1068	0,002
1068,4	0,002
1068,8	0,002
1069,2	0,002
1069,6	0,003
1070	0,003
1070,4	0,004
1070,9	0,003
1071,3	0,003
1071,7	0,003
1072,1	0,003
1072,5	0,003
1072,9	0,002
1073,3	0,002
1073,7	0,001
1074,2	-0
1074,6	0
1075	0
1075,4	-0,001
1075,8	0
1076,2	-0
1076,6	0,002
1077	0,003
1077,5	0,003
1077,9	0,002
1078,3	0,004
1078,7	0,002
1079,1	0,001
1079,5	-0,001
1079,9	-0,002
1080,3	-0,002
1080,7	0
1081,2	0,001
1081,6	0,003
1082	0,005
1082,4	0,005
1082,8	0,005
1083,2	0,004
1083,6	0,003
1084	0,001
1084,5	-0
1084,9	-0,001
1085,3	-0,002
1085,7	-0,001
1086,1	-0,001
1086,5	-0,001
1086,9	-0,002
1087,3	-0,002
1087,7	-0,002
1088,2	-0,001
1088,6	-0,001
1089	-0,004
1089,4	-0,004
1089,8	-0,001
1090,2	-0,001
1090,6	-0,001
1091	0
1091,4	-0
1091,9	-0,002
1092,3	-0,003
1092,7	-0,008
1093,1	-0,007
1093,5	-0,008
1093,9	-0,006
1094,3	-0,007
1094,7	-0,003
1095,1	-0,001
1095,5	0
1096	-0,003
1096,4	0
1096,8	-0,003
1097,2	-0,009
1097,6	-0,011
1098	-0,015
1098,4	-0,009
1098,8	-0,006
1099,2	-0,012
1099,6	-0,001
1100,1	0,009
1100,5	0,009
1100,9	0,013
1101,3	0,019
1101,7	0,019
1102,1	0,021
1102,5	0,007
1102,9	-0
1103,3	0,007
1103,7	0,005
1104,2	-0,001
1104,6	-0,002
1105	0,003
1105,4	0,006
1105,8	0,017
1106,2	0,01
1106,6	0,014
1107	0,013
1107,4	0,031
1107,8	0,043
1108,3	0,499
