Data from Absorbance_00038.txt Node
Date: Wed Aug 02 18:14:35 MSK 2023
User: vat
Spectrometer: MAYP114033
Trigger mode: 0
Integration Time (sec): 8,000000E-3
Scans to average: 10
Electric dark correction enabled: true
Nonlinearity correction enabled: false
Boxcar width: 3
XAxis mode: Wavelengths
Number of Pixels in Spectrum: 2068
>>>>>Begin Spectral Data<<<<<
199,4	-0
199,9	0,14
200,4	0,397
200,8	0,655
201,3	0,804
201,8	0,894
202,2	0,928
202,7	0,942
203,2	0,97
203,6	1,001
204,1	1,031
204,6	1,05
205	1,066
205,5	1,067
206	1,078
206,4	1,101
206,9	1,132
207,4	1,143
207,8	1,145
208,3	1,156
208,8	1,161
209,2	1,185
209,7	1,207
210,2	1,204
210,6	1,212
211,1	1,223
211,5	1,233
212	1,265
212,5	1,274
212,9	1,275
213,4	1,294
213,9	1,314
214,3	1,343
214,8	1,34
215,3	1,354
215,7	1,361
216,2	1,381
216,7	1,408
217,1	1,438
217,6	1,436
218,1	1,474
218,5	1,506
219	1,522
219,5	1,552
219,9	1,56
220,4	1,551
220,9	1,584
221,3	1,6
221,8	1,609
222,3	1,62
222,7	1,623
223,2	1,621
223,6	1,658
224,1	1,666
224,6	1,667
225	1,674
225,5	1,682
226	1,69
226,4	1,714
226,9	1,716
227,4	1,731
227,8	1,77
228,3	1,764
228,8	1,808
229,2	1,805
229,7	1,82
230,2	1,838
230,6	1,87
231,1	1,853
231,5	1,879
232	1,875
232,5	1,91
232,9	1,901
233,4	1,908
233,9	1,911
234,3	1,94
234,8	1,957
235,3	1,978
235,7	1,989
236,2	2,018
236,7	2,04
237,1	2,013
237,6	2,017
238,1	2,009
238,5	1,986
239	1,977
239,4	1,98
239,9	1,984
240,4	2,001
240,8	1,987
241,3	1,991
241,8	2,024
242,2	2,025
242,7	2,032
243,2	2,032
243,6	2,04
244,1	2,05
244,6	2,062
245	2,048
245,5	2,044
245,9	2,044
246,4	2,043
246,9	2,066
247,3	2,067
247,8	2,069
248,3	2,083
248,7	2,103
249,2	2,098
249,7	2,111
250,1	2,109
250,6	2,124
251	2,135
251,5	2,138
252	2,145
252,4	2,163
252,9	2,142
253,4	2,134
253,8	2,143
254,3	2,135
254,8	2,132
255,2	2,157
255,7	2,134
256,1	2,133
256,6	2,14
257,1	2,13
257,5	2,133
258	2,157
258,5	2,128
258,9	2,163
259,4	2,168
259,9	2,156
260,3	2,16
260,8	2,147
261,2	2,145
261,7	2,168
262,2	2,151
262,6	2,15
263,1	2,153
263,6	2,143
264	2,176
264,5	2,163
264,9	2,154
265,4	2,164
265,9	2,193
266,3	2,195
266,8	2,224
267,3	2,199
267,7	2,189
268,2	2,185
268,7	2,184
269,1	2,155
269,6	2,161
270	2,145
270,5	2,159
271	2,163
271,4	2,155
271,9	2,161
272,4	2,164
272,8	2,166
273,3	2,158
273,7	2,144
274,2	2,151
274,7	2,138
275,1	2,118
275,6	2,116
276,1	2,102
276,5	2,109
277	2,109
277,4	2,075
277,9	2,089
278,4	2,066
278,8	2,04
279,3	2,031
279,8	2,009
280,2	1,981
280,7	1,987
281,1	1,955
281,6	1,959
282,1	1,944
282,5	1,917
283	1,866
283,4	1,81
283,9	1,732
284,4	1,659
284,8	1,574
285,3	1,487
285,8	1,398
286,2	1,317
286,7	1,244
287,1	1,177
287,6	1,114
288,1	1,057
288,5	1,007
289	0,964
289,5	0,926
289,9	0,893
290,4	0,865
290,8	0,84
291,3	0,82
291,8	0,803
292,2	0,789
292,7	0,777
293,1	0,768
293,6	0,758
294,1	0,751
294,5	0,743
295	0,737
295,5	0,731
295,9	0,725
296,4	0,721
296,8	0,717
297,3	0,714
297,8	0,711
298,2	0,707
298,7	0,705
299,1	0,702
299,6	0,7
300,1	0,698
300,5	0,696
301	0,694
301,5	0,693
301,9	0,691
302,4	0,688
302,8	0,686
303,3	0,682
303,8	0,679
304,2	0,676
304,7	0,674
305,1	0,671
305,6	0,669
306,1	0,664
306,5	0,661
307	0,656
307,4	0,652
307,9	0,648
308,4	0,642
308,8	0,637
309,3	0,632
309,8	0,628
310,2	0,625
310,7	0,62
311,1	0,615
311,6	0,611
312,1	0,607
312,5	0,603
313	0,599
313,4	0,594
313,9	0,59
314,4	0,586
314,8	0,582
315,3	0,576
315,7	0,571
316,2	0,566
316,7	0,559
317,1	0,554
317,6	0,547
318	0,54
318,5	0,535
319	0,527
319,4	0,521
319,9	0,515
320,3	0,507
320,8	0,5
321,3	0,493
321,7	0,485
322,2	0,478
322,6	0,47
323,1	0,462
323,6	0,455
324	0,448
324,5	0,441
324,9	0,433
325,4	0,428
325,9	0,421
326,3	0,414
326,8	0,407
327,2	0,4
327,7	0,394
328,2	0,387
328,6	0,38
329,1	0,373
329,5	0,367
330	0,36
330,5	0,354
330,9	0,348
331,4	0,342
331,8	0,337
332,3	0,332
332,8	0,327
333,2	0,321
333,7	0,316
334,1	0,312
334,6	0,307
335,1	0,303
335,5	0,298
336	0,293
336,4	0,288
336,9	0,283
337,4	0,28
337,8	0,275
338,3	0,269
338,7	0,265
339,2	0,261
339,7	0,257
340,1	0,253
340,6	0,248
341	0,243
341,5	0,239
342	0,235
342,4	0,231
342,9	0,228
343,3	0,223
343,8	0,22
344,2	0,217
344,7	0,213
345,2	0,209
345,6	0,205
346,1	0,201
346,5	0,198
347	0,196
347,5	0,192
347,9	0,189
348,4	0,187
348,8	0,185
349,3	0,181
349,8	0,178
350,2	0,175
350,7	0,172
351,1	0,169
351,6	0,164
352	0,161
352,5	0,158
353	0,157
353,4	0,154
353,9	0,152
354,3	0,149
354,8	0,148
355,3	0,145
355,7	0,143
356,2	0,139
356,6	0,137
357,1	0,135
357,5	0,133
358	0,131
358,5	0,129
358,9	0,127
359,4	0,125
359,8	0,122
360,3	0,119
360,8	0,117
361,2	0,115
361,7	0,112
362,1	0,11
362,6	0,109
363	0,107
363,5	0,105
364	0,103
364,4	0,1
364,9	0,1
365,3	0,098
365,8	0,097
366,3	0,095
366,7	0,093
367,2	0,092
367,6	0,091
368,1	0,09
368,5	0,088
369	0,087
369,5	0,086
369,9	0,086
370,4	0,085
370,8	0,083
371,3	0,081
371,7	0,08
372,2	0,078
372,7	0,078
373,1	0,075
373,6	0,074
374	0,074
374,5	0,072
374,9	0,071
375,4	0,07
375,9	0,069
376,3	0,068
376,8	0,067
377,2	0,065
377,7	0,064
378,2	0,064
378,6	0,063
379,1	0,061
379,5	0,061
380	0,06
380,4	0,059
380,9	0,058
381,4	0,057
381,8	0,056
382,3	0,056
382,7	0,054
383,2	0,054
383,6	0,052
384,1	0,052
384,6	0,051
385	0,05
385,5	0,049
385,9	0,049
386,4	0,048
386,8	0,049
387,3	0,047
387,7	0,047
388,2	0,047
388,7	0,047
389,1	0,046
389,6	0,045
390	0,044
390,5	0,043
390,9	0,043
391,4	0,042
391,9	0,041
392,3	0,04
392,8	0,039
393,2	0,039
393,7	0,039
394,1	0,038
394,6	0,038
395,1	0,037
395,5	0,037
396	0,037
396,4	0,036
396,9	0,036
397,3	0,035
397,8	0,035
398,2	0,035
398,7	0,034
399,2	0,034
399,6	0,034
400,1	0,033
400,5	0,033
401	0,032
401,4	0,031
401,9	0,03
402,4	0,029
402,8	0,029
403,3	0,028
403,7	0,028
404,2	0,027
404,6	0,027
405,1	0,027
405,5	0,027
406	0,027
406,5	0,027
406,9	0,026
407,4	0,027
407,8	0,026
408,3	0,025
408,7	0,024
409,2	0,024
409,6	0,023
410,1	0,022
410,6	0,022
411	0,021
411,5	0,021
411,9	0,021
412,4	0,021
412,8	0,02
413,3	0,02
413,7	0,019
414,2	0,019
414,7	0,019
415,1	0,018
415,6	0,018
416	0,018
416,5	0,018
416,9	0,017
417,4	0,017
417,8	0,016
418,3	0,015
418,8	0,015
419,2	0,016
419,7	0,015
420,1	0,015
420,6	0,015
421	0,015
421,5	0,015
421,9	0,014
422,4	0,013
422,8	0,013
423,3	0,013
423,8	0,013
424,2	0,012
424,7	0,012
425,1	0,012
425,6	0,012
426	0,012
426,5	0,012
426,9	0,011
427,4	0,011
427,9	0,01
428,3	0,01
428,8	0,01
429,2	0,009
429,7	0,009
430,1	0,009
430,6	0,009
431	0,009
431,5	0,01
431,9	0,009
432,4	0,009
432,8	0,008
433,3	0,008
433,8	0,008
434,2	0,008
434,7	0,008
435,1	0,008
435,6	0,007
436	0,007
436,5	0,007
436,9	0,007
437,4	0,007
437,8	0,006
438,3	0,006
438,8	0,006
439,2	0,006
439,7	0,006
440,1	0,006
440,6	0,005
441	0,006
441,5	0,006
441,9	0,007
442,4	0,006
442,8	0,006
443,3	0,006
443,7	0,006
444,2	0,005
444,7	0,005
445,1	0,004
445,6	0,005
446	0,004
446,5	0,004
446,9	0,003
447,4	0,003
447,8	0,003
448,3	0,003
448,7	0,003
449,2	0,003
449,6	0,003
450,1	0,003
450,6	0,003
451	0,003
451,5	0,003
451,9	0,002
452,4	0,002
452,8	0,003
453,3	0,002
453,7	0,001
454,2	0,001
454,6	0,002
455,1	0,002
455,5	0,002
456	0,003
456,4	0,003
456,9	0,004
457,3	0,004
457,8	0,003
458,3	0,003
458,7	0,003
459,2	0,002
459,6	0,003
460,1	0,002
460,5	0,002
461	0,002
461,4	0,002
461,9	0,002
462,3	0,001
462,8	0,001
463,2	0,001
463,7	0,001
464,1	0,001
464,6	0,001
465	0,001
465,5	0,001
466	0,001
466,4	0,002
466,9	0,002
467,3	0,002
467,8	0,001
468,2	0,001
468,7	0,001
469,1	0
469,6	0
470	0
470,5	0
470,9	0
471,4	0
471,8	0
472,3	-0,001
472,7	-0,001
473,2	-0,001
473,6	-0,001
474,1	-0,001
474,5	-0,001
475	-0,001
475,4	-0,001
475,9	-0,001
476,4	-0,001
476,8	-0
477,3	0
477,7	0
478,2	0,001
478,6	0,001
479,1	0,001
479,5	0,001
480	0,001
480,4	0,001
480,9	0,001
481,3	0,001
481,8	0,001
482,2	0,001
482,7	0,001
483,1	-0
483,6	-0
484	-0
484,5	-0,001
484,9	-0,001
485,4	-0,002
485,8	-0,002
486,3	-0,002
486,7	-0,002
487,2	-0,002
487,6	-0,002
488,1	-0,002
488,5	-0,001
489	-0,001
489,4	-0,001
489,9	-0,001
490,4	-0,001
490,8	-0,001
491,3	-0,001
491,7	-0,001
492,2	-0,001
492,6	-0,001
493,1	-0,001
493,5	-0,001
494	-0,002
494,4	-0,002
494,9	-0,001
495,3	-0,001
495,8	-0
496,2	-0
496,7	0
497,1	0
497,6	0
498	0
498,5	-0
498,9	-0,001
499,4	-0,001
499,8	-0,001
500,3	-0,001
500,7	-0,001
501,2	-0,001
501,6	-0
502,1	-0
502,5	-0
503	-0,001
503,4	-0,001
503,9	-0,001
504,3	-0,001
504,8	-0,001
505,2	-0,001
505,7	-0,002
506,1	-0,001
506,6	-0
507	-0,001
507,5	-0,001
507,9	-0,001
508,4	-0,001
508,8	-0,001
509,3	-0,001
509,7	-0,002
510,2	-0,002
510,6	-0,002
511,1	-0,002
511,5	-0,002
512	-0,002
512,4	-0,002
512,9	-0,002
513,3	-0,001
513,8	-0,001
514,2	-0,001
514,7	-0
515,1	-0
515,6	0
516	0,001
516,5	0,001
516,9	0
517,4	0
517,8	-0
518,3	0
518,7	0
519,2	0
519,6	-0
520,1	-0
520,5	-0
521	0
521,4	0
521,9	-0
522,3	-0,001
522,8	-0
523,2	-0
523,7	-0,001
524,1	-0,001
524,6	-0,001
525	-0,001
525,5	-0,001
525,9	-0,001
526,4	-0,001
526,8	-0,002
527,3	-0,003
527,7	-0,003
528,2	-0,002
528,6	-0,002
529,1	-0,002
529,5	-0,002
530	-0,001
530,4	-0,001
530,9	-0
531,3	-0
531,8	-0
532,2	-0
532,6	-0
533,1	-0
533,5	-0
534	-0,002
534,4	-0,002
534,9	-0,002
535,3	-0,002
535,8	-0,002
536,2	-0,001
536,7	-0,001
537,1	-0
537,6	-0
538	-0
538,5	0
538,9	0
539,4	-0,001
539,8	-0,001
540,3	-0,001
540,7	-0,001
541,2	-0,001
541,6	-0,001
542,1	-0,002
542,5	-0,002
543	-0,001
543,4	-0,001
543,9	-0,001
544,3	-0,001
544,8	-0,001
545,2	-0
545,7	-0
546,1	-0
546,5	-0
547	-0,001
547,4	-0,001
547,9	-0,002
548,3	-0,001
548,8	-0,002
549,2	-0,001
549,7	-0,001
550,1	-0,001
550,6	-0,001
551	0
551,5	0
551,9	-0
552,4	-0
552,8	-0,001
553,3	-0,001
553,7	-0,002
554,2	-0,002
554,6	-0,002
555,1	-0,002
555,5	-0,002
555,9	-0,001
556,4	-0,001
556,8	-0,001
557,3	-0,001
557,7	-0,002
558,2	-0,001
558,6	-0,001
559,1	-0,001
559,5	-0
560	-0
560,4	-0
560,9	0
561,3	-0
561,8	-0
562,2	-0,001
562,7	-0,001
563,1	-0,001
563,6	-0
564	-0,001
564,4	-0,001
564,9	-0,001
565,3	-0,001
565,8	-0,001
566,2	-0,001
566,7	-0,001
567,1	-0
567,6	-0,001
568	-0,001
568,5	-0,001
568,9	-0,001
569,4	-0,001
569,8	-0,001
570,3	-0,001
570,7	-0,002
571,1	-0,001
571,6	-0,001
572	-0,001
572,5	-0,001
572,9	-0,001
573,4	-0,001
573,8	-0,001
574,3	-0,001
574,7	-0,001
575,2	-0,001
575,6	-0,001
576,1	-0,002
576,5	-0,001
576,9	-0,001
577,4	-0,001
577,8	-0,001
578,3	-0,001
578,7	-0,001
579,2	-0,001
579,6	-0,001
580,1	-0
580,5	-0
581	-0,001
581,4	-0
581,9	-0
582,3	-0
582,7	-0
583,2	-0
583,6	-0
584,1	-0
584,5	-0
585	-0
585,4	-0,001
585,9	-0,001
586,3	-0,001
586,8	-0,001
587,2	-0,001
587,6	-0,001
588,1	-0
588,5	-0
589	-0
589,4	0
589,9	0
590,3	0
590,8	-0
591,2	-0
591,7	0
592,1	-0
592,5	0
593	-0
593,4	0
593,9	0,001
594,3	0
594,8	0
595,2	0
595,7	-0
596,1	-0
596,6	-0
597	-0
597,4	-0
597,9	0
598,3	0
598,8	0,001
599,2	0
599,7	-0
600,1	-0,001
600,6	-0,001
601	-0,001
601,4	-0,001
601,9	-0,001
602,3	-0,001
602,8	-0,001
603,2	-0,001
603,7	-0
604,1	-0
604,6	-0
605	-0
605,4	0
605,9	-0
606,3	0
606,8	-0
607,2	-0
607,7	-0
608,1	-0
608,6	-0
609	-0
609,4	-0
609,9	-0
610,3	-0,001
610,8	-0,001
611,2	-0,001
611,7	-0,001
612,1	-0,001
612,6	-0
613	-0
613,4	-0
613,9	0
614,3	0
614,8	0
615,2	-0
615,7	-0,001
616,1	-0,001
616,6	-0,001
617	-0,001
617,4	-0,001
617,9	-0,001
618,3	-0
618,8	-0
619,2	-0
619,7	-0,001
620,1	-0,001
620,5	-0,001
621	-0,001
621,4	-0,001
621,9	-0,001
622,3	-0,001
622,8	-0,001
623,2	-0,001
623,6	-0
624,1	-0,001
624,5	-0
625	-0
625,4	-0
625,9	-0,001
626,3	-0,001
626,8	-0,001
627,2	-0,001
627,6	-0,001
628,1	-0,001
628,5	-0,001
629	-0,001
629,4	-0
629,9	-0
630,3	0
630,7	0
631,2	0
631,6	0,001
632,1	0,001
632,5	0,001
633	0
633,4	-0
633,8	-0,001
634,3	-0,001
634,7	-0,001
635,2	-0,001
635,6	-0,001
636,1	-0,001
636,5	-0
636,9	0
637,4	0
637,8	-0
638,3	0
638,7	0
639,2	0
639,6	0
640	-0
640,5	-0
640,9	-0
641,4	-0,001
641,8	-0,001
642,2	-0,001
642,7	-0,001
643,1	-0,001
643,6	-0,001
644	-0
644,5	-0
644,9	-0
645,3	-0
645,8	-0,001
646,2	-0,001
646,7	-0,001
647,1	-0,002
647,6	-0,001
648	-0,001
648,4	-0,001
648,9	-0
649,3	0
649,8	0
650,2	0
650,6	-0
651,1	-0
651,5	-0,001
652	-0,001
652,4	-0,001
652,9	-0,001
653,3	-0,001
653,7	-0,001
654,2	-0,001
654,6	-0,001
655,1	-0,003
655,5	-0,002
655,9	-0,001
656,4	-0,001
656,8	0
657,3	0,001
657,7	0,001
658,2	0,002
658,6	0,002
659	0,003
659,5	0,004
659,9	0,002
660,4	0,001
660,8	0,001
661,2	0
661,7	0
662,1	-0
662,6	0
663	0
663,4	0
663,9	-0
664,3	-0
664,8	0
665,2	0
665,6	0
666,1	-0
666,5	0
667	0
667,4	-0
667,9	-0
668,3	-0
668,7	-0,001
669,2	-0
669,6	-0
670,1	-0,001
670,5	-0
670,9	-0
671,4	-0
671,8	-0
672,3	-0
672,7	-0,001
673,1	-0
673,6	-0,001
674	-0,001
674,5	-0,001
674,9	-0,001
675,3	-0
675,8	-0
676,2	-0
676,7	0
677,1	0
677,5	0,001
678	0
678,4	0
678,9	-0
679,3	-0
679,7	-0,001
680,2	-0,001
680,6	-0,001
681,1	-0,001
681,5	-0,001
681,9	-0
682,4	-0
682,8	-0
683,3	-0
683,7	-0
684,1	-0,001
684,6	-0
685	-0,001
685,5	-0
685,9	-0
686,3	-0
686,8	-0
687,2	0
687,7	0
688,1	0
688,5	0
689	-0
689,4	-0
689,9	-0
690,3	-0
690,7	-0,001
691,2	-0,001
691,6	-0,001
692	-0,001
692,5	-0
692,9	-0
693,4	-0,001
693,8	0
694,2	0
694,7	0
695,1	0
695,6	0
696	0
696,4	0
696,9	0
697,3	0
697,8	-0
698,2	-0
698,6	-0
699,1	-0
699,5	-0
699,9	-0,001
700,4	-0
700,8	-0
701,3	-0
701,7	0
702,1	0
702,6	0
703	0,001
703,5	0
703,9	0
704,3	0
704,8	0
705,2	-0
705,6	0
706,1	0
706,5	0
707	0
707,4	0
707,8	0
708,3	0
708,7	0
709,2	0
709,6	0
710	0,001
710,5	0,001
710,9	0
711,3	0,001
711,8	0,001
712,2	0,001
712,7	0,001
713,1	0
713,5	0
714	-0
714,4	-0
714,8	-0
715,3	-0,001
715,7	-0,001
716,2	-0,001
716,6	-0,001
717	-0,001
717,5	-0,001
717,9	-0,001
718,3	-0,001
718,8	-0
719,2	-0
719,7	0
720,1	0
720,5	0
721	0
721,4	0
721,8	0
722,3	-0
722,7	-0
723,2	-0
723,6	-0
724	-0
724,5	-0
724,9	-0
725,3	-0
725,8	-0
726,2	-0,001
726,7	-0
727,1	-0
727,5	-0
728	-0
728,4	-0,001
728,8	-0
729,3	-0
729,7	-0
730,1	-0
730,6	0
731	-0
731,5	0
731,9	-0
732,3	-0
732,8	-0
733,2	-0
733,6	-0
734,1	-0
734,5	-0
734,9	-0
735,4	-0
735,8	-0
736,3	-0
736,7	0
737,1	0
737,6	-0
738	-0
738,4	-0
738,9	-0
739,3	-0,001
739,7	-0,001
740,2	-0,001
740,6	-0,001
741,1	-0,001
741,5	-0,001
741,9	-0,001
742,4	-0,001
742,8	-0,001
743,2	-0,001
743,7	-0,001
744,1	-0,001
744,5	-0
745	-0
745,4	0
745,8	0
746,3	0
746,7	0
747,2	0
747,6	0
748	0
748,5	-0
748,9	-0
749,3	0
749,8	0
750,2	0
750,6	0
751,1	0
751,5	0
751,9	0,001
752,4	0
752,8	0
753,3	0
753,7	-0
754,1	-0
754,6	-0
755	-0
755,4	0
755,9	0
756,3	0
756,7	0
757,2	0,001
757,6	0,001
758	0,001
758,5	0,001
758,9	0,001
759,3	0,001
759,8	0,001
760,2	0,001
760,6	0
761,1	0,001
761,5	0,001
761,9	0
762,4	0,001
762,8	0,001
763,3	0
763,7	0
764,1	0
764,6	0
765	-0
765,4	-0
765,9	0
766,3	0
766,7	0
767,2	0
767,6	0
768	0
768,5	0
768,9	0
769,3	0,001
769,8	0,001
770,2	0,001
770,6	0,001
771,1	0
771,5	0
771,9	0
772,4	-0
772,8	-0
773,2	-0
773,7	0
774,1	0
774,5	0,001
775	0,001
775,4	0,001
775,8	0,001
776,3	0,001
776,7	0,001
777,1	0,001
777,6	0,001
778	0
778,4	0
778,9	-0
779,3	0
779,7	0,001
780,2	0
780,6	0,001
781	0,001
781,5	0
781,9	0,001
782,3	0
782,8	-0
783,2	0
783,6	-0
784,1	0
784,5	0
784,9	0
785,4	0
785,8	0
786,2	0
786,7	0
787,1	0
787,5	0
788	0
788,4	0
788,8	0
789,3	0
789,7	0
790,1	0,001
790,6	0,001
791	0,001
791,4	0,001
791,9	0,001
792,3	0,001
792,7	0
793,2	-0
793,6	-0
794	-0
794,5	0
794,9	0
795,3	0,001
795,8	0,001
796,2	0,001
796,6	0
797,1	-0
797,5	0
797,9	0
798,4	-0
798,8	0
799,2	0
799,7	0,001
800,1	0,001
800,5	0,001
801	0,001
801,4	0,001
801,8	0,001
802,2	0,001
802,7	0,001
803,1	0,001
803,5	0,001
804	0,001
804,4	0,001
804,8	0,001
805,3	0,001
805,7	0,001
806,1	0,001
806,6	0,001
807	0,001
807,4	0,001
807,9	0,001
808,3	0
808,7	0,001
809,2	0
809,6	0
810	-0
810,4	-0
810,9	-0
811,3	-0
811,7	-0
812,2	0
812,6	0
813	0
813,5	0
813,9	-0
814,3	0
814,8	0,001
815,2	0
815,6	0
816,1	0
816,5	0
816,9	0
817,3	-0
817,8	-0
818,2	-0
818,6	-0
819,1	-0
819,5	-0
819,9	-0
820,4	-0
820,8	-0
821,2	-0
821,7	-0
822,1	-0
822,5	0
822,9	0
823,4	0
823,8	0,001
824,2	0,001
824,7	0,001
825,1	0,001
825,5	0,001
826	0
826,4	0
826,8	-0
827,3	-0
827,7	-0
828,1	-0
828,5	-0,001
829	-0
829,4	-0
829,8	-0
830,3	-0
830,7	-0
831,1	-0
831,6	-0
832	-0
832,4	-0
832,8	-0
833,3	-0
833,7	0
834,1	0
834,6	-0
835	0
835,4	0
835,8	0
836,3	0
836,7	0
837,1	0
837,6	0
838	0
838,4	0
838,9	0
839,3	0,001
839,7	0,001
840,1	0
840,6	0
841	0
841,4	0
841,9	0
842,3	-0
842,7	0
843,1	0
843,6	0
844	-0
844,4	-0
844,9	0
845,3	0
845,7	0
846,2	0
846,6	0
847	0
847,4	0
847,9	-0
848,3	-0
848,7	-0
849,2	0
849,6	0
850	0
850,4	0
850,9	0
851,3	0
851,7	0
852,2	0
852,6	0
853	0
853,4	0
853,9	0
854,3	0,001
854,7	0,001
855,2	0,001
855,6	0,001
856	0,001
856,4	0,001
856,9	0,001
857,3	0,001
857,7	0
858,2	0
858,6	0
859	0
859,4	-0
859,9	0
860,3	0
860,7	0
861,1	0,001
861,6	0,001
862	0
862,4	0
862,9	0
863,3	-0
863,7	-0
864,1	-0
864,6	-0
865	-0
865,4	-0
865,9	-0
866,3	0
866,7	0
867,1	0,001
867,6	0,001
868	0,001
868,4	0
868,8	0,001
869,3	0,001
869,7	0
870,1	0
870,6	0
871	0
871,4	0
871,8	0
872,3	0,001
872,7	0
873,1	0,001
873,5	0,001
874	0,001
874,4	0,001
874,8	0
875,3	0
875,7	0,001
876,1	0
876,5	0,001
877	0,001
877,4	0,001
877,8	0,001
878,2	0,001
878,7	0,001
879,1	0,001
879,5	0,001
879,9	0,001
880,4	0,002
880,8	0,002
881,2	0,001
881,7	0,001
882,1	0,001
882,5	0,001
882,9	0,001
883,4	0,001
883,8	0,001
884,2	0,001
884,6	0,001
885,1	0
885,5	0
885,9	0
886,3	0
886,8	0
887,2	0
887,6	0
888	0
888,5	0
888,9	0
889,3	0
889,8	0,001
890,2	0,001
890,6	0
891	0,001
891,5	0,001
891,9	0,001
892,3	0,001
892,7	0,001
893,2	0
893,6	0,001
894	0
894,4	0
894,9	-0
895,3	-0
895,7	0
896,1	0
896,6	0,001
897	0,001
897,4	0
897,8	0
898,3	0
898,7	0
899,1	0
899,5	0
900	0
900,4	0
900,8	0
901,2	0
901,7	0,001
902,1	0,001
902,5	0
902,9	0
903,4	0
903,8	-0
904,2	-0
904,6	-0
905,1	-0
905,5	-0
905,9	-0
906,3	0
906,8	0
907,2	-0
907,6	-0
908	-0
908,5	0
908,9	0
909,3	-0
909,7	0
910,2	0
910,6	0,001
911	0,001
911,4	0,001
911,9	0,001
912,3	0,001
912,7	0,001
913,1	0,001
913,6	0,001
914	0
914,4	-0
914,8	0
915,3	-0,001
915,7	-0,001
916,1	-0,001
916,5	-0,001
916,9	-0,001
917,4	-0
917,8	-0
918,2	0
918,6	-0
919,1	-0
919,5	-0
919,9	0
920,3	0
920,8	0
921,2	0
921,6	0
922	0
922,5	0
922,9	0
923,3	-0
923,7	-0
924,2	-0
924,6	0
925	0,001
925,4	0,001
925,8	0,001
926,3	0,001
926,7	0,001
927,1	0,001
927,5	0,001
928	0
928,4	0
928,8	0
929,2	0,001
929,7	0,001
930,1	0,001
930,5	0
930,9	0
931,3	0
931,8	0,001
932,2	0
932,6	0
933	0
933,5	0,001
933,9	0,001
934,3	0,001
934,7	0,002
935,2	0,002
935,6	0,001
936	0,002
936,4	0,001
936,8	0,002
937,3	0,001
937,7	0,001
938,1	0,001
938,5	0,001
939	0,001
939,4	0,001
939,8	0,001
940,2	0,001
940,6	0,001
941,1	0
941,5	0
941,9	0
942,3	0
942,8	0
943,2	0,001
943,6	0,001
944	0,001
944,4	0,001
944,9	0,001
945,3	0,001
945,7	0,001
946,1	0,001
946,6	0,001
947	0,001
947,4	0,001
947,8	0
948,2	0
948,7	0
949,1	0
949,5	0
949,9	-0
950,3	0,001
950,8	0,001
951,2	0,001
951,6	0,001
952	0,001
952,5	0,002
952,9	0,001
953,3	0,001
953,7	0,001
954,1	0
954,6	-0
955	-0
955,4	-0,001
955,8	-0
956,2	0
956,7	-0,001
957,1	-0
957,5	-0,001
957,9	-0
958,3	-0,001
958,8	-0,001
959,2	-0
959,6	-0
960	0
960,5	0
960,9	0
961,3	0,001
961,7	0
962,1	0
962,6	0
963	-0
963,4	0
963,8	0
964,2	0
964,7	0
965,1	0
965,5	0,001
965,9	0
966,3	0
966,8	0
967,2	0
967,6	0
968	0
968,4	0
968,9	0,001
969,3	0,001
969,7	0
970,1	0,001
970,5	0,001
971	0
971,4	0
971,8	0
972,2	0
972,6	0,001
973,1	0,001
973,5	0,001
973,9	0,001
974,3	0,001
974,7	0,001
975,2	0
975,6	0
976	-0
976,4	0
976,8	0
977,3	0,001
977,7	0,001
978,1	0,001
978,5	0,001
978,9	0,001
979,4	0,001
979,8	0,001
980,2	0,001
980,6	0,001
981	0,001
981,5	0,002
981,9	0,002
982,3	0,002
982,7	0,001
983,1	0,001
983,6	0,002
984	0,002
984,4	0,002
984,8	0,001
985,2	0,002
985,6	0,002
986,1	0,002
986,5	0,001
986,9	0,001
987,3	0,001
987,7	0,001
988,2	0,001
988,6	0,002
989	0,002
989,4	0,002
989,8	0,001
990,3	0,002
990,7	0,002
991,1	0,001
991,5	0,001
991,9	0,001
992,3	0
992,8	0
993,2	-0
993,6	-0
994	0
994,4	0,001
994,9	0
995,3	0,001
995,7	0,001
996,1	0,001
996,5	0,001
996,9	0
997,4	0
997,8	0,001
998,2	0,001
998,6	-0
999	0
999,5	0
999,9	0
1000,3	0,001
1000,7	0
1001,1	0
1001,5	0,001
1002	0,001
1002,4	0,001
1002,8	0,001
1003,2	0,001
1003,6	0
1004	0
1004,5	0
1004,9	0,001
1005,3	0
1005,7	0
1006,1	-0
1006,6	0,001
1007	0
1007,4	0,001
1007,8	0
1008,2	0,001
1008,6	0
1009,1	0,001
1009,5	0
1009,9	0
1010,3	-0
1010,7	-0
1011,1	-0,001
1011,6	0
1012	0
1012,4	0
1012,8	0,001
1013,2	0,001
1013,6	0,001
1014,1	0,001
1014,5	0
1014,9	0
1015,3	-0
1015,7	-0,001
1016,1	-0
1016,6	-0,001
1017	-0
1017,4	-0,001
1017,8	-0
1018,2	-0,001
1018,6	-0,001
1019,1	-0,001
1019,5	-0,001
1019,9	-0,001
1020,3	-0,002
1020,7	-0,002
1021,1	-0,001
1021,6	-0,001
1022	-0,001
1022,4	-0,001
1022,8	-0,002
1023,2	-0,001
1023,6	-0,001
1024,1	-0,001
1024,5	-0,001
1024,9	-0,001
1025,3	-0
1025,7	-0
1026,1	0
1026,6	0
1027	0
1027,4	-0
1027,8	-0
1028,2	-0,001
1028,6	-0,001
1029	-0,001
1029,5	-0,001
1029,9	-0,001
1030,3	-0,002
1030,7	-0,002
1031,1	-0,002
1031,5	-0,001
1032	-0,001
1032,4	-0,001
1032,8	-0
1033,2	0,001
1033,6	0
1034	0
1034,4	0,001
1034,9	0,001
1035,3	0,001
1035,7	0
1036,1	-0
1036,5	-0
1036,9	0
1037,4	-0
1037,8	-0
1038,2	0
1038,6	0,001
1039	0,001
1039,4	0,002
1039,8	0,002
1040,3	0,002
1040,7	0,001
1041,1	0,001
1041,5	0
1041,9	-0
1042,3	-0,001
1042,7	-0,001
1043,2	-0,001
1043,6	-0,001
1044	-0
1044,4	-0
1044,8	-0
1045,2	-0
1045,6	0,001
1046,1	0,001
1046,5	0,001
1046,9	0,001
1047,3	0,001
1047,7	0
1048,1	-0,001
1048,5	-0,001
1049	-0,001
1049,4	-0
1049,8	-0,001
1050,2	-0,002
1050,6	-0,001
1051	-0,001
1051,4	-0
1051,9	-0
1052,3	-0
1052,7	0
1053,1	0,001
1053,5	0,001
1053,9	0,001
1054,3	-0,001
1054,8	-0,002
1055,2	-0,002
1055,6	-0,003
1056	-0,003
1056,4	-0,004
1056,8	-0,003
1057,2	-0,003
1057,6	-0,002
1058,1	-0,001
1058,5	0
1058,9	0
1059,3	0,001
1059,7	0
1060,1	0,001
1060,5	0,001
1061	-0,001
1061,4	-0,001
1061,8	-0
1062,2	-0,002
1062,6	0
1063	0
1063,4	0
1063,8	0
1064,3	-0
1064,7	-0,001
1065,1	-0
1065,5	-0,001
1065,9	-0,001
1066,3	-0,001
1066,7	-0
1067,1	-0
1067,6	0,001
1068	0,001
1068,4	-0
1068,8	0
1069,2	-0
1069,6	0
1070	-0
1070,4	-0
1070,9	-0
1071,3	-0,001
1071,7	-0,001
1072,1	-0,001
1072,5	-0
1072,9	-0
1073,3	-0
1073,7	-0,001
1074,2	-0,001
1074,6	-0,001
1075	0,001
1075,4	-0,001
1075,8	-0
1076,2	-0,001
1076,6	-0,001
1077	0,001
1077,5	0,001
1077,9	-0,001
1078,3	0
1078,7	-0,001
1079,1	-0,001
1079,5	-0
1079,9	-0,002
1080,3	-0,002
1080,7	-0,001
1081,2	-0,001
1081,6	-0
1082	-0,001
1082,4	-0,001
1082,8	-0,002
1083,2	-0,001
1083,6	-0,003
1084	-0,003
1084,5	-0,004
1084,9	-0,003
1085,3	-0,006
1085,7	-0,005
1086,1	-0,006
1086,5	-0,005
1086,9	-0,007
1087,3	-0,008
1087,7	-0,007
1088,2	-0,004
1088,6	-0,002
1089	-0,001
1089,4	-0,002
1089,8	-0,001
1090,2	-0,001
1090,6	-0,001
1091	0
1091,4	0
1091,9	-0,005
1092,3	-0,004
1092,7	-0,004
1093,1	-0,003
1093,5	-0,003
1093,9	-0,002
1094,3	-0,008
1094,7	-0,003
1095,1	-0,002
1095,5	-0,005
1096	-0,009
1096,4	-0,011
1096,8	-0,015
1097,2	-0,014
1097,6	-0,02
1098	-0,023
1098,4	-0,014
1098,8	-0,009
1099,2	-0,005
1099,6	0,005
1100,1	0,01
1100,5	0,017
1100,9	0,024
1101,3	0,026
1101,7	0,028
1102,1	0,026
1102,5	0,015
1102,9	0,012
1103,3	0,013
1103,7	0,007
1104,2	0,001
1104,6	0,006
1105	0,016
1105,4	0,016
1105,8	0,022
1106,2	0,024
1106,6	0,033
1107	0,033
1107,4	0,013
1107,8	0,004
1108,3	0,426
