Data from Absorbance_00013.txt Node
Date: Wed Aug 02 17:40:48 MSK 2023
User: vat
Spectrometer: MAYP114033
Trigger mode: 0
Integration Time (sec): 8,000000E-3
Scans to average: 10
Electric dark correction enabled: true
Nonlinearity correction enabled: false
Boxcar width: 3
XAxis mode: Wavelengths
Number of Pixels in Spectrum: 2068
>>>>>Begin Spectral Data<<<<<
199,4	-0
199,9	0,165
200,4	0,487
200,8	0,689
201,3	0,823
201,8	0,926
202,2	0,947
202,7	0,955
203,2	0,968
203,6	1
204,1	1,047
204,6	1,047
205	1,06
205,5	1,07
206	1,086
206,4	1,109
206,9	1,128
207,4	1,122
207,8	1,135
208,3	1,143
208,8	1,152
209,2	1,162
209,7	1,196
210,2	1,18
210,6	1,2
211,1	1,216
211,5	1,219
212	1,236
212,5	1,27
212,9	1,27
213,4	1,291
213,9	1,306
214,3	1,348
214,8	1,36
215,3	1,386
215,7	1,39
216,2	1,41
216,7	1,454
217,1	1,47
217,6	1,494
218,1	1,522
218,5	1,54
219	1,542
219,5	1,572
219,9	1,572
220,4	1,588
220,9	1,586
221,3	1,593
221,8	1,597
222,3	1,631
222,7	1,617
223,2	1,636
223,6	1,658
224,1	1,661
224,6	1,669
225	1,686
225,5	1,68
226	1,695
226,4	1,683
226,9	1,689
227,4	1,7
227,8	1,719
228,3	1,726
228,8	1,74
229,2	1,736
229,7	1,768
230,2	1,783
230,6	1,8
231,1	1,81
231,5	1,806
232	1,831
232,5	1,856
232,9	1,843
233,4	1,829
233,9	1,847
234,3	1,864
234,8	1,9
235,3	1,906
235,7	1,931
236,2	1,976
236,7	2,016
237,1	2,003
237,6	1,99
238,1	1,977
238,5	1,968
239	1,966
239,4	1,963
239,9	1,958
240,4	1,981
240,8	1,994
241,3	2,014
241,8	2,013
242,2	2,004
242,7	1,997
243,2	2,022
243,6	2,017
244,1	2,024
244,6	2,053
245	2,075
245,5	2,109
245,9	2,127
246,4	2,141
246,9	2,151
247,3	2,151
247,8	2,129
248,3	2,12
248,7	2,107
249,2	2,101
249,7	2,092
250,1	2,099
250,6	2,093
251	2,085
251,5	2,084
252	2,102
252,4	2,098
252,9	2,083
253,4	2,084
253,8	2,094
254,3	2,094
254,8	2,114
255,2	2,108
255,7	2,117
256,1	2,107
256,6	2,093
257,1	2,105
257,5	2,122
258	2,124
258,5	2,121
258,9	2,12
259,4	2,144
259,9	2,14
260,3	2,118
260,8	2,101
261,2	2,116
261,7	2,133
262,2	2,135
262,6	2,13
263,1	2,147
263,6	2,151
264	2,177
264,5	2,16
264,9	2,15
265,4	2,16
265,9	2,179
266,3	2,177
266,8	2,214
267,3	2,191
267,7	2,162
268,2	2,166
268,7	2,156
269,1	2,128
269,6	2,11
270	2,088
270,5	2,114
271	2,129
271,4	2,101
271,9	2,092
272,4	2,107
272,8	2,118
273,3	2,104
273,7	2,093
274,2	2,091
274,7	2,091
275,1	2,077
275,6	2,05
276,1	2,024
276,5	2,013
277	1,975
277,4	1,934
277,9	1,907
278,4	1,874
278,8	1,829
279,3	1,785
279,8	1,729
280,2	1,663
280,7	1,603
281,1	1,531
281,6	1,461
282,1	1,387
282,5	1,319
283	1,25
283,4	1,185
283,9	1,123
284,4	1,068
284,8	1,017
285,3	0,973
285,8	0,931
286,2	0,893
286,7	0,859
287,1	0,829
287,6	0,802
288,1	0,779
288,5	0,759
289	0,741
289,5	0,726
289,9	0,714
290,4	0,703
290,8	0,695
291,3	0,687
291,8	0,68
292,2	0,674
292,7	0,67
293,1	0,666
293,6	0,662
294,1	0,659
294,5	0,656
295	0,653
295,5	0,65
295,9	0,646
296,4	0,643
296,8	0,64
297,3	0,638
297,8	0,635
298,2	0,632
298,7	0,629
299,1	0,627
299,6	0,625
300,1	0,623
300,5	0,621
301	0,617
301,5	0,615
301,9	0,612
302,4	0,608
302,8	0,605
303,3	0,602
303,8	0,597
304,2	0,595
304,7	0,591
305,1	0,588
305,6	0,585
306,1	0,581
306,5	0,578
307	0,575
307,4	0,57
307,9	0,566
308,4	0,563
308,8	0,559
309,3	0,554
309,8	0,55
310,2	0,546
310,7	0,541
311,1	0,536
311,6	0,531
312,1	0,527
312,5	0,523
313	0,517
313,4	0,512
313,9	0,508
314,4	0,503
314,8	0,499
315,3	0,495
315,7	0,49
316,2	0,485
316,7	0,479
317,1	0,474
317,6	0,469
318	0,464
318,5	0,458
319	0,453
319,4	0,448
319,9	0,444
320,3	0,439
320,8	0,433
321,3	0,427
321,7	0,422
322,2	0,417
322,6	0,412
323,1	0,408
323,6	0,403
324	0,399
324,5	0,395
324,9	0,391
325,4	0,386
325,9	0,382
326,3	0,376
326,8	0,372
327,2	0,367
327,7	0,362
328,2	0,357
328,6	0,352
329,1	0,345
329,5	0,341
330	0,335
330,5	0,33
330,9	0,324
331,4	0,32
331,8	0,315
332,3	0,311
332,8	0,306
333,2	0,303
333,7	0,3
334,1	0,296
334,6	0,292
335,1	0,288
335,5	0,284
336	0,28
336,4	0,275
336,9	0,269
337,4	0,265
337,8	0,26
338,3	0,256
338,7	0,251
339,2	0,247
339,7	0,243
340,1	0,239
340,6	0,234
341	0,23
341,5	0,225
342	0,221
342,4	0,217
342,9	0,214
343,3	0,209
343,8	0,206
344,2	0,203
344,7	0,2
345,2	0,197
345,6	0,194
346,1	0,191
346,5	0,188
347	0,185
347,5	0,182
347,9	0,178
348,4	0,175
348,8	0,173
349,3	0,17
349,8	0,167
350,2	0,164
350,7	0,161
351,1	0,159
351,6	0,155
352	0,152
352,5	0,149
353	0,146
353,4	0,143
353,9	0,142
354,3	0,139
354,8	0,137
355,3	0,135
355,7	0,133
356,2	0,131
356,6	0,129
357,1	0,126
357,5	0,124
358	0,122
358,5	0,12
358,9	0,118
359,4	0,116
359,8	0,114
360,3	0,112
360,8	0,11
361,2	0,108
361,7	0,106
362,1	0,104
362,6	0,101
363	0,099
363,5	0,098
364	0,095
364,4	0,093
364,9	0,092
365,3	0,091
365,8	0,09
366,3	0,088
366,7	0,087
367,2	0,087
367,6	0,086
368,1	0,084
368,5	0,082
369	0,082
369,5	0,081
369,9	0,079
370,4	0,078
370,8	0,076
371,3	0,076
371,7	0,075
372,2	0,073
372,7	0,072
373,1	0,07
373,6	0,068
374	0,067
374,5	0,065
374,9	0,064
375,4	0,063
375,9	0,062
376,3	0,062
376,8	0,061
377,2	0,061
377,7	0,06
378,2	0,059
378,6	0,058
379,1	0,057
379,5	0,056
380	0,055
380,4	0,054
380,9	0,053
381,4	0,052
381,8	0,051
382,3	0,05
382,7	0,049
383,2	0,049
383,6	0,048
384,1	0,047
384,6	0,046
385	0,046
385,5	0,045
385,9	0,045
386,4	0,045
386,8	0,044
387,3	0,043
387,7	0,042
388,2	0,042
388,7	0,042
389,1	0,04
389,6	0,039
390	0,038
390,5	0,038
390,9	0,037
391,4	0,036
391,9	0,036
392,3	0,036
392,8	0,035
393,2	0,035
393,7	0,034
394,1	0,034
394,6	0,033
395,1	0,032
395,5	0,032
396	0,033
396,4	0,032
396,9	0,031
397,3	0,031
397,8	0,031
398,2	0,03
398,7	0,029
399,2	0,028
399,6	0,028
400,1	0,028
400,5	0,027
401	0,026
401,4	0,026
401,9	0,025
402,4	0,025
402,8	0,024
403,3	0,023
403,7	0,022
404,2	0,022
404,6	0,022
405,1	0,022
405,5	0,022
406	0,021
406,5	0,021
406,9	0,021
407,4	0,021
407,8	0,02
408,3	0,02
408,7	0,019
409,2	0,018
409,6	0,018
410,1	0,018
410,6	0,017
411	0,018
411,5	0,017
411,9	0,017
412,4	0,017
412,8	0,016
413,3	0,016
413,7	0,016
414,2	0,015
414,7	0,016
415,1	0,015
415,6	0,015
416	0,015
416,5	0,014
416,9	0,014
417,4	0,013
417,8	0,013
418,3	0,012
418,8	0,012
419,2	0,012
419,7	0,012
420,1	0,011
420,6	0,011
421	0,01
421,5	0,011
421,9	0,01
422,4	0,009
422,8	0,009
423,3	0,009
423,8	0,009
424,2	0,009
424,7	0,009
425,1	0,008
425,6	0,009
426	0,008
426,5	0,008
426,9	0,008
427,4	0,008
427,9	0,007
428,3	0,007
428,8	0,007
429,2	0,007
429,7	0,006
430,1	0,007
430,6	0,007
431	0,007
431,5	0,007
431,9	0,007
432,4	0,006
432,8	0,007
433,3	0,007
433,8	0,006
434,2	0,006
434,7	0,007
435,1	0,006
435,6	0,006
436	0,005
436,5	0,005
436,9	0,005
437,4	0,005
437,8	0,005
438,3	0,005
438,8	0,005
439,2	0,005
439,7	0,004
440,1	0,004
440,6	0,004
441	0,004
441,5	0,004
441,9	0,005
442,4	0,004
442,8	0,004
443,3	0,004
443,7	0,004
444,2	0,003
444,7	0,003
445,1	0,002
445,6	0,002
446	0,002
446,5	0,002
446,9	0,002
447,4	0,002
447,8	0,002
448,3	0,002
448,7	0,002
449,2	0,002
449,6	0,002
450,1	0,002
450,6	0,003
451	0,003
451,5	0,003
451,9	0,002
452,4	0,002
452,8	0,003
453,3	0,002
453,7	0,002
454,2	0,001
454,6	0,001
455,1	0,002
455,5	0,001
456	0,001
456,4	0,002
456,9	0,002
457,3	0,002
457,8	0,002
458,3	0,002
458,7	0,002
459,2	0,002
459,6	0,001
460,1	0,001
460,5	0,001
461	0,001
461,4	0,001
461,9	0
462,3	-0
462,8	-0,001
463,2	-0,001
463,7	-0
464,1	0
464,6	0
465	0,001
465,5	0,001
466	0,002
466,4	0,002
466,9	0,002
467,3	0,001
467,8	0,001
468,2	0,001
468,7	0
469,1	0
469,6	0,001
470	0,001
470,5	0,001
470,9	0,001
471,4	0,001
471,8	0,002
472,3	0,001
472,7	0,001
473,2	0,001
473,6	0,001
474,1	0
474,5	0,001
475	0,001
475,4	0
475,9	0
476,4	0,001
476,8	0,001
477,3	0,002
477,7	0,001
478,2	0,002
478,6	0,002
479,1	0,002
479,5	0,001
480	0,001
480,4	0,001
480,9	0,001
481,3	0,001
481,8	0,001
482,2	0,001
482,7	0,002
483,1	0,001
483,6	0,001
484	0
484,5	-0
484,9	-0,001
485,4	-0,001
485,8	-0,002
486,3	-0,002
486,7	-0,001
487,2	-0,001
487,6	-0,001
488,1	-0,001
488,5	-0,001
489	-0,001
489,4	-0,001
489,9	-0,001
490,4	-0,001
490,8	-0
491,3	-0,001
491,7	-0,001
492,2	-0,001
492,6	-0,001
493,1	-0,001
493,5	-0,002
494	-0,002
494,4	-0,001
494,9	-0,001
495,3	-0,001
495,8	0
496,2	-0
496,7	-0,001
497,1	-0,001
497,6	-0,001
498	-0
498,5	-0
498,9	-0,001
499,4	-0
499,8	0
500,3	0
500,7	0
501,2	0,001
501,6	0
502,1	0,001
502,5	0,001
503	0
503,4	0,001
503,9	0,001
504,3	0
504,8	0,001
505,2	0
505,7	0
506,1	0,001
506,6	0,001
507	0,001
507,5	0,001
507,9	0
508,4	0
508,8	-0
509,3	-0,001
509,7	-0,001
510,2	-0,001
510,6	-0,001
511,1	-0,001
511,5	-0,001
512	-0,002
512,4	-0,002
512,9	-0,002
513,3	-0,002
513,8	-0,001
514,2	-0,001
514,7	-0,001
515,1	0,001
515,6	0,001
516	0,002
516,5	0,001
516,9	0,001
517,4	0,001
517,8	0,001
518,3	0
518,7	0
519,2	0,001
519,6	0
520,1	0,001
520,5	0
521	0,001
521,4	0,001
521,9	0,001
522,3	0
522,8	0
523,2	0
523,7	0
524,1	0
524,6	-0,001
525	-0
525,5	-0
525,9	0
526,4	-0
526,8	-0
527,3	-0
527,7	0
528,2	0
528,6	0
529,1	0
529,5	0
530	0,001
530,4	0,001
530,9	0,001
531,3	0
531,8	0,001
532,2	0,001
532,6	0,001
533,1	0
533,5	0,001
534	0,001
534,4	0,001
534,9	0
535,3	0
535,8	0
536,2	0,001
536,7	0,001
537,1	0,001
537,6	0,001
538	0,001
538,5	0,001
538,9	0,001
539,4	0
539,8	-0
540,3	0
540,7	0
541,2	-0
541,6	-0
542,1	-0
542,5	0
543	-0
543,4	0
543,9	0,001
544,3	0,001
544,8	0,001
545,2	0,001
545,7	0,001
546,1	0,001
546,5	0,001
547	0,001
547,4	0
547,9	0
548,3	0
548,8	0
549,2	0
549,7	0
550,1	0
550,6	0
551	0,001
551,5	0,001
551,9	0
552,4	0
552,8	0
553,3	-0,001
553,7	-0,001
554,2	-0,001
554,6	-0,001
555,1	-0,001
555,5	-0,001
555,9	-0,001
556,4	-0
556,8	-0
557,3	-0,001
557,7	-0,001
558,2	-0,001
558,6	-0
559,1	-0
559,5	-0
560	-0
560,4	0
560,9	0,001
561,3	0,001
561,8	0,001
562,2	0,001
562,7	0,001
563,1	0,002
563,6	0,001
564	0,001
564,4	0,001
564,9	0,002
565,3	0,002
565,8	0,002
566,2	0,001
566,7	0,001
567,1	0,001
567,6	0,001
568	0
568,5	0
568,9	0,001
569,4	0,001
569,8	0,001
570,3	0,001
570,7	0,001
571,1	0,001
571,6	0,001
572	0,001
572,5	0,001
572,9	0,001
573,4	0,001
573,8	0,001
574,3	0,001
574,7	0,001
575,2	0,001
575,6	0,001
576,1	0,001
576,5	0,001
576,9	0,001
577,4	0,001
577,8	0,001
578,3	0
578,7	0
579,2	0
579,6	0
580,1	0,001
580,5	0
581	0
581,4	0
581,9	0
582,3	0
582,7	0
583,2	0
583,6	0
584,1	0
584,5	0
585	0,001
585,4	0,001
585,9	0
586,3	0
586,8	0
587,2	0
587,6	0
588,1	0
588,5	0
589	0
589,4	0
589,9	0,001
590,3	0,001
590,8	0,001
591,2	0,001
591,7	0,001
592,1	0,001
592,5	0,001
593	0,001
593,4	0,001
593,9	0,001
594,3	0,001
594,8	0,001
595,2	0,001
595,7	0,001
596,1	0,001
596,6	0,001
597	0,001
597,4	0,001
597,9	0,001
598,3	0,001
598,8	0,001
599,2	0,001
599,7	0,001
600,1	0,001
600,6	0,001
601	0
601,4	0
601,9	0
602,3	0
602,8	0,001
603,2	0
603,7	0,001
604,1	0,001
604,6	0,001
605	0,001
605,4	0,001
605,9	0,001
606,3	0,001
606,8	0,001
607,2	0,001
607,7	0
608,1	0,001
608,6	0,001
609	0,001
609,4	0,001
609,9	0,001
610,3	0,001
610,8	0,001
611,2	0,001
611,7	0,001
612,1	0,001
612,6	0,001
613	0,001
613,4	0,001
613,9	0,001
614,3	0,001
614,8	0,001
615,2	0,001
615,7	0
616,1	0
616,6	0
617	0
617,4	0
617,9	0
618,3	0,001
618,8	0,001
619,2	0,001
619,7	0
620,1	0,001
620,5	0
621	0
621,4	-0
621,9	-0
622,3	0
622,8	0
623,2	0
623,6	0
624,1	0
624,5	0,001
625	0,001
625,4	0,001
625,9	0
626,3	0
626,8	0
627,2	0
627,6	0
628,1	0
628,5	-0
629	0
629,4	0,001
629,9	0,001
630,3	0,001
630,7	0,001
631,2	0,001
631,6	0,002
632,1	0,002
632,5	0,001
633	0,001
633,4	0,001
633,8	0,001
634,3	0,001
634,7	0
635,2	0
635,6	0
636,1	0
636,5	0,001
636,9	0,001
637,4	0,001
637,8	0,001
638,3	0,001
638,7	0,001
639,2	0,002
639,6	0,001
640	0,002
640,5	0,002
640,9	0,002
641,4	0,002
641,8	0,002
642,2	0,001
642,7	0,001
643,1	0,001
643,6	0,001
644	0,001
644,5	0,001
644,9	0,001
645,3	0,002
645,8	0,001
646,2	0,001
646,7	0,001
647,1	0,001
647,6	0,001
648	0,001
648,4	0,001
648,9	0,001
649,3	0,001
649,8	0,001
650,2	0,002
650,6	0,002
651,1	0,001
651,5	0,001
652	0,001
652,4	0,002
652,9	0,002
653,3	0,002
653,7	0,002
654,2	0,002
654,6	0,002
655,1	0,001
655,5	0,001
655,9	0
656,4	0
656,8	0,001
657,3	0,001
657,7	0,001
658,2	0,001
658,6	0,001
659	0,002
659,5	0,003
659,9	0,002
660,4	0,002
660,8	0,002
661,2	0,002
661,7	0,001
662,1	0,001
662,6	0,002
663	0,002
663,4	0,001
663,9	0,001
664,3	0,001
664,8	0,001
665,2	0,002
665,6	0,002
666,1	0,001
666,5	0,002
667	0,002
667,4	0,002
667,9	0,002
668,3	0,001
668,7	0,001
669,2	0,002
669,6	0,001
670,1	0,002
670,5	0,001
670,9	0,001
671,4	0,002
671,8	0,001
672,3	0,001
672,7	0,001
673,1	0,001
673,6	0,001
674	0,001
674,5	0,001
674,9	0,001
675,3	0,001
675,8	0,001
676,2	0,001
676,7	0,001
677,1	0,001
677,5	0,001
678	0,001
678,4	0,001
678,9	0,001
679,3	0,001
679,7	0,001
680,2	0
680,6	0,001
681,1	0
681,5	0
681,9	0
682,4	0
682,8	0,001
683,3	0,001
683,7	0,001
684,1	0,001
684,6	0,001
685	0,001
685,5	0,001
685,9	0,001
686,3	0,001
686,8	0,001
687,2	0,001
687,7	0,001
688,1	0,001
688,5	0,001
689	0,001
689,4	0
689,9	0
690,3	0
690,7	0,001
691,2	0,001
691,6	0,001
692	0,001
692,5	0,001
692,9	0,002
693,4	0,001
693,8	0,001
694,2	0,002
694,7	0,001
695,1	0,001
695,6	0,002
696	0,001
696,4	0,002
696,9	0,002
697,3	0,001
697,8	0,001
698,2	0,001
698,6	0,001
699,1	0,001
699,5	0,001
699,9	0
700,4	0,001
700,8	0,001
701,3	0,001
701,7	0,001
702,1	0,001
702,6	0,001
703	0,001
703,5	0,001
703,9	0,001
704,3	0,001
704,8	0,001
705,2	0,001
705,6	0,001
706,1	0,001
706,5	0,001
707	0,001
707,4	0,001
707,8	0,001
708,3	0,001
708,7	0,001
709,2	0,001
709,6	0,001
710	0,002
710,5	0,002
710,9	0,002
711,3	0,002
711,8	0,002
712,2	0,002
712,7	0,002
713,1	0,001
713,5	0,001
714	0,001
714,4	0,001
714,8	0,001
715,3	0,001
715,7	0,001
716,2	0,002
716,6	0,001
717	0,001
717,5	0,002
717,9	0,001
718,3	0,001
718,8	0,001
719,2	0,001
719,7	0,001
720,1	0,001
720,5	0,001
721	0,001
721,4	0,002
721,8	0,002
722,3	0,002
722,7	0,002
723,2	0,002
723,6	0,002
724	0,002
724,5	0,002
724,9	0,001
725,3	0,001
725,8	0,001
726,2	0,001
726,7	0,001
727,1	0,001
727,5	0,001
728	0,001
728,4	0,001
728,8	0,001
729,3	0,001
729,7	0,002
730,1	0,002
730,6	0,002
731	0,002
731,5	0,002
731,9	0,002
732,3	0,002
732,8	0,001
733,2	0,001
733,6	0,001
734,1	0,001
734,5	0,001
734,9	0,001
735,4	0,001
735,8	0,002
736,3	0,002
736,7	0,002
737,1	0,002
737,6	0,001
738	0,002
738,4	0,002
738,9	0,001
739,3	0,001
739,7	0,002
740,2	0,002
740,6	0,002
741,1	0,001
741,5	0,001
741,9	0,001
742,4	0,001
742,8	0,001
743,2	0,001
743,7	0,001
744,1	0,002
744,5	0,002
745	0,002
745,4	0,003
745,8	0,003
746,3	0,003
746,7	0,003
747,2	0,002
747,6	0,002
748	0,002
748,5	0,002
748,9	0,001
749,3	0,002
749,8	0,002
750,2	0,002
750,6	0,002
751,1	0,002
751,5	0,002
751,9	0,002
752,4	0,002
752,8	0,002
753,3	0,001
753,7	0,002
754,1	0,001
754,6	0,001
755	0,001
755,4	0,001
755,9	0,002
756,3	0,002
756,7	0,002
757,2	0,002
757,6	0,002
758	0,001
758,5	0,002
758,9	0,002
759,3	0,002
759,8	0,001
760,2	0,001
760,6	0,001
761,1	0,002
761,5	0,002
761,9	0,001
762,4	0,002
762,8	0,002
763,3	0,001
763,7	0,002
764,1	0,001
764,6	0,001
765	0,001
765,4	0,001
765,9	0,001
766,3	0,001
766,7	0,001
767,2	0,001
767,6	0,001
768	0,002
768,5	0,002
768,9	0,002
769,3	0,002
769,8	0,002
770,2	0,002
770,6	0,002
771,1	0,002
771,5	0,002
771,9	0,002
772,4	0,002
772,8	0,002
773,2	0,002
773,7	0,001
774,1	0,001
774,5	0,001
775	0,001
775,4	0,001
775,8	0,001
776,3	0,001
776,7	0,001
777,1	0,002
777,6	0,002
778	0,002
778,4	0,001
778,9	0,001
779,3	0,002
779,7	0,002
780,2	0,002
780,6	0,002
781	0,002
781,5	0,002
781,9	0,002
782,3	0,002
782,8	0,001
783,2	0,001
783,6	0,001
784,1	0,002
784,5	0,002
784,9	0,002
785,4	0,002
785,8	0,002
786,2	0,002
786,7	0,002
787,1	0,002
787,5	0,002
788	0,002
788,4	0,002
788,8	0,002
789,3	0,002
789,7	0,002
790,1	0,002
790,6	0,002
791	0,002
791,4	0,002
791,9	0,002
792,3	0,002
792,7	0,002
793,2	0,002
793,6	0,002
794	0,002
794,5	0,002
794,9	0,002
795,3	0,002
795,8	0,002
796,2	0,002
796,6	0,002
797,1	0,002
797,5	0,002
797,9	0,002
798,4	0,002
798,8	0,002
799,2	0,002
799,7	0,002
800,1	0,002
800,5	0,002
801	0,002
801,4	0,002
801,8	0,002
802,2	0,002
802,7	0,002
803,1	0,002
803,5	0,002
804	0,002
804,4	0,003
804,8	0,002
805,3	0,002
805,7	0,002
806,1	0,002
806,6	0,002
807	0,002
807,4	0,002
807,9	0,002
808,3	0,002
808,7	0,002
809,2	0,002
809,6	0,002
810	0,001
810,4	0,001
810,9	0,001
811,3	0,001
811,7	0,001
812,2	0,001
812,6	0,001
813	0,001
813,5	0,001
813,9	0,002
814,3	0,002
814,8	0,002
815,2	0,002
815,6	0,002
816,1	0,002
816,5	0,002
816,9	0,003
817,3	0,002
817,8	0,002
818,2	0,002
818,6	0,002
819,1	0,002
819,5	0,002
819,9	0,002
820,4	0,002
820,8	0,003
821,2	0,003
821,7	0,003
822,1	0,002
822,5	0,003
822,9	0,003
823,4	0,003
823,8	0,002
824,2	0,002
824,7	0,002
825,1	0,002
825,5	0,001
826	0,001
826,4	0
826,8	0
827,3	0
827,7	0,001
828,1	0
828,5	0,001
829	0,001
829,4	0,001
829,8	0,001
830,3	0,001
830,7	0,001
831,1	0,001
831,6	0,001
832	0,001
832,4	0,001
832,8	0,001
833,3	0,001
833,7	0,001
834,1	0,001
834,6	0,001
835	0,002
835,4	0,002
835,8	0,002
836,3	0,002
836,7	0,002
837,1	0,002
837,6	0,002
838	0,002
838,4	0,002
838,9	0,002
839,3	0,002
839,7	0,002
840,1	0,003
840,6	0,002
841	0,002
841,4	0,002
841,9	0,002
842,3	0,002
842,7	0,002
843,1	0,002
843,6	0,002
844	0,002
844,4	0,002
844,9	0,002
845,3	0,002
845,7	0,002
846,2	0,002
846,6	0,002
847	0,002
847,4	0,002
847,9	0,002
848,3	0,002
848,7	0,002
849,2	0,002
849,6	0,002
850	0,002
850,4	0,002
850,9	0,002
851,3	0,002
851,7	0,001
852,2	0,001
852,6	0,002
853	0,001
853,4	0,002
853,9	0,002
854,3	0,002
854,7	0,002
855,2	0,003
855,6	0,002
856	0,003
856,4	0,003
856,9	0,003
857,3	0,003
857,7	0,002
858,2	0,002
858,6	0,002
859	0,002
859,4	0,002
859,9	0,002
860,3	0,002
860,7	0,002
861,1	0,002
861,6	0,002
862	0,002
862,4	0,003
862,9	0,003
863,3	0,002
863,7	0,002
864,1	0,002
864,6	0,002
865	0,002
865,4	0,002
865,9	0,002
866,3	0,002
866,7	0,002
867,1	0,002
867,6	0,002
868	0,002
868,4	0,002
868,8	0,002
869,3	0,002
869,7	0,002
870,1	0,002
870,6	0,002
871	0,002
871,4	0,002
871,8	0,002
872,3	0,003
872,7	0,002
873,1	0,002
873,5	0,003
874	0,002
874,4	0,002
874,8	0,002
875,3	0,001
875,7	0,001
876,1	0,002
876,5	0,002
877	0,002
877,4	0,002
877,8	0,002
878,2	0,003
878,7	0,003
879,1	0,003
879,5	0,003
879,9	0,003
880,4	0,003
880,8	0,003
881,2	0,003
881,7	0,003
882,1	0,003
882,5	0,003
882,9	0,003
883,4	0,003
883,8	0,002
884,2	0,002
884,6	0,002
885,1	0,001
885,5	0,001
885,9	0,002
886,3	0,002
886,8	0,002
887,2	0,002
887,6	0,002
888	0,002
888,5	0,002
888,9	0,001
889,3	0,001
889,8	0,001
890,2	0,001
890,6	0,002
891	0,002
891,5	0,002
891,9	0,003
892,3	0,003
892,7	0,002
893,2	0,002
893,6	0,003
894	0,003
894,4	0,002
894,9	0,002
895,3	0,002
895,7	0,002
896,1	0,002
896,6	0,002
897	0,002
897,4	0,002
897,8	0,002
898,3	0,002
898,7	0,002
899,1	0,002
899,5	0,002
900	0,002
900,4	0,001
900,8	0,001
901,2	0,001
901,7	0,002
902,1	0,002
902,5	0,002
902,9	0,002
903,4	0,002
903,8	0,002
904,2	0,002
904,6	0,001
905,1	0,002
905,5	0,002
905,9	0,001
906,3	0,001
906,8	0,002
907,2	0,002
907,6	0,002
908	0,002
908,5	0,002
908,9	0,002
909,3	0,002
909,7	0,002
910,2	0,002
910,6	0,003
911	0,003
911,4	0,003
911,9	0,003
912,3	0,003
912,7	0,003
913,1	0,003
913,6	0,002
914	0,002
914,4	0,001
914,8	0,001
915,3	0,001
915,7	0,001
916,1	0,001
916,5	0,001
916,9	0,001
917,4	0,001
917,8	0,001
918,2	0,002
918,6	0,001
919,1	0,001
919,5	0,002
919,9	0,002
920,3	0,002
920,8	0,002
921,2	0,002
921,6	0,003
922	0,002
922,5	0,002
922,9	0,002
923,3	0,002
923,7	0,002
924,2	0,002
924,6	0,002
925	0,002
925,4	0,003
925,8	0,003
926,3	0,003
926,7	0,003
927,1	0,003
927,5	0,003
928	0,002
928,4	0,002
928,8	0,002
929,2	0,002
929,7	0,002
930,1	0,002
930,5	0,002
930,9	0,002
931,3	0,002
931,8	0,002
932,2	0,002
932,6	0,003
933	0,003
933,5	0,003
933,9	0,003
934,3	0,003
934,7	0,003
935,2	0,003
935,6	0,003
936	0,003
936,4	0,003
936,8	0,003
937,3	0,003
937,7	0,003
938,1	0,003
938,5	0,003
939	0,003
939,4	0,003
939,8	0,002
940,2	0,003
940,6	0,002
941,1	0,002
941,5	0,002
941,9	0,002
942,3	0,002
942,8	0,002
943,2	0,002
943,6	0,003
944	0,002
944,4	0,002
944,9	0,002
945,3	0,003
945,7	0,002
946,1	0,002
946,6	0,002
947	0,002
947,4	0,002
947,8	0,001
948,2	0,001
948,7	0,002
949,1	0,001
949,5	0,001
949,9	0,001
950,3	0,001
950,8	0,001
951,2	0,001
951,6	0,001
952	0,002
952,5	0,002
952,9	0,002
953,3	0,002
953,7	0,002
954,1	0,001
954,6	0,001
955	0
955,4	0
955,8	0
956,2	0
956,7	0,001
957,1	0,001
957,5	0,001
957,9	0,002
958,3	0,002
958,8	0,002
959,2	0,002
959,6	0,002
960	0,002
960,5	0,002
960,9	0,002
961,3	0,003
961,7	0,003
962,1	0,003
962,6	0,003
963	0,003
963,4	0,003
963,8	0,003
964,2	0,003
964,7	0,002
965,1	0,003
965,5	0,002
965,9	0,002
966,3	0,002
966,8	0,003
967,2	0,002
967,6	0,003
968	0,003
968,4	0,003
968,9	0,003
969,3	0,003
969,7	0,002
970,1	0,003
970,5	0,002
971	0,002
971,4	0,002
971,8	0,002
972,2	0,003
972,6	0,004
973,1	0,004
973,5	0,003
973,9	0,003
974,3	0,004
974,7	0,003
975,2	0,003
975,6	0,002
976	0,002
976,4	0,002
976,8	0,002
977,3	0,002
977,7	0,003
978,1	0,003
978,5	0,003
978,9	0,003
979,4	0,003
979,8	0,003
980,2	0,003
980,6	0,003
981	0,004
981,5	0,004
981,9	0,004
982,3	0,004
982,7	0,003
983,1	0,003
983,6	0,003
984	0,003
984,4	0,003
984,8	0,002
985,2	0,003
985,6	0,002
986,1	0,003
986,5	0,003
986,9	0,003
987,3	0,002
987,7	0,003
988,2	0,003
988,6	0,003
989	0,003
989,4	0,002
989,8	0,002
990,3	0,003
990,7	0,003
991,1	0,002
991,5	0,002
991,9	0,002
992,3	0,002
992,8	0,002
993,2	0,001
993,6	0,001
994	0,002
994,4	0,003
994,9	0,003
995,3	0,002
995,7	0,002
996,1	0,002
996,5	0,002
996,9	0,002
997,4	0,001
997,8	0,002
998,2	0,002
998,6	0,002
999	0,002
999,5	0,002
999,9	0,002
1000,3	0,002
1000,7	0,003
1001,1	0,003
1001,5	0,003
1002	0,003
1002,4	0,003
1002,8	0,003
1003,2	0,002
1003,6	0,002
1004	0,002
1004,5	0,002
1004,9	0,002
1005,3	0,003
1005,7	0,003
1006,1	0,003
1006,6	0,003
1007	0,003
1007,4	0,003
1007,8	0,003
1008,2	0,002
1008,6	0,002
1009,1	0,002
1009,5	0,002
1009,9	0,002
1010,3	0,001
1010,7	0,002
1011,1	0,001
1011,6	0,002
1012	0,002
1012,4	0,002
1012,8	0,002
1013,2	0,002
1013,6	0,002
1014,1	0,002
1014,5	0,002
1014,9	0,002
1015,3	0,001
1015,7	0,001
1016,1	0,001
1016,6	-0
1017	0
1017,4	-0
1017,8	-0
1018,2	-0
1018,6	-0
1019,1	0
1019,5	0,001
1019,9	0,001
1020,3	0,001
1020,7	0,001
1021,1	0,001
1021,6	0,001
1022	0,001
1022,4	0
1022,8	0
1023,2	0
1023,6	0,001
1024,1	0,001
1024,5	0,002
1024,9	0,002
1025,3	0,002
1025,7	0,002
1026,1	0,002
1026,6	0,002
1027	0,002
1027,4	0,002
1027,8	0,001
1028,2	0,001
1028,6	0,001
1029	0,001
1029,5	0
1029,9	0,001
1030,3	0
1030,7	0,001
1031,1	0
1031,5	0,001
1032	0,001
1032,4	0,002
1032,8	0,002
1033,2	0,002
1033,6	0,002
1034	0,003
1034,4	0,003
1034,9	0,002
1035,3	0,002
1035,7	0,001
1036,1	0,002
1036,5	0,002
1036,9	0,002
1037,4	0,002
1037,8	0,003
1038,2	0,004
1038,6	0,004
1039	0,004
1039,4	0,003
1039,8	0,003
1040,3	0,002
1040,7	0,001
1041,1	0,001
1041,5	0,001
1041,9	0
1042,3	0,001
1042,7	0,001
1043,2	0,001
1043,6	0,001
1044	0,003
1044,4	0,002
1044,8	0,002
1045,2	0,001
1045,6	0,002
1046,1	0,002
1046,5	0,002
1046,9	0
1047,3	0,001
1047,7	0,001
1048,1	0,001
1048,5	0
1049	0
1049,4	0,001
1049,8	0,001
1050,2	0,001
1050,6	0,002
1051	0,001
1051,4	0,001
1051,9	0,001
1052,3	0,001
1052,7	0,001
1053,1	0,001
1053,5	0,001
1053,9	0,001
1054,3	0,001
1054,8	0,001
1055,2	0,001
1055,6	0,002
1056	0,002
1056,4	0,001
1056,8	0,001
1057,2	0,001
1057,6	0,002
1058,1	0,002
1058,5	0,002
1058,9	0,002
1059,3	0,003
1059,7	0,002
1060,1	0,002
1060,5	0,002
1061	0,002
1061,4	0,001
1061,8	0,001
1062,2	-0,001
1062,6	0,001
1063	0
1063,4	0,002
1063,8	0,002
1064,3	0,002
1064,7	0,002
1065,1	0,003
1065,5	0,002
1065,9	0,002
1066,3	0,001
1066,7	0,001
1067,1	0,001
1067,6	0,001
1068	0,002
1068,4	0,001
1068,8	0,002
1069,2	0,001
1069,6	0,002
1070	0,003
1070,4	0,003
1070,9	0,002
1071,3	0,002
1071,7	0,002
1072,1	0,002
1072,5	0,001
1072,9	0
1073,3	0
1073,7	0
1074,2	0
1074,6	0,001
1075	0,001
1075,4	-0
1075,8	-0
1076,2	-0
1076,6	-0,001
1077	0
1077,5	0
1077,9	-0,002
1078,3	0,001
1078,7	0,001
1079,1	-0
1079,5	-0,001
1079,9	-0,002
1080,3	-0,002
1080,7	-0
1081,2	-0
1081,6	0,001
1082	0,002
1082,4	0,002
1082,8	0,001
1083,2	0,001
1083,6	0,002
1084	-0,001
1084,5	-0,001
1084,9	-0,001
1085,3	-0,002
1085,7	-0,001
1086,1	-0,001
1086,5	-0,003
1086,9	-0,004
1087,3	-0,005
1087,7	-0,004
1088,2	-0,003
1088,6	-0,002
1089	-0,003
1089,4	-0,003
1089,8	-0,001
1090,2	-0,002
1090,6	-0,003
1091	-0,001
1091,4	-0
1091,9	-0,004
1092,3	-0,005
1092,7	-0,007
1093,1	-0,006
1093,5	-0,006
1093,9	-0,004
1094,3	-0,005
1094,7	0,001
1095,1	0,002
1095,5	0,005
1096	0,002
1096,4	0,005
1096,8	-0,003
1097,2	-0,006
1097,6	-0,009
1098	-0,008
1098,4	-0,005
1098,8	-0,003
1099,2	-0,008
1099,6	0,002
1100,1	0,006
1100,5	0,008
1100,9	0,011
1101,3	0,012
1101,7	0,014
1102,1	0,016
1102,5	0,013
1102,9	0,007
1103,3	0,013
1103,7	0,006
1104,2	0,007
1104,6	0,009
1105	0,016
1105,4	0,006
1105,8	0,01
1106,2	0,006
1106,6	0,022
1107	0,014
1107,4	0,024
1107,8	0,008
1108,3	0,619
