Data from Absorbance_00023.txt Node
Date: Wed Aug 02 17:54:27 MSK 2023
User: vat
Spectrometer: MAYP114033
Trigger mode: 0
Integration Time (sec): 8,000000E-3
Scans to average: 10
Electric dark correction enabled: true
Nonlinearity correction enabled: false
Boxcar width: 3
XAxis mode: Wavelengths
Number of Pixels in Spectrum: 2068
>>>>>Begin Spectral Data<<<<<
199,4	-0
199,9	0,198
200,4	0,395
200,8	0,669
201,3	0,798
201,8	0,88
202,2	0,895
202,7	0,909
203,2	0,945
203,6	0,98
204,1	1,02
204,6	1,026
205	1,053
205,5	1,083
206	1,092
206,4	1,101
206,9	1,123
207,4	1,129
207,8	1,136
208,3	1,146
208,8	1,148
209,2	1,177
209,7	1,211
210,2	1,214
210,6	1,225
211,1	1,221
211,5	1,231
212	1,259
212,5	1,277
212,9	1,287
213,4	1,301
213,9	1,31
214,3	1,343
214,8	1,346
215,3	1,354
215,7	1,333
216,2	1,338
216,7	1,384
217,1	1,413
217,6	1,432
218,1	1,448
218,5	1,469
219	1,518
219,5	1,553
219,9	1,535
220,4	1,544
220,9	1,578
221,3	1,595
221,8	1,616
222,3	1,624
222,7	1,634
223,2	1,665
223,6	1,683
224,1	1,695
224,6	1,71
225	1,725
225,5	1,727
226	1,712
226,4	1,711
226,9	1,722
227,4	1,733
227,8	1,754
228,3	1,736
228,8	1,757
229,2	1,778
229,7	1,785
230,2	1,802
230,6	1,828
231,1	1,816
231,5	1,838
232	1,852
232,5	1,868
232,9	1,882
233,4	1,867
233,9	1,866
234,3	1,888
234,8	1,914
235,3	1,928
235,7	1,941
236,2	1,945
236,7	1,974
237,1	1,962
237,6	1,97
238,1	1,96
238,5	1,944
239	1,936
239,4	1,944
239,9	1,946
240,4	1,96
240,8	1,964
241,3	1,979
241,8	1,994
242,2	2,003
242,7	2,004
243,2	2,02
243,6	2,033
244,1	2,018
244,6	2,028
245	2,036
245,5	2,057
245,9	2,085
246,4	2,076
246,9	2,08
247,3	2,103
247,8	2,111
248,3	2,125
248,7	2,121
249,2	2,098
249,7	2,098
250,1	2,105
250,6	2,105
251	2,096
251,5	2,097
252	2,09
252,4	2,096
252,9	2,107
253,4	2,099
253,8	2,103
254,3	2,12
254,8	2,116
255,2	2,144
255,7	2,152
256,1	2,152
256,6	2,149
257,1	2,168
257,5	2,15
258	2,15
258,5	2,141
258,9	2,149
259,4	2,131
259,9	2,127
260,3	2,115
260,8	2,104
261,2	2,119
261,7	2,112
262,2	2,105
262,6	2,117
263,1	2,115
263,6	2,098
264	2,126
264,5	2,113
264,9	2,114
265,4	2,108
265,9	2,118
266,3	2,126
266,8	2,163
267,3	2,148
267,7	2,143
268,2	2,135
268,7	2,145
269,1	2,105
269,6	2,082
270	2,058
270,5	2,065
271	2,056
271,4	2,052
271,9	2,036
272,4	2,054
272,8	2,084
273,3	2,081
273,7	2,067
274,2	2,075
274,7	2,065
275,1	2,072
275,6	2,047
276,1	2,009
276,5	1,975
277	1,936
277,4	1,892
277,9	1,861
278,4	1,811
278,8	1,769
279,3	1,733
279,8	1,69
280,2	1,643
280,7	1,592
281,1	1,536
281,6	1,487
282,1	1,434
282,5	1,378
283	1,325
283,4	1,274
283,9	1,222
284,4	1,173
284,8	1,122
285,3	1,077
285,8	1,031
286,2	0,986
286,7	0,943
287,1	0,903
287,6	0,864
288,1	0,828
288,5	0,793
289	0,76
289,5	0,73
289,9	0,704
290,4	0,678
290,8	0,654
291,3	0,633
291,8	0,613
292,2	0,594
292,7	0,578
293,1	0,562
293,6	0,548
294,1	0,536
294,5	0,523
295	0,513
295,5	0,504
295,9	0,496
296,4	0,489
296,8	0,483
297,3	0,478
297,8	0,472
298,2	0,466
298,7	0,462
299,1	0,457
299,6	0,453
300,1	0,449
300,5	0,445
301	0,441
301,5	0,439
301,9	0,436
302,4	0,432
302,8	0,429
303,3	0,427
303,8	0,424
304,2	0,422
304,7	0,42
305,1	0,416
305,6	0,414
306,1	0,411
306,5	0,408
307	0,405
307,4	0,402
307,9	0,399
308,4	0,396
308,8	0,393
309,3	0,39
309,8	0,388
310,2	0,385
310,7	0,382
311,1	0,378
311,6	0,375
312,1	0,372
312,5	0,369
313	0,365
313,4	0,363
313,9	0,36
314,4	0,357
314,8	0,354
315,3	0,351
315,7	0,347
316,2	0,344
316,7	0,34
317,1	0,337
317,6	0,333
318	0,329
318,5	0,327
319	0,323
319,4	0,321
319,9	0,319
320,3	0,316
320,8	0,313
321,3	0,31
321,7	0,307
322,2	0,304
322,6	0,3
323,1	0,298
323,6	0,295
324	0,291
324,5	0,288
324,9	0,286
325,4	0,284
325,9	0,281
326,3	0,278
326,8	0,275
327,2	0,272
327,7	0,27
328,2	0,267
328,6	0,264
329,1	0,261
329,5	0,258
330	0,255
330,5	0,251
330,9	0,248
331,4	0,245
331,8	0,242
332,3	0,239
332,8	0,236
333,2	0,233
333,7	0,231
334,1	0,228
334,6	0,225
335,1	0,222
335,5	0,22
336	0,218
336,4	0,215
336,9	0,212
337,4	0,209
337,8	0,207
338,3	0,204
338,7	0,201
339,2	0,198
339,7	0,195
340,1	0,193
340,6	0,19
341	0,188
341,5	0,186
342	0,183
342,4	0,18
342,9	0,178
343,3	0,174
343,8	0,172
344,2	0,17
344,7	0,168
345,2	0,166
345,6	0,163
346,1	0,16
346,5	0,159
347	0,157
347,5	0,154
347,9	0,152
348,4	0,15
348,8	0,149
349,3	0,147
349,8	0,145
350,2	0,142
350,7	0,14
351,1	0,138
351,6	0,136
352	0,133
352,5	0,131
353	0,129
353,4	0,127
353,9	0,125
354,3	0,124
354,8	0,123
355,3	0,121
355,7	0,119
356,2	0,117
356,6	0,116
357,1	0,114
357,5	0,113
358	0,112
358,5	0,111
358,9	0,11
359,4	0,109
359,8	0,106
360,3	0,105
360,8	0,104
361,2	0,102
361,7	0,1
362,1	0,099
362,6	0,098
363	0,097
363,5	0,096
364	0,094
364,4	0,093
364,9	0,091
365,3	0,09
365,8	0,089
366,3	0,088
366,7	0,087
367,2	0,087
367,6	0,086
368,1	0,085
368,5	0,084
369	0,083
369,5	0,082
369,9	0,082
370,4	0,081
370,8	0,08
371,3	0,08
371,7	0,079
372,2	0,078
372,7	0,077
373,1	0,075
373,6	0,074
374	0,073
374,5	0,071
374,9	0,07
375,4	0,069
375,9	0,068
376,3	0,068
376,8	0,067
377,2	0,066
377,7	0,067
378,2	0,066
378,6	0,065
379,1	0,064
379,5	0,064
380	0,063
380,4	0,062
380,9	0,061
381,4	0,06
381,8	0,059
382,3	0,059
382,7	0,058
383,2	0,057
383,6	0,057
384,1	0,056
384,6	0,055
385	0,054
385,5	0,053
385,9	0,052
386,4	0,051
386,8	0,05
387,3	0,049
387,7	0,049
388,2	0,049
388,7	0,048
389,1	0,047
389,6	0,046
390	0,045
390,5	0,045
390,9	0,044
391,4	0,043
391,9	0,043
392,3	0,042
392,8	0,041
393,2	0,041
393,7	0,04
394,1	0,04
394,6	0,039
395,1	0,039
395,5	0,038
396	0,039
396,4	0,039
396,9	0,038
397,3	0,038
397,8	0,038
398,2	0,037
398,7	0,037
399,2	0,037
399,6	0,036
400,1	0,036
400,5	0,036
401	0,035
401,4	0,034
401,9	0,034
402,4	0,033
402,8	0,032
403,3	0,031
403,7	0,031
404,2	0,03
404,6	0,03
405,1	0,03
405,5	0,03
406	0,03
406,5	0,03
406,9	0,031
407,4	0,031
407,8	0,031
408,3	0,031
408,7	0,03
409,2	0,03
409,6	0,029
410,1	0,029
410,6	0,029
411	0,028
411,5	0,028
411,9	0,028
412,4	0,028
412,8	0,028
413,3	0,028
413,7	0,028
414,2	0,028
414,7	0,028
415,1	0,027
415,6	0,027
416	0,026
416,5	0,026
416,9	0,026
417,4	0,025
417,8	0,025
418,3	0,026
418,8	0,025
419,2	0,026
419,7	0,026
420,1	0,025
420,6	0,025
421	0,024
421,5	0,024
421,9	0,024
422,4	0,024
422,8	0,024
423,3	0,024
423,8	0,024
424,2	0,025
424,7	0,024
425,1	0,024
425,6	0,024
426	0,023
426,5	0,023
426,9	0,023
427,4	0,022
427,9	0,022
428,3	0,022
428,8	0,022
429,2	0,022
429,7	0,022
430,1	0,022
430,6	0,023
431	0,023
431,5	0,024
431,9	0,023
432,4	0,023
432,8	0,023
433,3	0,022
433,8	0,022
434,2	0,021
434,7	0,022
435,1	0,022
435,6	0,022
436	0,022
436,5	0,022
436,9	0,022
437,4	0,021
437,8	0,021
438,3	0,02
438,8	0,02
439,2	0,02
439,7	0,02
440,1	0,02
440,6	0,02
441	0,02
441,5	0,02
441,9	0,021
442,4	0,02
442,8	0,02
443,3	0,02
443,7	0,02
444,2	0,019
444,7	0,019
445,1	0,019
445,6	0,019
446	0,018
446,5	0,019
446,9	0,018
447,4	0,018
447,8	0,018
448,3	0,018
448,7	0,018
449,2	0,018
449,6	0,019
450,1	0,018
450,6	0,019
451	0,019
451,5	0,019
451,9	0,019
452,4	0,018
452,8	0,018
453,3	0,018
453,7	0,017
454,2	0,017
454,6	0,017
455,1	0,017
455,5	0,018
456	0,018
456,4	0,018
456,9	0,019
457,3	0,019
457,8	0,018
458,3	0,018
458,7	0,018
459,2	0,018
459,6	0,018
460,1	0,018
460,5	0,018
461	0,018
461,4	0,018
461,9	0,017
462,3	0,017
462,8	0,017
463,2	0,017
463,7	0,017
464,1	0,017
464,6	0,016
465	0,017
465,5	0,017
466	0,017
466,4	0,016
466,9	0,016
467,3	0,016
467,8	0,016
468,2	0,016
468,7	0,016
469,1	0,016
469,6	0,017
470	0,017
470,5	0,016
470,9	0,017
471,4	0,017
471,8	0,017
472,3	0,017
472,7	0,016
473,2	0,016
473,6	0,016
474,1	0,016
474,5	0,016
475	0,016
475,4	0,016
475,9	0,016
476,4	0,016
476,8	0,017
477,3	0,018
477,7	0,017
478,2	0,018
478,6	0,017
479,1	0,018
479,5	0,018
480	0,017
480,4	0,017
480,9	0,016
481,3	0,016
481,8	0,016
482,2	0,016
482,7	0,015
483,1	0,015
483,6	0,014
484	0,014
484,5	0,014
484,9	0,014
485,4	0,013
485,8	0,014
486,3	0,014
486,7	0,015
487,2	0,015
487,6	0,015
488,1	0,015
488,5	0,016
489	0,016
489,4	0,015
489,9	0,014
490,4	0,014
490,8	0,015
491,3	0,015
491,7	0,015
492,2	0,015
492,6	0,015
493,1	0,015
493,5	0,015
494	0,015
494,4	0,015
494,9	0,016
495,3	0,016
495,8	0,016
496,2	0,016
496,7	0,016
497,1	0,016
497,6	0,016
498	0,016
498,5	0,016
498,9	0,016
499,4	0,016
499,8	0,016
500,3	0,016
500,7	0,016
501,2	0,016
501,6	0,016
502,1	0,016
502,5	0,016
503	0,016
503,4	0,017
503,9	0,016
504,3	0,016
504,8	0,016
505,2	0,016
505,7	0,015
506,1	0,015
506,6	0,016
507	0,016
507,5	0,015
507,9	0,015
508,4	0,016
508,8	0,016
509,3	0,015
509,7	0,015
510,2	0,015
510,6	0,015
511,1	0,015
511,5	0,015
512	0,015
512,4	0,015
512,9	0,015
513,3	0,015
513,8	0,016
514,2	0,016
514,7	0,016
515,1	0,016
515,6	0,017
516	0,016
516,5	0,015
516,9	0,015
517,4	0,015
517,8	0,015
518,3	0,015
518,7	0,015
519,2	0,017
519,6	0,018
520,1	0,017
520,5	0,017
521	0,017
521,4	0,017
521,9	0,017
522,3	0,016
522,8	0,016
523,2	0,016
523,7	0,016
524,1	0,016
524,6	0,015
525	0,015
525,5	0,015
525,9	0,015
526,4	0,015
526,8	0,015
527,3	0,015
527,7	0,015
528,2	0,016
528,6	0,016
529,1	0,016
529,5	0,016
530	0,016
530,4	0,016
530,9	0,016
531,3	0,015
531,8	0,016
532,2	0,016
532,6	0,016
533,1	0,016
533,5	0,016
534	0,016
534,4	0,017
534,9	0,016
535,3	0,016
535,8	0,016
536,2	0,017
536,7	0,016
537,1	0,017
537,6	0,016
538	0,016
538,5	0,016
538,9	0,016
539,4	0,015
539,8	0,015
540,3	0,015
540,7	0,015
541,2	0,015
541,6	0,015
542,1	0,014
542,5	0,015
543	0,015
543,4	0,014
543,9	0,015
544,3	0,015
544,8	0,015
545,2	0,015
545,7	0,015
546,1	0,015
546,5	0,015
547	0,015
547,4	0,015
547,9	0,015
548,3	0,015
548,8	0,015
549,2	0,015
549,7	0,015
550,1	0,016
550,6	0,015
551	0,016
551,5	0,016
551,9	0,016
552,4	0,016
552,8	0,016
553,3	0,015
553,7	0,015
554,2	0,015
554,6	0,014
555,1	0,014
555,5	0,014
555,9	0,014
556,4	0,014
556,8	0,013
557,3	0,014
557,7	0,014
558,2	0,014
558,6	0,014
559,1	0,014
559,5	0,015
560	0,015
560,4	0,015
560,9	0,015
561,3	0,015
561,8	0,015
562,2	0,015
562,7	0,016
563,1	0,016
563,6	0,016
564	0,016
564,4	0,016
564,9	0,016
565,3	0,016
565,8	0,015
566,2	0,015
566,7	0,014
567,1	0,014
567,6	0,014
568	0,014
568,5	0,014
568,9	0,014
569,4	0,014
569,8	0,014
570,3	0,014
570,7	0,013
571,1	0,013
571,6	0,013
572	0,014
572,5	0,014
572,9	0,014
573,4	0,014
573,8	0,014
574,3	0,014
574,7	0,014
575,2	0,013
575,6	0,013
576,1	0,013
576,5	0,013
576,9	0,013
577,4	0,014
577,8	0,013
578,3	0,013
578,7	0,013
579,2	0,013
579,6	0,013
580,1	0,013
580,5	0,013
581	0,013
581,4	0,013
581,9	0,013
582,3	0,013
582,7	0,013
583,2	0,013
583,6	0,013
584,1	0,013
584,5	0,013
585	0,013
585,4	0,013
585,9	0,013
586,3	0,013
586,8	0,013
587,2	0,013
587,6	0,013
588,1	0,013
588,5	0,013
589	0,013
589,4	0,013
589,9	0,013
590,3	0,013
590,8	0,013
591,2	0,012
591,7	0,012
592,1	0,012
592,5	0,012
593	0,012
593,4	0,012
593,9	0,012
594,3	0,012
594,8	0,012
595,2	0,012
595,7	0,012
596,1	0,012
596,6	0,012
597	0,012
597,4	0,012
597,9	0,012
598,3	0,012
598,8	0,012
599,2	0,012
599,7	0,011
600,1	0,011
600,6	0,011
601	0,011
601,4	0,011
601,9	0,011
602,3	0,011
602,8	0,011
603,2	0,011
603,7	0,011
604,1	0,011
604,6	0,011
605	0,011
605,4	0,011
605,9	0,011
606,3	0,012
606,8	0,012
607,2	0,012
607,7	0,011
608,1	0,012
608,6	0,012
609	0,011
609,4	0,011
609,9	0,011
610,3	0,011
610,8	0,011
611,2	0,01
611,7	0,01
612,1	0,01
612,6	0,01
613	0,01
613,4	0,01
613,9	0,011
614,3	0,011
614,8	0,011
615,2	0,01
615,7	0,01
616,1	0,009
616,6	0,01
617	0,009
617,4	0,009
617,9	0,009
618,3	0,009
618,8	0,009
619,2	0,009
619,7	0,008
620,1	0,009
620,5	0,009
621	0,009
621,4	0,009
621,9	0,008
622,3	0,009
622,8	0,01
623,2	0,009
623,6	0,009
624,1	0,01
624,5	0,01
625	0,01
625,4	0,01
625,9	0,01
626,3	0,01
626,8	0,009
627,2	0,01
627,6	0,009
628,1	0,009
628,5	0,009
629	0,009
629,4	0,009
629,9	0,01
630,3	0,01
630,7	0,01
631,2	0,01
631,6	0,01
632,1	0,01
632,5	0,01
633	0,01
633,4	0,009
633,8	0,009
634,3	0,009
634,7	0,009
635,2	0,009
635,6	0,009
636,1	0,009
636,5	0,009
636,9	0,009
637,4	0,009
637,8	0,009
638,3	0,009
638,7	0,009
639,2	0,009
639,6	0,009
640	0,009
640,5	0,009
640,9	0,008
641,4	0,008
641,8	0,008
642,2	0,008
642,7	0,008
643,1	0,009
643,6	0,009
644	0,009
644,5	0,009
644,9	0,009
645,3	0,008
645,8	0,008
646,2	0,007
646,7	0,007
647,1	0,007
647,6	0,008
648	0,008
648,4	0,008
648,9	0,008
649,3	0,008
649,8	0,008
650,2	0,008
650,6	0,008
651,1	0,008
651,5	0,008
652	0,008
652,4	0,008
652,9	0,008
653,3	0,008
653,7	0,008
654,2	0,008
654,6	0,007
655,1	0,006
655,5	0,007
655,9	0,005
656,4	0,003
656,8	0,004
657,3	0,005
657,7	0,005
658,2	0,005
658,6	0,004
659	0,006
659,5	0,01
659,9	0,009
660,4	0,008
660,8	0,008
661,2	0,007
661,7	0,007
662,1	0,008
662,6	0,008
663	0,008
663,4	0,008
663,9	0,008
664,3	0,008
664,8	0,008
665,2	0,007
665,6	0,007
666,1	0,007
666,5	0,007
667	0,007
667,4	0,007
667,9	0,007
668,3	0,007
668,7	0,007
669,2	0,007
669,6	0,007
670,1	0,007
670,5	0,008
670,9	0,008
671,4	0,008
671,8	0,007
672,3	0,007
672,7	0,007
673,1	0,007
673,6	0,007
674	0,007
674,5	0,007
674,9	0,007
675,3	0,007
675,8	0,007
676,2	0,007
676,7	0,007
677,1	0,007
677,5	0,007
678	0,007
678,4	0,006
678,9	0,007
679,3	0,007
679,7	0,006
680,2	0,006
680,6	0,006
681,1	0,006
681,5	0,006
681,9	0,006
682,4	0,005
682,8	0,006
683,3	0,006
683,7	0,006
684,1	0,006
684,6	0,006
685	0,006
685,5	0,006
685,9	0,006
686,3	0,006
686,8	0,006
687,2	0,006
687,7	0,006
688,1	0,006
688,5	0,006
689	0,006
689,4	0,006
689,9	0,005
690,3	0,005
690,7	0,005
691,2	0,005
691,6	0,006
692	0,006
692,5	0,006
692,9	0,006
693,4	0,006
693,8	0,006
694,2	0,006
694,7	0,006
695,1	0,006
695,6	0,006
696	0,006
696,4	0,006
696,9	0,006
697,3	0,006
697,8	0,006
698,2	0,006
698,6	0,006
699,1	0,006
699,5	0,006
699,9	0,006
700,4	0,006
700,8	0,006
701,3	0,006
701,7	0,006
702,1	0,006
702,6	0,005
703	0,005
703,5	0,005
703,9	0,005
704,3	0,006
704,8	0,006
705,2	0,006
705,6	0,006
706,1	0,006
706,5	0,006
707	0,006
707,4	0,006
707,8	0,006
708,3	0,006
708,7	0,005
709,2	0,006
709,6	0,006
710	0,006
710,5	0,006
710,9	0,006
711,3	0,006
711,8	0,006
712,2	0,006
712,7	0,006
713,1	0,005
713,5	0,005
714	0,005
714,4	0,005
714,8	0,005
715,3	0,005
715,7	0,005
716,2	0,005
716,6	0,005
717	0,005
717,5	0,005
717,9	0,005
718,3	0,005
718,8	0,005
719,2	0,005
719,7	0,005
720,1	0,005
720,5	0,005
721	0,006
721,4	0,006
721,8	0,006
722,3	0,006
722,7	0,006
723,2	0,006
723,6	0,006
724	0,006
724,5	0,006
724,9	0,006
725,3	0,006
725,8	0,005
726,2	0,005
726,7	0,006
727,1	0,005
727,5	0,005
728	0,005
728,4	0,005
728,8	0,005
729,3	0,005
729,7	0,005
730,1	0,005
730,6	0,005
731	0,005
731,5	0,005
731,9	0,005
732,3	0,005
732,8	0,005
733,2	0,005
733,6	0,004
734,1	0,004
734,5	0,004
734,9	0,004
735,4	0,005
735,8	0,005
736,3	0,005
736,7	0,005
737,1	0,005
737,6	0,005
738	0,005
738,4	0,005
738,9	0,005
739,3	0,004
739,7	0,004
740,2	0,005
740,6	0,004
741,1	0,004
741,5	0,004
741,9	0,004
742,4	0,004
742,8	0,004
743,2	0,004
743,7	0,004
744,1	0,004
744,5	0,005
745	0,005
745,4	0,006
745,8	0,006
746,3	0,006
746,7	0,006
747,2	0,005
747,6	0,005
748	0,005
748,5	0,005
748,9	0,005
749,3	0,005
749,8	0,005
750,2	0,005
750,6	0,005
751,1	0,005
751,5	0,006
751,9	0,006
752,4	0,005
752,8	0,005
753,3	0,005
753,7	0,005
754,1	0,005
754,6	0,005
755	0,005
755,4	0,005
755,9	0,005
756,3	0,005
756,7	0,005
757,2	0,005
757,6	0,005
758	0,005
758,5	0,005
758,9	0,005
759,3	0,005
759,8	0,005
760,2	0,005
760,6	0,004
761,1	0,005
761,5	0,005
761,9	0,005
762,4	0,005
762,8	0,005
763,3	0,004
763,7	0,005
764,1	0,004
764,6	0,004
765	0,004
765,4	0,004
765,9	0,004
766,3	0,004
766,7	0,004
767,2	0,005
767,6	0,005
768	0,005
768,5	0,005
768,9	0,005
769,3	0,005
769,8	0,005
770,2	0,005
770,6	0,005
771,1	0,005
771,5	0,004
771,9	0,004
772,4	0,004
772,8	0,004
773,2	0,004
773,7	0,004
774,1	0,004
774,5	0,005
775	0,005
775,4	0,005
775,8	0,005
776,3	0,005
776,7	0,005
777,1	0,005
777,6	0,005
778	0,005
778,4	0,004
778,9	0,004
779,3	0,004
779,7	0,005
780,2	0,005
780,6	0,005
781	0,005
781,5	0,005
781,9	0,005
782,3	0,005
782,8	0,004
783,2	0,004
783,6	0,004
784,1	0,004
784,5	0,004
784,9	0,004
785,4	0,004
785,8	0,004
786,2	0,004
786,7	0,005
787,1	0,005
787,5	0,005
788	0,005
788,4	0,005
788,8	0,005
789,3	0,005
789,7	0,005
790,1	0,005
790,6	0,004
791	0,004
791,4	0,004
791,9	0,004
792,3	0,004
792,7	0,004
793,2	0,004
793,6	0,004
794	0,004
794,5	0,004
794,9	0,004
795,3	0,004
795,8	0,004
796,2	0,004
796,6	0,004
797,1	0,004
797,5	0,004
797,9	0,004
798,4	0,004
798,8	0,004
799,2	0,004
799,7	0,004
800,1	0,004
800,5	0,004
801	0,004
801,4	0,004
801,8	0,004
802,2	0,005
802,7	0,004
803,1	0,004
803,5	0,004
804	0,005
804,4	0,005
804,8	0,004
805,3	0,004
805,7	0,004
806,1	0,004
806,6	0,004
807	0,004
807,4	0,004
807,9	0,004
808,3	0,004
808,7	0,004
809,2	0,004
809,6	0,004
810	0,004
810,4	0,003
810,9	0,004
811,3	0,004
811,7	0,004
812,2	0,004
812,6	0,003
813	0,003
813,5	0,004
813,9	0,003
814,3	0,004
814,8	0,004
815,2	0,004
815,6	0,004
816,1	0,004
816,5	0,004
816,9	0,004
817,3	0,003
817,8	0,003
818,2	0,003
818,6	0,003
819,1	0,003
819,5	0,003
819,9	0,004
820,4	0,004
820,8	0,004
821,2	0,004
821,7	0,004
822,1	0,004
822,5	0,004
822,9	0,005
823,4	0,005
823,8	0,005
824,2	0,005
824,7	0,005
825,1	0,005
825,5	0,004
826	0,004
826,4	0,004
826,8	0,003
827,3	0,004
827,7	0,004
828,1	0,003
828,5	0,003
829	0,003
829,4	0,003
829,8	0,003
830,3	0,003
830,7	0,003
831,1	0,003
831,6	0,003
832	0,003
832,4	0,003
832,8	0,003
833,3	0,003
833,7	0,003
834,1	0,004
834,6	0,004
835	0,004
835,4	0,004
835,8	0,004
836,3	0,004
836,7	0,004
837,1	0,004
837,6	0,004
838	0,003
838,4	0,004
838,9	0,004
839,3	0,004
839,7	0,004
840,1	0,004
840,6	0,004
841	0,004
841,4	0,004
841,9	0,004
842,3	0,004
842,7	0,004
843,1	0,004
843,6	0,004
844	0,004
844,4	0,004
844,9	0,004
845,3	0,004
845,7	0,004
846,2	0,004
846,6	0,003
847	0,004
847,4	0,003
847,9	0,003
848,3	0,003
848,7	0,003
849,2	0,003
849,6	0,003
850	0,003
850,4	0,003
850,9	0,004
851,3	0,004
851,7	0,004
852,2	0,004
852,6	0,003
853	0,003
853,4	0,003
853,9	0,003
854,3	0,003
854,7	0,003
855,2	0,003
855,6	0,003
856	0,004
856,4	0,004
856,9	0,004
857,3	0,003
857,7	0,003
858,2	0,003
858,6	0,003
859	0,003
859,4	0,003
859,9	0,003
860,3	0,003
860,7	0,003
861,1	0,003
861,6	0,003
862	0,003
862,4	0,003
862,9	0,003
863,3	0,003
863,7	0,003
864,1	0,003
864,6	0,003
865	0,003
865,4	0,003
865,9	0,003
866,3	0,003
866,7	0,003
867,1	0,003
867,6	0,003
868	0,004
868,4	0,003
868,8	0,004
869,3	0,004
869,7	0,004
870,1	0,004
870,6	0,004
871	0,004
871,4	0,004
871,8	0,004
872,3	0,004
872,7	0,004
873,1	0,004
873,5	0,004
874	0,004
874,4	0,003
874,8	0,003
875,3	0,003
875,7	0,003
876,1	0,003
876,5	0,003
877	0,003
877,4	0,003
877,8	0,003
878,2	0,004
878,7	0,004
879,1	0,004
879,5	0,004
879,9	0,004
880,4	0,004
880,8	0,004
881,2	0,004
881,7	0,004
882,1	0,004
882,5	0,004
882,9	0,004
883,4	0,004
883,8	0,004
884,2	0,004
884,6	0,003
885,1	0,003
885,5	0,003
885,9	0,003
886,3	0,003
886,8	0,003
887,2	0,003
887,6	0,003
888	0,003
888,5	0,003
888,9	0,003
889,3	0,003
889,8	0,003
890,2	0,003
890,6	0,004
891	0,003
891,5	0,004
891,9	0,004
892,3	0,004
892,7	0,003
893,2	0,003
893,6	0,003
894	0,004
894,4	0,003
894,9	0,003
895,3	0,003
895,7	0,003
896,1	0,003
896,6	0,003
897	0,003
897,4	0,003
897,8	0,003
898,3	0,003
898,7	0,003
899,1	0,003
899,5	0,003
900	0,003
900,4	0,003
900,8	0,003
901,2	0,003
901,7	0,003
902,1	0,003
902,5	0,003
902,9	0,003
903,4	0,003
903,8	0,003
904,2	0,003
904,6	0,003
905,1	0,003
905,5	0,003
905,9	0,003
906,3	0,003
906,8	0,003
907,2	0,003
907,6	0,003
908	0,003
908,5	0,003
908,9	0,003
909,3	0,003
909,7	0,003
910,2	0,003
910,6	0,003
911	0,003
911,4	0,003
911,9	0,003
912,3	0,003
912,7	0,003
913,1	0,003
913,6	0,003
914	0,003
914,4	0,002
914,8	0,002
915,3	0,002
915,7	0,002
916,1	0,002
916,5	0,002
916,9	0,002
917,4	0,003
917,8	0,003
918,2	0,003
918,6	0,003
919,1	0,003
919,5	0,003
919,9	0,003
920,3	0,003
920,8	0,003
921,2	0,003
921,6	0,003
922	0,003
922,5	0,003
922,9	0,003
923,3	0,003
923,7	0,002
924,2	0,002
924,6	0,002
925	0,002
925,4	0,003
925,8	0,002
926,3	0,002
926,7	0,003
927,1	0,003
927,5	0,003
928	0,002
928,4	0,003
928,8	0,003
929,2	0,003
929,7	0,003
930,1	0,003
930,5	0,004
930,9	0,004
931,3	0,004
931,8	0,004
932,2	0,004
932,6	0,005
933	0,005
933,5	0,005
933,9	0,005
934,3	0,004
934,7	0,004
935,2	0,004
935,6	0,004
936	0,004
936,4	0,004
936,8	0,004
937,3	0,003
937,7	0,003
938,1	0,003
938,5	0,003
939	0,002
939,4	0,002
939,8	0,003
940,2	0,003
940,6	0,003
941,1	0,002
941,5	0,002
941,9	0,002
942,3	0,002
942,8	0,002
943,2	0,002
943,6	0,002
944	0,002
944,4	0,002
944,9	0,002
945,3	0,002
945,7	0,003
946,1	0,003
946,6	0,003
947	0,003
947,4	0,003
947,8	0,003
948,2	0,003
948,7	0,003
949,1	0,003
949,5	0,002
949,9	0,003
950,3	0,003
950,8	0,003
951,2	0,003
951,6	0,003
952	0,003
952,5	0,004
952,9	0,003
953,3	0,002
953,7	0,002
954,1	0,002
954,6	0,003
955	0,003
955,4	0,003
955,8	0,003
956,2	0,004
956,7	0,003
957,1	0,004
957,5	0,003
957,9	0,002
958,3	0,002
958,8	0,002
959,2	0,003
959,6	0,003
960	0,004
960,5	0,004
960,9	0,005
961,3	0,005
961,7	0,005
962,1	0,005
962,6	0,005
963	0,004
963,4	0,004
963,8	0,004
964,2	0,004
964,7	0,004
965,1	0,003
965,5	0,003
965,9	0,003
966,3	0,003
966,8	0,003
967,2	0,003
967,6	0,004
968	0,004
968,4	0,004
968,9	0,004
969,3	0,005
969,7	0,004
970,1	0,005
970,5	0,005
971	0,004
971,4	0,004
971,8	0,004
972,2	0,004
972,6	0,004
973,1	0,004
973,5	0,003
973,9	0,004
974,3	0,004
974,7	0,004
975,2	0,004
975,6	0,003
976	0,003
976,4	0,003
976,8	0,003
977,3	0,003
977,7	0,003
978,1	0,003
978,5	0,004
978,9	0,004
979,4	0,004
979,8	0,004
980,2	0,003
980,6	0,003
981	0,003
981,5	0,003
981,9	0,003
982,3	0,003
982,7	0,003
983,1	0,003
983,6	0,004
984	0,004
984,4	0,004
984,8	0,003
985,2	0,003
985,6	0,003
986,1	0,003
986,5	0,003
986,9	0,003
987,3	0,003
987,7	0,003
988,2	0,003
988,6	0,003
989	0,003
989,4	0,003
989,8	0,002
990,3	0,003
990,7	0,003
991,1	0,002
991,5	0,002
991,9	0,002
992,3	0,003
992,8	0,003
993,2	0,002
993,6	0,002
994	0,003
994,4	0,004
994,9	0,003
995,3	0,003
995,7	0,002
996,1	0,003
996,5	0,003
996,9	0,003
997,4	0,003
997,8	0,003
998,2	0,003
998,6	0,003
999	0,002
999,5	0,002
999,9	0,003
1000,3	0,003
1000,7	0,003
1001,1	0,003
1001,5	0,003
1002	0,003
1002,4	0,004
1002,8	0,003
1003,2	0,004
1003,6	0,003
1004	0,003
1004,5	0,003
1004,9	0,004
1005,3	0,004
1005,7	0,003
1006,1	0,003
1006,6	0,003
1007	0,003
1007,4	0,004
1007,8	0,004
1008,2	0,003
1008,6	0,003
1009,1	0,003
1009,5	0,003
1009,9	0,003
1010,3	0,002
1010,7	0,002
1011,1	0,001
1011,6	0,002
1012	0,003
1012,4	0,003
1012,8	0,003
1013,2	0,004
1013,6	0,004
1014,1	0,004
1014,5	0,003
1014,9	0,003
1015,3	0,003
1015,7	0,002
1016,1	0,002
1016,6	0,002
1017	0,002
1017,4	0,002
1017,8	0,002
1018,2	0,002
1018,6	0,002
1019,1	0,002
1019,5	0,003
1019,9	0,003
1020,3	0,003
1020,7	0,002
1021,1	0,003
1021,6	0,003
1022	0,003
1022,4	0,003
1022,8	0,002
1023,2	0,002
1023,6	0,002
1024,1	0,002
1024,5	0,001
1024,9	0,001
1025,3	0,001
1025,7	0,002
1026,1	0,002
1026,6	0,002
1027	0,003
1027,4	0,003
1027,8	0,002
1028,2	0,002
1028,6	0,002
1029	0,002
1029,5	0,002
1029,9	0,001
1030,3	0,001
1030,7	0,001
1031,1	0,001
1031,5	0,001
1032	0
1032,4	0,001
1032,8	0,002
1033,2	0,002
1033,6	0,002
1034	0,002
1034,4	0,003
1034,9	0,003
1035,3	0,002
1035,7	0,001
1036,1	0,001
1036,5	0,001
1036,9	0,001
1037,4	0,001
1037,8	0,001
1038,2	0,002
1038,6	0,002
1039	0,002
1039,4	0,003
1039,8	0,002
1040,3	0,003
1040,7	0,002
1041,1	0,002
1041,5	0,002
1041,9	0,002
1042,3	0,002
1042,7	0,002
1043,2	0,002
1043,6	0,002
1044	0,003
1044,4	0,002
1044,8	0,002
1045,2	0,001
1045,6	0,002
1046,1	0,002
1046,5	0,002
1046,9	0,001
1047,3	0,001
1047,7	0
1048,1	0,001
1048,5	0,002
1049	0,001
1049,4	0,001
1049,8	0,001
1050,2	0,001
1050,6	0,002
1051	0,002
1051,4	0,001
1051,9	0,001
1052,3	0,001
1052,7	0,002
1053,1	0,002
1053,5	0,002
1053,9	0,003
1054,3	0,002
1054,8	0,002
1055,2	0,001
1055,6	0
1056	-0
1056,4	-0
1056,8	-0,001
1057,2	0
1057,6	0,001
1058,1	0,002
1058,5	0,002
1058,9	0,003
1059,3	0,003
1059,7	0,003
1060,1	0,003
1060,5	0,002
1061	0,001
1061,4	0,001
1061,8	0,001
1062,2	-0
1062,6	0,001
1063	0
1063,4	0,002
1063,8	0,002
1064,3	0,003
1064,7	0,002
1065,1	0,003
1065,5	0,002
1065,9	0,002
1066,3	0,002
1066,7	0,002
1067,1	0,002
1067,6	0,003
1068	0,003
1068,4	0,002
1068,8	0,003
1069,2	0,003
1069,6	0,003
1070	0,004
1070,4	0,003
1070,9	0,003
1071,3	0,003
1071,7	0,002
1072,1	0,001
1072,5	0,002
1072,9	0,001
1073,3	0
1073,7	0
1074,2	0,002
1074,6	0,002
1075	0,002
1075,4	-0
1075,8	0
1076,2	0
1076,6	0,001
1077	0,001
1077,5	0,001
1077,9	-0
1078,3	0,003
1078,7	0,002
1079,1	0,001
1079,5	0,001
1079,9	0,001
1080,3	0,001
1080,7	0,003
1081,2	0,002
1081,6	0,003
1082	0,004
1082,4	0,004
1082,8	0,005
1083,2	0,005
1083,6	0,005
1084	0,004
1084,5	0,004
1084,9	0,003
1085,3	-0
1085,7	-0,003
1086,1	-0,002
1086,5	-0,004
1086,9	-0,004
1087,3	-0,006
1087,7	-0,005
1088,2	-0,002
1088,6	-0
1089	-0,001
1089,4	0
1089,8	0,002
1090,2	0,004
1090,6	0,001
1091	0,002
1091,4	0,003
1091,9	0,001
1092,3	-0,001
1092,7	-0,003
1093,1	-0,003
1093,5	-0,002
1093,9	0
1094,3	0
1094,7	0,001
1095,1	0,002
1095,5	0,002
1096	-0,002
1096,4	0
1096,8	-0,002
1097,2	-0,006
1097,6	-0,007
1098	-0,01
1098,4	-0,008
1098,8	-0,005
1099,2	-0,007
1099,6	0,003
1100,1	0,005
1100,5	0,005
1100,9	0,001
1101,3	0,006
1101,7	0,01
1102,1	0,005
1102,5	-0,003
1102,9	-0,005
1103,3	0,003
1103,7	0,011
1104,2	0,003
1104,6	0,004
1105	0,011
1105,4	0,003
1105,8	0,003
1106,2	0,01
1106,6	0,015
1107	0,014
1107,4	0,02
1107,8	0,022
1108,3	0,526
