Data from Absorbance_00015.txt Node
Date: Wed Aug 02 17:43:33 MSK 2023
User: vat
Spectrometer: MAYP114033
Trigger mode: 0
Integration Time (sec): 8,000000E-3
Scans to average: 10
Electric dark correction enabled: true
Nonlinearity correction enabled: false
Boxcar width: 3
XAxis mode: Wavelengths
Number of Pixels in Spectrum: 2068
>>>>>Begin Spectral Data<<<<<
199,4	-0
199,9	0,082
200,4	0,417
200,8	0,662
201,3	0,832
201,8	0,933
202,2	0,961
202,7	0,96
203,2	0,986
203,6	1,001
204,1	1,054
204,6	1,061
205	1,068
205,5	1,087
206	1,094
206,4	1,117
206,9	1,145
207,4	1,136
207,8	1,154
208,3	1,173
208,8	1,182
209,2	1,226
209,7	1,249
210,2	1,242
210,6	1,265
211,1	1,264
211,5	1,273
212	1,277
212,5	1,29
212,9	1,297
213,4	1,314
213,9	1,311
214,3	1,344
214,8	1,345
215,3	1,371
215,7	1,362
216,2	1,362
216,7	1,404
217,1	1,446
217,6	1,461
218,1	1,481
218,5	1,517
219	1,523
219,5	1,568
219,9	1,574
220,4	1,575
220,9	1,588
221,3	1,602
221,8	1,599
222,3	1,643
222,7	1,639
223,2	1,649
223,6	1,663
224,1	1,685
224,6	1,703
225	1,72
225,5	1,725
226	1,742
226,4	1,751
226,9	1,77
227,4	1,784
227,8	1,815
228,3	1,823
228,8	1,828
229,2	1,833
229,7	1,849
230,2	1,874
230,6	1,89
231,1	1,861
231,5	1,859
232	1,89
232,5	1,9
232,9	1,897
233,4	1,877
233,9	1,878
234,3	1,903
234,8	1,933
235,3	1,938
235,7	1,947
236,2	1,958
236,7	1,991
237,1	1,992
237,6	2,009
238,1	1,996
238,5	1,985
239	1,998
239,4	2,003
239,9	2,006
240,4	2,019
240,8	2,018
241,3	2,025
241,8	2,021
242,2	2,004
242,7	2,021
243,2	2,009
243,6	2,02
244,1	2,008
244,6	2,02
245	2,043
245,5	2,079
245,9	2,071
246,4	2,101
246,9	2,101
247,3	2,126
247,8	2,117
248,3	2,115
248,7	2,11
249,2	2,115
249,7	2,127
250,1	2,136
250,6	2,13
251	2,144
251,5	2,152
252	2,163
252,4	2,153
252,9	2,135
253,4	2,145
253,8	2,158
254,3	2,17
254,8	2,194
255,2	2,172
255,7	2,204
256,1	2,209
256,6	2,181
257,1	2,189
257,5	2,176
258	2,168
258,5	2,181
258,9	2,169
259,4	2,152
259,9	2,165
260,3	2,143
260,8	2,143
261,2	2,133
261,7	2,14
262,2	2,155
262,6	2,175
263,1	2,165
263,6	2,158
264	2,168
264,5	2,184
264,9	2,174
265,4	2,159
265,9	2,174
266,3	2,177
266,8	2,204
267,3	2,199
267,7	2,182
268,2	2,192
268,7	2,192
269,1	2,155
269,6	2,157
270	2,152
270,5	2,172
271	2,173
271,4	2,152
271,9	2,147
272,4	2,172
272,8	2,202
273,3	2,215
273,7	2,205
274,2	2,21
274,7	2,231
275,1	2,248
275,6	2,241
276,1	2,213
276,5	2,203
277	2,201
277,4	2,191
277,9	2,203
278,4	2,208
278,8	2,202
279,3	2,196
279,8	2,185
280,2	2,166
280,7	2,158
281,1	2,138
281,6	2,131
282,1	2,121
282,5	2,121
283	2,119
283,4	2,108
283,9	2,117
284,4	2,118
284,8	2,099
285,3	2,092
285,8	2,069
286,2	2,03
286,7	1,991
287,1	1,942
287,6	1,891
288,1	1,842
288,5	1,775
289	1,702
289,5	1,639
289,9	1,569
290,4	1,494
290,8	1,418
291,3	1,35
291,8	1,287
292,2	1,227
292,7	1,167
293,1	1,115
293,6	1,069
294,1	1,024
294,5	0,982
295	0,945
295,5	0,91
295,9	0,878
296,4	0,852
296,8	0,828
297,3	0,808
297,8	0,79
298,2	0,773
298,7	0,759
299,1	0,747
299,6	0,736
300,1	0,726
300,5	0,717
301	0,707
301,5	0,699
301,9	0,691
302,4	0,683
302,8	0,675
303,3	0,667
303,8	0,659
304,2	0,654
304,7	0,648
305,1	0,641
305,6	0,635
306,1	0,629
306,5	0,624
307	0,62
307,4	0,614
307,9	0,609
308,4	0,604
308,8	0,599
309,3	0,593
309,8	0,588
310,2	0,582
310,7	0,577
311,1	0,572
311,6	0,567
312,1	0,561
312,5	0,557
313	0,551
313,4	0,545
313,9	0,541
314,4	0,535
314,8	0,53
315,3	0,525
315,7	0,519
316,2	0,515
316,7	0,509
317,1	0,504
317,6	0,499
318	0,493
318,5	0,488
319	0,483
319,4	0,479
319,9	0,474
320,3	0,468
320,8	0,464
321,3	0,459
321,7	0,455
322,2	0,45
322,6	0,445
323,1	0,44
323,6	0,435
324	0,43
324,5	0,425
324,9	0,42
325,4	0,416
325,9	0,411
326,3	0,406
326,8	0,401
327,2	0,397
327,7	0,393
328,2	0,388
328,6	0,383
329,1	0,378
329,5	0,373
330	0,367
330,5	0,362
330,9	0,357
331,4	0,352
331,8	0,348
332,3	0,344
332,8	0,34
333,2	0,337
333,7	0,333
334,1	0,328
334,6	0,324
335,1	0,319
335,5	0,315
336	0,31
336,4	0,305
336,9	0,3
337,4	0,295
337,8	0,291
338,3	0,286
338,7	0,281
339,2	0,276
339,7	0,272
340,1	0,267
340,6	0,263
341	0,258
341,5	0,253
342	0,25
342,4	0,246
342,9	0,242
343,3	0,238
343,8	0,234
344,2	0,231
344,7	0,227
345,2	0,224
345,6	0,22
346,1	0,215
346,5	0,211
347	0,208
347,5	0,204
347,9	0,2
348,4	0,196
348,8	0,193
349,3	0,19
349,8	0,186
350,2	0,182
350,7	0,179
351,1	0,176
351,6	0,172
352	0,169
352,5	0,166
353	0,162
353,4	0,159
353,9	0,156
354,3	0,153
354,8	0,15
355,3	0,147
355,7	0,144
356,2	0,141
356,6	0,139
357,1	0,136
357,5	0,134
358	0,132
358,5	0,13
358,9	0,128
359,4	0,125
359,8	0,122
360,3	0,12
360,8	0,117
361,2	0,114
361,7	0,111
362,1	0,109
362,6	0,106
363	0,104
363,5	0,102
364	0,099
364,4	0,097
364,9	0,096
365,3	0,093
365,8	0,092
366,3	0,09
366,7	0,089
367,2	0,087
367,6	0,087
368,1	0,085
368,5	0,083
369	0,082
369,5	0,081
369,9	0,079
370,4	0,078
370,8	0,075
371,3	0,074
371,7	0,074
372,2	0,072
372,7	0,071
373,1	0,069
373,6	0,068
374	0,067
374,5	0,065
374,9	0,063
375,4	0,062
375,9	0,06
376,3	0,059
376,8	0,058
377,2	0,057
377,7	0,056
378,2	0,056
378,6	0,054
379,1	0,053
379,5	0,053
380	0,052
380,4	0,051
380,9	0,05
381,4	0,049
381,8	0,048
382,3	0,048
382,7	0,047
383,2	0,046
383,6	0,045
384,1	0,045
384,6	0,043
385	0,043
385,5	0,042
385,9	0,041
386,4	0,04
386,8	0,039
387,3	0,038
387,7	0,037
388,2	0,037
388,7	0,036
389,1	0,036
389,6	0,034
390	0,033
390,5	0,032
390,9	0,031
391,4	0,03
391,9	0,029
392,3	0,029
392,8	0,028
393,2	0,028
393,7	0,028
394,1	0,027
394,6	0,027
395,1	0,027
395,5	0,026
396	0,026
396,4	0,026
396,9	0,025
397,3	0,025
397,8	0,024
398,2	0,023
398,7	0,023
399,2	0,023
399,6	0,023
400,1	0,023
400,5	0,022
401	0,022
401,4	0,022
401,9	0,021
402,4	0,02
402,8	0,02
403,3	0,018
403,7	0,018
404,2	0,017
404,6	0,017
405,1	0,017
405,5	0,017
406	0,017
406,5	0,017
406,9	0,018
407,4	0,018
407,8	0,018
408,3	0,018
408,7	0,017
409,2	0,017
409,6	0,016
410,1	0,016
410,6	0,016
411	0,014
411,5	0,014
411,9	0,014
412,4	0,014
412,8	0,014
413,3	0,014
413,7	0,014
414,2	0,015
414,7	0,015
415,1	0,015
415,6	0,015
416	0,015
416,5	0,014
416,9	0,013
417,4	0,013
417,8	0,012
418,3	0,011
418,8	0,011
419,2	0,011
419,7	0,011
420,1	0,011
420,6	0,01
421	0,01
421,5	0,01
421,9	0,01
422,4	0,01
422,8	0,01
423,3	0,01
423,8	0,009
424,2	0,009
424,7	0,009
425,1	0,009
425,6	0,009
426	0,008
426,5	0,008
426,9	0,008
427,4	0,009
427,9	0,008
428,3	0,008
428,8	0,008
429,2	0,008
429,7	0,008
430,1	0,008
430,6	0,008
431	0,008
431,5	0,008
431,9	0,008
432,4	0,008
432,8	0,008
433,3	0,008
433,8	0,007
434,2	0,007
434,7	0,007
435,1	0,007
435,6	0,007
436	0,007
436,5	0,007
436,9	0,007
437,4	0,006
437,8	0,006
438,3	0,006
438,8	0,006
439,2	0,006
439,7	0,006
440,1	0,005
440,6	0,006
441	0,006
441,5	0,006
441,9	0,006
442,4	0,006
442,8	0,006
443,3	0,005
443,7	0,005
444,2	0,004
444,7	0,004
445,1	0,003
445,6	0,004
446	0,003
446,5	0,003
446,9	0,003
447,4	0,003
447,8	0,003
448,3	0,003
448,7	0,003
449,2	0,003
449,6	0,003
450,1	0,003
450,6	0,004
451	0,004
451,5	0,004
451,9	0,004
452,4	0,004
452,8	0,003
453,3	0,003
453,7	0,002
454,2	0,002
454,6	0,002
455,1	0,003
455,5	0,003
456	0,003
456,4	0,004
456,9	0,004
457,3	0,005
457,8	0,004
458,3	0,004
458,7	0,004
459,2	0,005
459,6	0,004
460,1	0,004
460,5	0,004
461	0,004
461,4	0,004
461,9	0,004
462,3	0,003
462,8	0,004
463,2	0,004
463,7	0,004
464,1	0,004
464,6	0,004
465	0,004
465,5	0,005
466	0,004
466,4	0,004
466,9	0,003
467,3	0,003
467,8	0,003
468,2	0,003
468,7	0,003
469,1	0,003
469,6	0,003
470	0,003
470,5	0,003
470,9	0,003
471,4	0,003
471,8	0,003
472,3	0,003
472,7	0,003
473,2	0,003
473,6	0,003
474,1	0,003
474,5	0,003
475	0,003
475,4	0,003
475,9	0,003
476,4	0,003
476,8	0,004
477,3	0,004
477,7	0,003
478,2	0,004
478,6	0,004
479,1	0,004
479,5	0,004
480	0,004
480,4	0,004
480,9	0,004
481,3	0,004
481,8	0,004
482,2	0,004
482,7	0,004
483,1	0,004
483,6	0,003
484	0,003
484,5	0,003
484,9	0,002
485,4	0,002
485,8	0,002
486,3	0,002
486,7	0,003
487,2	0,003
487,6	0,003
488,1	0,003
488,5	0,003
489	0,003
489,4	0,003
489,9	0,003
490,4	0,003
490,8	0,003
491,3	0,003
491,7	0,003
492,2	0,003
492,6	0,003
493,1	0,003
493,5	0,003
494	0,003
494,4	0,003
494,9	0,003
495,3	0,003
495,8	0,004
496,2	0,004
496,7	0,003
497,1	0,003
497,6	0,003
498	0,003
498,5	0,003
498,9	0,003
499,4	0,002
499,8	0,003
500,3	0,003
500,7	0,004
501,2	0,003
501,6	0,003
502,1	0,003
502,5	0,004
503	0,004
503,4	0,004
503,9	0,003
504,3	0,003
504,8	0,003
505,2	0,003
505,7	0,003
506,1	0,003
506,6	0,003
507	0,003
507,5	0,003
507,9	0,003
508,4	0,003
508,8	0,003
509,3	0,003
509,7	0,003
510,2	0,004
510,6	0,004
511,1	0,003
511,5	0,004
512	0,003
512,4	0,003
512,9	0,003
513,3	0,003
513,8	0,003
514,2	0,003
514,7	0,004
515,1	0,004
515,6	0,005
516	0,004
516,5	0,004
516,9	0,004
517,4	0,004
517,8	0,005
518,3	0,005
518,7	0,005
519,2	0,006
519,6	0,006
520,1	0,005
520,5	0,005
521	0,005
521,4	0,005
521,9	0,005
522,3	0,004
522,8	0,004
523,2	0,003
523,7	0,004
524,1	0,004
524,6	0,004
525	0,003
525,5	0,004
525,9	0,004
526,4	0,004
526,8	0,004
527,3	0,002
527,7	0,002
528,2	0,003
528,6	0,003
529,1	0,003
529,5	0,003
530	0,004
530,4	0,005
530,9	0,006
531,3	0,005
531,8	0,005
532,2	0,005
532,6	0,006
533,1	0,005
533,5	0,005
534	0,004
534,4	0,004
534,9	0,004
535,3	0,003
535,8	0,003
536,2	0,004
536,7	0,003
537,1	0,004
537,6	0,003
538	0,004
538,5	0,004
538,9	0,004
539,4	0,004
539,8	0,004
540,3	0,004
540,7	0,004
541,2	0,003
541,6	0,003
542,1	0,003
542,5	0,003
543	0,003
543,4	0,003
543,9	0,004
544,3	0,004
544,8	0,005
545,2	0,004
545,7	0,005
546,1	0,004
546,5	0,005
547	0,004
547,4	0,004
547,9	0,003
548,3	0,004
548,8	0,004
549,2	0,005
549,7	0,005
550,1	0,005
550,6	0,004
551	0,005
551,5	0,005
551,9	0,005
552,4	0,004
552,8	0,004
553,3	0,004
553,7	0,004
554,2	0,004
554,6	0,003
555,1	0,004
555,5	0,004
555,9	0,004
556,4	0,003
556,8	0,003
557,3	0,003
557,7	0,003
558,2	0,003
558,6	0,004
559,1	0,004
559,5	0,005
560	0,005
560,4	0,005
560,9	0,005
561,3	0,004
561,8	0,004
562,2	0,004
562,7	0,004
563,1	0,005
563,6	0,004
564	0,004
564,4	0,004
564,9	0,005
565,3	0,004
565,8	0,004
566,2	0,004
566,7	0,004
567,1	0,004
567,6	0,004
568	0,004
568,5	0,004
568,9	0,005
569,4	0,005
569,8	0,005
570,3	0,005
570,7	0,005
571,1	0,005
571,6	0,005
572	0,005
572,5	0,005
572,9	0,004
573,4	0,004
573,8	0,004
574,3	0,004
574,7	0,004
575,2	0,004
575,6	0,004
576,1	0,004
576,5	0,004
576,9	0,004
577,4	0,004
577,8	0,004
578,3	0,004
578,7	0,004
579,2	0,004
579,6	0,004
580,1	0,004
580,5	0,004
581	0,003
581,4	0,003
581,9	0,003
582,3	0,003
582,7	0,004
583,2	0,003
583,6	0,003
584,1	0,004
584,5	0,004
585	0,004
585,4	0,004
585,9	0,004
586,3	0,004
586,8	0,004
587,2	0,004
587,6	0,004
588,1	0,004
588,5	0,004
589	0,004
589,4	0,004
589,9	0,004
590,3	0,004
590,8	0,004
591,2	0,004
591,7	0,004
592,1	0,004
592,5	0,005
593	0,004
593,4	0,005
593,9	0,005
594,3	0,005
594,8	0,005
595,2	0,005
595,7	0,004
596,1	0,004
596,6	0,004
597	0,004
597,4	0,003
597,9	0,004
598,3	0,004
598,8	0,004
599,2	0,004
599,7	0,004
600,1	0,004
600,6	0,004
601	0,004
601,4	0,004
601,9	0,003
602,3	0,003
602,8	0,003
603,2	0,003
603,7	0,004
604,1	0,004
604,6	0,004
605	0,004
605,4	0,004
605,9	0,004
606,3	0,004
606,8	0,004
607,2	0,004
607,7	0,003
608,1	0,004
608,6	0,004
609	0,004
609,4	0,004
609,9	0,004
610,3	0,004
610,8	0,004
611,2	0,004
611,7	0,004
612,1	0,004
612,6	0,004
613	0,004
613,4	0,004
613,9	0,004
614,3	0,004
614,8	0,004
615,2	0,004
615,7	0,003
616,1	0,003
616,6	0,003
617	0,003
617,4	0,003
617,9	0,002
618,3	0,003
618,8	0,003
619,2	0,003
619,7	0,002
620,1	0,003
620,5	0,002
621	0,002
621,4	0,002
621,9	0,002
622,3	0,002
622,8	0,003
623,2	0,003
623,6	0,003
624,1	0,003
624,5	0,003
625	0,003
625,4	0,003
625,9	0,003
626,3	0,002
626,8	0,002
627,2	0,003
627,6	0,002
628,1	0,002
628,5	0,002
629	0,002
629,4	0,003
629,9	0,003
630,3	0,003
630,7	0,003
631,2	0,003
631,6	0,004
632,1	0,004
632,5	0,003
633	0,003
633,4	0,003
633,8	0,003
634,3	0,003
634,7	0,002
635,2	0,003
635,6	0,003
636,1	0,003
636,5	0,003
636,9	0,003
637,4	0,003
637,8	0,003
638,3	0,003
638,7	0,003
639,2	0,003
639,6	0,003
640	0,003
640,5	0,003
640,9	0,004
641,4	0,003
641,8	0,003
642,2	0,003
642,7	0,003
643,1	0,004
643,6	0,003
644	0,003
644,5	0,003
644,9	0,003
645,3	0,002
645,8	0,002
646,2	0,002
646,7	0,002
647,1	0,002
647,6	0,003
648	0,002
648,4	0,003
648,9	0,003
649,3	0,003
649,8	0,003
650,2	0,003
650,6	0,003
651,1	0,003
651,5	0,003
652	0,003
652,4	0,002
652,9	0,003
653,3	0,003
653,7	0,003
654,2	0,003
654,6	0,002
655,1	0,002
655,5	0,002
655,9	0,002
656,4	0,001
656,8	0,002
657,3	0,002
657,7	0,002
658,2	0,002
658,6	0,002
659	0,002
659,5	0,004
659,9	0,003
660,4	0,003
660,8	0,003
661,2	0,003
661,7	0,003
662,1	0,003
662,6	0,003
663	0,003
663,4	0,003
663,9	0,003
664,3	0,003
664,8	0,003
665,2	0,003
665,6	0,003
666,1	0,002
666,5	0,003
667	0,003
667,4	0,003
667,9	0,002
668,3	0,002
668,7	0,002
669,2	0,003
669,6	0,002
670,1	0,002
670,5	0,003
670,9	0,003
671,4	0,003
671,8	0,002
672,3	0,002
672,7	0,003
673,1	0,003
673,6	0,002
674	0,002
674,5	0,002
674,9	0,003
675,3	0,002
675,8	0,002
676,2	0,002
676,7	0,002
677,1	0,002
677,5	0,002
678	0,002
678,4	0,001
678,9	0,001
679,3	0,001
679,7	0,001
680,2	0
680,6	0
681,1	0
681,5	0
681,9	0,001
682,4	0,001
682,8	0,001
683,3	0,002
683,7	0,002
684,1	0,002
684,6	0,002
685	0,002
685,5	0,002
685,9	0,002
686,3	0,002
686,8	0,002
687,2	0,002
687,7	0,002
688,1	0,002
688,5	0,001
689	0,001
689,4	0,001
689,9	0,001
690,3	0,001
690,7	0,001
691,2	0,001
691,6	0,001
692	0,002
692,5	0,002
692,9	0,002
693,4	0,002
693,8	0,002
694,2	0,002
694,7	0,002
695,1	0,002
695,6	0,002
696	0,001
696,4	0,001
696,9	0,002
697,3	0,001
697,8	0,002
698,2	0,002
698,6	0,002
699,1	0,002
699,5	0,002
699,9	0,002
700,4	0,002
700,8	0,002
701,3	0,002
701,7	0,002
702,1	0,001
702,6	0,002
703	0,002
703,5	0,002
703,9	0,002
704,3	0,002
704,8	0,002
705,2	0,003
705,6	0,002
706,1	0,003
706,5	0,003
707	0,002
707,4	0,002
707,8	0,002
708,3	0,002
708,7	0,002
709,2	0,002
709,6	0,002
710	0,002
710,5	0,002
710,9	0,002
711,3	0,002
711,8	0,002
712,2	0,002
712,7	0,002
713,1	0,002
713,5	0,002
714	0,001
714,4	0,001
714,8	0,001
715,3	0,001
715,7	0,001
716,2	0,002
716,6	0,001
717	0,001
717,5	0,002
717,9	0,002
718,3	0,001
718,8	0,001
719,2	0,001
719,7	0,002
720,1	0,002
720,5	0,002
721	0,002
721,4	0,002
721,8	0,002
722,3	0,002
722,7	0,001
723,2	0,002
723,6	0,001
724	0,001
724,5	0,001
724,9	0,001
725,3	0,002
725,8	0,002
726,2	0,002
726,7	0,002
727,1	0,001
727,5	0,001
728	0,001
728,4	0,001
728,8	0,001
729,3	0,001
729,7	0,001
730,1	0,001
730,6	0,001
731	0,002
731,5	0,002
731,9	0,002
732,3	0,001
732,8	0,001
733,2	0,001
733,6	0,001
734,1	0,001
734,5	0,001
734,9	0,001
735,4	0,001
735,8	0,001
736,3	0,002
736,7	0,002
737,1	0,001
737,6	0,001
738	0,001
738,4	0,001
738,9	0,002
739,3	0,001
739,7	0,001
740,2	0,001
740,6	0,001
741,1	0,001
741,5	0,001
741,9	0,001
742,4	0
742,8	0,001
743,2	0,001
743,7	0,001
744,1	0,001
744,5	0,001
745	0,001
745,4	0,002
745,8	0,002
746,3	0,002
746,7	0,002
747,2	0,002
747,6	0,001
748	0,001
748,5	0,001
748,9	0,001
749,3	0,001
749,8	0,001
750,2	0,002
750,6	0,002
751,1	0,002
751,5	0,002
751,9	0,002
752,4	0,002
752,8	0,002
753,3	0,002
753,7	0,002
754,1	0,001
754,6	0,002
755	0,001
755,4	0,001
755,9	0,002
756,3	0,001
756,7	0,001
757,2	0,001
757,6	0,001
758	0,001
758,5	0,001
758,9	0,001
759,3	0,001
759,8	0,001
760,2	0,001
760,6	0,001
761,1	0,001
761,5	0,001
761,9	0,001
762,4	0,001
762,8	0,001
763,3	0,001
763,7	0,001
764,1	0,001
764,6	0,001
765	0,001
765,4	0,001
765,9	0,001
766,3	0,001
766,7	0,001
767,2	0,001
767,6	0,001
768	0,001
768,5	0,001
768,9	0,001
769,3	0,001
769,8	0,001
770,2	0,001
770,6	0,001
771,1	0,001
771,5	0,001
771,9	0,001
772,4	0,001
772,8	0,001
773,2	0,001
773,7	0,001
774,1	0,001
774,5	0,002
775	0,002
775,4	0,002
775,8	0,002
776,3	0,002
776,7	0,002
777,1	0,002
777,6	0,002
778	0,002
778,4	0,002
778,9	0,002
779,3	0,002
779,7	0,002
780,2	0,002
780,6	0,002
781	0,002
781,5	0,001
781,9	0,002
782,3	0,002
782,8	0,001
783,2	0,001
783,6	0,001
784,1	0,001
784,5	0,001
784,9	0,001
785,4	0,001
785,8	0,001
786,2	0,001
786,7	0,001
787,1	0,002
787,5	0,002
788	0,002
788,4	0,001
788,8	0,001
789,3	0,001
789,7	0,001
790,1	0,001
790,6	0,001
791	0,002
791,4	0,002
791,9	0,002
792,3	0,002
792,7	0,002
793,2	0,002
793,6	0,002
794	0,001
794,5	0,002
794,9	0,002
795,3	0,002
795,8	0,002
796,2	0,002
796,6	0,002
797,1	0,002
797,5	0,001
797,9	0,001
798,4	0,001
798,8	0,001
799,2	0,001
799,7	0,001
800,1	0,001
800,5	0,001
801	0,001
801,4	0,001
801,8	0,002
802,2	0,002
802,7	0,002
803,1	0,002
803,5	0,002
804	0,002
804,4	0,002
804,8	0,002
805,3	0,002
805,7	0,002
806,1	0,002
806,6	0,002
807	0,002
807,4	0,001
807,9	0,001
808,3	0,001
808,7	0,001
809,2	0
809,6	0
810	-0
810,4	0
810,9	0,001
811,3	0,001
811,7	0,001
812,2	0,001
812,6	0,001
813	0,001
813,5	0,001
813,9	0,001
814,3	0,001
814,8	0,001
815,2	0,001
815,6	0,001
816,1	0,001
816,5	0,001
816,9	0,001
817,3	0,001
817,8	0
818,2	0
818,6	0
819,1	0
819,5	0,001
819,9	0,001
820,4	0,001
820,8	0,002
821,2	0,002
821,7	0,002
822,1	0,002
822,5	0,002
822,9	0,002
823,4	0,002
823,8	0,002
824,2	0,002
824,7	0,002
825,1	0,001
825,5	0,001
826	0,001
826,4	0,001
826,8	0
827,3	0
827,7	0,001
828,1	0,001
828,5	0,001
829	0,001
829,4	0,001
829,8	0,001
830,3	0,001
830,7	0,001
831,1	0,001
831,6	0
832	0
832,4	0,001
832,8	0,001
833,3	0
833,7	0,001
834,1	0,001
834,6	0,001
835	0,002
835,4	0,001
835,8	0,002
836,3	0,002
836,7	0,002
837,1	0,002
837,6	0,002
838	0,002
838,4	0,002
838,9	0,002
839,3	0,002
839,7	0,002
840,1	0,002
840,6	0,002
841	0,001
841,4	0,002
841,9	0,002
842,3	0,002
842,7	0,002
843,1	0,002
843,6	0,002
844	0,002
844,4	0,002
844,9	0,002
845,3	0,002
845,7	0,002
846,2	0,002
846,6	0,001
847	0,001
847,4	0,001
847,9	0
848,3	0,001
848,7	0
849,2	0
849,6	0,001
850	0,001
850,4	0,001
850,9	0,001
851,3	0,001
851,7	0,001
852,2	0,001
852,6	0,001
853	0,001
853,4	0,001
853,9	0,001
854,3	0,002
854,7	0,002
855,2	0,002
855,6	0,002
856	0,002
856,4	0,002
856,9	0,001
857,3	0,001
857,7	0,001
858,2	0,001
858,6	0,001
859	0,001
859,4	0
859,9	0
860,3	-0
860,7	-0
861,1	-0
861,6	0
862	0
862,4	0
862,9	0,001
863,3	0,001
863,7	0,001
864,1	0,001
864,6	0,001
865	0,001
865,4	0,001
865,9	0,001
866,3	0,001
866,7	0,001
867,1	0,001
867,6	0,001
868	0,001
868,4	0,001
868,8	0,001
869,3	0,001
869,7	0,001
870,1	0,002
870,6	0,002
871	0,001
871,4	0,001
871,8	0,001
872,3	0,002
872,7	0,001
873,1	0,001
873,5	0,002
874	0,001
874,4	0,001
874,8	0,001
875,3	0,001
875,7	0,001
876,1	0,001
876,5	0,001
877	0,002
877,4	0,002
877,8	0,002
878,2	0,002
878,7	0,002
879,1	0,002
879,5	0,002
879,9	0,002
880,4	0,002
880,8	0,002
881,2	0,002
881,7	0,001
882,1	0,001
882,5	0,001
882,9	0,001
883,4	0,001
883,8	0,001
884,2	0,002
884,6	0,001
885,1	0,002
885,5	0,002
885,9	0,001
886,3	0,002
886,8	0,002
887,2	0,002
887,6	0,001
888	0,001
888,5	0,001
888,9	0,001
889,3	0,001
889,8	0,001
890,2	0,002
890,6	0,002
891	0,002
891,5	0,002
891,9	0,002
892,3	0,002
892,7	0,002
893,2	0,002
893,6	0,002
894	0,002
894,4	0,002
894,9	0,002
895,3	0,001
895,7	0,002
896,1	0,001
896,6	0,001
897	0,001
897,4	0,001
897,8	0,001
898,3	0
898,7	0
899,1	0
899,5	0
900	0
900,4	0,001
900,8	0,001
901,2	0,001
901,7	0,001
902,1	0,001
902,5	0,001
902,9	0,001
903,4	0,001
903,8	0,001
904,2	0,001
904,6	0
905,1	0
905,5	0
905,9	0,001
906,3	0,001
906,8	0,001
907,2	0,001
907,6	0,001
908	0,001
908,5	0,001
908,9	0,001
909,3	0,001
909,7	0,001
910,2	0,001
910,6	0,002
911	0,002
911,4	0,002
911,9	0,002
912,3	0,002
912,7	0,002
913,1	0,002
913,6	0,002
914	0,002
914,4	0,001
914,8	0,002
915,3	0,001
915,7	0,001
916,1	0,001
916,5	0,001
916,9	0,001
917,4	0,002
917,8	0,001
918,2	0,002
918,6	0,001
919,1	0,001
919,5	0,001
919,9	0,001
920,3	0,001
920,8	0,001
921,2	0,001
921,6	0,001
922	0,001
922,5	0,001
922,9	0,001
923,3	0,001
923,7	0,001
924,2	0
924,6	0
925	0,001
925,4	0,001
925,8	0,001
926,3	0,001
926,7	0,001
927,1	0,001
927,5	0,001
928	0,001
928,4	0,001
928,8	0,001
929,2	0,001
929,7	0,002
930,1	0,002
930,5	0,002
930,9	0,003
931,3	0,003
931,8	0,003
932,2	0,003
932,6	0,003
933	0,003
933,5	0,003
933,9	0,002
934,3	0,002
934,7	0,002
935,2	0,002
935,6	0,002
936	0,002
936,4	0,002
936,8	0,002
937,3	0,001
937,7	0,001
938,1	0,001
938,5	0,001
939	0,001
939,4	0
939,8	0
940,2	0
940,6	0
941,1	0
941,5	0
941,9	0
942,3	0
942,8	0,001
943,2	0,001
943,6	0,001
944	0,001
944,4	0,001
944,9	0,002
945,3	0,002
945,7	0,002
946,1	0,003
946,6	0,003
947	0,003
947,4	0,002
947,8	0,001
948,2	0,001
948,7	0,001
949,1	0
949,5	0
949,9	0
950,3	0,001
950,8	0,002
951,2	0,001
951,6	0,002
952	0,002
952,5	0,003
952,9	0,002
953,3	0,002
953,7	0,002
954,1	0,002
954,6	0,002
955	0,002
955,4	0,002
955,8	0,002
956,2	0,002
956,7	0,002
957,1	0,001
957,5	0,001
957,9	0,002
958,3	0,002
958,8	0,002
959,2	0,002
959,6	0,002
960	0,003
960,5	0,003
960,9	0,003
961,3	0,002
961,7	0,003
962,1	0,003
962,6	0,003
963	0,002
963,4	0,003
963,8	0,003
964,2	0,003
964,7	0,003
965,1	0,002
965,5	0,002
965,9	0,002
966,3	0,001
966,8	0,001
967,2	0,001
967,6	0,002
968	0,002
968,4	0,002
968,9	0,002
969,3	0,002
969,7	0,002
970,1	0,002
970,5	0,002
971	0,002
971,4	0,002
971,8	0,002
972,2	0,002
972,6	0,003
973,1	0,003
973,5	0,002
973,9	0,002
974,3	0,002
974,7	0,001
975,2	0,001
975,6	0,001
976	0
976,4	0,001
976,8	0,001
977,3	0,002
977,7	0,002
978,1	0,002
978,5	0,003
978,9	0,003
979,4	0,003
979,8	0,003
980,2	0,003
980,6	0,003
981	0,003
981,5	0,003
981,9	0,003
982,3	0,002
982,7	0,002
983,1	0,002
983,6	0,002
984	0,002
984,4	0,002
984,8	0,001
985,2	0,001
985,6	0,001
986,1	0,001
986,5	0,001
986,9	0,001
987,3	0
987,7	0
988,2	0,001
988,6	0,001
989	0,001
989,4	0,001
989,8	0,001
990,3	0,002
990,7	0,002
991,1	0,002
991,5	0,002
991,9	0,001
992,3	0,002
992,8	0,001
993,2	0
993,6	0
994	0
994,4	0,001
994,9	0,001
995,3	0,001
995,7	0
996,1	0,002
996,5	0,002
996,9	0,002
997,4	0,002
997,8	0,002
998,2	0,002
998,6	0,002
999	0,002
999,5	0,001
999,9	0,002
1000,3	0,002
1000,7	0,002
1001,1	0,002
1001,5	0,002
1002	0,002
1002,4	0,002
1002,8	0,002
1003,2	0,002
1003,6	0,001
1004	0,001
1004,5	0,002
1004,9	0,002
1005,3	0,002
1005,7	0,001
1006,1	0
1006,6	0,001
1007	0,001
1007,4	0,001
1007,8	0
1008,2	0,001
1008,6	0,001
1009,1	0,002
1009,5	0,002
1009,9	0,002
1010,3	0,001
1010,7	0,002
1011,1	0,001
1011,6	0,002
1012	0,001
1012,4	0,001
1012,8	0,002
1013,2	0,002
1013,6	0,002
1014,1	0,002
1014,5	0,002
1014,9	0,002
1015,3	0,002
1015,7	0,002
1016,1	0,003
1016,6	0,002
1017	0,002
1017,4	0,002
1017,8	0,001
1018,2	0,001
1018,6	0
1019,1	-0
1019,5	-0
1019,9	-0
1020,3	0
1020,7	0
1021,1	0
1021,6	-0
1022	0
1022,4	0
1022,8	0
1023,2	-0,001
1023,6	-0
1024,1	-0
1024,5	0
1024,9	0
1025,3	0,001
1025,7	0,001
1026,1	0,002
1026,6	0,002
1027	0,002
1027,4	0,002
1027,8	0,002
1028,2	0,002
1028,6	0,001
1029	0,001
1029,5	0,001
1029,9	0
1030,3	0,001
1030,7	0,001
1031,1	0,001
1031,5	0,001
1032	0,001
1032,4	0
1032,8	0,001
1033,2	0
1033,6	0
1034	0
1034,4	0
1034,9	0,001
1035,3	0,001
1035,7	0,001
1036,1	0,001
1036,5	0,001
1036,9	0,001
1037,4	0,001
1037,8	0,001
1038,2	0,002
1038,6	0,002
1039	0,001
1039,4	0,002
1039,8	0,002
1040,3	0,002
1040,7	0,002
1041,1	0,002
1041,5	0,002
1041,9	0,002
1042,3	0,002
1042,7	0,002
1043,2	0,002
1043,6	0,002
1044	0,002
1044,4	0,001
1044,8	0,002
1045,2	0,002
1045,6	0,003
1046,1	0,003
1046,5	0,002
1046,9	0,002
1047,3	0,001
1047,7	0,001
1048,1	-0,001
1048,5	-0,001
1049	-0,001
1049,4	-0
1049,8	-0
1050,2	0
1050,6	0,001
1051	0,001
1051,4	0,001
1051,9	0,002
1052,3	0,001
1052,7	0,001
1053,1	0,001
1053,5	0
1053,9	0,001
1054,3	0,001
1054,8	0,001
1055,2	0
1055,6	0
1056	-0
1056,4	-0,001
1056,8	-0,001
1057,2	-0,001
1057,6	-0,001
1058,1	0
1058,5	0,001
1058,9	0,001
1059,3	0,002
1059,7	0
1060,1	0,001
1060,5	-0
1061	-0,001
1061,4	-0,001
1061,8	-0,001
1062,2	-0,001
1062,6	0,001
1063	0,001
1063,4	0,002
1063,8	0,003
1064,3	0,002
1064,7	0,003
1065,1	0,002
1065,5	0,001
1065,9	0,001
1066,3	0,001
1066,7	0
1067,1	0
1067,6	0
1068	0
1068,4	0
1068,8	0,001
1069,2	0,001
1069,6	0,002
1070	0,001
1070,4	0,002
1070,9	0,001
1071,3	0,001
1071,7	0
1072,1	0,001
1072,5	0,001
1072,9	0,001
1073,3	0,001
1073,7	0,002
1074,2	0,001
1074,6	0,002
1075	0,002
1075,4	0,001
1075,8	0,001
1076,2	0
1076,6	0
1077	0,001
1077,5	-0
1077,9	-0,002
1078,3	-0
1078,7	0
1079,1	0
1079,5	0
1079,9	0,001
1080,3	0,001
1080,7	0,002
1081,2	0,001
1081,6	0,002
1082	0,001
1082,4	0,001
1082,8	0,001
1083,2	0,002
1083,6	0,004
1084	0,005
1084,5	0,005
1084,9	0,005
1085,3	0,004
1085,7	0,004
1086,1	0,004
1086,5	0,002
1086,9	-0
1087,3	-0,003
1087,7	-0,004
1088,2	-0,003
1088,6	-0,004
1089	-0,005
1089,4	-0,006
1089,8	-0,003
1090,2	-0,001
1090,6	-0,003
1091	0
1091,4	0,001
1091,9	-0,001
1092,3	-0,001
1092,7	-0,004
1093,1	-0,006
1093,5	-0,001
1093,9	-0,001
1094,3	-0,001
1094,7	0,001
1095,1	0,008
1095,5	0,01
1096	0,01
1096,4	0,009
1096,8	0,009
1097,2	0,003
1097,6	-0,003
1098	-0,005
1098,4	-0,003
1098,8	0,001
1099,2	-0,002
1099,6	0,005
1100,1	0,014
1100,5	0,021
1100,9	0,026
1101,3	0,031
1101,7	0,038
1102,1	0,041
1102,5	0,033
1102,9	0,025
1103,3	0,028
1103,7	0,019
1104,2	0,013
1104,6	0,008
1105	0,009
1105,4	0,002
1105,8	0,011
1106,2	0,006
1106,6	0,012
1107	0,014
1107,4	0,012
1107,8	0,02
1108,3	0,675
