Data from Absorbance_00008.txt Node
Date: Wed Aug 02 17:34:06 MSK 2023
User: vat
Spectrometer: MAYP114033
Trigger mode: 0
Integration Time (sec): 8,000000E-3
Scans to average: 10
Electric dark correction enabled: true
Nonlinearity correction enabled: false
Boxcar width: 3
XAxis mode: Wavelengths
Number of Pixels in Spectrum: 2068
>>>>>Begin Spectral Data<<<<<
199,4	-0
199,9	0,383
200,4	0,505
200,8	0,732
201,3	0,864
201,8	0,934
202,2	0,946
202,7	0,942
203,2	0,953
203,6	0,985
204,1	1,011
204,6	1,007
205	1,027
205,5	1,048
206	1,071
206,4	1,1
206,9	1,116
207,4	1,116
207,8	1,119
208,3	1,128
208,8	1,133
209,2	1,15
209,7	1,173
210,2	1,178
210,6	1,196
211,1	1,216
211,5	1,233
212	1,238
212,5	1,243
212,9	1,232
213,4	1,237
213,9	1,251
214,3	1,285
214,8	1,271
215,3	1,289
215,7	1,297
216,2	1,297
216,7	1,333
217,1	1,351
217,6	1,341
218,1	1,364
218,5	1,367
219	1,361
219,5	1,384
219,9	1,348
220,4	1,321
220,9	1,304
221,3	1,269
221,8	1,244
222,3	1,224
222,7	1,182
223,2	1,153
223,6	1,127
224,1	1,097
224,6	1,065
225	1,033
225,5	0,997
226	0,97
226,4	0,943
226,9	0,918
227,4	0,894
227,8	0,877
228,3	0,861
228,8	0,845
229,2	0,828
229,7	0,814
230,2	0,803
230,6	0,794
231,1	0,783
231,5	0,774
232	0,771
232,5	0,767
232,9	0,766
233,4	0,764
233,9	0,764
234,3	0,769
234,8	0,777
235,3	0,782
235,7	0,791
236,2	0,802
236,7	0,814
237,1	0,828
237,6	0,841
238,1	0,855
238,5	0,875
239	0,896
239,4	0,917
239,9	0,941
240,4	0,964
240,8	0,989
241,3	1,015
241,8	1,039
242,2	1,064
242,7	1,092
243,2	1,122
243,6	1,15
244,1	1,18
244,6	1,208
245	1,24
245,5	1,272
245,9	1,306
246,4	1,336
246,9	1,375
247,3	1,407
247,8	1,44
248,3	1,472
248,7	1,499
249,2	1,521
249,7	1,545
250,1	1,567
250,6	1,59
251	1,616
251,5	1,628
252	1,648
252,4	1,666
252,9	1,681
253,4	1,688
253,8	1,703
254,3	1,717
254,8	1,736
255,2	1,746
255,7	1,756
256,1	1,77
256,6	1,774
257,1	1,785
257,5	1,783
258	1,781
258,5	1,777
258,9	1,776
259,4	1,768
259,9	1,77
260,3	1,759
260,8	1,748
261,2	1,744
261,7	1,743
262,2	1,736
262,6	1,723
263,1	1,706
263,6	1,691
264	1,686
264,5	1,678
264,9	1,664
265,4	1,647
265,9	1,631
266,3	1,61
266,8	1,595
267,3	1,562
267,7	1,526
268,2	1,497
268,7	1,464
269,1	1,425
269,6	1,39
270	1,351
270,5	1,312
271	1,274
271,4	1,231
271,9	1,192
272,4	1,155
272,8	1,115
273,3	1,073
273,7	1,032
274,2	0,992
274,7	0,95
275,1	0,908
275,6	0,868
276,1	0,827
276,5	0,788
277	0,751
277,4	0,714
277,9	0,68
278,4	0,646
278,8	0,615
279,3	0,585
279,8	0,558
280,2	0,53
280,7	0,505
281,1	0,48
281,6	0,457
282,1	0,433
282,5	0,412
283	0,391
283,4	0,372
283,9	0,353
284,4	0,337
284,8	0,321
285,3	0,307
285,8	0,294
286,2	0,281
286,7	0,269
287,1	0,257
287,6	0,247
288,1	0,238
288,5	0,229
289	0,222
289,5	0,214
289,9	0,208
290,4	0,203
290,8	0,197
291,3	0,193
291,8	0,189
292,2	0,186
292,7	0,183
293,1	0,181
293,6	0,179
294,1	0,178
294,5	0,176
295	0,176
295,5	0,175
295,9	0,174
296,4	0,175
296,8	0,175
297,3	0,176
297,8	0,177
298,2	0,179
298,7	0,18
299,1	0,182
299,6	0,183
300,1	0,185
300,5	0,187
301	0,189
301,5	0,19
301,9	0,192
302,4	0,193
302,8	0,196
303,3	0,198
303,8	0,2
304,2	0,203
304,7	0,204
305,1	0,206
305,6	0,208
306,1	0,21
306,5	0,212
307	0,213
307,4	0,215
307,9	0,217
308,4	0,22
308,8	0,222
309,3	0,224
309,8	0,227
310,2	0,229
310,7	0,23
311,1	0,233
311,6	0,234
312,1	0,236
312,5	0,238
313	0,238
313,4	0,239
313,9	0,241
314,4	0,242
314,8	0,243
315,3	0,244
315,7	0,245
316,2	0,246
316,7	0,247
317,1	0,248
317,6	0,248
318	0,249
318,5	0,25
319	0,25
319,4	0,252
319,9	0,253
320,3	0,253
320,8	0,254
321,3	0,254
321,7	0,254
322,2	0,255
322,6	0,255
323,1	0,255
323,6	0,255
324	0,255
324,5	0,255
324,9	0,256
325,4	0,256
325,9	0,256
326,3	0,256
326,8	0,256
327,2	0,255
327,7	0,255
328,2	0,253
328,6	0,252
329,1	0,251
329,5	0,25
330	0,248
330,5	0,246
330,9	0,245
331,4	0,244
331,8	0,242
332,3	0,241
332,8	0,239
333,2	0,239
333,7	0,238
334,1	0,236
334,6	0,235
335,1	0,233
335,5	0,231
336	0,229
336,4	0,227
336,9	0,224
337,4	0,222
337,8	0,22
338,3	0,218
338,7	0,215
339,2	0,213
339,7	0,21
340,1	0,208
340,6	0,206
341	0,203
341,5	0,201
342	0,199
342,4	0,196
342,9	0,194
343,3	0,191
343,8	0,189
344,2	0,186
344,7	0,184
345,2	0,181
345,6	0,179
346,1	0,176
346,5	0,173
347	0,171
347,5	0,168
347,9	0,165
348,4	0,162
348,8	0,16
349,3	0,157
349,8	0,154
350,2	0,151
350,7	0,149
351,1	0,146
351,6	0,143
352	0,14
352,5	0,138
353	0,135
353,4	0,133
353,9	0,13
354,3	0,128
354,8	0,126
355,3	0,124
355,7	0,122
356,2	0,119
356,6	0,117
357,1	0,115
357,5	0,113
358	0,11
358,5	0,108
358,9	0,106
359,4	0,104
359,8	0,101
360,3	0,099
360,8	0,097
361,2	0,096
361,7	0,093
362,1	0,091
362,6	0,089
363	0,088
363,5	0,086
364	0,083
364,4	0,081
364,9	0,079
365,3	0,077
365,8	0,076
366,3	0,074
366,7	0,072
367,2	0,072
367,6	0,071
368,1	0,07
368,5	0,068
369	0,067
369,5	0,066
369,9	0,065
370,4	0,064
370,8	0,061
371,3	0,06
371,7	0,059
372,2	0,057
372,7	0,056
373,1	0,054
373,6	0,053
374	0,051
374,5	0,05
374,9	0,049
375,4	0,048
375,9	0,046
376,3	0,046
376,8	0,044
377,2	0,044
377,7	0,043
378,2	0,042
378,6	0,041
379,1	0,04
379,5	0,04
380	0,039
380,4	0,039
380,9	0,038
381,4	0,037
381,8	0,036
382,3	0,036
382,7	0,035
383,2	0,035
383,6	0,034
384,1	0,034
384,6	0,034
385	0,033
385,5	0,033
385,9	0,032
386,4	0,031
386,8	0,031
387,3	0,03
387,7	0,03
388,2	0,03
388,7	0,029
389,1	0,028
389,6	0,028
390	0,027
390,5	0,026
390,9	0,026
391,4	0,026
391,9	0,025
392,3	0,025
392,8	0,024
393,2	0,024
393,7	0,024
394,1	0,024
394,6	0,023
395,1	0,023
395,5	0,023
396	0,023
396,4	0,024
396,9	0,023
397,3	0,022
397,8	0,023
398,2	0,023
398,7	0,022
399,2	0,021
399,6	0,021
400,1	0,021
400,5	0,02
401	0,019
401,4	0,018
401,9	0,018
402,4	0,017
402,8	0,017
403,3	0,017
403,7	0,017
404,2	0,016
404,6	0,016
405,1	0,017
405,5	0,017
406	0,016
406,5	0,016
406,9	0,016
407,4	0,016
407,8	0,016
408,3	0,015
408,7	0,014
409,2	0,014
409,6	0,015
410,1	0,015
410,6	0,014
411	0,014
411,5	0,014
411,9	0,014
412,4	0,014
412,8	0,013
413,3	0,014
413,7	0,013
414,2	0,013
414,7	0,013
415,1	0,013
415,6	0,013
416	0,013
416,5	0,013
416,9	0,013
417,4	0,013
417,8	0,012
418,3	0,012
418,8	0,012
419,2	0,013
419,7	0,012
420,1	0,012
420,6	0,013
421	0,012
421,5	0,012
421,9	0,011
422,4	0,011
422,8	0,011
423,3	0,011
423,8	0,011
424,2	0,011
424,7	0,011
425,1	0,01
425,6	0,011
426	0,01
426,5	0,01
426,9	0,01
427,4	0,01
427,9	0,009
428,3	0,01
428,8	0,01
429,2	0,01
429,7	0,01
430,1	0,01
430,6	0,01
431	0,011
431,5	0,011
431,9	0,011
432,4	0,01
432,8	0,011
433,3	0,01
433,8	0,01
434,2	0,01
434,7	0,01
435,1	0,01
435,6	0,01
436	0,01
436,5	0,01
436,9	0,01
437,4	0,009
437,8	0,009
438,3	0,009
438,8	0,009
439,2	0,009
439,7	0,009
440,1	0,008
440,6	0,009
441	0,009
441,5	0,008
441,9	0,009
442,4	0,008
442,8	0,009
443,3	0,009
443,7	0,009
444,2	0,008
444,7	0,008
445,1	0,007
445,6	0,007
446	0,007
446,5	0,007
446,9	0,007
447,4	0,006
447,8	0,006
448,3	0,007
448,7	0,007
449,2	0,007
449,6	0,007
450,1	0,007
450,6	0,007
451	0,008
451,5	0,007
451,9	0,006
452,4	0,007
452,8	0,007
453,3	0,007
453,7	0,007
454,2	0,006
454,6	0,006
455,1	0,007
455,5	0,007
456	0,007
456,4	0,008
456,9	0,008
457,3	0,008
457,8	0,007
458,3	0,007
458,7	0,007
459,2	0,007
459,6	0,007
460,1	0,006
460,5	0,006
461	0,007
461,4	0,007
461,9	0,006
462,3	0,006
462,8	0,005
463,2	0,006
463,7	0,006
464,1	0,006
464,6	0,006
465	0,006
465,5	0,007
466	0,007
466,4	0,007
466,9	0,006
467,3	0,007
467,8	0,006
468,2	0,006
468,7	0,005
469,1	0,005
469,6	0,005
470	0,005
470,5	0,005
470,9	0,006
471,4	0,006
471,8	0,006
472,3	0,006
472,7	0,006
473,2	0,005
473,6	0,005
474,1	0,005
474,5	0,005
475	0,005
475,4	0,005
475,9	0,005
476,4	0,005
476,8	0,005
477,3	0,006
477,7	0,006
478,2	0,006
478,6	0,006
479,1	0,006
479,5	0,007
480	0,006
480,4	0,006
480,9	0,006
481,3	0,005
481,8	0,006
482,2	0,006
482,7	0,006
483,1	0,005
483,6	0,005
484	0,005
484,5	0,005
484,9	0,004
485,4	0,004
485,8	0,003
486,3	0,003
486,7	0,003
487,2	0,003
487,6	0,003
488,1	0,003
488,5	0,003
489	0,003
489,4	0,003
489,9	0,003
490,4	0,003
490,8	0,004
491,3	0,004
491,7	0,004
492,2	0,004
492,6	0,004
493,1	0,004
493,5	0,004
494	0,004
494,4	0,004
494,9	0,004
495,3	0,004
495,8	0,004
496,2	0,004
496,7	0,004
497,1	0,003
497,6	0,003
498	0,003
498,5	0,004
498,9	0,004
499,4	0,004
499,8	0,004
500,3	0,004
500,7	0,004
501,2	0,005
501,6	0,004
502,1	0,005
502,5	0,005
503	0,004
503,4	0,005
503,9	0,004
504,3	0,004
504,8	0,004
505,2	0,003
505,7	0,004
506,1	0,004
506,6	0,004
507	0,004
507,5	0,003
507,9	0,003
508,4	0,003
508,8	0,003
509,3	0,002
509,7	0,002
510,2	0,002
510,6	0,002
511,1	0,002
511,5	0,002
512	0,002
512,4	0,003
512,9	0,003
513,3	0,003
513,8	0,003
514,2	0,003
514,7	0,003
515,1	0,003
515,6	0,003
516	0,003
516,5	0,003
516,9	0,003
517,4	0,003
517,8	0,002
518,3	0,003
518,7	0,003
519,2	0,003
519,6	0,003
520,1	0,003
520,5	0,003
521	0,004
521,4	0,003
521,9	0,003
522,3	0,003
522,8	0,002
523,2	0,002
523,7	0,002
524,1	0,002
524,6	0,002
525	0,001
525,5	0,002
525,9	0,002
526,4	0,002
526,8	0,002
527,3	0,002
527,7	0,002
528,2	0,003
528,6	0,002
529,1	0,002
529,5	0,003
530	0,003
530,4	0,003
530,9	0,003
531,3	0,003
531,8	0,003
532,2	0,003
532,6	0,003
533,1	0,003
533,5	0,003
534	0,002
534,4	0,003
534,9	0,002
535,3	0,002
535,8	0,002
536,2	0,002
536,7	0,002
537,1	0,003
537,6	0,002
538	0,002
538,5	0,003
538,9	0,002
539,4	0,002
539,8	0,001
540,3	0,002
540,7	0,002
541,2	0,002
541,6	0,002
542,1	0,002
542,5	0,002
543	0,002
543,4	0,002
543,9	0,002
544,3	0,002
544,8	0,002
545,2	0,002
545,7	0,002
546,1	0,001
546,5	0,001
547	0,001
547,4	0,001
547,9	0,001
548,3	0,002
548,8	0,002
549,2	0,002
549,7	0,002
550,1	0,003
550,6	0,003
551	0,003
551,5	0,003
551,9	0,002
552,4	0,002
552,8	0,002
553,3	0,002
553,7	0,001
554,2	0,001
554,6	0,001
555,1	0,001
555,5	0,001
555,9	0
556,4	0
556,8	0,001
557,3	0
557,7	0
558,2	-0
558,6	0
559,1	0,001
559,5	0,001
560	0,001
560,4	0,001
560,9	0,001
561,3	0,001
561,8	0,001
562,2	0,001
562,7	0,001
563,1	0,002
563,6	0,002
564	0,002
564,4	0,002
564,9	0,003
565,3	0,003
565,8	0,002
566,2	0,001
566,7	0,002
567,1	0,002
567,6	0,002
568	0,002
568,5	0,002
568,9	0,002
569,4	0,002
569,8	0,002
570,3	0,002
570,7	0,001
571,1	0,001
571,6	0,001
572	0,001
572,5	0,002
572,9	0,002
573,4	0,002
573,8	0,002
574,3	0,002
574,7	0,002
575,2	0,001
575,6	0,001
576,1	0,001
576,5	0,001
576,9	0,001
577,4	0,001
577,8	0,001
578,3	0,001
578,7	0,001
579,2	0,001
579,6	0,001
580,1	0,001
580,5	0,001
581	0,001
581,4	0,001
581,9	0,001
582,3	0,001
582,7	0,002
583,2	0,002
583,6	0,002
584,1	0,002
584,5	0,002
585	0,002
585,4	0,002
585,9	0,002
586,3	0,001
586,8	0,001
587,2	0,002
587,6	0,001
588,1	0,001
588,5	0,001
589	0,001
589,4	0,001
589,9	0,001
590,3	0,001
590,8	0,001
591,2	0,001
591,7	0,001
592,1	0,001
592,5	0,001
593	0,001
593,4	0,001
593,9	0,001
594,3	0,001
594,8	0,001
595,2	0,001
595,7	0,001
596,1	0,002
596,6	0,001
597	0,001
597,4	0,001
597,9	0,001
598,3	0,001
598,8	0,001
599,2	0,001
599,7	0,001
600,1	0,001
600,6	0
601	0
601,4	0
601,9	0
602,3	0,001
602,8	0,001
603,2	0,001
603,7	0,001
604,1	0,001
604,6	0,002
605	0,001
605,4	0,001
605,9	0,001
606,3	0,002
606,8	0,002
607,2	0,001
607,7	0,001
608,1	0,002
608,6	0,002
609	0,002
609,4	0,002
609,9	0,001
610,3	0,001
610,8	0,001
611,2	0,001
611,7	0,001
612,1	0,001
612,6	0,001
613	0,001
613,4	0,002
613,9	0,002
614,3	0,001
614,8	0,001
615,2	0,001
615,7	0,001
616,1	0
616,6	0
617	0
617,4	0
617,9	0,001
618,3	0,001
618,8	0,001
619,2	0,001
619,7	0,001
620,1	0,001
620,5	0
621	0
621,4	-0
621,9	-0
622,3	0
622,8	0
623,2	-0
623,6	0
624,1	0
624,5	0,001
625	0,001
625,4	0,001
625,9	0,001
626,3	0,001
626,8	0,001
627,2	0,001
627,6	0,001
628,1	0,001
628,5	0,001
629	0,001
629,4	0,001
629,9	0,002
630,3	0,002
630,7	0,002
631,2	0,002
631,6	0,002
632,1	0,003
632,5	0,002
633	0,002
633,4	0,001
633,8	0,001
634,3	0,001
634,7	0,001
635,2	0,001
635,6	0,001
636,1	0,001
636,5	0,001
636,9	0,002
637,4	0,001
637,8	0,001
638,3	0,001
638,7	0,001
639,2	0,001
639,6	0,001
640	0,001
640,5	0,001
640,9	0,001
641,4	0,001
641,8	0,001
642,2	0,001
642,7	0,001
643,1	0,002
643,6	0,001
644	0,001
644,5	0,001
644,9	0,001
645,3	0,001
645,8	0,001
646,2	0
646,7	-0
647,1	0
647,6	0,001
648	0,001
648,4	0,001
648,9	0,001
649,3	0,002
649,8	0,002
650,2	0,002
650,6	0,001
651,1	0,001
651,5	0,001
652	0,001
652,4	0,001
652,9	0,001
653,3	0,001
653,7	0,001
654,2	0,002
654,6	0,002
655,1	0,002
655,5	0,002
655,9	0,001
656,4	0,001
656,8	0,001
657,3	0,001
657,7	0,001
658,2	0,001
658,6	0,001
659	0,001
659,5	0,001
659,9	0,001
660,4	0,001
660,8	0,001
661,2	0,002
661,7	0,002
662,1	0,002
662,6	0,002
663	0,002
663,4	0,002
663,9	0,001
664,3	0,001
664,8	0,001
665,2	0,001
665,6	0,002
666,1	0,001
666,5	0,001
667	0,001
667,4	0,001
667,9	0,001
668,3	0,001
668,7	0,001
669,2	0,001
669,6	0,001
670,1	0,001
670,5	0,002
670,9	0,002
671,4	0,002
671,8	0,001
672,3	0,001
672,7	0,001
673,1	0,001
673,6	0,001
674	0,001
674,5	0,001
674,9	0,001
675,3	0,001
675,8	0,001
676,2	0,001
676,7	0,001
677,1	0,002
677,5	0,001
678	0,001
678,4	0,001
678,9	0,001
679,3	0,001
679,7	0
680,2	0
680,6	0
681,1	-0
681,5	0
681,9	0
682,4	-0
682,8	0,001
683,3	0,001
683,7	0,001
684,1	0,001
684,6	0,001
685	0,001
685,5	0,001
685,9	0,001
686,3	0,001
686,8	0,001
687,2	0,001
687,7	0,001
688,1	0,001
688,5	0
689	0,001
689,4	0,001
689,9	0,001
690,3	0,001
690,7	0,001
691,2	0
691,6	0,001
692	0,001
692,5	0
692,9	0,001
693,4	0,001
693,8	0,001
694,2	0,001
694,7	0,001
695,1	0,001
695,6	0,001
696	0,001
696,4	0,001
696,9	0,001
697,3	0,001
697,8	0,001
698,2	0,001
698,6	0,001
699,1	0,001
699,5	0,001
699,9	0
700,4	0,001
700,8	0,001
701,3	0,001
701,7	0,001
702,1	0,001
702,6	0,001
703	0,002
703,5	0,002
703,9	0,001
704,3	0,001
704,8	0,001
705,2	0,001
705,6	0,001
706,1	0,001
706,5	0,001
707	0,001
707,4	0,001
707,8	0,001
708,3	0,001
708,7	0,001
709,2	0,001
709,6	0,001
710	0,001
710,5	0,001
710,9	0,001
711,3	0,001
711,8	0,001
712,2	0,002
712,7	0,002
713,1	0,001
713,5	0,001
714	0,001
714,4	0,001
714,8	0,001
715,3	0,001
715,7	0,001
716,2	0,001
716,6	0
717	0
717,5	0
717,9	0,001
718,3	0
718,8	0,001
719,2	0,001
719,7	0,001
720,1	0,002
720,5	0,002
721	0,001
721,4	0,001
721,8	0,001
722,3	0,001
722,7	0,001
723,2	0,001
723,6	0,001
724	0,001
724,5	0,001
724,9	0,001
725,3	0,001
725,8	0,001
726,2	0,001
726,7	0,001
727,1	0,001
727,5	0,001
728	0,001
728,4	0,001
728,8	0,001
729,3	0,001
729,7	0,001
730,1	0,001
730,6	0,001
731	0,001
731,5	0,001
731,9	0,001
732,3	0,001
732,8	0,001
733,2	0,001
733,6	0
734,1	0
734,5	0
734,9	0
735,4	0
735,8	0,001
736,3	0,001
736,7	0,001
737,1	0
737,6	0,001
738	0,001
738,4	0,001
738,9	0,001
739,3	0,001
739,7	0,001
740,2	0,001
740,6	0,001
741,1	0,001
741,5	0,001
741,9	0,001
742,4	0,001
742,8	0,001
743,2	0,001
743,7	0,001
744,1	0,001
744,5	0,002
745	0,002
745,4	0,002
745,8	0,001
746,3	0,002
746,7	0,002
747,2	0,001
747,6	0,001
748	0,001
748,5	0,001
748,9	0,001
749,3	0,001
749,8	0,001
750,2	0,001
750,6	0,002
751,1	0,002
751,5	0,002
751,9	0,001
752,4	0,001
752,8	0,001
753,3	0,001
753,7	0,001
754,1	0
754,6	0,001
755	0,001
755,4	0,001
755,9	0,001
756,3	0,001
756,7	0,001
757,2	0,001
757,6	0,001
758	0,001
758,5	0,001
758,9	0,001
759,3	0,001
759,8	0,001
760,2	0,001
760,6	0,001
761,1	0,001
761,5	0,001
761,9	0,001
762,4	0,001
762,8	0,001
763,3	0,001
763,7	0,001
764,1	0
764,6	0
765	0
765,4	-0
765,9	0
766,3	0
766,7	0
767,2	0,001
767,6	0,001
768	0,001
768,5	0,001
768,9	0,001
769,3	0,001
769,8	0,001
770,2	0,001
770,6	0,001
771,1	0,001
771,5	0,001
771,9	0,001
772,4	0,001
772,8	0,001
773,2	0,001
773,7	0,001
774,1	0,001
774,5	0,001
775	0,001
775,4	0,002
775,8	0,002
776,3	0,001
776,7	0,001
777,1	0,002
777,6	0,001
778	0,001
778,4	0,001
778,9	0,001
779,3	0,001
779,7	0,001
780,2	0,001
780,6	0,001
781	0,001
781,5	0,001
781,9	0,001
782,3	0,001
782,8	0
783,2	0
783,6	0
784,1	0,001
784,5	0,001
784,9	0,001
785,4	0,001
785,8	0,001
786,2	0,001
786,7	0,001
787,1	0,001
787,5	0,001
788	0,001
788,4	0,001
788,8	0,001
789,3	0,001
789,7	0,002
790,1	0,002
790,6	0,001
791	0,002
791,4	0,001
791,9	0,002
792,3	0,002
792,7	0,001
793,2	0,001
793,6	0,001
794	0,001
794,5	0,001
794,9	0,001
795,3	0,001
795,8	0,001
796,2	0,001
796,6	0,001
797,1	0,001
797,5	0,001
797,9	0,001
798,4	0,001
798,8	0,001
799,2	0,001
799,7	0,001
800,1	0,001
800,5	0,001
801	0,001
801,4	0,001
801,8	0,001
802,2	0,001
802,7	0,001
803,1	0,001
803,5	0,001
804	0,001
804,4	0,001
804,8	0,001
805,3	0,001
805,7	0,001
806,1	0,001
806,6	0,001
807	0,001
807,4	0,001
807,9	0
808,3	0
808,7	0
809,2	0
809,6	0
810	0
810,4	0
810,9	0,001
811,3	0,001
811,7	0
812,2	0,001
812,6	0,001
813	0,001
813,5	0,001
813,9	0,001
814,3	0,001
814,8	0,002
815,2	0,001
815,6	0,001
816,1	0,001
816,5	0,001
816,9	0,001
817,3	0,001
817,8	0,001
818,2	0,001
818,6	0,001
819,1	0,001
819,5	0,001
819,9	0,001
820,4	0,001
820,8	0,001
821,2	0,001
821,7	0,001
822,1	0,001
822,5	0,001
822,9	0,001
823,4	0,001
823,8	0,001
824,2	0,001
824,7	0,001
825,1	0,001
825,5	0,001
826	0,001
826,4	0,001
826,8	0,001
827,3	0,001
827,7	0
828,1	0
828,5	0
829	0
829,4	0
829,8	0
830,3	0
830,7	0
831,1	0
831,6	-0
832	-0
832,4	0
832,8	-0
833,3	-0
833,7	-0
834,1	0
834,6	0
835	0,001
835,4	0,001
835,8	0,001
836,3	0,001
836,7	0,001
837,1	0,001
837,6	0,001
838	0,001
838,4	0,001
838,9	0,002
839,3	0,002
839,7	0,002
840,1	0,002
840,6	0,001
841	0,001
841,4	0,001
841,9	0,001
842,3	0
842,7	0
843,1	0,001
843,6	0,001
844	0,001
844,4	0,001
844,9	0,001
845,3	0,001
845,7	0,001
846,2	0,001
846,6	0,001
847	0,001
847,4	0,001
847,9	0
848,3	0
848,7	0,001
849,2	0,001
849,6	0,001
850	0,001
850,4	0,001
850,9	0,001
851,3	0,001
851,7	0,001
852,2	0,001
852,6	0,001
853	0,001
853,4	0,001
853,9	0,001
854,3	0,002
854,7	0,002
855,2	0,002
855,6	0,002
856	0,002
856,4	0,002
856,9	0,001
857,3	0,001
857,7	0,001
858,2	0,001
858,6	0,001
859	0,001
859,4	0
859,9	0
860,3	0,001
860,7	0,001
861,1	0,001
861,6	0,001
862	0,001
862,4	0,001
862,9	0,002
863,3	0,001
863,7	0,001
864,1	0,001
864,6	0,001
865	0,001
865,4	0,001
865,9	0,001
866,3	0,001
866,7	0,001
867,1	0,001
867,6	0,001
868	0,001
868,4	0,001
868,8	0,001
869,3	0,001
869,7	0,001
870,1	0,001
870,6	0,001
871	0,001
871,4	0,001
871,8	0,001
872,3	0,002
872,7	0,002
873,1	0,002
873,5	0,002
874	0,002
874,4	0,002
874,8	0,002
875,3	0,001
875,7	0,002
876,1	0,001
876,5	0,001
877	0,002
877,4	0,002
877,8	0,002
878,2	0,002
878,7	0,002
879,1	0,002
879,5	0,002
879,9	0,002
880,4	0,001
880,8	0,002
881,2	0,001
881,7	0,001
882,1	0,001
882,5	0,001
882,9	0,001
883,4	0,001
883,8	0,001
884,2	0,001
884,6	0,001
885,1	0,001
885,5	0
885,9	0
886,3	0,001
886,8	0,001
887,2	0
887,6	0,001
888	0,001
888,5	0,001
888,9	0,001
889,3	0,001
889,8	0,001
890,2	0,001
890,6	0,001
891	0,001
891,5	0,001
891,9	0,002
892,3	0,002
892,7	0,001
893,2	0,001
893,6	0,001
894	0,002
894,4	0,001
894,9	0,001
895,3	0,001
895,7	0,002
896,1	0,001
896,6	0,001
897	0,001
897,4	0,001
897,8	0,001
898,3	0,001
898,7	0,001
899,1	0,001
899,5	0,001
900	0,001
900,4	0,001
900,8	0,001
901,2	0,001
901,7	0,001
902,1	0,001
902,5	0,001
902,9	0,001
903,4	0
903,8	0
904,2	0,001
904,6	0,001
905,1	0,001
905,5	0
905,9	0
906,3	0,001
906,8	0,001
907,2	0
907,6	0,001
908	0
908,5	0,001
908,9	0,001
909,3	0,001
909,7	0,001
910,2	0,001
910,6	0,001
911	0,001
911,4	0,001
911,9	0,001
912,3	0,001
912,7	0,001
913,1	0,001
913,6	0,001
914	0
914,4	0
914,8	0
915,3	-0
915,7	-0
916,1	-0
916,5	-0
916,9	-0
917,4	0
917,8	-0
918,2	0
918,6	0
919,1	0
919,5	0
919,9	0
920,3	0,001
920,8	0,001
921,2	0,001
921,6	0,001
922	0,001
922,5	0,001
922,9	0,001
923,3	0
923,7	0
924,2	0
924,6	0
925	0
925,4	0,001
925,8	0,001
926,3	0,001
926,7	0,002
927,1	0,002
927,5	0,001
928	0,002
928,4	0,002
928,8	0,002
929,2	0,002
929,7	0,001
930,1	0,001
930,5	0,001
930,9	0,001
931,3	0,001
931,8	0,001
932,2	0,001
932,6	0,002
933	0,002
933,5	0,003
933,9	0,002
934,3	0,002
934,7	0,002
935,2	0,002
935,6	0,002
936	0,001
936,4	0,001
936,8	0,001
937,3	0,001
937,7	0,001
938,1	0,001
938,5	0,001
939	0
939,4	0
939,8	0
940,2	0,001
940,6	0,001
941,1	0,001
941,5	0,001
941,9	0,001
942,3	0,001
942,8	0,001
943,2	0,001
943,6	0,001
944	0,001
944,4	0,002
944,9	0,002
945,3	0,002
945,7	0,002
946,1	0,001
946,6	0,001
947	0,001
947,4	0,001
947,8	0,001
948,2	0,001
948,7	0,001
949,1	0,001
949,5	0,001
949,9	0,001
950,3	0,001
950,8	0,001
951,2	0,001
951,6	0,001
952	0,001
952,5	0,001
952,9	0
953,3	-0
953,7	0
954,1	0
954,6	0
955	0
955,4	0,001
955,8	0,001
956,2	0,002
956,7	0,001
957,1	0,001
957,5	0,001
957,9	0,001
958,3	0,001
958,8	0,001
959,2	0,002
959,6	0,003
960	0,003
960,5	0,003
960,9	0,003
961,3	0,003
961,7	0,003
962,1	0,003
962,6	0,003
963	0,002
963,4	0,002
963,8	0,002
964,2	0,002
964,7	0,002
965,1	0,002
965,5	0,001
965,9	0,001
966,3	0,001
966,8	0,002
967,2	0,001
967,6	0,002
968	0,001
968,4	0,002
968,9	0,002
969,3	0,002
969,7	0,001
970,1	0,002
970,5	0,002
971	0,002
971,4	0,001
971,8	0,002
972,2	0,001
972,6	0,002
973,1	0,002
973,5	0,002
973,9	0,002
974,3	0,002
974,7	0,002
975,2	0,002
975,6	0,001
976	0,001
976,4	0,001
976,8	0,002
977,3	0,002
977,7	0,002
978,1	0,002
978,5	0,003
978,9	0,003
979,4	0,002
979,8	0,002
980,2	0,001
980,6	0,001
981	0,001
981,5	0,001
981,9	0,002
982,3	0,002
982,7	0,001
983,1	0,002
983,6	0,002
984	0,003
984,4	0,002
984,8	0,002
985,2	0,002
985,6	0,002
986,1	0,002
986,5	0,002
986,9	0,001
987,3	0,001
987,7	0,001
988,2	0,002
988,6	0,002
989	0,002
989,4	0,002
989,8	0,002
990,3	0,003
990,7	0,003
991,1	0,003
991,5	0,002
991,9	0,002
992,3	0,002
992,8	0,001
993,2	0
993,6	0
994	-0
994,4	0,001
994,9	0,001
995,3	0
995,7	0
996,1	0,001
996,5	0,001
996,9	0,001
997,4	0
997,8	0
998,2	0,001
998,6	0,001
999	0
999,5	0
999,9	0,001
1000,3	0,002
1000,7	0,002
1001,1	0,002
1001,5	0,002
1002	0,002
1002,4	0,002
1002,8	0,002
1003,2	0,002
1003,6	0,002
1004	0,002
1004,5	0,002
1004,9	0,002
1005,3	0,001
1005,7	0,001
1006,1	0,001
1006,6	0
1007	0
1007,4	0,001
1007,8	0,001
1008,2	0,001
1008,6	0
1009,1	0
1009,5	0
1009,9	0
1010,3	-0
1010,7	-0
1011,1	-0,001
1011,6	-0
1012	0
1012,4	0,001
1012,8	0,001
1013,2	0,001
1013,6	0,001
1014,1	0,001
1014,5	0,001
1014,9	0,001
1015,3	-0
1015,7	-0,001
1016,1	-0
1016,6	-0,001
1017	-0,001
1017,4	-0
1017,8	-0
1018,2	-0
1018,6	-0,001
1019,1	-0,001
1019,5	-0,001
1019,9	-0,001
1020,3	-0,001
1020,7	-0,002
1021,1	-0,001
1021,6	-0,001
1022	-0,001
1022,4	-0,001
1022,8	-0,001
1023,2	-0,001
1023,6	-0,001
1024,1	-0,001
1024,5	-0
1024,9	-0
1025,3	0,001
1025,7	0,001
1026,1	0,001
1026,6	0,001
1027	0,001
1027,4	0,001
1027,8	0,001
1028,2	0
1028,6	-0
1029	-0,001
1029,5	-0,001
1029,9	-0,001
1030,3	-0,001
1030,7	-0,001
1031,1	-0,001
1031,5	-0,001
1032	-0,001
1032,4	0
1032,8	0
1033,2	0
1033,6	-0
1034	-0
1034,4	-0
1034,9	-0
1035,3	-0
1035,7	-0
1036,1	0
1036,5	0
1036,9	0,001
1037,4	0,001
1037,8	0,001
1038,2	0,001
1038,6	0,001
1039	0,001
1039,4	0,001
1039,8	0,001
1040,3	0,001
1040,7	0
1041,1	0
1041,5	0
1041,9	-0,001
1042,3	-0,001
1042,7	-0,001
1043,2	-0
1043,6	-0
1044	-0
1044,4	-0,001
1044,8	-0
1045,2	-0,001
1045,6	-0
1046,1	-0
1046,5	-0
1046,9	-0,001
1047,3	0
1047,7	0
1048,1	-0,001
1048,5	-0
1049	-0,001
1049,4	-0
1049,8	-0
1050,2	-0
1050,6	0
1051	0,001
1051,4	0,001
1051,9	0,002
1052,3	0,001
1052,7	0,001
1053,1	0,001
1053,5	0,001
1053,9	0,001
1054,3	-0
1054,8	-0,001
1055,2	-0,001
1055,6	-0,001
1056	-0,002
1056,4	-0,001
1056,8	-0,001
1057,2	-0,001
1057,6	0,001
1058,1	0,001
1058,5	0,002
1058,9	0,003
1059,3	0,003
1059,7	0,002
1060,1	0,002
1060,5	0
1061	-0,001
1061,4	-0,001
1061,8	-0,002
1062,2	-0,002
1062,6	-0
1063	-0,001
1063,4	0,001
1063,8	0,001
1064,3	0,001
1064,7	0,001
1065,1	0,001
1065,5	0,001
1065,9	0
1066,3	-0
1066,7	-0,001
1067,1	-0,001
1067,6	0
1068	0
1068,4	-0,001
1068,8	0
1069,2	0,001
1069,6	0,001
1070	0,001
1070,4	0,002
1070,9	0,002
1071,3	0,002
1071,7	0,002
1072,1	0,001
1072,5	0,002
1072,9	0,001
1073,3	0,001
1073,7	0,001
1074,2	0
1074,6	-0
1075	-0,001
1075,4	-0,002
1075,8	-0,001
1076,2	-0,003
1076,6	-0,002
1077	-0,001
1077,5	-0,001
1077,9	-0,002
1078,3	-0,001
1078,7	-0,001
1079,1	-0
1079,5	-0,001
1079,9	-0
1080,3	-0,001
1080,7	0,001
1081,2	0,002
1081,6	0,002
1082	0,001
1082,4	-0,001
1082,8	-0,001
1083,2	-0,001
1083,6	-0,001
1084	-0,004
1084,5	-0,004
1084,9	-0,004
1085,3	-0,003
1085,7	-0,005
1086,1	-0,004
1086,5	-0,004
1086,9	-0,003
1087,3	-0,002
1087,7	-0,001
1088,2	-0
1088,6	0,002
1089	0
1089,4	0
1089,8	0
1090,2	0
1090,6	-0,003
1091	-0,001
1091,4	-0,002
1091,9	-0,005
1092,3	-0,006
1092,7	-0,005
1093,1	-0,007
1093,5	-0,003
1093,9	-0,003
1094,3	0
1094,7	0,004
1095,1	0,005
1095,5	0,004
1096	0,004
1096,4	0,004
1096,8	-0,002
1097,2	-0,008
1097,6	-0,014
1098	-0,016
1098,4	-0,011
1098,8	-0,01
1099,2	-0,014
1099,6	-0,005
1100,1	-0
1100,5	0,004
1100,9	0,006
1101,3	0,009
1101,7	0,014
1102,1	0,014
1102,5	0,01
1102,9	0,011
1103,3	0,02
1103,7	0,021
1104,2	0,01
1104,6	0,016
1105	0,025
1105,4	0,026
1105,8	0,029
1106,2	0,029
1106,6	0,042
1107	0,056
1107,4	0,035
1107,8	0,023
1108,3	0,374
