Data from Absorbance_00004.txt Node
Date: Wed Aug 02 17:30:11 MSK 2023
User: vat
Spectrometer: MAYP114033
Trigger mode: 0
Integration Time (sec): 8,000000E-3
Scans to average: 10
Electric dark correction enabled: true
Nonlinearity correction enabled: false
Boxcar width: 3
XAxis mode: Wavelengths
Number of Pixels in Spectrum: 2068
>>>>>Begin Spectral Data<<<<<
199,4	-0
199,9	0,062
200,4	0,406
200,8	0,695
201,3	0,868
201,8	0,951
202,2	0,967
202,7	0,981
203,2	1,002
203,6	1,032
204,1	1,071
204,6	1,075
205	1,079
205,5	1,096
206	1,096
206,4	1,129
206,9	1,143
207,4	1,131
207,8	1,138
208,3	1,155
208,8	1,162
209,2	1,206
209,7	1,212
210,2	1,226
210,6	1,244
211,1	1,261
211,5	1,284
212	1,299
212,5	1,31
212,9	1,315
213,4	1,32
213,9	1,346
214,3	1,381
214,8	1,379
215,3	1,393
215,7	1,383
216,2	1,411
216,7	1,438
217,1	1,449
217,6	1,445
218,1	1,467
218,5	1,488
219	1,522
219,5	1,549
219,9	1,561
220,4	1,576
220,9	1,613
221,3	1,63
221,8	1,645
222,3	1,658
222,7	1,653
223,2	1,669
223,6	1,693
224,1	1,692
224,6	1,685
225	1,714
225,5	1,718
226	1,742
226,4	1,738
226,9	1,75
227,4	1,757
227,8	1,796
228,3	1,798
228,8	1,813
229,2	1,805
229,7	1,834
230,2	1,843
230,6	1,878
231,1	1,871
231,5	1,863
232	1,894
232,5	1,929
232,9	1,911
233,4	1,91
233,9	1,934
234,3	1,945
234,8	1,965
235,3	1,968
235,7	1,966
236,2	1,998
236,7	2,018
237,1	2
237,6	1,999
238,1	2,004
238,5	1,994
239	1,997
239,4	2,004
239,9	2,004
240,4	2,004
240,8	2,025
241,3	2,036
241,8	2,047
242,2	2,032
242,7	2,038
243,2	2,066
243,6	2,065
244,1	2,063
244,6	2,047
245	2,042
245,5	2,069
245,9	2,078
246,4	2,082
246,9	2,109
247,3	2,113
247,8	2,147
248,3	2,17
248,7	2,186
249,2	2,183
249,7	2,154
250,1	2,164
250,6	2,146
251	2,134
251,5	2,12
252	2,125
252,4	2,117
252,9	2,132
253,4	2,128
253,8	2,156
254,3	2,174
254,8	2,188
255,2	2,166
255,7	2,166
256,1	2,161
256,6	2,143
257,1	2,157
257,5	2,157
258	2,148
258,5	2,161
258,9	2,169
259,4	2,152
259,9	2,177
260,3	2,152
260,8	2,141
261,2	2,163
261,7	2,17
262,2	2,182
262,6	2,208
263,1	2,176
263,6	2,173
264	2,204
264,5	2,203
264,9	2,193
265,4	2,195
265,9	2,218
266,3	2,231
266,8	2,248
267,3	2,23
267,7	2,202
268,2	2,21
268,7	2,208
269,1	2,154
269,6	2,146
270	2,15
270,5	2,144
271	2,167
271,4	2,144
271,9	2,14
272,4	2,178
272,8	2,194
273,3	2,183
273,7	2,209
274,2	2,183
274,7	2,208
275,1	2,186
275,6	2,163
276,1	2,141
276,5	2,135
277	2,107
277,4	2,096
277,9	2,099
278,4	2,09
278,8	2,083
279,3	2,086
279,8	2,085
280,2	2,064
280,7	2,068
281,1	2,034
281,6	2,022
282,1	1,995
282,5	1,972
283	1,925
283,4	1,871
283,9	1,793
284,4	1,722
284,8	1,65
285,3	1,58
285,8	1,504
286,2	1,433
286,7	1,363
287,1	1,299
287,6	1,239
288,1	1,181
288,5	1,127
289	1,077
289,5	1,033
289,9	0,995
290,4	0,962
290,8	0,932
291,3	0,907
291,8	0,884
292,2	0,864
292,7	0,846
293,1	0,831
293,6	0,816
294,1	0,804
294,5	0,791
295	0,782
295,5	0,771
295,9	0,762
296,4	0,754
296,8	0,747
297,3	0,74
297,8	0,734
298,2	0,728
298,7	0,724
299,1	0,721
299,6	0,718
300,1	0,713
300,5	0,709
301	0,706
301,5	0,701
301,9	0,699
302,4	0,694
302,8	0,69
303,3	0,685
303,8	0,682
304,2	0,676
304,7	0,673
305,1	0,667
305,6	0,663
306,1	0,658
306,5	0,654
307	0,65
307,4	0,645
307,9	0,641
308,4	0,636
308,8	0,632
309,3	0,628
309,8	0,622
310,2	0,618
310,7	0,613
311,1	0,609
311,6	0,605
312,1	0,6
312,5	0,595
313	0,59
313,4	0,584
313,9	0,579
314,4	0,573
314,8	0,567
315,3	0,562
315,7	0,555
316,2	0,55
316,7	0,545
317,1	0,54
317,6	0,534
318	0,529
318,5	0,524
319	0,519
319,4	0,513
319,9	0,507
320,3	0,502
320,8	0,498
321,3	0,492
321,7	0,486
322,2	0,481
322,6	0,476
323,1	0,471
323,6	0,465
324	0,459
324,5	0,454
324,9	0,449
325,4	0,444
325,9	0,438
326,3	0,432
326,8	0,427
327,2	0,422
327,7	0,416
328,2	0,411
328,6	0,405
329,1	0,399
329,5	0,393
330	0,388
330,5	0,382
330,9	0,377
331,4	0,371
331,8	0,366
332,3	0,361
332,8	0,355
333,2	0,351
333,7	0,346
334,1	0,341
334,6	0,336
335,1	0,331
335,5	0,326
336	0,321
336,4	0,316
336,9	0,311
337,4	0,305
337,8	0,3
338,3	0,295
338,7	0,29
339,2	0,285
339,7	0,28
340,1	0,276
340,6	0,27
341	0,265
341,5	0,261
342	0,256
342,4	0,252
342,9	0,247
343,3	0,243
343,8	0,239
344,2	0,235
344,7	0,231
345,2	0,227
345,6	0,223
346,1	0,219
346,5	0,214
347	0,21
347,5	0,206
347,9	0,203
348,4	0,199
348,8	0,195
349,3	0,191
349,8	0,188
350,2	0,184
350,7	0,18
351,1	0,176
351,6	0,172
352	0,168
352,5	0,165
353	0,162
353,4	0,158
353,9	0,155
354,3	0,153
354,8	0,15
355,3	0,147
355,7	0,144
356,2	0,141
356,6	0,139
357,1	0,136
357,5	0,134
358	0,131
358,5	0,129
358,9	0,128
359,4	0,126
359,8	0,123
360,3	0,121
360,8	0,119
361,2	0,117
361,7	0,114
362,1	0,112
362,6	0,109
363	0,107
363,5	0,105
364	0,102
364,4	0,099
364,9	0,098
365,3	0,096
365,8	0,095
366,3	0,093
366,7	0,091
367,2	0,091
367,6	0,089
368,1	0,088
368,5	0,086
369	0,085
369,5	0,083
369,9	0,081
370,4	0,08
370,8	0,078
371,3	0,077
371,7	0,076
372,2	0,074
372,7	0,073
373,1	0,071
373,6	0,069
374	0,068
374,5	0,066
374,9	0,064
375,4	0,064
375,9	0,062
376,3	0,061
376,8	0,059
377,2	0,058
377,7	0,058
378,2	0,056
378,6	0,055
379,1	0,054
379,5	0,053
380	0,053
380,4	0,052
380,9	0,051
381,4	0,05
381,8	0,05
382,3	0,049
382,7	0,048
383,2	0,048
383,6	0,047
384,1	0,047
384,6	0,045
385	0,044
385,5	0,043
385,9	0,043
386,4	0,041
386,8	0,041
387,3	0,04
387,7	0,039
388,2	0,039
388,7	0,038
389,1	0,038
389,6	0,037
390	0,036
390,5	0,036
390,9	0,035
391,4	0,034
391,9	0,034
392,3	0,033
392,8	0,032
393,2	0,032
393,7	0,032
394,1	0,031
394,6	0,03
395,1	0,03
395,5	0,029
396	0,03
396,4	0,03
396,9	0,028
397,3	0,028
397,8	0,028
398,2	0,027
398,7	0,027
399,2	0,026
399,6	0,026
400,1	0,026
400,5	0,025
401	0,024
401,4	0,023
401,9	0,022
402,4	0,021
402,8	0,021
403,3	0,021
403,7	0,02
404,2	0,02
404,6	0,02
405,1	0,02
405,5	0,02
406	0,019
406,5	0,019
406,9	0,018
407,4	0,018
407,8	0,018
408,3	0,017
408,7	0,016
409,2	0,016
409,6	0,015
410,1	0,014
410,6	0,014
411	0,014
411,5	0,013
411,9	0,013
412,4	0,013
412,8	0,013
413,3	0,013
413,7	0,013
414,2	0,013
414,7	0,013
415,1	0,013
415,6	0,013
416	0,012
416,5	0,011
416,9	0,011
417,4	0,011
417,8	0,01
418,3	0,01
418,8	0,009
419,2	0,009
419,7	0,009
420,1	0,008
420,6	0,008
421	0,007
421,5	0,007
421,9	0,007
422,4	0,007
422,8	0,007
423,3	0,007
423,8	0,006
424,2	0,006
424,7	0,006
425,1	0,005
425,6	0,005
426	0,004
426,5	0,004
426,9	0,004
427,4	0,003
427,9	0,003
428,3	0,003
428,8	0,002
429,2	0,003
429,7	0,002
430,1	0,002
430,6	0,003
431	0,003
431,5	0,002
431,9	0,003
432,4	0,002
432,8	0,002
433,3	0,002
433,8	0,002
434,2	0,002
434,7	0,002
435,1	0,002
435,6	0,002
436	0,002
436,5	0,001
436,9	0,001
437,4	0,001
437,8	0,001
438,3	0,001
438,8	0,001
439,2	-0
439,7	0
440,1	-0
440,6	-0
441	0
441,5	-0
441,9	0
442,4	0
442,8	-0
443,3	-0
443,7	-0,001
444,2	-0,001
444,7	-0,001
445,1	-0,002
445,6	-0,001
446	-0,002
446,5	-0,002
446,9	-0,002
447,4	-0,002
447,8	-0,003
448,3	-0,002
448,7	-0,002
449,2	-0,002
449,6	-0,002
450,1	-0,002
450,6	-0,002
451	-0,001
451,5	-0,001
451,9	-0,002
452,4	-0,002
452,8	-0,002
453,3	-0,002
453,7	-0,003
454,2	-0,004
454,6	-0,004
455,1	-0,003
455,5	-0,003
456	-0,003
456,4	-0,003
456,9	-0,003
457,3	-0,002
457,8	-0,002
458,3	-0,002
458,7	-0,003
459,2	-0,002
459,6	-0,002
460,1	-0,002
460,5	-0,002
461	-0,002
461,4	-0,002
461,9	-0,003
462,3	-0,003
462,8	-0,003
463,2	-0,004
463,7	-0,003
464,1	-0,002
464,6	-0,003
465	-0,002
465,5	-0,002
466	-0,002
466,4	-0,002
466,9	-0,002
467,3	-0,002
467,8	-0,003
468,2	-0,003
468,7	-0,003
469,1	-0,003
469,6	-0,003
470	-0,003
470,5	-0,003
470,9	-0,003
471,4	-0,003
471,8	-0,004
472,3	-0,004
472,7	-0,004
473,2	-0,005
473,6	-0,005
474,1	-0,004
474,5	-0,004
475	-0,004
475,4	-0,004
475,9	-0,004
476,4	-0,004
476,8	-0,004
477,3	-0,003
477,7	-0,004
478,2	-0,003
478,6	-0,003
479,1	-0,003
479,5	-0,004
480	-0,003
480,4	-0,004
480,9	-0,004
481,3	-0,004
481,8	-0,003
482,2	-0,004
482,7	-0,003
483,1	-0,004
483,6	-0,004
484	-0,004
484,5	-0,004
484,9	-0,004
485,4	-0,004
485,8	-0,005
486,3	-0,005
486,7	-0,005
487,2	-0,005
487,6	-0,005
488,1	-0,005
488,5	-0,005
489	-0,005
489,4	-0,005
489,9	-0,005
490,4	-0,005
490,8	-0,005
491,3	-0,005
491,7	-0,005
492,2	-0,005
492,6	-0,005
493,1	-0,004
493,5	-0,004
494	-0,005
494,4	-0,005
494,9	-0,004
495,3	-0,004
495,8	-0,003
496,2	-0,004
496,7	-0,004
497,1	-0,004
497,6	-0,004
498	-0,004
498,5	-0,004
498,9	-0,004
499,4	-0,004
499,8	-0,004
500,3	-0,004
500,7	-0,004
501,2	-0,004
501,6	-0,004
502,1	-0,003
502,5	-0,003
503	-0,003
503,4	-0,002
503,9	-0,003
504,3	-0,003
504,8	-0,002
505,2	-0,003
505,7	-0,003
506,1	-0,003
506,6	-0,003
507	-0,003
507,5	-0,003
507,9	-0,004
508,4	-0,004
508,8	-0,004
509,3	-0,004
509,7	-0,004
510,2	-0,005
510,6	-0,005
511,1	-0,005
511,5	-0,004
512	-0,004
512,4	-0,005
512,9	-0,005
513,3	-0,004
513,8	-0,004
514,2	-0,004
514,7	-0,005
515,1	-0,004
515,6	-0,003
516	-0,003
516,5	-0,004
516,9	-0,004
517,4	-0,003
517,8	-0,003
518,3	-0,003
518,7	-0,003
519,2	-0,002
519,6	-0,002
520,1	-0,002
520,5	-0,002
521	-0,002
521,4	-0,003
521,9	-0,003
522,3	-0,004
522,8	-0,003
523,2	-0,003
523,7	-0,004
524,1	-0,004
524,6	-0,004
525	-0,004
525,5	-0,004
525,9	-0,004
526,4	-0,004
526,8	-0,004
527,3	-0,005
527,7	-0,004
528,2	-0,003
528,6	-0,004
529,1	-0,004
529,5	-0,003
530	-0,003
530,4	-0,004
530,9	-0,004
531,3	-0,004
531,8	-0,003
532,2	-0,004
532,6	-0,003
533,1	-0,003
533,5	-0,002
534	-0,003
534,4	-0,002
534,9	-0,003
535,3	-0,003
535,8	-0,003
536,2	-0,003
536,7	-0,003
537,1	-0,003
537,6	-0,003
538	-0,003
538,5	-0,003
538,9	-0,003
539,4	-0,004
539,8	-0,004
540,3	-0,003
540,7	-0,003
541,2	-0,003
541,6	-0,003
542,1	-0,004
542,5	-0,003
543	-0,004
543,4	-0,004
543,9	-0,003
544,3	-0,004
544,8	-0,004
545,2	-0,003
545,7	-0,004
546,1	-0,004
546,5	-0,004
547	-0,004
547,4	-0,003
547,9	-0,004
548,3	-0,004
548,8	-0,003
549,2	-0,003
549,7	-0,003
550,1	-0,003
550,6	-0,003
551	-0,003
551,5	-0,003
551,9	-0,003
552,4	-0,003
552,8	-0,003
553,3	-0,004
553,7	-0,004
554,2	-0,004
554,6	-0,004
555,1	-0,004
555,5	-0,004
555,9	-0,004
556,4	-0,003
556,8	-0,003
557,3	-0,003
557,7	-0,003
558,2	-0,004
558,6	-0,004
559,1	-0,004
559,5	-0,003
560	-0,004
560,4	-0,004
560,9	-0,003
561,3	-0,003
561,8	-0,003
562,2	-0,003
562,7	-0,003
563,1	-0,003
563,6	-0,003
564	-0,003
564,4	-0,003
564,9	-0,002
565,3	-0,002
565,8	-0,003
566,2	-0,003
566,7	-0,003
567,1	-0,002
567,6	-0,003
568	-0,003
568,5	-0,002
568,9	-0,002
569,4	-0,002
569,8	-0,002
570,3	-0,002
570,7	-0,002
571,1	-0,002
571,6	-0,003
572	-0,003
572,5	-0,003
572,9	-0,003
573,4	-0,003
573,8	-0,003
574,3	-0,003
574,7	-0,003
575,2	-0,003
575,6	-0,003
576,1	-0,003
576,5	-0,003
576,9	-0,003
577,4	-0,003
577,8	-0,003
578,3	-0,003
578,7	-0,003
579,2	-0,003
579,6	-0,003
580,1	-0,003
580,5	-0,003
581	-0,003
581,4	-0,003
581,9	-0,003
582,3	-0,003
582,7	-0,002
583,2	-0,002
583,6	-0,002
584,1	-0,002
584,5	-0,002
585	-0,002
585,4	-0,003
585,9	-0,003
586,3	-0,003
586,8	-0,003
587,2	-0,003
587,6	-0,003
588,1	-0,003
588,5	-0,003
589	-0,003
589,4	-0,003
589,9	-0,003
590,3	-0,003
590,8	-0,003
591,2	-0,003
591,7	-0,003
592,1	-0,003
592,5	-0,002
593	-0,003
593,4	-0,002
593,9	-0,002
594,3	-0,002
594,8	-0,003
595,2	-0,002
595,7	-0,003
596,1	-0,002
596,6	-0,002
597	-0,002
597,4	-0,002
597,9	-0,002
598,3	-0,003
598,8	-0,002
599,2	-0,003
599,7	-0,003
600,1	-0,003
600,6	-0,003
601	-0,003
601,4	-0,003
601,9	-0,003
602,3	-0,003
602,8	-0,003
603,2	-0,003
603,7	-0,003
604,1	-0,003
604,6	-0,003
605	-0,003
605,4	-0,002
605,9	-0,002
606,3	-0,002
606,8	-0,002
607,2	-0,002
607,7	-0,002
608,1	-0,002
608,6	-0,002
609	-0,002
609,4	-0,002
609,9	-0,002
610,3	-0,002
610,8	-0,003
611,2	-0,003
611,7	-0,003
612,1	-0,003
612,6	-0,003
613	-0,002
613,4	-0,002
613,9	-0,002
614,3	-0,002
614,8	-0,002
615,2	-0,003
615,7	-0,003
616,1	-0,003
616,6	-0,003
617	-0,003
617,4	-0,003
617,9	-0,003
618,3	-0,003
618,8	-0,003
619,2	-0,003
619,7	-0,003
620,1	-0,003
620,5	-0,003
621	-0,003
621,4	-0,003
621,9	-0,003
622,3	-0,003
622,8	-0,003
623,2	-0,003
623,6	-0,003
624,1	-0,003
624,5	-0,003
625	-0,002
625,4	-0,002
625,9	-0,003
626,3	-0,003
626,8	-0,003
627,2	-0,003
627,6	-0,003
628,1	-0,003
628,5	-0,003
629	-0,004
629,4	-0,003
629,9	-0,002
630,3	-0,003
630,7	-0,002
631,2	-0,002
631,6	-0,002
632,1	-0,001
632,5	-0,002
633	-0,002
633,4	-0,002
633,8	-0,002
634,3	-0,002
634,7	-0,002
635,2	-0,002
635,6	-0,002
636,1	-0,002
636,5	-0,002
636,9	-0,002
637,4	-0,002
637,8	-0,002
638,3	-0,003
638,7	-0,003
639,2	-0,003
639,6	-0,003
640	-0,003
640,5	-0,003
640,9	-0,003
641,4	-0,003
641,8	-0,003
642,2	-0,003
642,7	-0,003
643,1	-0,003
643,6	-0,003
644	-0,003
644,5	-0,003
644,9	-0,003
645,3	-0,003
645,8	-0,003
646,2	-0,004
646,7	-0,003
647,1	-0,003
647,6	-0,003
648	-0,002
648,4	-0,002
648,9	-0,002
649,3	-0,002
649,8	-0,002
650,2	-0,002
650,6	-0,002
651,1	-0,002
651,5	-0,002
652	-0,002
652,4	-0,002
652,9	-0,002
653,3	-0,002
653,7	-0,002
654,2	-0,002
654,6	-0,002
655,1	-0,002
655,5	-0,002
655,9	-0,002
656,4	-0,001
656,8	-0,001
657,3	-0,001
657,7	-0,001
658,2	-0,001
658,6	-0,001
659	-0,001
659,5	-0,002
659,9	-0,002
660,4	-0,002
660,8	-0,002
661,2	-0,002
661,7	-0,001
662,1	-0,001
662,6	-0,001
663	-0,002
663,4	-0,002
663,9	-0,002
664,3	-0,003
664,8	-0,003
665,2	-0,003
665,6	-0,003
666,1	-0,003
666,5	-0,003
667	-0,002
667,4	-0,002
667,9	-0,003
668,3	-0,003
668,7	-0,003
669,2	-0,003
669,6	-0,003
670,1	-0,003
670,5	-0,003
670,9	-0,002
671,4	-0,002
671,8	-0,003
672,3	-0,003
672,7	-0,002
673,1	-0,002
673,6	-0,003
674	-0,003
674,5	-0,003
674,9	-0,003
675,3	-0,002
675,8	-0,002
676,2	-0,003
676,7	-0,002
677,1	-0,002
677,5	-0,002
678	-0,002
678,4	-0,002
678,9	-0,003
679,3	-0,003
679,7	-0,003
680,2	-0,004
680,6	-0,004
681,1	-0,004
681,5	-0,004
681,9	-0,003
682,4	-0,003
682,8	-0,003
683,3	-0,002
683,7	-0,002
684,1	-0,002
684,6	-0,002
685	-0,002
685,5	-0,002
685,9	-0,003
686,3	-0,003
686,8	-0,002
687,2	-0,002
687,7	-0,002
688,1	-0,003
688,5	-0,003
689	-0,003
689,4	-0,003
689,9	-0,003
690,3	-0,003
690,7	-0,003
691,2	-0,004
691,6	-0,003
692	-0,003
692,5	-0,003
692,9	-0,002
693,4	-0,003
693,8	-0,002
694,2	-0,002
694,7	-0,001
695,1	-0,002
695,6	-0,001
696	-0,002
696,4	-0,002
696,9	-0,002
697,3	-0,002
697,8	-0,003
698,2	-0,002
698,6	-0,003
699,1	-0,002
699,5	-0,002
699,9	-0,002
700,4	-0,002
700,8	-0,002
701,3	-0,002
701,7	-0,002
702,1	-0,003
702,6	-0,003
703	-0,002
703,5	-0,002
703,9	-0,002
704,3	-0,002
704,8	-0,002
705,2	-0,002
705,6	-0,002
706,1	-0,002
706,5	-0,002
707	-0,002
707,4	-0,002
707,8	-0,002
708,3	-0,002
708,7	-0,002
709,2	-0,002
709,6	-0,002
710	-0,002
710,5	-0,002
710,9	-0,002
711,3	-0,002
711,8	-0,002
712,2	-0,002
712,7	-0,002
713,1	-0,002
713,5	-0,003
714	-0,002
714,4	-0,003
714,8	-0,003
715,3	-0,003
715,7	-0,003
716,2	-0,003
716,6	-0,003
717	-0,003
717,5	-0,003
717,9	-0,003
718,3	-0,003
718,8	-0,003
719,2	-0,002
719,7	-0,002
720,1	-0,002
720,5	-0,002
721	-0,001
721,4	-0,001
721,8	-0,002
722,3	-0,002
722,7	-0,002
723,2	-0,002
723,6	-0,003
724	-0,002
724,5	-0,002
724,9	-0,002
725,3	-0,002
725,8	-0,002
726,2	-0,002
726,7	-0,002
727,1	-0,002
727,5	-0,003
728	-0,003
728,4	-0,003
728,8	-0,003
729,3	-0,003
729,7	-0,003
730,1	-0,002
730,6	-0,002
731	-0,002
731,5	-0,002
731,9	-0,003
732,3	-0,003
732,8	-0,003
733,2	-0,003
733,6	-0,003
734,1	-0,004
734,5	-0,003
734,9	-0,003
735,4	-0,003
735,8	-0,003
736,3	-0,003
736,7	-0,003
737,1	-0,003
737,6	-0,003
738	-0,003
738,4	-0,003
738,9	-0,003
739,3	-0,003
739,7	-0,003
740,2	-0,003
740,6	-0,002
741,1	-0,003
741,5	-0,003
741,9	-0,003
742,4	-0,002
742,8	-0,003
743,2	-0,002
743,7	-0,002
744,1	-0,002
744,5	-0,002
745	-0,002
745,4	-0,001
745,8	-0,001
746,3	-0,001
746,7	-0,002
747,2	-0,002
747,6	-0,002
748	-0,002
748,5	-0,002
748,9	-0,003
749,3	-0,002
749,8	-0,002
750,2	-0,002
750,6	-0,002
751,1	-0,001
751,5	-0,002
751,9	-0,001
752,4	-0,002
752,8	-0,002
753,3	-0,002
753,7	-0,002
754,1	-0,002
754,6	-0,002
755	-0,002
755,4	-0,002
755,9	-0,002
756,3	-0,002
756,7	-0,002
757,2	-0,002
757,6	-0,003
758	-0,003
758,5	-0,003
758,9	-0,003
759,3	-0,003
759,8	-0,003
760,2	-0,003
760,6	-0,003
761,1	-0,003
761,5	-0,003
761,9	-0,002
762,4	-0,002
762,8	-0,002
763,3	-0,003
763,7	-0,003
764,1	-0,003
764,6	-0,003
765	-0,003
765,4	-0,003
765,9	-0,003
766,3	-0,003
766,7	-0,003
767,2	-0,003
767,6	-0,003
768	-0,003
768,5	-0,002
768,9	-0,002
769,3	-0,002
769,8	-0,002
770,2	-0,002
770,6	-0,002
771,1	-0,002
771,5	-0,002
771,9	-0,002
772,4	-0,002
772,8	-0,003
773,2	-0,002
773,7	-0,002
774,1	-0,002
774,5	-0,002
775	-0,002
775,4	-0,002
775,8	-0,002
776,3	-0,002
776,7	-0,002
777,1	-0,002
777,6	-0,002
778	-0,002
778,4	-0,002
778,9	-0,002
779,3	-0,002
779,7	-0,002
780,2	-0,002
780,6	-0,002
781	-0,002
781,5	-0,002
781,9	-0,002
782,3	-0,002
782,8	-0,002
783,2	-0,003
783,6	-0,003
784,1	-0,002
784,5	-0,002
784,9	-0,002
785,4	-0,002
785,8	-0,002
786,2	-0,002
786,7	-0,002
787,1	-0,002
787,5	-0,002
788	-0,002
788,4	-0,002
788,8	-0,003
789,3	-0,002
789,7	-0,003
790,1	-0,003
790,6	-0,003
791	-0,003
791,4	-0,003
791,9	-0,002
792,3	-0,002
792,7	-0,002
793,2	-0,002
793,6	-0,002
794	-0,001
794,5	-0,001
794,9	-0,002
795,3	-0,002
795,8	-0,002
796,2	-0,002
796,6	-0,003
797,1	-0,003
797,5	-0,003
797,9	-0,002
798,4	-0,002
798,8	-0,002
799,2	-0,002
799,7	-0,002
800,1	-0,002
800,5	-0,002
801	-0,002
801,4	-0,002
801,8	-0,002
802,2	-0,002
802,7	-0,002
803,1	-0,002
803,5	-0,002
804	-0,002
804,4	-0,002
804,8	-0,002
805,3	-0,002
805,7	-0,002
806,1	-0,002
806,6	-0,002
807	-0,002
807,4	-0,002
807,9	-0,003
808,3	-0,002
808,7	-0,003
809,2	-0,002
809,6	-0,003
810	-0,003
810,4	-0,003
810,9	-0,003
811,3	-0,003
811,7	-0,003
812,2	-0,003
812,6	-0,003
813	-0,003
813,5	-0,003
813,9	-0,002
814,3	-0,002
814,8	-0,002
815,2	-0,002
815,6	-0,002
816,1	-0,002
816,5	-0,002
816,9	-0,003
817,3	-0,003
817,8	-0,003
818,2	-0,003
818,6	-0,003
819,1	-0,003
819,5	-0,003
819,9	-0,003
820,4	-0,003
820,8	-0,003
821,2	-0,003
821,7	-0,002
822,1	-0,002
822,5	-0,002
822,9	-0,002
823,4	-0,002
823,8	-0,002
824,2	-0,003
824,7	-0,003
825,1	-0,003
825,5	-0,003
826	-0,003
826,4	-0,003
826,8	-0,004
827,3	-0,004
827,7	-0,004
828,1	-0,003
828,5	-0,003
829	-0,003
829,4	-0,004
829,8	-0,003
830,3	-0,004
830,7	-0,003
831,1	-0,004
831,6	-0,004
832	-0,004
832,4	-0,003
832,8	-0,003
833,3	-0,003
833,7	-0,003
834,1	-0,003
834,6	-0,003
835	-0,002
835,4	-0,002
835,8	-0,002
836,3	-0,002
836,7	-0,002
837,1	-0,002
837,6	-0,002
838	-0,002
838,4	-0,001
838,9	-0,001
839,3	-0,001
839,7	-0,001
840,1	-0,001
840,6	-0,001
841	-0,002
841,4	-0,002
841,9	-0,002
842,3	-0,002
842,7	-0,002
843,1	-0,002
843,6	-0,002
844	-0,002
844,4	-0,002
844,9	-0,002
845,3	-0,002
845,7	-0,002
846,2	-0,002
846,6	-0,002
847	-0,002
847,4	-0,003
847,9	-0,003
848,3	-0,003
848,7	-0,003
849,2	-0,003
849,6	-0,003
850	-0,003
850,4	-0,003
850,9	-0,003
851,3	-0,002
851,7	-0,002
852,2	-0,002
852,6	-0,002
853	-0,002
853,4	-0,002
853,9	-0,001
854,3	-0,002
854,7	-0,002
855,2	-0,002
855,6	-0,002
856	-0,002
856,4	-0,002
856,9	-0,002
857,3	-0,002
857,7	-0,002
858,2	-0,002
858,6	-0,002
859	-0,002
859,4	-0,002
859,9	-0,002
860,3	-0,002
860,7	-0,002
861,1	-0,003
861,6	-0,002
862	-0,002
862,4	-0,002
862,9	-0,003
863,3	-0,003
863,7	-0,002
864,1	-0,002
864,6	-0,002
865	-0,002
865,4	-0,002
865,9	-0,002
866,3	-0,001
866,7	-0,001
867,1	-0,001
867,6	-0,001
868	-0,002
868,4	-0,002
868,8	-0,002
869,3	-0,002
869,7	-0,002
870,1	-0,002
870,6	-0,002
871	-0,001
871,4	-0,001
871,8	-0,001
872,3	-0
872,7	-0
873,1	-0,001
873,5	-0,001
874	-0,001
874,4	-0,002
874,8	-0,002
875,3	-0,002
875,7	-0,003
876,1	-0,002
876,5	-0,002
877	-0,002
877,4	-0,002
877,8	-0,002
878,2	-0,001
878,7	-0,001
879,1	-0,001
879,5	-0,001
879,9	-0,002
880,4	-0,001
880,8	-0,001
881,2	-0,001
881,7	-0,001
882,1	-0,001
882,5	-0,001
882,9	-0,001
883,4	-0,001
883,8	-0,001
884,2	-0,001
884,6	-0,002
885,1	-0,002
885,5	-0,002
885,9	-0,002
886,3	-0,002
886,8	-0,002
887,2	-0,002
887,6	-0,002
888	-0,002
888,5	-0,002
888,9	-0,002
889,3	-0,002
889,8	-0,002
890,2	-0,002
890,6	-0,002
891	-0,002
891,5	-0,002
891,9	-0,002
892,3	-0,001
892,7	-0,002
893,2	-0,002
893,6	-0,002
894	-0,002
894,4	-0,002
894,9	-0,002
895,3	-0,002
895,7	-0,002
896,1	-0,002
896,6	-0,002
897	-0,002
897,4	-0,001
897,8	-0,002
898,3	-0,002
898,7	-0,002
899,1	-0,002
899,5	-0,002
900	-0,002
900,4	-0,002
900,8	-0,002
901,2	-0,002
901,7	-0,002
902,1	-0,002
902,5	-0,002
902,9	-0,002
903,4	-0,002
903,8	-0,002
904,2	-0,002
904,6	-0,002
905,1	-0,002
905,5	-0,002
905,9	-0,002
906,3	-0,001
906,8	-0,001
907,2	-0,001
907,6	-0,001
908	-0,001
908,5	-0,001
908,9	-0,001
909,3	-0,001
909,7	-0,001
910,2	-0,001
910,6	-0,001
911	-0,001
911,4	-0,002
911,9	-0,002
912,3	-0,002
912,7	-0,001
913,1	-0,002
913,6	-0,002
914	-0,002
914,4	-0,002
914,8	-0,003
915,3	-0,003
915,7	-0,003
916,1	-0,003
916,5	-0,003
916,9	-0,003
917,4	-0,002
917,8	-0,002
918,2	-0,002
918,6	-0,002
919,1	-0,002
919,5	-0,002
919,9	-0,002
920,3	-0,002
920,8	-0,002
921,2	-0,002
921,6	-0,002
922	-0,002
922,5	-0,002
922,9	-0,002
923,3	-0,002
923,7	-0,002
924,2	-0,002
924,6	-0,002
925	-0,001
925,4	-0,001
925,8	-0,001
926,3	-0,001
926,7	-0
927,1	-0
927,5	-0,001
928	-0,001
928,4	-0,001
928,8	-0,001
929,2	-0,001
929,7	-0,001
930,1	-0,001
930,5	-0,001
930,9	-0,001
931,3	-0,001
931,8	-0,001
932,2	-0,001
932,6	-0,001
933	-0,001
933,5	-0
933,9	-0,001
934,3	-0,001
934,7	-0,001
935,2	-0,001
935,6	-0,001
936	-0,002
936,4	-0,002
936,8	-0,002
937,3	-0,002
937,7	-0,002
938,1	-0,003
938,5	-0,002
939	-0,002
939,4	-0,002
939,8	-0,002
940,2	-0,002
940,6	-0,003
941,1	-0,003
941,5	-0,003
941,9	-0,003
942,3	-0,003
942,8	-0,003
943,2	-0,002
943,6	-0,002
944	-0,002
944,4	-0,002
944,9	-0,001
945,3	-0,001
945,7	-0,002
946,1	-0,002
946,6	-0,003
947	-0,003
947,4	-0,003
947,8	-0,003
948,2	-0,003
948,7	-0,003
949,1	-0,003
949,5	-0,003
949,9	-0,003
950,3	-0,003
950,8	-0,003
951,2	-0,003
951,6	-0,003
952	-0,002
952,5	-0,001
952,9	-0,002
953,3	-0,002
953,7	-0,003
954,1	-0,003
954,6	-0,003
955	-0,004
955,4	-0,004
955,8	-0,003
956,2	-0,003
956,7	-0,003
957,1	-0,003
957,5	-0,003
957,9	-0,003
958,3	-0,003
958,8	-0,003
959,2	-0,003
959,6	-0,003
960	-0,002
960,5	-0,002
960,9	-0,002
961,3	-0,002
961,7	-0,002
962,1	-0,002
962,6	-0,002
963	-0,002
963,4	-0,002
963,8	-0,002
964,2	-0,002
964,7	-0,002
965,1	-0,002
965,5	-0,002
965,9	-0,003
966,3	-0,002
966,8	-0,002
967,2	-0,002
967,6	-0,001
968	-0,001
968,4	-0,001
968,9	-0
969,3	-0
969,7	-0,001
970,1	-0
970,5	-0,001
971	-0,002
971,4	-0,002
971,8	-0,003
972,2	-0,003
972,6	-0,002
973,1	-0,002
973,5	-0,002
973,9	-0,002
974,3	-0,002
974,7	-0,002
975,2	-0,002
975,6	-0,002
976	-0,003
976,4	-0,002
976,8	-0,002
977,3	-0,001
977,7	-0,001
978,1	-0,001
978,5	-0,001
978,9	-0,001
979,4	-0,001
979,8	-0,001
980,2	-0,001
980,6	-0,001
981	-0,001
981,5	-0,001
981,9	-0,001
982,3	-0,001
982,7	-0,001
983,1	-0,002
983,6	-0,002
984	-0,002
984,4	-0,002
984,8	-0,002
985,2	-0,002
985,6	-0,002
986,1	-0,002
986,5	-0,002
986,9	-0,002
987,3	-0,002
987,7	-0,002
988,2	-0,001
988,6	-0,001
989	-0,001
989,4	-0,001
989,8	-0,001
990,3	-0
990,7	-0
991,1	-0
991,5	-0,001
991,9	-0,001
992,3	-0,001
992,8	-0,001
993,2	-0,002
993,6	-0,003
994	-0,002
994,4	-0,002
994,9	-0,002
995,3	-0,002
995,7	-0,002
996,1	-0,001
996,5	-0,001
996,9	-0,002
997,4	-0,002
997,8	-0,001
998,2	-0,001
998,6	-0,001
999	-0,001
999,5	-0,002
999,9	-0,001
1000,3	-0,001
1000,7	-0,001
1001,1	-0,001
1001,5	-0,001
1002	-0,001
1002,4	-0,001
1002,8	-0,001
1003,2	-0,001
1003,6	-0,001
1004	-0,001
1004,5	-0,001
1004,9	-0,001
1005,3	-0,001
1005,7	-0,001
1006,1	-0,001
1006,6	-0,001
1007	-0,001
1007,4	0
1007,8	-0
1008,2	-0
1008,6	-0
1009,1	-0,001
1009,5	-0,001
1009,9	-0,001
1010,3	-0,002
1010,7	-0,002
1011,1	-0,003
1011,6	-0,002
1012	-0,001
1012,4	-0,001
1012,8	-0,001
1013,2	-0,001
1013,6	-0,001
1014,1	-0
1014,5	-0,001
1014,9	-0,001
1015,3	-0,001
1015,7	-0,002
1016,1	-0,001
1016,6	-0,002
1017	-0,002
1017,4	-0,002
1017,8	-0,002
1018,2	-0,002
1018,6	-0,002
1019,1	-0,002
1019,5	-0,001
1019,9	-0,001
1020,3	-0,001
1020,7	-0,002
1021,1	-0,001
1021,6	-0,001
1022	-0,002
1022,4	-0,002
1022,8	-0,002
1023,2	-0,003
1023,6	-0,002
1024,1	-0,002
1024,5	-0,002
1024,9	-0,001
1025,3	-0,001
1025,7	-0,001
1026,1	-0,001
1026,6	-0,001
1027	-0,001
1027,4	-0,001
1027,8	-0,001
1028,2	-0,002
1028,6	-0,002
1029	-0,002
1029,5	-0,003
1029,9	-0,003
1030,3	-0,003
1030,7	-0,003
1031,1	-0,003
1031,5	-0,003
1032	-0,002
1032,4	-0,002
1032,8	-0,002
1033,2	-0,002
1033,6	-0,002
1034	-0,001
1034,4	-0,001
1034,9	-0,001
1035,3	-0,001
1035,7	-0,001
1036,1	-0,001
1036,5	-0,001
1036,9	-0
1037,4	-0
1037,8	0
1038,2	0
1038,6	0
1039	0
1039,4	0,001
1039,8	0
1040,3	0
1040,7	-0
1041,1	-0
1041,5	0
1041,9	-0
1042,3	-0
1042,7	-0
1043,2	0
1043,6	-0
1044	-0
1044,4	-0,001
1044,8	-0
1045,2	-0,001
1045,6	-0
1046,1	-0,001
1046,5	-0,002
1046,9	-0,002
1047,3	-0,002
1047,7	-0,003
1048,1	-0,003
1048,5	-0,004
1049	-0,004
1049,4	-0,003
1049,8	-0,003
1050,2	-0,003
1050,6	-0,003
1051	-0,003
1051,4	-0,003
1051,9	-0,002
1052,3	-0,003
1052,7	-0,002
1053,1	-0,002
1053,5	-0,002
1053,9	-0,002
1054,3	-0,002
1054,8	-0,002
1055,2	-0,003
1055,6	-0,003
1056	-0,004
1056,4	-0,004
1056,8	-0,003
1057,2	-0,003
1057,6	-0,003
1058,1	-0,001
1058,5	0
1058,9	0,001
1059,3	0,001
1059,7	0,001
1060,1	0,001
1060,5	0
1061	-0,001
1061,4	-0,001
1061,8	-0,002
1062,2	-0,003
1062,6	-0,002
1063	-0,002
1063,4	-0,001
1063,8	-0,001
1064,3	-0,001
1064,7	-0,001
1065,1	-0,001
1065,5	-0,001
1065,9	-0,001
1066,3	-0,002
1066,7	-0,002
1067,1	-0,002
1067,6	-0,001
1068	-0,001
1068,4	-0,001
1068,8	-0,001
1069,2	-0,001
1069,6	0
1070	-0
1070,4	0
1070,9	-0,001
1071,3	-0,001
1071,7	-0,001
1072,1	-0,001
1072,5	-0
1072,9	-0
1073,3	-0
1073,7	-0
1074,2	-0
1074,6	-0,001
1075	-0
1075,4	-0,001
1075,8	-0,001
1076,2	-0,002
1076,6	-0,001
1077	0,001
1077,5	-0
1077,9	-0,002
1078,3	-0,002
1078,7	-0,002
1079,1	-0,002
1079,5	-0,002
1079,9	-0,004
1080,3	-0,003
1080,7	0
1081,2	0,001
1081,6	0,002
1082	0,003
1082,4	0,002
1082,8	0,003
1083,2	0,003
1083,6	0,002
1084	0,001
1084,5	-0
1084,9	-0,001
1085,3	-0,001
1085,7	-0
1086,1	-0
1086,5	0,002
1086,9	0,001
1087,3	-0
1087,7	0
1088,2	0
1088,6	-0,002
1089	-0,003
1089,4	-0,004
1089,8	-0,004
1090,2	-0,002
1090,6	-0,003
1091	-0,001
1091,4	-0
1091,9	-0,001
1092,3	-0,003
1092,7	-0,002
1093,1	-0,004
1093,5	-0,002
1093,9	0,002
1094,3	0
1094,7	0,004
1095,1	0,003
1095,5	0,006
1096	0,006
1096,4	0,01
1096,8	0,006
1097,2	0,004
1097,6	0,001
1098	0,004
1098,4	0,011
1098,8	0,012
1099,2	0,009
1099,6	0,018
1100,1	0,029
1100,5	0,032
1100,9	0,027
1101,3	0,023
1101,7	0,03
1102,1	0,033
1102,5	0,024
1102,9	0,012
1103,3	0,02
1103,7	0,026
1104,2	0,022
1104,6	0,02
1105	0,015
1105,4	0,02
1105,8	0,03
1106,2	0,029
1106,6	0,018
1107	0,033
1107,4	0,031
1107,8	0,092
1108,3	0,716
