Data from Absorbance_00007.txt Node
Date: Wed Aug 02 17:32:40 MSK 2023
User: vat
Spectrometer: MAYP114033
Trigger mode: 0
Integration Time (sec): 8,000000E-3
Scans to average: 10
Electric dark correction enabled: true
Nonlinearity correction enabled: false
Boxcar width: 3
XAxis mode: Wavelengths
Number of Pixels in Spectrum: 2068
>>>>>Begin Spectral Data<<<<<
199,4	-0
199,9	-0,032
200,4	0,323
200,8	0,639
201,3	0,817
201,8	0,902
202,2	0,921
202,7	0,938
203,2	0,979
203,6	1,02
204,1	1,053
204,6	1,063
205	1,068
205,5	1,084
206	1,097
206,4	1,123
206,9	1,138
207,4	1,134
207,8	1,137
208,3	1,166
208,8	1,178
209,2	1,19
209,7	1,217
210,2	1,219
210,6	1,241
211,1	1,251
211,5	1,258
212	1,27
212,5	1,312
212,9	1,3
213,4	1,301
213,9	1,334
214,3	1,366
214,8	1,371
215,3	1,397
215,7	1,377
216,2	1,424
216,7	1,459
217,1	1,464
217,6	1,471
218,1	1,489
218,5	1,49
219	1,506
219,5	1,509
219,9	1,526
220,4	1,533
220,9	1,547
221,3	1,563
221,8	1,599
222,3	1,624
222,7	1,63
223,2	1,637
223,6	1,65
224,1	1,683
224,6	1,691
225	1,687
225,5	1,694
226	1,708
226,4	1,715
226,9	1,738
227,4	1,741
227,8	1,764
228,3	1,776
228,8	1,78
229,2	1,78
229,7	1,819
230,2	1,838
230,6	1,842
231,1	1,844
231,5	1,853
232	1,868
232,5	1,896
232,9	1,869
233,4	1,856
233,9	1,875
234,3	1,876
234,8	1,893
235,3	1,929
235,7	1,935
236,2	1,953
236,7	1,98
237,1	1,977
237,6	1,986
238,1	1,997
238,5	1,983
239	1,999
239,4	2,015
239,9	2,016
240,4	2,021
240,8	2,025
241,3	2,018
241,8	2,032
242,2	2,021
242,7	2,023
243,2	2,037
243,6	2,047
244,1	2,058
244,6	2,071
245	2,073
245,5	2,096
245,9	2,104
246,4	2,103
246,9	2,128
247,3	2,154
247,8	2,165
248,3	2,168
248,7	2,16
249,2	2,153
249,7	2,155
250,1	2,165
250,6	2,154
251	2,152
251,5	2,145
252	2,161
252,4	2,167
252,9	2,175
253,4	2,17
253,8	2,166
254,3	2,181
254,8	2,206
255,2	2,19
255,7	2,21
256,1	2,195
256,6	2,182
257,1	2,201
257,5	2,186
258	2,193
258,5	2,19
258,9	2,19
259,4	2,19
259,9	2,192
260,3	2,179
260,8	2,171
261,2	2,161
261,7	2,18
262,2	2,168
262,6	2,179
263,1	2,164
263,6	2,162
264	2,172
264,5	2,173
264,9	2,144
265,4	2,148
265,9	2,16
266,3	2,159
266,8	2,177
267,3	2,164
267,7	2,129
268,2	2,159
268,7	2,163
269,1	2,124
269,6	2,099
270	2,074
270,5	2,099
271	2,105
271,4	2,078
271,9	2,066
272,4	2,077
272,8	2,118
273,3	2,126
273,7	2,101
274,2	2,126
274,7	2,115
275,1	2,101
275,6	2,092
276,1	2,058
276,5	2,041
277	2,017
277,4	1,983
277,9	1,968
278,4	1,938
278,8	1,906
279,3	1,855
279,8	1,806
280,2	1,752
280,7	1,699
281,1	1,639
281,6	1,588
282,1	1,528
282,5	1,48
283	1,429
283,4	1,377
283,9	1,322
284,4	1,272
284,8	1,219
285,3	1,172
285,8	1,123
286,2	1,075
286,7	1,028
287,1	0,984
287,6	0,944
288,1	0,905
288,5	0,867
289	0,832
289,5	0,799
289,9	0,767
290,4	0,741
290,8	0,713
291,3	0,689
291,8	0,666
292,2	0,646
292,7	0,627
293,1	0,612
293,6	0,595
294,1	0,581
294,5	0,567
295	0,556
295,5	0,546
295,9	0,536
296,4	0,528
296,8	0,521
297,3	0,516
297,8	0,51
298,2	0,503
298,7	0,498
299,1	0,492
299,6	0,488
300,1	0,483
300,5	0,478
301	0,474
301,5	0,47
301,9	0,466
302,4	0,463
302,8	0,459
303,3	0,457
303,8	0,453
304,2	0,451
304,7	0,448
305,1	0,445
305,6	0,441
306,1	0,438
306,5	0,434
307	0,43
307,4	0,427
307,9	0,423
308,4	0,421
308,8	0,418
309,3	0,415
309,8	0,412
310,2	0,409
310,7	0,405
311,1	0,402
311,6	0,399
312,1	0,395
312,5	0,392
313	0,388
313,4	0,385
313,9	0,382
314,4	0,377
314,8	0,374
315,3	0,371
315,7	0,366
316,2	0,363
316,7	0,358
317,1	0,355
317,6	0,352
318	0,348
318,5	0,345
319	0,341
319,4	0,338
319,9	0,335
320,3	0,331
320,8	0,328
321,3	0,324
321,7	0,321
322,2	0,318
322,6	0,315
323,1	0,313
323,6	0,31
324	0,307
324,5	0,303
324,9	0,301
325,4	0,298
325,9	0,292
326,3	0,289
326,8	0,286
327,2	0,282
327,7	0,279
328,2	0,276
328,6	0,273
329,1	0,27
329,5	0,267
330	0,263
330,5	0,26
330,9	0,257
331,4	0,253
331,8	0,25
332,3	0,247
332,8	0,244
333,2	0,241
333,7	0,239
334,1	0,235
334,6	0,232
335,1	0,229
335,5	0,227
336	0,224
336,4	0,22
336,9	0,217
337,4	0,214
337,8	0,211
338,3	0,208
338,7	0,205
339,2	0,202
339,7	0,199
340,1	0,197
340,6	0,194
341	0,191
341,5	0,187
342	0,185
342,4	0,182
342,9	0,18
343,3	0,177
343,8	0,174
344,2	0,171
344,7	0,17
345,2	0,167
345,6	0,164
346,1	0,161
346,5	0,159
347	0,157
347,5	0,155
347,9	0,152
348,4	0,15
348,8	0,149
349,3	0,147
349,8	0,144
350,2	0,142
350,7	0,14
351,1	0,138
351,6	0,135
352	0,132
352,5	0,129
353	0,128
353,4	0,126
353,9	0,124
354,3	0,123
354,8	0,122
355,3	0,12
355,7	0,118
356,2	0,116
356,6	0,114
357,1	0,112
357,5	0,11
358	0,107
358,5	0,106
358,9	0,105
359,4	0,104
359,8	0,101
360,3	0,1
360,8	0,098
361,2	0,097
361,7	0,095
362,1	0,093
362,6	0,091
363	0,09
363,5	0,089
364	0,087
364,4	0,085
364,9	0,083
365,3	0,083
365,8	0,081
366,3	0,08
366,7	0,079
367,2	0,079
367,6	0,078
368,1	0,077
368,5	0,076
369	0,076
369,5	0,075
369,9	0,074
370,4	0,073
370,8	0,071
371,3	0,071
371,7	0,07
372,2	0,069
372,7	0,069
373,1	0,068
373,6	0,066
374	0,065
374,5	0,064
374,9	0,062
375,4	0,061
375,9	0,06
376,3	0,059
376,8	0,059
377,2	0,058
377,7	0,058
378,2	0,057
378,6	0,057
379,1	0,056
379,5	0,056
380	0,055
380,4	0,054
380,9	0,053
381,4	0,052
381,8	0,051
382,3	0,05
382,7	0,049
383,2	0,048
383,6	0,047
384,1	0,047
384,6	0,046
385	0,046
385,5	0,044
385,9	0,044
386,4	0,042
386,8	0,042
387,3	0,042
387,7	0,041
388,2	0,04
388,7	0,04
389,1	0,038
389,6	0,037
390	0,037
390,5	0,036
390,9	0,035
391,4	0,034
391,9	0,034
392,3	0,034
392,8	0,033
393,2	0,033
393,7	0,033
394,1	0,032
394,6	0,032
395,1	0,031
395,5	0,031
396	0,032
396,4	0,031
396,9	0,03
397,3	0,03
397,8	0,03
398,2	0,029
398,7	0,028
399,2	0,028
399,6	0,027
400,1	0,028
400,5	0,027
401	0,026
401,4	0,026
401,9	0,026
402,4	0,025
402,8	0,025
403,3	0,024
403,7	0,024
404,2	0,023
404,6	0,024
405,1	0,023
405,5	0,023
406	0,023
406,5	0,023
406,9	0,023
407,4	0,023
407,8	0,023
408,3	0,023
408,7	0,022
409,2	0,021
409,6	0,021
410,1	0,021
410,6	0,021
411	0,021
411,5	0,021
411,9	0,021
412,4	0,021
412,8	0,021
413,3	0,021
413,7	0,021
414,2	0,021
414,7	0,02
415,1	0,02
415,6	0,02
416	0,02
416,5	0,019
416,9	0,019
417,4	0,019
417,8	0,018
418,3	0,018
418,8	0,018
419,2	0,018
419,7	0,018
420,1	0,018
420,6	0,018
421	0,017
421,5	0,018
421,9	0,017
422,4	0,017
422,8	0,017
423,3	0,017
423,8	0,016
424,2	0,017
424,7	0,017
425,1	0,017
425,6	0,017
426	0,016
426,5	0,016
426,9	0,016
427,4	0,016
427,9	0,015
428,3	0,015
428,8	0,015
429,2	0,015
429,7	0,015
430,1	0,016
430,6	0,016
431	0,016
431,5	0,016
431,9	0,016
432,4	0,016
432,8	0,016
433,3	0,016
433,8	0,016
434,2	0,016
434,7	0,016
435,1	0,016
435,6	0,016
436	0,015
436,5	0,015
436,9	0,015
437,4	0,014
437,8	0,014
438,3	0,013
438,8	0,014
439,2	0,014
439,7	0,014
440,1	0,013
440,6	0,014
441	0,015
441,5	0,015
441,9	0,015
442,4	0,015
442,8	0,014
443,3	0,014
443,7	0,014
444,2	0,013
444,7	0,014
445,1	0,013
445,6	0,013
446	0,013
446,5	0,012
446,9	0,012
447,4	0,011
447,8	0,011
448,3	0,012
448,7	0,012
449,2	0,012
449,6	0,012
450,1	0,012
450,6	0,013
451	0,013
451,5	0,012
451,9	0,013
452,4	0,013
452,8	0,013
453,3	0,012
453,7	0,012
454,2	0,012
454,6	0,012
455,1	0,012
455,5	0,013
456	0,013
456,4	0,013
456,9	0,013
457,3	0,013
457,8	0,013
458,3	0,013
458,7	0,012
459,2	0,012
459,6	0,012
460,1	0,012
460,5	0,012
461	0,011
461,4	0,011
461,9	0,011
462,3	0,011
462,8	0,011
463,2	0,011
463,7	0,011
464,1	0,011
464,6	0,011
465	0,011
465,5	0,012
466	0,012
466,4	0,012
466,9	0,012
467,3	0,012
467,8	0,011
468,2	0,011
468,7	0,011
469,1	0,011
469,6	0,011
470	0,011
470,5	0,011
470,9	0,011
471,4	0,011
471,8	0,011
472,3	0,011
472,7	0,011
473,2	0,011
473,6	0,011
474,1	0,011
474,5	0,012
475	0,012
475,4	0,012
475,9	0,011
476,4	0,011
476,8	0,011
477,3	0,011
477,7	0,011
478,2	0,011
478,6	0,01
479,1	0,011
479,5	0,01
480	0,01
480,4	0,01
480,9	0,01
481,3	0,009
481,8	0,01
482,2	0,011
482,7	0,011
483,1	0,011
483,6	0,011
484	0,011
484,5	0,011
484,9	0,011
485,4	0,01
485,8	0,01
486,3	0,01
486,7	0,01
487,2	0,01
487,6	0,01
488,1	0,01
488,5	0,01
489	0,01
489,4	0,011
489,9	0,011
490,4	0,011
490,8	0,011
491,3	0,011
491,7	0,011
492,2	0,011
492,6	0,01
493,1	0,01
493,5	0,01
494	0,01
494,4	0,009
494,9	0,01
495,3	0,01
495,8	0,011
496,2	0,011
496,7	0,011
497,1	0,011
497,6	0,011
498	0,012
498,5	0,012
498,9	0,011
499,4	0,011
499,8	0,011
500,3	0,011
500,7	0,012
501,2	0,012
501,6	0,012
502,1	0,012
502,5	0,013
503	0,012
503,4	0,012
503,9	0,012
504,3	0,012
504,8	0,011
505,2	0,011
505,7	0,01
506,1	0,01
506,6	0,011
507	0,01
507,5	0,01
507,9	0,01
508,4	0,011
508,8	0,01
509,3	0,01
509,7	0,009
510,2	0,01
510,6	0,01
511,1	0,01
511,5	0,01
512	0,011
512,4	0,011
512,9	0,011
513,3	0,012
513,8	0,013
514,2	0,013
514,7	0,013
515,1	0,013
515,6	0,013
516	0,013
516,5	0,013
516,9	0,012
517,4	0,012
517,8	0,013
518,3	0,013
518,7	0,013
519,2	0,014
519,6	0,014
520,1	0,014
520,5	0,014
521	0,013
521,4	0,013
521,9	0,013
522,3	0,013
522,8	0,013
523,2	0,012
523,7	0,012
524,1	0,013
524,6	0,012
525	0,012
525,5	0,013
525,9	0,012
526,4	0,012
526,8	0,012
527,3	0,012
527,7	0,012
528,2	0,013
528,6	0,011
529,1	0,012
529,5	0,012
530	0,013
530,4	0,012
530,9	0,012
531,3	0,012
531,8	0,013
532,2	0,013
532,6	0,013
533,1	0,013
533,5	0,013
534	0,013
534,4	0,013
534,9	0,013
535,3	0,012
535,8	0,012
536,2	0,013
536,7	0,013
537,1	0,012
537,6	0,012
538	0,012
538,5	0,013
538,9	0,012
539,4	0,011
539,8	0,011
540,3	0,012
540,7	0,012
541,2	0,011
541,6	0,012
542,1	0,011
542,5	0,012
543	0,012
543,4	0,012
543,9	0,013
544,3	0,013
544,8	0,012
545,2	0,013
545,7	0,012
546,1	0,012
546,5	0,013
547	0,012
547,4	0,012
547,9	0,012
548,3	0,012
548,8	0,012
549,2	0,012
549,7	0,012
550,1	0,012
550,6	0,012
551	0,012
551,5	0,012
551,9	0,013
552,4	0,013
552,8	0,013
553,3	0,012
553,7	0,011
554,2	0,011
554,6	0,011
555,1	0,011
555,5	0,011
555,9	0,011
556,4	0,011
556,8	0,011
557,3	0,011
557,7	0,01
558,2	0,01
558,6	0,01
559,1	0,01
559,5	0,011
560	0,011
560,4	0,011
560,9	0,012
561,3	0,012
561,8	0,012
562,2	0,012
562,7	0,011
563,1	0,012
563,6	0,012
564	0,011
564,4	0,011
564,9	0,011
565,3	0,011
565,8	0,01
566,2	0,009
566,7	0,01
567,1	0,01
567,6	0,01
568	0,01
568,5	0,01
568,9	0,011
569,4	0,011
569,8	0,011
570,3	0,011
570,7	0,011
571,1	0,011
571,6	0,011
572	0,011
572,5	0,011
572,9	0,011
573,4	0,01
573,8	0,01
574,3	0,01
574,7	0,01
575,2	0,01
575,6	0,01
576,1	0,01
576,5	0,01
576,9	0,01
577,4	0,01
577,8	0,01
578,3	0,009
578,7	0,009
579,2	0,009
579,6	0,009
580,1	0,009
580,5	0,009
581	0,009
581,4	0,009
581,9	0,01
582,3	0,009
582,7	0,01
583,2	0,01
583,6	0,009
584,1	0,009
584,5	0,009
585	0,009
585,4	0,009
585,9	0,009
586,3	0,009
586,8	0,009
587,2	0,009
587,6	0,009
588,1	0,009
588,5	0,009
589	0,009
589,4	0,009
589,9	0,009
590,3	0,009
590,8	0,009
591,2	0,009
591,7	0,009
592,1	0,009
592,5	0,009
593	0,009
593,4	0,008
593,9	0,009
594,3	0,008
594,8	0,008
595,2	0,008
595,7	0,008
596,1	0,008
596,6	0,008
597	0,008
597,4	0,008
597,9	0,008
598,3	0,008
598,8	0,008
599,2	0,008
599,7	0,008
600,1	0,007
600,6	0,007
601	0,007
601,4	0,007
601,9	0,007
602,3	0,007
602,8	0,007
603,2	0,007
603,7	0,007
604,1	0,007
604,6	0,008
605	0,008
605,4	0,008
605,9	0,008
606,3	0,008
606,8	0,008
607,2	0,008
607,7	0,007
608,1	0,007
608,6	0,007
609	0,007
609,4	0,007
609,9	0,007
610,3	0,007
610,8	0,007
611,2	0,006
611,7	0,007
612,1	0,007
612,6	0,007
613	0,007
613,4	0,007
613,9	0,007
614,3	0,007
614,8	0,007
615,2	0,006
615,7	0,006
616,1	0,006
616,6	0,006
617	0,006
617,4	0,006
617,9	0,006
618,3	0,006
618,8	0,006
619,2	0,005
619,7	0,005
620,1	0,005
620,5	0,005
621	0,005
621,4	0,005
621,9	0,005
622,3	0,006
622,8	0,006
623,2	0,006
623,6	0,006
624,1	0,006
624,5	0,006
625	0,006
625,4	0,006
625,9	0,006
626,3	0,006
626,8	0,006
627,2	0,006
627,6	0,006
628,1	0,006
628,5	0,005
629	0,005
629,4	0,005
629,9	0,005
630,3	0,005
630,7	0,006
631,2	0,005
631,6	0,006
632,1	0,006
632,5	0,006
633	0,006
633,4	0,006
633,8	0,006
634,3	0,006
634,7	0,005
635,2	0,005
635,6	0,005
636,1	0,004
636,5	0,005
636,9	0,005
637,4	0,005
637,8	0,005
638,3	0,005
638,7	0,005
639,2	0,005
639,6	0,005
640	0,005
640,5	0,005
640,9	0,005
641,4	0,005
641,8	0,005
642,2	0,005
642,7	0,005
643,1	0,005
643,6	0,004
644	0,004
644,5	0,004
644,9	0,004
645,3	0,004
645,8	0,003
646,2	0,003
646,7	0,004
647,1	0,004
647,6	0,004
648	0,004
648,4	0,004
648,9	0,004
649,3	0,004
649,8	0,004
650,2	0,004
650,6	0,005
651,1	0,005
651,5	0,005
652	0,005
652,4	0,005
652,9	0,005
653,3	0,004
653,7	0,004
654,2	0,005
654,6	0,005
655,1	0,005
655,5	0,005
655,9	0,003
656,4	0,002
656,8	0,003
657,3	0,003
657,7	0,002
658,2	0,002
658,6	0,002
659	0,002
659,5	0,004
659,9	0,004
660,4	0,004
660,8	0,004
661,2	0,004
661,7	0,004
662,1	0,004
662,6	0,004
663	0,005
663,4	0,004
663,9	0,004
664,3	0,004
664,8	0,004
665,2	0,003
665,6	0,004
666,1	0,003
666,5	0,004
667	0,004
667,4	0,004
667,9	0,003
668,3	0,003
668,7	0,003
669,2	0,003
669,6	0,003
670,1	0,003
670,5	0,003
670,9	0,003
671,4	0,004
671,8	0,004
672,3	0,004
672,7	0,004
673,1	0,004
673,6	0,003
674	0,003
674,5	0,003
674,9	0,003
675,3	0,003
675,8	0,003
676,2	0,003
676,7	0,003
677,1	0,004
677,5	0,004
678	0,004
678,4	0,003
678,9	0,003
679,3	0,003
679,7	0,003
680,2	0,002
680,6	0,002
681,1	0,002
681,5	0,002
681,9	0,001
682,4	0,001
682,8	0,002
683,3	0,002
683,7	0,002
684,1	0,002
684,6	0,002
685	0,003
685,5	0,003
685,9	0,003
686,3	0,003
686,8	0,004
687,2	0,004
687,7	0,003
688,1	0,003
688,5	0,002
689	0,002
689,4	0,001
689,9	0,001
690,3	0,002
690,7	0,002
691,2	0,002
691,6	0,002
692	0,002
692,5	0,003
692,9	0,003
693,4	0,003
693,8	0,003
694,2	0,003
694,7	0,003
695,1	0,003
695,6	0,003
696	0,003
696,4	0,003
696,9	0,003
697,3	0,003
697,8	0,003
698,2	0,003
698,6	0,003
699,1	0,003
699,5	0,003
699,9	0,002
700,4	0,003
700,8	0,003
701,3	0,002
701,7	0,002
702,1	0,002
702,6	0,002
703	0,002
703,5	0,002
703,9	0,002
704,3	0,003
704,8	0,003
705,2	0,003
705,6	0,003
706,1	0,003
706,5	0,003
707	0,003
707,4	0,003
707,8	0,003
708,3	0,003
708,7	0,003
709,2	0,003
709,6	0,002
710	0,003
710,5	0,003
710,9	0,003
711,3	0,003
711,8	0,003
712,2	0,003
712,7	0,003
713,1	0,003
713,5	0,002
714	0,002
714,4	0,002
714,8	0,002
715,3	0,002
715,7	0,002
716,2	0,002
716,6	0,002
717	0,002
717,5	0,002
717,9	0,002
718,3	0,002
718,8	0,002
719,2	0,002
719,7	0,002
720,1	0,002
720,5	0,003
721	0,003
721,4	0,003
721,8	0,003
722,3	0,002
722,7	0,003
723,2	0,003
723,6	0,002
724	0,002
724,5	0,002
724,9	0,002
725,3	0,002
725,8	0,002
726,2	0,002
726,7	0,002
727,1	0,002
727,5	0,002
728	0,002
728,4	0,002
728,8	0,002
729,3	0,003
729,7	0,002
730,1	0,002
730,6	0,002
731	0,002
731,5	0,002
731,9	0,002
732,3	0,002
732,8	0,002
733,2	0,002
733,6	0,002
734,1	0,002
734,5	0,002
734,9	0,002
735,4	0,002
735,8	0,002
736,3	0,002
736,7	0,002
737,1	0,002
737,6	0,002
738	0,002
738,4	0,002
738,9	0,002
739,3	0,002
739,7	0,002
740,2	0,002
740,6	0,002
741,1	0,002
741,5	0,002
741,9	0,002
742,4	0,002
742,8	0,002
743,2	0,002
743,7	0,002
744,1	0,002
744,5	0,002
745	0,002
745,4	0,002
745,8	0,003
746,3	0,002
746,7	0,003
747,2	0,003
747,6	0,002
748	0,002
748,5	0,002
748,9	0,002
749,3	0,002
749,8	0,002
750,2	0,002
750,6	0,002
751,1	0,002
751,5	0,002
751,9	0,002
752,4	0,002
752,8	0,002
753,3	0,002
753,7	0,002
754,1	0,002
754,6	0,002
755	0,002
755,4	0,002
755,9	0,002
756,3	0,002
756,7	0,002
757,2	0,002
757,6	0,002
758	0,002
758,5	0,002
758,9	0,002
759,3	0,001
759,8	0,001
760,2	0,001
760,6	0,001
761,1	0,002
761,5	0,002
761,9	0,001
762,4	0,001
762,8	0,001
763,3	0,001
763,7	0,001
764,1	0,001
764,6	0,001
765	0,001
765,4	0,001
765,9	0,001
766,3	0,001
766,7	0,002
767,2	0,001
767,6	0,001
768	0,002
768,5	0,002
768,9	0,002
769,3	0,002
769,8	0,002
770,2	0,002
770,6	0,002
771,1	0,001
771,5	0,001
771,9	0,001
772,4	0,001
772,8	0,001
773,2	0,001
773,7	0,001
774,1	0,001
774,5	0,001
775	0,002
775,4	0,002
775,8	0,002
776,3	0,002
776,7	0,002
777,1	0,002
777,6	0,002
778	0,002
778,4	0,002
778,9	0,002
779,3	0,002
779,7	0,002
780,2	0,002
780,6	0,002
781	0,001
781,5	0,001
781,9	0,001
782,3	0,001
782,8	0,001
783,2	0,001
783,6	0,001
784,1	0,001
784,5	0,001
784,9	0,001
785,4	0,001
785,8	0,001
786,2	0,001
786,7	0,001
787,1	0,001
787,5	0,001
788	0,001
788,4	0,002
788,8	0,002
789,3	0,002
789,7	0,002
790,1	0,002
790,6	0,002
791	0,002
791,4	0,002
791,9	0,002
792,3	0,002
792,7	0,002
793,2	0,001
793,6	0,002
794	0,001
794,5	0,002
794,9	0,002
795,3	0,001
795,8	0,002
796,2	0,002
796,6	0,002
797,1	0,001
797,5	0,001
797,9	0,002
798,4	0,001
798,8	0,001
799,2	0,001
799,7	0,001
800,1	0,001
800,5	0,001
801	0,001
801,4	0,002
801,8	0,002
802,2	0,002
802,7	0,002
803,1	0,002
803,5	0,002
804	0,002
804,4	0,002
804,8	0,002
805,3	0,002
805,7	0,002
806,1	0,002
806,6	0,002
807	0,002
807,4	0,002
807,9	0,001
808,3	0,001
808,7	0,001
809,2	0,001
809,6	0,001
810	0,001
810,4	0,001
810,9	0,001
811,3	0,001
811,7	0,001
812,2	0,001
812,6	0,001
813	0,001
813,5	0,001
813,9	0,001
814,3	0,001
814,8	0,001
815,2	0,001
815,6	0,001
816,1	0,001
816,5	0,001
816,9	0,001
817,3	0,001
817,8	0,001
818,2	0,001
818,6	0,001
819,1	0,001
819,5	0,001
819,9	0,001
820,4	0,001
820,8	0,001
821,2	0,001
821,7	0,002
822,1	0,001
822,5	0,001
822,9	0,001
823,4	0,002
823,8	0,002
824,2	0,002
824,7	0,001
825,1	0,001
825,5	0,001
826	0,001
826,4	0,001
826,8	0,001
827,3	0,001
827,7	0,001
828,1	0,001
828,5	0,001
829	0,001
829,4	0,001
829,8	0,001
830,3	0
830,7	0
831,1	0
831,6	0
832	0
832,4	0
832,8	0
833,3	0,001
833,7	0,001
834,1	0,001
834,6	0,001
835	0,002
835,4	0,001
835,8	0,002
836,3	0,001
836,7	0,001
837,1	0,001
837,6	0,001
838	0,002
838,4	0,002
838,9	0,002
839,3	0,002
839,7	0,002
840,1	0,002
840,6	0,002
841	0,001
841,4	0,001
841,9	0,001
842,3	0,001
842,7	0,002
843,1	0,002
843,6	0,002
844	0,002
844,4	0,002
844,9	0,002
845,3	0,002
845,7	0,002
846,2	0,002
846,6	0,001
847	0,001
847,4	0,001
847,9	0,001
848,3	0,001
848,7	0,001
849,2	0,001
849,6	0,001
850	0,001
850,4	0,001
850,9	0,001
851,3	0,001
851,7	0,001
852,2	0,001
852,6	0,001
853	0,001
853,4	0,001
853,9	0,001
854,3	0,002
854,7	0,002
855,2	0,002
855,6	0,002
856	0,002
856,4	0,002
856,9	0,002
857,3	0,001
857,7	0,001
858,2	0,001
858,6	0,001
859	0
859,4	0
859,9	0
860,3	0
860,7	0
861,1	0
861,6	0,001
862	0,001
862,4	0,001
862,9	0,001
863,3	0,001
863,7	0,001
864,1	0,001
864,6	0,001
865	0,001
865,4	0,001
865,9	0,001
866,3	0,001
866,7	0,001
867,1	0,001
867,6	0,001
868	0,001
868,4	0,001
868,8	0,001
869,3	0,001
869,7	0,001
870,1	0,001
870,6	0,001
871	0,001
871,4	0,002
871,8	0,002
872,3	0,002
872,7	0,001
873,1	0,002
873,5	0,002
874	0,001
874,4	0,001
874,8	0,001
875,3	0,001
875,7	0,001
876,1	0,001
876,5	0,001
877	0,001
877,4	0,001
877,8	0,001
878,2	0,001
878,7	0,001
879,1	0,001
879,5	0,001
879,9	0,001
880,4	0,001
880,8	0,001
881,2	0,001
881,7	0,001
882,1	0,001
882,5	0,001
882,9	0,001
883,4	0,002
883,8	0,001
884,2	0,001
884,6	0,001
885,1	0,001
885,5	0,001
885,9	0,001
886,3	0,001
886,8	0,001
887,2	0,001
887,6	0,001
888	0,001
888,5	0,001
888,9	0,001
889,3	0,001
889,8	0,001
890,2	0,001
890,6	0,001
891	0,001
891,5	0,001
891,9	0,002
892,3	0,002
892,7	0,002
893,2	0,002
893,6	0,002
894	0,002
894,4	0,002
894,9	0,002
895,3	0,001
895,7	0,001
896,1	0,001
896,6	0,001
897	0,001
897,4	0,001
897,8	0,001
898,3	0
898,7	-0
899,1	-0
899,5	0
900	0
900,4	0
900,8	0,001
901,2	0,001
901,7	0,001
902,1	0,001
902,5	0,001
902,9	0,001
903,4	0,001
903,8	0
904,2	0
904,6	-0
905,1	-0
905,5	-0
905,9	0
906,3	0,001
906,8	0,001
907,2	0,001
907,6	0,001
908	0,001
908,5	0,001
908,9	0,001
909,3	0,001
909,7	0,001
910,2	0,001
910,6	0,001
911	0,002
911,4	0,002
911,9	0,002
912,3	0,002
912,7	0,002
913,1	0,002
913,6	0,002
914	0,001
914,4	0,001
914,8	0,001
915,3	0,001
915,7	0,001
916,1	0,001
916,5	0,001
916,9	0,001
917,4	0,001
917,8	0,001
918,2	0,001
918,6	0,001
919,1	0
919,5	0
919,9	0,001
920,3	0,001
920,8	0
921,2	0
921,6	0
922	0,001
922,5	0,001
922,9	0,001
923,3	0
923,7	0
924,2	-0
924,6	0
925	0
925,4	0,001
925,8	0
926,3	0
926,7	0,001
927,1	0,001
927,5	0,001
928	0,001
928,4	0,001
928,8	0,001
929,2	0,001
929,7	0,001
930,1	0,001
930,5	0,001
930,9	0,001
931,3	0,001
931,8	0,001
932,2	0,001
932,6	0,002
933	0,002
933,5	0,002
933,9	0,002
934,3	0,002
934,7	0,002
935,2	0,002
935,6	0,002
936	0,002
936,4	0,001
936,8	0,001
937,3	0,001
937,7	0,001
938,1	0,001
938,5	0,001
939	0,001
939,4	0,001
939,8	0,001
940,2	0,001
940,6	0,001
941,1	0
941,5	0,001
941,9	0,001
942,3	0,001
942,8	0,001
943,2	0,001
943,6	0,001
944	0,001
944,4	0,001
944,9	0,002
945,3	0,002
945,7	0,001
946,1	0,001
946,6	0,001
947	0,001
947,4	0,001
947,8	0
948,2	0,001
948,7	0,001
949,1	0,001
949,5	0,001
949,9	0,001
950,3	0,001
950,8	0,002
951,2	0,002
951,6	0,001
952	0,002
952,5	0,002
952,9	0,001
953,3	0
953,7	0
954,1	-0
954,6	-0
955	-0,001
955,4	-0
955,8	0,001
956,2	0,001
956,7	0,001
957,1	0,001
957,5	0,001
957,9	0,001
958,3	0,001
958,8	0,001
959,2	0,002
959,6	0,002
960	0,003
960,5	0,002
960,9	0,002
961,3	0,002
961,7	0,002
962,1	0,002
962,6	0,002
963	0,002
963,4	0,002
963,8	0,002
964,2	0,002
964,7	0,002
965,1	0,002
965,5	0,002
965,9	0,002
966,3	0,002
966,8	0,002
967,2	0,001
967,6	0,002
968	0,002
968,4	0,002
968,9	0,002
969,3	0,002
969,7	0,002
970,1	0,002
970,5	0,002
971	0,001
971,4	0,002
971,8	0,001
972,2	0,001
972,6	0,001
973,1	0,002
973,5	0,001
973,9	0,001
974,3	0
974,7	0
975,2	0
975,6	-0
976	-0
976,4	0
976,8	0
977,3	0,001
977,7	0,001
978,1	0,002
978,5	0,002
978,9	0,002
979,4	0,002
979,8	0,002
980,2	0,001
980,6	0,002
981	0,002
981,5	0,002
981,9	0,001
982,3	0,001
982,7	0,001
983,1	0,001
983,6	0,001
984	0,001
984,4	0,002
984,8	0,001
985,2	0,001
985,6	0,001
986,1	0,001
986,5	0,001
986,9	0
987,3	0
987,7	0,001
988,2	0,002
988,6	0,002
989	0,002
989,4	0,002
989,8	0,002
990,3	0,003
990,7	0,003
991,1	0,002
991,5	0,002
991,9	0,001
992,3	0,001
992,8	0,001
993,2	0,001
993,6	-0
994	0
994,4	0,001
994,9	0
995,3	0
995,7	0
996,1	0,001
996,5	0,001
996,9	0,001
997,4	0,001
997,8	0,001
998,2	0,002
998,6	0,002
999	0,001
999,5	0,001
999,9	0,001
1000,3	0,001
1000,7	0,001
1001,1	0,001
1001,5	0,001
1002	0,001
1002,4	0,002
1002,8	0,002
1003,2	0,002
1003,6	0,002
1004	0,001
1004,5	0,001
1004,9	0,001
1005,3	0,001
1005,7	0,002
1006,1	0,001
1006,6	0,002
1007	0,002
1007,4	0,002
1007,8	0,002
1008,2	0,002
1008,6	0,001
1009,1	0,001
1009,5	0,001
1009,9	0,001
1010,3	-0
1010,7	-0
1011,1	-0,001
1011,6	-0
1012	-0
1012,4	0
1012,8	0,001
1013,2	0,001
1013,6	0,001
1014,1	0,002
1014,5	0,001
1014,9	0,001
1015,3	0,001
1015,7	0
1016,1	0,001
1016,6	0
1017	0
1017,4	-0
1017,8	0
1018,2	0
1018,6	0
1019,1	0
1019,5	0,001
1019,9	0,001
1020,3	0,001
1020,7	0,001
1021,1	0,001
1021,6	0,001
1022	0,001
1022,4	0,002
1022,8	0,002
1023,2	0,001
1023,6	0,001
1024,1	0,001
1024,5	0,001
1024,9	0,001
1025,3	0,001
1025,7	0
1026,1	0
1026,6	0,001
1027	0,001
1027,4	0,001
1027,8	0,001
1028,2	0,001
1028,6	0,002
1029	0,002
1029,5	0,001
1029,9	0
1030,3	0,001
1030,7	0,001
1031,1	0,001
1031,5	0
1032	0
1032,4	0,001
1032,8	0,001
1033,2	0,001
1033,6	0
1034	0
1034,4	0,001
1034,9	0,001
1035,3	0,001
1035,7	0,001
1036,1	0,001
1036,5	0,002
1036,9	0,001
1037,4	0,001
1037,8	0,001
1038,2	0,002
1038,6	0,002
1039	0,001
1039,4	0,002
1039,8	0,001
1040,3	0,001
1040,7	0,001
1041,1	0
1041,5	-0
1041,9	-0
1042,3	0
1042,7	-0
1043,2	0
1043,6	0
1044	0,001
1044,4	0,001
1044,8	0,001
1045,2	0
1045,6	0,001
1046,1	0,001
1046,5	0,001
1046,9	0
1047,3	0
1047,7	-0
1048,1	-0,001
1048,5	-0
1049	-0,001
1049,4	-0,001
1049,8	-0
1050,2	-0
1050,6	-0
1051	0,001
1051,4	-0
1051,9	0,001
1052,3	0
1052,7	0
1053,1	0,001
1053,5	0,001
1053,9	0,001
1054,3	0,001
1054,8	-0
1055,2	0
1055,6	0
1056	-0
1056,4	-0,001
1056,8	0
1057,2	0
1057,6	0,001
1058,1	0,002
1058,5	0,002
1058,9	0,002
1059,3	0,002
1059,7	0,001
1060,1	0,001
1060,5	0
1061	-0
1061,4	-0,001
1061,8	-0,002
1062,2	-0,002
1062,6	-0,001
1063	-0,002
1063,4	-0,001
1063,8	-0,001
1064,3	-0,001
1064,7	-0
1065,1	0,001
1065,5	-0
1065,9	-0
1066,3	0,001
1066,7	0,001
1067,1	0,002
1067,6	0,003
1068	0,003
1068,4	0,003
1068,8	0,003
1069,2	0,002
1069,6	0,002
1070	0,001
1070,4	0,001
1070,9	0,001
1071,3	0
1071,7	0
1072,1	0
1072,5	0,001
1072,9	0
1073,3	0,001
1073,7	0,001
1074,2	0,001
1074,6	0,001
1075	0,002
1075,4	0,001
1075,8	0,001
1076,2	0,001
1076,6	0
1077	0,002
1077,5	0,001
1077,9	-0,001
1078,3	0,001
1078,7	0,001
1079,1	0,001
1079,5	0,001
1079,9	-0
1080,3	0,001
1080,7	0,003
1081,2	0,003
1081,6	0,004
1082	0,004
1082,4	0,003
1082,8	0,003
1083,2	0,001
1083,6	-0
1084	-0,001
1084,5	-0,003
1084,9	-0,003
1085,3	-0,005
1085,7	-0,006
1086,1	-0,004
1086,5	-0,004
1086,9	-0,002
1087,3	-0,002
1087,7	-0,001
1088,2	0,003
1088,6	0,005
1089	0,005
1089,4	0,005
1089,8	0,006
1090,2	0,008
1090,6	0,006
1091	0,004
1091,4	0,003
1091,9	0,002
1092,3	0,002
1092,7	-0,003
1093,1	-0,005
1093,5	-0,006
1093,9	-0,001
1094,3	-0,003
1094,7	-0,001
1095,1	0,002
1095,5	0,006
1096	0,003
1096,4	0,005
1096,8	-0
1097,2	0,002
1097,6	-0,002
1098	-0,008
1098,4	-0,006
1098,8	-0
1099,2	-0
1099,6	0,009
1100,1	0,009
1100,5	0,009
1100,9	0,012
1101,3	0,015
1101,7	0,011
1102,1	0,012
1102,5	0,006
1102,9	0,002
1103,3	0,015
1103,7	0,015
1104,2	0,013
1104,6	0,014
1105	0,015
1105,4	0,01
1105,8	0,021
1106,2	0,012
1106,6	0,009
1107	0,007
1107,4	0,013
1107,8	0,006
1108,3	0,261
