Data from Absorbance_00030.txt Node
Date: Wed Aug 02 18:04:10 MSK 2023
User: vat
Spectrometer: MAYP114033
Trigger mode: 0
Integration Time (sec): 8,000000E-3
Scans to average: 10
Electric dark correction enabled: true
Nonlinearity correction enabled: false
Boxcar width: 3
XAxis mode: Wavelengths
Number of Pixels in Spectrum: 2068
>>>>>Begin Spectral Data<<<<<
199,4	-0
199,9	-0,117
200,4	0,213
200,8	0,572
201,3	0,729
201,8	0,84
202,2	0,865
202,7	0,874
203,2	0,912
203,6	0,961
204,1	0,997
204,6	1
205	1,023
205,5	1,043
206	1,055
206,4	1,091
206,9	1,11
207,4	1,112
207,8	1,135
208,3	1,156
208,8	1,168
209,2	1,201
209,7	1,223
210,2	1,217
210,6	1,229
211,1	1,227
211,5	1,237
212	1,269
212,5	1,285
212,9	1,279
213,4	1,279
213,9	1,296
214,3	1,326
214,8	1,306
215,3	1,317
215,7	1,318
216,2	1,342
216,7	1,381
217,1	1,412
217,6	1,434
218,1	1,464
218,5	1,492
219	1,496
219,5	1,524
219,9	1,532
220,4	1,531
220,9	1,556
221,3	1,569
221,8	1,588
222,3	1,613
222,7	1,615
223,2	1,619
223,6	1,641
224,1	1,646
224,6	1,658
225	1,658
225,5	1,67
226	1,675
226,4	1,691
226,9	1,69
227,4	1,688
227,8	1,724
228,3	1,724
228,8	1,742
229,2	1,746
229,7	1,771
230,2	1,801
230,6	1,831
231,1	1,818
231,5	1,827
232	1,84
232,5	1,866
232,9	1,85
233,4	1,836
233,9	1,831
234,3	1,853
234,8	1,861
235,3	1,873
235,7	1,894
236,2	1,919
236,7	1,947
237,1	1,962
237,6	1,973
238,1	1,984
238,5	1,983
239	1,954
239,4	1,959
239,9	1,963
240,4	1,961
240,8	1,95
241,3	1,957
241,8	1,951
242,2	1,961
242,7	1,97
243,2	1,975
243,6	1,999
244,1	2,011
244,6	2,008
245	2,039
245,5	2,076
245,9	2,07
246,4	2,083
246,9	2,098
247,3	2,097
247,8	2,125
248,3	2,118
248,7	2,11
249,2	2,115
249,7	2,115
250,1	2,108
250,6	2,112
251	2,101
251,5	2,104
252	2,092
252,4	2,099
252,9	2,103
253,4	2,092
253,8	2,098
254,3	2,106
254,8	2,106
255,2	2,115
255,7	2,106
256,1	2,103
256,6	2,111
257,1	2,125
257,5	2,114
258	2,111
258,5	2,104
258,9	2,127
259,4	2,122
259,9	2,119
260,3	2,102
260,8	2,104
261,2	2,114
261,7	2,151
262,2	2,143
262,6	2,144
263,1	2,144
263,6	2,145
264	2,168
264,5	2,18
264,9	2,16
265,4	2,15
265,9	2,159
266,3	2,152
266,8	2,166
267,3	2,132
267,7	2,099
268,2	2,096
268,7	2,096
269,1	2,062
269,6	2,055
270	2,036
270,5	2,047
271	2,061
271,4	2,03
271,9	2,032
272,4	2,045
272,8	2,065
273,3	2,077
273,7	2,071
274,2	2,055
274,7	2,061
275,1	2,035
275,6	2,012
276,1	1,968
276,5	1,924
277	1,889
277,4	1,846
277,9	1,815
278,4	1,77
278,8	1,723
279,3	1,676
279,8	1,617
280,2	1,555
280,7	1,494
281,1	1,424
281,6	1,354
282,1	1,283
282,5	1,216
283	1,152
283,4	1,091
283,9	1,031
284,4	0,978
284,8	0,931
285,3	0,891
285,8	0,853
286,2	0,818
286,7	0,787
287,1	0,762
287,6	0,739
288,1	0,719
288,5	0,7
289	0,686
289,5	0,673
289,9	0,663
290,4	0,653
290,8	0,645
291,3	0,639
291,8	0,633
292,2	0,628
292,7	0,623
293,1	0,62
293,6	0,617
294,1	0,613
294,5	0,61
295	0,608
295,5	0,605
295,9	0,603
296,4	0,6
296,8	0,599
297,3	0,598
297,8	0,596
298,2	0,594
298,7	0,591
299,1	0,589
299,6	0,587
300,1	0,586
300,5	0,584
301	0,582
301,5	0,579
301,9	0,577
302,4	0,575
302,8	0,572
303,3	0,569
303,8	0,565
304,2	0,563
304,7	0,561
305,1	0,558
305,6	0,555
306,1	0,553
306,5	0,548
307	0,546
307,4	0,542
307,9	0,538
308,4	0,535
308,8	0,532
309,3	0,527
309,8	0,524
310,2	0,521
310,7	0,517
311,1	0,514
311,6	0,51
312,1	0,506
312,5	0,502
313	0,498
313,4	0,493
313,9	0,49
314,4	0,484
314,8	0,481
315,3	0,477
315,7	0,472
316,2	0,467
316,7	0,462
317,1	0,457
317,6	0,453
318	0,447
318,5	0,443
319	0,438
319,4	0,434
319,9	0,429
320,3	0,423
320,8	0,419
321,3	0,414
321,7	0,409
322,2	0,403
322,6	0,399
323,1	0,394
323,6	0,388
324	0,383
324,5	0,377
324,9	0,372
325,4	0,368
325,9	0,362
326,3	0,357
326,8	0,353
327,2	0,348
327,7	0,343
328,2	0,338
328,6	0,333
329,1	0,328
329,5	0,323
330	0,317
330,5	0,313
330,9	0,31
331,4	0,305
331,8	0,3
332,3	0,297
332,8	0,292
333,2	0,288
333,7	0,285
334,1	0,28
334,6	0,277
335,1	0,274
335,5	0,269
336	0,266
336,4	0,262
336,9	0,257
337,4	0,253
337,8	0,248
338,3	0,243
338,7	0,239
339,2	0,235
339,7	0,231
340,1	0,227
340,6	0,223
341	0,22
341,5	0,217
342	0,214
342,4	0,211
342,9	0,208
343,3	0,205
343,8	0,202
344,2	0,199
344,7	0,196
345,2	0,193
345,6	0,19
346,1	0,187
346,5	0,184
347	0,182
347,5	0,179
347,9	0,175
348,4	0,173
348,8	0,171
349,3	0,168
349,8	0,165
350,2	0,162
350,7	0,16
351,1	0,157
351,6	0,154
352	0,151
352,5	0,149
353	0,147
353,4	0,144
353,9	0,142
354,3	0,139
354,8	0,139
355,3	0,137
355,7	0,134
356,2	0,132
356,6	0,131
357,1	0,129
357,5	0,127
358	0,124
358,5	0,122
358,9	0,121
359,4	0,12
359,8	0,116
360,3	0,114
360,8	0,113
361,2	0,111
361,7	0,109
362,1	0,107
362,6	0,104
363	0,103
363,5	0,102
364	0,1
364,4	0,098
364,9	0,097
365,3	0,096
365,8	0,095
366,3	0,093
366,7	0,092
367,2	0,091
367,6	0,091
368,1	0,09
368,5	0,088
369	0,087
369,5	0,086
369,9	0,085
370,4	0,084
370,8	0,082
371,3	0,081
371,7	0,08
372,2	0,079
372,7	0,078
373,1	0,076
373,6	0,075
374	0,074
374,5	0,073
374,9	0,071
375,4	0,07
375,9	0,069
376,3	0,068
376,8	0,067
377,2	0,066
377,7	0,066
378,2	0,065
378,6	0,064
379,1	0,063
379,5	0,062
380	0,062
380,4	0,061
380,9	0,06
381,4	0,059
381,8	0,058
382,3	0,058
382,7	0,057
383,2	0,056
383,6	0,055
384,1	0,055
384,6	0,054
385	0,053
385,5	0,052
385,9	0,051
386,4	0,05
386,8	0,051
387,3	0,05
387,7	0,049
388,2	0,049
388,7	0,049
389,1	0,048
389,6	0,048
390	0,047
390,5	0,046
390,9	0,045
391,4	0,044
391,9	0,044
392,3	0,043
392,8	0,042
393,2	0,042
393,7	0,042
394,1	0,042
394,6	0,041
395,1	0,04
395,5	0,04
396	0,041
396,4	0,04
396,9	0,039
397,3	0,038
397,8	0,038
398,2	0,037
398,7	0,037
399,2	0,036
399,6	0,036
400,1	0,036
400,5	0,035
401	0,035
401,4	0,034
401,9	0,034
402,4	0,033
402,8	0,033
403,3	0,032
403,7	0,032
404,2	0,031
404,6	0,031
405,1	0,03
405,5	0,03
406	0,03
406,5	0,03
406,9	0,03
407,4	0,03
407,8	0,029
408,3	0,029
408,7	0,028
409,2	0,027
409,6	0,026
410,1	0,026
410,6	0,026
411	0,025
411,5	0,025
411,9	0,025
412,4	0,025
412,8	0,024
413,3	0,024
413,7	0,025
414,2	0,025
414,7	0,025
415,1	0,024
415,6	0,024
416	0,023
416,5	0,022
416,9	0,021
417,4	0,021
417,8	0,02
418,3	0,02
418,8	0,021
419,2	0,021
419,7	0,021
420,1	0,02
420,6	0,02
421	0,019
421,5	0,019
421,9	0,018
422,4	0,018
422,8	0,017
423,3	0,017
423,8	0,017
424,2	0,017
424,7	0,017
425,1	0,017
425,6	0,017
426	0,016
426,5	0,016
426,9	0,016
427,4	0,016
427,9	0,015
428,3	0,015
428,8	0,015
429,2	0,015
429,7	0,014
430,1	0,014
430,6	0,015
431	0,014
431,5	0,015
431,9	0,015
432,4	0,014
432,8	0,014
433,3	0,014
433,8	0,013
434,2	0,013
434,7	0,012
435,1	0,012
435,6	0,012
436	0,012
436,5	0,012
436,9	0,012
437,4	0,012
437,8	0,011
438,3	0,011
438,8	0,011
439,2	0,01
439,7	0,01
440,1	0,01
440,6	0,01
441	0,011
441,5	0,01
441,9	0,011
442,4	0,01
442,8	0,01
443,3	0,01
443,7	0,01
444,2	0,009
444,7	0,009
445,1	0,009
445,6	0,009
446	0,008
446,5	0,008
446,9	0,008
447,4	0,007
447,8	0,007
448,3	0,007
448,7	0,007
449,2	0,007
449,6	0,007
450,1	0,007
450,6	0,008
451	0,008
451,5	0,008
451,9	0,007
452,4	0,007
452,8	0,007
453,3	0,007
453,7	0,006
454,2	0,006
454,6	0,006
455,1	0,006
455,5	0,007
456	0,007
456,4	0,007
456,9	0,007
457,3	0,008
457,8	0,007
458,3	0,007
458,7	0,008
459,2	0,007
459,6	0,007
460,1	0,007
460,5	0,007
461	0,007
461,4	0,007
461,9	0,006
462,3	0,006
462,8	0,005
463,2	0,005
463,7	0,005
464,1	0,005
464,6	0,005
465	0,005
465,5	0,006
466	0,006
466,4	0,006
466,9	0,005
467,3	0,006
467,8	0,005
468,2	0,005
468,7	0,005
469,1	0,004
469,6	0,005
470	0,005
470,5	0,004
470,9	0,004
471,4	0,005
471,8	0,005
472,3	0,004
472,7	0,004
473,2	0,004
473,6	0,004
474,1	0,004
474,5	0,005
475	0,004
475,4	0,004
475,9	0,004
476,4	0,004
476,8	0,005
477,3	0,005
477,7	0,004
478,2	0,004
478,6	0,004
479,1	0,004
479,5	0,003
480	0,004
480,4	0,003
480,9	0,003
481,3	0,003
481,8	0,004
482,2	0,004
482,7	0,004
483,1	0,003
483,6	0,003
484	0,004
484,5	0,003
484,9	0,003
485,4	0,002
485,8	0,002
486,3	0,002
486,7	0,002
487,2	0,002
487,6	0,002
488,1	0,002
488,5	0,002
489	0,002
489,4	0,002
489,9	0,002
490,4	0,002
490,8	0,003
491,3	0,002
491,7	0,002
492,2	0,002
492,6	0,002
493,1	0,002
493,5	0,002
494	0,002
494,4	0,002
494,9	0,002
495,3	0,002
495,8	0,003
496,2	0,002
496,7	0,002
497,1	0,002
497,6	0,002
498	0,002
498,5	0,002
498,9	0,001
499,4	0,001
499,8	0,002
500,3	0,002
500,7	0,003
501,2	0,003
501,6	0,003
502,1	0,004
502,5	0,003
503	0,004
503,4	0,003
503,9	0,003
504,3	0,002
504,8	0,002
505,2	0,002
505,7	0,002
506,1	0,002
506,6	0,002
507	0,002
507,5	0,003
507,9	0,003
508,4	0,003
508,8	0,002
509,3	0,002
509,7	0,002
510,2	0,002
510,6	0,001
511,1	0,001
511,5	0,001
512	0,001
512,4	0,001
512,9	0,001
513,3	0,002
513,8	0,002
514,2	0,001
514,7	0,001
515,1	0,002
515,6	0,002
516	0,002
516,5	0,002
516,9	0,001
517,4	0,002
517,8	0,002
518,3	0,002
518,7	0,002
519,2	0,003
519,6	0,003
520,1	0,003
520,5	0,003
521	0,003
521,4	0,003
521,9	0,004
522,3	0,003
522,8	0,003
523,2	0,003
523,7	0,003
524,1	0,003
524,6	0,002
525	0,002
525,5	0,002
525,9	0,003
526,4	0,003
526,8	0,002
527,3	0,001
527,7	0,002
528,2	0,003
528,6	0,002
529,1	0,001
529,5	0,002
530	0,003
530,4	0,003
530,9	0,002
531,3	0,002
531,8	0,003
532,2	0,003
532,6	0,003
533,1	0,002
533,5	0,003
534	0,002
534,4	0,002
534,9	0,001
535,3	0,001
535,8	0,001
536,2	0,002
536,7	0,001
537,1	0,002
537,6	0,002
538	0,002
538,5	0,002
538,9	0,002
539,4	0,001
539,8	0,001
540,3	0,001
540,7	0,001
541,2	0,001
541,6	0,001
542,1	0,001
542,5	0,002
543	0,002
543,4	0,001
543,9	0,002
544,3	0,002
544,8	0,002
545,2	0,002
545,7	0,002
546,1	0,002
546,5	0,002
547	0,002
547,4	0,002
547,9	0,001
548,3	0,002
548,8	0,002
549,2	0,002
549,7	0,001
550,1	0,001
550,6	0,001
551	0,002
551,5	0,002
551,9	0,002
552,4	0,002
552,8	0,002
553,3	0,001
553,7	0
554,2	0
554,6	0
555,1	0
555,5	0
555,9	0
556,4	0,001
556,8	0,001
557,3	0,001
557,7	0,001
558,2	0,001
558,6	0,001
559,1	0,001
559,5	0,002
560	0,002
560,4	0,002
560,9	0,002
561,3	0,003
561,8	0,002
562,2	0,003
562,7	0,003
563,1	0,003
563,6	0,002
564	0,002
564,4	0,002
564,9	0,003
565,3	0,002
565,8	0,002
566,2	0,001
566,7	0,001
567,1	0,002
567,6	0,002
568	0,001
568,5	0,001
568,9	0,001
569,4	0,001
569,8	0,002
570,3	0,001
570,7	0,001
571,1	0,002
571,6	0,002
572	0,002
572,5	0,002
572,9	0,002
573,4	0,002
573,8	0,002
574,3	0,002
574,7	0,002
575,2	0,002
575,6	0,002
576,1	0,002
576,5	0,002
576,9	0,002
577,4	0,002
577,8	0,001
578,3	0,001
578,7	0,001
579,2	0,001
579,6	0,002
580,1	0,002
580,5	0,002
581	0,002
581,4	0,002
581,9	0,002
582,3	0,002
582,7	0,002
583,2	0,002
583,6	0,002
584,1	0,002
584,5	0,002
585	0,002
585,4	0,001
585,9	0,001
586,3	0,001
586,8	0,001
587,2	0,001
587,6	0,001
588,1	0,001
588,5	0,001
589	0,002
589,4	0,002
589,9	0,002
590,3	0,002
590,8	0,003
591,2	0,002
591,7	0,002
592,1	0,002
592,5	0,002
593	0,002
593,4	0,002
593,9	0,002
594,3	0,002
594,8	0,002
595,2	0,002
595,7	0,002
596,1	0,002
596,6	0,002
597	0,002
597,4	0,002
597,9	0,002
598,3	0,002
598,8	0,002
599,2	0,002
599,7	0,002
600,1	0,002
600,6	0,002
601	0,002
601,4	0,002
601,9	0,001
602,3	0,002
602,8	0,002
603,2	0,001
603,7	0,001
604,1	0,002
604,6	0,002
605	0,001
605,4	0,001
605,9	0,001
606,3	0,002
606,8	0,002
607,2	0,002
607,7	0,002
608,1	0,002
608,6	0,002
609	0,002
609,4	0,003
609,9	0,003
610,3	0,003
610,8	0,002
611,2	0,002
611,7	0,002
612,1	0,002
612,6	0,002
613	0,002
613,4	0,002
613,9	0,002
614,3	0,002
614,8	0,002
615,2	0,002
615,7	0,002
616,1	0,001
616,6	0,001
617	0,001
617,4	0,002
617,9	0,001
618,3	0,002
618,8	0,002
619,2	0,002
619,7	0,002
620,1	0,002
620,5	0,001
621	0,001
621,4	0,001
621,9	0,001
622,3	0,001
622,8	0,001
623,2	0,001
623,6	0,001
624,1	0,001
624,5	0,001
625	0,001
625,4	0,001
625,9	0,002
626,3	0,002
626,8	0,002
627,2	0,002
627,6	0,002
628,1	0,002
628,5	0,002
629	0,002
629,4	0,002
629,9	0,002
630,3	0,002
630,7	0,002
631,2	0,002
631,6	0,002
632,1	0,002
632,5	0,002
633	0,002
633,4	0,002
633,8	0,002
634,3	0,002
634,7	0,002
635,2	0,002
635,6	0,002
636,1	0,001
636,5	0,001
636,9	0,001
637,4	0,001
637,8	0,002
638,3	0,002
638,7	0,001
639,2	0,002
639,6	0,002
640	0,002
640,5	0,002
640,9	0,002
641,4	0,002
641,8	0,002
642,2	0,002
642,7	0,002
643,1	0,002
643,6	0,002
644	0,002
644,5	0,002
644,9	0,002
645,3	0,002
645,8	0,001
646,2	0,001
646,7	0,002
647,1	0,002
647,6	0,002
648	0,003
648,4	0,003
648,9	0,004
649,3	0,003
649,8	0,003
650,2	0,003
650,6	0,003
651,1	0,002
651,5	0,002
652	0,002
652,4	0,002
652,9	0,001
653,3	0,001
653,7	0,001
654,2	0,002
654,6	0,001
655,1	-0
655,5	0
655,9	0
656,4	0
656,8	0,001
657,3	0,002
657,7	0,002
658,2	0,002
658,6	0,003
659	0,004
659,5	0,006
659,9	0,004
660,4	0,003
660,8	0,002
661,2	0,002
661,7	0,002
662,1	0,002
662,6	0,002
663	0,002
663,4	0,002
663,9	0,002
664,3	0,002
664,8	0,002
665,2	0,002
665,6	0,002
666,1	0,002
666,5	0,002
667	0,002
667,4	0,002
667,9	0,002
668,3	0,002
668,7	0,002
669,2	0,002
669,6	0,002
670,1	0,002
670,5	0,002
670,9	0,002
671,4	0,002
671,8	0,002
672,3	0,002
672,7	0,002
673,1	0,002
673,6	0,001
674	0,001
674,5	0,001
674,9	0,001
675,3	0,001
675,8	0,001
676,2	0,001
676,7	0,002
677,1	0,002
677,5	0,002
678	0,002
678,4	0,002
678,9	0,002
679,3	0,002
679,7	0,001
680,2	0,001
680,6	0,001
681,1	0,001
681,5	0,001
681,9	0,001
682,4	0,001
682,8	0,002
683,3	0,002
683,7	0,002
684,1	0,001
684,6	0,001
685	0,001
685,5	0,001
685,9	0,001
686,3	0,001
686,8	0,002
687,2	0,002
687,7	0,002
688,1	0,002
688,5	0,002
689	0,002
689,4	0,002
689,9	0,001
690,3	0,001
690,7	0,001
691,2	0,001
691,6	0,001
692	0,001
692,5	0,001
692,9	0,001
693,4	0,001
693,8	0,002
694,2	0,002
694,7	0,002
695,1	0,002
695,6	0,002
696	0,002
696,4	0,002
696,9	0,002
697,3	0,001
697,8	0,001
698,2	0,001
698,6	0,001
699,1	0,001
699,5	0,001
699,9	0,001
700,4	0,001
700,8	0,001
701,3	0,001
701,7	0,002
702,1	0,002
702,6	0,002
703	0,002
703,5	0,002
703,9	0,002
704,3	0,002
704,8	0,002
705,2	0,002
705,6	0,002
706,1	0,002
706,5	0,002
707	0,002
707,4	0,002
707,8	0,002
708,3	0,002
708,7	0,002
709,2	0,002
709,6	0,002
710	0,002
710,5	0,002
710,9	0,002
711,3	0,002
711,8	0,002
712,2	0,002
712,7	0,002
713,1	0,002
713,5	0,002
714	0,002
714,4	0,002
714,8	0,002
715,3	0,002
715,7	0,002
716,2	0,002
716,6	0,001
717	0,002
717,5	0,002
717,9	0,002
718,3	0,001
718,8	0,002
719,2	0,002
719,7	0,002
720,1	0,002
720,5	0,002
721	0,002
721,4	0,002
721,8	0,003
722,3	0,002
722,7	0,002
723,2	0,002
723,6	0,002
724	0,002
724,5	0,002
724,9	0,002
725,3	0,002
725,8	0,002
726,2	0,002
726,7	0,002
727,1	0,002
727,5	0,001
728	0,001
728,4	0,001
728,8	0,001
729,3	0,001
729,7	0,001
730,1	0,001
730,6	0,002
731	0,002
731,5	0,002
731,9	0,002
732,3	0,002
732,8	0,002
733,2	0,002
733,6	0,002
734,1	0,002
734,5	0,002
734,9	0,002
735,4	0,002
735,8	0,002
736,3	0,002
736,7	0,002
737,1	0,002
737,6	0,001
738	0,002
738,4	0,002
738,9	0,002
739,3	0,002
739,7	0,002
740,2	0,002
740,6	0,002
741,1	0,002
741,5	0,002
741,9	0,002
742,4	0,002
742,8	0,002
743,2	0,002
743,7	0,002
744,1	0,002
744,5	0,002
745	0,002
745,4	0,003
745,8	0,003
746,3	0,003
746,7	0,003
747,2	0,003
747,6	0,002
748	0,002
748,5	0,002
748,9	0,001
749,3	0,002
749,8	0,002
750,2	0,002
750,6	0,002
751,1	0,002
751,5	0,002
751,9	0,002
752,4	0,002
752,8	0,002
753,3	0,002
753,7	0,002
754,1	0,002
754,6	0,002
755	0,002
755,4	0,002
755,9	0,002
756,3	0,002
756,7	0,002
757,2	0,002
757,6	0,002
758	0,001
758,5	0,002
758,9	0,002
759,3	0,002
759,8	0,002
760,2	0,002
760,6	0,002
761,1	0,002
761,5	0,002
761,9	0,003
762,4	0,003
762,8	0,002
763,3	0,002
763,7	0,002
764,1	0,002
764,6	0,002
765	0,002
765,4	0,002
765,9	0,002
766,3	0,001
766,7	0,002
767,2	0,001
767,6	0,001
768	0,002
768,5	0,002
768,9	0,002
769,3	0,002
769,8	0,002
770,2	0,002
770,6	0,002
771,1	0,002
771,5	0,002
771,9	0,002
772,4	0,002
772,8	0,002
773,2	0,002
773,7	0,002
774,1	0,002
774,5	0,002
775	0,003
775,4	0,003
775,8	0,003
776,3	0,002
776,7	0,002
777,1	0,003
777,6	0,002
778	0,002
778,4	0,002
778,9	0,002
779,3	0,002
779,7	0,002
780,2	0,002
780,6	0,002
781	0,002
781,5	0,002
781,9	0,002
782,3	0,002
782,8	0,002
783,2	0,002
783,6	0,002
784,1	0,002
784,5	0,002
784,9	0,002
785,4	0,002
785,8	0,002
786,2	0,002
786,7	0,002
787,1	0,002
787,5	0,002
788	0,002
788,4	0,002
788,8	0,002
789,3	0,002
789,7	0,002
790,1	0,002
790,6	0,002
791	0,002
791,4	0,002
791,9	0,002
792,3	0,002
792,7	0,002
793,2	0,002
793,6	0,002
794	0,002
794,5	0,003
794,9	0,003
795,3	0,003
795,8	0,003
796,2	0,003
796,6	0,002
797,1	0,002
797,5	0,002
797,9	0,002
798,4	0,002
798,8	0,002
799,2	0,002
799,7	0,002
800,1	0,002
800,5	0,002
801	0,002
801,4	0,002
801,8	0,002
802,2	0,002
802,7	0,002
803,1	0,002
803,5	0,002
804	0,002
804,4	0,003
804,8	0,003
805,3	0,002
805,7	0,002
806,1	0,002
806,6	0,002
807	0,002
807,4	0,002
807,9	0,002
808,3	0,002
808,7	0,001
809,2	0,001
809,6	0,001
810	0,001
810,4	0,001
810,9	0,001
811,3	0,001
811,7	0,002
812,2	0,002
812,6	0,002
813	0,002
813,5	0,002
813,9	0,002
814,3	0,002
814,8	0,002
815,2	0,002
815,6	0,002
816,1	0,002
816,5	0,002
816,9	0,002
817,3	0,002
817,8	0,002
818,2	0,002
818,6	0,002
819,1	0,002
819,5	0,002
819,9	0,002
820,4	0,001
820,8	0,002
821,2	0,001
821,7	0,002
822,1	0,002
822,5	0,002
822,9	0,002
823,4	0,002
823,8	0,002
824,2	0,002
824,7	0,002
825,1	0,002
825,5	0,002
826	0,001
826,4	0,001
826,8	0,001
827,3	0,001
827,7	0,001
828,1	0,001
828,5	0,001
829	0,001
829,4	0,001
829,8	0,001
830,3	0,001
830,7	0,001
831,1	0,001
831,6	0,001
832	0,001
832,4	0,001
832,8	0,001
833,3	0,001
833,7	0,002
834,1	0,002
834,6	0,002
835	0,002
835,4	0,002
835,8	0,002
836,3	0,002
836,7	0,002
837,1	0,002
837,6	0,002
838	0,002
838,4	0,002
838,9	0,002
839,3	0,002
839,7	0,002
840,1	0,002
840,6	0,002
841	0,002
841,4	0,002
841,9	0,001
842,3	0,001
842,7	0,001
843,1	0,002
843,6	0,002
844	0,002
844,4	0,002
844,9	0,002
845,3	0,002
845,7	0,002
846,2	0,001
846,6	0,001
847	0,001
847,4	0,001
847,9	0,001
848,3	0,002
848,7	0,002
849,2	0,002
849,6	0,003
850	0,002
850,4	0,002
850,9	0,002
851,3	0,002
851,7	0,002
852,2	0,002
852,6	0,002
853	0,002
853,4	0,002
853,9	0,002
854,3	0,002
854,7	0,002
855,2	0,002
855,6	0,002
856	0,002
856,4	0,003
856,9	0,002
857,3	0,002
857,7	0,002
858,2	0,002
858,6	0,002
859	0,002
859,4	0,002
859,9	0,002
860,3	0,002
860,7	0,002
861,1	0,002
861,6	0,002
862	0,002
862,4	0,002
862,9	0,002
863,3	0,002
863,7	0,002
864,1	0,002
864,6	0,002
865	0,002
865,4	0,002
865,9	0,002
866,3	0,002
866,7	0,002
867,1	0,002
867,6	0,002
868	0,002
868,4	0,002
868,8	0,002
869,3	0,002
869,7	0,002
870,1	0,002
870,6	0,002
871	0,002
871,4	0,002
871,8	0,002
872,3	0,002
872,7	0,002
873,1	0,002
873,5	0,003
874	0,003
874,4	0,003
874,8	0,002
875,3	0,002
875,7	0,002
876,1	0,002
876,5	0,002
877	0,002
877,4	0,003
877,8	0,003
878,2	0,003
878,7	0,003
879,1	0,003
879,5	0,003
879,9	0,002
880,4	0,002
880,8	0,003
881,2	0,002
881,7	0,002
882,1	0,002
882,5	0,002
882,9	0,002
883,4	0,002
883,8	0,002
884,2	0,002
884,6	0,001
885,1	0,001
885,5	0,001
885,9	0,001
886,3	0,001
886,8	0,001
887,2	0,001
887,6	0,002
888	0,002
888,5	0,002
888,9	0,002
889,3	0,001
889,8	0,002
890,2	0,002
890,6	0,002
891	0,002
891,5	0,002
891,9	0,002
892,3	0,002
892,7	0,001
893,2	0,002
893,6	0,002
894	0,002
894,4	0,002
894,9	0,002
895,3	0,002
895,7	0,002
896,1	0,002
896,6	0,002
897	0,002
897,4	0,002
897,8	0,002
898,3	0,002
898,7	0,001
899,1	0,002
899,5	0,001
900	0,001
900,4	0,001
900,8	0,001
901,2	0,002
901,7	0,002
902,1	0,002
902,5	0,001
902,9	0,001
903,4	0,001
903,8	0,001
904,2	0,001
904,6	0,001
905,1	0
905,5	0,001
905,9	0,001
906,3	0,001
906,8	0,001
907,2	0,001
907,6	0,001
908	0,001
908,5	0,001
908,9	0,001
909,3	0,001
909,7	0,002
910,2	0,002
910,6	0,002
911	0,003
911,4	0,003
911,9	0,003
912,3	0,003
912,7	0,003
913,1	0,003
913,6	0,002
914	0,002
914,4	0,001
914,8	0,001
915,3	0,001
915,7	0,001
916,1	0,001
916,5	0
916,9	0,001
917,4	0,001
917,8	0,001
918,2	0,001
918,6	0,001
919,1	0,001
919,5	0,001
919,9	0,001
920,3	0,001
920,8	0,001
921,2	0,001
921,6	0,002
922	0,002
922,5	0,002
922,9	0,002
923,3	0,002
923,7	0,001
924,2	0,001
924,6	0,001
925	0,002
925,4	0,002
925,8	0,002
926,3	0,002
926,7	0,002
927,1	0,002
927,5	0,002
928	0,002
928,4	0,002
928,8	0,001
929,2	0,002
929,7	0,001
930,1	0,001
930,5	0,001
930,9	0,001
931,3	0,002
931,8	0,002
932,2	0,001
932,6	0,002
933	0,002
933,5	0,002
933,9	0,002
934,3	0,002
934,7	0,003
935,2	0,003
935,6	0,003
936	0,002
936,4	0,002
936,8	0,002
937,3	0,002
937,7	0,002
938,1	0,001
938,5	0,001
939	0,002
939,4	0,002
939,8	0,002
940,2	0,002
940,6	0,002
941,1	0,002
941,5	0,002
941,9	0,002
942,3	0,002
942,8	0,002
943,2	0,002
943,6	0,002
944	0,001
944,4	0,001
944,9	0,002
945,3	0,002
945,7	0,002
946,1	0,002
946,6	0,001
947	0,002
947,4	0,002
947,8	0,002
948,2	0,001
948,7	0,001
949,1	0,001
949,5	0,001
949,9	0,001
950,3	0,001
950,8	0,001
951,2	0,002
951,6	0,002
952	0,002
952,5	0,002
952,9	0,002
953,3	0,002
953,7	0,002
954,1	0,002
954,6	0,002
955	0,001
955,4	0,001
955,8	0,001
956,2	0,001
956,7	0,001
957,1	0
957,5	0
957,9	0,001
958,3	0
958,8	0
959,2	0,001
959,6	0,001
960	0,002
960,5	0,002
960,9	0,002
961,3	0,002
961,7	0,002
962,1	0,002
962,6	0,002
963	0,002
963,4	0,003
963,8	0,002
964,2	0,002
964,7	0,002
965,1	0,003
965,5	0,002
965,9	0,002
966,3	0,001
966,8	0,001
967,2	0,002
967,6	0,002
968	0,002
968,4	0,002
968,9	0,002
969,3	0,002
969,7	0,002
970,1	0,002
970,5	0,002
971	0,001
971,4	0,002
971,8	0,002
972,2	0,002
972,6	0,002
973,1	0,003
973,5	0,003
973,9	0,002
974,3	0,002
974,7	0,002
975,2	0,002
975,6	0,001
976	0,001
976,4	0,001
976,8	0,001
977,3	0,002
977,7	0,002
978,1	0,002
978,5	0,003
978,9	0,003
979,4	0,003
979,8	0,003
980,2	0,003
980,6	0,003
981	0,003
981,5	0,003
981,9	0,003
982,3	0,003
982,7	0,003
983,1	0,003
983,6	0,002
984	0,003
984,4	0,002
984,8	0,002
985,2	0,002
985,6	0,002
986,1	0,002
986,5	0,003
986,9	0,002
987,3	0,002
987,7	0,002
988,2	0,003
988,6	0,003
989	0,003
989,4	0,002
989,8	0,003
990,3	0,004
990,7	0,004
991,1	0,003
991,5	0,003
991,9	0,003
992,3	0,003
992,8	0,003
993,2	0,002
993,6	0,002
994	0,002
994,4	0,003
994,9	0,002
995,3	0,002
995,7	0,002
996,1	0,002
996,5	0,002
996,9	0,002
997,4	0,002
997,8	0,002
998,2	0,003
998,6	0,003
999	0,003
999,5	0,003
999,9	0,003
1000,3	0,002
1000,7	0,002
1001,1	0,002
1001,5	0,002
1002	0,002
1002,4	0,003
1002,8	0,003
1003,2	0,003
1003,6	0,002
1004	0,002
1004,5	0,002
1004,9	0,001
1005,3	0,001
1005,7	0,002
1006,1	0,002
1006,6	0,002
1007	0,002
1007,4	0,003
1007,8	0,003
1008,2	0,003
1008,6	0,002
1009,1	0,002
1009,5	0,001
1009,9	0,001
1010,3	0
1010,7	0
1011,1	0
1011,6	0,001
1012	0,002
1012,4	0,002
1012,8	0,003
1013,2	0,003
1013,6	0,003
1014,1	0,002
1014,5	0,002
1014,9	0,002
1015,3	0,001
1015,7	0,001
1016,1	0,001
1016,6	0
1017	-0
1017,4	0
1017,8	-0
1018,2	-0,001
1018,6	-0,001
1019,1	-0
1019,5	0
1019,9	0
1020,3	-0
1020,7	-0
1021,1	-0
1021,6	-0
1022	-0,001
1022,4	-0
1022,8	-0
1023,2	-0
1023,6	0,001
1024,1	0,002
1024,5	0,002
1024,9	0,002
1025,3	0,002
1025,7	0,002
1026,1	0,002
1026,6	0,002
1027	0,002
1027,4	0,001
1027,8	0,001
1028,2	0
1028,6	0
1029	0,001
1029,5	0
1029,9	-0
1030,3	-0
1030,7	-0
1031,1	0
1031,5	0
1032	0
1032,4	0
1032,8	0,001
1033,2	0,002
1033,6	0,001
1034	0,001
1034,4	0,002
1034,9	0,002
1035,3	0,002
1035,7	0,002
1036,1	0,001
1036,5	0,001
1036,9	0,001
1037,4	0
1037,8	0
1038,2	0,001
1038,6	0,002
1039	0,002
1039,4	0,002
1039,8	0,002
1040,3	0,002
1040,7	0,001
1041,1	0,001
1041,5	0,001
1041,9	0,001
1042,3	0,002
1042,7	0,001
1043,2	0,001
1043,6	0,002
1044	0,002
1044,4	0,001
1044,8	0
1045,2	-0,001
1045,6	0
1046,1	0
1046,5	0
1046,9	0
1047,3	0,001
1047,7	0,001
1048,1	0,001
1048,5	0,001
1049	0
1049,4	0,001
1049,8	0
1050,2	-0
1050,6	0
1051	0,001
1051,4	0
1051,9	0
1052,3	-0
1052,7	-0
1053,1	0,001
1053,5	0
1053,9	0
1054,3	0
1054,8	0
1055,2	0
1055,6	0,001
1056	0
1056,4	0
1056,8	0,001
1057,2	0,001
1057,6	0,001
1058,1	0,002
1058,5	0,001
1058,9	0,001
1059,3	0,001
1059,7	0,001
1060,1	0
1060,5	0
1061	0
1061,4	-0
1061,8	-0,001
1062,2	-0,002
1062,6	-0,001
1063	-0,002
1063,4	-0
1063,8	-0,001
1064,3	-0,001
1064,7	-0
1065,1	0,001
1065,5	-0
1065,9	-0
1066,3	-0,001
1066,7	-0,001
1067,1	-0
1067,6	-0
1068	-0
1068,4	-0,001
1068,8	-0
1069,2	0,001
1069,6	0,001
1070	0,001
1070,4	0,002
1070,9	0,002
1071,3	0,002
1071,7	0,003
1072,1	0,002
1072,5	0,003
1072,9	0,001
1073,3	0,001
1073,7	-0
1074,2	-0,001
1074,6	-0,001
1075	-0
1075,4	-0,002
1075,8	-0
1076,2	-0,001
1076,6	-0,001
1077	0
1077,5	-0,001
1077,9	-0,002
1078,3	-0
1078,7	-0,001
1079,1	-0,001
1079,5	-0,001
1079,9	-0,001
1080,3	0,001
1080,7	0,001
1081,2	0
1081,6	0,001
1082	0,002
1082,4	0,001
1082,8	0
1083,2	0
1083,6	-0
1084	-0,002
1084,5	-0,003
1084,9	-0,003
1085,3	-0,003
1085,7	-0,004
1086,1	-0,003
1086,5	-0,003
1086,9	-0,002
1087,3	-0,003
1087,7	-0,003
1088,2	-0,003
1088,6	-0
1089	-0,003
1089,4	-0,003
1089,8	-0,002
1090,2	-0,002
1090,6	-0,002
1091	0
1091,4	0
1091,9	0,002
1092,3	0,001
1092,7	-0,001
1093,1	-0
1093,5	-0
1093,9	0,001
1094,3	-0,001
1094,7	-0,001
1095,1	0
1095,5	-0
1096	-0,003
1096,4	0,001
1096,8	-0,007
1097,2	-0,009
1097,6	-0,007
1098	-0,01
1098,4	-0,005
1098,8	-0,001
1099,2	-0,006
1099,6	0,005
1100,1	0,009
1100,5	0,006
1100,9	0,014
1101,3	0,015
1101,7	0,019
1102,1	0,016
1102,5	0,009
1102,9	0,005
1103,3	0,008
1103,7	0,001
1104,2	-0,004
1104,6	-0,007
1105	0,012
1105,4	0,016
1105,8	0,026
1106,2	0,035
1106,6	0,047
1107	0,068
1107,4	0,102
1107,8	0,071
1108,3	0,473
