Data from Absorbance_00016.txt Node
Date: Wed Aug 02 17:44:58 MSK 2023
User: vat
Spectrometer: MAYP114033
Trigger mode: 0
Integration Time (sec): 8,000000E-3
Scans to average: 10
Electric dark correction enabled: true
Nonlinearity correction enabled: false
Boxcar width: 3
XAxis mode: Wavelengths
Number of Pixels in Spectrum: 2068
>>>>>Begin Spectral Data<<<<<
199,4	-0
199,9	0,11
200,4	0,42
200,8	0,669
201,3	0,804
201,8	0,87
202,2	0,893
202,7	0,903
203,2	0,934
203,6	0,968
204,1	1,016
204,6	1,029
205	1,065
205,5	1,083
206	1,099
206,4	1,116
206,9	1,12
207,4	1,115
207,8	1,115
208,3	1,13
208,8	1,151
209,2	1,183
209,7	1,214
210,2	1,214
210,6	1,236
211,1	1,246
211,5	1,255
212	1,256
212,5	1,267
212,9	1,271
213,4	1,289
213,9	1,312
214,3	1,355
214,8	1,364
215,3	1,395
215,7	1,389
216,2	1,405
216,7	1,436
217,1	1,445
217,6	1,449
218,1	1,458
218,5	1,483
219	1,516
219,5	1,557
219,9	1,567
220,4	1,585
220,9	1,608
221,3	1,615
221,8	1,623
222,3	1,63
222,7	1,613
223,2	1,617
223,6	1,619
224,1	1,618
224,6	1,61
225	1,6
225,5	1,58
226	1,563
226,4	1,552
226,9	1,529
227,4	1,51
227,8	1,516
228,3	1,49
228,8	1,479
229,2	1,467
229,7	1,464
230,2	1,463
230,6	1,465
231,1	1,464
231,5	1,477
232	1,498
232,5	1,513
232,9	1,523
233,4	1,54
233,9	1,557
234,3	1,579
234,8	1,604
235,3	1,623
235,7	1,657
236,2	1,686
236,7	1,715
237,1	1,748
237,6	1,765
238,1	1,785
238,5	1,807
239	1,825
239,4	1,865
239,9	1,888
240,4	1,91
240,8	1,936
241,3	1,952
241,8	1,957
242,2	1,971
242,7	1,972
243,2	1,984
243,6	1,999
244,1	1,997
244,6	2,026
245	2,043
245,5	2,06
245,9	2,072
246,4	2,088
246,9	2,086
247,3	2,104
247,8	2,097
248,3	2,109
248,7	2,103
249,2	2,099
249,7	2,087
250,1	2,109
250,6	2,118
251	2,147
251,5	2,142
252	2,162
252,4	2,157
252,9	2,163
253,4	2,153
253,8	2,143
254,3	2,121
254,8	2,137
255,2	2,121
255,7	2,12
256,1	2,111
256,6	2,091
257,1	2,09
257,5	2,09
258	2,076
258,5	2,069
258,9	2,089
259,4	2,087
259,9	2,1
260,3	2,089
260,8	2,083
261,2	2,105
261,7	2,125
262,2	2,111
262,6	2,129
263,1	2,126
263,6	2,135
264	2,162
264,5	2,155
264,9	2,137
265,4	2,125
265,9	2,125
266,3	2,113
266,8	2,123
267,3	2,094
267,7	2,074
268,2	2,079
268,7	2,074
269,1	2,04
269,6	2,025
270	2,01
270,5	2,015
271	1,988
271,4	1,966
271,9	1,951
272,4	1,947
272,8	1,932
273,3	1,897
273,7	1,869
274,2	1,857
274,7	1,829
275,1	1,79
275,6	1,75
276,1	1,715
276,5	1,677
277	1,62
277,4	1,561
277,9	1,507
278,4	1,448
278,8	1,384
279,3	1,323
279,8	1,26
280,2	1,197
280,7	1,135
281,1	1,074
281,6	1,016
282,1	0,958
282,5	0,901
283	0,845
283,4	0,794
283,9	0,743
284,4	0,695
284,8	0,651
285,3	0,609
285,8	0,569
286,2	0,532
286,7	0,496
287,1	0,464
287,6	0,433
288,1	0,405
288,5	0,378
289	0,353
289,5	0,331
289,9	0,31
290,4	0,291
290,8	0,273
291,3	0,257
291,8	0,243
292,2	0,231
292,7	0,22
293,1	0,21
293,6	0,202
294,1	0,196
294,5	0,189
295	0,185
295,5	0,18
295,9	0,176
296,4	0,173
296,8	0,17
297,3	0,168
297,8	0,167
298,2	0,165
298,7	0,164
299,1	0,164
299,6	0,164
300,1	0,165
300,5	0,165
301	0,166
301,5	0,166
301,9	0,167
302,4	0,167
302,8	0,168
303,3	0,169
303,8	0,17
304,2	0,172
304,7	0,173
305,1	0,174
305,6	0,176
306,1	0,177
306,5	0,178
307	0,18
307,4	0,18
307,9	0,182
308,4	0,183
308,8	0,185
309,3	0,186
309,8	0,187
310,2	0,189
310,7	0,191
311,1	0,192
311,6	0,193
312,1	0,194
312,5	0,195
313	0,195
313,4	0,197
313,9	0,197
314,4	0,199
314,8	0,2
315,3	0,2
315,7	0,201
316,2	0,203
316,7	0,202
317,1	0,203
317,6	0,203
318	0,204
318,5	0,205
319	0,204
319,4	0,205
319,9	0,207
320,3	0,207
320,8	0,207
321,3	0,206
321,7	0,207
322,2	0,206
322,6	0,206
323,1	0,206
323,6	0,206
324	0,205
324,5	0,205
324,9	0,205
325,4	0,205
325,9	0,205
326,3	0,205
326,8	0,205
327,2	0,205
327,7	0,206
328,2	0,205
328,6	0,205
329,1	0,203
329,5	0,202
330	0,2
330,5	0,198
330,9	0,197
331,4	0,195
331,8	0,194
332,3	0,193
332,8	0,191
333,2	0,19
333,7	0,189
334,1	0,188
334,6	0,188
335,1	0,186
335,5	0,185
336	0,184
336,4	0,182
336,9	0,18
337,4	0,178
337,8	0,176
338,3	0,174
338,7	0,173
339,2	0,171
339,7	0,169
340,1	0,167
340,6	0,165
341	0,163
341,5	0,162
342	0,16
342,4	0,158
342,9	0,156
343,3	0,154
343,8	0,153
344,2	0,151
344,7	0,149
345,2	0,147
345,6	0,146
346,1	0,144
346,5	0,142
347	0,14
347,5	0,138
347,9	0,136
348,4	0,134
348,8	0,133
349,3	0,131
349,8	0,128
350,2	0,126
350,7	0,124
351,1	0,122
351,6	0,119
352	0,117
352,5	0,115
353	0,114
353,4	0,112
353,9	0,11
354,3	0,109
354,8	0,108
355,3	0,106
355,7	0,104
356,2	0,102
356,6	0,101
357,1	0,099
357,5	0,096
358	0,094
358,5	0,093
358,9	0,092
359,4	0,09
359,8	0,088
360,3	0,086
360,8	0,086
361,2	0,084
361,7	0,082
362,1	0,079
362,6	0,078
363	0,077
363,5	0,076
364	0,074
364,4	0,071
364,9	0,071
365,3	0,07
365,8	0,068
366,3	0,067
366,7	0,066
367,2	0,066
367,6	0,066
368,1	0,065
368,5	0,063
369	0,063
369,5	0,062
369,9	0,061
370,4	0,06
370,8	0,058
371,3	0,057
371,7	0,057
372,2	0,055
372,7	0,054
373,1	0,053
373,6	0,051
374	0,051
374,5	0,05
374,9	0,048
375,4	0,048
375,9	0,047
376,3	0,047
376,8	0,044
377,2	0,044
377,7	0,043
378,2	0,043
378,6	0,042
379,1	0,041
379,5	0,041
380	0,041
380,4	0,04
380,9	0,039
381,4	0,038
381,8	0,037
382,3	0,037
382,7	0,035
383,2	0,035
383,6	0,035
384,1	0,035
384,6	0,035
385	0,035
385,5	0,034
385,9	0,034
386,4	0,033
386,8	0,034
387,3	0,033
387,7	0,032
388,2	0,032
388,7	0,032
389,1	0,031
389,6	0,03
390	0,03
390,5	0,03
390,9	0,029
391,4	0,028
391,9	0,028
392,3	0,028
392,8	0,028
393,2	0,028
393,7	0,028
394,1	0,028
394,6	0,028
395,1	0,027
395,5	0,026
396	0,027
396,4	0,027
396,9	0,026
397,3	0,025
397,8	0,025
398,2	0,025
398,7	0,025
399,2	0,025
399,6	0,025
400,1	0,025
400,5	0,025
401	0,025
401,4	0,024
401,9	0,024
402,4	0,023
402,8	0,023
403,3	0,022
403,7	0,022
404,2	0,021
404,6	0,021
405,1	0,021
405,5	0,021
406	0,021
406,5	0,021
406,9	0,021
407,4	0,021
407,8	0,021
408,3	0,021
408,7	0,02
409,2	0,02
409,6	0,019
410,1	0,019
410,6	0,019
411	0,019
411,5	0,019
411,9	0,019
412,4	0,019
412,8	0,018
413,3	0,018
413,7	0,019
414,2	0,018
414,7	0,018
415,1	0,018
415,6	0,018
416	0,018
416,5	0,018
416,9	0,018
417,4	0,017
417,8	0,017
418,3	0,017
418,8	0,017
419,2	0,017
419,7	0,017
420,1	0,017
420,6	0,018
421	0,018
421,5	0,017
421,9	0,017
422,4	0,017
422,8	0,017
423,3	0,017
423,8	0,016
424,2	0,016
424,7	0,016
425,1	0,016
425,6	0,016
426	0,016
426,5	0,016
426,9	0,015
427,4	0,015
427,9	0,015
428,3	0,015
428,8	0,015
429,2	0,015
429,7	0,015
430,1	0,015
430,6	0,016
431	0,016
431,5	0,017
431,9	0,016
432,4	0,016
432,8	0,016
433,3	0,016
433,8	0,016
434,2	0,016
434,7	0,016
435,1	0,016
435,6	0,016
436	0,016
436,5	0,016
436,9	0,016
437,4	0,016
437,8	0,016
438,3	0,015
438,8	0,015
439,2	0,014
439,7	0,014
440,1	0,014
440,6	0,014
441	0,014
441,5	0,014
441,9	0,014
442,4	0,015
442,8	0,014
443,3	0,014
443,7	0,014
444,2	0,013
444,7	0,014
445,1	0,013
445,6	0,012
446	0,012
446,5	0,013
446,9	0,013
447,4	0,012
447,8	0,012
448,3	0,013
448,7	0,013
449,2	0,013
449,6	0,013
450,1	0,012
450,6	0,013
451	0,013
451,5	0,012
451,9	0,011
452,4	0,011
452,8	0,011
453,3	0,011
453,7	0,011
454,2	0,011
454,6	0,012
455,1	0,013
455,5	0,013
456	0,013
456,4	0,013
456,9	0,014
457,3	0,013
457,8	0,013
458,3	0,013
458,7	0,013
459,2	0,013
459,6	0,013
460,1	0,013
460,5	0,012
461	0,012
461,4	0,012
461,9	0,011
462,3	0,011
462,8	0,011
463,2	0,011
463,7	0,011
464,1	0,011
464,6	0,011
465	0,012
465,5	0,012
466	0,012
466,4	0,011
466,9	0,011
467,3	0,011
467,8	0,011
468,2	0,01
468,7	0,01
469,1	0,01
469,6	0,011
470	0,01
470,5	0,011
470,9	0,011
471,4	0,012
471,8	0,012
472,3	0,011
472,7	0,011
473,2	0,011
473,6	0,011
474,1	0,011
474,5	0,011
475	0,01
475,4	0,01
475,9	0,01
476,4	0,01
476,8	0,011
477,3	0,011
477,7	0,011
478,2	0,012
478,6	0,012
479,1	0,012
479,5	0,012
480	0,012
480,4	0,011
480,9	0,011
481,3	0,01
481,8	0,01
482,2	0,01
482,7	0,011
483,1	0,01
483,6	0,01
484	0,01
484,5	0,009
484,9	0,009
485,4	0,008
485,8	0,008
486,3	0,008
486,7	0,008
487,2	0,008
487,6	0,008
488,1	0,008
488,5	0,009
489	0,009
489,4	0,009
489,9	0,009
490,4	0,008
490,8	0,009
491,3	0,009
491,7	0,009
492,2	0,009
492,6	0,009
493,1	0,009
493,5	0,009
494	0,008
494,4	0,008
494,9	0,009
495,3	0,009
495,8	0,009
496,2	0,009
496,7	0,009
497,1	0,009
497,6	0,009
498	0,009
498,5	0,009
498,9	0,009
499,4	0,009
499,8	0,009
500,3	0,009
500,7	0,009
501,2	0,009
501,6	0,009
502,1	0,01
502,5	0,01
503	0,011
503,4	0,011
503,9	0,01
504,3	0,01
504,8	0,01
505,2	0,009
505,7	0,009
506,1	0,008
506,6	0,009
507	0,008
507,5	0,007
507,9	0,006
508,4	0,006
508,8	0,006
509,3	0,006
509,7	0,006
510,2	0,006
510,6	0,006
511,1	0,006
511,5	0,007
512	0,007
512,4	0,007
512,9	0,007
513,3	0,007
513,8	0,008
514,2	0,008
514,7	0,008
515,1	0,008
515,6	0,009
516	0,009
516,5	0,009
516,9	0,009
517,4	0,009
517,8	0,01
518,3	0,009
518,7	0,009
519,2	0,009
519,6	0,009
520,1	0,008
520,5	0,008
521	0,008
521,4	0,008
521,9	0,008
522,3	0,007
522,8	0,007
523,2	0,007
523,7	0,007
524,1	0,006
524,6	0,006
525	0,006
525,5	0,006
525,9	0,007
526,4	0,006
526,8	0,006
527,3	0,007
527,7	0,007
528,2	0,007
528,6	0,007
529,1	0,007
529,5	0,007
530	0,008
530,4	0,008
530,9	0,008
531,3	0,008
531,8	0,008
532,2	0,008
532,6	0,008
533,1	0,008
533,5	0,008
534	0,007
534,4	0,007
534,9	0,006
535,3	0,006
535,8	0,006
536,2	0,007
536,7	0,007
537,1	0,007
537,6	0,007
538	0,007
538,5	0,008
538,9	0,007
539,4	0,006
539,8	0,006
540,3	0,006
540,7	0,006
541,2	0,006
541,6	0,006
542,1	0,005
542,5	0,006
543	0,006
543,4	0,007
543,9	0,007
544,3	0,007
544,8	0,007
545,2	0,007
545,7	0,007
546,1	0,007
546,5	0,007
547	0,007
547,4	0,007
547,9	0,006
548,3	0,007
548,8	0,007
549,2	0,007
549,7	0,007
550,1	0,007
550,6	0,007
551	0,007
551,5	0,007
551,9	0,006
552,4	0,006
552,8	0,006
553,3	0,005
553,7	0,005
554,2	0,005
554,6	0,004
555,1	0,005
555,5	0,005
555,9	0,005
556,4	0,005
556,8	0,006
557,3	0,005
557,7	0,006
558,2	0,005
558,6	0,005
559,1	0,005
559,5	0,006
560	0,005
560,4	0,005
560,9	0,006
561,3	0,006
561,8	0,005
562,2	0,006
562,7	0,006
563,1	0,007
563,6	0,006
564	0,006
564,4	0,006
564,9	0,007
565,3	0,006
565,8	0,006
566,2	0,006
566,7	0,006
567,1	0,006
567,6	0,006
568	0,006
568,5	0,006
568,9	0,006
569,4	0,006
569,8	0,006
570,3	0,006
570,7	0,006
571,1	0,006
571,6	0,006
572	0,006
572,5	0,006
572,9	0,006
573,4	0,006
573,8	0,006
574,3	0,006
574,7	0,006
575,2	0,006
575,6	0,006
576,1	0,006
576,5	0,006
576,9	0,005
577,4	0,005
577,8	0,005
578,3	0,005
578,7	0,005
579,2	0,005
579,6	0,005
580,1	0,006
580,5	0,005
581	0,005
581,4	0,006
581,9	0,006
582,3	0,006
582,7	0,006
583,2	0,006
583,6	0,006
584,1	0,006
584,5	0,006
585	0,005
585,4	0,005
585,9	0,005
586,3	0,005
586,8	0,005
587,2	0,005
587,6	0,005
588,1	0,005
588,5	0,005
589	0,006
589,4	0,006
589,9	0,006
590,3	0,006
590,8	0,006
591,2	0,006
591,7	0,006
592,1	0,006
592,5	0,006
593	0,006
593,4	0,006
593,9	0,006
594,3	0,006
594,8	0,006
595,2	0,006
595,7	0,006
596,1	0,006
596,6	0,006
597	0,006
597,4	0,006
597,9	0,006
598,3	0,005
598,8	0,006
599,2	0,006
599,7	0,006
600,1	0,005
600,6	0,006
601	0,006
601,4	0,005
601,9	0,005
602,3	0,005
602,8	0,006
603,2	0,005
603,7	0,006
604,1	0,006
604,6	0,006
605	0,006
605,4	0,006
605,9	0,006
606,3	0,006
606,8	0,006
607,2	0,006
607,7	0,006
608,1	0,007
608,6	0,006
609	0,006
609,4	0,007
609,9	0,007
610,3	0,006
610,8	0,006
611,2	0,005
611,7	0,005
612,1	0,006
612,6	0,006
613	0,006
613,4	0,006
613,9	0,005
614,3	0,006
614,8	0,006
615,2	0,005
615,7	0,005
616,1	0,005
616,6	0,005
617	0,005
617,4	0,005
617,9	0,005
618,3	0,005
618,8	0,005
619,2	0,005
619,7	0,005
620,1	0,005
620,5	0,005
621	0,005
621,4	0,004
621,9	0,004
622,3	0,004
622,8	0,005
623,2	0,004
623,6	0,005
624,1	0,005
624,5	0,006
625	0,005
625,4	0,006
625,9	0,005
626,3	0,005
626,8	0,005
627,2	0,005
627,6	0,004
628,1	0,005
628,5	0,005
629	0,004
629,4	0,005
629,9	0,005
630,3	0,006
630,7	0,006
631,2	0,006
631,6	0,006
632,1	0,006
632,5	0,006
633	0,005
633,4	0,005
633,8	0,005
634,3	0,005
634,7	0,005
635,2	0,005
635,6	0,005
636,1	0,005
636,5	0,005
636,9	0,006
637,4	0,006
637,8	0,006
638,3	0,005
638,7	0,005
639,2	0,005
639,6	0,005
640	0,005
640,5	0,005
640,9	0,005
641,4	0,004
641,8	0,004
642,2	0,004
642,7	0,005
643,1	0,005
643,6	0,004
644	0,004
644,5	0,005
644,9	0,005
645,3	0,005
645,8	0,004
646,2	0,004
646,7	0,005
647,1	0,005
647,6	0,005
648	0,005
648,4	0,005
648,9	0,006
649,3	0,006
649,8	0,005
650,2	0,005
650,6	0,005
651,1	0,005
651,5	0,005
652	0,005
652,4	0,005
652,9	0,005
653,3	0,005
653,7	0,005
654,2	0,006
654,6	0,006
655,1	0,005
655,5	0,005
655,9	0,003
656,4	0,002
656,8	0,003
657,3	0,003
657,7	0,003
658,2	0,003
658,6	0,003
659	0,004
659,5	0,007
659,9	0,007
660,4	0,006
660,8	0,005
661,2	0,005
661,7	0,006
662,1	0,005
662,6	0,006
663	0,006
663,4	0,006
663,9	0,005
664,3	0,006
664,8	0,005
665,2	0,006
665,6	0,005
666,1	0,005
666,5	0,005
667	0,005
667,4	0,005
667,9	0,005
668,3	0,005
668,7	0,005
669,2	0,005
669,6	0,005
670,1	0,005
670,5	0,005
670,9	0,005
671,4	0,005
671,8	0,005
672,3	0,005
672,7	0,005
673,1	0,005
673,6	0,005
674	0,004
674,5	0,005
674,9	0,005
675,3	0,005
675,8	0,005
676,2	0,005
676,7	0,005
677,1	0,005
677,5	0,005
678	0,005
678,4	0,004
678,9	0,004
679,3	0,004
679,7	0,004
680,2	0,004
680,6	0,004
681,1	0,004
681,5	0,005
681,9	0,005
682,4	0,005
682,8	0,006
683,3	0,006
683,7	0,006
684,1	0,005
684,6	0,005
685	0,005
685,5	0,005
685,9	0,005
686,3	0,004
686,8	0,005
687,2	0,005
687,7	0,005
688,1	0,005
688,5	0,005
689	0,005
689,4	0,005
689,9	0,004
690,3	0,005
690,7	0,004
691,2	0,004
691,6	0,004
692	0,005
692,5	0,005
692,9	0,005
693,4	0,004
693,8	0,005
694,2	0,005
694,7	0,005
695,1	0,005
695,6	0,005
696	0,005
696,4	0,005
696,9	0,005
697,3	0,005
697,8	0,005
698,2	0,005
698,6	0,005
699,1	0,005
699,5	0,005
699,9	0,004
700,4	0,004
700,8	0,004
701,3	0,004
701,7	0,004
702,1	0,004
702,6	0,004
703	0,005
703,5	0,005
703,9	0,005
704,3	0,006
704,8	0,006
705,2	0,006
705,6	0,005
706,1	0,005
706,5	0,005
707	0,005
707,4	0,005
707,8	0,005
708,3	0,005
708,7	0,005
709,2	0,005
709,6	0,005
710	0,006
710,5	0,006
710,9	0,006
711,3	0,006
711,8	0,006
712,2	0,006
712,7	0,006
713,1	0,005
713,5	0,005
714	0,005
714,4	0,005
714,8	0,005
715,3	0,004
715,7	0,004
716,2	0,004
716,6	0,004
717	0,004
717,5	0,004
717,9	0,004
718,3	0,004
718,8	0,004
719,2	0,004
719,7	0,004
720,1	0,005
720,5	0,004
721	0,005
721,4	0,005
721,8	0,005
722,3	0,005
722,7	0,005
723,2	0,005
723,6	0,005
724	0,005
724,5	0,005
724,9	0,005
725,3	0,005
725,8	0,005
726,2	0,005
726,7	0,005
727,1	0,005
727,5	0,005
728	0,005
728,4	0,005
728,8	0,005
729,3	0,004
729,7	0,004
730,1	0,004
730,6	0,005
731	0,004
731,5	0,005
731,9	0,005
732,3	0,005
732,8	0,005
733,2	0,004
733,6	0,004
734,1	0,005
734,5	0,004
734,9	0,004
735,4	0,004
735,8	0,004
736,3	0,005
736,7	0,005
737,1	0,004
737,6	0,004
738	0,004
738,4	0,004
738,9	0,004
739,3	0,004
739,7	0,004
740,2	0,004
740,6	0,004
741,1	0,004
741,5	0,004
741,9	0,005
742,4	0,004
742,8	0,004
743,2	0,004
743,7	0,004
744,1	0,004
744,5	0,005
745	0,005
745,4	0,005
745,8	0,005
746,3	0,005
746,7	0,005
747,2	0,005
747,6	0,005
748	0,005
748,5	0,005
748,9	0,005
749,3	0,005
749,8	0,005
750,2	0,005
750,6	0,005
751,1	0,005
751,5	0,004
751,9	0,005
752,4	0,004
752,8	0,004
753,3	0,004
753,7	0,004
754,1	0,004
754,6	0,004
755	0,004
755,4	0,005
755,9	0,005
756,3	0,005
756,7	0,004
757,2	0,005
757,6	0,005
758	0,004
758,5	0,004
758,9	0,004
759,3	0,004
759,8	0,005
760,2	0,004
760,6	0,004
761,1	0,004
761,5	0,004
761,9	0,004
762,4	0,004
762,8	0,004
763,3	0,004
763,7	0,004
764,1	0,004
764,6	0,003
765	0,003
765,4	0,003
765,9	0,004
766,3	0,004
766,7	0,004
767,2	0,004
767,6	0,004
768	0,004
768,5	0,004
768,9	0,004
769,3	0,004
769,8	0,004
770,2	0,004
770,6	0,004
771,1	0,004
771,5	0,004
771,9	0,004
772,4	0,004
772,8	0,004
773,2	0,004
773,7	0,004
774,1	0,004
774,5	0,005
775	0,005
775,4	0,005
775,8	0,005
776,3	0,005
776,7	0,005
777,1	0,005
777,6	0,005
778	0,005
778,4	0,005
778,9	0,004
779,3	0,005
779,7	0,005
780,2	0,004
780,6	0,005
781	0,005
781,5	0,004
781,9	0,004
782,3	0,004
782,8	0,004
783,2	0,004
783,6	0,004
784,1	0,004
784,5	0,004
784,9	0,004
785,4	0,004
785,8	0,004
786,2	0,005
786,7	0,005
787,1	0,004
787,5	0,005
788	0,005
788,4	0,005
788,8	0,005
789,3	0,005
789,7	0,005
790,1	0,005
790,6	0,005
791	0,005
791,4	0,005
791,9	0,005
792,3	0,005
792,7	0,005
793,2	0,005
793,6	0,005
794	0,005
794,5	0,005
794,9	0,005
795,3	0,005
795,8	0,005
796,2	0,005
796,6	0,005
797,1	0,004
797,5	0,005
797,9	0,005
798,4	0,005
798,8	0,005
799,2	0,005
799,7	0,005
800,1	0,005
800,5	0,005
801	0,005
801,4	0,004
801,8	0,004
802,2	0,004
802,7	0,005
803,1	0,005
803,5	0,005
804	0,005
804,4	0,006
804,8	0,006
805,3	0,005
805,7	0,005
806,1	0,005
806,6	0,005
807	0,005
807,4	0,005
807,9	0,005
808,3	0,005
808,7	0,005
809,2	0,004
809,6	0,005
810	0,004
810,4	0,004
810,9	0,004
811,3	0,004
811,7	0,004
812,2	0,004
812,6	0,004
813	0,004
813,5	0,004
813,9	0,004
814,3	0,004
814,8	0,004
815,2	0,004
815,6	0,004
816,1	0,004
816,5	0,004
816,9	0,004
817,3	0,004
817,8	0,004
818,2	0,004
818,6	0,004
819,1	0,004
819,5	0,004
819,9	0,004
820,4	0,004
820,8	0,005
821,2	0,005
821,7	0,005
822,1	0,004
822,5	0,004
822,9	0,004
823,4	0,004
823,8	0,004
824,2	0,004
824,7	0,003
825,1	0,003
825,5	0,003
826	0,003
826,4	0,003
826,8	0,003
827,3	0,003
827,7	0,003
828,1	0,003
828,5	0,003
829	0,003
829,4	0,003
829,8	0,003
830,3	0,003
830,7	0,003
831,1	0,003
831,6	0,003
832	0,003
832,4	0,003
832,8	0,003
833,3	0,003
833,7	0,003
834,1	0,004
834,6	0,004
835	0,004
835,4	0,004
835,8	0,004
836,3	0,004
836,7	0,004
837,1	0,004
837,6	0,004
838	0,004
838,4	0,004
838,9	0,005
839,3	0,005
839,7	0,005
840,1	0,005
840,6	0,005
841	0,004
841,4	0,004
841,9	0,004
842,3	0,004
842,7	0,004
843,1	0,005
843,6	0,005
844	0,004
844,4	0,004
844,9	0,004
845,3	0,004
845,7	0,004
846,2	0,004
846,6	0,004
847	0,004
847,4	0,004
847,9	0,004
848,3	0,004
848,7	0,004
849,2	0,004
849,6	0,004
850	0,004
850,4	0,004
850,9	0,005
851,3	0,004
851,7	0,004
852,2	0,004
852,6	0,004
853	0,004
853,4	0,004
853,9	0,004
854,3	0,005
854,7	0,005
855,2	0,005
855,6	0,005
856	0,005
856,4	0,005
856,9	0,005
857,3	0,005
857,7	0,005
858,2	0,004
858,6	0,004
859	0,005
859,4	0,004
859,9	0,004
860,3	0,004
860,7	0,005
861,1	0,005
861,6	0,005
862	0,005
862,4	0,005
862,9	0,005
863,3	0,005
863,7	0,005
864,1	0,005
864,6	0,005
865	0,005
865,4	0,005
865,9	0,004
866,3	0,004
866,7	0,004
867,1	0,004
867,6	0,004
868	0,004
868,4	0,004
868,8	0,004
869,3	0,004
869,7	0,004
870,1	0,004
870,6	0,004
871	0,004
871,4	0,004
871,8	0,004
872,3	0,004
872,7	0,004
873,1	0,004
873,5	0,004
874	0,004
874,4	0,004
874,8	0,004
875,3	0,004
875,7	0,004
876,1	0,004
876,5	0,004
877	0,005
877,4	0,005
877,8	0,005
878,2	0,005
878,7	0,005
879,1	0,005
879,5	0,005
879,9	0,005
880,4	0,005
880,8	0,005
881,2	0,005
881,7	0,005
882,1	0,005
882,5	0,005
882,9	0,005
883,4	0,004
883,8	0,004
884,2	0,004
884,6	0,004
885,1	0,004
885,5	0,004
885,9	0,004
886,3	0,004
886,8	0,005
887,2	0,004
887,6	0,004
888	0,004
888,5	0,004
888,9	0,004
889,3	0,004
889,8	0,004
890,2	0,004
890,6	0,003
891	0,004
891,5	0,004
891,9	0,004
892,3	0,004
892,7	0,004
893,2	0,004
893,6	0,004
894	0,004
894,4	0,004
894,9	0,004
895,3	0,004
895,7	0,004
896,1	0,004
896,6	0,004
897	0,004
897,4	0,003
897,8	0,003
898,3	0,003
898,7	0,003
899,1	0,003
899,5	0,003
900	0,003
900,4	0,003
900,8	0,003
901,2	0,003
901,7	0,004
902,1	0,004
902,5	0,004
902,9	0,004
903,4	0,004
903,8	0,004
904,2	0,004
904,6	0,003
905,1	0,003
905,5	0,003
905,9	0,003
906,3	0,003
906,8	0,003
907,2	0,003
907,6	0,003
908	0,004
908,5	0,004
908,9	0,004
909,3	0,004
909,7	0,004
910,2	0,004
910,6	0,004
911	0,004
911,4	0,004
911,9	0,004
912,3	0,004
912,7	0,005
913,1	0,004
913,6	0,004
914	0,004
914,4	0,004
914,8	0,003
915,3	0,003
915,7	0,003
916,1	0,003
916,5	0,003
916,9	0,003
917,4	0,003
917,8	0,003
918,2	0,004
918,6	0,003
919,1	0,003
919,5	0,003
919,9	0,003
920,3	0,004
920,8	0,004
921,2	0,004
921,6	0,004
922	0,004
922,5	0,005
922,9	0,004
923,3	0,004
923,7	0,004
924,2	0,004
924,6	0,004
925	0,004
925,4	0,005
925,8	0,005
926,3	0,004
926,7	0,005
927,1	0,004
927,5	0,005
928	0,004
928,4	0,004
928,8	0,004
929,2	0,004
929,7	0,004
930,1	0,004
930,5	0,004
930,9	0,004
931,3	0,003
931,8	0,004
932,2	0,003
932,6	0,003
933	0,004
933,5	0,004
933,9	0,004
934,3	0,004
934,7	0,004
935,2	0,005
935,6	0,004
936	0,004
936,4	0,004
936,8	0,004
937,3	0,004
937,7	0,004
938,1	0,004
938,5	0,004
939	0,004
939,4	0,004
939,8	0,004
940,2	0,004
940,6	0,004
941,1	0,004
941,5	0,003
941,9	0,004
942,3	0,004
942,8	0,004
943,2	0,004
943,6	0,004
944	0,004
944,4	0,004
944,9	0,004
945,3	0,004
945,7	0,004
946,1	0,004
946,6	0,003
947	0,004
947,4	0,003
947,8	0,003
948,2	0,003
948,7	0,003
949,1	0,003
949,5	0,003
949,9	0,003
950,3	0,004
950,8	0,004
951,2	0,004
951,6	0,004
952	0,004
952,5	0,004
952,9	0,004
953,3	0,004
953,7	0,003
954,1	0,004
954,6	0,004
955	0,003
955,4	0,004
955,8	0,004
956,2	0,005
956,7	0,005
957,1	0,004
957,5	0,004
957,9	0,004
958,3	0,004
958,8	0,004
959,2	0,004
959,6	0,004
960	0,005
960,5	0,005
960,9	0,005
961,3	0,005
961,7	0,005
962,1	0,004
962,6	0,004
963	0,004
963,4	0,005
963,8	0,005
964,2	0,004
964,7	0,004
965,1	0,005
965,5	0,004
965,9	0,004
966,3	0,004
966,8	0,004
967,2	0,004
967,6	0,004
968	0,004
968,4	0,004
968,9	0,005
969,3	0,005
969,7	0,005
970,1	0,005
970,5	0,005
971	0,005
971,4	0,005
971,8	0,005
972,2	0,005
972,6	0,006
973,1	0,006
973,5	0,006
973,9	0,005
974,3	0,005
974,7	0,005
975,2	0,005
975,6	0,004
976	0,004
976,4	0,004
976,8	0,004
977,3	0,005
977,7	0,005
978,1	0,005
978,5	0,005
978,9	0,005
979,4	0,005
979,8	0,005
980,2	0,004
980,6	0,004
981	0,005
981,5	0,005
981,9	0,005
982,3	0,005
982,7	0,004
983,1	0,005
983,6	0,005
984	0,005
984,4	0,005
984,8	0,005
985,2	0,005
985,6	0,005
986,1	0,005
986,5	0,004
986,9	0,004
987,3	0,004
987,7	0,004
988,2	0,004
988,6	0,004
989	0,004
989,4	0,004
989,8	0,005
990,3	0,006
990,7	0,005
991,1	0,005
991,5	0,005
991,9	0,004
992,3	0,004
992,8	0,003
993,2	0,003
993,6	0,003
994	0,002
994,4	0,003
994,9	0,004
995,3	0,003
995,7	0,003
996,1	0,004
996,5	0,004
996,9	0,004
997,4	0,004
997,8	0,004
998,2	0,005
998,6	0,005
999	0,004
999,5	0,004
999,9	0,004
1000,3	0,005
1000,7	0,005
1001,1	0,004
1001,5	0,005
1002	0,005
1002,4	0,005
1002,8	0,005
1003,2	0,004
1003,6	0,004
1004	0,004
1004,5	0,004
1004,9	0,005
1005,3	0,004
1005,7	0,004
1006,1	0,004
1006,6	0,005
1007	0,005
1007,4	0,005
1007,8	0,004
1008,2	0,005
1008,6	0,005
1009,1	0,005
1009,5	0,005
1009,9	0,005
1010,3	0,005
1010,7	0,005
1011,1	0,004
1011,6	0,005
1012	0,004
1012,4	0,004
1012,8	0,005
1013,2	0,005
1013,6	0,005
1014,1	0,004
1014,5	0,003
1014,9	0,003
1015,3	0,003
1015,7	0,003
1016,1	0,002
1016,6	0,002
1017	0,002
1017,4	0,003
1017,8	0,003
1018,2	0,003
1018,6	0,002
1019,1	0,002
1019,5	0,002
1019,9	0,001
1020,3	0,002
1020,7	0,001
1021,1	0,001
1021,6	0,002
1022	0,002
1022,4	0,002
1022,8	0,003
1023,2	0,002
1023,6	0,003
1024,1	0,002
1024,5	0,003
1024,9	0,003
1025,3	0,003
1025,7	0,003
1026,1	0,004
1026,6	0,003
1027	0,004
1027,4	0,004
1027,8	0,004
1028,2	0,003
1028,6	0,003
1029	0,003
1029,5	0,002
1029,9	0,002
1030,3	0,002
1030,7	0,002
1031,1	0,002
1031,5	0,002
1032	0,003
1032,4	0,003
1032,8	0,004
1033,2	0,004
1033,6	0,003
1034	0,004
1034,4	0,004
1034,9	0,004
1035,3	0,004
1035,7	0,004
1036,1	0,003
1036,5	0,004
1036,9	0,003
1037,4	0,003
1037,8	0,003
1038,2	0,003
1038,6	0,003
1039	0,003
1039,4	0,003
1039,8	0,003
1040,3	0,004
1040,7	0,003
1041,1	0,003
1041,5	0,004
1041,9	0,004
1042,3	0,004
1042,7	0,003
1043,2	0,003
1043,6	0,003
1044	0,004
1044,4	0,003
1044,8	0,003
1045,2	0,002
1045,6	0,003
1046,1	0,002
1046,5	0,002
1046,9	0,002
1047,3	0,002
1047,7	0,002
1048,1	0,002
1048,5	0,002
1049	0,002
1049,4	0,003
1049,8	0,003
1050,2	0,002
1050,6	0,003
1051	0,003
1051,4	0,002
1051,9	0,003
1052,3	0,002
1052,7	0,003
1053,1	0,003
1053,5	0,004
1053,9	0,004
1054,3	0,004
1054,8	0,003
1055,2	0,003
1055,6	0,002
1056	0,002
1056,4	0,002
1056,8	0,002
1057,2	0,002
1057,6	0,002
1058,1	0,003
1058,5	0,004
1058,9	0,004
1059,3	0,004
1059,7	0,003
1060,1	0,004
1060,5	0,003
1061	0,003
1061,4	0,002
1061,8	0,002
1062,2	0,002
1062,6	0,003
1063	0,003
1063,4	0,004
1063,8	0,004
1064,3	0,004
1064,7	0,005
1065,1	0,005
1065,5	0,004
1065,9	0,004
1066,3	0,004
1066,7	0,004
1067,1	0,005
1067,6	0,004
1068	0,005
1068,4	0,004
1068,8	0,005
1069,2	0,005
1069,6	0,004
1070	0,004
1070,4	0,005
1070,9	0,003
1071,3	0,004
1071,7	0,003
1072,1	0,003
1072,5	0,003
1072,9	0,002
1073,3	0
1073,7	0,001
1074,2	0,001
1074,6	0
1075	0,002
1075,4	-0
1075,8	0
1076,2	0,002
1076,6	0,002
1077	0,002
1077,5	0,003
1077,9	0,001
1078,3	0,004
1078,7	0,004
1079,1	0,003
1079,5	0,002
1079,9	0,002
1080,3	0,001
1080,7	0,004
1081,2	0,003
1081,6	0,004
1082	0,005
1082,4	0,005
1082,8	0,006
1083,2	0,006
1083,6	0,005
1084	0,004
1084,5	0,003
1084,9	0,003
1085,3	0,001
1085,7	0,001
1086,1	0,001
1086,5	-0,001
1086,9	-0,001
1087,3	-0,001
1087,7	-0,001
1088,2	0,002
1088,6	0,002
1089	0,001
1089,4	0,004
1089,8	0,006
1090,2	0,006
1090,6	0,004
1091	0,005
1091,4	0,004
1091,9	0,002
1092,3	0,001
1092,7	-0,002
1093,1	-0,001
1093,5	-0
1093,9	0
1094,3	0,001
1094,7	0,006
1095,1	0,005
1095,5	0,008
1096	0,006
1096,4	0,009
1096,8	0,008
1097,2	0,006
1097,6	-0,002
1098	-0,002
1098,4	0
1098,8	0,001
1099,2	-0,001
1099,6	0,008
1100,1	0,013
1100,5	0,018
1100,9	0,018
1101,3	0,026
1101,7	0,032
1102,1	0,025
1102,5	0,017
1102,9	0,008
1103,3	0,017
1103,7	0,013
1104,2	0,001
1104,6	-0,008
1105	0,009
1105,4	0,014
1105,8	0,026
1106,2	0,028
1106,6	0,039
1107	0,046
1107,4	0,082
1107,8	0,087
1108,3	0,486
