Data from Absorbance_00019.txt Node
Date: Wed Aug 02 17:48:49 MSK 2023
User: vat
Spectrometer: MAYP114033
Trigger mode: 0
Integration Time (sec): 8,000000E-3
Scans to average: 10
Electric dark correction enabled: true
Nonlinearity correction enabled: false
Boxcar width: 3
XAxis mode: Wavelengths
Number of Pixels in Spectrum: 2068
>>>>>Begin Spectral Data<<<<<
199,4	-0
199,9	0,398
200,4	0,451
200,8	0,693
201,3	0,845
201,8	0,934
202,2	0,948
202,7	0,952
203,2	0,973
203,6	1,013
204,1	1,048
204,6	1,047
205	1,067
205,5	1,074
206	1,075
206,4	1,1
206,9	1,122
207,4	1,125
207,8	1,137
208,3	1,135
208,8	1,153
209,2	1,175
209,7	1,188
210,2	1,184
210,6	1,194
211,1	1,194
211,5	1,218
212	1,215
212,5	1,246
212,9	1,25
213,4	1,266
213,9	1,286
214,3	1,342
214,8	1,329
215,3	1,374
215,7	1,348
216,2	1,364
216,7	1,402
217,1	1,427
217,6	1,435
218,1	1,463
218,5	1,473
219	1,526
219,5	1,56
219,9	1,532
220,4	1,552
220,9	1,564
221,3	1,586
221,8	1,602
222,3	1,604
222,7	1,614
223,2	1,648
223,6	1,657
224,1	1,674
224,6	1,664
225	1,69
225,5	1,719
226	1,713
226,4	1,729
226,9	1,748
227,4	1,74
227,8	1,794
228,3	1,786
228,8	1,787
229,2	1,804
229,7	1,834
230,2	1,854
230,6	1,88
231,1	1,874
231,5	1,874
232	1,898
232,5	1,915
232,9	1,898
233,4	1,88
233,9	1,902
234,3	1,924
234,8	1,95
235,3	1,955
235,7	1,974
236,2	1,999
236,7	2,026
237,1	2,014
237,6	2,005
238,1	2,001
238,5	1,995
239	1,989
239,4	1,99
239,9	1,987
240,4	1,991
240,8	1,998
241,3	2,001
241,8	2,004
242,2	1,994
242,7	1,994
243,2	2,005
243,6	2,008
244,1	2,02
244,6	2,022
245	2,039
245,5	2,071
245,9	2,089
246,4	2,097
246,9	2,102
247,3	2,095
247,8	2,111
248,3	2,091
248,7	2,105
249,2	2,1
249,7	2,099
250,1	2,109
250,6	2,114
251	2,116
251,5	2,13
252	2,119
252,4	2,117
252,9	2,11
253,4	2,11
253,8	2,101
254,3	2,101
254,8	2,114
255,2	2,106
255,7	2,124
256,1	2,132
256,6	2,12
257,1	2,128
257,5	2,147
258	2,137
258,5	2,134
258,9	2,137
259,4	2,122
259,9	2,142
260,3	2,129
260,8	2,103
261,2	2,134
261,7	2,147
262,2	2,125
262,6	2,156
263,1	2,14
263,6	2,156
264	2,195
264,5	2,191
264,9	2,197
265,4	2,227
265,9	2,227
266,3	2,233
266,8	2,235
267,3	2,214
267,7	2,178
268,2	2,177
268,7	2,161
269,1	2,131
269,6	2,117
270	2,116
270,5	2,132
271	2,142
271,4	2,137
271,9	2,153
272,4	2,181
272,8	2,209
273,3	2,208
273,7	2,203
274,2	2,196
274,7	2,189
275,1	2,167
275,6	2,163
276,1	2,159
276,5	2,161
277	2,125
277,4	2,126
277,9	2,124
278,4	2,11
278,8	2,092
279,3	2,083
279,8	2,07
280,2	2,068
280,7	2,064
281,1	2,044
281,6	2,039
282,1	2,02
282,5	2,021
283	2,012
283,4	1,972
283,9	1,93
284,4	1,908
284,8	1,868
285,3	1,835
285,8	1,771
286,2	1,713
286,7	1,649
287,1	1,582
287,6	1,509
288,1	1,435
288,5	1,362
289	1,293
289,5	1,222
289,9	1,156
290,4	1,093
290,8	1,029
291,3	0,975
291,8	0,921
292,2	0,872
292,7	0,828
293,1	0,789
293,6	0,754
294,1	0,722
294,5	0,692
295	0,667
295,5	0,641
295,9	0,62
296,4	0,6
296,8	0,584
297,3	0,57
297,8	0,557
298,2	0,546
298,7	0,536
299,1	0,527
299,6	0,52
300,1	0,512
300,5	0,505
301	0,5
301,5	0,493
301,9	0,488
302,4	0,482
302,8	0,477
303,3	0,472
303,8	0,467
304,2	0,463
304,7	0,46
305,1	0,456
305,6	0,453
306,1	0,449
306,5	0,446
307	0,442
307,4	0,438
307,9	0,433
308,4	0,43
308,8	0,426
309,3	0,422
309,8	0,419
310,2	0,416
310,7	0,412
311,1	0,409
311,6	0,405
312,1	0,402
312,5	0,399
313	0,394
313,4	0,39
313,9	0,388
314,4	0,384
314,8	0,381
315,3	0,378
315,7	0,375
316,2	0,373
316,7	0,369
317,1	0,364
317,6	0,36
318	0,357
318,5	0,354
319	0,349
319,4	0,346
319,9	0,343
320,3	0,341
320,8	0,338
321,3	0,334
321,7	0,331
322,2	0,328
322,6	0,325
323,1	0,322
323,6	0,319
324	0,315
324,5	0,312
324,9	0,31
325,4	0,307
325,9	0,303
326,3	0,301
326,8	0,297
327,2	0,295
327,7	0,292
328,2	0,289
328,6	0,286
329,1	0,282
329,5	0,279
330	0,275
330,5	0,271
330,9	0,267
331,4	0,264
331,8	0,261
332,3	0,258
332,8	0,255
333,2	0,253
333,7	0,251
334,1	0,249
334,6	0,246
335,1	0,243
335,5	0,24
336	0,237
336,4	0,233
336,9	0,229
337,4	0,226
337,8	0,223
338,3	0,22
338,7	0,217
339,2	0,214
339,7	0,212
340,1	0,209
340,6	0,205
341	0,203
341,5	0,2
342	0,197
342,4	0,194
342,9	0,192
343,3	0,189
343,8	0,187
344,2	0,185
344,7	0,182
345,2	0,18
345,6	0,178
346,1	0,174
346,5	0,172
347	0,169
347,5	0,167
347,9	0,164
348,4	0,162
348,8	0,16
349,3	0,158
349,8	0,156
350,2	0,154
350,7	0,151
351,1	0,149
351,6	0,146
352	0,143
352,5	0,141
353	0,139
353,4	0,137
353,9	0,135
354,3	0,133
354,8	0,132
355,3	0,13
355,7	0,128
356,2	0,126
356,6	0,124
357,1	0,122
357,5	0,12
358	0,118
358,5	0,116
358,9	0,115
359,4	0,113
359,8	0,111
360,3	0,109
360,8	0,108
361,2	0,106
361,7	0,104
362,1	0,103
362,6	0,101
363	0,1
363,5	0,098
364	0,096
364,4	0,095
364,9	0,093
365,3	0,092
365,8	0,091
366,3	0,09
366,7	0,089
367,2	0,089
367,6	0,088
368,1	0,087
368,5	0,086
369	0,086
369,5	0,085
369,9	0,083
370,4	0,082
370,8	0,08
371,3	0,08
371,7	0,079
372,2	0,077
372,7	0,076
373,1	0,075
373,6	0,074
374	0,073
374,5	0,072
374,9	0,071
375,4	0,07
375,9	0,069
376,3	0,069
376,8	0,068
377,2	0,067
377,7	0,066
378,2	0,066
378,6	0,065
379,1	0,064
379,5	0,063
380	0,063
380,4	0,062
380,9	0,06
381,4	0,06
381,8	0,059
382,3	0,059
382,7	0,057
383,2	0,057
383,6	0,057
384,1	0,057
384,6	0,055
385	0,055
385,5	0,054
385,9	0,053
386,4	0,052
386,8	0,052
387,3	0,051
387,7	0,05
388,2	0,05
388,7	0,049
389,1	0,048
389,6	0,047
390	0,047
390,5	0,046
390,9	0,046
391,4	0,044
391,9	0,044
392,3	0,044
392,8	0,043
393,2	0,043
393,7	0,043
394,1	0,042
394,6	0,041
395,1	0,041
395,5	0,04
396	0,04
396,4	0,04
396,9	0,039
397,3	0,038
397,8	0,039
398,2	0,038
398,7	0,038
399,2	0,038
399,6	0,037
400,1	0,038
400,5	0,037
401	0,036
401,4	0,036
401,9	0,035
402,4	0,035
402,8	0,034
403,3	0,034
403,7	0,033
404,2	0,033
404,6	0,034
405,1	0,034
405,5	0,034
406	0,034
406,5	0,034
406,9	0,033
407,4	0,033
407,8	0,033
408,3	0,032
408,7	0,032
409,2	0,031
409,6	0,03
410,1	0,03
410,6	0,03
411	0,03
411,5	0,03
411,9	0,03
412,4	0,029
412,8	0,029
413,3	0,029
413,7	0,029
414,2	0,029
414,7	0,029
415,1	0,029
415,6	0,029
416	0,029
416,5	0,028
416,9	0,028
417,4	0,028
417,8	0,027
418,3	0,027
418,8	0,026
419,2	0,027
419,7	0,026
420,1	0,026
420,6	0,026
421	0,025
421,5	0,026
421,9	0,025
422,4	0,025
422,8	0,025
423,3	0,025
423,8	0,025
424,2	0,025
424,7	0,025
425,1	0,025
425,6	0,024
426	0,024
426,5	0,024
426,9	0,024
427,4	0,024
427,9	0,023
428,3	0,023
428,8	0,023
429,2	0,023
429,7	0,022
430,1	0,022
430,6	0,023
431	0,023
431,5	0,023
431,9	0,023
432,4	0,023
432,8	0,023
433,3	0,022
433,8	0,022
434,2	0,021
434,7	0,022
435,1	0,021
435,6	0,021
436	0,021
436,5	0,021
436,9	0,021
437,4	0,021
437,8	0,021
438,3	0,021
438,8	0,021
439,2	0,021
439,7	0,021
440,1	0,02
440,6	0,021
441	0,021
441,5	0,021
441,9	0,022
442,4	0,022
442,8	0,022
443,3	0,021
443,7	0,021
444,2	0,021
444,7	0,02
445,1	0,02
445,6	0,02
446	0,019
446,5	0,019
446,9	0,018
447,4	0,018
447,8	0,018
448,3	0,018
448,7	0,018
449,2	0,019
449,6	0,019
450,1	0,019
450,6	0,019
451	0,02
451,5	0,019
451,9	0,019
452,4	0,018
452,8	0,019
453,3	0,019
453,7	0,018
454,2	0,018
454,6	0,018
455,1	0,019
455,5	0,019
456	0,019
456,4	0,019
456,9	0,019
457,3	0,019
457,8	0,019
458,3	0,019
458,7	0,019
459,2	0,019
459,6	0,018
460,1	0,018
460,5	0,017
461	0,018
461,4	0,017
461,9	0,017
462,3	0,017
462,8	0,017
463,2	0,017
463,7	0,018
464,1	0,018
464,6	0,018
465	0,018
465,5	0,018
466	0,018
466,4	0,018
466,9	0,017
467,3	0,017
467,8	0,017
468,2	0,017
468,7	0,016
469,1	0,016
469,6	0,017
470	0,017
470,5	0,017
470,9	0,017
471,4	0,017
471,8	0,017
472,3	0,017
472,7	0,017
473,2	0,017
473,6	0,016
474,1	0,016
474,5	0,017
475	0,017
475,4	0,017
475,9	0,017
476,4	0,017
476,8	0,017
477,3	0,017
477,7	0,017
478,2	0,017
478,6	0,016
479,1	0,017
479,5	0,017
480	0,017
480,4	0,017
480,9	0,017
481,3	0,017
481,8	0,017
482,2	0,017
482,7	0,017
483,1	0,017
483,6	0,016
484	0,016
484,5	0,015
484,9	0,016
485,4	0,014
485,8	0,014
486,3	0,014
486,7	0,014
487,2	0,014
487,6	0,014
488,1	0,014
488,5	0,014
489	0,015
489,4	0,015
489,9	0,015
490,4	0,015
490,8	0,015
491,3	0,015
491,7	0,015
492,2	0,015
492,6	0,015
493,1	0,015
493,5	0,015
494	0,015
494,4	0,015
494,9	0,016
495,3	0,016
495,8	0,016
496,2	0,015
496,7	0,015
497,1	0,015
497,6	0,014
498	0,014
498,5	0,014
498,9	0,014
499,4	0,015
499,8	0,015
500,3	0,016
500,7	0,017
501,2	0,017
501,6	0,016
502,1	0,017
502,5	0,016
503	0,016
503,4	0,016
503,9	0,015
504,3	0,014
504,8	0,015
505,2	0,014
505,7	0,014
506,1	0,014
506,6	0,015
507	0,015
507,5	0,015
507,9	0,015
508,4	0,015
508,8	0,015
509,3	0,015
509,7	0,014
510,2	0,014
510,6	0,014
511,1	0,014
511,5	0,014
512	0,013
512,4	0,013
512,9	0,013
513,3	0,013
513,8	0,014
514,2	0,014
514,7	0,014
515,1	0,015
515,6	0,016
516	0,016
516,5	0,016
516,9	0,015
517,4	0,016
517,8	0,015
518,3	0,015
518,7	0,015
519,2	0,016
519,6	0,016
520,1	0,016
520,5	0,016
521	0,016
521,4	0,015
521,9	0,015
522,3	0,014
522,8	0,014
523,2	0,014
523,7	0,014
524,1	0,014
524,6	0,013
525	0,014
525,5	0,014
525,9	0,014
526,4	0,014
526,8	0,013
527,3	0,013
527,7	0,014
528,2	0,014
528,6	0,014
529,1	0,014
529,5	0,014
530	0,015
530,4	0,015
530,9	0,015
531,3	0,015
531,8	0,015
532,2	0,015
532,6	0,015
533,1	0,014
533,5	0,015
534	0,014
534,4	0,014
534,9	0,014
535,3	0,014
535,8	0,014
536,2	0,015
536,7	0,014
537,1	0,015
537,6	0,015
538	0,015
538,5	0,015
538,9	0,015
539,4	0,014
539,8	0,014
540,3	0,014
540,7	0,015
541,2	0,014
541,6	0,014
542,1	0,014
542,5	0,015
543	0,015
543,4	0,015
543,9	0,015
544,3	0,016
544,8	0,015
545,2	0,015
545,7	0,014
546,1	0,014
546,5	0,013
547	0,013
547,4	0,013
547,9	0,013
548,3	0,014
548,8	0,014
549,2	0,014
549,7	0,014
550,1	0,015
550,6	0,014
551	0,014
551,5	0,014
551,9	0,014
552,4	0,014
552,8	0,013
553,3	0,013
553,7	0,013
554,2	0,014
554,6	0,013
555,1	0,013
555,5	0,013
555,9	0,013
556,4	0,014
556,8	0,013
557,3	0,013
557,7	0,013
558,2	0,013
558,6	0,013
559,1	0,013
559,5	0,013
560	0,013
560,4	0,013
560,9	0,014
561,3	0,014
561,8	0,014
562,2	0,014
562,7	0,014
563,1	0,015
563,6	0,015
564	0,014
564,4	0,014
564,9	0,014
565,3	0,014
565,8	0,013
566,2	0,013
566,7	0,013
567,1	0,013
567,6	0,013
568	0,013
568,5	0,013
568,9	0,014
569,4	0,014
569,8	0,013
570,3	0,013
570,7	0,013
571,1	0,013
571,6	0,013
572	0,013
572,5	0,013
572,9	0,013
573,4	0,013
573,8	0,013
574,3	0,013
574,7	0,013
575,2	0,012
575,6	0,012
576,1	0,012
576,5	0,012
576,9	0,013
577,4	0,013
577,8	0,013
578,3	0,013
578,7	0,013
579,2	0,012
579,6	0,012
580,1	0,013
580,5	0,012
581	0,012
581,4	0,012
581,9	0,012
582,3	0,012
582,7	0,012
583,2	0,012
583,6	0,012
584,1	0,013
584,5	0,013
585	0,012
585,4	0,012
585,9	0,012
586,3	0,012
586,8	0,012
587,2	0,012
587,6	0,011
588,1	0,012
588,5	0,011
589	0,012
589,4	0,012
589,9	0,013
590,3	0,012
590,8	0,012
591,2	0,012
591,7	0,013
592,1	0,012
592,5	0,012
593	0,012
593,4	0,012
593,9	0,012
594,3	0,012
594,8	0,012
595,2	0,012
595,7	0,012
596,1	0,012
596,6	0,011
597	0,012
597,4	0,011
597,9	0,011
598,3	0,011
598,8	0,012
599,2	0,011
599,7	0,011
600,1	0,011
600,6	0,011
601	0,011
601,4	0,011
601,9	0,011
602,3	0,011
602,8	0,011
603,2	0,011
603,7	0,011
604,1	0,011
604,6	0,011
605	0,011
605,4	0,011
605,9	0,011
606,3	0,012
606,8	0,011
607,2	0,012
607,7	0,011
608,1	0,012
608,6	0,012
609	0,012
609,4	0,012
609,9	0,012
610,3	0,011
610,8	0,011
611,2	0,011
611,7	0,011
612,1	0,011
612,6	0,011
613	0,011
613,4	0,011
613,9	0,011
614,3	0,011
614,8	0,011
615,2	0,01
615,7	0,01
616,1	0,01
616,6	0,01
617	0,01
617,4	0,01
617,9	0,01
618,3	0,01
618,8	0,01
619,2	0,01
619,7	0,01
620,1	0,009
620,5	0,009
621	0,009
621,4	0,009
621,9	0,009
622,3	0,01
622,8	0,01
623,2	0,01
623,6	0,01
624,1	0,01
624,5	0,01
625	0,01
625,4	0,01
625,9	0,01
626,3	0,01
626,8	0,01
627,2	0,01
627,6	0,01
628,1	0,01
628,5	0,01
629	0,009
629,4	0,01
629,9	0,01
630,3	0,01
630,7	0,01
631,2	0,01
631,6	0,01
632,1	0,011
632,5	0,01
633	0,01
633,4	0,01
633,8	0,01
634,3	0,01
634,7	0,01
635,2	0,01
635,6	0,01
636,1	0,009
636,5	0,01
636,9	0,01
637,4	0,01
637,8	0,01
638,3	0,01
638,7	0,009
639,2	0,009
639,6	0,009
640	0,01
640,5	0,01
640,9	0,01
641,4	0,01
641,8	0,01
642,2	0,01
642,7	0,009
643,1	0,009
643,6	0,009
644	0,008
644,5	0,009
644,9	0,009
645,3	0,009
645,8	0,008
646,2	0,008
646,7	0,009
647,1	0,009
647,6	0,009
648	0,009
648,4	0,009
648,9	0,009
649,3	0,009
649,8	0,009
650,2	0,009
650,6	0,009
651,1	0,009
651,5	0,008
652	0,009
652,4	0,009
652,9	0,009
653,3	0,009
653,7	0,008
654,2	0,009
654,6	0,008
655,1	0,008
655,5	0,008
655,9	0,005
656,4	0,004
656,8	0,005
657,3	0,005
657,7	0,005
658,2	0,005
658,6	0,005
659	0,007
659,5	0,011
659,9	0,01
660,4	0,009
660,8	0,009
661,2	0,009
661,7	0,009
662,1	0,009
662,6	0,009
663	0,009
663,4	0,009
663,9	0,009
664,3	0,009
664,8	0,009
665,2	0,009
665,6	0,009
666,1	0,009
666,5	0,009
667	0,009
667,4	0,009
667,9	0,008
668,3	0,008
668,7	0,008
669,2	0,009
669,6	0,008
670,1	0,008
670,5	0,008
670,9	0,009
671,4	0,008
671,8	0,008
672,3	0,008
672,7	0,008
673,1	0,008
673,6	0,008
674	0,007
674,5	0,007
674,9	0,007
675,3	0,007
675,8	0,007
676,2	0,007
676,7	0,007
677,1	0,009
677,5	0,009
678	0,009
678,4	0,008
678,9	0,008
679,3	0,008
679,7	0,008
680,2	0,007
680,6	0,007
681,1	0,007
681,5	0,007
681,9	0,007
682,4	0,007
682,8	0,008
683,3	0,008
683,7	0,008
684,1	0,008
684,6	0,008
685	0,008
685,5	0,008
685,9	0,007
686,3	0,007
686,8	0,007
687,2	0,007
687,7	0,007
688,1	0,007
688,5	0,007
689	0,007
689,4	0,007
689,9	0,007
690,3	0,007
690,7	0,007
691,2	0,007
691,6	0,007
692	0,007
692,5	0,007
692,9	0,007
693,4	0,007
693,8	0,007
694,2	0,008
694,7	0,008
695,1	0,008
695,6	0,008
696	0,008
696,4	0,008
696,9	0,008
697,3	0,008
697,8	0,007
698,2	0,008
698,6	0,008
699,1	0,008
699,5	0,008
699,9	0,007
700,4	0,007
700,8	0,007
701,3	0,007
701,7	0,007
702,1	0,007
702,6	0,007
703	0,007
703,5	0,007
703,9	0,007
704,3	0,008
704,8	0,008
705,2	0,007
705,6	0,008
706,1	0,008
706,5	0,008
707	0,008
707,4	0,007
707,8	0,008
708,3	0,008
708,7	0,007
709,2	0,007
709,6	0,007
710	0,008
710,5	0,008
710,9	0,007
711,3	0,008
711,8	0,008
712,2	0,008
712,7	0,008
713,1	0,007
713,5	0,007
714	0,007
714,4	0,007
714,8	0,007
715,3	0,006
715,7	0,006
716,2	0,006
716,6	0,006
717	0,006
717,5	0,006
717,9	0,006
718,3	0,006
718,8	0,006
719,2	0,007
719,7	0,007
720,1	0,007
720,5	0,007
721	0,008
721,4	0,008
721,8	0,007
722,3	0,007
722,7	0,008
723,2	0,008
723,6	0,007
724	0,007
724,5	0,007
724,9	0,007
725,3	0,007
725,8	0,007
726,2	0,007
726,7	0,007
727,1	0,007
727,5	0,007
728	0,007
728,4	0,007
728,8	0,007
729,3	0,007
729,7	0,007
730,1	0,007
730,6	0,007
731	0,007
731,5	0,006
731,9	0,007
732,3	0,006
732,8	0,006
733,2	0,006
733,6	0,006
734,1	0,006
734,5	0,006
734,9	0,006
735,4	0,006
735,8	0,006
736,3	0,006
736,7	0,006
737,1	0,006
737,6	0,006
738	0,006
738,4	0,006
738,9	0,006
739,3	0,006
739,7	0,006
740,2	0,006
740,6	0,007
741,1	0,007
741,5	0,006
741,9	0,006
742,4	0,006
742,8	0,006
743,2	0,006
743,7	0,006
744,1	0,006
744,5	0,006
745	0,007
745,4	0,007
745,8	0,007
746,3	0,007
746,7	0,007
747,2	0,007
747,6	0,007
748	0,007
748,5	0,006
748,9	0,006
749,3	0,007
749,8	0,007
750,2	0,007
750,6	0,007
751,1	0,007
751,5	0,007
751,9	0,007
752,4	0,006
752,8	0,006
753,3	0,007
753,7	0,006
754,1	0,006
754,6	0,006
755	0,006
755,4	0,007
755,9	0,007
756,3	0,007
756,7	0,007
757,2	0,007
757,6	0,007
758	0,007
758,5	0,007
758,9	0,007
759,3	0,006
759,8	0,006
760,2	0,006
760,6	0,006
761,1	0,006
761,5	0,006
761,9	0,006
762,4	0,007
762,8	0,006
763,3	0,006
763,7	0,006
764,1	0,006
764,6	0,006
765	0,005
765,4	0,006
765,9	0,006
766,3	0,006
766,7	0,006
767,2	0,006
767,6	0,006
768	0,006
768,5	0,006
768,9	0,006
769,3	0,006
769,8	0,007
770,2	0,006
770,6	0,007
771,1	0,007
771,5	0,007
771,9	0,006
772,4	0,006
772,8	0,006
773,2	0,006
773,7	0,006
774,1	0,006
774,5	0,006
775	0,007
775,4	0,007
775,8	0,007
776,3	0,006
776,7	0,006
777,1	0,006
777,6	0,006
778	0,006
778,4	0,006
778,9	0,006
779,3	0,006
779,7	0,007
780,2	0,006
780,6	0,007
781	0,007
781,5	0,006
781,9	0,006
782,3	0,006
782,8	0,006
783,2	0,006
783,6	0,006
784,1	0,006
784,5	0,006
784,9	0,006
785,4	0,006
785,8	0,006
786,2	0,006
786,7	0,006
787,1	0,006
787,5	0,006
788	0,006
788,4	0,007
788,8	0,007
789,3	0,007
789,7	0,007
790,1	0,006
790,6	0,006
791	0,007
791,4	0,006
791,9	0,006
792,3	0,006
792,7	0,006
793,2	0,006
793,6	0,006
794	0,006
794,5	0,006
794,9	0,006
795,3	0,006
795,8	0,006
796,2	0,006
796,6	0,006
797,1	0,006
797,5	0,006
797,9	0,006
798,4	0,006
798,8	0,006
799,2	0,006
799,7	0,006
800,1	0,005
800,5	0,005
801	0,006
801,4	0,006
801,8	0,006
802,2	0,006
802,7	0,006
803,1	0,006
803,5	0,006
804	0,007
804,4	0,007
804,8	0,007
805,3	0,006
805,7	0,007
806,1	0,007
806,6	0,006
807	0,006
807,4	0,006
807,9	0,006
808,3	0,006
808,7	0,006
809,2	0,006
809,6	0,006
810	0,006
810,4	0,005
810,9	0,006
811,3	0,006
811,7	0,005
812,2	0,006
812,6	0,006
813	0,006
813,5	0,006
813,9	0,006
814,3	0,006
814,8	0,006
815,2	0,005
815,6	0,006
816,1	0,006
816,5	0,006
816,9	0,006
817,3	0,006
817,8	0,006
818,2	0,006
818,6	0,006
819,1	0,006
819,5	0,005
819,9	0,005
820,4	0,005
820,8	0,006
821,2	0,005
821,7	0,005
822,1	0,006
822,5	0,006
822,9	0,006
823,4	0,006
823,8	0,006
824,2	0,006
824,7	0,006
825,1	0,006
825,5	0,005
826	0,005
826,4	0,005
826,8	0,005
827,3	0,004
827,7	0,004
828,1	0,005
828,5	0,005
829	0,005
829,4	0,005
829,8	0,004
830,3	0,005
830,7	0,005
831,1	0,005
831,6	0,005
832	0,004
832,4	0,005
832,8	0,005
833,3	0,004
833,7	0,004
834,1	0,005
834,6	0,004
835	0,005
835,4	0,005
835,8	0,005
836,3	0,005
836,7	0,005
837,1	0,005
837,6	0,006
838	0,006
838,4	0,006
838,9	0,006
839,3	0,007
839,7	0,007
840,1	0,007
840,6	0,006
841	0,006
841,4	0,005
841,9	0,005
842,3	0,005
842,7	0,005
843,1	0,005
843,6	0,005
844	0,005
844,4	0,005
844,9	0,006
845,3	0,006
845,7	0,005
846,2	0,005
846,6	0,005
847	0,005
847,4	0,005
847,9	0,005
848,3	0,005
848,7	0,005
849,2	0,005
849,6	0,005
850	0,005
850,4	0,005
850,9	0,005
851,3	0,005
851,7	0,005
852,2	0,005
852,6	0,005
853	0,005
853,4	0,005
853,9	0,006
854,3	0,006
854,7	0,006
855,2	0,006
855,6	0,006
856	0,006
856,4	0,006
856,9	0,006
857,3	0,006
857,7	0,005
858,2	0,005
858,6	0,005
859	0,006
859,4	0,006
859,9	0,006
860,3	0,006
860,7	0,006
861,1	0,006
861,6	0,006
862	0,006
862,4	0,006
862,9	0,006
863,3	0,006
863,7	0,006
864,1	0,005
864,6	0,005
865	0,005
865,4	0,005
865,9	0,005
866,3	0,005
866,7	0,005
867,1	0,005
867,6	0,005
868	0,005
868,4	0,005
868,8	0,005
869,3	0,005
869,7	0,005
870,1	0,005
870,6	0,005
871	0,005
871,4	0,005
871,8	0,005
872,3	0,006
872,7	0,006
873,1	0,006
873,5	0,006
874	0,005
874,4	0,005
874,8	0,005
875,3	0,005
875,7	0,005
876,1	0,005
876,5	0,005
877	0,006
877,4	0,006
877,8	0,006
878,2	0,006
878,7	0,006
879,1	0,006
879,5	0,006
879,9	0,006
880,4	0,006
880,8	0,006
881,2	0,006
881,7	0,006
882,1	0,006
882,5	0,006
882,9	0,006
883,4	0,005
883,8	0,005
884,2	0,005
884,6	0,005
885,1	0,005
885,5	0,005
885,9	0,005
886,3	0,005
886,8	0,005
887,2	0,005
887,6	0,005
888	0,005
888,5	0,005
888,9	0,005
889,3	0,004
889,8	0,005
890,2	0,005
890,6	0,005
891	0,005
891,5	0,005
891,9	0,006
892,3	0,006
892,7	0,005
893,2	0,005
893,6	0,005
894	0,005
894,4	0,005
894,9	0,005
895,3	0,005
895,7	0,006
896,1	0,006
896,6	0,006
897	0,006
897,4	0,005
897,8	0,005
898,3	0,005
898,7	0,005
899,1	0,005
899,5	0,005
900	0,005
900,4	0,005
900,8	0,005
901,2	0,005
901,7	0,005
902,1	0,005
902,5	0,005
902,9	0,004
903,4	0,004
903,8	0,004
904,2	0,004
904,6	0,004
905,1	0,004
905,5	0,004
905,9	0,004
906,3	0,005
906,8	0,005
907,2	0,005
907,6	0,005
908	0,005
908,5	0,005
908,9	0,005
909,3	0,005
909,7	0,006
910,2	0,006
910,6	0,006
911	0,006
911,4	0,006
911,9	0,006
912,3	0,006
912,7	0,006
913,1	0,006
913,6	0,005
914	0,005
914,4	0,004
914,8	0,005
915,3	0,005
915,7	0,004
916,1	0,004
916,5	0,004
916,9	0,005
917,4	0,005
917,8	0,004
918,2	0,005
918,6	0,005
919,1	0,004
919,5	0,005
919,9	0,005
920,3	0,005
920,8	0,005
921,2	0,005
921,6	0,006
922	0,006
922,5	0,005
922,9	0,005
923,3	0,005
923,7	0,005
924,2	0,004
924,6	0,004
925	0,004
925,4	0,005
925,8	0,005
926,3	0,005
926,7	0,005
927,1	0,005
927,5	0,005
928	0,005
928,4	0,005
928,8	0,004
929,2	0,005
929,7	0,005
930,1	0,005
930,5	0,005
930,9	0,005
931,3	0,005
931,8	0,005
932,2	0,005
932,6	0,005
933	0,006
933,5	0,006
933,9	0,006
934,3	0,006
934,7	0,006
935,2	0,006
935,6	0,006
936	0,005
936,4	0,005
936,8	0,005
937,3	0,005
937,7	0,005
938,1	0,005
938,5	0,005
939	0,005
939,4	0,005
939,8	0,005
940,2	0,005
940,6	0,005
941,1	0,005
941,5	0,005
941,9	0,005
942,3	0,005
942,8	0,005
943,2	0,005
943,6	0,005
944	0,005
944,4	0,005
944,9	0,005
945,3	0,005
945,7	0,006
946,1	0,006
946,6	0,005
947	0,005
947,4	0,005
947,8	0,004
948,2	0,004
948,7	0,004
949,1	0,003
949,5	0,004
949,9	0,004
950,3	0,004
950,8	0,005
951,2	0,005
951,6	0,004
952	0,005
952,5	0,006
952,9	0,005
953,3	0,005
953,7	0,005
954,1	0,005
954,6	0,005
955	0,005
955,4	0,005
955,8	0,004
956,2	0,004
956,7	0,004
957,1	0,004
957,5	0,004
957,9	0,004
958,3	0,004
958,8	0,005
959,2	0,006
959,6	0,006
960	0,006
960,5	0,006
960,9	0,005
961,3	0,005
961,7	0,006
962,1	0,005
962,6	0,005
963	0,005
963,4	0,006
963,8	0,006
964,2	0,006
964,7	0,006
965,1	0,006
965,5	0,006
965,9	0,005
966,3	0,005
966,8	0,006
967,2	0,005
967,6	0,006
968	0,006
968,4	0,005
968,9	0,005
969,3	0,006
969,7	0,005
970,1	0,005
970,5	0,005
971	0,005
971,4	0,005
971,8	0,005
972,2	0,005
972,6	0,005
973,1	0,005
973,5	0,005
973,9	0,005
974,3	0,006
974,7	0,006
975,2	0,006
975,6	0,005
976	0,005
976,4	0,006
976,8	0,006
977,3	0,005
977,7	0,005
978,1	0,005
978,5	0,005
978,9	0,006
979,4	0,005
979,8	0,006
980,2	0,005
980,6	0,005
981	0,006
981,5	0,006
981,9	0,006
982,3	0,005
982,7	0,005
983,1	0,005
983,6	0,005
984	0,006
984,4	0,006
984,8	0,005
985,2	0,006
985,6	0,005
986,1	0,005
986,5	0,005
986,9	0,005
987,3	0,004
987,7	0,004
988,2	0,005
988,6	0,005
989	0,005
989,4	0,005
989,8	0,005
990,3	0,006
990,7	0,006
991,1	0,006
991,5	0,006
991,9	0,005
992,3	0,005
992,8	0,006
993,2	0,005
993,6	0,005
994	0,005
994,4	0,006
994,9	0,006
995,3	0,005
995,7	0,004
996,1	0,005
996,5	0,005
996,9	0,004
997,4	0,004
997,8	0,004
998,2	0,005
998,6	0,005
999	0,005
999,5	0,005
999,9	0,005
1000,3	0,006
1000,7	0,006
1001,1	0,005
1001,5	0,005
1002	0,005
1002,4	0,005
1002,8	0,005
1003,2	0,005
1003,6	0,004
1004	0,004
1004,5	0,004
1004,9	0,004
1005,3	0,004
1005,7	0,003
1006,1	0,003
1006,6	0,004
1007	0,004
1007,4	0,004
1007,8	0,004
1008,2	0,005
1008,6	0,004
1009,1	0,004
1009,5	0,004
1009,9	0,004
1010,3	0,003
1010,7	0,003
1011,1	0,003
1011,6	0,004
1012	0,004
1012,4	0,004
1012,8	0,005
1013,2	0,005
1013,6	0,005
1014,1	0,004
1014,5	0,004
1014,9	0,004
1015,3	0,004
1015,7	0,003
1016,1	0,003
1016,6	0,002
1017	0,003
1017,4	0,003
1017,8	0,002
1018,2	0,003
1018,6	0,002
1019,1	0,002
1019,5	0,003
1019,9	0,003
1020,3	0,003
1020,7	0,003
1021,1	0,003
1021,6	0,003
1022	0,002
1022,4	0,002
1022,8	0,003
1023,2	0,002
1023,6	0,002
1024,1	0,002
1024,5	0,003
1024,9	0,003
1025,3	0,003
1025,7	0,003
1026,1	0,003
1026,6	0,003
1027	0,003
1027,4	0,003
1027,8	0,003
1028,2	0,002
1028,6	0,003
1029	0,003
1029,5	0,003
1029,9	0,003
1030,3	0,003
1030,7	0,003
1031,1	0,003
1031,5	0,003
1032	0,004
1032,4	0,004
1032,8	0,005
1033,2	0,005
1033,6	0,004
1034	0,004
1034,4	0,004
1034,9	0,004
1035,3	0,004
1035,7	0,003
1036,1	0,003
1036,5	0,003
1036,9	0,003
1037,4	0,004
1037,8	0,003
1038,2	0,004
1038,6	0,004
1039	0,003
1039,4	0,004
1039,8	0,004
1040,3	0,004
1040,7	0,004
1041,1	0,004
1041,5	0,004
1041,9	0,004
1042,3	0,005
1042,7	0,004
1043,2	0,004
1043,6	0,004
1044	0,004
1044,4	0,003
1044,8	0,002
1045,2	0,002
1045,6	0,003
1046,1	0,003
1046,5	0,003
1046,9	0,004
1047,3	0,004
1047,7	0,004
1048,1	0,004
1048,5	0,003
1049	0,003
1049,4	0,003
1049,8	0,003
1050,2	0,003
1050,6	0,003
1051	0,004
1051,4	0,004
1051,9	0,004
1052,3	0,004
1052,7	0,004
1053,1	0,004
1053,5	0,003
1053,9	0,004
1054,3	0,003
1054,8	0,003
1055,2	0,002
1055,6	0,003
1056	0,002
1056,4	0,003
1056,8	0,003
1057,2	0,003
1057,6	0,003
1058,1	0,004
1058,5	0,004
1058,9	0,004
1059,3	0,003
1059,7	0,002
1060,1	0,002
1060,5	0,001
1061	0,001
1061,4	0
1061,8	-0
1062,2	0
1062,6	0,002
1063	0,001
1063,4	0,004
1063,8	0,003
1064,3	0,004
1064,7	0,004
1065,1	0,004
1065,5	0,003
1065,9	0,004
1066,3	0,003
1066,7	0,004
1067,1	0,004
1067,6	0,004
1068	0,004
1068,4	0,005
1068,8	0,005
1069,2	0,005
1069,6	0,005
1070	0,005
1070,4	0,006
1070,9	0,005
1071,3	0,004
1071,7	0,004
1072,1	0,004
1072,5	0,004
1072,9	0,004
1073,3	0,003
1073,7	0,002
1074,2	0,003
1074,6	0,003
1075	0,003
1075,4	0,001
1075,8	0,001
1076,2	0,001
1076,6	0,002
1077	0,002
1077,5	0,001
1077,9	0,001
1078,3	0,004
1078,7	0,003
1079,1	0,003
1079,5	0,004
1079,9	0,004
1080,3	0,005
1080,7	0,006
1081,2	0,004
1081,6	0,005
1082	0,004
1082,4	0,004
1082,8	0,005
1083,2	0,004
1083,6	0,004
1084	0,004
1084,5	0,002
1084,9	0,004
1085,3	0,002
1085,7	0,002
1086,1	0,002
1086,5	0,001
1086,9	0,001
1087,3	0,001
1087,7	0,002
1088,2	0,002
1088,6	0,002
1089	0,001
1089,4	0,001
1089,8	0,001
1090,2	0,002
1090,6	0,002
1091	0,005
1091,4	0,004
1091,9	0,001
1092,3	-0,001
1092,7	-0,004
1093,1	-0,003
1093,5	-0,003
1093,9	-0,002
1094,3	-0,002
1094,7	0,001
1095,1	0,004
1095,5	0,006
1096	0,003
1096,4	0,002
1096,8	-0,003
1097,2	-0,007
1097,6	-0,007
1098	-0,008
1098,4	-0,006
1098,8	-0,003
1099,2	-0,005
1099,6	0,004
1100,1	0,01
1100,5	0,013
1100,9	0,011
1101,3	0,02
1101,7	0,021
1102,1	0,024
1102,5	0,016
1102,9	0,011
1103,3	0,012
1103,7	0,007
1104,2	-0,001
1104,6	0,001
1105	0,004
1105,4	0,001
1105,8	0,005
1106,2	0,008
1106,6	0,018
1107	0,01
1107,4	0,011
1107,8	-0,026
1108,3	-0,11
