Data from Absorbance_00006.txt Node
Date: Wed Aug 02 17:31:30 MSK 2023
User: vat
Spectrometer: MAYP114033
Trigger mode: 0
Integration Time (sec): 8,000000E-3
Scans to average: 10
Electric dark correction enabled: true
Nonlinearity correction enabled: false
Boxcar width: 3
XAxis mode: Wavelengths
Number of Pixels in Spectrum: 2068
>>>>>Begin Spectral Data<<<<<
199,4	0
199,9	0,24
200,4	0,451
200,8	0,698
201,3	0,801
201,8	0,901
202,2	0,927
202,7	0,936
203,2	0,985
203,6	1,012
204,1	1,062
204,6	1,069
205	1,088
205,5	1,106
206	1,103
206,4	1,126
206,9	1,154
207,4	1,149
207,8	1,166
208,3	1,158
208,8	1,174
209,2	1,207
209,7	1,234
210,2	1,228
210,6	1,238
211,1	1,243
211,5	1,279
212	1,286
212,5	1,316
212,9	1,3
213,4	1,326
213,9	1,35
214,3	1,396
214,8	1,393
215,3	1,406
215,7	1,374
216,2	1,397
216,7	1,425
217,1	1,443
217,6	1,442
218,1	1,463
218,5	1,493
219	1,534
219,5	1,568
219,9	1,575
220,4	1,598
220,9	1,625
221,3	1,629
221,8	1,641
222,3	1,653
222,7	1,638
223,2	1,645
223,6	1,657
224,1	1,677
224,6	1,699
225	1,724
225,5	1,736
226	1,752
226,4	1,76
226,9	1,755
227,4	1,754
227,8	1,794
228,3	1,792
228,8	1,816
229,2	1,836
229,7	1,871
230,2	1,895
230,6	1,928
231,1	1,903
231,5	1,909
232	1,918
232,5	1,929
232,9	1,911
233,4	1,903
233,9	1,915
234,3	1,941
234,8	1,969
235,3	2,002
235,7	2,012
236,2	2,047
236,7	2,081
237,1	2,062
237,6	2,062
238,1	2,056
238,5	2,042
239	2,057
239,4	2,057
239,9	2,054
240,4	2,056
240,8	2,065
241,3	2,067
241,8	2,072
242,2	2,042
242,7	2,042
243,2	2,044
243,6	2,062
244,1	2,066
244,6	2,064
245	2,067
245,5	2,104
245,9	2,112
246,4	2,145
246,9	2,166
247,3	2,163
247,8	2,164
248,3	2,186
248,7	2,179
249,2	2,173
249,7	2,161
250,1	2,162
250,6	2,152
251	2,158
251,5	2,144
252	2,17
252,4	2,176
252,9	2,179
253,4	2,167
253,8	2,181
254,3	2,195
254,8	2,204
255,2	2,18
255,7	2,177
256,1	2,152
256,6	2,14
257,1	2,141
257,5	2,145
258	2,15
258,5	2,134
258,9	2,151
259,4	2,163
259,9	2,169
260,3	2,177
260,8	2,156
261,2	2,167
261,7	2,203
262,2	2,192
262,6	2,191
263,1	2,204
263,6	2,175
264	2,211
264,5	2,225
264,9	2,195
265,4	2,202
265,9	2,209
266,3	2,195
266,8	2,239
267,3	2,217
267,7	2,183
268,2	2,226
268,7	2,219
269,1	2,206
269,6	2,185
270	2,173
270,5	2,18
271	2,175
271,4	2,142
271,9	2,137
272,4	2,147
272,8	2,179
273,3	2,19
273,7	2,193
274,2	2,2
274,7	2,199
275,1	2,195
275,6	2,178
276,1	2,163
276,5	2,148
277	2,129
277,4	2,112
277,9	2,108
278,4	2,109
278,8	2,117
279,3	2,116
279,8	2,098
280,2	2,076
280,7	2,054
281,1	2,023
281,6	2
282,1	1,968
282,5	1,938
283	1,903
283,4	1,851
283,9	1,791
284,4	1,736
284,8	1,658
285,3	1,586
285,8	1,504
286,2	1,427
286,7	1,359
287,1	1,291
287,6	1,228
288,1	1,174
288,5	1,117
289	1,071
289,5	1,03
289,9	0,992
290,4	0,959
290,8	0,927
291,3	0,902
291,8	0,877
292,2	0,856
292,7	0,838
293,1	0,821
293,6	0,807
294,1	0,793
294,5	0,781
295	0,773
295,5	0,764
295,9	0,754
296,4	0,747
296,8	0,741
297,3	0,736
297,8	0,731
298,2	0,723
298,7	0,718
299,1	0,713
299,6	0,708
300,1	0,704
300,5	0,7
301	0,695
301,5	0,691
301,9	0,687
302,4	0,683
302,8	0,679
303,3	0,674
303,8	0,671
304,2	0,666
304,7	0,663
305,1	0,659
305,6	0,656
306,1	0,651
306,5	0,646
307	0,641
307,4	0,637
307,9	0,632
308,4	0,629
308,8	0,623
309,3	0,62
309,8	0,615
310,2	0,61
310,7	0,605
311,1	0,601
311,6	0,597
312,1	0,593
312,5	0,588
313	0,583
313,4	0,578
313,9	0,574
314,4	0,568
314,8	0,561
315,3	0,556
315,7	0,55
316,2	0,545
316,7	0,538
317,1	0,532
317,6	0,527
318	0,521
318,5	0,516
319	0,51
319,4	0,505
319,9	0,5
320,3	0,494
320,8	0,49
321,3	0,484
321,7	0,478
322,2	0,473
322,6	0,468
323,1	0,463
323,6	0,457
324	0,453
324,5	0,447
324,9	0,442
325,4	0,436
325,9	0,432
326,3	0,427
326,8	0,421
327,2	0,415
327,7	0,41
328,2	0,404
328,6	0,399
329,1	0,393
329,5	0,387
330	0,381
330,5	0,376
330,9	0,37
331,4	0,365
331,8	0,36
332,3	0,355
332,8	0,35
333,2	0,346
333,7	0,341
334,1	0,337
334,6	0,333
335,1	0,328
335,5	0,322
336	0,317
336,4	0,311
336,9	0,306
337,4	0,301
337,8	0,296
338,3	0,29
338,7	0,285
339,2	0,28
339,7	0,275
340,1	0,27
340,6	0,265
341	0,261
341,5	0,256
342	0,252
342,4	0,248
342,9	0,244
343,3	0,24
343,8	0,237
344,2	0,232
344,7	0,229
345,2	0,225
345,6	0,221
346,1	0,216
346,5	0,213
347	0,21
347,5	0,205
347,9	0,201
348,4	0,198
348,8	0,195
349,3	0,191
349,8	0,187
350,2	0,182
350,7	0,179
351,1	0,176
351,6	0,172
352	0,169
352,5	0,166
353	0,163
353,4	0,16
353,9	0,157
354,3	0,154
354,8	0,151
355,3	0,148
355,7	0,146
356,2	0,143
356,6	0,141
357,1	0,138
357,5	0,135
358	0,133
358,5	0,13
358,9	0,128
359,4	0,126
359,8	0,122
360,3	0,12
360,8	0,119
361,2	0,116
361,7	0,113
362,1	0,11
362,6	0,107
363	0,105
363,5	0,103
364	0,1
364,4	0,098
364,9	0,096
365,3	0,095
365,8	0,093
366,3	0,092
366,7	0,091
367,2	0,09
367,6	0,089
368,1	0,087
368,5	0,085
369	0,083
369,5	0,081
369,9	0,08
370,4	0,079
370,8	0,077
371,3	0,076
371,7	0,075
372,2	0,073
372,7	0,073
373,1	0,071
373,6	0,069
374	0,068
374,5	0,067
374,9	0,065
375,4	0,064
375,9	0,062
376,3	0,061
376,8	0,059
377,2	0,058
377,7	0,057
378,2	0,056
378,6	0,056
379,1	0,055
379,5	0,054
380	0,053
380,4	0,052
380,9	0,052
381,4	0,051
381,8	0,05
382,3	0,049
382,7	0,048
383,2	0,048
383,6	0,047
384,1	0,046
384,6	0,045
385	0,044
385,5	0,044
385,9	0,043
386,4	0,042
386,8	0,042
387,3	0,041
387,7	0,04
388,2	0,04
388,7	0,039
389,1	0,038
389,6	0,036
390	0,036
390,5	0,035
390,9	0,035
391,4	0,033
391,9	0,033
392,3	0,033
392,8	0,033
393,2	0,032
393,7	0,032
394,1	0,032
394,6	0,031
395,1	0,03
395,5	0,03
396	0,03
396,4	0,03
396,9	0,029
397,3	0,029
397,8	0,029
398,2	0,029
398,7	0,028
399,2	0,027
399,6	0,027
400,1	0,027
400,5	0,026
401	0,025
401,4	0,024
401,9	0,023
402,4	0,023
402,8	0,022
403,3	0,022
403,7	0,021
404,2	0,02
404,6	0,02
405,1	0,02
405,5	0,02
406	0,019
406,5	0,018
406,9	0,018
407,4	0,018
407,8	0,018
408,3	0,017
408,7	0,016
409,2	0,017
409,6	0,016
410,1	0,016
410,6	0,016
411	0,015
411,5	0,015
411,9	0,015
412,4	0,014
412,8	0,014
413,3	0,014
413,7	0,013
414,2	0,013
414,7	0,013
415,1	0,012
415,6	0,012
416	0,011
416,5	0,01
416,9	0,01
417,4	0,009
417,8	0,009
418,3	0,009
418,8	0,009
419,2	0,009
419,7	0,009
420,1	0,008
420,6	0,008
421	0,008
421,5	0,008
421,9	0,007
422,4	0,007
422,8	0,008
423,3	0,008
423,8	0,008
424,2	0,008
424,7	0,007
425,1	0,007
425,6	0,007
426	0,006
426,5	0,006
426,9	0,005
427,4	0,005
427,9	0,004
428,3	0,004
428,8	0,004
429,2	0,003
429,7	0,003
430,1	0,003
430,6	0,004
431	0,004
431,5	0,004
431,9	0,004
432,4	0,004
432,8	0,004
433,3	0,004
433,8	0,004
434,2	0,003
434,7	0,003
435,1	0,003
435,6	0,003
436	0,003
436,5	0,002
436,9	0,002
437,4	0,002
437,8	0,001
438,3	0,001
438,8	0,001
439,2	0
439,7	0
440,1	-0
440,6	-0
441	0,001
441,5	0,001
441,9	0,002
442,4	0,001
442,8	0,002
443,3	0,001
443,7	0,001
444,2	0
444,7	-0
445,1	-0,001
445,6	-0,001
446	-0,001
446,5	-0,001
446,9	-0,002
447,4	-0,002
447,8	-0,002
448,3	-0,002
448,7	-0,002
449,2	-0,003
449,6	-0,002
450,1	-0,002
450,6	-0,002
451	-0,001
451,5	-0,001
451,9	-0,002
452,4	-0,001
452,8	-0,002
453,3	-0,002
453,7	-0,003
454,2	-0,003
454,6	-0,003
455,1	-0,003
455,5	-0,003
456	-0,003
456,4	-0,002
456,9	-0,002
457,3	-0,002
457,8	-0,002
458,3	-0,001
458,7	-0,002
459,2	-0,002
459,6	-0,002
460,1	-0,002
460,5	-0,002
461	-0,002
461,4	-0,002
461,9	-0,002
462,3	-0,003
462,8	-0,003
463,2	-0,003
463,7	-0,003
464,1	-0,003
464,6	-0,003
465	-0,002
465,5	-0,001
466	-0,001
466,4	-0,001
466,9	-0,001
467,3	-0,002
467,8	-0,002
468,2	-0,003
468,7	-0,003
469,1	-0,003
469,6	-0,004
470	-0,004
470,5	-0,004
470,9	-0,004
471,4	-0,003
471,8	-0,003
472,3	-0,004
472,7	-0,004
473,2	-0,003
473,6	-0,003
474,1	-0,003
474,5	-0,003
475	-0,003
475,4	-0,003
475,9	-0,002
476,4	-0,003
476,8	-0,003
477,3	-0,002
477,7	-0,003
478,2	-0,002
478,6	-0,002
479,1	-0,002
479,5	-0,002
480	-0,002
480,4	-0,002
480,9	-0,002
481,3	-0,002
481,8	-0,002
482,2	-0,002
482,7	-0,002
483,1	-0,003
483,6	-0,003
484	-0,003
484,5	-0,003
484,9	-0,004
485,4	-0,004
485,8	-0,004
486,3	-0,004
486,7	-0,004
487,2	-0,004
487,6	-0,004
488,1	-0,004
488,5	-0,004
489	-0,005
489,4	-0,004
489,9	-0,004
490,4	-0,004
490,8	-0,004
491,3	-0,004
491,7	-0,004
492,2	-0,004
492,6	-0,004
493,1	-0,004
493,5	-0,005
494	-0,005
494,4	-0,005
494,9	-0,005
495,3	-0,004
495,8	-0,004
496,2	-0,004
496,7	-0,003
497,1	-0,004
497,6	-0,003
498	-0,003
498,5	-0,003
498,9	-0,004
499,4	-0,004
499,8	-0,004
500,3	-0,004
500,7	-0,003
501,2	-0,003
501,6	-0,003
502,1	-0,002
502,5	-0,002
503	-0,002
503,4	-0,002
503,9	-0,002
504,3	-0,003
504,8	-0,003
505,2	-0,004
505,7	-0,004
506,1	-0,004
506,6	-0,003
507	-0,004
507,5	-0,004
507,9	-0,003
508,4	-0,003
508,8	-0,003
509,3	-0,003
509,7	-0,003
510,2	-0,003
510,6	-0,003
511,1	-0,003
511,5	-0,003
512	-0,003
512,4	-0,004
512,9	-0,004
513,3	-0,004
513,8	-0,004
514,2	-0,004
514,7	-0,004
515,1	-0,003
515,6	-0,002
516	-0,002
516,5	-0,001
516,9	-0,002
517,4	-0,001
517,8	-0,001
518,3	-0,002
518,7	-0,002
519,2	-0,001
519,6	-0,001
520,1	-0,001
520,5	-0,002
521	-0,002
521,4	-0,002
521,9	-0,002
522,3	-0,003
522,8	-0,004
523,2	-0,004
523,7	-0,003
524,1	-0,004
524,6	-0,004
525	-0,004
525,5	-0,003
525,9	-0,003
526,4	-0,003
526,8	-0,003
527,3	-0,003
527,7	-0,003
528,2	-0,003
528,6	-0,003
529,1	-0,003
529,5	-0,003
530	-0,003
530,4	-0,003
530,9	-0,002
531,3	-0,003
531,8	-0,003
532,2	-0,003
532,6	-0,003
533,1	-0,003
533,5	-0,002
534	-0,003
534,4	-0,003
534,9	-0,003
535,3	-0,003
535,8	-0,003
536,2	-0,002
536,7	-0,003
537,1	-0,002
537,6	-0,003
538	-0,003
538,5	-0,002
538,9	-0,002
539,4	-0,003
539,8	-0,003
540,3	-0,002
540,7	-0,002
541,2	-0,003
541,6	-0,003
542,1	-0,003
542,5	-0,003
543	-0,002
543,4	-0,003
543,9	-0,003
544,3	-0,003
544,8	-0,003
545,2	-0,003
545,7	-0,003
546,1	-0,003
546,5	-0,002
547	-0,003
547,4	-0,002
547,9	-0,002
548,3	-0,002
548,8	-0,002
549,2	-0,002
549,7	-0,002
550,1	-0,002
550,6	-0,002
551	-0,002
551,5	-0,002
551,9	-0,002
552,4	-0,002
552,8	-0,002
553,3	-0,003
553,7	-0,003
554,2	-0,003
554,6	-0,003
555,1	-0,003
555,5	-0,003
555,9	-0,003
556,4	-0,003
556,8	-0,003
557,3	-0,003
557,7	-0,003
558,2	-0,004
558,6	-0,003
559,1	-0,003
559,5	-0,003
560	-0,004
560,4	-0,003
560,9	-0,003
561,3	-0,003
561,8	-0,003
562,2	-0,002
562,7	-0,003
563,1	-0,002
563,6	-0,002
564	-0,002
564,4	-0,002
564,9	-0,002
565,3	-0,002
565,8	-0,002
566,2	-0,002
566,7	-0,002
567,1	-0,002
567,6	-0,002
568	-0,003
568,5	-0,002
568,9	-0,003
569,4	-0,002
569,8	-0,002
570,3	-0,002
570,7	-0,002
571,1	-0,002
571,6	-0,002
572	-0,002
572,5	-0,002
572,9	-0,002
573,4	-0,002
573,8	-0,002
574,3	-0,002
574,7	-0,002
575,2	-0,002
575,6	-0,002
576,1	-0,003
576,5	-0,003
576,9	-0,002
577,4	-0,002
577,8	-0,003
578,3	-0,003
578,7	-0,003
579,2	-0,003
579,6	-0,003
580,1	-0,003
580,5	-0,003
581	-0,003
581,4	-0,003
581,9	-0,003
582,3	-0,003
582,7	-0,003
583,2	-0,002
583,6	-0,003
584,1	-0,003
584,5	-0,002
585	-0,002
585,4	-0,002
585,9	-0,003
586,3	-0,003
586,8	-0,003
587,2	-0,002
587,6	-0,003
588,1	-0,002
588,5	-0,003
589	-0,002
589,4	-0,002
589,9	-0,002
590,3	-0,002
590,8	-0,002
591,2	-0,002
591,7	-0,002
592,1	-0,002
592,5	-0,002
593	-0,002
593,4	-0,002
593,9	-0,002
594,3	-0,002
594,8	-0,002
595,2	-0,002
595,7	-0,002
596,1	-0,002
596,6	-0,002
597	-0,002
597,4	-0,002
597,9	-0,002
598,3	-0,002
598,8	-0,002
599,2	-0,002
599,7	-0,002
600,1	-0,003
600,6	-0,002
601	-0,002
601,4	-0,002
601,9	-0,002
602,3	-0,002
602,8	-0,002
603,2	-0,002
603,7	-0,002
604,1	-0,002
604,6	-0,002
605	-0,002
605,4	-0,002
605,9	-0,002
606,3	-0,002
606,8	-0,002
607,2	-0,002
607,7	-0,002
608,1	-0,002
608,6	-0,002
609	-0,002
609,4	-0,001
609,9	-0,001
610,3	-0,002
610,8	-0,002
611,2	-0,003
611,7	-0,002
612,1	-0,002
612,6	-0,002
613	-0,002
613,4	-0,002
613,9	-0,002
614,3	-0,002
614,8	-0,002
615,2	-0,002
615,7	-0,003
616,1	-0,003
616,6	-0,003
617	-0,004
617,4	-0,003
617,9	-0,003
618,3	-0,003
618,8	-0,003
619,2	-0,003
619,7	-0,003
620,1	-0,003
620,5	-0,003
621	-0,003
621,4	-0,003
621,9	-0,003
622,3	-0,003
622,8	-0,003
623,2	-0,003
623,6	-0,003
624,1	-0,003
624,5	-0,003
625	-0,003
625,4	-0,002
625,9	-0,002
626,3	-0,003
626,8	-0,003
627,2	-0,002
627,6	-0,002
628,1	-0,002
628,5	-0,003
629	-0,003
629,4	-0,002
629,9	-0,002
630,3	-0,002
630,7	-0,002
631,2	-0,002
631,6	-0,002
632,1	-0,001
632,5	-0,001
633	-0,002
633,4	-0,002
633,8	-0,002
634,3	-0,002
634,7	-0,002
635,2	-0,002
635,6	-0,002
636,1	-0,002
636,5	-0,001
636,9	-0,001
637,4	-0,001
637,8	-0,001
638,3	-0,001
638,7	-0,002
639,2	-0,002
639,6	-0,002
640	-0,002
640,5	-0,002
640,9	-0,002
641,4	-0,002
641,8	-0,002
642,2	-0,002
642,7	-0,002
643,1	-0,002
643,6	-0,002
644	-0,003
644,5	-0,003
644,9	-0,003
645,3	-0,003
645,8	-0,003
646,2	-0,004
646,7	-0,004
647,1	-0,004
647,6	-0,003
648	-0,003
648,4	-0,003
648,9	-0,002
649,3	-0,002
649,8	-0,002
650,2	-0,002
650,6	-0,002
651,1	-0,002
651,5	-0,002
652	-0,002
652,4	-0,002
652,9	-0,002
653,3	-0,002
653,7	-0,002
654,2	-0,002
654,6	-0,002
655,1	-0,002
655,5	-0,001
655,9	-0,001
656,4	-0,001
656,8	-0,001
657,3	-0,001
657,7	-0,001
658,2	-0,001
658,6	-0,001
659	-0,001
659,5	-0,002
659,9	-0,002
660,4	-0,002
660,8	-0,001
661,2	-0,001
661,7	-0,001
662,1	-0,001
662,6	-0,001
663	-0,001
663,4	-0,001
663,9	-0,002
664,3	-0,002
664,8	-0,002
665,2	-0,002
665,6	-0,002
666,1	-0,002
666,5	-0,002
667	-0,002
667,4	-0,002
667,9	-0,002
668,3	-0,002
668,7	-0,002
669,2	-0,002
669,6	-0,002
670,1	-0,002
670,5	-0,002
670,9	-0,001
671,4	-0,001
671,8	-0,001
672,3	-0,002
672,7	-0,002
673,1	-0,002
673,6	-0,002
674	-0,003
674,5	-0,002
674,9	-0,002
675,3	-0,002
675,8	-0,003
676,2	-0,003
676,7	-0,002
677,1	-0,002
677,5	-0,002
678	-0,002
678,4	-0,002
678,9	-0,002
679,3	-0,002
679,7	-0,003
680,2	-0,003
680,6	-0,003
681,1	-0,003
681,5	-0,003
681,9	-0,003
682,4	-0,003
682,8	-0,003
683,3	-0,003
683,7	-0,002
684,1	-0,002
684,6	-0,002
685	-0,002
685,5	-0,002
685,9	-0,002
686,3	-0,002
686,8	-0,002
687,2	-0,002
687,7	-0,002
688,1	-0,002
688,5	-0,003
689	-0,003
689,4	-0,003
689,9	-0,003
690,3	-0,003
690,7	-0,003
691,2	-0,003
691,6	-0,003
692	-0,003
692,5	-0,003
692,9	-0,002
693,4	-0,003
693,8	-0,003
694,2	-0,002
694,7	-0,002
695,1	-0,002
695,6	-0,002
696	-0,002
696,4	-0,002
696,9	-0,002
697,3	-0,002
697,8	-0,002
698,2	-0,002
698,6	-0,002
699,1	-0,001
699,5	-0,001
699,9	-0,002
700,4	-0,001
700,8	-0,001
701,3	-0,002
701,7	-0,001
702,1	-0,002
702,6	-0,002
703	-0,001
703,5	-0,002
703,9	-0,002
704,3	-0,002
704,8	-0,002
705,2	-0,002
705,6	-0,001
706,1	-0,002
706,5	-0,002
707	-0,002
707,4	-0,002
707,8	-0,002
708,3	-0,002
708,7	-0,002
709,2	-0,002
709,6	-0,002
710	-0,001
710,5	-0,001
710,9	-0,001
711,3	-0,001
711,8	-0,001
712,2	-0,002
712,7	-0,002
713,1	-0,002
713,5	-0,002
714	-0,002
714,4	-0,002
714,8	-0,002
715,3	-0,002
715,7	-0,002
716,2	-0,002
716,6	-0,002
717	-0,002
717,5	-0,002
717,9	-0,002
718,3	-0,002
718,8	-0,002
719,2	-0,002
719,7	-0,002
720,1	-0,001
720,5	-0,002
721	-0,002
721,4	-0,002
721,8	-0,002
722,3	-0,002
722,7	-0,002
723,2	-0,002
723,6	-0,002
724	-0,002
724,5	-0,002
724,9	-0,002
725,3	-0,002
725,8	-0,002
726,2	-0,002
726,7	-0,002
727,1	-0,002
727,5	-0,002
728	-0,002
728,4	-0,003
728,8	-0,002
729,3	-0,002
729,7	-0,002
730,1	-0,002
730,6	-0,002
731	-0,002
731,5	-0,002
731,9	-0,002
732,3	-0,002
732,8	-0,002
733,2	-0,002
733,6	-0,002
734,1	-0,002
734,5	-0,002
734,9	-0,003
735,4	-0,002
735,8	-0,002
736,3	-0,002
736,7	-0,002
737,1	-0,002
737,6	-0,002
738	-0,002
738,4	-0,002
738,9	-0,002
739,3	-0,002
739,7	-0,002
740,2	-0,002
740,6	-0,001
741,1	-0,001
741,5	-0,002
741,9	-0,002
742,4	-0,001
742,8	-0,002
743,2	-0,002
743,7	-0,002
744,1	-0,002
744,5	-0,002
745	-0,002
745,4	-0,001
745,8	-0,001
746,3	-0,001
746,7	-0,001
747,2	-0,001
747,6	-0,001
748	-0,002
748,5	-0,002
748,9	-0,002
749,3	-0,002
749,8	-0,001
750,2	-0,001
750,6	-0,001
751,1	-0,001
751,5	-0,001
751,9	-0,001
752,4	-0,001
752,8	-0,002
753,3	-0,002
753,7	-0,002
754,1	-0,002
754,6	-0,002
755	-0,002
755,4	-0,002
755,9	-0,002
756,3	-0,002
756,7	-0,002
757,2	-0,002
757,6	-0,001
758	-0,002
758,5	-0,002
758,9	-0,002
759,3	-0,002
759,8	-0,002
760,2	-0,002
760,6	-0,003
761,1	-0,003
761,5	-0,003
761,9	-0,003
762,4	-0,003
762,8	-0,003
763,3	-0,003
763,7	-0,003
764,1	-0,002
764,6	-0,003
765	-0,003
765,4	-0,003
765,9	-0,003
766,3	-0,003
766,7	-0,003
767,2	-0,003
767,6	-0,003
768	-0,003
768,5	-0,003
768,9	-0,002
769,3	-0,002
769,8	-0,002
770,2	-0,002
770,6	-0,002
771,1	-0,002
771,5	-0,002
771,9	-0,002
772,4	-0,002
772,8	-0,002
773,2	-0,002
773,7	-0,002
774,1	-0,002
774,5	-0,002
775	-0,001
775,4	-0,001
775,8	-0,001
776,3	-0,001
776,7	-0,002
777,1	-0,001
777,6	-0,001
778	-0,002
778,4	-0,002
778,9	-0,002
779,3	-0,002
779,7	-0,001
780,2	-0,001
780,6	-0,001
781	-0,001
781,5	-0,001
781,9	-0,002
782,3	-0,002
782,8	-0,003
783,2	-0,003
783,6	-0,003
784,1	-0,003
784,5	-0,002
784,9	-0,002
785,4	-0,002
785,8	-0,001
786,2	-0,002
786,7	-0,001
787,1	-0,001
787,5	-0,002
788	-0,002
788,4	-0,002
788,8	-0,002
789,3	-0,002
789,7	-0,002
790,1	-0,001
790,6	-0,001
791	-0,001
791,4	-0,001
791,9	-0,001
792,3	-0,001
792,7	-0,001
793,2	-0,001
793,6	-0,001
794	-0,001
794,5	-0,002
794,9	-0,002
795,3	-0,002
795,8	-0,001
796,2	-0,001
796,6	-0,001
797,1	-0,001
797,5	-0,001
797,9	-0,001
798,4	-0,001
798,8	-0,001
799,2	-0,002
799,7	-0,002
800,1	-0,002
800,5	-0,002
801	-0,002
801,4	-0,002
801,8	-0,002
802,2	-0,002
802,7	-0,001
803,1	-0,001
803,5	-0,001
804	-0,001
804,4	-0,001
804,8	-0,001
805,3	-0,001
805,7	-0,002
806,1	-0,002
806,6	-0,002
807	-0,002
807,4	-0,002
807,9	-0,002
808,3	-0,002
808,7	-0,002
809,2	-0,002
809,6	-0,002
810	-0,002
810,4	-0,002
810,9	-0,002
811,3	-0,002
811,7	-0,002
812,2	-0,002
812,6	-0,002
813	-0,002
813,5	-0,002
813,9	-0,002
814,3	-0,002
814,8	-0,002
815,2	-0,002
815,6	-0,002
816,1	-0,002
816,5	-0,002
816,9	-0,002
817,3	-0,002
817,8	-0,003
818,2	-0,002
818,6	-0,003
819,1	-0,002
819,5	-0,002
819,9	-0,002
820,4	-0,002
820,8	-0,001
821,2	-0,002
821,7	-0,001
822,1	-0,001
822,5	-0,001
822,9	-0,001
823,4	-0,001
823,8	-0,002
824,2	-0,002
824,7	-0,002
825,1	-0,002
825,5	-0,002
826	-0,003
826,4	-0,003
826,8	-0,003
827,3	-0,003
827,7	-0,003
828,1	-0,003
828,5	-0,002
829	-0,003
829,4	-0,003
829,8	-0,003
830,3	-0,003
830,7	-0,003
831,1	-0,003
831,6	-0,003
832	-0,003
832,4	-0,003
832,8	-0,003
833,3	-0,003
833,7	-0,003
834,1	-0,003
834,6	-0,003
835	-0,002
835,4	-0,002
835,8	-0,002
836,3	-0,002
836,7	-0,002
837,1	-0,001
837,6	-0,001
838	-0,001
838,4	-0,001
838,9	-0,001
839,3	-0,001
839,7	-0,001
840,1	-0,001
840,6	-0,001
841	-0,001
841,4	-0,001
841,9	-0,002
842,3	-0,002
842,7	-0,001
843,1	-0,001
843,6	-0,001
844	-0,001
844,4	-0,001
844,9	-0,001
845,3	-0,001
845,7	-0,001
846,2	-0,002
846,6	-0,002
847	-0,002
847,4	-0,002
847,9	-0,003
848,3	-0,002
848,7	-0,002
849,2	-0,002
849,6	-0,002
850	-0,002
850,4	-0,002
850,9	-0,002
851,3	-0,002
851,7	-0,002
852,2	-0,003
852,6	-0,003
853	-0,003
853,4	-0,003
853,9	-0,002
854,3	-0,002
854,7	-0,002
855,2	-0,001
855,6	-0,002
856	-0,001
856,4	-0,001
856,9	-0,001
857,3	-0,002
857,7	-0,002
858,2	-0,002
858,6	-0,002
859	-0,002
859,4	-0,002
859,9	-0,002
860,3	-0,002
860,7	-0,002
861,1	-0,003
861,6	-0,002
862	-0,002
862,4	-0,002
862,9	-0,002
863,3	-0,002
863,7	-0,002
864,1	-0,002
864,6	-0,002
865	-0,002
865,4	-0,002
865,9	-0,002
866,3	-0,002
866,7	-0,002
867,1	-0,002
867,6	-0,002
868	-0,002
868,4	-0,002
868,8	-0,002
869,3	-0,002
869,7	-0,002
870,1	-0,001
870,6	-0,002
871	-0,002
871,4	-0,001
871,8	-0,002
872,3	-0,001
872,7	-0,001
873,1	-0,001
873,5	-0,001
874	-0,002
874,4	-0,001
874,8	-0,001
875,3	-0,002
875,7	-0,002
876,1	-0,001
876,5	-0,001
877	-0,001
877,4	-0,001
877,8	-0,001
878,2	-0,001
878,7	-0,001
879,1	-0,001
879,5	-0,002
879,9	-0,002
880,4	-0,002
880,8	-0,001
881,2	-0,002
881,7	-0,002
882,1	-0,001
882,5	-0,001
882,9	-0,001
883,4	-0,001
883,8	-0,002
884,2	-0,001
884,6	-0,002
885,1	-0,002
885,5	-0,002
885,9	-0,001
886,3	-0,001
886,8	-0,001
887,2	-0,001
887,6	-0,001
888	-0,001
888,5	-0,001
888,9	-0,002
889,3	-0,002
889,8	-0,002
890,2	-0,001
890,6	-0,002
891	-0,002
891,5	-0,001
891,9	-0,001
892,3	-0,001
892,7	-0,002
893,2	-0,001
893,6	-0,001
894	-0,001
894,4	-0,001
894,9	-0,001
895,3	-0,001
895,7	-0,001
896,1	-0,001
896,6	-0,001
897	-0,001
897,4	-0,001
897,8	-0,002
898,3	-0,002
898,7	-0,002
899,1	-0,002
899,5	-0,002
900	-0,002
900,4	-0,002
900,8	-0,002
901,2	-0,001
901,7	-0,001
902,1	-0,001
902,5	-0,001
902,9	-0,001
903,4	-0,001
903,8	-0,001
904,2	-0,002
904,6	-0,002
905,1	-0,002
905,5	-0,002
905,9	-0,002
906,3	-0,002
906,8	-0,002
907,2	-0,002
907,6	-0,001
908	-0,001
908,5	-0,001
908,9	-0,001
909,3	-0,001
909,7	-0,001
910,2	-0,001
910,6	-0,001
911	-0,001
911,4	-0,001
911,9	-0,001
912,3	-0,001
912,7	-0,001
913,1	-0,001
913,6	-0,001
914	-0,002
914,4	-0,002
914,8	-0,002
915,3	-0,003
915,7	-0,002
916,1	-0,002
916,5	-0,002
916,9	-0,002
917,4	-0,002
917,8	-0,002
918,2	-0,002
918,6	-0,002
919,1	-0,002
919,5	-0,002
919,9	-0,001
920,3	-0,001
920,8	-0,001
921,2	-0,002
921,6	-0,001
922	-0,001
922,5	-0,002
922,9	-0,002
923,3	-0,002
923,7	-0,003
924,2	-0,002
924,6	-0,002
925	-0,002
925,4	-0,002
925,8	-0,001
926,3	-0,001
926,7	-0,001
927,1	-0,001
927,5	-0,001
928	-0,001
928,4	-0,001
928,8	-0,001
929,2	-0
929,7	-0
930,1	-0
930,5	-0,001
930,9	-0
931,3	-0,001
931,8	-0,001
932,2	-0,001
932,6	-0,001
933	-0,001
933,5	-0
933,9	-0,001
934,3	-0,001
934,7	-0
935,2	-0
935,6	-0
936	-0,001
936,4	-0,001
936,8	-0,002
937,3	-0,002
937,7	-0,003
938,1	-0,003
938,5	-0,002
939	-0,003
939,4	-0,003
939,8	-0,003
940,2	-0,002
940,6	-0,003
941,1	-0,003
941,5	-0,003
941,9	-0,002
942,3	-0,002
942,8	-0,002
943,2	-0,002
943,6	-0,002
944	-0,002
944,4	-0,002
944,9	-0,002
945,3	-0,001
945,7	-0,001
946,1	-0,001
946,6	-0,001
947	-0,001
947,4	-0,001
947,8	-0,001
948,2	-0,002
948,7	-0,002
949,1	-0,002
949,5	-0,002
949,9	-0,002
950,3	-0,002
950,8	-0,002
951,2	-0,002
951,6	-0,001
952	-0,001
952,5	-0,001
952,9	-0,001
953,3	-0,001
953,7	-0,001
954,1	-0,002
954,6	-0,002
955	-0,002
955,4	-0,002
955,8	-0,002
956,2	-0,002
956,7	-0,002
957,1	-0,003
957,5	-0,003
957,9	-0,003
958,3	-0,003
958,8	-0,003
959,2	-0,002
959,6	-0,002
960	-0,001
960,5	-0,001
960,9	-0,001
961,3	-0,001
961,7	-0,001
962,1	-0,001
962,6	-0,001
963	-0,001
963,4	-0,001
963,8	-0
964,2	-0
964,7	-0
965,1	-0
965,5	-0,001
965,9	-0,001
966,3	-0
966,8	-0,001
967,2	-0
967,6	0
968	0,001
968,4	0,001
968,9	0
969,3	0
969,7	-0
970,1	-0
970,5	-0,001
971	-0,001
971,4	-0,001
971,8	-0,001
972,2	-0,002
972,6	-0,001
973,1	-0,001
973,5	-0,001
973,9	-0,001
974,3	-0,002
974,7	-0,002
975,2	-0,002
975,6	-0,003
976	-0,002
976,4	-0,002
976,8	-0,002
977,3	-0,002
977,7	-0,001
978,1	-0,001
978,5	-0,001
978,9	-0,001
979,4	-0,001
979,8	-0
980,2	-0
980,6	-0
981	-0
981,5	0
981,9	-0
982,3	-0
982,7	-0,001
983,1	-0,001
983,6	-0,001
984	-0,001
984,4	-0,002
984,8	-0,002
985,2	-0,002
985,6	-0,001
986,1	-0,001
986,5	-0,001
986,9	-0,001
987,3	-0,001
987,7	-0,001
988,2	-0,001
988,6	-0,001
989	-0,002
989,4	-0,002
989,8	-0,002
990,3	-0,001
990,7	-0,001
991,1	-0,001
991,5	-0,001
991,9	-0,002
992,3	-0,001
992,8	-0,001
993,2	-0,002
993,6	-0,002
994	-0,003
994,4	-0,002
994,9	-0,002
995,3	-0,003
995,7	-0,003
996,1	-0,002
996,5	-0,002
996,9	-0,002
997,4	-0,002
997,8	-0,002
998,2	-0,001
998,6	-0,001
999	-0,001
999,5	-0,001
999,9	-0,001
1000,3	-0,001
1000,7	-0,001
1001,1	-0,001
1001,5	-0,001
1002	-0,001
1002,4	-0,001
1002,8	-0,001
1003,2	-0,001
1003,6	-0,001
1004	-0,001
1004,5	-0,001
1004,9	-0,001
1005,3	-0,001
1005,7	-0,001
1006,1	-0,001
1006,6	-0,001
1007	0
1007,4	-0
1007,8	-0
1008,2	0
1008,6	0
1009,1	-0,001
1009,5	-0,001
1009,9	-0,002
1010,3	-0,002
1010,7	-0,002
1011,1	-0,003
1011,6	-0,002
1012	-0,002
1012,4	-0,002
1012,8	-0,001
1013,2	-0,001
1013,6	-0,001
1014,1	-0
1014,5	-0,001
1014,9	-0,001
1015,3	-0,001
1015,7	-0,001
1016,1	-0,001
1016,6	-0,002
1017	-0,001
1017,4	-0,001
1017,8	-0,001
1018,2	-0,001
1018,6	-0,001
1019,1	-0,001
1019,5	-0,001
1019,9	-0,001
1020,3	-0,001
1020,7	-0,001
1021,1	-0,001
1021,6	-0,001
1022	-0,002
1022,4	-0,002
1022,8	-0,002
1023,2	-0,002
1023,6	-0,002
1024,1	-0,001
1024,5	-0,001
1024,9	-0,001
1025,3	-0
1025,7	-0,001
1026,1	-0
1026,6	-0
1027	-0,001
1027,4	-0,001
1027,8	-0,001
1028,2	-0,002
1028,6	-0,003
1029	-0,003
1029,5	-0,003
1029,9	-0,003
1030,3	-0,002
1030,7	-0,002
1031,1	-0,002
1031,5	-0,001
1032	-0,001
1032,4	-0,001
1032,8	-0
1033,2	-0
1033,6	-0,001
1034	-0
1034,4	0
1034,9	0
1035,3	0,001
1035,7	0
1036,1	0
1036,5	-0
1036,9	0
1037,4	-0,001
1037,8	-0,001
1038,2	-0,002
1038,6	-0,001
1039	-0,001
1039,4	-0
1039,8	-0
1040,3	-0,001
1040,7	-0,001
1041,1	-0,001
1041,5	-0,001
1041,9	-0,001
1042,3	-0,001
1042,7	-0,002
1043,2	-0,001
1043,6	-0,001
1044	-0
1044,4	-0,001
1044,8	-0,002
1045,2	-0,002
1045,6	-0
1046,1	-0,001
1046,5	-0,002
1046,9	-0,002
1047,3	-0,002
1047,7	-0,002
1048,1	-0,002
1048,5	-0,002
1049	-0,002
1049,4	-0,001
1049,8	-0,001
1050,2	-0,002
1050,6	-0,001
1051	-0,001
1051,4	-0,001
1051,9	-0
1052,3	-0,001
1052,7	0
1053,1	-0
1053,5	-0,001
1053,9	0
1054,3	-0,001
1054,8	-0,001
1055,2	-0,001
1055,6	-0,002
1056	-0,001
1056,4	-0,002
1056,8	-0,002
1057,2	-0,002
1057,6	-0,002
1058,1	-0,001
1058,5	-0
1058,9	0
1059,3	0
1059,7	-0
1060,1	0
1060,5	-0
1061	-0,001
1061,4	-0,002
1061,8	-0,002
1062,2	-0,002
1062,6	-0,001
1063	-0,001
1063,4	-0
1063,8	-0
1064,3	-0
1064,7	-0,001
1065,1	0
1065,5	-0,001
1065,9	-0,001
1066,3	-0,001
1066,7	-0,002
1067,1	-0,001
1067,6	-0
1068	-0
1068,4	-0,001
1068,8	0,001
1069,2	-0
1069,6	0,001
1070	-0
1070,4	0,001
1070,9	0
1071,3	0
1071,7	0
1072,1	-0
1072,5	0,001
1072,9	0
1073,3	-0
1073,7	-0
1074,2	-0
1074,6	-0,001
1075	-0
1075,4	-0,002
1075,8	-0,001
1076,2	-0,001
1076,6	-0,001
1077	0
1077,5	0,001
1077,9	-0,001
1078,3	0,001
1078,7	-0,001
1079,1	0
1079,5	-0
1079,9	-0
1080,3	0
1080,7	0,002
1081,2	0,002
1081,6	0,003
1082	0,003
1082,4	0,003
1082,8	0,002
1083,2	0
1083,6	0,001
1084	0,001
1084,5	0,001
1084,9	0,001
1085,3	-0,001
1085,7	-0
1086,1	-0
1086,5	-0,002
1086,9	-0,002
1087,3	-0,004
1087,7	-0,004
1088,2	-0,002
1088,6	-0,001
1089	-0,002
1089,4	-0,002
1089,8	-0,002
1090,2	-0,001
1090,6	-0,002
1091	0
1091,4	-0
1091,9	-0
1092,3	-0,001
1092,7	-0,001
1093,1	-0,001
1093,5	0,003
1093,9	0,003
1094,3	0,004
1094,7	0,002
1095,1	0,003
1095,5	0,005
1096	0,002
1096,4	0,001
1096,8	-0,003
1097,2	-0,003
1097,6	0,002
1098	0,005
1098,4	0,009
1098,8	0,015
1099,2	0,01
1099,6	0,021
1100,1	0,022
1100,5	0,016
1100,9	0,016
1101,3	0,015
1101,7	0,019
1102,1	0,018
1102,5	0,009
1102,9	0,005
1103,3	0,016
1103,7	0,014
1104,2	0,008
1104,6	0,004
1105	0,014
1105,4	0,019
1105,8	0,021
1106,2	0,018
1106,6	0,028
1107	0,043
1107,4	0,056
1107,8	0,057
1108,3	0,098
