Data from Absorbance_00014.txt Node
Date: Wed Aug 02 17:41:54 MSK 2023
User: vat
Spectrometer: MAYP114033
Trigger mode: 0
Integration Time (sec): 8,000000E-3
Scans to average: 10
Electric dark correction enabled: true
Nonlinearity correction enabled: false
Boxcar width: 3
XAxis mode: Wavelengths
Number of Pixels in Spectrum: 2068
>>>>>Begin Spectral Data<<<<<
199,4	-0
199,9	0,012
200,4	0,337
200,8	0,643
201,3	0,796
201,8	0,887
202,2	0,91
202,7	0,933
203,2	0,98
203,6	1,01
204,1	1,041
204,6	1,04
205	1,048
205,5	1,048
206	1,064
206,4	1,086
206,9	1,102
207,4	1,11
207,8	1,131
208,3	1,146
208,8	1,16
209,2	1,167
209,7	1,188
210,2	1,207
210,6	1,221
211,1	1,217
211,5	1,238
212	1,261
212,5	1,296
212,9	1,3
213,4	1,293
213,9	1,299
214,3	1,352
214,8	1,335
215,3	1,349
215,7	1,34
216,2	1,352
216,7	1,39
217,1	1,423
217,6	1,429
218,1	1,472
218,5	1,496
219	1,518
219,5	1,534
219,9	1,529
220,4	1,536
220,9	1,553
221,3	1,572
221,8	1,593
222,3	1,627
222,7	1,62
223,2	1,652
223,6	1,67
224,1	1,698
224,6	1,707
225	1,721
225,5	1,71
226	1,74
226,4	1,732
226,9	1,737
227,4	1,72
227,8	1,733
228,3	1,732
228,8	1,762
229,2	1,761
229,7	1,782
230,2	1,802
230,6	1,823
231,1	1,826
231,5	1,843
232	1,838
232,5	1,865
232,9	1,859
233,4	1,844
233,9	1,864
234,3	1,89
234,8	1,879
235,3	1,891
235,7	1,907
236,2	1,922
236,7	1,951
237,1	1,946
237,6	1,947
238,1	1,968
238,5	1,968
239	1,966
239,4	1,996
239,9	2,017
240,4	2,034
240,8	2,038
241,3	2,046
241,8	2,058
242,2	2,049
242,7	2,048
243,2	2,047
243,6	2,051
244,1	2,048
244,6	2,049
245	2,076
245,5	2,112
245,9	2,111
246,4	2,119
246,9	2,127
247,3	2,131
247,8	2,132
248,3	2,116
248,7	2,113
249,2	2,11
249,7	2,1
250,1	2,111
250,6	2,134
251	2,146
251,5	2,152
252	2,133
252,4	2,134
252,9	2,134
253,4	2,119
253,8	2,101
254,3	2,1
254,8	2,106
255,2	2,103
255,7	2,113
256,1	2,108
256,6	2,11
257,1	2,122
257,5	2,129
258	2,122
258,5	2,128
258,9	2,132
259,4	2,157
259,9	2,161
260,3	2,139
260,8	2,124
261,2	2,139
261,7	2,15
262,2	2,149
262,6	2,127
263,1	2,121
263,6	2,123
264	2,141
264,5	2,147
264,9	2,146
265,4	2,15
265,9	2,173
266,3	2,167
266,8	2,187
267,3	2,181
267,7	2,149
268,2	2,151
268,7	2,143
269,1	2,107
269,6	2,109
270	2,092
270,5	2,082
271	2,085
271,4	2,064
271,9	2,043
272,4	2,052
272,8	2,056
273,3	2,046
273,7	2,045
274,2	2,04
274,7	2,039
275,1	2,033
275,6	2,007
276,1	1,981
276,5	1,959
277	1,921
277,4	1,878
277,9	1,837
278,4	1,796
278,8	1,747
279,3	1,693
279,8	1,634
280,2	1,57
280,7	1,502
281,1	1,429
281,6	1,365
282,1	1,295
282,5	1,228
283	1,162
283,4	1,099
283,9	1,041
284,4	0,991
284,8	0,938
285,3	0,893
285,8	0,851
286,2	0,816
286,7	0,785
287,1	0,757
287,6	0,732
288,1	0,712
288,5	0,695
289	0,681
289,5	0,667
289,9	0,656
290,4	0,647
290,8	0,638
291,3	0,631
291,8	0,625
292,2	0,619
292,7	0,615
293,1	0,611
293,6	0,608
294,1	0,606
294,5	0,604
295	0,602
295,5	0,599
295,9	0,596
296,4	0,593
296,8	0,591
297,3	0,587
297,8	0,586
298,2	0,583
298,7	0,581
299,1	0,578
299,6	0,577
300,1	0,576
300,5	0,574
301	0,571
301,5	0,568
301,9	0,567
302,4	0,564
302,8	0,561
303,3	0,558
303,8	0,555
304,2	0,553
304,7	0,551
305,1	0,548
305,6	0,546
306,1	0,542
306,5	0,539
307	0,537
307,4	0,532
307,9	0,529
308,4	0,525
308,8	0,52
309,3	0,517
309,8	0,513
310,2	0,509
310,7	0,507
311,1	0,503
311,6	0,5
312,1	0,496
312,5	0,493
313	0,489
313,4	0,485
313,9	0,48
314,4	0,475
314,8	0,471
315,3	0,466
315,7	0,46
316,2	0,456
316,7	0,451
317,1	0,447
317,6	0,443
318	0,438
318,5	0,433
319	0,429
319,4	0,425
319,9	0,42
320,3	0,414
320,8	0,408
321,3	0,403
321,7	0,398
322,2	0,393
322,6	0,387
323,1	0,383
323,6	0,378
324	0,374
324,5	0,37
324,9	0,365
325,4	0,361
325,9	0,356
326,3	0,35
326,8	0,346
327,2	0,341
327,7	0,336
328,2	0,331
328,6	0,327
329,1	0,322
329,5	0,317
330	0,311
330,5	0,306
330,9	0,301
331,4	0,296
331,8	0,292
332,3	0,288
332,8	0,283
333,2	0,28
333,7	0,276
334,1	0,273
334,6	0,269
335,1	0,266
335,5	0,261
336	0,257
336,4	0,253
336,9	0,25
337,4	0,246
337,8	0,242
338,3	0,239
338,7	0,235
339,2	0,232
339,7	0,228
340,1	0,224
340,6	0,22
341	0,216
341,5	0,212
342	0,209
342,4	0,205
342,9	0,202
343,3	0,198
343,8	0,195
344,2	0,193
344,7	0,19
345,2	0,187
345,6	0,184
346,1	0,179
346,5	0,177
347	0,174
347,5	0,17
347,9	0,167
348,4	0,165
348,8	0,163
349,3	0,16
349,8	0,157
350,2	0,155
350,7	0,153
351,1	0,15
351,6	0,147
352	0,144
352,5	0,142
353	0,139
353,4	0,137
353,9	0,134
354,3	0,133
354,8	0,132
355,3	0,13
355,7	0,128
356,2	0,127
356,6	0,125
357,1	0,123
357,5	0,12
358	0,117
358,5	0,115
358,9	0,114
359,4	0,112
359,8	0,11
360,3	0,107
360,8	0,106
361,2	0,105
361,7	0,103
362,1	0,101
362,6	0,099
363	0,098
363,5	0,096
364	0,094
364,4	0,091
364,9	0,091
365,3	0,089
365,8	0,088
366,3	0,086
366,7	0,086
367,2	0,086
367,6	0,085
368,1	0,084
368,5	0,083
369	0,082
369,5	0,081
369,9	0,079
370,4	0,078
370,8	0,076
371,3	0,075
371,7	0,074
372,2	0,072
372,7	0,071
373,1	0,069
373,6	0,068
374	0,067
374,5	0,066
374,9	0,064
375,4	0,064
375,9	0,063
376,3	0,062
376,8	0,06
377,2	0,06
377,7	0,059
378,2	0,058
378,6	0,057
379,1	0,056
379,5	0,056
380	0,055
380,4	0,054
380,9	0,053
381,4	0,052
381,8	0,051
382,3	0,051
382,7	0,049
383,2	0,049
383,6	0,049
384,1	0,049
384,6	0,048
385	0,047
385,5	0,047
385,9	0,046
386,4	0,045
386,8	0,044
387,3	0,043
387,7	0,043
388,2	0,042
388,7	0,043
389,1	0,042
389,6	0,042
390	0,041
390,5	0,04
390,9	0,04
391,4	0,039
391,9	0,037
392,3	0,037
392,8	0,037
393,2	0,036
393,7	0,036
394,1	0,036
394,6	0,035
395,1	0,034
395,5	0,034
396	0,035
396,4	0,035
396,9	0,034
397,3	0,034
397,8	0,034
398,2	0,033
398,7	0,033
399,2	0,032
399,6	0,032
400,1	0,032
400,5	0,031
401	0,029
401,4	0,029
401,9	0,028
402,4	0,028
402,8	0,027
403,3	0,026
403,7	0,026
404,2	0,026
404,6	0,026
405,1	0,025
405,5	0,025
406	0,025
406,5	0,024
406,9	0,024
407,4	0,024
407,8	0,024
408,3	0,023
408,7	0,022
409,2	0,022
409,6	0,022
410,1	0,022
410,6	0,022
411	0,021
411,5	0,021
411,9	0,021
412,4	0,021
412,8	0,021
413,3	0,02
413,7	0,02
414,2	0,019
414,7	0,019
415,1	0,019
415,6	0,019
416	0,018
416,5	0,018
416,9	0,017
417,4	0,017
417,8	0,017
418,3	0,016
418,8	0,016
419,2	0,016
419,7	0,016
420,1	0,016
420,6	0,015
421	0,015
421,5	0,015
421,9	0,014
422,4	0,014
422,8	0,014
423,3	0,014
423,8	0,013
424,2	0,013
424,7	0,013
425,1	0,012
425,6	0,013
426	0,012
426,5	0,012
426,9	0,011
427,4	0,011
427,9	0,011
428,3	0,011
428,8	0,01
429,2	0,01
429,7	0,01
430,1	0,01
430,6	0,01
431	0,01
431,5	0,01
431,9	0,01
432,4	0,01
432,8	0,01
433,3	0,009
433,8	0,009
434,2	0,009
434,7	0,009
435,1	0,009
435,6	0,009
436	0,008
436,5	0,008
436,9	0,008
437,4	0,009
437,8	0,008
438,3	0,007
438,8	0,008
439,2	0,007
439,7	0,007
440,1	0,006
440,6	0,006
441	0,007
441,5	0,007
441,9	0,007
442,4	0,006
442,8	0,006
443,3	0,006
443,7	0,006
444,2	0,005
444,7	0,005
445,1	0,004
445,6	0,005
446	0,004
446,5	0,004
446,9	0,004
447,4	0,003
447,8	0,003
448,3	0,003
448,7	0,003
449,2	0,003
449,6	0,003
450,1	0,004
450,6	0,004
451	0,004
451,5	0,004
451,9	0,004
452,4	0,004
452,8	0,004
453,3	0,003
453,7	0,002
454,2	0,002
454,6	0,002
455,1	0,003
455,5	0,003
456	0,003
456,4	0,003
456,9	0,003
457,3	0,004
457,8	0,003
458,3	0,003
458,7	0,003
459,2	0,003
459,6	0,003
460,1	0,003
460,5	0,002
461	0,002
461,4	0,002
461,9	0,002
462,3	0,002
462,8	0,002
463,2	0,002
463,7	0,002
464,1	0,002
464,6	0,002
465	0,002
465,5	0,003
466	0,003
466,4	0,002
466,9	0,002
467,3	0,002
467,8	0,002
468,2	0,001
468,7	0,001
469,1	0,001
469,6	0,001
470	-0
470,5	0
470,9	0
471,4	0,001
471,8	0,001
472,3	0
472,7	0
473,2	0
473,6	0
474,1	0,001
474,5	0,001
475	0,001
475,4	0,001
475,9	0,001
476,4	0
476,8	0,001
477,3	0,001
477,7	0
478,2	0,001
478,6	0,001
479,1	0,001
479,5	0,001
480	0,001
480,4	0,001
480,9	0,001
481,3	0
481,8	0
482,2	0
482,7	0
483,1	-0
483,6	-0,001
484	-0,001
484,5	-0,001
484,9	-0,002
485,4	-0,002
485,8	-0,002
486,3	-0,002
486,7	-0,002
487,2	-0,002
487,6	-0,002
488,1	-0,002
488,5	-0,002
489	-0,001
489,4	-0,001
489,9	-0,001
490,4	-0,001
490,8	-0,001
491,3	-0,001
491,7	-0,001
492,2	-0
492,6	-0,001
493,1	-0,001
493,5	-0,001
494	-0,001
494,4	-0,001
494,9	-0,001
495,3	-0,001
495,8	-0
496,2	-0
496,7	0
497,1	-0
497,6	-0
498	-0
498,5	-0
498,9	-0,001
499,4	-0,001
499,8	-0,002
500,3	-0,002
500,7	-0,001
501,2	-0,001
501,6	-0,001
502,1	-0,001
502,5	-0,001
503	-0
503,4	0
503,9	-0,001
504,3	-0,001
504,8	-0,001
505,2	-0,001
505,7	-0,001
506,1	-0,001
506,6	-0,002
507	-0,002
507,5	-0,001
507,9	-0,002
508,4	-0,001
508,8	-0,001
509,3	-0,002
509,7	-0,001
510,2	-0,002
510,6	-0,002
511,1	-0,002
511,5	-0,002
512	-0,002
512,4	-0,002
512,9	-0,002
513,3	-0,001
513,8	-0,001
514,2	-0,001
514,7	-0,001
515,1	-0,001
515,6	-0,001
516	-0,001
516,5	-0,001
516,9	-0,001
517,4	-0,001
517,8	-0,001
518,3	-0
518,7	-0,001
519,2	-0
519,6	-0,001
520,1	0
520,5	-0
521	-0
521,4	-0,001
521,9	-0,001
522,3	-0,001
522,8	-0
523,2	-0,001
523,7	-0,001
524,1	-0,001
524,6	-0,001
525	-0,001
525,5	-0,001
525,9	-0,001
526,4	-0,001
526,8	-0,001
527,3	-0,002
527,7	-0,001
528,2	-0,001
528,6	-0,001
529,1	-0,001
529,5	-0
530	-0
530,4	0
530,9	-0
531,3	-0,001
531,8	-0
532,2	-0
532,6	-0,001
533,1	-0,001
533,5	-0,001
534	-0,002
534,4	-0,001
534,9	-0,002
535,3	-0,002
535,8	-0,002
536,2	-0,001
536,7	-0,002
537,1	-0,001
537,6	-0,002
538	-0,002
538,5	-0,001
538,9	-0,001
539,4	-0,002
539,8	-0,002
540,3	-0,001
540,7	-0,001
541,2	-0,002
541,6	-0,001
542,1	-0,002
542,5	-0,002
543	-0,002
543,4	-0,002
543,9	-0,001
544,3	-0,001
544,8	-0,002
545,2	-0,001
545,7	-0,001
546,1	-0,001
546,5	-0,001
547	-0,002
547,4	-0,002
547,9	-0,002
548,3	-0,002
548,8	-0,002
549,2	-0,002
549,7	-0,002
550,1	-0,002
550,6	-0,001
551	-0,001
551,5	-0,001
551,9	-0,001
552,4	-0,001
552,8	-0,001
553,3	-0,002
553,7	-0,003
554,2	-0,002
554,6	-0,002
555,1	-0,002
555,5	-0,002
555,9	-0,002
556,4	-0,002
556,8	-0,002
557,3	-0,002
557,7	-0,002
558,2	-0,002
558,6	-0,002
559,1	-0,002
559,5	-0,001
560	-0,001
560,4	-0,001
560,9	-0,001
561,3	-0
561,8	-0,001
562,2	-0
562,7	-0
563,1	-0
563,6	-0
564	-0
564,4	-0
564,9	-0
565,3	-0
565,8	-0,001
566,2	-0,001
566,7	-0,001
567,1	-0,001
567,6	-0,001
568	-0,001
568,5	-0,001
568,9	-0,001
569,4	-0,001
569,8	-0,001
570,3	-0,001
570,7	-0,001
571,1	-0,001
571,6	-0,001
572	-0,001
572,5	-0,001
572,9	-0,001
573,4	-0,001
573,8	-0,001
574,3	-0,001
574,7	-0,001
575,2	-0,001
575,6	-0,001
576,1	-0,001
576,5	-0,001
576,9	-0,001
577,4	-0,001
577,8	-0,001
578,3	-0,001
578,7	-0,001
579,2	-0,001
579,6	-0,001
580,1	-0,001
580,5	-0,001
581	-0,001
581,4	-0,001
581,9	-0,001
582,3	-0,001
582,7	-0,001
583,2	-0,001
583,6	-0,001
584,1	-0,001
584,5	-0,001
585	-0,001
585,4	-0,001
585,9	-0,002
586,3	-0,002
586,8	-0,001
587,2	-0,001
587,6	-0,001
588,1	-0,001
588,5	-0,001
589	-0,001
589,4	-0,001
589,9	-0,001
590,3	-0,001
590,8	-0,001
591,2	-0,001
591,7	-0,001
592,1	-0,001
592,5	-0,001
593	-0,001
593,4	-0,001
593,9	-0,001
594,3	-0,001
594,8	-0,001
595,2	-0,001
595,7	-0,001
596,1	-0,001
596,6	-0,001
597	-0,001
597,4	-0,001
597,9	-0,001
598,3	-0,001
598,8	-0,001
599,2	-0,001
599,7	-0,001
600,1	-0,001
600,6	-0,001
601	-0,001
601,4	-0,001
601,9	-0,001
602,3	-0,001
602,8	-0,001
603,2	-0,002
603,7	-0,002
604,1	-0,002
604,6	-0,001
605	-0,002
605,4	-0,001
605,9	-0,001
606,3	-0,001
606,8	-0,001
607,2	-0,001
607,7	-0
608,1	0
608,6	0
609	0
609,4	0
609,9	0
610,3	-0
610,8	-0,001
611,2	-0,001
611,7	-0,001
612,1	-0,001
612,6	-0,001
613	-0
613,4	-0
613,9	-0
614,3	-0
614,8	0
615,2	-0
615,7	-0,001
616,1	-0,001
616,6	-0,001
617	-0,001
617,4	-0,001
617,9	-0,001
618,3	-0,001
618,8	-0,001
619,2	-0,001
619,7	-0,002
620,1	-0,001
620,5	-0,002
621	-0,002
621,4	-0,002
621,9	-0,002
622,3	-0,002
622,8	-0,001
623,2	-0,001
623,6	-0,001
624,1	-0,001
624,5	-0,001
625	-0,001
625,4	-0,001
625,9	-0,001
626,3	-0,001
626,8	-0,001
627,2	-0,001
627,6	-0,001
628,1	-0,001
628,5	-0,001
629	-0,001
629,4	-0,001
629,9	-0,001
630,3	-0,001
630,7	-0,001
631,2	-0,001
631,6	-0
632,1	-0
632,5	-0,001
633	-0
633,4	-0,001
633,8	-0,001
634,3	-0,001
634,7	-0,001
635,2	-0,001
635,6	-0,001
636,1	-0,001
636,5	-0,001
636,9	-0
637,4	-0,001
637,8	-0,001
638,3	-0,001
638,7	-0
639,2	-0
639,6	-0,001
640	-0,001
640,5	-0,001
640,9	-0,001
641,4	-0,001
641,8	-0,001
642,2	-0,001
642,7	-0,001
643,1	-0,001
643,6	-0,001
644	-0,001
644,5	-0,001
644,9	-0,001
645,3	-0,001
645,8	-0,002
646,2	-0,002
646,7	-0,002
647,1	-0,002
647,6	-0,002
648	-0,002
648,4	-0,002
648,9	-0,001
649,3	-0
649,8	-0
650,2	-0
650,6	-0
651,1	-0
651,5	-0
652	-0
652,4	-0
652,9	-0
653,3	-0,001
653,7	-0,001
654,2	-0,001
654,6	-0,001
655,1	-0,002
655,5	-0,001
655,9	-0,001
656,4	-0,001
656,8	-0
657,3	0
657,7	0
658,2	0,001
658,6	0,001
659	0,001
659,5	0,001
659,9	0,001
660,4	-0
660,8	-0
661,2	-0
661,7	-0
662,1	-0
662,6	-0
663	-0
663,4	-0
663,9	-0
664,3	-0
664,8	-0
665,2	-0
665,6	-0
666,1	-0,001
666,5	-0,001
667	-0,001
667,4	-0,001
667,9	-0,001
668,3	-0,001
668,7	-0,001
669,2	-0,001
669,6	-0,001
670,1	-0,001
670,5	-0,001
670,9	-0,001
671,4	-0,001
671,8	-0,001
672,3	-0,001
672,7	-0,001
673,1	-0,001
673,6	-0,001
674	-0,002
674,5	-0,001
674,9	-0,002
675,3	-0,001
675,8	-0,001
676,2	-0,001
676,7	-0,001
677,1	-0,001
677,5	-0,001
678	-0,001
678,4	-0,001
678,9	-0,001
679,3	-0,001
679,7	-0,001
680,2	-0,001
680,6	-0,001
681,1	-0,001
681,5	-0,001
681,9	-0,001
682,4	-0,001
682,8	-0,001
683,3	-0,001
683,7	-0,001
684,1	-0,001
684,6	-0,001
685	-0,001
685,5	-0,001
685,9	-0,001
686,3	-0,001
686,8	-0,001
687,2	-0,001
687,7	-0,001
688,1	-0,001
688,5	-0,001
689	-0,001
689,4	-0,002
689,9	-0,002
690,3	-0,002
690,7	-0,002
691,2	-0,002
691,6	-0,002
692	-0,002
692,5	-0,001
692,9	-0,001
693,4	-0,001
693,8	-0
694,2	0
694,7	0
695,1	0
695,6	-0
696	-0
696,4	-0
696,9	-0
697,3	-0,001
697,8	-0,001
698,2	-0,001
698,6	-0,001
699,1	-0
699,5	-0
699,9	-0,001
700,4	-0
700,8	-0
701,3	-0,001
701,7	-0
702,1	-0,001
702,6	-0,001
703	-0,001
703,5	-0,001
703,9	-0,001
704,3	-0,001
704,8	-0,001
705,2	-0,001
705,6	-0,001
706,1	-0,001
706,5	-0,001
707	-0,001
707,4	-0,001
707,8	-0,001
708,3	-0,001
708,7	-0,001
709,2	-0,001
709,6	-0,001
710	-0,001
710,5	-0,001
710,9	-0,001
711,3	-0,001
711,8	-0,001
712,2	-0,001
712,7	-0,001
713,1	-0,001
713,5	-0,001
714	-0,002
714,4	-0,002
714,8	-0,002
715,3	-0,001
715,7	-0,002
716,2	-0,001
716,6	-0,001
717	-0,001
717,5	-0,001
717,9	-0,001
718,3	-0,001
718,8	-0,001
719,2	-0,001
719,7	-0
720,1	0
720,5	-0
721	-0
721,4	-0
721,8	-0
722,3	-0
722,7	-0,001
723,2	-0,001
723,6	-0,001
724	-0,001
724,5	-0,001
724,9	-0,001
725,3	-0,001
725,8	-0,001
726,2	-0,001
726,7	-0,001
727,1	-0,001
727,5	-0,002
728	-0,002
728,4	-0,002
728,8	-0,001
729,3	-0,001
729,7	-0,001
730,1	-0,001
730,6	-0,001
731	-0,001
731,5	-0,001
731,9	-0,001
732,3	-0,001
732,8	-0,001
733,2	-0,001
733,6	-0,002
734,1	-0,002
734,5	-0,002
734,9	-0,002
735,4	-0,002
735,8	-0,001
736,3	-0,001
736,7	-0,001
737,1	-0,001
737,6	-0,001
738	-0,001
738,4	-0,001
738,9	-0,001
739,3	-0,001
739,7	-0,001
740,2	-0,001
740,6	-0,001
741,1	-0,001
741,5	-0,001
741,9	-0,001
742,4	-0,001
742,8	-0
743,2	-0,001
743,7	-0,001
744,1	-0
744,5	-0
745	-0
745,4	0
745,8	0
746,3	0
746,7	0
747,2	-0
747,6	-0
748	-0
748,5	-0
748,9	-0,001
749,3	-0,001
749,8	-0,001
750,2	-0,001
750,6	-0
751,1	-0
751,5	-0,001
751,9	-0
752,4	-0,001
752,8	-0,001
753,3	-0,001
753,7	-0,001
754,1	-0,001
754,6	-0,001
755	-0,001
755,4	-0,001
755,9	-0
756,3	-0
756,7	-0
757,2	-0
757,6	-0
758	-0
758,5	-0,001
758,9	-0,001
759,3	-0,001
759,8	-0,001
760,2	-0,001
760,6	-0,001
761,1	-0,001
761,5	-0,001
761,9	-0,001
762,4	-0,001
762,8	-0,002
763,3	-0,002
763,7	-0,002
764,1	-0,002
764,6	-0,002
765	-0,002
765,4	-0,001
765,9	-0,001
766,3	-0,001
766,7	-0,001
767,2	-0,001
767,6	-0,001
768	-0,001
768,5	-0,001
768,9	-0,001
769,3	-0
769,8	-0
770,2	-0,001
770,6	-0,001
771,1	-0,001
771,5	-0,001
771,9	-0,001
772,4	-0,001
772,8	-0,001
773,2	-0,001
773,7	-0,001
774,1	-0,001
774,5	-0,001
775	-0
775,4	-0
775,8	-0
776,3	-0
776,7	-0
777,1	0
777,6	-0
778	-0
778,4	-0
778,9	-0
779,3	-0
779,7	0
780,2	-0
780,6	0
781	-0
781,5	-0
781,9	-0
782,3	-0,001
782,8	-0,001
783,2	-0,001
783,6	-0,001
784,1	-0,001
784,5	-0,001
784,9	-0,001
785,4	-0
785,8	-0
786,2	-0
786,7	-0,001
787,1	-0,001
787,5	-0,001
788	-0,001
788,4	-0,001
788,8	-0,001
789,3	-0,001
789,7	-0,001
790,1	-0,001
790,6	-0,001
791	-0,001
791,4	-0,001
791,9	-0
792,3	-0
792,7	-0
793,2	-0
793,6	0
794	-0
794,5	0
794,9	-0
795,3	-0
795,8	-0,001
796,2	-0,001
796,6	-0,001
797,1	-0,001
797,5	-0,001
797,9	-0,001
798,4	-0,001
798,8	-0,001
799,2	-0,001
799,7	-0,001
800,1	-0,001
800,5	-0,001
801	-0,001
801,4	-0,001
801,8	-0,001
802,2	-0,001
802,7	-0,001
803,1	-0,001
803,5	-0,001
804	-0,001
804,4	-0
804,8	-0
805,3	-0,001
805,7	-0,001
806,1	-0,001
806,6	-0,001
807	-0,001
807,4	-0,001
807,9	-0,001
808,3	-0,001
808,7	-0,001
809,2	-0,001
809,6	-0,001
810	-0,001
810,4	-0,001
810,9	-0,001
811,3	-0,001
811,7	-0,001
812,2	-0
812,6	-0,001
813	-0
813,5	-0
813,9	-0
814,3	-0
814,8	-0
815,2	-0
815,6	-0
816,1	-0,001
816,5	-0
816,9	-0
817,3	-0,001
817,8	-0,001
818,2	-0,001
818,6	-0,001
819,1	-0,001
819,5	-0,002
819,9	-0,001
820,4	-0,002
820,8	-0,001
821,2	-0,001
821,7	-0,001
822,1	-0,001
822,5	-0
822,9	-0
823,4	-0
823,8	-0,001
824,2	-0
824,7	-0
825,1	-0
825,5	-0,001
826	-0,001
826,4	-0,001
826,8	-0,001
827,3	-0,001
827,7	-0,001
828,1	-0,001
828,5	-0,001
829	-0,002
829,4	-0,002
829,8	-0,002
830,3	-0,002
830,7	-0,002
831,1	-0,002
831,6	-0,002
832	-0,002
832,4	-0,002
832,8	-0,002
833,3	-0,002
833,7	-0,001
834,1	-0,001
834,6	-0,001
835	-0
835,4	-0
835,8	0
836,3	-0
836,7	-0,001
837,1	-0
837,6	-0
838	-0
838,4	-0,001
838,9	-0
839,3	0
839,7	0,001
840,1	0,001
840,6	0
841	-0
841,4	0
841,9	-0
842,3	-0
842,7	-0
843,1	-0
843,6	0
844	0,001
844,4	0
844,9	0
845,3	-0
845,7	-0
846,2	-0
846,6	-0,001
847	-0,001
847,4	-0,001
847,9	-0,002
848,3	-0,001
848,7	-0,002
849,2	-0,002
849,6	-0,001
850	-0,001
850,4	-0,001
850,9	-0,001
851,3	-0,001
851,7	-0,001
852,2	-0,001
852,6	-0,001
853	-0,001
853,4	-0,001
853,9	-0,001
854,3	-0,001
854,7	-0,001
855,2	-0,001
855,6	-0,001
856	-0,001
856,4	-0,001
856,9	-0
857,3	-0,001
857,7	-0,001
858,2	-0,001
858,6	-0,001
859	-0,001
859,4	-0,001
859,9	-0,001
860,3	-0,001
860,7	-0,001
861,1	-0,001
861,6	-0,001
862	-0,001
862,4	-0,001
862,9	-0,001
863,3	-0,001
863,7	-0,001
864,1	-0,001
864,6	-0
865	0
865,4	0
865,9	0
866,3	0
866,7	0
867,1	0
867,6	0
868	-0
868,4	-0,001
868,8	-0
869,3	-0
869,7	0
870,1	0
870,6	0
871	0
871,4	0,001
871,8	0
872,3	0,001
872,7	0
873,1	0
873,5	0
874	-0
874,4	-0
874,8	-0,001
875,3	-0,001
875,7	-0,001
876,1	-0,001
876,5	-0
877	0
877,4	0
877,8	0
878,2	0,001
878,7	0,001
879,1	0,001
879,5	0,001
879,9	0
880,4	0
880,8	0
881,2	-0
881,7	-0
882,1	-0
882,5	-0
882,9	-0
883,4	-0
883,8	-0
884,2	-0
884,6	-0
885,1	-0
885,5	-0,001
885,9	-0,001
886,3	-0
886,8	-0
887,2	-0,001
887,6	-0
888	-0,001
888,5	-0
888,9	-0
889,3	-0
889,8	0
890,2	0
890,6	0
891	0
891,5	0
891,9	0
892,3	0
892,7	-0,001
893,2	-0
893,6	-0
894	-0
894,4	-0
894,9	-0,001
895,3	-0,001
895,7	-0
896,1	-0
896,6	-0,001
897	-0
897,4	-0
897,8	-0
898,3	-0,001
898,7	-0,001
899,1	-0,001
899,5	-0,001
900	-0,001
900,4	-0,001
900,8	-0,001
901,2	-0
901,7	-0
902,1	-0
902,5	-0
902,9	-0
903,4	-0
903,8	-0
904,2	-0
904,6	-0
905,1	-0,001
905,5	-0,001
905,9	-0
906,3	-0
906,8	-0
907,2	-0
907,6	0
908	0
908,5	0
908,9	0
909,3	0
909,7	0
910,2	-0
910,6	-0
911	0
911,4	0
911,9	0
912,3	0
912,7	-0
913,1	-0
913,6	-0
914	-0,001
914,4	-0
914,8	-0,001
915,3	-0,001
915,7	-0,001
916,1	-0,001
916,5	-0,001
916,9	-0,001
917,4	-0,001
917,8	-0,001
918,2	-0,001
918,6	-0,001
919,1	-0,001
919,5	-0,001
919,9	-0
920,3	-0
920,8	-0
921,2	-0
921,6	0
922	0,001
922,5	0,001
922,9	0
923,3	0
923,7	0
924,2	-0
924,6	-0
925	0
925,4	0,001
925,8	0,001
926,3	0
926,7	0,001
927,1	0,001
927,5	0,001
928	0,001
928,4	0
928,8	-0
929,2	0
929,7	0
930,1	-0
930,5	-0
930,9	0
931,3	0
931,8	0
932,2	0
932,6	0
933	0,001
933,5	0,001
933,9	0,001
934,3	0
934,7	0,001
935,2	0
935,6	-0
936	-0
936,4	-0,001
936,8	-0,001
937,3	-0,001
937,7	-0,001
938,1	-0,001
938,5	-0,001
939	-0,002
939,4	-0,002
939,8	-0,002
940,2	-0,002
940,6	-0,002
941,1	-0,002
941,5	-0,002
941,9	-0,002
942,3	-0,002
942,8	-0,001
943,2	-0,002
943,6	-0,001
944	-0,001
944,4	-0,001
944,9	-0
945,3	-0
945,7	-0,001
946,1	-0
946,6	-0,001
947	-0,001
947,4	-0,001
947,8	-0,002
948,2	-0,002
948,7	-0,002
949,1	-0,002
949,5	-0,002
949,9	-0,002
950,3	-0,001
950,8	-0,001
951,2	-0,001
951,6	-0,001
952	-0
952,5	-0
952,9	-0
953,3	-0,001
953,7	-0,001
954,1	-0,001
954,6	-0,002
955	-0,002
955,4	-0,001
955,8	-0,001
956,2	-0,001
956,7	-0,001
957,1	-0,002
957,5	-0,001
957,9	-0,001
958,3	-0,001
958,8	-0,001
959,2	-0,001
959,6	-0
960	0
960,5	-0
960,9	-0
961,3	-0
961,7	-0,001
962,1	-0,001
962,6	-0,001
963	-0,001
963,4	-0,001
963,8	-0,001
964,2	-0,001
964,7	-0,001
965,1	-0,001
965,5	-0,001
965,9	-0,001
966,3	-0,001
966,8	-0,001
967,2	-0,001
967,6	-0
968	-0
968,4	-0
968,9	-0
969,3	-0
969,7	-0
970,1	-0
970,5	-0
971	-0,001
971,4	-0
971,8	-0
972,2	-0,001
972,6	-0,001
973,1	-0,001
973,5	-0,001
973,9	-0,001
974,3	-0,002
974,7	-0,001
975,2	-0,001
975,6	-0,002
976	-0,002
976,4	-0,001
976,8	-0,001
977,3	-0
977,7	0
978,1	0
978,5	0,001
978,9	0
979,4	0
979,8	0,001
980,2	-0
980,6	-0
981	-0
981,5	0
981,9	0,001
982,3	0
982,7	-0,001
983,1	-0
983,6	0
984	-0
984,4	-0
984,8	-0,001
985,2	-0,001
985,6	-0
986,1	-0,001
986,5	-0,001
986,9	-0,001
987,3	-0,001
987,7	-0,001
988,2	-0,001
988,6	-0,001
989	-0
989,4	-0
989,8	-0
990,3	0
990,7	0
991,1	0
991,5	0
991,9	-0
992,3	-0
992,8	-0,001
993,2	-0,001
993,6	-0,001
994	-0,002
994,4	-0,001
994,9	-0,001
995,3	-0,002
995,7	-0,001
996,1	-0,001
996,5	-0,001
996,9	-0,001
997,4	-0,002
997,8	-0,001
998,2	-0
998,6	-0,001
999	-0,001
999,5	-0,001
999,9	-0
1000,3	-0
1000,7	-0
1001,1	-0,001
1001,5	-0
1002	-0
1002,4	0
1002,8	0
1003,2	0
1003,6	0
1004	0
1004,5	0
1004,9	0
1005,3	0
1005,7	-0
1006,1	-0
1006,6	0
1007	0
1007,4	0,001
1007,8	0
1008,2	0
1008,6	0
1009,1	0
1009,5	0
1009,9	0
1010,3	-0
1010,7	0
1011,1	-0
1011,6	0
1012	0
1012,4	0
1012,8	0,001
1013,2	0,001
1013,6	0,001
1014,1	0,001
1014,5	0,001
1014,9	0
1015,3	-0
1015,7	-0,001
1016,1	-0
1016,6	-0,001
1017	-0
1017,4	-0,001
1017,8	-0
1018,2	-0
1018,6	-0
1019,1	-0
1019,5	-0
1019,9	-0
1020,3	0
1020,7	-0
1021,1	0
1021,6	0
1022	-0
1022,4	0
1022,8	-0
1023,2	-0,001
1023,6	-0
1024,1	-0,001
1024,5	-0,001
1024,9	-0
1025,3	-0
1025,7	0
1026,1	0
1026,6	-0
1027	0
1027,4	-0
1027,8	-0
1028,2	-0,001
1028,6	-0
1029	-0,001
1029,5	-0,001
1029,9	-0,001
1030,3	-0,001
1030,7	-0,001
1031,1	-0,001
1031,5	-0,001
1032	-0,001
1032,4	-0
1032,8	0
1033,2	0,001
1033,6	0
1034	0,001
1034,4	0,001
1034,9	0
1035,3	-0
1035,7	-0
1036,1	-0,001
1036,5	-0
1036,9	-0,001
1037,4	-0,001
1037,8	-0,001
1038,2	-0
1038,6	0
1039	0
1039,4	0,001
1039,8	0,001
1040,3	0,001
1040,7	0,001
1041,1	0,001
1041,5	0
1041,9	0
1042,3	0
1042,7	-0
1043,2	-0
1043,6	0
1044	0,001
1044,4	0
1044,8	0
1045,2	-0
1045,6	0,001
1046,1	0
1046,5	-0,001
1046,9	-0,001
1047,3	-0
1047,7	-0
1048,1	-0,001
1048,5	-0,001
1049	-0,002
1049,4	-0,001
1049,8	-0,001
1050,2	-0,002
1050,6	-0,002
1051	-0,001
1051,4	-0,002
1051,9	-0
1052,3	-0
1052,7	-0
1053,1	0
1053,5	0,001
1053,9	0,001
1054,3	0,001
1054,8	0
1055,2	-0,001
1055,6	-0,001
1056	-0,001
1056,4	-0,002
1056,8	-0,002
1057,2	-0,001
1057,6	-0,001
1058,1	0,001
1058,5	0,001
1058,9	0,002
1059,3	0,003
1059,7	0,003
1060,1	0,002
1060,5	0,002
1061	0,002
1061,4	0,001
1061,8	0
1062,2	-0
1062,6	0
1063	-0
1063,4	0
1063,8	-0,001
1064,3	-0,001
1064,7	-0,001
1065,1	-0,001
1065,5	-0,001
1065,9	-0,002
1066,3	-0,001
1066,7	-0,001
1067,1	-0,001
1067,6	-0
1068	0,001
1068,4	0
1068,8	0,002
1069,2	0,001
1069,6	0,002
1070	0,003
1070,4	0,003
1070,9	0,002
1071,3	0,002
1071,7	0,002
1072,1	0
1072,5	0,001
1072,9	-0,001
1073,3	-0,001
1073,7	-0,002
1074,2	-0,001
1074,6	-0,001
1075	0,001
1075,4	-0,001
1075,8	0
1076,2	0
1076,6	0,001
1077	0,001
1077,5	0
1077,9	-0,002
1078,3	-0
1078,7	-0,001
1079,1	-0,001
1079,5	-0,001
1079,9	-0,002
1080,3	-0,001
1080,7	0,001
1081,2	0
1081,6	0,001
1082	0
1082,4	0
1082,8	0,001
1083,2	-0,001
1083,6	-0
1084	-0
1084,5	-0,002
1084,9	-0,001
1085,3	-0,003
1085,7	-0,002
1086,1	0,001
1086,5	-0,001
1086,9	-0,001
1087,3	-0,001
1087,7	-0
1088,2	-0,001
1088,6	-0,001
1089	-0,004
1089,4	-0,002
1089,8	-0,003
1090,2	-0,004
1090,6	-0,005
1091	-0,001
1091,4	-0,002
1091,9	-0,005
1092,3	-0,007
1092,7	-0,009
1093,1	-0,009
1093,5	-0,007
1093,9	-0,003
1094,3	-0,005
1094,7	-0,001
1095,1	0
1095,5	0,005
1096	0,004
1096,4	0,005
1096,8	-0,001
1097,2	-0,003
1097,6	-0,006
1098	-0,003
1098,4	-0,003
1098,8	-0,002
1099,2	-0,006
1099,6	0,004
1100,1	0,011
1100,5	0,014
1100,9	0,01
1101,3	0,019
1101,7	0,026
1102,1	0,024
1102,5	0,014
1102,9	0,012
1103,3	0,013
1103,7	0,017
1104,2	0,011
1104,6	0,006
1105	0,011
1105,4	0,008
1105,8	0,01
1106,2	0,012
1106,6	0,012
1107	0,001
1107,4	0,013
1107,8	0,026
1108,3	0,261
