Data from Absorbance_00010.txt Node
Date: Wed Aug 02 17:36:30 MSK 2023
User: vat
Spectrometer: MAYP114033
Trigger mode: 0
Integration Time (sec): 8,000000E-3
Scans to average: 10
Electric dark correction enabled: true
Nonlinearity correction enabled: false
Boxcar width: 3
XAxis mode: Wavelengths
Number of Pixels in Spectrum: 2068
>>>>>Begin Spectral Data<<<<<
199,4	-0
199,9	0,093
200,4	0,378
200,8	0,643
201,3	0,759
201,8	0,849
202,2	0,891
202,7	0,909
203,2	0,951
203,6	0,989
204,1	1,026
204,6	1,039
205	1,051
205,5	1,078
206	1,1
206,4	1,116
206,9	1,144
207,4	1,163
207,8	1,175
208,3	1,202
208,8	1,205
209,2	1,207
209,7	1,221
210,2	1,21
210,6	1,221
211,1	1,243
211,5	1,251
212	1,261
212,5	1,286
212,9	1,313
213,4	1,337
213,9	1,34
214,3	1,353
214,8	1,352
215,3	1,386
215,7	1,361
216,2	1,364
216,7	1,377
217,1	1,404
217,6	1,423
218,1	1,441
218,5	1,452
219	1,495
219,5	1,52
219,9	1,534
220,4	1,54
220,9	1,554
221,3	1,591
221,8	1,598
222,3	1,614
222,7	1,622
223,2	1,648
223,6	1,677
224,1	1,7
224,6	1,712
225	1,731
225,5	1,75
226	1,762
226,4	1,756
226,9	1,746
227,4	1,745
227,8	1,763
228,3	1,767
228,8	1,773
229,2	1,791
229,7	1,82
230,2	1,856
230,6	1,872
231,1	1,871
231,5	1,871
232	1,882
232,5	1,893
232,9	1,89
233,4	1,877
233,9	1,888
234,3	1,907
234,8	1,931
235,3	1,928
235,7	1,94
236,2	1,958
236,7	1,989
237,1	1,984
237,6	1,976
238,1	1,976
238,5	1,997
239	1,986
239,4	1,991
239,9	1,991
240,4	2,003
240,8	2,015
241,3	2,007
241,8	2
242,2	2,009
242,7	2,021
243,2	2,04
243,6	2,07
244,1	2,061
244,6	2,088
245	2,11
245,5	2,109
245,9	2,117
246,4	2,089
246,9	2,084
247,3	2,102
247,8	2,111
248,3	2,115
248,7	2,123
249,2	2,113
249,7	2,13
250,1	2,117
250,6	2,115
251	2,112
251,5	2,117
252	2,134
252,4	2,133
252,9	2,136
253,4	2,135
253,8	2,138
254,3	2,145
254,8	2,159
255,2	2,14
255,7	2,144
256,1	2,146
256,6	2,144
257,1	2,129
257,5	2,111
258	2,106
258,5	2,109
258,9	2,123
259,4	2,115
259,9	2,117
260,3	2,116
260,8	2,12
261,2	2,122
261,7	2,137
262,2	2,126
262,6	2,145
263,1	2,147
263,6	2,149
264	2,182
264,5	2,194
264,9	2,184
265,4	2,193
265,9	2,191
266,3	2,19
266,8	2,212
267,3	2,169
267,7	2,14
268,2	2,133
268,7	2,117
269,1	2,086
269,6	2,084
270	2,079
270,5	2,104
271	2,1
271,4	2,102
271,9	2,099
272,4	2,105
272,8	2,109
273,3	2,087
273,7	2,064
274,2	2,05
274,7	2,037
275,1	2,008
275,6	1,997
276,1	1,964
276,5	1,947
277	1,914
277,4	1,868
277,9	1,832
278,4	1,796
278,8	1,744
279,3	1,689
279,8	1,628
280,2	1,566
280,7	1,503
281,1	1,43
281,6	1,358
282,1	1,285
282,5	1,218
283	1,151
283,4	1,087
283,9	1,029
284,4	0,976
284,8	0,928
285,3	0,886
285,8	0,848
286,2	0,811
286,7	0,779
287,1	0,751
287,6	0,725
288,1	0,706
288,5	0,688
289	0,672
289,5	0,661
289,9	0,65
290,4	0,641
290,8	0,634
291,3	0,627
291,8	0,62
292,2	0,615
292,7	0,612
293,1	0,608
293,6	0,604
294,1	0,601
294,5	0,597
295	0,595
295,5	0,592
295,9	0,59
296,4	0,588
296,8	0,586
297,3	0,585
297,8	0,583
298,2	0,581
298,7	0,579
299,1	0,578
299,6	0,577
300,1	0,576
300,5	0,574
301	0,572
301,5	0,571
301,9	0,569
302,4	0,566
302,8	0,563
303,3	0,56
303,8	0,558
304,2	0,556
304,7	0,553
305,1	0,551
305,6	0,55
306,1	0,546
306,5	0,544
307	0,54
307,4	0,536
307,9	0,533
308,4	0,529
308,8	0,526
309,3	0,523
309,8	0,52
310,2	0,517
310,7	0,513
311,1	0,51
311,6	0,506
312,1	0,501
312,5	0,498
313	0,492
313,4	0,487
313,9	0,483
314,4	0,479
314,8	0,475
315,3	0,472
315,7	0,467
316,2	0,462
316,7	0,458
317,1	0,454
317,6	0,449
318	0,445
318,5	0,44
319	0,435
319,4	0,432
319,9	0,428
320,3	0,422
320,8	0,417
321,3	0,412
321,7	0,406
322,2	0,401
322,6	0,395
323,1	0,39
323,6	0,386
324	0,38
324,5	0,375
324,9	0,371
325,4	0,367
325,9	0,361
326,3	0,357
326,8	0,352
327,2	0,347
327,7	0,343
328,2	0,338
328,6	0,333
329,1	0,328
329,5	0,322
330	0,317
330,5	0,312
330,9	0,307
331,4	0,302
331,8	0,298
332,3	0,294
332,8	0,29
333,2	0,286
333,7	0,282
334,1	0,278
334,6	0,273
335,1	0,269
335,5	0,265
336	0,261
336,4	0,257
336,9	0,253
337,4	0,249
337,8	0,245
338,3	0,242
338,7	0,237
339,2	0,233
339,7	0,229
340,1	0,225
340,6	0,22
341	0,216
341,5	0,213
342	0,21
342,4	0,206
342,9	0,203
343,3	0,199
343,8	0,196
344,2	0,194
344,7	0,191
345,2	0,187
345,6	0,184
346,1	0,181
346,5	0,178
347	0,175
347,5	0,172
347,9	0,168
348,4	0,165
348,8	0,163
349,3	0,16
349,8	0,157
350,2	0,154
350,7	0,151
351,1	0,149
351,6	0,145
352	0,142
352,5	0,14
353	0,137
353,4	0,135
353,9	0,132
354,3	0,13
354,8	0,129
355,3	0,127
355,7	0,125
356,2	0,123
356,6	0,121
357,1	0,119
357,5	0,117
358	0,115
358,5	0,113
358,9	0,111
359,4	0,109
359,8	0,106
360,3	0,104
360,8	0,103
361,2	0,101
361,7	0,098
362,1	0,096
362,6	0,094
363	0,093
363,5	0,091
364	0,089
364,4	0,087
364,9	0,085
365,3	0,084
365,8	0,083
366,3	0,081
366,7	0,08
367,2	0,079
367,6	0,078
368,1	0,077
368,5	0,076
369	0,075
369,5	0,074
369,9	0,073
370,4	0,072
370,8	0,071
371,3	0,07
371,7	0,069
372,2	0,068
372,7	0,067
373,1	0,065
373,6	0,063
374	0,062
374,5	0,061
374,9	0,059
375,4	0,059
375,9	0,057
376,3	0,057
376,8	0,055
377,2	0,055
377,7	0,054
378,2	0,053
378,6	0,052
379,1	0,051
379,5	0,051
380	0,05
380,4	0,049
380,9	0,048
381,4	0,047
381,8	0,046
382,3	0,046
382,7	0,044
383,2	0,044
383,6	0,043
384,1	0,043
384,6	0,041
385	0,041
385,5	0,04
385,9	0,04
386,4	0,039
386,8	0,039
387,3	0,038
387,7	0,038
388,2	0,037
388,7	0,037
389,1	0,036
389,6	0,035
390	0,034
390,5	0,033
390,9	0,033
391,4	0,032
391,9	0,032
392,3	0,032
392,8	0,032
393,2	0,032
393,7	0,031
394,1	0,031
394,6	0,03
395,1	0,029
395,5	0,028
396	0,029
396,4	0,028
396,9	0,027
397,3	0,027
397,8	0,027
398,2	0,027
398,7	0,027
399,2	0,026
399,6	0,026
400,1	0,026
400,5	0,025
401	0,024
401,4	0,023
401,9	0,023
402,4	0,022
402,8	0,021
403,3	0,021
403,7	0,02
404,2	0,02
404,6	0,02
405,1	0,02
405,5	0,02
406	0,02
406,5	0,019
406,9	0,019
407,4	0,019
407,8	0,018
408,3	0,018
408,7	0,017
409,2	0,017
409,6	0,016
410,1	0,016
410,6	0,016
411	0,016
411,5	0,016
411,9	0,016
412,4	0,015
412,8	0,015
413,3	0,015
413,7	0,015
414,2	0,014
414,7	0,015
415,1	0,014
415,6	0,015
416	0,014
416,5	0,014
416,9	0,014
417,4	0,014
417,8	0,012
418,3	0,012
418,8	0,012
419,2	0,012
419,7	0,011
420,1	0,011
420,6	0,011
421	0,01
421,5	0,01
421,9	0,009
422,4	0,009
422,8	0,009
423,3	0,009
423,8	0,009
424,2	0,008
424,7	0,008
425,1	0,008
425,6	0,008
426	0,007
426,5	0,007
426,9	0,006
427,4	0,007
427,9	0,006
428,3	0,006
428,8	0,006
429,2	0,006
429,7	0,006
430,1	0,006
430,6	0,007
431	0,007
431,5	0,007
431,9	0,007
432,4	0,007
432,8	0,007
433,3	0,006
433,8	0,005
434,2	0,005
434,7	0,005
435,1	0,004
435,6	0,004
436	0,003
436,5	0,003
436,9	0,003
437,4	0,003
437,8	0,003
438,3	0,003
438,8	0,003
439,2	0,003
439,7	0,003
440,1	0,002
440,6	0,003
441	0,003
441,5	0,003
441,9	0,003
442,4	0,003
442,8	0,003
443,3	0,002
443,7	0,002
444,2	0,002
444,7	0,002
445,1	0,001
445,6	0,001
446	0
446,5	0,001
446,9	0
447,4	-0
447,8	-0,001
448,3	-0
448,7	0
449,2	-0
449,6	-0
450,1	-0
450,6	0
451	0
451,5	-0
451,9	-0
452,4	0
452,8	0
453,3	-0
453,7	-0
454,2	-0
454,6	-0
455,1	-0
455,5	-0
456	-0
456,4	-0
456,9	-0
457,3	-0
457,8	-0
458,3	-0
458,7	-0,001
459,2	-0,001
459,6	-0,001
460,1	-0,001
460,5	-0,001
461	-0,002
461,4	-0,001
461,9	-0,002
462,3	-0,002
462,8	-0,002
463,2	-0,002
463,7	-0,002
464,1	-0,002
464,6	-0,003
465	-0,002
465,5	-0,002
466	-0,002
466,4	-0,002
466,9	-0,002
467,3	-0,002
467,8	-0,003
468,2	-0,003
468,7	-0,003
469,1	-0,003
469,6	-0,003
470	-0,003
470,5	-0,003
470,9	-0,002
471,4	-0,002
471,8	-0,002
472,3	-0,002
472,7	-0,002
473,2	-0,003
473,6	-0,003
474,1	-0,003
474,5	-0,002
475	-0,002
475,4	-0,002
475,9	-0,003
476,4	-0,002
476,8	-0,002
477,3	-0,002
477,7	-0,003
478,2	-0,003
478,6	-0,003
479,1	-0,002
479,5	-0,002
480	-0,002
480,4	-0,003
480,9	-0,003
481,3	-0,003
481,8	-0,002
482,2	-0,002
482,7	-0,002
483,1	-0,003
483,6	-0,003
484	-0,003
484,5	-0,003
484,9	-0,003
485,4	-0,004
485,8	-0,004
486,3	-0,004
486,7	-0,004
487,2	-0,004
487,6	-0,004
488,1	-0,005
488,5	-0,004
489	-0,005
489,4	-0,004
489,9	-0,004
490,4	-0,004
490,8	-0,004
491,3	-0,004
491,7	-0,004
492,2	-0,004
492,6	-0,004
493,1	-0,004
493,5	-0,004
494	-0,005
494,4	-0,005
494,9	-0,005
495,3	-0,005
495,8	-0,004
496,2	-0,004
496,7	-0,004
497,1	-0,004
497,6	-0,004
498	-0,004
498,5	-0,004
498,9	-0,004
499,4	-0,003
499,8	-0,003
500,3	-0,003
500,7	-0,002
501,2	-0,002
501,6	-0,003
502,1	-0,003
502,5	-0,003
503	-0,003
503,4	-0,003
503,9	-0,003
504,3	-0,003
504,8	-0,003
505,2	-0,004
505,7	-0,004
506,1	-0,004
506,6	-0,004
507	-0,004
507,5	-0,004
507,9	-0,004
508,4	-0,003
508,8	-0,004
509,3	-0,004
509,7	-0,005
510,2	-0,005
510,6	-0,005
511,1	-0,005
511,5	-0,005
512	-0,005
512,4	-0,005
512,9	-0,005
513,3	-0,004
513,8	-0,004
514,2	-0,004
514,7	-0,004
515,1	-0,004
515,6	-0,004
516	-0,003
516,5	-0,004
516,9	-0,004
517,4	-0,003
517,8	-0,003
518,3	-0,003
518,7	-0,003
519,2	-0,002
519,6	-0,002
520,1	-0,002
520,5	-0,002
521	-0,002
521,4	-0,002
521,9	-0,003
522,3	-0,004
522,8	-0,004
523,2	-0,004
523,7	-0,005
524,1	-0,005
524,6	-0,005
525	-0,005
525,5	-0,004
525,9	-0,004
526,4	-0,004
526,8	-0,004
527,3	-0,004
527,7	-0,004
528,2	-0,003
528,6	-0,004
529,1	-0,004
529,5	-0,004
530	-0,003
530,4	-0,004
530,9	-0,003
531,3	-0,003
531,8	-0,003
532,2	-0,003
532,6	-0,003
533,1	-0,003
533,5	-0,003
534	-0,004
534,4	-0,004
534,9	-0,004
535,3	-0,004
535,8	-0,003
536,2	-0,002
536,7	-0,003
537,1	-0,003
537,6	-0,003
538	-0,003
538,5	-0,003
538,9	-0,003
539,4	-0,004
539,8	-0,004
540,3	-0,003
540,7	-0,003
541,2	-0,003
541,6	-0,004
542,1	-0,004
542,5	-0,004
543	-0,003
543,4	-0,004
543,9	-0,004
544,3	-0,003
544,8	-0,003
545,2	-0,003
545,7	-0,003
546,1	-0,004
546,5	-0,003
547	-0,004
547,4	-0,004
547,9	-0,004
548,3	-0,004
548,8	-0,004
549,2	-0,004
549,7	-0,004
550,1	-0,003
550,6	-0,003
551	-0,003
551,5	-0,003
551,9	-0,004
552,4	-0,004
552,8	-0,005
553,3	-0,005
553,7	-0,005
554,2	-0,005
554,6	-0,004
555,1	-0,004
555,5	-0,004
555,9	-0,003
556,4	-0,003
556,8	-0,003
557,3	-0,003
557,7	-0,004
558,2	-0,004
558,6	-0,003
559,1	-0,003
559,5	-0,003
560	-0,003
560,4	-0,003
560,9	-0,003
561,3	-0,003
561,8	-0,004
562,2	-0,003
562,7	-0,003
563,1	-0,003
563,6	-0,003
564	-0,003
564,4	-0,003
564,9	-0,002
565,3	-0,003
565,8	-0,003
566,2	-0,003
566,7	-0,003
567,1	-0,003
567,6	-0,003
568	-0,003
568,5	-0,003
568,9	-0,003
569,4	-0,002
569,8	-0,003
570,3	-0,003
570,7	-0,003
571,1	-0,004
571,6	-0,004
572	-0,003
572,5	-0,004
572,9	-0,004
573,4	-0,004
573,8	-0,003
574,3	-0,003
574,7	-0,003
575,2	-0,004
575,6	-0,003
576,1	-0,003
576,5	-0,003
576,9	-0,004
577,4	-0,003
577,8	-0,004
578,3	-0,003
578,7	-0,004
579,2	-0,004
579,6	-0,003
580,1	-0,003
580,5	-0,003
581	-0,004
581,4	-0,003
581,9	-0,003
582,3	-0,003
582,7	-0,003
583,2	-0,003
583,6	-0,003
584,1	-0,003
584,5	-0,003
585	-0,003
585,4	-0,003
585,9	-0,004
586,3	-0,004
586,8	-0,004
587,2	-0,004
587,6	-0,004
588,1	-0,004
588,5	-0,004
589	-0,004
589,4	-0,003
589,9	-0,003
590,3	-0,003
590,8	-0,003
591,2	-0,003
591,7	-0,003
592,1	-0,003
592,5	-0,003
593	-0,003
593,4	-0,003
593,9	-0,003
594,3	-0,003
594,8	-0,003
595,2	-0,002
595,7	-0,003
596,1	-0,003
596,6	-0,003
597	-0,003
597,4	-0,003
597,9	-0,003
598,3	-0,003
598,8	-0,003
599,2	-0,003
599,7	-0,004
600,1	-0,004
600,6	-0,003
601	-0,003
601,4	-0,003
601,9	-0,003
602,3	-0,003
602,8	-0,003
603,2	-0,003
603,7	-0,003
604,1	-0,003
604,6	-0,003
605	-0,003
605,4	-0,003
605,9	-0,003
606,3	-0,003
606,8	-0,003
607,2	-0,002
607,7	-0,003
608,1	-0,002
608,6	-0,002
609	-0,003
609,4	-0,002
609,9	-0,002
610,3	-0,003
610,8	-0,003
611,2	-0,003
611,7	-0,003
612,1	-0,003
612,6	-0,003
613	-0,003
613,4	-0,003
613,9	-0,003
614,3	-0,003
614,8	-0,003
615,2	-0,003
615,7	-0,003
616,1	-0,004
616,6	-0,004
617	-0,004
617,4	-0,003
617,9	-0,004
618,3	-0,003
618,8	-0,003
619,2	-0,003
619,7	-0,003
620,1	-0,003
620,5	-0,003
621	-0,003
621,4	-0,004
621,9	-0,004
622,3	-0,003
622,8	-0,003
623,2	-0,003
623,6	-0,003
624,1	-0,003
624,5	-0,003
625	-0,003
625,4	-0,003
625,9	-0,003
626,3	-0,004
626,8	-0,004
627,2	-0,004
627,6	-0,004
628,1	-0,004
628,5	-0,004
629	-0,004
629,4	-0,004
629,9	-0,004
630,3	-0,004
630,7	-0,003
631,2	-0,004
631,6	-0,003
632,1	-0,002
632,5	-0,003
633	-0,003
633,4	-0,003
633,8	-0,003
634,3	-0,003
634,7	-0,004
635,2	-0,004
635,6	-0,003
636,1	-0,003
636,5	-0,003
636,9	-0,003
637,4	-0,003
637,8	-0,003
638,3	-0,003
638,7	-0,003
639,2	-0,003
639,6	-0,003
640	-0,003
640,5	-0,002
640,9	-0,003
641,4	-0,003
641,8	-0,003
642,2	-0,003
642,7	-0,003
643,1	-0,003
643,6	-0,003
644	-0,003
644,5	-0,003
644,9	-0,003
645,3	-0,003
645,8	-0,004
646,2	-0,004
646,7	-0,004
647,1	-0,004
647,6	-0,003
648	-0,003
648,4	-0,003
648,9	-0,002
649,3	-0,002
649,8	-0,002
650,2	-0,002
650,6	-0,002
651,1	-0,002
651,5	-0,002
652	-0,002
652,4	-0,002
652,9	-0,002
653,3	-0,002
653,7	-0,003
654,2	-0,003
654,6	-0,003
655,1	-0,003
655,5	-0,003
655,9	-0,002
656,4	-0,001
656,8	-0,001
657,3	-0,001
657,7	-0,001
658,2	-0,001
658,6	-0,001
659	-0,001
659,5	-0,002
659,9	-0,002
660,4	-0,002
660,8	-0,002
661,2	-0,002
661,7	-0,002
662,1	-0,002
662,6	-0,002
663	-0,002
663,4	-0,002
663,9	-0,002
664,3	-0,002
664,8	-0,002
665,2	-0,002
665,6	-0,002
666,1	-0,002
666,5	-0,002
667	-0,002
667,4	-0,002
667,9	-0,003
668,3	-0,003
668,7	-0,003
669,2	-0,003
669,6	-0,003
670,1	-0,004
670,5	-0,003
670,9	-0,003
671,4	-0,003
671,8	-0,003
672,3	-0,003
672,7	-0,003
673,1	-0,003
673,6	-0,003
674	-0,003
674,5	-0,003
674,9	-0,003
675,3	-0,003
675,8	-0,003
676,2	-0,003
676,7	-0,003
677,1	-0,002
677,5	-0,003
678	-0,002
678,4	-0,003
678,9	-0,003
679,3	-0,003
679,7	-0,003
680,2	-0,003
680,6	-0,004
681,1	-0,004
681,5	-0,004
681,9	-0,004
682,4	-0,004
682,8	-0,003
683,3	-0,003
683,7	-0,002
684,1	-0,002
684,6	-0,002
685	-0,002
685,5	-0,003
685,9	-0,003
686,3	-0,003
686,8	-0,003
687,2	-0,003
687,7	-0,003
688,1	-0,003
688,5	-0,003
689	-0,003
689,4	-0,003
689,9	-0,004
690,3	-0,004
690,7	-0,004
691,2	-0,004
691,6	-0,004
692	-0,003
692,5	-0,003
692,9	-0,003
693,4	-0,003
693,8	-0,003
694,2	-0,002
694,7	-0,002
695,1	-0,002
695,6	-0,002
696	-0,002
696,4	-0,002
696,9	-0,002
697,3	-0,002
697,8	-0,003
698,2	-0,003
698,6	-0,003
699,1	-0,002
699,5	-0,003
699,9	-0,003
700,4	-0,003
700,8	-0,003
701,3	-0,002
701,7	-0,002
702,1	-0,003
702,6	-0,003
703	-0,002
703,5	-0,002
703,9	-0,003
704,3	-0,003
704,8	-0,003
705,2	-0,003
705,6	-0,003
706,1	-0,003
706,5	-0,003
707	-0,003
707,4	-0,003
707,8	-0,003
708,3	-0,003
708,7	-0,003
709,2	-0,003
709,6	-0,003
710	-0,002
710,5	-0,002
710,9	-0,002
711,3	-0,002
711,8	-0,002
712,2	-0,002
712,7	-0,002
713,1	-0,003
713,5	-0,003
714	-0,003
714,4	-0,003
714,8	-0,003
715,3	-0,003
715,7	-0,003
716,2	-0,003
716,6	-0,003
717	-0,003
717,5	-0,003
717,9	-0,003
718,3	-0,003
718,8	-0,003
719,2	-0,002
719,7	-0,001
720,1	-0,001
720,5	-0,001
721	-0,001
721,4	-0,002
721,8	-0,002
722,3	-0,002
722,7	-0,003
723,2	-0,003
723,6	-0,003
724	-0,003
724,5	-0,003
724,9	-0,003
725,3	-0,002
725,8	-0,002
726,2	-0,002
726,7	-0,002
727,1	-0,003
727,5	-0,003
728	-0,003
728,4	-0,003
728,8	-0,003
729,3	-0,003
729,7	-0,003
730,1	-0,002
730,6	-0,002
731	-0,002
731,5	-0,003
731,9	-0,003
732,3	-0,003
732,8	-0,003
733,2	-0,003
733,6	-0,003
734,1	-0,003
734,5	-0,003
734,9	-0,003
735,4	-0,003
735,8	-0,003
736,3	-0,003
736,7	-0,003
737,1	-0,003
737,6	-0,004
738	-0,003
738,4	-0,003
738,9	-0,003
739,3	-0,003
739,7	-0,003
740,2	-0,002
740,6	-0,002
741,1	-0,002
741,5	-0,002
741,9	-0,002
742,4	-0,002
742,8	-0,002
743,2	-0,002
743,7	-0,003
744,1	-0,002
744,5	-0,002
745	-0,002
745,4	-0,002
745,8	-0,002
746,3	-0,002
746,7	-0,002
747,2	-0,003
747,6	-0,003
748	-0,002
748,5	-0,003
748,9	-0,003
749,3	-0,002
749,8	-0,002
750,2	-0,002
750,6	-0,002
751,1	-0,002
751,5	-0,002
751,9	-0,002
752,4	-0,002
752,8	-0,002
753,3	-0,002
753,7	-0,002
754,1	-0,003
754,6	-0,002
755	-0,002
755,4	-0,002
755,9	-0,002
756,3	-0,002
756,7	-0,003
757,2	-0,002
757,6	-0,002
758	-0,003
758,5	-0,002
758,9	-0,003
759,3	-0,003
759,8	-0,002
760,2	-0,002
760,6	-0,003
761,1	-0,003
761,5	-0,003
761,9	-0,003
762,4	-0,003
762,8	-0,003
763,3	-0,003
763,7	-0,003
764,1	-0,003
764,6	-0,003
765	-0,003
765,4	-0,003
765,9	-0,003
766,3	-0,003
766,7	-0,003
767,2	-0,003
767,6	-0,003
768	-0,003
768,5	-0,002
768,9	-0,002
769,3	-0,002
769,8	-0,002
770,2	-0,002
770,6	-0,002
771,1	-0,002
771,5	-0,002
771,9	-0,003
772,4	-0,003
772,8	-0,003
773,2	-0,003
773,7	-0,003
774,1	-0,003
774,5	-0,003
775	-0,002
775,4	-0,002
775,8	-0,002
776,3	-0,002
776,7	-0,002
777,1	-0,002
777,6	-0,002
778	-0,002
778,4	-0,002
778,9	-0,002
779,3	-0,002
779,7	-0,002
780,2	-0,002
780,6	-0,002
781	-0,002
781,5	-0,002
781,9	-0,001
782,3	-0,002
782,8	-0,002
783,2	-0,002
783,6	-0,002
784,1	-0,002
784,5	-0,002
784,9	-0,002
785,4	-0,002
785,8	-0,002
786,2	-0,002
786,7	-0,002
787,1	-0,002
787,5	-0,002
788	-0,002
788,4	-0,002
788,8	-0,002
789,3	-0,002
789,7	-0,002
790,1	-0,002
790,6	-0,002
791	-0,002
791,4	-0,002
791,9	-0,002
792,3	-0,002
792,7	-0,002
793,2	-0,002
793,6	-0,002
794	-0,003
794,5	-0,002
794,9	-0,002
795,3	-0,003
795,8	-0,002
796,2	-0,002
796,6	-0,003
797,1	-0,003
797,5	-0,003
797,9	-0,002
798,4	-0,002
798,8	-0,002
799,2	-0,002
799,7	-0,002
800,1	-0,002
800,5	-0,002
801	-0,002
801,4	-0,002
801,8	-0,002
802,2	-0,002
802,7	-0,002
803,1	-0,002
803,5	-0,002
804	-0,002
804,4	-0,002
804,8	-0,002
805,3	-0,002
805,7	-0,002
806,1	-0,002
806,6	-0,002
807	-0,002
807,4	-0,002
807,9	-0,003
808,3	-0,002
808,7	-0,003
809,2	-0,003
809,6	-0,003
810	-0,003
810,4	-0,004
810,9	-0,004
811,3	-0,004
811,7	-0,004
812,2	-0,003
812,6	-0,003
813	-0,003
813,5	-0,003
813,9	-0,002
814,3	-0,002
814,8	-0,002
815,2	-0,002
815,6	-0,002
816,1	-0,003
816,5	-0,002
816,9	-0,003
817,3	-0,003
817,8	-0,003
818,2	-0,003
818,6	-0,003
819,1	-0,002
819,5	-0,003
819,9	-0,002
820,4	-0,002
820,8	-0,002
821,2	-0,002
821,7	-0,002
822,1	-0,003
822,5	-0,002
822,9	-0,002
823,4	-0,002
823,8	-0,002
824,2	-0,002
824,7	-0,002
825,1	-0,002
825,5	-0,003
826	-0,003
826,4	-0,003
826,8	-0,003
827,3	-0,003
827,7	-0,003
828,1	-0,003
828,5	-0,003
829	-0,004
829,4	-0,004
829,8	-0,004
830,3	-0,004
830,7	-0,004
831,1	-0,004
831,6	-0,004
832	-0,004
832,4	-0,003
832,8	-0,004
833,3	-0,003
833,7	-0,003
834,1	-0,003
834,6	-0,003
835	-0,002
835,4	-0,002
835,8	-0,002
836,3	-0,002
836,7	-0,002
837,1	-0,002
837,6	-0,002
838	-0,002
838,4	-0,002
838,9	-0,001
839,3	-0,001
839,7	-0,001
840,1	-0,001
840,6	-0,001
841	-0,002
841,4	-0,002
841,9	-0,002
842,3	-0,002
842,7	-0,002
843,1	-0,001
843,6	-0,001
844	-0,001
844,4	-0,002
844,9	-0,001
845,3	-0,002
845,7	-0,002
846,2	-0,002
846,6	-0,003
847	-0,003
847,4	-0,003
847,9	-0,003
848,3	-0,003
848,7	-0,003
849,2	-0,003
849,6	-0,002
850	-0,002
850,4	-0,002
850,9	-0,002
851,3	-0,002
851,7	-0,002
852,2	-0,002
852,6	-0,002
853	-0,003
853,4	-0,002
853,9	-0,002
854,3	-0,002
854,7	-0,002
855,2	-0,001
855,6	-0,002
856	-0,001
856,4	-0,001
856,9	-0,001
857,3	-0,002
857,7	-0,002
858,2	-0,002
858,6	-0,002
859	-0,002
859,4	-0,003
859,9	-0,002
860,3	-0,002
860,7	-0,003
861,1	-0,003
861,6	-0,003
862	-0,003
862,4	-0,002
862,9	-0,002
863,3	-0,002
863,7	-0,002
864,1	-0,002
864,6	-0,002
865	-0,002
865,4	-0,002
865,9	-0,002
866,3	-0,002
866,7	-0,002
867,1	-0,002
867,6	-0,002
868	-0,002
868,4	-0,002
868,8	-0,002
869,3	-0,002
869,7	-0,002
870,1	-0,002
870,6	-0,002
871	-0,002
871,4	-0,001
871,8	-0,001
872,3	-0,001
872,7	-0,001
873,1	-0,001
873,5	-0,001
874	-0,001
874,4	-0,001
874,8	-0,002
875,3	-0,002
875,7	-0,002
876,1	-0,002
876,5	-0,002
877	-0,002
877,4	-0,002
877,8	-0,001
878,2	-0,001
878,7	-0,001
879,1	-0,001
879,5	-0,001
879,9	-0,001
880,4	-0,001
880,8	-0,001
881,2	-0,001
881,7	-0,001
882,1	-0,001
882,5	-0,001
882,9	-0,001
883,4	-0,002
883,8	-0,002
884,2	-0,002
884,6	-0,002
885,1	-0,002
885,5	-0,002
885,9	-0,002
886,3	-0,002
886,8	-0,002
887,2	-0,002
887,6	-0,002
888	-0,002
888,5	-0,002
888,9	-0,002
889,3	-0,002
889,8	-0,002
890,2	-0,002
890,6	-0,002
891	-0,002
891,5	-0,002
891,9	-0,002
892,3	-0,001
892,7	-0,002
893,2	-0,001
893,6	-0,001
894	-0,001
894,4	-0,001
894,9	-0,001
895,3	-0,002
895,7	-0,002
896,1	-0,002
896,6	-0,002
897	-0,002
897,4	-0,002
897,8	-0,002
898,3	-0,002
898,7	-0,002
899,1	-0,002
899,5	-0,002
900	-0,002
900,4	-0,002
900,8	-0,002
901,2	-0,002
901,7	-0,002
902,1	-0,002
902,5	-0,001
902,9	-0,002
903,4	-0,002
903,8	-0,001
904,2	-0,002
904,6	-0,002
905,1	-0,002
905,5	-0,002
905,9	-0,002
906,3	-0,002
906,8	-0,002
907,2	-0,002
907,6	-0,001
908	-0,002
908,5	-0,001
908,9	-0,001
909,3	-0,001
909,7	-0,001
910,2	-0,001
910,6	-0,001
911	-0,001
911,4	-0,001
911,9	-0,001
912,3	-0,001
912,7	-0,001
913,1	-0,001
913,6	-0,001
914	-0,002
914,4	-0,002
914,8	-0,002
915,3	-0,003
915,7	-0,003
916,1	-0,003
916,5	-0,003
916,9	-0,003
917,4	-0,002
917,8	-0,003
918,2	-0,002
918,6	-0,002
919,1	-0,002
919,5	-0,002
919,9	-0,002
920,3	-0,002
920,8	-0,002
921,2	-0,002
921,6	-0,002
922	-0,002
922,5	-0,002
922,9	-0,002
923,3	-0,002
923,7	-0,002
924,2	-0,002
924,6	-0,002
925	-0,002
925,4	-0,001
925,8	-0,002
926,3	-0,002
926,7	-0,001
927,1	-0,001
927,5	-0,001
928	-0,001
928,4	-0,001
928,8	-0,001
929,2	-0,001
929,7	-0,001
930,1	-0,001
930,5	-0,002
930,9	-0,001
931,3	-0,001
931,8	-0,001
932,2	-0
932,6	-0
933	0
933,5	0
933,9	-0
934,3	-0
934,7	-0,001
935,2	-0,001
935,6	-0,001
936	-0,001
936,4	-0,001
936,8	-0,001
937,3	-0,002
937,7	-0,002
938,1	-0,002
938,5	-0,002
939	-0,002
939,4	-0,002
939,8	-0,002
940,2	-0,002
940,6	-0,002
941,1	-0,002
941,5	-0,002
941,9	-0,002
942,3	-0,003
942,8	-0,002
943,2	-0,002
943,6	-0,003
944	-0,003
944,4	-0,003
944,9	-0,003
945,3	-0,003
945,7	-0,003
946,1	-0,002
946,6	-0,002
947	-0,001
947,4	-0,002
947,8	-0,002
948,2	-0,002
948,7	-0,002
949,1	-0,002
949,5	-0,003
949,9	-0,003
950,3	-0,002
950,8	-0,002
951,2	-0,001
951,6	-0,001
952	-0,001
952,5	-0,001
952,9	-0,001
953,3	-0,002
953,7	-0,002
954,1	-0,002
954,6	-0,003
955	-0,003
955,4	-0,003
955,8	-0,002
956,2	-0,002
956,7	-0,002
957,1	-0,003
957,5	-0,003
957,9	-0,003
958,3	-0,003
958,8	-0,004
959,2	-0,003
959,6	-0,002
960	-0,001
960,5	-0,002
960,9	-0,001
961,3	-0,002
961,7	-0,002
962,1	-0,001
962,6	-0,002
963	-0,002
963,4	-0,001
963,8	-0,001
964,2	-0,001
964,7	-0
965,1	-0,001
965,5	-0,001
965,9	-0,002
966,3	-0,002
966,8	-0,002
967,2	-0,002
967,6	-0,002
968	-0,001
968,4	-0,002
968,9	-0,001
969,3	-0,001
969,7	-0,001
970,1	-0,001
970,5	-0,001
971	-0,001
971,4	-0,002
971,8	-0,002
972,2	-0,002
972,6	-0,002
973,1	-0,002
973,5	-0,002
973,9	-0,002
974,3	-0,002
974,7	-0,002
975,2	-0,002
975,6	-0,003
976	-0,003
976,4	-0,003
976,8	-0,003
977,3	-0,003
977,7	-0,002
978,1	-0,002
978,5	-0,001
978,9	-0,001
979,4	-0,002
979,8	-0,001
980,2	-0,001
980,6	-0,001
981	-0,001
981,5	-0,001
981,9	-0,001
982,3	-0,001
982,7	-0,002
983,1	-0,001
983,6	-0,001
984	-0,001
984,4	-0,001
984,8	-0,002
985,2	-0,002
985,6	-0,001
986,1	-0,001
986,5	-0,001
986,9	-0,001
987,3	-0,002
987,7	-0,002
988,2	-0,001
988,6	-0,002
989	-0,002
989,4	-0,002
989,8	-0,002
990,3	-0,001
990,7	-0,001
991,1	-0,001
991,5	-0,001
991,9	-0,001
992,3	-0
992,8	-0,001
993,2	-0,002
993,6	-0,002
994	-0,002
994,4	-0,002
994,9	-0,002
995,3	-0,002
995,7	-0,003
996,1	-0,002
996,5	-0,002
996,9	-0,002
997,4	-0,002
997,8	-0,002
998,2	-0,001
998,6	-0
999	-0,001
999,5	-0
999,9	0
1000,3	0
1000,7	0
1001,1	0
1001,5	0,001
1002	0,001
1002,4	0,001
1002,8	0
1003,2	0
1003,6	0
1004	-0
1004,5	-0,001
1004,9	-0,001
1005,3	-0,001
1005,7	-0
1006,1	-0,001
1006,6	-0,001
1007	-0,001
1007,4	-0,001
1007,8	-0,001
1008,2	-0,001
1008,6	-0,001
1009,1	-0,001
1009,5	-0,001
1009,9	-0,002
1010,3	-0,002
1010,7	-0,002
1011,1	-0,003
1011,6	-0,002
1012	-0,002
1012,4	-0,001
1012,8	-0,001
1013,2	-0,001
1013,6	-0,001
1014,1	-0
1014,5	-0,001
1014,9	-0,001
1015,3	-0,002
1015,7	-0,002
1016,1	-0,002
1016,6	-0,002
1017	-0,002
1017,4	-0,002
1017,8	-0,002
1018,2	-0,002
1018,6	-0,002
1019,1	-0,002
1019,5	-0,002
1019,9	-0,002
1020,3	-0,002
1020,7	-0,002
1021,1	-0,002
1021,6	-0,002
1022	-0,003
1022,4	-0,002
1022,8	-0,002
1023,2	-0,002
1023,6	-0,002
1024,1	-0,002
1024,5	-0,002
1024,9	-0,001
1025,3	-0,001
1025,7	-0
1026,1	-0
1026,6	-0
1027	-0
1027,4	-0,001
1027,8	-0,001
1028,2	-0,002
1028,6	-0,002
1029	-0,002
1029,5	-0,003
1029,9	-0,003
1030,3	-0,003
1030,7	-0,003
1031,1	-0,003
1031,5	-0,003
1032	-0,002
1032,4	-0,002
1032,8	-0,002
1033,2	-0,002
1033,6	-0,002
1034	-0,001
1034,4	-0,001
1034,9	-0,001
1035,3	-0,001
1035,7	-0,002
1036,1	-0,002
1036,5	-0,002
1036,9	-0,002
1037,4	-0,001
1037,8	-0,001
1038,2	-0,001
1038,6	-0
1039	0
1039,4	0
1039,8	-0
1040,3	-0
1040,7	-0,001
1041,1	-0,001
1041,5	-0,001
1041,9	-0,002
1042,3	-0,001
1042,7	-0,002
1043,2	-0,001
1043,6	-0,002
1044	-0,001
1044,4	-0,001
1044,8	-0,001
1045,2	-0,002
1045,6	-0,001
1046,1	-0,002
1046,5	-0,002
1046,9	-0,002
1047,3	-0,002
1047,7	-0,002
1048,1	-0,003
1048,5	-0,002
1049	-0,004
1049,4	-0,002
1049,8	-0,003
1050,2	-0,003
1050,6	-0,003
1051	-0,002
1051,4	-0,002
1051,9	-0,002
1052,3	-0,002
1052,7	-0,002
1053,1	-0,001
1053,5	-0,001
1053,9	-0,001
1054,3	-0,001
1054,8	-0,001
1055,2	-0,001
1055,6	-0,001
1056	-0,002
1056,4	-0,002
1056,8	-0,002
1057,2	-0,002
1057,6	-0,002
1058,1	-0,001
1058,5	-0,001
1058,9	-0,001
1059,3	-0,001
1059,7	-0,001
1060,1	-0,001
1060,5	-0,002
1061	-0,003
1061,4	-0,003
1061,8	-0,003
1062,2	-0,003
1062,6	-0,002
1063	-0,002
1063,4	-0,001
1063,8	-0,001
1064,3	-0,001
1064,7	-0,002
1065,1	-0,002
1065,5	-0,002
1065,9	-0,002
1066,3	-0,003
1066,7	-0,002
1067,1	-0,002
1067,6	-0,002
1068	-0,001
1068,4	-0,001
1068,8	-0,001
1069,2	-0,002
1069,6	-0,002
1070	-0,002
1070,4	-0,002
1070,9	-0,003
1071,3	-0,003
1071,7	-0,002
1072,1	-0,002
1072,5	-0,001
1072,9	-0,001
1073,3	-0,002
1073,7	-0
1074,2	0
1074,6	-0,001
1075	-0,001
1075,4	-0,002
1075,8	-0,002
1076,2	-0,002
1076,6	-0,002
1077	-0,002
1077,5	-0,002
1077,9	-0,003
1078,3	-0,002
1078,7	-0,002
1079,1	-0,002
1079,5	-0,002
1079,9	-0,002
1080,3	-0,001
1080,7	0
1081,2	0
1081,6	0,001
1082	0,001
1082,4	0,001
1082,8	0
1083,2	-0
1083,6	0,001
1084	-0
1084,5	0
1084,9	-0
1085,3	-0,002
1085,7	-0,002
1086,1	-0,001
1086,5	-0,002
1086,9	-0,002
1087,3	-0,002
1087,7	-0,001
1088,2	0
1088,6	0,001
1089	0,001
1089,4	0,002
1089,8	0,001
1090,2	-0
1090,6	-0,002
1091	0,001
1091,4	0,001
1091,9	-0,005
1092,3	-0,007
1092,7	-0,005
1093,1	-0,006
1093,5	-0,005
1093,9	-0,003
1094,3	-0,004
1094,7	0,001
1095,1	0,002
1095,5	0,001
1096	0,001
1096,4	0,005
1096,8	-0,002
1097,2	-0,01
1097,6	-0,013
1098	-0,014
1098,4	-0,009
1098,8	-0,006
1099,2	-0,013
1099,6	-0,007
1100,1	0,004
1100,5	0,006
1100,9	0,009
1101,3	0,014
1101,7	0,012
1102,1	0,015
1102,5	0,014
1102,9	0,009
1103,3	0,014
1103,7	0,005
1104,2	-0,01
1104,6	-0,007
1105	-0,002
1105,4	-0,004
1105,8	-0,001
1106,2	-0
1106,6	0,006
1107	0,029
1107,4	0,047
1107,8	0,091
1108,3	0,461
