Data from Absorbance_00012.txt Node
Date: Wed Aug 02 17:39:32 MSK 2023
User: vat
Spectrometer: MAYP114033
Trigger mode: 0
Integration Time (sec): 8,000000E-3
Scans to average: 10
Electric dark correction enabled: true
Nonlinearity correction enabled: false
Boxcar width: 3
XAxis mode: Wavelengths
Number of Pixels in Spectrum: 2068
>>>>>Begin Spectral Data<<<<<
199,4	-0,915
199,9	0,609
200,4	0,601
200,8	0,815
201,3	0,875
201,8	0,921
202,2	0,942
202,7	0,95
203,2	0,974
203,6	1,018
204,1	1,046
204,6	1,053
205	1,056
205,5	1,071
206	1,077
206,4	1,108
206,9	1,123
207,4	1,123
207,8	1,135
208,3	1,148
208,8	1,148
209,2	1,172
209,7	1,195
210,2	1,183
210,6	1,201
211,1	1,216
211,5	1,245
212	1,26
212,5	1,285
212,9	1,289
213,4	1,304
213,9	1,311
214,3	1,346
214,8	1,341
215,3	1,371
215,7	1,341
216,2	1,345
216,7	1,376
217,1	1,384
217,6	1,379
218,1	1,392
218,5	1,386
219	1,407
219,5	1,431
219,9	1,417
220,4	1,406
220,9	1,394
221,3	1,363
221,8	1,348
222,3	1,327
222,7	1,286
223,2	1,26
223,6	1,236
224,1	1,21
224,6	1,189
225	1,162
225,5	1,128
226	1,101
226,4	1,07
226,9	1,044
227,4	1,017
227,8	0,994
228,3	0,972
228,8	0,952
229,2	0,932
229,7	0,916
230,2	0,899
230,6	0,887
231,1	0,872
231,5	0,86
232	0,851
232,5	0,844
232,9	0,835
233,4	0,832
233,9	0,831
234,3	0,832
234,8	0,835
235,3	0,838
235,7	0,843
236,2	0,852
236,7	0,86
237,1	0,869
237,6	0,881
238,1	0,895
238,5	0,911
239	0,926
239,4	0,946
239,9	0,965
240,4	0,986
240,8	1,006
241,3	1,03
241,8	1,052
242,2	1,08
242,7	1,106
243,2	1,137
243,6	1,163
244,1	1,193
244,6	1,22
245	1,255
245,5	1,288
245,9	1,322
246,4	1,35
246,9	1,383
247,3	1,416
247,8	1,446
248,3	1,476
248,7	1,502
249,2	1,527
249,7	1,555
250,1	1,58
250,6	1,598
251	1,619
251,5	1,634
252	1,651
252,4	1,668
252,9	1,681
253,4	1,701
253,8	1,716
254,3	1,736
254,8	1,747
255,2	1,752
255,7	1,769
256,1	1,778
256,6	1,77
257,1	1,785
257,5	1,781
258	1,791
258,5	1,791
258,9	1,785
259,4	1,779
259,9	1,784
260,3	1,768
260,8	1,76
261,2	1,755
261,7	1,749
262,2	1,739
262,6	1,729
263,1	1,711
263,6	1,692
264	1,691
264,5	1,681
264,9	1,67
265,4	1,647
265,9	1,629
266,3	1,612
266,8	1,598
267,3	1,561
267,7	1,517
268,2	1,483
268,7	1,453
269,1	1,412
269,6	1,374
270	1,336
270,5	1,305
271	1,268
271,4	1,231
271,9	1,191
272,4	1,155
272,8	1,116
273,3	1,075
273,7	1,033
274,2	0,992
274,7	0,951
275,1	0,911
275,6	0,87
276,1	0,83
276,5	0,792
277	0,754
277,4	0,717
277,9	0,683
278,4	0,65
278,8	0,619
279,3	0,59
279,8	0,563
280,2	0,535
280,7	0,509
281,1	0,485
281,6	0,461
282,1	0,439
282,5	0,417
283	0,397
283,4	0,378
283,9	0,362
284,4	0,345
284,8	0,33
285,3	0,315
285,8	0,302
286,2	0,288
286,7	0,276
287,1	0,265
287,6	0,255
288,1	0,245
288,5	0,237
289	0,228
289,5	0,221
289,9	0,214
290,4	0,207
290,8	0,2
291,3	0,195
291,8	0,19
292,2	0,186
292,7	0,183
293,1	0,18
293,6	0,178
294,1	0,177
294,5	0,175
295	0,175
295,5	0,173
295,9	0,173
296,4	0,172
296,8	0,172
297,3	0,172
297,8	0,172
298,2	0,172
298,7	0,173
299,1	0,174
299,6	0,174
300,1	0,176
300,5	0,176
301	0,178
301,5	0,179
301,9	0,18
302,4	0,181
302,8	0,182
303,3	0,183
303,8	0,184
304,2	0,185
304,7	0,187
305,1	0,189
305,6	0,19
306,1	0,192
306,5	0,194
307	0,195
307,4	0,197
307,9	0,198
308,4	0,199
308,8	0,2
309,3	0,201
309,8	0,203
310,2	0,205
310,7	0,205
311,1	0,207
311,6	0,208
312,1	0,21
312,5	0,211
313	0,212
313,4	0,213
313,9	0,214
314,4	0,215
314,8	0,216
315,3	0,217
315,7	0,216
316,2	0,217
316,7	0,217
317,1	0,218
317,6	0,218
318	0,218
318,5	0,218
319	0,218
319,4	0,218
319,9	0,219
320,3	0,219
320,8	0,22
321,3	0,221
321,7	0,221
322,2	0,222
322,6	0,222
323,1	0,223
323,6	0,223
324	0,223
324,5	0,222
324,9	0,222
325,4	0,222
325,9	0,221
326,3	0,22
326,8	0,22
327,2	0,219
327,7	0,219
328,2	0,218
328,6	0,218
329,1	0,216
329,5	0,216
330	0,214
330,5	0,213
330,9	0,212
331,4	0,211
331,8	0,209
332,3	0,209
332,8	0,207
333,2	0,207
333,7	0,206
334,1	0,204
334,6	0,203
335,1	0,202
335,5	0,2
336	0,198
336,4	0,196
336,9	0,194
337,4	0,193
337,8	0,191
338,3	0,188
338,7	0,186
339,2	0,184
339,7	0,182
340,1	0,18
340,6	0,178
341	0,176
341,5	0,174
342	0,172
342,4	0,17
342,9	0,168
343,3	0,166
343,8	0,164
344,2	0,162
344,7	0,159
345,2	0,157
345,6	0,155
346,1	0,153
346,5	0,15
347	0,149
347,5	0,147
347,9	0,145
348,4	0,143
348,8	0,141
349,3	0,139
349,8	0,137
350,2	0,134
350,7	0,132
351,1	0,13
351,6	0,127
352	0,124
352,5	0,122
353	0,121
353,4	0,119
353,9	0,118
354,3	0,116
354,8	0,114
355,3	0,112
355,7	0,11
356,2	0,107
356,6	0,105
357,1	0,103
357,5	0,101
358	0,099
358,5	0,098
358,9	0,097
359,4	0,095
359,8	0,092
360,3	0,091
360,8	0,089
361,2	0,088
361,7	0,086
362,1	0,083
362,6	0,081
363	0,08
363,5	0,079
364	0,076
364,4	0,074
364,9	0,073
365,3	0,072
365,8	0,071
366,3	0,07
366,7	0,069
367,2	0,068
367,6	0,068
368,1	0,066
368,5	0,064
369	0,063
369,5	0,062
369,9	0,061
370,4	0,06
370,8	0,058
371,3	0,058
371,7	0,057
372,2	0,056
372,7	0,054
373,1	0,053
373,6	0,052
374	0,051
374,5	0,05
374,9	0,049
375,4	0,048
375,9	0,048
376,3	0,047
376,8	0,046
377,2	0,045
377,7	0,045
378,2	0,045
378,6	0,044
379,1	0,042
379,5	0,042
380	0,041
380,4	0,041
380,9	0,039
381,4	0,038
381,8	0,037
382,3	0,037
382,7	0,036
383,2	0,036
383,6	0,035
384,1	0,035
384,6	0,035
385	0,034
385,5	0,034
385,9	0,033
386,4	0,032
386,8	0,033
387,3	0,032
387,7	0,031
388,2	0,031
388,7	0,031
389,1	0,03
389,6	0,03
390	0,028
390,5	0,028
390,9	0,029
391,4	0,028
391,9	0,028
392,3	0,028
392,8	0,028
393,2	0,028
393,7	0,028
394,1	0,027
394,6	0,027
395,1	0,026
395,5	0,026
396	0,026
396,4	0,025
396,9	0,025
397,3	0,024
397,8	0,025
398,2	0,025
398,7	0,025
399,2	0,025
399,6	0,024
400,1	0,025
400,5	0,024
401	0,024
401,4	0,023
401,9	0,023
402,4	0,022
402,8	0,021
403,3	0,021
403,7	0,02
404,2	0,019
404,6	0,02
405,1	0,019
405,5	0,019
406	0,019
406,5	0,019
406,9	0,02
407,4	0,02
407,8	0,02
408,3	0,019
408,7	0,019
409,2	0,019
409,6	0,018
410,1	0,018
410,6	0,018
411	0,017
411,5	0,018
411,9	0,019
412,4	0,018
412,8	0,018
413,3	0,018
413,7	0,018
414,2	0,018
414,7	0,017
415,1	0,016
415,6	0,016
416	0,017
416,5	0,016
416,9	0,016
417,4	0,015
417,8	0,015
418,3	0,016
418,8	0,016
419,2	0,016
419,7	0,015
420,1	0,015
420,6	0,015
421	0,015
421,5	0,015
421,9	0,014
422,4	0,015
422,8	0,015
423,3	0,015
423,8	0,015
424,2	0,015
424,7	0,015
425,1	0,015
425,6	0,015
426	0,014
426,5	0,014
426,9	0,014
427,4	0,013
427,9	0,013
428,3	0,013
428,8	0,013
429,2	0,014
429,7	0,013
430,1	0,013
430,6	0,014
431	0,014
431,5	0,014
431,9	0,014
432,4	0,014
432,8	0,013
433,3	0,014
433,8	0,013
434,2	0,013
434,7	0,014
435,1	0,013
435,6	0,013
436	0,013
436,5	0,013
436,9	0,013
437,4	0,013
437,8	0,012
438,3	0,013
438,8	0,013
439,2	0,013
439,7	0,013
440,1	0,012
440,6	0,012
441	0,013
441,5	0,012
441,9	0,012
442,4	0,012
442,8	0,012
443,3	0,012
443,7	0,012
444,2	0,011
444,7	0,011
445,1	0,01
445,6	0,01
446	0,01
446,5	0,01
446,9	0,01
447,4	0,01
447,8	0,01
448,3	0,01
448,7	0,011
449,2	0,011
449,6	0,011
450,1	0,011
450,6	0,011
451	0,011
451,5	0,012
451,9	0,011
452,4	0,011
452,8	0,011
453,3	0,01
453,7	0,01
454,2	0,01
454,6	0,01
455,1	0,01
455,5	0,01
456	0,011
456,4	0,011
456,9	0,011
457,3	0,011
457,8	0,01
458,3	0,01
458,7	0,01
459,2	0,01
459,6	0,011
460,1	0,01
460,5	0,01
461	0,01
461,4	0,01
461,9	0,01
462,3	0,009
462,8	0,01
463,2	0,009
463,7	0,01
464,1	0,01
464,6	0,009
465	0,01
465,5	0,01
466	0,01
466,4	0,01
466,9	0,009
467,3	0,009
467,8	0,009
468,2	0,009
468,7	0,008
469,1	0,008
469,6	0,008
470	0,008
470,5	0,007
470,9	0,008
471,4	0,009
471,8	0,008
472,3	0,009
472,7	0,009
473,2	0,009
473,6	0,009
474,1	0,009
474,5	0,008
475	0,008
475,4	0,007
475,9	0,007
476,4	0,007
476,8	0,008
477,3	0,008
477,7	0,008
478,2	0,009
478,6	0,009
479,1	0,009
479,5	0,009
480	0,008
480,4	0,008
480,9	0,007
481,3	0,007
481,8	0,008
482,2	0,008
482,7	0,008
483,1	0,008
483,6	0,007
484	0,007
484,5	0,007
484,9	0,006
485,4	0,006
485,8	0,006
486,3	0,006
486,7	0,007
487,2	0,007
487,6	0,007
488,1	0,007
488,5	0,007
489	0,007
489,4	0,006
489,9	0,006
490,4	0,006
490,8	0,006
491,3	0,006
491,7	0,006
492,2	0,005
492,6	0,005
493,1	0,005
493,5	0,005
494	0,006
494,4	0,006
494,9	0,007
495,3	0,007
495,8	0,008
496,2	0,007
496,7	0,007
497,1	0,007
497,6	0,007
498	0,007
498,5	0,007
498,9	0,006
499,4	0,006
499,8	0,007
500,3	0,007
500,7	0,007
501,2	0,007
501,6	0,007
502,1	0,008
502,5	0,008
503	0,008
503,4	0,008
503,9	0,007
504,3	0,007
504,8	0,007
505,2	0,005
505,7	0,006
506,1	0,006
506,6	0,006
507	0,006
507,5	0,006
507,9	0,006
508,4	0,007
508,8	0,006
509,3	0,006
509,7	0,005
510,2	0,005
510,6	0,005
511,1	0,005
511,5	0,005
512	0,005
512,4	0,005
512,9	0,005
513,3	0,005
513,8	0,004
514,2	0,005
514,7	0,005
515,1	0,006
515,6	0,006
516	0,006
516,5	0,007
516,9	0,007
517,4	0,007
517,8	0,007
518,3	0,007
518,7	0,007
519,2	0,007
519,6	0,007
520,1	0,007
520,5	0,007
521	0,007
521,4	0,007
521,9	0,007
522,3	0,006
522,8	0,006
523,2	0,005
523,7	0,005
524,1	0,005
524,6	0,005
525	0,005
525,5	0,005
525,9	0,006
526,4	0,006
526,8	0,005
527,3	0,005
527,7	0,005
528,2	0,005
528,6	0,005
529,1	0,004
529,5	0,004
530	0,005
530,4	0,005
530,9	0,005
531,3	0,004
531,8	0,005
532,2	0,005
532,6	0,005
533,1	0,005
533,5	0,005
534	0,005
534,4	0,005
534,9	0,005
535,3	0,005
535,8	0,005
536,2	0,006
536,7	0,005
537,1	0,005
537,6	0,005
538	0,005
538,5	0,006
538,9	0,006
539,4	0,005
539,8	0,005
540,3	0,005
540,7	0,005
541,2	0,005
541,6	0,005
542,1	0,005
542,5	0,005
543	0,005
543,4	0,004
543,9	0,005
544,3	0,005
544,8	0,004
545,2	0,005
545,7	0,004
546,1	0,004
546,5	0,005
547	0,004
547,4	0,005
547,9	0,004
548,3	0,005
548,8	0,005
549,2	0,005
549,7	0,005
550,1	0,005
550,6	0,005
551	0,005
551,5	0,006
551,9	0,005
552,4	0,005
552,8	0,004
553,3	0,004
553,7	0,003
554,2	0,004
554,6	0,003
555,1	0,004
555,5	0,003
555,9	0,004
556,4	0,004
556,8	0,003
557,3	0,003
557,7	0,003
558,2	0,003
558,6	0,003
559,1	0,003
559,5	0,004
560	0,004
560,4	0,004
560,9	0,004
561,3	0,004
561,8	0,004
562,2	0,004
562,7	0,005
563,1	0,005
563,6	0,005
564	0,005
564,4	0,005
564,9	0,005
565,3	0,005
565,8	0,004
566,2	0,003
566,7	0,003
567,1	0,004
567,6	0,004
568	0,004
568,5	0,004
568,9	0,004
569,4	0,004
569,8	0,004
570,3	0,004
570,7	0,003
571,1	0,003
571,6	0,003
572	0,004
572,5	0,004
572,9	0,004
573,4	0,004
573,8	0,005
574,3	0,004
574,7	0,004
575,2	0,004
575,6	0,003
576,1	0,003
576,5	0,004
576,9	0,003
577,4	0,004
577,8	0,003
578,3	0,003
578,7	0,003
579,2	0,003
579,6	0,003
580,1	0,003
580,5	0,003
581	0,003
581,4	0,003
581,9	0,003
582,3	0,004
582,7	0,004
583,2	0,004
583,6	0,004
584,1	0,004
584,5	0,004
585	0,004
585,4	0,004
585,9	0,004
586,3	0,004
586,8	0,004
587,2	0,004
587,6	0,003
588,1	0,004
588,5	0,003
589	0,003
589,4	0,003
589,9	0,003
590,3	0,003
590,8	0,003
591,2	0,004
591,7	0,004
592,1	0,004
592,5	0,004
593	0,004
593,4	0,004
593,9	0,004
594,3	0,004
594,8	0,004
595,2	0,004
595,7	0,004
596,1	0,004
596,6	0,004
597	0,004
597,4	0,004
597,9	0,004
598,3	0,003
598,8	0,003
599,2	0,003
599,7	0,003
600,1	0,003
600,6	0,003
601	0,003
601,4	0,003
601,9	0,003
602,3	0,004
602,8	0,003
603,2	0,003
603,7	0,003
604,1	0,004
604,6	0,004
605	0,003
605,4	0,003
605,9	0,003
606,3	0,004
606,8	0,004
607,2	0,004
607,7	0,004
608,1	0,004
608,6	0,004
609	0,003
609,4	0,003
609,9	0,003
610,3	0,003
610,8	0,003
611,2	0,003
611,7	0,003
612,1	0,003
612,6	0,004
613	0,003
613,4	0,003
613,9	0,003
614,3	0,004
614,8	0,004
615,2	0,003
615,7	0,003
616,1	0,002
616,6	0,002
617	0,002
617,4	0,002
617,9	0,002
618,3	0,002
618,8	0,002
619,2	0,002
619,7	0,002
620,1	0,003
620,5	0,002
621	0,002
621,4	0,002
621,9	0,002
622,3	0,002
622,8	0,003
623,2	0,003
623,6	0,003
624,1	0,003
624,5	0,003
625	0,003
625,4	0,003
625,9	0,003
626,3	0,002
626,8	0,002
627,2	0,002
627,6	0,003
628,1	0,003
628,5	0,003
629	0,003
629,4	0,003
629,9	0,004
630,3	0,004
630,7	0,004
631,2	0,004
631,6	0,004
632,1	0,004
632,5	0,004
633	0,004
633,4	0,004
633,8	0,004
634,3	0,004
634,7	0,004
635,2	0,003
635,6	0,004
636,1	0,003
636,5	0,003
636,9	0,003
637,4	0,003
637,8	0,003
638,3	0,003
638,7	0,003
639,2	0,003
639,6	0,003
640	0,002
640,5	0,003
640,9	0,003
641,4	0,003
641,8	0,003
642,2	0,003
642,7	0,004
643,1	0,004
643,6	0,004
644	0,003
644,5	0,003
644,9	0,003
645,3	0,003
645,8	0,003
646,2	0,002
646,7	0,003
647,1	0,003
647,6	0,003
648	0,003
648,4	0,003
648,9	0,003
649,3	0,003
649,8	0,003
650,2	0,003
650,6	0,004
651,1	0,003
651,5	0,003
652	0,004
652,4	0,003
652,9	0,004
653,3	0,004
653,7	0,004
654,2	0,004
654,6	0,004
655,1	0,003
655,5	0,003
655,9	0,002
656,4	0,002
656,8	0,002
657,3	0,002
657,7	0,002
658,2	0,002
658,6	0,002
659	0,002
659,5	0,004
659,9	0,003
660,4	0,003
660,8	0,003
661,2	0,003
661,7	0,004
662,1	0,004
662,6	0,004
663	0,004
663,4	0,004
663,9	0,004
664,3	0,004
664,8	0,004
665,2	0,003
665,6	0,004
666,1	0,003
666,5	0,003
667	0,003
667,4	0,003
667,9	0,003
668,3	0,003
668,7	0,003
669,2	0,003
669,6	0,003
670,1	0,003
670,5	0,003
670,9	0,004
671,4	0,004
671,8	0,003
672,3	0,003
672,7	0,003
673,1	0,003
673,6	0,003
674	0,003
674,5	0,003
674,9	0,003
675,3	0,003
675,8	0,003
676,2	0,002
676,7	0,002
677,1	0,002
677,5	0,002
678	0,002
678,4	0,002
678,9	0,002
679,3	0,002
679,7	0,002
680,2	0,002
680,6	0,001
681,1	0,001
681,5	0,002
681,9	0,002
682,4	0,002
682,8	0,002
683,3	0,002
683,7	0,003
684,1	0,003
684,6	0,003
685	0,003
685,5	0,003
685,9	0,002
686,3	0,002
686,8	0,003
687,2	0,002
687,7	0,002
688,1	0,002
688,5	0,002
689	0,002
689,4	0,001
689,9	0,001
690,3	0,001
690,7	0,001
691,2	0,001
691,6	0,002
692	0,002
692,5	0,002
692,9	0,002
693,4	0,002
693,8	0,003
694,2	0,003
694,7	0,003
695,1	0,003
695,6	0,003
696	0,002
696,4	0,003
696,9	0,003
697,3	0,002
697,8	0,002
698,2	0,002
698,6	0,002
699,1	0,002
699,5	0,002
699,9	0,002
700,4	0,002
700,8	0,002
701,3	0,002
701,7	0,003
702,1	0,002
702,6	0,002
703	0,003
703,5	0,002
703,9	0,003
704,3	0,003
704,8	0,003
705,2	0,003
705,6	0,003
706,1	0,002
706,5	0,002
707	0,002
707,4	0,002
707,8	0,002
708,3	0,002
708,7	0,002
709,2	0,002
709,6	0,002
710	0,003
710,5	0,003
710,9	0,003
711,3	0,003
711,8	0,003
712,2	0,003
712,7	0,003
713,1	0,002
713,5	0,002
714	0,002
714,4	0,002
714,8	0,002
715,3	0,002
715,7	0,002
716,2	0,002
716,6	0,002
717	0,002
717,5	0,002
717,9	0,002
718,3	0,001
718,8	0,002
719,2	0,002
719,7	0,002
720,1	0,002
720,5	0,003
721	0,003
721,4	0,003
721,8	0,003
722,3	0,003
722,7	0,003
723,2	0,003
723,6	0,002
724	0,002
724,5	0,002
724,9	0,002
725,3	0,002
725,8	0,002
726,2	0,002
726,7	0,002
727,1	0,002
727,5	0,002
728	0,002
728,4	0,002
728,8	0,002
729,3	0,002
729,7	0,002
730,1	0,002
730,6	0,002
731	0,002
731,5	0,002
731,9	0,002
732,3	0,002
732,8	0,002
733,2	0,001
733,6	0,001
734,1	0,001
734,5	0,002
734,9	0,002
735,4	0,002
735,8	0,002
736,3	0,002
736,7	0,002
737,1	0,002
737,6	0,002
738	0,002
738,4	0,002
738,9	0,002
739,3	0,002
739,7	0,002
740,2	0,002
740,6	0,002
741,1	0,002
741,5	0,002
741,9	0,001
742,4	0,001
742,8	0,002
743,2	0,002
743,7	0,002
744,1	0,002
744,5	0,002
745	0,003
745,4	0,003
745,8	0,003
746,3	0,003
746,7	0,003
747,2	0,003
747,6	0,003
748	0,002
748,5	0,002
748,9	0,002
749,3	0,002
749,8	0,002
750,2	0,002
750,6	0,003
751,1	0,003
751,5	0,003
751,9	0,003
752,4	0,003
752,8	0,002
753,3	0,002
753,7	0,002
754,1	0,002
754,6	0,002
755	0,002
755,4	0,002
755,9	0,002
756,3	0,002
756,7	0,002
757,2	0,002
757,6	0,002
758	0,002
758,5	0,002
758,9	0,002
759,3	0,002
759,8	0,002
760,2	0,002
760,6	0,002
761,1	0,002
761,5	0,002
761,9	0,001
762,4	0,001
762,8	0,001
763,3	0,001
763,7	0,001
764,1	0,001
764,6	0,001
765	0,001
765,4	0,001
765,9	0,001
766,3	0,001
766,7	0,001
767,2	0,002
767,6	0,002
768	0,002
768,5	0,002
768,9	0,002
769,3	0,002
769,8	0,002
770,2	0,002
770,6	0,002
771,1	0,002
771,5	0,002
771,9	0,002
772,4	0,002
772,8	0,001
773,2	0,002
773,7	0,002
774,1	0,002
774,5	0,002
775	0,003
775,4	0,003
775,8	0,003
776,3	0,003
776,7	0,002
777,1	0,003
777,6	0,002
778	0,002
778,4	0,002
778,9	0,002
779,3	0,002
779,7	0,002
780,2	0,002
780,6	0,003
781	0,002
781,5	0,002
781,9	0,002
782,3	0,002
782,8	0,002
783,2	0,002
783,6	0,001
784,1	0,001
784,5	0,002
784,9	0,002
785,4	0,001
785,8	0,002
786,2	0,002
786,7	0,002
787,1	0,002
787,5	0,001
788	0,002
788,4	0,002
788,8	0,002
789,3	0,002
789,7	0,002
790,1	0,002
790,6	0,002
791	0,002
791,4	0,002
791,9	0,002
792,3	0,002
792,7	0,002
793,2	0,002
793,6	0,002
794	0,002
794,5	0,003
794,9	0,003
795,3	0,003
795,8	0,002
796,2	0,002
796,6	0,002
797,1	0,002
797,5	0,002
797,9	0,002
798,4	0,002
798,8	0,002
799,2	0,002
799,7	0,002
800,1	0,002
800,5	0,002
801	0,002
801,4	0,002
801,8	0,002
802,2	0,002
802,7	0,003
803,1	0,003
803,5	0,003
804	0,003
804,4	0,003
804,8	0,003
805,3	0,003
805,7	0,002
806,1	0,002
806,6	0,001
807	0,001
807,4	0,001
807,9	0,001
808,3	0,001
808,7	0,001
809,2	0,001
809,6	0,001
810	0,001
810,4	0,001
810,9	0,001
811,3	0,001
811,7	0,001
812,2	0,002
812,6	0,002
813	0,002
813,5	0,002
813,9	0,002
814,3	0,002
814,8	0,002
815,2	0,001
815,6	0,002
816,1	0,001
816,5	0,002
816,9	0,001
817,3	0,001
817,8	0,001
818,2	0,001
818,6	0,001
819,1	0,001
819,5	0,001
819,9	0,002
820,4	0,002
820,8	0,002
821,2	0,002
821,7	0,002
822,1	0,002
822,5	0,002
822,9	0,002
823,4	0,002
823,8	0,002
824,2	0,002
824,7	0,002
825,1	0,002
825,5	0,002
826	0,001
826,4	0,001
826,8	0,001
827,3	0,002
827,7	0,001
828,1	0,001
828,5	0,001
829	0,001
829,4	0,001
829,8	0,001
830,3	0
830,7	0
831,1	0
831,6	0,001
832	0
832,4	0,001
832,8	0,001
833,3	0,001
833,7	0,001
834,1	0,001
834,6	0,001
835	0,002
835,4	0,002
835,8	0,002
836,3	0,002
836,7	0,002
837,1	0,002
837,6	0,002
838	0,002
838,4	0,002
838,9	0,002
839,3	0,002
839,7	0,002
840,1	0,002
840,6	0,002
841	0,002
841,4	0,002
841,9	0,002
842,3	0,002
842,7	0,002
843,1	0,002
843,6	0,002
844	0,002
844,4	0,002
844,9	0,002
845,3	0,002
845,7	0,002
846,2	0,002
846,6	0,002
847	0,002
847,4	0,001
847,9	0,001
848,3	0,001
848,7	0,001
849,2	0,001
849,6	0,001
850	0,001
850,4	0,001
850,9	0,002
851,3	0,002
851,7	0,001
852,2	0,001
852,6	0,001
853	0,001
853,4	0,001
853,9	0,001
854,3	0,001
854,7	0,001
855,2	0,001
855,6	0,001
856	0,002
856,4	0,002
856,9	0,002
857,3	0,002
857,7	0,002
858,2	0,002
858,6	0,002
859	0,002
859,4	0,001
859,9	0,001
860,3	0,001
860,7	0,001
861,1	0,001
861,6	0,001
862	0,001
862,4	0,001
862,9	0,001
863,3	0,001
863,7	0,001
864,1	0,001
864,6	0,001
865	0,001
865,4	0,002
865,9	0,001
866,3	0,001
866,7	0,001
867,1	0,001
867,6	0,001
868	0,001
868,4	0,001
868,8	0,002
869,3	0,002
869,7	0,002
870,1	0,002
870,6	0,002
871	0,002
871,4	0,002
871,8	0,002
872,3	0,002
872,7	0,002
873,1	0,002
873,5	0,002
874	0,001
874,4	0,001
874,8	0,001
875,3	0,001
875,7	0,001
876,1	0,001
876,5	0,001
877	0,002
877,4	0,002
877,8	0,002
878,2	0,002
878,7	0,003
879,1	0,003
879,5	0,002
879,9	0,002
880,4	0,002
880,8	0,002
881,2	0,002
881,7	0,002
882,1	0,002
882,5	0,002
882,9	0,002
883,4	0,002
883,8	0,002
884,2	0,002
884,6	0,002
885,1	0,002
885,5	0,002
885,9	0,002
886,3	0,002
886,8	0,002
887,2	0,002
887,6	0,001
888	0,001
888,5	0,001
888,9	0,001
889,3	0,001
889,8	0,001
890,2	0,001
890,6	0,002
891	0,002
891,5	0,002
891,9	0,002
892,3	0,002
892,7	0,002
893,2	0,002
893,6	0,002
894	0,002
894,4	0,001
894,9	0,001
895,3	0,002
895,7	0,002
896,1	0,001
896,6	0,002
897	0,001
897,4	0,001
897,8	0,002
898,3	0,001
898,7	0,001
899,1	0,001
899,5	0,001
900	0,001
900,4	0
900,8	0,001
901,2	0,001
901,7	0,001
902,1	0,001
902,5	0,002
902,9	0,002
903,4	0,002
903,8	0,001
904,2	0,001
904,6	0,001
905,1	0,001
905,5	0,001
905,9	0,002
906,3	0,002
906,8	0,002
907,2	0,002
907,6	0,002
908	0,002
908,5	0,002
908,9	0,002
909,3	0,002
909,7	0,002
910,2	0,002
910,6	0,002
911	0,002
911,4	0,002
911,9	0,002
912,3	0,002
912,7	0,002
913,1	0,002
913,6	0,002
914	0,002
914,4	0,002
914,8	0,002
915,3	0,001
915,7	0,002
916,1	0,001
916,5	0,001
916,9	0,001
917,4	0,001
917,8	0,001
918,2	0,001
918,6	0,001
919,1	0,001
919,5	0,001
919,9	0,002
920,3	0,002
920,8	0,002
921,2	0,002
921,6	0,002
922	0,002
922,5	0,002
922,9	0,002
923,3	0,002
923,7	0,002
924,2	0,001
924,6	0,001
925	0,001
925,4	0,001
925,8	0,001
926,3	0,001
926,7	0,001
927,1	0,001
927,5	0,001
928	0,001
928,4	0,001
928,8	0,002
929,2	0,002
929,7	0,002
930,1	0,003
930,5	0,002
930,9	0,002
931,3	0,002
931,8	0,002
932,2	0,002
932,6	0,002
933	0,002
933,5	0,003
933,9	0,002
934,3	0,003
934,7	0,003
935,2	0,003
935,6	0,002
936	0,002
936,4	0,002
936,8	0,002
937,3	0,002
937,7	0,001
938,1	0,001
938,5	0,001
939	0,001
939,4	0,001
939,8	0,001
940,2	0,001
940,6	0,001
941,1	0
941,5	0
941,9	0,001
942,3	0
942,8	0,001
943,2	0
943,6	0,001
944	0,001
944,4	0,001
944,9	0,002
945,3	0,002
945,7	0,002
946,1	0,003
946,6	0,002
947	0,002
947,4	0,002
947,8	0,002
948,2	0,002
948,7	0,002
949,1	0,002
949,5	0,002
949,9	0,002
950,3	0,002
950,8	0,002
951,2	0,002
951,6	0,002
952	0,002
952,5	0,003
952,9	0,003
953,3	0,002
953,7	0,002
954,1	0,002
954,6	0,002
955	0,001
955,4	0,002
955,8	0,002
956,2	0,002
956,7	0,002
957,1	0,001
957,5	0,001
957,9	0,001
958,3	0
958,8	0
959,2	0,001
959,6	0,001
960	0,002
960,5	0,002
960,9	0,003
961,3	0,003
961,7	0,003
962,1	0,002
962,6	0,002
963	0,001
963,4	0,002
963,8	0,002
964,2	0,002
964,7	0,001
965,1	0,001
965,5	0,001
965,9	0,001
966,3	0,001
966,8	0,001
967,2	0,001
967,6	0,002
968	0,003
968,4	0,002
968,9	0,003
969,3	0,003
969,7	0,003
970,1	0,003
970,5	0,003
971	0,002
971,4	0,002
971,8	0,002
972,2	0,001
972,6	0,002
973,1	0,002
973,5	0,001
973,9	0,001
974,3	0,001
974,7	0,001
975,2	0,001
975,6	0,001
976	0,001
976,4	0,001
976,8	0,002
977,3	0,002
977,7	0,002
978,1	0,002
978,5	0,002
978,9	0,002
979,4	0,002
979,8	0,002
980,2	0,002
980,6	0,002
981	0,002
981,5	0,003
981,9	0,003
982,3	0,002
982,7	0,001
983,1	0,001
983,6	0,002
984	0,002
984,4	0,001
984,8	0,001
985,2	0,001
985,6	0,002
986,1	0,002
986,5	0,001
986,9	0,002
987,3	0,001
987,7	0,001
988,2	0,002
988,6	0,002
989	0,002
989,4	0,002
989,8	0,002
990,3	0,004
990,7	0,004
991,1	0,004
991,5	0,004
991,9	0,003
992,3	0,003
992,8	0,003
993,2	0,001
993,6	0,001
994	0,001
994,4	0,001
994,9	0,002
995,3	0,001
995,7	0,001
996,1	0,002
996,5	0,002
996,9	0,001
997,4	0,002
997,8	0,002
998,2	0,002
998,6	0,002
999	0,002
999,5	0,002
999,9	0,002
1000,3	0,002
1000,7	0,002
1001,1	0,002
1001,5	0,002
1002	0,002
1002,4	0,003
1002,8	0,002
1003,2	0,002
1003,6	0,002
1004	0,002
1004,5	0,002
1004,9	0,002
1005,3	0,002
1005,7	0,002
1006,1	0,002
1006,6	0,003
1007	0,003
1007,4	0,003
1007,8	0,004
1008,2	0,004
1008,6	0,003
1009,1	0,004
1009,5	0,003
1009,9	0,002
1010,3	0,002
1010,7	0,002
1011,1	0,001
1011,6	0,002
1012	0,002
1012,4	0,002
1012,8	0,003
1013,2	0,003
1013,6	0,003
1014,1	0,003
1014,5	0,003
1014,9	0,003
1015,3	0,002
1015,7	0,001
1016,1	0,001
1016,6	0
1017	0,001
1017,4	0
1017,8	0,001
1018,2	0
1018,6	0,001
1019,1	0,001
1019,5	0,002
1019,9	0,002
1020,3	0,003
1020,7	0,002
1021,1	0,002
1021,6	0,002
1022	0,001
1022,4	0,001
1022,8	0,001
1023,2	0,001
1023,6	0,001
1024,1	0,001
1024,5	0,001
1024,9	0,002
1025,3	0,002
1025,7	0,001
1026,1	0,002
1026,6	0,002
1027	0,002
1027,4	0,002
1027,8	0,001
1028,2	0,001
1028,6	0,001
1029	0,001
1029,5	0,001
1029,9	0,001
1030,3	0,001
1030,7	0,001
1031,1	0,001
1031,5	0,001
1032	0,001
1032,4	0,001
1032,8	0,002
1033,2	0,002
1033,6	0,001
1034	0,002
1034,4	0,002
1034,9	0,001
1035,3	0,001
1035,7	0,001
1036,1	0,001
1036,5	0,002
1036,9	0,002
1037,4	0,002
1037,8	0,002
1038,2	0,002
1038,6	0,002
1039	0,002
1039,4	0,001
1039,8	0,002
1040,3	0,002
1040,7	0,001
1041,1	0,001
1041,5	0,001
1041,9	0,002
1042,3	0,002
1042,7	0,001
1043,2	0,001
1043,6	0,001
1044	0,002
1044,4	0,001
1044,8	0,001
1045,2	0
1045,6	0,002
1046,1	0,002
1046,5	0,001
1046,9	0
1047,3	0,001
1047,7	0
1048,1	-0,001
1048,5	-0
1049	-0,001
1049,4	0,001
1049,8	0
1050,2	0,001
1050,6	0,002
1051	0,002
1051,4	0,001
1051,9	0,002
1052,3	0,001
1052,7	0,001
1053,1	0,001
1053,5	-0
1053,9	0
1054,3	0
1054,8	-0
1055,2	0
1055,6	0
1056	-0
1056,4	0
1056,8	-0
1057,2	0,001
1057,6	0,002
1058,1	0,002
1058,5	0,003
1058,9	0,003
1059,3	0,003
1059,7	0,003
1060,1	0,003
1060,5	0,002
1061	0,003
1061,4	0,002
1061,8	0,001
1062,2	0,001
1062,6	0,001
1063	0,001
1063,4	0,001
1063,8	0,001
1064,3	-0
1064,7	-0
1065,1	0
1065,5	0,001
1065,9	0,001
1066,3	0,001
1066,7	0,001
1067,1	0,002
1067,6	0,002
1068	0,002
1068,4	0,002
1068,8	0,002
1069,2	0,002
1069,6	0,002
1070	0,002
1070,4	0,002
1070,9	0,001
1071,3	0,001
1071,7	0,001
1072,1	0
1072,5	0,001
1072,9	-0
1073,3	0
1073,7	-0
1074,2	-0,001
1074,6	-0,002
1075	-0
1075,4	-0,002
1075,8	-0
1076,2	-0
1076,6	-0
1077	0,002
1077,5	0,003
1077,9	0,001
1078,3	0,003
1078,7	0,002
1079,1	0,002
1079,5	0,003
1079,9	0,001
1080,3	0,002
1080,7	0,003
1081,2	0,004
1081,6	0,004
1082	0,004
1082,4	0,004
1082,8	0,004
1083,2	0,004
1083,6	0,002
1084	0,001
1084,5	0,001
1084,9	0
1085,3	-0,002
1085,7	-0,001
1086,1	-0
1086,5	0,001
1086,9	0
1087,3	-0,001
1087,7	0
1088,2	0,002
1088,6	0,003
1089	0,001
1089,4	0,001
1089,8	0,003
1090,2	0,003
1090,6	0,001
1091	0,005
1091,4	0,002
1091,9	-0
1092,3	0,001
1092,7	-0,003
1093,1	0,001
1093,5	0,002
1093,9	0,004
1094,3	0,005
1094,7	0,005
1095,1	0,002
1095,5	0,006
1096	-0,001
1096,4	0
1096,8	-0,004
1097,2	-0,005
1097,6	-0,006
1098	-0,007
1098,4	-0,007
1098,8	-0,006
1099,2	-0,01
1099,6	-0,006
1100,1	-0,005
1100,5	0,003
1100,9	0,006
1101,3	0,012
1101,7	0,026
1102,1	0,029
1102,5	0,029
1102,9	0,03
1103,3	0,04
1103,7	0,049
1104,2	0,045
1104,6	0,04
1105	0,047
1105,4	0,046
1105,8	0,052
1106,2	0,047
1106,6	0,044
1107	0,04
1107,4	0,044
1107,8	0,048
1108,3	0,058
