Data from Absorbance_00024.txt Node
Date: Wed Aug 02 17:56:20 MSK 2023
User: vat
Spectrometer: MAYP114033
Trigger mode: 0
Integration Time (sec): 8,000000E-3
Scans to average: 10
Electric dark correction enabled: true
Nonlinearity correction enabled: false
Boxcar width: 3
XAxis mode: Wavelengths
Number of Pixels in Spectrum: 2068
>>>>>Begin Spectral Data<<<<<
199,4	-0
199,9	-0,051
200,4	0,274
200,8	0,611
201,3	0,747
201,8	0,842
202,2	0,865
202,7	0,872
203,2	0,917
203,6	0,945
204,1	0,973
204,6	0,986
205	0,993
205,5	1,012
206	1,021
206,4	1,037
206,9	1,054
207,4	1,042
207,8	1,046
208,3	1,062
208,8	1,062
209,2	1,08
209,7	1,087
210,2	1,09
210,6	1,103
211,1	1,106
211,5	1,096
212	1,109
212,5	1,11
212,9	1,112
213,4	1,116
213,9	1,114
214,3	1,144
214,8	1,138
215,3	1,143
215,7	1,14
216,2	1,128
216,7	1,121
217,1	1,12
217,6	1,09
218,1	1,081
218,5	1,062
219	1,036
219,5	1,017
219,9	0,993
220,4	0,965
220,9	0,939
221,3	0,911
221,8	0,883
222,3	0,855
222,7	0,822
223,2	0,789
223,6	0,76
224,1	0,732
224,6	0,705
225	0,68
225,5	0,654
226	0,635
226,4	0,615
226,9	0,597
227,4	0,578
227,8	0,563
228,3	0,548
228,8	0,535
229,2	0,523
229,7	0,514
230,2	0,506
230,6	0,5
231,1	0,494
231,5	0,49
232	0,486
232,5	0,483
232,9	0,479
233,4	0,477
233,9	0,479
234,3	0,48
234,8	0,485
235,3	0,49
235,7	0,498
236,2	0,505
236,7	0,514
237,1	0,522
237,6	0,533
238,1	0,544
238,5	0,556
239	0,569
239,4	0,584
239,9	0,599
240,4	0,616
240,8	0,631
241,3	0,649
241,8	0,666
242,2	0,685
242,7	0,704
243,2	0,726
243,6	0,748
244,1	0,769
244,6	0,793
245	0,817
245,5	0,842
245,9	0,866
246,4	0,889
246,9	0,912
247,3	0,935
247,8	0,958
248,3	0,978
248,7	1
249,2	1,021
249,7	1,043
250,1	1,063
250,6	1,086
251	1,104
251,5	1,123
252	1,141
252,4	1,158
252,9	1,174
253,4	1,193
253,8	1,209
254,3	1,229
254,8	1,245
255,2	1,255
255,7	1,265
256,1	1,274
256,6	1,278
257,1	1,282
257,5	1,285
258	1,288
258,5	1,288
258,9	1,291
259,4	1,292
259,9	1,287
260,3	1,285
260,8	1,279
261,2	1,271
261,7	1,263
262,2	1,252
262,6	1,24
263,1	1,229
263,6	1,215
264	1,2
264,5	1,184
264,9	1,171
265,4	1,158
265,9	1,143
266,3	1,125
266,8	1,107
267,3	1,09
267,7	1,07
268,2	1,044
268,7	1,016
269,1	0,987
269,6	0,958
270	0,927
270,5	0,895
271	0,865
271,4	0,835
271,9	0,802
272,4	0,772
272,8	0,741
273,3	0,71
273,7	0,68
274,2	0,651
274,7	0,62
275,1	0,591
275,6	0,563
276,1	0,535
276,5	0,509
277	0,483
277,4	0,456
277,9	0,432
278,4	0,409
278,8	0,387
279,3	0,367
279,8	0,347
280,2	0,328
280,7	0,311
281,1	0,294
281,6	0,278
282,1	0,262
282,5	0,247
283	0,234
283,4	0,22
283,9	0,208
284,4	0,197
284,8	0,186
285,3	0,177
285,8	0,169
286,2	0,16
286,7	0,152
287,1	0,145
287,6	0,139
288,1	0,133
288,5	0,128
289	0,123
289,5	0,119
289,9	0,115
290,4	0,112
290,8	0,108
291,3	0,105
291,8	0,103
292,2	0,101
292,7	0,099
293,1	0,098
293,6	0,097
294,1	0,097
294,5	0,096
295	0,095
295,5	0,095
295,9	0,095
296,4	0,096
296,8	0,097
297,3	0,099
297,8	0,099
298,2	0,101
298,7	0,101
299,1	0,103
299,6	0,104
300,1	0,105
300,5	0,106
301	0,109
301,5	0,111
301,9	0,113
302,4	0,114
302,8	0,116
303,3	0,118
303,8	0,119
304,2	0,12
304,7	0,122
305,1	0,123
305,6	0,125
306,1	0,126
306,5	0,127
307	0,129
307,4	0,131
307,9	0,133
308,4	0,134
308,8	0,136
309,3	0,138
309,8	0,14
310,2	0,142
310,7	0,143
311,1	0,145
311,6	0,146
312,1	0,148
312,5	0,149
313	0,15
313,4	0,151
313,9	0,152
314,4	0,153
314,8	0,154
315,3	0,155
315,7	0,157
316,2	0,158
316,7	0,158
317,1	0,16
317,6	0,16
318	0,161
318,5	0,162
319	0,162
319,4	0,163
319,9	0,164
320,3	0,164
320,8	0,165
321,3	0,165
321,7	0,165
322,2	0,166
322,6	0,166
323,1	0,166
323,6	0,167
324	0,168
324,5	0,168
324,9	0,168
325,4	0,169
325,9	0,168
326,3	0,168
326,8	0,168
327,2	0,167
327,7	0,167
328,2	0,166
328,6	0,166
329,1	0,166
329,5	0,165
330	0,164
330,5	0,164
330,9	0,163
331,4	0,162
331,8	0,161
332,3	0,16
332,8	0,159
333,2	0,159
333,7	0,158
334,1	0,157
334,6	0,156
335,1	0,155
335,5	0,153
336	0,152
336,4	0,151
336,9	0,149
337,4	0,147
337,8	0,146
338,3	0,145
338,7	0,143
339,2	0,141
339,7	0,139
340,1	0,137
340,6	0,135
341	0,133
341,5	0,131
342	0,13
342,4	0,128
342,9	0,126
343,3	0,124
343,8	0,124
344,2	0,122
344,7	0,121
345,2	0,119
345,6	0,118
346,1	0,115
346,5	0,114
347	0,112
347,5	0,111
347,9	0,108
348,4	0,107
348,8	0,106
349,3	0,104
349,8	0,102
350,2	0,1
350,7	0,098
351,1	0,096
351,6	0,093
352	0,091
352,5	0,09
353	0,089
353,4	0,087
353,9	0,085
354,3	0,084
354,8	0,082
355,3	0,081
355,7	0,079
356,2	0,077
356,6	0,076
357,1	0,074
357,5	0,073
358	0,072
358,5	0,07
358,9	0,069
359,4	0,068
359,8	0,065
360,3	0,064
360,8	0,062
361,2	0,06
361,7	0,058
362,1	0,057
362,6	0,055
363	0,055
363,5	0,053
364	0,051
364,4	0,051
364,9	0,049
365,3	0,048
365,8	0,047
366,3	0,046
366,7	0,045
367,2	0,045
367,6	0,044
368,1	0,043
368,5	0,042
369	0,041
369,5	0,04
369,9	0,039
370,4	0,038
370,8	0,036
371,3	0,035
371,7	0,035
372,2	0,034
372,7	0,034
373,1	0,032
373,6	0,031
374	0,031
374,5	0,03
374,9	0,029
375,4	0,027
375,9	0,027
376,3	0,027
376,8	0,025
377,2	0,025
377,7	0,025
378,2	0,025
378,6	0,024
379,1	0,023
379,5	0,022
380	0,022
380,4	0,021
380,9	0,02
381,4	0,02
381,8	0,019
382,3	0,019
382,7	0,019
383,2	0,019
383,6	0,019
384,1	0,019
384,6	0,018
385	0,019
385,5	0,018
385,9	0,018
386,4	0,017
386,8	0,017
387,3	0,016
387,7	0,016
388,2	0,015
388,7	0,015
389,1	0,014
389,6	0,013
390	0,013
390,5	0,014
390,9	0,014
391,4	0,013
391,9	0,013
392,3	0,013
392,8	0,013
393,2	0,013
393,7	0,012
394,1	0,012
394,6	0,012
395,1	0,012
395,5	0,012
396	0,012
396,4	0,012
396,9	0,012
397,3	0,012
397,8	0,012
398,2	0,012
398,7	0,012
399,2	0,011
399,6	0,011
400,1	0,011
400,5	0,011
401	0,01
401,4	0,01
401,9	0,01
402,4	0,009
402,8	0,009
403,3	0,009
403,7	0,008
404,2	0,008
404,6	0,009
405,1	0,009
405,5	0,009
406	0,009
406,5	0,009
406,9	0,01
407,4	0,01
407,8	0,009
408,3	0,009
408,7	0,007
409,2	0,007
409,6	0,006
410,1	0,006
410,6	0,006
411	0,005
411,5	0,005
411,9	0,006
412,4	0,006
412,8	0,006
413,3	0,006
413,7	0,006
414,2	0,006
414,7	0,007
415,1	0,006
415,6	0,006
416	0,006
416,5	0,006
416,9	0,006
417,4	0,005
417,8	0,005
418,3	0,005
418,8	0,006
419,2	0,006
419,7	0,006
420,1	0,006
420,6	0,006
421	0,005
421,5	0,006
421,9	0,005
422,4	0,004
422,8	0,004
423,3	0,005
423,8	0,004
424,2	0,005
424,7	0,004
425,1	0,004
425,6	0,005
426	0,004
426,5	0,004
426,9	0,004
427,4	0,004
427,9	0,004
428,3	0,004
428,8	0,004
429,2	0,004
429,7	0,004
430,1	0,005
430,6	0,005
431	0,005
431,5	0,006
431,9	0,006
432,4	0,006
432,8	0,005
433,3	0,005
433,8	0,004
434,2	0,004
434,7	0,004
435,1	0,003
435,6	0,003
436	0,003
436,5	0,003
436,9	0,004
437,4	0,004
437,8	0,004
438,3	0,004
438,8	0,005
439,2	0,005
439,7	0,005
440,1	0,003
440,6	0,004
441	0,005
441,5	0,005
441,9	0,005
442,4	0,005
442,8	0,005
443,3	0,005
443,7	0,005
444,2	0,004
444,7	0,003
445,1	0,003
445,6	0,003
446	0,003
446,5	0,003
446,9	0,003
447,4	0,003
447,8	0,003
448,3	0,003
448,7	0,003
449,2	0,003
449,6	0,003
450,1	0,003
450,6	0,004
451	0,004
451,5	0,004
451,9	0,003
452,4	0,003
452,8	0,003
453,3	0,003
453,7	0,002
454,2	0,002
454,6	0,002
455,1	0,003
455,5	0,003
456	0,003
456,4	0,003
456,9	0,003
457,3	0,004
457,8	0,003
458,3	0,003
458,7	0,003
459,2	0,004
459,6	0,004
460,1	0,004
460,5	0,003
461	0,003
461,4	0,003
461,9	0,003
462,3	0,002
462,8	0,002
463,2	0,002
463,7	0,002
464,1	0,002
464,6	0,002
465	0,002
465,5	0,003
466	0,003
466,4	0,003
466,9	0,002
467,3	0,003
467,8	0,002
468,2	0,002
468,7	0,002
469,1	0,002
469,6	0,003
470	0,002
470,5	0,002
470,9	0,003
471,4	0,003
471,8	0,003
472,3	0,002
472,7	0,003
473,2	0,002
473,6	0,002
474,1	0,002
474,5	0,002
475	0,002
475,4	0,002
475,9	0,002
476,4	0,002
476,8	0,003
477,3	0,003
477,7	0,003
478,2	0,003
478,6	0,003
479,1	0,003
479,5	0,002
480	0,002
480,4	0,002
480,9	0,002
481,3	0,002
481,8	0,002
482,2	0,002
482,7	0,002
483,1	0,001
483,6	0,001
484	0
484,5	0
484,9	0
485,4	-0
485,8	-0
486,3	0
486,7	0
487,2	0
487,6	0
488,1	0,001
488,5	0,001
489	0,001
489,4	0,001
489,9	0,001
490,4	0,001
490,8	0,002
491,3	0,001
491,7	0,002
492,2	0,002
492,6	0,002
493,1	0,002
493,5	0,002
494	0,001
494,4	0,001
494,9	0,002
495,3	0,002
495,8	0,002
496,2	0,002
496,7	0,002
497,1	0,002
497,6	0,002
498	0,002
498,5	0,002
498,9	0,001
499,4	0,001
499,8	0,001
500,3	0,001
500,7	0,001
501,2	0,001
501,6	0,001
502,1	0,001
502,5	0,001
503	0,001
503,4	0,001
503,9	0,001
504,3	0,001
504,8	0,001
505,2	0
505,7	0
506,1	0,001
506,6	0,001
507	0,001
507,5	0,001
507,9	-0
508,4	0
508,8	-0
509,3	-0,001
509,7	-0,001
510,2	-0,001
510,6	-0,001
511,1	-0
511,5	0
512	0,001
512,4	0,001
512,9	0
513,3	0,001
513,8	0,001
514,2	0,001
514,7	0,002
515,1	0,002
515,6	0,002
516	0,003
516,5	0,002
516,9	0,002
517,4	0,002
517,8	0,001
518,3	0,002
518,7	0,002
519,2	0,002
519,6	0,002
520,1	0,003
520,5	0,002
521	0,003
521,4	0,002
521,9	0,002
522,3	0,001
522,8	0,001
523,2	0
523,7	0,001
524,1	0
524,6	0
525	0
525,5	0,001
525,9	0,001
526,4	0,001
526,8	0,001
527,3	0,001
527,7	0,001
528,2	0,001
528,6	0,001
529,1	0,001
529,5	0,001
530	0
530,4	0
530,9	-0
531,3	-0,001
531,8	-0
532,2	-0,001
532,6	-0
533,1	-0
533,5	0
534	0
534,4	0,001
534,9	0
535,3	-0
535,8	-0
536,2	0,001
536,7	0
537,1	-0
537,6	-0
538	0
538,5	0,001
538,9	0,001
539,4	0
539,8	0,001
540,3	0,001
540,7	0,002
541,2	0,001
541,6	0,001
542,1	0,001
542,5	0,001
543	0,001
543,4	0
543,9	0,001
544,3	0,001
544,8	0
545,2	0
545,7	0
546,1	0
546,5	0,001
547	0
547,4	0
547,9	-0
548,3	0
548,8	0,001
549,2	0,001
549,7	0
550,1	0
550,6	0,001
551	0,002
551,5	0,002
551,9	0,001
552,4	0,001
552,8	0,001
553,3	0,001
553,7	-0
554,2	-0
554,6	-0,001
555,1	-0
555,5	-0,001
555,9	-0,001
556,4	-0
556,8	-0
557,3	-0
557,7	0
558,2	-0
558,6	-0
559,1	-0
559,5	0,001
560	0
560,4	0
560,9	0
561,3	0,001
561,8	0,001
562,2	0,001
562,7	0,002
563,1	0,002
563,6	0,002
564	0,002
564,4	0,002
564,9	0,002
565,3	0,002
565,8	0,001
566,2	0
566,7	0
567,1	0,001
567,6	0
568	0
568,5	0,001
568,9	0,001
569,4	0,001
569,8	0,001
570,3	0,001
570,7	0,001
571,1	0
571,6	0
572	0,001
572,5	0,001
572,9	0,001
573,4	0,001
573,8	0,001
574,3	0,001
574,7	0,001
575,2	0,001
575,6	0,001
576,1	0
576,5	0
576,9	0
577,4	0
577,8	0
578,3	-0
578,7	-0
579,2	0
579,6	0
580,1	0
580,5	0
581	0
581,4	0
581,9	0
582,3	0
582,7	0,001
583,2	0,001
583,6	0
584,1	0,001
584,5	0,001
585	0,001
585,4	0,001
585,9	0,001
586,3	0,001
586,8	0,001
587,2	0,001
587,6	0,001
588,1	0,001
588,5	0,001
589	0,001
589,4	0,001
589,9	0,001
590,3	0,001
590,8	0,001
591,2	0,001
591,7	0,001
592,1	0,001
592,5	0,001
593	0,001
593,4	0,001
593,9	0,001
594,3	0,001
594,8	0,001
595,2	0,001
595,7	0,001
596,1	0,001
596,6	0,001
597	0
597,4	0
597,9	0
598,3	0,001
598,8	0,001
599,2	0,001
599,7	0
600,1	0
600,6	0
601	0
601,4	0
601,9	0
602,3	0
602,8	0,001
603,2	0
603,7	0
604,1	0
604,6	0
605	0
605,4	0,001
605,9	0,001
606,3	0,001
606,8	0,001
607,2	0,001
607,7	0,002
608,1	0,002
608,6	0,002
609	0,002
609,4	0,002
609,9	0,002
610,3	0,001
610,8	0,001
611,2	0
611,7	0,001
612,1	0,001
612,6	0,001
613	0,001
613,4	0,001
613,9	0,001
614,3	0,001
614,8	0,001
615,2	0,001
615,7	0
616,1	-0
616,6	-0
617	-0
617,4	-0
617,9	-0
618,3	0
618,8	0
619,2	0
619,7	-0
620,1	0
620,5	0
621	-0
621,4	-0
621,9	-0,001
622,3	-0
622,8	0
623,2	0
623,6	0,001
624,1	0
624,5	0,001
625	0,001
625,4	0,001
625,9	0,001
626,3	0,001
626,8	0
627,2	0,001
627,6	0,001
628,1	0,001
628,5	0,001
629	0,001
629,4	0,001
629,9	0,002
630,3	0,002
630,7	0,001
631,2	0,001
631,6	0,001
632,1	0,001
632,5	0,001
633	0,001
633,4	0,001
633,8	0,001
634,3	0,001
634,7	0,001
635,2	0,001
635,6	0,001
636,1	0,001
636,5	0,001
636,9	0,001
637,4	0,001
637,8	0,001
638,3	0,001
638,7	0,001
639,2	0,001
639,6	0
640	0,001
640,5	0,001
640,9	0,001
641,4	0,001
641,8	0,001
642,2	0,001
642,7	0,001
643,1	0,001
643,6	0,001
644	0,001
644,5	0,001
644,9	0,001
645,3	0,001
645,8	0,001
646,2	0,001
646,7	0,001
647,1	0
647,6	0,001
648	0
648,4	0
648,9	0,001
649,3	0,001
649,8	0,001
650,2	0,001
650,6	0,001
651,1	0,001
651,5	0,001
652	0,001
652,4	0,001
652,9	0,001
653,3	0,001
653,7	0,001
654,2	0,001
654,6	0,001
655,1	-0
655,5	-0
655,9	-0
656,4	-0
656,8	0,001
657,3	0,001
657,7	0,001
658,2	0,002
658,6	0,002
659	0,003
659,5	0,004
659,9	0,003
660,4	0,002
660,8	0,002
661,2	0,002
661,7	0,001
662,1	0,001
662,6	0,002
663	0,001
663,4	0,001
663,9	0,001
664,3	0,001
664,8	0,001
665,2	0,001
665,6	0,001
666,1	0,001
666,5	0,001
667	0,001
667,4	0,001
667,9	0,001
668,3	0,001
668,7	0,001
669,2	0,001
669,6	0,001
670,1	0,001
670,5	0,001
670,9	0,002
671,4	0,002
671,8	0,002
672,3	0,001
672,7	0,001
673,1	0,001
673,6	0,001
674	0,001
674,5	0,001
674,9	0,001
675,3	0,001
675,8	0,001
676,2	0,001
676,7	0,001
677,1	0,002
677,5	0,001
678	0,001
678,4	0,001
678,9	0,001
679,3	0,001
679,7	0,001
680,2	0,001
680,6	0,001
681,1	0,001
681,5	0,001
681,9	0,001
682,4	0,001
682,8	0,001
683,3	0,001
683,7	0,001
684,1	0,001
684,6	0,001
685	0,001
685,5	0,001
685,9	0,001
686,3	0,001
686,8	0
687,2	0,001
687,7	0,001
688,1	0,001
688,5	0,001
689	0,001
689,4	0
689,9	0
690,3	0
690,7	-0
691,2	-0
691,6	-0
692	0
692,5	0
692,9	0,001
693,4	0,001
693,8	0,001
694,2	0,001
694,7	0,001
695,1	0,002
695,6	0,002
696	0,001
696,4	0,001
696,9	0,002
697,3	0,001
697,8	0,001
698,2	0,001
698,6	0,001
699,1	0,001
699,5	0,001
699,9	0,001
700,4	0,001
700,8	0,001
701,3	0,001
701,7	0,002
702,1	0,002
702,6	0,001
703	0,001
703,5	0,001
703,9	0,001
704,3	0,001
704,8	0,001
705,2	0,001
705,6	0,001
706,1	0,001
706,5	0,001
707	0,001
707,4	0,001
707,8	0,001
708,3	0,001
708,7	0,001
709,2	0,002
709,6	0,002
710	0,002
710,5	0,002
710,9	0,002
711,3	0,002
711,8	0,002
712,2	0,002
712,7	0,002
713,1	0,001
713,5	0,001
714	0,001
714,4	0,001
714,8	0,001
715,3	0,001
715,7	0,001
716,2	0,001
716,6	0,001
717	0
717,5	0,001
717,9	0,001
718,3	0
718,8	0,001
719,2	0,001
719,7	0,001
720,1	0,002
720,5	0,002
721	0,001
721,4	0,002
721,8	0,001
722,3	0,001
722,7	0,001
723,2	0,001
723,6	0,001
724	0,001
724,5	0,001
724,9	0,001
725,3	0,001
725,8	0,001
726,2	0,001
726,7	0,001
727,1	0,001
727,5	0,001
728	0,001
728,4	0,001
728,8	0,001
729,3	0,001
729,7	0,001
730,1	0,001
730,6	0,001
731	0,002
731,5	0,001
731,9	0,001
732,3	0,001
732,8	0,001
733,2	0,001
733,6	0,001
734,1	0,001
734,5	0,001
734,9	0,001
735,4	0,001
735,8	0,001
736,3	0,001
736,7	0,001
737,1	0,001
737,6	0,001
738	0,001
738,4	0,001
738,9	0,001
739,3	0,001
739,7	0,001
740,2	0,001
740,6	0,001
741,1	0,001
741,5	0,001
741,9	0,001
742,4	0,001
742,8	0,001
743,2	0,001
743,7	0,001
744,1	0,001
744,5	0,001
745	0,001
745,4	0,001
745,8	0,002
746,3	0,002
746,7	0,002
747,2	0,002
747,6	0,002
748	0,002
748,5	0,001
748,9	0,001
749,3	0,001
749,8	0,001
750,2	0,001
750,6	0,002
751,1	0,002
751,5	0,001
751,9	0,002
752,4	0,002
752,8	0,002
753,3	0,001
753,7	0,001
754,1	0,001
754,6	0,001
755	0,001
755,4	0,001
755,9	0,002
756,3	0,001
756,7	0,001
757,2	0,001
757,6	0,001
758	0,001
758,5	0,001
758,9	0,001
759,3	0,001
759,8	0,001
760,2	0,001
760,6	0,001
761,1	0,001
761,5	0,001
761,9	0,001
762,4	0,001
762,8	0,001
763,3	0,001
763,7	0,001
764,1	0,001
764,6	0
765	0
765,4	0,001
765,9	0,001
766,3	0,001
766,7	0,001
767,2	0,001
767,6	0,001
768	0,001
768,5	0,001
768,9	0,001
769,3	0,002
769,8	0,002
770,2	0,001
770,6	0,002
771,1	0,002
771,5	0,002
771,9	0,001
772,4	0,001
772,8	0,001
773,2	0,001
773,7	0,002
774,1	0,001
774,5	0,002
775	0,002
775,4	0,002
775,8	0,002
776,3	0,002
776,7	0,001
777,1	0,001
777,6	0,001
778	0,001
778,4	0,001
778,9	0,001
779,3	0,001
779,7	0,002
780,2	0,002
780,6	0,002
781	0,001
781,5	0,001
781,9	0,001
782,3	0,001
782,8	0,001
783,2	0,001
783,6	0,001
784,1	0,001
784,5	0,001
784,9	0,001
785,4	0,002
785,8	0,002
786,2	0,002
786,7	0,002
787,1	0,002
787,5	0,002
788	0,002
788,4	0,002
788,8	0,002
789,3	0,002
789,7	0,002
790,1	0,002
790,6	0,001
791	0,002
791,4	0,002
791,9	0,002
792,3	0,002
792,7	0,002
793,2	0,002
793,6	0,002
794	0,002
794,5	0,002
794,9	0,002
795,3	0,002
795,8	0,002
796,2	0,002
796,6	0,002
797,1	0,002
797,5	0,002
797,9	0,002
798,4	0,002
798,8	0,002
799,2	0,002
799,7	0,002
800,1	0,002
800,5	0,002
801	0,001
801,4	0,001
801,8	0,001
802,2	0,001
802,7	0,002
803,1	0,002
803,5	0,002
804	0,002
804,4	0,002
804,8	0,003
805,3	0,002
805,7	0,002
806,1	0,002
806,6	0,002
807	0,003
807,4	0,003
807,9	0,002
808,3	0,002
808,7	0,002
809,2	0,002
809,6	0,002
810	0,001
810,4	0,001
810,9	0,001
811,3	0,001
811,7	0,001
812,2	0,001
812,6	0,001
813	0,001
813,5	0,001
813,9	0,002
814,3	0,002
814,8	0,002
815,2	0,002
815,6	0,002
816,1	0,002
816,5	0,002
816,9	0,002
817,3	0,001
817,8	0,001
818,2	0,001
818,6	0,001
819,1	0,001
819,5	0,001
819,9	0,001
820,4	0,001
820,8	0,002
821,2	0,002
821,7	0,002
822,1	0,002
822,5	0,002
822,9	0,002
823,4	0,002
823,8	0,001
824,2	0,001
824,7	0,001
825,1	0,001
825,5	0,001
826	0
826,4	0
826,8	0
827,3	0
827,7	0
828,1	0
828,5	0
829	0
829,4	0
829,8	0,001
830,3	0,001
830,7	0,001
831,1	0,001
831,6	0,001
832	0,001
832,4	0,001
832,8	0
833,3	0,001
833,7	0
834,1	0
834,6	0
835	0,001
835,4	0,001
835,8	0,001
836,3	0,001
836,7	0,001
837,1	0,001
837,6	0,002
838	0,001
838,4	0,002
838,9	0,001
839,3	0,002
839,7	0,002
840,1	0,002
840,6	0,002
841	0,001
841,4	0,001
841,9	0,001
842,3	0,001
842,7	0,001
843,1	0,002
843,6	0,002
844	0,002
844,4	0,002
844,9	0,002
845,3	0,002
845,7	0,002
846,2	0,002
846,6	0,002
847	0,002
847,4	0,001
847,9	0,001
848,3	0,001
848,7	0,001
849,2	0,001
849,6	0,001
850	0,001
850,4	0,001
850,9	0,001
851,3	0,001
851,7	0,001
852,2	0,001
852,6	0,001
853	0,001
853,4	0,001
853,9	0,001
854,3	0,002
854,7	0,002
855,2	0,002
855,6	0,002
856	0,003
856,4	0,003
856,9	0,003
857,3	0,002
857,7	0,002
858,2	0,002
858,6	0,002
859	0,002
859,4	0,001
859,9	0,002
860,3	0,001
860,7	0,002
861,1	0,001
861,6	0,001
862	0,002
862,4	0,002
862,9	0,002
863,3	0,002
863,7	0,002
864,1	0,002
864,6	0,002
865	0,002
865,4	0,002
865,9	0,001
866,3	0,002
866,7	0,002
867,1	0,001
867,6	0,002
868	0,001
868,4	0,001
868,8	0,002
869,3	0,002
869,7	0,001
870,1	0,001
870,6	0,001
871	0,001
871,4	0,002
871,8	0,002
872,3	0,002
872,7	0,002
873,1	0,002
873,5	0,002
874	0,002
874,4	0,002
874,8	0,002
875,3	0,001
875,7	0,002
876,1	0,002
876,5	0,002
877	0,003
877,4	0,003
877,8	0,002
878,2	0,003
878,7	0,003
879,1	0,003
879,5	0,002
879,9	0,002
880,4	0,003
880,8	0,003
881,2	0,003
881,7	0,003
882,1	0,003
882,5	0,003
882,9	0,003
883,4	0,002
883,8	0,002
884,2	0,002
884,6	0,002
885,1	0,001
885,5	0,001
885,9	0,001
886,3	0,002
886,8	0,002
887,2	0,001
887,6	0,001
888	0,001
888,5	0,002
888,9	0,001
889,3	0,001
889,8	0,001
890,2	0,002
890,6	0,002
891	0,002
891,5	0,002
891,9	0,002
892,3	0,002
892,7	0,002
893,2	0,002
893,6	0,002
894	0,002
894,4	0,002
894,9	0,002
895,3	0,002
895,7	0,002
896,1	0,002
896,6	0,002
897	0,002
897,4	0,002
897,8	0,002
898,3	0,001
898,7	0,001
899,1	0
899,5	0,001
900	0,001
900,4	0,001
900,8	0,001
901,2	0,001
901,7	0,002
902,1	0,002
902,5	0,002
902,9	0,001
903,4	0,001
903,8	0,001
904,2	0,001
904,6	0,001
905,1	0,001
905,5	0,001
905,9	0,001
906,3	0,001
906,8	0,002
907,2	0,002
907,6	0,002
908	0,002
908,5	0,002
908,9	0,002
909,3	0,002
909,7	0,002
910,2	0,002
910,6	0,002
911	0,003
911,4	0,002
911,9	0,002
912,3	0,002
912,7	0,002
913,1	0,002
913,6	0,002
914	0,001
914,4	0,001
914,8	0,001
915,3	0
915,7	0
916,1	0,001
916,5	0,001
916,9	0,001
917,4	0,001
917,8	0,001
918,2	0,001
918,6	0,001
919,1	0,001
919,5	0,001
919,9	0,001
920,3	0,001
920,8	0,002
921,2	0,001
921,6	0,002
922	0,002
922,5	0,002
922,9	0,002
923,3	0,002
923,7	0,002
924,2	0,002
924,6	0,002
925	0,003
925,4	0,003
925,8	0,003
926,3	0,002
926,7	0,003
927,1	0,003
927,5	0,002
928	0,002
928,4	0,002
928,8	0,002
929,2	0,002
929,7	0,002
930,1	0,002
930,5	0,002
930,9	0,002
931,3	0,002
931,8	0,002
932,2	0,002
932,6	0,002
933	0,002
933,5	0,003
933,9	0,003
934,3	0,002
934,7	0,003
935,2	0,003
935,6	0,003
936	0,003
936,4	0,003
936,8	0,003
937,3	0,003
937,7	0,003
938,1	0,003
938,5	0,003
939	0,002
939,4	0,002
939,8	0,003
940,2	0,003
940,6	0,002
941,1	0,002
941,5	0,002
941,9	0,002
942,3	0,002
942,8	0,002
943,2	0,002
943,6	0,002
944	0,002
944,4	0,002
944,9	0,002
945,3	0,002
945,7	0,002
946,1	0,002
946,6	0,002
947	0,002
947,4	0,003
947,8	0,003
948,2	0,003
948,7	0,003
949,1	0,002
949,5	0,002
949,9	0,002
950,3	0,002
950,8	0,002
951,2	0,002
951,6	0,002
952	0,002
952,5	0,002
952,9	0,002
953,3	0,001
953,7	0,001
954,1	0,001
954,6	0,001
955	0,001
955,4	0,002
955,8	0,002
956,2	0,003
956,7	0,003
957,1	0,003
957,5	0,003
957,9	0,002
958,3	0,002
958,8	0,002
959,2	0,002
959,6	0,003
960	0,003
960,5	0,003
960,9	0,003
961,3	0,003
961,7	0,004
962,1	0,003
962,6	0,003
963	0,003
963,4	0,003
963,8	0,003
964,2	0,003
964,7	0,002
965,1	0,002
965,5	0,002
965,9	0,002
966,3	0,002
966,8	0,003
967,2	0,002
967,6	0,003
968	0,003
968,4	0,003
968,9	0,003
969,3	0,003
969,7	0,003
970,1	0,003
970,5	0,003
971	0,002
971,4	0,003
971,8	0,003
972,2	0,002
972,6	0,003
973,1	0,004
973,5	0,004
973,9	0,004
974,3	0,004
974,7	0,003
975,2	0,003
975,6	0,002
976	0,002
976,4	0,002
976,8	0,002
977,3	0,003
977,7	0,003
978,1	0,003
978,5	0,004
978,9	0,004
979,4	0,004
979,8	0,004
980,2	0,003
980,6	0,003
981	0,003
981,5	0,003
981,9	0,003
982,3	0,003
982,7	0,002
983,1	0,002
983,6	0,003
984	0,003
984,4	0,003
984,8	0,002
985,2	0,002
985,6	0,003
986,1	0,002
986,5	0,002
986,9	0,001
987,3	0,001
987,7	0,001
988,2	0,001
988,6	0,002
989	0,002
989,4	0,002
989,8	0,002
990,3	0,003
990,7	0,003
991,1	0,003
991,5	0,003
991,9	0,002
992,3	0,002
992,8	0,002
993,2	0,001
993,6	0,001
994	0,001
994,4	0,002
994,9	0,002
995,3	0,002
995,7	0,001
996,1	0,002
996,5	0,002
996,9	0,001
997,4	0,001
997,8	0,001
998,2	0,001
998,6	0,001
999	0,001
999,5	0,001
999,9	0,002
1000,3	0,002
1000,7	0,002
1001,1	0,002
1001,5	0,002
1002	0,002
1002,4	0,003
1002,8	0,003
1003,2	0,003
1003,6	0,003
1004	0,003
1004,5	0,003
1004,9	0,003
1005,3	0,003
1005,7	0,002
1006,1	0,002
1006,6	0,002
1007	0,002
1007,4	0,003
1007,8	0,002
1008,2	0,002
1008,6	0,002
1009,1	0,002
1009,5	0,002
1009,9	0,002
1010,3	0,001
1010,7	0,001
1011,1	0,001
1011,6	0,001
1012	0,002
1012,4	0,002
1012,8	0,002
1013,2	0,002
1013,6	0,002
1014,1	0,002
1014,5	0,001
1014,9	0,001
1015,3	0,001
1015,7	0,001
1016,1	0,001
1016,6	0
1017	0,001
1017,4	0,001
1017,8	0
1018,2	-0
1018,6	-0
1019,1	-0
1019,5	0
1019,9	-0
1020,3	-0
1020,7	-0
1021,1	-0
1021,6	-0
1022	-0
1022,4	-0
1022,8	0
1023,2	0
1023,6	0,001
1024,1	0
1024,5	0,001
1024,9	0,001
1025,3	0,002
1025,7	0,002
1026,1	0,002
1026,6	0,001
1027	0,002
1027,4	0,001
1027,8	0,001
1028,2	0
1028,6	0
1029	0
1029,5	-0
1029,9	-0
1030,3	0
1030,7	0
1031,1	0
1031,5	0
1032	0
1032,4	0,001
1032,8	0,002
1033,2	0,002
1033,6	0,001
1034	0,002
1034,4	0,002
1034,9	0,002
1035,3	0,002
1035,7	0,002
1036,1	0,002
1036,5	0,003
1036,9	0,002
1037,4	0,002
1037,8	0,002
1038,2	0,002
1038,6	0,002
1039	0,002
1039,4	0,001
1039,8	0,001
1040,3	0,002
1040,7	0,001
1041,1	0,001
1041,5	0,001
1041,9	0,001
1042,3	0,001
1042,7	0,001
1043,2	0,001
1043,6	0,002
1044	0,002
1044,4	0,001
1044,8	0,001
1045,2	0,001
1045,6	0,002
1046,1	0,002
1046,5	0,001
1046,9	0,001
1047,3	0,001
1047,7	0,001
1048,1	0
1048,5	0
1049	-0
1049,4	0,001
1049,8	0,001
1050,2	0
1050,6	0,001
1051	0,001
1051,4	0,001
1051,9	0,002
1052,3	0,001
1052,7	0,001
1053,1	0,001
1053,5	0,001
1053,9	0
1054,3	-0
1054,8	-0,001
1055,2	-0,001
1055,6	-0,001
1056	-0,002
1056,4	-0,002
1056,8	-0,001
1057,2	-0,001
1057,6	-0
1058,1	0,001
1058,5	0,001
1058,9	0,002
1059,3	0,002
1059,7	0,001
1060,1	0,001
1060,5	0
1061	-0
1061,4	0
1061,8	0
1062,2	-0
1062,6	0,001
1063	0
1063,4	0,001
1063,8	0,002
1064,3	0,002
1064,7	0,002
1065,1	0,003
1065,5	0,002
1065,9	0,002
1066,3	0,002
1066,7	0,003
1067,1	0,002
1067,6	0,003
1068	0,002
1068,4	0,002
1068,8	0,002
1069,2	0,001
1069,6	0,001
1070	0,001
1070,4	0,001
1070,9	0
1071,3	-0
1071,7	0
1072,1	-0,001
1072,5	-0,001
1072,9	-0,002
1073,3	-0,002
1073,7	-0,002
1074,2	-0,001
1074,6	-0,002
1075	0
1075,4	-0
1075,8	0,001
1076,2	0,001
1076,6	0,001
1077	0,002
1077,5	0,001
1077,9	-0,001
1078,3	-0
1078,7	-0,001
1079,1	-0
1079,5	-0
1079,9	-0,001
1080,3	0,001
1080,7	0,002
1081,2	0,002
1081,6	0,002
1082	0,001
1082,4	0,001
1082,8	0,001
1083,2	0
1083,6	-0,001
1084	-0,003
1084,5	-0,003
1084,9	-0,003
1085,3	-0,004
1085,7	-0,004
1086,1	-0,004
1086,5	-0,003
1086,9	-0,003
1087,3	-0,003
1087,7	-0,005
1088,2	-0,004
1088,6	-0,003
1089	-0,004
1089,4	-0,003
1089,8	-0,001
1090,2	-0,002
1090,6	-0,001
1091	0,002
1091,4	0,002
1091,9	0,001
1092,3	-0,001
1092,7	-0,002
1093,1	-0,003
1093,5	-0,001
1093,9	0
1094,3	-0,001
1094,7	-0
1095,1	0
1095,5	0
1096	-0,004
1096,4	-0,006
1096,8	-0,011
1097,2	-0,012
1097,6	-0,017
1098	-0,013
1098,4	-0,006
1098,8	0,001
1099,2	0,003
1099,6	0,01
1100,1	0,009
1100,5	0,017
1100,9	0,014
1101,3	0,014
1101,7	0,016
1102,1	0,017
1102,5	0,01
1102,9	0,011
1103,3	0,011
1103,7	0,017
1104,2	0,011
1104,6	0,009
1105	0,006
1105,4	0,01
1105,8	0,019
1106,2	0,02
1106,6	0,008
1107	0,011
1107,4	0,015
1107,8	0,019
1108,3	0,473
