Data from Absorbance_00033.txt Node
Date: Wed Aug 02 18:08:43 MSK 2023
User: vat
Spectrometer: MAYP114033
Trigger mode: 0
Integration Time (sec): 8,000000E-3
Scans to average: 10
Electric dark correction enabled: true
Nonlinearity correction enabled: false
Boxcar width: 3
XAxis mode: Wavelengths
Number of Pixels in Spectrum: 2068
>>>>>Begin Spectral Data<<<<<
199,4	-0
199,9	0,096
200,4	0,403
200,8	0,667
201,3	0,802
201,8	0,909
202,2	0,911
202,7	0,923
203,2	0,957
203,6	0,997
204,1	1,027
204,6	1,041
205	1,046
205,5	1,079
206	1,09
206,4	1,101
206,9	1,112
207,4	1,122
207,8	1,119
208,3	1,134
208,8	1,139
209,2	1,164
209,7	1,191
210,2	1,192
210,6	1,205
211,1	1,212
211,5	1,23
212	1,235
212,5	1,256
212,9	1,27
213,4	1,286
213,9	1,296
214,3	1,356
214,8	1,351
215,3	1,388
215,7	1,375
216,2	1,395
216,7	1,425
217,1	1,465
217,6	1,458
218,1	1,468
218,5	1,486
219	1,526
219,5	1,536
219,9	1,543
220,4	1,528
220,9	1,538
221,3	1,564
221,8	1,573
222,3	1,585
222,7	1,597
223,2	1,6
223,6	1,646
224,1	1,679
224,6	1,678
225	1,694
225,5	1,705
226	1,717
226,4	1,73
226,9	1,725
227,4	1,725
227,8	1,764
228,3	1,776
228,8	1,768
229,2	1,785
229,7	1,82
230,2	1,847
230,6	1,876
231,1	1,881
231,5	1,876
232	1,906
232,5	1,914
232,9	1,905
233,4	1,899
233,9	1,904
234,3	1,917
234,8	1,934
235,3	1,948
235,7	1,965
236,2	1,978
236,7	1,999
237,1	1,982
237,6	1,972
238,1	1,974
238,5	1,981
239	1,965
239,4	1,971
239,9	1,97
240,4	1,975
240,8	1,99
241,3	1,991
241,8	1,991
242,2	1,988
242,7	1,99
243,2	2,018
243,6	2,055
244,1	2,061
244,6	2,071
245	2,062
245,5	2,097
245,9	2,107
246,4	2,104
246,9	2,104
247,3	2,1
247,8	2,105
248,3	2,13
248,7	2,134
249,2	2,139
249,7	2,142
250,1	2,143
250,6	2,148
251	2,164
251,5	2,151
252	2,152
252,4	2,151
252,9	2,139
253,4	2,135
253,8	2,153
254,3	2,14
254,8	2,154
255,2	2,159
255,7	2,144
256,1	2,134
256,6	2,125
257,1	2,114
257,5	2,122
258	2,116
258,5	2,11
258,9	2,131
259,4	2,125
259,9	2,132
260,3	2,135
260,8	2,111
261,2	2,133
261,7	2,147
262,2	2,133
262,6	2,163
263,1	2,163
263,6	2,154
264	2,204
264,5	2,202
264,9	2,182
265,4	2,188
265,9	2,17
266,3	2,178
266,8	2,197
267,3	2,168
267,7	2,159
268,2	2,16
268,7	2,167
269,1	2,142
269,6	2,129
270	2,121
270,5	2,134
271	2,11
271,4	2,111
271,9	2,106
272,4	2,132
272,8	2,138
273,3	2,129
273,7	2,131
274,2	2,163
274,7	2,15
275,1	2,15
275,6	2,16
276,1	2,146
276,5	2,149
277	2,136
277,4	2,101
277,9	2,099
278,4	2,082
278,8	2,057
279,3	2,058
279,8	2,056
280,2	2,023
280,7	2,023
281,1	1,999
281,6	1,995
282,1	1,972
282,5	1,943
283	1,892
283,4	1,85
283,9	1,78
284,4	1,71
284,8	1,621
285,3	1,542
285,8	1,458
286,2	1,379
286,7	1,303
287,1	1,232
287,6	1,167
288,1	1,109
288,5	1,053
289	1,008
289,5	0,966
289,9	0,93
290,4	0,9
290,8	0,874
291,3	0,852
291,8	0,833
292,2	0,816
292,7	0,804
293,1	0,792
293,6	0,781
294,1	0,77
294,5	0,762
295	0,755
295,5	0,749
295,9	0,741
296,4	0,735
296,8	0,731
297,3	0,728
297,8	0,723
298,2	0,719
298,7	0,713
299,1	0,71
299,6	0,706
300,1	0,703
300,5	0,699
301	0,696
301,5	0,691
301,9	0,688
302,4	0,683
302,8	0,679
303,3	0,674
303,8	0,669
304,2	0,665
304,7	0,662
305,1	0,658
305,6	0,654
306,1	0,649
306,5	0,644
307	0,64
307,4	0,635
307,9	0,63
308,4	0,626
308,8	0,621
309,3	0,617
309,8	0,613
310,2	0,609
310,7	0,603
311,1	0,598
311,6	0,593
312,1	0,588
312,5	0,582
313	0,576
313,4	0,571
313,9	0,566
314,4	0,56
314,8	0,555
315,3	0,549
315,7	0,544
316,2	0,539
316,7	0,533
317,1	0,527
317,6	0,521
318	0,515
318,5	0,51
319	0,504
319,4	0,499
319,9	0,494
320,3	0,488
320,8	0,482
321,3	0,477
321,7	0,471
322,2	0,465
322,6	0,459
323,1	0,454
323,6	0,448
324	0,442
324,5	0,438
324,9	0,433
325,4	0,429
325,9	0,423
326,3	0,418
326,8	0,414
327,2	0,409
327,7	0,404
328,2	0,398
328,6	0,392
329,1	0,386
329,5	0,38
330	0,374
330,5	0,368
330,9	0,362
331,4	0,356
331,8	0,351
332,3	0,347
332,8	0,342
333,2	0,338
333,7	0,333
334,1	0,329
334,6	0,325
335,1	0,32
335,5	0,314
336	0,308
336,4	0,302
336,9	0,296
337,4	0,291
337,8	0,285
338,3	0,281
338,7	0,276
339,2	0,271
339,7	0,267
340,1	0,263
340,6	0,258
341	0,254
341,5	0,249
342	0,245
342,4	0,24
342,9	0,236
343,3	0,232
343,8	0,227
344,2	0,223
344,7	0,219
345,2	0,215
345,6	0,211
346,1	0,207
346,5	0,203
347	0,2
347,5	0,196
347,9	0,192
348,4	0,189
348,8	0,186
349,3	0,182
349,8	0,179
350,2	0,175
350,7	0,172
351,1	0,169
351,6	0,165
352	0,161
352,5	0,157
353	0,154
353,4	0,151
353,9	0,148
354,3	0,145
354,8	0,144
355,3	0,141
355,7	0,139
356,2	0,136
356,6	0,134
357,1	0,132
357,5	0,13
358	0,127
358,5	0,125
358,9	0,124
359,4	0,121
359,8	0,118
360,3	0,115
360,8	0,113
361,2	0,111
361,7	0,108
362,1	0,106
362,6	0,105
363	0,104
363,5	0,102
364	0,099
364,4	0,097
364,9	0,096
365,3	0,094
365,8	0,093
366,3	0,09
366,7	0,09
367,2	0,089
367,6	0,088
368,1	0,087
368,5	0,085
369	0,084
369,5	0,083
369,9	0,082
370,4	0,081
370,8	0,078
371,3	0,078
371,7	0,076
372,2	0,074
372,7	0,074
373,1	0,072
373,6	0,071
374	0,07
374,5	0,068
374,9	0,068
375,4	0,066
375,9	0,065
376,3	0,064
376,8	0,062
377,2	0,061
377,7	0,06
378,2	0,06
378,6	0,059
379,1	0,058
379,5	0,058
380	0,057
380,4	0,056
380,9	0,056
381,4	0,055
381,8	0,054
382,3	0,054
382,7	0,052
383,2	0,052
383,6	0,051
384,1	0,051
384,6	0,05
385	0,049
385,5	0,048
385,9	0,048
386,4	0,047
386,8	0,047
387,3	0,046
387,7	0,045
388,2	0,045
388,7	0,045
389,1	0,044
389,6	0,043
390	0,042
390,5	0,041
390,9	0,041
391,4	0,039
391,9	0,038
392,3	0,038
392,8	0,037
393,2	0,038
393,7	0,038
394,1	0,037
394,6	0,036
395,1	0,036
395,5	0,035
396	0,035
396,4	0,034
396,9	0,033
397,3	0,032
397,8	0,032
398,2	0,032
398,7	0,032
399,2	0,031
399,6	0,031
400,1	0,031
400,5	0,031
401	0,03
401,4	0,029
401,9	0,029
402,4	0,028
402,8	0,027
403,3	0,027
403,7	0,026
404,2	0,025
404,6	0,025
405,1	0,024
405,5	0,023
406	0,023
406,5	0,022
406,9	0,023
407,4	0,022
407,8	0,022
408,3	0,022
408,7	0,022
409,2	0,021
409,6	0,02
410,1	0,02
410,6	0,02
411	0,019
411,5	0,019
411,9	0,019
412,4	0,018
412,8	0,018
413,3	0,017
413,7	0,017
414,2	0,017
414,7	0,017
415,1	0,016
415,6	0,017
416	0,016
416,5	0,016
416,9	0,015
417,4	0,014
417,8	0,013
418,3	0,013
418,8	0,012
419,2	0,013
419,7	0,012
420,1	0,012
420,6	0,012
421	0,012
421,5	0,012
421,9	0,011
422,4	0,011
422,8	0,011
423,3	0,011
423,8	0,01
424,2	0,01
424,7	0,01
425,1	0,009
425,6	0,009
426	0,009
426,5	0,008
426,9	0,008
427,4	0,008
427,9	0,007
428,3	0,007
428,8	0,007
429,2	0,006
429,7	0,006
430,1	0,006
430,6	0,006
431	0,006
431,5	0,006
431,9	0,006
432,4	0,006
432,8	0,007
433,3	0,006
433,8	0,006
434,2	0,006
434,7	0,006
435,1	0,006
435,6	0,005
436	0,005
436,5	0,004
436,9	0,005
437,4	0,005
437,8	0,004
438,3	0,004
438,8	0,005
439,2	0,004
439,7	0,004
440,1	0,003
440,6	0,004
441	0,004
441,5	0,004
441,9	0,004
442,4	0,004
442,8	0,004
443,3	0,004
443,7	0,003
444,2	0,002
444,7	0,002
445,1	0,002
445,6	0,001
446	0,001
446,5	0
446,9	0
447,4	0
447,8	-0
448,3	0
448,7	0,001
449,2	0
449,6	0,001
450,1	0,001
450,6	0,001
451	0,001
451,5	0,001
451,9	0,001
452,4	0,001
452,8	0,001
453,3	0
453,7	-0
454,2	-0,001
454,6	-0,001
455,1	-0,001
455,5	-0
456	-0
456,4	0
456,9	0,001
457,3	0,001
457,8	0,001
458,3	0,001
458,7	0
459,2	0,001
459,6	0
460,1	0
460,5	0
461	-0
461,4	0
461,9	0
462,3	-0,001
462,8	-0,001
463,2	-0,001
463,7	-0
464,1	0
464,6	0
465	0
465,5	0,001
466	0,001
466,4	0,001
466,9	0,001
467,3	0,001
467,8	0,001
468,2	0
468,7	0
469,1	-0
469,6	0
470	-0
470,5	-0,001
470,9	-0
471,4	-0
471,8	-0,001
472,3	-0,001
472,7	-0,001
473,2	-0,001
473,6	-0,001
474,1	-0,001
474,5	-0,001
475	-0,001
475,4	-0,001
475,9	-0,001
476,4	-0,001
476,8	-0,001
477,3	-0,001
477,7	-0,001
478,2	-0
478,6	-0
479,1	0
479,5	-0
480	0
480,4	-0
480,9	-0
481,3	-0,001
481,8	-0,001
482,2	-0
482,7	-0
483,1	-0,001
483,6	-0,001
484	-0,001
484,5	-0,002
484,9	-0,002
485,4	-0,002
485,8	-0,002
486,3	-0,002
486,7	-0,001
487,2	-0,001
487,6	-0,001
488,1	-0,001
488,5	-0,001
489	-0,001
489,4	-0
489,9	-0,001
490,4	-0,001
490,8	-0,001
491,3	-0
491,7	-0,001
492,2	-0,001
492,6	-0,002
493,1	-0,001
493,5	-0,002
494	-0,001
494,4	-0,002
494,9	-0,001
495,3	-0,001
495,8	0
496,2	-0
496,7	-0
497,1	-0
497,6	-0
498	-0
498,5	-0,001
498,9	-0,001
499,4	-0,002
499,8	-0,002
500,3	-0,002
500,7	-0,002
501,2	-0,001
501,6	-0,002
502,1	-0,001
502,5	-0,001
503	-0,001
503,4	-0,001
503,9	-0,001
504,3	-0,002
504,8	-0,001
505,2	-0,002
505,7	-0,001
506,1	-0,001
506,6	-0
507	-0
507,5	0
507,9	0
508,4	0
508,8	-0
509,3	-0
509,7	-0,001
510,2	-0
510,6	-0,001
511,1	-0,001
511,5	-0,001
512	-0,001
512,4	-0,002
512,9	-0,002
513,3	-0,001
513,8	-0,001
514,2	-0,001
514,7	-0
515,1	0
515,6	0
516	0
516,5	0
516,9	0
517,4	0,001
517,8	0
518,3	0,001
518,7	0,001
519,2	0,001
519,6	0,002
520,1	0,002
520,5	0,001
521	0,001
521,4	0,001
521,9	0,001
522,3	-0
522,8	-0,001
523,2	-0,001
523,7	-0,001
524,1	-0,002
524,6	-0,002
525	-0,001
525,5	-0,001
525,9	-0,001
526,4	-0
526,8	-0
527,3	-0
527,7	0
528,2	0,001
528,6	0
529,1	0,001
529,5	0,001
530	0,001
530,4	0,001
530,9	0,001
531,3	-0
531,8	0,001
532,2	0
532,6	0
533,1	-0,001
533,5	0
534	0
534,4	0,001
534,9	0
535,3	0
535,8	0
536,2	0,001
536,7	0,001
537,1	0,001
537,6	-0
538	0
538,5	0,001
538,9	0,001
539,4	0
539,8	-0
540,3	0
540,7	0
541,2	0
541,6	0,001
542,1	-0
542,5	-0
543	-0,001
543,4	-0,001
543,9	-0
544,3	-0
544,8	-0,001
545,2	-0
545,7	-0
546,1	-0
546,5	-0
547	-0,001
547,4	-0,001
547,9	-0,001
548,3	-0,001
548,8	-0,001
549,2	-0
549,7	-0,001
550,1	-0,001
550,6	-0,001
551	-0,001
551,5	-0,001
551,9	-0,001
552,4	-0,001
552,8	-0,001
553,3	-0,001
553,7	-0,001
554,2	-0,001
554,6	-0,001
555,1	-0,001
555,5	-0,001
555,9	-0,001
556,4	-0
556,8	-0
557,3	-0,001
557,7	-0,001
558,2	-0,001
558,6	-0,001
559,1	-0,001
559,5	-0,001
560	-0,001
560,4	-0
560,9	0
561,3	0
561,8	-0,001
562,2	-0
562,7	0
563,1	0
563,6	-0
564	-0
564,4	-0
564,9	0
565,3	0
565,8	-0
566,2	-0,001
566,7	-0
567,1	0
567,6	-0
568	-0
568,5	-0
568,9	-0
569,4	-0
569,8	0
570,3	-0
570,7	-0,001
571,1	-0,001
571,6	-0
572	-0
572,5	0
572,9	-0
573,4	-0
573,8	-0
574,3	-0
574,7	-0
575,2	-0,001
575,6	-0
576,1	-0,001
576,5	-0
576,9	-0,001
577,4	-0,001
577,8	-0,001
578,3	-0,001
578,7	-0,001
579,2	-0,001
579,6	-0,001
580,1	-0
580,5	-0
581	-0
581,4	-0
581,9	-0
582,3	-0
582,7	-0
583,2	-0
583,6	-0
584,1	-0
584,5	0
585	0
585,4	-0
585,9	-0
586,3	-0
586,8	-0
587,2	-0
587,6	-0,001
588,1	-0
588,5	-0
589	-0
589,4	-0,001
589,9	-0
590,3	-0
590,8	-0
591,2	-0
591,7	-0
592,1	-0
592,5	0
593	0
593,4	0
593,9	0,001
594,3	0
594,8	0
595,2	0
595,7	0
596,1	0
596,6	0
597	0
597,4	0
597,9	0
598,3	0
598,8	0,001
599,2	0
599,7	0,001
600,1	0
600,6	-0
601	-0
601,4	-0,001
601,9	-0
602,3	-0
602,8	-0
603,2	-0
603,7	0
604,1	0
604,6	0,001
605	0
605,4	0,001
605,9	0
606,3	0,001
606,8	0,001
607,2	0,001
607,7	0
608,1	0,001
608,6	0,001
609	0,001
609,4	0
609,9	0
610,3	0
610,8	-0
611,2	-0
611,7	-0,001
612,1	-0
612,6	0
613	-0
613,4	-0
613,9	-0
614,3	-0
614,8	0
615,2	-0
615,7	-0,001
616,1	-0,001
616,6	-0,001
617	-0,001
617,4	-0,001
617,9	-0,001
618,3	-0
618,8	-0,001
619,2	-0
619,7	-0,001
620,1	-0
620,5	-0
621	-0
621,4	-0,001
621,9	-0,001
622,3	-0
622,8	-0
623,2	-0,001
623,6	-0
624,1	-0
624,5	0
625	0
625,4	0
625,9	-0
626,3	-0
626,8	-0
627,2	-0
627,6	-0,001
628,1	-0,001
628,5	-0,001
629	-0,001
629,4	-0
629,9	0
630,3	0
630,7	0,001
631,2	0,001
631,6	0,001
632,1	0,001
632,5	0,001
633	0
633,4	-0
633,8	-0
634,3	-0,001
634,7	-0,001
635,2	-0,001
635,6	-0
636,1	-0
636,5	0
636,9	0
637,4	0,001
637,8	0,001
638,3	0,001
638,7	0,001
639,2	0
639,6	0
640	0
640,5	-0
640,9	0
641,4	-0
641,8	-0
642,2	0
642,7	-0
643,1	0
643,6	0,001
644	-0
644,5	-0
644,9	-0
645,3	-0
645,8	-0
646,2	-0,001
646,7	-0,001
647,1	-0
647,6	0
648	0
648,4	0
648,9	0,001
649,3	0,001
649,8	0,001
650,2	0,001
650,6	0,001
651,1	0
651,5	0
652	-0
652,4	-0
652,9	-0
653,3	-0
653,7	-0
654,2	-0
654,6	-0,001
655,1	-0,002
655,5	-0,001
655,9	-0,001
656,4	-0,001
656,8	0
657,3	0,001
657,7	0,001
658,2	0,002
658,6	0,002
659	0,003
659,5	0,005
659,9	0,003
660,4	0,001
660,8	0,001
661,2	0,001
661,7	0
662,1	0,001
662,6	0,001
663	0,001
663,4	0
663,9	0
664,3	-0
664,8	0
665,2	-0
665,6	-0
666,1	0
666,5	0
667	0
667,4	0
667,9	-0
668,3	-0
668,7	-0
669,2	-0
669,6	-0,001
670,1	-0
670,5	0
670,9	0
671,4	0
671,8	-0
672,3	-0
672,7	0
673,1	0
673,6	-0
674	-0
674,5	-0
674,9	-0
675,3	0
675,8	0
676,2	-0
676,7	-0
677,1	-0
677,5	-0
678	0
678,4	-0
678,9	-0
679,3	-0
679,7	-0,001
680,2	-0,001
680,6	-0,001
681,1	-0,001
681,5	-0,001
681,9	-0,001
682,4	-0,001
682,8	-0
683,3	-0
683,7	-0
684,1	-0,001
684,6	-0,001
685	-0,001
685,5	-0
685,9	-0,001
686,3	-0,001
686,8	-0
687,2	0
687,7	0
688,1	-0
688,5	-0,001
689	-0
689,4	-0,001
689,9	-0
690,3	-0
690,7	-0
691,2	-0,001
691,6	-0
692	-0,001
692,5	-0,001
692,9	-0,001
693,4	-0,001
693,8	-0
694,2	-0
694,7	-0
695,1	0
695,6	0
696	0
696,4	0
696,9	0
697,3	0
697,8	-0
698,2	-0
698,6	-0
699,1	-0
699,5	-0,001
699,9	-0,001
700,4	-0,001
700,8	-0
701,3	-0,001
701,7	-0,001
702,1	-0,001
702,6	-0
703	-0
703,5	-0
703,9	-0
704,3	0
704,8	0
705,2	0
705,6	0
706,1	0
706,5	0
707	0
707,4	0
707,8	0
708,3	0
708,7	0
709,2	0
709,6	0
710	0
710,5	0
710,9	0
711,3	0
711,8	0
712,2	0,001
712,7	0,001
713,1	-0
713,5	-0
714	-0
714,4	-0
714,8	-0,001
715,3	-0,001
715,7	-0,001
716,2	-0
716,6	-0
717	-0
717,5	-0
717,9	-0
718,3	-0,001
718,8	-0,001
719,2	-0,001
719,7	0
720,1	0
720,5	0
721	0
721,4	0,001
721,8	0,001
722,3	0,001
722,7	0,001
723,2	0,001
723,6	0
724	0,001
724,5	0
724,9	-0
725,3	-0
725,8	-0,001
726,2	-0,001
726,7	-0
727,1	-0,001
727,5	-0,001
728	-0
728,4	-0,001
728,8	-0
729,3	-0,001
729,7	-0,001
730,1	-0
730,6	-0
731	0
731,5	0
731,9	0
732,3	-0
732,8	-0
733,2	-0,001
733,6	-0,001
734,1	-0,001
734,5	-0,001
734,9	-0
735,4	-0
735,8	0
736,3	0
736,7	0
737,1	0
737,6	0
738	0
738,4	0
738,9	0
739,3	-0
739,7	0
740,2	-0
740,6	0
741,1	0
741,5	0
741,9	0
742,4	0
742,8	0
743,2	0
743,7	-0
744,1	0
744,5	0
745	0
745,4	0
745,8	0,001
746,3	0,001
746,7	0,001
747,2	0,001
747,6	0,001
748	0
748,5	0
748,9	-0
749,3	0
749,8	0
750,2	0
750,6	0
751,1	0,001
751,5	0
751,9	0,001
752,4	0,001
752,8	0,001
753,3	0
753,7	0,001
754,1	0,001
754,6	0,001
755	0,001
755,4	0,001
755,9	0,001
756,3	0,001
756,7	0,001
757,2	0,001
757,6	0,001
758	0
758,5	0
758,9	0
759,3	0
759,8	0
760,2	0
760,6	0
761,1	0
761,5	0
761,9	0
762,4	0
762,8	0
763,3	-0
763,7	-0
764,1	-0
764,6	-0
765	-0,001
765,4	-0,001
765,9	-0
766,3	-0
766,7	-0
767,2	-0
767,6	-0
768	0
768,5	0
768,9	0
769,3	0
769,8	0
770,2	0
770,6	0
771,1	0
771,5	-0
771,9	-0
772,4	-0
772,8	-0
773,2	-0
773,7	-0
774,1	-0
774,5	0
775	0
775,4	0,001
775,8	0,001
776,3	0,001
776,7	0,001
777,1	0,001
777,6	0,001
778	0
778,4	0
778,9	0
779,3	0
779,7	0,001
780,2	0
780,6	0,001
781	0,001
781,5	0,001
781,9	0,001
782,3	0,001
782,8	0
783,2	0
783,6	-0
784,1	0
784,5	0
784,9	0
785,4	0
785,8	0
786,2	0
786,7	0,001
787,1	0
787,5	0
788	0
788,4	0,001
788,8	0,001
789,3	0,001
789,7	0,001
790,1	0,001
790,6	0,001
791	0,001
791,4	0
791,9	0,001
792,3	0
792,7	0
793,2	-0
793,6	-0
794	0
794,5	0
794,9	0
795,3	0
795,8	0,001
796,2	0,001
796,6	0
797,1	0
797,5	-0
797,9	-0
798,4	-0
798,8	-0
799,2	-0
799,7	0
800,1	0
800,5	0,001
801	0,001
801,4	0,001
801,8	0,001
802,2	0,001
802,7	0,001
803,1	0,001
803,5	0,001
804	0,001
804,4	0,001
804,8	0,001
805,3	0,001
805,7	0,001
806,1	0,001
806,6	0
807	0
807,4	0
807,9	0
808,3	0
808,7	0
809,2	0
809,6	0
810	0
810,4	-0
810,9	-0
811,3	-0
811,7	-0,001
812,2	-0,001
812,6	-0,001
813	-0,001
813,5	-0,001
813,9	-0
814,3	0
814,8	0
815,2	0
815,6	0
816,1	0
816,5	-0
816,9	-0
817,3	-0
817,8	-0,001
818,2	-0,001
818,6	-0
819,1	-0
819,5	-0
819,9	0
820,4	0
820,8	0,001
821,2	0
821,7	0
822,1	0
822,5	0,001
822,9	0,001
823,4	0,001
823,8	0,001
824,2	0
824,7	0
825,1	0
825,5	-0
826	-0,001
826,4	-0,001
826,8	-0,001
827,3	-0
827,7	-0
828,1	-0
828,5	-0
829	-0
829,4	-0
829,8	-0,001
830,3	-0,001
830,7	-0,001
831,1	-0,001
831,6	-0,001
832	-0,001
832,4	-0
832,8	-0
833,3	-0
833,7	0
834,1	0
834,6	0
835	0,001
835,4	0,001
835,8	0,001
836,3	0,001
836,7	0,001
837,1	0
837,6	0,001
838	0,001
838,4	0,001
838,9	0,001
839,3	0,001
839,7	0,001
840,1	0,001
840,6	0,001
841	0
841,4	-0
841,9	-0
842,3	-0
842,7	0
843,1	0
843,6	0
844	0
844,4	0
844,9	0,001
845,3	0
845,7	0
846,2	0
846,6	0
847	0
847,4	-0
847,9	-0
848,3	-0
848,7	-0
849,2	-0
849,6	-0
850	-0
850,4	0
850,9	0,001
851,3	0,001
851,7	0
852,2	0
852,6	0
853	0
853,4	0
853,9	0
854,3	0
854,7	0
855,2	0,001
855,6	0,001
856	0,001
856,4	0,001
856,9	0,001
857,3	0
857,7	0,001
858,2	0
858,6	-0
859	-0
859,4	-0
859,9	0
860,3	-0
860,7	0
861,1	0
861,6	0
862	0
862,4	0,001
862,9	0
863,3	0
863,7	0
864,1	0
864,6	0
865	0
865,4	-0
865,9	-0
866,3	0
866,7	0
867,1	0
867,6	0
868	0
868,4	-0
868,8	0
869,3	0
869,7	0
870,1	0
870,6	0
871	0
871,4	0,001
871,8	0
872,3	0,001
872,7	0,001
873,1	0,001
873,5	0,001
874	0
874,4	0
874,8	-0
875,3	-0
875,7	0
876,1	-0
876,5	-0
877	0,001
877,4	0,001
877,8	0,001
878,2	0,001
878,7	0,001
879,1	0,001
879,5	0,001
879,9	0
880,4	0,001
880,8	0,001
881,2	0,001
881,7	0,001
882,1	0,001
882,5	0,001
882,9	0,001
883,4	0,001
883,8	0
884,2	0,001
884,6	0
885,1	-0
885,5	-0
885,9	-0
886,3	-0
886,8	0
887,2	-0
887,6	0
888	0
888,5	-0
888,9	-0
889,3	-0
889,8	0
890,2	0
890,6	0
891	0
891,5	0,001
891,9	0,001
892,3	0,001
892,7	0
893,2	0
893,6	0
894	0
894,4	-0
894,9	0
895,3	-0
895,7	0
896,1	-0
896,6	-0
897	-0,001
897,4	-0,001
897,8	-0,001
898,3	-0,001
898,7	-0,001
899,1	-0
899,5	-0
900	-0
900,4	0
900,8	0
901,2	-0
901,7	-0
902,1	0
902,5	0
902,9	0
903,4	0
903,8	-0
904,2	-0
904,6	-0
905,1	-0,001
905,5	-0,001
905,9	-0
906,3	-0
906,8	-0
907,2	0
907,6	0,001
908	0,001
908,5	0,001
908,9	0
909,3	0
909,7	0
910,2	0
910,6	0
911	0
911,4	0
911,9	0,001
912,3	0,001
912,7	0,001
913,1	0,001
913,6	0
914	0
914,4	0
914,8	0
915,3	-0
915,7	0
916,1	-0
916,5	-0
916,9	-0
917,4	0
917,8	-0
918,2	0
918,6	0
919,1	-0
919,5	-0,001
919,9	-0
920,3	-0
920,8	0
921,2	-0
921,6	0
922	0,001
922,5	0,001
922,9	0,001
923,3	0
923,7	-0
924,2	0
924,6	0
925	0
925,4	0,001
925,8	0
926,3	0,001
926,7	0,001
927,1	0,001
927,5	0,001
928	0,001
928,4	0,001
928,8	0,001
929,2	0,001
929,7	0,001
930,1	0,001
930,5	0,001
930,9	0,001
931,3	0,001
931,8	0,001
932,2	0,001
932,6	0,001
933	0,001
933,5	0,001
933,9	0,001
934,3	0
934,7	0,001
935,2	0,001
935,6	0,001
936	0,001
936,4	0,001
936,8	0,001
937,3	0,001
937,7	0
938,1	0,001
938,5	0,001
939	0
939,4	0
939,8	0
940,2	0,001
940,6	0
941,1	0
941,5	0
941,9	0,001
942,3	-0
942,8	0,001
943,2	0,001
943,6	0,001
944	0,001
944,4	0,001
944,9	0,001
945,3	0,002
945,7	0,002
946,1	0,002
946,6	0,001
947	0,001
947,4	0,001
947,8	0,001
948,2	0
948,7	0,001
949,1	0
949,5	0
949,9	0
950,3	0,001
950,8	0,001
951,2	0,002
951,6	0,001
952	0,002
952,5	0,002
952,9	0,001
953,3	0,001
953,7	0,001
954,1	0,001
954,6	0,001
955	0
955,4	0
955,8	0,001
956,2	0,001
956,7	0
957,1	0
957,5	-0
957,9	0
958,3	-0
958,8	-0
959,2	0
959,6	0,001
960	0,001
960,5	0,001
960,9	0,002
961,3	0,002
961,7	0,002
962,1	0,001
962,6	0,001
963	0,001
963,4	0,001
963,8	0,001
964,2	0,001
964,7	0,001
965,1	0,001
965,5	0,001
965,9	0,001
966,3	0,001
966,8	0,001
967,2	0,001
967,6	0,001
968	0,001
968,4	0,001
968,9	0,001
969,3	0,001
969,7	0,001
970,1	0,001
970,5	0,001
971	0
971,4	0,001
971,8	0,001
972,2	0,001
972,6	0,001
973,1	0,001
973,5	0,001
973,9	0,001
974,3	0,001
974,7	0,001
975,2	0,001
975,6	0,001
976	0
976,4	0,001
976,8	0,001
977,3	0,001
977,7	0,001
978,1	0,001
978,5	0,002
978,9	0,002
979,4	0,002
979,8	0,001
980,2	0,001
980,6	0,001
981	0,001
981,5	0,001
981,9	0,001
982,3	0,001
982,7	0
983,1	0,001
983,6	0,001
984	0,001
984,4	0,001
984,8	0,001
985,2	0,001
985,6	0,001
986,1	0
986,5	-0
986,9	-0
987,3	-0,001
987,7	-0,001
988,2	-0,001
988,6	-0
989	0
989,4	0
989,8	0
990,3	0,001
990,7	0,002
991,1	0,002
991,5	0,001
991,9	0
992,3	0,001
992,8	0,001
993,2	0
993,6	-0
994	-0
994,4	0,001
994,9	0,002
995,3	0,001
995,7	0
996,1	0,001
996,5	0,001
996,9	0,001
997,4	0
997,8	0
998,2	0,001
998,6	0,002
999	0,001
999,5	0,001
999,9	0,001
1000,3	0,001
1000,7	0,002
1001,1	0,001
1001,5	0,002
1002	0,001
1002,4	0,001
1002,8	0,001
1003,2	0,001
1003,6	0
1004	0
1004,5	-0
1004,9	-0
1005,3	0
1005,7	0,001
1006,1	0
1006,6	0,001
1007	0,001
1007,4	0,001
1007,8	0,001
1008,2	0,001
1008,6	0,001
1009,1	0,001
1009,5	0
1009,9	0
1010,3	-0,001
1010,7	-0
1011,1	-0,001
1011,6	0
1012	0
1012,4	0,001
1012,8	0,001
1013,2	0,002
1013,6	0,001
1014,1	0,001
1014,5	0,001
1014,9	0,001
1015,3	0,001
1015,7	0
1016,1	0,001
1016,6	0
1017	-0
1017,4	-0,001
1017,8	-0
1018,2	-0,001
1018,6	-0,001
1019,1	-0,001
1019,5	-0
1019,9	-0
1020,3	0,001
1020,7	0
1021,1	0
1021,6	0
1022	0
1022,4	0
1022,8	0
1023,2	0
1023,6	-0
1024,1	0
1024,5	0,001
1024,9	-0
1025,3	0
1025,7	0
1026,1	0
1026,6	0,001
1027	0,001
1027,4	0
1027,8	0
1028,2	-0
1028,6	-0,001
1029	-0,001
1029,5	-0,001
1029,9	-0,001
1030,3	-0,001
1030,7	-0,001
1031,1	-0,001
1031,5	-0,001
1032	-0,001
1032,4	-0,001
1032,8	-0
1033,2	-0
1033,6	-0,001
1034	-0,001
1034,4	-0
1034,9	-0,001
1035,3	-0
1035,7	-0,001
1036,1	-0,001
1036,5	-0,001
1036,9	-0,001
1037,4	-0,001
1037,8	-0
1038,2	-0,001
1038,6	-0,001
1039	0
1039,4	0,001
1039,8	0,001
1040,3	0,001
1040,7	0,001
1041,1	0,001
1041,5	0,002
1041,9	0,002
1042,3	0,001
1042,7	0
1043,2	0,001
1043,6	0,001
1044	0,001
1044,4	-0
1044,8	-0
1045,2	-0,001
1045,6	0
1046,1	-0
1046,5	-0,001
1046,9	-0,001
1047,3	-0,001
1047,7	-0,002
1048,1	-0,002
1048,5	-0,002
1049	-0,003
1049,4	-0,002
1049,8	-0,002
1050,2	-0,003
1050,6	-0,002
1051	-0,002
1051,4	-0,002
1051,9	-0,002
1052,3	-0,002
1052,7	-0,001
1053,1	-0
1053,5	-0,001
1053,9	-0,001
1054,3	-0,001
1054,8	-0,001
1055,2	-0,002
1055,6	-0,002
1056	-0,002
1056,4	-0,002
1056,8	-0,001
1057,2	-0,001
1057,6	-0,001
1058,1	0,001
1058,5	0,001
1058,9	0,001
1059,3	0,001
1059,7	-0
1060,1	-0
1060,5	-0
1061	-0,001
1061,4	-0,001
1061,8	-0,001
1062,2	-0,002
1062,6	-0,001
1063	-0,001
1063,4	-0,001
1063,8	-0,001
1064,3	-0,002
1064,7	-0
1065,1	-0
1065,5	-0,001
1065,9	-0,001
1066,3	-0
1066,7	-0
1067,1	-0
1067,6	-0
1068	-0
1068,4	-0
1068,8	0
1069,2	0,001
1069,6	0,001
1070	0,001
1070,4	0,001
1070,9	0
1071,3	-0
1071,7	-0
1072,1	-0,002
1072,5	-0
1072,9	-0,001
1073,3	-0,001
1073,7	-0,001
1074,2	-0
1074,6	-0
1075	0,001
1075,4	-0,001
1075,8	-0,001
1076,2	-0,001
1076,6	-0,002
1077	-0,001
1077,5	-0,002
1077,9	-0,003
1078,3	-0,002
1078,7	-0,002
1079,1	-0,001
1079,5	-0,002
1079,9	-0,002
1080,3	-0,002
1080,7	-0
1081,2	0
1081,6	0,001
1082	0,001
1082,4	0,001
1082,8	0,001
1083,2	0,001
1083,6	0,001
1084	-0,001
1084,5	0
1084,9	-0
1085,3	-0,002
1085,7	-0,001
1086,1	-0,001
1086,5	-0,001
1086,9	-0
1087,3	-0,001
1087,7	0,001
1088,2	0,003
1088,6	0,001
1089	0
1089,4	-0,002
1089,8	-0,002
1090,2	-0,004
1090,6	-0,007
1091	-0,007
1091,4	-0,006
1091,9	-0,011
1092,3	-0,01
1092,7	-0,01
1093,1	-0,01
1093,5	-0,011
1093,9	-0,008
1094,3	-0,007
1094,7	-0,002
1095,1	0,001
1095,5	0,003
1096	0,005
1096,4	0,008
1096,8	0,004
1097,2	-0,003
1097,6	-0,001
1098	0,001
1098,4	0,003
1098,8	-0,004
1099,2	-0,008
1099,6	0,004
1100,1	0,012
1100,5	0,009
1100,9	0,007
1101,3	0,01
1101,7	0,019
1102,1	0,02
1102,5	0,016
1102,9	0,01
1103,3	0,011
1103,7	0,011
1104,2	0,007
1104,6	0,016
1105	0,025
1105,4	0,012
1105,8	0,027
1106,2	0,038
1106,6	0,044
1107	0,038
1107,4	0,017
1107,8	-0,007
1108,3	0,404
