Data from Absorbance_00035.txt Node
Date: Wed Aug 02 18:11:13 MSK 2023
User: vat
Spectrometer: MAYP114033
Trigger mode: 0
Integration Time (sec): 8,000000E-3
Scans to average: 10
Electric dark correction enabled: true
Nonlinearity correction enabled: false
Boxcar width: 3
XAxis mode: Wavelengths
Number of Pixels in Spectrum: 2068
>>>>>Begin Spectral Data<<<<<
199,4	-0
199,9	-0,028
200,4	0,37
200,8	0,676
201,3	0,811
201,8	0,88
202,2	0,884
202,7	0,91
203,2	0,95
203,6	0,979
204,1	1,014
204,6	1,025
205	1,056
205,5	1,095
206	1,103
206,4	1,136
206,9	1,153
207,4	1,132
207,8	1,128
208,3	1,125
208,8	1,134
209,2	1,163
209,7	1,181
210,2	1,193
210,6	1,221
211,1	1,242
211,5	1,268
212	1,263
212,5	1,277
212,9	1,269
213,4	1,281
213,9	1,296
214,3	1,337
214,8	1,342
215,3	1,385
215,7	1,373
216,2	1,385
216,7	1,397
217,1	1,422
217,6	1,427
218,1	1,438
218,5	1,45
219	1,465
219,5	1,514
219,9	1,533
220,4	1,549
220,9	1,566
221,3	1,587
221,8	1,602
222,3	1,634
222,7	1,639
223,2	1,637
223,6	1,649
224,1	1,661
224,6	1,658
225	1,674
225,5	1,692
226	1,692
226,4	1,712
226,9	1,726
227,4	1,734
227,8	1,77
228,3	1,77
228,8	1,76
229,2	1,758
229,7	1,781
230,2	1,794
230,6	1,816
231,1	1,817
231,5	1,83
232	1,865
232,5	1,901
232,9	1,894
233,4	1,888
233,9	1,897
234,3	1,909
234,8	1,929
235,3	1,952
235,7	1,961
236,2	1,977
236,7	2,004
237,1	2,009
237,6	2,007
238,1	1,99
238,5	1,976
239	1,972
239,4	1,975
239,9	1,987
240,4	1,981
240,8	2
241,3	2,02
241,8	2,02
242,2	2,031
242,7	2,03
243,2	2,03
243,6	2,048
244,1	2,03
244,6	2,035
245	2,046
245,5	2,062
245,9	2,06
246,4	2,075
246,9	2,109
247,3	2,136
247,8	2,137
248,3	2,158
248,7	2,139
249,2	2,161
249,7	2,166
250,1	2,133
250,6	2,119
251	2,107
251,5	2,078
252	2,081
252,4	2,084
252,9	2,069
253,4	2,082
253,8	2,088
254,3	2,111
254,8	2,147
255,2	2,145
255,7	2,16
256,1	2,166
256,6	2,151
257,1	2,169
257,5	2,144
258	2,134
258,5	2,133
258,9	2,122
259,4	2,108
259,9	2,12
260,3	2,104
260,8	2,116
261,2	2,118
261,7	2,128
262,2	2,125
262,6	2,126
263,1	2,108
263,6	2,116
264	2,141
264,5	2,158
264,9	2,166
265,4	2,166
265,9	2,197
266,3	2,19
266,8	2,197
267,3	2,162
267,7	2,13
268,2	2,121
268,7	2,14
269,1	2,096
269,6	2,11
270	2,102
270,5	2,122
271	2,12
271,4	2,117
271,9	2,099
272,4	2,132
272,8	2,169
273,3	2,181
273,7	2,184
274,2	2,208
274,7	2,197
275,1	2,203
275,6	2,183
276,1	2,143
276,5	2,132
277	2,108
277,4	2,083
277,9	2,086
278,4	2,065
278,8	2,056
279,3	2,039
279,8	2,019
280,2	1,997
280,7	1,99
281,1	1,972
281,6	1,959
282,1	1,939
282,5	1,93
283	1,898
283,4	1,86
283,9	1,823
284,4	1,77
284,8	1,714
285,3	1,655
285,8	1,586
286,2	1,524
286,7	1,454
287,1	1,384
287,6	1,314
288,1	1,243
288,5	1,174
289	1,109
289,5	1,044
289,9	0,986
290,4	0,93
290,8	0,876
291,3	0,828
291,8	0,784
292,2	0,742
292,7	0,706
293,1	0,672
293,6	0,641
294,1	0,614
294,5	0,591
295	0,569
295,5	0,55
295,9	0,532
296,4	0,517
296,8	0,504
297,3	0,493
297,8	0,482
298,2	0,472
298,7	0,463
299,1	0,455
299,6	0,448
300,1	0,442
300,5	0,436
301	0,431
301,5	0,428
301,9	0,424
302,4	0,42
302,8	0,416
303,3	0,412
303,8	0,408
304,2	0,405
304,7	0,401
305,1	0,397
305,6	0,395
306,1	0,392
306,5	0,388
307	0,386
307,4	0,383
307,9	0,38
308,4	0,378
308,8	0,375
309,3	0,373
309,8	0,371
310,2	0,369
310,7	0,365
311,1	0,363
311,6	0,36
312,1	0,357
312,5	0,354
313	0,351
313,4	0,347
313,9	0,344
314,4	0,341
314,8	0,337
315,3	0,334
315,7	0,331
316,2	0,329
316,7	0,326
317,1	0,323
317,6	0,32
318	0,317
318,5	0,314
319	0,31
319,4	0,308
319,9	0,305
320,3	0,302
320,8	0,299
321,3	0,296
321,7	0,293
322,2	0,291
322,6	0,288
323,1	0,286
323,6	0,284
324	0,282
324,5	0,278
324,9	0,276
325,4	0,273
325,9	0,27
326,3	0,268
326,8	0,265
327,2	0,263
327,7	0,261
328,2	0,258
328,6	0,256
329,1	0,254
329,5	0,251
330	0,248
330,5	0,245
330,9	0,242
331,4	0,24
331,8	0,237
332,3	0,235
332,8	0,232
333,2	0,23
333,7	0,228
334,1	0,225
334,6	0,223
335,1	0,22
335,5	0,218
336	0,215
336,4	0,212
336,9	0,209
337,4	0,207
337,8	0,204
338,3	0,201
338,7	0,199
339,2	0,197
339,7	0,195
340,1	0,193
340,6	0,19
341	0,188
341,5	0,185
342	0,183
342,4	0,18
342,9	0,178
343,3	0,175
343,8	0,173
344,2	0,171
344,7	0,169
345,2	0,167
345,6	0,164
346,1	0,161
346,5	0,159
347	0,157
347,5	0,155
347,9	0,152
348,4	0,15
348,8	0,149
349,3	0,147
349,8	0,145
350,2	0,143
350,7	0,141
351,1	0,139
351,6	0,136
352	0,134
352,5	0,133
353	0,131
353,4	0,129
353,9	0,128
354,3	0,127
354,8	0,126
355,3	0,124
355,7	0,121
356,2	0,12
356,6	0,119
357,1	0,117
357,5	0,115
358	0,113
358,5	0,112
358,9	0,112
359,4	0,11
359,8	0,108
360,3	0,107
360,8	0,105
361,2	0,104
361,7	0,103
362,1	0,101
362,6	0,1
363	0,099
363,5	0,097
364	0,095
364,4	0,094
364,9	0,093
365,3	0,092
365,8	0,091
366,3	0,089
366,7	0,089
367,2	0,088
367,6	0,087
368,1	0,086
368,5	0,085
369	0,085
369,5	0,084
369,9	0,083
370,4	0,082
370,8	0,081
371,3	0,081
371,7	0,08
372,2	0,079
372,7	0,078
373,1	0,077
373,6	0,076
374	0,075
374,5	0,074
374,9	0,073
375,4	0,072
375,9	0,071
376,3	0,07
376,8	0,069
377,2	0,069
377,7	0,069
378,2	0,068
378,6	0,067
379,1	0,067
379,5	0,067
380	0,066
380,4	0,065
380,9	0,064
381,4	0,064
381,8	0,062
382,3	0,062
382,7	0,061
383,2	0,061
383,6	0,06
384,1	0,06
384,6	0,059
385	0,058
385,5	0,058
385,9	0,057
386,4	0,056
386,8	0,056
387,3	0,054
387,7	0,054
388,2	0,053
388,7	0,053
389,1	0,052
389,6	0,051
390	0,051
390,5	0,05
390,9	0,049
391,4	0,048
391,9	0,048
392,3	0,047
392,8	0,046
393,2	0,046
393,7	0,046
394,1	0,046
394,6	0,045
395,1	0,044
395,5	0,044
396	0,045
396,4	0,045
396,9	0,044
397,3	0,043
397,8	0,043
398,2	0,043
398,7	0,042
399,2	0,042
399,6	0,041
400,1	0,042
400,5	0,041
401	0,04
401,4	0,04
401,9	0,04
402,4	0,039
402,8	0,038
403,3	0,037
403,7	0,037
404,2	0,037
404,6	0,037
405,1	0,037
405,5	0,038
406	0,037
406,5	0,038
406,9	0,037
407,4	0,037
407,8	0,037
408,3	0,037
408,7	0,036
409,2	0,036
409,6	0,036
410,1	0,035
410,6	0,035
411	0,035
411,5	0,034
411,9	0,034
412,4	0,034
412,8	0,033
413,3	0,033
413,7	0,033
414,2	0,032
414,7	0,032
415,1	0,032
415,6	0,032
416	0,031
416,5	0,032
416,9	0,031
417,4	0,032
417,8	0,032
418,3	0,032
418,8	0,031
419,2	0,032
419,7	0,031
420,1	0,031
420,6	0,031
421	0,03
421,5	0,03
421,9	0,03
422,4	0,029
422,8	0,03
423,3	0,03
423,8	0,029
424,2	0,029
424,7	0,029
425,1	0,028
425,6	0,028
426	0,028
426,5	0,028
426,9	0,028
427,4	0,028
427,9	0,027
428,3	0,028
428,8	0,028
429,2	0,028
429,7	0,027
430,1	0,028
430,6	0,028
431	0,028
431,5	0,028
431,9	0,028
432,4	0,028
432,8	0,028
433,3	0,027
433,8	0,027
434,2	0,027
434,7	0,027
435,1	0,027
435,6	0,026
436	0,026
436,5	0,026
436,9	0,026
437,4	0,025
437,8	0,025
438,3	0,025
438,8	0,026
439,2	0,026
439,7	0,026
440,1	0,025
440,6	0,025
441	0,025
441,5	0,025
441,9	0,025
442,4	0,025
442,8	0,025
443,3	0,025
443,7	0,025
444,2	0,024
444,7	0,024
445,1	0,024
445,6	0,024
446	0,024
446,5	0,024
446,9	0,024
447,4	0,023
447,8	0,023
448,3	0,023
448,7	0,023
449,2	0,023
449,6	0,023
450,1	0,023
450,6	0,023
451	0,023
451,5	0,023
451,9	0,023
452,4	0,022
452,8	0,022
453,3	0,022
453,7	0,022
454,2	0,021
454,6	0,022
455,1	0,022
455,5	0,023
456	0,022
456,4	0,023
456,9	0,023
457,3	0,023
457,8	0,023
458,3	0,023
458,7	0,023
459,2	0,023
459,6	0,023
460,1	0,023
460,5	0,022
461	0,023
461,4	0,022
461,9	0,022
462,3	0,021
462,8	0,021
463,2	0,021
463,7	0,022
464,1	0,021
464,6	0,021
465	0,022
465,5	0,022
466	0,022
466,4	0,022
466,9	0,022
467,3	0,022
467,8	0,022
468,2	0,022
468,7	0,022
469,1	0,021
469,6	0,021
470	0,021
470,5	0,02
470,9	0,02
471,4	0,02
471,8	0,019
472,3	0,019
472,7	0,019
473,2	0,019
473,6	0,02
474,1	0,02
474,5	0,02
475	0,02
475,4	0,02
475,9	0,019
476,4	0,02
476,8	0,02
477,3	0,021
477,7	0,02
478,2	0,021
478,6	0,02
479,1	0,021
479,5	0,02
480	0,02
480,4	0,02
480,9	0,02
481,3	0,02
481,8	0,021
482,2	0,02
482,7	0,02
483,1	0,02
483,6	0,019
484	0,019
484,5	0,019
484,9	0,018
485,4	0,018
485,8	0,018
486,3	0,018
486,7	0,018
487,2	0,019
487,6	0,018
488,1	0,019
488,5	0,019
489	0,019
489,4	0,018
489,9	0,018
490,4	0,017
490,8	0,018
491,3	0,018
491,7	0,018
492,2	0,018
492,6	0,018
493,1	0,019
493,5	0,019
494	0,019
494,4	0,019
494,9	0,019
495,3	0,019
495,8	0,02
496,2	0,019
496,7	0,018
497,1	0,018
497,6	0,018
498	0,018
498,5	0,018
498,9	0,018
499,4	0,018
499,8	0,018
500,3	0,018
500,7	0,019
501,2	0,019
501,6	0,019
502,1	0,019
502,5	0,019
503	0,019
503,4	0,019
503,9	0,018
504,3	0,018
504,8	0,018
505,2	0,017
505,7	0,017
506,1	0,018
506,6	0,018
507	0,018
507,5	0,019
507,9	0,019
508,4	0,019
508,8	0,019
509,3	0,018
509,7	0,018
510,2	0,018
510,6	0,018
511,1	0,018
511,5	0,018
512	0,018
512,4	0,018
512,9	0,018
513,3	0,019
513,8	0,019
514,2	0,02
514,7	0,019
515,1	0,02
515,6	0,02
516	0,019
516,5	0,019
516,9	0,018
517,4	0,018
517,8	0,018
518,3	0,018
518,7	0,019
519,2	0,019
519,6	0,019
520,1	0,019
520,5	0,019
521	0,019
521,4	0,019
521,9	0,019
522,3	0,018
522,8	0,018
523,2	0,018
523,7	0,018
524,1	0,018
524,6	0,017
525	0,017
525,5	0,017
525,9	0,017
526,4	0,017
526,8	0,017
527,3	0,017
527,7	0,017
528,2	0,017
528,6	0,017
529,1	0,017
529,5	0,017
530	0,018
530,4	0,018
530,9	0,018
531,3	0,018
531,8	0,019
532,2	0,018
532,6	0,018
533,1	0,018
533,5	0,018
534	0,018
534,4	0,018
534,9	0,018
535,3	0,018
535,8	0,018
536,2	0,019
536,7	0,018
537,1	0,018
537,6	0,017
538	0,017
538,5	0,018
538,9	0,017
539,4	0,016
539,8	0,016
540,3	0,017
540,7	0,016
541,2	0,016
541,6	0,017
542,1	0,017
542,5	0,017
543	0,017
543,4	0,017
543,9	0,018
544,3	0,018
544,8	0,017
545,2	0,017
545,7	0,017
546,1	0,017
546,5	0,017
547	0,017
547,4	0,016
547,9	0,017
548,3	0,017
548,8	0,017
549,2	0,017
549,7	0,017
550,1	0,017
550,6	0,017
551	0,017
551,5	0,017
551,9	0,017
552,4	0,017
552,8	0,017
553,3	0,016
553,7	0,016
554,2	0,016
554,6	0,016
555,1	0,016
555,5	0,015
555,9	0,015
556,4	0,015
556,8	0,016
557,3	0,016
557,7	0,016
558,2	0,016
558,6	0,016
559,1	0,016
559,5	0,016
560	0,016
560,4	0,015
560,9	0,015
561,3	0,015
561,8	0,015
562,2	0,016
562,7	0,016
563,1	0,017
563,6	0,017
564	0,017
564,4	0,017
564,9	0,018
565,3	0,017
565,8	0,016
566,2	0,015
566,7	0,015
567,1	0,015
567,6	0,015
568	0,014
568,5	0,015
568,9	0,015
569,4	0,015
569,8	0,015
570,3	0,014
570,7	0,014
571,1	0,014
571,6	0,015
572	0,015
572,5	0,015
572,9	0,015
573,4	0,014
573,8	0,015
574,3	0,014
574,7	0,014
575,2	0,014
575,6	0,015
576,1	0,014
576,5	0,014
576,9	0,014
577,4	0,015
577,8	0,015
578,3	0,015
578,7	0,014
579,2	0,014
579,6	0,015
580,1	0,015
580,5	0,014
581	0,014
581,4	0,014
581,9	0,014
582,3	0,015
582,7	0,015
583,2	0,015
583,6	0,015
584,1	0,015
584,5	0,015
585	0,015
585,4	0,015
585,9	0,014
586,3	0,014
586,8	0,014
587,2	0,014
587,6	0,014
588,1	0,014
588,5	0,014
589	0,014
589,4	0,014
589,9	0,014
590,3	0,014
590,8	0,014
591,2	0,014
591,7	0,014
592,1	0,014
592,5	0,014
593	0,014
593,4	0,014
593,9	0,014
594,3	0,014
594,8	0,014
595,2	0,014
595,7	0,014
596,1	0,014
596,6	0,014
597	0,014
597,4	0,014
597,9	0,014
598,3	0,014
598,8	0,013
599,2	0,013
599,7	0,013
600,1	0,012
600,6	0,012
601	0,012
601,4	0,013
601,9	0,012
602,3	0,013
602,8	0,012
603,2	0,012
603,7	0,013
604,1	0,013
604,6	0,013
605	0,012
605,4	0,013
605,9	0,013
606,3	0,013
606,8	0,013
607,2	0,013
607,7	0,013
608,1	0,013
608,6	0,013
609	0,013
609,4	0,013
609,9	0,013
610,3	0,013
610,8	0,013
611,2	0,012
611,7	0,012
612,1	0,012
612,6	0,012
613	0,012
613,4	0,012
613,9	0,012
614,3	0,012
614,8	0,012
615,2	0,012
615,7	0,012
616,1	0,011
616,6	0,012
617	0,011
617,4	0,011
617,9	0,011
618,3	0,012
618,8	0,011
619,2	0,011
619,7	0,011
620,1	0,011
620,5	0,011
621	0,011
621,4	0,011
621,9	0,011
622,3	0,011
622,8	0,012
623,2	0,011
623,6	0,012
624,1	0,011
624,5	0,012
625	0,011
625,4	0,011
625,9	0,011
626,3	0,011
626,8	0,01
627,2	0,011
627,6	0,011
628,1	0,011
628,5	0,011
629	0,011
629,4	0,011
629,9	0,011
630,3	0,011
630,7	0,011
631,2	0,012
631,6	0,012
632,1	0,012
632,5	0,012
633	0,011
633,4	0,011
633,8	0,011
634,3	0,011
634,7	0,01
635,2	0,01
635,6	0,01
636,1	0,011
636,5	0,011
636,9	0,011
637,4	0,011
637,8	0,011
638,3	0,011
638,7	0,011
639,2	0,011
639,6	0,01
640	0,011
640,5	0,01
640,9	0,01
641,4	0,01
641,8	0,01
642,2	0,01
642,7	0,01
643,1	0,01
643,6	0,01
644	0,01
644,5	0,01
644,9	0,01
645,3	0,01
645,8	0,01
646,2	0,009
646,7	0,009
647,1	0,009
647,6	0,01
648	0,009
648,4	0,01
648,9	0,01
649,3	0,01
649,8	0,01
650,2	0,01
650,6	0,01
651,1	0,01
651,5	0,01
652	0,01
652,4	0,01
652,9	0,01
653,3	0,01
653,7	0,009
654,2	0,009
654,6	0,009
655,1	0,007
655,5	0,008
655,9	0,005
656,4	0,004
656,8	0,006
657,3	0,006
657,7	0,006
658,2	0,007
658,6	0,006
659	0,009
659,5	0,015
659,9	0,013
660,4	0,011
660,8	0,011
661,2	0,01
661,7	0,01
662,1	0,01
662,6	0,01
663	0,01
663,4	0,01
663,9	0,01
664,3	0,01
664,8	0,01
665,2	0,01
665,6	0,01
666,1	0,009
666,5	0,009
667	0,009
667,4	0,009
667,9	0,009
668,3	0,009
668,7	0,009
669,2	0,009
669,6	0,009
670,1	0,009
670,5	0,009
670,9	0,009
671,4	0,01
671,8	0,009
672,3	0,009
672,7	0,009
673,1	0,009
673,6	0,008
674	0,008
674,5	0,008
674,9	0,008
675,3	0,008
675,8	0,008
676,2	0,008
676,7	0,009
677,1	0,009
677,5	0,009
678	0,009
678,4	0,008
678,9	0,008
679,3	0,008
679,7	0,008
680,2	0,008
680,6	0,008
681,1	0,007
681,5	0,007
681,9	0,007
682,4	0,008
682,8	0,008
683,3	0,008
683,7	0,007
684,1	0,007
684,6	0,008
685	0,008
685,5	0,008
685,9	0,008
686,3	0,008
686,8	0,009
687,2	0,009
687,7	0,009
688,1	0,009
688,5	0,008
689	0,008
689,4	0,008
689,9	0,008
690,3	0,008
690,7	0,008
691,2	0,007
691,6	0,007
692	0,008
692,5	0,008
692,9	0,008
693,4	0,008
693,8	0,008
694,2	0,009
694,7	0,009
695,1	0,008
695,6	0,008
696	0,008
696,4	0,008
696,9	0,008
697,3	0,007
697,8	0,007
698,2	0,008
698,6	0,008
699,1	0,008
699,5	0,008
699,9	0,008
700,4	0,008
700,8	0,008
701,3	0,007
701,7	0,008
702,1	0,007
702,6	0,007
703	0,007
703,5	0,007
703,9	0,007
704,3	0,008
704,8	0,008
705,2	0,008
705,6	0,008
706,1	0,008
706,5	0,008
707	0,008
707,4	0,008
707,8	0,008
708,3	0,008
708,7	0,008
709,2	0,008
709,6	0,008
710	0,009
710,5	0,009
710,9	0,008
711,3	0,008
711,8	0,008
712,2	0,008
712,7	0,008
713,1	0,007
713,5	0,007
714	0,007
714,4	0,007
714,8	0,007
715,3	0,007
715,7	0,007
716,2	0,007
716,6	0,007
717	0,006
717,5	0,007
717,9	0,007
718,3	0,006
718,8	0,007
719,2	0,007
719,7	0,007
720,1	0,008
720,5	0,008
721	0,008
721,4	0,008
721,8	0,008
722,3	0,008
722,7	0,008
723,2	0,007
723,6	0,007
724	0,007
724,5	0,008
724,9	0,008
725,3	0,008
725,8	0,008
726,2	0,007
726,7	0,007
727,1	0,007
727,5	0,006
728	0,007
728,4	0,006
728,8	0,006
729,3	0,006
729,7	0,006
730,1	0,007
730,6	0,007
731	0,007
731,5	0,007
731,9	0,007
732,3	0,008
732,8	0,007
733,2	0,007
733,6	0,007
734,1	0,006
734,5	0,006
734,9	0,006
735,4	0,006
735,8	0,007
736,3	0,007
736,7	0,007
737,1	0,007
737,6	0,007
738	0,007
738,4	0,007
738,9	0,007
739,3	0,007
739,7	0,007
740,2	0,007
740,6	0,007
741,1	0,006
741,5	0,006
741,9	0,006
742,4	0,006
742,8	0,007
743,2	0,007
743,7	0,006
744,1	0,007
744,5	0,007
745	0,007
745,4	0,007
745,8	0,007
746,3	0,007
746,7	0,007
747,2	0,007
747,6	0,007
748	0,007
748,5	0,006
748,9	0,006
749,3	0,007
749,8	0,007
750,2	0,007
750,6	0,007
751,1	0,007
751,5	0,007
751,9	0,007
752,4	0,007
752,8	0,007
753,3	0,007
753,7	0,006
754,1	0,007
754,6	0,007
755	0,006
755,4	0,007
755,9	0,006
756,3	0,007
756,7	0,007
757,2	0,007
757,6	0,007
758	0,006
758,5	0,007
758,9	0,007
759,3	0,006
759,8	0,006
760,2	0,006
760,6	0,006
761,1	0,006
761,5	0,006
761,9	0,006
762,4	0,006
762,8	0,006
763,3	0,006
763,7	0,006
764,1	0,006
764,6	0,006
765	0,006
765,4	0,006
765,9	0,006
766,3	0,006
766,7	0,006
767,2	0,006
767,6	0,006
768	0,006
768,5	0,006
768,9	0,006
769,3	0,006
769,8	0,006
770,2	0,006
770,6	0,006
771,1	0,006
771,5	0,006
771,9	0,006
772,4	0,006
772,8	0,006
773,2	0,006
773,7	0,006
774,1	0,006
774,5	0,006
775	0,006
775,4	0,007
775,8	0,007
776,3	0,007
776,7	0,007
777,1	0,007
777,6	0,007
778	0,006
778,4	0,006
778,9	0,006
779,3	0,006
779,7	0,006
780,2	0,007
780,6	0,007
781	0,007
781,5	0,007
781,9	0,007
782,3	0,007
782,8	0,006
783,2	0,006
783,6	0,005
784,1	0,006
784,5	0,006
784,9	0,006
785,4	0,006
785,8	0,006
786,2	0,006
786,7	0,006
787,1	0,006
787,5	0,006
788	0,006
788,4	0,006
788,8	0,006
789,3	0,006
789,7	0,006
790,1	0,006
790,6	0,006
791	0,006
791,4	0,006
791,9	0,007
792,3	0,007
792,7	0,007
793,2	0,006
793,6	0,007
794	0,006
794,5	0,006
794,9	0,006
795,3	0,006
795,8	0,006
796,2	0,006
796,6	0,006
797,1	0,006
797,5	0,006
797,9	0,006
798,4	0,006
798,8	0,006
799,2	0,006
799,7	0,006
800,1	0,006
800,5	0,006
801	0,006
801,4	0,006
801,8	0,006
802,2	0,006
802,7	0,006
803,1	0,006
803,5	0,006
804	0,006
804,4	0,006
804,8	0,006
805,3	0,006
805,7	0,006
806,1	0,006
806,6	0,006
807	0,006
807,4	0,005
807,9	0,005
808,3	0,005
808,7	0,005
809,2	0,005
809,6	0,004
810	0,004
810,4	0,004
810,9	0,004
811,3	0,005
811,7	0,004
812,2	0,005
812,6	0,005
813	0,005
813,5	0,005
813,9	0,005
814,3	0,005
814,8	0,005
815,2	0,005
815,6	0,005
816,1	0,005
816,5	0,005
816,9	0,005
817,3	0,005
817,8	0,005
818,2	0,005
818,6	0,005
819,1	0,005
819,5	0,005
819,9	0,005
820,4	0,005
820,8	0,005
821,2	0,005
821,7	0,006
822,1	0,006
822,5	0,006
822,9	0,006
823,4	0,006
823,8	0,006
824,2	0,006
824,7	0,006
825,1	0,005
825,5	0,005
826	0,005
826,4	0,005
826,8	0,004
827,3	0,005
827,7	0,004
828,1	0,004
828,5	0,004
829	0,004
829,4	0,004
829,8	0,004
830,3	0,004
830,7	0,004
831,1	0,004
831,6	0,004
832	0,004
832,4	0,004
832,8	0,004
833,3	0,005
833,7	0,005
834,1	0,005
834,6	0,005
835	0,006
835,4	0,006
835,8	0,006
836,3	0,006
836,7	0,006
837,1	0,006
837,6	0,006
838	0,006
838,4	0,006
838,9	0,006
839,3	0,006
839,7	0,006
840,1	0,006
840,6	0,005
841	0,005
841,4	0,005
841,9	0,005
842,3	0,006
842,7	0,006
843,1	0,006
843,6	0,006
844	0,006
844,4	0,006
844,9	0,005
845,3	0,005
845,7	0,005
846,2	0,005
846,6	0,005
847	0,005
847,4	0,005
847,9	0,004
848,3	0,005
848,7	0,005
849,2	0,005
849,6	0,005
850	0,005
850,4	0,005
850,9	0,005
851,3	0,005
851,7	0,004
852,2	0,004
852,6	0,004
853	0,004
853,4	0,004
853,9	0,004
854,3	0,005
854,7	0,005
855,2	0,005
855,6	0,005
856	0,005
856,4	0,005
856,9	0,005
857,3	0,005
857,7	0,005
858,2	0,004
858,6	0,004
859	0,004
859,4	0,004
859,9	0,004
860,3	0,004
860,7	0,004
861,1	0,004
861,6	0,005
862	0,005
862,4	0,004
862,9	0,004
863,3	0,004
863,7	0,004
864,1	0,004
864,6	0,004
865	0,004
865,4	0,004
865,9	0,004
866,3	0,004
866,7	0,005
867,1	0,004
867,6	0,004
868	0,004
868,4	0,004
868,8	0,005
869,3	0,005
869,7	0,005
870,1	0,005
870,6	0,005
871	0,005
871,4	0,005
871,8	0,005
872,3	0,005
872,7	0,005
873,1	0,005
873,5	0,005
874	0,005
874,4	0,005
874,8	0,005
875,3	0,004
875,7	0,005
876,1	0,004
876,5	0,004
877	0,005
877,4	0,005
877,8	0,005
878,2	0,005
878,7	0,005
879,1	0,005
879,5	0,005
879,9	0,005
880,4	0,005
880,8	0,005
881,2	0,005
881,7	0,005
882,1	0,005
882,5	0,005
882,9	0,005
883,4	0,005
883,8	0,005
884,2	0,005
884,6	0,005
885,1	0,005
885,5	0,005
885,9	0,005
886,3	0,005
886,8	0,005
887,2	0,005
887,6	0,005
888	0,005
888,5	0,005
888,9	0,005
889,3	0,005
889,8	0,005
890,2	0,005
890,6	0,005
891	0,005
891,5	0,005
891,9	0,004
892,3	0,005
892,7	0,004
893,2	0,004
893,6	0,004
894	0,005
894,4	0,005
894,9	0,005
895,3	0,005
895,7	0,005
896,1	0,005
896,6	0,005
897	0,005
897,4	0,005
897,8	0,005
898,3	0,004
898,7	0,004
899,1	0,004
899,5	0,004
900	0,004
900,4	0,004
900,8	0,004
901,2	0,004
901,7	0,005
902,1	0,005
902,5	0,005
902,9	0,005
903,4	0,005
903,8	0,005
904,2	0,004
904,6	0,004
905,1	0,004
905,5	0,004
905,9	0,004
906,3	0,004
906,8	0,004
907,2	0,005
907,6	0,005
908	0,005
908,5	0,005
908,9	0,005
909,3	0,005
909,7	0,005
910,2	0,005
910,6	0,005
911	0,005
911,4	0,005
911,9	0,005
912,3	0,005
912,7	0,005
913,1	0,005
913,6	0,005
914	0,005
914,4	0,005
914,8	0,005
915,3	0,004
915,7	0,004
916,1	0,003
916,5	0,003
916,9	0,003
917,4	0,003
917,8	0,003
918,2	0,004
918,6	0,004
919,1	0,004
919,5	0,004
919,9	0,004
920,3	0,004
920,8	0,005
921,2	0,005
921,6	0,005
922	0,005
922,5	0,005
922,9	0,004
923,3	0,004
923,7	0,004
924,2	0,003
924,6	0,004
925	0,004
925,4	0,004
925,8	0,005
926,3	0,004
926,7	0,005
927,1	0,005
927,5	0,005
928	0,004
928,4	0,005
928,8	0,005
929,2	0,005
929,7	0,005
930,1	0,005
930,5	0,005
930,9	0,005
931,3	0,005
931,8	0,005
932,2	0,005
932,6	0,005
933	0,005
933,5	0,005
933,9	0,005
934,3	0,005
934,7	0,006
935,2	0,006
935,6	0,006
936	0,006
936,4	0,006
936,8	0,006
937,3	0,005
937,7	0,005
938,1	0,005
938,5	0,004
939	0,004
939,4	0,003
939,8	0,003
940,2	0,004
940,6	0,003
941,1	0,003
941,5	0,003
941,9	0,004
942,3	0,004
942,8	0,004
943,2	0,004
943,6	0,004
944	0,004
944,4	0,004
944,9	0,005
945,3	0,005
945,7	0,005
946,1	0,005
946,6	0,004
947	0,004
947,4	0,004
947,8	0,003
948,2	0,003
948,7	0,004
949,1	0,003
949,5	0,003
949,9	0,003
950,3	0,003
950,8	0,004
951,2	0,004
951,6	0,003
952	0,004
952,5	0,004
952,9	0,005
953,3	0,004
953,7	0,004
954,1	0,004
954,6	0,004
955	0,003
955,4	0,003
955,8	0,004
956,2	0,004
956,7	0,004
957,1	0,004
957,5	0,004
957,9	0,004
958,3	0,004
958,8	0,004
959,2	0,004
959,6	0,004
960	0,005
960,5	0,005
960,9	0,005
961,3	0,005
961,7	0,005
962,1	0,005
962,6	0,005
963	0,004
963,4	0,004
963,8	0,004
964,2	0,004
964,7	0,004
965,1	0,004
965,5	0,004
965,9	0,004
966,3	0,005
966,8	0,005
967,2	0,005
967,6	0,005
968	0,005
968,4	0,006
968,9	0,006
969,3	0,005
969,7	0,005
970,1	0,005
970,5	0,005
971	0,004
971,4	0,003
971,8	0,003
972,2	0,003
972,6	0,004
973,1	0,004
973,5	0,004
973,9	0,004
974,3	0,004
974,7	0,004
975,2	0,004
975,6	0,004
976	0,003
976,4	0,004
976,8	0,004
977,3	0,004
977,7	0,005
978,1	0,005
978,5	0,005
978,9	0,005
979,4	0,006
979,8	0,006
980,2	0,005
980,6	0,005
981	0,005
981,5	0,005
981,9	0,005
982,3	0,005
982,7	0,004
983,1	0,004
983,6	0,004
984	0,004
984,4	0,003
984,8	0,003
985,2	0,003
985,6	0,003
986,1	0,003
986,5	0,003
986,9	0,003
987,3	0,003
987,7	0,003
988,2	0,003
988,6	0,004
989	0,004
989,4	0,004
989,8	0,004
990,3	0,005
990,7	0,005
991,1	0,004
991,5	0,004
991,9	0,004
992,3	0,004
992,8	0,004
993,2	0,003
993,6	0,004
994	0,004
994,4	0,004
994,9	0,004
995,3	0,004
995,7	0,004
996,1	0,004
996,5	0,004
996,9	0,003
997,4	0,003
997,8	0,003
998,2	0,004
998,6	0,004
999	0,003
999,5	0,003
999,9	0,003
1000,3	0,004
1000,7	0,004
1001,1	0,004
1001,5	0,004
1002	0,005
1002,4	0,005
1002,8	0,005
1003,2	0,005
1003,6	0,004
1004	0,004
1004,5	0,004
1004,9	0,005
1005,3	0,004
1005,7	0,004
1006,1	0,003
1006,6	0,003
1007	0,003
1007,4	0,003
1007,8	0,003
1008,2	0,003
1008,6	0,003
1009,1	0,004
1009,5	0,004
1009,9	0,004
1010,3	0,003
1010,7	0,003
1011,1	0,003
1011,6	0,003
1012	0,003
1012,4	0,003
1012,8	0,003
1013,2	0,004
1013,6	0,004
1014,1	0,004
1014,5	0,004
1014,9	0,004
1015,3	0,004
1015,7	0,004
1016,1	0,004
1016,6	0,004
1017	0,003
1017,4	0,003
1017,8	0,004
1018,2	0,003
1018,6	0,003
1019,1	0,003
1019,5	0,003
1019,9	0,003
1020,3	0,004
1020,7	0,003
1021,1	0,004
1021,6	0,004
1022	0,004
1022,4	0,004
1022,8	0,004
1023,2	0,004
1023,6	0,004
1024,1	0,003
1024,5	0,004
1024,9	0,004
1025,3	0,004
1025,7	0,004
1026,1	0,004
1026,6	0,004
1027	0,004
1027,4	0,004
1027,8	0,003
1028,2	0,003
1028,6	0,003
1029	0,003
1029,5	0,002
1029,9	0,002
1030,3	0,002
1030,7	0,002
1031,1	0,003
1031,5	0,003
1032	0,003
1032,4	0,003
1032,8	0,004
1033,2	0,004
1033,6	0,003
1034	0,003
1034,4	0,003
1034,9	0,003
1035,3	0,003
1035,7	0,003
1036,1	0,003
1036,5	0,003
1036,9	0,003
1037,4	0,003
1037,8	0,003
1038,2	0,003
1038,6	0,004
1039	0,004
1039,4	0,004
1039,8	0,004
1040,3	0,004
1040,7	0,004
1041,1	0,003
1041,5	0,003
1041,9	0,003
1042,3	0,003
1042,7	0,001
1043,2	0,002
1043,6	0,002
1044	0,002
1044,4	0,002
1044,8	0,002
1045,2	0,002
1045,6	0,003
1046,1	0,003
1046,5	0,002
1046,9	0,002
1047,3	0,002
1047,7	0,002
1048,1	0,001
1048,5	0,002
1049	0,002
1049,4	0,002
1049,8	0,001
1050,2	0,001
1050,6	0,001
1051	0,002
1051,4	0,001
1051,9	0,002
1052,3	0,002
1052,7	0,002
1053,1	0,003
1053,5	0,002
1053,9	0,002
1054,3	0,003
1054,8	0,002
1055,2	0,002
1055,6	0,001
1056	0,001
1056,4	-0
1056,8	0
1057,2	0,001
1057,6	0,001
1058,1	0,003
1058,5	0,004
1058,9	0,005
1059,3	0,006
1059,7	0,005
1060,1	0,005
1060,5	0,003
1061	0,003
1061,4	0,003
1061,8	0,002
1062,2	0,001
1062,6	0,002
1063	0,001
1063,4	0,003
1063,8	0,003
1064,3	0,002
1064,7	0,002
1065,1	0,002
1065,5	0,002
1065,9	0,002
1066,3	0,002
1066,7	0,001
1067,1	0,001
1067,6	0,001
1068	0,002
1068,4	0,002
1068,8	0,003
1069,2	0,002
1069,6	0,003
1070	0,004
1070,4	0,004
1070,9	0,003
1071,3	0,001
1071,7	0,002
1072,1	0,002
1072,5	0,003
1072,9	0,002
1073,3	0,002
1073,7	0,003
1074,2	0,004
1074,6	0,003
1075	0,004
1075,4	0,001
1075,8	0,002
1076,2	0,002
1076,6	0,002
1077	0,002
1077,5	0,003
1077,9	0,001
1078,3	0,004
1078,7	0,004
1079,1	0,003
1079,5	0,004
1079,9	0,004
1080,3	0,003
1080,7	0,004
1081,2	0,002
1081,6	0,003
1082	0,003
1082,4	0
1082,8	0
1083,2	-0
1083,6	-0
1084	-0,002
1084,5	-0,002
1084,9	-0,002
1085,3	-0,001
1085,7	-0,001
1086,1	-0,001
1086,5	-0,002
1086,9	-0,001
1087,3	-0,001
1087,7	-0
1088,2	0,001
1088,6	0,001
1089	0,002
1089,4	0,003
1089,8	0,004
1090,2	0,004
1090,6	0,002
1091	0,002
1091,4	0,002
1091,9	-0,003
1092,3	-0,005
1092,7	-0,008
1093,1	-0,008
1093,5	-0,01
1093,9	-0,008
1094,3	-0,009
1094,7	-0,005
1095,1	-0
1095,5	0,003
1096	0,001
1096,4	0,005
1096,8	-0,002
1097,2	-0,007
1097,6	-0,009
1098	-0,011
1098,4	-0,011
1098,8	-0,008
1099,2	-0,007
1099,6	0,003
1100,1	0,011
1100,5	0,013
1100,9	0,012
1101,3	0,02
1101,7	0,028
1102,1	0,023
1102,5	0,022
1102,9	0,016
1103,3	0,023
1103,7	0,021
1104,2	0,015
1104,6	0,008
1105	0,018
1105,4	0,018
1105,8	0,024
1106,2	0,025
1106,6	0,035
1107	0,042
1107,4	0,047
1107,8	0,053
1108,3	0,526
