Data from Absorbance_00037.txt Node
Date: Wed Aug 02 18:13:24 MSK 2023
User: vat
Spectrometer: MAYP114033
Trigger mode: 0
Integration Time (sec): 8,000000E-3
Scans to average: 10
Electric dark correction enabled: true
Nonlinearity correction enabled: false
Boxcar width: 3
XAxis mode: Wavelengths
Number of Pixels in Spectrum: 2068
>>>>>Begin Spectral Data<<<<<
199,4	-0
199,9	-0,018
200,4	0,314
200,8	0,625
201,3	0,761
201,8	0,848
202,2	0,874
202,7	0,879
203,2	0,9
203,6	0,935
204,1	0,966
204,6	0,973
205	0,981
205,5	0,993
206	1,005
206,4	1,047
206,9	1,065
207,4	1,077
207,8	1,106
208,3	1,127
208,8	1,14
209,2	1,169
209,7	1,183
210,2	1,186
210,6	1,18
211,1	1,175
211,5	1,2
212	1,222
212,5	1,239
212,9	1,229
213,4	1,234
213,9	1,257
214,3	1,304
214,8	1,303
215,3	1,318
215,7	1,31
216,2	1,347
216,7	1,381
217,1	1,394
217,6	1,388
218,1	1,407
218,5	1,436
219	1,494
219,5	1,506
219,9	1,515
220,4	1,544
220,9	1,584
221,3	1,598
221,8	1,595
222,3	1,592
222,7	1,599
223,2	1,613
223,6	1,635
224,1	1,638
224,6	1,639
225	1,657
225,5	1,657
226	1,672
226,4	1,692
226,9	1,683
227,4	1,687
227,8	1,712
228,3	1,716
228,8	1,733
229,2	1,744
229,7	1,775
230,2	1,811
230,6	1,833
231,1	1,833
231,5	1,853
232	1,868
232,5	1,875
232,9	1,868
233,4	1,86
233,9	1,874
234,3	1,911
234,8	1,933
235,3	1,94
235,7	1,971
236,2	1,974
236,7	1,99
237,1	1,992
237,6	1,974
238,1	1,963
238,5	1,954
239	1,928
239,4	1,939
239,9	1,946
240,4	1,949
240,8	1,964
241,3	1,975
241,8	1,984
242,2	2,001
242,7	2,006
243,2	2,008
243,6	2,016
244,1	2
244,6	2,007
245	2,022
245,5	2,047
245,9	2,042
246,4	2,048
246,9	2,058
247,3	2,086
247,8	2,079
248,3	2,08
248,7	2,069
249,2	2,074
249,7	2,066
250,1	2,076
250,6	2,076
251	2,078
251,5	2,079
252	2,089
252,4	2,088
252,9	2,1
253,4	2,094
253,8	2,08
254,3	2,088
254,8	2,11
255,2	2,11
255,7	2,113
256,1	2,115
256,6	2,109
257,1	2,119
257,5	2,124
258	2,114
258,5	2,108
258,9	2,12
259,4	2,107
259,9	2,111
260,3	2,126
260,8	2,123
261,2	2,136
261,7	2,139
262,2	2,143
262,6	2,167
263,1	2,184
263,6	2,158
264	2,191
264,5	2,189
264,9	2,201
265,4	2,206
265,9	2,228
266,3	2,207
266,8	2,255
267,3	2,217
267,7	2,211
268,2	2,232
268,7	2,225
269,1	2,187
269,6	2,184
270	2,155
270,5	2,171
271	2,16
271,4	2,137
271,9	2,12
272,4	2,129
272,8	2,153
273,3	2,154
273,7	2,153
274,2	2,144
274,7	2,145
275,1	2,132
275,6	2,12
276,1	2,079
276,5	2,069
277	2,063
277,4	2,047
277,9	2,048
278,4	2,049
278,8	2,04
279,3	2,049
279,8	2,035
280,2	2,004
280,7	1,999
281,1	1,969
281,6	1,955
282,1	1,929
282,5	1,896
283	1,854
283,4	1,796
283,9	1,724
284,4	1,647
284,8	1,563
285,3	1,482
285,8	1,399
286,2	1,315
286,7	1,239
287,1	1,169
287,6	1,108
288,1	1,051
288,5	0,998
289	0,951
289,5	0,912
289,9	0,88
290,4	0,851
290,8	0,824
291,3	0,803
291,8	0,784
292,2	0,769
292,7	0,756
293,1	0,745
293,6	0,735
294,1	0,728
294,5	0,719
295	0,714
295,5	0,708
295,9	0,702
296,4	0,697
296,8	0,691
297,3	0,687
297,8	0,683
298,2	0,678
298,7	0,674
299,1	0,669
299,6	0,666
300,1	0,663
300,5	0,659
301	0,655
301,5	0,652
301,9	0,649
302,4	0,645
302,8	0,641
303,3	0,636
303,8	0,631
304,2	0,628
304,7	0,623
305,1	0,618
305,6	0,616
306,1	0,612
306,5	0,608
307	0,606
307,4	0,6
307,9	0,597
308,4	0,594
308,8	0,589
309,3	0,584
309,8	0,581
310,2	0,576
310,7	0,572
311,1	0,567
311,6	0,562
312,1	0,558
312,5	0,552
313	0,547
313,4	0,541
313,9	0,536
314,4	0,532
314,8	0,527
315,3	0,522
315,7	0,517
316,2	0,513
316,7	0,507
317,1	0,502
317,6	0,497
318	0,491
318,5	0,486
319	0,48
319,4	0,475
319,9	0,47
320,3	0,466
320,8	0,46
321,3	0,456
321,7	0,45
322,2	0,446
322,6	0,441
323,1	0,436
323,6	0,43
324	0,426
324,5	0,421
324,9	0,416
325,4	0,411
325,9	0,406
326,3	0,402
326,8	0,397
327,2	0,393
327,7	0,388
328,2	0,382
328,6	0,377
329,1	0,372
329,5	0,367
330	0,361
330,5	0,356
330,9	0,351
331,4	0,347
331,8	0,342
332,3	0,338
332,8	0,333
333,2	0,329
333,7	0,324
334,1	0,32
334,6	0,315
335,1	0,31
335,5	0,305
336	0,3
336,4	0,295
336,9	0,29
337,4	0,286
337,8	0,282
338,3	0,277
338,7	0,272
339,2	0,268
339,7	0,262
340,1	0,258
340,6	0,252
341	0,247
341,5	0,243
342	0,239
342,4	0,235
342,9	0,231
343,3	0,227
343,8	0,223
344,2	0,22
344,7	0,216
345,2	0,212
345,6	0,208
346,1	0,204
346,5	0,2
347	0,197
347,5	0,193
347,9	0,19
348,4	0,187
348,8	0,184
349,3	0,181
349,8	0,178
350,2	0,174
350,7	0,171
351,1	0,167
351,6	0,163
352	0,16
352,5	0,157
353	0,155
353,4	0,152
353,9	0,15
354,3	0,148
354,8	0,146
355,3	0,143
355,7	0,14
356,2	0,137
356,6	0,134
357,1	0,131
357,5	0,129
358	0,127
358,5	0,124
358,9	0,123
359,4	0,121
359,8	0,118
360,3	0,116
360,8	0,114
361,2	0,112
361,7	0,11
362,1	0,107
362,6	0,106
363	0,104
363,5	0,102
364	0,099
364,4	0,097
364,9	0,095
365,3	0,094
365,8	0,092
366,3	0,091
366,7	0,089
367,2	0,088
367,6	0,088
368,1	0,087
368,5	0,085
369	0,084
369,5	0,083
369,9	0,082
370,4	0,081
370,8	0,078
371,3	0,078
371,7	0,077
372,2	0,075
372,7	0,074
373,1	0,072
373,6	0,071
374	0,07
374,5	0,068
374,9	0,067
375,4	0,067
375,9	0,065
376,3	0,065
376,8	0,064
377,2	0,062
377,7	0,062
378,2	0,061
378,6	0,06
379,1	0,059
379,5	0,058
380	0,057
380,4	0,057
380,9	0,056
381,4	0,055
381,8	0,054
382,3	0,053
382,7	0,052
383,2	0,051
383,6	0,051
384,1	0,051
384,6	0,05
385	0,049
385,5	0,049
385,9	0,049
386,4	0,048
386,8	0,048
387,3	0,047
387,7	0,046
388,2	0,046
388,7	0,046
389,1	0,045
389,6	0,044
390	0,042
390,5	0,042
390,9	0,041
391,4	0,04
391,9	0,039
392,3	0,038
392,8	0,038
393,2	0,037
393,7	0,037
394,1	0,036
394,6	0,036
395,1	0,035
395,5	0,035
396	0,036
396,4	0,035
396,9	0,034
397,3	0,034
397,8	0,033
398,2	0,033
398,7	0,032
399,2	0,032
399,6	0,031
400,1	0,031
400,5	0,031
401	0,03
401,4	0,029
401,9	0,028
402,4	0,028
402,8	0,027
403,3	0,027
403,7	0,026
404,2	0,025
404,6	0,025
405,1	0,025
405,5	0,024
406	0,024
406,5	0,024
406,9	0,024
407,4	0,024
407,8	0,023
408,3	0,023
408,7	0,022
409,2	0,021
409,6	0,02
410,1	0,02
410,6	0,019
411	0,019
411,5	0,018
411,9	0,018
412,4	0,018
412,8	0,018
413,3	0,017
413,7	0,017
414,2	0,017
414,7	0,017
415,1	0,017
415,6	0,016
416	0,016
416,5	0,015
416,9	0,014
417,4	0,014
417,8	0,013
418,3	0,013
418,8	0,013
419,2	0,013
419,7	0,013
420,1	0,012
420,6	0,012
421	0,012
421,5	0,011
421,9	0,011
422,4	0,011
422,8	0,011
423,3	0,011
423,8	0,01
424,2	0,01
424,7	0,01
425,1	0,009
425,6	0,009
426	0,008
426,5	0,008
426,9	0,008
427,4	0,008
427,9	0,007
428,3	0,007
428,8	0,007
429,2	0,007
429,7	0,007
430,1	0,007
430,6	0,007
431	0,007
431,5	0,007
431,9	0,007
432,4	0,007
432,8	0,007
433,3	0,006
433,8	0,006
434,2	0,006
434,7	0,005
435,1	0,005
435,6	0,005
436	0,005
436,5	0,004
436,9	0,005
437,4	0,005
437,8	0,004
438,3	0,004
438,8	0,004
439,2	0,004
439,7	0,004
440,1	0,003
440,6	0,003
441	0,004
441,5	0,004
441,9	0,004
442,4	0,004
442,8	0,003
443,3	0,003
443,7	0,003
444,2	0,002
444,7	0,002
445,1	0,001
445,6	0,001
446	0,001
446,5	0,001
446,9	0,001
447,4	0,001
447,8	0,001
448,3	0,001
448,7	0,001
449,2	0,001
449,6	0,001
450,1	0,001
450,6	0,002
451	0,002
451,5	0,002
451,9	0,001
452,4	0,001
452,8	0,002
453,3	0,001
453,7	0
454,2	-0
454,6	-0
455,1	0
455,5	0,001
456	0
456,4	0,001
456,9	0,001
457,3	0,001
457,8	0,001
458,3	0,001
458,7	0
459,2	0,001
459,6	0,001
460,1	0,001
460,5	0,001
461	0,001
461,4	0,001
461,9	0,001
462,3	-0
462,8	-0,001
463,2	-0,001
463,7	-0,001
464,1	-0,002
464,6	-0,002
465	-0,001
465,5	-0
466	-0
466,4	0
466,9	0
467,3	0
467,8	-0
468,2	-0
468,7	-0,001
469,1	-0,001
469,6	-0
470	-0,001
470,5	-0,001
470,9	-0
471,4	0,001
471,8	0
472,3	-0
472,7	-0,001
473,2	-0
473,6	-0
474,1	-0
474,5	-0
475	-0,001
475,4	-0
475,9	-0,001
476,4	-0,001
476,8	-0
477,3	0
477,7	-0,001
478,2	0
478,6	0
479,1	-0
479,5	0
480	-0,001
480,4	-0,001
480,9	-0,001
481,3	-0,001
481,8	-0,001
482,2	-0,001
482,7	-0
483,1	-0,001
483,6	-0,001
484	-0,001
484,5	-0,001
484,9	-0,001
485,4	-0,002
485,8	-0,002
486,3	-0,001
486,7	-0,001
487,2	-0,001
487,6	-0,001
488,1	-0,001
488,5	-0
489	0
489,4	-0
489,9	-0
490,4	-0,001
490,8	0
491,3	-0
491,7	-0
492,2	0
492,6	-0
493,1	0
493,5	0
494	-0
494,4	-0,001
494,9	-0
495,3	0
495,8	0,001
496,2	0
496,7	0
497,1	0
497,6	0
498	-0
498,5	-0
498,9	-0,001
499,4	-0
499,8	0
500,3	-0,001
500,7	-0,001
501,2	-0
501,6	-0
502,1	-0
502,5	-0,001
503	-0,001
503,4	-0
503,9	-0,001
504,3	-0,001
504,8	-0,001
505,2	-0,001
505,7	-0,001
506,1	-0,001
506,6	0
507	0
507,5	0
507,9	0
508,4	0,001
508,8	0,001
509,3	0
509,7	-0,001
510,2	-0,001
510,6	-0,001
511,1	-0,001
511,5	-0,001
512	-0,002
512,4	-0,001
512,9	-0,001
513,3	-0
513,8	-0
514,2	-0
514,7	0
515,1	0
515,6	0
516	0
516,5	-0
516,9	-0,001
517,4	0
517,8	-0
518,3	-0
518,7	0
519,2	0,001
519,6	0,001
520,1	0,001
520,5	0,001
521	0,001
521,4	0,001
521,9	0
522,3	-0
522,8	-0,001
523,2	-0,001
523,7	-0,001
524,1	-0,001
524,6	-0,002
525	-0,002
525,5	-0,001
525,9	-0,001
526,4	-0,001
526,8	-0,001
527,3	-0,002
527,7	-0,001
528,2	-0
528,6	-0,001
529,1	-0,001
529,5	-0,001
530	-0
530,4	-0
530,9	-0
531,3	-0
531,8	-0
532,2	-0
532,6	-0,001
533,1	-0,002
533,5	-0,001
534	-0,001
534,4	-0,002
534,9	-0,002
535,3	-0,002
535,8	-0,001
536,2	0
536,7	-0
537,1	-0
537,6	0
538	0,001
538,5	0,001
538,9	0,001
539,4	0
539,8	0,001
540,3	0,001
540,7	0
541,2	0
541,6	-0
542,1	-0
542,5	-0
543	0
543,4	-0
543,9	0,001
544,3	0,001
544,8	0
545,2	0
545,7	0
546,1	0
546,5	-0
547	-0,001
547,4	-0,001
547,9	-0,002
548,3	-0,001
548,8	-0
549,2	-0,001
549,7	-0
550,1	0
550,6	0
551	0,001
551,5	0,001
551,9	0
552,4	0
552,8	0
553,3	-0,001
553,7	-0,001
554,2	-0,001
554,6	-0,001
555,1	-0,001
555,5	-0,001
555,9	-0,001
556,4	-0,001
556,8	-0
557,3	-0,001
557,7	-0,001
558,2	-0,001
558,6	-0,001
559,1	-0,001
559,5	-0,001
560	-0,001
560,4	-0,001
560,9	-0,001
561,3	-0,001
561,8	-0,001
562,2	-0,001
562,7	-0
563,1	-0
563,6	0
564	0
564,4	0,001
564,9	0,001
565,3	0,001
565,8	0,001
566,2	0
566,7	0
567,1	0
567,6	-0
568	-0,001
568,5	-0
568,9	-0
569,4	-0
569,8	-0
570,3	-0
570,7	-0,001
571,1	-0,001
571,6	-0
572	-0,001
572,5	-0,001
572,9	-0
573,4	-0
573,8	0
574,3	0
574,7	0
575,2	-0
575,6	0
576,1	-0
576,5	-0
576,9	-0,001
577,4	-0
577,8	-0,001
578,3	-0,001
578,7	-0,001
579,2	-0,001
579,6	-0,001
580,1	-0
580,5	-0,001
581	-0
581,4	-0
581,9	-0
582,3	-0
582,7	-0
583,2	-0
583,6	0
584,1	0
584,5	0
585	0
585,4	0
585,9	-0
586,3	-0,001
586,8	-0,001
587,2	-0
587,6	-0,001
588,1	-0
588,5	-0,001
589	-0
589,4	-0
589,9	0
590,3	0
590,8	0
591,2	0
591,7	0,001
592,1	0,001
592,5	0,001
593	0
593,4	-0
593,9	-0
594,3	-0
594,8	-0
595,2	-0
595,7	-0
596,1	0
596,6	0
597	0
597,4	0
597,9	0
598,3	0
598,8	0
599,2	-0
599,7	-0
600,1	-0,001
600,6	-0
601	-0
601,4	-0,001
601,9	-0,001
602,3	-0,001
602,8	-0,001
603,2	-0,001
603,7	-0
604,1	-0
604,6	0
605	0
605,4	0
605,9	0
606,3	0,001
606,8	0
607,2	0
607,7	-0
608,1	0
608,6	0
609	0
609,4	0,001
609,9	0,001
610,3	0
610,8	0,001
611,2	-0
611,7	-0
612,1	0
612,6	-0
613	0
613,4	0
613,9	0
614,3	0
614,8	0
615,2	0
615,7	0
616,1	-0
616,6	-0,001
617	-0,001
617,4	-0,001
617,9	-0,001
618,3	-0
618,8	-0
619,2	-0
619,7	-0
620,1	0
620,5	0
621	-0
621,4	-0
621,9	-0,001
622,3	-0
622,8	-0
623,2	-0
623,6	-0
624,1	-0
624,5	0
625	0
625,4	0
625,9	0
626,3	0
626,8	-0
627,2	-0
627,6	0
628,1	0
628,5	-0
629	-0
629,4	0
629,9	0,001
630,3	0,001
630,7	0,001
631,2	0,001
631,6	0,001
632,1	0,001
632,5	0,001
633	0,001
633,4	0
633,8	0
634,3	0
634,7	0
635,2	0,001
635,6	0,001
636,1	0,001
636,5	0,001
636,9	0,001
637,4	0,001
637,8	0,001
638,3	0,001
638,7	0,001
639,2	0
639,6	0
640	0
640,5	-0
640,9	-0
641,4	-0,001
641,8	-0,001
642,2	-0,001
642,7	-0,001
643,1	-0
643,6	-0
644	-0
644,5	0
644,9	0,001
645,3	0
645,8	0
646,2	0
646,7	0
647,1	-0
647,6	0
648	-0
648,4	0
648,9	0
649,3	0,001
649,8	0,001
650,2	0,001
650,6	0,001
651,1	0,001
651,5	0
652	0
652,4	0
652,9	0
653,3	0
653,7	-0
654,2	0
654,6	-0
655,1	-0,001
655,5	-0,001
655,9	-0
656,4	-0
656,8	0,001
657,3	0,001
657,7	0,001
658,2	0,002
658,6	0,002
659	0,003
659,5	0,004
659,9	0,003
660,4	0,002
660,8	0,001
661,2	0,001
661,7	0,001
662,1	0,001
662,6	0,001
663	0,001
663,4	0,001
663,9	0,001
664,3	0,001
664,8	0,001
665,2	0,001
665,6	0,001
666,1	0
666,5	0
667	0,001
667,4	0
667,9	0
668,3	0,001
668,7	0,001
669,2	0,001
669,6	0,001
670,1	0,001
670,5	0,001
670,9	0,001
671,4	0,001
671,8	0,001
672,3	0,001
672,7	0
673,1	0
673,6	-0
674	-0
674,5	-0
674,9	-0
675,3	-0
675,8	0
676,2	0
676,7	0,001
677,1	0,001
677,5	0
678	0,001
678,4	0
678,9	-0
679,3	0
679,7	-0
680,2	-0
680,6	-0
681,1	-0
681,5	-0
681,9	-0
682,4	-0
682,8	0
683,3	0
683,7	0
684,1	0
684,6	0
685	0,001
685,5	0,001
685,9	0
686,3	0
686,8	0,001
687,2	0,001
687,7	0,001
688,1	0
688,5	0
689	0
689,4	-0
689,9	-0
690,3	-0
690,7	0
691,2	-0
691,6	0
692	0
692,5	0
692,9	0,001
693,4	0
693,8	0
694,2	0
694,7	0,001
695,1	0
695,6	0
696	0
696,4	0,001
696,9	0,001
697,3	0
697,8	0
698,2	0
698,6	0
699,1	0
699,5	-0
699,9	-0
700,4	0
700,8	0
701,3	0
701,7	0,001
702,1	0,001
702,6	0,001
703	0,001
703,5	0,001
703,9	0,001
704,3	0,001
704,8	0,001
705,2	0,001
705,6	0,001
706,1	0,001
706,5	0
707	0,001
707,4	0,001
707,8	0,001
708,3	0,001
708,7	0,001
709,2	0,001
709,6	0,001
710	0,002
710,5	0,002
710,9	0,001
711,3	0,002
711,8	0,002
712,2	0,002
712,7	0,002
713,1	0,001
713,5	0,001
714	0,001
714,4	0
714,8	0
715,3	0
715,7	0
716,2	0
716,6	0
717	0
717,5	0
717,9	-0
718,3	-0
718,8	0
719,2	0
719,7	0,001
720,1	0,001
720,5	0,001
721	0,001
721,4	0,001
721,8	0,001
722,3	0
722,7	0,001
723,2	0
723,6	0
724	0
724,5	0
724,9	0
725,3	0
725,8	0
726,2	0
726,7	0
727,1	0
727,5	0
728	0
728,4	-0
728,8	0
729,3	0
729,7	-0
730,1	0
730,6	0
731	0,001
731,5	0,001
731,9	0,001
732,3	0,001
732,8	0,001
733,2	0
733,6	0
734,1	-0
734,5	0
734,9	0
735,4	0
735,8	-0
736,3	0
736,7	0
737,1	0
737,6	0
738	0
738,4	0
738,9	0
739,3	0
739,7	0
740,2	0
740,6	0
741,1	0
741,5	0
741,9	0
742,4	0,001
742,8	0,001
743,2	0,001
743,7	0,001
744,1	0,001
744,5	0,001
745	0,001
745,4	0,001
745,8	0,002
746,3	0,002
746,7	0,002
747,2	0,001
747,6	0,001
748	0,001
748,5	0
748,9	0
749,3	0,001
749,8	0,001
750,2	0,001
750,6	0,001
751,1	0,001
751,5	0,001
751,9	0,001
752,4	0,001
752,8	0,001
753,3	0,001
753,7	0,001
754,1	0
754,6	0
755	0
755,4	0
755,9	0
756,3	0
756,7	0
757,2	0
757,6	0
758	0
758,5	0,001
758,9	0,001
759,3	0,001
759,8	0,001
760,2	0,001
760,6	0,001
761,1	0,001
761,5	0,001
761,9	0,001
762,4	0,002
762,8	0,002
763,3	0,001
763,7	0,001
764,1	0,001
764,6	0,001
765	0
765,4	0
765,9	0
766,3	0
766,7	0
767,2	0
767,6	0
768	0,001
768,5	0,001
768,9	0,001
769,3	0,001
769,8	0,001
770,2	0,001
770,6	0,001
771,1	0,001
771,5	0,001
771,9	0
772,4	0
772,8	0
773,2	0
773,7	0,001
774,1	0,001
774,5	0,001
775	0,001
775,4	0,002
775,8	0,002
776,3	0,002
776,7	0,002
777,1	0,002
777,6	0,001
778	0,001
778,4	0,001
778,9	0
779,3	0,001
779,7	0,001
780,2	0
780,6	0,001
781	0,001
781,5	0,001
781,9	0,001
782,3	0,001
782,8	0,001
783,2	0,001
783,6	0
784,1	0,001
784,5	0,001
784,9	0,001
785,4	0,001
785,8	0,001
786,2	0,001
786,7	0,001
787,1	0,001
787,5	0,001
788	0,001
788,4	0,001
788,8	0,001
789,3	0,001
789,7	0,001
790,1	0,001
790,6	0,001
791	0,001
791,4	0,001
791,9	0,001
792,3	0,002
792,7	0,001
793,2	0,001
793,6	0,001
794	0,001
794,5	0,001
794,9	0,001
795,3	0,001
795,8	0,001
796,2	0,001
796,6	0,001
797,1	0,001
797,5	0,001
797,9	0,002
798,4	0,001
798,8	0,001
799,2	0,001
799,7	0,001
800,1	0,001
800,5	0,001
801	0,001
801,4	0,001
801,8	0,001
802,2	0,001
802,7	0,001
803,1	0,001
803,5	0,001
804	0,001
804,4	0,002
804,8	0,002
805,3	0,001
805,7	0,001
806,1	0,001
806,6	0,001
807	0,001
807,4	0,001
807,9	0,001
808,3	0,001
808,7	0,001
809,2	0,001
809,6	0,001
810	0,001
810,4	0
810,9	0,001
811,3	0,001
811,7	0,001
812,2	0,001
812,6	0,001
813	0,001
813,5	0,001
813,9	0,001
814,3	0,001
814,8	0,001
815,2	0,001
815,6	0,001
816,1	0,001
816,5	0,001
816,9	0,001
817,3	0,001
817,8	0,001
818,2	0,001
818,6	0,001
819,1	0,001
819,5	0,001
819,9	0,001
820,4	0,001
820,8	0,002
821,2	0,002
821,7	0,001
822,1	0,001
822,5	0,001
822,9	0,001
823,4	0,001
823,8	0,001
824,2	0,001
824,7	0,001
825,1	0,001
825,5	0,001
826	0
826,4	0
826,8	0
827,3	0
827,7	0
828,1	0
828,5	0
829	0
829,4	0
829,8	0
830,3	-0
830,7	0
831,1	0
831,6	0
832	0
832,4	0
832,8	0
833,3	0
833,7	0
834,1	0
834,6	0,001
835	0,001
835,4	0,001
835,8	0,001
836,3	0,001
836,7	0,001
837,1	0,001
837,6	0,001
838	0,001
838,4	0,001
838,9	0,001
839,3	0,002
839,7	0,002
840,1	0,002
840,6	0,002
841	0,002
841,4	0,001
841,9	0,001
842,3	0,001
842,7	0,001
843,1	0,001
843,6	0,001
844	0,001
844,4	0,001
844,9	0,001
845,3	0,001
845,7	0,001
846,2	0,001
846,6	0
847	0
847,4	0
847,9	0
848,3	0
848,7	0,001
849,2	0,001
849,6	0,001
850	0,001
850,4	0,001
850,9	0,001
851,3	0,001
851,7	0,001
852,2	0,001
852,6	0,001
853	0
853,4	0,001
853,9	0,001
854,3	0,001
854,7	0,001
855,2	0,002
855,6	0,002
856	0,002
856,4	0,002
856,9	0,002
857,3	0,002
857,7	0,002
858,2	0,001
858,6	0,001
859	0,001
859,4	0,001
859,9	0,001
860,3	0,001
860,7	0,001
861,1	0,001
861,6	0,001
862	0,001
862,4	0,002
862,9	0,001
863,3	0,001
863,7	0,001
864,1	0,001
864,6	0,001
865	0,001
865,4	0,001
865,9	0,001
866,3	0,001
866,7	0,001
867,1	0,001
867,6	0,001
868	0,001
868,4	0,001
868,8	0,001
869,3	0,001
869,7	0,001
870,1	0,001
870,6	0,001
871	0,001
871,4	0,002
871,8	0,001
872,3	0,002
872,7	0,001
873,1	0,001
873,5	0,001
874	0,001
874,4	0,001
874,8	0,001
875,3	0
875,7	0
876,1	0,001
876,5	0,001
877	0,002
877,4	0,002
877,8	0,001
878,2	0,002
878,7	0,002
879,1	0,001
879,5	0,002
879,9	0,001
880,4	0,002
880,8	0,002
881,2	0,002
881,7	0,002
882,1	0,002
882,5	0,002
882,9	0,002
883,4	0,002
883,8	0,002
884,2	0,001
884,6	0,001
885,1	0,001
885,5	0,001
885,9	0,001
886,3	0,001
886,8	0,001
887,2	0,001
887,6	0,001
888	0,001
888,5	0,001
888,9	0,001
889,3	0,001
889,8	0,001
890,2	0,001
890,6	0,001
891	0,001
891,5	0,001
891,9	0,001
892,3	0,001
892,7	0,001
893,2	0,001
893,6	0,002
894	0,001
894,4	0,001
894,9	0,001
895,3	0,001
895,7	0,001
896,1	0,001
896,6	0,001
897	0,001
897,4	0,001
897,8	0,001
898,3	0
898,7	-0
899,1	-0
899,5	-0
900	-0
900,4	-0
900,8	-0
901,2	0
901,7	0
902,1	0,001
902,5	0,001
902,9	0
903,4	0,001
903,8	0,001
904,2	0,001
904,6	0
905,1	0
905,5	0
905,9	0
906,3	0,001
906,8	0
907,2	0
907,6	0,001
908	0
908,5	0,001
908,9	0,001
909,3	0,001
909,7	0,001
910,2	0,001
910,6	0,002
911	0,002
911,4	0,002
911,9	0,002
912,3	0,002
912,7	0,002
913,1	0,001
913,6	0,001
914	0,001
914,4	0,001
914,8	0,001
915,3	0
915,7	0
916,1	0
916,5	0
916,9	0
917,4	0,001
917,8	0,001
918,2	0,001
918,6	0
919,1	0
919,5	0
919,9	0,001
920,3	0,001
920,8	0,001
921,2	0,001
921,6	0,002
922	0,002
922,5	0,002
922,9	0,001
923,3	0,001
923,7	0,001
924,2	0,001
924,6	0,001
925	0,001
925,4	0,001
925,8	0,001
926,3	0,001
926,7	0,002
927,1	0,002
927,5	0,002
928	0,002
928,4	0,003
928,8	0,002
929,2	0,003
929,7	0,002
930,1	0,002
930,5	0,001
930,9	0,001
931,3	0,001
931,8	0,001
932,2	0,001
932,6	0,002
933	0,002
933,5	0,002
933,9	0,002
934,3	0,002
934,7	0,002
935,2	0,002
935,6	0,002
936	0,002
936,4	0,002
936,8	0,002
937,3	0,002
937,7	0,002
938,1	0,002
938,5	0,002
939	0,002
939,4	0,002
939,8	0,001
940,2	0,001
940,6	0,001
941,1	0
941,5	0
941,9	0
942,3	-0
942,8	0
943,2	0,001
943,6	0,001
944	0,001
944,4	0
944,9	0,001
945,3	0,002
945,7	0,001
946,1	0,001
946,6	0
947	0,001
947,4	0,002
947,8	0,001
948,2	0,001
948,7	0,001
949,1	0,001
949,5	0,001
949,9	0,001
950,3	0,001
950,8	0,001
951,2	0,001
951,6	0,001
952	0,001
952,5	0,001
952,9	0,001
953,3	0
953,7	0
954,1	0
954,6	0
955	0
955,4	0
955,8	0,001
956,2	0,001
956,7	0,001
957,1	0
957,5	-0
957,9	-0
958,3	-0
958,8	0
959,2	0,001
959,6	0,001
960	0,001
960,5	0,002
960,9	0,002
961,3	0,002
961,7	0,002
962,1	0,001
962,6	0,002
963	0,002
963,4	0,002
963,8	0,002
964,2	0,001
964,7	0,001
965,1	0,001
965,5	0,001
965,9	0
966,3	0
966,8	0
967,2	0
967,6	0,001
968	0,001
968,4	0,001
968,9	0,001
969,3	0,001
969,7	0,001
970,1	0,001
970,5	0,001
971	0,001
971,4	0,001
971,8	0,002
972,2	0,001
972,6	0,002
973,1	0,002
973,5	0,002
973,9	0,002
974,3	0,002
974,7	0,002
975,2	0,002
975,6	0,001
976	0,001
976,4	0,001
976,8	0,001
977,3	0,002
977,7	0,002
978,1	0,002
978,5	0,002
978,9	0,002
979,4	0,002
979,8	0,002
980,2	0,002
980,6	0,002
981	0,002
981,5	0,003
981,9	0,003
982,3	0,003
982,7	0,002
983,1	0,003
983,6	0,003
984	0,003
984,4	0,002
984,8	0,002
985,2	0,002
985,6	0,002
986,1	0,002
986,5	0,002
986,9	0,001
987,3	0,001
987,7	0,001
988,2	0,002
988,6	0,002
989	0,001
989,4	0,001
989,8	0,002
990,3	0,002
990,7	0,002
991,1	0,002
991,5	0,001
991,9	0,001
992,3	0,001
992,8	0,001
993,2	0
993,6	0
994	0
994,4	0,001
994,9	0,001
995,3	0
995,7	0
996,1	0,001
996,5	0,001
996,9	-0
997,4	0,001
997,8	0,001
998,2	0,002
998,6	0,002
999	0,002
999,5	0,002
999,9	0,002
1000,3	0,002
1000,7	0,002
1001,1	0,002
1001,5	0,002
1002	0,001
1002,4	0,001
1002,8	0,001
1003,2	0,002
1003,6	0,001
1004	0,001
1004,5	0,001
1004,9	0,001
1005,3	0,001
1005,7	0,001
1006,1	0
1006,6	0,001
1007	0,001
1007,4	0,001
1007,8	0,001
1008,2	0,001
1008,6	0,001
1009,1	0,001
1009,5	0,001
1009,9	0
1010,3	0
1010,7	0,001
1011,1	0
1011,6	0,001
1012	0,001
1012,4	0,002
1012,8	0,002
1013,2	0,002
1013,6	0,002
1014,1	0,002
1014,5	0,001
1014,9	0,001
1015,3	0
1015,7	-0,001
1016,1	-0
1016,6	-0
1017	-0
1017,4	-0
1017,8	-0
1018,2	-0
1018,6	-0
1019,1	-0
1019,5	-0
1019,9	-0,001
1020,3	-0,001
1020,7	-0,001
1021,1	-0,001
1021,6	-0,001
1022	-0,001
1022,4	-0,001
1022,8	-0,001
1023,2	-0
1023,6	-0
1024,1	0
1024,5	0,001
1024,9	0,001
1025,3	0,001
1025,7	0,001
1026,1	0,001
1026,6	0,001
1027	0,001
1027,4	0
1027,8	0
1028,2	-0
1028,6	-0
1029	-0
1029,5	-0,001
1029,9	-0,001
1030,3	-0,001
1030,7	-0
1031,1	-0
1031,5	-0
1032	0
1032,4	0,001
1032,8	0,002
1033,2	0,002
1033,6	0,002
1034	0,002
1034,4	0,002
1034,9	0,002
1035,3	0,001
1035,7	0
1036,1	0
1036,5	0
1036,9	0
1037,4	0
1037,8	0
1038,2	-0
1038,6	0
1039	0
1039,4	0
1039,8	0
1040,3	0
1040,7	0
1041,1	0
1041,5	0
1041,9	0
1042,3	0,001
1042,7	0,001
1043,2	0,001
1043,6	0
1044	0,001
1044,4	0
1044,8	-0
1045,2	-0,001
1045,6	0
1046,1	-0,001
1046,5	-0
1046,9	-0,001
1047,3	-0,001
1047,7	-0,001
1048,1	-0,001
1048,5	-0,001
1049	-0,001
1049,4	0,001
1049,8	0
1050,2	0
1050,6	0
1051	0,001
1051,4	0
1051,9	0,001
1052,3	-0
1052,7	0
1053,1	0
1053,5	0
1053,9	0
1054,3	-0
1054,8	-0,001
1055,2	-0,001
1055,6	-0,001
1056	-0,001
1056,4	-0,001
1056,8	-0,002
1057,2	-0,002
1057,6	-0,001
1058,1	-0,001
1058,5	-0,001
1058,9	-0,001
1059,3	-0,001
1059,7	-0,001
1060,1	-0,001
1060,5	-0,002
1061	-0,001
1061,4	-0,002
1061,8	-0,002
1062,2	-0,003
1062,6	-0,001
1063	-0,002
1063,4	-0,001
1063,8	-0,002
1064,3	-0,002
1064,7	-0,002
1065,1	-0,001
1065,5	-0,002
1065,9	-0,001
1066,3	-0,001
1066,7	-0,001
1067,1	-0
1067,6	0
1068	-0,001
1068,4	-0,001
1068,8	-0
1069,2	-0,001
1069,6	-0,001
1070	-0,001
1070,4	-0,001
1070,9	-0,002
1071,3	-0,002
1071,7	-0,002
1072,1	-0,003
1072,5	-0,002
1072,9	-0,003
1073,3	-0,003
1073,7	-0,003
1074,2	-0,002
1074,6	-0,003
1075	-0,001
1075,4	-0,003
1075,8	-0,002
1076,2	-0,002
1076,6	-0,001
1077	-0
1077,5	-0,001
1077,9	-0,003
1078,3	-0,001
1078,7	-0,001
1079,1	-0,001
1079,5	-0,002
1079,9	-0,004
1080,3	-0,003
1080,7	-0,001
1081,2	-0,002
1081,6	-0,001
1082	-0,001
1082,4	-0
1082,8	0,001
1083,2	-0
1083,6	-0,001
1084	-0,001
1084,5	-0,003
1084,9	-0,003
1085,3	-0,004
1085,7	-0,003
1086,1	-0
1086,5	-0,001
1086,9	-0,003
1087,3	-0,003
1087,7	-0,002
1088,2	-0,001
1088,6	0
1089	-0,002
1089,4	-0,002
1089,8	-0
1090,2	-0
1090,6	-0,002
1091	-0,002
1091,4	-0,004
1091,9	-0,009
1092,3	-0,007
1092,7	-0,009
1093,1	-0,009
1093,5	-0,011
1093,9	-0,01
1094,3	-0,009
1094,7	-0,004
1095,1	-0,006
1095,5	-0,002
1096	-0,005
1096,4	0
1096,8	-0,005
1097,2	-0,006
1097,6	-0,01
1098	-0,012
1098,4	-0,014
1098,8	-0,01
1099,2	-0,015
1099,6	-0,002
1100,1	-0,002
1100,5	-0
1100,9	-0,002
1101,3	0,004
1101,7	0,001
1102,1	0,002
1102,5	-0,004
1102,9	-0,007
1103,3	0,007
1103,7	0,01
1104,2	-0,001
1104,6	0,005
1105	0,013
1105,4	0,006
1105,8	0,008
1106,2	0,004
1106,6	0,012
1107	0,023
1107,4	0,03
1107,8	0,01
1108,3	0,185
