Data from Absorbance_00020.txt Node
Date: Wed Aug 02 17:50:03 MSK 2023
User: vat
Spectrometer: MAYP114033
Trigger mode: 0
Integration Time (sec): 8,000000E-3
Scans to average: 10
Electric dark correction enabled: true
Nonlinearity correction enabled: false
Boxcar width: 3
XAxis mode: Wavelengths
Number of Pixels in Spectrum: 2068
>>>>>Begin Spectral Data<<<<<
199,4	-0
199,9	0,01
200,4	0,378
200,8	0,663
201,3	0,823
201,8	0,903
202,2	0,935
202,7	0,926
203,2	0,962
203,6	0,983
204,1	1,02
204,6	1,025
205	1,032
205,5	1,041
206	1,066
206,4	1,095
206,9	1,116
207,4	1,112
207,8	1,133
208,3	1,142
208,8	1,16
209,2	1,183
209,7	1,2
210,2	1,205
210,6	1,222
211,1	1,231
211,5	1,268
212	1,272
212,5	1,28
212,9	1,282
213,4	1,299
213,9	1,311
214,3	1,329
214,8	1,33
215,3	1,361
215,7	1,364
216,2	1,376
216,7	1,413
217,1	1,445
217,6	1,468
218,1	1,495
218,5	1,504
219	1,518
219,5	1,564
219,9	1,547
220,4	1,557
220,9	1,575
221,3	1,581
221,8	1,599
222,3	1,615
222,7	1,591
223,2	1,611
223,6	1,616
224,1	1,616
224,6	1,605
225	1,609
225,5	1,609
226	1,616
226,4	1,61
226,9	1,603
227,4	1,597
227,8	1,603
228,3	1,581
228,8	1,57
229,2	1,556
229,7	1,549
230,2	1,55
230,6	1,549
231,1	1,545
231,5	1,549
232	1,556
232,5	1,558
232,9	1,561
233,4	1,563
233,9	1,579
234,3	1,592
234,8	1,621
235,3	1,642
235,7	1,683
236,2	1,713
236,7	1,75
237,1	1,764
237,6	1,789
238,1	1,804
238,5	1,829
239	1,837
239,4	1,868
239,9	1,877
240,4	1,906
240,8	1,937
241,3	1,964
241,8	1,977
242,2	1,989
242,7	1,999
243,2	2,025
243,6	2,048
244,1	2,048
244,6	2,044
245	2,053
245,5	2,081
245,9	2,089
246,4	2,082
246,9	2,074
247,3	2,086
247,8	2,088
248,3	2,093
248,7	2,094
249,2	2,081
249,7	2,094
250,1	2,099
250,6	2,085
251	2,085
251,5	2,088
252	2,09
252,4	2,099
252,9	2,091
253,4	2,094
253,8	2,096
254,3	2,104
254,8	2,112
255,2	2,106
255,7	2,102
256,1	2,098
256,6	2,083
257,1	2,103
257,5	2,091
258	2,091
258,5	2,09
258,9	2,095
259,4	2,089
259,9	2,087
260,3	2,066
260,8	2,069
261,2	2,077
261,7	2,078
262,2	2,081
262,6	2,101
263,1	2,117
263,6	2,1
264	2,121
264,5	2,114
264,9	2,113
265,4	2,095
265,9	2,09
266,3	2,081
266,8	2,098
267,3	2,081
267,7	2,061
268,2	2,061
268,7	2,064
269,1	2,035
269,6	2,004
270	1,996
270,5	2,001
271	1,993
271,4	1,965
271,9	1,949
272,4	1,943
272,8	1,95
273,3	1,935
273,7	1,907
274,2	1,892
274,7	1,87
275,1	1,827
275,6	1,785
276,1	1,734
276,5	1,681
277	1,62
277,4	1,565
277,9	1,506
278,4	1,452
278,8	1,391
279,3	1,331
279,8	1,27
280,2	1,21
280,7	1,148
281,1	1,089
281,6	1,031
282,1	0,976
282,5	0,922
283	0,871
283,4	0,819
283,9	0,77
284,4	0,723
284,8	0,678
285,3	0,636
285,8	0,595
286,2	0,557
286,7	0,521
287,1	0,488
287,6	0,456
288,1	0,426
288,5	0,397
289	0,371
289,5	0,346
289,9	0,324
290,4	0,303
290,8	0,285
291,3	0,268
291,8	0,253
292,2	0,24
292,7	0,228
293,1	0,216
293,6	0,207
294,1	0,199
294,5	0,191
295	0,184
295,5	0,178
295,9	0,173
296,4	0,17
296,8	0,166
297,3	0,164
297,8	0,161
298,2	0,16
298,7	0,159
299,1	0,157
299,6	0,156
300,1	0,156
300,5	0,156
301	0,156
301,5	0,156
301,9	0,156
302,4	0,156
302,8	0,157
303,3	0,158
303,8	0,158
304,2	0,158
304,7	0,16
305,1	0,161
305,6	0,163
306,1	0,163
306,5	0,164
307	0,165
307,4	0,166
307,9	0,167
308,4	0,168
308,8	0,169
309,3	0,17
309,8	0,171
310,2	0,172
310,7	0,172
311,1	0,174
311,6	0,175
312,1	0,176
312,5	0,178
313	0,179
313,4	0,179
313,9	0,18
314,4	0,18
314,8	0,18
315,3	0,18
315,7	0,18
316,2	0,181
316,7	0,18
317,1	0,181
317,6	0,181
318	0,181
318,5	0,182
319	0,182
319,4	0,182
319,9	0,183
320,3	0,183
320,8	0,183
321,3	0,184
321,7	0,183
322,2	0,183
322,6	0,184
323,1	0,183
323,6	0,183
324	0,183
324,5	0,183
324,9	0,183
325,4	0,183
325,9	0,182
326,3	0,182
326,8	0,182
327,2	0,182
327,7	0,181
328,2	0,181
328,6	0,18
329,1	0,179
329,5	0,179
330	0,177
330,5	0,176
330,9	0,175
331,4	0,174
331,8	0,172
332,3	0,172
332,8	0,17
333,2	0,17
333,7	0,169
334,1	0,167
334,6	0,166
335,1	0,166
335,5	0,164
336	0,163
336,4	0,162
336,9	0,162
337,4	0,16
337,8	0,159
338,3	0,157
338,7	0,155
339,2	0,154
339,7	0,153
340,1	0,151
340,6	0,149
341	0,147
341,5	0,146
342	0,145
342,4	0,143
342,9	0,142
343,3	0,14
343,8	0,139
344,2	0,137
344,7	0,136
345,2	0,134
345,6	0,132
346,1	0,13
346,5	0,128
347	0,127
347,5	0,125
347,9	0,123
348,4	0,122
348,8	0,121
349,3	0,12
349,8	0,119
350,2	0,116
350,7	0,114
351,1	0,113
351,6	0,11
352	0,108
352,5	0,106
353	0,105
353,4	0,103
353,9	0,102
354,3	0,101
354,8	0,099
355,3	0,097
355,7	0,096
356,2	0,094
356,6	0,093
357,1	0,092
357,5	0,091
358	0,09
358,5	0,089
358,9	0,087
359,4	0,086
359,8	0,084
360,3	0,082
360,8	0,08
361,2	0,079
361,7	0,078
362,1	0,076
362,6	0,076
363	0,075
363,5	0,074
364	0,072
364,4	0,07
364,9	0,068
365,3	0,068
365,8	0,067
366,3	0,066
366,7	0,065
367,2	0,064
367,6	0,064
368,1	0,064
368,5	0,063
369	0,062
369,5	0,061
369,9	0,06
370,4	0,06
370,8	0,058
371,3	0,057
371,7	0,056
372,2	0,055
372,7	0,055
373,1	0,053
373,6	0,052
374	0,051
374,5	0,049
374,9	0,049
375,4	0,048
375,9	0,046
376,3	0,046
376,8	0,045
377,2	0,044
377,7	0,044
378,2	0,044
378,6	0,043
379,1	0,042
379,5	0,042
380	0,041
380,4	0,04
380,9	0,04
381,4	0,04
381,8	0,039
382,3	0,039
382,7	0,038
383,2	0,038
383,6	0,037
384,1	0,037
384,6	0,036
385	0,035
385,5	0,035
385,9	0,035
386,4	0,035
386,8	0,035
387,3	0,034
387,7	0,034
388,2	0,034
388,7	0,034
389,1	0,033
389,6	0,033
390	0,032
390,5	0,032
390,9	0,032
391,4	0,031
391,9	0,032
392,3	0,031
392,8	0,031
393,2	0,031
393,7	0,03
394,1	0,03
394,6	0,03
395,1	0,029
395,5	0,029
396	0,03
396,4	0,03
396,9	0,029
397,3	0,029
397,8	0,029
398,2	0,028
398,7	0,028
399,2	0,028
399,6	0,028
400,1	0,028
400,5	0,028
401	0,027
401,4	0,026
401,9	0,026
402,4	0,025
402,8	0,024
403,3	0,024
403,7	0,023
404,2	0,023
404,6	0,023
405,1	0,023
405,5	0,023
406	0,023
406,5	0,023
406,9	0,023
407,4	0,023
407,8	0,023
408,3	0,023
408,7	0,023
409,2	0,022
409,6	0,022
410,1	0,022
410,6	0,022
411	0,022
411,5	0,022
411,9	0,021
412,4	0,022
412,8	0,021
413,3	0,021
413,7	0,021
414,2	0,021
414,7	0,021
415,1	0,021
415,6	0,022
416	0,021
416,5	0,021
416,9	0,021
417,4	0,02
417,8	0,019
418,3	0,019
418,8	0,019
419,2	0,02
419,7	0,02
420,1	0,019
420,6	0,02
421	0,02
421,5	0,02
421,9	0,019
422,4	0,019
422,8	0,019
423,3	0,019
423,8	0,019
424,2	0,019
424,7	0,019
425,1	0,018
425,6	0,018
426	0,018
426,5	0,017
426,9	0,017
427,4	0,017
427,9	0,017
428,3	0,017
428,8	0,016
429,2	0,016
429,7	0,015
430,1	0,016
430,6	0,016
431	0,016
431,5	0,017
431,9	0,017
432,4	0,017
432,8	0,018
433,3	0,018
433,8	0,017
434,2	0,017
434,7	0,018
435,1	0,018
435,6	0,018
436	0,017
436,5	0,017
436,9	0,017
437,4	0,017
437,8	0,016
438,3	0,016
438,8	0,016
439,2	0,016
439,7	0,016
440,1	0,016
440,6	0,016
441	0,016
441,5	0,016
441,9	0,017
442,4	0,016
442,8	0,016
443,3	0,016
443,7	0,016
444,2	0,016
444,7	0,016
445,1	0,015
445,6	0,015
446	0,015
446,5	0,015
446,9	0,014
447,4	0,013
447,8	0,014
448,3	0,014
448,7	0,014
449,2	0,014
449,6	0,015
450,1	0,015
450,6	0,015
451	0,016
451,5	0,016
451,9	0,015
452,4	0,014
452,8	0,014
453,3	0,014
453,7	0,014
454,2	0,014
454,6	0,013
455,1	0,014
455,5	0,015
456	0,015
456,4	0,015
456,9	0,015
457,3	0,015
457,8	0,015
458,3	0,015
458,7	0,015
459,2	0,014
459,6	0,014
460,1	0,014
460,5	0,014
461	0,014
461,4	0,013
461,9	0,013
462,3	0,012
462,8	0,012
463,2	0,012
463,7	0,012
464,1	0,012
464,6	0,012
465	0,013
465,5	0,013
466	0,013
466,4	0,013
466,9	0,013
467,3	0,013
467,8	0,013
468,2	0,013
468,7	0,013
469,1	0,013
469,6	0,013
470	0,013
470,5	0,013
470,9	0,013
471,4	0,013
471,8	0,013
472,3	0,012
472,7	0,013
473,2	0,012
473,6	0,012
474,1	0,012
474,5	0,012
475	0,012
475,4	0,013
475,9	0,012
476,4	0,012
476,8	0,012
477,3	0,013
477,7	0,012
478,2	0,013
478,6	0,012
479,1	0,012
479,5	0,012
480	0,013
480,4	0,012
480,9	0,012
481,3	0,011
481,8	0,011
482,2	0,011
482,7	0,012
483,1	0,011
483,6	0,011
484	0,011
484,5	0,011
484,9	0,011
485,4	0,011
485,8	0,011
486,3	0,011
486,7	0,011
487,2	0,011
487,6	0,011
488,1	0,011
488,5	0,011
489	0,011
489,4	0,01
489,9	0,011
490,4	0,01
490,8	0,011
491,3	0,011
491,7	0,011
492,2	0,011
492,6	0,011
493,1	0,01
493,5	0,01
494	0,01
494,4	0,01
494,9	0,011
495,3	0,01
495,8	0,011
496,2	0,011
496,7	0,011
497,1	0,011
497,6	0,01
498	0,01
498,5	0,01
498,9	0,009
499,4	0,009
499,8	0,009
500,3	0,009
500,7	0,01
501,2	0,01
501,6	0,01
502,1	0,01
502,5	0,011
503	0,011
503,4	0,011
503,9	0,01
504,3	0,01
504,8	0,009
505,2	0,009
505,7	0,008
506,1	0,008
506,6	0,009
507	0,009
507,5	0,009
507,9	0,009
508,4	0,008
508,8	0,009
509,3	0,009
509,7	0,008
510,2	0,008
510,6	0,007
511,1	0,008
511,5	0,009
512	0,009
512,4	0,008
512,9	0,008
513,3	0,008
513,8	0,009
514,2	0,009
514,7	0,008
515,1	0,008
515,6	0,009
516	0,009
516,5	0,01
516,9	0,01
517,4	0,01
517,8	0,01
518,3	0,01
518,7	0,01
519,2	0,011
519,6	0,01
520,1	0,01
520,5	0,01
521	0,01
521,4	0,01
521,9	0,01
522,3	0,01
522,8	0,009
523,2	0,009
523,7	0,009
524,1	0,009
524,6	0,008
525	0,007
525,5	0,007
525,9	0,008
526,4	0,008
526,8	0,008
527,3	0,007
527,7	0,008
528,2	0,008
528,6	0,008
529,1	0,008
529,5	0,007
530	0,008
530,4	0,008
530,9	0,008
531,3	0,008
531,8	0,009
532,2	0,008
532,6	0,009
533,1	0,008
533,5	0,009
534	0,008
534,4	0,008
534,9	0,008
535,3	0,008
535,8	0,008
536,2	0,009
536,7	0,009
537,1	0,009
537,6	0,009
538	0,009
538,5	0,009
538,9	0,009
539,4	0,008
539,8	0,008
540,3	0,008
540,7	0,008
541,2	0,008
541,6	0,008
542,1	0,008
542,5	0,008
543	0,007
543,4	0,007
543,9	0,007
544,3	0,008
544,8	0,007
545,2	0,008
545,7	0,007
546,1	0,008
546,5	0,008
547	0,008
547,4	0,008
547,9	0,008
548,3	0,008
548,8	0,008
549,2	0,008
549,7	0,008
550,1	0,008
550,6	0,008
551	0,008
551,5	0,008
551,9	0,008
552,4	0,008
552,8	0,007
553,3	0,007
553,7	0,007
554,2	0,006
554,6	0,006
555,1	0,006
555,5	0,006
555,9	0,006
556,4	0,006
556,8	0,006
557,3	0,006
557,7	0,006
558,2	0,006
558,6	0,007
559,1	0,006
559,5	0,007
560	0,007
560,4	0,007
560,9	0,007
561,3	0,007
561,8	0,006
562,2	0,007
562,7	0,007
563,1	0,008
563,6	0,008
564	0,008
564,4	0,008
564,9	0,008
565,3	0,008
565,8	0,007
566,2	0,007
566,7	0,007
567,1	0,007
567,6	0,007
568	0,006
568,5	0,007
568,9	0,007
569,4	0,007
569,8	0,007
570,3	0,006
570,7	0,006
571,1	0,006
571,6	0,006
572	0,006
572,5	0,006
572,9	0,007
573,4	0,006
573,8	0,007
574,3	0,007
574,7	0,007
575,2	0,006
575,6	0,006
576,1	0,006
576,5	0,006
576,9	0,006
577,4	0,006
577,8	0,006
578,3	0,006
578,7	0,006
579,2	0,007
579,6	0,006
580,1	0,007
580,5	0,006
581	0,006
581,4	0,006
581,9	0,006
582,3	0,006
582,7	0,007
583,2	0,007
583,6	0,007
584,1	0,007
584,5	0,007
585	0,007
585,4	0,007
585,9	0,006
586,3	0,006
586,8	0,006
587,2	0,006
587,6	0,006
588,1	0,006
588,5	0,006
589	0,007
589,4	0,007
589,9	0,007
590,3	0,007
590,8	0,007
591,2	0,007
591,7	0,007
592,1	0,007
592,5	0,007
593	0,007
593,4	0,007
593,9	0,007
594,3	0,007
594,8	0,007
595,2	0,007
595,7	0,006
596,1	0,007
596,6	0,006
597	0,006
597,4	0,006
597,9	0,007
598,3	0,007
598,8	0,007
599,2	0,006
599,7	0,006
600,1	0,006
600,6	0,006
601	0,005
601,4	0,005
601,9	0,005
602,3	0,006
602,8	0,006
603,2	0,005
603,7	0,006
604,1	0,006
604,6	0,007
605	0,007
605,4	0,007
605,9	0,007
606,3	0,007
606,8	0,007
607,2	0,007
607,7	0,006
608,1	0,006
608,6	0,006
609	0,006
609,4	0,006
609,9	0,007
610,3	0,006
610,8	0,006
611,2	0,006
611,7	0,006
612,1	0,006
612,6	0,006
613	0,006
613,4	0,006
613,9	0,007
614,3	0,007
614,8	0,007
615,2	0,006
615,7	0,006
616,1	0,006
616,6	0,006
617	0,005
617,4	0,005
617,9	0,005
618,3	0,006
618,8	0,006
619,2	0,006
619,7	0,006
620,1	0,006
620,5	0,006
621	0,005
621,4	0,005
621,9	0,005
622,3	0,005
622,8	0,006
623,2	0,006
623,6	0,006
624,1	0,006
624,5	0,006
625	0,006
625,4	0,006
625,9	0,006
626,3	0,006
626,8	0,005
627,2	0,005
627,6	0,005
628,1	0,006
628,5	0,005
629	0,005
629,4	0,005
629,9	0,006
630,3	0,006
630,7	0,006
631,2	0,006
631,6	0,007
632,1	0,007
632,5	0,007
633	0,007
633,4	0,006
633,8	0,006
634,3	0,005
634,7	0,005
635,2	0,005
635,6	0,005
636,1	0,005
636,5	0,005
636,9	0,005
637,4	0,005
637,8	0,005
638,3	0,005
638,7	0,005
639,2	0,005
639,6	0,005
640	0,005
640,5	0,005
640,9	0,005
641,4	0,005
641,8	0,005
642,2	0,005
642,7	0,005
643,1	0,006
643,6	0,006
644	0,005
644,5	0,006
644,9	0,005
645,3	0,005
645,8	0,005
646,2	0,005
646,7	0,005
647,1	0,005
647,6	0,005
648	0,005
648,4	0,006
648,9	0,007
649,3	0,006
649,8	0,006
650,2	0,006
650,6	0,006
651,1	0,006
651,5	0,006
652	0,005
652,4	0,005
652,9	0,005
653,3	0,006
653,7	0,006
654,2	0,006
654,6	0,005
655,1	0,004
655,5	0,005
655,9	0,003
656,4	0,002
656,8	0,003
657,3	0,003
657,7	0,004
658,2	0,004
658,6	0,003
659	0,005
659,5	0,008
659,9	0,007
660,4	0,006
660,8	0,006
661,2	0,006
661,7	0,006
662,1	0,006
662,6	0,006
663	0,006
663,4	0,006
663,9	0,005
664,3	0,005
664,8	0,005
665,2	0,005
665,6	0,006
666,1	0,005
666,5	0,006
667	0,006
667,4	0,006
667,9	0,005
668,3	0,005
668,7	0,005
669,2	0,006
669,6	0,005
670,1	0,005
670,5	0,006
670,9	0,006
671,4	0,006
671,8	0,006
672,3	0,005
672,7	0,005
673,1	0,005
673,6	0,005
674	0,005
674,5	0,005
674,9	0,005
675,3	0,006
675,8	0,006
676,2	0,006
676,7	0,006
677,1	0,006
677,5	0,006
678	0,006
678,4	0,005
678,9	0,005
679,3	0,005
679,7	0,005
680,2	0,005
680,6	0,004
681,1	0,004
681,5	0,005
681,9	0,005
682,4	0,005
682,8	0,005
683,3	0,005
683,7	0,005
684,1	0,005
684,6	0,005
685	0,005
685,5	0,005
685,9	0,005
686,3	0,005
686,8	0,005
687,2	0,005
687,7	0,005
688,1	0,005
688,5	0,005
689	0,005
689,4	0,005
689,9	0,004
690,3	0,004
690,7	0,004
691,2	0,004
691,6	0,004
692	0,005
692,5	0,004
692,9	0,005
693,4	0,004
693,8	0,004
694,2	0,005
694,7	0,005
695,1	0,005
695,6	0,005
696	0,005
696,4	0,005
696,9	0,006
697,3	0,005
697,8	0,005
698,2	0,005
698,6	0,005
699,1	0,005
699,5	0,005
699,9	0,004
700,4	0,005
700,8	0,005
701,3	0,004
701,7	0,004
702,1	0,004
702,6	0,004
703	0,005
703,5	0,005
703,9	0,005
704,3	0,005
704,8	0,005
705,2	0,005
705,6	0,005
706,1	0,005
706,5	0,005
707	0,005
707,4	0,005
707,8	0,005
708,3	0,005
708,7	0,005
709,2	0,005
709,6	0,005
710	0,005
710,5	0,005
710,9	0,005
711,3	0,005
711,8	0,005
712,2	0,005
712,7	0,005
713,1	0,005
713,5	0,004
714	0,005
714,4	0,004
714,8	0,004
715,3	0,005
715,7	0,004
716,2	0,004
716,6	0,004
717	0,004
717,5	0,004
717,9	0,004
718,3	0,004
718,8	0,004
719,2	0,004
719,7	0,005
720,1	0,005
720,5	0,005
721	0,005
721,4	0,005
721,8	0,005
722,3	0,005
722,7	0,004
723,2	0,004
723,6	0,004
724	0,004
724,5	0,004
724,9	0,004
725,3	0,005
725,8	0,005
726,2	0,005
726,7	0,005
727,1	0,005
727,5	0,004
728	0,005
728,4	0,004
728,8	0,004
729,3	0,005
729,7	0,005
730,1	0,005
730,6	0,005
731	0,005
731,5	0,005
731,9	0,005
732,3	0,005
732,8	0,005
733,2	0,005
733,6	0,005
734,1	0,004
734,5	0,004
734,9	0,004
735,4	0,004
735,8	0,004
736,3	0,004
736,7	0,004
737,1	0,004
737,6	0,005
738	0,004
738,4	0,004
738,9	0,004
739,3	0,004
739,7	0,004
740,2	0,004
740,6	0,004
741,1	0,004
741,5	0,005
741,9	0,005
742,4	0,005
742,8	0,005
743,2	0,005
743,7	0,004
744,1	0,004
744,5	0,004
745	0,005
745,4	0,005
745,8	0,005
746,3	0,005
746,7	0,006
747,2	0,006
747,6	0,005
748	0,005
748,5	0,005
748,9	0,004
749,3	0,004
749,8	0,005
750,2	0,004
750,6	0,005
751,1	0,005
751,5	0,005
751,9	0,005
752,4	0,005
752,8	0,005
753,3	0,005
753,7	0,004
754,1	0,004
754,6	0,004
755	0,004
755,4	0,004
755,9	0,005
756,3	0,005
756,7	0,005
757,2	0,005
757,6	0,004
758	0,004
758,5	0,005
758,9	0,004
759,3	0,004
759,8	0,004
760,2	0,004
760,6	0,004
761,1	0,005
761,5	0,005
761,9	0,005
762,4	0,005
762,8	0,005
763,3	0,005
763,7	0,005
764,1	0,004
764,6	0,004
765	0,004
765,4	0,004
765,9	0,004
766,3	0,004
766,7	0,004
767,2	0,004
767,6	0,004
768	0,004
768,5	0,005
768,9	0,005
769,3	0,005
769,8	0,005
770,2	0,005
770,6	0,005
771,1	0,005
771,5	0,005
771,9	0,004
772,4	0,004
772,8	0,004
773,2	0,004
773,7	0,004
774,1	0,004
774,5	0,005
775	0,005
775,4	0,005
775,8	0,005
776,3	0,005
776,7	0,005
777,1	0,005
777,6	0,005
778	0,005
778,4	0,004
778,9	0,004
779,3	0,004
779,7	0,005
780,2	0,004
780,6	0,004
781	0,004
781,5	0,004
781,9	0,004
782,3	0,004
782,8	0,003
783,2	0,004
783,6	0,003
784,1	0,004
784,5	0,004
784,9	0,004
785,4	0,004
785,8	0,005
786,2	0,005
786,7	0,005
787,1	0,005
787,5	0,005
788	0,005
788,4	0,004
788,8	0,004
789,3	0,005
789,7	0,005
790,1	0,005
790,6	0,005
791	0,005
791,4	0,005
791,9	0,005
792,3	0,005
792,7	0,005
793,2	0,005
793,6	0,005
794	0,005
794,5	0,005
794,9	0,005
795,3	0,005
795,8	0,005
796,2	0,004
796,6	0,004
797,1	0,004
797,5	0,004
797,9	0,005
798,4	0,005
798,8	0,005
799,2	0,005
799,7	0,005
800,1	0,005
800,5	0,004
801	0,004
801,4	0,004
801,8	0,004
802,2	0,005
802,7	0,005
803,1	0,005
803,5	0,005
804	0,005
804,4	0,006
804,8	0,006
805,3	0,005
805,7	0,005
806,1	0,005
806,6	0,005
807	0,005
807,4	0,005
807,9	0,004
808,3	0,004
808,7	0,004
809,2	0,004
809,6	0,004
810	0,004
810,4	0,004
810,9	0,004
811,3	0,004
811,7	0,003
812,2	0,004
812,6	0,004
813	0,004
813,5	0,004
813,9	0,004
814,3	0,005
814,8	0,005
815,2	0,005
815,6	0,005
816,1	0,005
816,5	0,005
816,9	0,004
817,3	0,004
817,8	0,004
818,2	0,004
818,6	0,004
819,1	0,004
819,5	0,004
819,9	0,004
820,4	0,004
820,8	0,004
821,2	0,004
821,7	0,004
822,1	0,004
822,5	0,004
822,9	0,004
823,4	0,005
823,8	0,004
824,2	0,004
824,7	0,004
825,1	0,004
825,5	0,003
826	0,003
826,4	0,003
826,8	0,003
827,3	0,004
827,7	0,003
828,1	0,003
828,5	0,003
829	0,003
829,4	0,003
829,8	0,003
830,3	0,003
830,7	0,003
831,1	0,003
831,6	0,003
832	0,003
832,4	0,003
832,8	0,003
833,3	0,003
833,7	0,003
834,1	0,004
834,6	0,004
835	0,004
835,4	0,004
835,8	0,004
836,3	0,004
836,7	0,004
837,1	0,004
837,6	0,004
838	0,005
838,4	0,005
838,9	0,005
839,3	0,005
839,7	0,005
840,1	0,005
840,6	0,005
841	0,004
841,4	0,004
841,9	0,004
842,3	0,004
842,7	0,004
843,1	0,004
843,6	0,004
844	0,004
844,4	0,004
844,9	0,004
845,3	0,004
845,7	0,004
846,2	0,004
846,6	0,004
847	0,004
847,4	0,004
847,9	0,003
848,3	0,004
848,7	0,004
849,2	0,004
849,6	0,004
850	0,004
850,4	0,004
850,9	0,004
851,3	0,004
851,7	0,004
852,2	0,004
852,6	0,004
853	0,004
853,4	0,005
853,9	0,005
854,3	0,005
854,7	0,005
855,2	0,005
855,6	0,005
856	0,005
856,4	0,005
856,9	0,005
857,3	0,004
857,7	0,004
858,2	0,004
858,6	0,004
859	0,004
859,4	0,004
859,9	0,003
860,3	0,004
860,7	0,004
861,1	0,004
861,6	0,004
862	0,004
862,4	0,004
862,9	0,004
863,3	0,004
863,7	0,004
864,1	0,004
864,6	0,004
865	0,004
865,4	0,004
865,9	0,004
866,3	0,004
866,7	0,004
867,1	0,004
867,6	0,004
868	0,004
868,4	0,004
868,8	0,004
869,3	0,004
869,7	0,003
870,1	0,003
870,6	0,003
871	0,004
871,4	0,004
871,8	0,004
872,3	0,004
872,7	0,004
873,1	0,004
873,5	0,005
874	0,004
874,4	0,004
874,8	0,004
875,3	0,004
875,7	0,004
876,1	0,004
876,5	0,004
877	0,005
877,4	0,005
877,8	0,005
878,2	0,005
878,7	0,005
879,1	0,005
879,5	0,005
879,9	0,005
880,4	0,005
880,8	0,005
881,2	0,005
881,7	0,004
882,1	0,004
882,5	0,004
882,9	0,004
883,4	0,004
883,8	0,004
884,2	0,004
884,6	0,004
885,1	0,004
885,5	0,004
885,9	0,004
886,3	0,004
886,8	0,004
887,2	0,004
887,6	0,004
888	0,004
888,5	0,004
888,9	0,004
889,3	0,003
889,8	0,004
890,2	0,004
890,6	0,004
891	0,004
891,5	0,004
891,9	0,004
892,3	0,004
892,7	0,004
893,2	0,004
893,6	0,004
894	0,004
894,4	0,004
894,9	0,004
895,3	0,004
895,7	0,004
896,1	0,004
896,6	0,004
897	0,004
897,4	0,005
897,8	0,004
898,3	0,004
898,7	0,004
899,1	0,004
899,5	0,003
900	0,003
900,4	0,003
900,8	0,003
901,2	0,004
901,7	0,004
902,1	0,004
902,5	0,004
902,9	0,003
903,4	0,003
903,8	0,003
904,2	0,003
904,6	0,003
905,1	0,003
905,5	0,003
905,9	0,003
906,3	0,003
906,8	0,003
907,2	0,004
907,6	0,004
908	0,003
908,5	0,004
908,9	0,004
909,3	0,004
909,7	0,004
910,2	0,004
910,6	0,004
911	0,004
911,4	0,004
911,9	0,004
912,3	0,004
912,7	0,004
913,1	0,004
913,6	0,003
914	0,003
914,4	0,003
914,8	0,003
915,3	0,002
915,7	0,002
916,1	0,003
916,5	0,003
916,9	0,003
917,4	0,003
917,8	0,003
918,2	0,003
918,6	0,003
919,1	0,003
919,5	0,003
919,9	0,003
920,3	0,003
920,8	0,003
921,2	0,003
921,6	0,004
922	0,004
922,5	0,004
922,9	0,004
923,3	0,004
923,7	0,003
924,2	0,003
924,6	0,003
925	0,004
925,4	0,004
925,8	0,004
926,3	0,004
926,7	0,005
927,1	0,005
927,5	0,004
928	0,004
928,4	0,004
928,8	0,004
929,2	0,004
929,7	0,004
930,1	0,004
930,5	0,003
930,9	0,004
931,3	0,003
931,8	0,004
932,2	0,003
932,6	0,004
933	0,004
933,5	0,005
933,9	0,005
934,3	0,005
934,7	0,005
935,2	0,005
935,6	0,005
936	0,004
936,4	0,004
936,8	0,004
937,3	0,003
937,7	0,004
938,1	0,004
938,5	0,004
939	0,004
939,4	0,004
939,8	0,004
940,2	0,004
940,6	0,003
941,1	0,003
941,5	0,003
941,9	0,003
942,3	0,003
942,8	0,004
943,2	0,004
943,6	0,004
944	0,004
944,4	0,003
944,9	0,004
945,3	0,004
945,7	0,004
946,1	0,003
946,6	0,003
947	0,003
947,4	0,004
947,8	0,003
948,2	0,003
948,7	0,003
949,1	0,004
949,5	0,004
949,9	0,003
950,3	0,004
950,8	0,004
951,2	0,004
951,6	0,004
952	0,004
952,5	0,004
952,9	0,004
953,3	0,003
953,7	0,003
954,1	0,003
954,6	0,003
955	0,003
955,4	0,003
955,8	0,003
956,2	0,003
956,7	0,003
957,1	0,003
957,5	0,003
957,9	0,003
958,3	0,003
958,8	0,003
959,2	0,004
959,6	0,004
960	0,005
960,5	0,005
960,9	0,005
961,3	0,004
961,7	0,004
962,1	0,004
962,6	0,005
963	0,004
963,4	0,004
963,8	0,004
964,2	0,004
964,7	0,004
965,1	0,004
965,5	0,004
965,9	0,003
966,3	0,003
966,8	0,003
967,2	0,004
967,6	0,004
968	0,004
968,4	0,004
968,9	0,004
969,3	0,005
969,7	0,004
970,1	0,004
970,5	0,004
971	0,004
971,4	0,004
971,8	0,005
972,2	0,004
972,6	0,005
973,1	0,005
973,5	0,005
973,9	0,005
974,3	0,005
974,7	0,005
975,2	0,005
975,6	0,004
976	0,004
976,4	0,003
976,8	0,004
977,3	0,004
977,7	0,004
978,1	0,005
978,5	0,005
978,9	0,005
979,4	0,005
979,8	0,005
980,2	0,004
980,6	0,004
981	0,004
981,5	0,004
981,9	0,005
982,3	0,005
982,7	0,004
983,1	0,004
983,6	0,004
984	0,005
984,4	0,005
984,8	0,004
985,2	0,004
985,6	0,004
986,1	0,004
986,5	0,004
986,9	0,004
987,3	0,003
987,7	0,004
988,2	0,004
988,6	0,004
989	0,005
989,4	0,004
989,8	0,004
990,3	0,005
990,7	0,005
991,1	0,005
991,5	0,004
991,9	0,004
992,3	0,004
992,8	0,004
993,2	0,003
993,6	0,003
994	0,003
994,4	0,003
994,9	0,003
995,3	0,002
995,7	0,002
996,1	0,003
996,5	0,003
996,9	0,002
997,4	0,003
997,8	0,003
998,2	0,004
998,6	0,004
999	0,003
999,5	0,004
999,9	0,004
1000,3	0,004
1000,7	0,004
1001,1	0,004
1001,5	0,004
1002	0,004
1002,4	0,004
1002,8	0,004
1003,2	0,004
1003,6	0,004
1004	0,003
1004,5	0,003
1004,9	0,003
1005,3	0,003
1005,7	0,003
1006,1	0,003
1006,6	0,004
1007	0,003
1007,4	0,004
1007,8	0,004
1008,2	0,004
1008,6	0,004
1009,1	0,004
1009,5	0,003
1009,9	0,004
1010,3	0,002
1010,7	0,003
1011,1	0,002
1011,6	0,003
1012	0,003
1012,4	0,003
1012,8	0,004
1013,2	0,004
1013,6	0,004
1014,1	0,004
1014,5	0,004
1014,9	0,004
1015,3	0,004
1015,7	0,003
1016,1	0,003
1016,6	0,002
1017	0,002
1017,4	0,002
1017,8	0,002
1018,2	0,002
1018,6	0,002
1019,1	0,002
1019,5	0,003
1019,9	0,002
1020,3	0,002
1020,7	0,001
1021,1	0,001
1021,6	0,001
1022	0,001
1022,4	0,001
1022,8	0,001
1023,2	0,001
1023,6	0,002
1024,1	0,002
1024,5	0,003
1024,9	0,003
1025,3	0,003
1025,7	0,003
1026,1	0,003
1026,6	0,003
1027	0,004
1027,4	0,003
1027,8	0,003
1028,2	0,002
1028,6	0,002
1029	0,002
1029,5	0,002
1029,9	0,001
1030,3	0,001
1030,7	0,001
1031,1	0,001
1031,5	0,002
1032	0,002
1032,4	0,003
1032,8	0,003
1033,2	0,004
1033,6	0,004
1034	0,004
1034,4	0,004
1034,9	0,003
1035,3	0,004
1035,7	0,003
1036,1	0,003
1036,5	0,003
1036,9	0,003
1037,4	0,002
1037,8	0,003
1038,2	0,003
1038,6	0,003
1039	0,004
1039,4	0,004
1039,8	0,003
1040,3	0,003
1040,7	0,003
1041,1	0,003
1041,5	0,003
1041,9	0,002
1042,3	0,003
1042,7	0,003
1043,2	0,004
1043,6	0,003
1044	0,004
1044,4	0,003
1044,8	0,003
1045,2	0,002
1045,6	0,003
1046,1	0,003
1046,5	0,002
1046,9	0,001
1047,3	0,002
1047,7	0,002
1048,1	0,002
1048,5	0,002
1049	0,002
1049,4	0,002
1049,8	0,002
1050,2	0,002
1050,6	0,002
1051	0,002
1051,4	0,001
1051,9	0,002
1052,3	0,001
1052,7	0,002
1053,1	0,003
1053,5	0,003
1053,9	0,003
1054,3	0,002
1054,8	0,002
1055,2	0,001
1055,6	0,001
1056	0,001
1056,4	0
1056,8	0
1057,2	0,001
1057,6	0
1058,1	0,003
1058,5	0,003
1058,9	0,003
1059,3	0,003
1059,7	0,002
1060,1	0,002
1060,5	0,002
1061	0
1061,4	0
1061,8	-0
1062,2	-0
1062,6	0,001
1063	0,001
1063,4	0,002
1063,8	0,003
1064,3	0,002
1064,7	0,002
1065,1	0,003
1065,5	0,003
1065,9	0,002
1066,3	0,003
1066,7	0,004
1067,1	0,004
1067,6	0,004
1068	0,004
1068,4	0,004
1068,8	0,004
1069,2	0,003
1069,6	0,003
1070	0,003
1070,4	0,003
1070,9	0,003
1071,3	0,003
1071,7	0,003
1072,1	0,002
1072,5	0,002
1072,9	0,002
1073,3	0,002
1073,7	0,002
1074,2	0,002
1074,6	0,001
1075	0,002
1075,4	0,001
1075,8	0,002
1076,2	0,002
1076,6	0,002
1077	0,003
1077,5	0,002
1077,9	-0,001
1078,3	0,001
1078,7	0
1079,1	-0
1079,5	0
1079,9	-0,001
1080,3	-0,001
1080,7	0,002
1081,2	0,001
1081,6	0,001
1082	0,001
1082,4	-0
1082,8	0,001
1083,2	0,001
1083,6	0,001
1084	0,001
1084,5	0,001
1084,9	0,002
1085,3	-0
1085,7	0
1086,1	0,001
1086,5	0
1086,9	-0
1087,3	-0,002
1087,7	-0,001
1088,2	0,002
1088,6	0,002
1089	0,002
1089,4	0,001
1089,8	0,002
1090,2	0,006
1090,6	0,005
1091	0,005
1091,4	0,005
1091,9	0,002
1092,3	0,001
1092,7	0
1093,1	-0,001
1093,5	-0,002
1093,9	0,001
1094,3	0,001
1094,7	0,005
1095,1	0,009
1095,5	0,013
1096	0,011
1096,4	0,011
1096,8	0,008
1097,2	0,005
1097,6	-0,003
1098	-0,009
1098,4	-0,01
1098,8	-0,01
1099,2	-0,008
1099,6	-0,003
1100,1	0,005
1100,5	0,008
1100,9	0,011
1101,3	0,017
1101,7	0,022
1102,1	0,018
1102,5	0,018
1102,9	0,005
1103,3	0,015
1103,7	0,016
1104,2	0,013
1104,6	0,003
1105	0,008
1105,4	0,002
1105,8	0,012
1106,2	0,009
1106,6	0,011
1107	0
1107,4	0,014
1107,8	0,027
1108,3	0,269
