Data from Absorbance_00028.txt Node
Date: Wed Aug 02 18:01:38 MSK 2023
User: vat
Spectrometer: MAYP114033
Trigger mode: 0
Integration Time (sec): 8,000000E-3
Scans to average: 10
Electric dark correction enabled: true
Nonlinearity correction enabled: false
Boxcar width: 3
XAxis mode: Wavelengths
Number of Pixels in Spectrum: 2068
>>>>>Begin Spectral Data<<<<<
199,4	-0
199,9	0,031
200,4	0,392
200,8	0,674
201,3	0,808
201,8	0,885
202,2	0,883
202,7	0,912
203,2	0,958
203,6	0,977
204,1	0,995
204,6	0,989
205	1,012
205,5	1,027
206	1,022
206,4	1,045
206,9	1,064
207,4	1,066
207,8	1,079
208,3	1,087
208,8	1,094
209,2	1,114
209,7	1,121
210,2	1,129
210,6	1,146
211,1	1,167
211,5	1,174
212	1,191
212,5	1,218
212,9	1,218
213,4	1,218
213,9	1,231
214,3	1,242
214,8	1,229
215,3	1,226
215,7	1,201
216,2	1,208
216,7	1,21
217,1	1,205
217,6	1,191
218,1	1,181
218,5	1,172
219	1,175
219,5	1,158
219,9	1,133
220,4	1,103
220,9	1,084
221,3	1,062
221,8	1,035
222,3	1,005
222,7	0,973
223,2	0,949
223,6	0,925
224,1	0,896
224,6	0,864
225	0,838
225,5	0,809
226	0,786
226,4	0,76
226,9	0,737
227,4	0,712
227,8	0,696
228,3	0,677
228,8	0,659
229,2	0,642
229,7	0,629
230,2	0,617
230,6	0,608
231,1	0,598
231,5	0,588
232	0,582
232,5	0,576
232,9	0,571
233,4	0,567
233,9	0,565
234,3	0,563
234,8	0,567
235,3	0,57
235,7	0,574
236,2	0,58
236,7	0,587
237,1	0,593
237,6	0,601
238,1	0,611
238,5	0,621
239	0,634
239,4	0,646
239,9	0,658
240,4	0,674
240,8	0,69
241,3	0,705
241,8	0,724
242,2	0,741
242,7	0,759
243,2	0,783
243,6	0,805
244,1	0,825
244,6	0,848
245	0,871
245,5	0,895
245,9	0,921
246,4	0,942
246,9	0,967
247,3	0,993
247,8	1,014
248,3	1,036
248,7	1,055
249,2	1,073
249,7	1,093
250,1	1,111
250,6	1,129
251	1,147
251,5	1,164
252	1,184
252,4	1,201
252,9	1,218
253,4	1,232
253,8	1,247
254,3	1,264
254,8	1,281
255,2	1,292
255,7	1,302
256,1	1,312
256,6	1,32
257,1	1,328
257,5	1,329
258	1,33
258,5	1,325
258,9	1,327
259,4	1,323
259,9	1,317
260,3	1,308
260,8	1,299
261,2	1,292
261,7	1,288
262,2	1,279
262,6	1,267
263,1	1,258
263,6	1,245
264	1,24
264,5	1,228
264,9	1,213
265,4	1,198
265,9	1,184
266,3	1,165
266,8	1,145
267,3	1,121
267,7	1,094
268,2	1,07
268,7	1,045
269,1	1,013
269,6	0,985
270	0,958
270,5	0,928
271	0,901
271,4	0,868
271,9	0,838
272,4	0,809
272,8	0,779
273,3	0,747
273,7	0,716
274,2	0,685
274,7	0,657
275,1	0,628
275,6	0,6
276,1	0,572
276,5	0,545
277	0,519
277,4	0,495
277,9	0,47
278,4	0,446
278,8	0,424
279,3	0,403
279,8	0,384
280,2	0,365
280,7	0,347
281,1	0,331
281,6	0,316
282,1	0,3
282,5	0,286
283	0,273
283,4	0,26
283,9	0,247
284,4	0,236
284,8	0,224
285,3	0,215
285,8	0,206
286,2	0,197
286,7	0,188
287,1	0,181
287,6	0,175
288,1	0,169
288,5	0,163
289	0,158
289,5	0,153
289,9	0,149
290,4	0,145
290,8	0,141
291,3	0,139
291,8	0,136
292,2	0,134
292,7	0,132
293,1	0,13
293,6	0,13
294,1	0,13
294,5	0,129
295	0,128
295,5	0,128
295,9	0,128
296,4	0,128
296,8	0,129
297,3	0,129
297,8	0,13
298,2	0,13
298,7	0,132
299,1	0,133
299,6	0,134
300,1	0,135
300,5	0,136
301	0,137
301,5	0,139
301,9	0,141
302,4	0,142
302,8	0,144
303,3	0,145
303,8	0,146
304,2	0,148
304,7	0,149
305,1	0,15
305,6	0,152
306,1	0,153
306,5	0,155
307	0,156
307,4	0,157
307,9	0,159
308,4	0,16
308,8	0,162
309,3	0,164
309,8	0,166
310,2	0,168
310,7	0,169
311,1	0,17
311,6	0,172
312,1	0,173
312,5	0,175
313	0,176
313,4	0,177
313,9	0,179
314,4	0,18
314,8	0,18
315,3	0,181
315,7	0,181
316,2	0,182
316,7	0,182
317,1	0,183
317,6	0,183
318	0,183
318,5	0,184
319	0,184
319,4	0,185
319,9	0,185
320,3	0,186
320,8	0,186
321,3	0,187
321,7	0,188
322,2	0,188
322,6	0,188
323,1	0,189
323,6	0,189
324	0,189
324,5	0,19
324,9	0,19
325,4	0,19
325,9	0,19
326,3	0,19
326,8	0,19
327,2	0,19
327,7	0,19
328,2	0,189
328,6	0,188
329,1	0,188
329,5	0,187
330	0,186
330,5	0,185
330,9	0,184
331,4	0,182
331,8	0,182
332,3	0,181
332,8	0,179
333,2	0,179
333,7	0,178
334,1	0,177
334,6	0,176
335,1	0,174
335,5	0,173
336	0,171
336,4	0,169
336,9	0,168
337,4	0,167
337,8	0,166
338,3	0,164
338,7	0,162
339,2	0,161
339,7	0,159
340,1	0,157
340,6	0,155
341	0,152
341,5	0,151
342	0,15
342,4	0,149
342,9	0,147
343,3	0,145
343,8	0,144
344,2	0,142
344,7	0,14
345,2	0,137
345,6	0,136
346,1	0,134
346,5	0,132
347	0,13
347,5	0,128
347,9	0,126
348,4	0,126
348,8	0,125
349,3	0,123
349,8	0,121
350,2	0,118
350,7	0,116
351,1	0,115
351,6	0,112
352	0,109
352,5	0,108
353	0,106
353,4	0,105
353,9	0,103
354,3	0,101
354,8	0,099
355,3	0,098
355,7	0,096
356,2	0,094
356,6	0,093
357,1	0,091
357,5	0,09
358	0,087
358,5	0,086
358,9	0,085
359,4	0,083
359,8	0,081
360,3	0,08
360,8	0,078
361,2	0,077
361,7	0,075
362,1	0,074
362,6	0,072
363	0,071
363,5	0,07
364	0,068
364,4	0,067
364,9	0,065
365,3	0,065
365,8	0,063
366,3	0,062
366,7	0,061
367,2	0,061
367,6	0,06
368,1	0,059
368,5	0,058
369	0,057
369,5	0,056
369,9	0,055
370,4	0,054
370,8	0,052
371,3	0,052
371,7	0,051
372,2	0,05
372,7	0,049
373,1	0,048
373,6	0,047
374	0,046
374,5	0,044
374,9	0,043
375,4	0,042
375,9	0,042
376,3	0,041
376,8	0,04
377,2	0,039
377,7	0,039
378,2	0,038
378,6	0,038
379,1	0,037
379,5	0,037
380	0,036
380,4	0,036
380,9	0,036
381,4	0,036
381,8	0,034
382,3	0,034
382,7	0,034
383,2	0,034
383,6	0,033
384,1	0,032
384,6	0,032
385	0,031
385,5	0,031
385,9	0,03
386,4	0,029
386,8	0,029
387,3	0,028
387,7	0,028
388,2	0,028
388,7	0,028
389,1	0,028
389,6	0,027
390	0,027
390,5	0,027
390,9	0,027
391,4	0,026
391,9	0,026
392,3	0,025
392,8	0,025
393,2	0,025
393,7	0,025
394,1	0,026
394,6	0,025
395,1	0,025
395,5	0,025
396	0,026
396,4	0,025
396,9	0,024
397,3	0,024
397,8	0,024
398,2	0,024
398,7	0,024
399,2	0,024
399,6	0,024
400,1	0,024
400,5	0,023
401	0,023
401,4	0,023
401,9	0,022
402,4	0,022
402,8	0,021
403,3	0,021
403,7	0,02
404,2	0,019
404,6	0,019
405,1	0,019
405,5	0,019
406	0,019
406,5	0,019
406,9	0,02
407,4	0,02
407,8	0,02
408,3	0,019
408,7	0,018
409,2	0,017
409,6	0,017
410,1	0,017
410,6	0,017
411	0,017
411,5	0,017
411,9	0,017
412,4	0,016
412,8	0,017
413,3	0,017
413,7	0,016
414,2	0,016
414,7	0,017
415,1	0,017
415,6	0,017
416	0,017
416,5	0,017
416,9	0,017
417,4	0,016
417,8	0,016
418,3	0,015
418,8	0,015
419,2	0,016
419,7	0,016
420,1	0,015
420,6	0,016
421	0,015
421,5	0,015
421,9	0,014
422,4	0,014
422,8	0,014
423,3	0,014
423,8	0,013
424,2	0,014
424,7	0,014
425,1	0,014
425,6	0,014
426	0,013
426,5	0,013
426,9	0,013
427,4	0,014
427,9	0,013
428,3	0,014
428,8	0,014
429,2	0,014
429,7	0,014
430,1	0,014
430,6	0,014
431	0,014
431,5	0,014
431,9	0,014
432,4	0,015
432,8	0,015
433,3	0,015
433,8	0,014
434,2	0,014
434,7	0,014
435,1	0,014
435,6	0,014
436	0,013
436,5	0,013
436,9	0,013
437,4	0,013
437,8	0,012
438,3	0,012
438,8	0,012
439,2	0,012
439,7	0,012
440,1	0,012
440,6	0,012
441	0,013
441,5	0,013
441,9	0,013
442,4	0,013
442,8	0,013
443,3	0,012
443,7	0,013
444,2	0,012
444,7	0,012
445,1	0,012
445,6	0,012
446	0,013
446,5	0,013
446,9	0,012
447,4	0,012
447,8	0,012
448,3	0,012
448,7	0,012
449,2	0,012
449,6	0,012
450,1	0,012
450,6	0,013
451	0,013
451,5	0,012
451,9	0,012
452,4	0,011
452,8	0,011
453,3	0,011
453,7	0,01
454,2	0,01
454,6	0,011
455,1	0,011
455,5	0,012
456	0,012
456,4	0,012
456,9	0,012
457,3	0,012
457,8	0,012
458,3	0,011
458,7	0,011
459,2	0,01
459,6	0,011
460,1	0,011
460,5	0,01
461	0,01
461,4	0,011
461,9	0,011
462,3	0,011
462,8	0,011
463,2	0,01
463,7	0,011
464,1	0,01
464,6	0,01
465	0,01
465,5	0,011
466	0,011
466,4	0,011
466,9	0,01
467,3	0,01
467,8	0,009
468,2	0,009
468,7	0,009
469,1	0,008
469,6	0,009
470	0,009
470,5	0,009
470,9	0,009
471,4	0,01
471,8	0,01
472,3	0,01
472,7	0,01
473,2	0,01
473,6	0,01
474,1	0,011
474,5	0,01
475	0,01
475,4	0,01
475,9	0,009
476,4	0,009
476,8	0,01
477,3	0,01
477,7	0,01
478,2	0,011
478,6	0,01
479,1	0,011
479,5	0,011
480	0,01
480,4	0,009
480,9	0,009
481,3	0,009
481,8	0,01
482,2	0,01
482,7	0,01
483,1	0,01
483,6	0,01
484	0,01
484,5	0,009
484,9	0,008
485,4	0,007
485,8	0,007
486,3	0,007
486,7	0,007
487,2	0,007
487,6	0,007
488,1	0,008
488,5	0,008
489	0,008
489,4	0,008
489,9	0,008
490,4	0,008
490,8	0,008
491,3	0,008
491,7	0,008
492,2	0,008
492,6	0,008
493,1	0,008
493,5	0,007
494	0,007
494,4	0,007
494,9	0,007
495,3	0,008
495,8	0,008
496,2	0,008
496,7	0,008
497,1	0,008
497,6	0,008
498	0,008
498,5	0,008
498,9	0,007
499,4	0,007
499,8	0,007
500,3	0,007
500,7	0,007
501,2	0,007
501,6	0,007
502,1	0,007
502,5	0,007
503	0,006
503,4	0,007
503,9	0,007
504,3	0,007
504,8	0,008
505,2	0,008
505,7	0,008
506,1	0,008
506,6	0,008
507	0,007
507,5	0,008
507,9	0,007
508,4	0,007
508,8	0,007
509,3	0,007
509,7	0,006
510,2	0,006
510,6	0,005
511,1	0,005
511,5	0,005
512	0,005
512,4	0,005
512,9	0,005
513,3	0,006
513,8	0,006
514,2	0,006
514,7	0,006
515,1	0,006
515,6	0,007
516	0,007
516,5	0,007
516,9	0,007
517,4	0,007
517,8	0,007
518,3	0,008
518,7	0,008
519,2	0,008
519,6	0,008
520,1	0,008
520,5	0,008
521	0,008
521,4	0,007
521,9	0,007
522,3	0,006
522,8	0,006
523,2	0,006
523,7	0,005
524,1	0,005
524,6	0,005
525	0,005
525,5	0,006
525,9	0,006
526,4	0,006
526,8	0,007
527,3	0,006
527,7	0,006
528,2	0,006
528,6	0,006
529,1	0,006
529,5	0,006
530	0,007
530,4	0,007
530,9	0,007
531,3	0,007
531,8	0,007
532,2	0,007
532,6	0,007
533,1	0,007
533,5	0,007
534	0,007
534,4	0,007
534,9	0,007
535,3	0,006
535,8	0,007
536,2	0,007
536,7	0,007
537,1	0,007
537,6	0,006
538	0,006
538,5	0,006
538,9	0,006
539,4	0,005
539,8	0,005
540,3	0,005
540,7	0,006
541,2	0,006
541,6	0,006
542,1	0,006
542,5	0,006
543	0,005
543,4	0,005
543,9	0,006
544,3	0,006
544,8	0,006
545,2	0,006
545,7	0,006
546,1	0,006
546,5	0,006
547	0,006
547,4	0,006
547,9	0,006
548,3	0,006
548,8	0,007
549,2	0,006
549,7	0,006
550,1	0,006
550,6	0,007
551	0,007
551,5	0,006
551,9	0,005
552,4	0,005
552,8	0,005
553,3	0,004
553,7	0,004
554,2	0,004
554,6	0,004
555,1	0,004
555,5	0,004
555,9	0,004
556,4	0,005
556,8	0,005
557,3	0,005
557,7	0,005
558,2	0,005
558,6	0,005
559,1	0,005
559,5	0,006
560	0,006
560,4	0,005
560,9	0,006
561,3	0,006
561,8	0,005
562,2	0,005
562,7	0,005
563,1	0,005
563,6	0,005
564	0,004
564,4	0,005
564,9	0,005
565,3	0,004
565,8	0,004
566,2	0,004
566,7	0,004
567,1	0,004
567,6	0,004
568	0,004
568,5	0,005
568,9	0,005
569,4	0,005
569,8	0,005
570,3	0,005
570,7	0,005
571,1	0,004
571,6	0,004
572	0,004
572,5	0,004
572,9	0,004
573,4	0,004
573,8	0,004
574,3	0,005
574,7	0,004
575,2	0,004
575,6	0,005
576,1	0,005
576,5	0,005
576,9	0,005
577,4	0,005
577,8	0,005
578,3	0,005
578,7	0,004
579,2	0,004
579,6	0,004
580,1	0,005
580,5	0,005
581	0,005
581,4	0,005
581,9	0,005
582,3	0,005
582,7	0,005
583,2	0,005
583,6	0,005
584,1	0,004
584,5	0,005
585	0,005
585,4	0,004
585,9	0,004
586,3	0,004
586,8	0,004
587,2	0,004
587,6	0,004
588,1	0,004
588,5	0,004
589	0,004
589,4	0,005
589,9	0,005
590,3	0,005
590,8	0,006
591,2	0,005
591,7	0,005
592,1	0,005
592,5	0,005
593	0,005
593,4	0,005
593,9	0,005
594,3	0,005
594,8	0,005
595,2	0,005
595,7	0,005
596,1	0,005
596,6	0,005
597	0,005
597,4	0,005
597,9	0,005
598,3	0,005
598,8	0,005
599,2	0,004
599,7	0,004
600,1	0,004
600,6	0,004
601	0,004
601,4	0,004
601,9	0,004
602,3	0,004
602,8	0,004
603,2	0,004
603,7	0,004
604,1	0,004
604,6	0,004
605	0,004
605,4	0,004
605,9	0,004
606,3	0,004
606,8	0,004
607,2	0,005
607,7	0,005
608,1	0,006
608,6	0,005
609	0,005
609,4	0,005
609,9	0,005
610,3	0,004
610,8	0,004
611,2	0,003
611,7	0,003
612,1	0,004
612,6	0,004
613	0,004
613,4	0,004
613,9	0,004
614,3	0,004
614,8	0,005
615,2	0,004
615,7	0,004
616,1	0,004
616,6	0,004
617	0,003
617,4	0,004
617,9	0,004
618,3	0,004
618,8	0,004
619,2	0,004
619,7	0,004
620,1	0,004
620,5	0,004
621	0,004
621,4	0,003
621,9	0,003
622,3	0,003
622,8	0,004
623,2	0,004
623,6	0,004
624,1	0,004
624,5	0,005
625	0,005
625,4	0,005
625,9	0,005
626,3	0,004
626,8	0,004
627,2	0,004
627,6	0,004
628,1	0,005
628,5	0,005
629	0,004
629,4	0,005
629,9	0,005
630,3	0,005
630,7	0,005
631,2	0,005
631,6	0,005
632,1	0,005
632,5	0,005
633	0,005
633,4	0,004
633,8	0,004
634,3	0,004
634,7	0,004
635,2	0,004
635,6	0,004
636,1	0,004
636,5	0,004
636,9	0,004
637,4	0,004
637,8	0,005
638,3	0,005
638,7	0,005
639,2	0,005
639,6	0,005
640	0,005
640,5	0,005
640,9	0,004
641,4	0,004
641,8	0,004
642,2	0,004
642,7	0,004
643,1	0,004
643,6	0,004
644	0,004
644,5	0,004
644,9	0,004
645,3	0,004
645,8	0,004
646,2	0,003
646,7	0,003
647,1	0,003
647,6	0,004
648	0,004
648,4	0,004
648,9	0,005
649,3	0,005
649,8	0,005
650,2	0,005
650,6	0,005
651,1	0,005
651,5	0,005
652	0,004
652,4	0,004
652,9	0,004
653,3	0,004
653,7	0,004
654,2	0,004
654,6	0,003
655,1	0,002
655,5	0,002
655,9	0,001
656,4	0,001
656,8	0,002
657,3	0,003
657,7	0,003
658,2	0,003
658,6	0,004
659	0,005
659,5	0,008
659,9	0,006
660,4	0,005
660,8	0,005
661,2	0,004
661,7	0,004
662,1	0,004
662,6	0,004
663	0,004
663,4	0,004
663,9	0,004
664,3	0,004
664,8	0,004
665,2	0,004
665,6	0,004
666,1	0,004
666,5	0,004
667	0,005
667,4	0,004
667,9	0,004
668,3	0,004
668,7	0,004
669,2	0,005
669,6	0,004
670,1	0,004
670,5	0,004
670,9	0,004
671,4	0,005
671,8	0,004
672,3	0,004
672,7	0,004
673,1	0,004
673,6	0,004
674	0,004
674,5	0,004
674,9	0,004
675,3	0,004
675,8	0,004
676,2	0,004
676,7	0,004
677,1	0,004
677,5	0,003
678	0,003
678,4	0,003
678,9	0,003
679,3	0,003
679,7	0,003
680,2	0,003
680,6	0,003
681,1	0,003
681,5	0,004
681,9	0,004
682,4	0,004
682,8	0,004
683,3	0,004
683,7	0,004
684,1	0,004
684,6	0,003
685	0,004
685,5	0,004
685,9	0,003
686,3	0,003
686,8	0,004
687,2	0,004
687,7	0,004
688,1	0,004
688,5	0,003
689	0,004
689,4	0,003
689,9	0,003
690,3	0,003
690,7	0,003
691,2	0,003
691,6	0,003
692	0,003
692,5	0,003
692,9	0,003
693,4	0,003
693,8	0,004
694,2	0,004
694,7	0,005
695,1	0,004
695,6	0,004
696	0,004
696,4	0,004
696,9	0,005
697,3	0,004
697,8	0,004
698,2	0,003
698,6	0,003
699,1	0,003
699,5	0,003
699,9	0,003
700,4	0,003
700,8	0,003
701,3	0,004
701,7	0,004
702,1	0,004
702,6	0,004
703	0,004
703,5	0,004
703,9	0,004
704,3	0,004
704,8	0,004
705,2	0,004
705,6	0,004
706,1	0,003
706,5	0,004
707	0,004
707,4	0,004
707,8	0,004
708,3	0,004
708,7	0,004
709,2	0,004
709,6	0,004
710	0,004
710,5	0,004
710,9	0,004
711,3	0,005
711,8	0,005
712,2	0,005
712,7	0,004
713,1	0,004
713,5	0,004
714	0,003
714,4	0,003
714,8	0,003
715,3	0,003
715,7	0,003
716,2	0,003
716,6	0,003
717	0,003
717,5	0,003
717,9	0,003
718,3	0,003
718,8	0,003
719,2	0,004
719,7	0,004
720,1	0,004
720,5	0,004
721	0,004
721,4	0,004
721,8	0,004
722,3	0,004
722,7	0,004
723,2	0,004
723,6	0,004
724	0,004
724,5	0,004
724,9	0,003
725,3	0,003
725,8	0,003
726,2	0,003
726,7	0,003
727,1	0,003
727,5	0,003
728	0,003
728,4	0,003
728,8	0,003
729,3	0,004
729,7	0,004
730,1	0,004
730,6	0,004
731	0,004
731,5	0,004
731,9	0,004
732,3	0,004
732,8	0,004
733,2	0,003
733,6	0,003
734,1	0,003
734,5	0,003
734,9	0,003
735,4	0,003
735,8	0,003
736,3	0,004
736,7	0,004
737,1	0,004
737,6	0,003
738	0,003
738,4	0,004
738,9	0,004
739,3	0,004
739,7	0,004
740,2	0,004
740,6	0,004
741,1	0,004
741,5	0,003
741,9	0,003
742,4	0,003
742,8	0,003
743,2	0,003
743,7	0,003
744,1	0,004
744,5	0,004
745	0,004
745,4	0,005
745,8	0,005
746,3	0,005
746,7	0,005
747,2	0,004
747,6	0,004
748	0,004
748,5	0,003
748,9	0,003
749,3	0,003
749,8	0,004
750,2	0,004
750,6	0,004
751,1	0,004
751,5	0,004
751,9	0,003
752,4	0,003
752,8	0,003
753,3	0,003
753,7	0,003
754,1	0,003
754,6	0,003
755	0,003
755,4	0,003
755,9	0,003
756,3	0,003
756,7	0,003
757,2	0,004
757,6	0,003
758	0,003
758,5	0,004
758,9	0,004
759,3	0,004
759,8	0,004
760,2	0,004
760,6	0,003
761,1	0,003
761,5	0,003
761,9	0,003
762,4	0,004
762,8	0,004
763,3	0,003
763,7	0,003
764,1	0,003
764,6	0,003
765	0,003
765,4	0,003
765,9	0,003
766,3	0,003
766,7	0,003
767,2	0,003
767,6	0,003
768	0,003
768,5	0,003
768,9	0,003
769,3	0,003
769,8	0,003
770,2	0,003
770,6	0,003
771,1	0,003
771,5	0,003
771,9	0,003
772,4	0,003
772,8	0,003
773,2	0,003
773,7	0,003
774,1	0,003
774,5	0,003
775	0,003
775,4	0,004
775,8	0,004
776,3	0,003
776,7	0,003
777,1	0,004
777,6	0,004
778	0,003
778,4	0,003
778,9	0,004
779,3	0,004
779,7	0,004
780,2	0,004
780,6	0,004
781	0,004
781,5	0,003
781,9	0,003
782,3	0,003
782,8	0,003
783,2	0,003
783,6	0,003
784,1	0,003
784,5	0,003
784,9	0,003
785,4	0,004
785,8	0,004
786,2	0,004
786,7	0,004
787,1	0,004
787,5	0,004
788	0,004
788,4	0,004
788,8	0,004
789,3	0,004
789,7	0,004
790,1	0,004
790,6	0,004
791	0,004
791,4	0,004
791,9	0,004
792,3	0,004
792,7	0,004
793,2	0,003
793,6	0,004
794	0,003
794,5	0,003
794,9	0,003
795,3	0,003
795,8	0,003
796,2	0,004
796,6	0,003
797,1	0,003
797,5	0,004
797,9	0,004
798,4	0,003
798,8	0,003
799,2	0,003
799,7	0,003
800,1	0,003
800,5	0,003
801	0,003
801,4	0,003
801,8	0,003
802,2	0,003
802,7	0,003
803,1	0,003
803,5	0,003
804	0,003
804,4	0,004
804,8	0,004
805,3	0,003
805,7	0,003
806,1	0,003
806,6	0,003
807	0,004
807,4	0,004
807,9	0,004
808,3	0,004
808,7	0,004
809,2	0,003
809,6	0,003
810	0,003
810,4	0,003
810,9	0,003
811,3	0,003
811,7	0,003
812,2	0,003
812,6	0,003
813	0,003
813,5	0,003
813,9	0,003
814,3	0,003
814,8	0,003
815,2	0,003
815,6	0,003
816,1	0,003
816,5	0,003
816,9	0,003
817,3	0,003
817,8	0,003
818,2	0,003
818,6	0,003
819,1	0,003
819,5	0,003
819,9	0,003
820,4	0,003
820,8	0,004
821,2	0,004
821,7	0,004
822,1	0,004
822,5	0,004
822,9	0,004
823,4	0,004
823,8	0,004
824,2	0,004
824,7	0,004
825,1	0,004
825,5	0,003
826	0,003
826,4	0,003
826,8	0,002
827,3	0,002
827,7	0,002
828,1	0,002
828,5	0,002
829	0,002
829,4	0,002
829,8	0,002
830,3	0,002
830,7	0,002
831,1	0,002
831,6	0,002
832	0,002
832,4	0,002
832,8	0,002
833,3	0,002
833,7	0,002
834,1	0,002
834,6	0,002
835	0,003
835,4	0,002
835,8	0,002
836,3	0,003
836,7	0,002
837,1	0,003
837,6	0,003
838	0,003
838,4	0,003
838,9	0,003
839,3	0,004
839,7	0,004
840,1	0,003
840,6	0,003
841	0,003
841,4	0,002
841,9	0,002
842,3	0,002
842,7	0,002
843,1	0,003
843,6	0,003
844	0,003
844,4	0,003
844,9	0,003
845,3	0,003
845,7	0,003
846,2	0,003
846,6	0,003
847	0,003
847,4	0,003
847,9	0,002
848,3	0,003
848,7	0,003
849,2	0,003
849,6	0,003
850	0,003
850,4	0,003
850,9	0,003
851,3	0,002
851,7	0,002
852,2	0,002
852,6	0,003
853	0,003
853,4	0,003
853,9	0,004
854,3	0,004
854,7	0,004
855,2	0,004
855,6	0,004
856	0,004
856,4	0,004
856,9	0,004
857,3	0,004
857,7	0,004
858,2	0,004
858,6	0,004
859	0,004
859,4	0,003
859,9	0,003
860,3	0,003
860,7	0,003
861,1	0,003
861,6	0,003
862	0,003
862,4	0,003
862,9	0,003
863,3	0,003
863,7	0,003
864,1	0,003
864,6	0,003
865	0,003
865,4	0,002
865,9	0,003
866,3	0,003
866,7	0,003
867,1	0,003
867,6	0,003
868	0,003
868,4	0,003
868,8	0,003
869,3	0,002
869,7	0,002
870,1	0,002
870,6	0,002
871	0,003
871,4	0,003
871,8	0,003
872,3	0,003
872,7	0,003
873,1	0,003
873,5	0,003
874	0,003
874,4	0,003
874,8	0,003
875,3	0,002
875,7	0,003
876,1	0,003
876,5	0,003
877	0,003
877,4	0,004
877,8	0,004
878,2	0,004
878,7	0,004
879,1	0,003
879,5	0,003
879,9	0,003
880,4	0,003
880,8	0,004
881,2	0,003
881,7	0,003
882,1	0,003
882,5	0,003
882,9	0,003
883,4	0,003
883,8	0,003
884,2	0,003
884,6	0,003
885,1	0,003
885,5	0,002
885,9	0,002
886,3	0,003
886,8	0,003
887,2	0,002
887,6	0,003
888	0,003
888,5	0,003
888,9	0,003
889,3	0,003
889,8	0,003
890,2	0,003
890,6	0,003
891	0,003
891,5	0,003
891,9	0,003
892,3	0,003
892,7	0,003
893,2	0,003
893,6	0,003
894	0,003
894,4	0,003
894,9	0,003
895,3	0,003
895,7	0,003
896,1	0,003
896,6	0,003
897	0,002
897,4	0,003
897,8	0,002
898,3	0,002
898,7	0,002
899,1	0,002
899,5	0,002
900	0,002
900,4	0,002
900,8	0,002
901,2	0,002
901,7	0,002
902,1	0,003
902,5	0,003
902,9	0,002
903,4	0,002
903,8	0,002
904,2	0,002
904,6	0,002
905,1	0,002
905,5	0,002
905,9	0,002
906,3	0,002
906,8	0,002
907,2	0,002
907,6	0,002
908	0,003
908,5	0,003
908,9	0,003
909,3	0,003
909,7	0,003
910,2	0,003
910,6	0,003
911	0,003
911,4	0,003
911,9	0,003
912,3	0,003
912,7	0,003
913,1	0,003
913,6	0,003
914	0,003
914,4	0,002
914,8	0,002
915,3	0,002
915,7	0,002
916,1	0,002
916,5	0,002
916,9	0,002
917,4	0,002
917,8	0,002
918,2	0,002
918,6	0,002
919,1	0,002
919,5	0,002
919,9	0,002
920,3	0,002
920,8	0,003
921,2	0,002
921,6	0,003
922	0,003
922,5	0,003
922,9	0,003
923,3	0,003
923,7	0,002
924,2	0,003
924,6	0,003
925	0,003
925,4	0,003
925,8	0,003
926,3	0,003
926,7	0,004
927,1	0,004
927,5	0,004
928	0,003
928,4	0,003
928,8	0,003
929,2	0,003
929,7	0,003
930,1	0,003
930,5	0,003
930,9	0,003
931,3	0,003
931,8	0,003
932,2	0,003
932,6	0,003
933	0,003
933,5	0,003
933,9	0,003
934,3	0,003
934,7	0,003
935,2	0,003
935,6	0,003
936	0,003
936,4	0,003
936,8	0,003
937,3	0,003
937,7	0,003
938,1	0,003
938,5	0,003
939	0,003
939,4	0,003
939,8	0,003
940,2	0,004
940,6	0,003
941,1	0,002
941,5	0,002
941,9	0,002
942,3	0,002
942,8	0,002
943,2	0,002
943,6	0,003
944	0,003
944,4	0,003
944,9	0,003
945,3	0,003
945,7	0,003
946,1	0,003
946,6	0,003
947	0,003
947,4	0,003
947,8	0,002
948,2	0,002
948,7	0,003
949,1	0,003
949,5	0,003
949,9	0,003
950,3	0,003
950,8	0,003
951,2	0,003
951,6	0,003
952	0,003
952,5	0,004
952,9	0,004
953,3	0,004
953,7	0,003
954,1	0,003
954,6	0,003
955	0,003
955,4	0,003
955,8	0,003
956,2	0,003
956,7	0,003
957,1	0,003
957,5	0,003
957,9	0,003
958,3	0,003
958,8	0,003
959,2	0,004
959,6	0,004
960	0,004
960,5	0,004
960,9	0,004
961,3	0,004
961,7	0,004
962,1	0,004
962,6	0,004
963	0,003
963,4	0,004
963,8	0,003
964,2	0,004
964,7	0,004
965,1	0,003
965,5	0,003
965,9	0,003
966,3	0,003
966,8	0,004
967,2	0,003
967,6	0,004
968	0,004
968,4	0,004
968,9	0,003
969,3	0,003
969,7	0,002
970,1	0,003
970,5	0,003
971	0,002
971,4	0,003
971,8	0,003
972,2	0,004
972,6	0,005
973,1	0,005
973,5	0,005
973,9	0,005
974,3	0,005
974,7	0,005
975,2	0,004
975,6	0,003
976	0,003
976,4	0,002
976,8	0,003
977,3	0,003
977,7	0,003
978,1	0,003
978,5	0,003
978,9	0,004
979,4	0,004
979,8	0,004
980,2	0,004
980,6	0,004
981	0,005
981,5	0,005
981,9	0,005
982,3	0,004
982,7	0,004
983,1	0,004
983,6	0,004
984	0,004
984,4	0,003
984,8	0,003
985,2	0,003
985,6	0,003
986,1	0,003
986,5	0,003
986,9	0,002
987,3	0,002
987,7	0,003
988,2	0,004
988,6	0,004
989	0,004
989,4	0,004
989,8	0,004
990,3	0,004
990,7	0,004
991,1	0,004
991,5	0,003
991,9	0,003
992,3	0,003
992,8	0,003
993,2	0,002
993,6	0,002
994	0,003
994,4	0,003
994,9	0,003
995,3	0,002
995,7	0,002
996,1	0,003
996,5	0,002
996,9	0,002
997,4	0,001
997,8	0,003
998,2	0,003
998,6	0,003
999	0,003
999,5	0,003
999,9	0,004
1000,3	0,004
1000,7	0,003
1001,1	0,003
1001,5	0,003
1002	0,004
1002,4	0,004
1002,8	0,003
1003,2	0,003
1003,6	0,003
1004	0,003
1004,5	0,003
1004,9	0,003
1005,3	0,003
1005,7	0,003
1006,1	0,003
1006,6	0,003
1007	0,003
1007,4	0,004
1007,8	0,003
1008,2	0,003
1008,6	0,003
1009,1	0,003
1009,5	0,003
1009,9	0,003
1010,3	0,002
1010,7	0,002
1011,1	0,001
1011,6	0,002
1012	0,002
1012,4	0,002
1012,8	0,003
1013,2	0,003
1013,6	0,003
1014,1	0,003
1014,5	0,002
1014,9	0,002
1015,3	0,002
1015,7	0,001
1016,1	0,001
1016,6	0
1017	0
1017,4	-0
1017,8	0
1018,2	0
1018,6	0,001
1019,1	0
1019,5	0,001
1019,9	0
1020,3	0,001
1020,7	-0
1021,1	-0
1021,6	0
1022	0,001
1022,4	0,001
1022,8	0,001
1023,2	0,001
1023,6	0,001
1024,1	0,001
1024,5	0,001
1024,9	0,001
1025,3	0,002
1025,7	0,002
1026,1	0,002
1026,6	0,003
1027	0,003
1027,4	0,003
1027,8	0,003
1028,2	0,002
1028,6	0,002
1029	0,002
1029,5	0,001
1029,9	0,001
1030,3	0
1030,7	-0
1031,1	0
1031,5	0
1032	0,001
1032,4	0,001
1032,8	0,002
1033,2	0,002
1033,6	0,002
1034	0,002
1034,4	0,002
1034,9	0,002
1035,3	0,002
1035,7	0,001
1036,1	0,002
1036,5	0,002
1036,9	0,002
1037,4	0,002
1037,8	0,002
1038,2	0,002
1038,6	0,003
1039	0,003
1039,4	0,004
1039,8	0,004
1040,3	0,004
1040,7	0,004
1041,1	0,003
1041,5	0,003
1041,9	0,003
1042,3	0,003
1042,7	0,002
1043,2	0,002
1043,6	0,002
1044	0,002
1044,4	0,002
1044,8	0,002
1045,2	0,002
1045,6	0,003
1046,1	0,003
1046,5	0,002
1046,9	0,002
1047,3	0,003
1047,7	0,002
1048,1	0,001
1048,5	0,001
1049	0,001
1049,4	0,001
1049,8	0,001
1050,2	0
1050,6	0,001
1051	0,001
1051,4	0,001
1051,9	0,002
1052,3	0,001
1052,7	0,001
1053,1	0,001
1053,5	0,001
1053,9	0,001
1054,3	0,002
1054,8	0
1055,2	0
1055,6	0
1056	-0
1056,4	-0,001
1056,8	-0,001
1057,2	-0
1057,6	0,001
1058,1	0,002
1058,5	0,002
1058,9	0,002
1059,3	0,003
1059,7	0,002
1060,1	0,001
1060,5	0,001
1061	0
1061,4	0
1061,8	-0
1062,2	-0,001
1062,6	0,001
1063	0,002
1063,4	0,002
1063,8	0,002
1064,3	0,002
1064,7	0,002
1065,1	0,002
1065,5	0,001
1065,9	0,001
1066,3	0,001
1066,7	0,001
1067,1	0,001
1067,6	0,002
1068	0,003
1068,4	0,002
1068,8	0,002
1069,2	0,003
1069,6	0,003
1070	0,002
1070,4	0,002
1070,9	0,001
1071,3	0
1071,7	0
1072,1	-0,001
1072,5	-0,001
1072,9	-0,002
1073,3	-0,002
1073,7	-0,002
1074,2	-0,002
1074,6	-0,001
1075	-0,001
1075,4	-0,002
1075,8	-0,001
1076,2	-0,002
1076,6	-0,001
1077	0
1077,5	-0
1077,9	-0
1078,3	0,001
1078,7	0,001
1079,1	0,002
1079,5	0,002
1079,9	0,001
1080,3	0,002
1080,7	0,002
1081,2	0,002
1081,6	0,002
1082	0,002
1082,4	-0
1082,8	-0
1083,2	-0,001
1083,6	-0
1084	-0,001
1084,5	-0,001
1084,9	-0,001
1085,3	-0
1085,7	0,001
1086,1	0,001
1086,5	0,002
1086,9	0
1087,3	-0,002
1087,7	-0,001
1088,2	0,001
1088,6	0
1089	-0,001
1089,4	-0,001
1089,8	0
1090,2	0,001
1090,6	-0,001
1091	-0
1091,4	-0,001
1091,9	-0,006
1092,3	-0,01
1092,7	-0,01
1093,1	-0,012
1093,5	-0,01
1093,9	-0,01
1094,3	-0,01
1094,7	-0,007
1095,1	-0,004
1095,5	-0,002
1096	-0,003
1096,4	-0,005
1096,8	-0,006
1097,2	-0,011
1097,6	-0,009
1098	-0,012
1098,4	-0,011
1098,8	-0,007
1099,2	-0,008
1099,6	-0,001
1100,1	0,005
1100,5	0,007
1100,9	0,014
1101,3	0,017
1101,7	0,017
1102,1	0,022
1102,5	0,019
1102,9	0,014
1103,3	0,019
1103,7	0,015
1104,2	0,011
1104,6	0,01
1105	0,007
1105,4	0,006
1105,8	0,011
1106,2	0,002
1106,6	0,007
1107	0,005
1107,4	0,003
1107,8	-0,004
1108,3	0,026
