Data from Absorbance_00026.txt Node
Date: Wed Aug 02 17:58:59 MSK 2023
User: vat
Spectrometer: MAYP114033
Trigger mode: 0
Integration Time (sec): 8,000000E-3
Scans to average: 10
Electric dark correction enabled: true
Nonlinearity correction enabled: false
Boxcar width: 3
XAxis mode: Wavelengths
Number of Pixels in Spectrum: 2068
>>>>>Begin Spectral Data<<<<<
199,4	-0
199,9	0,223
200,4	0,481
200,8	0,738
201,3	0,848
201,8	0,927
202,2	0,932
202,7	0,935
203,2	0,973
203,6	1,004
204,1	1,044
204,6	1,055
205	1,065
205,5	1,097
206	1,114
206,4	1,131
206,9	1,137
207,4	1,13
207,8	1,137
208,3	1,161
208,8	1,169
209,2	1,189
209,7	1,213
210,2	1,218
210,6	1,235
211,1	1,247
211,5	1,244
212	1,244
212,5	1,274
212,9	1,269
213,4	1,295
213,9	1,313
214,3	1,344
214,8	1,364
215,3	1,409
215,7	1,384
216,2	1,401
216,7	1,436
217,1	1,455
217,6	1,46
218,1	1,471
218,5	1,485
219	1,523
219,5	1,543
219,9	1,557
220,4	1,561
220,9	1,593
221,3	1,624
221,8	1,638
222,3	1,653
222,7	1,662
223,2	1,657
223,6	1,673
224,1	1,667
224,6	1,67
225	1,671
225,5	1,67
226	1,673
226,4	1,666
226,9	1,677
227,4	1,666
227,8	1,683
228,3	1,685
228,8	1,692
229,2	1,697
229,7	1,713
230,2	1,715
230,6	1,75
231,1	1,74
231,5	1,752
232	1,769
232,5	1,786
232,9	1,793
233,4	1,8
233,9	1,81
234,3	1,837
234,8	1,85
235,3	1,863
235,7	1,894
236,2	1,921
236,7	1,947
237,1	1,957
237,6	1,951
238,1	1,963
238,5	1,968
239	1,957
239,4	1,971
239,9	1,974
240,4	1,975
240,8	1,977
241,3	1,984
241,8	1,984
242,2	1,988
242,7	1,982
243,2	2,001
243,6	2,022
244,1	2,047
244,6	2,054
245	2,084
245,5	2,102
245,9	2,114
246,4	2,12
246,9	2,125
247,3	2,133
247,8	2,137
248,3	2,127
248,7	2,157
249,2	2,152
249,7	2,148
250,1	2,16
250,6	2,162
251	2,172
251,5	2,158
252	2,145
252,4	2,144
252,9	2,139
253,4	2,118
253,8	2,116
254,3	2,119
254,8	2,135
255,2	2,13
255,7	2,133
256,1	2,129
256,6	2,117
257,1	2,121
257,5	2,111
258	2,112
258,5	2,1
258,9	2,105
259,4	2,114
259,9	2,116
260,3	2,099
260,8	2,096
261,2	2,111
261,7	2,115
262,2	2,134
262,6	2,129
263,1	2,151
263,6	2,137
264	2,15
264,5	2,141
264,9	2,149
265,4	2,149
265,9	2,147
266,3	2,119
266,8	2,14
267,3	2,126
267,7	2,107
268,2	2,093
268,7	2,075
269,1	2,048
269,6	2,054
270	2,047
270,5	2,054
271	2,05
271,4	2,036
271,9	2,027
272,4	2,033
272,8	2,025
273,3	2,002
273,7	1,982
274,2	1,966
274,7	1,949
275,1	1,917
275,6	1,878
276,1	1,835
276,5	1,798
277	1,746
277,4	1,69
277,9	1,643
278,4	1,588
278,8	1,531
279,3	1,472
279,8	1,408
280,2	1,344
280,7	1,275
281,1	1,209
281,6	1,145
282,1	1,079
282,5	1,017
283	0,959
283,4	0,905
283,9	0,856
284,4	0,81
284,8	0,769
285,3	0,734
285,8	0,702
286,2	0,673
286,7	0,647
287,1	0,625
287,6	0,606
288,1	0,589
288,5	0,574
289	0,561
289,5	0,551
289,9	0,544
290,4	0,536
290,8	0,529
291,3	0,524
291,8	0,52
292,2	0,517
292,7	0,514
293,1	0,512
293,6	0,511
294,1	0,509
294,5	0,507
295	0,506
295,5	0,504
295,9	0,501
296,4	0,5
296,8	0,499
297,3	0,498
297,8	0,497
298,2	0,496
298,7	0,495
299,1	0,495
299,6	0,492
300,1	0,491
300,5	0,489
301	0,489
301,5	0,488
301,9	0,487
302,4	0,485
302,8	0,484
303,3	0,483
303,8	0,482
304,2	0,48
304,7	0,479
305,1	0,476
305,6	0,475
306,1	0,473
306,5	0,471
307	0,469
307,4	0,467
307,9	0,465
308,4	0,462
308,8	0,46
309,3	0,458
309,8	0,455
310,2	0,453
310,7	0,45
311,1	0,448
311,6	0,445
312,1	0,443
312,5	0,44
313	0,437
313,4	0,435
313,9	0,432
314,4	0,429
314,8	0,426
315,3	0,423
315,7	0,42
316,2	0,417
316,7	0,414
317,1	0,41
317,6	0,406
318	0,403
318,5	0,4
319	0,395
319,4	0,391
319,9	0,389
320,3	0,386
320,8	0,381
321,3	0,377
321,7	0,372
322,2	0,369
322,6	0,365
323,1	0,36
323,6	0,355
324	0,351
324,5	0,348
324,9	0,345
325,4	0,341
325,9	0,336
326,3	0,333
326,8	0,329
327,2	0,325
327,7	0,321
328,2	0,316
328,6	0,312
329,1	0,307
329,5	0,303
330	0,299
330,5	0,295
330,9	0,29
331,4	0,286
331,8	0,282
332,3	0,278
332,8	0,273
333,2	0,27
333,7	0,266
334,1	0,263
334,6	0,26
335,1	0,257
335,5	0,253
336	0,25
336,4	0,246
336,9	0,243
337,4	0,24
337,8	0,236
338,3	0,232
338,7	0,228
339,2	0,225
339,7	0,221
340,1	0,217
340,6	0,213
341	0,209
341,5	0,206
342	0,203
342,4	0,2
342,9	0,197
343,3	0,194
343,8	0,191
344,2	0,189
344,7	0,186
345,2	0,182
345,6	0,179
346,1	0,176
346,5	0,173
347	0,17
347,5	0,167
347,9	0,164
348,4	0,161
348,8	0,159
349,3	0,157
349,8	0,154
350,2	0,151
350,7	0,148
351,1	0,146
351,6	0,143
352	0,14
352,5	0,137
353	0,135
353,4	0,132
353,9	0,13
354,3	0,128
354,8	0,126
355,3	0,124
355,7	0,122
356,2	0,12
356,6	0,118
357,1	0,116
357,5	0,115
358	0,113
358,5	0,111
358,9	0,109
359,4	0,108
359,8	0,105
360,3	0,102
360,8	0,1
361,2	0,098
361,7	0,095
362,1	0,093
362,6	0,091
363	0,09
363,5	0,088
364	0,086
364,4	0,084
364,9	0,082
365,3	0,081
365,8	0,08
366,3	0,078
366,7	0,077
367,2	0,076
367,6	0,075
368,1	0,075
368,5	0,074
369	0,072
369,5	0,072
369,9	0,07
370,4	0,069
370,8	0,067
371,3	0,066
371,7	0,064
372,2	0,063
372,7	0,062
373,1	0,06
373,6	0,059
374	0,058
374,5	0,057
374,9	0,057
375,4	0,056
375,9	0,054
376,3	0,053
376,8	0,052
377,2	0,051
377,7	0,05
378,2	0,05
378,6	0,049
379,1	0,048
379,5	0,047
380	0,047
380,4	0,046
380,9	0,045
381,4	0,044
381,8	0,043
382,3	0,043
382,7	0,042
383,2	0,041
383,6	0,041
384,1	0,04
384,6	0,039
385	0,039
385,5	0,039
385,9	0,038
386,4	0,037
386,8	0,037
387,3	0,037
387,7	0,036
388,2	0,035
388,7	0,035
389,1	0,034
389,6	0,033
390	0,033
390,5	0,032
390,9	0,032
391,4	0,032
391,9	0,031
392,3	0,031
392,8	0,03
393,2	0,029
393,7	0,03
394,1	0,029
394,6	0,029
395,1	0,028
395,5	0,028
396	0,028
396,4	0,028
396,9	0,027
397,3	0,026
397,8	0,026
398,2	0,026
398,7	0,025
399,2	0,025
399,6	0,025
400,1	0,025
400,5	0,024
401	0,023
401,4	0,022
401,9	0,022
402,4	0,021
402,8	0,02
403,3	0,019
403,7	0,019
404,2	0,019
404,6	0,019
405,1	0,019
405,5	0,019
406	0,019
406,5	0,019
406,9	0,019
407,4	0,019
407,8	0,019
408,3	0,018
408,7	0,017
409,2	0,017
409,6	0,016
410,1	0,016
410,6	0,016
411	0,016
411,5	0,016
411,9	0,016
412,4	0,016
412,8	0,016
413,3	0,016
413,7	0,016
414,2	0,016
414,7	0,015
415,1	0,014
415,6	0,014
416	0,013
416,5	0,013
416,9	0,013
417,4	0,012
417,8	0,012
418,3	0,012
418,8	0,011
419,2	0,012
419,7	0,011
420,1	0,011
420,6	0,011
421	0,011
421,5	0,011
421,9	0,011
422,4	0,01
422,8	0,011
423,3	0,011
423,8	0,01
424,2	0,01
424,7	0,01
425,1	0,009
425,6	0,009
426	0,008
426,5	0,008
426,9	0,007
427,4	0,007
427,9	0,007
428,3	0,007
428,8	0,007
429,2	0,007
429,7	0,006
430,1	0,007
430,6	0,007
431	0,007
431,5	0,007
431,9	0,007
432,4	0,008
432,8	0,007
433,3	0,007
433,8	0,006
434,2	0,006
434,7	0,006
435,1	0,005
435,6	0,005
436	0,005
436,5	0,006
436,9	0,006
437,4	0,006
437,8	0,006
438,3	0,005
438,8	0,005
439,2	0,005
439,7	0,005
440,1	0,004
440,6	0,004
441	0,005
441,5	0,006
441,9	0,006
442,4	0,005
442,8	0,005
443,3	0,005
443,7	0,004
444,2	0,003
444,7	0,003
445,1	0,002
445,6	0,002
446	0,002
446,5	0,001
446,9	0,001
447,4	0,001
447,8	0,001
448,3	0,001
448,7	0,002
449,2	0,002
449,6	0,002
450,1	0,002
450,6	0,002
451	0,003
451,5	0,003
451,9	0,002
452,4	0,002
452,8	0,002
453,3	0,002
453,7	0,001
454,2	0,001
454,6	0
455,1	0,001
455,5	0,001
456	0,001
456,4	0,001
456,9	0,001
457,3	0,002
457,8	0,002
458,3	0,002
458,7	0,002
459,2	0,001
459,6	0,002
460,1	0,001
460,5	0,001
461	0,001
461,4	0
461,9	0
462,3	-0
462,8	-0
463,2	-0
463,7	0,001
464,1	0,001
464,6	0
465	0
465,5	0,001
466	0,001
466,4	0
466,9	-0
467,3	-0
467,8	-0
468,2	-0
468,7	-0,001
469,1	-0,001
469,6	-0
470	-0
470,5	-0,001
470,9	-0
471,4	-0
471,8	-0
472,3	-0
472,7	-0
473,2	-0
473,6	-0
474,1	-0,001
474,5	-0
475	-0,001
475,4	-0,001
475,9	-0,001
476,4	-0,001
476,8	-0,001
477,3	0
477,7	-0
478,2	0
478,6	0
479,1	0
479,5	0
480	0
480,4	-0
480,9	-0,001
481,3	-0,001
481,8	-0,001
482,2	-0
482,7	0
483,1	-0,001
483,6	-0,001
484	-0,001
484,5	-0,002
484,9	-0,002
485,4	-0,003
485,8	-0,003
486,3	-0,003
486,7	-0,003
487,2	-0,002
487,6	-0,002
488,1	-0,002
488,5	-0,002
489	-0,002
489,4	-0,002
489,9	-0,002
490,4	-0,002
490,8	-0,001
491,3	-0,001
491,7	-0,001
492,2	-0,001
492,6	-0,001
493,1	-0,001
493,5	-0,002
494	-0,003
494,4	-0,003
494,9	-0,002
495,3	-0,002
495,8	-0,001
496,2	-0,001
496,7	-0,001
497,1	-0,001
497,6	-0,001
498	-0,001
498,5	-0,001
498,9	-0,001
499,4	-0,001
499,8	-0,001
500,3	-0,002
500,7	-0,001
501,2	-0,001
501,6	-0,002
502,1	-0,001
502,5	-0,001
503	-0,001
503,4	-0,001
503,9	-0,001
504,3	-0,001
504,8	-0,001
505,2	-0,001
505,7	-0,001
506,1	-0,001
506,6	-0,001
507	-0,001
507,5	-0,002
507,9	-0,002
508,4	-0,002
508,8	-0,002
509,3	-0,002
509,7	-0,002
510,2	-0,002
510,6	-0,002
511,1	-0,002
511,5	-0,002
512	-0,002
512,4	-0,002
512,9	-0,002
513,3	-0,002
513,8	-0,001
514,2	-0,001
514,7	-0
515,1	-0
515,6	-0
516	0
516,5	0
516,9	-0,001
517,4	-0
517,8	-0,001
518,3	-0,001
518,7	-0,001
519,2	-0,001
519,6	-0,001
520,1	-0
520,5	-0,001
521	-0,001
521,4	-0,001
521,9	-0,001
522,3	-0,001
522,8	-0,002
523,2	-0,002
523,7	-0,002
524,1	-0,002
524,6	-0,003
525	-0,003
525,5	-0,003
525,9	-0,002
526,4	-0,001
526,8	-0,002
527,3	-0,003
527,7	-0,002
528,2	-0,002
528,6	-0,003
529,1	-0,003
529,5	-0,003
530	-0,002
530,4	-0,001
530,9	-0,002
531,3	-0,002
531,8	-0,001
532,2	-0,001
532,6	-0,002
533,1	-0,002
533,5	-0,002
534	-0,002
534,4	-0,002
534,9	-0,002
535,3	-0,002
535,8	-0,002
536,2	-0,001
536,7	-0,001
537,1	-0,002
537,6	-0,003
538	-0,002
538,5	-0,002
538,9	-0,002
539,4	-0,003
539,8	-0,002
540,3	-0,001
540,7	-0,001
541,2	-0,001
541,6	-0,001
542,1	-0,002
542,5	-0,002
543	-0,002
543,4	-0,002
543,9	-0,002
544,3	-0,002
544,8	-0,002
545,2	-0,002
545,7	-0,002
546,1	-0,002
546,5	-0,002
547	-0,003
547,4	-0,003
547,9	-0,003
548,3	-0,003
548,8	-0,003
549,2	-0,002
549,7	-0,002
550,1	-0,002
550,6	-0,001
551	-0,001
551,5	-0
551,9	-0,001
552,4	-0,001
552,8	-0,001
553,3	-0,002
553,7	-0,002
554,2	-0,002
554,6	-0,003
555,1	-0,003
555,5	-0,003
555,9	-0,002
556,4	-0,002
556,8	-0,002
557,3	-0,002
557,7	-0,002
558,2	-0,002
558,6	-0,002
559,1	-0,002
559,5	-0,002
560	-0,002
560,4	-0,002
560,9	-0,002
561,3	-0,001
561,8	-0,002
562,2	-0,002
562,7	-0,002
563,1	-0,001
563,6	-0,001
564	-0,001
564,4	-0,001
564,9	-0,001
565,3	-0,001
565,8	-0,002
566,2	-0,002
566,7	-0,002
567,1	-0,002
567,6	-0,002
568	-0,002
568,5	-0,002
568,9	-0,003
569,4	-0,002
569,8	-0,002
570,3	-0,002
570,7	-0,003
571,1	-0,002
571,6	-0,002
572	-0,002
572,5	-0,002
572,9	-0,002
573,4	-0,002
573,8	-0,001
574,3	-0,001
574,7	-0,001
575,2	-0,001
575,6	-0,001
576,1	-0,001
576,5	-0,002
576,9	-0,002
577,4	-0,002
577,8	-0,002
578,3	-0,002
578,7	-0,002
579,2	-0,002
579,6	-0,002
580,1	-0,002
580,5	-0,002
581	-0,002
581,4	-0,002
581,9	-0,002
582,3	-0,001
582,7	-0,001
583,2	-0,001
583,6	-0,002
584,1	-0,002
584,5	-0,002
585	-0,002
585,4	-0,002
585,9	-0,002
586,3	-0,002
586,8	-0,002
587,2	-0,002
587,6	-0,002
588,1	-0,002
588,5	-0,002
589	-0,002
589,4	-0,002
589,9	-0,001
590,3	-0,001
590,8	-0,001
591,2	-0,001
591,7	-0,001
592,1	-0,001
592,5	-0,001
593	-0,001
593,4	-0,002
593,9	-0,002
594,3	-0,002
594,8	-0,002
595,2	-0,002
595,7	-0,002
596,1	-0,002
596,6	-0,002
597	-0,002
597,4	-0,001
597,9	-0,001
598,3	-0,001
598,8	-0,001
599,2	-0,001
599,7	-0,002
600,1	-0,002
600,6	-0,002
601	-0,002
601,4	-0,002
601,9	-0,002
602,3	-0,002
602,8	-0,002
603,2	-0,002
603,7	-0,002
604,1	-0,002
604,6	-0,002
605	-0,002
605,4	-0,002
605,9	-0,002
606,3	-0,001
606,8	-0,001
607,2	-0,001
607,7	-0,001
608,1	-0,001
608,6	-0,001
609	-0,001
609,4	-0,001
609,9	-0,001
610,3	-0,001
610,8	-0,001
611,2	-0,001
611,7	-0,001
612,1	-0,001
612,6	-0,001
613	-0,001
613,4	-0,001
613,9	-0,001
614,3	-0,001
614,8	-0,001
615,2	-0,002
615,7	-0,002
616,1	-0,002
616,6	-0,002
617	-0,002
617,4	-0,002
617,9	-0,002
618,3	-0,002
618,8	-0,002
619,2	-0,002
619,7	-0,003
620,1	-0,002
620,5	-0,002
621	-0,002
621,4	-0,002
621,9	-0,002
622,3	-0,001
622,8	-0,001
623,2	-0,002
623,6	-0,002
624,1	-0,002
624,5	-0,002
625	-0,002
625,4	-0,002
625,9	-0,002
626,3	-0,002
626,8	-0,002
627,2	-0,002
627,6	-0,002
628,1	-0,002
628,5	-0,002
629	-0,002
629,4	-0,002
629,9	-0,001
630,3	-0,001
630,7	-0,001
631,2	-0,001
631,6	-0
632,1	0
632,5	-0
633	-0,001
633,4	-0,001
633,8	-0,002
634,3	-0,002
634,7	-0,002
635,2	-0,002
635,6	-0,002
636,1	-0,002
636,5	-0,002
636,9	-0,001
637,4	-0,001
637,8	-0,001
638,3	-0,001
638,7	-0,001
639,2	-0,001
639,6	-0,001
640	-0,001
640,5	-0,001
640,9	-0,001
641,4	-0,001
641,8	-0,001
642,2	-0,002
642,7	-0,002
643,1	-0,001
643,6	-0,001
644	-0,001
644,5	-0,001
644,9	-0
645,3	-0,001
645,8	-0,001
646,2	-0,002
646,7	-0,002
647,1	-0,002
647,6	-0,002
648	-0,002
648,4	-0,002
648,9	-0,001
649,3	-0,001
649,8	-0,001
650,2	-0
650,6	-0
651,1	-0,001
651,5	-0,001
652	-0,001
652,4	-0,001
652,9	-0,001
653,3	-0,001
653,7	-0,001
654,2	-0,001
654,6	-0,002
655,1	-0,003
655,5	-0,002
655,9	-0,002
656,4	-0,001
656,8	-0
657,3	-0
657,7	0
658,2	0,001
658,6	0,001
659	0,002
659,5	0,003
659,9	0,001
660,4	-0
660,8	-0,001
661,2	-0,001
661,7	-0
662,1	-0,001
662,6	-0,001
663	-0
663,4	-0,001
663,9	-0,001
664,3	-0,001
664,8	-0,001
665,2	-0,001
665,6	-0,001
666,1	-0,001
666,5	-0
667	-0
667,4	-0,001
667,9	-0,001
668,3	-0,001
668,7	-0,001
669,2	-0,001
669,6	-0,002
670,1	-0,001
670,5	-0,001
670,9	-0,001
671,4	-0,001
671,8	-0,001
672,3	-0,001
672,7	-0,001
673,1	-0,001
673,6	-0,001
674	-0,001
674,5	-0,001
674,9	-0,001
675,3	-0,001
675,8	-0,001
676,2	-0,001
676,7	-0,001
677,1	-0,001
677,5	-0,001
678	-0,001
678,4	-0,002
678,9	-0,002
679,3	-0,001
679,7	-0,002
680,2	-0,002
680,6	-0,002
681,1	-0,002
681,5	-0,002
681,9	-0,002
682,4	-0,002
682,8	-0,001
683,3	-0,001
683,7	-0,001
684,1	-0,001
684,6	-0,001
685	-0,001
685,5	-0,001
685,9	-0,001
686,3	-0,001
686,8	-0,001
687,2	-0,001
687,7	-0,002
688,1	-0,001
688,5	-0,002
689	-0,002
689,4	-0,002
689,9	-0,002
690,3	-0,002
690,7	-0,002
691,2	-0,002
691,6	-0,002
692	-0,001
692,5	-0,001
692,9	-0,001
693,4	-0,001
693,8	-0,001
694,2	-0,001
694,7	-0,001
695,1	-0,001
695,6	-0,001
696	-0,001
696,4	-0,001
696,9	-0,001
697,3	-0,001
697,8	-0,002
698,2	-0,001
698,6	-0,002
699,1	-0,001
699,5	-0,001
699,9	-0,001
700,4	-0,001
700,8	-0,001
701,3	-0,001
701,7	-0,001
702,1	-0,001
702,6	-0,001
703	-0,001
703,5	-0,001
703,9	-0,001
704,3	-0,001
704,8	-0,001
705,2	-0,001
705,6	-0,001
706,1	-0,001
706,5	-0,001
707	-0,001
707,4	-0,001
707,8	-0,001
708,3	-0,001
708,7	-0,001
709,2	-0,001
709,6	-0
710	0
710,5	-0
710,9	-0
711,3	-0
711,8	-0
712,2	-0
712,7	-0,001
713,1	-0,001
713,5	-0,001
714	-0,001
714,4	-0,002
714,8	-0,002
715,3	-0,002
715,7	-0,001
716,2	-0,001
716,6	-0,001
717	-0,002
717,5	-0,001
717,9	-0,001
718,3	-0,002
718,8	-0,002
719,2	-0,002
719,7	-0,001
720,1	-0,001
720,5	-0,001
721	-0,001
721,4	-0,001
721,8	-0,001
722,3	-0,001
722,7	-0,001
723,2	-0,001
723,6	-0,001
724	-0,001
724,5	-0
724,9	-0,001
725,3	-0
725,8	-0
726,2	-0,001
726,7	-0,001
727,1	-0,001
727,5	-0,001
728	-0,001
728,4	-0,001
728,8	-0,001
729,3	-0,001
729,7	-0,001
730,1	-0,001
730,6	-0
731	-0
731,5	-0,001
731,9	-0,001
732,3	-0,001
732,8	-0,001
733,2	-0,002
733,6	-0,002
734,1	-0,002
734,5	-0,002
734,9	-0,002
735,4	-0,002
735,8	-0,002
736,3	-0,001
736,7	-0,001
737,1	-0,001
737,6	-0,001
738	-0,001
738,4	-0,001
738,9	-0,001
739,3	-0,001
739,7	-0,001
740,2	-0,001
740,6	-0,001
741,1	-0,002
741,5	-0,002
741,9	-0,002
742,4	-0,002
742,8	-0,002
743,2	-0,001
743,7	-0,001
744,1	-0,001
744,5	-0,001
745	-0
745,4	0
745,8	0
746,3	-0
746,7	-0
747,2	-0,001
747,6	-0,001
748	-0,001
748,5	-0,001
748,9	-0,001
749,3	-0,001
749,8	-0,001
750,2	-0,001
750,6	-0,001
751,1	-0,001
751,5	-0
751,9	-0
752,4	-0
752,8	-0
753,3	-0
753,7	-0,001
754,1	-0,001
754,6	-0,001
755	-0,001
755,4	-0,001
755,9	-0,001
756,3	-0,001
756,7	-0,001
757,2	-0,001
757,6	-0,001
758	-0
758,5	-0
758,9	-0,001
759,3	-0,001
759,8	-0
760,2	-0
760,6	-0,001
761,1	-0,001
761,5	-0,001
761,9	-0,001
762,4	-0,001
762,8	-0,001
763,3	-0,001
763,7	-0,001
764,1	-0,001
764,6	-0,002
765	-0,001
765,4	-0,001
765,9	-0,001
766,3	-0,001
766,7	-0,001
767,2	-0,001
767,6	-0,001
768	-0,001
768,5	-0,001
768,9	-0,001
769,3	-0,001
769,8	-0,001
770,2	-0,001
770,6	-0,001
771,1	-0,001
771,5	-0,001
771,9	-0,001
772,4	-0,001
772,8	-0,001
773,2	-0,001
773,7	-0,001
774,1	-0,001
774,5	-0,001
775	-0
775,4	-0
775,8	0
776,3	0
776,7	-0
777,1	0
777,6	-0
778	-0,001
778,4	-0,001
778,9	-0,001
779,3	-0,001
779,7	-0,001
780,2	-0,001
780,6	-0,001
781	-0,001
781,5	-0,001
781,9	-0,001
782,3	-0,001
782,8	-0,001
783,2	-0,001
783,6	-0,001
784,1	-0,001
784,5	-0,001
784,9	-0,001
785,4	-0,001
785,8	-0,001
786,2	-0,001
786,7	-0,001
787,1	-0,001
787,5	-0,001
788	-0,001
788,4	-0,001
788,8	-0,001
789,3	-0,001
789,7	-0,001
790,1	-0
790,6	-0
791	-0
791,4	-0,001
791,9	-0
792,3	-0,001
792,7	-0,001
793,2	-0,001
793,6	-0,001
794	-0,001
794,5	-0,001
794,9	-0,001
795,3	-0
795,8	0
796,2	0
796,6	-0
797,1	-0
797,5	-0,001
797,9	-0
798,4	-0,001
798,8	-0,001
799,2	-0,001
799,7	-0,001
800,1	-0,001
800,5	-0,001
801	-0,001
801,4	-0,001
801,8	-0
802,2	-0
802,7	0
803,1	-0
803,5	0
804	0
804,4	0
804,8	0
805,3	-0
805,7	-0,001
806,1	-0
806,6	-0
807	-0
807,4	-0,001
807,9	-0,001
808,3	-0,001
808,7	-0,001
809,2	-0,001
809,6	-0,001
810	-0,002
810,4	-0,002
810,9	-0,001
811,3	-0,001
811,7	-0,001
812,2	-0,001
812,6	-0,001
813	-0,001
813,5	-0,001
813,9	-0,001
814,3	-0,001
814,8	-0,001
815,2	-0,001
815,6	-0,001
816,1	-0,001
816,5	-0,001
816,9	-0,001
817,3	-0,001
817,8	-0,001
818,2	-0,001
818,6	-0,001
819,1	-0,001
819,5	-0,001
819,9	-0
820,4	-0
820,8	-0
821,2	-0
821,7	-0
822,1	-0
822,5	-0
822,9	-0
823,4	-0
823,8	0
824,2	-0
824,7	-0
825,1	-0
825,5	-0,001
826	-0,001
826,4	-0,001
826,8	-0,002
827,3	-0,001
827,7	-0,002
828,1	-0,001
828,5	-0,001
829	-0,001
829,4	-0,002
829,8	-0,001
830,3	-0,002
830,7	-0,002
831,1	-0,002
831,6	-0,002
832	-0,002
832,4	-0,001
832,8	-0,001
833,3	-0,001
833,7	-0,001
834,1	-0,001
834,6	-0,001
835	-0
835,4	-0,001
835,8	-0
836,3	-0
836,7	-0
837,1	-0
837,6	0
838	0
838,4	0
838,9	0
839,3	0
839,7	0
840,1	0
840,6	-0
841	-0
841,4	-0
841,9	-0
842,3	-0
842,7	-0
843,1	0
843,6	0
844	0
844,4	-0
844,9	-0
845,3	-0,001
845,7	-0,001
846,2	-0,001
846,6	-0,001
847	-0,001
847,4	-0,001
847,9	-0,001
848,3	-0,001
848,7	-0,001
849,2	-0,001
849,6	-0
850	-0,001
850,4	-0,001
850,9	-0,001
851,3	-0,001
851,7	-0,001
852,2	-0,001
852,6	-0,001
853	-0,001
853,4	-0,001
853,9	-0,001
854,3	-0
854,7	-0,001
855,2	-0,001
855,6	-0,001
856	-0,001
856,4	-0,001
856,9	-0,001
857,3	-0,001
857,7	-0,001
858,2	-0,001
858,6	-0,001
859	-0,001
859,4	-0,001
859,9	-0,001
860,3	-0,001
860,7	-0,001
861,1	-0,002
861,6	-0,001
862	-0,001
862,4	-0,001
862,9	-0,001
863,3	-0,001
863,7	-0,001
864,1	-0,001
864,6	-0,001
865	-0,001
865,4	-0,001
865,9	-0,001
866,3	-0,001
866,7	-0,001
867,1	-0,001
867,6	-0,001
868	-0,001
868,4	-0,001
868,8	-0,001
869,3	-0,001
869,7	-0,001
870,1	-0,001
870,6	-0
871	-0
871,4	-0
871,8	-0
872,3	0
872,7	0
873,1	-0
873,5	0
874	-0
874,4	-0,001
874,8	-0,001
875,3	-0,001
875,7	-0,001
876,1	-0,001
876,5	-0,001
877	-0,001
877,4	-0
877,8	-0
878,2	-0
878,7	0
879,1	0
879,5	0
879,9	0
880,4	0
880,8	0
881,2	0
881,7	-0
882,1	-0
882,5	-0
882,9	0
883,4	-0
883,8	-0
884,2	-0
884,6	0
885,1	0
885,5	-0
885,9	0
886,3	0
886,8	0
887,2	-0
887,6	-0
888	-0,001
888,5	-0,001
888,9	-0,001
889,3	-0,001
889,8	-0,001
890,2	-0,001
890,6	-0,001
891	-0,001
891,5	-0,001
891,9	-0
892,3	-0
892,7	-0
893,2	-0
893,6	-0,001
894	-0,001
894,4	-0,001
894,9	-0,001
895,3	-0,001
895,7	-0,001
896,1	-0,001
896,6	-0,001
897	-0
897,4	-0
897,8	-0
898,3	-0
898,7	-0,001
899,1	-0,001
899,5	-0,001
900	-0,001
900,4	-0,001
900,8	-0,001
901,2	-0,001
901,7	-0
902,1	-0
902,5	-0
902,9	-0,001
903,4	-0,001
903,8	-0,001
904,2	-0,001
904,6	-0,001
905,1	-0,001
905,5	-0,001
905,9	-0,001
906,3	-0
906,8	0
907,2	0
907,6	0,001
908	0
908,5	0
908,9	-0
909,3	-0,001
909,7	-0
910,2	-0,001
910,6	-0
911	-0
911,4	-0
911,9	-0
912,3	0
912,7	0
913,1	0
913,6	0
914	-0
914,4	-0
914,8	-0
915,3	-0,001
915,7	-0,001
916,1	-0,001
916,5	-0,001
916,9	-0,001
917,4	-0,001
917,8	-0,001
918,2	-0
918,6	-0,001
919,1	-0,001
919,5	-0,001
919,9	-0,001
920,3	-0,001
920,8	-0,001
921,2	-0,001
921,6	-0,001
922	-0,001
922,5	-0,001
922,9	-0,001
923,3	-0,001
923,7	-0,001
924,2	-0,001
924,6	-0,001
925	-0,001
925,4	-0,001
925,8	-0,001
926,3	-0,001
926,7	-0,001
927,1	-0,001
927,5	-0
928	-0
928,4	0
928,8	0
929,2	0,001
929,7	0,001
930,1	0,001
930,5	0,001
930,9	0,001
931,3	0,001
931,8	0,001
932,2	0,001
932,6	0,001
933	0
933,5	0,001
933,9	0,001
934,3	0,001
934,7	0,001
935,2	0,001
935,6	0,001
936	0,001
936,4	0,001
936,8	0,001
937,3	0
937,7	-0
938,1	-0
938,5	-0,001
939	-0,001
939,4	-0,001
939,8	-0,001
940,2	-0,001
940,6	-0,001
941,1	-0,001
941,5	0
941,9	0
942,3	-0
942,8	0
943,2	0
943,6	0
944	-0
944,4	-0,001
944,9	-0
945,3	0
945,7	0,001
946,1	0,001
946,6	0
947	0
947,4	0
947,8	0
948,2	0
948,7	-0
949,1	-0
949,5	-0
949,9	-0
950,3	0
950,8	-0
951,2	-0
951,6	0
952	0
952,5	0,001
952,9	0
953,3	-0
953,7	0
954,1	-0
954,6	-0,001
955	-0,001
955,4	-0,001
955,8	-0,001
956,2	0
956,7	-0
957,1	-0,001
957,5	-0,001
957,9	-0
958,3	-0
958,8	-0
959,2	0
959,6	0,001
960	0,001
960,5	0,001
960,9	0,001
961,3	0,001
961,7	0,001
962,1	0
962,6	0,001
963	0
963,4	0,001
963,8	0,001
964,2	0,001
964,7	0,001
965,1	0,001
965,5	0,001
965,9	0,001
966,3	-0
966,8	0
967,2	0
967,6	0
968	0,001
968,4	0,001
968,9	0,001
969,3	0,001
969,7	0,001
970,1	0,002
970,5	0,001
971	0,001
971,4	0
971,8	-0
972,2	-0,001
972,6	-0,001
973,1	-0,001
973,5	-0,001
973,9	-0,001
974,3	-0,001
974,7	-0,001
975,2	-0,001
975,6	-0,001
976	-0,001
976,4	-0,001
976,8	-0,001
977,3	0
977,7	0
978,1	0,001
978,5	0,001
978,9	0,002
979,4	0,002
979,8	0,002
980,2	0,001
980,6	0,001
981	0,001
981,5	0,001
981,9	0,001
982,3	0,001
982,7	-0
983,1	0
983,6	0,001
984	0,001
984,4	0
984,8	-0
985,2	0
985,6	-0
986,1	-0
986,5	-0,001
986,9	-0,001
987,3	-0,001
987,7	-0,001
988,2	-0,001
988,6	-0
989	-0
989,4	-0
989,8	-0
990,3	0,001
990,7	0,001
991,1	0,001
991,5	0,001
991,9	0,001
992,3	0,001
992,8	0,001
993,2	-0,001
993,6	-0,001
994	-0,001
994,4	0
994,9	0
995,3	-0
995,7	-0,001
996,1	-0
996,5	-0
996,9	-0
997,4	-0,001
997,8	-0
998,2	0
998,6	0
999	0
999,5	-0
999,9	0
1000,3	0
1000,7	0
1001,1	0
1001,5	0,001
1002	0,001
1002,4	0
1002,8	0
1003,2	0
1003,6	-0
1004	0
1004,5	-0
1004,9	-0
1005,3	-0
1005,7	-0
1006,1	-0
1006,6	0
1007	-0
1007,4	0
1007,8	0
1008,2	0
1008,6	0
1009,1	-0
1009,5	-0,001
1009,9	-0,001
1010,3	-0,001
1010,7	-0,001
1011,1	-0,001
1011,6	-0,001
1012	-0
1012,4	-0
1012,8	0,001
1013,2	0
1013,6	0
1014,1	0,001
1014,5	0,001
1014,9	0,002
1015,3	0,002
1015,7	0,001
1016,1	0,002
1016,6	0,001
1017	0,001
1017,4	-0
1017,8	-0,001
1018,2	-0,001
1018,6	-0,001
1019,1	-0,001
1019,5	-0,001
1019,9	-0,001
1020,3	-0,001
1020,7	-0
1021,1	-0
1021,6	-0
1022	-0
1022,4	-0
1022,8	-0
1023,2	-0,001
1023,6	-0,001
1024,1	-0,001
1024,5	-0
1024,9	0
1025,3	0
1025,7	0
1026,1	0,001
1026,6	0,001
1027	0,001
1027,4	0
1027,8	-0
1028,2	-0,001
1028,6	-0,001
1029	-0
1029,5	-0,001
1029,9	-0,002
1030,3	-0,001
1030,7	-0,001
1031,1	-0,001
1031,5	-0,001
1032	-0,001
1032,4	0
1032,8	0,001
1033,2	0,001
1033,6	0
1034	-0
1034,4	0
1034,9	-0
1035,3	0
1035,7	-0,001
1036,1	-0,001
1036,5	-0,001
1036,9	-0,001
1037,4	-0,001
1037,8	-0,001
1038,2	-0,001
1038,6	-0
1039	0
1039,4	0
1039,8	0
1040,3	-0
1040,7	-0
1041,1	-0,001
1041,5	-0,001
1041,9	-0,001
1042,3	-0,001
1042,7	-0,001
1043,2	-0,001
1043,6	-0
1044	0
1044,4	-0
1044,8	-0,001
1045,2	-0,001
1045,6	-0,001
1046,1	-0,001
1046,5	-0,002
1046,9	-0,002
1047,3	-0,002
1047,7	-0,002
1048,1	-0,002
1048,5	-0,002
1049	-0,003
1049,4	-0,001
1049,8	-0,001
1050,2	-0,002
1050,6	-0,001
1051	-0,001
1051,4	-0,001
1051,9	0
1052,3	-0
1052,7	-0
1053,1	0
1053,5	0
1053,9	0,001
1054,3	0
1054,8	-0
1055,2	-0,001
1055,6	-0,001
1056	-0,002
1056,4	-0,002
1056,8	-0,002
1057,2	-0,002
1057,6	-0,002
1058,1	-0,002
1058,5	-0,001
1058,9	-0,001
1059,3	-0,001
1059,7	-0,001
1060,1	-0,001
1060,5	-0,001
1061	-0,001
1061,4	-0,002
1061,8	-0,002
1062,2	-0,002
1062,6	-0,001
1063	-0,002
1063,4	-0
1063,8	-0
1064,3	-0
1064,7	0
1065,1	0,001
1065,5	0
1065,9	0,001
1066,3	0,001
1066,7	0,001
1067,1	0,001
1067,6	0,001
1068	0,002
1068,4	0,002
1068,8	0,002
1069,2	0,001
1069,6	-0
1070	0
1070,4	0
1070,9	-0,001
1071,3	-0,001
1071,7	-0,001
1072,1	-0,001
1072,5	0
1072,9	-0
1073,3	-0,001
1073,7	-0,001
1074,2	-0,001
1074,6	-0,001
1075	0
1075,4	-0,002
1075,8	-0,002
1076,2	-0,002
1076,6	-0,002
1077	-0,001
1077,5	-0
1077,9	-0,002
1078,3	-0
1078,7	-0,001
1079,1	-0
1079,5	-0
1079,9	-0,001
1080,3	-0
1080,7	0,001
1081,2	0,001
1081,6	0,002
1082	0,003
1082,4	0,002
1082,8	0,002
1083,2	0,001
1083,6	0
1084	-0
1084,5	-0,001
1084,9	-0,001
1085,3	-0,003
1085,7	-0,002
1086,1	-0,002
1086,5	-0,002
1086,9	-0,004
1087,3	-0,005
1087,7	-0,005
1088,2	-0,004
1088,6	-0,005
1089	-0,006
1089,4	-0,006
1089,8	-0,003
1090,2	-0,005
1090,6	-0,004
1091	-0,001
1091,4	0,001
1091,9	-0,002
1092,3	-0,001
1092,7	0,001
1093,1	0,002
1093,5	0,003
1093,9	0,005
1094,3	0,007
1094,7	0,007
1095,1	0,007
1095,5	0,007
1096	0,007
1096,4	0,009
1096,8	0,002
1097,2	-0,004
1097,6	-0,007
1098	-0,01
1098,4	-0,008
1098,8	-0,01
1099,2	-0,015
1099,6	-0,007
1100,1	-0,002
1100,5	0,01
1100,9	0,01
1101,3	0,015
1101,7	0,022
1102,1	0,023
1102,5	0,018
1102,9	0,022
1103,3	0,019
1103,7	0,025
1104,2	0,018
1104,6	0,026
1105	0,037
1105,4	0,032
1105,8	0,035
1106,2	0,039
1106,6	0,048
1107	0,061
1107,4	0,045
1107,8	0,017
1108,3	0,269
