Data from Absorbance_00029.txt Node
Date: Wed Aug 02 18:02:57 MSK 2023
User: vat
Spectrometer: MAYP114033
Trigger mode: 0
Integration Time (sec): 8,000000E-3
Scans to average: 10
Electric dark correction enabled: true
Nonlinearity correction enabled: false
Boxcar width: 3
XAxis mode: Wavelengths
Number of Pixels in Spectrum: 2068
>>>>>Begin Spectral Data<<<<<
199,4	-0
199,9	0,099
200,4	0,481
200,8	0,723
201,3	0,857
201,8	0,948
202,2	0,951
202,7	0,951
203,2	0,984
203,6	1,004
204,1	1,033
204,6	1,032
205	1,032
205,5	1,055
206	1,094
206,4	1,136
206,9	1,15
207,4	1,153
207,8	1,175
208,3	1,202
208,8	1,21
209,2	1,211
209,7	1,229
210,2	1,229
210,6	1,245
211,1	1,234
211,5	1,243
212	1,242
212,5	1,266
212,9	1,266
213,4	1,28
213,9	1,294
214,3	1,342
214,8	1,338
215,3	1,376
215,7	1,368
216,2	1,379
216,7	1,411
217,1	1,439
217,6	1,441
218,1	1,47
218,5	1,491
219	1,51
219,5	1,538
219,9	1,532
220,4	1,55
220,9	1,577
221,3	1,572
221,8	1,583
222,3	1,602
222,7	1,596
223,2	1,627
223,6	1,645
224,1	1,656
224,6	1,689
225	1,698
225,5	1,722
226	1,742
226,4	1,736
226,9	1,728
227,4	1,744
227,8	1,764
228,3	1,774
228,8	1,774
229,2	1,782
229,7	1,798
230,2	1,821
230,6	1,82
231,1	1,828
231,5	1,838
232	1,857
232,5	1,868
232,9	1,881
233,4	1,873
233,9	1,895
234,3	1,909
234,8	1,907
235,3	1,914
235,7	1,938
236,2	1,95
236,7	1,986
237,1	1,978
237,6	1,981
238,1	1,991
238,5	1,996
239	1,991
239,4	2,002
239,9	2,002
240,4	2,01
240,8	2,014
241,3	2,024
241,8	2,029
242,2	2,026
242,7	2,016
243,2	2,029
243,6	2,033
244,1	2,029
244,6	2,052
245	2,051
245,5	2,069
245,9	2,083
246,4	2,071
246,9	2,093
247,3	2,107
247,8	2,087
248,3	2,104
248,7	2,096
249,2	2,104
249,7	2,114
250,1	2,103
250,6	2,102
251	2,124
251,5	2,118
252	2,132
252,4	2,123
252,9	2,132
253,4	2,14
253,8	2,129
254,3	2,117
254,8	2,123
255,2	2,145
255,7	2,154
256,1	2,138
256,6	2,131
257,1	2,141
257,5	2,142
258	2,149
258,5	2,143
258,9	2,167
259,4	2,167
259,9	2,168
260,3	2,16
260,8	2,161
261,2	2,164
261,7	2,151
262,2	2,132
262,6	2,133
263,1	2,13
263,6	2,127
264	2,144
264,5	2,159
264,9	2,158
265,4	2,166
265,9	2,179
266,3	2,16
266,8	2,183
267,3	2,169
267,7	2,129
268,2	2,131
268,7	2,118
269,1	2,096
269,6	2,099
270	2,092
270,5	2,097
271	2,109
271,4	2,092
271,9	2,089
272,4	2,09
272,8	2,123
273,3	2,116
273,7	2,096
274,2	2,09
274,7	2,089
275,1	2,067
275,6	2,063
276,1	2,021
276,5	1,995
277	1,974
277,4	1,933
277,9	1,904
278,4	1,865
278,8	1,814
279,3	1,769
279,8	1,718
280,2	1,651
280,7	1,591
281,1	1,515
281,6	1,45
282,1	1,381
282,5	1,313
283	1,245
283,4	1,181
283,9	1,119
284,4	1,065
284,8	1,013
285,3	0,968
285,8	0,926
286,2	0,887
286,7	0,854
287,1	0,826
287,6	0,802
288,1	0,782
288,5	0,763
289	0,747
289,5	0,734
289,9	0,723
290,4	0,713
290,8	0,703
291,3	0,695
291,8	0,688
292,2	0,683
292,7	0,678
293,1	0,674
293,6	0,668
294,1	0,664
294,5	0,66
295	0,657
295,5	0,654
295,9	0,65
296,4	0,647
296,8	0,646
297,3	0,645
297,8	0,642
298,2	0,638
298,7	0,635
299,1	0,633
299,6	0,63
300,1	0,627
300,5	0,625
301	0,622
301,5	0,619
301,9	0,617
302,4	0,612
302,8	0,609
303,3	0,605
303,8	0,601
304,2	0,598
304,7	0,595
305,1	0,591
305,6	0,588
306,1	0,584
306,5	0,581
307	0,577
307,4	0,573
307,9	0,568
308,4	0,565
308,8	0,56
309,3	0,557
309,8	0,553
310,2	0,549
310,7	0,545
311,1	0,54
311,6	0,536
312,1	0,532
312,5	0,527
313	0,522
313,4	0,518
313,9	0,514
314,4	0,51
314,8	0,505
315,3	0,5
315,7	0,496
316,2	0,491
316,7	0,485
317,1	0,48
317,6	0,475
318	0,47
318,5	0,465
319	0,458
319,4	0,453
319,9	0,448
320,3	0,443
320,8	0,439
321,3	0,433
321,7	0,429
322,2	0,424
322,6	0,42
323,1	0,416
323,6	0,411
324	0,406
324,5	0,401
324,9	0,397
325,4	0,393
325,9	0,387
326,3	0,383
326,8	0,378
327,2	0,373
327,7	0,368
328,2	0,363
328,6	0,358
329,1	0,353
329,5	0,348
330	0,343
330,5	0,338
330,9	0,333
331,4	0,329
331,8	0,324
332,3	0,32
332,8	0,315
333,2	0,311
333,7	0,307
334,1	0,303
334,6	0,299
335,1	0,294
335,5	0,29
336	0,286
336,4	0,281
336,9	0,277
337,4	0,273
337,8	0,268
338,3	0,263
338,7	0,26
339,2	0,255
339,7	0,251
340,1	0,246
340,6	0,241
341	0,237
341,5	0,234
342	0,231
342,4	0,227
342,9	0,224
343,3	0,221
343,8	0,218
344,2	0,214
344,7	0,21
345,2	0,206
345,6	0,202
346,1	0,198
346,5	0,195
347	0,193
347,5	0,189
347,9	0,186
348,4	0,183
348,8	0,18
349,3	0,178
349,8	0,174
350,2	0,171
350,7	0,168
351,1	0,165
351,6	0,161
352	0,158
352,5	0,156
353	0,153
353,4	0,15
353,9	0,148
354,3	0,145
354,8	0,144
355,3	0,142
355,7	0,139
356,2	0,136
356,6	0,135
357,1	0,133
357,5	0,13
358	0,128
358,5	0,126
358,9	0,124
359,4	0,123
359,8	0,12
360,3	0,118
360,8	0,117
361,2	0,114
361,7	0,112
362,1	0,109
362,6	0,107
363	0,106
363,5	0,103
364	0,101
364,4	0,099
364,9	0,097
365,3	0,096
365,8	0,095
366,3	0,093
366,7	0,092
367,2	0,091
367,6	0,091
368,1	0,089
368,5	0,087
369	0,086
369,5	0,085
369,9	0,084
370,4	0,082
370,8	0,08
371,3	0,079
371,7	0,078
372,2	0,077
372,7	0,075
373,1	0,074
373,6	0,073
374	0,072
374,5	0,07
374,9	0,069
375,4	0,068
375,9	0,066
376,3	0,066
376,8	0,064
377,2	0,064
377,7	0,063
378,2	0,062
378,6	0,061
379,1	0,06
379,5	0,06
380	0,059
380,4	0,058
380,9	0,058
381,4	0,057
381,8	0,056
382,3	0,055
382,7	0,054
383,2	0,053
383,6	0,052
384,1	0,051
384,6	0,05
385	0,05
385,5	0,049
385,9	0,048
386,4	0,047
386,8	0,048
387,3	0,047
387,7	0,045
388,2	0,045
388,7	0,044
389,1	0,043
389,6	0,042
390	0,041
390,5	0,041
390,9	0,041
391,4	0,04
391,9	0,04
392,3	0,039
392,8	0,039
393,2	0,038
393,7	0,038
394,1	0,037
394,6	0,036
395,1	0,035
395,5	0,035
396	0,035
396,4	0,035
396,9	0,034
397,3	0,034
397,8	0,034
398,2	0,033
398,7	0,032
399,2	0,032
399,6	0,031
400,1	0,032
400,5	0,031
401	0,029
401,4	0,029
401,9	0,029
402,4	0,028
402,8	0,027
403,3	0,027
403,7	0,026
404,2	0,026
404,6	0,025
405,1	0,025
405,5	0,025
406	0,024
406,5	0,024
406,9	0,024
407,4	0,024
407,8	0,023
408,3	0,023
408,7	0,021
409,2	0,021
409,6	0,021
410,1	0,021
410,6	0,021
411	0,021
411,5	0,02
411,9	0,02
412,4	0,02
412,8	0,019
413,3	0,019
413,7	0,019
414,2	0,019
414,7	0,019
415,1	0,018
415,6	0,017
416	0,017
416,5	0,016
416,9	0,016
417,4	0,015
417,8	0,014
418,3	0,014
418,8	0,014
419,2	0,015
419,7	0,014
420,1	0,014
420,6	0,014
421	0,013
421,5	0,014
421,9	0,013
422,4	0,012
422,8	0,012
423,3	0,013
423,8	0,012
424,2	0,012
424,7	0,011
425,1	0,011
425,6	0,011
426	0,011
426,5	0,011
426,9	0,01
427,4	0,01
427,9	0,009
428,3	0,009
428,8	0,009
429,2	0,008
429,7	0,007
430,1	0,008
430,6	0,008
431	0,008
431,5	0,009
431,9	0,009
432,4	0,008
432,8	0,008
433,3	0,008
433,8	0,008
434,2	0,008
434,7	0,007
435,1	0,007
435,6	0,007
436	0,007
436,5	0,006
436,9	0,007
437,4	0,007
437,8	0,006
438,3	0,007
438,8	0,007
439,2	0,007
439,7	0,008
440,1	0,006
440,6	0,006
441	0,007
441,5	0,007
441,9	0,007
442,4	0,007
442,8	0,006
443,3	0,007
443,7	0,007
444,2	0,006
444,7	0,006
445,1	0,005
445,6	0,005
446	0,006
446,5	0,006
446,9	0,005
447,4	0,005
447,8	0,005
448,3	0,005
448,7	0,005
449,2	0,004
449,6	0,004
450,1	0,004
450,6	0,004
451	0,004
451,5	0,004
451,9	0,004
452,4	0,004
452,8	0,004
453,3	0,004
453,7	0,003
454,2	0,003
454,6	0,003
455,1	0,003
455,5	0,003
456	0,003
456,4	0,003
456,9	0,004
457,3	0,003
457,8	0,003
458,3	0,003
458,7	0,004
459,2	0,003
459,6	0,003
460,1	0,003
460,5	0,003
461	0,003
461,4	0,003
461,9	0,003
462,3	0,002
462,8	0,002
463,2	0,002
463,7	0,003
464,1	0,003
464,6	0,003
465	0,003
465,5	0,003
466	0,003
466,4	0,003
466,9	0,003
467,3	0,003
467,8	0,002
468,2	0,002
468,7	0,001
469,1	0,002
469,6	0,002
470	0,002
470,5	0,002
470,9	0,003
471,4	0,003
471,8	0,003
472,3	0,002
472,7	0,002
473,2	0,002
473,6	0,002
474,1	0,002
474,5	0,002
475	0,002
475,4	0,002
475,9	0,001
476,4	0,001
476,8	0,002
477,3	0,003
477,7	0,002
478,2	0,003
478,6	0,003
479,1	0,003
479,5	0,003
480	0,003
480,4	0,003
480,9	0,002
481,3	0,002
481,8	0,002
482,2	0,002
482,7	0,002
483,1	0,001
483,6	0,001
484	0
484,5	-0
484,9	0
485,4	-0,001
485,8	-0,001
486,3	-0
486,7	-0
487,2	-0
487,6	0
488,1	0
488,5	0,001
489	0,001
489,4	0,001
489,9	0,001
490,4	0,002
490,8	0,002
491,3	0,002
491,7	0,001
492,2	0,001
492,6	0,001
493,1	0,002
493,5	0,001
494	0,001
494,4	0,001
494,9	0,002
495,3	0,001
495,8	0,002
496,2	0,002
496,7	0,002
497,1	0,002
497,6	0,002
498	0,002
498,5	0,002
498,9	0,002
499,4	0,002
499,8	0,002
500,3	0,002
500,7	0,002
501,2	0,002
501,6	0,002
502,1	0,002
502,5	0,002
503	0,002
503,4	0,002
503,9	0,002
504,3	0,002
504,8	0,002
505,2	0,002
505,7	0,001
506,1	0,001
506,6	0,002
507	0,001
507,5	0,001
507,9	-0
508,4	0
508,8	0
509,3	-0
509,7	-0
510,2	-0
510,6	0
511,1	0,001
511,5	0,001
512	0,001
512,4	0,001
512,9	0,001
513,3	0,002
513,8	0,002
514,2	0,002
514,7	0,002
515,1	0,003
515,6	0,003
516	0,003
516,5	0,002
516,9	0,002
517,4	0,002
517,8	0,002
518,3	0,002
518,7	0,002
519,2	0,003
519,6	0,003
520,1	0,004
520,5	0,004
521	0,003
521,4	0,003
521,9	0,003
522,3	0,003
522,8	0,003
523,2	0,002
523,7	0,002
524,1	0,002
524,6	0,001
525	0,001
525,5	0,001
525,9	0,001
526,4	0,001
526,8	0
527,3	0
527,7	0,001
528,2	0,002
528,6	0,001
529,1	0,001
529,5	0,001
530	0,001
530,4	0,001
530,9	0,001
531,3	0
531,8	0,001
532,2	0,002
532,6	0,002
533,1	0,002
533,5	0,002
534	0,002
534,4	0,002
534,9	0,002
535,3	0,002
535,8	0,002
536,2	0,003
536,7	0,003
537,1	0,002
537,6	0,002
538	0,001
538,5	0,002
538,9	0,002
539,4	0,001
539,8	0,001
540,3	0,002
540,7	0,002
541,2	0,001
541,6	0,001
542,1	0,001
542,5	0,001
543	0,001
543,4	0,001
543,9	0,003
544,3	0,003
544,8	0,003
545,2	0,003
545,7	0,002
546,1	0,002
546,5	0,002
547	0,001
547,4	0,002
547,9	0,001
548,3	0,001
548,8	0,001
549,2	0,001
549,7	0,001
550,1	0,001
550,6	0,002
551	0,002
551,5	0,002
551,9	0,002
552,4	0,002
552,8	0,002
553,3	0,002
553,7	0,001
554,2	0,001
554,6	0,001
555,1	0,001
555,5	0,002
555,9	0,002
556,4	0,002
556,8	0,001
557,3	0,001
557,7	0,001
558,2	0,001
558,6	0,002
559,1	0,002
559,5	0,002
560	0,002
560,4	0,002
560,9	0,002
561,3	0,002
561,8	0,001
562,2	0,001
562,7	0,001
563,1	0,002
563,6	0,002
564	0,002
564,4	0,002
564,9	0,002
565,3	0,002
565,8	0,002
566,2	0,001
566,7	0,001
567,1	0,002
567,6	0,001
568	0,001
568,5	0,001
568,9	0,001
569,4	0,002
569,8	0,002
570,3	0,001
570,7	0,001
571,1	0,001
571,6	0,002
572	0,002
572,5	0,002
572,9	0,001
573,4	0,001
573,8	0,002
574,3	0,001
574,7	0,001
575,2	0,001
575,6	0,001
576,1	0,001
576,5	0,002
576,9	0,002
577,4	0,002
577,8	0,002
578,3	0,002
578,7	0,002
579,2	0,001
579,6	0,001
580,1	0,002
580,5	0,001
581	0,001
581,4	0,001
581,9	0,001
582,3	0,001
582,7	0,001
583,2	0,001
583,6	0,001
584,1	0,001
584,5	0,002
585	0,002
585,4	0,002
585,9	0,001
586,3	0,001
586,8	0,001
587,2	0,001
587,6	0,001
588,1	0,001
588,5	0,001
589	0,002
589,4	0,002
589,9	0,002
590,3	0,002
590,8	0,002
591,2	0,001
591,7	0,002
592,1	0,001
592,5	0,002
593	0,001
593,4	0,002
593,9	0,002
594,3	0,002
594,8	0,002
595,2	0,002
595,7	0,002
596,1	0,002
596,6	0,001
597	0,001
597,4	0,001
597,9	0,001
598,3	0,001
598,8	0,002
599,2	0,002
599,7	0,002
600,1	0,001
600,6	0,002
601	0,001
601,4	0,001
601,9	0,001
602,3	0,001
602,8	0,001
603,2	0,001
603,7	0,001
604,1	0,001
604,6	0,001
605	0,001
605,4	0,001
605,9	0,001
606,3	0,002
606,8	0,002
607,2	0,002
607,7	0,001
608,1	0,002
608,6	0,002
609	0,002
609,4	0,002
609,9	0,002
610,3	0,002
610,8	0,002
611,2	0,001
611,7	0,001
612,1	0,002
612,6	0,002
613	0,002
613,4	0,002
613,9	0,002
614,3	0,002
614,8	0,002
615,2	0,001
615,7	0,001
616,1	0,001
616,6	0,001
617	0,001
617,4	0,001
617,9	0,001
618,3	0,001
618,8	0,001
619,2	0,001
619,7	0,001
620,1	0,001
620,5	0,001
621	0,001
621,4	0,001
621,9	0,001
622,3	0,001
622,8	0,001
623,2	0,001
623,6	0,001
624,1	0,001
624,5	0,001
625	0,001
625,4	0,001
625,9	0,002
626,3	0,001
626,8	0,001
627,2	0,001
627,6	0,001
628,1	0,001
628,5	0
629	0
629,4	0
629,9	0,001
630,3	0,001
630,7	0,002
631,2	0,001
631,6	0,002
632,1	0,002
632,5	0,002
633	0,002
633,4	0,002
633,8	0,002
634,3	0,002
634,7	0,002
635,2	0,002
635,6	0,002
636,1	0,002
636,5	0,002
636,9	0,002
637,4	0,001
637,8	0,002
638,3	0,001
638,7	0,001
639,2	0,002
639,6	0,002
640	0,002
640,5	0,002
640,9	0,002
641,4	0,002
641,8	0,001
642,2	0,001
642,7	0,002
643,1	0,002
643,6	0,002
644	0,001
644,5	0,002
644,9	0,002
645,3	0,002
645,8	0,001
646,2	0,001
646,7	0,001
647,1	0,001
647,6	0,001
648	0,001
648,4	0,001
648,9	0,002
649,3	0,002
649,8	0,002
650,2	0,002
650,6	0,002
651,1	0,002
651,5	0,002
652	0,002
652,4	0,002
652,9	0,002
653,3	0,002
653,7	0,002
654,2	0,002
654,6	0,002
655,1	0,001
655,5	0,001
655,9	0,001
656,4	0
656,8	0,001
657,3	0,001
657,7	0,002
658,2	0,002
658,6	0,002
659	0,003
659,5	0,004
659,9	0,003
660,4	0,003
660,8	0,002
661,2	0,002
661,7	0,002
662,1	0,002
662,6	0,002
663	0,002
663,4	0,002
663,9	0,002
664,3	0,002
664,8	0,002
665,2	0,002
665,6	0,002
666,1	0,002
666,5	0,002
667	0,002
667,4	0,002
667,9	0,002
668,3	0,002
668,7	0,002
669,2	0,002
669,6	0,002
670,1	0,002
670,5	0,002
670,9	0,002
671,4	0,002
671,8	0,002
672,3	0,001
672,7	0,001
673,1	0,001
673,6	0,001
674	0,001
674,5	0,001
674,9	0,001
675,3	0,001
675,8	0,001
676,2	0,001
676,7	0,001
677,1	0,002
677,5	0,002
678	0,001
678,4	0,001
678,9	0,001
679,3	0,001
679,7	0,001
680,2	0
680,6	0
681,1	0
681,5	0
681,9	0
682,4	0
682,8	0,001
683,3	0,001
683,7	0,001
684,1	0,001
684,6	0
685	0,001
685,5	0,001
685,9	0,001
686,3	0,001
686,8	0,001
687,2	0,001
687,7	0,001
688,1	0,001
688,5	0,001
689	0,001
689,4	0,001
689,9	0,001
690,3	0,001
690,7	0,001
691,2	0,001
691,6	0,001
692	0,001
692,5	0,001
692,9	0,001
693,4	0,001
693,8	0,002
694,2	0,002
694,7	0,002
695,1	0,002
695,6	0,002
696	0,002
696,4	0,002
696,9	0,002
697,3	0,002
697,8	0,002
698,2	0,002
698,6	0,002
699,1	0,002
699,5	0,002
699,9	0,001
700,4	0,001
700,8	0,001
701,3	0,001
701,7	0,001
702,1	0,001
702,6	0,001
703	0,002
703,5	0,002
703,9	0,002
704,3	0,002
704,8	0,002
705,2	0,002
705,6	0,002
706,1	0,002
706,5	0,002
707	0,002
707,4	0,002
707,8	0,002
708,3	0,002
708,7	0,002
709,2	0,002
709,6	0,002
710	0,002
710,5	0,002
710,9	0,002
711,3	0,002
711,8	0,002
712,2	0,002
712,7	0,002
713,1	0,002
713,5	0,002
714	0,001
714,4	0,001
714,8	0,001
715,3	0,001
715,7	0,001
716,2	0,001
716,6	0,001
717	0,001
717,5	0,001
717,9	0,001
718,3	0,001
718,8	0,001
719,2	0,002
719,7	0,002
720,1	0,002
720,5	0,002
721	0,002
721,4	0,002
721,8	0,002
722,3	0,001
722,7	0,001
723,2	0,001
723,6	0,001
724	0,001
724,5	0,001
724,9	0,001
725,3	0,001
725,8	0,001
726,2	0,001
726,7	0,001
727,1	0,001
727,5	0,001
728	0,001
728,4	0,001
728,8	0,001
729,3	0,001
729,7	0,001
730,1	0,001
730,6	0,001
731	0,001
731,5	0,001
731,9	0,001
732,3	0,001
732,8	0,001
733,2	0,001
733,6	0,001
734,1	0,001
734,5	0,001
734,9	0,001
735,4	0,001
735,8	0,001
736,3	0,001
736,7	0,001
737,1	0,001
737,6	0,001
738	0,001
738,4	0,001
738,9	0,001
739,3	0,001
739,7	0,001
740,2	0,001
740,6	0,001
741,1	0,001
741,5	0,001
741,9	0,001
742,4	0,001
742,8	0,001
743,2	0,001
743,7	0
744,1	0,001
744,5	0,001
745	0,001
745,4	0,001
745,8	0,002
746,3	0,001
746,7	0,002
747,2	0,001
747,6	0,001
748	0,001
748,5	0,001
748,9	0,001
749,3	0,001
749,8	0,001
750,2	0,001
750,6	0,001
751,1	0,002
751,5	0,002
751,9	0,002
752,4	0,002
752,8	0,002
753,3	0,002
753,7	0,002
754,1	0,001
754,6	0,001
755	0,001
755,4	0,001
755,9	0,001
756,3	0,001
756,7	0,001
757,2	0,001
757,6	0,001
758	0,001
758,5	0,002
758,9	0,002
759,3	0,002
759,8	0,002
760,2	0,001
760,6	0,001
761,1	0,002
761,5	0,001
761,9	0,001
762,4	0,001
762,8	0,001
763,3	0,001
763,7	0,001
764,1	0,001
764,6	0,001
765	0,001
765,4	0,001
765,9	0,001
766,3	0,001
766,7	0,001
767,2	0,002
767,6	0,002
768	0,002
768,5	0,002
768,9	0,001
769,3	0,002
769,8	0,002
770,2	0,001
770,6	0,002
771,1	0,002
771,5	0,002
771,9	0,002
772,4	0,001
772,8	0,001
773,2	0,001
773,7	0,001
774,1	0,001
774,5	0,001
775	0,002
775,4	0,002
775,8	0,002
776,3	0,002
776,7	0,002
777,1	0,002
777,6	0,002
778	0,002
778,4	0,001
778,9	0,001
779,3	0,001
779,7	0,001
780,2	0,001
780,6	0,001
781	0,001
781,5	0,001
781,9	0,001
782,3	0,001
782,8	0,001
783,2	0,001
783,6	0,001
784,1	0,002
784,5	0,002
784,9	0,002
785,4	0,002
785,8	0,002
786,2	0,002
786,7	0,002
787,1	0,002
787,5	0,002
788	0,002
788,4	0,002
788,8	0,002
789,3	0,002
789,7	0,002
790,1	0,002
790,6	0,002
791	0,002
791,4	0,001
791,9	0,002
792,3	0,002
792,7	0,001
793,2	0,001
793,6	0,002
794	0,002
794,5	0,002
794,9	0,002
795,3	0,002
795,8	0,002
796,2	0,002
796,6	0,001
797,1	0,001
797,5	0,001
797,9	0,001
798,4	0,001
798,8	0,001
799,2	0,001
799,7	0,001
800,1	0,001
800,5	0,001
801	0,002
801,4	0,001
801,8	0,001
802,2	0,001
802,7	0,002
803,1	0,002
803,5	0,002
804	0,002
804,4	0,002
804,8	0,003
805,3	0,002
805,7	0,002
806,1	0,002
806,6	0,002
807	0,002
807,4	0,002
807,9	0,001
808,3	0,001
808,7	0,001
809,2	0,001
809,6	0,001
810	0,001
810,4	0,001
810,9	0,001
811,3	0,001
811,7	0,001
812,2	0,001
812,6	0,001
813	0,001
813,5	0,001
813,9	0,001
814,3	0,001
814,8	0,001
815,2	0,001
815,6	0,001
816,1	0,002
816,5	0,001
816,9	0,001
817,3	0,001
817,8	0,001
818,2	0,001
818,6	0,001
819,1	0,001
819,5	0,001
819,9	0,001
820,4	0,002
820,8	0,002
821,2	0,002
821,7	0,002
822,1	0,002
822,5	0,002
822,9	0,002
823,4	0,002
823,8	0,002
824,2	0,001
824,7	0,001
825,1	0,001
825,5	0,001
826	0,001
826,4	0,001
826,8	0
827,3	0,001
827,7	0
828,1	0,001
828,5	0
829	0
829,4	0
829,8	0,001
830,3	0
830,7	0
831,1	0
831,6	0
832	-0
832,4	0
832,8	0,001
833,3	0,001
833,7	0,001
834,1	0,001
834,6	0,001
835	0,001
835,4	0,001
835,8	0,001
836,3	0,001
836,7	0,001
837,1	0,002
837,6	0,002
838	0,002
838,4	0,002
838,9	0,002
839,3	0,002
839,7	0,002
840,1	0,002
840,6	0,002
841	0,002
841,4	0,001
841,9	0,001
842,3	0,001
842,7	0,001
843,1	0,001
843,6	0,001
844	0,001
844,4	0,002
844,9	0,002
845,3	0,002
845,7	0,002
846,2	0,001
846,6	0,001
847	0,001
847,4	0,001
847,9	0
848,3	0,001
848,7	0,001
849,2	0,001
849,6	0,001
850	0,001
850,4	0,001
850,9	0,001
851,3	0,001
851,7	0,001
852,2	0,001
852,6	0,001
853	0,001
853,4	0,001
853,9	0,001
854,3	0,001
854,7	0,002
855,2	0,002
855,6	0,002
856	0,002
856,4	0,002
856,9	0,002
857,3	0,002
857,7	0,002
858,2	0,001
858,6	0,001
859	0,001
859,4	0,001
859,9	0,001
860,3	0,001
860,7	0,001
861,1	0,001
861,6	0,001
862	0,001
862,4	0,002
862,9	0,002
863,3	0,002
863,7	0,002
864,1	0,002
864,6	0,002
865	0,002
865,4	0,002
865,9	0,001
866,3	0,001
866,7	0,001
867,1	0,001
867,6	0,001
868	0,001
868,4	0,001
868,8	0,001
869,3	0,001
869,7	0,001
870,1	0,001
870,6	0,001
871	0,001
871,4	0,001
871,8	0,001
872,3	0,002
872,7	0,001
873,1	0,001
873,5	0,001
874	0,001
874,4	0,001
874,8	0,001
875,3	0,001
875,7	0,001
876,1	0,001
876,5	0,002
877	0,002
877,4	0,002
877,8	0,002
878,2	0,002
878,7	0,002
879,1	0,002
879,5	0,002
879,9	0,002
880,4	0,002
880,8	0,002
881,2	0,002
881,7	0,002
882,1	0,001
882,5	0,002
882,9	0,002
883,4	0,001
883,8	0,001
884,2	0,001
884,6	0,001
885,1	0,001
885,5	0,001
885,9	0,001
886,3	0,001
886,8	0,001
887,2	0,001
887,6	0,001
888	0,001
888,5	0,001
888,9	0,001
889,3	0,001
889,8	0,001
890,2	0,001
890,6	0,001
891	0,001
891,5	0,002
891,9	0,002
892,3	0,002
892,7	0,001
893,2	0,001
893,6	0,002
894	0,002
894,4	0,001
894,9	0,001
895,3	0,001
895,7	0,001
896,1	0,001
896,6	0,001
897	0,001
897,4	0,001
897,8	0,001
898,3	0
898,7	0
899,1	0
899,5	0
900	0,001
900,4	0
900,8	0
901,2	0,001
901,7	0,001
902,1	0,001
902,5	0,001
902,9	0
903,4	0
903,8	0
904,2	0
904,6	-0
905,1	-0
905,5	-0
905,9	0
906,3	0
906,8	-0
907,2	-0
907,6	0
908	0
908,5	0,001
908,9	0,001
909,3	0,001
909,7	0,001
910,2	0,001
910,6	0,001
911	0,002
911,4	0,001
911,9	0,002
912,3	0,002
912,7	0,002
913,1	0,002
913,6	0,001
914	0,001
914,4	0,001
914,8	0,001
915,3	0
915,7	0
916,1	0,001
916,5	0,001
916,9	0,001
917,4	0,001
917,8	0,001
918,2	0,001
918,6	0,001
919,1	0,001
919,5	0,001
919,9	0,001
920,3	0,001
920,8	0,001
921,2	0,001
921,6	0,001
922	0,002
922,5	0,002
922,9	0,002
923,3	0,001
923,7	0,001
924,2	0,001
924,6	0,001
925	0,001
925,4	0,001
925,8	0
926,3	0
926,7	0,001
927,1	0,001
927,5	0,001
928	0,001
928,4	0,001
928,8	0,001
929,2	0,001
929,7	0,001
930,1	0,001
930,5	0,001
930,9	0,001
931,3	0,001
931,8	0,001
932,2	0,001
932,6	0,001
933	0,002
933,5	0,002
933,9	0,002
934,3	0,002
934,7	0,003
935,2	0,003
935,6	0,002
936	0,002
936,4	0,002
936,8	0,002
937,3	0,002
937,7	0,002
938,1	0,001
938,5	0,001
939	0,001
939,4	0,001
939,8	0,001
940,2	0,001
940,6	0,001
941,1	0,001
941,5	0,001
941,9	0,002
942,3	0,001
942,8	0,001
943,2	0,001
943,6	0,002
944	0,001
944,4	0,001
944,9	0,001
945,3	0,001
945,7	0,001
946,1	0,001
946,6	0,001
947	0,001
947,4	0,001
947,8	0,001
948,2	0
948,7	0,001
949,1	0,001
949,5	0,001
949,9	0,001
950,3	0,001
950,8	0,001
951,2	0,002
951,6	0,002
952	0,002
952,5	0,002
952,9	0,002
953,3	0,002
953,7	0,001
954,1	0,001
954,6	0
955	-0
955,4	-0
955,8	0
956,2	0,001
956,7	0,001
957,1	0
957,5	0,001
957,9	0,001
958,3	0,001
958,8	0,001
959,2	0,001
959,6	0,001
960	0,002
960,5	0,002
960,9	0,002
961,3	0,002
961,7	0,002
962,1	0,001
962,6	0,001
963	0,001
963,4	0,001
963,8	0,001
964,2	0,001
964,7	0,001
965,1	0
965,5	0
965,9	-0
966,3	-0
966,8	0
967,2	0,001
967,6	0,001
968	0,002
968,4	0,002
968,9	0,002
969,3	0,002
969,7	0,002
970,1	0,002
970,5	0,002
971	0,001
971,4	0
971,8	0
972,2	0
972,6	0,001
973,1	0,001
973,5	0,001
973,9	0,001
974,3	0,001
974,7	0,001
975,2	0,001
975,6	0,001
976	0
976,4	0
976,8	0,001
977,3	0,002
977,7	0,002
978,1	0,002
978,5	0,002
978,9	0,002
979,4	0,003
979,8	0,003
980,2	0,002
980,6	0,002
981	0,002
981,5	0,003
981,9	0,003
982,3	0,003
982,7	0,002
983,1	0,002
983,6	0,002
984	0,002
984,4	0,001
984,8	0,001
985,2	0,001
985,6	0,002
986,1	0,002
986,5	0,002
986,9	0,002
987,3	0,001
987,7	0,001
988,2	0,002
988,6	0,002
989	0,002
989,4	0,002
989,8	0,002
990,3	0,003
990,7	0,003
991,1	0,002
991,5	0,002
991,9	0,001
992,3	0,001
992,8	0,001
993,2	-0
993,6	-0
994	0
994,4	0,001
994,9	0,001
995,3	0,001
995,7	0,001
996,1	0,002
996,5	0,002
996,9	0,002
997,4	0,002
997,8	0,002
998,2	0,002
998,6	0,002
999	0,002
999,5	0,002
999,9	0,003
1000,3	0,002
1000,7	0,002
1001,1	0,002
1001,5	0,002
1002	0,002
1002,4	0,001
1002,8	0,001
1003,2	0,002
1003,6	0,001
1004	0,001
1004,5	0,001
1004,9	0,001
1005,3	0,001
1005,7	0,001
1006,1	0,001
1006,6	0,001
1007	0,001
1007,4	0,002
1007,8	0,001
1008,2	0,002
1008,6	0,002
1009,1	0,002
1009,5	0,002
1009,9	0,001
1010,3	0,001
1010,7	0,001
1011,1	0
1011,6	0,001
1012	0,001
1012,4	0,001
1012,8	0,002
1013,2	0,002
1013,6	0,002
1014,1	0,002
1014,5	0,001
1014,9	0,001
1015,3	0,001
1015,7	0
1016,1	0,001
1016,6	-0
1017	0
1017,4	0,001
1017,8	0,001
1018,2	0,001
1018,6	0
1019,1	0
1019,5	0,001
1019,9	0
1020,3	0
1020,7	-0,001
1021,1	-0
1021,6	0
1022	-0
1022,4	0
1022,8	0
1023,2	0,001
1023,6	0,001
1024,1	0,001
1024,5	0,001
1024,9	0,001
1025,3	0,001
1025,7	0,001
1026,1	0
1026,6	0
1027	0,001
1027,4	0
1027,8	-0
1028,2	-0
1028,6	-0
1029	0
1029,5	-0
1029,9	-0
1030,3	-0
1030,7	0
1031,1	0
1031,5	-0
1032	0
1032,4	0
1032,8	0,001
1033,2	0,001
1033,6	0,001
1034	0,001
1034,4	0,001
1034,9	0,001
1035,3	0,002
1035,7	0,001
1036,1	0,001
1036,5	0,001
1036,9	0,001
1037,4	0,001
1037,8	0,001
1038,2	0,001
1038,6	0,001
1039	0,002
1039,4	0,003
1039,8	0,002
1040,3	0,003
1040,7	0,002
1041,1	0,002
1041,5	0,002
1041,9	0,001
1042,3	0,001
1042,7	0
1043,2	0
1043,6	0
1044	0
1044,4	-0
1044,8	0
1045,2	0
1045,6	0,001
1046,1	-0
1046,5	-0,001
1046,9	-0,001
1047,3	-0
1047,7	-0
1048,1	-0,001
1048,5	-0,001
1049	-0,001
1049,4	0,001
1049,8	0
1050,2	-0
1050,6	-0
1051	0,001
1051,4	0
1051,9	0,001
1052,3	0
1052,7	0,001
1053,1	0,001
1053,5	0,001
1053,9	0
1054,3	0
1054,8	0
1055,2	-0
1055,6	-0
1056	-0
1056,4	-0,001
1056,8	-0,001
1057,2	-0
1057,6	-0
1058,1	0,001
1058,5	0,001
1058,9	0,001
1059,3	0,002
1059,7	0,001
1060,1	0,002
1060,5	0,001
1061	-0
1061,4	-0,001
1061,8	0
1062,2	-0,001
1062,6	0
1063	-0,001
1063,4	-0
1063,8	-0
1064,3	-0,001
1064,7	-0,001
1065,1	-0,001
1065,5	-0,001
1065,9	-0,001
1066,3	-0,001
1066,7	-0,001
1067,1	-0,001
1067,6	-0,002
1068	-0,001
1068,4	-0,001
1068,8	-0
1069,2	0
1069,6	0,001
1070	0,001
1070,4	0,001
1070,9	0,001
1071,3	0,001
1071,7	0,001
1072,1	-0
1072,5	-0,001
1072,9	-0,001
1073,3	-0
1073,7	-0,001
1074,2	-0,002
1074,6	-0,002
1075	-0,001
1075,4	-0,002
1075,8	-0,001
1076,2	-0,002
1076,6	-0,002
1077	-0
1077,5	0
1077,9	-0,001
1078,3	0
1078,7	0
1079,1	0
1079,5	0,001
1079,9	-0,001
1080,3	0
1080,7	0,002
1081,2	0,002
1081,6	0,004
1082	0,003
1082,4	0,003
1082,8	0,004
1083,2	0,003
1083,6	0,002
1084	0,002
1084,5	0,001
1084,9	-0
1085,3	-0,002
1085,7	-0,001
1086,1	0
1086,5	0
1086,9	0,001
1087,3	-0,001
1087,7	0,001
1088,2	0,002
1088,6	0,001
1089	-0,002
1089,4	-0,001
1089,8	-0,001
1090,2	-0,002
1090,6	-0,003
1091	0,001
1091,4	0
1091,9	-0,001
1092,3	-0,003
1092,7	-0,005
1093,1	-0,002
1093,5	-0,002
1093,9	-0,003
1094,3	-0
1094,7	0,002
1095,1	0,004
1095,5	0,008
1096	0,005
1096,4	0,007
1096,8	0,002
1097,2	-0,002
1097,6	0
1098	-0,003
1098,4	-0,005
1098,8	-0
1099,2	-0,004
1099,6	0,01
1100,1	0,014
1100,5	0,015
1100,9	0,018
1101,3	0,035
1101,7	0,041
1102,1	0,038
1102,5	0,025
1102,9	0,029
1103,3	0,034
1103,7	0,032
1104,2	0,019
1104,6	0,019
1105	0,032
1105,4	0,033
1105,8	0,034
1106,2	0,032
1106,6	0,035
1107	0,045
1107,4	0,042
1107,8	0,033
1108,3	0,486
