Data from Absorbance_00002.txt Node
Date: Wed Aug 02 17:28:18 MSK 2023
User: vat
Spectrometer: MAYP114033
Trigger mode: 0
Integration Time (sec): 8,000000E-3
Scans to average: 10
Electric dark correction enabled: true
Nonlinearity correction enabled: false
Boxcar width: 3
XAxis mode: Wavelengths
Number of Pixels in Spectrum: 2068
>>>>>Begin Spectral Data<<<<<
199,4	-0,377
199,9	0,623
200,4	0,653
200,8	0,81
201,3	0,857
201,8	0,937
202,2	0,954
202,7	0,942
203,2	0,96
203,6	0,997
204,1	1,027
204,6	1,044
205	1,063
205,5	1,076
206	1,098
206,4	1,126
206,9	1,139
207,4	1,146
207,8	1,142
208,3	1,166
208,8	1,179
209,2	1,21
209,7	1,217
210,2	1,219
210,6	1,213
211,1	1,214
211,5	1,22
212	1,231
212,5	1,24
212,9	1,262
213,4	1,283
213,9	1,31
214,3	1,375
214,8	1,385
215,3	1,424
215,7	1,428
216,2	1,416
216,7	1,452
217,1	1,493
217,6	1,494
218,1	1,504
218,5	1,506
219	1,553
219,5	1,604
219,9	1,594
220,4	1,595
220,9	1,619
221,3	1,635
221,8	1,641
222,3	1,639
222,7	1,641
223,2	1,642
223,6	1,668
224,1	1,684
224,6	1,69
225	1,716
225,5	1,738
226	1,765
226,4	1,788
226,9	1,797
227,4	1,783
227,8	1,822
228,3	1,822
228,8	1,795
229,2	1,799
229,7	1,818
230,2	1,832
230,6	1,864
231,1	1,857
231,5	1,887
232	1,928
232,5	1,935
232,9	1,915
233,4	1,908
233,9	1,932
234,3	1,945
234,8	1,947
235,3	1,963
235,7	1,984
236,2	2,024
236,7	2,032
237,1	2,014
237,6	2,014
238,1	2,008
238,5	2,012
239	2,006
239,4	2,015
239,9	2,013
240,4	2,023
240,8	2,037
241,3	2,043
241,8	2,045
242,2	2,048
242,7	2,05
243,2	2,068
243,6	2,091
244,1	2,078
244,6	2,081
245	2,08
245,5	2,112
245,9	2,122
246,4	2,14
246,9	2,131
247,3	2,151
247,8	2,144
248,3	2,149
248,7	2,141
249,2	2,138
249,7	2,137
250,1	2,155
250,6	2,158
251	2,177
251,5	2,161
252	2,151
252,4	2,161
252,9	2,157
253,4	2,143
253,8	2,146
254,3	2,132
254,8	2,152
255,2	2,148
255,7	2,144
256,1	2,139
256,6	2,121
257,1	2,12
257,5	2,133
258	2,132
258,5	2,147
258,9	2,142
259,4	2,135
259,9	2,128
260,3	2,131
260,8	2,118
261,2	2,122
261,7	2,134
262,2	2,129
262,6	2,142
263,1	2,151
263,6	2,126
264	2,164
264,5	2,172
264,9	2,151
265,4	2,16
265,9	2,18
266,3	2,184
266,8	2,216
267,3	2,179
267,7	2,172
268,2	2,181
268,7	2,163
269,1	2,122
269,6	2,112
270	2,106
270,5	2,111
271	2,101
271,4	2,088
271,9	2,089
272,4	2,097
272,8	2,104
273,3	2,086
273,7	2,083
274,2	2,062
274,7	2,057
275,1	2,027
275,6	2,016
276,1	1,994
276,5	1,988
277	1,967
277,4	1,946
277,9	1,923
278,4	1,915
278,8	1,876
279,3	1,854
279,8	1,821
280,2	1,776
280,7	1,735
281,1	1,67
281,6	1,607
282,1	1,535
282,5	1,462
283	1,382
283,4	1,3
283,9	1,219
284,4	1,146
284,8	1,073
285,3	1,01
285,8	0,947
286,2	0,89
286,7	0,839
287,1	0,793
287,6	0,75
288,1	0,714
288,5	0,68
289	0,651
289,5	0,625
289,9	0,603
290,4	0,582
290,8	0,565
291,3	0,549
291,8	0,535
292,2	0,524
292,7	0,514
293,1	0,505
293,6	0,499
294,1	0,493
294,5	0,487
295	0,483
295,5	0,479
295,9	0,475
296,4	0,472
296,8	0,468
297,3	0,466
297,8	0,464
298,2	0,461
298,7	0,46
299,1	0,458
299,6	0,458
300,1	0,457
300,5	0,456
301	0,456
301,5	0,456
301,9	0,456
302,4	0,454
302,8	0,453
303,3	0,452
303,8	0,451
304,2	0,449
304,7	0,449
305,1	0,447
305,6	0,447
306,1	0,445
306,5	0,444
307	0,442
307,4	0,44
307,9	0,439
308,4	0,437
308,8	0,435
309,3	0,432
309,8	0,431
310,2	0,43
310,7	0,429
311,1	0,427
311,6	0,425
312,1	0,423
312,5	0,422
313	0,42
313,4	0,418
313,9	0,415
314,4	0,413
314,8	0,411
315,3	0,409
315,7	0,406
316,2	0,403
316,7	0,4
317,1	0,398
317,6	0,396
318	0,393
318,5	0,391
319	0,387
319,4	0,385
319,9	0,383
320,3	0,379
320,8	0,375
321,3	0,371
321,7	0,367
322,2	0,363
322,6	0,359
323,1	0,355
323,6	0,351
324	0,347
324,5	0,344
324,9	0,34
325,4	0,336
325,9	0,332
326,3	0,328
326,8	0,324
327,2	0,321
327,7	0,317
328,2	0,313
328,6	0,31
329,1	0,306
329,5	0,302
330	0,298
330,5	0,294
330,9	0,29
331,4	0,286
331,8	0,283
332,3	0,28
332,8	0,276
333,2	0,272
333,7	0,27
334,1	0,267
334,6	0,263
335,1	0,26
335,5	0,257
336	0,253
336,4	0,25
336,9	0,246
337,4	0,243
337,8	0,24
338,3	0,236
338,7	0,233
339,2	0,23
339,7	0,225
340,1	0,222
340,6	0,218
341	0,215
341,5	0,212
342	0,208
342,4	0,205
342,9	0,203
343,3	0,2
343,8	0,197
344,2	0,194
344,7	0,191
345,2	0,187
345,6	0,184
346,1	0,181
346,5	0,178
347	0,175
347,5	0,172
347,9	0,169
348,4	0,166
348,8	0,164
349,3	0,162
349,8	0,159
350,2	0,155
350,7	0,153
351,1	0,151
351,6	0,147
352	0,144
352,5	0,142
353	0,139
353,4	0,137
353,9	0,134
354,3	0,132
354,8	0,13
355,3	0,128
355,7	0,126
356,2	0,124
356,6	0,122
357,1	0,12
357,5	0,118
358	0,115
358,5	0,113
358,9	0,112
359,4	0,109
359,8	0,105
360,3	0,103
360,8	0,101
361,2	0,099
361,7	0,097
362,1	0,094
362,6	0,093
363	0,092
363,5	0,09
364	0,088
364,4	0,086
364,9	0,084
365,3	0,083
365,8	0,08
366,3	0,079
366,7	0,077
367,2	0,076
367,6	0,076
368,1	0,075
368,5	0,073
369	0,073
369,5	0,072
369,9	0,071
370,4	0,07
370,8	0,068
371,3	0,067
371,7	0,066
372,2	0,064
372,7	0,063
373,1	0,06
373,6	0,059
374	0,058
374,5	0,056
374,9	0,055
375,4	0,054
375,9	0,053
376,3	0,052
376,8	0,051
377,2	0,05
377,7	0,049
378,2	0,048
378,6	0,047
379,1	0,046
379,5	0,046
380	0,045
380,4	0,043
380,9	0,042
381,4	0,042
381,8	0,041
382,3	0,04
382,7	0,04
383,2	0,039
383,6	0,039
384,1	0,038
384,6	0,037
385	0,036
385,5	0,036
385,9	0,035
386,4	0,034
386,8	0,035
387,3	0,034
387,7	0,034
388,2	0,034
388,7	0,034
389,1	0,033
389,6	0,031
390	0,03
390,5	0,03
390,9	0,029
391,4	0,028
391,9	0,028
392,3	0,028
392,8	0,028
393,2	0,028
393,7	0,027
394,1	0,027
394,6	0,026
395,1	0,026
395,5	0,026
396	0,027
396,4	0,026
396,9	0,025
397,3	0,025
397,8	0,025
398,2	0,024
398,7	0,024
399,2	0,023
399,6	0,023
400,1	0,024
400,5	0,023
401	0,022
401,4	0,022
401,9	0,021
402,4	0,02
402,8	0,02
403,3	0,019
403,7	0,019
404,2	0,018
404,6	0,018
405,1	0,018
405,5	0,018
406	0,018
406,5	0,017
406,9	0,017
407,4	0,018
407,8	0,017
408,3	0,017
408,7	0,016
409,2	0,016
409,6	0,016
410,1	0,016
410,6	0,015
411	0,015
411,5	0,015
411,9	0,015
412,4	0,015
412,8	0,014
413,3	0,014
413,7	0,014
414,2	0,014
414,7	0,014
415,1	0,014
415,6	0,014
416	0,014
416,5	0,013
416,9	0,013
417,4	0,013
417,8	0,012
418,3	0,012
418,8	0,011
419,2	0,012
419,7	0,012
420,1	0,012
420,6	0,012
421	0,011
421,5	0,011
421,9	0,011
422,4	0,01
422,8	0,01
423,3	0,011
423,8	0,01
424,2	0,01
424,7	0,01
425,1	0,009
425,6	0,01
426	0,009
426,5	0,009
426,9	0,008
427,4	0,008
427,9	0,008
428,3	0,008
428,8	0,008
429,2	0,008
429,7	0,007
430,1	0,007
430,6	0,007
431	0,007
431,5	0,007
431,9	0,007
432,4	0,007
432,8	0,007
433,3	0,006
433,8	0,006
434,2	0,006
434,7	0,006
435,1	0,006
435,6	0,006
436	0,006
436,5	0,006
436,9	0,007
437,4	0,007
437,8	0,006
438,3	0,006
438,8	0,006
439,2	0,005
439,7	0,006
440,1	0,005
440,6	0,005
441	0,006
441,5	0,006
441,9	0,006
442,4	0,005
442,8	0,005
443,3	0,004
443,7	0,004
444,2	0,004
444,7	0,004
445,1	0,003
445,6	0,003
446	0,003
446,5	0,004
446,9	0,003
447,4	0,003
447,8	0,002
448,3	0,003
448,7	0,003
449,2	0,002
449,6	0,002
450,1	0,002
450,6	0,003
451	0,002
451,5	0,002
451,9	0,002
452,4	0,002
452,8	0,002
453,3	0,002
453,7	0,002
454,2	0,002
454,6	0,002
455,1	0,003
455,5	0,003
456	0,003
456,4	0,003
456,9	0,003
457,3	0,003
457,8	0,003
458,3	0,003
458,7	0,002
459,2	0,002
459,6	0,002
460,1	0,003
460,5	0,003
461	0,003
461,4	0,003
461,9	0,003
462,3	0,002
462,8	0,001
463,2	0,002
463,7	0,002
464,1	0,002
464,6	0,001
465	0,002
465,5	0,003
466	0,003
466,4	0,002
466,9	0,002
467,3	0,003
467,8	0,002
468,2	0,002
468,7	0,001
469,1	0,002
469,6	0,002
470	0,002
470,5	0,001
470,9	0,002
471,4	0,002
471,8	0,002
472,3	0,002
472,7	0,001
473,2	0,001
473,6	0,001
474,1	0,001
474,5	0,001
475	0,001
475,4	0
475,9	-0
476,4	0
476,8	0,001
477,3	0,001
477,7	0,001
478,2	0,001
478,6	0,001
479,1	0,002
479,5	0,002
480	0,002
480,4	0,001
480,9	0,001
481,3	0,001
481,8	0,001
482,2	0,001
482,7	0
483,1	-0,001
483,6	-0,001
484	-0,001
484,5	-0,001
484,9	-0,001
485,4	-0,002
485,8	-0,002
486,3	-0,002
486,7	-0,001
487,2	-0,001
487,6	-0,001
488,1	-0,001
488,5	-0,001
489	-0,001
489,4	-0
489,9	-0
490,4	-0
490,8	0,001
491,3	0
491,7	0
492,2	0,001
492,6	0,001
493,1	0,001
493,5	0
494	-0,001
494,4	-0,001
494,9	-0
495,3	-0,001
495,8	-0
496,2	-0,001
496,7	-0,001
497,1	-0,001
497,6	-0,001
498	-0,001
498,5	-0
498,9	-0,001
499,4	-0
499,8	0
500,3	0,001
500,7	0,001
501,2	0,001
501,6	-0
502,1	0
502,5	0
503	0
503,4	-0,001
503,9	-0,001
504,3	-0,001
504,8	-0,001
505,2	-0,002
505,7	-0,002
506,1	-0,001
506,6	-0
507	-0,001
507,5	-0
507,9	-0,001
508,4	-0
508,8	-0
509,3	-0,001
509,7	-0,001
510,2	-0,001
510,6	-0,001
511,1	-0,001
511,5	-0,001
512	-0,001
512,4	-0,002
512,9	-0,002
513,3	-0,001
513,8	-0,001
514,2	-0,001
514,7	-0
515,1	0
515,6	0,001
516	0,001
516,5	0,001
516,9	0,001
517,4	0
517,8	-0
518,3	-0
518,7	0
519,2	0,001
519,6	0,001
520,1	0
520,5	0,001
521	0,001
521,4	0,001
521,9	0
522,3	0
522,8	-0
523,2	-0
523,7	-0,001
524,1	-0,001
524,6	-0,001
525	-0,001
525,5	-0,001
525,9	-0,001
526,4	-0,001
526,8	-0,001
527,3	-0,001
527,7	-0,001
528,2	-0
528,6	-0,001
529,1	-0,001
529,5	-0,001
530	-0,001
530,4	-0
530,9	-0,001
531,3	-0,001
531,8	-0,001
532,2	-0,001
532,6	-0,001
533,1	-0,002
533,5	-0,001
534	-0,002
534,4	-0,002
534,9	-0,002
535,3	-0,002
535,8	-0,001
536,2	-0
536,7	-0
537,1	-0
537,6	-0
538	0
538,5	0
538,9	0
539,4	-0,001
539,8	-0,002
540,3	-0,001
540,7	-0,001
541,2	-0,002
541,6	-0,001
542,1	-0,001
542,5	-0,001
543	-0,001
543,4	-0,001
543,9	-0,001
544,3	-0
544,8	-0,001
545,2	-0,001
545,7	-0,001
546,1	-0,001
546,5	-0
547	-0,001
547,4	-0,001
547,9	-0,001
548,3	-0,001
548,8	-0,001
549,2	-0
549,7	-0,001
550,1	-0,001
550,6	-0,001
551	-0
551,5	-0
551,9	-0,001
552,4	-0,001
552,8	-0,001
553,3	-0,002
553,7	-0,002
554,2	-0,002
554,6	-0,003
555,1	-0,002
555,5	-0,002
555,9	-0,001
556,4	-0,001
556,8	-0,001
557,3	-0,001
557,7	-0,001
558,2	-0,001
558,6	-0,001
559,1	-0,002
559,5	-0,001
560	-0,001
560,4	-0,001
560,9	-0,001
561,3	-0,001
561,8	-0,001
562,2	-0,001
562,7	-0,001
563,1	-0,001
563,6	-0,001
564	-0,001
564,4	-0,001
564,9	-0,001
565,3	-0
565,8	-0,001
566,2	-0,001
566,7	-0,001
567,1	-0,001
567,6	-0,001
568	-0,001
568,5	-0,001
568,9	-0,001
569,4	-0
569,8	-0
570,3	-0,001
570,7	-0,001
571,1	-0,001
571,6	-0,001
572	-0,001
572,5	-0,001
572,9	-0,001
573,4	-0,001
573,8	-0,001
574,3	-0,001
574,7	-0,001
575,2	-0,001
575,6	-0,001
576,1	-0,001
576,5	-0,001
576,9	-0,001
577,4	-0,001
577,8	-0,001
578,3	-0,001
578,7	-0,001
579,2	-0,001
579,6	-0,001
580,1	-0,001
580,5	-0,001
581	-0,002
581,4	-0,001
581,9	-0,001
582,3	-0,001
582,7	-0,001
583,2	-0,001
583,6	-0,001
584,1	-0,001
584,5	-0,001
585	-0,001
585,4	-0,001
585,9	-0,001
586,3	-0,002
586,8	-0,001
587,2	-0,001
587,6	-0,001
588,1	-0,001
588,5	-0,001
589	-0,001
589,4	-0,001
589,9	-0,001
590,3	-0,001
590,8	-0,001
591,2	-0,001
591,7	-0,001
592,1	-0,001
592,5	-0
593	-0,001
593,4	-0,001
593,9	-0
594,3	-0
594,8	-0,001
595,2	-0
595,7	-0,001
596,1	-0,001
596,6	-0,001
597	-0,001
597,4	-0,001
597,9	-0,001
598,3	-0,001
598,8	-0,001
599,2	-0
599,7	-0,001
600,1	-0,001
600,6	-0,001
601	-0,001
601,4	-0,001
601,9	-0,001
602,3	-0,001
602,8	-0,001
603,2	-0,001
603,7	-0,001
604,1	-0,001
604,6	-0,001
605	-0,001
605,4	-0,001
605,9	-0,001
606,3	-0,001
606,8	-0,001
607,2	-0,001
607,7	-0
608,1	0
608,6	-0
609	-0
609,4	-0
609,9	-0
610,3	-0
610,8	-0
611,2	-0,001
611,7	-0,001
612,1	-0,001
612,6	-0,001
613	-0,001
613,4	-0,001
613,9	-0,001
614,3	-0
614,8	-0
615,2	-0
615,7	-0,001
616,1	-0,001
616,6	-0,001
617	-0,001
617,4	-0,001
617,9	-0,001
618,3	-0,001
618,8	-0,001
619,2	-0,001
619,7	-0,001
620,1	-0,001
620,5	-0,001
621	-0,001
621,4	-0,001
621,9	-0,001
622,3	-0,001
622,8	-0,001
623,2	-0,001
623,6	-0,001
624,1	-0,001
624,5	-0,001
625	-0,001
625,4	-0,001
625,9	-0,001
626,3	-0,002
626,8	-0,002
627,2	-0,002
627,6	-0,002
628,1	-0,002
628,5	-0,002
629	-0,002
629,4	-0,002
629,9	-0,002
630,3	-0,001
630,7	-0,001
631,2	-0,001
631,6	-0,001
632,1	-0
632,5	-0
633	-0
633,4	-0
633,8	-0,001
634,3	-0
634,7	-0,001
635,2	-0,001
635,6	-0,001
636,1	-0
636,5	-0
636,9	-0
637,4	-0
637,8	-0
638,3	-0
638,7	-0
639,2	-0
639,6	-0,001
640	-0,001
640,5	-0
640,9	-0
641,4	-0,001
641,8	-0,001
642,2	-0,001
642,7	-0,001
643,1	-0
643,6	-0
644	-0,001
644,5	-0
644,9	-0
645,3	-0,001
645,8	-0,001
646,2	-0,002
646,7	-0,002
647,1	-0,001
647,6	-0,001
648	-0,002
648,4	-0,001
648,9	-0
649,3	-0
649,8	-0
650,2	-0
650,6	-0
651,1	0
651,5	-0
652	-0
652,4	-0
652,9	-0
653,3	-0
653,7	-0,001
654,2	-0
654,6	-0
655,1	-0
655,5	-0
655,9	-0
656,4	-0
656,8	-0
657,3	-0
657,7	-0
658,2	-0
658,6	-0
659	-0
659,5	-0,001
659,9	-0
660,4	-0,001
660,8	-0,001
661,2	-0
661,7	0
662,1	-0
662,6	-0
663	-0
663,4	-0
663,9	-0
664,3	-0,001
664,8	-0,001
665,2	-0,001
665,6	-0,001
666,1	-0,001
666,5	-0,001
667	-0,001
667,4	-0,001
667,9	-0,001
668,3	-0,001
668,7	-0,001
669,2	-0
669,6	-0,001
670,1	-0
670,5	-0
670,9	-0
671,4	-0
671,8	-0
672,3	-0
672,7	-0
673,1	-0,001
673,6	-0,001
674	-0,001
674,5	-0,001
674,9	-0,001
675,3	-0,001
675,8	-0,001
676,2	-0,001
676,7	-0,001
677,1	-0,001
677,5	-0,001
678	-0,001
678,4	-0,001
678,9	-0,001
679,3	-0,001
679,7	-0,002
680,2	-0,002
680,6	-0,002
681,1	-0,003
681,5	-0,002
681,9	-0,002
682,4	-0,002
682,8	-0,002
683,3	-0,002
683,7	-0,001
684,1	-0,002
684,6	-0,001
685	-0,001
685,5	-0,001
685,9	-0,001
686,3	-0,001
686,8	-0,001
687,2	-0
687,7	-0,001
688,1	-0,001
688,5	-0,001
689	-0,001
689,4	-0,002
689,9	-0,002
690,3	-0,002
690,7	-0,002
691,2	-0,002
691,6	-0,002
692	-0,001
692,5	-0,001
692,9	-0,001
693,4	-0,001
693,8	-0,001
694,2	-0
694,7	-0
695,1	-0
695,6	-0,001
696	-0
696,4	-0,001
696,9	-0
697,3	-0,001
697,8	-0,001
698,2	-0,001
698,6	-0,001
699,1	-0,001
699,5	-0,001
699,9	-0,002
700,4	-0,001
700,8	-0,001
701,3	-0,001
701,7	-0,001
702,1	-0,001
702,6	-0,001
703	-0,001
703,5	-0,001
703,9	-0
704,3	0
704,8	-0
705,2	0
705,6	0
706,1	0
706,5	0
707	-0
707,4	-0,001
707,8	-0,001
708,3	-0,001
708,7	-0,001
709,2	-0
709,6	-0,001
710	-0
710,5	-0
710,9	-0
711,3	-0
711,8	-0
712,2	-0
712,7	-0
713,1	-0,001
713,5	-0,001
714	-0,001
714,4	-0,001
714,8	-0,001
715,3	-0,002
715,7	-0,001
716,2	-0,001
716,6	-0,002
717	-0,002
717,5	-0,001
717,9	-0,001
718,3	-0,001
718,8	-0,001
719,2	-0,001
719,7	-0,001
720,1	-0,001
720,5	-0,001
721	-0,001
721,4	-0,001
721,8	-0,001
722,3	-0,001
722,7	-0,001
723,2	-0,001
723,6	-0,001
724	-0,001
724,5	-0
724,9	-0,001
725,3	-0
725,8	-0
726,2	-0
726,7	-0
727,1	-0
727,5	-0,001
728	-0,001
728,4	-0,001
728,8	-0,001
729,3	-0,001
729,7	-0,001
730,1	-0,001
730,6	-0,001
731	-0,001
731,5	-0,001
731,9	-0,001
732,3	-0,001
732,8	-0,001
733,2	-0,001
733,6	-0,001
734,1	-0,001
734,5	-0,001
734,9	-0,001
735,4	-0,001
735,8	-0,001
736,3	-0,001
736,7	-0,001
737,1	-0,001
737,6	-0,001
738	-0,001
738,4	-0,001
738,9	-0,001
739,3	-0,001
739,7	-0,001
740,2	-0,001
740,6	-0,001
741,1	-0,001
741,5	-0,001
741,9	-0,001
742,4	-0,001
742,8	-0,001
743,2	-0,001
743,7	-0,001
744,1	-0,001
744,5	-0,001
745	-0,001
745,4	-0
745,8	-0,001
746,3	-0
746,7	-0
747,2	-0
747,6	-0,001
748	-0,001
748,5	-0,001
748,9	-0,001
749,3	-0,001
749,8	-0,001
750,2	-0,001
750,6	-0
751,1	-0
751,5	-0
751,9	-0
752,4	-0
752,8	-0,001
753,3	-0,001
753,7	-0,001
754,1	-0,001
754,6	-0,001
755	-0,001
755,4	-0,001
755,9	-0
756,3	-0
756,7	-0
757,2	-0
757,6	-0
758	-0
758,5	-0
758,9	-0,001
759,3	-0,001
759,8	-0,001
760,2	-0,001
760,6	-0,001
761,1	-0,001
761,5	-0,001
761,9	-0,002
762,4	-0,001
762,8	-0,001
763,3	-0,002
763,7	-0,001
764,1	-0,002
764,6	-0,002
765	-0,002
765,4	-0,002
765,9	-0,002
766,3	-0,002
766,7	-0,002
767,2	-0,002
767,6	-0,002
768	-0,001
768,5	-0,001
768,9	-0,001
769,3	-0,001
769,8	-0,001
770,2	-0,001
770,6	-0,001
771,1	-0,001
771,5	-0,001
771,9	-0,001
772,4	-0,001
772,8	-0,002
773,2	-0,002
773,7	-0,001
774,1	-0,001
774,5	-0,001
775	-0
775,4	-0
775,8	-0
776,3	-0
776,7	-0,001
777,1	-0
777,6	-0,001
778	-0,001
778,4	-0,001
778,9	-0,001
779,3	-0
779,7	-0
780,2	-0
780,6	0
781	-0
781,5	-0
781,9	-0
782,3	-0
782,8	-0,001
783,2	-0,001
783,6	-0,001
784,1	-0
784,5	-0
784,9	-0
785,4	-0,001
785,8	-0,001
786,2	-0
786,7	-0,001
787,1	-0,001
787,5	-0,001
788	-0,001
788,4	-0,001
788,8	-0,001
789,3	-0,001
789,7	-0,001
790,1	-0
790,6	-0,001
791	-0
791,4	-0
791,9	-0
792,3	-0
792,7	-0
793,2	-0
793,6	-0
794	-0
794,5	-0
794,9	-0
795,3	-0,001
795,8	-0,001
796,2	-0,001
796,6	-0,001
797,1	-0,001
797,5	-0,001
797,9	-0,001
798,4	-0,001
798,8	-0,001
799,2	-0,001
799,7	-0,001
800,1	-0,001
800,5	-0,001
801	-0,001
801,4	-0
801,8	-0
802,2	-0
802,7	0
803,1	0
803,5	0
804	0
804,4	-0
804,8	-0
805,3	-0
805,7	-0,001
806,1	-0
806,6	-0,001
807	-0,001
807,4	-0,001
807,9	-0,001
808,3	-0,001
808,7	-0,001
809,2	-0,001
809,6	-0,001
810	-0,001
810,4	-0,002
810,9	-0,001
811,3	-0,001
811,7	-0,001
812,2	-0,001
812,6	-0,001
813	-0,001
813,5	-0,001
813,9	-0,001
814,3	-0,001
814,8	-0,001
815,2	-0,001
815,6	-0,001
816,1	-0,001
816,5	-0,001
816,9	-0,001
817,3	-0,001
817,8	-0,001
818,2	-0,001
818,6	-0,001
819,1	-0,001
819,5	-0,001
819,9	-0,001
820,4	-0,001
820,8	-0,001
821,2	-0,001
821,7	-0,001
822,1	-0,001
822,5	-0,001
822,9	-0,001
823,4	-0,001
823,8	-0,001
824,2	-0,001
824,7	-0,001
825,1	-0,001
825,5	-0,001
826	-0,001
826,4	-0,001
826,8	-0,001
827,3	-0,001
827,7	-0,001
828,1	-0,001
828,5	-0,001
829	-0,002
829,4	-0,002
829,8	-0,002
830,3	-0,002
830,7	-0,002
831,1	-0,002
831,6	-0,002
832	-0,002
832,4	-0,002
832,8	-0,002
833,3	-0,002
833,7	-0,001
834,1	-0,001
834,6	-0,001
835	-0,001
835,4	-0
835,8	-0,001
836,3	-0,001
836,7	-0,001
837,1	-0
837,6	-0
838	-0
838,4	-0
838,9	0
839,3	0
839,7	0
840,1	-0
840,6	-0
841	-0,001
841,4	-0
841,9	-0
842,3	0
842,7	0
843,1	0
843,6	0
844	0,001
844,4	0
844,9	0
845,3	-0
845,7	-0
846,2	-0
846,6	-0,001
847	-0
847,4	-0,001
847,9	-0,001
848,3	-0,001
848,7	-0,001
849,2	-0,001
849,6	-0
850	-0,001
850,4	-0,001
850,9	-0
851,3	-0
851,7	-0,001
852,2	-0,001
852,6	-0,001
853	-0
853,4	-0,001
853,9	-0
854,3	-0,001
854,7	-0
855,2	-0
855,6	-0,001
856	-0,001
856,4	-0,001
856,9	-0,001
857,3	-0,001
857,7	-0,001
858,2	-0,001
858,6	-0,001
859	-0,001
859,4	-0,002
859,9	-0,002
860,3	-0,002
860,7	-0,002
861,1	-0,002
861,6	-0,001
862	-0,001
862,4	-0,001
862,9	-0,001
863,3	-0,001
863,7	-0,001
864,1	-0,001
864,6	-0,001
865	-0,001
865,4	-0,001
865,9	-0,001
866,3	-0,001
866,7	-0,001
867,1	-0,001
867,6	-0,001
868	-0,001
868,4	-0,001
868,8	-0,001
869,3	-0,001
869,7	-0,001
870,1	-0,001
870,6	-0,001
871	-0,001
871,4	-0
871,8	-0
872,3	0
872,7	-0
873,1	-0
873,5	-0
874	-0
874,4	-0,001
874,8	-0,001
875,3	-0,001
875,7	-0,001
876,1	-0,001
876,5	-0,001
877	-0,001
877,4	-0
877,8	-0,001
878,2	-0
878,7	-0,001
879,1	-0,001
879,5	-0
879,9	-0,001
880,4	-0,001
880,8	-0
881,2	-0,001
881,7	-0,001
882,1	-0,001
882,5	-0,001
882,9	-0,001
883,4	-0,001
883,8	-0,001
884,2	-0
884,6	-0
885,1	-0
885,5	-0
885,9	-0
886,3	-0
886,8	-0
887,2	-0
887,6	-0
888	-0,001
888,5	-0,001
888,9	-0,001
889,3	-0,001
889,8	-0,001
890,2	-0,001
890,6	-0,001
891	-0,001
891,5	-0,001
891,9	-0,001
892,3	-0
892,7	-0,001
893,2	-0
893,6	-0,001
894	-0,001
894,4	-0,001
894,9	-0,001
895,3	-0,001
895,7	-0,001
896,1	-0,001
896,6	-0,001
897	-0,001
897,4	-0,001
897,8	-0,001
898,3	-0,001
898,7	-0,001
899,1	-0,001
899,5	-0
900	-0
900,4	-0,001
900,8	-0,001
901,2	-0
901,7	-0
902,1	-0
902,5	-0,001
902,9	-0,001
903,4	-0,001
903,8	-0,001
904,2	-0,001
904,6	-0,001
905,1	-0,001
905,5	-0,001
905,9	-0,001
906,3	-0
906,8	-0
907,2	-0
907,6	-0
908	-0
908,5	-0
908,9	-0
909,3	-0
909,7	-0
910,2	-0
910,6	-0
911	0
911,4	0
911,9	-0
912,3	0
912,7	0
913,1	-0
913,6	-0,001
914	-0,001
914,4	-0,001
914,8	-0,001
915,3	-0,001
915,7	-0,001
916,1	-0,001
916,5	-0,001
916,9	-0,001
917,4	-0,001
917,8	-0,001
918,2	-0,001
918,6	-0,001
919,1	-0,002
919,5	-0,001
919,9	-0,001
920,3	-0,001
920,8	-0,001
921,2	-0,001
921,6	-0,001
922	-0,001
922,5	-0,001
922,9	-0,001
923,3	-0,001
923,7	-0,002
924,2	-0,002
924,6	-0,002
925	-0,001
925,4	-0,001
925,8	-0,001
926,3	-0,001
926,7	-0,001
927,1	-0,001
927,5	-0,001
928	-0,001
928,4	-0,001
928,8	-0,001
929,2	0
929,7	0
930,1	0
930,5	0
930,9	-0
931,3	-0
931,8	-0
932,2	-0
932,6	-0
933	0
933,5	0
933,9	-0
934,3	-0
934,7	-0
935,2	-0
935,6	-0
936	-0,001
936,4	-0,001
936,8	-0,001
937,3	-0,001
937,7	-0,001
938,1	-0,001
938,5	-0,001
939	-0,001
939,4	-0,001
939,8	-0,001
940,2	-0
940,6	-0,001
941,1	-0,001
941,5	-0,001
941,9	-0,001
942,3	-0,001
942,8	-0,001
943,2	-0,001
943,6	-0
944	-0,001
944,4	-0,001
944,9	-0,001
945,3	-0,001
945,7	-0,001
946,1	-0,001
946,6	-0,002
947	-0,002
947,4	-0,001
947,8	-0,002
948,2	-0,002
948,7	-0,002
949,1	-0,002
949,5	-0,002
949,9	-0,002
950,3	-0,001
950,8	-0,001
951,2	-0,001
951,6	-0,001
952	-0,001
952,5	-0,001
952,9	-0,001
953,3	-0,001
953,7	-0,001
954,1	-0,001
954,6	-0,002
955	-0,002
955,4	-0,001
955,8	-0,001
956,2	-0
956,7	-0,001
957,1	-0,001
957,5	-0
957,9	-0,001
958,3	-0,001
958,8	-0,001
959,2	-0,001
959,6	0
960	0,001
960,5	0
960,9	0,001
961,3	0,001
961,7	0
962,1	0
962,6	-0
963	-0
963,4	0
963,8	-0
964,2	-0
964,7	-0
965,1	-0
965,5	-0
965,9	-0,001
966,3	-0,001
966,8	-0,001
967,2	-0,001
967,6	-0,001
968	-0
968,4	-0
968,9	0
969,3	0,001
969,7	0,001
970,1	0,001
970,5	0,001
971	0
971,4	-0
971,8	-0
972,2	-0,001
972,6	-0
973,1	-0
973,5	-0,001
973,9	-0,001
974,3	-0,001
974,7	-0,001
975,2	-0,001
975,6	-0,001
976	-0,001
976,4	-0,001
976,8	-0,001
977,3	0
977,7	0,001
978,1	0,001
978,5	0
978,9	0,001
979,4	0,001
979,8	0,001
980,2	0
980,6	0
981	-0
981,5	0
981,9	-0
982,3	-0
982,7	-0,001
983,1	-0,001
983,6	-0,001
984	-0,001
984,4	-0,001
984,8	-0,002
985,2	-0,001
985,6	-0,001
986,1	-0,001
986,5	-0,001
986,9	-0,001
987,3	-0,001
987,7	-0,001
988,2	-0,001
988,6	-0,001
989	-0,001
989,4	-0,001
989,8	-0,001
990,3	-0
990,7	-0
991,1	-0
991,5	-0
991,9	-0
992,3	-0
992,8	-0
993,2	-0,001
993,6	-0,001
994	-0,001
994,4	-0
994,9	-0,001
995,3	-0,002
995,7	-0,002
996,1	-0,001
996,5	-0,001
996,9	-0,002
997,4	-0,002
997,8	-0,001
998,2	-0,001
998,6	-0,001
999	-0,001
999,5	-0,001
999,9	-0
1000,3	0
1000,7	0
1001,1	0,001
1001,5	0,001
1002	0,001
1002,4	0
1002,8	0
1003,2	0
1003,6	-0
1004	-0,001
1004,5	-0
1004,9	-0,001
1005,3	-0,001
1005,7	-0,001
1006,1	-0,001
1006,6	-0
1007	-0,001
1007,4	-0,001
1007,8	-0
1008,2	-0
1008,6	-0,001
1009,1	-0,001
1009,5	-0,002
1009,9	-0,001
1010,3	-0,002
1010,7	-0,002
1011,1	-0,003
1011,6	-0,002
1012	-0,001
1012,4	-0,001
1012,8	-0,001
1013,2	-0
1013,6	-0
1014,1	0
1014,5	-0
1014,9	-0
1015,3	-0
1015,7	-0,001
1016,1	-0,001
1016,6	-0,001
1017	-0,001
1017,4	-0,001
1017,8	-0,001
1018,2	-0,001
1018,6	-0,001
1019,1	-0,001
1019,5	-0,001
1019,9	-0
1020,3	-0
1020,7	-0
1021,1	-0
1021,6	0
1022	0
1022,4	-0
1022,8	-0,001
1023,2	-0,001
1023,6	-0,001
1024,1	-0,001
1024,5	-0
1024,9	-0,001
1025,3	0
1025,7	0
1026,1	0,001
1026,6	0,001
1027	0,001
1027,4	0
1027,8	-0
1028,2	-0
1028,6	-0
1029	-0
1029,5	-0,001
1029,9	-0,002
1030,3	-0,002
1030,7	-0,001
1031,1	-0,002
1031,5	-0,002
1032	-0,002
1032,4	-0,001
1032,8	-0
1033,2	0
1033,6	-0
1034	0
1034,4	0
1034,9	-0
1035,3	-0
1035,7	-0,001
1036,1	-0,001
1036,5	-0,001
1036,9	-0
1037,4	-0,001
1037,8	-0
1038,2	0
1038,6	0,001
1039	0
1039,4	0
1039,8	-0
1040,3	0
1040,7	-0
1041,1	-0,001
1041,5	-0,001
1041,9	-0,001
1042,3	0
1042,7	0
1043,2	0
1043,6	0
1044	0,001
1044,4	0
1044,8	0,001
1045,2	-0
1045,6	0
1046,1	-0,001
1046,5	-0
1046,9	-0
1047,3	0
1047,7	0
1048,1	0
1048,5	0
1049	-0
1049,4	-0
1049,8	-0,001
1050,2	-0,001
1050,6	-0,001
1051	-0,001
1051,4	-0,002
1051,9	-0,001
1052,3	-0,001
1052,7	0
1053,1	0,001
1053,5	0
1053,9	0,001
1054,3	-0
1054,8	-0
1055,2	-0,001
1055,6	-0,001
1056	-0,002
1056,4	-0,002
1056,8	-0,002
1057,2	-0,002
1057,6	-0,001
1058,1	0
1058,5	0,001
1058,9	0,002
1059,3	0,002
1059,7	0
1060,1	0,001
1060,5	-0
1061	-0
1061,4	-0,001
1061,8	-0,001
1062,2	-0,001
1062,6	0,001
1063	-0
1063,4	0,001
1063,8	0,001
1064,3	0
1064,7	-0
1065,1	0
1065,5	0
1065,9	0
1066,3	0
1066,7	-0
1067,1	0
1067,6	0,001
1068	0,001
1068,4	0,001
1068,8	0,001
1069,2	-0
1069,6	-0
1070	-0
1070,4	-0
1070,9	-0,001
1071,3	-0,001
1071,7	-0,001
1072,1	-0,001
1072,5	0
1072,9	-0,001
1073,3	-0
1073,7	-0,001
1074,2	-0
1074,6	-0,001
1075	0,001
1075,4	-0,001
1075,8	0
1076,2	0
1076,6	0
1077	0
1077,5	0,001
1077,9	-0,001
1078,3	0
1078,7	-0,001
1079,1	-0,002
1079,5	-0,001
1079,9	-0,001
1080,3	-0
1080,7	0,002
1081,2	0,001
1081,6	0,003
1082	0,004
1082,4	0,003
1082,8	0,003
1083,2	0,002
1083,6	0,001
1084	0,001
1084,5	-0
1084,9	-0
1085,3	-0,002
1085,7	-0,002
1086,1	0
1086,5	-0,001
1086,9	-0,003
1087,3	-0,005
1087,7	-0,005
1088,2	-0,004
1088,6	-0,004
1089	-0,006
1089,4	-0,003
1089,8	-0,003
1090,2	-0,004
1090,6	-0,006
1091	-0,003
1091,4	0,001
1091,9	0
1092,3	-0,002
1092,7	-0,002
1093,1	0
1093,5	0,002
1093,9	0,001
1094,3	-0,001
1094,7	-0,002
1095,1	-0
1095,5	0,003
1096	0,003
1096,4	0,006
1096,8	0,002
1097,2	-0,003
1097,6	-0
1098	-0,002
1098,4	0,001
1098,8	0,002
1099,2	-0,002
1099,6	0,009
1100,1	0,014
1100,5	0,009
1100,9	0,006
1101,3	0,013
1101,7	0,02
1102,1	0,02
1102,5	0,016
1102,9	0,01
1103,3	0,029
1103,7	0,034
1104,2	0,028
1104,6	0,027
1105	0,029
1105,4	0,021
1105,8	0,033
1106,2	0,016
1106,6	0,019
1107	0,007
1107,4	0,005
1107,8	0,015
1108,3	0,185
