Data from Absorbance_00038.txt Node
Date: Wed Aug 02 14:27:55 MSK 2023
User: vat
Spectrometer: MAYP114033
Trigger mode: 0
Integration Time (sec): 8,000000E-3
Scans to average: 10
Electric dark correction enabled: true
Nonlinearity correction enabled: false
Boxcar width: 3
XAxis mode: Wavelengths
Number of Pixels in Spectrum: 2068
>>>>>Begin Spectral Data<<<<<
199,4	-0,301
199,9	-0,137
200,4	0,229
200,8	0,651
201,3	0,793
201,8	0,845
202,2	0,887
202,7	0,908
203,2	0,966
203,6	1,006
204,1	1,01
204,6	1,017
205	1,025
205,5	1,022
206	1,035
206,4	1,047
206,9	1,06
207,4	1,074
207,8	1,093
208,3	1,121
208,8	1,146
209,2	1,169
209,7	1,179
210,2	1,195
210,6	1,213
211,1	1,224
211,5	1,238
212	1,269
212,5	1,266
212,9	1,288
213,4	1,294
213,9	1,317
214,3	1,329
214,8	1,332
215,3	1,315
215,7	1,337
216,2	1,359
216,7	1,366
217,1	1,38
217,6	1,386
218,1	1,399
218,5	1,441
219	1,468
219,5	1,471
219,9	1,508
220,4	1,518
220,9	1,547
221,3	1,565
221,8	1,573
222,3	1,571
222,7	1,611
223,2	1,611
223,6	1,618
224,1	1,627
224,6	1,643
225	1,662
225,5	1,666
226	1,669
226,4	1,682
226,9	1,704
227,4	1,731
227,8	1,743
228,3	1,753
228,8	1,793
229,2	1,793
229,7	1,803
230,2	1,81
230,6	1,811
231,1	1,816
231,5	1,822
232	1,825
232,5	1,838
232,9	1,86
233,4	1,878
233,9	1,893
234,3	1,898
234,8	1,889
235,3	1,896
235,7	1,9
236,2	1,904
236,7	1,908
237,1	1,911
237,6	1,933
238,1	1,967
238,5	1,976
239	1,997
239,4	2,005
239,9	2,001
240,4	2,005
240,8	2,012
241,3	2,009
241,8	2,018
242,2	2,016
242,7	2,013
243,2	2,023
243,6	2,018
244,1	2,008
244,6	2
245	2,004
245,5	1,998
245,9	2
246,4	2,01
246,9	2,036
247,3	2,054
247,8	2,08
248,3	2,08
248,7	2,09
249,2	2,101
249,7	2,096
250,1	2,093
250,6	2,094
251	2,074
251,5	2,069
252	2,069
252,4	2,062
252,9	2,062
253,4	2,051
253,8	2,058
254,3	2,075
254,8	2,083
255,2	2,085
255,7	2,097
256,1	2,108
256,6	2,114
257,1	2,115
257,5	2,092
258	2,083
258,5	2,088
258,9	2,088
259,4	2,078
259,9	2,081
260,3	2,074
260,8	2,095
261,2	2,102
261,7	2,114
262,2	2,107
262,6	2,12
263,1	2,12
263,6	2,126
264	2,127
264,5	2,136
264,9	2,121
265,4	2,133
265,9	2,124
266,3	2,122
266,8	2,122
267,3	2,125
267,7	2,122
268,2	2,134
268,7	2,137
269,1	2,12
269,6	2,135
270	2,125
270,5	2,134
271	2,118
271,4	2,108
271,9	2,11
272,4	2,129
272,8	2,127
273,3	2,143
273,7	2,137
274,2	2,154
274,7	2,154
275,1	2,162
275,6	2,166
276,1	2,159
276,5	2,157
277	2,156
277,4	2,172
277,9	2,181
278,4	2,189
278,8	2,214
279,3	2,224
279,8	2,221
280,2	2,216
280,7	2,197
281,1	2,221
281,6	2,2
282,1	2,183
282,5	2,182
283	2,164
283,4	2,169
283,9	2,163
284,4	2,146
284,8	2,164
285,3	2,173
285,8	2,177
286,2	2,217
286,7	2,224
287,1	2,221
287,6	2,211
288,1	2,188
288,5	2,179
289	2,16
289,5	2,139
289,9	2,113
290,4	2,108
290,8	2,096
291,3	2,083
291,8	2,054
292,2	2,039
292,7	2,009
293,1	2,005
293,6	2,001
294,1	1,99
294,5	1,976
295	1,975
295,5	1,967
295,9	1,972
296,4	1,973
296,8	1,951
297,3	1,952
297,8	1,947
298,2	1,935
298,7	1,938
299,1	1,928
299,6	1,916
300,1	1,931
300,5	1,927
301	1,927
301,5	1,936
301,9	1,922
302,4	1,919
302,8	1,915
303,3	1,908
303,8	1,905
304,2	1,899
304,7	1,885
305,1	1,887
305,6	1,886
306,1	1,881
306,5	1,867
307	1,852
307,4	1,846
307,9	1,843
308,4	1,835
308,8	1,827
309,3	1,817
309,8	1,808
310,2	1,802
310,7	1,784
311,1	1,772
311,6	1,757
312,1	1,747
312,5	1,738
313	1,728
313,4	1,719
313,9	1,711
314,4	1,699
314,8	1,686
315,3	1,673
315,7	1,656
316,2	1,646
316,7	1,63
317,1	1,618
317,6	1,607
318	1,594
318,5	1,579
319	1,567
319,4	1,549
319,9	1,536
320,3	1,521
320,8	1,502
321,3	1,484
321,7	1,467
322,2	1,448
322,6	1,426
323,1	1,401
323,6	1,378
324	1,359
324,5	1,34
324,9	1,318
325,4	1,297
325,9	1,278
326,3	1,26
326,8	1,241
327,2	1,22
327,7	1,2
328,2	1,181
328,6	1,162
329,1	1,142
329,5	1,123
330	1,107
330,5	1,091
330,9	1,073
331,4	1,057
331,8	1,042
332,3	1,026
332,8	1,012
333,2	0,997
333,7	0,98
334,1	0,967
334,6	0,951
335,1	0,937
335,5	0,923
336	0,909
336,4	0,895
336,9	0,882
337,4	0,868
337,8	0,854
338,3	0,841
338,7	0,826
339,2	0,814
339,7	0,801
340,1	0,787
340,6	0,775
341	0,763
341,5	0,75
342	0,738
342,4	0,725
342,9	0,714
343,3	0,703
343,8	0,692
344,2	0,681
344,7	0,671
345,2	0,661
345,6	0,65
346,1	0,639
346,5	0,627
347	0,617
347,5	0,607
347,9	0,597
348,4	0,587
348,8	0,577
349,3	0,568
349,8	0,56
350,2	0,55
350,7	0,541
351,1	0,532
351,6	0,523
352	0,514
352,5	0,506
353	0,497
353,4	0,49
353,9	0,481
354,3	0,474
354,8	0,465
355,3	0,459
355,7	0,451
356,2	0,443
356,6	0,436
357,1	0,429
357,5	0,421
358	0,416
358,5	0,408
358,9	0,402
359,4	0,396
359,8	0,389
360,3	0,383
360,8	0,377
361,2	0,37
361,7	0,364
362,1	0,358
362,6	0,352
363	0,346
363,5	0,34
364	0,334
364,4	0,328
364,9	0,322
365,3	0,316
365,8	0,31
366,3	0,305
366,7	0,3
367,2	0,295
367,6	0,291
368,1	0,287
368,5	0,283
369	0,279
369,5	0,275
369,9	0,27
370,4	0,266
370,8	0,262
371,3	0,257
371,7	0,253
372,2	0,249
372,7	0,245
373,1	0,242
373,6	0,238
374	0,234
374,5	0,232
374,9	0,229
375,4	0,225
375,9	0,222
376,3	0,218
376,8	0,215
377,2	0,212
377,7	0,208
378,2	0,205
378,6	0,202
379,1	0,199
379,5	0,197
380	0,194
380,4	0,192
380,9	0,189
381,4	0,186
381,8	0,183
382,3	0,181
382,7	0,178
383,2	0,175
383,6	0,173
384,1	0,171
384,6	0,169
385	0,166
385,5	0,164
385,9	0,162
386,4	0,159
386,8	0,156
387,3	0,154
387,7	0,152
388,2	0,15
388,7	0,148
389,1	0,146
389,6	0,144
390	0,142
390,5	0,14
390,9	0,138
391,4	0,135
391,9	0,133
392,3	0,13
392,8	0,128
393,2	0,127
393,7	0,125
394,1	0,123
394,6	0,122
395,1	0,121
395,5	0,119
396	0,118
396,4	0,116
396,9	0,114
397,3	0,113
397,8	0,111
398,2	0,109
398,7	0,108
399,2	0,106
399,6	0,105
400,1	0,104
400,5	0,102
401	0,102
401,4	0,1
401,9	0,099
402,4	0,097
402,8	0,095
403,3	0,093
403,7	0,092
404,2	0,09
404,6	0,089
405,1	0,088
405,5	0,087
406	0,086
406,5	0,085
406,9	0,083
407,4	0,082
407,8	0,081
408,3	0,08
408,7	0,079
409,2	0,077
409,6	0,076
410,1	0,074
410,6	0,073
411	0,072
411,5	0,07
411,9	0,069
412,4	0,068
412,8	0,067
413,3	0,066
413,7	0,065
414,2	0,064
414,7	0,063
415,1	0,062
415,6	0,061
416	0,06
416,5	0,06
416,9	0,058
417,4	0,057
417,8	0,056
418,3	0,054
418,8	0,053
419,2	0,052
419,7	0,051
420,1	0,05
420,6	0,049
421	0,048
421,5	0,047
421,9	0,047
422,4	0,045
422,8	0,045
423,3	0,044
423,8	0,043
424,2	0,042
424,7	0,041
425,1	0,04
425,6	0,039
426	0,038
426,5	0,037
426,9	0,036
427,4	0,036
427,9	0,036
428,3	0,035
428,8	0,035
429,2	0,034
429,7	0,034
430,1	0,033
430,6	0,032
431	0,03
431,5	0,03
431,9	0,029
432,4	0,028
432,8	0,028
433,3	0,027
433,8	0,025
434,2	0,025
434,7	0,025
435,1	0,024
435,6	0,024
436	0,022
436,5	0,022
436,9	0,023
437,4	0,021
437,8	0,02
438,3	0,02
438,8	0,019
439,2	0,019
439,7	0,019
440,1	0,019
440,6	0,019
441	0,017
441,5	0,017
441,9	0,017
442,4	0,016
442,8	0,016
443,3	0,015
443,7	0,015
444,2	0,015
444,7	0,015
445,1	0,014
445,6	0,014
446	0,014
446,5	0,014
446,9	0,014
447,4	0,014
447,8	0,013
448,3	0,012
448,7	0,011
449,2	0,011
449,6	0,01
450,1	0,009
450,6	0,009
451	0,009
451,5	0,009
451,9	0,009
452,4	0,009
452,8	0,009
453,3	0,009
453,7	0,009
454,2	0,009
454,6	0,008
455,1	0,008
455,5	0,008
456	0,008
456,4	0,006
456,9	0,006
457,3	0,006
457,8	0,006
458,3	0,005
458,7	0,005
459,2	0,006
459,6	0,006
460,1	0,006
460,5	0,006
461	0,006
461,4	0,005
461,9	0,005
462,3	0,004
462,8	0,004
463,2	0,003
463,7	0,003
464,1	0,003
464,6	0,004
465	0,004
465,5	0,004
466	0,003
466,4	0,003
466,9	0,003
467,3	0,003
467,8	0,003
468,2	0,002
468,7	0,002
469,1	0,003
469,6	0,003
470	0,003
470,5	0,003
470,9	0,003
471,4	0,003
471,8	0,002
472,3	0,002
472,7	0,001
473,2	0,001
473,6	0,001
474,1	0,001
474,5	0,001
475	0,001
475,4	0,001
475,9	0,001
476,4	0,001
476,8	0,001
477,3	0
477,7	0,001
478,2	0,001
478,6	0,001
479,1	0,001
479,5	0,001
480	0,002
480,4	0,001
480,9	0,001
481,3	0,001
481,8	0
482,2	-0
482,7	0,001
483,1	-0
483,6	-0
484	-0,001
484,5	-0,002
484,9	-0,002
485,4	-0,003
485,8	-0,003
486,3	0,001
486,7	0,001
487,2	-0
487,6	-0
488,1	-0
488,5	0,001
489	0
489,4	-0,005
489,9	-0,004
490,4	-0,002
490,8	-0,001
491,3	-0
491,7	0,001
492,2	0,001
492,6	0
493,1	0
493,5	-0
494	-0
494,4	-0,001
494,9	-0,001
495,3	-0
495,8	-0,001
496,2	-0,001
496,7	-0,001
497,1	-0,001
497,6	-0,001
498	-0,001
498,5	-0,002
498,9	-0,002
499,4	-0,002
499,8	-0,002
500,3	-0,002
500,7	-0,003
501,2	-0,003
501,6	-0,002
502,1	-0,003
502,5	-0,002
503	-0,003
503,4	-0,002
503,9	-0,002
504,3	-0,002
504,8	-0,002
505,2	-0,002
505,7	-0,002
506,1	-0,001
506,6	-0,002
507	-0,002
507,5	-0,003
507,9	-0,002
508,4	-0,002
508,8	-0,002
509,3	-0,002
509,7	-0,002
510,2	-0,003
510,6	-0,002
511,1	-0,002
511,5	-0,002
512	-0,002
512,4	-0,003
512,9	-0,002
513,3	-0,002
513,8	-0,002
514,2	-0,002
514,7	-0,002
515,1	-0,002
515,6	-0,002
516	-0,002
516,5	-0,002
516,9	-0,002
517,4	-0,003
517,8	-0,003
518,3	-0,003
518,7	-0,003
519,2	-0,002
519,6	-0,002
520,1	-0,002
520,5	-0,003
521	-0,003
521,4	-0,003
521,9	-0,003
522,3	-0,003
522,8	-0,004
523,2	-0,004
523,7	-0,004
524,1	-0,004
524,6	-0,004
525	-0,003
525,5	-0,003
525,9	-0,002
526,4	-0,003
526,8	-0,002
527,3	-0,002
527,7	-0,002
528,2	-0,003
528,6	-0,002
529,1	-0,002
529,5	-0,002
530	-0,002
530,4	-0,002
530,9	-0,003
531,3	-0,003
531,8	-0,003
532,2	-0,003
532,6	-0,003
533,1	-0,003
533,5	-0,003
534	-0,003
534,4	-0,003
534,9	-0,003
535,3	-0,003
535,8	-0,004
536,2	-0,004
536,7	-0,004
537,1	-0,004
537,6	-0,004
538	-0,003
538,5	-0,003
538,9	-0,003
539,4	-0,003
539,8	-0,004
540,3	-0,004
540,7	-0,004
541,2	-0,004
541,6	-0,004
542,1	-0,004
542,5	-0,003
543	-0,003
543,4	-0,003
543,9	-0,003
544,3	-0,004
544,8	-0,004
545,2	-0,004
545,7	-0,004
546,1	-0,004
546,5	-0,003
547	-0,004
547,4	-0,003
547,9	-0,003
548,3	-0,003
548,8	-0,003
549,2	-0,003
549,7	-0,004
550,1	-0,003
550,6	-0,004
551	-0,004
551,5	-0,004
551,9	-0,005
552,4	-0,005
552,8	-0,004
553,3	-0,004
553,7	-0,004
554,2	-0,004
554,6	-0,003
555,1	-0,003
555,5	-0,003
555,9	-0,003
556,4	-0,003
556,8	-0,003
557,3	-0,004
557,7	-0,003
558,2	-0,003
558,6	-0,004
559,1	-0,004
559,5	-0,004
560	-0,004
560,4	-0,004
560,9	-0,005
561,3	-0,004
561,8	-0,004
562,2	-0,004
562,7	-0,004
563,1	-0,004
563,6	-0,003
564	-0,003
564,4	-0,002
564,9	-0,002
565,3	-0,002
565,8	-0,003
566,2	-0,004
566,7	-0,003
567,1	-0,004
567,6	-0,004
568	-0,004
568,5	-0,004
568,9	-0,004
569,4	-0,003
569,8	-0,002
570,3	-0,002
570,7	-0,002
571,1	-0,002
571,6	-0,002
572	-0,002
572,5	-0,003
572,9	-0,004
573,4	-0,003
573,8	-0,003
574,3	-0,003
574,7	-0,003
575,2	-0,003
575,6	-0,003
576,1	-0,002
576,5	-0,003
576,9	-0,003
577,4	-0,003
577,8	-0,002
578,3	-0,003
578,7	-0,003
579,2	-0,003
579,6	-0,003
580,1	-0,003
580,5	-0,004
581	-0,005
581,4	-0,003
581,9	-0,003
582,3	-0,003
582,7	-0,004
583,2	-0,004
583,6	-0,004
584,1	-0,003
584,5	-0,004
585	-0,003
585,4	-0,003
585,9	-0,002
586,3	-0,001
586,8	-0,001
587,2	-0,002
587,6	-0,002
588,1	-0,002
588,5	-0,003
589	-0,003
589,4	-0,003
589,9	-0,002
590,3	-0,002
590,8	-0,002
591,2	-0,002
591,7	-0,002
592,1	-0,002
592,5	-0,002
593	-0,002
593,4	-0,002
593,9	-0,003
594,3	-0,003
594,8	-0,002
595,2	-0,002
595,7	-0,003
596,1	-0,003
596,6	-0,003
597	-0,003
597,4	-0,002
597,9	-0,003
598,3	-0,003
598,8	-0,003
599,2	-0,003
599,7	-0,003
600,1	-0,003
600,6	-0,003
601	-0,003
601,4	-0,003
601,9	-0,004
602,3	-0,004
602,8	-0,003
603,2	-0,003
603,7	-0,003
604,1	-0,004
604,6	-0,004
605	-0,003
605,4	-0,003
605,9	-0,004
606,3	-0,004
606,8	-0,003
607,2	-0,003
607,7	-0,003
608,1	-0,003
608,6	-0,003
609	-0,002
609,4	-0,002
609,9	-0,002
610,3	-0,002
610,8	-0,002
611,2	-0,002
611,7	-0,002
612,1	-0,002
612,6	-0,002
613	-0,003
613,4	-0,003
613,9	-0,003
614,3	-0,002
614,8	-0,003
615,2	-0,002
615,7	-0,003
616,1	-0,003
616,6	-0,003
617	-0,003
617,4	-0,003
617,9	-0,003
618,3	-0,003
618,8	-0,003
619,2	-0,002
619,7	-0,002
620,1	-0,002
620,5	-0,003
621	-0,003
621,4	-0,002
621,9	-0,002
622,3	-0,002
622,8	-0,003
623,2	-0,003
623,6	-0,002
624,1	-0,002
624,5	-0,003
625	-0,004
625,4	-0,004
625,9	-0,004
626,3	-0,004
626,8	-0,003
627,2	-0,003
627,6	-0,003
628,1	-0,003
628,5	-0,003
629	-0,003
629,4	-0,003
629,9	-0,003
630,3	-0,003
630,7	-0,003
631,2	-0,003
631,6	-0,003
632,1	-0,003
632,5	-0,003
633	-0,002
633,4	-0,002
633,8	-0,002
634,3	-0,002
634,7	-0,002
635,2	-0,002
635,6	-0,002
636,1	-0,003
636,5	-0,003
636,9	-0,003
637,4	-0,003
637,8	-0,004
638,3	-0,004
638,7	-0,004
639,2	-0,005
639,6	-0,004
640	-0,004
640,5	-0,004
640,9	-0,004
641,4	-0,004
641,8	-0,004
642,2	-0,004
642,7	-0,004
643,1	-0,005
643,6	-0,005
644	-0,005
644,5	-0,005
644,9	-0,005
645,3	-0,005
645,8	-0,005
646,2	-0,004
646,7	-0,004
647,1	-0,004
647,6	-0,004
648	-0,003
648,4	-0,003
648,9	-0,003
649,3	-0,003
649,8	-0,003
650,2	-0,003
650,6	-0,003
651,1	-0,003
651,5	-0,003
652	-0,003
652,4	-0,003
652,9	-0,004
653,3	-0,004
653,7	-0,005
654,2	-0,006
654,6	-0,009
655,1	-0,013
655,5	-0,008
655,9	-0,005
656,4	-0,004
656,8	-0,005
657,3	-0,005
657,7	-0,004
658,2	-0,001
658,6	-0,001
659	-0
659,5	0
659,9	0,01
660,4	0,012
660,8	0,011
661,2	0,009
661,7	0,007
662,1	0,005
662,6	0,003
663	0,001
663,4	-0
663,9	-0,001
664,3	-0,001
664,8	-0,002
665,2	-0,002
665,6	-0,002
666,1	-0,002
666,5	-0,002
667	-0,002
667,4	-0,002
667,9	-0,002
668,3	-0,003
668,7	-0,003
669,2	-0,003
669,6	-0,003
670,1	-0,003
670,5	-0,003
670,9	-0,004
671,4	-0,003
671,8	-0,004
672,3	-0,004
672,7	-0,004
673,1	-0,004
673,6	-0,004
674	-0,004
674,5	-0,004
674,9	-0,004
675,3	-0,003
675,8	-0,003
676,2	-0,003
676,7	-0,003
677,1	-0,003
677,5	-0,003
678	-0,003
678,4	-0,004
678,9	-0,004
679,3	-0,004
679,7	-0,003
680,2	-0,004
680,6	-0,004
681,1	-0,004
681,5	-0,004
681,9	-0,004
682,4	-0,004
682,8	-0,004
683,3	-0,004
683,7	-0,004
684,1	-0,004
684,6	-0,004
685	-0,004
685,5	-0,003
685,9	-0,003
686,3	-0,003
686,8	-0,004
687,2	-0,004
687,7	-0,004
688,1	-0,004
688,5	-0,005
689	-0,004
689,4	-0,004
689,9	-0,003
690,3	-0,003
690,7	-0,003
691,2	-0,003
691,6	-0,003
692	-0,003
692,5	-0,004
692,9	-0,004
693,4	-0,004
693,8	-0,004
694,2	-0,004
694,7	-0,004
695,1	-0,003
695,6	-0,003
696	-0,004
696,4	-0,004
696,9	-0,003
697,3	-0,003
697,8	-0,004
698,2	-0,004
698,6	-0,004
699,1	-0,004
699,5	-0,004
699,9	-0,004
700,4	-0,004
700,8	-0,004
701,3	-0,004
701,7	-0,003
702,1	-0,004
702,6	-0,004
703	-0,004
703,5	-0,004
703,9	-0,004
704,3	-0,004
704,8	-0,004
705,2	-0,004
705,6	-0,004
706,1	-0,004
706,5	-0,004
707	-0,004
707,4	-0,004
707,8	-0,004
708,3	-0,004
708,7	-0,004
709,2	-0,004
709,6	-0,004
710	-0,003
710,5	-0,003
710,9	-0,003
711,3	-0,004
711,8	-0,003
712,2	-0,003
712,7	-0,003
713,1	-0,003
713,5	-0,003
714	-0,003
714,4	-0,002
714,8	-0,002
715,3	-0,002
715,7	-0,003
716,2	-0,002
716,6	-0,002
717	-0,002
717,5	-0,003
717,9	-0,003
718,3	-0,003
718,8	-0,003
719,2	-0,003
719,7	-0,003
720,1	-0,003
720,5	-0,003
721	-0,003
721,4	-0,003
721,8	-0,003
722,3	-0,003
722,7	-0,003
723,2	-0,003
723,6	-0,003
724	-0,003
724,5	-0,003
724,9	-0,003
725,3	-0,003
725,8	-0,003
726,2	-0,003
726,7	-0,003
727,1	-0,003
727,5	-0,003
728	-0,003
728,4	-0,003
728,8	-0,003
729,3	-0,003
729,7	-0,003
730,1	-0,003
730,6	-0,003
731	-0,003
731,5	-0,003
731,9	-0,004
732,3	-0,004
732,8	-0,003
733,2	-0,004
733,6	-0,004
734,1	-0,004
734,5	-0,004
734,9	-0,004
735,4	-0,004
735,8	-0,004
736,3	-0,003
736,7	-0,003
737,1	-0,003
737,6	-0,003
738	-0,003
738,4	-0,003
738,9	-0,002
739,3	-0,003
739,7	-0,003
740,2	-0,003
740,6	-0,003
741,1	-0,004
741,5	-0,004
741,9	-0,004
742,4	-0,004
742,8	-0,004
743,2	-0,003
743,7	-0,003
744,1	-0,003
744,5	-0,003
745	-0,003
745,4	-0,003
745,8	-0,003
746,3	-0,003
746,7	-0,003
747,2	-0,003
747,6	-0,004
748	-0,004
748,5	-0,004
748,9	-0,004
749,3	-0,004
749,8	-0,004
750,2	-0,004
750,6	-0,004
751,1	-0,004
751,5	-0,005
751,9	-0,005
752,4	-0,005
752,8	-0,005
753,3	-0,005
753,7	-0,005
754,1	-0,005
754,6	-0,004
755	-0,004
755,4	-0,004
755,9	-0,004
756,3	-0,004
756,7	-0,003
757,2	-0,003
757,6	-0,003
758	-0,004
758,5	-0,003
758,9	-0,003
759,3	-0,003
759,8	-0,003
760,2	-0,003
760,6	-0,002
761,1	-0,002
761,5	-0,002
761,9	-0,002
762,4	-0,002
762,8	-0,002
763,3	-0,002
763,7	-0,003
764,1	-0,003
764,6	-0,003
765	-0,003
765,4	-0,004
765,9	-0,004
766,3	-0,004
766,7	-0,003
767,2	-0,003
767,6	-0,003
768	-0,003
768,5	-0,003
768,9	-0,003
769,3	-0,004
769,8	-0,004
770,2	-0,004
770,6	-0,005
771,1	-0,005
771,5	-0,005
771,9	-0,005
772,4	-0,004
772,8	-0,004
773,2	-0,005
773,7	-0,005
774,1	-0,005
774,5	-0,004
775	-0,004
775,4	-0,004
775,8	-0,004
776,3	-0,004
776,7	-0,004
777,1	-0,004
777,6	-0,003
778	-0,003
778,4	-0,004
778,9	-0,004
779,3	-0,004
779,7	-0,004
780,2	-0,004
780,6	-0,004
781	-0,004
781,5	-0,005
781,9	-0,005
782,3	-0,005
782,8	-0,005
783,2	-0,004
783,6	-0,005
784,1	-0,005
784,5	-0,004
784,9	-0,004
785,4	-0,004
785,8	-0,003
786,2	-0,003
786,7	-0,003
787,1	-0,003
787,5	-0,003
788	-0,004
788,4	-0,004
788,8	-0,004
789,3	-0,004
789,7	-0,004
790,1	-0,003
790,6	-0,003
791	-0,003
791,4	-0,003
791,9	-0,003
792,3	-0,003
792,7	-0,003
793,2	-0,004
793,6	-0,004
794	-0,004
794,5	-0,004
794,9	-0,004
795,3	-0,004
795,8	-0,004
796,2	-0,004
796,6	-0,004
797,1	-0,003
797,5	-0,003
797,9	-0,003
798,4	-0,003
798,8	-0,003
799,2	-0,003
799,7	-0,003
800,1	-0,003
800,5	-0,003
801	-0,003
801,4	-0,003
801,8	-0,003
802,2	-0,003
802,7	-0,003
803,1	-0,003
803,5	-0,003
804	-0,004
804,4	-0,004
804,8	-0,004
805,3	-0,004
805,7	-0,004
806,1	-0,004
806,6	-0,004
807	-0,004
807,4	-0,003
807,9	-0,004
808,3	-0,004
808,7	-0,004
809,2	-0,003
809,6	-0,003
810	-0,004
810,4	-0,004
810,9	-0,004
811,3	-0,004
811,7	-0,004
812,2	-0,004
812,6	-0,004
813	-0,004
813,5	-0,004
813,9	-0,005
814,3	-0,005
814,8	-0,004
815,2	-0,004
815,6	-0,004
816,1	-0,004
816,5	-0,003
816,9	-0,003
817,3	-0,003
817,8	-0,003
818,2	-0,003
818,6	-0,003
819,1	-0,003
819,5	-0,003
819,9	-0,003
820,4	-0,003
820,8	-0,004
821,2	-0,004
821,7	-0,004
822,1	-0,004
822,5	-0,003
822,9	-0,004
823,4	-0,003
823,8	-0,003
824,2	-0,003
824,7	-0,003
825,1	-0,003
825,5	-0,003
826	-0,003
826,4	-0,003
826,8	-0,003
827,3	-0,004
827,7	-0,004
828,1	-0,004
828,5	-0,004
829	-0,004
829,4	-0,004
829,8	-0,004
830,3	-0,004
830,7	-0,004
831,1	-0,003
831,6	-0,003
832	-0,004
832,4	-0,004
832,8	-0,004
833,3	-0,004
833,7	-0,004
834,1	-0,004
834,6	-0,004
835	-0,004
835,4	-0,004
835,8	-0,003
836,3	-0,003
836,7	-0,003
837,1	-0,002
837,6	-0,003
838	-0,003
838,4	-0,003
838,9	-0,003
839,3	-0,003
839,7	-0,004
840,1	-0,004
840,6	-0,004
841	-0,004
841,4	-0,004
841,9	-0,004
842,3	-0,004
842,7	-0,004
843,1	-0,004
843,6	-0,004
844	-0,004
844,4	-0,004
844,9	-0,005
845,3	-0,005
845,7	-0,005
846,2	-0,005
846,6	-0,005
847	-0,005
847,4	-0,005
847,9	-0,005
848,3	-0,005
848,7	-0,005
849,2	-0,004
849,6	-0,004
850	-0,004
850,4	-0,004
850,9	-0,004
851,3	-0,004
851,7	-0,004
852,2	-0,004
852,6	-0,004
853	-0,004
853,4	-0,004
853,9	-0,004
854,3	-0,004
854,7	-0,004
855,2	-0,004
855,6	-0,004
856	-0,004
856,4	-0,004
856,9	-0,004
857,3	-0,004
857,7	-0,004
858,2	-0,004
858,6	-0,004
859	-0,004
859,4	-0,004
859,9	-0,004
860,3	-0,005
860,7	-0,004
861,1	-0,004
861,6	-0,004
862	-0,004
862,4	-0,004
862,9	-0,004
863,3	-0,004
863,7	-0,004
864,1	-0,004
864,6	-0,005
865	-0,005
865,4	-0,005
865,9	-0,004
866,3	-0,004
866,7	-0,004
867,1	-0,004
867,6	-0,004
868	-0,004
868,4	-0,004
868,8	-0,004
869,3	-0,004
869,7	-0,004
870,1	-0,004
870,6	-0,004
871	-0,004
871,4	-0,004
871,8	-0,004
872,3	-0,004
872,7	-0,004
873,1	-0,005
873,5	-0,005
874	-0,005
874,4	-0,005
874,8	-0,005
875,3	-0,005
875,7	-0,005
876,1	-0,005
876,5	-0,004
877	-0,004
877,4	-0,004
877,8	-0,004
878,2	-0,004
878,7	-0,004
879,1	-0,004
879,5	-0,004
879,9	-0,004
880,4	-0,004
880,8	-0,004
881,2	-0,004
881,7	-0,004
882,1	-0,004
882,5	-0,004
882,9	-0,005
883,4	-0,005
883,8	-0,005
884,2	-0,006
884,6	-0,005
885,1	-0,006
885,5	-0,006
885,9	-0,006
886,3	-0,006
886,8	-0,005
887,2	-0,006
887,6	-0,005
888	-0,005
888,5	-0,004
888,9	-0,004
889,3	-0,003
889,8	-0,003
890,2	-0,003
890,6	-0,003
891	-0,003
891,5	-0,003
891,9	-0,003
892,3	-0,003
892,7	-0,003
893,2	-0,004
893,6	-0,004
894	-0,004
894,4	-0,004
894,9	-0,004
895,3	-0,004
895,7	-0,004
896,1	-0,005
896,6	-0,004
897	-0,004
897,4	-0,004
897,8	-0,004
898,3	-0,004
898,7	-0,004
899,1	-0,003
899,5	-0,003
900	-0,003
900,4	-0,003
900,8	-0,004
901,2	-0,003
901,7	-0,004
902,1	-0,004
902,5	-0,004
902,9	-0,004
903,4	-0,004
903,8	-0,004
904,2	-0,004
904,6	-0,004
905,1	-0,004
905,5	-0,003
905,9	-0,003
906,3	-0,003
906,8	-0,003
907,2	-0,002
907,6	-0,002
908	-0,002
908,5	-0,002
908,9	-0,002
909,3	-0,002
909,7	-0,002
910,2	-0,001
910,6	-0,001
911	-0,001
911,4	-0,001
911,9	-0,001
912,3	-0,001
912,7	-0,001
913,1	-0,001
913,6	-0,001
914	-0,001
914,4	-0,001
914,8	-0,002
915,3	-0,002
915,7	-0,002
916,1	-0,002
916,5	-0,002
916,9	-0,002
917,4	-0,002
917,8	-0,002
918,2	-0,002
918,6	-0,002
919,1	-0,002
919,5	-0,002
919,9	-0,002
920,3	-0,002
920,8	-0,003
921,2	-0,002
921,6	-0,002
922	-0,002
922,5	-0,002
922,9	-0,002
923,3	-0,002
923,7	-0,002
924,2	-0,002
924,6	-0,003
925	-0,003
925,4	-0,003
925,8	-0,003
926,3	-0,002
926,7	-0,003
927,1	-0,003
927,5	-0,003
928	-0,003
928,4	-0,003
928,8	-0,003
929,2	-0,003
929,7	-0,004
930,1	-0,004
930,5	-0,003
930,9	-0,003
931,3	-0,003
931,8	-0,003
932,2	-0,003
932,6	-0,003
933	-0,003
933,5	-0,003
933,9	-0,004
934,3	-0,004
934,7	-0,004
935,2	-0,004
935,6	-0,004
936	-0,004
936,4	-0,004
936,8	-0,004
937,3	-0,004
937,7	-0,004
938,1	-0,004
938,5	-0,004
939	-0,004
939,4	-0,004
939,8	-0,003
940,2	-0,003
940,6	-0,002
941,1	-0,002
941,5	-0,002
941,9	-0,002
942,3	-0,001
942,8	-0,001
943,2	-0,001
943,6	-0,002
944	-0,003
944,4	-0,002
944,9	-0,003
945,3	-0,004
945,7	-0,004
946,1	-0,004
946,6	-0,004
947	-0,004
947,4	-0,005
947,8	-0,005
948,2	-0,005
948,7	-0,005
949,1	-0,006
949,5	-0,005
949,9	-0,005
950,3	-0,005
950,8	-0,005
951,2	-0,005
951,6	-0,004
952	-0,004
952,5	-0,004
952,9	-0,004
953,3	-0,005
953,7	-0,005
954,1	-0,005
954,6	-0,006
955	-0,006
955,4	-0,006
955,8	-0,007
956,2	-0,007
956,7	-0,007
957,1	-0,007
957,5	-0,007
957,9	-0,007
958,3	-0,007
958,8	-0,008
959,2	-0,008
959,6	-0,008
960	-0,009
960,5	-0,008
960,9	-0,009
961,3	-0,009
961,7	-0,009
962,1	-0,009
962,6	-0,008
963	-0,008
963,4	-0,008
963,8	-0,008
964,2	-0,008
964,7	-0,008
965,1	-0,007
965,5	-0,007
965,9	-0,006
966,3	-0,006
966,8	-0,006
967,2	-0,005
967,6	-0,006
968	-0,006
968,4	-0,005
968,9	-0,006
969,3	-0,006
969,7	-0,005
970,1	-0,005
970,5	-0,004
971	-0,004
971,4	-0,005
971,8	-0,005
972,2	-0,005
972,6	-0,006
973,1	-0,006
973,5	-0,007
973,9	-0,007
974,3	-0,007
974,7	-0,007
975,2	-0,007
975,6	-0,006
976	-0,006
976,4	-0,005
976,8	-0,006
977,3	-0,006
977,7	-0,006
978,1	-0,007
978,5	-0,007
978,9	-0,008
979,4	-0,008
979,8	-0,008
980,2	-0,008
980,6	-0,008
981	-0,008
981,5	-0,008
981,9	-0,008
982,3	-0,007
982,7	-0,007
983,1	-0,007
983,6	-0,007
984	-0,007
984,4	-0,006
984,8	-0,007
985,2	-0,008
985,6	-0,008
986,1	-0,007
986,5	-0,008
986,9	-0,007
987,3	-0,007
987,7	-0,007
988,2	-0,007
988,6	-0,006
989	-0,006
989,4	-0,006
989,8	-0,006
990,3	-0,006
990,7	-0,006
991,1	-0,006
991,5	-0,006
991,9	-0,005
992,3	-0,005
992,8	-0,006
993,2	-0,006
993,6	-0,005
994	-0,005
994,4	-0,005
994,9	-0,005
995,3	-0,005
995,7	-0,005
996,1	-0,005
996,5	-0,006
996,9	-0,006
997,4	-0,006
997,8	-0,006
998,2	-0,007
998,6	-0,006
999	-0,006
999,5	-0,006
999,9	-0,006
1000,3	-0,006
1000,7	-0,006
1001,1	-0,006
1001,5	-0,006
1002	-0,006
1002,4	-0,005
1002,8	-0,004
1003,2	-0,004
1003,6	-0,004
1004	-0,004
1004,5	-0,004
1004,9	-0,004
1005,3	-0,004
1005,7	-0,004
1006,1	-0,004
1006,6	-0,004
1007	-0,004
1007,4	-0,003
1007,8	-0,003
1008,2	-0,002
1008,6	-0,003
1009,1	-0,002
1009,5	-0,002
1009,9	-0,002
1010,3	-0,002
1010,7	-0,002
1011,1	-0,002
1011,6	-0,002
1012	-0,002
1012,4	-0,003
1012,8	-0,003
1013,2	-0,004
1013,6	-0,004
1014,1	-0,004
1014,5	-0,005
1014,9	-0,005
1015,3	-0,006
1015,7	-0,006
1016,1	-0,005
1016,6	-0,005
1017	-0,005
1017,4	-0,004
1017,8	-0,004
1018,2	-0,003
1018,6	-0,003
1019,1	-0,003
1019,5	-0,003
1019,9	-0,003
1020,3	-0,003
1020,7	-0,003
1021,1	-0,004
1021,6	-0,004
1022	-0,004
1022,4	-0,003
1022,8	-0,003
1023,2	-0,003
1023,6	-0,003
1024,1	-0,002
1024,5	-0,002
1024,9	-0,003
1025,3	-0,003
1025,7	-0,004
1026,1	-0,004
1026,6	-0,005
1027	-0,005
1027,4	-0,006
1027,8	-0,006
1028,2	-0,006
1028,6	-0,005
1029	-0,005
1029,5	-0,005
1029,9	-0,005
1030,3	-0,004
1030,7	-0,004
1031,1	-0,004
1031,5	-0,004
1032	-0,004
1032,4	-0,004
1032,8	-0,004
1033,2	-0,004
1033,6	-0,004
1034	-0,005
1034,4	-0,005
1034,9	-0,005
1035,3	-0,005
1035,7	-0,006
1036,1	-0,006
1036,5	-0,006
1036,9	-0,005
1037,4	-0,005
1037,8	-0,005
1038,2	-0,005
1038,6	-0,004
1039	-0,004
1039,4	-0,004
1039,8	-0,004
1040,3	-0,004
1040,7	-0,004
1041,1	-0,004
1041,5	-0,004
1041,9	-0,004
1042,3	-0,004
1042,7	-0,005
1043,2	-0,004
1043,6	-0,004
1044	-0,004
1044,4	-0,004
1044,8	-0,005
1045,2	-0,005
1045,6	-0,005
1046,1	-0,006
1046,5	-0,006
1046,9	-0,007
1047,3	-0,007
1047,7	-0,006
1048,1	-0,006
1048,5	-0,006
1049	-0,006
1049,4	-0,007
1049,8	-0,008
1050,2	-0,008
1050,6	-0,008
1051	-0,008
1051,4	-0,008
1051,9	-0,008
1052,3	-0,007
1052,7	-0,006
1053,1	-0,006
1053,5	-0,006
1053,9	-0,006
1054,3	-0,005
1054,8	-0,006
1055,2	-0,005
1055,6	-0,005
1056	-0,005
1056,4	-0,005
1056,8	-0,005
1057,2	-0,005
1057,6	-0,005
1058,1	-0,006
1058,5	-0,005
1058,9	-0,005
1059,3	-0,005
1059,7	-0,005
1060,1	-0,005
1060,5	-0,004
1061	-0,004
1061,4	-0,006
1061,8	-0,007
1062,2	-0,006
1062,6	-0,007
1063	-0,006
1063,4	-0,006
1063,8	-0,005
1064,3	-0,005
1064,7	-0,005
1065,1	-0,005
1065,5	-0,006
1065,9	-0,006
1066,3	-0,005
1066,7	-0,006
1067,1	-0,004
1067,6	-0,004
1068	-0,005
1068,4	-0,005
1068,8	-0,006
1069,2	-0,006
1069,6	-0,006
1070	-0,008
1070,4	-0,007
1070,9	-0,006
1071,3	-0,007
1071,7	-0,007
1072,1	-0,007
1072,5	-0,006
1072,9	-0,005
1073,3	-0,006
1073,7	-0,006
1074,2	-0,005
1074,6	-0,006
1075	-0,007
1075,4	-0,007
1075,8	-0,007
1076,2	-0,007
1076,6	-0,008
1077	-0,01
1077,5	-0,01
1077,9	-0,009
1078,3	-0,011
1078,7	-0,011
1079,1	-0,01
1079,5	-0,01
1079,9	-0,007
1080,3	-0,007
1080,7	-0,007
1081,2	-0,007
1081,6	-0,007
1082	-0,011
1082,4	-0,012
1082,8	-0,014
1083,2	-0,013
1083,6	-0,014
1084	-0,015
1084,5	-0,015
1084,9	-0,014
1085,3	-0,014
1085,7	-0,013
1086,1	-0,015
1086,5	-0,014
1086,9	-0,013
1087,3	-0,012
1087,7	-0,012
1088,2	-0,012
1088,6	-0,013
1089	-0,011
1089,4	-0,011
1089,8	-0,011
1090,2	-0,015
1090,6	-0,013
1091	-0,013
1091,4	-0,014
1091,9	-0,016
1092,3	-0,02
1092,7	-0,023
1093,1	-0,021
1093,5	-0,021
1093,9	-0,023
1094,3	-0,022
1094,7	-0,023
1095,1	-0,025
1095,5	-0,023
1096	-0,024
1096,4	-0,022
1096,8	-0,021
1097,2	-0,027
1097,6	-0,031
1098	-0,027
1098,4	-0,027
1098,8	-0,032
1099,2	-0,042
1099,6	-0,042
1100,1	-0,04
1100,5	-0,041
1100,9	-0,041
1101,3	-0,036
1101,7	-0,037
1102,1	-0,038
1102,5	-0,049
1102,9	-0,045
1103,3	-0,045
1103,7	-0,054
1104,2	-0,071
1104,6	-0,069
1105	-0,075
1105,4	-0,068
1105,8	-0,069
1106,2	-0,077
1106,6	-0,081
1107	-0,084
1107,4	-0,094
1107,8	-0,051
1108,3	0,173
