Data from Absorbance_00036.txt Node
Date: Wed Aug 02 14:25:06 MSK 2023
User: vat
Spectrometer: MAYP114033
Trigger mode: 0
Integration Time (sec): 8,000000E-3
Scans to average: 10
Electric dark correction enabled: true
Nonlinearity correction enabled: false
Boxcar width: 3
XAxis mode: Wavelengths
Number of Pixels in Spectrum: 2068
>>>>>Begin Spectral Data<<<<<
199,4	-0,588
199,9	-0,034
200,4	0,341
200,8	0,736
201,3	0,9
201,8	0,924
202,2	0,959
202,7	1,008
203,2	1,071
203,6	1,103
204,1	1,109
204,6	1,131
205	1,149
205,5	1,179
206	1,157
206,4	1,16
206,9	1,171
207,4	1,187
207,8	1,193
208,3	1,221
208,8	1,213
209,2	1,268
209,7	1,274
210,2	1,293
210,6	1,322
211,1	1,336
211,5	1,347
212	1,379
212,5	1,369
212,9	1,407
213,4	1,429
213,9	1,438
214,3	1,455
214,8	1,462
215,3	1,457
215,7	1,462
216,2	1,477
216,7	1,481
217,1	1,507
217,6	1,509
218,1	1,526
218,5	1,55
219	1,573
219,5	1,572
219,9	1,601
220,4	1,614
220,9	1,644
221,3	1,654
221,8	1,687
222,3	1,718
222,7	1,772
223,2	1,787
223,6	1,786
224,1	1,798
224,6	1,797
225	1,799
225,5	1,803
226	1,789
226,4	1,786
226,9	1,786
227,4	1,81
227,8	1,844
228,3	1,875
228,8	1,901
229,2	1,91
229,7	1,938
230,2	1,986
230,6	1,991
231,1	1,998
231,5	1,982
232	1,985
232,5	1,996
232,9	2
233,4	2,021
233,9	2,02
234,3	2,032
234,8	2,029
235,3	2,023
235,7	2,023
236,2	2,012
236,7	2,006
237,1	2,014
237,6	2,024
238,1	2,05
238,5	2,058
239	2,091
239,4	2,116
239,9	2,102
240,4	2,093
240,8	2,107
241,3	2,105
241,8	2,136
242,2	2,139
242,7	2,144
243,2	2,162
243,6	2,199
244,1	2,172
244,6	2,198
245	2,199
245,5	2,172
245,9	2,169
246,4	2,16
246,9	2,162
247,3	2,192
247,8	2,194
248,3	2,189
248,7	2,193
249,2	2,204
249,7	2,22
250,1	2,215
250,6	2,223
251	2,219
251,5	2,206
252	2,214
252,4	2,209
252,9	2,196
253,4	2,182
253,8	2,179
254,3	2,173
254,8	2,195
255,2	2,218
255,7	2,223
256,1	2,25
256,6	2,257
257,1	2,249
257,5	2,227
258	2,228
258,5	2,198
258,9	2,195
259,4	2,169
259,9	2,172
260,3	2,15
260,8	2,168
261,2	2,161
261,7	2,177
262,2	2,179
262,6	2,196
263,1	2,195
263,6	2,215
264	2,215
264,5	2,211
264,9	2,218
265,4	2,234
265,9	2,225
266,3	2,238
266,8	2,247
267,3	2,263
267,7	2,28
268,2	2,285
268,7	2,292
269,1	2,293
269,6	2,29
270	2,301
270,5	2,321
271	2,305
271,4	2,282
271,9	2,278
272,4	2,28
272,8	2,305
273,3	2,281
273,7	2,251
274,2	2,277
274,7	2,271
275,1	2,283
275,6	2,282
276,1	2,262
276,5	2,287
277	2,292
277,4	2,278
277,9	2,311
278,4	2,311
278,8	2,361
279,3	2,371
279,8	2,383
280,2	2,374
280,7	2,363
281,1	2,361
281,6	2,354
282,1	2,323
282,5	2,32
283	2,284
283,4	2,304
283,9	2,294
284,4	2,292
284,8	2,293
285,3	2,314
285,8	2,314
286,2	2,338
286,7	2,342
287,1	2,354
287,6	2,34
288,1	2,336
288,5	2,331
289	2,314
289,5	2,313
289,9	2,3
290,4	2,301
290,8	2,307
291,3	2,314
291,8	2,292
292,2	2,302
292,7	2,298
293,1	2,289
293,6	2,297
294,1	2,281
294,5	2,272
295	2,258
295,5	2,246
295,9	2,217
296,4	2,233
296,8	2,21
297,3	2,216
297,8	2,195
298,2	2,188
298,7	2,18
299,1	2,193
299,6	2,181
300,1	2,202
300,5	2,211
301	2,233
301,5	2,249
301,9	2,263
302,4	2,271
302,8	2,277
303,3	2,269
303,8	2,283
304,2	2,295
304,7	2,296
305,1	2,312
305,6	2,323
306,1	2,325
306,5	2,336
307	2,314
307,4	2,319
307,9	2,334
308,4	2,336
308,8	2,342
309,3	2,344
309,8	2,366
310,2	2,4
310,7	2,365
311,1	2,373
311,6	2,365
312,1	2,372
312,5	2,384
313	2,373
313,4	2,363
313,9	2,368
314,4	2,37
314,8	2,373
315,3	2,368
315,7	2,369
316,2	2,36
316,7	2,35
317,1	2,35
317,6	2,369
318	2,375
318,5	2,377
319	2,383
319,4	2,397
319,9	2,407
320,3	2,438
320,8	2,415
321,3	2,439
321,7	2,449
322,2	2,449
322,6	2,424
323,1	2,405
323,6	2,403
324	2,444
324,5	2,44
324,9	2,427
325,4	2,435
325,9	2,458
326,3	2,469
326,8	2,487
327,2	2,424
327,7	2,4
328,2	2,388
328,6	2,369
329,1	2,356
329,5	2,364
330	2,358
330,5	2,374
330,9	2,383
331,4	2,402
331,8	2,4
332,3	2,408
332,8	2,412
333,2	2,405
333,7	2,419
334,1	2,405
334,6	2,413
335,1	2,434
335,5	2,446
336	2,425
336,4	2,417
336,9	2,412
337,4	2,422
337,8	2,398
338,3	2,392
338,7	2,383
339,2	2,418
339,7	2,426
340,1	2,404
340,6	2,394
341	2,391
341,5	2,366
342	2,342
342,4	2,316
342,9	2,32
343,3	2,326
343,8	2,32
344,2	2,312
344,7	2,323
345,2	2,311
345,6	2,296
346,1	2,272
346,5	2,248
347	2,248
347,5	2,238
347,9	2,217
348,4	2,219
348,8	2,206
349,3	2,193
349,8	2,181
350,2	2,144
350,7	2,118
351,1	2,105
351,6	2,082
352	2,062
352,5	2,041
353	2,029
353,4	2,017
353,9	2,001
354,3	1,981
354,8	1,968
355,3	1,941
355,7	1,922
356,2	1,897
356,6	1,869
357,1	1,848
357,5	1,82
358	1,788
358,5	1,763
358,9	1,742
359,4	1,715
359,8	1,698
360,3	1,678
360,8	1,656
361,2	1,634
361,7	1,619
362,1	1,592
362,6	1,569
363	1,546
363,5	1,521
364	1,5
364,4	1,479
364,9	1,456
365,3	1,436
365,8	1,413
366,3	1,391
366,7	1,371
367,2	1,351
367,6	1,333
368,1	1,312
368,5	1,293
369	1,278
369,5	1,262
369,9	1,242
370,4	1,222
370,8	1,204
371,3	1,187
371,7	1,171
372,2	1,153
372,7	1,136
373,1	1,122
373,6	1,108
374	1,093
374,5	1,08
374,9	1,065
375,4	1,05
375,9	1,038
376,3	1,025
376,8	1,013
377,2	1,001
377,7	0,988
378,2	0,974
378,6	0,963
379,1	0,95
379,5	0,938
380	0,927
380,4	0,916
380,9	0,904
381,4	0,894
381,8	0,884
382,3	0,872
382,7	0,863
383,2	0,854
383,6	0,845
384,1	0,837
384,6	0,828
385	0,82
385,5	0,811
385,9	0,802
386,4	0,793
386,8	0,784
387,3	0,777
387,7	0,77
388,2	0,762
388,7	0,757
389,1	0,75
389,6	0,744
390	0,738
390,5	0,73
390,9	0,723
391,4	0,716
391,9	0,708
392,3	0,701
392,8	0,695
393,2	0,69
393,7	0,685
394,1	0,68
394,6	0,673
395,1	0,669
395,5	0,665
396	0,66
396,4	0,654
396,9	0,65
397,3	0,646
397,8	0,642
398,2	0,638
398,7	0,634
399,2	0,63
399,6	0,625
400,1	0,62
400,5	0,616
401	0,611
401,4	0,606
401,9	0,602
402,4	0,598
402,8	0,594
403,3	0,591
403,7	0,587
404,2	0,583
404,6	0,58
405,1	0,575
405,5	0,572
406	0,568
406,5	0,565
406,9	0,561
407,4	0,558
407,8	0,554
408,3	0,551
408,7	0,547
409,2	0,544
409,6	0,54
410,1	0,538
410,6	0,534
411	0,53
411,5	0,527
411,9	0,524
412,4	0,52
412,8	0,517
413,3	0,513
413,7	0,511
414,2	0,509
414,7	0,506
415,1	0,503
415,6	0,501
416	0,498
416,5	0,497
416,9	0,493
417,4	0,491
417,8	0,488
418,3	0,485
418,8	0,482
419,2	0,479
419,7	0,476
420,1	0,474
420,6	0,471
421	0,469
421,5	0,467
421,9	0,465
422,4	0,463
422,8	0,461
423,3	0,459
423,8	0,457
424,2	0,455
424,7	0,453
425,1	0,451
425,6	0,449
426	0,446
426,5	0,444
426,9	0,442
427,4	0,44
427,9	0,438
428,3	0,436
428,8	0,434
429,2	0,431
429,7	0,43
430,1	0,427
430,6	0,425
431	0,423
431,5	0,421
431,9	0,419
432,4	0,418
432,8	0,417
433,3	0,415
433,8	0,412
434,2	0,411
434,7	0,408
435,1	0,407
435,6	0,406
436	0,404
436,5	0,402
436,9	0,402
437,4	0,4
437,8	0,399
438,3	0,397
438,8	0,396
439,2	0,394
439,7	0,393
440,1	0,391
440,6	0,39
441	0,388
441,5	0,386
441,9	0,385
442,4	0,383
442,8	0,381
443,3	0,38
443,7	0,378
444,2	0,377
444,7	0,376
445,1	0,374
445,6	0,372
446	0,371
446,5	0,371
446,9	0,37
447,4	0,37
447,8	0,368
448,3	0,367
448,7	0,365
449,2	0,363
449,6	0,361
450,1	0,359
450,6	0,358
451	0,358
451,5	0,356
451,9	0,355
452,4	0,354
452,8	0,353
453,3	0,352
453,7	0,351
454,2	0,349
454,6	0,349
455,1	0,348
455,5	0,347
456	0,345
456,4	0,344
456,9	0,342
457,3	0,341
457,8	0,339
458,3	0,338
458,7	0,337
459,2	0,336
459,6	0,335
460,1	0,334
460,5	0,333
461	0,333
461,4	0,331
461,9	0,33
462,3	0,328
462,8	0,327
463,2	0,325
463,7	0,324
464,1	0,322
464,6	0,322
465	0,321
465,5	0,32
466	0,319
466,4	0,319
466,9	0,318
467,3	0,317
467,8	0,316
468,2	0,315
468,7	0,315
469,1	0,314
469,6	0,313
470	0,312
470,5	0,311
470,9	0,31
471,4	0,308
471,8	0,307
472,3	0,306
472,7	0,305
473,2	0,305
473,6	0,305
474,1	0,303
474,5	0,303
475	0,301
475,4	0,3
475,9	0,299
476,4	0,297
476,8	0,295
477,3	0,295
477,7	0,294
478,2	0,294
478,6	0,293
479,1	0,292
479,5	0,292
480	0,292
480,4	0,29
480,9	0,29
481,3	0,289
481,8	0,287
482,2	0,286
482,7	0,286
483,1	0,285
483,6	0,283
484	0,282
484,5	0,281
484,9	0,281
485,4	0,279
485,8	0,277
486,3	0,281
486,7	0,28
487,2	0,278
487,6	0,278
488,1	0,277
488,5	0,277
489	0,276
489,4	0,269
489,9	0,27
490,4	0,271
490,8	0,272
491,3	0,271
491,7	0,271
492,2	0,27
492,6	0,269
493,1	0,268
493,5	0,267
494	0,267
494,4	0,266
494,9	0,265
495,3	0,266
495,8	0,264
496,2	0,263
496,7	0,262
497,1	0,261
497,6	0,26
498	0,259
498,5	0,258
498,9	0,257
499,4	0,256
499,8	0,255
500,3	0,255
500,7	0,254
501,2	0,254
501,6	0,253
502,1	0,252
502,5	0,252
503	0,251
503,4	0,251
503,9	0,25
504,3	0,249
504,8	0,248
505,2	0,247
505,7	0,246
506,1	0,245
506,6	0,245
507	0,243
507,5	0,243
507,9	0,242
508,4	0,243
508,8	0,242
509,3	0,241
509,7	0,241
510,2	0,24
510,6	0,24
511,1	0,239
511,5	0,237
512	0,237
512,4	0,236
512,9	0,235
513,3	0,234
513,8	0,233
514,2	0,232
514,7	0,233
515,1	0,232
515,6	0,231
516	0,23
516,5	0,23
516,9	0,229
517,4	0,228
517,8	0,227
518,3	0,227
518,7	0,227
519,2	0,226
519,6	0,227
520,1	0,226
520,5	0,225
521	0,225
521,4	0,225
521,9	0,224
522,3	0,224
522,8	0,222
523,2	0,222
523,7	0,221
524,1	0,22
524,6	0,219
525	0,218
525,5	0,218
525,9	0,217
526,4	0,216
526,8	0,215
527,3	0,215
527,7	0,214
528,2	0,213
528,6	0,213
529,1	0,213
529,5	0,212
530	0,212
530,4	0,211
530,9	0,21
531,3	0,21
531,8	0,209
532,2	0,208
532,6	0,207
533,1	0,207
533,5	0,207
534	0,206
534,4	0,206
534,9	0,206
535,3	0,205
535,8	0,205
536,2	0,204
536,7	0,203
537,1	0,203
537,6	0,203
538	0,202
538,5	0,202
538,9	0,201
539,4	0,201
539,8	0,201
540,3	0,2
540,7	0,199
541,2	0,199
541,6	0,198
542,1	0,198
542,5	0,198
543	0,197
543,4	0,197
543,9	0,197
544,3	0,196
544,8	0,196
545,2	0,196
545,7	0,195
546,1	0,195
546,5	0,194
547	0,193
547,4	0,193
547,9	0,193
548,3	0,192
548,8	0,191
549,2	0,191
549,7	0,19
550,1	0,19
550,6	0,189
551	0,187
551,5	0,187
551,9	0,187
552,4	0,186
552,8	0,186
553,3	0,186
553,7	0,185
554,2	0,186
554,6	0,185
555,1	0,184
555,5	0,185
555,9	0,184
556,4	0,183
556,8	0,183
557,3	0,182
557,7	0,182
558,2	0,182
558,6	0,182
559,1	0,181
559,5	0,181
560	0,18
560,4	0,18
560,9	0,178
561,3	0,178
561,8	0,177
562,2	0,177
562,7	0,177
563,1	0,178
563,6	0,178
564	0,177
564,4	0,178
564,9	0,177
565,3	0,177
565,8	0,176
566,2	0,175
566,7	0,175
567,1	0,175
567,6	0,174
568	0,174
568,5	0,173
568,9	0,173
569,4	0,173
569,8	0,173
570,3	0,172
570,7	0,172
571,1	0,172
571,6	0,172
572	0,171
572,5	0,17
572,9	0,169
573,4	0,169
573,8	0,169
574,3	0,169
574,7	0,168
575,2	0,167
575,6	0,168
576,1	0,168
576,5	0,167
576,9	0,167
577,4	0,167
577,8	0,167
578,3	0,166
578,7	0,166
579,2	0,166
579,6	0,166
580,1	0,165
580,5	0,164
581	0,163
581,4	0,164
581,9	0,164
582,3	0,164
582,7	0,163
583,2	0,162
583,6	0,161
584,1	0,162
584,5	0,161
585	0,161
585,4	0,161
585,9	0,162
586,3	0,162
586,8	0,162
587,2	0,161
587,6	0,161
588,1	0,161
588,5	0,16
589	0,16
589,4	0,16
589,9	0,16
590,3	0,159
590,8	0,159
591,2	0,159
591,7	0,159
592,1	0,158
592,5	0,159
593	0,159
593,4	0,158
593,9	0,157
594,3	0,156
594,8	0,156
595,2	0,156
595,7	0,155
596,1	0,154
596,6	0,154
597	0,154
597,4	0,155
597,9	0,153
598,3	0,153
598,8	0,153
599,2	0,153
599,7	0,152
600,1	0,152
600,6	0,151
601	0,151
601,4	0,151
601,9	0,15
602,3	0,15
602,8	0,15
603,2	0,15
603,7	0,151
604,1	0,15
604,6	0,15
605	0,15
605,4	0,15
605,9	0,149
606,3	0,148
606,8	0,148
607,2	0,148
607,7	0,148
608,1	0,148
608,6	0,147
609	0,147
609,4	0,148
609,9	0,148
610,3	0,147
610,8	0,147
611,2	0,146
611,7	0,146
612,1	0,146
612,6	0,145
613	0,145
613,4	0,144
613,9	0,144
614,3	0,144
614,8	0,144
615,2	0,144
615,7	0,144
616,1	0,143
616,6	0,143
617	0,143
617,4	0,143
617,9	0,143
618,3	0,143
618,8	0,142
619,2	0,143
619,7	0,143
620,1	0,142
620,5	0,141
621	0,14
621,4	0,141
621,9	0,141
622,3	0,14
622,8	0,14
623,2	0,14
623,6	0,139
624,1	0,14
624,5	0,139
625	0,138
625,4	0,138
625,9	0,138
626,3	0,137
626,8	0,138
627,2	0,138
627,6	0,138
628,1	0,138
628,5	0,138
629	0,138
629,4	0,138
629,9	0,137
630,3	0,137
630,7	0,137
631,2	0,136
631,6	0,137
632,1	0,136
632,5	0,135
633	0,136
633,4	0,135
633,8	0,135
634,3	0,134
634,7	0,134
635,2	0,134
635,6	0,133
636,1	0,132
636,5	0,132
636,9	0,132
637,4	0,132
637,8	0,131
638,3	0,131
638,7	0,131
639,2	0,131
639,6	0,131
640	0,131
640,5	0,131
640,9	0,131
641,4	0,13
641,8	0,13
642,2	0,129
642,7	0,129
643,1	0,128
643,6	0,128
644	0,128
644,5	0,128
644,9	0,128
645,3	0,128
645,8	0,127
646,2	0,127
646,7	0,127
647,1	0,127
647,6	0,127
648	0,128
648,4	0,128
648,9	0,128
649,3	0,128
649,8	0,128
650,2	0,127
650,6	0,127
651,1	0,126
651,5	0,126
652	0,126
652,4	0,126
652,9	0,125
653,3	0,125
653,7	0,124
654,2	0,123
654,6	0,12
655,1	0,116
655,5	0,11
655,9	0,077
656,4	0,055
656,8	0,062
657,3	0,064
657,7	0,064
658,2	0,062
658,6	0,054
659	0,074
659,5	0,129
659,9	0,136
660,4	0,138
660,8	0,137
661,2	0,135
661,7	0,133
662,1	0,13
662,6	0,128
663	0,126
663,4	0,125
663,9	0,124
664,3	0,124
664,8	0,123
665,2	0,122
665,6	0,121
666,1	0,12
666,5	0,12
667	0,12
667,4	0,119
667,9	0,12
668,3	0,119
668,7	0,12
669,2	0,12
669,6	0,119
670,1	0,119
670,5	0,118
670,9	0,118
671,4	0,118
671,8	0,118
672,3	0,118
672,7	0,118
673,1	0,118
673,6	0,117
674	0,117
674,5	0,117
674,9	0,117
675,3	0,117
675,8	0,117
676,2	0,116
676,7	0,116
677,1	0,116
677,5	0,116
678	0,115
678,4	0,115
678,9	0,116
679,3	0,116
679,7	0,116
680,2	0,116
680,6	0,115
681,1	0,115
681,5	0,115
681,9	0,114
682,4	0,113
682,8	0,113
683,3	0,113
683,7	0,113
684,1	0,113
684,6	0,113
685	0,113
685,5	0,113
685,9	0,113
686,3	0,112
686,8	0,112
687,2	0,112
687,7	0,112
688,1	0,111
688,5	0,111
689	0,111
689,4	0,111
689,9	0,111
690,3	0,111
690,7	0,111
691,2	0,111
691,6	0,112
692	0,111
692,5	0,111
692,9	0,11
693,4	0,11
693,8	0,11
694,2	0,109
694,7	0,109
695,1	0,11
695,6	0,109
696	0,109
696,4	0,109
696,9	0,11
697,3	0,109
697,8	0,109
698,2	0,109
698,6	0,109
699,1	0,109
699,5	0,108
699,9	0,108
700,4	0,108
700,8	0,108
701,3	0,107
701,7	0,107
702,1	0,107
702,6	0,107
703	0,107
703,5	0,107
703,9	0,107
704,3	0,107
704,8	0,107
705,2	0,107
705,6	0,106
706,1	0,106
706,5	0,106
707	0,105
707,4	0,105
707,8	0,105
708,3	0,105
708,7	0,104
709,2	0,104
709,6	0,105
710	0,105
710,5	0,105
710,9	0,105
711,3	0,105
711,8	0,105
712,2	0,105
712,7	0,105
713,1	0,105
713,5	0,105
714	0,105
714,4	0,105
714,8	0,105
715,3	0,104
715,7	0,104
716,2	0,104
716,6	0,104
717	0,104
717,5	0,104
717,9	0,104
718,3	0,103
718,8	0,103
719,2	0,103
719,7	0,103
720,1	0,102
720,5	0,102
721	0,102
721,4	0,102
721,8	0,102
722,3	0,102
722,7	0,102
723,2	0,102
723,6	0,101
724	0,101
724,5	0,101
724,9	0,101
725,3	0,101
725,8	0,101
726,2	0,101
726,7	0,1
727,1	0,1
727,5	0,1
728	0,1
728,4	0,1
728,8	0,1
729,3	0,1
729,7	0,1
730,1	0,099
730,6	0,099
731	0,099
731,5	0,099
731,9	0,099
732,3	0,098
732,8	0,098
733,2	0,098
733,6	0,098
734,1	0,097
734,5	0,097
734,9	0,097
735,4	0,097
735,8	0,097
736,3	0,097
736,7	0,097
737,1	0,097
737,6	0,097
738	0,098
738,4	0,098
738,9	0,098
739,3	0,098
739,7	0,097
740,2	0,097
740,6	0,096
741,1	0,096
741,5	0,095
741,9	0,095
742,4	0,095
742,8	0,096
743,2	0,096
743,7	0,096
744,1	0,096
744,5	0,096
745	0,096
745,4	0,096
745,8	0,095
746,3	0,095
746,7	0,095
747,2	0,095
747,6	0,094
748	0,094
748,5	0,093
748,9	0,093
749,3	0,093
749,8	0,093
750,2	0,093
750,6	0,092
751,1	0,092
751,5	0,092
751,9	0,092
752,4	0,092
752,8	0,091
753,3	0,091
753,7	0,092
754,1	0,092
754,6	0,092
755	0,092
755,4	0,092
755,9	0,092
756,3	0,092
756,7	0,093
757,2	0,093
757,6	0,092
758	0,092
758,5	0,092
758,9	0,092
759,3	0,092
759,8	0,092
760,2	0,092
760,6	0,092
761,1	0,092
761,5	0,091
761,9	0,091
762,4	0,091
762,8	0,091
763,3	0,091
763,7	0,091
764,1	0,091
764,6	0,091
765	0,091
765,4	0,09
765,9	0,09
766,3	0,09
766,7	0,09
767,2	0,09
767,6	0,09
768	0,09
768,5	0,09
768,9	0,09
769,3	0,089
769,8	0,088
770,2	0,088
770,6	0,087
771,1	0,087
771,5	0,087
771,9	0,087
772,4	0,087
772,8	0,087
773,2	0,087
773,7	0,087
774,1	0,087
774,5	0,087
775	0,087
775,4	0,087
775,8	0,087
776,3	0,087
776,7	0,087
777,1	0,087
777,6	0,087
778	0,087
778,4	0,087
778,9	0,087
779,3	0,087
779,7	0,087
780,2	0,086
780,6	0,087
781	0,086
781,5	0,086
781,9	0,086
782,3	0,085
782,8	0,085
783,2	0,085
783,6	0,084
784,1	0,084
784,5	0,085
784,9	0,085
785,4	0,085
785,8	0,085
786,2	0,085
786,7	0,085
787,1	0,085
787,5	0,085
788	0,085
788,4	0,085
788,8	0,084
789,3	0,084
789,7	0,084
790,1	0,084
790,6	0,084
791	0,084
791,4	0,084
791,9	0,084
792,3	0,084
792,7	0,084
793,2	0,084
793,6	0,084
794	0,083
794,5	0,083
794,9	0,083
795,3	0,083
795,8	0,083
796,2	0,083
796,6	0,083
797,1	0,083
797,5	0,083
797,9	0,083
798,4	0,083
798,8	0,083
799,2	0,083
799,7	0,082
800,1	0,082
800,5	0,083
801	0,083
801,4	0,082
801,8	0,082
802,2	0,082
802,7	0,082
803,1	0,082
803,5	0,082
804	0,081
804,4	0,081
804,8	0,081
805,3	0,081
805,7	0,08
806,1	0,08
806,6	0,08
807	0,08
807,4	0,08
807,9	0,08
808,3	0,08
808,7	0,08
809,2	0,081
809,6	0,08
810	0,081
810,4	0,08
810,9	0,08
811,3	0,08
811,7	0,08
812,2	0,079
812,6	0,08
813	0,079
813,5	0,079
813,9	0,079
814,3	0,079
814,8	0,079
815,2	0,079
815,6	0,079
816,1	0,079
816,5	0,079
816,9	0,078
817,3	0,078
817,8	0,079
818,2	0,079
818,6	0,078
819,1	0,078
819,5	0,078
819,9	0,078
820,4	0,078
820,8	0,078
821,2	0,078
821,7	0,078
822,1	0,077
822,5	0,078
822,9	0,078
823,4	0,078
823,8	0,078
824,2	0,078
824,7	0,078
825,1	0,078
825,5	0,078
826	0,078
826,4	0,078
826,8	0,078
827,3	0,077
827,7	0,077
828,1	0,077
828,5	0,076
829	0,076
829,4	0,076
829,8	0,076
830,3	0,076
830,7	0,076
831,1	0,076
831,6	0,076
832	0,076
832,4	0,076
832,8	0,076
833,3	0,076
833,7	0,075
834,1	0,075
834,6	0,075
835	0,075
835,4	0,075
835,8	0,075
836,3	0,075
836,7	0,075
837,1	0,075
837,6	0,075
838	0,075
838,4	0,075
838,9	0,075
839,3	0,075
839,7	0,075
840,1	0,074
840,6	0,074
841	0,073
841,4	0,073
841,9	0,073
842,3	0,073
842,7	0,073
843,1	0,073
843,6	0,073
844	0,073
844,4	0,073
844,9	0,073
845,3	0,072
845,7	0,072
846,2	0,072
846,6	0,072
847	0,072
847,4	0,072
847,9	0,072
848,3	0,072
848,7	0,072
849,2	0,072
849,6	0,072
850	0,072
850,4	0,072
850,9	0,072
851,3	0,072
851,7	0,072
852,2	0,072
852,6	0,072
853	0,071
853,4	0,071
853,9	0,071
854,3	0,071
854,7	0,071
855,2	0,071
855,6	0,071
856	0,071
856,4	0,072
856,9	0,072
857,3	0,071
857,7	0,071
858,2	0,071
858,6	0,07
859	0,07
859,4	0,07
859,9	0,07
860,3	0,07
860,7	0,07
861,1	0,071
861,6	0,071
862	0,071
862,4	0,071
862,9	0,071
863,3	0,07
863,7	0,07
864,1	0,069
864,6	0,069
865	0,069
865,4	0,068
865,9	0,068
866,3	0,069
866,7	0,068
867,1	0,069
867,6	0,07
868	0,069
868,4	0,069
868,8	0,069
869,3	0,069
869,7	0,069
870,1	0,068
870,6	0,068
871	0,067
871,4	0,068
871,8	0,067
872,3	0,067
872,7	0,067
873,1	0,067
873,5	0,067
874	0,067
874,4	0,067
874,8	0,067
875,3	0,067
875,7	0,066
876,1	0,066
876,5	0,066
877	0,066
877,4	0,066
877,8	0,066
878,2	0,065
878,7	0,066
879,1	0,066
879,5	0,066
879,9	0,066
880,4	0,066
880,8	0,066
881,2	0,066
881,7	0,066
882,1	0,066
882,5	0,066
882,9	0,065
883,4	0,065
883,8	0,064
884,2	0,064
884,6	0,064
885,1	0,064
885,5	0,064
885,9	0,064
886,3	0,065
886,8	0,065
887,2	0,065
887,6	0,065
888	0,065
888,5	0,065
888,9	0,065
889,3	0,065
889,8	0,065
890,2	0,065
890,6	0,065
891	0,066
891,5	0,066
891,9	0,066
892,3	0,066
892,7	0,066
893,2	0,066
893,6	0,066
894	0,066
894,4	0,066
894,9	0,065
895,3	0,065
895,7	0,065
896,1	0,065
896,6	0,064
897	0,064
897,4	0,064
897,8	0,064
898,3	0,064
898,7	0,064
899,1	0,065
899,5	0,065
900	0,065
900,4	0,065
900,8	0,064
901,2	0,064
901,7	0,063
902,1	0,063
902,5	0,063
902,9	0,063
903,4	0,063
903,8	0,063
904,2	0,063
904,6	0,063
905,1	0,063
905,5	0,063
905,9	0,063
906,3	0,064
906,8	0,063
907,2	0,064
907,6	0,064
908	0,064
908,5	0,064
908,9	0,064
909,3	0,064
909,7	0,064
910,2	0,064
910,6	0,064
911	0,064
911,4	0,064
911,9	0,064
912,3	0,064
912,7	0,064
913,1	0,064
913,6	0,065
914	0,065
914,4	0,064
914,8	0,064
915,3	0,064
915,7	0,065
916,1	0,065
916,5	0,064
916,9	0,064
917,4	0,064
917,8	0,063
918,2	0,063
918,6	0,063
919,1	0,062
919,5	0,062
919,9	0,062
920,3	0,062
920,8	0,062
921,2	0,062
921,6	0,062
922	0,062
922,5	0,062
922,9	0,062
923,3	0,062
923,7	0,062
924,2	0,062
924,6	0,062
925	0,062
925,4	0,062
925,8	0,062
926,3	0,062
926,7	0,062
927,1	0,062
927,5	0,061
928	0,061
928,4	0,061
928,8	0,062
929,2	0,061
929,7	0,061
930,1	0,061
930,5	0,061
930,9	0,061
931,3	0,06
931,8	0,06
932,2	0,059
932,6	0,059
933	0,059
933,5	0,059
933,9	0,058
934,3	0,058
934,7	0,058
935,2	0,058
935,6	0,059
936	0,059
936,4	0,059
936,8	0,06
937,3	0,06
937,7	0,06
938,1	0,06
938,5	0,06
939	0,059
939,4	0,059
939,8	0,059
940,2	0,06
940,6	0,06
941,1	0,06
941,5	0,06
941,9	0,06
942,3	0,061
942,8	0,06
943,2	0,06
943,6	0,059
944	0,059
944,4	0,059
944,9	0,059
945,3	0,059
945,7	0,059
946,1	0,059
946,6	0,059
947	0,058
947,4	0,058
947,8	0,058
948,2	0,058
948,7	0,058
949,1	0,057
949,5	0,057
949,9	0,057
950,3	0,057
950,8	0,056
951,2	0,056
951,6	0,056
952	0,057
952,5	0,056
952,9	0,057
953,3	0,056
953,7	0,056
954,1	0,056
954,6	0,056
955	0,055
955,4	0,055
955,8	0,055
956,2	0,055
956,7	0,055
957,1	0,054
957,5	0,054
957,9	0,054
958,3	0,054
958,8	0,054
959,2	0,054
959,6	0,053
960	0,053
960,5	0,052
960,9	0,052
961,3	0,052
961,7	0,052
962,1	0,052
962,6	0,052
963	0,053
963,4	0,053
963,8	0,054
964,2	0,054
964,7	0,054
965,1	0,054
965,5	0,054
965,9	0,055
966,3	0,055
966,8	0,054
967,2	0,055
967,6	0,055
968	0,055
968,4	0,055
968,9	0,055
969,3	0,055
969,7	0,055
970,1	0,056
970,5	0,056
971	0,056
971,4	0,056
971,8	0,055
972,2	0,054
972,6	0,054
973,1	0,053
973,5	0,053
973,9	0,053
974,3	0,053
974,7	0,053
975,2	0,053
975,6	0,053
976	0,053
976,4	0,054
976,8	0,053
977,3	0,053
977,7	0,054
978,1	0,053
978,5	0,053
978,9	0,052
979,4	0,052
979,8	0,052
980,2	0,052
980,6	0,051
981	0,051
981,5	0,052
981,9	0,051
982,3	0,052
982,7	0,052
983,1	0,052
983,6	0,052
984	0,052
984,4	0,052
984,8	0,052
985,2	0,051
985,6	0,051
986,1	0,05
986,5	0,051
986,9	0,051
987,3	0,05
987,7	0,051
988,2	0,051
988,6	0,051
989	0,052
989,4	0,052
989,8	0,052
990,3	0,052
990,7	0,052
991,1	0,052
991,5	0,051
991,9	0,051
992,3	0,051
992,8	0,05
993,2	0,05
993,6	0,05
994	0,05
994,4	0,05
994,9	0,05
995,3	0,05
995,7	0,05
996,1	0,049
996,5	0,048
996,9	0,049
997,4	0,048
997,8	0,048
998,2	0,048
998,6	0,048
999	0,048
999,5	0,049
999,9	0,049
1000,3	0,049
1000,7	0,049
1001,1	0,049
1001,5	0,049
1002	0,05
1002,4	0,05
1002,8	0,05
1003,2	0,05
1003,6	0,051
1004	0,051
1004,5	0,051
1004,9	0,05
1005,3	0,05
1005,7	0,051
1006,1	0,05
1006,6	0,05
1007	0,05
1007,4	0,05
1007,8	0,05
1008,2	0,051
1008,6	0,051
1009,1	0,051
1009,5	0,05
1009,9	0,05
1010,3	0,051
1010,7	0,05
1011,1	0,05
1011,6	0,05
1012	0,05
1012,4	0,051
1012,8	0,051
1013,2	0,05
1013,6	0,051
1014,1	0,05
1014,5	0,049
1014,9	0,048
1015,3	0,047
1015,7	0,048
1016,1	0,048
1016,6	0,048
1017	0,047
1017,4	0,049
1017,8	0,049
1018,2	0,049
1018,6	0,049
1019,1	0,049
1019,5	0,05
1019,9	0,05
1020,3	0,049
1020,7	0,05
1021,1	0,049
1021,6	0,05
1022	0,05
1022,4	0,05
1022,8	0,05
1023,2	0,051
1023,6	0,05
1024,1	0,05
1024,5	0,05
1024,9	0,049
1025,3	0,049
1025,7	0,048
1026,1	0,047
1026,6	0,047
1027	0,046
1027,4	0,045
1027,8	0,046
1028,2	0,046
1028,6	0,046
1029	0,046
1029,5	0,047
1029,9	0,048
1030,3	0,047
1030,7	0,047
1031,1	0,047
1031,5	0,047
1032	0,047
1032,4	0,047
1032,8	0,047
1033,2	0,047
1033,6	0,047
1034	0,046
1034,4	0,046
1034,9	0,046
1035,3	0,045
1035,7	0,045
1036,1	0,045
1036,5	0,044
1036,9	0,045
1037,4	0,046
1037,8	0,046
1038,2	0,046
1038,6	0,046
1039	0,046
1039,4	0,046
1039,8	0,045
1040,3	0,044
1040,7	0,044
1041,1	0,044
1041,5	0,045
1041,9	0,046
1042,3	0,045
1042,7	0,046
1043,2	0,046
1043,6	0,046
1044	0,046
1044,4	0,045
1044,8	0,045
1045,2	0,044
1045,6	0,044
1046,1	0,044
1046,5	0,044
1046,9	0,044
1047,3	0,044
1047,7	0,044
1048,1	0,045
1048,5	0,044
1049	0,044
1049,4	0,044
1049,8	0,044
1050,2	0,044
1050,6	0,043
1051	0,043
1051,4	0,043
1051,9	0,043
1052,3	0,043
1052,7	0,044
1053,1	0,043
1053,5	0,044
1053,9	0,044
1054,3	0,045
1054,8	0,045
1055,2	0,046
1055,6	0,045
1056	0,046
1056,4	0,046
1056,8	0,046
1057,2	0,045
1057,6	0,044
1058,1	0,043
1058,5	0,044
1058,9	0,043
1059,3	0,044
1059,7	0,044
1060,1	0,044
1060,5	0,045
1061	0,044
1061,4	0,043
1061,8	0,042
1062,2	0,042
1062,6	0,041
1063	0,042
1063,4	0,041
1063,8	0,042
1064,3	0,041
1064,7	0,042
1065,1	0,042
1065,5	0,043
1065,9	0,043
1066,3	0,042
1066,7	0,043
1067,1	0,044
1067,6	0,044
1068	0,043
1068,4	0,043
1068,8	0,042
1069,2	0,042
1069,6	0,041
1070	0,041
1070,4	0,039
1070,9	0,04
1071,3	0,039
1071,7	0,04
1072,1	0,039
1072,5	0,04
1072,9	0,04
1073,3	0,04
1073,7	0,041
1074,2	0,042
1074,6	0,041
1075	0,04
1075,4	0,04
1075,8	0,039
1076,2	0,04
1076,6	0,04
1077	0,038
1077,5	0,039
1077,9	0,039
1078,3	0,038
1078,7	0,038
1079,1	0,039
1079,5	0,038
1079,9	0,04
1080,3	0,039
1080,7	0,041
1081,2	0,041
1081,6	0,041
1082	0,04
1082,4	0,039
1082,8	0,038
1083,2	0,037
1083,6	0,035
1084	0,036
1084,5	0,036
1084,9	0,035
1085,3	0,036
1085,7	0,036
1086,1	0,036
1086,5	0,037
1086,9	0,037
1087,3	0,037
1087,7	0,038
1088,2	0,037
1088,6	0,037
1089	0,039
1089,4	0,039
1089,8	0,04
1090,2	0,036
1090,6	0,037
1091	0,035
1091,4	0,034
1091,9	0,033
1092,3	0,029
1092,7	0,027
1093,1	0,03
1093,5	0,029
1093,9	0,033
1094,3	0,034
1094,7	0,032
1095,1	0,033
1095,5	0,033
1096	0,034
1096,4	0,036
1096,8	0,037
1097,2	0,035
1097,6	0,03
1098	0,032
1098,4	0,032
1098,8	0,026
1099,2	0,015
1099,6	0,008
1100,1	0,014
1100,5	0,018
1100,9	0,014
1101,3	0,02
1101,7	0,017
1102,1	0,028
1102,5	0,018
1102,9	0,011
1103,3	0,012
1103,7	0,013
1104,2	0,005
1104,6	0,003
1105	-0,011
1105,4	-0,004
1105,8	0,002
1106,2	0
1106,6	-0,01
1107	-0,018
1107,4	-0,009
1107,8	0,041
1108,3	-0,159
