Data from Absorbance_00027.txt Node
Date: Wed Aug 02 14:09:46 MSK 2023
User: vat
Spectrometer: MAYP114033
Trigger mode: 0
Integration Time (sec): 8,000000E-3
Scans to average: 10
Electric dark correction enabled: true
Nonlinearity correction enabled: false
Boxcar width: 3
XAxis mode: Wavelengths
Number of Pixels in Spectrum: 2068
>>>>>Begin Spectral Data<<<<<
199,4	-0,732
199,9	-0,18
200,4	0,15
200,8	0,559
201,3	0,749
201,8	0,838
202,2	0,897
202,7	0,927
203,2	0,982
203,6	1,043
204,1	1,064
204,6	1,072
205	1,079
205,5	1,088
206	1,103
206,4	1,127
206,9	1,138
207,4	1,145
207,8	1,172
208,3	1,175
208,8	1,184
209,2	1,191
209,7	1,206
210,2	1,216
210,6	1,243
211,1	1,24
211,5	1,264
212	1,287
212,5	1,307
212,9	1,318
213,4	1,328
213,9	1,341
214,3	1,366
214,8	1,378
215,3	1,378
215,7	1,391
216,2	1,401
216,7	1,413
217,1	1,44
217,6	1,435
218,1	1,462
218,5	1,492
219	1,519
219,5	1,529
219,9	1,565
220,4	1,562
220,9	1,613
221,3	1,598
221,8	1,619
222,3	1,634
222,7	1,663
223,2	1,658
223,6	1,677
224,1	1,674
224,6	1,692
225	1,688
225,5	1,685
226	1,698
226,4	1,721
226,9	1,715
227,4	1,734
227,8	1,76
228,3	1,792
228,8	1,821
229,2	1,829
229,7	1,865
230,2	1,887
230,6	1,892
231,1	1,899
231,5	1,901
232	1,895
232,5	1,89
232,9	1,866
233,4	1,888
233,9	1,898
234,3	1,904
234,8	1,922
235,3	1,943
235,7	1,966
236,2	1,981
236,7	1,99
237,1	1,997
237,6	2,02
238,1	2,037
238,5	2,035
239	2,028
239,4	2,04
239,9	2,038
240,4	2,038
240,8	2,046
241,3	2,017
241,8	2,037
242,2	2,058
242,7	2,066
243,2	2,074
243,6	2,099
244,1	2,082
244,6	2,103
245	2,109
245,5	2,102
245,9	2,096
246,4	2,097
246,9	2,092
247,3	2,104
247,8	2,118
248,3	2,116
248,7	2,113
249,2	2,124
249,7	2,134
250,1	2,137
250,6	2,149
251	2,119
251,5	2,102
252	2,111
252,4	2,115
252,9	2,116
253,4	2,103
253,8	2,108
254,3	2,129
254,8	2,154
255,2	2,163
255,7	2,168
256,1	2,169
256,6	2,192
257,1	2,194
257,5	2,178
258	2,167
258,5	2,174
258,9	2,174
259,4	2,172
259,9	2,164
260,3	2,155
260,8	2,166
261,2	2,172
261,7	2,175
262,2	2,146
262,6	2,147
263,1	2,134
263,6	2,134
264	2,133
264,5	2,129
264,9	2,113
265,4	2,132
265,9	2,119
266,3	2,131
266,8	2,141
267,3	2,154
267,7	2,181
268,2	2,198
268,7	2,188
269,1	2,189
269,6	2,184
270	2,166
270,5	2,17
271	2,133
271,4	2,135
271,9	2,154
272,4	2,172
272,8	2,197
273,3	2,183
273,7	2,165
274,2	2,203
274,7	2,194
275,1	2,202
275,6	2,185
276,1	2,171
276,5	2,195
277	2,193
277,4	2,194
277,9	2,204
278,4	2,195
278,8	2,22
279,3	2,242
279,8	2,263
280,2	2,263
280,7	2,245
281,1	2,265
281,6	2,254
282,1	2,261
282,5	2,24
283	2,207
283,4	2,225
283,9	2,223
284,4	2,205
284,8	2,24
285,3	2,228
285,8	2,233
286,2	2,244
286,7	2,229
287,1	2,217
287,6	2,203
288,1	2,175
288,5	2,174
289	2,156
289,5	2,14
289,9	2,116
290,4	2,091
290,8	2,068
291,3	2,029
291,8	1,978
292,2	1,959
292,7	1,927
293,1	1,901
293,6	1,876
294,1	1,851
294,5	1,828
295	1,812
295,5	1,786
295,9	1,769
296,4	1,761
296,8	1,745
297,3	1,735
297,8	1,721
298,2	1,709
298,7	1,694
299,1	1,679
299,6	1,664
300,1	1,655
300,5	1,637
301	1,63
301,5	1,624
301,9	1,617
302,4	1,612
302,8	1,601
303,3	1,594
303,8	1,593
304,2	1,583
304,7	1,574
305,1	1,565
305,6	1,555
306,1	1,546
306,5	1,534
307	1,519
307,4	1,509
307,9	1,502
308,4	1,496
308,8	1,487
309,3	1,479
309,8	1,47
310,2	1,46
310,7	1,448
311,1	1,435
311,6	1,422
312,1	1,411
312,5	1,398
313	1,386
313,4	1,379
313,9	1,372
314,4	1,36
314,8	1,349
315,3	1,337
315,7	1,329
316,2	1,317
316,7	1,305
317,1	1,292
317,6	1,279
318	1,266
318,5	1,258
319	1,246
319,4	1,238
319,9	1,225
320,3	1,215
320,8	1,205
321,3	1,197
321,7	1,186
322,2	1,176
322,6	1,162
323,1	1,154
323,6	1,143
324	1,13
324,5	1,119
324,9	1,106
325,4	1,094
325,9	1,082
326,3	1,07
326,8	1,06
327,2	1,05
327,7	1,04
328,2	1,029
328,6	1,017
329,1	1,007
329,5	0,996
330	0,986
330,5	0,977
330,9	0,965
331,4	0,956
331,8	0,945
332,3	0,935
332,8	0,924
333,2	0,913
333,7	0,901
334,1	0,892
334,6	0,88
335,1	0,871
335,5	0,861
336	0,85
336,4	0,841
336,9	0,831
337,4	0,819
337,8	0,809
338,3	0,799
338,7	0,788
339,2	0,779
339,7	0,77
340,1	0,759
340,6	0,749
341	0,74
341,5	0,731
342	0,723
342,4	0,713
342,9	0,702
343,3	0,694
343,8	0,685
344,2	0,677
344,7	0,667
345,2	0,659
345,6	0,651
346,1	0,642
346,5	0,632
347	0,625
347,5	0,617
347,9	0,61
348,4	0,602
348,8	0,595
349,3	0,588
349,8	0,58
350,2	0,572
350,7	0,564
351,1	0,557
351,6	0,55
352	0,541
352,5	0,534
353	0,527
353,4	0,521
353,9	0,514
354,3	0,507
354,8	0,501
355,3	0,496
355,7	0,49
356,2	0,485
356,6	0,478
357,1	0,473
357,5	0,468
358	0,462
358,5	0,455
358,9	0,45
359,4	0,444
359,8	0,44
360,3	0,435
360,8	0,429
361,2	0,424
361,7	0,42
362,1	0,416
362,6	0,411
363	0,406
363,5	0,401
364	0,397
364,4	0,393
364,9	0,389
365,3	0,384
365,8	0,381
366,3	0,377
366,7	0,372
367,2	0,369
367,6	0,366
368,1	0,363
368,5	0,359
369	0,356
369,5	0,353
369,9	0,35
370,4	0,346
370,8	0,342
371,3	0,338
371,7	0,336
372,2	0,333
372,7	0,33
373,1	0,327
373,6	0,325
374	0,323
374,5	0,32
374,9	0,317
375,4	0,314
375,9	0,311
376,3	0,308
376,8	0,305
377,2	0,302
377,7	0,3
378,2	0,297
378,6	0,295
379,1	0,292
379,5	0,289
380	0,287
380,4	0,284
380,9	0,281
381,4	0,277
381,8	0,273
382,3	0,27
382,7	0,266
383,2	0,261
383,6	0,258
384,1	0,255
384,6	0,251
385	0,248
385,5	0,245
385,9	0,241
386,4	0,238
386,8	0,234
387,3	0,23
387,7	0,227
388,2	0,223
388,7	0,22
389,1	0,217
389,6	0,213
390	0,21
390,5	0,207
390,9	0,203
391,4	0,199
391,9	0,196
392,3	0,192
392,8	0,19
393,2	0,188
393,7	0,185
394,1	0,184
394,6	0,182
395,1	0,181
395,5	0,179
396	0,177
396,4	0,175
396,9	0,172
397,3	0,17
397,8	0,169
398,2	0,167
398,7	0,165
399,2	0,164
399,6	0,163
400,1	0,162
400,5	0,161
401	0,16
401,4	0,158
401,9	0,157
402,4	0,156
402,8	0,155
403,3	0,153
403,7	0,153
404,2	0,152
404,6	0,15
405,1	0,149
405,5	0,148
406	0,147
406,5	0,147
406,9	0,146
407,4	0,145
407,8	0,145
408,3	0,145
408,7	0,144
409,2	0,143
409,6	0,142
410,1	0,141
410,6	0,14
411	0,139
411,5	0,138
411,9	0,137
412,4	0,136
412,8	0,136
413,3	0,135
413,7	0,135
414,2	0,134
414,7	0,133
415,1	0,132
415,6	0,132
416	0,131
416,5	0,13
416,9	0,129
417,4	0,129
417,8	0,128
418,3	0,127
418,8	0,126
419,2	0,126
419,7	0,126
420,1	0,125
420,6	0,124
421	0,124
421,5	0,124
421,9	0,123
422,4	0,122
422,8	0,122
423,3	0,122
423,8	0,121
424,2	0,12
424,7	0,12
425,1	0,12
425,6	0,119
426	0,118
426,5	0,118
426,9	0,117
427,4	0,117
427,9	0,116
428,3	0,116
428,8	0,115
429,2	0,114
429,7	0,114
430,1	0,113
430,6	0,114
431	0,113
431,5	0,112
431,9	0,112
432,4	0,111
432,8	0,11
433,3	0,11
433,8	0,108
434,2	0,108
434,7	0,108
435,1	0,107
435,6	0,107
436	0,106
436,5	0,106
436,9	0,107
437,4	0,105
437,8	0,105
438,3	0,104
438,8	0,104
439,2	0,104
439,7	0,103
440,1	0,103
440,6	0,102
441	0,101
441,5	0,101
441,9	0,101
442,4	0,101
442,8	0,1
443,3	0,1
443,7	0,1
444,2	0,1
444,7	0,1
445,1	0,099
445,6	0,099
446	0,099
446,5	0,099
446,9	0,099
447,4	0,1
447,8	0,1
448,3	0,099
448,7	0,098
449,2	0,098
449,6	0,097
450,1	0,096
450,6	0,095
451	0,095
451,5	0,095
451,9	0,095
452,4	0,095
452,8	0,095
453,3	0,095
453,7	0,096
454,2	0,095
454,6	0,096
455,1	0,095
455,5	0,095
456	0,094
456,4	0,093
456,9	0,093
457,3	0,092
457,8	0,092
458,3	0,092
458,7	0,092
459,2	0,092
459,6	0,092
460,1	0,092
460,5	0,092
461	0,092
461,4	0,092
461,9	0,092
462,3	0,092
462,8	0,091
463,2	0,091
463,7	0,091
464,1	0,09
464,6	0,09
465	0,089
465,5	0,089
466	0,089
466,4	0,089
466,9	0,089
467,3	0,089
467,8	0,089
468,2	0,089
468,7	0,089
469,1	0,089
469,6	0,089
470	0,089
470,5	0,089
470,9	0,089
471,4	0,088
471,8	0,088
472,3	0,087
472,7	0,087
473,2	0,086
473,6	0,086
474,1	0,086
474,5	0,085
475	0,085
475,4	0,085
475,9	0,085
476,4	0,085
476,8	0,085
477,3	0,085
477,7	0,086
478,2	0,086
478,6	0,087
479,1	0,087
479,5	0,087
480	0,087
480,4	0,087
480,9	0,086
481,3	0,086
481,8	0,085
482,2	0,084
482,7	0,084
483,1	0,083
483,6	0,083
484	0,083
484,5	0,083
484,9	0,083
485,4	0,082
485,8	0,082
486,3	0,085
486,7	0,085
487,2	0,084
487,6	0,084
488,1	0,084
488,5	0,085
489	0,085
489,4	0,081
489,9	0,082
490,4	0,083
490,8	0,084
491,3	0,085
491,7	0,085
492,2	0,085
492,6	0,085
493,1	0,084
493,5	0,084
494	0,084
494,4	0,084
494,9	0,084
495,3	0,084
495,8	0,084
496,2	0,083
496,7	0,084
497,1	0,084
497,6	0,083
498	0,083
498,5	0,083
498,9	0,083
499,4	0,083
499,8	0,083
500,3	0,083
500,7	0,083
501,2	0,082
501,6	0,083
502,1	0,082
502,5	0,083
503	0,082
503,4	0,083
503,9	0,084
504,3	0,084
504,8	0,083
505,2	0,083
505,7	0,083
506,1	0,083
506,6	0,083
507	0,082
507,5	0,082
507,9	0,083
508,4	0,083
508,8	0,083
509,3	0,083
509,7	0,083
510,2	0,083
510,6	0,083
511,1	0,083
511,5	0,083
512	0,083
512,4	0,083
512,9	0,083
513,3	0,084
513,8	0,084
514,2	0,084
514,7	0,085
515,1	0,085
515,6	0,086
516	0,085
516,5	0,085
516,9	0,084
517,4	0,084
517,8	0,084
518,3	0,084
518,7	0,084
519,2	0,085
519,6	0,085
520,1	0,085
520,5	0,084
521	0,084
521,4	0,084
521,9	0,084
522,3	0,084
522,8	0,082
523,2	0,083
523,7	0,083
524,1	0,084
524,6	0,084
525	0,084
525,5	0,085
525,9	0,085
526,4	0,084
526,8	0,084
527,3	0,084
527,7	0,084
528,2	0,083
528,6	0,083
529,1	0,084
529,5	0,085
530	0,086
530,4	0,085
530,9	0,085
531,3	0,084
531,8	0,084
532,2	0,084
532,6	0,084
533,1	0,084
533,5	0,084
534	0,084
534,4	0,085
534,9	0,085
535,3	0,085
535,8	0,084
536,2	0,084
536,7	0,084
537,1	0,084
537,6	0,084
538	0,084
538,5	0,084
538,9	0,084
539,4	0,083
539,8	0,083
540,3	0,083
540,7	0,083
541,2	0,083
541,6	0,083
542,1	0,083
542,5	0,084
543	0,083
543,4	0,083
543,9	0,083
544,3	0,083
544,8	0,083
545,2	0,083
545,7	0,083
546,1	0,083
546,5	0,083
547	0,083
547,4	0,083
547,9	0,082
548,3	0,082
548,8	0,081
549,2	0,081
549,7	0,081
550,1	0,081
550,6	0,08
551	0,079
551,5	0,079
551,9	0,079
552,4	0,078
552,8	0,079
553,3	0,079
553,7	0,079
554,2	0,08
554,6	0,08
555,1	0,08
555,5	0,08
555,9	0,08
556,4	0,079
556,8	0,079
557,3	0,078
557,7	0,079
558,2	0,078
558,6	0,079
559,1	0,078
559,5	0,078
560	0,078
560,4	0,078
560,9	0,076
561,3	0,076
561,8	0,076
562,2	0,075
562,7	0,076
563,1	0,076
563,6	0,077
564	0,077
564,4	0,077
564,9	0,077
565,3	0,078
565,8	0,077
566,2	0,077
566,7	0,077
567,1	0,076
567,6	0,076
568	0,076
568,5	0,075
568,9	0,075
569,4	0,075
569,8	0,075
570,3	0,074
570,7	0,074
571,1	0,074
571,6	0,074
572	0,074
572,5	0,074
572,9	0,073
573,4	0,074
573,8	0,073
574,3	0,073
574,7	0,073
575,2	0,072
575,6	0,072
576,1	0,072
576,5	0,072
576,9	0,072
577,4	0,072
577,8	0,072
578,3	0,071
578,7	0,071
579,2	0,071
579,6	0,071
580,1	0,071
580,5	0,07
581	0,069
581,4	0,07
581,9	0,07
582,3	0,07
582,7	0,069
583,2	0,068
583,6	0,068
584,1	0,069
584,5	0,068
585	0,068
585,4	0,068
585,9	0,069
586,3	0,069
586,8	0,069
587,2	0,068
587,6	0,068
588,1	0,068
588,5	0,067
589	0,067
589,4	0,067
589,9	0,067
590,3	0,067
590,8	0,066
591,2	0,066
591,7	0,066
592,1	0,065
592,5	0,066
593	0,066
593,4	0,065
593,9	0,065
594,3	0,064
594,8	0,064
595,2	0,064
595,7	0,064
596,1	0,063
596,6	0,063
597	0,063
597,4	0,063
597,9	0,063
598,3	0,062
598,8	0,062
599,2	0,062
599,7	0,062
600,1	0,061
600,6	0,06
601	0,061
601,4	0,061
601,9	0,06
602,3	0,06
602,8	0,06
603,2	0,06
603,7	0,06
604,1	0,059
604,6	0,059
605	0,059
605,4	0,059
605,9	0,059
606,3	0,058
606,8	0,058
607,2	0,059
607,7	0,059
608,1	0,058
608,6	0,059
609	0,059
609,4	0,059
609,9	0,059
610,3	0,058
610,8	0,058
611,2	0,057
611,7	0,057
612,1	0,057
612,6	0,057
613	0,056
613,4	0,056
613,9	0,056
614,3	0,056
614,8	0,055
615,2	0,055
615,7	0,055
616,1	0,055
616,6	0,055
617	0,054
617,4	0,054
617,9	0,054
618,3	0,054
618,8	0,054
619,2	0,054
619,7	0,054
620,1	0,054
620,5	0,053
621	0,053
621,4	0,053
621,9	0,053
622,3	0,053
622,8	0,053
623,2	0,052
623,6	0,052
624,1	0,052
624,5	0,051
625	0,051
625,4	0,05
625,9	0,05
626,3	0,05
626,8	0,051
627,2	0,051
627,6	0,05
628,1	0,051
628,5	0,051
629	0,05
629,4	0,051
629,9	0,05
630,3	0,05
630,7	0,05
631,2	0,049
631,6	0,05
632,1	0,049
632,5	0,049
633	0,049
633,4	0,049
633,8	0,049
634,3	0,049
634,7	0,048
635,2	0,048
635,6	0,048
636,1	0,047
636,5	0,047
636,9	0,047
637,4	0,046
637,8	0,046
638,3	0,046
638,7	0,045
639,2	0,045
639,6	0,045
640	0,045
640,5	0,045
640,9	0,045
641,4	0,044
641,8	0,044
642,2	0,044
642,7	0,044
643,1	0,044
643,6	0,043
644	0,043
644,5	0,043
644,9	0,043
645,3	0,043
645,8	0,043
646,2	0,043
646,7	0,043
647,1	0,042
647,6	0,042
648	0,043
648,4	0,043
648,9	0,043
649,3	0,043
649,8	0,043
650,2	0,043
650,6	0,043
651,1	0,042
651,5	0,042
652	0,042
652,4	0,041
652,9	0,041
653,3	0,04
653,7	0,039
654,2	0,039
654,6	0,036
655,1	0,033
655,5	0,026
655,9	0,017
656,4	0,012
656,8	0,014
657,3	0,015
657,7	0,016
658,2	0,016
658,6	0,017
659	0,026
659,5	0,043
659,9	0,05
660,4	0,051
660,8	0,05
661,2	0,049
661,7	0,048
662,1	0,046
662,6	0,045
663	0,043
663,4	0,042
663,9	0,041
664,3	0,041
664,8	0,04
665,2	0,04
665,6	0,04
666,1	0,04
666,5	0,039
667	0,038
667,4	0,038
667,9	0,038
668,3	0,038
668,7	0,038
669,2	0,038
669,6	0,038
670,1	0,038
670,5	0,038
670,9	0,037
671,4	0,038
671,8	0,038
672,3	0,037
672,7	0,037
673,1	0,037
673,6	0,037
674	0,037
674,5	0,037
674,9	0,037
675,3	0,037
675,8	0,037
676,2	0,037
676,7	0,037
677,1	0,036
677,5	0,036
678	0,036
678,4	0,035
678,9	0,035
679,3	0,036
679,7	0,035
680,2	0,035
680,6	0,035
681,1	0,035
681,5	0,035
681,9	0,035
682,4	0,034
682,8	0,034
683,3	0,034
683,7	0,034
684,1	0,034
684,6	0,034
685	0,034
685,5	0,034
685,9	0,034
686,3	0,033
686,8	0,033
687,2	0,033
687,7	0,033
688,1	0,033
688,5	0,033
689	0,033
689,4	0,033
689,9	0,034
690,3	0,033
690,7	0,033
691,2	0,033
691,6	0,034
692	0,033
692,5	0,033
692,9	0,033
693,4	0,032
693,8	0,032
694,2	0,032
694,7	0,033
695,1	0,033
695,6	0,033
696	0,033
696,4	0,033
696,9	0,033
697,3	0,033
697,8	0,032
698,2	0,032
698,6	0,032
699,1	0,032
699,5	0,032
699,9	0,032
700,4	0,032
700,8	0,031
701,3	0,031
701,7	0,031
702,1	0,031
702,6	0,031
703	0,03
703,5	0,031
703,9	0,031
704,3	0,031
704,8	0,031
705,2	0,031
705,6	0,03
706,1	0,03
706,5	0,03
707	0,03
707,4	0,03
707,8	0,03
708,3	0,03
708,7	0,03
709,2	0,03
709,6	0,03
710	0,03
710,5	0,03
710,9	0,03
711,3	0,03
711,8	0,03
712,2	0,03
712,7	0,03
713,1	0,03
713,5	0,03
714	0,03
714,4	0,03
714,8	0,031
715,3	0,03
715,7	0,03
716,2	0,03
716,6	0,03
717	0,03
717,5	0,03
717,9	0,03
718,3	0,03
718,8	0,03
719,2	0,03
719,7	0,03
720,1	0,03
720,5	0,029
721	0,029
721,4	0,03
721,8	0,03
722,3	0,029
722,7	0,029
723,2	0,029
723,6	0,029
724	0,029
724,5	0,028
724,9	0,028
725,3	0,029
725,8	0,028
726,2	0,028
726,7	0,028
727,1	0,028
727,5	0,028
728	0,028
728,4	0,028
728,8	0,028
729,3	0,028
729,7	0,028
730,1	0,028
730,6	0,029
731	0,028
731,5	0,028
731,9	0,028
732,3	0,028
732,8	0,028
733,2	0,027
733,6	0,027
734,1	0,027
734,5	0,027
734,9	0,027
735,4	0,027
735,8	0,027
736,3	0,027
736,7	0,027
737,1	0,026
737,6	0,026
738	0,026
738,4	0,027
738,9	0,027
739,3	0,027
739,7	0,027
740,2	0,027
740,6	0,027
741,1	0,027
741,5	0,026
741,9	0,026
742,4	0,026
742,8	0,026
743,2	0,027
743,7	0,027
744,1	0,027
744,5	0,027
745	0,027
745,4	0,028
745,8	0,027
746,3	0,027
746,7	0,027
747,2	0,027
747,6	0,026
748	0,026
748,5	0,026
748,9	0,025
749,3	0,025
749,8	0,025
750,2	0,025
750,6	0,024
751,1	0,024
751,5	0,024
751,9	0,024
752,4	0,024
752,8	0,024
753,3	0,024
753,7	0,024
754,1	0,024
754,6	0,025
755	0,025
755,4	0,025
755,9	0,025
756,3	0,026
756,7	0,026
757,2	0,026
757,6	0,026
758	0,026
758,5	0,026
758,9	0,026
759,3	0,026
759,8	0,026
760,2	0,026
760,6	0,026
761,1	0,026
761,5	0,025
761,9	0,025
762,4	0,025
762,8	0,025
763,3	0,025
763,7	0,025
764,1	0,025
764,6	0,026
765	0,025
765,4	0,025
765,9	0,025
766,3	0,025
766,7	0,025
767,2	0,025
767,6	0,025
768	0,025
768,5	0,025
768,9	0,024
769,3	0,024
769,8	0,023
770,2	0,023
770,6	0,023
771,1	0,023
771,5	0,022
771,9	0,022
772,4	0,023
772,8	0,023
773,2	0,023
773,7	0,023
774,1	0,022
774,5	0,023
775	0,023
775,4	0,022
775,8	0,022
776,3	0,022
776,7	0,022
777,1	0,023
777,6	0,023
778	0,023
778,4	0,023
778,9	0,023
779,3	0,024
779,7	0,024
780,2	0,023
780,6	0,024
781	0,024
781,5	0,023
781,9	0,023
782,3	0,023
782,8	0,023
783,2	0,023
783,6	0,022
784,1	0,022
784,5	0,022
784,9	0,023
785,4	0,022
785,8	0,023
786,2	0,023
786,7	0,023
787,1	0,023
787,5	0,023
788	0,023
788,4	0,023
788,8	0,023
789,3	0,022
789,7	0,022
790,1	0,023
790,6	0,023
791	0,022
791,4	0,022
791,9	0,022
792,3	0,023
792,7	0,022
793,2	0,022
793,6	0,022
794	0,022
794,5	0,022
794,9	0,022
795,3	0,022
795,8	0,022
796,2	0,022
796,6	0,022
797,1	0,022
797,5	0,022
797,9	0,023
798,4	0,023
798,8	0,023
799,2	0,023
799,7	0,023
800,1	0,022
800,5	0,023
801	0,022
801,4	0,022
801,8	0,022
802,2	0,021
802,7	0,021
803,1	0,021
803,5	0,021
804	0,021
804,4	0,021
804,8	0,021
805,3	0,021
805,7	0,021
806,1	0,021
806,6	0,021
807	0,022
807,4	0,022
807,9	0,022
808,3	0,022
808,7	0,022
809,2	0,022
809,6	0,022
810	0,021
810,4	0,021
810,9	0,021
811,3	0,021
811,7	0,021
812,2	0,021
812,6	0,021
813	0,021
813,5	0,021
813,9	0,021
814,3	0,021
814,8	0,021
815,2	0,021
815,6	0,021
816,1	0,021
816,5	0,021
816,9	0,021
817,3	0,021
817,8	0,021
818,2	0,021
818,6	0,021
819,1	0,021
819,5	0,021
819,9	0,021
820,4	0,021
820,8	0,02
821,2	0,02
821,7	0,021
822,1	0,02
822,5	0,021
822,9	0,02
823,4	0,02
823,8	0,021
824,2	0,021
824,7	0,021
825,1	0,021
825,5	0,021
826	0,021
826,4	0,021
826,8	0,021
827,3	0,021
827,7	0,02
828,1	0,021
828,5	0,021
829	0,02
829,4	0,02
829,8	0,02
830,3	0,02
830,7	0,02
831,1	0,02
831,6	0,02
832	0,02
832,4	0,02
832,8	0,02
833,3	0,02
833,7	0,02
834,1	0,02
834,6	0,019
835	0,019
835,4	0,02
835,8	0,02
836,3	0,02
836,7	0,02
837,1	0,02
837,6	0,02
838	0,02
838,4	0,02
838,9	0,02
839,3	0,02
839,7	0,02
840,1	0,02
840,6	0,02
841	0,02
841,4	0,02
841,9	0,019
842,3	0,019
842,7	0,019
843,1	0,019
843,6	0,019
844	0,018
844,4	0,018
844,9	0,018
845,3	0,018
845,7	0,018
846,2	0,018
846,6	0,018
847	0,018
847,4	0,018
847,9	0,018
848,3	0,018
848,7	0,018
849,2	0,018
849,6	0,018
850	0,018
850,4	0,018
850,9	0,018
851,3	0,018
851,7	0,018
852,2	0,018
852,6	0,018
853	0,018
853,4	0,018
853,9	0,019
854,3	0,019
854,7	0,019
855,2	0,019
855,6	0,019
856	0,019
856,4	0,019
856,9	0,018
857,3	0,018
857,7	0,018
858,2	0,018
858,6	0,018
859	0,018
859,4	0,017
859,9	0,018
860,3	0,018
860,7	0,018
861,1	0,018
861,6	0,018
862	0,019
862,4	0,019
862,9	0,019
863,3	0,018
863,7	0,018
864,1	0,018
864,6	0,018
865	0,017
865,4	0,017
865,9	0,018
866,3	0,018
866,7	0,017
867,1	0,018
867,6	0,018
868	0,018
868,4	0,018
868,8	0,018
869,3	0,019
869,7	0,019
870,1	0,018
870,6	0,018
871	0,018
871,4	0,018
871,8	0,018
872,3	0,017
872,7	0,017
873,1	0,017
873,5	0,017
874	0,017
874,4	0,017
874,8	0,017
875,3	0,017
875,7	0,017
876,1	0,017
876,5	0,017
877	0,017
877,4	0,016
877,8	0,016
878,2	0,016
878,7	0,016
879,1	0,016
879,5	0,016
879,9	0,016
880,4	0,016
880,8	0,016
881,2	0,017
881,7	0,016
882,1	0,016
882,5	0,016
882,9	0,016
883,4	0,015
883,8	0,016
884,2	0,016
884,6	0,016
885,1	0,016
885,5	0,015
885,9	0,016
886,3	0,016
886,8	0,016
887,2	0,016
887,6	0,016
888	0,016
888,5	0,016
888,9	0,016
889,3	0,017
889,8	0,017
890,2	0,017
890,6	0,017
891	0,018
891,5	0,018
891,9	0,018
892,3	0,018
892,7	0,018
893,2	0,018
893,6	0,018
894	0,018
894,4	0,017
894,9	0,017
895,3	0,017
895,7	0,017
896,1	0,017
896,6	0,017
897	0,016
897,4	0,016
897,8	0,016
898,3	0,016
898,7	0,016
899,1	0,016
899,5	0,016
900	0,016
900,4	0,017
900,8	0,017
901,2	0,017
901,7	0,017
902,1	0,017
902,5	0,017
902,9	0,017
903,4	0,017
903,8	0,017
904,2	0,016
904,6	0,016
905,1	0,017
905,5	0,017
905,9	0,017
906,3	0,017
906,8	0,017
907,2	0,018
907,6	0,018
908	0,019
908,5	0,018
908,9	0,019
909,3	0,019
909,7	0,019
910,2	0,019
910,6	0,019
911	0,019
911,4	0,019
911,9	0,018
912,3	0,018
912,7	0,018
913,1	0,018
913,6	0,018
914	0,018
914,4	0,018
914,8	0,018
915,3	0,018
915,7	0,018
916,1	0,018
916,5	0,017
916,9	0,017
917,4	0,017
917,8	0,017
918,2	0,017
918,6	0,017
919,1	0,017
919,5	0,017
919,9	0,017
920,3	0,017
920,8	0,016
921,2	0,017
921,6	0,016
922	0,017
922,5	0,016
922,9	0,016
923,3	0,016
923,7	0,016
924,2	0,016
924,6	0,016
925	0,016
925,4	0,017
925,8	0,017
926,3	0,016
926,7	0,016
927,1	0,016
927,5	0,016
928	0,016
928,4	0,015
928,8	0,016
929,2	0,016
929,7	0,016
930,1	0,016
930,5	0,016
930,9	0,015
931,3	0,015
931,8	0,015
932,2	0,015
932,6	0,015
933	0,014
933,5	0,014
933,9	0,014
934,3	0,014
934,7	0,014
935,2	0,014
935,6	0,015
936	0,015
936,4	0,015
936,8	0,015
937,3	0,015
937,7	0,015
938,1	0,015
938,5	0,015
939	0,015
939,4	0,015
939,8	0,015
940,2	0,015
940,6	0,015
941,1	0,015
941,5	0,016
941,9	0,016
942,3	0,016
942,8	0,015
943,2	0,015
943,6	0,015
944	0,014
944,4	0,015
944,9	0,015
945,3	0,015
945,7	0,015
946,1	0,014
946,6	0,015
947	0,015
947,4	0,014
947,8	0,014
948,2	0,014
948,7	0,013
949,1	0,013
949,5	0,013
949,9	0,012
950,3	0,012
950,8	0,012
951,2	0,011
951,6	0,012
952	0,011
952,5	0,011
952,9	0,012
953,3	0,012
953,7	0,012
954,1	0,012
954,6	0,012
955	0,012
955,4	0,012
955,8	0,012
956,2	0,012
956,7	0,012
957,1	0,011
957,5	0,01
957,9	0,011
958,3	0,01
958,8	0,01
959,2	0,01
959,6	0,01
960	0,009
960,5	0,009
960,9	0,009
961,3	0,009
961,7	0,009
962,1	0,009
962,6	0,009
963	0,009
963,4	0,01
963,8	0,01
964,2	0,01
964,7	0,01
965,1	0,01
965,5	0,01
965,9	0,011
966,3	0,01
966,8	0,011
967,2	0,011
967,6	0,011
968	0,011
968,4	0,012
968,9	0,011
969,3	0,012
969,7	0,012
970,1	0,012
970,5	0,013
971	0,013
971,4	0,012
971,8	0,012
972,2	0,012
972,6	0,012
973,1	0,011
973,5	0,011
973,9	0,011
974,3	0,011
974,7	0,011
975,2	0,011
975,6	0,011
976	0,012
976,4	0,012
976,8	0,011
977,3	0,012
977,7	0,011
978,1	0,011
978,5	0,011
978,9	0,011
979,4	0,01
979,8	0,01
980,2	0,01
980,6	0,01
981	0,01
981,5	0,01
981,9	0,011
982,3	0,011
982,7	0,011
983,1	0,011
983,6	0,011
984	0,011
984,4	0,011
984,8	0,01
985,2	0,01
985,6	0,01
986,1	0,01
986,5	0,01
986,9	0,011
987,3	0,01
987,7	0,011
988,2	0,01
988,6	0,01
989	0,01
989,4	0,01
989,8	0,01
990,3	0,01
990,7	0,01
991,1	0,01
991,5	0,011
991,9	0,011
992,3	0,01
992,8	0,01
993,2	0,01
993,6	0,011
994	0,01
994,4	0,01
994,9	0,011
995,3	0,011
995,7	0,011
996,1	0,011
996,5	0,01
996,9	0,011
997,4	0,01
997,8	0,01
998,2	0,011
998,6	0,01
999	0,01
999,5	0,01
999,9	0,01
1000,3	0,01
1000,7	0,01
1001,1	0,01
1001,5	0,011
1002	0,011
1002,4	0,012
1002,8	0,013
1003,2	0,013
1003,6	0,014
1004	0,014
1004,5	0,013
1004,9	0,013
1005,3	0,013
1005,7	0,013
1006,1	0,013
1006,6	0,012
1007	0,013
1007,4	0,013
1007,8	0,013
1008,2	0,013
1008,6	0,013
1009,1	0,013
1009,5	0,013
1009,9	0,013
1010,3	0,014
1010,7	0,013
1011,1	0,013
1011,6	0,014
1012	0,014
1012,4	0,014
1012,8	0,014
1013,2	0,013
1013,6	0,013
1014,1	0,013
1014,5	0,012
1014,9	0,011
1015,3	0,011
1015,7	0,011
1016,1	0,012
1016,6	0,011
1017	0,011
1017,4	0,012
1017,8	0,012
1018,2	0,013
1018,6	0,013
1019,1	0,013
1019,5	0,013
1019,9	0,013
1020,3	0,012
1020,7	0,013
1021,1	0,012
1021,6	0,012
1022	0,013
1022,4	0,013
1022,8	0,013
1023,2	0,014
1023,6	0,013
1024,1	0,015
1024,5	0,014
1024,9	0,014
1025,3	0,014
1025,7	0,013
1026,1	0,012
1026,6	0,013
1027	0,012
1027,4	0,011
1027,8	0,011
1028,2	0,011
1028,6	0,012
1029	0,012
1029,5	0,012
1029,9	0,012
1030,3	0,012
1030,7	0,012
1031,1	0,012
1031,5	0,012
1032	0,011
1032,4	0,012
1032,8	0,011
1033,2	0,012
1033,6	0,012
1034	0,011
1034,4	0,011
1034,9	0,011
1035,3	0,01
1035,7	0,01
1036,1	0,009
1036,5	0,009
1036,9	0,01
1037,4	0,01
1037,8	0,011
1038,2	0,011
1038,6	0,012
1039	0,012
1039,4	0,013
1039,8	0,012
1040,3	0,011
1040,7	0,011
1041,1	0,011
1041,5	0,011
1041,9	0,011
1042,3	0,011
1042,7	0,011
1043,2	0,011
1043,6	0,011
1044	0,011
1044,4	0,01
1044,8	0,011
1045,2	0,01
1045,6	0,01
1046,1	0,01
1046,5	0,01
1046,9	0,01
1047,3	0,01
1047,7	0,01
1048,1	0,01
1048,5	0,009
1049	0,01
1049,4	0,008
1049,8	0,009
1050,2	0,009
1050,6	0,009
1051	0,009
1051,4	0,009
1051,9	0,009
1052,3	0,01
1052,7	0,01
1053,1	0,01
1053,5	0,011
1053,9	0,01
1054,3	0,011
1054,8	0,011
1055,2	0,011
1055,6	0,01
1056	0,011
1056,4	0,011
1056,8	0,011
1057,2	0,01
1057,6	0,01
1058,1	0,01
1058,5	0,01
1058,9	0,01
1059,3	0,011
1059,7	0,012
1060,1	0,011
1060,5	0,012
1061	0,012
1061,4	0,01
1061,8	0,009
1062,2	0,01
1062,6	0,009
1063	0,01
1063,4	0,01
1063,8	0,01
1064,3	0,01
1064,7	0,01
1065,1	0,009
1065,5	0,009
1065,9	0,009
1066,3	0,009
1066,7	0,008
1067,1	0,009
1067,6	0,008
1068	0,008
1068,4	0,008
1068,8	0,007
1069,2	0,007
1069,6	0,007
1070	0,007
1070,4	0,008
1070,9	0,007
1071,3	0,006
1071,7	0,007
1072,1	0,008
1072,5	0,008
1072,9	0,008
1073,3	0,008
1073,7	0,009
1074,2	0,008
1074,6	0,009
1075	0,008
1075,4	0,008
1075,8	0,009
1076,2	0,01
1076,6	0,01
1077	0,01
1077,5	0,009
1077,9	0,009
1078,3	0,008
1078,7	0,008
1079,1	0,009
1079,5	0,009
1079,9	0,009
1080,3	0,01
1080,7	0,011
1081,2	0,01
1081,6	0,01
1082	0,008
1082,4	0,007
1082,8	0,007
1083,2	0,006
1083,6	0,006
1084	0,005
1084,5	0,004
1084,9	0,004
1085,3	0,005
1085,7	0,005
1086,1	0,005
1086,5	0,004
1086,9	0,004
1087,3	0,006
1087,7	0,004
1088,2	0,003
1088,6	0,003
1089	0,003
1089,4	0,005
1089,8	0,005
1090,2	0,003
1090,6	0,003
1091	0,004
1091,4	0,002
1091,9	0,002
1092,3	-0
1092,7	-0,003
1093,1	-0,001
1093,5	-0,001
1093,9	-0
1094,3	0,001
1094,7	-0,003
1095,1	-0,006
1095,5	-0,007
1096	-0,005
1096,4	-0
1096,8	-0
1097,2	-0,003
1097,6	-0,002
1098	0,002
1098,4	0,001
1098,8	-0,008
1099,2	-0,02
1099,6	-0,019
1100,1	-0,018
1100,5	-0,021
1100,9	-0,019
1101,3	-0,014
1101,7	-0,018
1102,1	-0,009
1102,5	-0,018
1102,9	-0,018
1103,3	-0,018
1103,7	-0,02
1104,2	-0,029
1104,6	-0,031
1105	-0,046
1105,4	-0,041
1105,8	-0,038
1106,2	-0,038
1106,6	-0,059
1107	-0,072
1107,4	-0,074
1107,8	-0,007
1108,3	-0,178
