Data from Absorbance_00031.txt Node
Date: Wed Aug 02 14:16:51 MSK 2023
User: vat
Spectrometer: MAYP114033
Trigger mode: 0
Integration Time (sec): 8,000000E-3
Scans to average: 10
Electric dark correction enabled: true
Nonlinearity correction enabled: false
Boxcar width: 3
XAxis mode: Wavelengths
Number of Pixels in Spectrum: 2068
>>>>>Begin Spectral Data<<<<<
199,4	-0,552
199,9	-0,067
200,4	0,238
200,8	0,643
201,3	0,824
201,8	0,846
202,2	0,893
202,7	0,941
203,2	0,99
203,6	1,027
204,1	1,024
204,6	1,022
205	1,041
205,5	1,049
206	1,041
206,4	1,048
206,9	1,063
207,4	1,084
207,8	1,105
208,3	1,125
208,8	1,139
209,2	1,161
209,7	1,177
210,2	1,199
210,6	1,228
211,1	1,233
211,5	1,261
212	1,285
212,5	1,302
212,9	1,323
213,4	1,337
213,9	1,35
214,3	1,369
214,8	1,362
215,3	1,364
215,7	1,388
216,2	1,411
216,7	1,419
217,1	1,439
217,6	1,444
218,1	1,452
218,5	1,477
219	1,494
219,5	1,493
219,9	1,528
220,4	1,529
220,9	1,551
221,3	1,575
221,8	1,593
222,3	1,583
222,7	1,61
223,2	1,606
223,6	1,613
224,1	1,624
224,6	1,653
225	1,647
225,5	1,675
226	1,688
226,4	1,714
226,9	1,737
227,4	1,753
227,8	1,756
228,3	1,799
228,8	1,827
229,2	1,83
229,7	1,841
230,2	1,858
230,6	1,88
231,1	1,885
231,5	1,874
232	1,876
232,5	1,887
232,9	1,889
233,4	1,909
233,9	1,916
234,3	1,935
234,8	1,944
235,3	1,948
235,7	1,95
236,2	1,959
236,7	1,968
237,1	1,974
237,6	1,988
238,1	2,022
238,5	2,014
239	2,044
239,4	2,057
239,9	2,031
240,4	2,037
240,8	2,042
241,3	2,039
241,8	2,061
242,2	2,052
242,7	2,055
243,2	2,08
243,6	2,083
244,1	2,071
244,6	2,081
245	2,085
245,5	2,083
245,9	2,089
246,4	2,078
246,9	2,085
247,3	2,098
247,8	2,093
248,3	2,106
248,7	2,103
249,2	2,093
249,7	2,117
250,1	2,114
250,6	2,116
251	2,105
251,5	2,085
252	2,094
252,4	2,098
252,9	2,074
253,4	2,077
253,8	2,081
254,3	2,1
254,8	2,107
255,2	2,126
255,7	2,141
256,1	2,173
256,6	2,174
257,1	2,159
257,5	2,138
258	2,144
258,5	2,126
258,9	2,102
259,4	2,082
259,9	2,078
260,3	2,086
260,8	2,085
261,2	2,089
261,7	2,096
262,2	2,093
262,6	2,104
263,1	2,099
263,6	2,104
264	2,11
264,5	2,109
264,9	2,105
265,4	2,116
265,9	2,122
266,3	2,13
266,8	2,139
267,3	2,132
267,7	2,148
268,2	2,146
268,7	2,156
269,1	2,139
269,6	2,148
270	2,145
270,5	2,178
271	2,155
271,4	2,156
271,9	2,145
272,4	2,169
272,8	2,173
273,3	2,161
273,7	2,137
274,2	2,149
274,7	2,144
275,1	2,167
275,6	2,167
276,1	2,155
276,5	2,157
277	2,161
277,4	2,18
277,9	2,204
278,4	2,201
278,8	2,209
279,3	2,238
279,8	2,261
280,2	2,264
280,7	2,222
281,1	2,219
281,6	2,216
282,1	2,21
282,5	2,199
283	2,192
283,4	2,197
283,9	2,192
284,4	2,196
284,8	2,198
285,3	2,202
285,8	2,2
286,2	2,194
286,7	2,204
287,1	2,214
287,6	2,203
288,1	2,202
288,5	2,217
289	2,204
289,5	2,22
289,9	2,202
290,4	2,208
290,8	2,202
291,3	2,198
291,8	2,167
292,2	2,176
292,7	2,142
293,1	2,118
293,6	2,085
294,1	2,062
294,5	2,041
295	2,007
295,5	1,964
295,9	1,937
296,4	1,928
296,8	1,894
297,3	1,867
297,8	1,83
298,2	1,806
298,7	1,781
299,1	1,753
299,6	1,724
300,1	1,712
300,5	1,695
301	1,679
301,5	1,664
301,9	1,647
302,4	1,633
302,8	1,616
303,3	1,598
303,8	1,582
304,2	1,57
304,7	1,556
305,1	1,548
305,6	1,54
306,1	1,529
306,5	1,52
307	1,505
307,4	1,495
307,9	1,486
308,4	1,475
308,8	1,462
309,3	1,451
309,8	1,442
310,2	1,434
310,7	1,419
311,1	1,409
311,6	1,397
312,1	1,386
312,5	1,375
313	1,36
313,4	1,351
313,9	1,34
314,4	1,327
314,8	1,315
315,3	1,301
315,7	1,29
316,2	1,279
316,7	1,267
317,1	1,257
317,6	1,246
318	1,237
318,5	1,228
319	1,217
319,4	1,207
319,9	1,196
320,3	1,184
320,8	1,176
321,3	1,164
321,7	1,154
322,2	1,143
322,6	1,131
323,1	1,119
323,6	1,109
324	1,097
324,5	1,084
324,9	1,073
325,4	1,063
325,9	1,053
326,3	1,043
326,8	1,032
327,2	1,021
327,7	1,011
328,2	0,998
328,6	0,986
329,1	0,974
329,5	0,963
330	0,952
330,5	0,94
330,9	0,928
331,4	0,919
331,8	0,909
332,3	0,898
332,8	0,888
333,2	0,877
333,7	0,865
334,1	0,855
334,6	0,844
335,1	0,833
335,5	0,822
336	0,809
336,4	0,797
336,9	0,787
337,4	0,776
337,8	0,764
338,3	0,752
338,7	0,74
339,2	0,73
339,7	0,72
340,1	0,71
340,6	0,698
341	0,689
341,5	0,68
342	0,671
342,4	0,661
342,9	0,651
343,3	0,641
343,8	0,632
344,2	0,622
344,7	0,612
345,2	0,602
345,6	0,593
346,1	0,584
346,5	0,574
347	0,564
347,5	0,555
347,9	0,547
348,4	0,537
348,8	0,529
349,3	0,52
349,8	0,511
350,2	0,502
350,7	0,494
351,1	0,485
351,6	0,477
352	0,468
352,5	0,46
353	0,453
353,4	0,446
353,9	0,439
354,3	0,432
354,8	0,425
355,3	0,417
355,7	0,41
356,2	0,403
356,6	0,396
357,1	0,388
357,5	0,381
358	0,375
358,5	0,368
358,9	0,362
359,4	0,356
359,8	0,35
360,3	0,345
360,8	0,339
361,2	0,333
361,7	0,327
362,1	0,322
362,6	0,316
363	0,311
363,5	0,305
364	0,3
364,4	0,295
364,9	0,29
365,3	0,284
365,8	0,28
366,3	0,275
366,7	0,27
367,2	0,266
367,6	0,262
368,1	0,258
368,5	0,254
369	0,25
369,5	0,247
369,9	0,243
370,4	0,239
370,8	0,235
371,3	0,232
371,7	0,228
372,2	0,225
372,7	0,222
373,1	0,219
373,6	0,216
374	0,213
374,5	0,21
374,9	0,207
375,4	0,203
375,9	0,201
376,3	0,198
376,8	0,195
377,2	0,193
377,7	0,191
378,2	0,187
378,6	0,185
379,1	0,182
379,5	0,181
380	0,179
380,4	0,177
380,9	0,174
381,4	0,172
381,8	0,169
382,3	0,166
382,7	0,164
383,2	0,161
383,6	0,158
384,1	0,156
384,6	0,153
385	0,151
385,5	0,149
385,9	0,146
386,4	0,143
386,8	0,141
387,3	0,138
387,7	0,136
388,2	0,133
388,7	0,13
389,1	0,128
389,6	0,126
390	0,124
390,5	0,122
390,9	0,12
391,4	0,118
391,9	0,116
392,3	0,114
392,8	0,112
393,2	0,111
393,7	0,109
394,1	0,107
394,6	0,106
395,1	0,105
395,5	0,104
396	0,103
396,4	0,102
396,9	0,1
397,3	0,099
397,8	0,098
398,2	0,097
398,7	0,095
399,2	0,094
399,6	0,092
400,1	0,091
400,5	0,09
401	0,089
401,4	0,088
401,9	0,087
402,4	0,086
402,8	0,085
403,3	0,085
403,7	0,084
404,2	0,083
404,6	0,082
405,1	0,081
405,5	0,081
406	0,081
406,5	0,08
406,9	0,079
407,4	0,079
407,8	0,078
408,3	0,077
408,7	0,076
409,2	0,075
409,6	0,075
410,1	0,074
410,6	0,073
411	0,072
411,5	0,072
411,9	0,072
412,4	0,071
412,8	0,07
413,3	0,07
413,7	0,069
414,2	0,069
414,7	0,068
415,1	0,067
415,6	0,067
416	0,066
416,5	0,066
416,9	0,065
417,4	0,064
417,8	0,063
418,3	0,062
418,8	0,062
419,2	0,061
419,7	0,061
420,1	0,061
420,6	0,06
421	0,059
421,5	0,059
421,9	0,058
422,4	0,057
422,8	0,056
423,3	0,056
423,8	0,056
424,2	0,055
424,7	0,054
425,1	0,054
425,6	0,054
426	0,054
426,5	0,052
426,9	0,052
427,4	0,052
427,9	0,052
428,3	0,052
428,8	0,051
429,2	0,05
429,7	0,05
430,1	0,05
430,6	0,049
431	0,048
431,5	0,048
431,9	0,047
432,4	0,047
432,8	0,047
433,3	0,047
433,8	0,045
434,2	0,046
434,7	0,045
435,1	0,045
435,6	0,045
436	0,044
436,5	0,043
436,9	0,043
437,4	0,042
437,8	0,041
438,3	0,041
438,8	0,04
439,2	0,04
439,7	0,041
440,1	0,04
440,6	0,039
441	0,039
441,5	0,039
441,9	0,039
442,4	0,038
442,8	0,037
443,3	0,038
443,7	0,038
444,2	0,039
444,7	0,038
445,1	0,037
445,6	0,037
446	0,038
446,5	0,038
446,9	0,038
447,4	0,037
447,8	0,038
448,3	0,038
448,7	0,037
449,2	0,037
449,6	0,036
450,1	0,036
450,6	0,035
451	0,036
451,5	0,035
451,9	0,036
452,4	0,036
452,8	0,036
453,3	0,036
453,7	0,036
454,2	0,035
454,6	0,035
455,1	0,035
455,5	0,034
456	0,034
456,4	0,033
456,9	0,032
457,3	0,033
457,8	0,032
458,3	0,033
458,7	0,032
459,2	0,032
459,6	0,033
460,1	0,033
460,5	0,032
461	0,032
461,4	0,032
461,9	0,032
462,3	0,031
462,8	0,031
463,2	0,031
463,7	0,031
464,1	0,031
464,6	0,031
465	0,031
465,5	0,031
466	0,031
466,4	0,031
466,9	0,03
467,3	0,03
467,8	0,03
468,2	0,03
468,7	0,03
469,1	0,03
469,6	0,03
470	0,031
470,5	0,031
470,9	0,031
471,4	0,031
471,8	0,03
472,3	0,03
472,7	0,03
473,2	0,03
473,6	0,029
474,1	0,029
474,5	0,029
475	0,029
475,4	0,029
475,9	0,029
476,4	0,028
476,8	0,029
477,3	0,029
477,7	0,029
478,2	0,03
478,6	0,03
479,1	0,03
479,5	0,031
480	0,03
480,4	0,03
480,9	0,03
481,3	0,029
481,8	0,028
482,2	0,027
482,7	0,028
483,1	0,027
483,6	0,028
484	0,028
484,5	0,027
484,9	0,028
485,4	0,027
485,8	0,027
486,3	0,031
486,7	0,03
487,2	0,029
487,6	0,029
488,1	0,028
488,5	0,029
489	0,029
489,4	0,025
489,9	0,026
490,4	0,027
490,8	0,028
491,3	0,029
491,7	0,029
492,2	0,03
492,6	0,029
493,1	0,029
493,5	0,03
494	0,029
494,4	0,03
494,9	0,03
495,3	0,03
495,8	0,03
496,2	0,03
496,7	0,03
497,1	0,029
497,6	0,029
498	0,029
498,5	0,028
498,9	0,028
499,4	0,028
499,8	0,028
500,3	0,028
500,7	0,028
501,2	0,028
501,6	0,028
502,1	0,027
502,5	0,028
503	0,027
503,4	0,028
503,9	0,029
504,3	0,029
504,8	0,029
505,2	0,029
505,7	0,029
506,1	0,029
506,6	0,029
507	0,028
507,5	0,028
507,9	0,028
508,4	0,028
508,8	0,028
509,3	0,028
509,7	0,028
510,2	0,028
510,6	0,028
511,1	0,028
511,5	0,028
512	0,028
512,4	0,027
512,9	0,027
513,3	0,028
513,8	0,028
514,2	0,028
514,7	0,028
515,1	0,028
515,6	0,028
516	0,028
516,5	0,028
516,9	0,028
517,4	0,027
517,8	0,027
518,3	0,027
518,7	0,027
519,2	0,028
519,6	0,028
520,1	0,028
520,5	0,028
521	0,028
521,4	0,029
521,9	0,029
522,3	0,028
522,8	0,027
523,2	0,027
523,7	0,026
524,1	0,026
524,6	0,026
525	0,026
525,5	0,027
525,9	0,028
526,4	0,027
526,8	0,028
527,3	0,028
527,7	0,028
528,2	0,028
528,6	0,027
529,1	0,027
529,5	0,028
530	0,027
530,4	0,027
530,9	0,027
531,3	0,028
531,8	0,027
532,2	0,027
532,6	0,027
533,1	0,028
533,5	0,028
534	0,027
534,4	0,028
534,9	0,027
535,3	0,027
535,8	0,027
536,2	0,027
536,7	0,027
537,1	0,027
537,6	0,027
538	0,028
538,5	0,028
538,9	0,028
539,4	0,028
539,8	0,027
540,3	0,028
540,7	0,027
541,2	0,027
541,6	0,027
542,1	0,027
542,5	0,028
543	0,028
543,4	0,027
543,9	0,028
544,3	0,027
544,8	0,027
545,2	0,028
545,7	0,028
546,1	0,028
546,5	0,029
547	0,028
547,4	0,028
547,9	0,028
548,3	0,028
548,8	0,027
549,2	0,027
549,7	0,027
550,1	0,027
550,6	0,027
551	0,026
551,5	0,026
551,9	0,026
552,4	0,026
552,8	0,026
553,3	0,026
553,7	0,026
554,2	0,026
554,6	0,027
555,1	0,026
555,5	0,026
555,9	0,026
556,4	0,026
556,8	0,026
557,3	0,026
557,7	0,026
558,2	0,027
558,6	0,027
559,1	0,027
559,5	0,027
560	0,026
560,4	0,026
560,9	0,025
561,3	0,025
561,8	0,025
562,2	0,025
562,7	0,025
563,1	0,026
563,6	0,025
564	0,026
564,4	0,026
564,9	0,026
565,3	0,027
565,8	0,027
566,2	0,026
566,7	0,027
567,1	0,026
567,6	0,025
568	0,025
568,5	0,025
568,9	0,025
569,4	0,026
569,8	0,026
570,3	0,025
570,7	0,026
571,1	0,026
571,6	0,026
572	0,026
572,5	0,025
572,9	0,024
573,4	0,025
573,8	0,025
574,3	0,025
574,7	0,025
575,2	0,025
575,6	0,025
576,1	0,025
576,5	0,025
576,9	0,025
577,4	0,025
577,8	0,025
578,3	0,025
578,7	0,025
579,2	0,024
579,6	0,025
580,1	0,025
580,5	0,024
581	0,023
581,4	0,025
581,9	0,025
582,3	0,025
582,7	0,024
583,2	0,023
583,6	0,023
584,1	0,024
584,5	0,023
585	0,023
585,4	0,024
585,9	0,025
586,3	0,026
586,8	0,026
587,2	0,025
587,6	0,025
588,1	0,024
588,5	0,024
589	0,024
589,4	0,024
589,9	0,024
590,3	0,024
590,8	0,024
591,2	0,024
591,7	0,023
592,1	0,024
592,5	0,024
593	0,024
593,4	0,024
593,9	0,024
594,3	0,023
594,8	0,024
595,2	0,023
595,7	0,022
596,1	0,022
596,6	0,022
597	0,022
597,4	0,023
597,9	0,022
598,3	0,022
598,8	0,023
599,2	0,023
599,7	0,022
600,1	0,022
600,6	0,022
601	0,022
601,4	0,022
601,9	0,021
602,3	0,021
602,8	0,022
603,2	0,022
603,7	0,022
604,1	0,021
604,6	0,021
605	0,022
605,4	0,022
605,9	0,021
606,3	0,021
606,8	0,021
607,2	0,021
607,7	0,021
608,1	0,021
608,6	0,02
609	0,021
609,4	0,021
609,9	0,021
610,3	0,021
610,8	0,021
611,2	0,02
611,7	0,02
612,1	0,02
612,6	0,02
613	0,019
613,4	0,019
613,9	0,02
614,3	0,02
614,8	0,02
615,2	0,02
615,7	0,02
616,1	0,02
616,6	0,02
617	0,019
617,4	0,019
617,9	0,019
618,3	0,019
618,8	0,019
619,2	0,019
619,7	0,019
620,1	0,019
620,5	0,018
621	0,018
621,4	0,019
621,9	0,019
622,3	0,019
622,8	0,018
623,2	0,018
623,6	0,018
624,1	0,018
624,5	0,018
625	0,017
625,4	0,017
625,9	0,017
626,3	0,017
626,8	0,018
627,2	0,018
627,6	0,018
628,1	0,019
628,5	0,019
629	0,018
629,4	0,018
629,9	0,018
630,3	0,018
630,7	0,018
631,2	0,017
631,6	0,017
632,1	0,017
632,5	0,017
633	0,017
633,4	0,017
633,8	0,017
634,3	0,017
634,7	0,017
635,2	0,017
635,6	0,017
636,1	0,016
636,5	0,016
636,9	0,016
637,4	0,016
637,8	0,015
638,3	0,015
638,7	0,015
639,2	0,015
639,6	0,015
640	0,015
640,5	0,015
640,9	0,015
641,4	0,014
641,8	0,014
642,2	0,014
642,7	0,014
643,1	0,014
643,6	0,014
644	0,014
644,5	0,015
644,9	0,014
645,3	0,014
645,8	0,014
646,2	0,014
646,7	0,015
647,1	0,014
647,6	0,014
648	0,015
648,4	0,015
648,9	0,015
649,3	0,015
649,8	0,015
650,2	0,015
650,6	0,015
651,1	0,014
651,5	0,014
652	0,013
652,4	0,013
652,9	0,013
653,3	0,012
653,7	0,012
654,2	0,011
654,6	0,009
655,1	0,006
655,5	0,003
655,9	0,002
656,4	0,001
656,8	0,001
657,3	0,001
657,7	0,002
658,2	0,003
658,6	0,005
659	0,009
659,5	0,015
659,9	0,024
660,4	0,026
660,8	0,025
661,2	0,023
661,7	0,022
662,1	0,02
662,6	0,018
663	0,016
663,4	0,016
663,9	0,015
664,3	0,014
664,8	0,013
665,2	0,013
665,6	0,013
666,1	0,013
666,5	0,012
667	0,012
667,4	0,012
667,9	0,012
668,3	0,012
668,7	0,012
669,2	0,012
669,6	0,012
670,1	0,012
670,5	0,011
670,9	0,011
671,4	0,011
671,8	0,011
672,3	0,011
672,7	0,011
673,1	0,011
673,6	0,011
674	0,011
674,5	0,01
674,9	0,011
675,3	0,011
675,8	0,011
676,2	0,012
676,7	0,011
677,1	0,011
677,5	0,012
678	0,011
678,4	0,011
678,9	0,011
679,3	0,011
679,7	0,011
680,2	0,011
680,6	0,011
681,1	0,011
681,5	0,011
681,9	0,011
682,4	0,01
682,8	0,01
683,3	0,01
683,7	0,009
684,1	0,009
684,6	0,009
685	0,009
685,5	0,009
685,9	0,009
686,3	0,009
686,8	0,009
687,2	0,01
687,7	0,009
688,1	0,009
688,5	0,009
689	0,009
689,4	0,009
689,9	0,009
690,3	0,009
690,7	0,009
691,2	0,01
691,6	0,01
692	0,009
692,5	0,01
692,9	0,01
693,4	0,009
693,8	0,009
694,2	0,009
694,7	0,009
695,1	0,01
695,6	0,009
696	0,009
696,4	0,01
696,9	0,01
697,3	0,01
697,8	0,01
698,2	0,009
698,6	0,01
699,1	0,01
699,5	0,01
699,9	0,01
700,4	0,01
700,8	0,01
701,3	0,009
701,7	0,009
702,1	0,009
702,6	0,009
703	0,009
703,5	0,009
703,9	0,009
704,3	0,009
704,8	0,009
705,2	0,009
705,6	0,009
706,1	0,009
706,5	0,008
707	0,008
707,4	0,008
707,8	0,008
708,3	0,008
708,7	0,009
709,2	0,009
709,6	0,009
710	0,009
710,5	0,009
710,9	0,009
711,3	0,009
711,8	0,009
712,2	0,009
712,7	0,009
713,1	0,009
713,5	0,009
714	0,009
714,4	0,009
714,8	0,009
715,3	0,009
715,7	0,009
716,2	0,009
716,6	0,009
717	0,009
717,5	0,009
717,9	0,01
718,3	0,009
718,8	0,009
719,2	0,01
719,7	0,01
720,1	0,009
720,5	0,009
721	0,009
721,4	0,009
721,8	0,009
722,3	0,009
722,7	0,009
723,2	0,009
723,6	0,009
724	0,009
724,5	0,009
724,9	0,009
725,3	0,009
725,8	0,009
726,2	0,008
726,7	0,008
727,1	0,008
727,5	0,008
728	0,008
728,4	0,008
728,8	0,008
729,3	0,008
729,7	0,009
730,1	0,009
730,6	0,009
731	0,008
731,5	0,008
731,9	0,008
732,3	0,008
732,8	0,008
733,2	0,008
733,6	0,007
734,1	0,007
734,5	0,007
734,9	0,007
735,4	0,007
735,8	0,007
736,3	0,007
736,7	0,008
737,1	0,007
737,6	0,008
738	0,008
738,4	0,008
738,9	0,008
739,3	0,008
739,7	0,007
740,2	0,007
740,6	0,007
741,1	0,007
741,5	0,007
741,9	0,007
742,4	0,007
742,8	0,007
743,2	0,008
743,7	0,008
744,1	0,008
744,5	0,008
745	0,007
745,4	0,008
745,8	0,008
746,3	0,008
746,7	0,008
747,2	0,008
747,6	0,007
748	0,007
748,5	0,007
748,9	0,006
749,3	0,006
749,8	0,006
750,2	0,006
750,6	0,006
751,1	0,006
751,5	0,006
751,9	0,006
752,4	0,005
752,8	0,005
753,3	0,005
753,7	0,006
754,1	0,006
754,6	0,006
755	0,007
755,4	0,007
755,9	0,007
756,3	0,007
756,7	0,007
757,2	0,008
757,6	0,008
758	0,007
758,5	0,007
758,9	0,007
759,3	0,007
759,8	0,007
760,2	0,007
760,6	0,007
761,1	0,008
761,5	0,007
761,9	0,008
762,4	0,007
762,8	0,007
763,3	0,007
763,7	0,007
764,1	0,007
764,6	0,007
765	0,007
765,4	0,007
765,9	0,007
766,3	0,007
766,7	0,007
767,2	0,006
767,6	0,007
768	0,007
768,5	0,007
768,9	0,006
769,3	0,006
769,8	0,006
770,2	0,006
770,6	0,005
771,1	0,005
771,5	0,005
771,9	0,005
772,4	0,005
772,8	0,005
773,2	0,005
773,7	0,005
774,1	0,004
774,5	0,005
775	0,005
775,4	0,005
775,8	0,005
776,3	0,005
776,7	0,005
777,1	0,006
777,6	0,006
778	0,006
778,4	0,006
778,9	0,006
779,3	0,006
779,7	0,006
780,2	0,006
780,6	0,006
781	0,005
781,5	0,005
781,9	0,005
782,3	0,005
782,8	0,005
783,2	0,005
783,6	0,005
784,1	0,005
784,5	0,005
784,9	0,006
785,4	0,006
785,8	0,006
786,2	0,006
786,7	0,006
787,1	0,006
787,5	0,006
788	0,006
788,4	0,006
788,8	0,005
789,3	0,005
789,7	0,006
790,1	0,006
790,6	0,006
791	0,006
791,4	0,006
791,9	0,006
792,3	0,006
792,7	0,006
793,2	0,006
793,6	0,006
794	0,006
794,5	0,006
794,9	0,006
795,3	0,006
795,8	0,006
796,2	0,006
796,6	0,006
797,1	0,006
797,5	0,006
797,9	0,006
798,4	0,006
798,8	0,006
799,2	0,007
799,7	0,006
800,1	0,006
800,5	0,006
801	0,006
801,4	0,005
801,8	0,005
802,2	0,005
802,7	0,006
803,1	0,006
803,5	0,006
804	0,005
804,4	0,006
804,8	0,005
805,3	0,005
805,7	0,005
806,1	0,005
806,6	0,005
807	0,005
807,4	0,005
807,9	0,005
808,3	0,005
808,7	0,005
809,2	0,005
809,6	0,005
810	0,005
810,4	0,005
810,9	0,005
811,3	0,005
811,7	0,005
812,2	0,005
812,6	0,005
813	0,005
813,5	0,005
813,9	0,005
814,3	0,005
814,8	0,005
815,2	0,005
815,6	0,005
816,1	0,005
816,5	0,005
816,9	0,005
817,3	0,006
817,8	0,006
818,2	0,006
818,6	0,006
819,1	0,006
819,5	0,006
819,9	0,006
820,4	0,006
820,8	0,005
821,2	0,005
821,7	0,005
822,1	0,005
822,5	0,006
822,9	0,005
823,4	0,006
823,8	0,006
824,2	0,006
824,7	0,006
825,1	0,006
825,5	0,006
826	0,006
826,4	0,006
826,8	0,006
827,3	0,006
827,7	0,005
828,1	0,005
828,5	0,005
829	0,005
829,4	0,005
829,8	0,005
830,3	0,005
830,7	0,005
831,1	0,005
831,6	0,005
832	0,005
832,4	0,005
832,8	0,005
833,3	0,005
833,7	0,005
834,1	0,005
834,6	0,005
835	0,005
835,4	0,005
835,8	0,005
836,3	0,005
836,7	0,005
837,1	0,005
837,6	0,005
838	0,005
838,4	0,005
838,9	0,005
839,3	0,005
839,7	0,004
840,1	0,004
840,6	0,004
841	0,004
841,4	0,004
841,9	0,004
842,3	0,005
842,7	0,005
843,1	0,005
843,6	0,004
844	0,005
844,4	0,004
844,9	0,004
845,3	0,004
845,7	0,003
846,2	0,003
846,6	0,003
847	0,003
847,4	0,003
847,9	0,003
848,3	0,003
848,7	0,003
849,2	0,003
849,6	0,003
850	0,004
850,4	0,004
850,9	0,004
851,3	0,004
851,7	0,004
852,2	0,004
852,6	0,004
853	0,004
853,4	0,004
853,9	0,004
854,3	0,004
854,7	0,004
855,2	0,004
855,6	0,004
856	0,004
856,4	0,004
856,9	0,004
857,3	0,004
857,7	0,004
858,2	0,004
858,6	0,004
859	0,004
859,4	0,004
859,9	0,004
860,3	0,004
860,7	0,004
861,1	0,005
861,6	0,005
862	0,005
862,4	0,006
862,9	0,005
863,3	0,005
863,7	0,005
864,1	0,004
864,6	0,004
865	0,004
865,4	0,004
865,9	0,004
866,3	0,004
866,7	0,005
867,1	0,005
867,6	0,005
868	0,005
868,4	0,005
868,8	0,005
869,3	0,005
869,7	0,005
870,1	0,005
870,6	0,005
871	0,004
871,4	0,004
871,8	0,004
872,3	0,004
872,7	0,004
873,1	0,004
873,5	0,003
874	0,003
874,4	0,003
874,8	0,003
875,3	0,003
875,7	0,003
876,1	0,003
876,5	0,004
877	0,004
877,4	0,004
877,8	0,003
878,2	0,003
878,7	0,003
879,1	0,003
879,5	0,003
879,9	0,003
880,4	0,003
880,8	0,003
881,2	0,003
881,7	0,003
882,1	0,003
882,5	0,003
882,9	0,003
883,4	0,003
883,8	0,002
884,2	0,002
884,6	0,002
885,1	0,002
885,5	0,002
885,9	0,002
886,3	0,002
886,8	0,003
887,2	0,003
887,6	0,003
888	0,003
888,5	0,004
888,9	0,004
889,3	0,004
889,8	0,005
890,2	0,005
890,6	0,005
891	0,005
891,5	0,006
891,9	0,005
892,3	0,005
892,7	0,005
893,2	0,005
893,6	0,005
894	0,005
894,4	0,004
894,9	0,004
895,3	0,004
895,7	0,004
896,1	0,003
896,6	0,003
897	0,003
897,4	0,003
897,8	0,003
898,3	0,003
898,7	0,003
899,1	0,003
899,5	0,003
900	0,004
900,4	0,004
900,8	0,003
901,2	0,003
901,7	0,003
902,1	0,003
902,5	0,003
902,9	0,003
903,4	0,003
903,8	0,004
904,2	0,003
904,6	0,004
905,1	0,004
905,5	0,005
905,9	0,005
906,3	0,005
906,8	0,005
907,2	0,005
907,6	0,006
908	0,005
908,5	0,005
908,9	0,006
909,3	0,006
909,7	0,006
910,2	0,006
910,6	0,006
911	0,006
911,4	0,006
911,9	0,006
912,3	0,006
912,7	0,006
913,1	0,006
913,6	0,006
914	0,006
914,4	0,006
914,8	0,006
915,3	0,005
915,7	0,005
916,1	0,005
916,5	0,005
916,9	0,005
917,4	0,005
917,8	0,005
918,2	0,005
918,6	0,005
919,1	0,005
919,5	0,005
919,9	0,005
920,3	0,005
920,8	0,004
921,2	0,005
921,6	0,005
922	0,005
922,5	0,004
922,9	0,004
923,3	0,004
923,7	0,005
924,2	0,005
924,6	0,004
925	0,005
925,4	0,005
925,8	0,005
926,3	0,005
926,7	0,005
927,1	0,005
927,5	0,005
928	0,005
928,4	0,005
928,8	0,005
929,2	0,005
929,7	0,004
930,1	0,004
930,5	0,004
930,9	0,004
931,3	0,004
931,8	0,003
932,2	0,003
932,6	0,003
933	0,003
933,5	0,003
933,9	0,003
934,3	0,003
934,7	0,003
935,2	0,003
935,6	0,003
936	0,004
936,4	0,004
936,8	0,004
937,3	0,004
937,7	0,004
938,1	0,004
938,5	0,003
939	0,003
939,4	0,003
939,8	0,003
940,2	0,003
940,6	0,003
941,1	0,003
941,5	0,004
941,9	0,004
942,3	0,005
942,8	0,005
943,2	0,004
943,6	0,004
944	0,004
944,4	0,004
944,9	0,004
945,3	0,003
945,7	0,003
946,1	0,003
946,6	0,003
947	0,003
947,4	0,002
947,8	0,003
948,2	0,002
948,7	0,002
949,1	0,002
949,5	0,002
949,9	0,001
950,3	0,001
950,8	0,001
951,2	0,002
951,6	0,002
952	0,002
952,5	0,002
952,9	0,003
953,3	0,002
953,7	0,002
954,1	0,003
954,6	0,003
955	0,003
955,4	0,002
955,8	0,002
956,2	0,002
956,7	0,002
957,1	0,001
957,5	0,001
957,9	-0
958,3	0
958,8	-0,001
959,2	-0,001
959,6	-0,001
960	-0,002
960,5	-0,002
960,9	-0,002
961,3	-0,002
961,7	-0,002
962,1	-0,002
962,6	-0,002
963	-0,001
963,4	-0,001
963,8	-0,001
964,2	-0,001
964,7	-0,001
965,1	-0,001
965,5	-0
965,9	-0
966,3	-0
966,8	-0,001
967,2	0
967,6	-0
968	0
968,4	0,001
968,9	0,001
969,3	0,001
969,7	0,002
970,1	0,002
970,5	0,003
971	0,003
971,4	0,003
971,8	0,002
972,2	0,003
972,6	0,002
973,1	0,001
973,5	0,001
973,9	0,001
974,3	-0
974,7	0
975,2	0,001
975,6	0,001
976	0,002
976,4	0,002
976,8	0,002
977,3	0,002
977,7	0,002
978,1	0,001
978,5	0,001
978,9	0,001
979,4	0,001
979,8	0
980,2	0
980,6	0
981	-0
981,5	-0
981,9	-0
982,3	0
982,7	-0
983,1	0
983,6	0
984	0,001
984,4	0,001
984,8	0,001
985,2	0
985,6	0,001
986,1	0,001
986,5	0,001
986,9	0,001
987,3	0,001
987,7	0,001
988,2	0,001
988,6	0,001
989	0
989,4	-0
989,8	-0
990,3	0
990,7	0
991,1	0,001
991,5	0,001
991,9	0,001
992,3	0,001
992,8	0
993,2	0,001
993,6	0,001
994	-0
994,4	0
994,9	0
995,3	0
995,7	0,001
996,1	0
996,5	-0
996,9	0
997,4	0
997,8	0
998,2	0
998,6	-0
999	0
999,5	0
999,9	0
1000,3	0
1000,7	0,001
1001,1	0,001
1001,5	0,001
1002	0,001
1002,4	0,002
1002,8	0,002
1003,2	0,002
1003,6	0,002
1004	0,003
1004,5	0,003
1004,9	0,003
1005,3	0,003
1005,7	0,003
1006,1	0,003
1006,6	0,003
1007	0,003
1007,4	0,003
1007,8	0,003
1008,2	0,003
1008,6	0,004
1009,1	0,004
1009,5	0,004
1009,9	0,003
1010,3	0,003
1010,7	0,003
1011,1	0,003
1011,6	0,003
1012	0,003
1012,4	0,003
1012,8	0,003
1013,2	0,003
1013,6	0,002
1014,1	0,002
1014,5	0,001
1014,9	0,001
1015,3	0
1015,7	0,001
1016,1	0,001
1016,6	0,001
1017	0,001
1017,4	0,001
1017,8	0,002
1018,2	0,002
1018,6	0,002
1019,1	0,002
1019,5	0,003
1019,9	0,003
1020,3	0,003
1020,7	0,004
1021,1	0,004
1021,6	0,004
1022	0,003
1022,4	0,003
1022,8	0,003
1023,2	0,004
1023,6	0,003
1024,1	0,004
1024,5	0,004
1024,9	0,003
1025,3	0,003
1025,7	0,002
1026,1	0,001
1026,6	0,001
1027	0
1027,4	0
1027,8	0,001
1028,2	0,001
1028,6	0,001
1029	0,001
1029,5	0,001
1029,9	0,001
1030,3	0,001
1030,7	0,002
1031,1	0,001
1031,5	0,002
1032	0,001
1032,4	0,003
1032,8	0,002
1033,2	0,002
1033,6	0,002
1034	0,001
1034,4	0,001
1034,9	0,001
1035,3	0
1035,7	-0
1036,1	-0
1036,5	-0,001
1036,9	0
1037,4	0,001
1037,8	0,001
1038,2	0,001
1038,6	0,001
1039	0,001
1039,4	0,002
1039,8	0,001
1040,3	0,001
1040,7	0,001
1041,1	0,002
1041,5	0,002
1041,9	0,003
1042,3	0,002
1042,7	0,002
1043,2	0,002
1043,6	0,002
1044	0,002
1044,4	0,001
1044,8	-0
1045,2	-0,001
1045,6	-0
1046,1	-0,001
1046,5	-0
1046,9	-0
1047,3	0
1047,7	0
1048,1	0
1048,5	0
1049	0
1049,4	-0,001
1049,8	-0,001
1050,2	-0,001
1050,6	-0
1051	0
1051,4	0
1051,9	0
1052,3	0,002
1052,7	0,002
1053,1	0,001
1053,5	0,001
1053,9	0,001
1054,3	0,002
1054,8	0,002
1055,2	0,002
1055,6	0,002
1056	0,002
1056,4	0,002
1056,8	0,002
1057,2	0,002
1057,6	0,001
1058,1	0,001
1058,5	0,001
1058,9	0,001
1059,3	0,001
1059,7	0,001
1060,1	0
1060,5	0
1061	0
1061,4	-0
1061,8	-0,001
1062,2	-0,001
1062,6	-0,001
1063	-0
1063,4	-0
1063,8	0
1064,3	-0
1064,7	-0
1065,1	-0
1065,5	-0,001
1065,9	-0,001
1066,3	-0,001
1066,7	-0,001
1067,1	0
1067,6	0,001
1068	0
1068,4	-0
1068,8	-0,001
1069,2	-0,001
1069,6	-0,001
1070	-0,002
1070,4	-0,002
1070,9	-0,002
1071,3	-0,001
1071,7	-0,001
1072,1	-0
1072,5	-0
1072,9	0,001
1073,3	0,001
1073,7	0,001
1074,2	-0
1074,6	0
1075	-0
1075,4	-0,001
1075,8	-0,002
1076,2	-0,002
1076,6	-0,002
1077	-0,002
1077,5	-0,003
1077,9	-0,003
1078,3	-0,003
1078,7	-0,003
1079,1	-0,002
1079,5	-0,004
1079,9	-0,002
1080,3	-0,003
1080,7	-0,002
1081,2	-0,003
1081,6	-0,002
1082	-0,004
1082,4	-0,004
1082,8	-0,007
1083,2	-0,006
1083,6	-0,007
1084	-0,009
1084,5	-0,009
1084,9	-0,01
1085,3	-0,01
1085,7	-0,007
1086,1	-0,008
1086,5	-0,005
1086,9	-0,003
1087,3	-0,002
1087,7	-0,001
1088,2	-0,001
1088,6	-0,004
1089	-0,002
1089,4	-0,003
1089,8	-0,003
1090,2	-0,007
1090,6	-0,006
1091	-0,005
1091,4	-0,005
1091,9	-0,007
1092,3	-0,009
1092,7	-0,012
1093,1	-0,009
1093,5	-0,009
1093,9	-0,011
1094,3	-0,011
1094,7	-0,014
1095,1	-0,011
1095,5	-0,013
1096	-0,016
1096,4	-0,017
1096,8	-0,014
1097,2	-0,018
1097,6	-0,019
1098	-0,023
1098,4	-0,019
1098,8	-0,023
1099,2	-0,029
1099,6	-0,034
1100,1	-0,027
1100,5	-0,027
1100,9	-0,025
1101,3	-0,024
1101,7	-0,023
1102,1	-0,022
1102,5	-0,023
1102,9	-0,034
1103,3	-0,029
1103,7	-0,031
1104,2	-0,033
1104,6	-0,043
1105	-0,044
1105,4	-0,048
1105,8	-0,036
1106,2	-0,049
1106,6	-0,056
1107	-0,081
1107,4	-0,063
1107,8	-0,047
1108,3	-0,192
