Data from Absorbance_00029.txt Node
Date: Wed Aug 02 14:13:10 MSK 2023
User: vat
Spectrometer: MAYP114033
Trigger mode: 0
Integration Time (sec): 8,000000E-3
Scans to average: 10
Electric dark correction enabled: true
Nonlinearity correction enabled: false
Boxcar width: 3
XAxis mode: Wavelengths
Number of Pixels in Spectrum: 2068
>>>>>Begin Spectral Data<<<<<
199,4	-0,714
199,9	-0,213
200,4	0,212
200,8	0,608
201,3	0,802
201,8	0,874
202,2	0,887
202,7	0,926
203,2	0,987
203,6	1,015
204,1	1,023
204,6	1,029
205	1,036
205,5	1,066
206	1,071
206,4	1,089
206,9	1,111
207,4	1,133
207,8	1,15
208,3	1,163
208,8	1,166
209,2	1,193
209,7	1,199
210,2	1,207
210,6	1,236
211,1	1,251
211,5	1,285
212	1,318
212,5	1,321
212,9	1,334
213,4	1,354
213,9	1,342
214,3	1,344
214,8	1,333
215,3	1,338
215,7	1,354
216,2	1,38
216,7	1,387
217,1	1,424
217,6	1,437
218,1	1,46
218,5	1,476
219	1,484
219,5	1,474
219,9	1,505
220,4	1,498
220,9	1,504
221,3	1,52
221,8	1,546
222,3	1,56
222,7	1,606
223,2	1,616
223,6	1,635
224,1	1,663
224,6	1,685
225	1,691
225,5	1,719
226	1,728
226,4	1,734
226,9	1,754
227,4	1,78
227,8	1,78
228,3	1,796
228,8	1,803
229,2	1,812
229,7	1,845
230,2	1,86
230,6	1,859
231,1	1,875
231,5	1,883
232	1,887
232,5	1,885
232,9	1,874
233,4	1,902
233,9	1,899
234,3	1,901
234,8	1,9
235,3	1,91
235,7	1,929
236,2	1,936
236,7	1,925
237,1	1,938
237,6	1,95
238,1	1,968
238,5	1,982
239	1,971
239,4	1,974
239,9	1,973
240,4	1,98
240,8	1,993
241,3	1,99
241,8	2
242,2	2,007
242,7	2,014
243,2	2,022
243,6	2,027
244,1	2,008
244,6	2,013
245	2,02
245,5	2,036
245,9	2,04
246,4	2,045
246,9	2,071
247,3	2,098
247,8	2,108
248,3	2,108
248,7	2,118
249,2	2,115
249,7	2,126
250,1	2,103
250,6	2,127
251	2,128
251,5	2,117
252	2,105
252,4	2,107
252,9	2,111
253,4	2,112
253,8	2,106
254,3	2,111
254,8	2,117
255,2	2,13
255,7	2,129
256,1	2,13
256,6	2,139
257,1	2,131
257,5	2,116
258	2,135
258,5	2,137
258,9	2,155
259,4	2,142
259,9	2,138
260,3	2,122
260,8	2,124
261,2	2,114
261,7	2,101
262,2	2,1
262,6	2,128
263,1	2,126
263,6	2,134
264	2,127
264,5	2,12
264,9	2,123
265,4	2,12
265,9	2,11
266,3	2,111
266,8	2,129
267,3	2,151
267,7	2,177
268,2	2,193
268,7	2,191
269,1	2,176
269,6	2,199
270	2,171
270,5	2,179
271	2,147
271,4	2,137
271,9	2,142
272,4	2,143
272,8	2,15
273,3	2,151
273,7	2,15
274,2	2,174
274,7	2,18
275,1	2,189
275,6	2,191
276,1	2,169
276,5	2,189
277	2,185
277,4	2,195
277,9	2,198
278,4	2,189
278,8	2,223
279,3	2,235
279,8	2,245
280,2	2,245
280,7	2,227
281,1	2,251
281,6	2,256
282,1	2,232
282,5	2,214
283	2,186
283,4	2,186
283,9	2,172
284,4	2,154
284,8	2,145
285,3	2,138
285,8	2,137
286,2	2,136
286,7	2,111
287,1	2,089
287,6	2,057
288,1	2,033
288,5	2,014
289	1,991
289,5	1,967
289,9	1,947
290,4	1,932
290,8	1,923
291,3	1,916
291,8	1,894
292,2	1,887
292,7	1,879
293,1	1,873
293,6	1,873
294,1	1,864
294,5	1,86
295	1,856
295,5	1,845
295,9	1,839
296,4	1,838
296,8	1,83
297,3	1,83
297,8	1,82
298,2	1,815
298,7	1,813
299,1	1,807
299,6	1,8
300,1	1,799
300,5	1,792
301	1,785
301,5	1,786
301,9	1,773
302,4	1,771
302,8	1,76
303,3	1,747
303,8	1,74
304,2	1,734
304,7	1,72
305,1	1,718
305,6	1,705
306,1	1,7
306,5	1,692
307	1,676
307,4	1,665
307,9	1,657
308,4	1,65
308,8	1,642
309,3	1,629
309,8	1,619
310,2	1,612
310,7	1,598
311,1	1,588
311,6	1,574
312,1	1,563
312,5	1,551
313	1,539
313,4	1,529
313,9	1,518
314,4	1,504
314,8	1,489
315,3	1,475
315,7	1,463
316,2	1,446
316,7	1,431
317,1	1,419
317,6	1,404
318	1,394
318,5	1,381
319	1,37
319,4	1,36
319,9	1,347
320,3	1,329
320,8	1,318
321,3	1,305
321,7	1,295
322,2	1,28
322,6	1,267
323,1	1,253
323,6	1,243
324	1,229
324,5	1,215
324,9	1,198
325,4	1,185
325,9	1,17
326,3	1,155
326,8	1,141
327,2	1,126
327,7	1,11
328,2	1,096
328,6	1,082
329,1	1,069
329,5	1,056
330	1,043
330,5	1,029
330,9	1,016
331,4	1,002
331,8	0,988
332,3	0,974
332,8	0,96
333,2	0,948
333,7	0,933
334,1	0,921
334,6	0,907
335,1	0,894
335,5	0,882
336	0,867
336,4	0,854
336,9	0,84
337,4	0,827
337,8	0,815
338,3	0,801
338,7	0,788
339,2	0,777
339,7	0,763
340,1	0,752
340,6	0,738
341	0,727
341,5	0,717
342	0,705
342,4	0,693
342,9	0,683
343,3	0,673
343,8	0,664
344,2	0,651
344,7	0,641
345,2	0,63
345,6	0,62
346,1	0,609
346,5	0,598
347	0,587
347,5	0,578
347,9	0,569
348,4	0,56
348,8	0,551
349,3	0,541
349,8	0,532
350,2	0,522
350,7	0,513
351,1	0,503
351,6	0,494
352	0,485
352,5	0,477
353	0,468
353,4	0,46
353,9	0,452
354,3	0,444
354,8	0,436
355,3	0,428
355,7	0,421
356,2	0,414
356,6	0,406
357,1	0,4
357,5	0,393
358	0,387
358,5	0,379
358,9	0,373
359,4	0,366
359,8	0,36
360,3	0,353
360,8	0,347
361,2	0,341
361,7	0,336
362,1	0,33
362,6	0,324
363	0,318
363,5	0,313
364	0,308
364,4	0,302
364,9	0,297
365,3	0,292
365,8	0,287
366,3	0,283
366,7	0,277
367,2	0,273
367,6	0,269
368,1	0,264
368,5	0,261
369	0,257
369,5	0,253
369,9	0,249
370,4	0,245
370,8	0,241
371,3	0,237
371,7	0,233
372,2	0,228
372,7	0,224
373,1	0,221
373,6	0,217
374	0,214
374,5	0,21
374,9	0,208
375,4	0,204
375,9	0,201
376,3	0,198
376,8	0,194
377,2	0,192
377,7	0,189
378,2	0,185
378,6	0,183
379,1	0,18
379,5	0,178
380	0,176
380,4	0,173
380,9	0,171
381,4	0,168
381,8	0,165
382,3	0,161
382,7	0,159
383,2	0,156
383,6	0,154
384,1	0,151
384,6	0,149
385	0,146
385,5	0,145
385,9	0,143
386,4	0,14
386,8	0,139
387,3	0,137
387,7	0,135
388,2	0,133
388,7	0,131
389,1	0,129
389,6	0,127
390	0,125
390,5	0,123
390,9	0,119
391,4	0,117
391,9	0,115
392,3	0,112
392,8	0,11
393,2	0,108
393,7	0,107
394,1	0,106
394,6	0,105
395,1	0,103
395,5	0,102
396	0,101
396,4	0,098
396,9	0,096
397,3	0,094
397,8	0,093
398,2	0,092
398,7	0,09
399,2	0,088
399,6	0,087
400,1	0,086
400,5	0,085
401	0,083
401,4	0,081
401,9	0,079
402,4	0,078
402,8	0,076
403,3	0,074
403,7	0,073
404,2	0,073
404,6	0,072
405,1	0,07
405,5	0,069
406	0,068
406,5	0,067
406,9	0,066
407,4	0,065
407,8	0,064
408,3	0,063
408,7	0,061
409,2	0,06
409,6	0,059
410,1	0,057
410,6	0,056
411	0,055
411,5	0,053
411,9	0,053
412,4	0,051
412,8	0,05
413,3	0,049
413,7	0,048
414,2	0,048
414,7	0,047
415,1	0,045
415,6	0,045
416	0,043
416,5	0,043
416,9	0,041
417,4	0,04
417,8	0,04
418,3	0,038
418,8	0,037
419,2	0,037
419,7	0,036
420,1	0,035
420,6	0,033
421	0,033
421,5	0,032
421,9	0,032
422,4	0,03
422,8	0,03
423,3	0,029
423,8	0,029
424,2	0,028
424,7	0,027
425,1	0,026
425,6	0,026
426	0,025
426,5	0,025
426,9	0,025
427,4	0,024
427,9	0,023
428,3	0,023
428,8	0,022
429,2	0,02
429,7	0,02
430,1	0,019
430,6	0,019
431	0,018
431,5	0,018
431,9	0,017
432,4	0,017
432,8	0,016
433,3	0,016
433,8	0,014
434,2	0,014
434,7	0,013
435,1	0,012
435,6	0,012
436	0,011
436,5	0,01
436,9	0,011
437,4	0,01
437,8	0,01
438,3	0,009
438,8	0,009
439,2	0,009
439,7	0,009
440,1	0,009
440,6	0,008
441	0,007
441,5	0,008
441,9	0,007
442,4	0,007
442,8	0,006
443,3	0,006
443,7	0,006
444,2	0,006
444,7	0,006
445,1	0,006
445,6	0,005
446	0,005
446,5	0,005
446,9	0,005
447,4	0,004
447,8	0,004
448,3	0,004
448,7	0,003
449,2	0,003
449,6	0,003
450,1	0,002
450,6	0,002
451	0,002
451,5	0,002
451,9	0,002
452,4	0,002
452,8	0,002
453,3	0,002
453,7	0,002
454,2	0,002
454,6	0,002
455,1	0,002
455,5	0,001
456	0,001
456,4	0
456,9	-0
457,3	-0
457,8	-0
458,3	-0
458,7	-0
459,2	0
459,6	0
460,1	0
460,5	-0
461	-0,001
461,4	-0,001
461,9	-0,002
462,3	-0,002
462,8	-0,002
463,2	-0,002
463,7	-0,002
464,1	-0,002
464,6	-0,002
465	-0,002
465,5	-0,001
466	-0,002
466,4	-0,002
466,9	-0,001
467,3	-0,001
467,8	-0,002
468,2	-0,002
468,7	-0,002
469,1	-0,001
469,6	-0,002
470	-0,001
470,5	-0,001
470,9	-0,001
471,4	-0,001
471,8	-0,002
472,3	-0,003
472,7	-0,003
473,2	-0,003
473,6	-0,003
474,1	-0,003
474,5	-0,002
475	-0,002
475,4	-0,002
475,9	-0,002
476,4	-0,003
476,8	-0,003
477,3	-0,003
477,7	-0,003
478,2	-0,003
478,6	-0,002
479,1	-0,002
479,5	-0,001
480	-0,002
480,4	-0,002
480,9	-0,002
481,3	-0,003
481,8	-0,003
482,2	-0,003
482,7	-0,004
483,1	-0,004
483,6	-0,004
484	-0,004
484,5	-0,004
484,9	-0,003
485,4	-0,004
485,8	-0,004
486,3	-0,001
486,7	-0,001
487,2	-0,002
487,6	-0,002
488,1	-0,002
488,5	-0,001
489	-0,001
489,4	-0,006
489,9	-0,005
490,4	-0,004
490,8	-0,003
491,3	-0,002
491,7	-0,001
492,2	-0
492,6	-0,001
493,1	-0,001
493,5	-0,001
494	-0,001
494,4	-0,002
494,9	-0,002
495,3	-0,001
495,8	-0,002
496,2	-0,002
496,7	-0,002
497,1	-0,002
497,6	-0,002
498	-0,003
498,5	-0,003
498,9	-0,002
499,4	-0,003
499,8	-0,002
500,3	-0,003
500,7	-0,003
501,2	-0,003
501,6	-0,003
502,1	-0,003
502,5	-0,003
503	-0,003
503,4	-0,002
503,9	-0,002
504,3	-0,002
504,8	-0,002
505,2	-0,002
505,7	-0,003
506,1	-0,002
506,6	-0,003
507	-0,003
507,5	-0,003
507,9	-0,003
508,4	-0,003
508,8	-0,003
509,3	-0,003
509,7	-0,003
510,2	-0,003
510,6	-0,003
511,1	-0,002
511,5	-0,003
512	-0,003
512,4	-0,004
512,9	-0,004
513,3	-0,004
513,8	-0,004
514,2	-0,004
514,7	-0,003
515,1	-0,003
515,6	-0,003
516	-0,003
516,5	-0,003
516,9	-0,002
517,4	-0,003
517,8	-0,004
518,3	-0,004
518,7	-0,003
519,2	-0,003
519,6	-0,002
520,1	-0,002
520,5	-0,002
521	-0,002
521,4	-0,002
521,9	-0,002
522,3	-0,002
522,8	-0,003
523,2	-0,003
523,7	-0,003
524,1	-0,003
524,6	-0,004
525	-0,004
525,5	-0,004
525,9	-0,004
526,4	-0,004
526,8	-0,004
527,3	-0,004
527,7	-0,004
528,2	-0,004
528,6	-0,003
529,1	-0,003
529,5	-0,003
530	-0,002
530,4	-0,002
530,9	-0,002
531,3	-0,002
531,8	-0,002
532,2	-0,002
532,6	-0,002
533,1	-0,003
533,5	-0,003
534	-0,002
534,4	-0,002
534,9	-0,002
535,3	-0,003
535,8	-0,002
536,2	-0,003
536,7	-0,003
537,1	-0,004
537,6	-0,004
538	-0,003
538,5	-0,003
538,9	-0,003
539,4	-0,003
539,8	-0,003
540,3	-0,003
540,7	-0,003
541,2	-0,002
541,6	-0,002
542,1	-0,003
542,5	-0,002
543	-0,003
543,4	-0,002
543,9	-0,002
544,3	-0,003
544,8	-0,003
545,2	-0,003
545,7	-0,003
546,1	-0,003
546,5	-0,002
547	-0,003
547,4	-0,003
547,9	-0,003
548,3	-0,003
548,8	-0,003
549,2	-0,002
549,7	-0,003
550,1	-0,003
550,6	-0,003
551	-0,004
551,5	-0,004
551,9	-0,004
552,4	-0,004
552,8	-0,004
553,3	-0,004
553,7	-0,003
554,2	-0,003
554,6	-0,002
555,1	-0,003
555,5	-0,002
555,9	-0,003
556,4	-0,003
556,8	-0,003
557,3	-0,003
557,7	-0,003
558,2	-0,002
558,6	-0,002
559,1	-0,002
559,5	-0,002
560	-0,002
560,4	-0,002
560,9	-0,003
561,3	-0,002
561,8	-0,002
562,2	-0,003
562,7	-0,002
563,1	-0,002
563,6	-0,002
564	-0,002
564,4	-0,001
564,9	-0,001
565,3	-0,001
565,8	-0,002
566,2	-0,002
566,7	-0,002
567,1	-0,002
567,6	-0,003
568	-0,002
568,5	-0,003
568,9	-0,002
569,4	-0,002
569,8	-0,002
570,3	-0,002
570,7	-0,002
571,1	-0,003
571,6	-0,002
572	-0,002
572,5	-0,003
572,9	-0,004
573,4	-0,003
573,8	-0,003
574,3	-0,003
574,7	-0,003
575,2	-0,003
575,6	-0,003
576,1	-0,002
576,5	-0,002
576,9	-0,002
577,4	-0,002
577,8	-0,001
578,3	-0,001
578,7	-0,002
579,2	-0,002
579,6	-0,002
580,1	-0,002
580,5	-0,002
581	-0,003
581,4	-0,002
581,9	-0,002
582,3	-0,002
582,7	-0,003
583,2	-0,003
583,6	-0,003
584,1	-0,002
584,5	-0,003
585	-0,003
585,4	-0,002
585,9	-0,001
586,3	-0,001
586,8	-0,001
587,2	-0,001
587,6	-0,001
588,1	-0,002
588,5	-0,001
589	-0,002
589,4	-0,001
589,9	-0,001
590,3	-0,002
590,8	-0,002
591,2	-0,002
591,7	-0,002
592,1	-0,002
592,5	-0,002
593	-0,002
593,4	-0,002
593,9	-0,002
594,3	-0,002
594,8	-0,002
595,2	-0,001
595,7	-0,002
596,1	-0,002
596,6	-0,002
597	-0,002
597,4	-0,001
597,9	-0,002
598,3	-0,002
598,8	-0,002
599,2	-0,002
599,7	-0,002
600,1	-0,003
600,6	-0,003
601	-0,003
601,4	-0,003
601,9	-0,003
602,3	-0,003
602,8	-0,003
603,2	-0,002
603,7	-0,002
604,1	-0,002
604,6	-0,002
605	-0,002
605,4	-0,001
605,9	-0,002
606,3	-0,002
606,8	-0,002
607,2	-0,002
607,7	-0,002
608,1	-0,002
608,6	-0,002
609	-0,002
609,4	-0,002
609,9	-0,001
610,3	-0,001
610,8	-0,002
611,2	-0,002
611,7	-0,002
612,1	-0,002
612,6	-0,002
613	-0,002
613,4	-0,002
613,9	-0,002
614,3	-0,002
614,8	-0,002
615,2	-0,002
615,7	-0,002
616,1	-0,003
616,6	-0,002
617	-0,002
617,4	-0,002
617,9	-0,002
618,3	-0,002
618,8	-0,002
619,2	-0,002
619,7	-0,001
620,1	-0,002
620,5	-0,002
621	-0,002
621,4	-0,001
621,9	-0,001
622,3	-0,001
622,8	-0,002
623,2	-0,002
623,6	-0,002
624,1	-0,002
624,5	-0,002
625	-0,003
625,4	-0,003
625,9	-0,003
626,3	-0,003
626,8	-0,002
627,2	-0,002
627,6	-0,002
628,1	-0,001
628,5	-0,001
629	-0,002
629,4	-0,001
629,9	-0,001
630,3	-0,002
630,7	-0,002
631,2	-0,002
631,6	-0,002
632,1	-0,002
632,5	-0,002
633	-0,002
633,4	-0,002
633,8	-0,002
634,3	-0,002
634,7	-0,002
635,2	-0,002
635,6	-0,002
636,1	-0,002
636,5	-0,002
636,9	-0,002
637,4	-0,002
637,8	-0,002
638,3	-0,002
638,7	-0,003
639,2	-0,003
639,6	-0,002
640	-0,002
640,5	-0,003
640,9	-0,002
641,4	-0,003
641,8	-0,003
642,2	-0,003
642,7	-0,004
643,1	-0,004
643,6	-0,004
644	-0,004
644,5	-0,004
644,9	-0,004
645,3	-0,004
645,8	-0,004
646,2	-0,004
646,7	-0,004
647,1	-0,003
647,6	-0,003
648	-0,003
648,4	-0,002
648,9	-0,002
649,3	-0,002
649,8	-0,002
650,2	-0,002
650,6	-0,002
651,1	-0,002
651,5	-0,003
652	-0,003
652,4	-0,003
652,9	-0,003
653,3	-0,003
653,7	-0,004
654,2	-0,005
654,6	-0,007
655,1	-0,01
655,5	-0,006
655,9	-0,004
656,4	-0,003
656,8	-0,004
657,3	-0,004
657,7	-0,003
658,2	-0,001
658,6	-0,001
659	-0
659,5	0
659,9	0,008
660,4	0,01
660,8	0,009
661,2	0,008
661,7	0,007
662,1	0,004
662,6	0,003
663	0,001
663,4	0
663,9	-0
664,3	-0
664,8	-0,001
665,2	-0,001
665,6	-0,002
666,1	-0,002
666,5	-0,002
667	-0,003
667,4	-0,003
667,9	-0,003
668,3	-0,003
668,7	-0,003
669,2	-0,003
669,6	-0,002
670,1	-0,002
670,5	-0,003
670,9	-0,003
671,4	-0,003
671,8	-0,003
672,3	-0,003
672,7	-0,003
673,1	-0,002
673,6	-0,002
674	-0,002
674,5	-0,003
674,9	-0,002
675,3	-0,003
675,8	-0,003
676,2	-0,003
676,7	-0,003
677,1	-0,003
677,5	-0,003
678	-0,003
678,4	-0,003
678,9	-0,002
679,3	-0,002
679,7	-0,002
680,2	-0,002
680,6	-0,002
681,1	-0,002
681,5	-0,002
681,9	-0,003
682,4	-0,003
682,8	-0,004
683,3	-0,003
683,7	-0,003
684,1	-0,003
684,6	-0,003
685	-0,003
685,5	-0,003
685,9	-0,003
686,3	-0,003
686,8	-0,003
687,2	-0,003
687,7	-0,003
688,1	-0,003
688,5	-0,003
689	-0,003
689,4	-0,003
689,9	-0,002
690,3	-0,002
690,7	-0,002
691,2	-0,002
691,6	-0,002
692	-0,002
692,5	-0,003
692,9	-0,003
693,4	-0,003
693,8	-0,003
694,2	-0,003
694,7	-0,003
695,1	-0,003
695,6	-0,003
696	-0,003
696,4	-0,003
696,9	-0,003
697,3	-0,003
697,8	-0,003
698,2	-0,003
698,6	-0,003
699,1	-0,003
699,5	-0,003
699,9	-0,003
700,4	-0,003
700,8	-0,003
701,3	-0,003
701,7	-0,003
702,1	-0,003
702,6	-0,003
703	-0,003
703,5	-0,003
703,9	-0,003
704,3	-0,002
704,8	-0,003
705,2	-0,002
705,6	-0,003
706,1	-0,003
706,5	-0,003
707	-0,003
707,4	-0,003
707,8	-0,003
708,3	-0,003
708,7	-0,003
709,2	-0,002
709,6	-0,002
710	-0,002
710,5	-0,002
710,9	-0,002
711,3	-0,003
711,8	-0,003
712,2	-0,003
712,7	-0,003
713,1	-0,003
713,5	-0,003
714	-0,003
714,4	-0,002
714,8	-0,002
715,3	-0,002
715,7	-0,002
716,2	-0,002
716,6	-0,001
717	-0,001
717,5	-0,001
717,9	-0,001
718,3	-0,002
718,8	-0,002
719,2	-0,001
719,7	-0,002
720,1	-0,002
720,5	-0,002
721	-0,002
721,4	-0,002
721,8	-0,002
722,3	-0,002
722,7	-0,002
723,2	-0,002
723,6	-0,002
724	-0,003
724,5	-0,003
724,9	-0,003
725,3	-0,003
725,8	-0,003
726,2	-0,003
726,7	-0,003
727,1	-0,003
727,5	-0,003
728	-0,002
728,4	-0,002
728,8	-0,002
729,3	-0,002
729,7	-0,002
730,1	-0,002
730,6	-0,002
731	-0,002
731,5	-0,002
731,9	-0,003
732,3	-0,003
732,8	-0,003
733,2	-0,003
733,6	-0,003
734,1	-0,003
734,5	-0,003
734,9	-0,003
735,4	-0,003
735,8	-0,003
736,3	-0,003
736,7	-0,003
737,1	-0,003
737,6	-0,003
738	-0,002
738,4	-0,002
738,9	-0,002
739,3	-0,002
739,7	-0,002
740,2	-0,002
740,6	-0,002
741,1	-0,003
741,5	-0,003
741,9	-0,003
742,4	-0,003
742,8	-0,003
743,2	-0,003
743,7	-0,003
744,1	-0,003
744,5	-0,003
745	-0,002
745,4	-0,002
745,8	-0,002
746,3	-0,002
746,7	-0,002
747,2	-0,002
747,6	-0,002
748	-0,003
748,5	-0,003
748,9	-0,003
749,3	-0,003
749,8	-0,003
750,2	-0,003
750,6	-0,003
751,1	-0,003
751,5	-0,004
751,9	-0,004
752,4	-0,004
752,8	-0,004
753,3	-0,004
753,7	-0,003
754,1	-0,004
754,6	-0,003
755	-0,003
755,4	-0,003
755,9	-0,002
756,3	-0,002
756,7	-0,002
757,2	-0,002
757,6	-0,002
758	-0,002
758,5	-0,002
758,9	-0,002
759,3	-0,002
759,8	-0,002
760,2	-0,002
760,6	-0,002
761,1	-0,002
761,5	-0,002
761,9	-0,002
762,4	-0,002
762,8	-0,002
763,3	-0,002
763,7	-0,002
764,1	-0,002
764,6	-0,002
765	-0,002
765,4	-0,002
765,9	-0,002
766,3	-0,002
766,7	-0,002
767,2	-0,002
767,6	-0,002
768	-0,002
768,5	-0,002
768,9	-0,002
769,3	-0,003
769,8	-0,004
770,2	-0,004
770,6	-0,004
771,1	-0,004
771,5	-0,004
771,9	-0,004
772,4	-0,004
772,8	-0,004
773,2	-0,004
773,7	-0,004
774,1	-0,004
774,5	-0,004
775	-0,003
775,4	-0,003
775,8	-0,003
776,3	-0,002
776,7	-0,003
777,1	-0,002
777,6	-0,002
778	-0,002
778,4	-0,002
778,9	-0,003
779,3	-0,003
779,7	-0,002
780,2	-0,003
780,6	-0,003
781	-0,003
781,5	-0,003
781,9	-0,003
782,3	-0,003
782,8	-0,004
783,2	-0,003
783,6	-0,003
784,1	-0,004
784,5	-0,003
784,9	-0,003
785,4	-0,003
785,8	-0,002
786,2	-0,002
786,7	-0,002
787,1	-0,002
787,5	-0,002
788	-0,002
788,4	-0,002
788,8	-0,003
789,3	-0,003
789,7	-0,002
790,1	-0,003
790,6	-0,002
791	-0,002
791,4	-0,002
791,9	-0,002
792,3	-0,002
792,7	-0,003
793,2	-0,003
793,6	-0,003
794	-0,003
794,5	-0,003
794,9	-0,003
795,3	-0,003
795,8	-0,003
796,2	-0,003
796,6	-0,003
797,1	-0,002
797,5	-0,002
797,9	-0,002
798,4	-0,002
798,8	-0,001
799,2	-0,002
799,7	-0,002
800,1	-0,002
800,5	-0,002
801	-0,002
801,4	-0,002
801,8	-0,002
802,2	-0,003
802,7	-0,002
803,1	-0,002
803,5	-0,002
804	-0,003
804,4	-0,003
804,8	-0,003
805,3	-0,003
805,7	-0,003
806,1	-0,003
806,6	-0,003
807	-0,003
807,4	-0,003
807,9	-0,003
808,3	-0,003
808,7	-0,003
809,2	-0,003
809,6	-0,003
810	-0,003
810,4	-0,003
810,9	-0,003
811,3	-0,003
811,7	-0,003
812,2	-0,002
812,6	-0,002
813	-0,002
813,5	-0,002
813,9	-0,002
814,3	-0,002
814,8	-0,002
815,2	-0,002
815,6	-0,002
816,1	-0,002
816,5	-0,002
816,9	-0,002
817,3	-0,002
817,8	-0,002
818,2	-0,002
818,6	-0,002
819,1	-0,002
819,5	-0,002
819,9	-0,002
820,4	-0,002
820,8	-0,003
821,2	-0,003
821,7	-0,002
822,1	-0,002
822,5	-0,002
822,9	-0,002
823,4	-0,002
823,8	-0,001
824,2	-0,001
824,7	-0,001
825,1	-0,001
825,5	-0,001
826	-0,001
826,4	-0,002
826,8	-0,002
827,3	-0,002
827,7	-0,003
828,1	-0,003
828,5	-0,003
829	-0,003
829,4	-0,003
829,8	-0,003
830,3	-0,003
830,7	-0,002
831,1	-0,002
831,6	-0,002
832	-0,002
832,4	-0,002
832,8	-0,002
833,3	-0,002
833,7	-0,002
834,1	-0,003
834,6	-0,003
835	-0,003
835,4	-0,003
835,8	-0,003
836,3	-0,003
836,7	-0,003
837,1	-0,002
837,6	-0,002
838	-0,002
838,4	-0,002
838,9	-0,002
839,3	-0,002
839,7	-0,003
840,1	-0,003
840,6	-0,003
841	-0,003
841,4	-0,003
841,9	-0,003
842,3	-0,003
842,7	-0,002
843,1	-0,002
843,6	-0,003
844	-0,003
844,4	-0,003
844,9	-0,003
845,3	-0,003
845,7	-0,004
846,2	-0,004
846,6	-0,004
847	-0,004
847,4	-0,004
847,9	-0,004
848,3	-0,004
848,7	-0,004
849,2	-0,003
849,6	-0,003
850	-0,003
850,4	-0,003
850,9	-0,003
851,3	-0,003
851,7	-0,003
852,2	-0,003
852,6	-0,003
853	-0,003
853,4	-0,003
853,9	-0,003
854,3	-0,003
854,7	-0,003
855,2	-0,003
855,6	-0,002
856	-0,002
856,4	-0,002
856,9	-0,003
857,3	-0,002
857,7	-0,003
858,2	-0,003
858,6	-0,003
859	-0,003
859,4	-0,003
859,9	-0,003
860,3	-0,003
860,7	-0,002
861,1	-0,002
861,6	-0,002
862	-0,002
862,4	-0,002
862,9	-0,002
863,3	-0,002
863,7	-0,002
864,1	-0,002
864,6	-0,003
865	-0,003
865,4	-0,003
865,9	-0,002
866,3	-0,002
866,7	-0,003
867,1	-0,002
867,6	-0,002
868	-0,002
868,4	-0,003
868,8	-0,002
869,3	-0,002
869,7	-0,002
870,1	-0,002
870,6	-0,002
871	-0,002
871,4	-0,002
871,8	-0,002
872,3	-0,003
872,7	-0,003
873,1	-0,003
873,5	-0,004
874	-0,004
874,4	-0,004
874,8	-0,004
875,3	-0,004
875,7	-0,004
876,1	-0,004
876,5	-0,004
877	-0,004
877,4	-0,004
877,8	-0,004
878,2	-0,004
878,7	-0,004
879,1	-0,004
879,5	-0,004
879,9	-0,004
880,4	-0,004
880,8	-0,004
881,2	-0,003
881,7	-0,003
882,1	-0,003
882,5	-0,003
882,9	-0,004
883,4	-0,004
883,8	-0,004
884,2	-0,004
884,6	-0,004
885,1	-0,005
885,5	-0,005
885,9	-0,004
886,3	-0,004
886,8	-0,004
887,2	-0,004
887,6	-0,004
888	-0,004
888,5	-0,004
888,9	-0,003
889,3	-0,003
889,8	-0,003
890,2	-0,002
890,6	-0,001
891	-0,001
891,5	-0
891,9	-0,001
892,3	-0,001
892,7	-0,001
893,2	-0,001
893,6	-0,001
894	-0,002
894,4	-0,002
894,9	-0,002
895,3	-0,002
895,7	-0,002
896,1	-0,003
896,6	-0,003
897	-0,003
897,4	-0,003
897,8	-0,003
898,3	-0,003
898,7	-0,003
899,1	-0,003
899,5	-0,003
900	-0,003
900,4	-0,003
900,8	-0,003
901,2	-0,003
901,7	-0,003
902,1	-0,003
902,5	-0,003
902,9	-0,003
903,4	-0,003
903,8	-0,002
904,2	-0,003
904,6	-0,002
905,1	-0,002
905,5	-0,002
905,9	-0,002
906,3	-0,001
906,8	-0,002
907,2	-0,001
907,6	-0,001
908	-0,001
908,5	-0,001
908,9	0
909,3	0
909,7	0
910,2	0
910,6	0,001
911	0
911,4	0
911,9	-0
912,3	0
912,7	0
913,1	0
913,6	0,001
914	0,001
914,4	0,001
914,8	0,001
915,3	0
915,7	0
916,1	-0
916,5	-0,001
916,9	-0,001
917,4	-0,001
917,8	-0,001
918,2	-0,001
918,6	-0,001
919,1	-0,001
919,5	-0,001
919,9	-0,001
920,3	-0,001
920,8	-0,002
921,2	-0,002
921,6	-0,002
922	-0,001
922,5	-0,002
922,9	-0,002
923,3	-0,002
923,7	-0,002
924,2	-0,002
924,6	-0,002
925	-0,002
925,4	-0,002
925,8	-0,003
926,3	-0,002
926,7	-0,003
927,1	-0,003
927,5	-0,003
928	-0,003
928,4	-0,003
928,8	-0,003
929,2	-0,003
929,7	-0,002
930,1	-0,002
930,5	-0,002
930,9	-0,002
931,3	-0,002
931,8	-0,002
932,2	-0,003
932,6	-0,003
933	-0,003
933,5	-0,004
933,9	-0,004
934,3	-0,004
934,7	-0,004
935,2	-0,004
935,6	-0,004
936	-0,003
936,4	-0,003
936,8	-0,003
937,3	-0,003
937,7	-0,003
938,1	-0,003
938,5	-0,003
939	-0,004
939,4	-0,004
939,8	-0,003
940,2	-0,003
940,6	-0,003
941,1	-0,003
941,5	-0,002
941,9	-0,002
942,3	-0,002
942,8	-0,003
943,2	-0,002
943,6	-0,003
944	-0,003
944,4	-0,003
944,9	-0,003
945,3	-0,003
945,7	-0,003
946,1	-0,003
946,6	-0,003
947	-0,003
947,4	-0,004
947,8	-0,004
948,2	-0,004
948,7	-0,004
949,1	-0,005
949,5	-0,005
949,9	-0,005
950,3	-0,005
950,8	-0,005
951,2	-0,004
951,6	-0,004
952	-0,005
952,5	-0,005
952,9	-0,004
953,3	-0,004
953,7	-0,005
954,1	-0,005
954,6	-0,006
955	-0,005
955,4	-0,006
955,8	-0,007
956,2	-0,006
956,7	-0,007
957,1	-0,007
957,5	-0,007
957,9	-0,008
958,3	-0,007
958,8	-0,008
959,2	-0,008
959,6	-0,008
960	-0,008
960,5	-0,008
960,9	-0,007
961,3	-0,007
961,7	-0,008
962,1	-0,008
962,6	-0,008
963	-0,007
963,4	-0,008
963,8	-0,008
964,2	-0,008
964,7	-0,008
965,1	-0,007
965,5	-0,007
965,9	-0,007
966,3	-0,007
966,8	-0,007
967,2	-0,006
967,6	-0,006
968	-0,006
968,4	-0,005
968,9	-0,006
969,3	-0,005
969,7	-0,005
970,1	-0,004
970,5	-0,004
971	-0,004
971,4	-0,005
971,8	-0,005
972,2	-0,005
972,6	-0,005
973,1	-0,006
973,5	-0,005
973,9	-0,006
974,3	-0,005
974,7	-0,005
975,2	-0,006
975,6	-0,006
976	-0,006
976,4	-0,006
976,8	-0,007
977,3	-0,007
977,7	-0,006
978,1	-0,007
978,5	-0,006
978,9	-0,006
979,4	-0,007
979,8	-0,007
980,2	-0,007
980,6	-0,007
981	-0,007
981,5	-0,007
981,9	-0,007
982,3	-0,006
982,7	-0,006
983,1	-0,006
983,6	-0,005
984	-0,005
984,4	-0,005
984,8	-0,006
985,2	-0,007
985,6	-0,006
986,1	-0,007
986,5	-0,007
986,9	-0,006
987,3	-0,006
987,7	-0,005
988,2	-0,005
988,6	-0,005
989	-0,005
989,4	-0,005
989,8	-0,006
990,3	-0,005
990,7	-0,006
991,1	-0,006
991,5	-0,006
991,9	-0,005
992,3	-0,005
992,8	-0,006
993,2	-0,006
993,6	-0,005
994	-0,005
994,4	-0,005
994,9	-0,005
995,3	-0,005
995,7	-0,005
996,1	-0,005
996,5	-0,005
996,9	-0,005
997,4	-0,005
997,8	-0,005
998,2	-0,006
998,6	-0,006
999	-0,006
999,5	-0,006
999,9	-0,006
1000,3	-0,006
1000,7	-0,006
1001,1	-0,006
1001,5	-0,006
1002	-0,005
1002,4	-0,004
1002,8	-0,004
1003,2	-0,004
1003,6	-0,003
1004	-0,003
1004,5	-0,002
1004,9	-0,002
1005,3	-0,002
1005,7	-0,001
1006,1	-0,001
1006,6	-0,001
1007	-0,002
1007,4	-0,001
1007,8	-0,001
1008,2	-0,001
1008,6	-0,002
1009,1	-0,002
1009,5	-0,002
1009,9	-0,001
1010,3	-0,001
1010,7	-0,001
1011,1	-0,001
1011,6	-0,001
1012	-0,001
1012,4	-0,001
1012,8	-0,001
1013,2	-0,001
1013,6	-0,002
1014,1	-0,002
1014,5	-0,002
1014,9	-0,003
1015,3	-0,003
1015,7	-0,003
1016,1	-0,003
1016,6	-0,003
1017	-0,003
1017,4	-0,003
1017,8	-0,002
1018,2	-0,002
1018,6	-0,003
1019,1	-0,002
1019,5	-0,002
1019,9	-0,002
1020,3	-0,002
1020,7	-0,002
1021,1	-0,002
1021,6	-0,002
1022	-0,002
1022,4	-0,002
1022,8	-0,002
1023,2	-0,002
1023,6	-0,002
1024,1	-0,001
1024,5	-0,001
1024,9	-0,002
1025,3	-0,003
1025,7	-0,003
1026,1	-0,004
1026,6	-0,004
1027	-0,004
1027,4	-0,005
1027,8	-0,004
1028,2	-0,004
1028,6	-0,003
1029	-0,003
1029,5	-0,002
1029,9	-0,002
1030,3	-0,002
1030,7	-0,002
1031,1	-0,002
1031,5	-0,002
1032	-0,002
1032,4	-0,002
1032,8	-0,002
1033,2	-0,002
1033,6	-0,002
1034	-0,003
1034,4	-0,004
1034,9	-0,004
1035,3	-0,004
1035,7	-0,005
1036,1	-0,005
1036,5	-0,005
1036,9	-0,004
1037,4	-0,003
1037,8	-0,004
1038,2	-0,003
1038,6	-0,002
1039	-0,003
1039,4	-0,003
1039,8	-0,003
1040,3	-0,004
1040,7	-0,004
1041,1	-0,004
1041,5	-0,003
1041,9	-0,003
1042,3	-0,003
1042,7	-0,002
1043,2	-0,002
1043,6	-0,003
1044	-0,003
1044,4	-0,004
1044,8	-0,005
1045,2	-0,005
1045,6	-0,006
1046,1	-0,006
1046,5	-0,006
1046,9	-0,006
1047,3	-0,005
1047,7	-0,005
1048,1	-0,004
1048,5	-0,005
1049	-0,005
1049,4	-0,006
1049,8	-0,006
1050,2	-0,006
1050,6	-0,007
1051	-0,007
1051,4	-0,006
1051,9	-0,005
1052,3	-0,005
1052,7	-0,004
1053,1	-0,004
1053,5	-0,003
1053,9	-0,003
1054,3	-0,002
1054,8	-0,002
1055,2	-0,002
1055,6	-0,002
1056	-0,002
1056,4	-0,002
1056,8	-0,003
1057,2	-0,003
1057,6	-0,004
1058,1	-0,004
1058,5	-0,003
1058,9	-0,003
1059,3	-0,002
1059,7	-0,001
1060,1	-0,002
1060,5	-0,001
1061	-0,002
1061,4	-0,003
1061,8	-0,004
1062,2	-0,004
1062,6	-0,004
1063	-0,004
1063,4	-0,004
1063,8	-0,005
1064,3	-0,005
1064,7	-0,005
1065,1	-0,004
1065,5	-0,004
1065,9	-0,003
1066,3	-0,003
1066,7	-0,003
1067,1	-0,002
1067,6	-0,002
1068	-0,003
1068,4	-0,003
1068,8	-0,004
1069,2	-0,005
1069,6	-0,005
1070	-0,005
1070,4	-0,006
1070,9	-0,006
1071,3	-0,006
1071,7	-0,005
1072,1	-0,005
1072,5	-0,005
1072,9	-0,005
1073,3	-0,004
1073,7	-0,005
1074,2	-0,006
1074,6	-0,008
1075	-0,007
1075,4	-0,007
1075,8	-0,007
1076,2	-0,007
1076,6	-0,007
1077	-0,007
1077,5	-0,005
1077,9	-0,005
1078,3	-0,007
1078,7	-0,006
1079,1	-0,005
1079,5	-0,006
1079,9	-0,005
1080,3	-0,006
1080,7	-0,007
1081,2	-0,007
1081,6	-0,008
1082	-0,009
1082,4	-0,008
1082,8	-0,009
1083,2	-0,009
1083,6	-0,01
1084	-0,009
1084,5	-0,01
1084,9	-0,01
1085,3	-0,011
1085,7	-0,01
1086,1	-0,011
1086,5	-0,009
1086,9	-0,01
1087,3	-0,007
1087,7	-0,009
1088,2	-0,01
1088,6	-0,012
1089	-0,01
1089,4	-0,012
1089,8	-0,012
1090,2	-0,016
1090,6	-0,014
1091	-0,013
1091,4	-0,013
1091,9	-0,015
1092,3	-0,013
1092,7	-0,015
1093,1	-0,011
1093,5	-0,009
1093,9	-0,01
1094,3	-0,008
1094,7	-0,005
1095,1	-0,005
1095,5	-0,006
1096	-0,009
1096,4	-0,007
1096,8	-0,002
1097,2	-0,006
1097,6	-0,01
1098	-0,011
1098,4	-0,009
1098,8	-0,015
1099,2	-0,028
1099,6	-0,037
1100,1	-0,034
1100,5	-0,038
1100,9	-0,034
1101,3	-0,028
1101,7	-0,027
1102,1	-0,017
1102,5	-0,011
1102,9	-0,015
1103,3	-0,016
1103,7	-0,02
1104,2	-0,037
1104,6	-0,043
1105	-0,05
1105,4	-0,051
1105,8	-0,048
1106,2	-0,051
1106,6	-0,062
1107	-0,065
1107,4	-0,05
1107,8	-0,018
1108,3	-0,021
