Data from Absorbance_00016.txt Node
Date: Wed Aug 02 13:50:06 MSK 2023
User: vat
Spectrometer: MAYP114033
Trigger mode: 0
Integration Time (sec): 8,000000E-3
Scans to average: 10
Electric dark correction enabled: true
Nonlinearity correction enabled: false
Boxcar width: 3
XAxis mode: Wavelengths
Number of Pixels in Spectrum: 2068
>>>>>Begin Spectral Data<<<<<
199,4	-0,946
199,9	-0,23
200,4	0,214
200,8	0,63
201,3	0,827
201,8	0,917
202,2	0,972
202,7	1,016
203,2	1,095
203,6	1,116
204,1	1,124
204,6	1,121
205	1,113
205,5	1,121
206	1,108
206,4	1,092
206,9	1,114
207,4	1,119
207,8	1,141
208,3	1,17
208,8	1,169
209,2	1,193
209,7	1,226
210,2	1,241
210,6	1,289
211,1	1,288
211,5	1,307
212	1,348
212,5	1,361
212,9	1,371
213,4	1,382
213,9	1,371
214,3	1,391
214,8	1,386
215,3	1,384
215,7	1,399
216,2	1,405
216,7	1,413
217,1	1,431
217,6	1,427
218,1	1,452
218,5	1,47
219	1,493
219,5	1,499
219,9	1,537
220,4	1,559
220,9	1,591
221,3	1,596
221,8	1,614
222,3	1,63
222,7	1,69
223,2	1,687
223,6	1,692
224,1	1,722
224,6	1,755
225	1,766
225,5	1,777
226	1,777
226,4	1,794
226,9	1,807
227,4	1,809
227,8	1,807
228,3	1,834
228,8	1,845
229,2	1,854
229,7	1,872
230,2	1,886
230,6	1,9
231,1	1,923
231,5	1,92
232	1,932
232,5	1,918
232,9	1,907
233,4	1,939
233,9	1,936
234,3	1,944
234,8	1,95
235,3	1,946
235,7	1,964
236,2	1,975
236,7	1,967
237,1	1,987
237,6	1,996
238,1	2,013
238,5	2,02
239	2,035
239,4	2,052
239,9	2,051
240,4	2,052
240,8	2,059
241,3	2,058
241,8	2,071
242,2	2,078
242,7	2,08
243,2	2,092
243,6	2,091
244,1	2,082
244,6	2,115
245	2,133
245,5	2,121
245,9	2,113
246,4	2,105
246,9	2,115
247,3	2,109
247,8	2,093
248,3	2,093
248,7	2,087
249,2	2,089
249,7	2,105
250,1	2,102
250,6	2,134
251	2,112
251,5	2,099
252	2,108
252,4	2,123
252,9	2,118
253,4	2,114
253,8	2,115
254,3	2,132
254,8	2,148
255,2	2,152
255,7	2,143
256,1	2,153
256,6	2,166
257,1	2,164
257,5	2,163
258	2,172
258,5	2,169
258,9	2,175
259,4	2,162
259,9	2,157
260,3	2,146
260,8	2,151
261,2	2,134
261,7	2,144
262,2	2,146
262,6	2,173
263,1	2,169
263,6	2,158
264	2,168
264,5	2,156
264,9	2,156
265,4	2,152
265,9	2,136
266,3	2,152
266,8	2,163
267,3	2,173
267,7	2,202
268,2	2,207
268,7	2,216
269,1	2,193
269,6	2,206
270	2,199
270,5	2,216
271	2,199
271,4	2,209
271,9	2,216
272,4	2,238
272,8	2,249
273,3	2,274
273,7	2,254
274,2	2,279
274,7	2,253
275,1	2,273
275,6	2,276
276,1	2,245
276,5	2,251
277	2,233
277,4	2,236
277,9	2,249
278,4	2,241
278,8	2,263
279,3	2,292
279,8	2,295
280,2	2,315
280,7	2,282
281,1	2,311
281,6	2,298
282,1	2,274
282,5	2,266
283	2,25
283,4	2,248
283,9	2,263
284,4	2,26
284,8	2,27
285,3	2,282
285,8	2,273
286,2	2,265
286,7	2,246
287,1	2,226
287,6	2,187
288,1	2,18
288,5	2,183
289	2,152
289,5	2,133
289,9	2,097
290,4	2,057
290,8	2,021
291,3	1,961
291,8	1,892
292,2	1,848
292,7	1,802
293,1	1,763
293,6	1,724
294,1	1,686
294,5	1,655
295	1,626
295,5	1,604
295,9	1,58
296,4	1,565
296,8	1,558
297,3	1,55
297,8	1,546
298,2	1,545
298,7	1,544
299,1	1,551
299,6	1,561
300,1	1,57
300,5	1,58
301	1,589
301,5	1,61
301,9	1,626
302,4	1,641
302,8	1,649
303,3	1,66
303,8	1,677
304,2	1,694
304,7	1,698
305,1	1,712
305,6	1,726
306,1	1,743
306,5	1,762
307	1,77
307,4	1,787
307,9	1,807
308,4	1,826
308,8	1,838
309,3	1,852
309,8	1,861
310,2	1,883
310,7	1,888
311,1	1,896
311,6	1,905
312,1	1,919
312,5	1,928
313	1,937
313,4	1,945
313,9	1,962
314,4	1,971
314,8	1,981
315,3	1,985
315,7	1,992
316,2	1,989
316,7	1,997
317,1	1,995
317,6	2,009
318	2,007
318,5	2,022
319	2,033
319,4	2,048
319,9	2,051
320,3	2,07
320,8	2,067
321,3	2,083
321,7	2,083
322,2	2,079
322,6	2,073
323,1	2,067
323,6	2,067
324	2,068
324,5	2,066
324,9	2,062
325,4	2,065
325,9	2,07
326,3	2,063
326,8	2,061
327,2	2,053
327,7	2,041
328,2	2,041
328,6	2,031
329,1	2,023
329,5	2,032
330	2,029
330,5	2,034
330,9	2,032
331,4	2,019
331,8	2,008
332,3	2,01
332,8	2,003
333,2	1,99
333,7	1,974
334,1	1,966
334,6	1,965
335,1	1,963
335,5	1,939
336	1,926
336,4	1,909
336,9	1,905
337,4	1,89
337,8	1,865
338,3	1,85
338,7	1,84
339,2	1,834
339,7	1,82
340,1	1,804
340,6	1,781
341	1,772
341,5	1,753
342	1,735
342,4	1,709
342,9	1,693
343,3	1,675
343,8	1,664
344,2	1,644
344,7	1,626
345,2	1,607
345,6	1,588
346,1	1,567
346,5	1,547
347	1,528
347,5	1,509
347,9	1,488
348,4	1,47
348,8	1,449
349,3	1,431
349,8	1,409
350,2	1,383
350,7	1,36
351,1	1,34
351,6	1,317
352	1,296
352,5	1,268
353	1,245
353,4	1,223
353,9	1,203
354,3	1,183
354,8	1,163
355,3	1,141
355,7	1,127
356,2	1,106
356,6	1,087
357,1	1,066
357,5	1,045
358	1,025
358,5	1,006
358,9	0,985
359,4	0,966
359,8	0,949
360,3	0,931
360,8	0,913
361,2	0,895
361,7	0,878
362,1	0,86
362,6	0,844
363	0,825
363,5	0,809
364	0,793
364,4	0,778
364,9	0,763
365,3	0,748
365,8	0,733
366,3	0,717
366,7	0,704
367,2	0,69
367,6	0,676
368,1	0,663
368,5	0,652
369	0,639
369,5	0,63
369,9	0,617
370,4	0,606
370,8	0,594
371,3	0,582
371,7	0,571
372,2	0,561
372,7	0,549
373,1	0,538
373,6	0,527
374	0,517
374,5	0,507
374,9	0,498
375,4	0,488
375,9	0,479
376,3	0,469
376,8	0,461
377,2	0,453
377,7	0,445
378,2	0,436
378,6	0,429
379,1	0,421
379,5	0,415
380	0,407
380,4	0,4
380,9	0,393
381,4	0,386
381,8	0,379
382,3	0,372
382,7	0,366
383,2	0,36
383,6	0,354
384,1	0,349
384,6	0,343
385	0,338
385,5	0,333
385,9	0,329
386,4	0,323
386,8	0,319
387,3	0,315
387,7	0,311
388,2	0,307
388,7	0,302
389,1	0,298
389,6	0,294
390	0,291
390,5	0,286
390,9	0,281
391,4	0,278
391,9	0,274
392,3	0,27
392,8	0,267
393,2	0,264
393,7	0,261
394,1	0,258
394,6	0,256
395,1	0,253
395,5	0,251
396	0,248
396,4	0,246
396,9	0,243
397,3	0,241
397,8	0,239
398,2	0,236
398,7	0,233
399,2	0,23
399,6	0,228
400,1	0,226
400,5	0,224
401	0,221
401,4	0,218
401,9	0,216
402,4	0,214
402,8	0,211
403,3	0,209
403,7	0,206
404,2	0,205
404,6	0,203
405,1	0,201
405,5	0,2
406	0,198
406,5	0,196
406,9	0,194
407,4	0,192
407,8	0,19
408,3	0,188
408,7	0,186
409,2	0,184
409,6	0,181
410,1	0,18
410,6	0,179
411	0,177
411,5	0,176
411,9	0,175
412,4	0,174
412,8	0,173
413,3	0,172
413,7	0,171
414,2	0,169
414,7	0,168
415,1	0,166
415,6	0,166
416	0,164
416,5	0,163
416,9	0,161
417,4	0,16
417,8	0,159
418,3	0,156
418,8	0,155
419,2	0,154
419,7	0,152
420,1	0,151
420,6	0,15
421	0,149
421,5	0,148
421,9	0,147
422,4	0,146
422,8	0,145
423,3	0,145
423,8	0,144
424,2	0,143
424,7	0,141
425,1	0,141
425,6	0,14
426	0,139
426,5	0,138
426,9	0,138
427,4	0,137
427,9	0,136
428,3	0,135
428,8	0,134
429,2	0,134
429,7	0,133
430,1	0,132
430,6	0,132
431	0,131
431,5	0,129
431,9	0,128
432,4	0,127
432,8	0,126
433,3	0,125
433,8	0,123
434,2	0,122
434,7	0,122
435,1	0,121
435,6	0,12
436	0,119
436,5	0,119
436,9	0,119
437,4	0,118
437,8	0,117
438,3	0,117
438,8	0,116
439,2	0,116
439,7	0,116
440,1	0,115
440,6	0,114
441	0,113
441,5	0,113
441,9	0,112
442,4	0,112
442,8	0,111
443,3	0,11
443,7	0,11
444,2	0,11
444,7	0,109
445,1	0,108
445,6	0,108
446	0,107
446,5	0,107
446,9	0,107
447,4	0,106
447,8	0,106
448,3	0,106
448,7	0,104
449,2	0,104
449,6	0,103
450,1	0,102
450,6	0,101
451	0,1
451,5	0,1
451,9	0,101
452,4	0,1
452,8	0,1
453,3	0,101
453,7	0,101
454,2	0,1
454,6	0,099
455,1	0,098
455,5	0,098
456	0,097
456,4	0,095
456,9	0,095
457,3	0,095
457,8	0,095
458,3	0,095
458,7	0,095
459,2	0,095
459,6	0,095
460,1	0,094
460,5	0,093
461	0,092
461,4	0,092
461,9	0,091
462,3	0,09
462,8	0,09
463,2	0,09
463,7	0,09
464,1	0,089
464,6	0,089
465	0,089
465,5	0,089
466	0,088
466,4	0,088
466,9	0,088
467,3	0,087
467,8	0,087
468,2	0,086
468,7	0,085
469,1	0,085
469,6	0,085
470	0,084
470,5	0,084
470,9	0,084
471,4	0,083
471,8	0,083
472,3	0,083
472,7	0,082
473,2	0,082
473,6	0,081
474,1	0,081
474,5	0,081
475	0,081
475,4	0,08
475,9	0,079
476,4	0,078
476,8	0,079
477,3	0,078
477,7	0,078
478,2	0,078
478,6	0,079
479,1	0,078
479,5	0,079
480	0,078
480,4	0,077
480,9	0,077
481,3	0,076
481,8	0,075
482,2	0,074
482,7	0,074
483,1	0,074
483,6	0,074
484	0,073
484,5	0,073
484,9	0,073
485,4	0,072
485,8	0,072
486,3	0,074
486,7	0,073
487,2	0,073
487,6	0,073
488,1	0,072
488,5	0,072
489	0,071
489,4	0,068
489,9	0,068
490,4	0,069
490,8	0,069
491,3	0,07
491,7	0,07
492,2	0,07
492,6	0,07
493,1	0,069
493,5	0,069
494	0,068
494,4	0,068
494,9	0,067
495,3	0,067
495,8	0,067
496,2	0,067
496,7	0,067
497,1	0,067
497,6	0,067
498	0,067
498,5	0,066
498,9	0,066
499,4	0,065
499,8	0,064
500,3	0,063
500,7	0,063
501,2	0,062
501,6	0,062
502,1	0,062
502,5	0,062
503	0,063
503,4	0,063
503,9	0,063
504,3	0,063
504,8	0,063
505,2	0,062
505,7	0,062
506,1	0,061
506,6	0,061
507	0,06
507,5	0,059
507,9	0,059
508,4	0,059
508,8	0,059
509,3	0,059
509,7	0,059
510,2	0,059
510,6	0,059
511,1	0,058
511,5	0,058
512	0,058
512,4	0,057
512,9	0,057
513,3	0,057
513,8	0,056
514,2	0,057
514,7	0,057
515,1	0,057
515,6	0,056
516	0,056
516,5	0,056
516,9	0,056
517,4	0,055
517,8	0,054
518,3	0,054
518,7	0,054
519,2	0,054
519,6	0,054
520,1	0,054
520,5	0,054
521	0,054
521,4	0,054
521,9	0,054
522,3	0,054
522,8	0,053
523,2	0,052
523,7	0,052
524,1	0,052
524,6	0,052
525	0,052
525,5	0,051
525,9	0,051
526,4	0,05
526,8	0,05
527,3	0,05
527,7	0,05
528,2	0,049
528,6	0,049
529,1	0,05
529,5	0,05
530	0,05
530,4	0,05
530,9	0,049
531,3	0,05
531,8	0,05
532,2	0,05
532,6	0,05
533,1	0,049
533,5	0,049
534	0,049
534,4	0,048
534,9	0,048
535,3	0,047
535,8	0,047
536,2	0,046
536,7	0,046
537,1	0,046
537,6	0,046
538	0,046
538,5	0,046
538,9	0,046
539,4	0,046
539,8	0,046
540,3	0,046
540,7	0,046
541,2	0,046
541,6	0,046
542,1	0,046
542,5	0,047
543	0,046
543,4	0,046
543,9	0,046
544,3	0,045
544,8	0,045
545,2	0,045
545,7	0,045
546,1	0,044
546,5	0,044
547	0,044
547,4	0,044
547,9	0,044
548,3	0,045
548,8	0,044
549,2	0,044
549,7	0,044
550,1	0,043
550,6	0,043
551	0,042
551,5	0,041
551,9	0,041
552,4	0,041
552,8	0,041
553,3	0,041
553,7	0,041
554,2	0,041
554,6	0,042
555,1	0,041
555,5	0,041
555,9	0,041
556,4	0,04
556,8	0,04
557,3	0,04
557,7	0,04
558,2	0,041
558,6	0,04
559,1	0,04
559,5	0,04
560	0,04
560,4	0,04
560,9	0,039
561,3	0,039
561,8	0,039
562,2	0,039
562,7	0,039
563,1	0,039
563,6	0,039
564	0,039
564,4	0,04
564,9	0,039
565,3	0,04
565,8	0,039
566,2	0,039
566,7	0,039
567,1	0,039
567,6	0,038
568	0,038
568,5	0,038
568,9	0,038
569,4	0,039
569,8	0,039
570,3	0,039
570,7	0,039
571,1	0,039
571,6	0,039
572	0,038
572,5	0,037
572,9	0,037
573,4	0,037
573,8	0,037
574,3	0,037
574,7	0,037
575,2	0,037
575,6	0,038
576,1	0,038
576,5	0,037
576,9	0,037
577,4	0,037
577,8	0,037
578,3	0,037
578,7	0,037
579,2	0,037
579,6	0,037
580,1	0,037
580,5	0,036
581	0,036
581,4	0,036
581,9	0,036
582,3	0,036
582,7	0,035
583,2	0,035
583,6	0,035
584,1	0,036
584,5	0,035
585	0,035
585,4	0,035
585,9	0,036
586,3	0,036
586,8	0,036
587,2	0,036
587,6	0,036
588,1	0,036
588,5	0,036
589	0,035
589,4	0,035
589,9	0,035
590,3	0,034
590,8	0,034
591,2	0,034
591,7	0,034
592,1	0,035
592,5	0,035
593	0,036
593,4	0,035
593,9	0,035
594,3	0,034
594,8	0,034
595,2	0,034
595,7	0,033
596,1	0,033
596,6	0,034
597	0,034
597,4	0,034
597,9	0,034
598,3	0,033
598,8	0,034
599,2	0,033
599,7	0,033
600,1	0,033
600,6	0,033
601	0,033
601,4	0,033
601,9	0,033
602,3	0,033
602,8	0,033
603,2	0,033
603,7	0,033
604,1	0,033
604,6	0,032
605	0,032
605,4	0,032
605,9	0,032
606,3	0,032
606,8	0,032
607,2	0,032
607,7	0,032
608,1	0,032
608,6	0,032
609	0,032
609,4	0,033
609,9	0,033
610,3	0,033
610,8	0,032
611,2	0,032
611,7	0,032
612,1	0,032
612,6	0,032
613	0,032
613,4	0,032
613,9	0,032
614,3	0,031
614,8	0,031
615,2	0,032
615,7	0,031
616,1	0,031
616,6	0,031
617	0,031
617,4	0,031
617,9	0,031
618,3	0,031
618,8	0,031
619,2	0,031
619,7	0,031
620,1	0,031
620,5	0,031
621	0,031
621,4	0,031
621,9	0,032
622,3	0,032
622,8	0,031
623,2	0,031
623,6	0,031
624,1	0,031
624,5	0,031
625	0,029
625,4	0,029
625,9	0,03
626,3	0,03
626,8	0,03
627,2	0,03
627,6	0,03
628,1	0,031
628,5	0,031
629	0,03
629,4	0,031
629,9	0,03
630,3	0,03
630,7	0,03
631,2	0,03
631,6	0,03
632,1	0,03
632,5	0,03
633	0,03
633,4	0,03
633,8	0,03
634,3	0,03
634,7	0,03
635,2	0,03
635,6	0,03
636,1	0,029
636,5	0,029
636,9	0,029
637,4	0,029
637,8	0,028
638,3	0,028
638,7	0,028
639,2	0,028
639,6	0,028
640	0,028
640,5	0,027
640,9	0,027
641,4	0,027
641,8	0,027
642,2	0,027
642,7	0,026
643,1	0,026
643,6	0,027
644	0,027
644,5	0,027
644,9	0,027
645,3	0,027
645,8	0,027
646,2	0,027
646,7	0,027
647,1	0,027
647,6	0,027
648	0,028
648,4	0,028
648,9	0,028
649,3	0,028
649,8	0,028
650,2	0,028
650,6	0,028
651,1	0,027
651,5	0,027
652	0,027
652,4	0,027
652,9	0,027
653,3	0,026
653,7	0,026
654,2	0,026
654,6	0,025
655,1	0,023
655,5	0,014
655,9	0,009
656,4	0,006
656,8	0,007
657,3	0,008
657,7	0,008
658,2	0,008
658,6	0,01
659	0,015
659,5	0,026
659,9	0,032
660,4	0,033
660,8	0,033
661,2	0,032
661,7	0,032
662,1	0,03
662,6	0,03
663	0,029
663,4	0,028
663,9	0,028
664,3	0,028
664,8	0,027
665,2	0,027
665,6	0,027
666,1	0,027
666,5	0,027
667	0,026
667,4	0,026
667,9	0,026
668,3	0,026
668,7	0,026
669,2	0,026
669,6	0,026
670,1	0,026
670,5	0,026
670,9	0,026
671,4	0,026
671,8	0,026
672,3	0,026
672,7	0,026
673,1	0,025
673,6	0,025
674	0,025
674,5	0,025
674,9	0,025
675,3	0,025
675,8	0,025
676,2	0,025
676,7	0,025
677,1	0,025
677,5	0,025
678	0,025
678,4	0,026
678,9	0,026
679,3	0,026
679,7	0,026
680,2	0,025
680,6	0,025
681,1	0,025
681,5	0,025
681,9	0,025
682,4	0,024
682,8	0,024
683,3	0,025
683,7	0,024
684,1	0,024
684,6	0,024
685	0,024
685,5	0,025
685,9	0,025
686,3	0,025
686,8	0,025
687,2	0,025
687,7	0,025
688,1	0,025
688,5	0,024
689	0,024
689,4	0,024
689,9	0,024
690,3	0,024
690,7	0,024
691,2	0,024
691,6	0,024
692	0,024
692,5	0,024
692,9	0,024
693,4	0,024
693,8	0,024
694,2	0,024
694,7	0,024
695,1	0,024
695,6	0,024
696	0,024
696,4	0,024
696,9	0,024
697,3	0,024
697,8	0,024
698,2	0,023
698,6	0,023
699,1	0,023
699,5	0,023
699,9	0,023
700,4	0,023
700,8	0,023
701,3	0,023
701,7	0,023
702,1	0,023
702,6	0,023
703	0,023
703,5	0,023
703,9	0,023
704,3	0,024
704,8	0,023
705,2	0,023
705,6	0,023
706,1	0,022
706,5	0,022
707	0,022
707,4	0,022
707,8	0,022
708,3	0,023
708,7	0,023
709,2	0,023
709,6	0,023
710	0,024
710,5	0,024
710,9	0,024
711,3	0,023
711,8	0,023
712,2	0,024
712,7	0,024
713,1	0,023
713,5	0,024
714	0,024
714,4	0,024
714,8	0,024
715,3	0,024
715,7	0,023
716,2	0,024
716,6	0,024
717	0,024
717,5	0,023
717,9	0,024
718,3	0,024
718,8	0,023
719,2	0,023
719,7	0,023
720,1	0,023
720,5	0,022
721	0,022
721,4	0,022
721,8	0,022
722,3	0,022
722,7	0,022
723,2	0,022
723,6	0,022
724	0,022
724,5	0,022
724,9	0,022
725,3	0,022
725,8	0,022
726,2	0,022
726,7	0,022
727,1	0,023
727,5	0,023
728	0,023
728,4	0,022
728,8	0,023
729,3	0,022
729,7	0,022
730,1	0,022
730,6	0,022
731	0,022
731,5	0,022
731,9	0,022
732,3	0,022
732,8	0,022
733,2	0,022
733,6	0,021
734,1	0,021
734,5	0,021
734,9	0,021
735,4	0,021
735,8	0,02
736,3	0,021
736,7	0,021
737,1	0,02
737,6	0,021
738	0,021
738,4	0,021
738,9	0,021
739,3	0,021
739,7	0,021
740,2	0,021
740,6	0,021
741,1	0,021
741,5	0,021
741,9	0,021
742,4	0,021
742,8	0,021
743,2	0,021
743,7	0,021
744,1	0,021
744,5	0,021
745	0,021
745,4	0,021
745,8	0,021
746,3	0,021
746,7	0,021
747,2	0,021
747,6	0,021
748	0,021
748,5	0,021
748,9	0,021
749,3	0,02
749,8	0,02
750,2	0,02
750,6	0,02
751,1	0,019
751,5	0,019
751,9	0,02
752,4	0,019
752,8	0,019
753,3	0,02
753,7	0,02
754,1	0,02
754,6	0,02
755	0,02
755,4	0,02
755,9	0,02
756,3	0,02
756,7	0,02
757,2	0,021
757,6	0,021
758	0,021
758,5	0,021
758,9	0,021
759,3	0,021
759,8	0,021
760,2	0,021
760,6	0,021
761,1	0,021
761,5	0,021
761,9	0,021
762,4	0,02
762,8	0,02
763,3	0,02
763,7	0,02
764,1	0,02
764,6	0,02
765	0,02
765,4	0,02
765,9	0,02
766,3	0,02
766,7	0,02
767,2	0,02
767,6	0,02
768	0,02
768,5	0,02
768,9	0,019
769,3	0,019
769,8	0,018
770,2	0,018
770,6	0,018
771,1	0,018
771,5	0,018
771,9	0,018
772,4	0,018
772,8	0,018
773,2	0,018
773,7	0,018
774,1	0,018
774,5	0,018
775	0,018
775,4	0,018
775,8	0,018
776,3	0,018
776,7	0,018
777,1	0,019
777,6	0,019
778	0,019
778,4	0,02
778,9	0,02
779,3	0,02
779,7	0,02
780,2	0,019
780,6	0,019
781	0,019
781,5	0,019
781,9	0,018
782,3	0,018
782,8	0,018
783,2	0,018
783,6	0,018
784,1	0,018
784,5	0,018
784,9	0,018
785,4	0,018
785,8	0,018
786,2	0,018
786,7	0,018
787,1	0,019
787,5	0,018
788	0,018
788,4	0,018
788,8	0,018
789,3	0,018
789,7	0,018
790,1	0,018
790,6	0,019
791	0,019
791,4	0,019
791,9	0,019
792,3	0,019
792,7	0,019
793,2	0,019
793,6	0,018
794	0,018
794,5	0,018
794,9	0,019
795,3	0,019
795,8	0,019
796,2	0,019
796,6	0,019
797,1	0,019
797,5	0,019
797,9	0,019
798,4	0,019
798,8	0,019
799,2	0,019
799,7	0,019
800,1	0,019
800,5	0,019
801	0,019
801,4	0,019
801,8	0,019
802,2	0,019
802,7	0,019
803,1	0,019
803,5	0,019
804	0,018
804,4	0,018
804,8	0,018
805,3	0,018
805,7	0,018
806,1	0,018
806,6	0,018
807	0,018
807,4	0,018
807,9	0,018
808,3	0,018
808,7	0,018
809,2	0,018
809,6	0,018
810	0,017
810,4	0,018
810,9	0,017
811,3	0,017
811,7	0,017
812,2	0,018
812,6	0,017
813	0,018
813,5	0,018
813,9	0,018
814,3	0,018
814,8	0,018
815,2	0,018
815,6	0,018
816,1	0,018
816,5	0,018
816,9	0,018
817,3	0,018
817,8	0,018
818,2	0,018
818,6	0,017
819,1	0,018
819,5	0,017
819,9	0,018
820,4	0,018
820,8	0,017
821,2	0,017
821,7	0,018
822,1	0,017
822,5	0,018
822,9	0,018
823,4	0,018
823,8	0,019
824,2	0,019
824,7	0,019
825,1	0,019
825,5	0,018
826	0,018
826,4	0,018
826,8	0,017
827,3	0,017
827,7	0,017
828,1	0,017
828,5	0,016
829	0,016
829,4	0,016
829,8	0,016
830,3	0,016
830,7	0,016
831,1	0,016
831,6	0,016
832	0,016
832,4	0,016
832,8	0,016
833,3	0,016
833,7	0,016
834,1	0,016
834,6	0,016
835	0,016
835,4	0,016
835,8	0,016
836,3	0,016
836,7	0,016
837,1	0,016
837,6	0,016
838	0,017
838,4	0,017
838,9	0,016
839,3	0,016
839,7	0,016
840,1	0,016
840,6	0,016
841	0,016
841,4	0,016
841,9	0,016
842,3	0,016
842,7	0,016
843,1	0,016
843,6	0,016
844	0,016
844,4	0,016
844,9	0,016
845,3	0,016
845,7	0,015
846,2	0,015
846,6	0,015
847	0,015
847,4	0,015
847,9	0,016
848,3	0,016
848,7	0,016
849,2	0,016
849,6	0,016
850	0,016
850,4	0,016
850,9	0,016
851,3	0,016
851,7	0,016
852,2	0,016
852,6	0,016
853	0,016
853,4	0,015
853,9	0,016
854,3	0,016
854,7	0,016
855,2	0,016
855,6	0,016
856	0,016
856,4	0,016
856,9	0,016
857,3	0,015
857,7	0,015
858,2	0,015
858,6	0,015
859	0,015
859,4	0,015
859,9	0,015
860,3	0,015
860,7	0,015
861,1	0,015
861,6	0,016
862	0,016
862,4	0,016
862,9	0,016
863,3	0,016
863,7	0,016
864,1	0,016
864,6	0,016
865	0,015
865,4	0,015
865,9	0,015
866,3	0,015
866,7	0,015
867,1	0,015
867,6	0,015
868	0,015
868,4	0,015
868,8	0,015
869,3	0,015
869,7	0,015
870,1	0,015
870,6	0,015
871	0,014
871,4	0,014
871,8	0,014
872,3	0,014
872,7	0,014
873,1	0,014
873,5	0,014
874	0,013
874,4	0,013
874,8	0,014
875,3	0,013
875,7	0,013
876,1	0,013
876,5	0,013
877	0,014
877,4	0,014
877,8	0,014
878,2	0,014
878,7	0,014
879,1	0,014
879,5	0,014
879,9	0,014
880,4	0,014
880,8	0,014
881,2	0,014
881,7	0,014
882,1	0,014
882,5	0,014
882,9	0,013
883,4	0,013
883,8	0,013
884,2	0,013
884,6	0,013
885,1	0,013
885,5	0,013
885,9	0,013
886,3	0,014
886,8	0,014
887,2	0,013
887,6	0,013
888	0,014
888,5	0,014
888,9	0,014
889,3	0,014
889,8	0,014
890,2	0,015
890,6	0,015
891	0,015
891,5	0,016
891,9	0,016
892,3	0,016
892,7	0,016
893,2	0,016
893,6	0,015
894	0,015
894,4	0,015
894,9	0,015
895,3	0,015
895,7	0,015
896,1	0,015
896,6	0,015
897	0,014
897,4	0,014
897,8	0,014
898,3	0,014
898,7	0,014
899,1	0,014
899,5	0,014
900	0,014
900,4	0,014
900,8	0,014
901,2	0,014
901,7	0,013
902,1	0,013
902,5	0,013
902,9	0,013
903,4	0,013
903,8	0,013
904,2	0,013
904,6	0,014
905,1	0,014
905,5	0,015
905,9	0,014
906,3	0,015
906,8	0,014
907,2	0,015
907,6	0,015
908	0,015
908,5	0,014
908,9	0,015
909,3	0,015
909,7	0,015
910,2	0,015
910,6	0,015
911	0,015
911,4	0,016
911,9	0,016
912,3	0,016
912,7	0,016
913,1	0,016
913,6	0,017
914	0,017
914,4	0,016
914,8	0,016
915,3	0,016
915,7	0,016
916,1	0,016
916,5	0,016
916,9	0,016
917,4	0,016
917,8	0,016
918,2	0,015
918,6	0,015
919,1	0,015
919,5	0,015
919,9	0,014
920,3	0,014
920,8	0,014
921,2	0,014
921,6	0,014
922	0,014
922,5	0,014
922,9	0,014
923,3	0,014
923,7	0,014
924,2	0,014
924,6	0,014
925	0,014
925,4	0,014
925,8	0,014
926,3	0,014
926,7	0,014
927,1	0,014
927,5	0,014
928	0,014
928,4	0,013
928,8	0,013
929,2	0,013
929,7	0,013
930,1	0,013
930,5	0,013
930,9	0,012
931,3	0,013
931,8	0,012
932,2	0,012
932,6	0,012
933	0,012
933,5	0,012
933,9	0,012
934,3	0,012
934,7	0,012
935,2	0,012
935,6	0,013
936	0,013
936,4	0,013
936,8	0,013
937,3	0,012
937,7	0,012
938,1	0,012
938,5	0,012
939	0,011
939,4	0,011
939,8	0,012
940,2	0,012
940,6	0,012
941,1	0,013
941,5	0,013
941,9	0,014
942,3	0,013
942,8	0,014
943,2	0,014
943,6	0,013
944	0,013
944,4	0,014
944,9	0,013
945,3	0,013
945,7	0,012
946,1	0,012
946,6	0,012
947	0,012
947,4	0,011
947,8	0,011
948,2	0,011
948,7	0,011
949,1	0,011
949,5	0,011
949,9	0,01
950,3	0,01
950,8	0,01
951,2	0,01
951,6	0,01
952	0,01
952,5	0,01
952,9	0,01
953,3	0,01
953,7	0,01
954,1	0,01
954,6	0,01
955	0,01
955,4	0,01
955,8	0,009
956,2	0,009
956,7	0,009
957,1	0,009
957,5	0,009
957,9	0,008
958,3	0,008
958,8	0,008
959,2	0,007
959,6	0,007
960	0,006
960,5	0,006
960,9	0,006
961,3	0,006
961,7	0,006
962,1	0,006
962,6	0,006
963	0,007
963,4	0,007
963,8	0,007
964,2	0,007
964,7	0,007
965,1	0,007
965,5	0,007
965,9	0,008
966,3	0,008
966,8	0,008
967,2	0,009
967,6	0,008
968	0,009
968,4	0,009
968,9	0,009
969,3	0,009
969,7	0,01
970,1	0,01
970,5	0,011
971	0,01
971,4	0,009
971,8	0,009
972,2	0,009
972,6	0,009
973,1	0,009
973,5	0,008
973,9	0,009
974,3	0,009
974,7	0,009
975,2	0,009
975,6	0,009
976	0,009
976,4	0,01
976,8	0,009
977,3	0,009
977,7	0,009
978,1	0,008
978,5	0,008
978,9	0,008
979,4	0,007
979,8	0,007
980,2	0,007
980,6	0,008
981	0,008
981,5	0,008
981,9	0,008
982,3	0,008
982,7	0,008
983,1	0,009
983,6	0,008
984	0,008
984,4	0,009
984,8	0,008
985,2	0,008
985,6	0,007
986,1	0,007
986,5	0,008
986,9	0,008
987,3	0,008
987,7	0,009
988,2	0,01
988,6	0,01
989	0,01
989,4	0,01
989,8	0,01
990,3	0,01
990,7	0,009
991,1	0,009
991,5	0,01
991,9	0,01
992,3	0,01
992,8	0,009
993,2	0,009
993,6	0,009
994	0,009
994,4	0,008
994,9	0,009
995,3	0,008
995,7	0,009
996,1	0,009
996,5	0,009
996,9	0,01
997,4	0,009
997,8	0,01
998,2	0,01
998,6	0,01
999	0,01
999,5	0,01
999,9	0,009
1000,3	0,01
1000,7	0,009
1001,1	0,01
1001,5	0,01
1002	0,011
1002,4	0,011
1002,8	0,011
1003,2	0,011
1003,6	0,012
1004	0,012
1004,5	0,012
1004,9	0,012
1005,3	0,012
1005,7	0,012
1006,1	0,012
1006,6	0,012
1007	0,012
1007,4	0,012
1007,8	0,012
1008,2	0,012
1008,6	0,012
1009,1	0,012
1009,5	0,013
1009,9	0,013
1010,3	0,013
1010,7	0,013
1011,1	0,012
1011,6	0,012
1012	0,012
1012,4	0,012
1012,8	0,012
1013,2	0,012
1013,6	0,011
1014,1	0,012
1014,5	0,011
1014,9	0,011
1015,3	0,01
1015,7	0,011
1016,1	0,011
1016,6	0,011
1017	0,011
1017,4	0,011
1017,8	0,012
1018,2	0,012
1018,6	0,012
1019,1	0,012
1019,5	0,013
1019,9	0,013
1020,3	0,013
1020,7	0,013
1021,1	0,012
1021,6	0,012
1022	0,012
1022,4	0,012
1022,8	0,012
1023,2	0,013
1023,6	0,013
1024,1	0,013
1024,5	0,013
1024,9	0,012
1025,3	0,012
1025,7	0,011
1026,1	0,01
1026,6	0,01
1027	0,009
1027,4	0,009
1027,8	0,009
1028,2	0,009
1028,6	0,01
1029	0,01
1029,5	0,01
1029,9	0,011
1030,3	0,011
1030,7	0,011
1031,1	0,011
1031,5	0,011
1032	0,012
1032,4	0,012
1032,8	0,012
1033,2	0,012
1033,6	0,012
1034	0,012
1034,4	0,011
1034,9	0,011
1035,3	0,01
1035,7	0,01
1036,1	0,009
1036,5	0,009
1036,9	0,01
1037,4	0,01
1037,8	0,01
1038,2	0,011
1038,6	0,011
1039	0,011
1039,4	0,011
1039,8	0,011
1040,3	0,01
1040,7	0,01
1041,1	0,01
1041,5	0,011
1041,9	0,011
1042,3	0,011
1042,7	0,011
1043,2	0,012
1043,6	0,012
1044	0,011
1044,4	0,01
1044,8	0,009
1045,2	0,008
1045,6	0,008
1046,1	0,008
1046,5	0,009
1046,9	0,009
1047,3	0,009
1047,7	0,009
1048,1	0,01
1048,5	0,009
1049	0,009
1049,4	0,007
1049,8	0,007
1050,2	0,007
1050,6	0,007
1051	0,008
1051,4	0,008
1051,9	0,008
1052,3	0,009
1052,7	0,01
1053,1	0,011
1053,5	0,011
1053,9	0,011
1054,3	0,011
1054,8	0,012
1055,2	0,012
1055,6	0,011
1056	0,011
1056,4	0,01
1056,8	0,011
1057,2	0,011
1057,6	0,01
1058,1	0,009
1058,5	0,01
1058,9	0,01
1059,3	0,011
1059,7	0,01
1060,1	0,01
1060,5	0,01
1061	0,01
1061,4	0,009
1061,8	0,009
1062,2	0,008
1062,6	0,008
1063	0,008
1063,4	0,008
1063,8	0,007
1064,3	0,008
1064,7	0,008
1065,1	0,007
1065,5	0,007
1065,9	0,008
1066,3	0,009
1066,7	0,01
1067,1	0,01
1067,6	0,01
1068	0,01
1068,4	0,01
1068,8	0,009
1069,2	0,008
1069,6	0,008
1070	0,007
1070,4	0,006
1070,9	0,006
1071,3	0,006
1071,7	0,006
1072,1	0,006
1072,5	0,006
1072,9	0,007
1073,3	0,007
1073,7	0,007
1074,2	0,008
1074,6	0,007
1075	0,008
1075,4	0,009
1075,8	0,009
1076,2	0,008
1076,6	0,007
1077	0,006
1077,5	0,007
1077,9	0,006
1078,3	0,005
1078,7	0,004
1079,1	0,006
1079,5	0,007
1079,9	0,008
1080,3	0,007
1080,7	0,007
1081,2	0,007
1081,6	0,007
1082	0,005
1082,4	0,005
1082,8	0,004
1083,2	0,004
1083,6	0,003
1084	0,001
1084,5	-0
1084,9	-0,001
1085,3	-0
1085,7	0,001
1086,1	0,002
1086,5	0,003
1086,9	0,007
1087,3	0,009
1087,7	0,01
1088,2	0,009
1088,6	0,007
1089	0,009
1089,4	0,008
1089,8	0,005
1090,2	0,003
1090,6	0,004
1091	0,004
1091,4	0,004
1091,9	0,003
1092,3	0,003
1092,7	0,001
1093,1	0,005
1093,5	0,006
1093,9	0,005
1094,3	0,005
1094,7	-0,001
1095,1	-0,003
1095,5	0,001
1096	-0,003
1096,4	-0,004
1096,8	-0
1097,2	-0,004
1097,6	-0
1098	0
1098,4	-0,001
1098,8	-0,008
1099,2	-0,013
1099,6	-0,023
1100,1	-0,017
1100,5	-0,018
1100,9	-0,02
1101,3	-0,016
1101,7	-0,015
1102,1	-0,017
1102,5	-0,014
1102,9	-0,018
1103,3	-0,021
1103,7	-0,018
1104,2	-0,027
1104,6	-0,03
1105	-0,034
1105,4	-0,033
1105,8	-0,028
1106,2	-0,024
1106,6	-0,027
1107	-0,053
1107,4	-0,033
1107,8	0,024
1108,3	-0,297
