Data from Absorbance_00018.txt Node
Date: Wed Aug 02 13:53:02 MSK 2023
User: vat
Spectrometer: MAYP114033
Trigger mode: 0
Integration Time (sec): 8,000000E-3
Scans to average: 10
Electric dark correction enabled: true
Nonlinearity correction enabled: false
Boxcar width: 3
XAxis mode: Wavelengths
Number of Pixels in Spectrum: 2068
>>>>>Begin Spectral Data<<<<<
199,4	-0,625
199,9	-0,067
200,4	0,185
200,8	0,625
201,3	0,847
201,8	0,901
202,2	0,934
202,7	0,962
203,2	1,037
203,6	1,095
204,1	1,091
204,6	1,086
205	1,099
205,5	1,092
206	1,089
206,4	1,079
206,9	1,084
207,4	1,111
207,8	1,126
208,3	1,13
208,8	1,138
209,2	1,167
209,7	1,186
210,2	1,221
210,6	1,236
211,1	1,245
211,5	1,279
212	1,329
212,5	1,338
212,9	1,35
213,4	1,354
213,9	1,361
214,3	1,372
214,8	1,368
215,3	1,361
215,7	1,372
216,2	1,391
216,7	1,408
217,1	1,439
217,6	1,45
218,1	1,486
218,5	1,514
219	1,537
219,5	1,537
219,9	1,561
220,4	1,561
220,9	1,583
221,3	1,577
221,8	1,604
222,3	1,62
222,7	1,661
223,2	1,666
223,6	1,688
224,1	1,716
224,6	1,758
225	1,741
225,5	1,748
226	1,751
226,4	1,78
226,9	1,779
227,4	1,803
227,8	1,8
228,3	1,824
228,8	1,848
229,2	1,855
229,7	1,871
230,2	1,894
230,6	1,891
231,1	1,892
231,5	1,893
232	1,896
232,5	1,904
232,9	1,893
233,4	1,914
233,9	1,928
234,3	1,94
234,8	1,953
235,3	1,957
235,7	1,96
236,2	1,969
236,7	1,973
237,1	1,976
237,6	2
238,1	2,025
238,5	2,029
239	2,044
239,4	2,046
239,9	2,032
240,4	2,027
240,8	2,039
241,3	2,047
241,8	2,059
242,2	2,049
242,7	2,056
243,2	2,062
243,6	2,075
244,1	2,064
244,6	2,063
245	2,076
245,5	2,093
245,9	2,091
246,4	2,099
246,9	2,099
247,3	2,12
247,8	2,13
248,3	2,14
248,7	2,147
249,2	2,159
249,7	2,179
250,1	2,189
250,6	2,188
251	2,149
251,5	2,124
252	2,126
252,4	2,128
252,9	2,112
253,4	2,108
253,8	2,104
254,3	2,122
254,8	2,153
255,2	2,16
255,7	2,15
256,1	2,176
256,6	2,168
257,1	2,168
257,5	2,178
258	2,164
258,5	2,158
258,9	2,167
259,4	2,145
259,9	2,167
260,3	2,151
260,8	2,148
261,2	2,146
261,7	2,15
262,2	2,152
262,6	2,174
263,1	2,166
263,6	2,184
264	2,187
264,5	2,194
264,9	2,175
265,4	2,183
265,9	2,166
266,3	2,175
266,8	2,175
267,3	2,181
267,7	2,181
268,2	2,192
268,7	2,173
269,1	2,151
269,6	2,147
270	2,143
270,5	2,142
271	2,115
271,4	2,127
271,9	2,135
272,4	2,153
272,8	2,155
273,3	2,147
273,7	2,159
274,2	2,199
274,7	2,188
275,1	2,23
275,6	2,238
276,1	2,243
276,5	2,26
277	2,246
277,4	2,25
277,9	2,26
278,4	2,236
278,8	2,256
279,3	2,247
279,8	2,244
280,2	2,234
280,7	2,209
281,1	2,202
281,6	2,203
282,1	2,179
282,5	2,167
283	2,154
283,4	2,166
283,9	2,154
284,4	2,142
284,8	2,112
285,3	2,094
285,8	2,07
286,2	2,031
286,7	1,979
287,1	1,92
287,6	1,862
288,1	1,808
288,5	1,744
289	1,687
289,5	1,637
289,9	1,583
290,4	1,545
290,8	1,504
291,3	1,472
291,8	1,442
292,2	1,419
292,7	1,397
293,1	1,384
293,6	1,368
294,1	1,359
294,5	1,348
295	1,34
295,5	1,332
295,9	1,326
296,4	1,321
296,8	1,314
297,3	1,307
297,8	1,3
298,2	1,297
298,7	1,292
299,1	1,287
299,6	1,282
300,1	1,281
300,5	1,278
301	1,274
301,5	1,273
301,9	1,269
302,4	1,263
302,8	1,258
303,3	1,252
303,8	1,247
304,2	1,242
304,7	1,235
305,1	1,231
305,6	1,224
306,1	1,217
306,5	1,211
307	1,204
307,4	1,198
307,9	1,189
308,4	1,181
308,8	1,175
309,3	1,167
309,8	1,158
310,2	1,149
310,7	1,139
311,1	1,13
311,6	1,122
312,1	1,113
312,5	1,106
313	1,096
313,4	1,089
313,9	1,082
314,4	1,075
314,8	1,066
315,3	1,059
315,7	1,051
316,2	1,043
316,7	1,032
317,1	1,022
317,6	1,012
318	1,001
318,5	0,989
319	0,978
319,4	0,967
319,9	0,956
320,3	0,942
320,8	0,93
321,3	0,917
321,7	0,903
322,2	0,89
322,6	0,875
323,1	0,861
323,6	0,847
324	0,834
324,5	0,821
324,9	0,808
325,4	0,794
325,9	0,782
326,3	0,769
326,8	0,757
327,2	0,744
327,7	0,732
328,2	0,721
328,6	0,708
329,1	0,697
329,5	0,686
330	0,674
330,5	0,664
330,9	0,652
331,4	0,641
331,8	0,631
332,3	0,621
332,8	0,613
333,2	0,603
333,7	0,593
334,1	0,584
334,6	0,575
335,1	0,567
335,5	0,558
336	0,548
336,4	0,54
336,9	0,532
337,4	0,523
337,8	0,514
338,3	0,506
338,7	0,497
339,2	0,488
339,7	0,48
340,1	0,472
340,6	0,464
341	0,456
341,5	0,448
342	0,441
342,4	0,434
342,9	0,427
343,3	0,419
343,8	0,413
344,2	0,406
344,7	0,4
345,2	0,393
345,6	0,387
346,1	0,381
346,5	0,375
347	0,368
347,5	0,362
347,9	0,356
348,4	0,35
348,8	0,345
349,3	0,338
349,8	0,333
350,2	0,327
350,7	0,322
351,1	0,316
351,6	0,311
352	0,305
352,5	0,3
353	0,296
353,4	0,291
353,9	0,285
354,3	0,281
354,8	0,276
355,3	0,272
355,7	0,267
356,2	0,263
356,6	0,259
357,1	0,255
357,5	0,251
358	0,248
358,5	0,243
358,9	0,24
359,4	0,235
359,8	0,231
360,3	0,228
360,8	0,224
361,2	0,22
361,7	0,217
362,1	0,213
362,6	0,209
363	0,206
363,5	0,202
364	0,199
364,4	0,195
364,9	0,192
365,3	0,188
365,8	0,186
366,3	0,182
366,7	0,179
367,2	0,177
367,6	0,175
368,1	0,173
368,5	0,17
369	0,168
369,5	0,166
369,9	0,163
370,4	0,16
370,8	0,157
371,3	0,154
371,7	0,151
372,2	0,149
372,7	0,147
373,1	0,145
373,6	0,143
374	0,14
374,5	0,138
374,9	0,136
375,4	0,132
375,9	0,13
376,3	0,128
376,8	0,126
377,2	0,124
377,7	0,122
378,2	0,12
378,6	0,12
379,1	0,117
379,5	0,116
380	0,114
380,4	0,112
380,9	0,11
381,4	0,109
381,8	0,106
382,3	0,104
382,7	0,103
383,2	0,101
383,6	0,1
384,1	0,099
384,6	0,097
385	0,096
385,5	0,095
385,9	0,094
386,4	0,092
386,8	0,091
387,3	0,09
387,7	0,089
388,2	0,088
388,7	0,086
389,1	0,084
389,6	0,083
390	0,082
390,5	0,081
390,9	0,079
391,4	0,077
391,9	0,076
392,3	0,075
392,8	0,074
393,2	0,073
393,7	0,073
394,1	0,073
394,6	0,072
395,1	0,072
395,5	0,071
396	0,07
396,4	0,07
396,9	0,068
397,3	0,067
397,8	0,066
398,2	0,065
398,7	0,064
399,2	0,063
399,6	0,062
400,1	0,061
400,5	0,061
401	0,06
401,4	0,059
401,9	0,059
402,4	0,057
402,8	0,056
403,3	0,056
403,7	0,056
404,2	0,055
404,6	0,054
405,1	0,053
405,5	0,052
406	0,052
406,5	0,052
406,9	0,05
407,4	0,05
407,8	0,049
408,3	0,049
408,7	0,048
409,2	0,047
409,6	0,046
410,1	0,045
410,6	0,045
411	0,044
411,5	0,043
411,9	0,043
412,4	0,041
412,8	0,041
413,3	0,041
413,7	0,04
414,2	0,04
414,7	0,039
415,1	0,039
415,6	0,04
416	0,039
416,5	0,038
416,9	0,038
417,4	0,037
417,8	0,037
418,3	0,036
418,8	0,034
419,2	0,034
419,7	0,033
420,1	0,033
420,6	0,032
421	0,031
421,5	0,031
421,9	0,031
422,4	0,03
422,8	0,03
423,3	0,029
423,8	0,029
424,2	0,029
424,7	0,029
425,1	0,028
425,6	0,027
426	0,027
426,5	0,026
426,9	0,026
427,4	0,025
427,9	0,024
428,3	0,024
428,8	0,024
429,2	0,024
429,7	0,024
430,1	0,024
430,6	0,024
431	0,023
431,5	0,023
431,9	0,022
432,4	0,022
432,8	0,021
433,3	0,02
433,8	0,019
434,2	0,019
434,7	0,018
435,1	0,018
435,6	0,018
436	0,017
436,5	0,017
436,9	0,018
437,4	0,017
437,8	0,016
438,3	0,016
438,8	0,015
439,2	0,016
439,7	0,016
440,1	0,015
440,6	0,015
441	0,015
441,5	0,014
441,9	0,014
442,4	0,013
442,8	0,013
443,3	0,013
443,7	0,013
444,2	0,013
444,7	0,013
445,1	0,013
445,6	0,013
446	0,013
446,5	0,013
446,9	0,013
447,4	0,013
447,8	0,012
448,3	0,012
448,7	0,011
449,2	0,01
449,6	0,01
450,1	0,01
450,6	0,009
451	0,009
451,5	0,01
451,9	0,01
452,4	0,01
452,8	0,009
453,3	0,01
453,7	0,01
454,2	0,01
454,6	0,01
455,1	0,01
455,5	0,01
456	0,009
456,4	0,008
456,9	0,007
457,3	0,008
457,8	0,007
458,3	0,007
458,7	0,007
459,2	0,007
459,6	0,008
460,1	0,008
460,5	0,007
461	0,007
461,4	0,007
461,9	0,007
462,3	0,006
462,8	0,006
463,2	0,005
463,7	0,006
464,1	0,005
464,6	0,006
465	0,005
465,5	0,006
466	0,005
466,4	0,005
466,9	0,005
467,3	0,006
467,8	0,005
468,2	0,005
468,7	0,005
469,1	0,006
469,6	0,005
470	0,005
470,5	0,005
470,9	0,005
471,4	0,004
471,8	0,004
472,3	0,004
472,7	0,004
473,2	0,004
473,6	0,004
474,1	0,004
474,5	0,005
475	0,005
475,4	0,004
475,9	0,004
476,4	0,004
476,8	0,004
477,3	0,003
477,7	0,003
478,2	0,004
478,6	0,005
479,1	0,004
479,5	0,005
480	0,005
480,4	0,005
480,9	0,004
481,3	0,004
481,8	0,003
482,2	0,003
482,7	0,003
483,1	0,003
483,6	0,003
484	0,003
484,5	0,003
484,9	0,004
485,4	0,003
485,8	0,003
486,3	0,005
486,7	0,004
487,2	0,003
487,6	0,003
488,1	0,003
488,5	0,004
489	0,003
489,4	0,001
489,9	0,001
490,4	0,002
490,8	0,003
491,3	0,003
491,7	0,003
492,2	0,004
492,6	0,004
493,1	0,004
493,5	0,003
494	0,003
494,4	0,003
494,9	0,003
495,3	0,004
495,8	0,003
496,2	0,004
496,7	0,004
497,1	0,004
497,6	0,004
498	0,004
498,5	0,003
498,9	0,004
499,4	0,003
499,8	0,003
500,3	0,002
500,7	0,002
501,2	0,002
501,6	0,003
502,1	0,002
502,5	0,002
503	0,002
503,4	0,003
503,9	0,003
504,3	0,003
504,8	0,003
505,2	0,003
505,7	0,003
506,1	0,003
506,6	0,003
507	0,003
507,5	0,003
507,9	0,003
508,4	0,002
508,8	0,003
509,3	0,002
509,7	0,003
510,2	0,002
510,6	0,002
511,1	0,003
511,5	0,003
512	0,002
512,4	0,002
512,9	0,002
513,3	0,002
513,8	0,002
514,2	0,002
514,7	0,003
515,1	0,003
515,6	0,003
516	0,003
516,5	0,003
516,9	0,002
517,4	0,002
517,8	0,002
518,3	0,001
518,7	0,002
519,2	0,001
519,6	0,002
520,1	0,003
520,5	0,002
521	0,002
521,4	0,003
521,9	0,003
522,3	0,003
522,8	0,001
523,2	0,002
523,7	0,002
524,1	0,002
524,6	0,001
525	0
525,5	0,001
525,9	0,001
526,4	0,001
526,8	0,001
527,3	0
527,7	0
528,2	0
528,6	0
529,1	0,001
529,5	0,001
530	0,002
530,4	0,002
530,9	0,002
531,3	0,002
531,8	0,002
532,2	0,002
532,6	0,002
533,1	0,001
533,5	0,001
534	0,001
534,4	0,002
534,9	0,001
535,3	0,001
535,8	0
536,2	-0
536,7	-0
537,1	-0,001
537,6	-0,001
538	-0
538,5	0
538,9	0
539,4	0
539,8	0
540,3	0,001
540,7	0,001
541,2	0,001
541,6	0,001
542,1	0,001
542,5	0,001
543	0,001
543,4	0,001
543,9	0,001
544,3	0,001
544,8	0,001
545,2	0,001
545,7	0,001
546,1	0,001
546,5	0
547	0,001
547,4	0
547,9	0,001
548,3	0,001
548,8	0,001
549,2	0,001
549,7	0,001
550,1	0,001
550,6	0,001
551	0
551,5	-0
551,9	0
552,4	-0
552,8	0
553,3	-0
553,7	-0
554,2	0
554,6	0,001
555,1	0
555,5	0,001
555,9	0,001
556,4	0
556,8	0,001
557,3	0
557,7	0
558,2	-0
558,6	0
559,1	-0
559,5	0
560	-0
560,4	0
560,9	-0
561,3	0
561,8	-0
562,2	-0
562,7	-0
563,1	-0
563,6	0
564	0,001
564,4	0,001
564,9	0,001
565,3	0,002
565,8	0,002
566,2	0,001
566,7	0,001
567,1	0
567,6	-0
568	0
568,5	-0
568,9	-0
569,4	0,001
569,8	0,001
570,3	0,001
570,7	0,001
571,1	0,001
571,6	0,001
572	0,001
572,5	0
572,9	0
573,4	0
573,8	0,001
574,3	0,001
574,7	0,001
575,2	0
575,6	0,001
576,1	0,001
576,5	0,001
576,9	0,001
577,4	0,001
577,8	0,002
578,3	0,002
578,7	0,001
579,2	0,001
579,6	0,001
580,1	0,001
580,5	0,001
581	-0
581,4	0,001
581,9	0,001
582,3	0,001
582,7	0
583,2	-0
583,6	-0
584,1	0,001
584,5	0
585	0
585,4	0
585,9	0,001
586,3	0,002
586,8	0,002
587,2	0,002
587,6	0,001
588,1	0,001
588,5	0,001
589	0,001
589,4	0,001
589,9	0,001
590,3	0,001
590,8	0,001
591,2	0,001
591,7	0,001
592,1	0,001
592,5	0,002
593	0,002
593,4	0,002
593,9	0,001
594,3	0,001
594,8	0,001
595,2	0,001
595,7	0
596,1	-0
596,6	0
597	0,001
597,4	0,001
597,9	0,001
598,3	0,001
598,8	0,001
599,2	0,001
599,7	0,001
600,1	0
600,6	-0
601	0
601,4	0
601,9	-0
602,3	-0
602,8	0
603,2	0,001
603,7	0,001
604,1	0,001
604,6	0,001
605	0,001
605,4	0,001
605,9	0,001
606,3	0
606,8	0
607,2	0,001
607,7	0,001
608,1	0,001
608,6	0,001
609	0,001
609,4	0,001
609,9	0,001
610,3	0,001
610,8	0,001
611,2	0,001
611,7	0,001
612,1	0,001
612,6	0,001
613	0
613,4	-0
613,9	0
614,3	0
614,8	-0
615,2	0,001
615,7	0
616,1	0
616,6	0,001
617	0
617,4	0
617,9	0
618,3	0
618,8	0
619,2	0,001
619,7	0,001
620,1	0,001
620,5	0,001
621	0,001
621,4	0,001
621,9	0,001
622,3	0,001
622,8	0,001
623,2	0
623,6	0
624,1	0
624,5	0
625	-0
625,4	-0,001
625,9	-0
626,3	-0
626,8	0
627,2	0
627,6	0
628,1	0,001
628,5	0,001
629	0,001
629,4	0,001
629,9	0,001
630,3	0,001
630,7	0,001
631,2	0,001
631,6	0,001
632,1	0,001
632,5	0,001
633	0,001
633,4	0,001
633,8	0,001
634,3	0,001
634,7	0,001
635,2	0,001
635,6	0,001
636,1	0
636,5	0
636,9	0
637,4	-0
637,8	-0,001
638,3	-0,001
638,7	-0,001
639,2	-0,001
639,6	-0,001
640	-0,001
640,5	-0,001
640,9	-0
641,4	-0,001
641,8	-0,001
642,2	-0,001
642,7	-0,001
643,1	-0,001
643,6	-0,001
644	-0,001
644,5	-0,001
644,9	-0,001
645,3	-0,001
645,8	-0,001
646,2	-0,001
646,7	-0,001
647,1	-0,001
647,6	-0,001
648	-0
648,4	0
648,9	0,001
649,3	0,001
649,8	0,001
650,2	0,001
650,6	0,001
651,1	0
651,5	0
652	0
652,4	0
652,9	-0
653,3	-0
653,7	-0,001
654,2	-0,001
654,6	-0,003
655,1	-0,005
655,5	-0,003
655,9	-0,002
656,4	-0,002
656,8	-0,003
657,3	-0,003
657,7	-0,002
658,2	-0,001
658,6	-0,001
659	-0,001
659,5	-0
659,9	0,006
660,4	0,007
660,8	0,007
661,2	0,006
661,7	0,005
662,1	0,004
662,6	0,003
663	0,002
663,4	0,001
663,9	0,001
664,3	0,001
664,8	0,001
665,2	0
665,6	0
666,1	-0
666,5	-0
667	-0
667,4	-0
667,9	-0
668,3	-0
668,7	-0
669,2	0
669,6	0
670,1	0
670,5	0
670,9	0
671,4	0,001
671,8	0
672,3	0
672,7	0
673,1	-0
673,6	0
674	0
674,5	-0
674,9	0
675,3	0
675,8	0
676,2	0
676,7	0
677,1	0
677,5	0
678	-0
678,4	-0
678,9	-0
679,3	0
679,7	-0
680,2	-0
680,6	-0
681,1	-0
681,5	-0
681,9	-0,001
682,4	-0,001
682,8	-0,001
683,3	-0,001
683,7	-0,002
684,1	-0,001
684,6	-0,001
685	-0,001
685,5	-0,001
685,9	-0,001
686,3	-0,001
686,8	-0,001
687,2	-0,001
687,7	-0,001
688,1	-0,001
688,5	-0,001
689	-0,001
689,4	-0
689,9	-0
690,3	-0
690,7	-0
691,2	-0
691,6	0
692	-0
692,5	-0
692,9	-0
693,4	-0
693,8	-0
694,2	-0
694,7	-0
695,1	0
695,6	-0
696	-0
696,4	-0
696,9	-0
697,3	-0
697,8	-0
698,2	-0,001
698,6	-0,001
699,1	-0
699,5	-0
699,9	-0
700,4	-0
700,8	-0,001
701,3	-0,001
701,7	-0,001
702,1	-0,001
702,6	-0
703	-0
703,5	0
703,9	0
704,3	0,001
704,8	0
705,2	0
705,6	-0
706,1	-0,001
706,5	-0,001
707	-0,001
707,4	-0,002
707,8	-0,002
708,3	-0,001
708,7	-0,001
709,2	-0,001
709,6	-0,001
710	-0
710,5	-0
710,9	0
711,3	-0
711,8	0
712,2	0
712,7	0,001
713,1	0
713,5	0
714	0
714,4	0,001
714,8	0,001
715,3	0
715,7	0
716,2	0
716,6	0
717	0
717,5	0
717,9	0,001
718,3	0,001
718,8	0,001
719,2	0
719,7	0
720,1	-0
720,5	-0
721	-0,001
721,4	-0,001
721,8	-0,001
722,3	-0
722,7	-0,001
723,2	-0
723,6	-0,001
724	-0,001
724,5	-0
724,9	-0
725,3	0
725,8	-0
726,2	0
726,7	0
727,1	-0
727,5	-0
728	-0
728,4	-0
728,8	-0
729,3	-0
729,7	-0
730,1	-0
730,6	-0
731	-0,001
731,5	-0
731,9	-0
732,3	-0
732,8	-0
733,2	-0,001
733,6	-0,001
734,1	-0,001
734,5	-0,001
734,9	-0,001
735,4	-0,001
735,8	-0,001
736,3	-0,001
736,7	-0,001
737,1	-0,001
737,6	-0,001
738	-0,001
738,4	-0
738,9	-0,001
739,3	-0
739,7	-0,001
740,2	-0
740,6	-0,001
741,1	-0,001
741,5	-0,001
741,9	-0,001
742,4	-0,001
742,8	-0,001
743,2	-0
743,7	-0
744,1	-0
744,5	0
745	-0
745,4	0
745,8	0
746,3	-0
746,7	-0
747,2	-0
747,6	-0
748	-0,001
748,5	-0,001
748,9	-0,001
749,3	-0,001
749,8	-0,001
750,2	-0,001
750,6	-0,001
751,1	-0,001
751,5	-0,002
751,9	-0,001
752,4	-0,002
752,8	-0,001
753,3	-0,002
753,7	-0,001
754,1	-0,002
754,6	-0,001
755	-0,001
755,4	-0,001
755,9	-0,001
756,3	-0
756,7	0
757,2	0
757,6	0
758	-0
758,5	0
758,9	0
759,3	0,001
759,8	0
760,2	0
760,6	0
761,1	0
761,5	-0
761,9	0
762,4	-0
762,8	0
763,3	0
763,7	-0
764,1	0
764,6	0
765	0
765,4	-0
765,9	-0
766,3	-0
766,7	-0
767,2	-0
767,6	-0,001
768	-0,001
768,5	-0,001
768,9	-0,001
769,3	-0,002
769,8	-0,002
770,2	-0,002
770,6	-0,002
771,1	-0,002
771,5	-0,002
771,9	-0,002
772,4	-0,002
772,8	-0,002
773,2	-0,002
773,7	-0,002
774,1	-0,002
774,5	-0,001
775	-0,001
775,4	-0,001
775,8	-0,001
776,3	-0,001
776,7	-0,001
777,1	-0,001
777,6	-0,001
778	-0,001
778,4	-0,001
778,9	-0,001
779,3	-0,001
779,7	-0
780,2	-0
780,6	-0,001
781	-0,001
781,5	-0,001
781,9	-0,001
782,3	-0,001
782,8	-0,001
783,2	-0,001
783,6	-0,002
784,1	-0,002
784,5	-0,002
784,9	-0,001
785,4	-0,001
785,8	-0,001
786,2	-0,001
786,7	-0,001
787,1	-0,001
787,5	-0,001
788	-0,001
788,4	-0,001
788,8	-0,001
789,3	-0,001
789,7	-0,001
790,1	-0
790,6	0
791	-0
791,4	0
791,9	-0
792,3	-0
792,7	-0
793,2	-0
793,6	-0
794	-0
794,5	0
794,9	0
795,3	0
795,8	0
796,2	0
796,6	0
797,1	0
797,5	0
797,9	-0
798,4	-0
798,8	-0
799,2	-0
799,7	-0
800,1	-0
800,5	0
801	0,001
801,4	0,001
801,8	0,001
802,2	0,001
802,7	0,001
803,1	0
803,5	0
804	-0
804,4	-0
804,8	-0
805,3	-0
805,7	-0,001
806,1	-0
806,6	-0
807	-0
807,4	-0
807,9	-0
808,3	-0
808,7	-0
809,2	-0
809,6	-0,001
810	-0,001
810,4	-0,001
810,9	-0
811,3	-0,001
811,7	-0,001
812,2	-0,001
812,6	-0,001
813	-0
813,5	-0,001
813,9	-0,001
814,3	-0,001
814,8	-0,001
815,2	-0
815,6	-0
816,1	-0,001
816,5	-0
816,9	-0
817,3	-0
817,8	0
818,2	-0
818,6	-0
819,1	-0
819,5	-0
819,9	-0
820,4	-0
820,8	-0
821,2	-0
821,7	-0
822,1	-0
822,5	0
822,9	0
823,4	0,001
823,8	0,001
824,2	0,001
824,7	0,001
825,1	0,001
825,5	0,001
826	0
826,4	-0
826,8	-0
827,3	-0
827,7	-0
828,1	-0,001
828,5	-0,001
829	-0,001
829,4	-0,001
829,8	-0,001
830,3	-0,001
830,7	-0,001
831,1	-0,001
831,6	-0,001
832	-0,001
832,4	-0,001
832,8	-0,001
833,3	-0,001
833,7	-0,001
834,1	-0,001
834,6	-0,001
835	-0,001
835,4	-0,001
835,8	-0,001
836,3	-0,001
836,7	-0,001
837,1	-0
837,6	-0
838	-0
838,4	-0
838,9	-0,001
839,3	-0,001
839,7	-0,001
840,1	-0,002
840,6	-0,001
841	-0,002
841,4	-0,002
841,9	-0,002
842,3	-0,002
842,7	-0,001
843,1	-0,001
843,6	-0,001
844	-0,001
844,4	-0,001
844,9	-0,001
845,3	-0,001
845,7	-0,002
846,2	-0,002
846,6	-0,002
847	-0,002
847,4	-0,002
847,9	-0,001
848,3	-0,001
848,7	-0,001
849,2	-0,001
849,6	-0,001
850	-0,001
850,4	-0,001
850,9	-0,002
851,3	-0,001
851,7	-0,001
852,2	-0,001
852,6	-0,001
853	-0,001
853,4	-0,001
853,9	-0,001
854,3	-0
854,7	-0
855,2	-0
855,6	-0
856	-0
856,4	-0
856,9	-0
857,3	-0
857,7	-0
858,2	-0,001
858,6	-0,001
859	-0,001
859,4	-0,001
859,9	-0,001
860,3	-0,001
860,7	-0,001
861,1	-0,001
861,6	-0,001
862	-0
862,4	-0
862,9	-0
863,3	-0
863,7	-0
864,1	-0
864,6	-0,001
865	-0,001
865,4	-0,001
865,9	-0,001
866,3	-0,001
866,7	-0,001
867,1	-0,001
867,6	-0
868	-0,001
868,4	-0,001
868,8	-0,001
869,3	-0,001
869,7	-0
870,1	-0,001
870,6	-0,001
871	-0,002
871,4	-0,002
871,8	-0,002
872,3	-0,002
872,7	-0,002
873,1	-0,002
873,5	-0,003
874	-0,002
874,4	-0,002
874,8	-0,002
875,3	-0,002
875,7	-0,002
876,1	-0,002
876,5	-0,002
877	-0,002
877,4	-0,002
877,8	-0,002
878,2	-0,002
878,7	-0,002
879,1	-0,002
879,5	-0,002
879,9	-0,002
880,4	-0,002
880,8	-0,002
881,2	-0,001
881,7	-0,001
882,1	-0,002
882,5	-0,002
882,9	-0,002
883,4	-0,002
883,8	-0,002
884,2	-0,002
884,6	-0,002
885,1	-0,002
885,5	-0,002
885,9	-0,002
886,3	-0,002
886,8	-0,001
887,2	-0,002
887,6	-0,001
888	-0,001
888,5	-0,001
888,9	-0,001
889,3	-0,001
889,8	-0,001
890,2	-0
890,6	-0
891	-0
891,5	-0
891,9	0
892,3	-0
892,7	0
893,2	-0
893,6	-0
894	-0
894,4	-0
894,9	-0,001
895,3	-0,001
895,7	-0,001
896,1	-0,001
896,6	-0,001
897	-0,002
897,4	-0,002
897,8	-0,001
898,3	-0,001
898,7	-0,001
899,1	-0,001
899,5	-0,001
900	-0
900,4	-0
900,8	-0,001
901,2	-0,001
901,7	-0,001
902,1	-0,001
902,5	-0,001
902,9	-0,001
903,4	-0,001
903,8	-0,001
904,2	-0,001
904,6	-0
905,1	0
905,5	0
905,9	0
906,3	0
906,8	-0
907,2	-0
907,6	-0
908	-0
908,5	-0
908,9	-0
909,3	-0,001
909,7	-0,001
910,2	-0
910,6	-0
911	-0
911,4	0
911,9	0,001
912,3	0,001
912,7	0,001
913,1	0,001
913,6	0,002
914	0,002
914,4	0,002
914,8	0,001
915,3	0,002
915,7	0,002
916,1	0,002
916,5	0,001
916,9	0,001
917,4	0,001
917,8	0,001
918,2	0,001
918,6	0
919,1	-0
919,5	-0
919,9	-0,001
920,3	-0
920,8	-0
921,2	-0
921,6	-0
922	0
922,5	0
922,9	0,001
923,3	0
923,7	0
924,2	0
924,6	0
925	-0
925,4	-0
925,8	-0
926,3	-0,001
926,7	-0,001
927,1	-0,001
927,5	-0,001
928	-0,001
928,4	-0,001
928,8	-0,001
929,2	-0,001
929,7	-0,002
930,1	-0,002
930,5	-0,002
930,9	-0,002
931,3	-0,003
931,8	-0,002
932,2	-0,003
932,6	-0,002
933	-0,003
933,5	-0,003
933,9	-0,002
934,3	-0,003
934,7	-0,003
935,2	-0,003
935,6	-0,002
936	-0,002
936,4	-0,002
936,8	-0,002
937,3	-0,002
937,7	-0,002
938,1	-0,002
938,5	-0,002
939	-0,002
939,4	-0,002
939,8	-0,002
940,2	-0,002
940,6	-0,002
941,1	-0,001
941,5	-0,001
941,9	-0,001
942,3	-0
942,8	-0,001
943,2	-0,001
943,6	-0,001
944	-0,002
944,4	-0,002
944,9	-0,002
945,3	-0,003
945,7	-0,003
946,1	-0,002
946,6	-0,002
947	-0,002
947,4	-0,002
947,8	-0,002
948,2	-0,003
948,7	-0,003
949,1	-0,003
949,5	-0,003
949,9	-0,004
950,3	-0,005
950,8	-0,005
951,2	-0,005
951,6	-0,005
952	-0,006
952,5	-0,005
952,9	-0,005
953,3	-0,005
953,7	-0,005
954,1	-0,005
954,6	-0,006
955	-0,006
955,4	-0,007
955,8	-0,007
956,2	-0,007
956,7	-0,007
957,1	-0,007
957,5	-0,007
957,9	-0,007
958,3	-0,007
958,8	-0,007
959,2	-0,008
959,6	-0,008
960	-0,008
960,5	-0,009
960,9	-0,009
961,3	-0,009
961,7	-0,009
962,1	-0,009
962,6	-0,009
963	-0,009
963,4	-0,008
963,8	-0,008
964,2	-0,009
964,7	-0,008
965,1	-0,008
965,5	-0,008
965,9	-0,008
966,3	-0,008
966,8	-0,007
967,2	-0,007
967,6	-0,007
968	-0,007
968,4	-0,006
968,9	-0,006
969,3	-0,005
969,7	-0,005
970,1	-0,004
970,5	-0,003
971	-0,003
971,4	-0,003
971,8	-0,004
972,2	-0,004
972,6	-0,004
973,1	-0,005
973,5	-0,006
973,9	-0,006
974,3	-0,006
974,7	-0,005
975,2	-0,005
975,6	-0,006
976	-0,005
976,4	-0,005
976,8	-0,005
977,3	-0,005
977,7	-0,005
978,1	-0,006
978,5	-0,006
978,9	-0,006
979,4	-0,007
979,8	-0,007
980,2	-0,007
980,6	-0,006
981	-0,006
981,5	-0,006
981,9	-0,006
982,3	-0,005
982,7	-0,005
983,1	-0,004
983,6	-0,004
984	-0,004
984,4	-0,004
984,8	-0,005
985,2	-0,005
985,6	-0,005
986,1	-0,005
986,5	-0,005
986,9	-0,005
987,3	-0,005
987,7	-0,005
988,2	-0,004
988,6	-0,004
989	-0,004
989,4	-0,004
989,8	-0,004
990,3	-0,003
990,7	-0,004
991,1	-0,003
991,5	-0,003
991,9	-0,003
992,3	-0,003
992,8	-0,003
993,2	-0,003
993,6	-0,003
994	-0,004
994,4	-0,004
994,9	-0,004
995,3	-0,004
995,7	-0,004
996,1	-0,004
996,5	-0,004
996,9	-0,004
997,4	-0,004
997,8	-0,004
998,2	-0,004
998,6	-0,004
999	-0,003
999,5	-0,003
999,9	-0,003
1000,3	-0,003
1000,7	-0,003
1001,1	-0,003
1001,5	-0,003
1002	-0,002
1002,4	-0,002
1002,8	-0,001
1003,2	-0,001
1003,6	-0
1004	-0
1004,5	-0,001
1004,9	-0,001
1005,3	-0,001
1005,7	-0,001
1006,1	-0,001
1006,6	-0
1007	-0
1007,4	0
1007,8	0,001
1008,2	0,001
1008,6	0,001
1009,1	0,001
1009,5	0
1009,9	0
1010,3	0
1010,7	0
1011,1	0
1011,6	-0
1012	-0
1012,4	0
1012,8	0,001
1013,2	0,001
1013,6	0
1014,1	0
1014,5	0
1014,9	-0
1015,3	-0
1015,7	-0,001
1016,1	-0,001
1016,6	-0,001
1017	-0,001
1017,4	-0
1017,8	-0
1018,2	-0
1018,6	-0
1019,1	0
1019,5	0,001
1019,9	0,001
1020,3	0,001
1020,7	0,001
1021,1	0,001
1021,6	0,001
1022	0,001
1022,4	0,001
1022,8	0,001
1023,2	0,002
1023,6	0,003
1024,1	0,003
1024,5	0,003
1024,9	0,003
1025,3	0,002
1025,7	0,001
1026,1	0
1026,6	-0,001
1027	-0,001
1027,4	-0,001
1027,8	-0,001
1028,2	-0,001
1028,6	0
1029	0
1029,5	0
1029,9	0
1030,3	0
1030,7	0,001
1031,1	0
1031,5	-0
1032	-0
1032,4	0
1032,8	0,001
1033,2	0,001
1033,6	0,001
1034	0
1034,4	0
1034,9	0
1035,3	-0
1035,7	-0,001
1036,1	-0,001
1036,5	-0,002
1036,9	-0,001
1037,4	-0,001
1037,8	-0,001
1038,2	-0
1038,6	-0
1039	-0
1039,4	-0
1039,8	-0,001
1040,3	-0,002
1040,7	-0,002
1041,1	-0,002
1041,5	-0,001
1041,9	-0,001
1042,3	-0,001
1042,7	-0
1043,2	-0
1043,6	0
1044	0
1044,4	-0,001
1044,8	-0,001
1045,2	-0,001
1045,6	-0
1046,1	-0
1046,5	-0
1046,9	-0
1047,3	-0
1047,7	-0
1048,1	0
1048,5	-0,001
1049	-0,001
1049,4	-0,002
1049,8	-0,002
1050,2	-0,003
1050,6	-0,003
1051	-0,003
1051,4	-0,002
1051,9	-0,002
1052,3	-0,001
1052,7	-0,001
1053,1	0
1053,5	0,001
1053,9	0,001
1054,3	0,001
1054,8	0,001
1055,2	0,001
1055,6	0
1056	0,001
1056,4	-0
1056,8	-0,001
1057,2	-0,001
1057,6	-0
1058,1	-0
1058,5	-0
1058,9	0
1059,3	0,001
1059,7	0,002
1060,1	0,001
1060,5	0,001
1061	0,001
1061,4	0
1061,8	-0,001
1062,2	-0,001
1062,6	-0,002
1063	-0,001
1063,4	-0,002
1063,8	-0,002
1064,3	-0,003
1064,7	-0,002
1065,1	-0,002
1065,5	-0,002
1065,9	-0,002
1066,3	-0,001
1066,7	-0,001
1067,1	-0,001
1067,6	-0,001
1068	-0,002
1068,4	-0,002
1068,8	-0,003
1069,2	-0,004
1069,6	-0,004
1070	-0,004
1070,4	-0,004
1070,9	-0,004
1071,3	-0,004
1071,7	-0,004
1072,1	-0,003
1072,5	-0,002
1072,9	-0,001
1073,3	-0,001
1073,7	-0
1074,2	-0,001
1074,6	-0,001
1075	-0,002
1075,4	-0,002
1075,8	-0,002
1076,2	-0,003
1076,6	-0,003
1077	-0,004
1077,5	-0,004
1077,9	-0,004
1078,3	-0,004
1078,7	-0,006
1079,1	-0,005
1079,5	-0,006
1079,9	-0,005
1080,3	-0,005
1080,7	-0,005
1081,2	-0,006
1081,6	-0,006
1082	-0,006
1082,4	-0,007
1082,8	-0,009
1083,2	-0,009
1083,6	-0,01
1084	-0,009
1084,5	-0,009
1084,9	-0,009
1085,3	-0,008
1085,7	-0,007
1086,1	-0,005
1086,5	-0,004
1086,9	-0,003
1087,3	-0,002
1087,7	-0,002
1088,2	-0,003
1088,6	-0,003
1089	-0,003
1089,4	-0,003
1089,8	-0,005
1090,2	-0,009
1090,6	-0,007
1091	-0,007
1091,4	-0,007
1091,9	-0,008
1092,3	-0,008
1092,7	-0,008
1093,1	-0,006
1093,5	-0,006
1093,9	-0,004
1094,3	-0,002
1094,7	-0,001
1095,1	-0,001
1095,5	-0,003
1096	-0,006
1096,4	-0,003
1096,8	-0,002
1097,2	-0,005
1097,6	-0,013
1098	-0,016
1098,4	-0,014
1098,8	-0,015
1099,2	-0,022
1099,6	-0,028
1100,1	-0,026
1100,5	-0,018
1100,9	-0,012
1101,3	-0,004
1101,7	-0,004
1102,1	0,001
1102,5	-0,002
1102,9	-0,001
1103,3	-0,01
1103,7	-0,007
1104,2	-0,022
1104,6	-0,026
1105	-0,039
1105,4	-0,033
1105,8	-0,034
1106,2	-0,033
1106,6	-0,058
1107	-0,066
1107,4	-0,077
1107,8	-0,06
1108,3	1,484
