Data from Absorbance_00008.txt Node
Date: Wed Aug 02 13:33:33 MSK 2023
User: vat
Spectrometer: MAYP114033
Trigger mode: 0
Integration Time (sec): 8,000000E-3
Scans to average: 10
Electric dark correction enabled: true
Nonlinearity correction enabled: false
Boxcar width: 3
XAxis mode: Wavelengths
Number of Pixels in Spectrum: 2068
>>>>>Begin Spectral Data<<<<<
199,4	-1,007
199,9	-0,284
200,4	0,165
200,8	0,616
201,3	0,82
201,8	0,908
202,2	0,978
202,7	0,999
203,2	1,069
203,6	1,086
204,1	1,091
204,6	1,088
205	1,091
205,5	1,091
206	1,106
206,4	1,097
206,9	1,116
207,4	1,125
207,8	1,153
208,3	1,189
208,8	1,188
209,2	1,211
209,7	1,24
210,2	1,263
210,6	1,29
211,1	1,282
211,5	1,292
212	1,321
212,5	1,321
212,9	1,346
213,4	1,356
213,9	1,361
214,3	1,382
214,8	1,381
215,3	1,396
215,7	1,417
216,2	1,433
216,7	1,45
217,1	1,471
217,6	1,498
218,1	1,513
218,5	1,539
219	1,55
219,5	1,548
219,9	1,596
220,4	1,621
220,9	1,626
221,3	1,642
221,8	1,644
222,3	1,657
222,7	1,698
223,2	1,699
223,6	1,698
224,1	1,72
224,6	1,734
225	1,754
225,5	1,769
226	1,772
226,4	1,77
226,9	1,785
227,4	1,8
227,8	1,815
228,3	1,828
228,8	1,844
229,2	1,85
229,7	1,883
230,2	1,902
230,6	1,924
231,1	1,935
231,5	1,941
232	1,941
232,5	1,935
232,9	1,94
233,4	1,954
233,9	1,946
234,3	1,94
234,8	1,951
235,3	1,972
235,7	1,99
236,2	1,984
236,7	1,991
237,1	1,991
237,6	2,024
238,1	2,046
238,5	2,042
239	2,047
239,4	2,052
239,9	2,046
240,4	2,056
240,8	2,055
241,3	2,046
241,8	2,06
242,2	2,063
242,7	2,072
243,2	2,09
243,6	2,098
244,1	2,098
244,6	2,111
245	2,109
245,5	2,124
245,9	2,12
246,4	2,108
246,9	2,124
247,3	2,14
247,8	2,148
248,3	2,169
248,7	2,158
249,2	2,161
249,7	2,18
250,1	2,171
250,6	2,179
251	2,163
251,5	2,161
252	2,169
252,4	2,194
252,9	2,178
253,4	2,179
253,8	2,186
254,3	2,209
254,8	2,199
255,2	2,198
255,7	2,177
256,1	2,211
256,6	2,245
257,1	2,251
257,5	2,218
258	2,22
258,5	2,211
258,9	2,209
259,4	2,178
259,9	2,155
260,3	2,133
260,8	2,143
261,2	2,153
261,7	2,17
262,2	2,176
262,6	2,186
263,1	2,183
263,6	2,202
264	2,203
264,5	2,186
264,9	2,162
265,4	2,159
265,9	2,163
266,3	2,173
266,8	2,153
267,3	2,163
267,7	2,177
268,2	2,224
268,7	2,223
269,1	2,217
269,6	2,228
270	2,238
270,5	2,258
271	2,245
271,4	2,207
271,9	2,223
272,4	2,216
272,8	2,221
273,3	2,233
273,7	2,205
274,2	2,238
274,7	2,246
275,1	2,251
275,6	2,268
276,1	2,259
276,5	2,251
277	2,25
277,4	2,245
277,9	2,241
278,4	2,251
278,8	2,255
279,3	2,248
279,8	2,259
280,2	2,251
280,7	2,214
281,1	2,216
281,6	2,183
282,1	2,161
282,5	2,149
283	2,117
283,4	2,115
283,9	2,098
284,4	2,084
284,8	2,06
285,3	2,036
285,8	2
286,2	1,97
286,7	1,918
287,1	1,874
287,6	1,823
288,1	1,776
288,5	1,734
289	1,693
289,5	1,651
289,9	1,614
290,4	1,584
290,8	1,556
291,3	1,534
291,8	1,509
292,2	1,495
292,7	1,482
293,1	1,475
293,6	1,466
294,1	1,464
294,5	1,465
295	1,472
295,5	1,474
295,9	1,484
296,4	1,495
296,8	1,509
297,3	1,522
297,8	1,532
298,2	1,545
298,7	1,562
299,1	1,575
299,6	1,594
300,1	1,618
300,5	1,639
301	1,666
301,5	1,692
301,9	1,713
302,4	1,736
302,8	1,75
303,3	1,767
303,8	1,784
304,2	1,807
304,7	1,819
305,1	1,837
305,6	1,854
306,1	1,882
306,5	1,892
307	1,905
307,4	1,916
307,9	1,935
308,4	1,95
308,8	1,967
309,3	1,974
309,8	2
310,2	2,022
310,7	2,029
311,1	2,038
311,6	2,057
312,1	2,077
312,5	2,093
313	2,108
313,4	2,121
313,9	2,135
314,4	2,151
314,8	2,169
315,3	2,172
315,7	2,183
316,2	2,182
316,7	2,183
317,1	2,187
317,6	2,189
318	2,198
318,5	2,186
319	2,195
319,4	2,207
319,9	2,199
320,3	2,215
320,8	2,22
321,3	2,216
321,7	2,248
322,2	2,239
322,6	2,227
323,1	2,247
323,6	2,253
324	2,251
324,5	2,258
324,9	2,261
325,4	2,271
325,9	2,276
326,3	2,275
326,8	2,282
327,2	2,271
327,7	2,249
328,2	2,242
328,6	2,22
329,1	2,203
329,5	2,197
330	2,188
330,5	2,214
330,9	2,216
331,4	2,2
331,8	2,205
332,3	2,206
332,8	2,196
333,2	2,174
333,7	2,155
334,1	2,135
334,6	2,132
335,1	2,129
335,5	2,119
336	2,113
336,4	2,105
336,9	2,083
337,4	2,082
337,8	2,058
338,3	2,049
338,7	2,041
339,2	2,029
339,7	2,022
340,1	2,008
340,6	1,99
341	1,983
341,5	1,967
342	1,949
342,4	1,93
342,9	1,914
343,3	1,903
343,8	1,888
344,2	1,864
344,7	1,842
345,2	1,823
345,6	1,802
346,1	1,776
346,5	1,751
347	1,731
347,5	1,711
347,9	1,688
348,4	1,662
348,8	1,638
349,3	1,614
349,8	1,588
350,2	1,558
350,7	1,536
351,1	1,513
351,6	1,494
352	1,471
352,5	1,441
353	1,416
353,4	1,393
353,9	1,365
354,3	1,338
354,8	1,312
355,3	1,286
355,7	1,263
356,2	1,24
356,6	1,217
357,1	1,193
357,5	1,169
358	1,147
358,5	1,123
358,9	1,101
359,4	1,077
359,8	1,056
360,3	1,035
360,8	1,013
361,2	0,991
361,7	0,973
362,1	0,951
362,6	0,931
363	0,91
363,5	0,89
364	0,871
364,4	0,852
364,9	0,833
365,3	0,815
365,8	0,797
366,3	0,779
366,7	0,763
367,2	0,747
367,6	0,733
368,1	0,716
368,5	0,701
369	0,686
369,5	0,673
369,9	0,658
370,4	0,643
370,8	0,628
371,3	0,616
371,7	0,604
372,2	0,592
372,7	0,58
373,1	0,568
373,6	0,556
374	0,544
374,5	0,533
374,9	0,522
375,4	0,511
375,9	0,501
376,3	0,49
376,8	0,48
377,2	0,472
377,7	0,462
378,2	0,453
378,6	0,445
379,1	0,436
379,5	0,429
380	0,421
380,4	0,413
380,9	0,406
381,4	0,399
381,8	0,391
382,3	0,383
382,7	0,376
383,2	0,369
383,6	0,363
384,1	0,357
384,6	0,351
385	0,346
385,5	0,34
385,9	0,335
386,4	0,33
386,8	0,324
387,3	0,318
387,7	0,313
388,2	0,308
388,7	0,303
389,1	0,298
389,6	0,293
390	0,289
390,5	0,284
390,9	0,28
391,4	0,275
391,9	0,271
392,3	0,266
392,8	0,263
393,2	0,26
393,7	0,257
394,1	0,253
394,6	0,251
395,1	0,248
395,5	0,245
396	0,243
396,4	0,239
396,9	0,236
397,3	0,233
397,8	0,23
398,2	0,227
398,7	0,225
399,2	0,221
399,6	0,218
400,1	0,216
400,5	0,214
401	0,211
401,4	0,209
401,9	0,206
402,4	0,204
402,8	0,202
403,3	0,2
403,7	0,197
404,2	0,195
404,6	0,193
405,1	0,192
405,5	0,19
406	0,188
406,5	0,186
406,9	0,185
407,4	0,182
407,8	0,18
408,3	0,178
408,7	0,176
409,2	0,175
409,6	0,172
410,1	0,169
410,6	0,168
411	0,166
411,5	0,165
411,9	0,164
412,4	0,161
412,8	0,16
413,3	0,159
413,7	0,158
414,2	0,156
414,7	0,155
415,1	0,153
415,6	0,152
416	0,151
416,5	0,15
416,9	0,148
417,4	0,146
417,8	0,145
418,3	0,143
418,8	0,141
419,2	0,14
419,7	0,139
420,1	0,139
420,6	0,137
421	0,136
421,5	0,135
421,9	0,134
422,4	0,133
422,8	0,132
423,3	0,131
423,8	0,13
424,2	0,129
424,7	0,129
425,1	0,127
425,6	0,126
426	0,125
426,5	0,124
426,9	0,123
427,4	0,122
427,9	0,121
428,3	0,121
428,8	0,12
429,2	0,119
429,7	0,119
430,1	0,117
430,6	0,117
431	0,115
431,5	0,114
431,9	0,113
432,4	0,112
432,8	0,111
433,3	0,11
433,8	0,108
434,2	0,108
434,7	0,107
435,1	0,106
435,6	0,106
436	0,105
436,5	0,104
436,9	0,105
437,4	0,104
437,8	0,104
438,3	0,103
438,8	0,102
439,2	0,102
439,7	0,101
440,1	0,101
440,6	0,101
441	0,099
441,5	0,099
441,9	0,098
442,4	0,098
442,8	0,097
443,3	0,097
443,7	0,096
444,2	0,095
444,7	0,095
445,1	0,094
445,6	0,094
446	0,094
446,5	0,093
446,9	0,093
447,4	0,093
447,8	0,092
448,3	0,091
448,7	0,09
449,2	0,09
449,6	0,09
450,1	0,089
450,6	0,088
451	0,088
451,5	0,087
451,9	0,087
452,4	0,087
452,8	0,086
453,3	0,087
453,7	0,087
454,2	0,087
454,6	0,086
455,1	0,086
455,5	0,085
456	0,084
456,4	0,082
456,9	0,082
457,3	0,081
457,8	0,081
458,3	0,081
458,7	0,08
459,2	0,08
459,6	0,08
460,1	0,079
460,5	0,079
461	0,079
461,4	0,078
461,9	0,078
462,3	0,078
462,8	0,077
463,2	0,076
463,7	0,076
464,1	0,075
464,6	0,075
465	0,075
465,5	0,074
466	0,074
466,4	0,074
466,9	0,073
467,3	0,073
467,8	0,072
468,2	0,072
468,7	0,071
469,1	0,072
469,6	0,072
470	0,073
470,5	0,072
470,9	0,072
471,4	0,072
471,8	0,071
472,3	0,07
472,7	0,069
473,2	0,068
473,6	0,068
474,1	0,068
474,5	0,068
475	0,069
475,4	0,068
475,9	0,068
476,4	0,068
476,8	0,068
477,3	0,067
477,7	0,067
478,2	0,067
478,6	0,068
479,1	0,067
479,5	0,067
480	0,066
480,4	0,066
480,9	0,065
481,3	0,064
481,8	0,063
482,2	0,063
482,7	0,062
483,1	0,062
483,6	0,061
484	0,061
484,5	0,06
484,9	0,06
485,4	0,06
485,8	0,06
486,3	0,06
486,7	0,06
487,2	0,06
487,6	0,06
488,1	0,059
488,5	0,059
489	0,058
489,4	0,057
489,9	0,057
490,4	0,057
490,8	0,057
491,3	0,057
491,7	0,058
492,2	0,059
492,6	0,058
493,1	0,058
493,5	0,058
494	0,058
494,4	0,057
494,9	0,057
495,3	0,057
495,8	0,055
496,2	0,055
496,7	0,055
497,1	0,055
497,6	0,055
498	0,055
498,5	0,054
498,9	0,054
499,4	0,053
499,8	0,053
500,3	0,052
500,7	0,051
501,2	0,051
501,6	0,051
502,1	0,051
502,5	0,051
503	0,051
503,4	0,052
503,9	0,051
504,3	0,051
504,8	0,05
505,2	0,05
505,7	0,049
506,1	0,049
506,6	0,048
507	0,048
507,5	0,048
507,9	0,048
508,4	0,048
508,8	0,049
509,3	0,048
509,7	0,049
510,2	0,048
510,6	0,048
511,1	0,049
511,5	0,048
512	0,047
512,4	0,046
512,9	0,046
513,3	0,046
513,8	0,045
514,2	0,044
514,7	0,045
515,1	0,046
515,6	0,045
516	0,045
516,5	0,045
516,9	0,044
517,4	0,044
517,8	0,043
518,3	0,043
518,7	0,043
519,2	0,043
519,6	0,044
520,1	0,043
520,5	0,043
521	0,043
521,4	0,043
521,9	0,043
522,3	0,042
522,8	0,041
523,2	0,041
523,7	0,041
524,1	0,04
524,6	0,04
525	0,039
525,5	0,039
525,9	0,04
526,4	0,039
526,8	0,039
527,3	0,039
527,7	0,039
528,2	0,039
528,6	0,039
529,1	0,039
529,5	0,039
530	0,038
530,4	0,038
530,9	0,038
531,3	0,037
531,8	0,037
532,2	0,038
532,6	0,038
533,1	0,038
533,5	0,037
534	0,037
534,4	0,038
534,9	0,038
535,3	0,037
535,8	0,036
536,2	0,036
536,7	0,036
537,1	0,036
537,6	0,036
538	0,036
538,5	0,036
538,9	0,036
539,4	0,035
539,8	0,035
540,3	0,035
540,7	0,034
541,2	0,035
541,6	0,035
542,1	0,035
542,5	0,035
543	0,035
543,4	0,035
543,9	0,034
544,3	0,033
544,8	0,033
545,2	0,034
545,7	0,033
546,1	0,033
546,5	0,033
547	0,033
547,4	0,033
547,9	0,033
548,3	0,033
548,8	0,032
549,2	0,032
549,7	0,032
550,1	0,032
550,6	0,032
551	0,031
551,5	0,031
551,9	0,031
552,4	0,031
552,8	0,031
553,3	0,03
553,7	0,03
554,2	0,03
554,6	0,03
555,1	0,03
555,5	0,03
555,9	0,03
556,4	0,029
556,8	0,03
557,3	0,03
557,7	0,03
558,2	0,03
558,6	0,031
559,1	0,031
559,5	0,031
560	0,03
560,4	0,03
560,9	0,03
561,3	0,03
561,8	0,03
562,2	0,029
562,7	0,029
563,1	0,03
563,6	0,03
564	0,03
564,4	0,03
564,9	0,029
565,3	0,03
565,8	0,03
566,2	0,029
566,7	0,029
567,1	0,029
567,6	0,029
568	0,029
568,5	0,029
568,9	0,029
569,4	0,029
569,8	0,03
570,3	0,03
570,7	0,03
571,1	0,03
571,6	0,029
572	0,029
572,5	0,028
572,9	0,028
573,4	0,028
573,8	0,028
574,3	0,028
574,7	0,028
575,2	0,027
575,6	0,028
576,1	0,028
576,5	0,028
576,9	0,028
577,4	0,028
577,8	0,028
578,3	0,028
578,7	0,028
579,2	0,028
579,6	0,028
580,1	0,027
580,5	0,027
581	0,027
581,4	0,027
581,9	0,027
582,3	0,027
582,7	0,026
583,2	0,026
583,6	0,026
584,1	0,027
584,5	0,026
585	0,026
585,4	0,026
585,9	0,027
586,3	0,027
586,8	0,027
587,2	0,026
587,6	0,026
588,1	0,026
588,5	0,026
589	0,026
589,4	0,026
589,9	0,026
590,3	0,026
590,8	0,026
591,2	0,026
591,7	0,025
592,1	0,025
592,5	0,025
593	0,026
593,4	0,025
593,9	0,025
594,3	0,025
594,8	0,025
595,2	0,025
595,7	0,025
596,1	0,025
596,6	0,025
597	0,025
597,4	0,025
597,9	0,025
598,3	0,025
598,8	0,025
599,2	0,025
599,7	0,025
600,1	0,025
600,6	0,024
601	0,024
601,4	0,024
601,9	0,024
602,3	0,024
602,8	0,024
603,2	0,024
603,7	0,024
604,1	0,024
604,6	0,024
605	0,024
605,4	0,024
605,9	0,024
606,3	0,023
606,8	0,023
607,2	0,023
607,7	0,023
608,1	0,023
608,6	0,023
609	0,024
609,4	0,024
609,9	0,024
610,3	0,025
610,8	0,025
611,2	0,024
611,7	0,025
612,1	0,024
612,6	0,024
613	0,024
613,4	0,024
613,9	0,024
614,3	0,024
614,8	0,024
615,2	0,024
615,7	0,023
616,1	0,023
616,6	0,023
617	0,023
617,4	0,023
617,9	0,023
618,3	0,023
618,8	0,023
619,2	0,023
619,7	0,023
620,1	0,023
620,5	0,023
621	0,023
621,4	0,023
621,9	0,023
622,3	0,023
622,8	0,023
623,2	0,023
623,6	0,023
624,1	0,023
624,5	0,022
625	0,022
625,4	0,022
625,9	0,022
626,3	0,022
626,8	0,022
627,2	0,022
627,6	0,022
628,1	0,023
628,5	0,023
629	0,023
629,4	0,023
629,9	0,023
630,3	0,023
630,7	0,023
631,2	0,023
631,6	0,022
632,1	0,022
632,5	0,022
633	0,022
633,4	0,022
633,8	0,022
634,3	0,022
634,7	0,022
635,2	0,023
635,6	0,022
636,1	0,022
636,5	0,022
636,9	0,022
637,4	0,022
637,8	0,021
638,3	0,021
638,7	0,021
639,2	0,021
639,6	0,021
640	0,021
640,5	0,021
640,9	0,022
641,4	0,021
641,8	0,022
642,2	0,021
642,7	0,021
643,1	0,021
643,6	0,02
644	0,02
644,5	0,02
644,9	0,02
645,3	0,02
645,8	0,02
646,2	0,02
646,7	0,02
647,1	0,02
647,6	0,02
648	0,021
648,4	0,021
648,9	0,021
649,3	0,021
649,8	0,021
650,2	0,021
650,6	0,021
651,1	0,021
651,5	0,021
652	0,021
652,4	0,021
652,9	0,02
653,3	0,02
653,7	0,019
654,2	0,019
654,6	0,019
655,1	0,018
655,5	0,01
655,9	0,006
656,4	0,004
656,8	0,005
657,3	0,006
657,7	0,006
658,2	0,005
658,6	0,007
659	0,011
659,5	0,019
659,9	0,022
660,4	0,023
660,8	0,023
661,2	0,023
661,7	0,023
662,1	0,022
662,6	0,022
663	0,021
663,4	0,021
663,9	0,021
664,3	0,021
664,8	0,021
665,2	0,021
665,6	0,021
666,1	0,02
666,5	0,02
667	0,02
667,4	0,02
667,9	0,02
668,3	0,02
668,7	0,019
669,2	0,019
669,6	0,019
670,1	0,019
670,5	0,02
670,9	0,019
671,4	0,02
671,8	0,02
672,3	0,02
672,7	0,02
673,1	0,02
673,6	0,02
674	0,02
674,5	0,02
674,9	0,02
675,3	0,02
675,8	0,02
676,2	0,02
676,7	0,02
677,1	0,02
677,5	0,02
678	0,019
678,4	0,019
678,9	0,019
679,3	0,019
679,7	0,019
680,2	0,019
680,6	0,019
681,1	0,019
681,5	0,02
681,9	0,019
682,4	0,019
682,8	0,018
683,3	0,019
683,7	0,019
684,1	0,018
684,6	0,019
685	0,019
685,5	0,019
685,9	0,019
686,3	0,019
686,8	0,019
687,2	0,019
687,7	0,018
688,1	0,018
688,5	0,018
689	0,018
689,4	0,018
689,9	0,018
690,3	0,018
690,7	0,019
691,2	0,019
691,6	0,019
692	0,019
692,5	0,018
692,9	0,018
693,4	0,018
693,8	0,018
694,2	0,018
694,7	0,018
695,1	0,019
695,6	0,019
696	0,019
696,4	0,019
696,9	0,019
697,3	0,019
697,8	0,019
698,2	0,018
698,6	0,018
699,1	0,018
699,5	0,018
699,9	0,018
700,4	0,018
700,8	0,018
701,3	0,018
701,7	0,018
702,1	0,018
702,6	0,018
703	0,018
703,5	0,018
703,9	0,018
704,3	0,018
704,8	0,018
705,2	0,018
705,6	0,018
706,1	0,017
706,5	0,017
707	0,017
707,4	0,017
707,8	0,017
708,3	0,017
708,7	0,017
709,2	0,017
709,6	0,018
710	0,018
710,5	0,018
710,9	0,018
711,3	0,018
711,8	0,018
712,2	0,018
712,7	0,018
713,1	0,017
713,5	0,017
714	0,017
714,4	0,018
714,8	0,018
715,3	0,017
715,7	0,017
716,2	0,017
716,6	0,018
717	0,018
717,5	0,017
717,9	0,017
718,3	0,018
718,8	0,018
719,2	0,018
719,7	0,018
720,1	0,017
720,5	0,018
721	0,017
721,4	0,017
721,8	0,017
722,3	0,017
722,7	0,017
723,2	0,017
723,6	0,017
724	0,017
724,5	0,017
724,9	0,017
725,3	0,017
725,8	0,017
726,2	0,017
726,7	0,017
727,1	0,017
727,5	0,017
728	0,017
728,4	0,017
728,8	0,017
729,3	0,017
729,7	0,017
730,1	0,017
730,6	0,017
731	0,017
731,5	0,017
731,9	0,017
732,3	0,016
732,8	0,016
733,2	0,016
733,6	0,016
734,1	0,016
734,5	0,016
734,9	0,016
735,4	0,016
735,8	0,016
736,3	0,016
736,7	0,016
737,1	0,016
737,6	0,016
738	0,016
738,4	0,016
738,9	0,016
739,3	0,017
739,7	0,017
740,2	0,017
740,6	0,017
741,1	0,017
741,5	0,016
741,9	0,017
742,4	0,016
742,8	0,016
743,2	0,016
743,7	0,016
744,1	0,016
744,5	0,016
745	0,016
745,4	0,016
745,8	0,016
746,3	0,016
746,7	0,016
747,2	0,016
747,6	0,016
748	0,015
748,5	0,015
748,9	0,015
749,3	0,015
749,8	0,015
750,2	0,015
750,6	0,015
751,1	0,015
751,5	0,015
751,9	0,015
752,4	0,015
752,8	0,014
753,3	0,015
753,7	0,015
754,1	0,015
754,6	0,015
755	0,015
755,4	0,015
755,9	0,015
756,3	0,015
756,7	0,016
757,2	0,016
757,6	0,016
758	0,015
758,5	0,016
758,9	0,015
759,3	0,015
759,8	0,015
760,2	0,015
760,6	0,015
761,1	0,016
761,5	0,015
761,9	0,016
762,4	0,016
762,8	0,016
763,3	0,016
763,7	0,016
764,1	0,016
764,6	0,015
765	0,015
765,4	0,015
765,9	0,015
766,3	0,015
766,7	0,015
767,2	0,015
767,6	0,015
768	0,015
768,5	0,015
768,9	0,015
769,3	0,015
769,8	0,015
770,2	0,015
770,6	0,015
771,1	0,015
771,5	0,015
771,9	0,015
772,4	0,015
772,8	0,015
773,2	0,015
773,7	0,015
774,1	0,014
774,5	0,014
775	0,014
775,4	0,014
775,8	0,014
776,3	0,014
776,7	0,014
777,1	0,015
777,6	0,015
778	0,015
778,4	0,016
778,9	0,015
779,3	0,015
779,7	0,015
780,2	0,015
780,6	0,015
781	0,015
781,5	0,015
781,9	0,015
782,3	0,015
782,8	0,015
783,2	0,015
783,6	0,015
784,1	0,015
784,5	0,015
784,9	0,015
785,4	0,015
785,8	0,015
786,2	0,015
786,7	0,015
787,1	0,016
787,5	0,015
788	0,015
788,4	0,015
788,8	0,015
789,3	0,015
789,7	0,015
790,1	0,015
790,6	0,015
791	0,015
791,4	0,015
791,9	0,015
792,3	0,015
792,7	0,015
793,2	0,015
793,6	0,015
794	0,015
794,5	0,015
794,9	0,015
795,3	0,015
795,8	0,015
796,2	0,015
796,6	0,015
797,1	0,015
797,5	0,015
797,9	0,015
798,4	0,014
798,8	0,014
799,2	0,014
799,7	0,014
800,1	0,014
800,5	0,014
801	0,014
801,4	0,014
801,8	0,014
802,2	0,014
802,7	0,014
803,1	0,014
803,5	0,014
804	0,014
804,4	0,015
804,8	0,015
805,3	0,014
805,7	0,015
806,1	0,015
806,6	0,015
807	0,014
807,4	0,014
807,9	0,014
808,3	0,015
808,7	0,015
809,2	0,014
809,6	0,014
810	0,014
810,4	0,014
810,9	0,014
811,3	0,014
811,7	0,014
812,2	0,014
812,6	0,014
813	0,014
813,5	0,014
813,9	0,014
814,3	0,013
814,8	0,013
815,2	0,013
815,6	0,014
816,1	0,014
816,5	0,014
816,9	0,014
817,3	0,014
817,8	0,014
818,2	0,014
818,6	0,014
819,1	0,014
819,5	0,014
819,9	0,014
820,4	0,015
820,8	0,014
821,2	0,014
821,7	0,015
822,1	0,014
822,5	0,015
822,9	0,015
823,4	0,014
823,8	0,015
824,2	0,015
824,7	0,014
825,1	0,014
825,5	0,014
826	0,014
826,4	0,014
826,8	0,014
827,3	0,013
827,7	0,013
828,1	0,013
828,5	0,013
829	0,012
829,4	0,013
829,8	0,013
830,3	0,013
830,7	0,013
831,1	0,013
831,6	0,013
832	0,013
832,4	0,012
832,8	0,012
833,3	0,012
833,7	0,012
834,1	0,012
834,6	0,013
835	0,013
835,4	0,013
835,8	0,013
836,3	0,013
836,7	0,013
837,1	0,013
837,6	0,014
838	0,013
838,4	0,014
838,9	0,013
839,3	0,013
839,7	0,013
840,1	0,012
840,6	0,012
841	0,012
841,4	0,012
841,9	0,012
842,3	0,012
842,7	0,013
843,1	0,013
843,6	0,013
844	0,013
844,4	0,013
844,9	0,013
845,3	0,012
845,7	0,012
846,2	0,012
846,6	0,013
847	0,013
847,4	0,013
847,9	0,013
848,3	0,013
848,7	0,013
849,2	0,013
849,6	0,013
850	0,013
850,4	0,013
850,9	0,013
851,3	0,013
851,7	0,013
852,2	0,013
852,6	0,012
853	0,012
853,4	0,012
853,9	0,012
854,3	0,012
854,7	0,012
855,2	0,012
855,6	0,012
856	0,012
856,4	0,012
856,9	0,012
857,3	0,012
857,7	0,012
858,2	0,012
858,6	0,012
859	0,012
859,4	0,012
859,9	0,013
860,3	0,012
860,7	0,013
861,1	0,013
861,6	0,013
862	0,013
862,4	0,013
862,9	0,013
863,3	0,013
863,7	0,013
864,1	0,013
864,6	0,012
865	0,012
865,4	0,012
865,9	0,012
866,3	0,012
866,7	0,011
867,1	0,011
867,6	0,012
868	0,012
868,4	0,012
868,8	0,012
869,3	0,012
869,7	0,012
870,1	0,012
870,6	0,012
871	0,011
871,4	0,011
871,8	0,011
872,3	0,011
872,7	0,011
873,1	0,011
873,5	0,01
874	0,011
874,4	0,011
874,8	0,011
875,3	0,011
875,7	0,011
876,1	0,011
876,5	0,011
877	0,011
877,4	0,011
877,8	0,011
878,2	0,011
878,7	0,011
879,1	0,011
879,5	0,012
879,9	0,012
880,4	0,012
880,8	0,012
881,2	0,013
881,7	0,013
882,1	0,013
882,5	0,013
882,9	0,013
883,4	0,012
883,8	0,013
884,2	0,013
884,6	0,012
885,1	0,012
885,5	0,012
885,9	0,012
886,3	0,012
886,8	0,012
887,2	0,012
887,6	0,012
888	0,012
888,5	0,012
888,9	0,012
889,3	0,012
889,8	0,011
890,2	0,011
890,6	0,011
891	0,011
891,5	0,012
891,9	0,012
892,3	0,011
892,7	0,012
893,2	0,012
893,6	0,012
894	0,012
894,4	0,011
894,9	0,011
895,3	0,011
895,7	0,011
896,1	0,011
896,6	0,011
897	0,011
897,4	0,011
897,8	0,011
898,3	0,011
898,7	0,011
899,1	0,011
899,5	0,011
900	0,011
900,4	0,011
900,8	0,011
901,2	0,011
901,7	0,011
902,1	0,011
902,5	0,011
902,9	0,011
903,4	0,011
903,8	0,011
904,2	0,011
904,6	0,011
905,1	0,011
905,5	0,012
905,9	0,012
906,3	0,012
906,8	0,012
907,2	0,012
907,6	0,013
908	0,012
908,5	0,012
908,9	0,012
909,3	0,012
909,7	0,012
910,2	0,012
910,6	0,012
911	0,012
911,4	0,013
911,9	0,012
912,3	0,012
912,7	0,012
913,1	0,012
913,6	0,012
914	0,013
914,4	0,012
914,8	0,012
915,3	0,013
915,7	0,013
916,1	0,012
916,5	0,012
916,9	0,012
917,4	0,012
917,8	0,012
918,2	0,012
918,6	0,012
919,1	0,011
919,5	0,012
919,9	0,011
920,3	0,011
920,8	0,011
921,2	0,011
921,6	0,011
922	0,011
922,5	0,011
922,9	0,011
923,3	0,011
923,7	0,011
924,2	0,011
924,6	0,011
925	0,01
925,4	0,011
925,8	0,011
926,3	0,01
926,7	0,01
927,1	0,01
927,5	0,01
928	0,01
928,4	0,01
928,8	0,01
929,2	0,01
929,7	0,01
930,1	0,01
930,5	0,01
930,9	0,01
931,3	0,01
931,8	0,01
932,2	0,01
932,6	0,01
933	0,01
933,5	0,01
933,9	0,01
934,3	0,01
934,7	0,009
935,2	0,009
935,6	0,009
936	0,009
936,4	0,009
936,8	0,009
937,3	0,009
937,7	0,009
938,1	0,009
938,5	0,009
939	0,008
939,4	0,009
939,8	0,009
940,2	0,009
940,6	0,009
941,1	0,009
941,5	0,009
941,9	0,01
942,3	0,009
942,8	0,01
943,2	0,01
943,6	0,009
944	0,009
944,4	0,01
944,9	0,009
945,3	0,009
945,7	0,009
946,1	0,009
946,6	0,01
947	0,009
947,4	0,009
947,8	0,009
948,2	0,009
948,7	0,009
949,1	0,008
949,5	0,008
949,9	0,007
950,3	0,006
950,8	0,005
951,2	0,006
951,6	0,006
952	0,006
952,5	0,006
952,9	0,007
953,3	0,007
953,7	0,007
954,1	0,007
954,6	0,007
955	0,006
955,4	0,006
955,8	0,005
956,2	0,006
956,7	0,005
957,1	0,004
957,5	0,004
957,9	0,003
958,3	0,003
958,8	0,003
959,2	0,003
959,6	0,002
960	0,002
960,5	0,002
960,9	0,002
961,3	0,002
961,7	0,001
962,1	0,001
962,6	0,002
963	0,002
963,4	0,002
963,8	0,003
964,2	0,002
964,7	0,003
965,1	0,003
965,5	0,003
965,9	0,004
966,3	0,004
966,8	0,003
967,2	0,004
967,6	0,004
968	0,004
968,4	0,004
968,9	0,004
969,3	0,005
969,7	0,006
970,1	0,006
970,5	0,006
971	0,006
971,4	0,006
971,8	0,006
972,2	0,006
972,6	0,005
973,1	0,004
973,5	0,004
973,9	0,004
974,3	0,004
974,7	0,004
975,2	0,004
975,6	0,004
976	0,005
976,4	0,005
976,8	0,005
977,3	0,005
977,7	0,005
978,1	0,005
978,5	0,005
978,9	0,005
979,4	0,006
979,8	0,006
980,2	0,006
980,6	0,006
981	0,006
981,5	0,006
981,9	0,005
982,3	0,005
982,7	0,005
983,1	0,005
983,6	0,005
984	0,005
984,4	0,006
984,8	0,005
985,2	0,005
985,6	0,005
986,1	0,005
986,5	0,005
986,9	0,005
987,3	0,004
987,7	0,005
988,2	0,005
988,6	0,005
989	0,005
989,4	0,005
989,8	0,006
990,3	0,006
990,7	0,006
991,1	0,006
991,5	0,006
991,9	0,006
992,3	0,007
992,8	0,006
993,2	0,007
993,6	0,007
994	0,007
994,4	0,008
994,9	0,008
995,3	0,009
995,7	0,009
996,1	0,008
996,5	0,008
996,9	0,008
997,4	0,007
997,8	0,007
998,2	0,007
998,6	0,007
999	0,008
999,5	0,007
999,9	0,008
1000,3	0,008
1000,7	0,007
1001,1	0,007
1001,5	0,007
1002	0,008
1002,4	0,008
1002,8	0,008
1003,2	0,008
1003,6	0,008
1004	0,009
1004,5	0,009
1004,9	0,009
1005,3	0,009
1005,7	0,009
1006,1	0,01
1006,6	0,01
1007	0,01
1007,4	0,01
1007,8	0,01
1008,2	0,011
1008,6	0,011
1009,1	0,011
1009,5	0,011
1009,9	0,011
1010,3	0,012
1010,7	0,011
1011,1	0,012
1011,6	0,012
1012	0,012
1012,4	0,012
1012,8	0,012
1013,2	0,011
1013,6	0,011
1014,1	0,01
1014,5	0,009
1014,9	0,009
1015,3	0,009
1015,7	0,01
1016,1	0,01
1016,6	0,01
1017	0,01
1017,4	0,011
1017,8	0,011
1018,2	0,012
1018,6	0,011
1019,1	0,011
1019,5	0,012
1019,9	0,012
1020,3	0,012
1020,7	0,012
1021,1	0,011
1021,6	0,012
1022	0,012
1022,4	0,012
1022,8	0,013
1023,2	0,013
1023,6	0,012
1024,1	0,013
1024,5	0,013
1024,9	0,012
1025,3	0,012
1025,7	0,011
1026,1	0,011
1026,6	0,012
1027	0,012
1027,4	0,012
1027,8	0,013
1028,2	0,012
1028,6	0,013
1029	0,013
1029,5	0,013
1029,9	0,012
1030,3	0,011
1030,7	0,012
1031,1	0,011
1031,5	0,01
1032	0,01
1032,4	0,01
1032,8	0,01
1033,2	0,01
1033,6	0,01
1034	0,01
1034,4	0,01
1034,9	0,01
1035,3	0,009
1035,7	0,009
1036,1	0,009
1036,5	0,008
1036,9	0,008
1037,4	0,009
1037,8	0,009
1038,2	0,01
1038,6	0,01
1039	0,01
1039,4	0,01
1039,8	0,009
1040,3	0,008
1040,7	0,008
1041,1	0,009
1041,5	0,009
1041,9	0,01
1042,3	0,01
1042,7	0,011
1043,2	0,011
1043,6	0,011
1044	0,01
1044,4	0,01
1044,8	0,009
1045,2	0,009
1045,6	0,009
1046,1	0,009
1046,5	0,009
1046,9	0,009
1047,3	0,01
1047,7	0,01
1048,1	0,01
1048,5	0,01
1049	0,011
1049,4	0,009
1049,8	0,01
1050,2	0,009
1050,6	0,009
1051	0,008
1051,4	0,008
1051,9	0,008
1052,3	0,009
1052,7	0,01
1053,1	0,011
1053,5	0,011
1053,9	0,012
1054,3	0,012
1054,8	0,012
1055,2	0,012
1055,6	0,012
1056	0,012
1056,4	0,012
1056,8	0,011
1057,2	0,011
1057,6	0,01
1058,1	0,01
1058,5	0,01
1058,9	0,01
1059,3	0,01
1059,7	0,011
1060,1	0,01
1060,5	0,011
1061	0,011
1061,4	0,01
1061,8	0,009
1062,2	0,01
1062,6	0,009
1063	0,009
1063,4	0,009
1063,8	0,009
1064,3	0,009
1064,7	0,009
1065,1	0,008
1065,5	0,008
1065,9	0,009
1066,3	0,009
1066,7	0,009
1067,1	0,01
1067,6	0,01
1068	0,01
1068,4	0,01
1068,8	0,01
1069,2	0,009
1069,6	0,009
1070	0,009
1070,4	0,009
1070,9	0,008
1071,3	0,008
1071,7	0,009
1072,1	0,008
1072,5	0,009
1072,9	0,01
1073,3	0,01
1073,7	0,01
1074,2	0,01
1074,6	0,01
1075	0,011
1075,4	0,011
1075,8	0,01
1076,2	0,01
1076,6	0,01
1077	0,01
1077,5	0,011
1077,9	0,012
1078,3	0,011
1078,7	0,011
1079,1	0,011
1079,5	0,011
1079,9	0,011
1080,3	0,009
1080,7	0,008
1081,2	0,008
1081,6	0,007
1082	0,007
1082,4	0,007
1082,8	0,006
1083,2	0,008
1083,6	0,008
1084	0,009
1084,5	0,009
1084,9	0,008
1085,3	0,008
1085,7	0,009
1086,1	0,008
1086,5	0,01
1086,9	0,009
1087,3	0,011
1087,7	0,011
1088,2	0,011
1088,6	0,008
1089	0,01
1089,4	0,009
1089,8	0,008
1090,2	0,005
1090,6	0,005
1091	0,007
1091,4	0,009
1091,9	0,007
1092,3	0,007
1092,7	0,005
1093,1	0,006
1093,5	0,006
1093,9	0,006
1094,3	0,004
1094,7	0,002
1095,1	0,002
1095,5	0,003
1096	0,005
1096,4	0,007
1096,8	0,005
1097,2	0,002
1097,6	0,001
1098	0,005
1098,4	0,006
1098,8	0,002
1099,2	-0
1099,6	-0,003
1100,1	0,003
1100,5	0,002
1100,9	-0,006
1101,3	-0
1101,7	-0,006
1102,1	-0,002
1102,5	-0,004
1102,9	-0,009
1103,3	-0,014
1103,7	-0,018
1104,2	-0,029
1104,6	-0,028
1105	-0,039
1105,4	-0,033
1105,8	-0,021
1106,2	-0,017
1106,6	-0,003
1107	-0,016
1107,4	0,005
1107,8	0,077
1108,3	-0,21
