Data from Absorbance_00014.txt Node
Date: Wed Aug 02 13:44:37 MSK 2023
User: vat
Spectrometer: MAYP114033
Trigger mode: 0
Integration Time (sec): 8,000000E-3
Scans to average: 10
Electric dark correction enabled: true
Nonlinearity correction enabled: false
Boxcar width: 3
XAxis mode: Wavelengths
Number of Pixels in Spectrum: 2068
>>>>>Begin Spectral Data<<<<<
199,4	-0,717
199,9	-0,181
200,4	0,216
200,8	0,62
201,3	0,78
201,8	0,831
202,2	0,882
202,7	0,924
203,2	0,989
203,6	1,027
204,1	1,035
204,6	1,044
205	1,066
205,5	1,083
206	1,074
206,4	1,084
206,9	1,099
207,4	1,114
207,8	1,147
208,3	1,178
208,8	1,172
209,2	1,202
209,7	1,218
210,2	1,248
210,6	1,269
211,1	1,267
211,5	1,28
212	1,307
212,5	1,308
212,9	1,334
213,4	1,346
213,9	1,378
214,3	1,389
214,8	1,375
215,3	1,379
215,7	1,392
216,2	1,394
216,7	1,382
217,1	1,385
217,6	1,388
218,1	1,431
218,5	1,459
219	1,481
219,5	1,491
219,9	1,536
220,4	1,542
220,9	1,575
221,3	1,566
221,8	1,583
222,3	1,607
222,7	1,637
223,2	1,647
223,6	1,664
224,1	1,689
224,6	1,705
225	1,711
225,5	1,726
226	1,738
226,4	1,738
226,9	1,744
227,4	1,753
227,8	1,777
228,3	1,818
228,8	1,84
229,2	1,841
229,7	1,867
230,2	1,884
230,6	1,897
231,1	1,9
231,5	1,881
232	1,874
232,5	1,874
232,9	1,871
233,4	1,881
233,9	1,9
234,3	1,898
234,8	1,921
235,3	1,928
235,7	1,93
236,2	1,94
236,7	1,974
237,1	1,962
237,6	1,968
238,1	1,976
238,5	1,995
239	2,01
239,4	2,021
239,9	2,011
240,4	2,02
240,8	2,049
241,3	2,041
241,8	2,053
242,2	2,075
242,7	2,073
243,2	2,081
243,6	2,091
244,1	2,087
244,6	2,117
245	2,119
245,5	2,126
245,9	2,136
246,4	2,135
246,9	2,161
247,3	2,173
247,8	2,162
248,3	2,172
248,7	2,148
249,2	2,146
249,7	2,157
250,1	2,127
250,6	2,128
251	2,114
251,5	2,095
252	2,105
252,4	2,104
252,9	2,077
253,4	2,08
253,8	2,085
254,3	2,095
254,8	2,102
255,2	2,12
255,7	2,129
256,1	2,181
256,6	2,191
257,1	2,19
257,5	2,186
258	2,195
258,5	2,192
258,9	2,183
259,4	2,145
259,9	2,144
260,3	2,135
260,8	2,145
261,2	2,133
261,7	2,136
262,2	2,13
262,6	2,142
263,1	2,138
263,6	2,138
264	2,133
264,5	2,137
264,9	2,126
265,4	2,134
265,9	2,135
266,3	2,145
266,8	2,162
267,3	2,163
267,7	2,178
268,2	2,194
268,7	2,189
269,1	2,187
269,6	2,172
270	2,143
270,5	2,171
271	2,14
271,4	2,131
271,9	2,147
272,4	2,138
272,8	2,164
273,3	2,173
273,7	2,152
274,2	2,19
274,7	2,175
275,1	2,175
275,6	2,186
276,1	2,164
276,5	2,173
277	2,166
277,4	2,152
277,9	2,176
278,4	2,168
278,8	2,164
279,3	2,166
279,8	2,162
280,2	2,133
280,7	2,111
281,1	2,084
281,6	2,053
282,1	2,009
282,5	1,959
283	1,898
283,4	1,85
283,9	1,784
284,4	1,722
284,8	1,661
285,3	1,607
285,8	1,555
286,2	1,506
286,7	1,456
287,1	1,415
287,6	1,378
288,1	1,343
288,5	1,313
289	1,286
289,5	1,261
289,9	1,241
290,4	1,224
290,8	1,208
291,3	1,199
291,8	1,187
292,2	1,179
292,7	1,175
293,1	1,169
293,6	1,163
294,1	1,158
294,5	1,152
295	1,149
295,5	1,145
295,9	1,14
296,4	1,14
296,8	1,138
297,3	1,133
297,8	1,129
298,2	1,125
298,7	1,121
299,1	1,115
299,6	1,11
300,1	1,106
300,5	1,105
301	1,103
301,5	1,1
301,9	1,097
302,4	1,093
302,8	1,09
303,3	1,087
303,8	1,081
304,2	1,076
304,7	1,071
305,1	1,066
305,6	1,06
306,1	1,052
306,5	1,044
307	1,036
307,4	1,028
307,9	1,021
308,4	1,013
308,8	1,008
309,3	1,001
309,8	0,996
310,2	0,99
310,7	0,982
311,1	0,975
311,6	0,969
312,1	0,96
312,5	0,953
313	0,945
313,4	0,937
313,9	0,929
314,4	0,922
314,8	0,913
315,3	0,905
315,7	0,896
316,2	0,888
316,7	0,882
317,1	0,873
317,6	0,865
318	0,856
318,5	0,847
319	0,837
319,4	0,828
319,9	0,817
320,3	0,808
320,8	0,799
321,3	0,789
321,7	0,781
322,2	0,772
322,6	0,763
323,1	0,754
323,6	0,743
324	0,734
324,5	0,726
324,9	0,717
325,4	0,706
325,9	0,697
326,3	0,687
326,8	0,679
327,2	0,668
327,7	0,659
328,2	0,65
328,6	0,642
329,1	0,632
329,5	0,624
330	0,615
330,5	0,607
330,9	0,598
331,4	0,589
331,8	0,581
332,3	0,573
332,8	0,565
333,2	0,556
333,7	0,547
334,1	0,54
334,6	0,533
335,1	0,526
335,5	0,517
336	0,509
336,4	0,503
336,9	0,496
337,4	0,488
337,8	0,48
338,3	0,472
338,7	0,464
339,2	0,457
339,7	0,45
340,1	0,443
340,6	0,436
341	0,429
341,5	0,422
342	0,417
342,4	0,411
342,9	0,404
343,3	0,398
343,8	0,392
344,2	0,386
344,7	0,38
345,2	0,374
345,6	0,368
346,1	0,362
346,5	0,356
347	0,35
347,5	0,344
347,9	0,339
348,4	0,333
348,8	0,328
349,3	0,323
349,8	0,318
350,2	0,312
350,7	0,307
351,1	0,302
351,6	0,298
352	0,292
352,5	0,288
353	0,283
353,4	0,279
353,9	0,275
354,3	0,271
354,8	0,266
355,3	0,263
355,7	0,259
356,2	0,255
356,6	0,251
357,1	0,247
357,5	0,244
358	0,24
358,5	0,235
358,9	0,232
359,4	0,228
359,8	0,226
360,3	0,222
360,8	0,218
361,2	0,214
361,7	0,212
362,1	0,208
362,6	0,205
363	0,201
363,5	0,198
364	0,195
364,4	0,192
364,9	0,189
365,3	0,186
365,8	0,184
366,3	0,181
366,7	0,178
367,2	0,175
367,6	0,174
368,1	0,171
368,5	0,169
369	0,167
369,5	0,165
369,9	0,162
370,4	0,16
370,8	0,157
371,3	0,154
371,7	0,151
372,2	0,149
372,7	0,147
373,1	0,145
373,6	0,144
374	0,141
374,5	0,14
374,9	0,139
375,4	0,136
375,9	0,135
376,3	0,133
376,8	0,131
377,2	0,13
377,7	0,127
378,2	0,125
378,6	0,123
379,1	0,121
379,5	0,12
380	0,119
380,4	0,117
380,9	0,115
381,4	0,114
381,8	0,112
382,3	0,11
382,7	0,109
383,2	0,107
383,6	0,106
384,1	0,105
384,6	0,103
385	0,102
385,5	0,101
385,9	0,1
386,4	0,098
386,8	0,097
387,3	0,095
387,7	0,094
388,2	0,093
388,7	0,091
389,1	0,089
389,6	0,088
390	0,087
390,5	0,086
390,9	0,084
391,4	0,083
391,9	0,082
392,3	0,08
392,8	0,08
393,2	0,079
393,7	0,078
394,1	0,078
394,6	0,078
395,1	0,077
395,5	0,076
396	0,076
396,4	0,075
396,9	0,073
397,3	0,071
397,8	0,07
398,2	0,069
398,7	0,068
399,2	0,067
399,6	0,066
400,1	0,066
400,5	0,066
401	0,065
401,4	0,064
401,9	0,063
402,4	0,063
402,8	0,062
403,3	0,061
403,7	0,06
404,2	0,059
404,6	0,059
405,1	0,058
405,5	0,057
406	0,057
406,5	0,056
406,9	0,056
407,4	0,056
407,8	0,054
408,3	0,055
408,7	0,054
409,2	0,053
409,6	0,052
410,1	0,051
410,6	0,05
411	0,05
411,5	0,049
411,9	0,049
412,4	0,047
412,8	0,047
413,3	0,046
413,7	0,046
414,2	0,045
414,7	0,044
415,1	0,044
415,6	0,044
416	0,043
416,5	0,043
416,9	0,042
417,4	0,041
417,8	0,041
418,3	0,04
418,8	0,038
419,2	0,038
419,7	0,038
420,1	0,037
420,6	0,036
421	0,036
421,5	0,037
421,9	0,037
422,4	0,036
422,8	0,036
423,3	0,036
423,8	0,036
424,2	0,035
424,7	0,034
425,1	0,033
425,6	0,033
426	0,032
426,5	0,031
426,9	0,031
427,4	0,03
427,9	0,03
428,3	0,029
428,8	0,029
429,2	0,028
429,7	0,028
430,1	0,028
430,6	0,028
431	0,028
431,5	0,027
431,9	0,027
432,4	0,026
432,8	0,025
433,3	0,025
433,8	0,023
434,2	0,022
434,7	0,022
435,1	0,021
435,6	0,021
436	0,02
436,5	0,02
436,9	0,021
437,4	0,02
437,8	0,02
438,3	0,02
438,8	0,02
439,2	0,02
439,7	0,019
440,1	0,019
440,6	0,018
441	0,018
441,5	0,017
441,9	0,017
442,4	0,017
442,8	0,016
443,3	0,016
443,7	0,016
444,2	0,016
444,7	0,016
445,1	0,015
445,6	0,015
446	0,015
446,5	0,015
446,9	0,015
447,4	0,014
447,8	0,014
448,3	0,014
448,7	0,013
449,2	0,013
449,6	0,013
450,1	0,012
450,6	0,012
451	0,012
451,5	0,012
451,9	0,012
452,4	0,011
452,8	0,011
453,3	0,012
453,7	0,012
454,2	0,012
454,6	0,012
455,1	0,012
455,5	0,012
456	0,011
456,4	0,01
456,9	0,01
457,3	0,009
457,8	0,009
458,3	0,009
458,7	0,009
459,2	0,009
459,6	0,009
460,1	0,009
460,5	0,009
461	0,009
461,4	0,008
461,9	0,008
462,3	0,008
462,8	0,007
463,2	0,007
463,7	0,007
464,1	0,007
464,6	0,007
465	0,007
465,5	0,007
466	0,007
466,4	0,007
466,9	0,006
467,3	0,007
467,8	0,006
468,2	0,005
468,7	0,006
469,1	0,006
469,6	0,006
470	0,007
470,5	0,006
470,9	0,006
471,4	0,006
471,8	0,006
472,3	0,006
472,7	0,006
473,2	0,005
473,6	0,005
474,1	0,005
474,5	0,005
475	0,005
475,4	0,005
475,9	0,004
476,4	0,004
476,8	0,005
477,3	0,005
477,7	0,005
478,2	0,005
478,6	0,006
479,1	0,006
479,5	0,006
480	0,005
480,4	0,005
480,9	0,005
481,3	0,005
481,8	0,003
482,2	0,003
482,7	0,003
483,1	0,002
483,6	0,003
484	0,003
484,5	0,003
484,9	0,004
485,4	0,004
485,8	0,004
486,3	0,006
486,7	0,005
487,2	0,005
487,6	0,005
488,1	0,005
488,5	0,004
489	0,004
489,4	0,002
489,9	0,002
490,4	0,003
490,8	0,003
491,3	0,004
491,7	0,005
492,2	0,005
492,6	0,006
493,1	0,005
493,5	0,005
494	0,004
494,4	0,005
494,9	0,004
495,3	0,005
495,8	0,004
496,2	0,004
496,7	0,004
497,1	0,004
497,6	0,004
498	0,004
498,5	0,003
498,9	0,004
499,4	0,003
499,8	0,003
500,3	0,003
500,7	0,002
501,2	0,002
501,6	0,002
502,1	0,002
502,5	0,002
503	0,002
503,4	0,002
503,9	0,002
504,3	0,003
504,8	0,003
505,2	0,003
505,7	0,003
506,1	0,004
506,6	0,003
507	0,003
507,5	0,003
507,9	0,003
508,4	0,003
508,8	0,003
509,3	0,002
509,7	0,002
510,2	0,002
510,6	0,002
511,1	0,002
511,5	0,002
512	0,002
512,4	0,002
512,9	0,002
513,3	0,002
513,8	0,001
514,2	0,002
514,7	0,002
515,1	0,003
515,6	0,003
516	0,003
516,5	0,003
516,9	0,003
517,4	0,002
517,8	0,001
518,3	0,001
518,7	0,001
519,2	0,001
519,6	0,002
520,1	0,002
520,5	0,002
521	0,002
521,4	0,002
521,9	0,002
522,3	0,002
522,8	0,001
523,2	0,001
523,7	0,001
524,1	0,002
524,6	0,001
525	0,002
525,5	0,002
525,9	0,002
526,4	0,002
526,8	0,002
527,3	0,002
527,7	0,001
528,2	0,001
528,6	0,001
529,1	0,002
529,5	0,002
530	0,002
530,4	0,002
530,9	0,002
531,3	0,002
531,8	0,002
532,2	0,002
532,6	0,003
533,1	0,003
533,5	0,003
534	0,002
534,4	0,002
534,9	0,002
535,3	0,002
535,8	0,001
536,2	0,001
536,7	0,002
537,1	0,001
537,6	0,002
538	0,002
538,5	0,002
538,9	0,002
539,4	0,002
539,8	0,001
540,3	0,001
540,7	0,001
541,2	0,002
541,6	0,002
542,1	0,002
542,5	0,003
543	0,003
543,4	0,003
543,9	0,002
544,3	0,002
544,8	0,002
545,2	0,002
545,7	0,002
546,1	0,002
546,5	0,002
547	0,002
547,4	0,002
547,9	0,002
548,3	0,002
548,8	0,002
549,2	0,002
549,7	0,001
550,1	0,001
550,6	0,001
551	-0
551,5	-0,001
551,9	-0,001
552,4	-0,001
552,8	0
553,3	-0
553,7	0
554,2	0,001
554,6	0,001
555,1	0,002
555,5	0,002
555,9	0,001
556,4	0,001
556,8	0,002
557,3	0,001
557,7	0,001
558,2	0,001
558,6	0,001
559,1	0,001
559,5	0,001
560	0,001
560,4	0
560,9	-0
561,3	0
561,8	0
562,2	-0
562,7	0,001
563,1	0
563,6	0,001
564	0,001
564,4	0,002
564,9	0,002
565,3	0,002
565,8	0,002
566,2	0,001
566,7	0,001
567,1	0,001
567,6	0,001
568	0,001
568,5	0,001
568,9	0,001
569,4	0,002
569,8	0,002
570,3	0,002
570,7	0,002
571,1	0,002
571,6	0,002
572	0,002
572,5	0,001
572,9	0,001
573,4	0,001
573,8	0,001
574,3	0,001
574,7	0,001
575,2	0,001
575,6	0,001
576,1	0,001
576,5	0,001
576,9	0,001
577,4	0,001
577,8	0,001
578,3	0,001
578,7	0,001
579,2	0,001
579,6	0,001
580,1	0,001
580,5	0,001
581	0
581,4	0,001
581,9	0,001
582,3	0,001
582,7	0
583,2	0
583,6	0
584,1	0,001
584,5	0
585	0,001
585,4	0,001
585,9	0,002
586,3	0,002
586,8	0,002
587,2	0,002
587,6	0,002
588,1	0,001
588,5	0,002
589	0,001
589,4	0,001
589,9	0,001
590,3	0,001
590,8	0,001
591,2	0,001
591,7	0,001
592,1	0,001
592,5	0,002
593	0,002
593,4	0,002
593,9	0,001
594,3	0,001
594,8	0,001
595,2	0,001
595,7	0
596,1	0
596,6	0
597	0
597,4	0,001
597,9	0
598,3	0
598,8	0
599,2	0
599,7	-0
600,1	-0
600,6	-0
601	0
601,4	0
601,9	0
602,3	0
602,8	0
603,2	0,001
603,7	0,001
604,1	0
604,6	0,001
605	0,001
605,4	0,001
605,9	0,001
606,3	0
606,8	0
607,2	0
607,7	0
608,1	0
608,6	0
609	0,001
609,4	0,001
609,9	0,001
610,3	0,001
610,8	0,001
611,2	0,001
611,7	0,001
612,1	0,001
612,6	0,001
613	0,001
613,4	0,001
613,9	0,001
614,3	0,001
614,8	0
615,2	0,001
615,7	0
616,1	0
616,6	0,001
617	0
617,4	0
617,9	0
618,3	0
618,8	-0
619,2	0
619,7	-0
620,1	-0
620,5	-0
621	-0
621,4	0
621,9	0,001
622,3	0
622,8	0,001
623,2	0
623,6	0
624,1	-0
624,5	-0
625	-0,001
625,4	-0,001
625,9	-0
626,3	-0
626,8	0
627,2	0,001
627,6	0,001
628,1	0,001
628,5	0,001
629	0,001
629,4	0,001
629,9	0,001
630,3	0
630,7	0
631,2	0
631,6	0,001
632,1	0,001
632,5	0,001
633	0,001
633,4	0,001
633,8	0,001
634,3	0,001
634,7	0,001
635,2	0
635,6	0
636,1	-0
636,5	-0
636,9	-0,001
637,4	-0,001
637,8	-0,001
638,3	-0,001
638,7	-0,001
639,2	-0,001
639,6	-0,001
640	0
640,5	0
640,9	0
641,4	0
641,8	0
642,2	-0
642,7	-0
643,1	-0,001
643,6	-0,001
644	-0,001
644,5	-0,001
644,9	-0,001
645,3	-0,001
645,8	-0,001
646,2	-0,001
646,7	-0,001
647,1	-0,001
647,6	-0,001
648	-0
648,4	0
648,9	0
649,3	0,001
649,8	0,001
650,2	0,001
650,6	0,001
651,1	0
651,5	0
652	0
652,4	0
652,9	-0,001
653,3	-0,001
653,7	-0,001
654,2	-0,001
654,6	-0,002
655,1	-0,004
655,5	-0,003
655,9	-0,002
656,4	-0,001
656,8	-0,002
657,3	-0,002
657,7	-0,002
658,2	-0,001
658,6	-0,001
659	-0
659,5	-0
659,9	0,004
660,4	0,006
660,8	0,006
661,2	0,005
661,7	0,004
662,1	0,003
662,6	0,002
663	0,001
663,4	0,001
663,9	0,001
664,3	0,001
664,8	0
665,2	-0
665,6	-0
666,1	-0
666,5	-0
667	-0,001
667,4	-0,001
667,9	-0
668,3	0
668,7	0
669,2	0
669,6	0
670,1	0
670,5	0
670,9	-0
671,4	-0
671,8	-0
672,3	-0
672,7	-0
673,1	-0
673,6	-0,001
674	-0
674,5	-0,001
674,9	-0,001
675,3	-0,001
675,8	-0
676,2	-0
676,7	-0
677,1	-0
677,5	-0
678	0
678,4	0
678,9	0,001
679,3	0,001
679,7	0,001
680,2	0,001
680,6	0,001
681,1	0
681,5	0
681,9	-0
682,4	-0,001
682,8	-0,001
683,3	-0,001
683,7	-0,001
684,1	-0,001
684,6	-0,001
685	-0,001
685,5	-0,001
685,9	-0,001
686,3	-0,001
686,8	-0,001
687,2	-0,001
687,7	-0,001
688,1	-0,001
688,5	-0,001
689	-0,001
689,4	-0,001
689,9	-0
690,3	-0
690,7	0
691,2	0
691,6	0,001
692	0
692,5	0
692,9	-0
693,4	-0
693,8	-0
694,2	-0
694,7	-0
695,1	0
695,6	0
696	0,001
696,4	0,001
696,9	0,001
697,3	0,001
697,8	0
698,2	-0
698,6	-0
699,1	-0
699,5	-0
699,9	-0
700,4	-0
700,8	-0
701,3	-0,001
701,7	-0,001
702,1	-0,001
702,6	-0,001
703	-0,001
703,5	-0
703,9	-0
704,3	-0
704,8	-0
705,2	-0
705,6	-0
706,1	-0,001
706,5	-0,001
707	-0,001
707,4	-0,001
707,8	-0,001
708,3	-0,001
708,7	-0,001
709,2	-0,001
709,6	-0,001
710	-0
710,5	-0
710,9	-0
711,3	-0
711,8	-0
712,2	-0
712,7	0
713,1	0
713,5	0
714	0
714,4	0,001
714,8	0,001
715,3	0
715,7	0
716,2	0
716,6	0
717	0
717,5	0
717,9	0
718,3	0
718,8	0
719,2	0
719,7	0
720,1	-0
720,5	-0
721	-0
721,4	-0,001
721,8	-0
722,3	-0
722,7	-0
723,2	0
723,6	-0
724	-0
724,5	-0
724,9	-0
725,3	0
725,8	0
726,2	0
726,7	0
727,1	0,001
727,5	0,001
728	0,001
728,4	0,001
728,8	0,001
729,3	0,001
729,7	0,001
730,1	0
730,6	0
731	0
731,5	-0
731,9	-0,001
732,3	-0
732,8	-0,001
733,2	-0,001
733,6	-0,001
734,1	-0,001
734,5	-0,001
734,9	-0,001
735,4	-0,001
735,8	-0,001
736,3	-0,001
736,7	-0,001
737,1	-0,001
737,6	-0,001
738	-0
738,4	0
738,9	0
739,3	0
739,7	0
740,2	0
740,6	-0
741,1	-0,001
741,5	-0,001
741,9	-0,001
742,4	-0,001
742,8	-0,001
743,2	-0
743,7	-0
744,1	0
744,5	0
745	0
745,4	0,001
745,8	0,001
746,3	0,001
746,7	0
747,2	0
747,6	0
748	0
748,5	-0
748,9	-0,001
749,3	-0,001
749,8	-0
750,2	-0,001
750,6	-0,001
751,1	-0,001
751,5	-0,002
751,9	-0,002
752,4	-0,002
752,8	-0,002
753,3	-0,002
753,7	-0,002
754,1	-0,002
754,6	-0,001
755	-0,001
755,4	-0,001
755,9	-0
756,3	0
756,7	0,001
757,2	0,001
757,6	0,001
758	0,001
758,5	0,001
758,9	0,001
759,3	0,001
759,8	0,001
760,2	0,001
760,6	0,001
761,1	0,001
761,5	0
761,9	0
762,4	-0
762,8	-0
763,3	0
763,7	0
764,1	0
764,6	0
765	0
765,4	0
765,9	-0
766,3	-0
766,7	-0
767,2	-0
767,6	-0
768	-0
768,5	-0
768,9	-0,001
769,3	-0,001
769,8	-0,001
770,2	-0,001
770,6	-0,002
771,1	-0,002
771,5	-0,002
771,9	-0,002
772,4	-0,002
772,8	-0,002
773,2	-0,002
773,7	-0,001
774,1	-0,001
774,5	-0,001
775	-0,001
775,4	-0,001
775,8	-0,001
776,3	-0,001
776,7	-0,001
777,1	-0,001
777,6	-0,001
778	-0,001
778,4	-0,001
778,9	-0,001
779,3	-0
779,7	-0
780,2	-0
780,6	-0
781	-0,001
781,5	-0,001
781,9	-0,001
782,3	-0,001
782,8	-0,001
783,2	-0,001
783,6	-0,001
784,1	-0,001
784,5	-0,001
784,9	-0,001
785,4	-0,001
785,8	-0
786,2	-0
786,7	-0
787,1	-0
787,5	-0,001
788	-0,001
788,4	-0,001
788,8	-0,001
789,3	-0,001
789,7	-0,001
790,1	-0,001
790,6	-0,001
791	-0,001
791,4	-0,001
791,9	-0,001
792,3	-0
792,7	-0
793,2	-0
793,6	-0
794	-0
794,5	0
794,9	0
795,3	0
795,8	0
796,2	0,001
796,6	0,001
797,1	0,001
797,5	0
797,9	0,001
798,4	0
798,8	0,001
799,2	0
799,7	-0
800,1	-0,001
800,5	0
801	0
801,4	0
801,8	0
802,2	0
802,7	0,001
803,1	0,001
803,5	0,001
804	0
804,4	0
804,8	0
805,3	0
805,7	0
806,1	0
806,6	-0
807	-0
807,4	-0
807,9	-0
808,3	-0
808,7	-0
809,2	-0
809,6	-0
810	-0
810,4	-0
810,9	-0
811,3	-0
811,7	-0
812,2	-0
812,6	-0
813	-0
813,5	-0
813,9	-0
814,3	-0
814,8	-0
815,2	-0
815,6	-0
816,1	-0
816,5	-0
816,9	-0
817,3	-0
817,8	0
818,2	0
818,6	0
819,1	0
819,5	0
819,9	0
820,4	0
820,8	-0
821,2	-0
821,7	-0
822,1	-0,001
822,5	-0
822,9	0
823,4	0
823,8	0,001
824,2	0,001
824,7	0,001
825,1	0,001
825,5	0,001
826	0,001
826,4	0
826,8	-0
827,3	-0
827,7	-0,001
828,1	-0,001
828,5	-0,001
829	-0,001
829,4	-0,001
829,8	-0,001
830,3	-0,001
830,7	-0,001
831,1	-0,001
831,6	-0,001
832	-0,001
832,4	-0,001
832,8	-0,001
833,3	-0,001
833,7	-0,001
834,1	-0,001
834,6	-0,001
835	-0,001
835,4	-0,001
835,8	-0,001
836,3	-0,001
836,7	-0,001
837,1	-0
837,6	-0
838	0
838,4	0
838,9	0
839,3	-0
839,7	-0
840,1	-0,001
840,6	-0,001
841	-0,001
841,4	-0,001
841,9	-0,001
842,3	-0,001
842,7	-0,001
843,1	-0,001
843,6	-0,001
844	-0,001
844,4	-0,001
844,9	-0,001
845,3	-0,001
845,7	-0,001
846,2	-0,001
846,6	-0,001
847	-0,001
847,4	-0,001
847,9	-0,001
848,3	-0,001
848,7	-0,001
849,2	-0,001
849,6	-0,001
850	-0,001
850,4	-0,001
850,9	-0,001
851,3	-0,001
851,7	-0
852,2	-0
852,6	0
853	-0
853,4	-0
853,9	0
854,3	-0
854,7	-0
855,2	-0
855,6	-0,001
856	-0,001
856,4	-0
856,9	-0,001
857,3	-0,001
857,7	-0,001
858,2	-0,001
858,6	-0,001
859	-0,001
859,4	-0,001
859,9	-0,001
860,3	-0,001
860,7	-0,001
861,1	-0,001
861,6	-0
862	-0
862,4	-0
862,9	-0,001
863,3	-0,001
863,7	-0,001
864,1	-0,001
864,6	-0,002
865	-0,002
865,4	-0,002
865,9	-0,002
866,3	-0,002
866,7	-0,002
867,1	-0,001
867,6	-0,001
868	-0,001
868,4	-0,001
868,8	-0,001
869,3	-0,001
869,7	-0
870,1	-0,001
870,6	-0,001
871	-0,001
871,4	-0,002
871,8	-0,002
872,3	-0,002
872,7	-0,002
873,1	-0,002
873,5	-0,003
874	-0,003
874,4	-0,003
874,8	-0,002
875,3	-0,002
875,7	-0,002
876,1	-0,002
876,5	-0,002
877	-0,001
877,4	-0,001
877,8	-0,002
878,2	-0,002
878,7	-0,002
879,1	-0,002
879,5	-0,002
879,9	-0,002
880,4	-0,002
880,8	-0,002
881,2	-0,001
881,7	-0,002
882,1	-0,001
882,5	-0,002
882,9	-0,002
883,4	-0,002
883,8	-0,002
884,2	-0,002
884,6	-0,002
885,1	-0,002
885,5	-0,002
885,9	-0,002
886,3	-0,002
886,8	-0,002
887,2	-0,002
887,6	-0,002
888	-0,002
888,5	-0,001
888,9	-0,001
889,3	-0,001
889,8	-0,001
890,2	-0
890,6	0
891	0
891,5	0,001
891,9	0,001
892,3	0,001
892,7	0,001
893,2	0
893,6	0
894	-0
894,4	-0
894,9	-0
895,3	-0,001
895,7	-0,001
896,1	-0,001
896,6	-0,001
897	-0,001
897,4	-0,001
897,8	-0,001
898,3	-0,001
898,7	-0,001
899,1	-0
899,5	-0
900	-0
900,4	0
900,8	-0
901,2	-0
901,7	-0,001
902,1	-0,001
902,5	-0,001
902,9	-0,002
903,4	-0,002
903,8	-0,001
904,2	-0,001
904,6	-0,002
905,1	-0,001
905,5	-0,001
905,9	-0
906,3	-0
906,8	-0
907,2	-0
907,6	0
908	0
908,5	0
908,9	0
909,3	0,001
909,7	0,001
910,2	0,001
910,6	0,001
911	0,001
911,4	0,002
911,9	0,002
912,3	0,002
912,7	0,002
913,1	0,002
913,6	0,003
914	0,003
914,4	0,002
914,8	0,002
915,3	0,002
915,7	0,002
916,1	0,001
916,5	0,001
916,9	0,001
917,4	0
917,8	0
918,2	0
918,6	0
919,1	0
919,5	0
919,9	-0
920,3	0
920,8	0
921,2	0
921,6	-0
922	0
922,5	0
922,9	0
923,3	-0
923,7	0
924,2	0
924,6	0
925	0
925,4	0,001
925,8	0,001
926,3	0,001
926,7	0,001
927,1	0,001
927,5	0,001
928	0
928,4	-0
928,8	-0
929,2	-0
929,7	-0,001
930,1	-0,001
930,5	-0,001
930,9	-0,001
931,3	-0,001
931,8	-0,001
932,2	-0,002
932,6	-0,001
933	-0,001
933,5	-0,002
933,9	-0,002
934,3	-0,002
934,7	-0,002
935,2	-0,002
935,6	-0,002
936	-0,002
936,4	-0,002
936,8	-0,002
937,3	-0,002
937,7	-0,002
938,1	-0,001
938,5	-0,002
939	-0,003
939,4	-0,002
939,8	-0,001
940,2	-0,002
940,6	-0,001
941,1	-0,001
941,5	-0,001
941,9	-0
942,3	-0,001
942,8	-0,001
943,2	-0,001
943,6	-0,002
944	-0,002
944,4	-0,001
944,9	-0,001
945,3	-0,001
945,7	-0,001
946,1	-0,001
946,6	-0,001
947	-0,001
947,4	-0,002
947,8	-0,002
948,2	-0,003
948,7	-0,003
949,1	-0,003
949,5	-0,004
949,9	-0,004
950,3	-0,004
950,8	-0,004
951,2	-0,004
951,6	-0,004
952	-0,003
952,5	-0,003
952,9	-0,003
953,3	-0,003
953,7	-0,002
954,1	-0,003
954,6	-0,003
955	-0,003
955,4	-0,004
955,8	-0,005
956,2	-0,004
956,7	-0,005
957,1	-0,006
957,5	-0,006
957,9	-0,006
958,3	-0,006
958,8	-0,006
959,2	-0,007
959,6	-0,007
960	-0,008
960,5	-0,008
960,9	-0,008
961,3	-0,008
961,7	-0,008
962,1	-0,008
962,6	-0,008
963	-0,007
963,4	-0,006
963,8	-0,006
964,2	-0,006
964,7	-0,006
965,1	-0,005
965,5	-0,005
965,9	-0,005
966,3	-0,005
966,8	-0,005
967,2	-0,004
967,6	-0,004
968	-0,004
968,4	-0,003
968,9	-0,004
969,3	-0,004
969,7	-0,003
970,1	-0,003
970,5	-0,002
971	-0,002
971,4	-0,003
971,8	-0,003
972,2	-0,003
972,6	-0,003
973,1	-0,004
973,5	-0,005
973,9	-0,005
974,3	-0,005
974,7	-0,005
975,2	-0,004
975,6	-0,005
976	-0,004
976,4	-0,003
976,8	-0,004
977,3	-0,004
977,7	-0,004
978,1	-0,005
978,5	-0,005
978,9	-0,005
979,4	-0,006
979,8	-0,006
980,2	-0,006
980,6	-0,006
981	-0,006
981,5	-0,006
981,9	-0,006
982,3	-0,005
982,7	-0,005
983,1	-0,005
983,6	-0,005
984	-0,004
984,4	-0,004
984,8	-0,005
985,2	-0,005
985,6	-0,005
986,1	-0,005
986,5	-0,005
986,9	-0,005
987,3	-0,005
987,7	-0,004
988,2	-0,003
988,6	-0,003
989	-0,003
989,4	-0,003
989,8	-0,002
990,3	-0,002
990,7	-0,002
991,1	-0,002
991,5	-0,002
991,9	-0,002
992,3	-0,002
992,8	-0,002
993,2	-0,002
993,6	-0,003
994	-0,003
994,4	-0,003
994,9	-0,003
995,3	-0,004
995,7	-0,004
996,1	-0,004
996,5	-0,004
996,9	-0,003
997,4	-0,003
997,8	-0,004
998,2	-0,004
998,6	-0,004
999	-0,003
999,5	-0,002
999,9	-0,003
1000,3	-0,003
1000,7	-0,003
1001,1	-0,002
1001,5	-0,002
1002	-0,002
1002,4	-0,002
1002,8	-0,002
1003,2	-0,001
1003,6	-0,001
1004	-0
1004,5	-0
1004,9	-0
1005,3	0,001
1005,7	0
1006,1	-0
1006,6	-0,001
1007	-0,002
1007,4	-0,002
1007,8	-0,002
1008,2	-0,002
1008,6	-0,002
1009,1	-0,001
1009,5	-0,001
1009,9	-0,001
1010,3	-0
1010,7	-0,001
1011,1	-0,001
1011,6	0
1012	0
1012,4	0,001
1012,8	0,001
1013,2	0,001
1013,6	0,001
1014,1	0,001
1014,5	0
1014,9	-0
1015,3	-0,001
1015,7	-0,001
1016,1	-0,001
1016,6	-0,001
1017	-0,002
1017,4	-0,001
1017,8	-0,001
1018,2	-0,001
1018,6	-0,001
1019,1	-0,001
1019,5	-0
1019,9	-0
1020,3	-0
1020,7	-0
1021,1	-0,001
1021,6	-0
1022	-0
1022,4	-0
1022,8	0
1023,2	0,001
1023,6	0,001
1024,1	0,002
1024,5	0,002
1024,9	0,001
1025,3	0,001
1025,7	-0
1026,1	-0,001
1026,6	-0,001
1027	-0,002
1027,4	-0,002
1027,8	-0,002
1028,2	-0,001
1028,6	-0,001
1029	-0
1029,5	0
1029,9	0
1030,3	0
1030,7	0
1031,1	-0,001
1031,5	-0
1032	-0,001
1032,4	-0
1032,8	-0,001
1033,2	-0,001
1033,6	-0
1034	-0,001
1034,4	-0,001
1034,9	-0,002
1035,3	-0,003
1035,7	-0,003
1036,1	-0,003
1036,5	-0,004
1036,9	-0,003
1037,4	-0,002
1037,8	-0,002
1038,2	-0,001
1038,6	-0,001
1039	-0,001
1039,4	-0
1039,8	-0
1040,3	-0,001
1040,7	-0,001
1041,1	-0,001
1041,5	-0
1041,9	0,001
1042,3	0
1042,7	0,001
1043,2	0
1043,6	0,001
1044	0
1044,4	-0,001
1044,8	-0,002
1045,2	-0,003
1045,6	-0,003
1046,1	-0,002
1046,5	-0,001
1046,9	-0,002
1047,3	-0,001
1047,7	-0,001
1048,1	-0,001
1048,5	-0,001
1049	-0,002
1049,4	-0,003
1049,8	-0,002
1050,2	-0,003
1050,6	-0,003
1051	-0,003
1051,4	-0,002
1051,9	-0,001
1052,3	-0,001
1052,7	-0,001
1053,1	-0
1053,5	-0
1053,9	0,001
1054,3	0,001
1054,8	0
1055,2	0
1055,6	-0
1056	-0,001
1056,4	0
1056,8	0
1057,2	0
1057,6	-0
1058,1	-0
1058,5	0
1058,9	0
1059,3	0,001
1059,7	0
1060,1	0
1060,5	0,001
1061	0
1061,4	-0
1061,8	-0
1062,2	-0,001
1062,6	-0
1063	0
1063,4	-0
1063,8	0,001
1064,3	0
1064,7	0
1065,1	0
1065,5	0
1065,9	-0
1066,3	0
1066,7	-0
1067,1	0,001
1067,6	0,001
1068	0,001
1068,4	0,001
1068,8	-0
1069,2	-0,001
1069,6	-0,001
1070	-0,002
1070,4	-0,003
1070,9	-0,004
1071,3	-0,004
1071,7	-0,004
1072,1	-0,004
1072,5	-0,004
1072,9	-0,003
1073,3	-0,003
1073,7	-0,002
1074,2	-0,002
1074,6	-0,003
1075	-0,002
1075,4	-0,003
1075,8	-0,004
1076,2	-0,004
1076,6	-0,005
1077	-0,006
1077,5	-0,005
1077,9	-0,007
1078,3	-0,007
1078,7	-0,007
1079,1	-0,006
1079,5	-0,006
1079,9	-0,003
1080,3	-0,004
1080,7	-0,002
1081,2	-0,001
1081,6	-0,001
1082	-0,003
1082,4	-0,004
1082,8	-0,006
1083,2	-0,007
1083,6	-0,007
1084	-0,008
1084,5	-0,009
1084,9	-0,008
1085,3	-0,008
1085,7	-0,007
1086,1	-0,007
1086,5	-0,006
1086,9	-0,006
1087,3	-0,005
1087,7	-0,006
1088,2	-0,005
1088,6	-0,006
1089	-0,006
1089,4	-0,006
1089,8	-0,005
1090,2	-0,007
1090,6	-0,007
1091	-0,008
1091,4	-0,008
1091,9	-0,008
1092,3	-0,01
1092,7	-0,012
1093,1	-0,009
1093,5	-0,004
1093,9	-0,006
1094,3	-0,007
1094,7	-0,008
1095,1	-0,005
1095,5	-0,006
1096	-0,006
1096,4	-0,01
1096,8	-0,003
1097,2	-0,005
1097,6	-0,007
1098	-0,009
1098,4	-0,007
1098,8	-0,013
1099,2	-0,018
1099,6	-0,026
1100,1	-0,026
1100,5	-0,023
1100,9	-0,019
1101,3	-0,012
1101,7	-0,014
1102,1	-0,008
1102,5	-0,011
1102,9	-0,016
1103,3	-0,017
1103,7	-0,026
1104,2	-0,04
1104,6	-0,042
1105	-0,06
1105,4	-0,053
1105,8	-0,049
1106,2	-0,051
1106,6	-0,057
1107	-0,07
1107,4	-0,067
1107,8	0,055
1108,3	0,132
