Data from Absorbance_00033.txt Node
Date: Wed Aug 02 14:20:13 MSK 2023
User: vat
Spectrometer: MAYP114033
Trigger mode: 0
Integration Time (sec): 8,000000E-3
Scans to average: 10
Electric dark correction enabled: true
Nonlinearity correction enabled: false
Boxcar width: 3
XAxis mode: Wavelengths
Number of Pixels in Spectrum: 2068
>>>>>Begin Spectral Data<<<<<
199,4	-0,915
199,9	-0,255
200,4	0,092
200,8	0,488
201,3	0,703
201,8	0,763
202,2	0,813
202,7	0,862
203,2	0,93
203,6	0,982
204,1	1,003
204,6	1,008
205	1,021
205,5	1,029
206	1,034
206,4	1,042
206,9	1,07
207,4	1,088
207,8	1,105
208,3	1,129
208,8	1,146
209,2	1,164
209,7	1,172
210,2	1,168
210,6	1,202
211,1	1,214
211,5	1,252
212	1,269
212,5	1,291
212,9	1,316
213,4	1,336
213,9	1,336
214,3	1,346
214,8	1,332
215,3	1,336
215,7	1,339
216,2	1,348
216,7	1,354
217,1	1,364
217,6	1,375
218,1	1,408
218,5	1,429
219	1,442
219,5	1,442
219,9	1,478
220,4	1,503
220,9	1,519
221,3	1,527
221,8	1,539
222,3	1,565
222,7	1,62
223,2	1,626
223,6	1,632
224,1	1,669
224,6	1,668
225	1,688
225,5	1,691
226	1,689
226,4	1,692
226,9	1,71
227,4	1,712
227,8	1,729
228,3	1,743
228,8	1,774
229,2	1,776
229,7	1,796
230,2	1,814
230,6	1,835
231,1	1,858
231,5	1,879
232	1,881
232,5	1,877
232,9	1,871
233,4	1,874
233,9	1,873
234,3	1,883
234,8	1,883
235,3	1,888
235,7	1,909
236,2	1,935
236,7	1,949
237,1	1,946
237,6	1,95
238,1	1,957
238,5	1,97
239	1,976
239,4	1,978
239,9	1,98
240,4	1,998
240,8	1,999
241,3	2
241,8	1,989
242,2	1,992
242,7	1,995
243,2	1,991
243,6	1,988
244,1	1,992
244,6	1,999
245	2,016
245,5	2,017
245,9	2,027
246,4	2,025
246,9	2,041
247,3	2,051
247,8	2,062
248,3	2,062
248,7	2,052
249,2	2,039
249,7	2,064
250,1	2,048
250,6	2,062
251	2,052
251,5	2,044
252	2,059
252,4	2,07
252,9	2,064
253,4	2,068
253,8	2,073
254,3	2,061
254,8	2,072
255,2	2,076
255,7	2,09
256,1	2,098
256,6	2,117
257,1	2,1
257,5	2,12
258	2,141
258,5	2,133
258,9	2,117
259,4	2,1
259,9	2,094
260,3	2,084
260,8	2,105
261,2	2,085
261,7	2,1
262,2	2,092
262,6	2,106
263,1	2,095
263,6	2,109
264	2,098
264,5	2,1
264,9	2,076
265,4	2,082
265,9	2,079
266,3	2,079
266,8	2,066
267,3	2,053
267,7	2,06
268,2	2,088
268,7	2,084
269,1	2,078
269,6	2,092
270	2,111
270,5	2,129
271	2,113
271,4	2,105
271,9	2,121
272,4	2,127
272,8	2,127
273,3	2,115
273,7	2,105
274,2	2,12
274,7	2,119
275,1	2,132
275,6	2,138
276,1	2,132
276,5	2,145
277	2,15
277,4	2,16
277,9	2,178
278,4	2,187
278,8	2,191
279,3	2,202
279,8	2,204
280,2	2,202
280,7	2,176
281,1	2,18
281,6	2,179
282,1	2,175
282,5	2,169
283	2,158
283,4	2,166
283,9	2,179
284,4	2,172
284,8	2,157
285,3	2,162
285,8	2,169
286,2	2,171
286,7	2,162
287,1	2,148
287,6	2,135
288,1	2,132
288,5	2,134
289	2,107
289,5	2,098
289,9	2,077
290,4	2,057
290,8	2,049
291,3	2,03
291,8	1,996
292,2	1,992
292,7	1,969
293,1	1,965
293,6	1,969
294,1	1,942
294,5	1,939
295	1,934
295,5	1,921
295,9	1,914
296,4	1,914
296,8	1,895
297,3	1,893
297,8	1,874
298,2	1,859
298,7	1,852
299,1	1,843
299,6	1,832
300,1	1,836
300,5	1,833
301	1,827
301,5	1,831
301,9	1,832
302,4	1,828
302,8	1,82
303,3	1,805
303,8	1,799
304,2	1,794
304,7	1,786
305,1	1,774
305,6	1,763
306,1	1,75
306,5	1,744
307	1,727
307,4	1,717
307,9	1,702
308,4	1,687
308,8	1,682
309,3	1,674
309,8	1,661
310,2	1,656
310,7	1,645
311,1	1,634
311,6	1,626
312,1	1,608
312,5	1,593
313	1,581
313,4	1,569
313,9	1,555
314,4	1,542
314,8	1,527
315,3	1,513
315,7	1,5
316,2	1,486
316,7	1,471
317,1	1,457
317,6	1,446
318	1,434
318,5	1,423
319	1,41
319,4	1,397
319,9	1,383
320,3	1,37
320,8	1,355
321,3	1,341
321,7	1,327
322,2	1,313
322,6	1,299
323,1	1,283
323,6	1,271
324	1,258
324,5	1,245
324,9	1,23
325,4	1,217
325,9	1,201
326,3	1,189
326,8	1,176
327,2	1,16
327,7	1,144
328,2	1,129
328,6	1,115
329,1	1,101
329,5	1,085
330	1,069
330,5	1,055
330,9	1,04
331,4	1,026
331,8	1,01
332,3	0,994
332,8	0,982
333,2	0,968
333,7	0,952
334,1	0,938
334,6	0,923
335,1	0,91
335,5	0,896
336	0,881
336,4	0,867
336,9	0,853
337,4	0,84
337,8	0,826
338,3	0,811
338,7	0,797
339,2	0,784
339,7	0,771
340,1	0,758
340,6	0,744
341	0,731
341,5	0,719
342	0,706
342,4	0,694
342,9	0,682
343,3	0,67
343,8	0,659
344,2	0,647
344,7	0,636
345,2	0,625
345,6	0,614
346,1	0,602
346,5	0,591
347	0,58
347,5	0,569
347,9	0,56
348,4	0,549
348,8	0,539
349,3	0,529
349,8	0,52
350,2	0,51
350,7	0,501
351,1	0,492
351,6	0,483
352	0,474
352,5	0,465
353	0,457
353,4	0,448
353,9	0,439
354,3	0,43
354,8	0,423
355,3	0,415
355,7	0,407
356,2	0,4
356,6	0,393
357,1	0,386
357,5	0,38
358	0,373
358,5	0,366
358,9	0,36
359,4	0,353
359,8	0,347
360,3	0,34
360,8	0,334
361,2	0,328
361,7	0,322
362,1	0,317
362,6	0,311
363	0,305
363,5	0,3
364	0,295
364,4	0,289
364,9	0,283
365,3	0,278
365,8	0,274
366,3	0,269
366,7	0,265
367,2	0,261
367,6	0,258
368,1	0,254
368,5	0,25
369	0,246
369,5	0,242
369,9	0,238
370,4	0,234
370,8	0,229
371,3	0,225
371,7	0,222
372,2	0,218
372,7	0,214
373,1	0,211
373,6	0,207
374	0,205
374,5	0,203
374,9	0,199
375,4	0,197
375,9	0,195
376,3	0,192
376,8	0,189
377,2	0,187
377,7	0,184
378,2	0,181
378,6	0,178
379,1	0,175
379,5	0,173
380	0,171
380,4	0,169
380,9	0,166
381,4	0,164
381,8	0,161
382,3	0,158
382,7	0,156
383,2	0,154
383,6	0,151
384,1	0,149
384,6	0,147
385	0,145
385,5	0,143
385,9	0,141
386,4	0,138
386,8	0,136
387,3	0,135
387,7	0,133
388,2	0,132
388,7	0,129
389,1	0,128
389,6	0,126
390	0,125
390,5	0,122
390,9	0,12
391,4	0,117
391,9	0,116
392,3	0,114
392,8	0,111
393,2	0,11
393,7	0,108
394,1	0,107
394,6	0,106
395,1	0,104
395,5	0,104
396	0,103
396,4	0,101
396,9	0,099
397,3	0,099
397,8	0,098
398,2	0,096
398,7	0,095
399,2	0,093
399,6	0,091
400,1	0,09
400,5	0,089
401	0,087
401,4	0,085
401,9	0,084
402,4	0,082
402,8	0,081
403,3	0,079
403,7	0,078
404,2	0,077
404,6	0,076
405,1	0,074
405,5	0,074
406	0,073
406,5	0,072
406,9	0,07
407,4	0,069
407,8	0,068
408,3	0,067
408,7	0,065
409,2	0,064
409,6	0,062
410,1	0,061
410,6	0,06
411	0,058
411,5	0,057
411,9	0,056
412,4	0,055
412,8	0,054
413,3	0,052
413,7	0,052
414,2	0,051
414,7	0,05
415,1	0,049
415,6	0,049
416	0,048
416,5	0,047
416,9	0,045
417,4	0,044
417,8	0,043
418,3	0,041
418,8	0,04
419,2	0,039
419,7	0,038
420,1	0,037
420,6	0,036
421	0,036
421,5	0,035
421,9	0,034
422,4	0,033
422,8	0,032
423,3	0,032
423,8	0,031
424,2	0,03
424,7	0,03
425,1	0,029
425,6	0,028
426	0,027
426,5	0,026
426,9	0,025
427,4	0,024
427,9	0,024
428,3	0,024
428,8	0,023
429,2	0,023
429,7	0,022
430,1	0,022
430,6	0,022
431	0,021
431,5	0,02
431,9	0,02
432,4	0,019
432,8	0,018
433,3	0,017
433,8	0,015
434,2	0,015
434,7	0,014
435,1	0,014
435,6	0,013
436	0,013
436,5	0,012
436,9	0,013
437,4	0,012
437,8	0,012
438,3	0,011
438,8	0,01
439,2	0,01
439,7	0,01
440,1	0,01
440,6	0,009
441	0,008
441,5	0,008
441,9	0,008
442,4	0,008
442,8	0,007
443,3	0,006
443,7	0,006
444,2	0,007
444,7	0,006
445,1	0,006
445,6	0,006
446	0,006
446,5	0,006
446,9	0,006
447,4	0,006
447,8	0,005
448,3	0,005
448,7	0,004
449,2	0,004
449,6	0,004
450,1	0,003
450,6	0,003
451	0,003
451,5	0,003
451,9	0,003
452,4	0,002
452,8	0,002
453,3	0,003
453,7	0,004
454,2	0,004
454,6	0,004
455,1	0,004
455,5	0,004
456	0,004
456,4	0,002
456,9	0,002
457,3	0,001
457,8	0,001
458,3	0,001
458,7	0,001
459,2	0,001
459,6	0,001
460,1	0,002
460,5	0,001
461	0,001
461,4	0,001
461,9	0,001
462,3	0
462,8	0
463,2	-0
463,7	-0,001
464,1	-0,001
464,6	-0,001
465	-0,001
465,5	-0,001
466	-0,001
466,4	-0,001
466,9	-0,001
467,3	-0,001
467,8	-0,001
468,2	-0,001
468,7	-0,001
469,1	-0
469,6	-0
470	-0
470,5	-0,001
470,9	-0
471,4	-0,001
471,8	-0,001
472,3	-0,001
472,7	-0,001
473,2	-0,002
473,6	-0,002
474,1	-0,002
474,5	-0,001
475	-0,001
475,4	-0,002
475,9	-0,002
476,4	-0,002
476,8	-0,002
477,3	-0,002
477,7	-0,002
478,2	-0,002
478,6	-0,001
479,1	-0,001
479,5	-0
480	-0
480,4	-0
480,9	0
481,3	-0,001
481,8	-0,002
482,2	-0,003
482,7	-0,003
483,1	-0,003
483,6	-0,003
484	-0,004
484,5	-0,004
484,9	-0,003
485,4	-0,004
485,8	-0,003
486,3	0
486,7	-0
487,2	-0,001
487,6	-0,001
488,1	-0,001
488,5	-0
489	-0
489,4	-0,005
489,9	-0,004
490,4	-0,002
490,8	-0,001
491,3	0
491,7	0,001
492,2	0,002
492,6	0,002
493,1	0,002
493,5	0,001
494	0,001
494,4	0
494,9	0
495,3	0,001
495,8	0
496,2	0
496,7	0,001
497,1	0,001
497,6	0,001
498	0
498,5	-0
498,9	0
499,4	-0
499,8	-0,001
500,3	-0,002
500,7	-0,002
501,2	-0,002
501,6	-0,002
502,1	-0,003
502,5	-0,002
503	-0,003
503,4	-0,001
503,9	-0,001
504,3	-0,001
504,8	-0,001
505,2	-0
505,7	-0,001
506,1	-0
506,6	-0,001
507	-0,001
507,5	-0,001
507,9	-0,002
508,4	-0,002
508,8	-0,002
509,3	-0,002
509,7	-0,002
510,2	-0,002
510,6	-0,001
511,1	-0
511,5	-0,001
512	-0,001
512,4	-0,001
512,9	-0,001
513,3	-0,001
513,8	-0,001
514,2	-0,001
514,7	-0,001
515,1	-0,001
515,6	-0,001
516	-0
516,5	-0
516,9	-0,001
517,4	-0,001
517,8	-0,001
518,3	-0,001
518,7	-0
519,2	0
519,6	0,001
520,1	0,001
520,5	0,001
521	0
521,4	0,001
521,9	0,001
522,3	-0
522,8	-0,001
523,2	-0,001
523,7	-0,001
524,1	-0,001
524,6	-0,001
525	-0,002
525,5	-0,002
525,9	-0,001
526,4	-0,002
526,8	-0,001
527,3	-0,002
527,7	-0,001
528,2	-0,001
528,6	-0
529,1	-0
529,5	0
530	0,001
530,4	0,001
530,9	0
531,3	0,001
531,8	-0
532,2	-0
532,6	-0
533,1	-0,001
533,5	-0,001
534	-0,001
534,4	-0,001
534,9	-0,002
535,3	-0,002
535,8	-0,002
536,2	-0,002
536,7	-0,002
537,1	-0,003
537,6	-0,003
538	-0,002
538,5	-0,002
538,9	-0,002
539,4	-0,003
539,8	-0,003
540,3	-0,003
540,7	-0,002
541,2	-0,002
541,6	-0,002
542,1	-0,002
542,5	-0,001
543	-0,001
543,4	-0,001
543,9	-0,002
544,3	-0,002
544,8	-0,002
545,2	-0,002
545,7	-0,002
546,1	-0,002
546,5	-0,001
547	-0,001
547,4	-0,001
547,9	-0
548,3	-0
548,8	-0
549,2	-0
549,7	-0,001
550,1	-0,001
550,6	-0,002
551	-0,002
551,5	-0,003
551,9	-0,003
552,4	-0,003
552,8	-0,002
553,3	-0,002
553,7	-0,002
554,2	-0,002
554,6	-0,001
555,1	-0,001
555,5	-0,001
555,9	-0,001
556,4	-0,001
556,8	-0,001
557,3	-0,001
557,7	-0,001
558,2	-0
558,6	-0,001
559,1	-0,001
559,5	-0,001
560	-0,001
560,4	-0,001
560,9	-0,002
561,3	-0,002
561,8	-0,002
562,2	-0,002
562,7	-0,002
563,1	-0,002
563,6	-0,001
564	-0,001
564,4	-0,001
564,9	-0,001
565,3	-0
565,8	-0,001
566,2	-0,001
566,7	-0,001
567,1	-0,001
567,6	-0,002
568	-0,002
568,5	-0,002
568,9	-0,002
569,4	-0,001
569,8	-0,001
570,3	-0,001
570,7	-0,001
571,1	-0,001
571,6	-0,001
572	-0
572,5	-0,001
572,9	-0,002
573,4	-0,001
573,8	-0,001
574,3	-0,001
574,7	-0,001
575,2	-0,001
575,6	-0,001
576,1	-0
576,5	-0,001
576,9	-0,001
577,4	-0,001
577,8	-0,001
578,3	-0,001
578,7	-0,001
579,2	-0,001
579,6	-0,001
580,1	-0,001
580,5	-0,001
581	-0,002
581,4	-0,001
581,9	-0
582,3	-0
582,7	-0,001
583,2	-0,002
583,6	-0,002
584,1	-0,001
584,5	-0,002
585	-0,002
585,4	-0,001
585,9	-0
586,3	0
586,8	0,001
587,2	0
587,6	-0
588,1	-0
588,5	0
589	-0
589,4	-0
589,9	-0
590,3	-0
590,8	-0
591,2	-0
591,7	-0
592,1	-0
592,5	0,001
593	0,001
593,4	-0
593,9	-0
594,3	-0
594,8	-0
595,2	-0
595,7	-0,001
596,1	-0,001
596,6	-0,001
597	-0
597,4	0
597,9	-0,001
598,3	-0,001
598,8	-0
599,2	-0,001
599,7	-0,001
600,1	-0,001
600,6	-0,001
601	-0,001
601,4	-0,001
601,9	-0,001
602,3	-0,001
602,8	-0,001
603,2	-0
603,7	-0,001
604,1	-0,001
604,6	-0,001
605	-0,001
605,4	-0
605,9	-0
606,3	-0,001
606,8	-0
607,2	0
607,7	0
608,1	0
608,6	0
609	0
609,4	0
609,9	0
610,3	0
610,8	-0
611,2	-0
611,7	-0
612,1	-0
612,6	-0
613	-0,001
613,4	-0,001
613,9	-0
614,3	-0
614,8	-0,001
615,2	-0
615,7	-0
616,1	-0,001
616,6	-0
617	-0,001
617,4	-0,001
617,9	-0
618,3	-0,001
618,8	-0,001
619,2	-0
619,7	0
620,1	0
620,5	-0
621	-0,001
621,4	-0
621,9	0
622,3	-0
622,8	-0
623,2	-0,001
623,6	-0,001
624,1	-0
624,5	-0,001
625	-0,001
625,4	-0,001
625,9	-0,001
626,3	-0,001
626,8	-0,001
627,2	-0,001
627,6	-0,001
628,1	-0
628,5	-0
629	-0,001
629,4	-0,001
629,9	-0,001
630,3	-0,001
630,7	-0
631,2	-0,001
631,6	-0
632,1	-0,001
632,5	-0,001
633	0
633,4	0
633,8	0
634,3	-0
634,7	0
635,2	0
635,6	-0
636,1	-0,001
636,5	-0,001
636,9	-0,001
637,4	-0,001
637,8	-0,002
638,3	-0,002
638,7	-0,002
639,2	-0,002
639,6	-0,002
640	-0,002
640,5	-0,002
640,9	-0,002
641,4	-0,002
641,8	-0,002
642,2	-0,003
642,7	-0,003
643,1	-0,003
643,6	-0,003
644	-0,003
644,5	-0,002
644,9	-0,002
645,3	-0,002
645,8	-0,002
646,2	-0,002
646,7	-0,002
647,1	-0,001
647,6	-0,001
648	-0,001
648,4	-0,001
648,9	-0,001
649,3	-0
649,8	-0
650,2	-0
650,6	-0
651,1	-0,001
651,5	-0,001
652	-0,001
652,4	-0,002
652,9	-0,002
653,3	-0,003
653,7	-0,003
654,2	-0,004
654,6	-0,006
655,1	-0,01
655,5	-0,006
655,9	-0,004
656,4	-0,003
656,8	-0,004
657,3	-0,004
657,7	-0,003
658,2	-0,001
658,6	-0
659	0,001
659,5	0,002
659,9	0,011
660,4	0,013
660,8	0,012
661,2	0,01
661,7	0,008
662,1	0,006
662,6	0,005
663	0,003
663,4	0,002
663,9	0,002
664,3	0,001
664,8	0,001
665,2	0,001
665,6	0
666,1	0
666,5	0
667	-0
667,4	-0,001
667,9	-0,001
668,3	-0,001
668,7	-0,001
669,2	-0,001
669,6	-0,001
670,1	-0,002
670,5	-0,002
670,9	-0,002
671,4	-0,002
671,8	-0,002
672,3	-0,002
672,7	-0,002
673,1	-0,002
673,6	-0,002
674	-0,002
674,5	-0,002
674,9	-0,002
675,3	-0,002
675,8	-0,001
676,2	-0,001
676,7	-0
677,1	-0,001
677,5	-0,001
678	-0,001
678,4	-0,001
678,9	-0,001
679,3	-0,001
679,7	-0,001
680,2	-0,001
680,6	-0,001
681,1	-0,001
681,5	-0,001
681,9	-0,001
682,4	-0,002
682,8	-0,002
683,3	-0,002
683,7	-0,002
684,1	-0,002
684,6	-0,002
685	-0,002
685,5	-0,002
685,9	-0,002
686,3	-0,002
686,8	-0,002
687,2	-0,001
687,7	-0,002
688,1	-0,002
688,5	-0,002
689	-0,002
689,4	-0,002
689,9	-0,002
690,3	-0,002
690,7	-0,001
691,2	-0,002
691,6	-0,002
692	-0,002
692,5	-0,002
692,9	-0,002
693,4	-0,002
693,8	-0,003
694,2	-0,003
694,7	-0,002
695,1	-0,001
695,6	-0,002
696	-0,001
696,4	-0,001
696,9	-0,001
697,3	-0,001
697,8	-0,001
698,2	-0,002
698,6	-0,002
699,1	-0,002
699,5	-0,002
699,9	-0,002
700,4	-0,002
700,8	-0,002
701,3	-0,002
701,7	-0,002
702,1	-0,002
702,6	-0,002
703	-0,002
703,5	-0,002
703,9	-0,002
704,3	-0,002
704,8	-0,002
705,2	-0,002
705,6	-0,002
706,1	-0,002
706,5	-0,002
707	-0,003
707,4	-0,002
707,8	-0,002
708,3	-0,002
708,7	-0,002
709,2	-0,002
709,6	-0,001
710	-0,001
710,5	-0,001
710,9	-0,001
711,3	-0,001
711,8	-0,001
712,2	-0,001
712,7	-0,001
713,1	-0,002
713,5	-0,001
714	-0,001
714,4	-0,001
714,8	-0,001
715,3	-0,001
715,7	-0,001
716,2	-0
716,6	-0
717	-0
717,5	-0,001
717,9	-0,001
718,3	-0,001
718,8	-0,001
719,2	-0,001
719,7	-0,001
720,1	-0,001
720,5	-0,001
721	-0,001
721,4	-0,001
721,8	-0,002
722,3	-0,001
722,7	-0,001
723,2	-0,001
723,6	-0,002
724	-0,002
724,5	-0,001
724,9	-0,001
725,3	-0,001
725,8	-0,001
726,2	-0,001
726,7	-0,001
727,1	-0,001
727,5	-0,001
728	-0
728,4	-0,001
728,8	-0,001
729,3	-0,001
729,7	-0
730,1	-0
730,6	-0,001
731	-0,001
731,5	-0,001
731,9	-0,001
732,3	-0,001
732,8	-0,001
733,2	-0,001
733,6	-0,001
734,1	-0,001
734,5	-0,002
734,9	-0,001
735,4	-0,001
735,8	-0,002
736,3	-0,002
736,7	-0,002
737,1	-0,002
737,6	-0,002
738	-0,002
738,4	-0,001
738,9	-0,001
739,3	-0,001
739,7	-0,001
740,2	-0,001
740,6	-0,001
741,1	-0,001
741,5	-0,001
741,9	-0,002
742,4	-0,002
742,8	-0,001
743,2	-0,001
743,7	-0,001
744,1	-0,001
744,5	-0,001
745	-0,001
745,4	-0
745,8	-0
746,3	-0
746,7	-0
747,2	-0
747,6	-0,001
748	-0,001
748,5	-0,002
748,9	-0,002
749,3	-0,002
749,8	-0,002
750,2	-0,002
750,6	-0,003
751,1	-0,003
751,5	-0,003
751,9	-0,003
752,4	-0,003
752,8	-0,003
753,3	-0,003
753,7	-0,003
754,1	-0,003
754,6	-0,003
755	-0,002
755,4	-0,002
755,9	-0,001
756,3	-0,001
756,7	-0,001
757,2	-0
757,6	-0
758	-0,001
758,5	-0
758,9	-0
759,3	-0
759,8	-0
760,2	-0
760,6	-0
761,1	-0
761,5	-0,001
761,9	-0
762,4	-0,001
762,8	-0,001
763,3	-0,001
763,7	-0,001
764,1	-0,001
764,6	-0,001
765	-0,001
765,4	-0,001
765,9	-0,002
766,3	-0,002
766,7	-0,001
767,2	-0,002
767,6	-0,001
768	-0,001
768,5	-0,001
768,9	-0,002
769,3	-0,002
769,8	-0,002
770,2	-0,002
770,6	-0,003
771,1	-0,003
771,5	-0,003
771,9	-0,003
772,4	-0,002
772,8	-0,002
773,2	-0,003
773,7	-0,003
774,1	-0,003
774,5	-0,002
775	-0,002
775,4	-0,002
775,8	-0,002
776,3	-0,002
776,7	-0,002
777,1	-0,002
777,6	-0,002
778	-0,002
778,4	-0,001
778,9	-0,001
779,3	-0,001
779,7	-0,001
780,2	-0,001
780,6	-0,001
781	-0,001
781,5	-0,001
781,9	-0,002
782,3	-0,002
782,8	-0,002
783,2	-0,002
783,6	-0,002
784,1	-0,002
784,5	-0,002
784,9	-0,001
785,4	-0,001
785,8	-0,001
786,2	-0,001
786,7	-0,001
787,1	-0,001
787,5	-0,001
788	-0,001
788,4	-0,001
788,8	-0,002
789,3	-0,002
789,7	-0,002
790,1	-0,001
790,6	-0,001
791	-0,001
791,4	-0,001
791,9	-0,001
792,3	-0,001
792,7	-0,001
793,2	-0,002
793,6	-0,002
794	-0,002
794,5	-0,002
794,9	-0,002
795,3	-0,002
795,8	-0,002
796,2	-0,001
796,6	-0,001
797,1	-0,001
797,5	-0,001
797,9	-0,001
798,4	-0,001
798,8	-0,001
799,2	-0,001
799,7	-0,002
800,1	-0,001
800,5	-0,001
801	-0,001
801,4	-0,001
801,8	-0,002
802,2	-0,002
802,7	-0,001
803,1	-0,002
803,5	-0,002
804	-0,002
804,4	-0,002
804,8	-0,002
805,3	-0,002
805,7	-0,002
806,1	-0,002
806,6	-0,002
807	-0,002
807,4	-0,002
807,9	-0,002
808,3	-0,002
808,7	-0,002
809,2	-0,002
809,6	-0,001
810	-0,002
810,4	-0,001
810,9	-0,002
811,3	-0,002
811,7	-0,002
812,2	-0,002
812,6	-0,001
813	-0,001
813,5	-0,001
813,9	-0,002
814,3	-0,002
814,8	-0,001
815,2	-0,001
815,6	-0,001
816,1	-0,001
816,5	-0,001
816,9	-0,001
817,3	-0,001
817,8	-0
818,2	-0,001
818,6	-0,001
819,1	-0,001
819,5	-0,001
819,9	-0,001
820,4	-0,001
820,8	-0,002
821,2	-0,002
821,7	-0,002
822,1	-0,001
822,5	-0,001
822,9	-0,001
823,4	-0,001
823,8	-0
824,2	-0
824,7	0
825,1	-0
825,5	-0,001
826	-0,001
826,4	-0,001
826,8	-0
827,3	-0
827,7	-0,001
828,1	-0,001
828,5	-0,001
829	-0,002
829,4	-0,002
829,8	-0,002
830,3	-0,002
830,7	-0,002
831,1	-0,002
831,6	-0,002
832	-0,001
832,4	-0,002
832,8	-0,001
833,3	-0,001
833,7	-0,002
834,1	-0,001
834,6	-0,002
835	-0,002
835,4	-0,002
835,8	-0,002
836,3	-0,002
836,7	-0,002
837,1	-0,001
837,6	-0,001
838	-0,001
838,4	-0,001
838,9	-0,001
839,3	-0,001
839,7	-0,001
840,1	-0,002
840,6	-0,002
841	-0,002
841,4	-0,002
841,9	-0,002
842,3	-0,002
842,7	-0,001
843,1	-0,001
843,6	-0,002
844	-0,002
844,4	-0,002
844,9	-0,002
845,3	-0,002
845,7	-0,003
846,2	-0,003
846,6	-0,003
847	-0,003
847,4	-0,003
847,9	-0,003
848,3	-0,003
848,7	-0,003
849,2	-0,003
849,6	-0,003
850	-0,002
850,4	-0,002
850,9	-0,002
851,3	-0,002
851,7	-0,002
852,2	-0,002
852,6	-0,002
853	-0,002
853,4	-0,002
853,9	-0,002
854,3	-0,002
854,7	-0,002
855,2	-0,002
855,6	-0,002
856	-0,001
856,4	-0,001
856,9	-0,001
857,3	-0,001
857,7	-0,002
858,2	-0,002
858,6	-0,002
859	-0,002
859,4	-0,002
859,9	-0,002
860,3	-0,002
860,7	-0,002
861,1	-0,001
861,6	-0,001
862	-0,001
862,4	-0,001
862,9	-0,001
863,3	-0,001
863,7	-0,002
864,1	-0,002
864,6	-0,002
865	-0,002
865,4	-0,003
865,9	-0,002
866,3	-0,002
866,7	-0,002
867,1	-0,002
867,6	-0,002
868	-0,002
868,4	-0,002
868,8	-0,001
869,3	-0,001
869,7	-0,001
870,1	-0,001
870,6	-0,001
871	-0,002
871,4	-0,002
871,8	-0,002
872,3	-0,002
872,7	-0,003
873,1	-0,003
873,5	-0,003
874	-0,003
874,4	-0,003
874,8	-0,003
875,3	-0,003
875,7	-0,003
876,1	-0,003
876,5	-0,003
877	-0,003
877,4	-0,003
877,8	-0,003
878,2	-0,003
878,7	-0,003
879,1	-0,003
879,5	-0,003
879,9	-0,003
880,4	-0,003
880,8	-0,003
881,2	-0,002
881,7	-0,003
882,1	-0,003
882,5	-0,003
882,9	-0,003
883,4	-0,003
883,8	-0,003
884,2	-0,003
884,6	-0,003
885,1	-0,003
885,5	-0,003
885,9	-0,003
886,3	-0,002
886,8	-0,002
887,2	-0,003
887,6	-0,003
888	-0,003
888,5	-0,002
888,9	-0,002
889,3	-0,002
889,8	-0,002
890,2	-0,002
890,6	-0,001
891	-0,001
891,5	-0
891,9	-0
892,3	-0
892,7	-0
893,2	-0
893,6	-0
894	-0
894,4	-0,001
894,9	-0,001
895,3	-0,001
895,7	-0,001
896,1	-0,001
896,6	-0,001
897	-0,001
897,4	-0,002
897,8	-0,002
898,3	-0,001
898,7	-0,001
899,1	-0,001
899,5	-0,001
900	-0,001
900,4	-0,001
900,8	-0,002
901,2	-0,002
901,7	-0,002
902,1	-0,002
902,5	-0,002
902,9	-0,002
903,4	-0,002
903,8	-0,002
904,2	-0,002
904,6	-0,002
905,1	-0,002
905,5	-0,001
905,9	-0,001
906,3	-0,001
906,8	-0,001
907,2	-0
907,6	0
908	0
908,5	0
908,9	0,001
909,3	0,001
909,7	0,001
910,2	0,001
910,6	0,001
911	0,001
911,4	0,001
911,9	0,001
912,3	0,001
912,7	0,001
913,1	0,001
913,6	0,001
914	0,001
914,4	0,001
914,8	0,001
915,3	0,001
915,7	0,001
916,1	0
916,5	-0
916,9	-0
917,4	-0
917,8	-0
918,2	-0
918,6	-0
919,1	-0,001
919,5	-0
919,9	-0
920,3	-0
920,8	-0,001
921,2	-0,001
921,6	-0,001
922	-0,001
922,5	-0,001
922,9	-0,001
923,3	-0,002
923,7	-0,001
924,2	-0,001
924,6	-0,001
925	-0,001
925,4	-0,001
925,8	-0
926,3	-0
926,7	-0
927,1	-0
927,5	-0,001
928	-0,001
928,4	-0,001
928,8	-0,001
929,2	-0,001
929,7	-0,002
930,1	-0,002
930,5	-0,002
930,9	-0,002
931,3	-0,002
931,8	-0,002
932,2	-0,002
932,6	-0,002
933	-0,002
933,5	-0,002
933,9	-0,002
934,3	-0,002
934,7	-0,002
935,2	-0,002
935,6	-0,002
936	-0,001
936,4	-0,001
936,8	-0,001
937,3	-0,001
937,7	-0,001
938,1	-0,001
938,5	-0,001
939	-0,001
939,4	-0,001
939,8	-0,001
940,2	-0,001
940,6	-0,001
941,1	-0,001
941,5	-0,001
941,9	-0,001
942,3	-0,002
942,8	-0,002
943,2	-0,002
943,6	-0,003
944	-0,003
944,4	-0,002
944,9	-0,003
945,3	-0,003
945,7	-0,003
946,1	-0,002
946,6	-0,001
947	-0,002
947,4	-0,002
947,8	-0,002
948,2	-0,002
948,7	-0,002
949,1	-0,002
949,5	-0,002
949,9	-0,003
950,3	-0,003
950,8	-0,003
951,2	-0,003
951,6	-0,003
952	-0,004
952,5	-0,004
952,9	-0,003
953,3	-0,003
953,7	-0,003
954,1	-0,003
954,6	-0,003
955	-0,003
955,4	-0,003
955,8	-0,004
956,2	-0,004
956,7	-0,004
957,1	-0,005
957,5	-0,005
957,9	-0,006
958,3	-0,006
958,8	-0,006
959,2	-0,007
959,6	-0,007
960	-0,007
960,5	-0,007
960,9	-0,007
961,3	-0,006
961,7	-0,006
962,1	-0,006
962,6	-0,006
963	-0,005
963,4	-0,005
963,8	-0,005
964,2	-0,006
964,7	-0,006
965,1	-0,005
965,5	-0,005
965,9	-0,005
966,3	-0,005
966,8	-0,005
967,2	-0,004
967,6	-0,004
968	-0,004
968,4	-0,004
968,9	-0,004
969,3	-0,003
969,7	-0,003
970,1	-0,002
970,5	-0,002
971	-0,001
971,4	-0,001
971,8	-0,002
972,2	-0,002
972,6	-0,003
973,1	-0,004
973,5	-0,004
973,9	-0,004
974,3	-0,005
974,7	-0,005
975,2	-0,005
975,6	-0,005
976	-0,004
976,4	-0,005
976,8	-0,005
977,3	-0,005
977,7	-0,004
978,1	-0,005
978,5	-0,005
978,9	-0,005
979,4	-0,005
979,8	-0,005
980,2	-0,005
980,6	-0,005
981	-0,005
981,5	-0,005
981,9	-0,004
982,3	-0,004
982,7	-0,004
983,1	-0,004
983,6	-0,004
984	-0,004
984,4	-0,004
984,8	-0,004
985,2	-0,005
985,6	-0,005
986,1	-0,005
986,5	-0,004
986,9	-0,005
987,3	-0,005
987,7	-0,004
988,2	-0,004
988,6	-0,004
989	-0,005
989,4	-0,005
989,8	-0,004
990,3	-0,004
990,7	-0,004
991,1	-0,004
991,5	-0,004
991,9	-0,004
992,3	-0,004
992,8	-0,005
993,2	-0,005
993,6	-0,004
994	-0,004
994,4	-0,004
994,9	-0,004
995,3	-0,004
995,7	-0,004
996,1	-0,004
996,5	-0,005
996,9	-0,004
997,4	-0,004
997,8	-0,004
998,2	-0,004
998,6	-0,004
999	-0,004
999,5	-0,004
999,9	-0,004
1000,3	-0,003
1000,7	-0,003
1001,1	-0,003
1001,5	-0,002
1002	-0,002
1002,4	-0
1002,8	-0,001
1003,2	-0
1003,6	-0
1004	0
1004,5	-0
1004,9	-0
1005,3	-0,001
1005,7	-0,001
1006,1	-0,001
1006,6	-0,001
1007	-0,001
1007,4	-0,001
1007,8	-0,001
1008,2	-0,001
1008,6	0
1009,1	0
1009,5	-0
1009,9	-0
1010,3	-0
1010,7	-0,001
1011,1	-0,001
1011,6	-0,001
1012	-0,001
1012,4	-0,002
1012,8	-0,001
1013,2	-0,001
1013,6	-0,001
1014,1	-0,002
1014,5	-0,003
1014,9	-0,003
1015,3	-0,004
1015,7	-0,003
1016,1	-0,003
1016,6	-0,004
1017	-0,003
1017,4	-0,002
1017,8	-0,002
1018,2	-0,001
1018,6	-0,001
1019,1	-0,001
1019,5	-0,001
1019,9	-0,001
1020,3	-0,001
1020,7	-0,001
1021,1	-0,001
1021,6	-0
1022	-0
1022,4	-0,001
1022,8	-0,001
1023,2	-0,001
1023,6	-0,001
1024,1	-0,001
1024,5	-0,001
1024,9	-0,001
1025,3	-0,001
1025,7	-0,002
1026,1	-0,003
1026,6	-0,003
1027	-0,004
1027,4	-0,005
1027,8	-0,005
1028,2	-0,005
1028,6	-0,004
1029	-0,004
1029,5	-0,004
1029,9	-0,003
1030,3	-0,003
1030,7	-0,002
1031,1	-0,002
1031,5	-0,002
1032	-0,002
1032,4	-0,002
1032,8	-0,002
1033,2	-0,002
1033,6	-0,002
1034	-0,002
1034,4	-0,003
1034,9	-0,003
1035,3	-0,003
1035,7	-0,004
1036,1	-0,004
1036,5	-0,004
1036,9	-0,003
1037,4	-0,003
1037,8	-0,004
1038,2	-0,003
1038,6	-0,003
1039	-0,003
1039,4	-0,003
1039,8	-0,004
1040,3	-0,004
1040,7	-0,004
1041,1	-0,004
1041,5	-0,003
1041,9	-0,002
1042,3	-0,003
1042,7	-0,002
1043,2	-0,002
1043,6	-0,003
1044	-0,003
1044,4	-0,004
1044,8	-0,005
1045,2	-0,006
1045,6	-0,005
1046,1	-0,005
1046,5	-0,005
1046,9	-0,005
1047,3	-0,005
1047,7	-0,005
1048,1	-0,004
1048,5	-0,005
1049	-0,005
1049,4	-0,006
1049,8	-0,006
1050,2	-0,006
1050,6	-0,006
1051	-0,006
1051,4	-0,005
1051,9	-0,005
1052,3	-0,004
1052,7	-0,004
1053,1	-0,004
1053,5	-0,003
1053,9	-0,003
1054,3	-0,003
1054,8	-0,003
1055,2	-0,002
1055,6	-0,002
1056	-0,002
1056,4	-0,002
1056,8	-0,002
1057,2	-0,002
1057,6	-0,002
1058,1	-0,003
1058,5	-0,002
1058,9	-0,002
1059,3	-0,002
1059,7	-0,002
1060,1	-0,003
1060,5	-0,002
1061	-0,002
1061,4	-0,003
1061,8	-0,003
1062,2	-0,003
1062,6	-0,003
1063	-0,003
1063,4	-0,004
1063,8	-0,005
1064,3	-0,006
1064,7	-0,004
1065,1	-0,005
1065,5	-0,006
1065,9	-0,006
1066,3	-0,006
1066,7	-0,005
1067,1	-0,004
1067,6	-0,004
1068	-0,005
1068,4	-0,003
1068,8	-0,004
1069,2	-0,004
1069,6	-0,004
1070	-0,003
1070,4	-0,003
1070,9	-0,003
1071,3	-0,003
1071,7	-0,003
1072,1	-0,003
1072,5	-0,003
1072,9	-0,003
1073,3	-0,003
1073,7	-0,003
1074,2	-0,003
1074,6	-0,003
1075	-0,003
1075,4	-0,004
1075,8	-0,005
1076,2	-0,005
1076,6	-0,006
1077	-0,007
1077,5	-0,006
1077,9	-0,006
1078,3	-0,005
1078,7	-0,005
1079,1	-0,005
1079,5	-0,005
1079,9	-0,003
1080,3	-0,005
1080,7	-0,005
1081,2	-0,005
1081,6	-0,005
1082	-0,007
1082,4	-0,007
1082,8	-0,009
1083,2	-0,009
1083,6	-0,009
1084	-0,009
1084,5	-0,011
1084,9	-0,01
1085,3	-0,012
1085,7	-0,011
1086,1	-0,011
1086,5	-0,011
1086,9	-0,01
1087,3	-0,011
1087,7	-0,012
1088,2	-0,01
1088,6	-0,011
1089	-0,01
1089,4	-0,011
1089,8	-0,01
1090,2	-0,012
1090,6	-0,011
1091	-0,011
1091,4	-0,013
1091,9	-0,014
1092,3	-0,014
1092,7	-0,02
1093,1	-0,018
1093,5	-0,02
1093,9	-0,019
1094,3	-0,016
1094,7	-0,016
1095,1	-0,018
1095,5	-0,02
1096	-0,021
1096,4	-0,019
1096,8	-0,021
1097,2	-0,028
1097,6	-0,032
1098	-0,034
1098,4	-0,029
1098,8	-0,033
1099,2	-0,04
1099,6	-0,044
1100,1	-0,036
1100,5	-0,031
1100,9	-0,029
1101,3	-0,023
1101,7	-0,026
1102,1	-0,022
1102,5	-0,028
1102,9	-0,036
1103,3	-0,041
1103,7	-0,039
1104,2	-0,058
1104,6	-0,063
1105	-0,07
1105,4	-0,068
1105,8	-0,058
1106,2	-0,067
1106,6	-0,086
1107	-0,091
1107,4	-0,083
1107,8	-0,061
1108,3	-0,072
