Data from Absorbance_00003.txt Node
Date: Wed Aug 02 13:22:01 MSK 2023
User: vat
Spectrometer: MAYP114033
Trigger mode: 0
Integration Time (sec): 8,000000E-3
Scans to average: 10
Electric dark correction enabled: true
Nonlinearity correction enabled: false
Boxcar width: 3
XAxis mode: Wavelengths
Number of Pixels in Spectrum: 2068
>>>>>Begin Spectral Data<<<<<
199,4	-0,471
199,9	-0,027
200,4	0,369
200,8	0,786
201,3	0,97
201,8	0,998
202,2	1,023
202,7	1,049
203,2	1,095
203,6	1,117
204,1	1,111
204,6	1,101
205	1,116
205,5	1,125
206	1,136
206,4	1,139
206,9	1,171
207,4	1,183
207,8	1,205
208,3	1,237
208,8	1,257
209,2	1,285
209,7	1,299
210,2	1,312
210,6	1,341
211,1	1,337
211,5	1,344
212	1,376
212,5	1,369
212,9	1,423
213,4	1,435
213,9	1,45
214,3	1,483
214,8	1,47
215,3	1,455
215,7	1,48
216,2	1,477
216,7	1,468
217,1	1,484
217,6	1,487
218,1	1,51
218,5	1,531
219	1,552
219,5	1,539
219,9	1,574
220,4	1,589
220,9	1,602
221,3	1,609
221,8	1,645
222,3	1,669
222,7	1,723
223,2	1,734
223,6	1,738
224,1	1,752
224,6	1,782
225	1,784
225,5	1,769
226	1,779
226,4	1,808
226,9	1,809
227,4	1,84
227,8	1,853
228,3	1,873
228,8	1,905
229,2	1,91
229,7	1,911
230,2	1,946
230,6	1,961
231,1	1,965
231,5	1,961
232	1,967
232,5	1,967
232,9	1,969
233,4	1,99
233,9	2,005
234,3	2,021
234,8	2,028
235,3	2,022
235,7	2,044
236,2	2,055
236,7	2,058
237,1	2,062
237,6	2,082
238,1	2,119
238,5	2,151
239	2,146
239,4	2,152
239,9	2,142
240,4	2,128
240,8	2,125
241,3	2,124
241,8	2,13
242,2	2,145
242,7	2,15
243,2	2,166
243,6	2,185
244,1	2,169
244,6	2,159
245	2,165
245,5	2,159
245,9	2,15
246,4	2,138
246,9	2,151
247,3	2,167
247,8	2,171
248,3	2,165
248,7	2,158
249,2	2,186
249,7	2,211
250,1	2,21
250,6	2,219
251	2,202
251,5	2,184
252	2,19
252,4	2,18
252,9	2,184
253,4	2,18
253,8	2,191
254,3	2,211
254,8	2,225
255,2	2,264
255,7	2,253
256,1	2,245
256,6	2,242
257,1	2,245
257,5	2,229
258	2,25
258,5	2,236
258,9	2,246
259,4	2,248
259,9	2,277
260,3	2,256
260,8	2,273
261,2	2,271
261,7	2,265
262,2	2,264
262,6	2,282
263,1	2,24
263,6	2,26
264	2,269
264,5	2,247
264,9	2,234
265,4	2,235
265,9	2,225
266,3	2,241
266,8	2,241
267,3	2,237
267,7	2,264
268,2	2,298
268,7	2,292
269,1	2,247
269,6	2,245
270	2,239
270,5	2,246
271	2,218
271,4	2,201
271,9	2,21
272,4	2,24
272,8	2,255
273,3	2,252
273,7	2,247
274,2	2,272
274,7	2,261
275,1	2,27
275,6	2,299
276,1	2,271
276,5	2,284
277	2,28
277,4	2,302
277,9	2,32
278,4	2,314
278,8	2,31
279,3	2,331
279,8	2,336
280,2	2,338
280,7	2,298
281,1	2,325
281,6	2,324
282,1	2,314
282,5	2,33
283	2,32
283,4	2,322
283,9	2,325
284,4	2,297
284,8	2,309
285,3	2,301
285,8	2,28
286,2	2,252
286,7	2,233
287,1	2,191
287,6	2,157
288,1	2,11
288,5	2,076
289	2,026
289,5	1,987
289,9	1,937
290,4	1,904
290,8	1,869
291,3	1,833
291,8	1,797
292,2	1,774
292,7	1,749
293,1	1,733
293,6	1,715
294,1	1,698
294,5	1,682
295	1,666
295,5	1,657
295,9	1,649
296,4	1,644
296,8	1,64
297,3	1,637
297,8	1,633
298,2	1,63
298,7	1,622
299,1	1,615
299,6	1,612
300,1	1,609
300,5	1,611
301	1,61
301,5	1,611
301,9	1,613
302,4	1,612
302,8	1,609
303,3	1,607
303,8	1,604
304,2	1,603
304,7	1,603
305,1	1,602
305,6	1,603
306,1	1,603
306,5	1,6
307	1,591
307,4	1,591
307,9	1,587
308,4	1,581
308,8	1,582
309,3	1,575
309,8	1,574
310,2	1,575
310,7	1,569
311,1	1,565
311,6	1,563
312,1	1,552
312,5	1,552
313	1,543
313,4	1,54
313,9	1,535
314,4	1,529
314,8	1,525
315,3	1,521
315,7	1,516
316,2	1,512
316,7	1,505
317,1	1,499
317,6	1,492
318	1,486
318,5	1,48
319	1,47
319,4	1,462
319,9	1,452
320,3	1,441
320,8	1,433
321,3	1,422
321,7	1,413
322,2	1,402
322,6	1,388
323,1	1,373
323,6	1,361
324	1,348
324,5	1,334
324,9	1,319
325,4	1,306
325,9	1,295
326,3	1,283
326,8	1,272
327,2	1,259
327,7	1,246
328,2	1,233
328,6	1,22
329,1	1,206
329,5	1,195
330	1,182
330,5	1,17
330,9	1,155
331,4	1,144
331,8	1,13
332,3	1,118
332,8	1,104
333,2	1,09
333,7	1,079
334,1	1,069
334,6	1,056
335,1	1,045
335,5	1,032
336	1,02
336,4	1,008
336,9	0,994
337,4	0,979
337,8	0,967
338,3	0,952
338,7	0,938
339,2	0,927
339,7	0,914
340,1	0,899
340,6	0,888
341	0,875
341,5	0,864
342	0,853
342,4	0,839
342,9	0,827
343,3	0,817
343,8	0,806
344,2	0,792
344,7	0,78
345,2	0,767
345,6	0,755
346,1	0,742
346,5	0,729
347	0,717
347,5	0,707
347,9	0,696
348,4	0,685
348,8	0,675
349,3	0,662
349,8	0,651
350,2	0,638
350,7	0,627
351,1	0,615
351,6	0,603
352	0,592
352,5	0,582
353	0,571
353,4	0,562
353,9	0,551
354,3	0,541
354,8	0,532
355,3	0,523
355,7	0,513
356,2	0,503
356,6	0,493
357,1	0,484
357,5	0,475
358	0,467
358,5	0,457
358,9	0,448
359,4	0,44
359,8	0,433
360,3	0,425
360,8	0,416
361,2	0,407
361,7	0,399
362,1	0,391
362,6	0,384
363	0,376
363,5	0,369
364	0,362
364,4	0,354
364,9	0,347
365,3	0,34
365,8	0,333
366,3	0,326
366,7	0,319
367,2	0,314
367,6	0,309
368,1	0,303
368,5	0,297
369	0,292
369,5	0,287
369,9	0,282
370,4	0,275
370,8	0,27
371,3	0,264
371,7	0,26
372,2	0,254
372,7	0,25
373,1	0,245
373,6	0,241
374	0,236
374,5	0,232
374,9	0,227
375,4	0,223
375,9	0,219
376,3	0,214
376,8	0,209
377,2	0,205
377,7	0,201
378,2	0,196
378,6	0,193
379,1	0,188
379,5	0,184
380	0,181
380,4	0,178
380,9	0,175
381,4	0,172
381,8	0,169
382,3	0,166
382,7	0,163
383,2	0,16
383,6	0,157
384,1	0,155
384,6	0,152
385	0,15
385,5	0,148
385,9	0,145
386,4	0,143
386,8	0,14
387,3	0,138
387,7	0,136
388,2	0,133
388,7	0,131
389,1	0,129
389,6	0,127
390	0,124
390,5	0,122
390,9	0,119
391,4	0,116
391,9	0,115
392,3	0,112
392,8	0,111
393,2	0,11
393,7	0,109
394,1	0,108
394,6	0,107
395,1	0,106
395,5	0,105
396	0,104
396,4	0,103
396,9	0,101
397,3	0,099
397,8	0,097
398,2	0,096
398,7	0,094
399,2	0,093
399,6	0,091
400,1	0,09
400,5	0,089
401	0,088
401,4	0,087
401,9	0,085
402,4	0,084
402,8	0,083
403,3	0,082
403,7	0,081
404,2	0,08
404,6	0,08
405,1	0,079
405,5	0,077
406	0,076
406,5	0,076
406,9	0,075
407,4	0,074
407,8	0,073
408,3	0,072
408,7	0,071
409,2	0,07
409,6	0,069
410,1	0,068
410,6	0,068
411	0,066
411,5	0,065
411,9	0,065
412,4	0,063
412,8	0,063
413,3	0,062
413,7	0,061
414,2	0,06
414,7	0,059
415,1	0,057
415,6	0,058
416	0,056
416,5	0,056
416,9	0,055
417,4	0,054
417,8	0,053
418,3	0,053
418,8	0,051
419,2	0,05
419,7	0,05
420,1	0,049
420,6	0,048
421	0,047
421,5	0,047
421,9	0,046
422,4	0,045
422,8	0,045
423,3	0,044
423,8	0,044
424,2	0,043
424,7	0,043
425,1	0,042
425,6	0,042
426	0,041
426,5	0,04
426,9	0,039
427,4	0,039
427,9	0,038
428,3	0,037
428,8	0,037
429,2	0,036
429,7	0,036
430,1	0,036
430,6	0,035
431	0,034
431,5	0,034
431,9	0,033
432,4	0,032
432,8	0,031
433,3	0,031
433,8	0,029
434,2	0,029
434,7	0,028
435,1	0,028
435,6	0,028
436	0,027
436,5	0,026
436,9	0,026
437,4	0,025
437,8	0,025
438,3	0,024
438,8	0,023
439,2	0,023
439,7	0,023
440,1	0,023
440,6	0,023
441	0,022
441,5	0,022
441,9	0,021
442,4	0,021
442,8	0,02
443,3	0,02
443,7	0,02
444,2	0,019
444,7	0,019
445,1	0,02
445,6	0,019
446	0,019
446,5	0,018
446,9	0,019
447,4	0,018
447,8	0,018
448,3	0,017
448,7	0,017
449,2	0,017
449,6	0,017
450,1	0,016
450,6	0,015
451	0,015
451,5	0,014
451,9	0,015
452,4	0,014
452,8	0,014
453,3	0,014
453,7	0,015
454,2	0,014
454,6	0,015
455,1	0,014
455,5	0,014
456	0,014
456,4	0,012
456,9	0,012
457,3	0,012
457,8	0,012
458,3	0,012
458,7	0,011
459,2	0,012
459,6	0,012
460,1	0,012
460,5	0,011
461	0,011
461,4	0,01
461,9	0,01
462,3	0,01
462,8	0,01
463,2	0,009
463,7	0,009
464,1	0,009
464,6	0,009
465	0,009
465,5	0,009
466	0,008
466,4	0,008
466,9	0,009
467,3	0,008
467,8	0,008
468,2	0,008
468,7	0,008
469,1	0,009
469,6	0,009
470	0,008
470,5	0,008
470,9	0,008
471,4	0,007
471,8	0,007
472,3	0,007
472,7	0,006
473,2	0,006
473,6	0,006
474,1	0,006
474,5	0,006
475	0,007
475,4	0,007
475,9	0,006
476,4	0,006
476,8	0,006
477,3	0,006
477,7	0,006
478,2	0,006
478,6	0,006
479,1	0,007
479,5	0,007
480	0,007
480,4	0,006
480,9	0,006
481,3	0,006
481,8	0,005
482,2	0,005
482,7	0,004
483,1	0,004
483,6	0,004
484	0,004
484,5	0,004
484,9	0,004
485,4	0,005
485,8	0,005
486,3	0,005
486,7	0,004
487,2	0,004
487,6	0,004
488,1	0,005
488,5	0,004
489	0,003
489,4	0,003
489,9	0,004
490,4	0,003
490,8	0,003
491,3	0,002
491,7	0,003
492,2	0,003
492,6	0,004
493,1	0,004
493,5	0,004
494	0,004
494,4	0,005
494,9	0,004
495,3	0,005
495,8	0,004
496,2	0,005
496,7	0,004
497,1	0,004
497,6	0,004
498	0,004
498,5	0,004
498,9	0,003
499,4	0,003
499,8	0,003
500,3	0,002
500,7	0,002
501,2	0,002
501,6	0,001
502,1	0,001
502,5	0,001
503	0,001
503,4	0,002
503,9	0,002
504,3	0,002
504,8	0,001
505,2	0,002
505,7	0,001
506,1	0,002
506,6	0,002
507	0,001
507,5	0,001
507,9	0,002
508,4	0,001
508,8	0,002
509,3	0,002
509,7	0,003
510,2	0,002
510,6	0,002
511,1	0,002
511,5	0,002
512	0,001
512,4	0,001
512,9	0,001
513,3	0,001
513,8	0,001
514,2	0,002
514,7	0,002
515,1	0,002
515,6	0,001
516	0,001
516,5	0,001
516,9	0,001
517,4	-0
517,8	-0,001
518,3	-0
518,7	0,001
519,2	0
519,6	0,001
520,1	0,001
520,5	0,001
521	0,001
521,4	0,001
521,9	0
522,3	0,001
522,8	-0
523,2	0
523,7	0,001
524,1	0
524,6	-0
525	0
525,5	0,001
525,9	0
526,4	0
526,8	0
527,3	-0
527,7	0
528,2	-0
528,6	-0
529,1	0,001
529,5	0
530	0,001
530,4	0,001
530,9	0
531,3	0
531,8	0
532,2	-0
532,6	0
533,1	0
533,5	0
534	0
534,4	0,001
534,9	0
535,3	0
535,8	-0
536,2	-0
536,7	-0
537,1	-0
537,6	-0
538	-0
538,5	0
538,9	-0
539,4	-0,001
539,8	-0,001
540,3	-0,001
540,7	-0,002
541,2	-0,001
541,6	-0,001
542,1	-0,001
542,5	-0,001
543	-0,001
543,4	-0
543,9	-0
544,3	-0
544,8	0
545,2	0
545,7	0,001
546,1	0
546,5	0
547	-0
547,4	-0
547,9	-0,001
548,3	-0,001
548,8	-0,001
549,2	-0,001
549,7	-0,002
550,1	-0,002
550,6	-0,002
551	-0,002
551,5	-0,002
551,9	-0,002
552,4	-0,002
552,8	-0,002
553,3	-0,002
553,7	-0,002
554,2	-0,002
554,6	-0,001
555,1	-0,001
555,5	-0,001
555,9	-0,001
556,4	-0,001
556,8	-0,001
557,3	-0,001
557,7	-0,001
558,2	-0,001
558,6	-0,001
559,1	-0,001
559,5	-0,001
560	-0,001
560,4	-0,002
560,9	-0,002
561,3	-0,002
561,8	-0,002
562,2	-0,002
562,7	-0,002
563,1	-0,001
563,6	-0,001
564	-0,001
564,4	-0,001
564,9	-0,001
565,3	-0
565,8	-0,001
566,2	-0,002
566,7	-0,002
567,1	-0,002
567,6	-0,003
568	-0,002
568,5	-0,002
568,9	-0,002
569,4	-0,001
569,8	-0,001
570,3	-0,001
570,7	-0
571,1	-0,001
571,6	-0,001
572	-0,002
572,5	-0,002
572,9	-0,002
573,4	-0,002
573,8	-0,002
574,3	-0,002
574,7	-0,001
575,2	-0,001
575,6	-0,001
576,1	-0,001
576,5	-0,001
576,9	-0,001
577,4	-0,001
577,8	-0,001
578,3	-0,001
578,7	-0,001
579,2	-0,002
579,6	-0,002
580,1	-0,002
580,5	-0,002
581	-0,002
581,4	-0,002
581,9	-0,002
582,3	-0,002
582,7	-0,002
583,2	-0,002
583,6	-0,002
584,1	-0,002
584,5	-0,002
585	-0,002
585,4	-0,001
585,9	-0,001
586,3	-0,001
586,8	-0,001
587,2	-0,001
587,6	-0,002
588,1	-0,002
588,5	-0,002
589	-0,002
589,4	-0,002
589,9	-0,002
590,3	-0,002
590,8	-0,002
591,2	-0,002
591,7	-0,002
592,1	-0,002
592,5	-0,002
593	-0,001
593,4	-0,002
593,9	-0,002
594,3	-0,002
594,8	-0,002
595,2	-0,002
595,7	-0,002
596,1	-0,003
596,6	-0,002
597	-0,002
597,4	-0,002
597,9	-0,002
598,3	-0,002
598,8	-0,002
599,2	-0,002
599,7	-0,002
600,1	-0,002
600,6	-0,002
601	-0,002
601,4	-0,002
601,9	-0,002
602,3	-0,002
602,8	-0,002
603,2	-0,002
603,7	-0,002
604,1	-0,002
604,6	-0,002
605	-0,001
605,4	-0,002
605,9	-0,002
606,3	-0,002
606,8	-0,002
607,2	-0,003
607,7	-0,003
608,1	-0,003
608,6	-0,003
609	-0,003
609,4	-0,002
609,9	-0,002
610,3	-0,002
610,8	-0,002
611,2	-0,002
611,7	-0,001
612,1	-0,001
612,6	-0,001
613	-0,001
613,4	-0,002
613,9	-0,002
614,3	-0,002
614,8	-0,002
615,2	-0,002
615,7	-0,002
616,1	-0,003
616,6	-0,003
617	-0,003
617,4	-0,002
617,9	-0,003
618,3	-0,003
618,8	-0,002
619,2	-0,002
619,7	-0,002
620,1	-0,001
620,5	-0,002
621	-0,001
621,4	-0,001
621,9	-0,001
622,3	-0,001
622,8	-0,001
623,2	-0,001
623,6	-0,002
624,1	-0,002
624,5	-0,002
625	-0,003
625,4	-0,003
625,9	-0,002
626,3	-0,003
626,8	-0,002
627,2	-0,002
627,6	-0,002
628,1	-0,001
628,5	-0,001
629	-0,002
629,4	-0,002
629,9	-0,002
630,3	-0,002
630,7	-0,002
631,2	-0,002
631,6	-0,002
632,1	-0,002
632,5	-0,002
633	-0,002
633,4	-0,002
633,8	-0,002
634,3	-0,002
634,7	-0,003
635,2	-0,002
635,6	-0,002
636,1	-0,003
636,5	-0,002
636,9	-0,002
637,4	-0,002
637,8	-0,002
638,3	-0,002
638,7	-0,002
639,2	-0,002
639,6	-0,002
640	-0,002
640,5	-0,002
640,9	-0,002
641,4	-0,002
641,8	-0,002
642,2	-0,003
642,7	-0,003
643,1	-0,003
643,6	-0,003
644	-0,003
644,5	-0,002
644,9	-0,002
645,3	-0,002
645,8	-0,002
646,2	-0,002
646,7	-0,002
647,1	-0,002
647,6	-0,002
648	-0,002
648,4	-0,003
648,9	-0,002
649,3	-0,002
649,8	-0,002
650,2	-0,002
650,6	-0,002
651,1	-0,002
651,5	-0,002
652	-0,002
652,4	-0,002
652,9	-0,002
653,3	-0,002
653,7	-0,003
654,2	-0,003
654,6	-0,002
655,1	-0,002
655,5	-0,001
655,9	-0,001
656,4	-0
656,8	-0,001
657,3	-0,002
657,7	-0,002
658,2	-0,002
658,6	-0,002
659	-0,003
659,5	-0,005
659,9	-0,003
660,4	-0,002
660,8	-0,003
661,2	-0,003
661,7	-0,003
662,1	-0,003
662,6	-0,003
663	-0,003
663,4	-0,003
663,9	-0,002
664,3	-0,002
664,8	-0,002
665,2	-0,002
665,6	-0,002
666,1	-0,002
666,5	-0,002
667	-0,002
667,4	-0,002
667,9	-0,002
668,3	-0,002
668,7	-0,002
669,2	-0,002
669,6	-0,002
670,1	-0,002
670,5	-0,002
670,9	-0,003
671,4	-0,002
671,8	-0,002
672,3	-0,002
672,7	-0,002
673,1	-0,003
673,6	-0,002
674	-0,002
674,5	-0,003
674,9	-0,003
675,3	-0,003
675,8	-0,002
676,2	-0,002
676,7	-0,002
677,1	-0,002
677,5	-0,002
678	-0,002
678,4	-0,002
678,9	-0,002
679,3	-0,001
679,7	-0,001
680,2	-0,002
680,6	-0,002
681,1	-0,002
681,5	-0,002
681,9	-0,003
682,4	-0,003
682,8	-0,003
683,3	-0,003
683,7	-0,002
684,1	-0,002
684,6	-0,002
685	-0,002
685,5	-0,002
685,9	-0,002
686,3	-0,002
686,8	-0,002
687,2	-0,002
687,7	-0,003
688,1	-0,003
688,5	-0,003
689	-0,003
689,4	-0,003
689,9	-0,003
690,3	-0,003
690,7	-0,003
691,2	-0,003
691,6	-0,002
692	-0,002
692,5	-0,002
692,9	-0,002
693,4	-0,003
693,8	-0,003
694,2	-0,003
694,7	-0,002
695,1	-0,002
695,6	-0,002
696	-0,002
696,4	-0,002
696,9	-0,002
697,3	-0,002
697,8	-0,002
698,2	-0,002
698,6	-0,002
699,1	-0,003
699,5	-0,003
699,9	-0,002
700,4	-0,002
700,8	-0,003
701,3	-0,003
701,7	-0,003
702,1	-0,002
702,6	-0,002
703	-0,003
703,5	-0,002
703,9	-0,002
704,3	-0,002
704,8	-0,002
705,2	-0,002
705,6	-0,002
706,1	-0,002
706,5	-0,003
707	-0,003
707,4	-0,002
707,8	-0,003
708,3	-0,002
708,7	-0,002
709,2	-0,002
709,6	-0,001
710	-0,001
710,5	-0,002
710,9	-0,001
711,3	-0,001
711,8	-0,002
712,2	-0,002
712,7	-0,002
713,1	-0,002
713,5	-0,002
714	-0,002
714,4	-0,002
714,8	-0,001
715,3	-0,002
715,7	-0,002
716,2	-0,002
716,6	-0,002
717	-0,001
717,5	-0,002
717,9	-0,001
718,3	-0,001
718,8	-0,001
719,2	-0,001
719,7	-0,002
720,1	-0,002
720,5	-0,002
721	-0,002
721,4	-0,002
721,8	-0,003
722,3	-0,003
722,7	-0,003
723,2	-0,002
723,6	-0,002
724	-0,002
724,5	-0,002
724,9	-0,002
725,3	-0,002
725,8	-0,002
726,2	-0,002
726,7	-0,002
727,1	-0,002
727,5	-0,002
728	-0,002
728,4	-0,002
728,8	-0,002
729,3	-0,002
729,7	-0,002
730,1	-0,002
730,6	-0,002
731	-0,002
731,5	-0,002
731,9	-0,002
732,3	-0,002
732,8	-0,003
733,2	-0,003
733,6	-0,003
734,1	-0,003
734,5	-0,003
734,9	-0,003
735,4	-0,003
735,8	-0,003
736,3	-0,003
736,7	-0,003
737,1	-0,003
737,6	-0,003
738	-0,003
738,4	-0,003
738,9	-0,002
739,3	-0,002
739,7	-0,002
740,2	-0,002
740,6	-0,002
741,1	-0,002
741,5	-0,002
741,9	-0,002
742,4	-0,002
742,8	-0,001
743,2	-0,001
743,7	-0,001
744,1	-0,001
744,5	-0,001
745	-0,001
745,4	-0,001
745,8	-0,001
746,3	-0,002
746,7	-0,002
747,2	-0,002
747,6	-0,003
748	-0,003
748,5	-0,004
748,9	-0,004
749,3	-0,004
749,8	-0,003
750,2	-0,003
750,6	-0,003
751,1	-0,003
751,5	-0,003
751,9	-0,003
752,4	-0,004
752,8	-0,003
753,3	-0,004
753,7	-0,003
754,1	-0,003
754,6	-0,003
755	-0,002
755,4	-0,002
755,9	-0,002
756,3	-0,002
756,7	-0,002
757,2	-0,002
757,6	-0,002
758	-0,002
758,5	-0,002
758,9	-0,002
759,3	-0,002
759,8	-0,002
760,2	-0,002
760,6	-0,002
761,1	-0,002
761,5	-0,002
761,9	-0,002
762,4	-0,002
762,8	-0,003
763,3	-0,002
763,7	-0,002
764,1	-0,002
764,6	-0,002
765	-0,002
765,4	-0,002
765,9	-0,002
766,3	-0,002
766,7	-0,002
767,2	-0,002
767,6	-0,002
768	-0,002
768,5	-0,002
768,9	-0,002
769,3	-0,002
769,8	-0,002
770,2	-0,002
770,6	-0,002
771,1	-0,002
771,5	-0,002
771,9	-0,002
772,4	-0,002
772,8	-0,002
773,2	-0,003
773,7	-0,003
774,1	-0,003
774,5	-0,003
775	-0,003
775,4	-0,003
775,8	-0,003
776,3	-0,002
776,7	-0,002
777,1	-0,002
777,6	-0,002
778	-0,002
778,4	-0,002
778,9	-0,002
779,3	-0,002
779,7	-0,002
780,2	-0,002
780,6	-0,002
781	-0,002
781,5	-0,002
781,9	-0,002
782,3	-0,002
782,8	-0,002
783,2	-0,002
783,6	-0,002
784,1	-0,002
784,5	-0,001
784,9	-0,001
785,4	-0,001
785,8	-0,001
786,2	-0,001
786,7	-0,001
787,1	-0,001
787,5	-0,002
788	-0,002
788,4	-0,002
788,8	-0,002
789,3	-0,003
789,7	-0,002
790,1	-0,002
790,6	-0,002
791	-0,002
791,4	-0,002
791,9	-0,002
792,3	-0,002
792,7	-0,002
793,2	-0,002
793,6	-0,002
794	-0,002
794,5	-0,002
794,9	-0,002
795,3	-0,002
795,8	-0,002
796,2	-0,002
796,6	-0,002
797,1	-0,002
797,5	-0,002
797,9	-0,002
798,4	-0,002
798,8	-0,002
799,2	-0,002
799,7	-0,003
800,1	-0,003
800,5	-0,002
801	-0,002
801,4	-0,002
801,8	-0,002
802,2	-0,002
802,7	-0,002
803,1	-0,002
803,5	-0,002
804	-0,002
804,4	-0,002
804,8	-0,002
805,3	-0,002
805,7	-0,002
806,1	-0,001
806,6	-0,002
807	-0,002
807,4	-0,002
807,9	-0,002
808,3	-0,002
808,7	-0,002
809,2	-0,002
809,6	-0,002
810	-0,002
810,4	-0,002
810,9	-0,002
811,3	-0,002
811,7	-0,002
812,2	-0,002
812,6	-0,003
813	-0,003
813,5	-0,003
813,9	-0,003
814,3	-0,002
814,8	-0,002
815,2	-0,002
815,6	-0,002
816,1	-0,003
816,5	-0,002
816,9	-0,003
817,3	-0,003
817,8	-0,003
818,2	-0,003
818,6	-0,003
819,1	-0,002
819,5	-0,002
819,9	-0,002
820,4	-0,002
820,8	-0,001
821,2	-0,002
821,7	-0,001
822,1	-0,001
822,5	-0,001
822,9	-0,001
823,4	-0,001
823,8	-0,001
824,2	-0,001
824,7	-0,001
825,1	-0,001
825,5	-0,001
826	-0,001
826,4	-0,002
826,8	-0,002
827,3	-0,003
827,7	-0,003
828,1	-0,003
828,5	-0,003
829	-0,003
829,4	-0,003
829,8	-0,003
830,3	-0,003
830,7	-0,003
831,1	-0,003
831,6	-0,003
832	-0,003
832,4	-0,003
832,8	-0,003
833,3	-0,003
833,7	-0,003
834,1	-0,002
834,6	-0,002
835	-0,002
835,4	-0,002
835,8	-0,002
836,3	-0,002
836,7	-0,002
837,1	-0,002
837,6	-0,002
838	-0,001
838,4	-0,002
838,9	-0,002
839,3	-0,002
839,7	-0,002
840,1	-0,002
840,6	-0,002
841	-0,003
841,4	-0,003
841,9	-0,002
842,3	-0,002
842,7	-0,002
843,1	-0,003
843,6	-0,003
844	-0,003
844,4	-0,003
844,9	-0,002
845,3	-0,003
845,7	-0,003
846,2	-0,002
846,6	-0,002
847	-0,002
847,4	-0,002
847,9	-0,002
848,3	-0,002
848,7	-0,002
849,2	-0,002
849,6	-0,002
850	-0,002
850,4	-0,002
850,9	-0,002
851,3	-0,002
851,7	-0,001
852,2	-0,002
852,6	-0,002
853	-0,003
853,4	-0,003
853,9	-0,003
854,3	-0,003
854,7	-0,003
855,2	-0,003
855,6	-0,003
856	-0,003
856,4	-0,003
856,9	-0,003
857,3	-0,002
857,7	-0,003
858,2	-0,003
858,6	-0,002
859	-0,003
859,4	-0,002
859,9	-0,002
860,3	-0,003
860,7	-0,002
861,1	-0,002
861,6	-0,002
862	-0,002
862,4	-0,002
862,9	-0,002
863,3	-0,003
863,7	-0,003
864,1	-0,003
864,6	-0,003
865	-0,003
865,4	-0,003
865,9	-0,003
866,3	-0,003
866,7	-0,003
867,1	-0,003
867,6	-0,002
868	-0,002
868,4	-0,002
868,8	-0,002
869,3	-0,002
869,7	-0,002
870,1	-0,002
870,6	-0,002
871	-0,002
871,4	-0,003
871,8	-0,003
872,3	-0,003
872,7	-0,003
873,1	-0,003
873,5	-0,003
874	-0,003
874,4	-0,003
874,8	-0,003
875,3	-0,003
875,7	-0,003
876,1	-0,003
876,5	-0,003
877	-0,003
877,4	-0,003
877,8	-0,003
878,2	-0,003
878,7	-0,002
879,1	-0,002
879,5	-0,003
879,9	-0,003
880,4	-0,003
880,8	-0,003
881,2	-0,002
881,7	-0,002
882,1	-0,002
882,5	-0,002
882,9	-0,002
883,4	-0,002
883,8	-0,002
884,2	-0,002
884,6	-0,002
885,1	-0,002
885,5	-0,002
885,9	-0,002
886,3	-0,002
886,8	-0,002
887,2	-0,002
887,6	-0,002
888	-0,003
888,5	-0,003
888,9	-0,003
889,3	-0,003
889,8	-0,003
890,2	-0,003
890,6	-0,002
891	-0,002
891,5	-0,002
891,9	-0,002
892,3	-0,002
892,7	-0,002
893,2	-0,003
893,6	-0,003
894	-0,003
894,4	-0,003
894,9	-0,003
895,3	-0,003
895,7	-0,003
896,1	-0,003
896,6	-0,003
897	-0,003
897,4	-0,003
897,8	-0,003
898,3	-0,003
898,7	-0,003
899,1	-0,003
899,5	-0,003
900	-0,003
900,4	-0,003
900,8	-0,003
901,2	-0,003
901,7	-0,003
902,1	-0,003
902,5	-0,003
902,9	-0,003
903,4	-0,002
903,8	-0,002
904,2	-0,002
904,6	-0,002
905,1	-0,002
905,5	-0,002
905,9	-0,002
906,3	-0,002
906,8	-0,002
907,2	-0,002
907,6	-0,002
908	-0,002
908,5	-0,002
908,9	-0,002
909,3	-0,003
909,7	-0,003
910,2	-0,002
910,6	-0,003
911	-0,003
911,4	-0,002
911,9	-0,002
912,3	-0,002
912,7	-0,001
913,1	-0,001
913,6	-0,001
914	-0,001
914,4	-0,001
914,8	-0,002
915,3	-0,001
915,7	-0,001
916,1	-0,002
916,5	-0,002
916,9	-0,002
917,4	-0,002
917,8	-0,002
918,2	-0,002
918,6	-0,002
919,1	-0,002
919,5	-0,002
919,9	-0,002
920,3	-0,003
920,8	-0,003
921,2	-0,003
921,6	-0,004
922	-0,004
922,5	-0,004
922,9	-0,004
923,3	-0,004
923,7	-0,004
924,2	-0,004
924,6	-0,004
925	-0,004
925,4	-0,004
925,8	-0,004
926,3	-0,004
926,7	-0,004
927,1	-0,004
927,5	-0,003
928	-0,003
928,4	-0,003
928,8	-0,003
929,2	-0,003
929,7	-0,003
930,1	-0,003
930,5	-0,003
930,9	-0,004
931,3	-0,004
931,8	-0,004
932,2	-0,004
932,6	-0,004
933	-0,004
933,5	-0,004
933,9	-0,005
934,3	-0,005
934,7	-0,005
935,2	-0,005
935,6	-0,004
936	-0,004
936,4	-0,004
936,8	-0,004
937,3	-0,005
937,7	-0,004
938,1	-0,005
938,5	-0,005
939	-0,006
939,4	-0,006
939,8	-0,005
940,2	-0,005
940,6	-0,005
941,1	-0,005
941,5	-0,004
941,9	-0,004
942,3	-0,004
942,8	-0,004
943,2	-0,004
943,6	-0,004
944	-0,004
944,4	-0,004
944,9	-0,004
945,3	-0,005
945,7	-0,005
946,1	-0,005
946,6	-0,004
947	-0,005
947,4	-0,005
947,8	-0,005
948,2	-0,004
948,7	-0,004
949,1	-0,005
949,5	-0,006
949,9	-0,006
950,3	-0,007
950,8	-0,007
951,2	-0,007
951,6	-0,007
952	-0,007
952,5	-0,006
952,9	-0,006
953,3	-0,006
953,7	-0,007
954,1	-0,007
954,6	-0,007
955	-0,008
955,4	-0,008
955,8	-0,008
956,2	-0,008
956,7	-0,008
957,1	-0,008
957,5	-0,009
957,9	-0,009
958,3	-0,009
958,8	-0,009
959,2	-0,01
959,6	-0,01
960	-0,011
960,5	-0,011
960,9	-0,011
961,3	-0,011
961,7	-0,012
962,1	-0,012
962,6	-0,011
963	-0,011
963,4	-0,011
963,8	-0,01
964,2	-0,011
964,7	-0,01
965,1	-0,01
965,5	-0,01
965,9	-0,01
966,3	-0,01
966,8	-0,01
967,2	-0,009
967,6	-0,009
968	-0,009
968,4	-0,009
968,9	-0,009
969,3	-0,009
969,7	-0,008
970,1	-0,008
970,5	-0,007
971	-0,007
971,4	-0,008
971,8	-0,008
972,2	-0,008
972,6	-0,008
973,1	-0,009
973,5	-0,009
973,9	-0,009
974,3	-0,008
974,7	-0,008
975,2	-0,008
975,6	-0,008
976	-0,008
976,4	-0,007
976,8	-0,008
977,3	-0,008
977,7	-0,007
978,1	-0,008
978,5	-0,007
978,9	-0,007
979,4	-0,007
979,8	-0,007
980,2	-0,007
980,6	-0,007
981	-0,007
981,5	-0,007
981,9	-0,007
982,3	-0,007
982,7	-0,007
983,1	-0,006
983,6	-0,006
984	-0,006
984,4	-0,006
984,8	-0,007
985,2	-0,007
985,6	-0,007
986,1	-0,007
986,5	-0,007
986,9	-0,007
987,3	-0,007
987,7	-0,007
988,2	-0,006
988,6	-0,006
989	-0,006
989,4	-0,006
989,8	-0,006
990,3	-0,006
990,7	-0,006
991,1	-0,006
991,5	-0,006
991,9	-0,005
992,3	-0,005
992,8	-0,004
993,2	-0,004
993,6	-0,003
994	-0,003
994,4	-0,003
994,9	-0,003
995,3	-0,003
995,7	-0,003
996,1	-0,004
996,5	-0,004
996,9	-0,004
997,4	-0,004
997,8	-0,004
998,2	-0,004
998,6	-0,004
999	-0,003
999,5	-0,003
999,9	-0,004
1000,3	-0,004
1000,7	-0,004
1001,1	-0,004
1001,5	-0,004
1002	-0,004
1002,4	-0,003
1002,8	-0,002
1003,2	-0,002
1003,6	-0,002
1004	-0,001
1004,5	-0,002
1004,9	-0,003
1005,3	-0,002
1005,7	-0,002
1006,1	-0,002
1006,6	-0,002
1007	-0,003
1007,4	-0,002
1007,8	-0,001
1008,2	-0,001
1008,6	-0,001
1009,1	-0,001
1009,5	-0,001
1009,9	-0,001
1010,3	-0
1010,7	-0,001
1011,1	-0,001
1011,6	-0,002
1012	-0,002
1012,4	-0,002
1012,8	-0,002
1013,2	-0,002
1013,6	-0,002
1014,1	-0,002
1014,5	-0,002
1014,9	-0,002
1015,3	-0,002
1015,7	-0,002
1016,1	-0,002
1016,6	-0,003
1017	-0,002
1017,4	-0,002
1017,8	-0,002
1018,2	-0,002
1018,6	-0,002
1019,1	-0,001
1019,5	-0,001
1019,9	-0,001
1020,3	-0,001
1020,7	-0
1021,1	-0,001
1021,6	-0
1022	-0
1022,4	-0
1022,8	-0,001
1023,2	0
1023,6	0
1024,1	0,001
1024,5	0,001
1024,9	0,001
1025,3	0,001
1025,7	0,001
1026,1	0
1026,6	0
1027	-0
1027,4	-0
1027,8	-0,001
1028,2	0
1028,6	0
1029	0,001
1029,5	0,001
1029,9	0,001
1030,3	0,001
1030,7	0,001
1031,1	0
1031,5	0
1032	-0,001
1032,4	-0
1032,8	-0,001
1033,2	-0,001
1033,6	-0,002
1034	-0,002
1034,4	-0,002
1034,9	-0,002
1035,3	-0,002
1035,7	-0,002
1036,1	-0,002
1036,5	-0,002
1036,9	-0,001
1037,4	-0
1037,8	-0
1038,2	0
1038,6	-0
1039	0
1039,4	0
1039,8	-0,001
1040,3	-0,001
1040,7	-0,001
1041,1	-0,001
1041,5	0
1041,9	0,001
1042,3	0,001
1042,7	0,001
1043,2	0,002
1043,6	0,002
1044	0,001
1044,4	-0
1044,8	-0,001
1045,2	-0,001
1045,6	-0,002
1046,1	-0,002
1046,5	-0,002
1046,9	-0,003
1047,3	-0,002
1047,7	-0,002
1048,1	-0,002
1048,5	-0,002
1049	-0,002
1049,4	-0,003
1049,8	-0,002
1050,2	-0,002
1050,6	-0,003
1051	-0,002
1051,4	-0,001
1051,9	-0,002
1052,3	-0,001
1052,7	-0,001
1053,1	-0,002
1053,5	-0,001
1053,9	-0,001
1054,3	-0
1054,8	-0
1055,2	0,001
1055,6	0,001
1056	0,001
1056,4	-0
1056,8	0
1057,2	-0
1057,6	-0
1058,1	-0,001
1058,5	-0
1058,9	0
1059,3	0,001
1059,7	0,001
1060,1	0
1060,5	0,001
1061	0
1061,4	-0,001
1061,8	-0,001
1062,2	-0,001
1062,6	-0,001
1063	-0
1063,4	-0
1063,8	-0
1064,3	-0
1064,7	-0
1065,1	-0,001
1065,5	-0,001
1065,9	-0,001
1066,3	-0,001
1066,7	-0
1067,1	0
1067,6	0
1068	0,001
1068,4	0,001
1068,8	-0
1069,2	-0
1069,6	-0,001
1070	-0,001
1070,4	-0,001
1070,9	-0,001
1071,3	-0
1071,7	-0
1072,1	-0,001
1072,5	-0
1072,9	0
1073,3	-0
1073,7	-0,001
1074,2	-0,001
1074,6	-0,001
1075	-0,001
1075,4	-0,002
1075,8	-0,001
1076,2	-0
1076,6	-0
1077	-0,001
1077,5	-0
1077,9	-0
1078,3	0
1078,7	0
1079,1	0,001
1079,5	0,002
1079,9	0,002
1080,3	0,001
1080,7	0,002
1081,2	0,002
1081,6	0
1082	-0,003
1082,4	-0,004
1082,8	-0,005
1083,2	-0,005
1083,6	-0,006
1084	-0,007
1084,5	-0,006
1084,9	-0,005
1085,3	-0,005
1085,7	-0,003
1086,1	-0,003
1086,5	-0,002
1086,9	0
1087,3	0,002
1087,7	0
1088,2	0,001
1088,6	-0
1089	-0
1089,4	-0,001
1089,8	-0
1090,2	-0,004
1090,6	-0,001
1091	-0,001
1091,4	-0,001
1091,9	-0,001
1092,3	-0,001
1092,7	-0,004
1093,1	-0,002
1093,5	-0,001
1093,9	-0,001
1094,3	0,002
1094,7	-0,001
1095,1	0,002
1095,5	0,001
1096	0,002
1096,4	0,003
1096,8	0,006
1097,2	0
1097,6	0
1098	-0,001
1098,4	0,003
1098,8	-0,003
1099,2	-0,01
1099,6	-0,014
1100,1	-0,011
1100,5	-0,012
1100,9	-0,012
1101,3	-0,004
1101,7	-0,007
1102,1	-0,004
1102,5	-0,004
1102,9	-0,007
1103,3	-0,007
1103,7	-0,006
1104,2	-0,017
1104,6	-0,01
1105	-0,018
1105,4	-0,017
1105,8	-0
1106,2	-0,008
1106,6	-0,021
1107	-0,027
1107,4	-0,039
1107,8	0
1108,3	0,152
