Data from Absorbance_00037.txt Node
Date: Wed Aug 02 14:26:50 MSK 2023
User: vat
Spectrometer: MAYP114033
Trigger mode: 0
Integration Time (sec): 8,000000E-3
Scans to average: 10
Electric dark correction enabled: true
Nonlinearity correction enabled: false
Boxcar width: 3
XAxis mode: Wavelengths
Number of Pixels in Spectrum: 2068
>>>>>Begin Spectral Data<<<<<
199,4	-0,762
199,9	-0,186
200,4	0,231
200,8	0,617
201,3	0,8
201,8	0,855
202,2	0,902
202,7	0,932
203,2	1
203,6	1,02
204,1	1,037
204,6	1,044
205	1,054
205,5	1,064
206	1,067
206,4	1,059
206,9	1,072
207,4	1,094
207,8	1,108
208,3	1,126
208,8	1,123
209,2	1,158
209,7	1,179
210,2	1,209
210,6	1,222
211,1	1,225
211,5	1,248
212	1,298
212,5	1,293
212,9	1,316
213,4	1,339
213,9	1,339
214,3	1,368
214,8	1,377
215,3	1,362
215,7	1,385
216,2	1,387
216,7	1,376
217,1	1,398
217,6	1,396
218,1	1,415
218,5	1,435
219	1,441
219,5	1,461
219,9	1,5
220,4	1,53
220,9	1,542
221,3	1,55
221,8	1,562
222,3	1,574
222,7	1,601
223,2	1,608
223,6	1,609
224,1	1,638
224,6	1,65
225	1,659
225,5	1,673
226	1,688
226,4	1,698
226,9	1,703
227,4	1,722
227,8	1,719
228,3	1,754
228,8	1,788
229,2	1,777
229,7	1,799
230,2	1,792
230,6	1,801
231,1	1,826
231,5	1,831
232	1,825
232,5	1,843
232,9	1,845
233,4	1,889
233,9	1,893
234,3	1,894
234,8	1,906
235,3	1,92
235,7	1,93
236,2	1,933
236,7	1,931
237,1	1,931
237,6	1,942
238,1	1,948
238,5	1,955
239	1,962
239,4	1,97
239,9	1,971
240,4	1,985
240,8	1,999
241,3	1,995
241,8	2,005
242,2	2,015
242,7	2,017
243,2	2,02
243,6	2,034
244,1	2,027
244,6	2,043
245	2,05
245,5	2,046
245,9	2,038
246,4	2,055
246,9	2,056
247,3	2,071
247,8	2,082
248,3	2,071
248,7	2,059
249,2	2,078
249,7	2,069
250,1	2,065
250,6	2,07
251	2,049
251,5	2,049
252	2,06
252,4	2,054
252,9	2,057
253,4	2,051
253,8	2,05
254,3	2,063
254,8	2,076
255,2	2,084
255,7	2,084
256,1	2,105
256,6	2,128
257,1	2,141
257,5	2,138
258	2,151
258,5	2,154
258,9	2,151
259,4	2,128
259,9	2,106
260,3	2,096
260,8	2,094
261,2	2,078
261,7	2,082
262,2	2,089
262,6	2,111
263,1	2,122
263,6	2,106
264	2,112
264,5	2,113
264,9	2,101
265,4	2,108
265,9	2,088
266,3	2,089
266,8	2,11
267,3	2,103
267,7	2,107
268,2	2,124
268,7	2,131
269,1	2,129
269,6	2,143
270	2,124
270,5	2,151
271	2,134
271,4	2,125
271,9	2,105
272,4	2,101
272,8	2,104
273,3	2,117
273,7	2,099
274,2	2,13
274,7	2,127
275,1	2,147
275,6	2,168
276,1	2,16
276,5	2,179
277	2,176
277,4	2,174
277,9	2,185
278,4	2,194
278,8	2,207
279,3	2,223
279,8	2,222
280,2	2,233
280,7	2,214
281,1	2,222
281,6	2,241
282,1	2,221
282,5	2,204
283	2,196
283,4	2,191
283,9	2,19
284,4	2,196
284,8	2,188
285,3	2,197
285,8	2,207
286,2	2,208
286,7	2,199
287,1	2,188
287,6	2,162
288,1	2,143
288,5	2,121
289	2,09
289,5	2,086
289,9	2,067
290,4	2,057
290,8	2,051
291,3	2,038
291,8	2,02
292,2	2,011
292,7	1,988
293,1	1,981
293,6	1,968
294,1	1,953
294,5	1,934
295	1,93
295,5	1,921
295,9	1,913
296,4	1,916
296,8	1,908
297,3	1,905
297,8	1,905
298,2	1,896
298,7	1,885
299,1	1,871
299,6	1,86
300,1	1,859
300,5	1,846
301	1,833
301,5	1,832
301,9	1,826
302,4	1,822
302,8	1,813
303,3	1,811
303,8	1,809
304,2	1,805
304,7	1,796
305,1	1,792
305,6	1,786
306,1	1,774
306,5	1,756
307	1,742
307,4	1,734
307,9	1,724
308,4	1,711
308,8	1,7
309,3	1,69
309,8	1,686
310,2	1,675
310,7	1,66
311,1	1,649
311,6	1,641
312,1	1,633
312,5	1,623
313	1,607
313,4	1,598
313,9	1,584
314,4	1,571
314,8	1,553
315,3	1,536
315,7	1,524
316,2	1,509
316,7	1,495
317,1	1,481
317,6	1,468
318	1,46
318,5	1,448
319	1,437
319,4	1,425
319,9	1,409
320,3	1,399
320,8	1,384
321,3	1,369
321,7	1,358
322,2	1,34
322,6	1,327
323,1	1,314
323,6	1,301
324	1,289
324,5	1,275
324,9	1,259
325,4	1,246
325,9	1,231
326,3	1,218
326,8	1,205
327,2	1,189
327,7	1,174
328,2	1,16
328,6	1,145
329,1	1,129
329,5	1,114
330	1,097
330,5	1,084
330,9	1,069
331,4	1,057
331,8	1,042
332,3	1,028
332,8	1,015
333,2	1,001
333,7	0,985
334,1	0,97
334,6	0,957
335,1	0,943
335,5	0,93
336	0,915
336,4	0,901
336,9	0,888
337,4	0,875
337,8	0,858
338,3	0,847
338,7	0,833
339,2	0,82
339,7	0,808
340,1	0,795
340,6	0,782
341	0,771
341,5	0,758
342	0,746
342,4	0,733
342,9	0,72
343,3	0,709
343,8	0,697
344,2	0,684
344,7	0,672
345,2	0,66
345,6	0,65
346,1	0,639
346,5	0,627
347	0,616
347,5	0,606
347,9	0,595
348,4	0,585
348,8	0,574
349,3	0,564
349,8	0,553
350,2	0,543
350,7	0,533
351,1	0,523
351,6	0,514
352	0,505
352,5	0,495
353	0,486
353,4	0,478
353,9	0,469
354,3	0,461
354,8	0,452
355,3	0,444
355,7	0,436
356,2	0,428
356,6	0,421
357,1	0,413
357,5	0,406
358	0,399
358,5	0,391
358,9	0,385
359,4	0,378
359,8	0,372
360,3	0,365
360,8	0,358
361,2	0,352
361,7	0,346
362,1	0,34
362,6	0,334
363	0,327
363,5	0,322
364	0,317
364,4	0,31
364,9	0,305
365,3	0,299
365,8	0,294
366,3	0,288
366,7	0,284
367,2	0,279
367,6	0,276
368,1	0,272
368,5	0,268
369	0,264
369,5	0,261
369,9	0,257
370,4	0,252
370,8	0,248
371,3	0,244
371,7	0,24
372,2	0,236
372,7	0,233
373,1	0,228
373,6	0,224
374	0,221
374,5	0,219
374,9	0,216
375,4	0,213
375,9	0,21
376,3	0,207
376,8	0,203
377,2	0,2
377,7	0,196
378,2	0,192
378,6	0,189
379,1	0,186
379,5	0,184
380	0,183
380,4	0,181
380,9	0,178
381,4	0,176
381,8	0,173
382,3	0,17
382,7	0,168
383,2	0,164
383,6	0,162
384,1	0,16
384,6	0,157
385	0,155
385,5	0,153
385,9	0,152
386,4	0,149
386,8	0,148
387,3	0,146
387,7	0,145
388,2	0,142
388,7	0,14
389,1	0,138
389,6	0,136
390	0,134
390,5	0,131
390,9	0,129
391,4	0,127
391,9	0,125
392,3	0,122
392,8	0,121
393,2	0,12
393,7	0,118
394,1	0,116
394,6	0,115
395,1	0,113
395,5	0,112
396	0,111
396,4	0,11
396,9	0,108
397,3	0,106
397,8	0,104
398,2	0,103
398,7	0,101
399,2	0,099
399,6	0,097
400,1	0,096
400,5	0,095
401	0,094
401,4	0,092
401,9	0,091
402,4	0,089
402,8	0,088
403,3	0,086
403,7	0,084
404,2	0,082
404,6	0,081
405,1	0,08
405,5	0,079
406	0,078
406,5	0,077
406,9	0,076
407,4	0,075
407,8	0,073
408,3	0,072
408,7	0,07
409,2	0,069
409,6	0,066
410,1	0,065
410,6	0,063
411	0,062
411,5	0,061
411,9	0,061
412,4	0,059
412,8	0,059
413,3	0,058
413,7	0,057
414,2	0,056
414,7	0,055
415,1	0,053
415,6	0,052
416	0,051
416,5	0,05
416,9	0,048
417,4	0,048
417,8	0,047
418,3	0,045
418,8	0,043
419,2	0,042
419,7	0,041
420,1	0,04
420,6	0,039
421	0,038
421,5	0,037
421,9	0,037
422,4	0,035
422,8	0,034
423,3	0,034
423,8	0,033
424,2	0,032
424,7	0,031
425,1	0,03
425,6	0,03
426	0,029
426,5	0,028
426,9	0,027
427,4	0,026
427,9	0,026
428,3	0,025
428,8	0,024
429,2	0,023
429,7	0,023
430,1	0,022
430,6	0,022
431	0,021
431,5	0,02
431,9	0,019
432,4	0,018
432,8	0,018
433,3	0,017
433,8	0,015
434,2	0,016
434,7	0,015
435,1	0,015
435,6	0,015
436	0,014
436,5	0,013
436,9	0,013
437,4	0,012
437,8	0,012
438,3	0,01
438,8	0,01
439,2	0,01
439,7	0,01
440,1	0,009
440,6	0,008
441	0,007
441,5	0,007
441,9	0,007
442,4	0,007
442,8	0,006
443,3	0,006
443,7	0,006
444,2	0,006
444,7	0,006
445,1	0,005
445,6	0,005
446	0,005
446,5	0,005
446,9	0,005
447,4	0,005
447,8	0,005
448,3	0,004
448,7	0,003
449,2	0,003
449,6	0,002
450,1	0,001
450,6	0,001
451	0,002
451,5	0,001
451,9	0,002
452,4	0,002
452,8	0,002
453,3	0,003
453,7	0,003
454,2	0,002
454,6	0,003
455,1	0,003
455,5	0,002
456	0,002
456,4	0,001
456,9	-0
457,3	-0,001
457,8	-0,001
458,3	-0,001
458,7	-0,001
459,2	-0,001
459,6	-0,001
460,1	-0
460,5	-0,001
461	-0,001
461,4	-0,001
461,9	-0,001
462,3	-0,001
462,8	-0
463,2	-0,001
463,7	-0,001
464,1	-0,001
464,6	-0,001
465	-0,002
465,5	-0,002
466	-0,003
466,4	-0,002
466,9	-0,002
467,3	-0,002
467,8	-0,002
468,2	-0,002
468,7	-0,002
469,1	-0,002
469,6	-0,002
470	-0,001
470,5	-0,002
470,9	-0,002
471,4	-0,002
471,8	-0,003
472,3	-0,003
472,7	-0,003
473,2	-0,003
473,6	-0,003
474,1	-0,003
474,5	-0,002
475	-0,002
475,4	-0,002
475,9	-0,002
476,4	-0,002
476,8	-0,002
477,3	-0,002
477,7	-0,002
478,2	-0,001
478,6	-0,001
479,1	-0,001
479,5	-0,001
480	-0,001
480,4	-0,002
480,9	-0,002
481,3	-0,003
481,8	-0,004
482,2	-0,004
482,7	-0,004
483,1	-0,004
483,6	-0,004
484	-0,005
484,5	-0,005
484,9	-0,004
485,4	-0,005
485,8	-0,005
486,3	-0
486,7	-0,001
487,2	-0,002
487,6	-0,002
488,1	-0,002
488,5	-0,002
489	-0,002
489,4	-0,007
489,9	-0,006
490,4	-0,004
490,8	-0,002
491,3	-0,002
491,7	-0,002
492,2	-0,001
492,6	-0,001
493,1	-0,001
493,5	-0,002
494	-0,002
494,4	-0,002
494,9	-0,001
495,3	-0,001
495,8	-0,002
496,2	-0,002
496,7	-0,002
497,1	-0,001
497,6	-0,001
498	-0,002
498,5	-0,002
498,9	-0,001
499,4	-0,002
499,8	-0,002
500,3	-0,003
500,7	-0,003
501,2	-0,003
501,6	-0,003
502,1	-0,004
502,5	-0,003
503	-0,003
503,4	-0,002
503,9	-0,001
504,3	-0,002
504,8	-0,003
505,2	-0,002
505,7	-0,002
506,1	-0,002
506,6	-0,003
507	-0,003
507,5	-0,004
507,9	-0,004
508,4	-0,004
508,8	-0,004
509,3	-0,004
509,7	-0,003
510,2	-0,003
510,6	-0,002
511,1	-0,003
511,5	-0,003
512	-0,003
512,4	-0,003
512,9	-0,003
513,3	-0,003
513,8	-0,003
514,2	-0,002
514,7	-0,001
515,1	-0,001
515,6	-0,001
516	-0,002
516,5	-0,001
516,9	-0,001
517,4	-0,002
517,8	-0,003
518,3	-0,003
518,7	-0,002
519,2	-0,003
519,6	-0,003
520,1	-0,002
520,5	-0,003
521	-0,003
521,4	-0,002
521,9	-0,002
522,3	-0,002
522,8	-0,002
523,2	-0,003
523,7	-0,002
524,1	-0,002
524,6	-0,003
525	-0,003
525,5	-0,002
525,9	-0,002
526,4	-0,003
526,8	-0,003
527,3	-0,003
527,7	-0,003
528,2	-0,003
528,6	-0,003
529,1	-0,002
529,5	-0,002
530	-0,002
530,4	-0,002
530,9	-0,002
531,3	-0,002
531,8	-0,003
532,2	-0,003
532,6	-0,003
533,1	-0,003
533,5	-0,003
534	-0,003
534,4	-0,003
534,9	-0,003
535,3	-0,003
535,8	-0,003
536,2	-0,003
536,7	-0,002
537,1	-0,002
537,6	-0,002
538	-0,002
538,5	-0,002
538,9	-0,002
539,4	-0,003
539,8	-0,003
540,3	-0,003
540,7	-0,003
541,2	-0,003
541,6	-0,003
542,1	-0,003
542,5	-0,003
543	-0,003
543,4	-0,003
543,9	-0,003
544,3	-0,003
544,8	-0,003
545,2	-0,002
545,7	-0,002
546,1	-0,002
546,5	-0,001
547	-0,002
547,4	-0,002
547,9	-0,002
548,3	-0,003
548,8	-0,003
549,2	-0,003
549,7	-0,003
550,1	-0,004
550,6	-0,004
551	-0,005
551,5	-0,005
551,9	-0,004
552,4	-0,004
552,8	-0,004
553,3	-0,004
553,7	-0,003
554,2	-0,003
554,6	-0,002
555,1	-0,003
555,5	-0,003
555,9	-0,003
556,4	-0,004
556,8	-0,004
557,3	-0,004
557,7	-0,004
558,2	-0,004
558,6	-0,004
559,1	-0,004
559,5	-0,003
560	-0,004
560,4	-0,004
560,9	-0,004
561,3	-0,004
561,8	-0,004
562,2	-0,003
562,7	-0,003
563,1	-0,003
563,6	-0,002
564	-0,002
564,4	-0,001
564,9	-0,001
565,3	-0,001
565,8	-0,002
566,2	-0,002
566,7	-0,002
567,1	-0,002
567,6	-0,002
568	-0,002
568,5	-0,003
568,9	-0,003
569,4	-0,002
569,8	-0,002
570,3	-0,002
570,7	-0,003
571,1	-0,002
571,6	-0,002
572	-0,002
572,5	-0,003
572,9	-0,003
573,4	-0,002
573,8	-0,002
574,3	-0,002
574,7	-0,002
575,2	-0,003
575,6	-0,002
576,1	-0,002
576,5	-0,003
576,9	-0,003
577,4	-0,002
577,8	-0,002
578,3	-0,002
578,7	-0,002
579,2	-0,002
579,6	-0,002
580,1	-0,002
580,5	-0,003
581	-0,003
581,4	-0,002
581,9	-0,002
582,3	-0,002
582,7	-0,002
583,2	-0,003
583,6	-0,003
584,1	-0,002
584,5	-0,002
585	-0,002
585,4	-0,002
585,9	-0,001
586,3	-0,001
586,8	-0
587,2	-0,001
587,6	-0,001
588,1	-0,001
588,5	-0,001
589	-0,002
589,4	-0,002
589,9	-0,002
590,3	-0,001
590,8	-0,002
591,2	-0,001
591,7	-0,002
592,1	-0,002
592,5	-0,001
593	-0
593,4	-0,001
593,9	-0,001
594,3	-0,002
594,8	-0,001
595,2	-0,001
595,7	-0,002
596,1	-0,002
596,6	-0,002
597	-0,002
597,4	-0,002
597,9	-0,002
598,3	-0,002
598,8	-0,002
599,2	-0,002
599,7	-0,002
600,1	-0,002
600,6	-0,002
601	-0,002
601,4	-0,002
601,9	-0,003
602,3	-0,003
602,8	-0,002
603,2	-0,002
603,7	-0,002
604,1	-0,003
604,6	-0,002
605	-0,002
605,4	-0,002
605,9	-0,002
606,3	-0,003
606,8	-0,003
607,2	-0,002
607,7	-0,002
608,1	-0,002
608,6	-0,002
609	-0,001
609,4	-0,001
609,9	-0,001
610,3	-0,001
610,8	-0,002
611,2	-0,002
611,7	-0,001
612,1	-0,002
612,6	-0,002
613	-0,002
613,4	-0,002
613,9	-0,002
614,3	-0,002
614,8	-0,003
615,2	-0,002
615,7	-0,002
616,1	-0,002
616,6	-0,002
617	-0,002
617,4	-0,002
617,9	-0,002
618,3	-0,003
618,8	-0,003
619,2	-0,002
619,7	-0,002
620,1	-0,002
620,5	-0,002
621	-0,002
621,4	-0,002
621,9	-0,001
622,3	-0,002
622,8	-0,002
623,2	-0,002
623,6	-0,002
624,1	-0,002
624,5	-0,002
625	-0,003
625,4	-0,003
625,9	-0,002
626,3	-0,002
626,8	-0,002
627,2	-0,002
627,6	-0,002
628,1	-0,002
628,5	-0,002
629	-0,002
629,4	-0,002
629,9	-0,002
630,3	-0,002
630,7	-0,001
631,2	-0,002
631,6	-0,001
632,1	-0,002
632,5	-0,002
633	-0,001
633,4	-0,002
633,8	-0,002
634,3	-0,001
634,7	-0,001
635,2	-0,001
635,6	-0,001
636,1	-0,002
636,5	-0,001
636,9	-0,002
637,4	-0,002
637,8	-0,002
638,3	-0,003
638,7	-0,003
639,2	-0,003
639,6	-0,003
640	-0,003
640,5	-0,003
640,9	-0,003
641,4	-0,003
641,8	-0,003
642,2	-0,003
642,7	-0,003
643,1	-0,003
643,6	-0,004
644	-0,004
644,5	-0,003
644,9	-0,003
645,3	-0,003
645,8	-0,003
646,2	-0,003
646,7	-0,003
647,1	-0,003
647,6	-0,004
648	-0,003
648,4	-0,003
648,9	-0,003
649,3	-0,002
649,8	-0,002
650,2	-0,003
650,6	-0,002
651,1	-0,003
651,5	-0,003
652	-0,003
652,4	-0,003
652,9	-0,003
653,3	-0,004
653,7	-0,004
654,2	-0,005
654,6	-0,008
655,1	-0,012
655,5	-0,007
655,9	-0,005
656,4	-0,004
656,8	-0,005
657,3	-0,004
657,7	-0,003
658,2	-0,001
658,6	-0
659	0
659,5	0,002
659,9	0,011
660,4	0,013
660,8	0,012
661,2	0,01
661,7	0,008
662,1	0,005
662,6	0,003
663	0,002
663,4	0,001
663,9	0
664,3	-0
664,8	-0,001
665,2	-0,001
665,6	-0,002
666,1	-0,002
666,5	-0,002
667	-0,002
667,4	-0,002
667,9	-0,002
668,3	-0,003
668,7	-0,003
669,2	-0,002
669,6	-0,002
670,1	-0,003
670,5	-0,003
670,9	-0,003
671,4	-0,003
671,8	-0,003
672,3	-0,003
672,7	-0,003
673,1	-0,003
673,6	-0,003
674	-0,002
674,5	-0,003
674,9	-0,002
675,3	-0,002
675,8	-0,002
676,2	-0,002
676,7	-0,001
677,1	-0,002
677,5	-0,002
678	-0,002
678,4	-0,002
678,9	-0,002
679,3	-0,002
679,7	-0,002
680,2	-0,002
680,6	-0,002
681,1	-0,002
681,5	-0,002
681,9	-0,003
682,4	-0,003
682,8	-0,004
683,3	-0,003
683,7	-0,003
684,1	-0,004
684,6	-0,003
685	-0,003
685,5	-0,003
685,9	-0,003
686,3	-0,003
686,8	-0,003
687,2	-0,002
687,7	-0,003
688,1	-0,003
688,5	-0,003
689	-0,002
689,4	-0,002
689,9	-0,002
690,3	-0,002
690,7	-0,002
691,2	-0,002
691,6	-0,002
692	-0,002
692,5	-0,003
692,9	-0,003
693,4	-0,003
693,8	-0,003
694,2	-0,003
694,7	-0,003
695,1	-0,002
695,6	-0,002
696	-0,003
696,4	-0,003
696,9	-0,002
697,3	-0,002
697,8	-0,003
698,2	-0,003
698,6	-0,002
699,1	-0,002
699,5	-0,003
699,9	-0,003
700,4	-0,002
700,8	-0,002
701,3	-0,002
701,7	-0,002
702,1	-0,003
702,6	-0,002
703	-0,003
703,5	-0,003
703,9	-0,003
704,3	-0,003
704,8	-0,003
705,2	-0,003
705,6	-0,003
706,1	-0,004
706,5	-0,004
707	-0,004
707,4	-0,004
707,8	-0,004
708,3	-0,004
708,7	-0,003
709,2	-0,003
709,6	-0,003
710	-0,003
710,5	-0,003
710,9	-0,003
711,3	-0,003
711,8	-0,003
712,2	-0,003
712,7	-0,002
713,1	-0,003
713,5	-0,002
714	-0,002
714,4	-0,002
714,8	-0,001
715,3	-0,002
715,7	-0,002
716,2	-0,002
716,6	-0,002
717	-0,002
717,5	-0,002
717,9	-0,002
718,3	-0,001
718,8	-0,002
719,2	-0,002
719,7	-0,002
720,1	-0,002
720,5	-0,002
721	-0,002
721,4	-0,002
721,8	-0,002
722,3	-0,002
722,7	-0,002
723,2	-0,002
723,6	-0,002
724	-0,002
724,5	-0,002
724,9	-0,002
725,3	-0,002
725,8	-0,002
726,2	-0,002
726,7	-0,002
727,1	-0,002
727,5	-0,002
728	-0,002
728,4	-0,002
728,8	-0,002
729,3	-0,002
729,7	-0,001
730,1	-0,001
730,6	-0,001
731	-0,001
731,5	-0,001
731,9	-0,002
732,3	-0,002
732,8	-0,002
733,2	-0,003
733,6	-0,003
734,1	-0,003
734,5	-0,003
734,9	-0,003
735,4	-0,003
735,8	-0,003
736,3	-0,003
736,7	-0,003
737,1	-0,003
737,6	-0,003
738	-0,002
738,4	-0,002
738,9	-0,002
739,3	-0,002
739,7	-0,002
740,2	-0,003
740,6	-0,002
741,1	-0,003
741,5	-0,003
741,9	-0,003
742,4	-0,003
742,8	-0,003
743,2	-0,002
743,7	-0,002
744,1	-0,002
744,5	-0,002
745	-0,002
745,4	-0,001
745,8	-0,001
746,3	-0,001
746,7	-0,002
747,2	-0,002
747,6	-0,002
748	-0,002
748,5	-0,002
748,9	-0,003
749,3	-0,003
749,8	-0,003
750,2	-0,003
750,6	-0,003
751,1	-0,004
751,5	-0,004
751,9	-0,004
752,4	-0,004
752,8	-0,004
753,3	-0,004
753,7	-0,004
754,1	-0,004
754,6	-0,003
755	-0,003
755,4	-0,003
755,9	-0,002
756,3	-0,002
756,7	-0,002
757,2	-0,001
757,6	-0,002
758	-0,002
758,5	-0,002
758,9	-0,002
759,3	-0,001
759,8	-0,002
760,2	-0,002
760,6	-0,001
761,1	-0,001
761,5	-0,001
761,9	-0,001
762,4	-0,001
762,8	-0,001
763,3	-0,001
763,7	-0,001
764,1	-0,001
764,6	-0,002
765	-0,002
765,4	-0,002
765,9	-0,003
766,3	-0,002
766,7	-0,002
767,2	-0,002
767,6	-0,002
768	-0,002
768,5	-0,002
768,9	-0,002
769,3	-0,003
769,8	-0,003
770,2	-0,003
770,6	-0,004
771,1	-0,004
771,5	-0,004
771,9	-0,004
772,4	-0,003
772,8	-0,003
773,2	-0,004
773,7	-0,003
774,1	-0,003
774,5	-0,003
775	-0,003
775,4	-0,003
775,8	-0,003
776,3	-0,002
776,7	-0,003
777,1	-0,003
777,6	-0,003
778	-0,003
778,4	-0,003
778,9	-0,003
779,3	-0,003
779,7	-0,002
780,2	-0,002
780,6	-0,002
781	-0,002
781,5	-0,003
781,9	-0,003
782,3	-0,003
782,8	-0,003
783,2	-0,003
783,6	-0,003
784,1	-0,004
784,5	-0,003
784,9	-0,003
785,4	-0,003
785,8	-0,003
786,2	-0,003
786,7	-0,003
787,1	-0,003
787,5	-0,003
788	-0,003
788,4	-0,003
788,8	-0,003
789,3	-0,003
789,7	-0,003
790,1	-0,003
790,6	-0,002
791	-0,002
791,4	-0,002
791,9	-0,002
792,3	-0,002
792,7	-0,002
793,2	-0,003
793,6	-0,003
794	-0,003
794,5	-0,003
794,9	-0,003
795,3	-0,003
795,8	-0,003
796,2	-0,003
796,6	-0,003
797,1	-0,002
797,5	-0,002
797,9	-0,002
798,4	-0,002
798,8	-0,002
799,2	-0,002
799,7	-0,002
800,1	-0,002
800,5	-0,002
801	-0,002
801,4	-0,002
801,8	-0,002
802,2	-0,002
802,7	-0,002
803,1	-0,002
803,5	-0,002
804	-0,002
804,4	-0,002
804,8	-0,003
805,3	-0,003
805,7	-0,003
806,1	-0,003
806,6	-0,003
807	-0,003
807,4	-0,002
807,9	-0,002
808,3	-0,002
808,7	-0,002
809,2	-0,002
809,6	-0,002
810	-0,002
810,4	-0,002
810,9	-0,002
811,3	-0,002
811,7	-0,003
812,2	-0,002
812,6	-0,002
813	-0,003
813,5	-0,003
813,9	-0,003
814,3	-0,003
814,8	-0,003
815,2	-0,003
815,6	-0,002
816,1	-0,002
816,5	-0,002
816,9	-0,002
817,3	-0,002
817,8	-0,002
818,2	-0,002
818,6	-0,002
819,1	-0,002
819,5	-0,002
819,9	-0,002
820,4	-0,002
820,8	-0,003
821,2	-0,003
821,7	-0,003
822,1	-0,003
822,5	-0,003
822,9	-0,002
823,4	-0,002
823,8	-0,001
824,2	-0,001
824,7	-0,001
825,1	-0,001
825,5	-0,001
826	-0,001
826,4	-0,001
826,8	-0,001
827,3	-0,002
827,7	-0,002
828,1	-0,002
828,5	-0,003
829	-0,003
829,4	-0,003
829,8	-0,003
830,3	-0,003
830,7	-0,003
831,1	-0,003
831,6	-0,003
832	-0,003
832,4	-0,002
832,8	-0,003
833,3	-0,002
833,7	-0,002
834,1	-0,002
834,6	-0,002
835	-0,003
835,4	-0,003
835,8	-0,003
836,3	-0,003
836,7	-0,003
837,1	-0,002
837,6	-0,002
838	-0,002
838,4	-0,002
838,9	-0,002
839,3	-0,002
839,7	-0,002
840,1	-0,003
840,6	-0,003
841	-0,003
841,4	-0,003
841,9	-0,003
842,3	-0,003
842,7	-0,002
843,1	-0,002
843,6	-0,003
844	-0,003
844,4	-0,003
844,9	-0,003
845,3	-0,003
845,7	-0,004
846,2	-0,004
846,6	-0,003
847	-0,004
847,4	-0,004
847,9	-0,004
848,3	-0,004
848,7	-0,003
849,2	-0,003
849,6	-0,003
850	-0,002
850,4	-0,002
850,9	-0,002
851,3	-0,002
851,7	-0,002
852,2	-0,002
852,6	-0,002
853	-0,003
853,4	-0,003
853,9	-0,003
854,3	-0,003
854,7	-0,002
855,2	-0,003
855,6	-0,002
856	-0,002
856,4	-0,002
856,9	-0,002
857,3	-0,002
857,7	-0,002
858,2	-0,002
858,6	-0,003
859	-0,003
859,4	-0,003
859,9	-0,003
860,3	-0,002
860,7	-0,002
861,1	-0,002
861,6	-0,002
862	-0,002
862,4	-0,002
862,9	-0,002
863,3	-0,003
863,7	-0,003
864,1	-0,003
864,6	-0,003
865	-0,003
865,4	-0,003
865,9	-0,003
866,3	-0,003
866,7	-0,003
867,1	-0,003
867,6	-0,003
868	-0,003
868,4	-0,003
868,8	-0,003
869,3	-0,003
869,7	-0,002
870,1	-0,003
870,6	-0,003
871	-0,003
871,4	-0,002
871,8	-0,002
872,3	-0,003
872,7	-0,003
873,1	-0,004
873,5	-0,004
874	-0,004
874,4	-0,004
874,8	-0,005
875,3	-0,005
875,7	-0,004
876,1	-0,004
876,5	-0,004
877	-0,003
877,4	-0,003
877,8	-0,003
878,2	-0,003
878,7	-0,003
879,1	-0,003
879,5	-0,004
879,9	-0,004
880,4	-0,004
880,8	-0,004
881,2	-0,003
881,7	-0,004
882,1	-0,003
882,5	-0,003
882,9	-0,004
883,4	-0,004
883,8	-0,004
884,2	-0,004
884,6	-0,004
885,1	-0,004
885,5	-0,004
885,9	-0,004
886,3	-0,004
886,8	-0,003
887,2	-0,004
887,6	-0,004
888	-0,003
888,5	-0,003
888,9	-0,003
889,3	-0,003
889,8	-0,003
890,2	-0,003
890,6	-0,002
891	-0,002
891,5	-0,002
891,9	-0,002
892,3	-0,002
892,7	-0,002
893,2	-0,002
893,6	-0,002
894	-0,002
894,4	-0,002
894,9	-0,002
895,3	-0,002
895,7	-0,002
896,1	-0,003
896,6	-0,003
897	-0,003
897,4	-0,002
897,8	-0,002
898,3	-0,002
898,7	-0,002
899,1	-0,002
899,5	-0,002
900	-0,002
900,4	-0,002
900,8	-0,003
901,2	-0,003
901,7	-0,003
902,1	-0,003
902,5	-0,003
902,9	-0,003
903,4	-0,003
903,8	-0,002
904,2	-0,003
904,6	-0,003
905,1	-0,003
905,5	-0,002
905,9	-0,002
906,3	-0,002
906,8	-0,001
907,2	-0,001
907,6	-0,001
908	-0,001
908,5	-0,001
908,9	-0,001
909,3	-0,001
909,7	-0,001
910,2	-0
910,6	-0
911	-0
911,4	-0
911,9	0
912,3	-0
912,7	-0
913,1	-0
913,6	-0
914	-0
914,4	-0
914,8	-0,001
915,3	-0,001
915,7	-0,001
916,1	-0,001
916,5	-0,001
916,9	-0,001
917,4	-0,001
917,8	-0,001
918,2	-0,001
918,6	-0
919,1	-0,001
919,5	-0,001
919,9	-0,001
920,3	-0,001
920,8	-0,001
921,2	-0,001
921,6	-0,001
922	-0,001
922,5	-0,001
922,9	-0,001
923,3	-0,001
923,7	-0,001
924,2	-0,001
924,6	-0,001
925	-0,001
925,4	-0,001
925,8	-0,001
926,3	-0,002
926,7	-0,002
927,1	-0,002
927,5	-0,002
928	-0,002
928,4	-0,002
928,8	-0,002
929,2	-0,002
929,7	-0,002
930,1	-0,002
930,5	-0,002
930,9	-0,002
931,3	-0,002
931,8	-0,002
932,2	-0,003
932,6	-0,003
933	-0,003
933,5	-0,003
933,9	-0,003
934,3	-0,003
934,7	-0,004
935,2	-0,003
935,6	-0,003
936	-0,003
936,4	-0,003
936,8	-0,002
937,3	-0,002
937,7	-0,002
938,1	-0,002
938,5	-0,002
939	-0,003
939,4	-0,003
939,8	-0,002
940,2	-0,001
940,6	-0,001
941,1	-0,001
941,5	-0,001
941,9	-0
942,3	-0
942,8	-0,001
943,2	-0,001
943,6	-0,001
944	-0,001
944,4	-0,001
944,9	-0,002
945,3	-0,002
945,7	-0,003
946,1	-0,003
946,6	-0,003
947	-0,003
947,4	-0,004
947,8	-0,003
948,2	-0,003
948,7	-0,003
949,1	-0,003
949,5	-0,003
949,9	-0,003
950,3	-0,003
950,8	-0,004
951,2	-0,003
951,6	-0,003
952	-0,003
952,5	-0,003
952,9	-0,003
953,3	-0,003
953,7	-0,003
954,1	-0,002
954,6	-0,003
955	-0,003
955,4	-0,004
955,8	-0,005
956,2	-0,005
956,7	-0,005
957,1	-0,006
957,5	-0,007
957,9	-0,007
958,3	-0,007
958,8	-0,007
959,2	-0,007
959,6	-0,007
960	-0,007
960,5	-0,007
960,9	-0,007
961,3	-0,007
961,7	-0,007
962,1	-0,007
962,6	-0,006
963	-0,006
963,4	-0,006
963,8	-0,005
964,2	-0,005
964,7	-0,005
965,1	-0,005
965,5	-0,004
965,9	-0,004
966,3	-0,004
966,8	-0,004
967,2	-0,004
967,6	-0,004
968	-0,003
968,4	-0,003
968,9	-0,003
969,3	-0,003
969,7	-0,003
970,1	-0,003
970,5	-0,002
971	-0,003
971,4	-0,003
971,8	-0,003
972,2	-0,004
972,6	-0,004
973,1	-0,005
973,5	-0,005
973,9	-0,005
974,3	-0,006
974,7	-0,005
975,2	-0,004
975,6	-0,005
976	-0,004
976,4	-0,004
976,8	-0,005
977,3	-0,004
977,7	-0,005
978,1	-0,006
978,5	-0,005
978,9	-0,006
979,4	-0,006
979,8	-0,006
980,2	-0,006
980,6	-0,006
981	-0,006
981,5	-0,006
981,9	-0,005
982,3	-0,005
982,7	-0,005
983,1	-0,005
983,6	-0,005
984	-0,005
984,4	-0,005
984,8	-0,006
985,2	-0,006
985,6	-0,006
986,1	-0,006
986,5	-0,005
986,9	-0,005
987,3	-0,005
987,7	-0,005
988,2	-0,005
988,6	-0,005
989	-0,004
989,4	-0,004
989,8	-0,004
990,3	-0,004
990,7	-0,004
991,1	-0,003
991,5	-0,004
991,9	-0,004
992,3	-0,004
992,8	-0,005
993,2	-0,005
993,6	-0,005
994	-0,005
994,4	-0,005
994,9	-0,005
995,3	-0,005
995,7	-0,005
996,1	-0,005
996,5	-0,005
996,9	-0,004
997,4	-0,005
997,8	-0,004
998,2	-0,005
998,6	-0,005
999	-0,005
999,5	-0,006
999,9	-0,006
1000,3	-0,005
1000,7	-0,005
1001,1	-0,004
1001,5	-0,004
1002	-0,003
1002,4	-0,002
1002,8	-0,002
1003,2	-0,002
1003,6	-0,002
1004	-0,002
1004,5	-0,002
1004,9	-0,002
1005,3	-0,003
1005,7	-0,003
1006,1	-0,002
1006,6	-0,003
1007	-0,003
1007,4	-0,002
1007,8	-0,002
1008,2	-0,002
1008,6	-0,002
1009,1	-0,002
1009,5	-0,002
1009,9	-0,002
1010,3	-0,002
1010,7	-0,002
1011,1	-0,002
1011,6	-0,002
1012	-0,002
1012,4	-0,002
1012,8	-0,002
1013,2	-0,002
1013,6	-0,002
1014,1	-0,002
1014,5	-0,003
1014,9	-0,003
1015,3	-0,003
1015,7	-0,003
1016,1	-0,004
1016,6	-0,003
1017	-0,004
1017,4	-0,004
1017,8	-0,004
1018,2	-0,003
1018,6	-0,004
1019,1	-0,003
1019,5	-0,003
1019,9	-0,003
1020,3	-0,002
1020,7	-0,002
1021,1	-0,003
1021,6	-0,002
1022	-0,002
1022,4	-0,002
1022,8	-0,002
1023,2	-0,002
1023,6	-0,002
1024,1	-0,001
1024,5	-0,002
1024,9	-0,003
1025,3	-0,003
1025,7	-0,004
1026,1	-0,004
1026,6	-0,005
1027	-0,005
1027,4	-0,005
1027,8	-0,004
1028,2	-0,004
1028,6	-0,004
1029	-0,004
1029,5	-0,003
1029,9	-0,003
1030,3	-0,003
1030,7	-0,003
1031,1	-0,003
1031,5	-0,003
1032	-0,004
1032,4	-0,004
1032,8	-0,004
1033,2	-0,004
1033,6	-0,004
1034	-0,005
1034,4	-0,005
1034,9	-0,005
1035,3	-0,006
1035,7	-0,006
1036,1	-0,006
1036,5	-0,007
1036,9	-0,006
1037,4	-0,005
1037,8	-0,005
1038,2	-0,004
1038,6	-0,004
1039	-0,003
1039,4	-0,003
1039,8	-0,003
1040,3	-0,004
1040,7	-0,004
1041,1	-0,004
1041,5	-0,004
1041,9	-0,004
1042,3	-0,005
1042,7	-0,005
1043,2	-0,004
1043,6	-0,004
1044	-0,005
1044,4	-0,006
1044,8	-0,006
1045,2	-0,007
1045,6	-0,006
1046,1	-0,006
1046,5	-0,006
1046,9	-0,005
1047,3	-0,005
1047,7	-0,005
1048,1	-0,004
1048,5	-0,005
1049	-0,005
1049,4	-0,006
1049,8	-0,006
1050,2	-0,007
1050,6	-0,006
1051	-0,006
1051,4	-0,006
1051,9	-0,007
1052,3	-0,006
1052,7	-0,005
1053,1	-0,005
1053,5	-0,005
1053,9	-0,005
1054,3	-0,004
1054,8	-0,003
1055,2	-0,003
1055,6	-0,004
1056	-0,004
1056,4	-0,004
1056,8	-0,004
1057,2	-0,004
1057,6	-0,005
1058,1	-0,005
1058,5	-0,005
1058,9	-0,004
1059,3	-0,003
1059,7	-0,003
1060,1	-0,004
1060,5	-0,003
1061	-0,004
1061,4	-0,004
1061,8	-0,006
1062,2	-0,006
1062,6	-0,006
1063	-0,006
1063,4	-0,006
1063,8	-0,005
1064,3	-0,005
1064,7	-0,005
1065,1	-0,006
1065,5	-0,006
1065,9	-0,006
1066,3	-0,006
1066,7	-0,007
1067,1	-0,005
1067,6	-0,005
1068	-0,004
1068,4	-0,004
1068,8	-0,004
1069,2	-0,005
1069,6	-0,004
1070	-0,005
1070,4	-0,005
1070,9	-0,007
1071,3	-0,006
1071,7	-0,006
1072,1	-0,006
1072,5	-0,006
1072,9	-0,006
1073,3	-0,006
1073,7	-0,006
1074,2	-0,007
1074,6	-0,008
1075	-0,008
1075,4	-0,007
1075,8	-0,007
1076,2	-0,006
1076,6	-0,005
1077	-0,007
1077,5	-0,006
1077,9	-0,007
1078,3	-0,008
1078,7	-0,008
1079,1	-0,007
1079,5	-0,008
1079,9	-0,006
1080,3	-0,007
1080,7	-0,007
1081,2	-0,007
1081,6	-0,008
1082	-0,01
1082,4	-0,01
1082,8	-0,011
1083,2	-0,01
1083,6	-0,011
1084	-0,011
1084,5	-0,011
1084,9	-0,013
1085,3	-0,012
1085,7	-0,011
1086,1	-0,01
1086,5	-0,01
1086,9	-0,009
1087,3	-0,008
1087,7	-0,007
1088,2	-0,009
1088,6	-0,011
1089	-0,011
1089,4	-0,013
1089,8	-0,013
1090,2	-0,018
1090,6	-0,018
1091	-0,018
1091,4	-0,018
1091,9	-0,017
1092,3	-0,017
1092,7	-0,02
1093,1	-0,017
1093,5	-0,017
1093,9	-0,018
1094,3	-0,019
1094,7	-0,023
1095,1	-0,025
1095,5	-0,025
1096	-0,027
1096,4	-0,027
1096,8	-0,025
1097,2	-0,028
1097,6	-0,03
1098	-0,027
1098,4	-0,027
1098,8	-0,032
1099,2	-0,036
1099,6	-0,043
1100,1	-0,037
1100,5	-0,041
1100,9	-0,039
1101,3	-0,034
1101,7	-0,037
1102,1	-0,036
1102,5	-0,037
1102,9	-0,051
1103,3	-0,051
1103,7	-0,06
1104,2	-0,067
1104,6	-0,073
1105	-0,081
1105,4	-0,081
1105,8	-0,068
1106,2	-0,071
1106,6	-0,083
1107	-0,102
1107,4	-0,1
1107,8	-0,055
1108,3	-0,047
