Data from Absorbance_00022.txt Node
Date: Wed Aug 02 13:59:34 MSK 2023
User: vat
Spectrometer: MAYP114033
Trigger mode: 0
Integration Time (sec): 8,000000E-3
Scans to average: 10
Electric dark correction enabled: true
Nonlinearity correction enabled: false
Boxcar width: 3
XAxis mode: Wavelengths
Number of Pixels in Spectrum: 2068
>>>>>Begin Spectral Data<<<<<
199,4	-0,651
199,9	-0,015
200,4	0,341
200,8	0,706
201,3	0,854
201,8	0,898
202,2	0,908
202,7	0,952
203,2	0,991
203,6	1,031
204,1	1,039
204,6	1,065
205	1,082
205,5	1,109
206	1,111
206,4	1,114
206,9	1,116
207,4	1,129
207,8	1,118
208,3	1,135
208,8	1,144
209,2	1,15
209,7	1,182
210,2	1,194
210,6	1,22
211,1	1,246
211,5	1,267
212	1,296
212,5	1,332
212,9	1,35
213,4	1,372
213,9	1,379
214,3	1,371
214,8	1,376
215,3	1,369
215,7	1,373
216,2	1,369
216,7	1,378
217,1	1,411
217,6	1,435
218,1	1,448
218,5	1,475
219	1,493
219,5	1,529
219,9	1,556
220,4	1,55
220,9	1,566
221,3	1,577
221,8	1,583
222,3	1,599
222,7	1,615
223,2	1,633
223,6	1,654
224,1	1,679
224,6	1,695
225	1,705
225,5	1,727
226	1,731
226,4	1,746
226,9	1,735
227,4	1,746
227,8	1,756
228,3	1,784
228,8	1,792
229,2	1,792
229,7	1,804
230,2	1,82
230,6	1,841
231,1	1,852
231,5	1,858
232	1,854
232,5	1,877
232,9	1,877
233,4	1,914
233,9	1,92
234,3	1,936
234,8	1,953
235,3	1,97
235,7	1,979
236,2	1,982
236,7	1,987
237,1	1,987
237,6	2,007
238,1	2,023
238,5	2,02
239	2,017
239,4	2,036
239,9	2,025
240,4	2,024
240,8	2,02
241,3	2,013
241,8	2,032
242,2	2,041
242,7	2,047
243,2	2,067
243,6	2,067
244,1	2,065
244,6	2,085
245	2,102
245,5	2,099
245,9	2,103
246,4	2,105
246,9	2,125
247,3	2,137
247,8	2,124
248,3	2,123
248,7	2,126
249,2	2,124
249,7	2,127
250,1	2,122
250,6	2,118
251	2,112
251,5	2,101
252	2,107
252,4	2,111
252,9	2,107
253,4	2,11
253,8	2,122
254,3	2,129
254,8	2,124
255,2	2,13
255,7	2,138
256,1	2,167
256,6	2,155
257,1	2,155
257,5	2,145
258	2,176
258,5	2,18
258,9	2,164
259,4	2,133
259,9	2,146
260,3	2,14
260,8	2,148
261,2	2,128
261,7	2,127
262,2	2,128
262,6	2,14
263,1	2,131
263,6	2,142
264	2,146
264,5	2,134
264,9	2,122
265,4	2,122
265,9	2,107
266,3	2,117
266,8	2,115
267,3	2,127
267,7	2,151
268,2	2,18
268,7	2,181
269,1	2,19
269,6	2,212
270	2,196
270,5	2,2
271	2,182
271,4	2,165
271,9	2,158
272,4	2,164
272,8	2,16
273,3	2,167
273,7	2,147
274,2	2,181
274,7	2,168
275,1	2,178
275,6	2,175
276,1	2,16
276,5	2,169
277	2,173
277,4	2,162
277,9	2,176
278,4	2,174
278,8	2,178
279,3	2,178
279,8	2,173
280,2	2,171
280,7	2,158
281,1	2,168
281,6	2,177
282,1	2,172
282,5	2,172
283	2,16
283,4	2,163
283,9	2,137
284,4	2,113
284,8	2,088
285,3	2,067
285,8	2,039
286,2	1,998
286,7	1,941
287,1	1,891
287,6	1,833
288,1	1,775
288,5	1,719
289	1,656
289,5	1,611
289,9	1,561
290,4	1,518
290,8	1,486
291,3	1,452
291,8	1,422
292,2	1,399
292,7	1,374
293,1	1,362
293,6	1,346
294,1	1,331
294,5	1,32
295	1,311
295,5	1,302
295,9	1,296
296,4	1,29
296,8	1,284
297,3	1,279
297,8	1,273
298,2	1,268
298,7	1,265
299,1	1,258
299,6	1,253
300,1	1,253
300,5	1,248
301	1,246
301,5	1,243
301,9	1,24
302,4	1,237
302,8	1,232
303,3	1,224
303,8	1,222
304,2	1,216
304,7	1,208
305,1	1,199
305,6	1,193
306,1	1,185
306,5	1,178
307	1,167
307,4	1,16
307,9	1,153
308,4	1,147
308,8	1,137
309,3	1,129
309,8	1,122
310,2	1,115
310,7	1,105
311,1	1,096
311,6	1,089
312,1	1,082
312,5	1,074
313	1,064
313,4	1,056
313,9	1,048
314,4	1,04
314,8	1,03
315,3	1,021
315,7	1,012
316,2	1,004
316,7	0,996
317,1	0,987
317,6	0,977
318	0,967
318,5	0,956
319	0,945
319,4	0,934
319,9	0,92
320,3	0,908
320,8	0,895
321,3	0,881
321,7	0,87
322,2	0,855
322,6	0,841
323,1	0,828
323,6	0,814
324	0,801
324,5	0,79
324,9	0,776
325,4	0,763
325,9	0,752
326,3	0,74
326,8	0,728
327,2	0,716
327,7	0,703
328,2	0,692
328,6	0,681
329,1	0,669
329,5	0,659
330	0,649
330,5	0,638
330,9	0,626
331,4	0,617
331,8	0,607
332,3	0,596
332,8	0,586
333,2	0,577
333,7	0,569
334,1	0,561
334,6	0,552
335,1	0,544
335,5	0,537
336	0,529
336,4	0,52
336,9	0,511
337,4	0,503
337,8	0,495
338,3	0,486
338,7	0,477
339,2	0,47
339,7	0,462
340,1	0,455
340,6	0,447
341	0,44
341,5	0,433
342	0,427
342,4	0,419
342,9	0,412
343,3	0,406
343,8	0,399
344,2	0,392
344,7	0,386
345,2	0,378
345,6	0,372
346,1	0,365
346,5	0,359
347	0,352
347,5	0,347
347,9	0,341
348,4	0,335
348,8	0,33
349,3	0,324
349,8	0,318
350,2	0,313
350,7	0,307
351,1	0,302
351,6	0,297
352	0,292
352,5	0,287
353	0,282
353,4	0,278
353,9	0,273
354,3	0,268
354,8	0,263
355,3	0,26
355,7	0,256
356,2	0,252
356,6	0,248
357,1	0,244
357,5	0,24
358	0,237
358,5	0,233
358,9	0,229
359,4	0,225
359,8	0,222
360,3	0,218
360,8	0,214
361,2	0,21
361,7	0,207
362,1	0,203
362,6	0,2
363	0,196
363,5	0,193
364	0,19
364,4	0,186
364,9	0,183
365,3	0,179
365,8	0,175
366,3	0,172
366,7	0,169
367,2	0,166
367,6	0,164
368,1	0,161
368,5	0,16
369	0,158
369,5	0,156
369,9	0,154
370,4	0,152
370,8	0,149
371,3	0,147
371,7	0,144
372,2	0,142
372,7	0,14
373,1	0,137
373,6	0,135
374	0,133
374,5	0,131
374,9	0,129
375,4	0,127
375,9	0,125
376,3	0,123
376,8	0,122
377,2	0,12
377,7	0,118
378,2	0,115
378,6	0,114
379,1	0,112
379,5	0,111
380	0,109
380,4	0,107
380,9	0,106
381,4	0,105
381,8	0,103
382,3	0,101
382,7	0,1
383,2	0,099
383,6	0,098
384,1	0,097
384,6	0,095
385	0,094
385,5	0,093
385,9	0,092
386,4	0,091
386,8	0,089
387,3	0,087
387,7	0,087
388,2	0,085
388,7	0,083
389,1	0,082
389,6	0,081
390	0,08
390,5	0,079
390,9	0,077
391,4	0,076
391,9	0,074
392,3	0,072
392,8	0,071
393,2	0,07
393,7	0,069
394,1	0,068
394,6	0,068
395,1	0,068
395,5	0,067
396	0,067
396,4	0,066
396,9	0,064
397,3	0,063
397,8	0,062
398,2	0,061
398,7	0,06
399,2	0,06
399,6	0,059
400,1	0,059
400,5	0,058
401	0,057
401,4	0,056
401,9	0,056
402,4	0,054
402,8	0,053
403,3	0,053
403,7	0,052
404,2	0,051
404,6	0,051
405,1	0,05
405,5	0,049
406	0,048
406,5	0,047
406,9	0,046
407,4	0,045
407,8	0,045
408,3	0,045
408,7	0,044
409,2	0,043
409,6	0,043
410,1	0,042
410,6	0,042
411	0,041
411,5	0,04
411,9	0,04
412,4	0,038
412,8	0,038
413,3	0,037
413,7	0,037
414,2	0,037
414,7	0,036
415,1	0,035
415,6	0,035
416	0,034
416,5	0,034
416,9	0,032
417,4	0,032
417,8	0,032
418,3	0,03
418,8	0,029
419,2	0,029
419,7	0,028
420,1	0,029
420,6	0,027
421	0,027
421,5	0,027
421,9	0,026
422,4	0,026
422,8	0,025
423,3	0,025
423,8	0,025
424,2	0,024
424,7	0,023
425,1	0,023
425,6	0,023
426	0,022
426,5	0,022
426,9	0,022
427,4	0,021
427,9	0,021
428,3	0,022
428,8	0,021
429,2	0,02
429,7	0,02
430,1	0,019
430,6	0,019
431	0,018
431,5	0,018
431,9	0,018
432,4	0,017
432,8	0,017
433,3	0,016
433,8	0,015
434,2	0,014
434,7	0,013
435,1	0,013
435,6	0,013
436	0,012
436,5	0,012
436,9	0,013
437,4	0,013
437,8	0,012
438,3	0,012
438,8	0,012
439,2	0,011
439,7	0,012
440,1	0,011
440,6	0,011
441	0,01
441,5	0,009
441,9	0,009
442,4	0,009
442,8	0,007
443,3	0,007
443,7	0,007
444,2	0,007
444,7	0,007
445,1	0,007
445,6	0,007
446	0,008
446,5	0,008
446,9	0,008
447,4	0,007
447,8	0,007
448,3	0,007
448,7	0,006
449,2	0,006
449,6	0,005
450,1	0,005
450,6	0,005
451	0,005
451,5	0,005
451,9	0,005
452,4	0,005
452,8	0,005
453,3	0,006
453,7	0,006
454,2	0,006
454,6	0,006
455,1	0,005
455,5	0,005
456	0,004
456,4	0,003
456,9	0,003
457,3	0,003
457,8	0,002
458,3	0,002
458,7	0,002
459,2	0,003
459,6	0,002
460,1	0,003
460,5	0,002
461	0,002
461,4	0,002
461,9	0,002
462,3	0,002
462,8	0,002
463,2	0,001
463,7	0,002
464,1	0,001
464,6	0,001
465	0,001
465,5	0,001
466	0,001
466,4	0,002
466,9	0,002
467,3	0,002
467,8	0,001
468,2	0,001
468,7	0,001
469,1	0,001
469,6	0,001
470	0,001
470,5	0,001
470,9	0,001
471,4	0,001
471,8	0,001
472,3	0,001
472,7	0
473,2	0
473,6	0
474,1	0
474,5	0,001
475	0
475,4	0
475,9	0
476,4	0
476,8	0
477,3	0
477,7	-0
478,2	0
478,6	0
479,1	-0
479,5	0
480	0
480,4	-0
480,9	-0,001
481,3	-0,001
481,8	-0,002
482,2	-0,003
482,7	-0,003
483,1	-0,003
483,6	-0,003
484	-0,003
484,5	-0,003
484,9	-0,002
485,4	-0,001
485,8	-0,002
486,3	0,001
486,7	0,001
487,2	0
487,6	-0
488,1	-0,001
488,5	-0
489	-0
489,4	-0,004
489,9	-0,003
490,4	-0,002
490,8	-0,001
491,3	-0
491,7	-0
492,2	0
492,6	0
493,1	-0,001
493,5	-0,001
494	-0
494,4	-0
494,9	-0
495,3	0
495,8	-0
496,2	0
496,7	0,001
497,1	0,001
497,6	0
498	0
498,5	-0,001
498,9	-0
499,4	-0,001
499,8	-0,001
500,3	-0,002
500,7	-0,002
501,2	-0,002
501,6	-0,002
502,1	-0,002
502,5	-0,002
503	-0,003
503,4	-0,002
503,9	-0,001
504,3	-0,001
504,8	-0,002
505,2	-0,002
505,7	-0,002
506,1	-0,002
506,6	-0,003
507	-0,003
507,5	-0,003
507,9	-0,003
508,4	-0,003
508,8	-0,003
509,3	-0,002
509,7	-0,002
510,2	-0,003
510,6	-0,002
511,1	-0,002
511,5	-0,002
512	-0,002
512,4	-0,002
512,9	-0,002
513,3	-0,002
513,8	-0,001
514,2	-0,001
514,7	-0,001
515,1	-0,001
515,6	-0,001
516	-0,001
516,5	-0,001
516,9	-0,001
517,4	-0,002
517,8	-0,002
518,3	-0,002
518,7	-0,002
519,2	-0,002
519,6	-0,002
520,1	-0,001
520,5	-0,002
521	-0,001
521,4	-0,001
521,9	-0,001
522,3	-0,001
522,8	-0,002
523,2	-0,002
523,7	-0,002
524,1	-0,002
524,6	-0,002
525	-0,002
525,5	-0,002
525,9	-0,001
526,4	-0,002
526,8	-0,002
527,3	-0,002
527,7	-0,001
528,2	-0,002
528,6	-0,002
529,1	-0,002
529,5	-0,002
530	-0,001
530,4	-0,001
530,9	-0,002
531,3	-0,002
531,8	-0,001
532,2	-0,001
532,6	-0,002
533,1	-0,002
533,5	-0,002
534	-0,002
534,4	-0,002
534,9	-0,002
535,3	-0,003
535,8	-0,003
536,2	-0,003
536,7	-0,002
537,1	-0,002
537,6	-0,002
538	-0,002
538,5	-0,001
538,9	-0,002
539,4	-0,002
539,8	-0,002
540,3	-0,002
540,7	-0,003
541,2	-0,002
541,6	-0,002
542,1	-0,002
542,5	-0,002
543	-0,003
543,4	-0,002
543,9	-0,003
544,3	-0,003
544,8	-0,002
545,2	-0,003
545,7	-0,002
546,1	-0,002
546,5	-0,002
547	-0,002
547,4	-0,002
547,9	-0,003
548,3	-0,002
548,8	-0,003
549,2	-0,002
549,7	-0,003
550,1	-0,003
550,6	-0,003
551	-0,004
551,5	-0,004
551,9	-0,004
552,4	-0,004
552,8	-0,004
553,3	-0,003
553,7	-0,003
554,2	-0,003
554,6	-0,003
555,1	-0,003
555,5	-0,003
555,9	-0,003
556,4	-0,003
556,8	-0,002
557,3	-0,002
557,7	-0,002
558,2	-0,001
558,6	-0,001
559,1	-0,001
559,5	-0,001
560	-0,001
560,4	-0,002
560,9	-0,002
561,3	-0,003
561,8	-0,003
562,2	-0,003
562,7	-0,003
563,1	-0,003
563,6	-0,002
564	-0,002
564,4	-0,002
564,9	-0,002
565,3	-0,002
565,8	-0,002
566,2	-0,003
566,7	-0,002
567,1	-0,002
567,6	-0,003
568	-0,003
568,5	-0,003
568,9	-0,003
569,4	-0,002
569,8	-0,002
570,3	-0,002
570,7	-0,002
571,1	-0,002
571,6	-0,002
572	-0,002
572,5	-0,002
572,9	-0,003
573,4	-0,002
573,8	-0,002
574,3	-0,002
574,7	-0,003
575,2	-0,003
575,6	-0,002
576,1	-0,002
576,5	-0,002
576,9	-0,002
577,4	-0,002
577,8	-0,002
578,3	-0,002
578,7	-0,002
579,2	-0,002
579,6	-0,002
580,1	-0,002
580,5	-0,002
581	-0,003
581,4	-0,002
581,9	-0,001
582,3	-0,002
582,7	-0,002
583,2	-0,003
583,6	-0,003
584,1	-0,002
584,5	-0,003
585	-0,003
585,4	-0,002
585,9	-0,001
586,3	-0,001
586,8	-0,001
587,2	-0,002
587,6	-0,002
588,1	-0,002
588,5	-0,002
589	-0,002
589,4	-0,002
589,9	-0,001
590,3	-0,001
590,8	-0,001
591,2	-0,001
591,7	-0,002
592,1	-0,002
592,5	-0,001
593	-0,002
593,4	-0,002
593,9	-0,002
594,3	-0,002
594,8	-0,002
595,2	-0,002
595,7	-0,003
596,1	-0,003
596,6	-0,003
597	-0,003
597,4	-0,002
597,9	-0,003
598,3	-0,003
598,8	-0,003
599,2	-0,003
599,7	-0,003
600,1	-0,003
600,6	-0,003
601	-0,002
601,4	-0,002
601,9	-0,002
602,3	-0,003
602,8	-0,002
603,2	-0,002
603,7	-0,003
604,1	-0,003
604,6	-0,002
605	-0,002
605,4	-0,002
605,9	-0,003
606,3	-0,003
606,8	-0,003
607,2	-0,003
607,7	-0,003
608,1	-0,002
608,6	-0,002
609	-0,002
609,4	-0,002
609,9	-0,001
610,3	-0,001
610,8	-0,001
611,2	-0,002
611,7	-0,001
612,1	-0,001
612,6	-0,001
613	-0,002
613,4	-0,002
613,9	-0,002
614,3	-0,002
614,8	-0,002
615,2	-0,002
615,7	-0,002
616,1	-0,002
616,6	-0,002
617	-0,002
617,4	-0,002
617,9	-0,002
618,3	-0,002
618,8	-0,002
619,2	-0,002
619,7	-0,002
620,1	-0,002
620,5	-0,002
621	-0,002
621,4	-0,002
621,9	-0,002
622,3	-0,002
622,8	-0,002
623,2	-0,002
623,6	-0,002
624,1	-0,002
624,5	-0,002
625	-0,002
625,4	-0,003
625,9	-0,002
626,3	-0,002
626,8	-0,002
627,2	-0,002
627,6	-0,002
628,1	-0,002
628,5	-0,001
629	-0,002
629,4	-0,002
629,9	-0,002
630,3	-0,002
630,7	-0,002
631,2	-0,002
631,6	-0,002
632,1	-0,002
632,5	-0,002
633	-0,001
633,4	-0,001
633,8	-0,001
634,3	-0,001
634,7	-0,001
635,2	-0,001
635,6	-0,002
636,1	-0,002
636,5	-0,002
636,9	-0,003
637,4	-0,003
637,8	-0,003
638,3	-0,003
638,7	-0,003
639,2	-0,003
639,6	-0,003
640	-0,003
640,5	-0,003
640,9	-0,003
641,4	-0,003
641,8	-0,003
642,2	-0,004
642,7	-0,004
643,1	-0,004
643,6	-0,004
644	-0,004
644,5	-0,004
644,9	-0,005
645,3	-0,004
645,8	-0,004
646,2	-0,004
646,7	-0,004
647,1	-0,003
647,6	-0,004
648	-0,003
648,4	-0,003
648,9	-0,003
649,3	-0,003
649,8	-0,002
650,2	-0,003
650,6	-0,002
651,1	-0,003
651,5	-0,003
652	-0,003
652,4	-0,003
652,9	-0,003
653,3	-0,004
653,7	-0,004
654,2	-0,005
654,6	-0,007
655,1	-0,01
655,5	-0,006
655,9	-0,004
656,4	-0,003
656,8	-0,004
657,3	-0,004
657,7	-0,003
658,2	-0,002
658,6	-0,002
659	-0,002
659,5	-0,002
659,9	0,004
660,4	0,006
660,8	0,005
661,2	0,004
661,7	0,004
662,1	0,002
662,6	0,001
663	0
663,4	-0,001
663,9	-0,001
664,3	-0,001
664,8	-0,002
665,2	-0,002
665,6	-0,003
666,1	-0,003
666,5	-0,003
667	-0,003
667,4	-0,003
667,9	-0,003
668,3	-0,003
668,7	-0,003
669,2	-0,003
669,6	-0,003
670,1	-0,003
670,5	-0,003
670,9	-0,003
671,4	-0,003
671,8	-0,003
672,3	-0,003
672,7	-0,003
673,1	-0,004
673,6	-0,003
674	-0,003
674,5	-0,004
674,9	-0,003
675,3	-0,003
675,8	-0,003
676,2	-0,003
676,7	-0,003
677,1	-0,003
677,5	-0,003
678	-0,003
678,4	-0,003
678,9	-0,002
679,3	-0,002
679,7	-0,002
680,2	-0,002
680,6	-0,002
681,1	-0,003
681,5	-0,003
681,9	-0,004
682,4	-0,004
682,8	-0,004
683,3	-0,004
683,7	-0,004
684,1	-0,004
684,6	-0,004
685	-0,004
685,5	-0,004
685,9	-0,004
686,3	-0,004
686,8	-0,004
687,2	-0,003
687,7	-0,004
688,1	-0,004
688,5	-0,004
689	-0,004
689,4	-0,004
689,9	-0,004
690,3	-0,004
690,7	-0,004
691,2	-0,004
691,6	-0,003
692	-0,004
692,5	-0,004
692,9	-0,004
693,4	-0,004
693,8	-0,004
694,2	-0,004
694,7	-0,004
695,1	-0,003
695,6	-0,003
696	-0,003
696,4	-0,003
696,9	-0,003
697,3	-0,003
697,8	-0,003
698,2	-0,004
698,6	-0,004
699,1	-0,004
699,5	-0,004
699,9	-0,003
700,4	-0,003
700,8	-0,003
701,3	-0,004
701,7	-0,003
702,1	-0,003
702,6	-0,003
703	-0,004
703,5	-0,004
703,9	-0,004
704,3	-0,004
704,8	-0,004
705,2	-0,004
705,6	-0,004
706,1	-0,004
706,5	-0,004
707	-0,004
707,4	-0,003
707,8	-0,004
708,3	-0,003
708,7	-0,004
709,2	-0,004
709,6	-0,004
710	-0,004
710,5	-0,004
710,9	-0,004
711,3	-0,004
711,8	-0,004
712,2	-0,003
712,7	-0,003
713,1	-0,003
713,5	-0,003
714	-0,003
714,4	-0,003
714,8	-0,003
715,3	-0,003
715,7	-0,003
716,2	-0,002
716,6	-0,003
717	-0,002
717,5	-0,002
717,9	-0,002
718,3	-0,003
718,8	-0,003
719,2	-0,003
719,7	-0,003
720,1	-0,003
720,5	-0,003
721	-0,004
721,4	-0,004
721,8	-0,004
722,3	-0,003
722,7	-0,003
723,2	-0,003
723,6	-0,003
724	-0,003
724,5	-0,003
724,9	-0,003
725,3	-0,003
725,8	-0,003
726,2	-0,003
726,7	-0,003
727,1	-0,003
727,5	-0,003
728	-0,003
728,4	-0,003
728,8	-0,003
729,3	-0,003
729,7	-0,003
730,1	-0,003
730,6	-0,003
731	-0,003
731,5	-0,003
731,9	-0,003
732,3	-0,003
732,8	-0,003
733,2	-0,003
733,6	-0,003
734,1	-0,004
734,5	-0,004
734,9	-0,004
735,4	-0,004
735,8	-0,004
736,3	-0,004
736,7	-0,003
737,1	-0,003
737,6	-0,003
738	-0,003
738,4	-0,003
738,9	-0,003
739,3	-0,003
739,7	-0,003
740,2	-0,003
740,6	-0,003
741,1	-0,004
741,5	-0,004
741,9	-0,004
742,4	-0,004
742,8	-0,003
743,2	-0,003
743,7	-0,003
744,1	-0,003
744,5	-0,003
745	-0,003
745,4	-0,002
745,8	-0,002
746,3	-0,003
746,7	-0,003
747,2	-0,003
747,6	-0,003
748	-0,003
748,5	-0,003
748,9	-0,004
749,3	-0,004
749,8	-0,004
750,2	-0,004
750,6	-0,005
751,1	-0,005
751,5	-0,005
751,9	-0,004
752,4	-0,004
752,8	-0,004
753,3	-0,004
753,7	-0,004
754,1	-0,005
754,6	-0,004
755	-0,004
755,4	-0,004
755,9	-0,003
756,3	-0,003
756,7	-0,003
757,2	-0,003
757,6	-0,003
758	-0,003
758,5	-0,003
758,9	-0,003
759,3	-0,003
759,8	-0,003
760,2	-0,003
760,6	-0,003
761,1	-0,002
761,5	-0,003
761,9	-0,003
762,4	-0,003
762,8	-0,003
763,3	-0,003
763,7	-0,003
764,1	-0,003
764,6	-0,002
765	-0,002
765,4	-0,003
765,9	-0,003
766,3	-0,003
766,7	-0,003
767,2	-0,003
767,6	-0,003
768	-0,003
768,5	-0,003
768,9	-0,003
769,3	-0,003
769,8	-0,004
770,2	-0,004
770,6	-0,004
771,1	-0,004
771,5	-0,004
771,9	-0,004
772,4	-0,004
772,8	-0,004
773,2	-0,004
773,7	-0,004
774,1	-0,004
774,5	-0,004
775	-0,004
775,4	-0,004
775,8	-0,004
776,3	-0,004
776,7	-0,004
777,1	-0,004
777,6	-0,004
778	-0,003
778,4	-0,004
778,9	-0,004
779,3	-0,003
779,7	-0,004
780,2	-0,004
780,6	-0,004
781	-0,004
781,5	-0,004
781,9	-0,004
782,3	-0,004
782,8	-0,004
783,2	-0,004
783,6	-0,004
784,1	-0,004
784,5	-0,004
784,9	-0,003
785,4	-0,004
785,8	-0,003
786,2	-0,003
786,7	-0,003
787,1	-0,003
787,5	-0,003
788	-0,004
788,4	-0,003
788,8	-0,004
789,3	-0,004
789,7	-0,004
790,1	-0,004
790,6	-0,003
791	-0,003
791,4	-0,003
791,9	-0,003
792,3	-0,003
792,7	-0,003
793,2	-0,004
793,6	-0,004
794	-0,004
794,5	-0,003
794,9	-0,003
795,3	-0,003
795,8	-0,003
796,2	-0,003
796,6	-0,002
797,1	-0,002
797,5	-0,003
797,9	-0,003
798,4	-0,003
798,8	-0,003
799,2	-0,003
799,7	-0,003
800,1	-0,003
800,5	-0,003
801	-0,003
801,4	-0,003
801,8	-0,003
802,2	-0,003
802,7	-0,002
803,1	-0,003
803,5	-0,003
804	-0,003
804,4	-0,003
804,8	-0,003
805,3	-0,004
805,7	-0,004
806,1	-0,004
806,6	-0,004
807	-0,004
807,4	-0,004
807,9	-0,004
808,3	-0,004
808,7	-0,004
809,2	-0,004
809,6	-0,004
810	-0,004
810,4	-0,003
810,9	-0,003
811,3	-0,003
811,7	-0,003
812,2	-0,003
812,6	-0,003
813	-0,003
813,5	-0,003
813,9	-0,003
814,3	-0,004
814,8	-0,004
815,2	-0,004
815,6	-0,003
816,1	-0,003
816,5	-0,003
816,9	-0,003
817,3	-0,003
817,8	-0,003
818,2	-0,003
818,6	-0,003
819,1	-0,003
819,5	-0,003
819,9	-0,003
820,4	-0,003
820,8	-0,003
821,2	-0,004
821,7	-0,004
822,1	-0,004
822,5	-0,003
822,9	-0,003
823,4	-0,003
823,8	-0,003
824,2	-0,002
824,7	-0,002
825,1	-0,003
825,5	-0,003
826	-0,003
826,4	-0,003
826,8	-0,003
827,3	-0,003
827,7	-0,003
828,1	-0,003
828,5	-0,004
829	-0,004
829,4	-0,004
829,8	-0,004
830,3	-0,004
830,7	-0,004
831,1	-0,004
831,6	-0,004
832	-0,003
832,4	-0,004
832,8	-0,003
833,3	-0,003
833,7	-0,003
834,1	-0,004
834,6	-0,004
835	-0,004
835,4	-0,004
835,8	-0,004
836,3	-0,004
836,7	-0,004
837,1	-0,003
837,6	-0,004
838	-0,003
838,4	-0,003
838,9	-0,003
839,3	-0,004
839,7	-0,004
840,1	-0,004
840,6	-0,004
841	-0,004
841,4	-0,004
841,9	-0,004
842,3	-0,004
842,7	-0,004
843,1	-0,004
843,6	-0,004
844	-0,004
844,4	-0,005
844,9	-0,005
845,3	-0,005
845,7	-0,005
846,2	-0,005
846,6	-0,005
847	-0,005
847,4	-0,005
847,9	-0,005
848,3	-0,005
848,7	-0,005
849,2	-0,004
849,6	-0,004
850	-0,004
850,4	-0,004
850,9	-0,004
851,3	-0,004
851,7	-0,004
852,2	-0,004
852,6	-0,004
853	-0,004
853,4	-0,004
853,9	-0,004
854,3	-0,004
854,7	-0,003
855,2	-0,003
855,6	-0,003
856	-0,003
856,4	-0,003
856,9	-0,003
857,3	-0,004
857,7	-0,004
858,2	-0,004
858,6	-0,004
859	-0,004
859,4	-0,004
859,9	-0,004
860,3	-0,003
860,7	-0,003
861,1	-0,003
861,6	-0,003
862	-0,003
862,4	-0,003
862,9	-0,003
863,3	-0,003
863,7	-0,004
864,1	-0,004
864,6	-0,004
865	-0,004
865,4	-0,004
865,9	-0,004
866,3	-0,004
866,7	-0,004
867,1	-0,004
867,6	-0,003
868	-0,003
868,4	-0,004
868,8	-0,004
869,3	-0,004
869,7	-0,003
870,1	-0,003
870,6	-0,004
871	-0,004
871,4	-0,004
871,8	-0,004
872,3	-0,004
872,7	-0,004
873,1	-0,004
873,5	-0,004
874	-0,004
874,4	-0,004
874,8	-0,004
875,3	-0,005
875,7	-0,005
876,1	-0,005
876,5	-0,005
877	-0,004
877,4	-0,004
877,8	-0,004
878,2	-0,004
878,7	-0,004
879,1	-0,004
879,5	-0,004
879,9	-0,004
880,4	-0,004
880,8	-0,004
881,2	-0,004
881,7	-0,004
882,1	-0,004
882,5	-0,004
882,9	-0,004
883,4	-0,004
883,8	-0,004
884,2	-0,004
884,6	-0,004
885,1	-0,005
885,5	-0,005
885,9	-0,005
886,3	-0,005
886,8	-0,005
887,2	-0,005
887,6	-0,005
888	-0,004
888,5	-0,004
888,9	-0,004
889,3	-0,003
889,8	-0,003
890,2	-0,003
890,6	-0,003
891	-0,003
891,5	-0,002
891,9	-0,002
892,3	-0,002
892,7	-0,003
893,2	-0,003
893,6	-0,003
894	-0,003
894,4	-0,004
894,9	-0,004
895,3	-0,004
895,7	-0,003
896,1	-0,003
896,6	-0,004
897	-0,003
897,4	-0,004
897,8	-0,004
898,3	-0,003
898,7	-0,004
899,1	-0,003
899,5	-0,004
900	-0,004
900,4	-0,003
900,8	-0,004
901,2	-0,003
901,7	-0,004
902,1	-0,004
902,5	-0,004
902,9	-0,004
903,4	-0,004
903,8	-0,003
904,2	-0,004
904,6	-0,003
905,1	-0,003
905,5	-0,003
905,9	-0,002
906,3	-0,002
906,8	-0,002
907,2	-0,002
907,6	-0,001
908	-0,001
908,5	-0,001
908,9	-0,001
909,3	-0,001
909,7	-0,001
910,2	-0,001
910,6	-0,001
911	-0,001
911,4	-0,001
911,9	-0,001
912,3	-0,001
912,7	-0,001
913,1	-0,001
913,6	-0,001
914	-0,001
914,4	-0,001
914,8	-0,001
915,3	-0,001
915,7	-0,001
916,1	-0,001
916,5	-0,001
916,9	-0,001
917,4	-0,002
917,8	-0,002
918,2	-0,002
918,6	-0,002
919,1	-0,002
919,5	-0,002
919,9	-0,003
920,3	-0,003
920,8	-0,003
921,2	-0,003
921,6	-0,003
922	-0,002
922,5	-0,003
922,9	-0,003
923,3	-0,003
923,7	-0,002
924,2	-0,002
924,6	-0,003
925	-0,003
925,4	-0,003
925,8	-0,002
926,3	-0,002
926,7	-0,003
927,1	-0,003
927,5	-0,003
928	-0,003
928,4	-0,003
928,8	-0,004
929,2	-0,004
929,7	-0,004
930,1	-0,004
930,5	-0,004
930,9	-0,004
931,3	-0,004
931,8	-0,004
932,2	-0,004
932,6	-0,004
933	-0,004
933,5	-0,004
933,9	-0,005
934,3	-0,005
934,7	-0,005
935,2	-0,005
935,6	-0,004
936	-0,004
936,4	-0,004
936,8	-0,004
937,3	-0,004
937,7	-0,004
938,1	-0,004
938,5	-0,004
939	-0,005
939,4	-0,005
939,8	-0,005
940,2	-0,005
940,6	-0,005
941,1	-0,005
941,5	-0,004
941,9	-0,004
942,3	-0,004
942,8	-0,004
943,2	-0,004
943,6	-0,004
944	-0,004
944,4	-0,004
944,9	-0,005
945,3	-0,005
945,7	-0,006
946,1	-0,005
946,6	-0,005
947	-0,005
947,4	-0,006
947,8	-0,005
948,2	-0,006
948,7	-0,006
949,1	-0,006
949,5	-0,006
949,9	-0,006
950,3	-0,006
950,8	-0,006
951,2	-0,006
951,6	-0,005
952	-0,005
952,5	-0,005
952,9	-0,005
953,3	-0,005
953,7	-0,005
954,1	-0,005
954,6	-0,006
955	-0,006
955,4	-0,007
955,8	-0,007
956,2	-0,007
956,7	-0,007
957,1	-0,008
957,5	-0,009
957,9	-0,009
958,3	-0,009
958,8	-0,008
959,2	-0,009
959,6	-0,009
960	-0,01
960,5	-0,009
960,9	-0,009
961,3	-0,009
961,7	-0,009
962,1	-0,009
962,6	-0,009
963	-0,009
963,4	-0,009
963,8	-0,009
964,2	-0,009
964,7	-0,009
965,1	-0,008
965,5	-0,008
965,9	-0,008
966,3	-0,008
966,8	-0,008
967,2	-0,007
967,6	-0,008
968	-0,008
968,4	-0,007
968,9	-0,007
969,3	-0,007
969,7	-0,007
970,1	-0,007
970,5	-0,006
971	-0,007
971,4	-0,007
971,8	-0,007
972,2	-0,007
972,6	-0,007
973,1	-0,008
973,5	-0,008
973,9	-0,008
974,3	-0,008
974,7	-0,007
975,2	-0,008
975,6	-0,008
976	-0,007
976,4	-0,007
976,8	-0,007
977,3	-0,007
977,7	-0,007
978,1	-0,008
978,5	-0,007
978,9	-0,007
979,4	-0,008
979,8	-0,008
980,2	-0,008
980,6	-0,008
981	-0,007
981,5	-0,008
981,9	-0,007
982,3	-0,007
982,7	-0,007
983,1	-0,007
983,6	-0,006
984	-0,006
984,4	-0,006
984,8	-0,007
985,2	-0,007
985,6	-0,007
986,1	-0,007
986,5	-0,007
986,9	-0,007
987,3	-0,007
987,7	-0,006
988,2	-0,006
988,6	-0,006
989	-0,006
989,4	-0,007
989,8	-0,007
990,3	-0,007
990,7	-0,007
991,1	-0,007
991,5	-0,007
991,9	-0,007
992,3	-0,007
992,8	-0,007
993,2	-0,007
993,6	-0,006
994	-0,007
994,4	-0,006
994,9	-0,006
995,3	-0,006
995,7	-0,006
996,1	-0,006
996,5	-0,006
996,9	-0,006
997,4	-0,006
997,8	-0,006
998,2	-0,006
998,6	-0,006
999	-0,006
999,5	-0,006
999,9	-0,006
1000,3	-0,006
1000,7	-0,006
1001,1	-0,005
1001,5	-0,005
1002	-0,004
1002,4	-0,004
1002,8	-0,004
1003,2	-0,003
1003,6	-0,003
1004	-0,003
1004,5	-0,003
1004,9	-0,003
1005,3	-0,003
1005,7	-0,002
1006,1	-0,003
1006,6	-0,003
1007	-0,003
1007,4	-0,003
1007,8	-0,002
1008,2	-0,002
1008,6	-0,002
1009,1	-0,001
1009,5	-0,002
1009,9	-0,002
1010,3	-0,002
1010,7	-0,002
1011,1	-0,002
1011,6	-0,002
1012	-0,002
1012,4	-0,001
1012,8	-0,001
1013,2	-0,001
1013,6	-0,002
1014,1	-0,002
1014,5	-0,003
1014,9	-0,004
1015,3	-0,004
1015,7	-0,004
1016,1	-0,004
1016,6	-0,004
1017	-0,004
1017,4	-0,003
1017,8	-0,003
1018,2	-0,002
1018,6	-0,003
1019,1	-0,003
1019,5	-0,002
1019,9	-0,002
1020,3	-0,002
1020,7	-0,002
1021,1	-0,002
1021,6	-0,002
1022	-0,002
1022,4	-0,002
1022,8	-0,002
1023,2	-0,002
1023,6	-0,003
1024,1	-0,002
1024,5	-0,002
1024,9	-0,002
1025,3	-0,002
1025,7	-0,003
1026,1	-0,003
1026,6	-0,003
1027	-0,004
1027,4	-0,004
1027,8	-0,004
1028,2	-0,004
1028,6	-0,003
1029	-0,002
1029,5	-0,002
1029,9	-0,002
1030,3	-0,002
1030,7	-0,002
1031,1	-0,002
1031,5	-0,003
1032	-0,004
1032,4	-0,003
1032,8	-0,003
1033,2	-0,004
1033,6	-0,004
1034	-0,004
1034,4	-0,003
1034,9	-0,003
1035,3	-0,004
1035,7	-0,005
1036,1	-0,005
1036,5	-0,005
1036,9	-0,004
1037,4	-0,004
1037,8	-0,003
1038,2	-0,002
1038,6	-0,002
1039	-0,002
1039,4	-0,003
1039,8	-0,004
1040,3	-0,004
1040,7	-0,004
1041,1	-0,004
1041,5	-0,003
1041,9	-0,003
1042,3	-0,003
1042,7	-0,002
1043,2	-0,002
1043,6	-0,003
1044	-0,003
1044,4	-0,004
1044,8	-0,005
1045,2	-0,006
1045,6	-0,006
1046,1	-0,006
1046,5	-0,006
1046,9	-0,006
1047,3	-0,006
1047,7	-0,006
1048,1	-0,005
1048,5	-0,006
1049	-0,006
1049,4	-0,007
1049,8	-0,006
1050,2	-0,006
1050,6	-0,007
1051	-0,006
1051,4	-0,005
1051,9	-0,005
1052,3	-0,004
1052,7	-0,004
1053,1	-0,004
1053,5	-0,004
1053,9	-0,004
1054,3	-0,004
1054,8	-0,004
1055,2	-0,004
1055,6	-0,004
1056	-0,004
1056,4	-0,004
1056,8	-0,003
1057,2	-0,004
1057,6	-0,004
1058,1	-0,004
1058,5	-0,004
1058,9	-0,004
1059,3	-0,003
1059,7	-0,002
1060,1	-0,002
1060,5	-0,002
1061	-0,003
1061,4	-0,004
1061,8	-0,004
1062,2	-0,004
1062,6	-0,005
1063	-0,004
1063,4	-0,004
1063,8	-0,004
1064,3	-0,004
1064,7	-0,004
1065,1	-0,005
1065,5	-0,004
1065,9	-0,004
1066,3	-0,004
1066,7	-0,004
1067,1	-0,003
1067,6	-0,004
1068	-0,004
1068,4	-0,003
1068,8	-0,005
1069,2	-0,006
1069,6	-0,006
1070	-0,006
1070,4	-0,005
1070,9	-0,006
1071,3	-0,006
1071,7	-0,005
1072,1	-0,004
1072,5	-0,005
1072,9	-0,005
1073,3	-0,005
1073,7	-0,005
1074,2	-0,005
1074,6	-0,006
1075	-0,007
1075,4	-0,006
1075,8	-0,007
1076,2	-0,006
1076,6	-0,007
1077	-0,007
1077,5	-0,007
1077,9	-0,006
1078,3	-0,007
1078,7	-0,006
1079,1	-0,006
1079,5	-0,006
1079,9	-0,004
1080,3	-0,005
1080,7	-0,005
1081,2	-0,006
1081,6	-0,007
1082	-0,007
1082,4	-0,007
1082,8	-0,009
1083,2	-0,009
1083,6	-0,009
1084	-0,01
1084,5	-0,009
1084,9	-0,01
1085,3	-0,011
1085,7	-0,009
1086,1	-0,009
1086,5	-0,009
1086,9	-0,007
1087,3	-0,006
1087,7	-0,007
1088,2	-0,006
1088,6	-0,008
1089	-0,006
1089,4	-0,006
1089,8	-0,008
1090,2	-0,01
1090,6	-0,008
1091	-0,011
1091,4	-0,01
1091,9	-0,011
1092,3	-0,012
1092,7	-0,015
1093,1	-0,012
1093,5	-0,01
1093,9	-0,007
1094,3	-0,009
1094,7	-0,009
1095,1	-0,006
1095,5	-0,005
1096	-0,006
1096,4	-0,008
1096,8	-0,007
1097,2	-0,009
1097,6	-0,01
1098	-0,014
1098,4	-0,015
1098,8	-0,021
1099,2	-0,026
1099,6	-0,03
1100,1	-0,03
1100,5	-0,032
1100,9	-0,031
1101,3	-0,019
1101,7	-0,022
1102,1	-0,022
1102,5	-0,024
1102,9	-0,022
1103,3	-0,023
1103,7	-0,023
1104,2	-0,041
1104,6	-0,045
1105	-0,055
1105,4	-0,052
1105,8	-0,046
1106,2	-0,053
1106,6	-0,063
1107	-0,08
1107,4	-0,06
1107,8	0,004
1108,3	0,113
