Data from Absorbance_00021.txt Node
Date: Wed Aug 02 13:58:09 MSK 2023
User: vat
Spectrometer: MAYP114033
Trigger mode: 0
Integration Time (sec): 8,000000E-3
Scans to average: 10
Electric dark correction enabled: true
Nonlinearity correction enabled: false
Boxcar width: 3
XAxis mode: Wavelengths
Number of Pixels in Spectrum: 2068
>>>>>Begin Spectral Data<<<<<
199,4	-0,894
199,9	-0,15
200,4	0,197
200,8	0,593
201,3	0,783
201,8	0,824
202,2	0,877
202,7	0,892
203,2	0,947
203,6	0,988
204,1	0,993
204,6	1,011
205	1,03
205,5	1,044
206	1,068
206,4	1,074
206,9	1,089
207,4	1,112
207,8	1,131
208,3	1,153
208,8	1,152
209,2	1,178
209,7	1,184
210,2	1,206
210,6	1,228
211,1	1,214
211,5	1,231
212	1,276
212,5	1,281
212,9	1,303
213,4	1,318
213,9	1,327
214,3	1,363
214,8	1,37
215,3	1,353
215,7	1,372
216,2	1,394
216,7	1,395
217,1	1,418
217,6	1,416
218,1	1,433
218,5	1,469
219	1,476
219,5	1,483
219,9	1,499
220,4	1,517
220,9	1,545
221,3	1,561
221,8	1,564
222,3	1,59
222,7	1,612
223,2	1,651
223,6	1,65
224,1	1,67
224,6	1,682
225	1,687
225,5	1,689
226	1,704
226,4	1,707
226,9	1,726
227,4	1,74
227,8	1,766
228,3	1,786
228,8	1,814
229,2	1,825
229,7	1,832
230,2	1,857
230,6	1,873
231,1	1,885
231,5	1,896
232	1,9
232,5	1,9
232,9	1,896
233,4	1,905
233,9	1,899
234,3	1,903
234,8	1,91
235,3	1,914
235,7	1,934
236,2	1,949
236,7	1,962
237,1	1,974
237,6	1,979
238,1	2,01
238,5	2,009
239	2,013
239,4	2,033
239,9	2,014
240,4	2,019
240,8	2,029
241,3	2,023
241,8	2,028
242,2	2,026
242,7	2,031
243,2	2,048
243,6	2,053
244,1	2,058
244,6	2,057
245	2,071
245,5	2,067
245,9	2,062
246,4	2,057
246,9	2,061
247,3	2,06
247,8	2,061
248,3	2,074
248,7	2,068
249,2	2,082
249,7	2,101
250,1	2,1
250,6	2,111
251	2,112
251,5	2,095
252	2,109
252,4	2,089
252,9	2,08
253,4	2,082
253,8	2,09
254,3	2,084
254,8	2,118
255,2	2,133
255,7	2,152
256,1	2,169
256,6	2,164
257,1	2,16
257,5	2,166
258	2,146
258,5	2,134
258,9	2,125
259,4	2,102
259,9	2,088
260,3	2,072
260,8	2,075
261,2	2,073
261,7	2,089
262,2	2,09
262,6	2,111
263,1	2,123
263,6	2,132
264	2,122
264,5	2,117
264,9	2,092
265,4	2,08
265,9	2,075
266,3	2,093
266,8	2,102
267,3	2,116
267,7	2,128
268,2	2,147
268,7	2,172
269,1	2,168
269,6	2,158
270	2,147
270,5	2,16
271	2,132
271,4	2,119
271,9	2,117
272,4	2,116
272,8	2,135
273,3	2,128
273,7	2,109
274,2	2,135
274,7	2,14
275,1	2,157
275,6	2,164
276,1	2,152
276,5	2,157
277	2,159
277,4	2,165
277,9	2,178
278,4	2,168
278,8	2,172
279,3	2,166
279,8	2,175
280,2	2,172
280,7	2,154
281,1	2,154
281,6	2,154
282,1	2,141
282,5	2,135
283	2,121
283,4	2,121
283,9	2,107
284,4	2,093
284,8	2,063
285,3	2,041
285,8	2,009
286,2	1,973
286,7	1,913
287,1	1,86
287,6	1,785
288,1	1,724
288,5	1,668
289	1,607
289,5	1,549
289,9	1,496
290,4	1,454
290,8	1,421
291,3	1,388
291,8	1,354
292,2	1,333
292,7	1,311
293,1	1,297
293,6	1,278
294,1	1,264
294,5	1,253
295	1,243
295,5	1,229
295,9	1,221
296,4	1,214
296,8	1,208
297,3	1,201
297,8	1,191
298,2	1,184
298,7	1,178
299,1	1,172
299,6	1,165
300,1	1,159
300,5	1,152
301	1,146
301,5	1,143
301,9	1,139
302,4	1,131
302,8	1,124
303,3	1,116
303,8	1,11
304,2	1,105
304,7	1,097
305,1	1,089
305,6	1,082
306,1	1,076
306,5	1,069
307	1,06
307,4	1,052
307,9	1,045
308,4	1,038
308,8	1,031
309,3	1,022
309,8	1,015
310,2	1,007
310,7	0,998
311,1	0,99
311,6	0,981
312,1	0,973
312,5	0,965
313	0,957
313,4	0,95
313,9	0,942
314,4	0,933
314,8	0,926
315,3	0,917
315,7	0,908
316,2	0,897
316,7	0,888
317,1	0,879
317,6	0,87
318	0,861
318,5	0,851
319	0,843
319,4	0,835
319,9	0,826
320,3	0,816
320,8	0,807
321,3	0,797
321,7	0,79
322,2	0,78
322,6	0,772
323,1	0,762
323,6	0,753
324	0,746
324,5	0,737
324,9	0,728
325,4	0,719
325,9	0,71
326,3	0,702
326,8	0,694
327,2	0,683
327,7	0,674
328,2	0,664
328,6	0,656
329,1	0,645
329,5	0,636
330	0,626
330,5	0,617
330,9	0,608
331,4	0,601
331,8	0,59
332,3	0,582
332,8	0,573
333,2	0,565
333,7	0,556
334,1	0,548
334,6	0,539
335,1	0,532
335,5	0,524
336	0,516
336,4	0,507
336,9	0,499
337,4	0,491
337,8	0,483
338,3	0,475
338,7	0,467
339,2	0,459
339,7	0,452
340,1	0,442
340,6	0,434
341	0,427
341,5	0,419
342	0,411
342,4	0,403
342,9	0,397
343,3	0,391
343,8	0,385
344,2	0,378
344,7	0,371
345,2	0,365
345,6	0,359
346,1	0,351
346,5	0,344
347	0,338
347,5	0,332
347,9	0,327
348,4	0,321
348,8	0,316
349,3	0,31
349,8	0,304
350,2	0,298
350,7	0,293
351,1	0,287
351,6	0,282
352	0,276
352,5	0,272
353	0,267
353,4	0,262
353,9	0,257
354,3	0,252
354,8	0,247
355,3	0,244
355,7	0,239
356,2	0,235
356,6	0,23
357,1	0,227
357,5	0,222
358	0,219
358,5	0,214
358,9	0,21
359,4	0,206
359,8	0,203
360,3	0,199
360,8	0,195
361,2	0,191
361,7	0,188
362,1	0,185
362,6	0,182
363	0,179
363,5	0,176
364	0,173
364,4	0,169
364,9	0,167
365,3	0,163
365,8	0,16
366,3	0,157
366,7	0,154
367,2	0,152
367,6	0,15
368,1	0,147
368,5	0,146
369	0,144
369,5	0,142
369,9	0,14
370,4	0,138
370,8	0,135
371,3	0,133
371,7	0,13
372,2	0,128
372,7	0,127
373,1	0,124
373,6	0,122
374	0,12
374,5	0,119
374,9	0,117
375,4	0,115
375,9	0,113
376,3	0,111
376,8	0,109
377,2	0,108
377,7	0,106
378,2	0,104
378,6	0,103
379,1	0,101
379,5	0,1
380	0,099
380,4	0,097
380,9	0,096
381,4	0,095
381,8	0,094
382,3	0,092
382,7	0,091
383,2	0,089
383,6	0,088
384,1	0,087
384,6	0,085
385	0,084
385,5	0,083
385,9	0,082
386,4	0,08
386,8	0,08
387,3	0,079
387,7	0,078
388,2	0,077
388,7	0,076
389,1	0,075
389,6	0,074
390	0,072
390,5	0,07
390,9	0,069
391,4	0,067
391,9	0,065
392,3	0,063
392,8	0,062
393,2	0,062
393,7	0,061
394,1	0,061
394,6	0,061
395,1	0,061
395,5	0,061
396	0,061
396,4	0,06
396,9	0,058
397,3	0,057
397,8	0,057
398,2	0,056
398,7	0,055
399,2	0,054
399,6	0,053
400,1	0,053
400,5	0,052
401	0,051
401,4	0,05
401,9	0,049
402,4	0,048
402,8	0,047
403,3	0,046
403,7	0,045
404,2	0,045
404,6	0,044
405,1	0,042
405,5	0,042
406	0,042
406,5	0,041
406,9	0,04
407,4	0,039
407,8	0,039
408,3	0,038
408,7	0,037
409,2	0,036
409,6	0,035
410,1	0,034
410,6	0,034
411	0,033
411,5	0,033
411,9	0,032
412,4	0,032
412,8	0,031
413,3	0,031
413,7	0,031
414,2	0,031
414,7	0,03
415,1	0,029
415,6	0,029
416	0,029
416,5	0,028
416,9	0,026
417,4	0,026
417,8	0,025
418,3	0,024
418,8	0,022
419,2	0,022
419,7	0,021
420,1	0,022
420,6	0,021
421	0,021
421,5	0,021
421,9	0,02
422,4	0,02
422,8	0,019
423,3	0,019
423,8	0,019
424,2	0,018
424,7	0,018
425,1	0,018
425,6	0,017
426	0,016
426,5	0,016
426,9	0,016
427,4	0,015
427,9	0,014
428,3	0,014
428,8	0,014
429,2	0,013
429,7	0,013
430,1	0,012
430,6	0,012
431	0,012
431,5	0,011
431,9	0,01
432,4	0,01
432,8	0,009
433,3	0,009
433,8	0,008
434,2	0,008
434,7	0,008
435,1	0,007
435,6	0,008
436	0,007
436,5	0,007
436,9	0,008
437,4	0,007
437,8	0,007
438,3	0,006
438,8	0,006
439,2	0,006
439,7	0,006
440,1	0,006
440,6	0,006
441	0,005
441,5	0,005
441,9	0,005
442,4	0,004
442,8	0,004
443,3	0,003
443,7	0,003
444,2	0,003
444,7	0,003
445,1	0,003
445,6	0,003
446	0,003
446,5	0,004
446,9	0,004
447,4	0,005
447,8	0,004
448,3	0,004
448,7	0,004
449,2	0,003
449,6	0,002
450,1	0,002
450,6	0,001
451	0,001
451,5	0,001
451,9	0,001
452,4	0,001
452,8	0,001
453,3	0,002
453,7	0,002
454,2	0,003
454,6	0,003
455,1	0,002
455,5	0,002
456	0,002
456,4	0
456,9	0
457,3	-0
457,8	-0
458,3	0
458,7	0
459,2	0,001
459,6	0,001
460,1	0,001
460,5	0,001
461	0,001
461,4	0
461,9	0
462,3	0
462,8	0,001
463,2	-0
463,7	0
464,1	-0
464,6	-0
465	-0
465,5	-0
466	-0,001
466,4	-0,001
466,9	-0,001
467,3	-0,001
467,8	-0,001
468,2	-0,002
468,7	-0,002
469,1	-0,002
469,6	-0,002
470	-0,001
470,5	-0,001
470,9	-0,001
471,4	-0,002
471,8	-0,002
472,3	-0,002
472,7	-0,002
473,2	-0,003
473,6	-0,002
474,1	-0,002
474,5	-0,001
475	-0,001
475,4	-0,002
475,9	-0,002
476,4	-0,002
476,8	-0,002
477,3	-0,002
477,7	-0,002
478,2	-0,002
478,6	-0,001
479,1	-0,001
479,5	-0
480	-0
480,4	-0,001
480,9	-0
481,3	-0,001
481,8	-0,002
482,2	-0,002
482,7	-0,002
483,1	-0,002
483,6	-0,002
484	-0,002
484,5	-0,003
484,9	-0,002
485,4	-0,002
485,8	-0,002
486,3	0
486,7	-0
487,2	-0,001
487,6	-0,001
488,1	-0,001
488,5	-0,001
489	-0,001
489,4	-0,004
489,9	-0,004
490,4	-0,002
490,8	-0,001
491,3	-0,001
491,7	-0
492,2	0
492,6	0
493,1	-0
493,5	-0
494	-0
494,4	-0
494,9	0
495,3	0,001
495,8	-0
496,2	0
496,7	0
497,1	0,001
497,6	0,001
498	0
498,5	0
498,9	0
499,4	-0
499,8	-0
500,3	-0,001
500,7	-0,002
501,2	-0,002
501,6	-0,002
502,1	-0,001
502,5	-0,001
503	-0,001
503,4	-0
503,9	0
504,3	0,001
504,8	0
505,2	-0
505,7	-0
506,1	0
506,6	-0
507	-0,001
507,5	-0,001
507,9	-0,001
508,4	-0,001
508,8	-0
509,3	-0,001
509,7	-0,001
510,2	-0,001
510,6	-0
511,1	-0,001
511,5	-0,001
512	-0,001
512,4	-0,002
512,9	-0,002
513,3	-0,002
513,8	-0,002
514,2	-0,002
514,7	-0,001
515,1	-0,001
515,6	-0,001
516	-0,001
516,5	-0,001
516,9	-0,001
517,4	-0,002
517,8	-0,003
518,3	-0,003
518,7	-0,002
519,2	-0,002
519,6	-0,001
520,1	-0,001
520,5	-0,001
521	-0,001
521,4	-0
521,9	-0,001
522,3	-0,001
522,8	-0,002
523,2	-0,001
523,7	-0,001
524,1	-0,001
524,6	-0,001
525	-0,001
525,5	-0
525,9	0
526,4	0
526,8	-0
527,3	0
527,7	-0
528,2	-0,001
528,6	-0,001
529,1	-0
529,5	-0
530	-0
530,4	-0,001
530,9	-0,001
531,3	-0
531,8	-0
532,2	-0,001
532,6	-0,001
533,1	-0,001
533,5	-0,001
534	-0,001
534,4	-0,001
534,9	-0,001
535,3	-0,001
535,8	-0,001
536,2	-0,001
536,7	-0,002
537,1	-0,002
537,6	-0,002
538	-0,002
538,5	-0,001
538,9	-0,002
539,4	-0,001
539,8	-0,001
540,3	-0,001
540,7	-0,002
541,2	-0,002
541,6	-0,002
542,1	-0,002
542,5	-0,001
543	-0,001
543,4	-0,001
543,9	-0,001
544,3	-0
544,8	-0
545,2	-0
545,7	-0,001
546,1	-0,001
546,5	-0,001
547	-0,002
547,4	-0,002
547,9	-0,002
548,3	-0,002
548,8	-0,003
549,2	-0,002
549,7	-0,003
550,1	-0,002
550,6	-0,002
551	-0,003
551,5	-0,003
551,9	-0,003
552,4	-0,003
552,8	-0,002
553,3	-0,002
553,7	-0,003
554,2	-0,002
554,6	-0,002
555,1	-0,002
555,5	-0,002
555,9	-0,001
556,4	-0,002
556,8	-0,001
557,3	-0,001
557,7	-0,001
558,2	-0,001
558,6	-0,002
559,1	-0,002
559,5	-0,002
560	-0,002
560,4	-0,002
560,9	-0,002
561,3	-0,002
561,8	-0,002
562,2	-0,002
562,7	-0,002
563,1	-0,002
563,6	-0,001
564	-0,001
564,4	-0
564,9	-0
565,3	-0
565,8	-0
566,2	-0,001
566,7	-0,001
567,1	-0,001
567,6	-0,002
568	-0,001
568,5	-0,002
568,9	-0,002
569,4	-0,001
569,8	-0
570,3	-0,001
570,7	-0,001
571,1	-0
571,6	-0
572	-0
572,5	-0,001
572,9	-0,002
573,4	-0,001
573,8	-0,001
574,3	-0,001
574,7	-0,001
575,2	-0,001
575,6	-0,001
576,1	-0
576,5	-0,001
576,9	-0
577,4	-0
577,8	-0
578,3	-0
578,7	-0
579,2	-0,001
579,6	-0,001
580,1	-0,001
580,5	-0,001
581	-0,002
581,4	-0,001
581,9	-0,001
582,3	-0,001
582,7	-0,002
583,2	-0,002
583,6	-0,002
584,1	-0,001
584,5	-0,002
585	-0,002
585,4	-0,001
585,9	-0
586,3	-0
586,8	-0
587,2	-0
587,6	-0
588,1	-0,001
588,5	-0,001
589	-0
589,4	-0
589,9	-0
590,3	-0
590,8	-0
591,2	-0,001
591,7	-0,001
592,1	-0,001
592,5	-0,001
593	-0
593,4	-0
593,9	-0
594,3	-0,001
594,8	-0
595,2	-0
595,7	-0,001
596,1	-0,002
596,6	-0,002
597	-0,002
597,4	-0,001
597,9	-0,002
598,3	-0,002
598,8	-0,001
599,2	-0,001
599,7	-0,001
600,1	-0,001
600,6	-0,002
601	-0,001
601,4	-0,001
601,9	-0,001
602,3	-0,002
602,8	-0,001
603,2	-0,001
603,7	-0,001
604,1	-0,001
604,6	-0,001
605	-0,001
605,4	-0,001
605,9	-0,001
606,3	-0,001
606,8	-0,001
607,2	-0,001
607,7	-0,001
608,1	-0,001
608,6	-0,001
609	-0,001
609,4	-0,001
609,9	-0,001
610,3	-0
610,8	-0
611,2	-0
611,7	0
612,1	-0
612,6	-0
613	-0,001
613,4	-0,001
613,9	-0,001
614,3	-0,001
614,8	-0,001
615,2	-0,001
615,7	-0,001
616,1	-0,001
616,6	-0,002
617	-0,002
617,4	-0,002
617,9	-0,002
618,3	-0,002
618,8	-0,001
619,2	-0,001
619,7	-0,001
620,1	-0,001
620,5	-0,001
621	-0,001
621,4	-0,001
621,9	-0,001
622,3	-0,001
622,8	-0,001
623,2	-0,001
623,6	-0,001
624,1	-0,001
624,5	-0,001
625	-0,002
625,4	-0,002
625,9	-0,001
626,3	-0,001
626,8	-0,001
627,2	-0,001
627,6	-0,001
628,1	-0
628,5	-0
629	-0,001
629,4	-0,001
629,9	-0,001
630,3	-0,001
630,7	-0,001
631,2	-0,001
631,6	-0
632,1	-0
632,5	-0
633	-0
633,4	-0,001
633,8	-0,001
634,3	-0,001
634,7	-0,001
635,2	-0,001
635,6	-0,001
636,1	-0,002
636,5	-0,001
636,9	-0,002
637,4	-0,002
637,8	-0,002
638,3	-0,002
638,7	-0,002
639,2	-0,002
639,6	-0,002
640	-0,002
640,5	-0,002
640,9	-0,001
641,4	-0,002
641,8	-0,002
642,2	-0,002
642,7	-0,003
643,1	-0,003
643,6	-0,003
644	-0,003
644,5	-0,003
644,9	-0,003
645,3	-0,003
645,8	-0,003
646,2	-0,003
646,7	-0,003
647,1	-0,002
647,6	-0,002
648	-0,002
648,4	-0,001
648,9	-0,001
649,3	-0,001
649,8	-0,001
650,2	-0,001
650,6	-0
651,1	-0,001
651,5	-0,001
652	-0,001
652,4	-0,002
652,9	-0,002
653,3	-0,002
653,7	-0,003
654,2	-0,003
654,6	-0,005
655,1	-0,007
655,5	-0,004
655,9	-0,003
656,4	-0,002
656,8	-0,004
657,3	-0,003
657,7	-0,003
658,2	-0,002
658,6	-0,001
659	-0,001
659,5	-0,002
659,9	0,005
660,4	0,006
660,8	0,006
661,2	0,005
661,7	0,004
662,1	0,003
662,6	0,002
663	0,001
663,4	0,001
663,9	0,001
664,3	0
664,8	-0
665,2	-0,001
665,6	-0,001
666,1	-0,001
666,5	-0,002
667	-0,002
667,4	-0,002
667,9	-0,002
668,3	-0,002
668,7	-0,002
669,2	-0,002
669,6	-0,001
670,1	-0,002
670,5	-0,002
670,9	-0,002
671,4	-0,001
671,8	-0,001
672,3	-0,002
672,7	-0,002
673,1	-0,002
673,6	-0,001
674	-0,001
674,5	-0,002
674,9	-0,002
675,3	-0,002
675,8	-0,002
676,2	-0,002
676,7	-0,002
677,1	-0,002
677,5	-0,002
678	-0,002
678,4	-0,002
678,9	-0,002
679,3	-0,001
679,7	-0,001
680,2	-0,001
680,6	-0,001
681,1	-0,001
681,5	-0,001
681,9	-0,002
682,4	-0,002
682,8	-0,003
683,3	-0,003
683,7	-0,003
684,1	-0,003
684,6	-0,003
685	-0,003
685,5	-0,002
685,9	-0,002
686,3	-0,002
686,8	-0,002
687,2	-0,002
687,7	-0,002
688,1	-0,002
688,5	-0,003
689	-0,002
689,4	-0,002
689,9	-0,002
690,3	-0,002
690,7	-0,001
691,2	-0,001
691,6	-0,001
692	-0,001
692,5	-0,001
692,9	-0,002
693,4	-0,002
693,8	-0,002
694,2	-0,002
694,7	-0,002
695,1	-0,002
695,6	-0,001
696	-0,001
696,4	-0,001
696,9	-0,001
697,3	-0,001
697,8	-0,001
698,2	-0,002
698,6	-0,002
699,1	-0,002
699,5	-0,002
699,9	-0,001
700,4	-0,001
700,8	-0,001
701,3	-0,002
701,7	-0,002
702,1	-0,002
702,6	-0,002
703	-0,002
703,5	-0,002
703,9	-0,002
704,3	-0,001
704,8	-0,002
705,2	-0,002
705,6	-0,002
706,1	-0,002
706,5	-0,002
707	-0,002
707,4	-0,002
707,8	-0,002
708,3	-0,002
708,7	-0,002
709,2	-0,002
709,6	-0,002
710	-0,002
710,5	-0,001
710,9	-0,002
711,3	-0,002
711,8	-0,002
712,2	-0,002
712,7	-0,002
713,1	-0,002
713,5	-0,002
714	-0,002
714,4	-0,001
714,8	-0,001
715,3	-0,001
715,7	-0,001
716,2	-0,001
716,6	-0,001
717	-0,001
717,5	-0,001
717,9	-0,001
718,3	-0,001
718,8	-0,001
719,2	-0,001
719,7	-0,001
720,1	-0,001
720,5	-0,001
721	-0,001
721,4	-0,001
721,8	-0,002
722,3	-0,001
722,7	-0,001
723,2	-0,001
723,6	-0,001
724	-0,002
724,5	-0,001
724,9	-0,001
725,3	-0,001
725,8	-0,002
726,2	-0,002
726,7	-0,002
727,1	-0,002
727,5	-0,002
728	-0,002
728,4	-0,002
728,8	-0,001
729,3	-0,001
729,7	-0,001
730,1	-0,001
730,6	-0,001
731	-0,001
731,5	-0,002
731,9	-0,002
732,3	-0,002
732,8	-0,002
733,2	-0,002
733,6	-0,002
734,1	-0,002
734,5	-0,003
734,9	-0,003
735,4	-0,003
735,8	-0,003
736,3	-0,002
736,7	-0,002
737,1	-0,002
737,6	-0,002
738	-0,001
738,4	-0,001
738,9	-0,001
739,3	-0
739,7	-0,001
740,2	-0,001
740,6	-0,001
741,1	-0,001
741,5	-0,002
741,9	-0,002
742,4	-0,002
742,8	-0,002
743,2	-0,002
743,7	-0,002
744,1	-0,002
744,5	-0,002
745	-0,002
745,4	-0,001
745,8	-0,001
746,3	-0,001
746,7	-0,001
747,2	-0,001
747,6	-0,001
748	-0,001
748,5	-0,002
748,9	-0,002
749,3	-0,001
749,8	-0,001
750,2	-0,001
750,6	-0,002
751,1	-0,002
751,5	-0,002
751,9	-0,003
752,4	-0,003
752,8	-0,003
753,3	-0,003
753,7	-0,003
754,1	-0,002
754,6	-0,002
755	-0,002
755,4	-0,002
755,9	-0,002
756,3	-0,001
756,7	-0,001
757,2	-0,001
757,6	-0,001
758	-0,001
758,5	-0,001
758,9	-0,001
759,3	-0,001
759,8	-0,001
760,2	-0,001
760,6	-0,001
761,1	-0
761,5	-0,001
761,9	-0,001
762,4	-0,001
762,8	-0,001
763,3	-0,001
763,7	-0,001
764,1	-0,001
764,6	-0,001
765	-0,001
765,4	-0,001
765,9	-0,002
766,3	-0,002
766,7	-0,002
767,2	-0,002
767,6	-0,002
768	-0,002
768,5	-0,002
768,9	-0,002
769,3	-0,002
769,8	-0,003
770,2	-0,003
770,6	-0,003
771,1	-0,003
771,5	-0,003
771,9	-0,003
772,4	-0,003
772,8	-0,003
773,2	-0,003
773,7	-0,003
774,1	-0,003
774,5	-0,003
775	-0,003
775,4	-0,003
775,8	-0,003
776,3	-0,002
776,7	-0,003
777,1	-0,002
777,6	-0,002
778	-0,002
778,4	-0,002
778,9	-0,002
779,3	-0,002
779,7	-0,001
780,2	-0,002
780,6	-0,002
781	-0,002
781,5	-0,001
781,9	-0,002
782,3	-0,002
782,8	-0,002
783,2	-0,002
783,6	-0,002
784,1	-0,003
784,5	-0,003
784,9	-0,002
785,4	-0,002
785,8	-0,002
786,2	-0,002
786,7	-0,002
787,1	-0,002
787,5	-0,002
788	-0,002
788,4	-0,002
788,8	-0,002
789,3	-0,002
789,7	-0,002
790,1	-0,001
790,6	-0,001
791	-0,001
791,4	-0,001
791,9	-0,001
792,3	-0,001
792,7	-0,002
793,2	-0,002
793,6	-0,002
794	-0,002
794,5	-0,002
794,9	-0,001
795,3	-0,001
795,8	-0,001
796,2	-0,001
796,6	-0,001
797,1	-0,001
797,5	-0,001
797,9	-0,001
798,4	-0,001
798,8	-0,001
799,2	-0,001
799,7	-0,001
800,1	-0,001
800,5	-0,001
801	-0,001
801,4	-0,001
801,8	-0,001
802,2	-0,001
802,7	-0,001
803,1	-0,001
803,5	-0,001
804	-0,001
804,4	-0,001
804,8	-0,001
805,3	-0,002
805,7	-0,002
806,1	-0,001
806,6	-0,002
807	-0,002
807,4	-0,001
807,9	-0,002
808,3	-0,002
808,7	-0,002
809,2	-0,002
809,6	-0,001
810	-0,001
810,4	-0,001
810,9	-0,001
811,3	-0,001
811,7	-0,001
812,2	-0,001
812,6	-0,001
813	-0,002
813,5	-0,002
813,9	-0,002
814,3	-0,002
814,8	-0,002
815,2	-0,002
815,6	-0,002
816,1	-0,002
816,5	-0,002
816,9	-0,002
817,3	-0,002
817,8	-0,001
818,2	-0,001
818,6	-0,001
819,1	-0,001
819,5	-0,001
819,9	-0,001
820,4	-0,001
820,8	-0,002
821,2	-0,002
821,7	-0,001
822,1	-0,001
822,5	-0,001
822,9	-0,001
823,4	-0,001
823,8	-0
824,2	-0
824,7	-0
825,1	-0
825,5	-0,001
826	-0,001
826,4	-0,001
826,8	-0,002
827,3	-0,002
827,7	-0,002
828,1	-0,002
828,5	-0,002
829	-0,003
829,4	-0,002
829,8	-0,002
830,3	-0,002
830,7	-0,002
831,1	-0,002
831,6	-0,002
832	-0,001
832,4	-0,002
832,8	-0,002
833,3	-0,001
833,7	-0,002
834,1	-0,002
834,6	-0,002
835	-0,002
835,4	-0,002
835,8	-0,003
836,3	-0,003
836,7	-0,003
837,1	-0,002
837,6	-0,002
838	-0,002
838,4	-0,002
838,9	-0,002
839,3	-0,002
839,7	-0,002
840,1	-0,002
840,6	-0,002
841	-0,002
841,4	-0,002
841,9	-0,002
842,3	-0,002
842,7	-0,002
843,1	-0,002
843,6	-0,002
844	-0,002
844,4	-0,002
844,9	-0,002
845,3	-0,002
845,7	-0,003
846,2	-0,003
846,6	-0,003
847	-0,003
847,4	-0,003
847,9	-0,003
848,3	-0,003
848,7	-0,003
849,2	-0,003
849,6	-0,003
850	-0,002
850,4	-0,002
850,9	-0,002
851,3	-0,002
851,7	-0,002
852,2	-0,002
852,6	-0,002
853	-0,002
853,4	-0,002
853,9	-0,002
854,3	-0,002
854,7	-0,002
855,2	-0,002
855,6	-0,002
856	-0,002
856,4	-0,002
856,9	-0,003
857,3	-0,003
857,7	-0,003
858,2	-0,003
858,6	-0,003
859	-0,003
859,4	-0,003
859,9	-0,002
860,3	-0,002
860,7	-0,002
861,1	-0,002
861,6	-0,001
862	-0,001
862,4	-0,002
862,9	-0,002
863,3	-0,002
863,7	-0,002
864,1	-0,002
864,6	-0,003
865	-0,003
865,4	-0,003
865,9	-0,002
866,3	-0,002
866,7	-0,002
867,1	-0,002
867,6	-0,002
868	-0,002
868,4	-0,002
868,8	-0,002
869,3	-0,002
869,7	-0,002
870,1	-0,002
870,6	-0,002
871	-0,002
871,4	-0,002
871,8	-0,003
872,3	-0,003
872,7	-0,003
873,1	-0,003
873,5	-0,003
874	-0,003
874,4	-0,003
874,8	-0,004
875,3	-0,004
875,7	-0,004
876,1	-0,004
876,5	-0,004
877	-0,003
877,4	-0,003
877,8	-0,003
878,2	-0,003
878,7	-0,003
879,1	-0,003
879,5	-0,003
879,9	-0,003
880,4	-0,003
880,8	-0,003
881,2	-0,003
881,7	-0,003
882,1	-0,003
882,5	-0,003
882,9	-0,003
883,4	-0,004
883,8	-0,003
884,2	-0,004
884,6	-0,004
885,1	-0,004
885,5	-0,004
885,9	-0,004
886,3	-0,004
886,8	-0,003
887,2	-0,003
887,6	-0,003
888	-0,003
888,5	-0,002
888,9	-0,002
889,3	-0,002
889,8	-0,002
890,2	-0,002
890,6	-0,002
891	-0,002
891,5	-0,001
891,9	-0,001
892,3	-0,001
892,7	-0,001
893,2	-0,001
893,6	-0,001
894	-0,001
894,4	-0,001
894,9	-0,002
895,3	-0,002
895,7	-0,002
896,1	-0,002
896,6	-0,002
897	-0,002
897,4	-0,003
897,8	-0,002
898,3	-0,002
898,7	-0,002
899,1	-0,002
899,5	-0,002
900	-0,002
900,4	-0,002
900,8	-0,002
901,2	-0,002
901,7	-0,002
902,1	-0,002
902,5	-0,002
902,9	-0,003
903,4	-0,003
903,8	-0,002
904,2	-0,003
904,6	-0,002
905,1	-0,002
905,5	-0,001
905,9	-0,001
906,3	-0,001
906,8	-0,001
907,2	-0,001
907,6	-0
908	-0
908,5	-0
908,9	-0
909,3	-0
909,7	-0
910,2	-0
910,6	-0
911	-0
911,4	0
911,9	0
912,3	0,001
912,7	0,001
913,1	0,001
913,6	0,001
914	0,001
914,4	0,001
914,8	0,001
915,3	0,001
915,7	0,001
916,1	0
916,5	-0
916,9	-0
917,4	-0
917,8	-0
918,2	-0
918,6	-0
919,1	-0,001
919,5	-0,001
919,9	-0,001
920,3	-0,001
920,8	-0,001
921,2	-0,001
921,6	-0,001
922	-0,001
922,5	-0,002
922,9	-0,002
923,3	-0,002
923,7	-0,001
924,2	-0,001
924,6	-0,001
925	-0,001
925,4	-0,001
925,8	-0,001
926,3	-0,002
926,7	-0,002
927,1	-0,002
927,5	-0,002
928	-0,002
928,4	-0,002
928,8	-0,002
929,2	-0,002
929,7	-0,002
930,1	-0,002
930,5	-0,002
930,9	-0,003
931,3	-0,003
931,8	-0,003
932,2	-0,003
932,6	-0,003
933	-0,003
933,5	-0,003
933,9	-0,003
934,3	-0,003
934,7	-0,003
935,2	-0,004
935,6	-0,003
936	-0,003
936,4	-0,003
936,8	-0,003
937,3	-0,003
937,7	-0,003
938,1	-0,003
938,5	-0,003
939	-0,004
939,4	-0,004
939,8	-0,004
940,2	-0,003
940,6	-0,003
941,1	-0,003
941,5	-0,003
941,9	-0,002
942,3	-0,002
942,8	-0,002
943,2	-0,001
943,6	-0,002
944	-0,002
944,4	-0,001
944,9	-0,002
945,3	-0,002
945,7	-0,002
946,1	-0,002
946,6	-0,002
947	-0,002
947,4	-0,003
947,8	-0,003
948,2	-0,004
948,7	-0,004
949,1	-0,004
949,5	-0,004
949,9	-0,005
950,3	-0,004
950,8	-0,005
951,2	-0,005
951,6	-0,005
952	-0,005
952,5	-0,005
952,9	-0,004
953,3	-0,005
953,7	-0,005
954,1	-0,005
954,6	-0,005
955	-0,006
955,4	-0,006
955,8	-0,007
956,2	-0,007
956,7	-0,007
957,1	-0,008
957,5	-0,008
957,9	-0,008
958,3	-0,008
958,8	-0,008
959,2	-0,008
959,6	-0,008
960	-0,009
960,5	-0,008
960,9	-0,009
961,3	-0,009
961,7	-0,009
962,1	-0,009
962,6	-0,008
963	-0,008
963,4	-0,009
963,8	-0,008
964,2	-0,008
964,7	-0,007
965,1	-0,007
965,5	-0,007
965,9	-0,007
966,3	-0,006
966,8	-0,006
967,2	-0,006
967,6	-0,006
968	-0,006
968,4	-0,005
968,9	-0,005
969,3	-0,005
969,7	-0,005
970,1	-0,004
970,5	-0,004
971	-0,004
971,4	-0,005
971,8	-0,005
972,2	-0,005
972,6	-0,005
973,1	-0,006
973,5	-0,007
973,9	-0,007
974,3	-0,007
974,7	-0,007
975,2	-0,007
975,6	-0,007
976	-0,006
976,4	-0,006
976,8	-0,006
977,3	-0,006
977,7	-0,006
978,1	-0,006
978,5	-0,006
978,9	-0,007
979,4	-0,007
979,8	-0,007
980,2	-0,007
980,6	-0,007
981	-0,007
981,5	-0,007
981,9	-0,007
982,3	-0,006
982,7	-0,007
983,1	-0,006
983,6	-0,006
984	-0,006
984,4	-0,006
984,8	-0,006
985,2	-0,006
985,6	-0,006
986,1	-0,006
986,5	-0,007
986,9	-0,006
987,3	-0,006
987,7	-0,006
988,2	-0,006
988,6	-0,005
989	-0,006
989,4	-0,005
989,8	-0,005
990,3	-0,005
990,7	-0,005
991,1	-0,005
991,5	-0,005
991,9	-0,005
992,3	-0,005
992,8	-0,005
993,2	-0,005
993,6	-0,005
994	-0,005
994,4	-0,004
994,9	-0,005
995,3	-0,005
995,7	-0,005
996,1	-0,005
996,5	-0,005
996,9	-0,004
997,4	-0,005
997,8	-0,004
998,2	-0,004
998,6	-0,004
999	-0,004
999,5	-0,004
999,9	-0,004
1000,3	-0,004
1000,7	-0,004
1001,1	-0,004
1001,5	-0,004
1002	-0,003
1002,4	-0,003
1002,8	-0,002
1003,2	-0,002
1003,6	-0,002
1004	-0,001
1004,5	-0,001
1004,9	-0,001
1005,3	-0,001
1005,7	-0,001
1006,1	-0,001
1006,6	-0,001
1007	-0,001
1007,4	-0,001
1007,8	-0,001
1008,2	-0,001
1008,6	-0
1009,1	-0
1009,5	-0,001
1009,9	-0,001
1010,3	-0
1010,7	-0
1011,1	-0,001
1011,6	-0,001
1012	-0
1012,4	-0,001
1012,8	0
1013,2	-0,001
1013,6	-0,001
1014,1	-0,001
1014,5	-0,001
1014,9	-0,001
1015,3	-0,002
1015,7	-0,001
1016,1	-0,001
1016,6	-0,001
1017	-0,002
1017,4	-0,002
1017,8	-0,002
1018,2	-0,001
1018,6	-0,002
1019,1	-0,002
1019,5	-0,002
1019,9	-0,001
1020,3	-0,001
1020,7	-0,001
1021,1	-0,001
1021,6	-0,001
1022	-0
1022,4	-0
1022,8	-0
1023,2	-0
1023,6	0
1024,1	0,001
1024,5	0
1024,9	-0,001
1025,3	-0,001
1025,7	-0,002
1026,1	-0,002
1026,6	-0,003
1027	-0,004
1027,4	-0,004
1027,8	-0,004
1028,2	-0,003
1028,6	-0,002
1029	-0,002
1029,5	-0,002
1029,9	-0,001
1030,3	-0,001
1030,7	-0,001
1031,1	-0,002
1031,5	-0,002
1032	-0,002
1032,4	-0,001
1032,8	-0,002
1033,2	-0,002
1033,6	-0,001
1034	-0,002
1034,4	-0,002
1034,9	-0,002
1035,3	-0,003
1035,7	-0,003
1036,1	-0,003
1036,5	-0,004
1036,9	-0,002
1037,4	-0,002
1037,8	-0,002
1038,2	-0,001
1038,6	-0,001
1039	-0,001
1039,4	-0
1039,8	-0,002
1040,3	-0,002
1040,7	-0,002
1041,1	-0,002
1041,5	-0,002
1041,9	-0,001
1042,3	-0,002
1042,7	-0,002
1043,2	-0,001
1043,6	-0,002
1044	-0,002
1044,4	-0,004
1044,8	-0,004
1045,2	-0,005
1045,6	-0,006
1046,1	-0,006
1046,5	-0,004
1046,9	-0,005
1047,3	-0,004
1047,7	-0,004
1048,1	-0,004
1048,5	-0,003
1049	-0,002
1049,4	-0,005
1049,8	-0,004
1050,2	-0,004
1050,6	-0,004
1051	-0,004
1051,4	-0,005
1051,9	-0,005
1052,3	-0,004
1052,7	-0,003
1053,1	-0,003
1053,5	-0,003
1053,9	-0,002
1054,3	-0,001
1054,8	-0,001
1055,2	-0,001
1055,6	-0,001
1056	-0,001
1056,4	-0,001
1056,8	-0,001
1057,2	-0,002
1057,6	-0,002
1058,1	-0,002
1058,5	-0,002
1058,9	-0,002
1059,3	-0,001
1059,7	-0,001
1060,1	-0,001
1060,5	-0,001
1061	-0,001
1061,4	-0,002
1061,8	-0,002
1062,2	-0,003
1062,6	-0,003
1063	-0,002
1063,4	-0,001
1063,8	-0,001
1064,3	-0,002
1064,7	-0,002
1065,1	-0,002
1065,5	-0,003
1065,9	-0,004
1066,3	-0,004
1066,7	-0,004
1067,1	-0,003
1067,6	-0,003
1068	-0,004
1068,4	-0,003
1068,8	-0,003
1069,2	-0,004
1069,6	-0,004
1070	-0,006
1070,4	-0,006
1070,9	-0,006
1071,3	-0,005
1071,7	-0,005
1072,1	-0,005
1072,5	-0,005
1072,9	-0,003
1073,3	-0,004
1073,7	-0,003
1074,2	-0,004
1074,6	-0,004
1075	-0,005
1075,4	-0,004
1075,8	-0,005
1076,2	-0,004
1076,6	-0,004
1077	-0,004
1077,5	-0,003
1077,9	-0,004
1078,3	-0,004
1078,7	-0,004
1079,1	-0,003
1079,5	-0,003
1079,9	-0,001
1080,3	-0,004
1080,7	-0,002
1081,2	-0,004
1081,6	-0,006
1082	-0,008
1082,4	-0,009
1082,8	-0,01
1083,2	-0,009
1083,6	-0,01
1084	-0,009
1084,5	-0,008
1084,9	-0,009
1085,3	-0,01
1085,7	-0,011
1086,1	-0,012
1086,5	-0,011
1086,9	-0,01
1087,3	-0,009
1087,7	-0,009
1088,2	-0,009
1088,6	-0,008
1089	-0,006
1089,4	-0,006
1089,8	-0,006
1090,2	-0,01
1090,6	-0,008
1091	-0,007
1091,4	-0,007
1091,9	-0,009
1092,3	-0,01
1092,7	-0,014
1093,1	-0,008
1093,5	-0,009
1093,9	-0,01
1094,3	-0,013
1094,7	-0,01
1095,1	-0,01
1095,5	-0,011
1096	-0,015
1096,4	-0,016
1096,8	-0,014
1097,2	-0,018
1097,6	-0,025
1098	-0,031
1098,4	-0,027
1098,8	-0,038
1099,2	-0,04
1099,6	-0,042
1100,1	-0,043
1100,5	-0,039
1100,9	-0,036
1101,3	-0,034
1101,7	-0,028
1102,1	-0,027
1102,5	-0,032
1102,9	-0,032
1103,3	-0,036
1103,7	-0,041
1104,2	-0,05
1104,6	-0,05
1105	-0,058
1105,4	-0,063
1105,8	-0,054
1106,2	-0,052
1106,6	-0,065
1107	-0,071
1107,4	-0,075
1107,8	-0,054
1108,3	-0,09
