Data from Absorbance_00026.txt Node
Date: Wed Aug 02 14:07:56 MSK 2023
User: vat
Spectrometer: MAYP114033
Trigger mode: 0
Integration Time (sec): 8,000000E-3
Scans to average: 10
Electric dark correction enabled: true
Nonlinearity correction enabled: false
Boxcar width: 3
XAxis mode: Wavelengths
Number of Pixels in Spectrum: 2068
>>>>>Begin Spectral Data<<<<<
199,4	-0,85
199,9	-0,204
200,4	0,189
200,8	0,61
201,3	0,786
201,8	0,855
202,2	0,89
202,7	0,927
203,2	0,991
203,6	1,017
204,1	1,016
204,6	1,026
205	1,035
205,5	1,06
206	1,057
206,4	1,058
206,9	1,064
207,4	1,087
207,8	1,116
208,3	1,129
208,8	1,127
209,2	1,159
209,7	1,175
210,2	1,209
210,6	1,227
211,1	1,223
211,5	1,247
212	1,283
212,5	1,3
212,9	1,325
213,4	1,339
213,9	1,35
214,3	1,371
214,8	1,365
215,3	1,36
215,7	1,37
216,2	1,366
216,7	1,378
217,1	1,413
217,6	1,415
218,1	1,447
218,5	1,465
219	1,482
219,5	1,511
219,9	1,535
220,4	1,539
220,9	1,568
221,3	1,581
221,8	1,596
222,3	1,604
222,7	1,623
223,2	1,632
223,6	1,628
224,1	1,64
224,6	1,654
225	1,662
225,5	1,674
226	1,692
226,4	1,712
226,9	1,734
227,4	1,762
227,8	1,769
228,3	1,803
228,8	1,824
229,2	1,827
229,7	1,852
230,2	1,875
230,6	1,878
231,1	1,891
231,5	1,884
232	1,889
232,5	1,904
232,9	1,904
233,4	1,903
233,9	1,907
234,3	1,929
234,8	1,939
235,3	1,946
235,7	1,955
236,2	1,961
236,7	1,986
237,1	1,982
237,6	1,981
238,1	2,011
238,5	2,031
239	2,029
239,4	2,029
239,9	2,02
240,4	2,037
240,8	2,044
241,3	2,009
241,8	2,008
242,2	2,02
242,7	2,028
243,2	2,035
243,6	2,039
244,1	2,033
244,6	2,064
245	2,071
245,5	2,068
245,9	2,085
246,4	2,073
246,9	2,086
247,3	2,109
247,8	2,109
248,3	2,121
248,7	2,114
249,2	2,111
249,7	2,153
250,1	2,156
250,6	2,151
251	2,158
251,5	2,127
252	2,121
252,4	2,119
252,9	2,099
253,4	2,083
253,8	2,101
254,3	2,093
254,8	2,12
255,2	2,139
255,7	2,144
256,1	2,164
256,6	2,193
257,1	2,174
257,5	2,167
258	2,159
258,5	2,148
258,9	2,156
259,4	2,123
259,9	2,112
260,3	2,112
260,8	2,132
261,2	2,117
261,7	2,144
262,2	2,124
262,6	2,162
263,1	2,146
263,6	2,147
264	2,144
264,5	2,158
264,9	2,135
265,4	2,139
265,9	2,136
266,3	2,161
266,8	2,169
267,3	2,174
267,7	2,189
268,2	2,203
268,7	2,194
269,1	2,179
269,6	2,182
270	2,167
270,5	2,176
271	2,159
271,4	2,167
271,9	2,188
272,4	2,178
272,8	2,184
273,3	2,202
273,7	2,184
274,2	2,207
274,7	2,189
275,1	2,195
275,6	2,208
276,1	2,193
276,5	2,182
277	2,184
277,4	2,175
277,9	2,191
278,4	2,187
278,8	2,201
279,3	2,212
279,8	2,237
280,2	2,236
280,7	2,231
281,1	2,235
281,6	2,242
282,1	2,23
282,5	2,211
283	2,184
283,4	2,168
283,9	2,141
284,4	2,135
284,8	2,118
285,3	2,113
285,8	2,111
286,2	2,098
286,7	2,086
287,1	2,086
287,6	2,069
288,1	2,054
288,5	2,033
289	2,001
289,5	1,989
289,9	1,968
290,4	1,948
290,8	1,93
291,3	1,913
291,8	1,897
292,2	1,899
292,7	1,895
293,1	1,902
293,6	1,904
294,1	1,902
294,5	1,901
295	1,897
295,5	1,886
295,9	1,883
296,4	1,889
296,8	1,882
297,3	1,878
297,8	1,876
298,2	1,874
298,7	1,88
299,1	1,87
299,6	1,863
300,1	1,867
300,5	1,867
301	1,868
301,5	1,875
301,9	1,874
302,4	1,874
302,8	1,876
303,3	1,869
303,8	1,868
304,2	1,866
304,7	1,856
305,1	1,855
305,6	1,859
306,1	1,846
306,5	1,846
307	1,831
307,4	1,822
307,9	1,822
308,4	1,814
308,8	1,805
309,3	1,803
309,8	1,797
310,2	1,8
310,7	1,791
311,1	1,785
311,6	1,774
312,1	1,764
312,5	1,752
313	1,748
313,4	1,744
313,9	1,743
314,4	1,732
314,8	1,73
315,3	1,719
315,7	1,711
316,2	1,698
316,7	1,685
317,1	1,673
317,6	1,666
318	1,659
318,5	1,655
319	1,646
319,4	1,637
319,9	1,626
320,3	1,615
320,8	1,603
321,3	1,589
321,7	1,578
322,2	1,562
322,6	1,55
323,1	1,536
323,6	1,522
324	1,506
324,5	1,491
324,9	1,475
325,4	1,46
325,9	1,446
326,3	1,431
326,8	1,418
327,2	1,401
327,7	1,382
328,2	1,369
328,6	1,354
329,1	1,336
329,5	1,321
330	1,305
330,5	1,292
330,9	1,28
331,4	1,262
331,8	1,245
332,3	1,23
332,8	1,216
333,2	1,201
333,7	1,188
334,1	1,173
334,6	1,16
335,1	1,148
335,5	1,134
336	1,117
336,4	1,102
336,9	1,085
337,4	1,069
337,8	1,053
338,3	1,038
338,7	1,024
339,2	1,01
339,7	0,998
340,1	0,984
340,6	0,969
341	0,955
341,5	0,941
342	0,927
342,4	0,913
342,9	0,899
343,3	0,887
343,8	0,875
344,2	0,862
344,7	0,848
345,2	0,836
345,6	0,823
346,1	0,81
346,5	0,795
347	0,783
347,5	0,771
347,9	0,759
348,4	0,746
348,8	0,733
349,3	0,721
349,8	0,709
350,2	0,696
350,7	0,684
351,1	0,672
351,6	0,661
352	0,65
352,5	0,638
353	0,626
353,4	0,616
353,9	0,604
354,3	0,594
354,8	0,583
355,3	0,573
355,7	0,563
356,2	0,554
356,6	0,544
357,1	0,535
357,5	0,526
358	0,518
358,5	0,508
358,9	0,499
359,4	0,49
359,8	0,481
360,3	0,472
360,8	0,463
361,2	0,454
361,7	0,447
362,1	0,44
362,6	0,432
363	0,425
363,5	0,417
364	0,41
364,4	0,403
364,9	0,396
365,3	0,388
365,8	0,381
366,3	0,373
366,7	0,368
367,2	0,361
367,6	0,355
368,1	0,349
368,5	0,343
369	0,338
369,5	0,333
369,9	0,328
370,4	0,323
370,8	0,317
371,3	0,311
371,7	0,306
372,2	0,299
372,7	0,295
373,1	0,289
373,6	0,283
374	0,277
374,5	0,274
374,9	0,268
375,4	0,264
375,9	0,259
376,3	0,254
376,8	0,25
377,2	0,246
377,7	0,242
378,2	0,238
378,6	0,234
379,1	0,23
379,5	0,227
380	0,224
380,4	0,22
380,9	0,216
381,4	0,213
381,8	0,209
382,3	0,205
382,7	0,202
383,2	0,198
383,6	0,195
384,1	0,192
384,6	0,189
385	0,186
385,5	0,184
385,9	0,181
386,4	0,178
386,8	0,176
387,3	0,173
387,7	0,171
388,2	0,168
388,7	0,165
389,1	0,163
389,6	0,161
390	0,158
390,5	0,156
390,9	0,153
391,4	0,15
391,9	0,148
392,3	0,145
392,8	0,143
393,2	0,141
393,7	0,139
394,1	0,137
394,6	0,136
395,1	0,135
395,5	0,134
396	0,133
396,4	0,131
396,9	0,129
397,3	0,128
397,8	0,126
398,2	0,124
398,7	0,123
399,2	0,121
399,6	0,119
400,1	0,117
400,5	0,115
401	0,114
401,4	0,112
401,9	0,11
402,4	0,108
402,8	0,106
403,3	0,105
403,7	0,104
404,2	0,103
404,6	0,102
405,1	0,1
405,5	0,099
406	0,098
406,5	0,098
406,9	0,096
407,4	0,094
407,8	0,092
408,3	0,092
408,7	0,091
409,2	0,09
409,6	0,088
410,1	0,086
410,6	0,086
411	0,085
411,5	0,084
411,9	0,083
412,4	0,081
412,8	0,081
413,3	0,08
413,7	0,078
414,2	0,078
414,7	0,076
415,1	0,075
415,6	0,075
416	0,073
416,5	0,072
416,9	0,07
417,4	0,069
417,8	0,068
418,3	0,066
418,8	0,064
419,2	0,064
419,7	0,063
420,1	0,063
420,6	0,061
421	0,06
421,5	0,06
421,9	0,059
422,4	0,058
422,8	0,057
423,3	0,056
423,8	0,056
424,2	0,055
424,7	0,054
425,1	0,053
425,6	0,052
426	0,051
426,5	0,051
426,9	0,05
427,4	0,049
427,9	0,048
428,3	0,048
428,8	0,047
429,2	0,046
429,7	0,046
430,1	0,045
430,6	0,044
431	0,044
431,5	0,042
431,9	0,041
432,4	0,041
432,8	0,04
433,3	0,039
433,8	0,037
434,2	0,036
434,7	0,035
435,1	0,034
435,6	0,034
436	0,033
436,5	0,032
436,9	0,033
437,4	0,032
437,8	0,031
438,3	0,031
438,8	0,03
439,2	0,03
439,7	0,03
440,1	0,03
440,6	0,029
441	0,029
441,5	0,028
441,9	0,028
442,4	0,027
442,8	0,026
443,3	0,026
443,7	0,025
444,2	0,025
444,7	0,024
445,1	0,024
445,6	0,023
446	0,023
446,5	0,023
446,9	0,023
447,4	0,023
447,8	0,023
448,3	0,022
448,7	0,021
449,2	0,021
449,6	0,02
450,1	0,019
450,6	0,018
451	0,018
451,5	0,018
451,9	0,019
452,4	0,018
452,8	0,018
453,3	0,019
453,7	0,019
454,2	0,018
454,6	0,018
455,1	0,018
455,5	0,018
456	0,017
456,4	0,016
456,9	0,015
457,3	0,015
457,8	0,014
458,3	0,014
458,7	0,014
459,2	0,014
459,6	0,014
460,1	0,014
460,5	0,014
461	0,014
461,4	0,013
461,9	0,013
462,3	0,012
462,8	0,012
463,2	0,011
463,7	0,011
464,1	0,011
464,6	0,011
465	0,01
465,5	0,01
466	0,01
466,4	0,01
466,9	0,01
467,3	0,01
467,8	0,009
468,2	0,009
468,7	0,009
469,1	0,009
469,6	0,009
470	0,01
470,5	0,01
470,9	0,01
471,4	0,01
471,8	0,009
472,3	0,008
472,7	0,008
473,2	0,008
473,6	0,008
474,1	0,008
474,5	0,008
475	0,008
475,4	0,008
475,9	0,007
476,4	0,007
476,8	0,007
477,3	0,006
477,7	0,006
478,2	0,007
478,6	0,007
479,1	0,007
479,5	0,007
480	0,007
480,4	0,007
480,9	0,007
481,3	0,006
481,8	0,006
482,2	0,005
482,7	0,006
483,1	0,005
483,6	0,005
484	0,004
484,5	0,004
484,9	0,004
485,4	0,004
485,8	0,003
486,3	0,006
486,7	0,005
487,2	0,005
487,6	0,005
488,1	0,004
488,5	0,005
489	0,004
489,4	0
489,9	0,001
490,4	0,002
490,8	0,003
491,3	0,004
491,7	0,004
492,2	0,004
492,6	0,004
493,1	0,004
493,5	0,005
494	0,004
494,4	0,004
494,9	0,004
495,3	0,004
495,8	0,004
496,2	0,004
496,7	0,004
497,1	0,004
497,6	0,004
498	0,003
498,5	0,003
498,9	0,003
499,4	0,002
499,8	0,002
500,3	0,002
500,7	0,001
501,2	0,001
501,6	0,001
502,1	0,001
502,5	0,001
503	0,002
503,4	0,003
503,9	0,003
504,3	0,004
504,8	0,004
505,2	0,004
505,7	0,003
506,1	0,003
506,6	0,002
507	0,002
507,5	0,001
507,9	0,001
508,4	0,001
508,8	0,001
509,3	0,001
509,7	0,001
510,2	0,001
510,6	0,001
511,1	0,001
511,5	0,001
512	0,001
512,4	0
512,9	0
513,3	0,001
513,8	0,001
514,2	0
514,7	0,001
515,1	0,001
515,6	0,001
516	0,001
516,5	0,001
516,9	0,002
517,4	0,001
517,8	0
518,3	0
518,7	0
519,2	0
519,6	0,001
520,1	0,001
520,5	-0
521	0
521,4	0
521,9	-0
522,3	-0,001
522,8	-0,002
523,2	-0,002
523,7	-0,002
524,1	-0,001
524,6	-0,002
525	-0,001
525,5	-0,001
525,9	-0,001
526,4	-0,001
526,8	-0,001
527,3	-0,001
527,7	-0,001
528,2	-0,002
528,6	-0,002
529,1	-0,001
529,5	-0,001
530	-0,001
530,4	-0,001
530,9	-0,001
531,3	-0,001
531,8	-0,001
532,2	-0,001
532,6	-0,001
533,1	-0,001
533,5	-0,001
534	-0,001
534,4	-0,001
534,9	-0,001
535,3	-0,001
535,8	-0,001
536,2	-0,001
536,7	-0,001
537,1	-0,002
537,6	-0,001
538	-0,001
538,5	-0,001
538,9	-0,002
539,4	-0,002
539,8	-0,002
540,3	-0,002
540,7	-0,003
541,2	-0,002
541,6	-0,002
542,1	-0,002
542,5	-0,002
543	-0,002
543,4	-0,002
543,9	-0,002
544,3	-0,002
544,8	-0,002
545,2	-0,002
545,7	-0,001
546,1	-0,001
546,5	-0
547	-0,001
547,4	-0,001
547,9	-0,002
548,3	-0,002
548,8	-0,003
549,2	-0,003
549,7	-0,004
550,1	-0,004
550,6	-0,004
551	-0,005
551,5	-0,005
551,9	-0,004
552,4	-0,004
552,8	-0,004
553,3	-0,004
553,7	-0,003
554,2	-0,003
554,6	-0,002
555,1	-0,002
555,5	-0,002
555,9	-0,002
556,4	-0,002
556,8	-0,002
557,3	-0,003
557,7	-0,002
558,2	-0,002
558,6	-0,002
559,1	-0,002
559,5	-0,002
560	-0,003
560,4	-0,003
560,9	-0,003
561,3	-0,003
561,8	-0,004
562,2	-0,004
562,7	-0,003
563,1	-0,003
563,6	-0,003
564	-0,003
564,4	-0,003
564,9	-0,002
565,3	-0,002
565,8	-0,002
566,2	-0,002
566,7	-0,002
567,1	-0,002
567,6	-0,003
568	-0,002
568,5	-0,003
568,9	-0,002
569,4	-0,002
569,8	-0,002
570,3	-0,002
570,7	-0,002
571,1	-0,002
571,6	-0,002
572	-0,002
572,5	-0,002
572,9	-0,003
573,4	-0,002
573,8	-0,002
574,3	-0,002
574,7	-0,003
575,2	-0,003
575,6	-0,003
576,1	-0,002
576,5	-0,002
576,9	-0,002
577,4	-0,002
577,8	-0,001
578,3	-0,001
578,7	-0,002
579,2	-0,002
579,6	-0,002
580,1	-0,002
580,5	-0,002
581	-0,003
581,4	-0,002
581,9	-0,002
582,3	-0,002
582,7	-0,003
583,2	-0,003
583,6	-0,003
584,1	-0,002
584,5	-0,003
585	-0,003
585,4	-0,002
585,9	-0,001
586,3	-0,001
586,8	-0,001
587,2	-0,002
587,6	-0,002
588,1	-0,002
588,5	-0,002
589	-0,002
589,4	-0,002
589,9	-0,002
590,3	-0,002
590,8	-0,002
591,2	-0,002
591,7	-0,002
592,1	-0,002
592,5	-0,001
593	-0,001
593,4	-0,002
593,9	-0,002
594,3	-0,002
594,8	-0,002
595,2	-0,002
595,7	-0,003
596,1	-0,003
596,6	-0,003
597	-0,003
597,4	-0,002
597,9	-0,002
598,3	-0,002
598,8	-0,002
599,2	-0,002
599,7	-0,002
600,1	-0,002
600,6	-0,003
601	-0,003
601,4	-0,003
601,9	-0,003
602,3	-0,003
602,8	-0,003
603,2	-0,003
603,7	-0,003
604,1	-0,003
604,6	-0,003
605	-0,003
605,4	-0,002
605,9	-0,003
606,3	-0,003
606,8	-0,003
607,2	-0,003
607,7	-0,003
608,1	-0,003
608,6	-0,003
609	-0,002
609,4	-0,002
609,9	-0,002
610,3	-0,002
610,8	-0,002
611,2	-0,002
611,7	-0,002
612,1	-0,002
612,6	-0,002
613	-0,002
613,4	-0,003
613,9	-0,002
614,3	-0,003
614,8	-0,003
615,2	-0,002
615,7	-0,003
616,1	-0,003
616,6	-0,003
617	-0,003
617,4	-0,003
617,9	-0,003
618,3	-0,003
618,8	-0,003
619,2	-0,002
619,7	-0,002
620,1	-0,002
620,5	-0,002
621	-0,002
621,4	-0,002
621,9	-0,002
622,3	-0,002
622,8	-0,003
623,2	-0,003
623,6	-0,003
624,1	-0,003
624,5	-0,003
625	-0,004
625,4	-0,004
625,9	-0,003
626,3	-0,003
626,8	-0,003
627,2	-0,003
627,6	-0,003
628,1	-0,003
628,5	-0,003
629	-0,003
629,4	-0,002
629,9	-0,003
630,3	-0,003
630,7	-0,003
631,2	-0,003
631,6	-0,003
632,1	-0,003
632,5	-0,003
633	-0,003
633,4	-0,003
633,8	-0,002
634,3	-0,003
634,7	-0,002
635,2	-0,002
635,6	-0,002
636,1	-0,002
636,5	-0,003
636,9	-0,003
637,4	-0,003
637,8	-0,003
638,3	-0,004
638,7	-0,004
639,2	-0,004
639,6	-0,004
640	-0,004
640,5	-0,004
640,9	-0,004
641,4	-0,004
641,8	-0,004
642,2	-0,003
642,7	-0,004
643,1	-0,004
643,6	-0,004
644	-0,004
644,5	-0,004
644,9	-0,004
645,3	-0,004
645,8	-0,004
646,2	-0,004
646,7	-0,004
647,1	-0,004
647,6	-0,004
648	-0,004
648,4	-0,003
648,9	-0,004
649,3	-0,003
649,8	-0,003
650,2	-0,003
650,6	-0,003
651,1	-0,004
651,5	-0,004
652	-0,004
652,4	-0,004
652,9	-0,004
653,3	-0,005
653,7	-0,005
654,2	-0,006
654,6	-0,007
655,1	-0,01
655,5	-0,006
655,9	-0,004
656,4	-0,003
656,8	-0,005
657,3	-0,004
657,7	-0,004
658,2	-0,002
658,6	-0,002
659	-0,003
659,5	-0,003
659,9	0,005
660,4	0,007
660,8	0,006
661,2	0,005
661,7	0,004
662,1	0,003
662,6	0,001
663	0
663,4	-0,001
663,9	-0,001
664,3	-0,001
664,8	-0,002
665,2	-0,002
665,6	-0,003
666,1	-0,003
666,5	-0,003
667	-0,004
667,4	-0,004
667,9	-0,004
668,3	-0,004
668,7	-0,004
669,2	-0,004
669,6	-0,003
670,1	-0,004
670,5	-0,004
670,9	-0,004
671,4	-0,004
671,8	-0,004
672,3	-0,004
672,7	-0,004
673,1	-0,004
673,6	-0,004
674	-0,003
674,5	-0,004
674,9	-0,004
675,3	-0,003
675,8	-0,003
676,2	-0,003
676,7	-0,003
677,1	-0,003
677,5	-0,003
678	-0,003
678,4	-0,003
678,9	-0,003
679,3	-0,003
679,7	-0,003
680,2	-0,004
680,6	-0,004
681,1	-0,004
681,5	-0,003
681,9	-0,004
682,4	-0,004
682,8	-0,004
683,3	-0,004
683,7	-0,004
684,1	-0,004
684,6	-0,004
685	-0,004
685,5	-0,004
685,9	-0,004
686,3	-0,005
686,8	-0,005
687,2	-0,005
687,7	-0,005
688,1	-0,005
688,5	-0,005
689	-0,004
689,4	-0,004
689,9	-0,003
690,3	-0,003
690,7	-0,003
691,2	-0,003
691,6	-0,003
692	-0,003
692,5	-0,003
692,9	-0,003
693,4	-0,004
693,8	-0,004
694,2	-0,004
694,7	-0,004
695,1	-0,003
695,6	-0,004
696	-0,004
696,4	-0,003
696,9	-0,003
697,3	-0,003
697,8	-0,003
698,2	-0,004
698,6	-0,004
699,1	-0,004
699,5	-0,004
699,9	-0,004
700,4	-0,004
700,8	-0,004
701,3	-0,004
701,7	-0,004
702,1	-0,004
702,6	-0,004
703	-0,004
703,5	-0,004
703,9	-0,004
704,3	-0,003
704,8	-0,004
705,2	-0,004
705,6	-0,004
706,1	-0,004
706,5	-0,004
707	-0,005
707,4	-0,004
707,8	-0,004
708,3	-0,004
708,7	-0,004
709,2	-0,004
709,6	-0,004
710	-0,004
710,5	-0,004
710,9	-0,004
711,3	-0,004
711,8	-0,004
712,2	-0,004
712,7	-0,003
713,1	-0,004
713,5	-0,004
714	-0,004
714,4	-0,003
714,8	-0,003
715,3	-0,003
715,7	-0,003
716,2	-0,003
716,6	-0,002
717	-0,002
717,5	-0,002
717,9	-0,002
718,3	-0,002
718,8	-0,002
719,2	-0,002
719,7	-0,002
720,1	-0,003
720,5	-0,003
721	-0,003
721,4	-0,003
721,8	-0,003
722,3	-0,003
722,7	-0,003
723,2	-0,003
723,6	-0,004
724	-0,004
724,5	-0,003
724,9	-0,003
725,3	-0,003
725,8	-0,003
726,2	-0,003
726,7	-0,003
727,1	-0,003
727,5	-0,003
728	-0,003
728,4	-0,003
728,8	-0,003
729,3	-0,003
729,7	-0,003
730,1	-0,003
730,6	-0,003
731	-0,003
731,5	-0,003
731,9	-0,004
732,3	-0,004
732,8	-0,004
733,2	-0,004
733,6	-0,004
734,1	-0,004
734,5	-0,004
734,9	-0,004
735,4	-0,004
735,8	-0,004
736,3	-0,004
736,7	-0,003
737,1	-0,003
737,6	-0,003
738	-0,003
738,4	-0,002
738,9	-0,002
739,3	-0,003
739,7	-0,003
740,2	-0,003
740,6	-0,003
741,1	-0,004
741,5	-0,004
741,9	-0,004
742,4	-0,004
742,8	-0,004
743,2	-0,004
743,7	-0,003
744,1	-0,003
744,5	-0,003
745	-0,003
745,4	-0,002
745,8	-0,002
746,3	-0,002
746,7	-0,003
747,2	-0,002
747,6	-0,003
748	-0,003
748,5	-0,004
748,9	-0,004
749,3	-0,004
749,8	-0,004
750,2	-0,005
750,6	-0,005
751,1	-0,005
751,5	-0,005
751,9	-0,006
752,4	-0,006
752,8	-0,006
753,3	-0,006
753,7	-0,006
754,1	-0,005
754,6	-0,005
755	-0,004
755,4	-0,004
755,9	-0,004
756,3	-0,003
756,7	-0,003
757,2	-0,003
757,6	-0,003
758	-0,003
758,5	-0,002
758,9	-0,002
759,3	-0,002
759,8	-0,002
760,2	-0,002
760,6	-0,002
761,1	-0,001
761,5	-0,002
761,9	-0,002
762,4	-0,002
762,8	-0,002
763,3	-0,002
763,7	-0,003
764,1	-0,003
764,6	-0,003
765	-0,003
765,4	-0,003
765,9	-0,004
766,3	-0,004
766,7	-0,003
767,2	-0,003
767,6	-0,003
768	-0,003
768,5	-0,003
768,9	-0,003
769,3	-0,004
769,8	-0,004
770,2	-0,005
770,6	-0,005
771,1	-0,005
771,5	-0,005
771,9	-0,005
772,4	-0,005
772,8	-0,004
773,2	-0,005
773,7	-0,005
774,1	-0,005
774,5	-0,005
775	-0,004
775,4	-0,005
775,8	-0,004
776,3	-0,004
776,7	-0,004
777,1	-0,004
777,6	-0,003
778	-0,003
778,4	-0,004
778,9	-0,004
779,3	-0,004
779,7	-0,004
780,2	-0,004
780,6	-0,004
781	-0,004
781,5	-0,004
781,9	-0,004
782,3	-0,004
782,8	-0,004
783,2	-0,004
783,6	-0,004
784,1	-0,004
784,5	-0,004
784,9	-0,004
785,4	-0,004
785,8	-0,004
786,2	-0,004
786,7	-0,004
787,1	-0,003
787,5	-0,003
788	-0,003
788,4	-0,003
788,8	-0,003
789,3	-0,004
789,7	-0,003
790,1	-0,003
790,6	-0,003
791	-0,003
791,4	-0,003
791,9	-0,004
792,3	-0,003
792,7	-0,004
793,2	-0,004
793,6	-0,004
794	-0,004
794,5	-0,004
794,9	-0,004
795,3	-0,004
795,8	-0,004
796,2	-0,004
796,6	-0,004
797,1	-0,003
797,5	-0,003
797,9	-0,003
798,4	-0,003
798,8	-0,003
799,2	-0,003
799,7	-0,003
800,1	-0,003
800,5	-0,003
801	-0,003
801,4	-0,003
801,8	-0,003
802,2	-0,004
802,7	-0,004
803,1	-0,004
803,5	-0,004
804	-0,004
804,4	-0,004
804,8	-0,005
805,3	-0,004
805,7	-0,004
806,1	-0,004
806,6	-0,004
807	-0,004
807,4	-0,004
807,9	-0,004
808,3	-0,004
808,7	-0,003
809,2	-0,003
809,6	-0,004
810	-0,004
810,4	-0,004
810,9	-0,003
811,3	-0,004
811,7	-0,004
812,2	-0,004
812,6	-0,004
813	-0,004
813,5	-0,004
813,9	-0,004
814,3	-0,003
814,8	-0,003
815,2	-0,004
815,6	-0,004
816,1	-0,003
816,5	-0,003
816,9	-0,003
817,3	-0,003
817,8	-0,003
818,2	-0,003
818,6	-0,003
819,1	-0,003
819,5	-0,004
819,9	-0,003
820,4	-0,003
820,8	-0,004
821,2	-0,004
821,7	-0,004
822,1	-0,004
822,5	-0,004
822,9	-0,004
823,4	-0,004
823,8	-0,003
824,2	-0,003
824,7	-0,003
825,1	-0,003
825,5	-0,003
826	-0,003
826,4	-0,003
826,8	-0,003
827,3	-0,004
827,7	-0,004
828,1	-0,004
828,5	-0,004
829	-0,004
829,4	-0,004
829,8	-0,004
830,3	-0,004
830,7	-0,004
831,1	-0,004
831,6	-0,004
832	-0,004
832,4	-0,004
832,8	-0,003
833,3	-0,003
833,7	-0,003
834,1	-0,004
834,6	-0,004
835	-0,004
835,4	-0,004
835,8	-0,004
836,3	-0,004
836,7	-0,004
837,1	-0,004
837,6	-0,003
838	-0,003
838,4	-0,003
838,9	-0,003
839,3	-0,003
839,7	-0,003
840,1	-0,004
840,6	-0,004
841	-0,004
841,4	-0,004
841,9	-0,004
842,3	-0,004
842,7	-0,004
843,1	-0,004
843,6	-0,004
844	-0,004
844,4	-0,004
844,9	-0,004
845,3	-0,005
845,7	-0,005
846,2	-0,005
846,6	-0,005
847	-0,005
847,4	-0,005
847,9	-0,005
848,3	-0,005
848,7	-0,005
849,2	-0,005
849,6	-0,005
850	-0,005
850,4	-0,005
850,9	-0,005
851,3	-0,004
851,7	-0,004
852,2	-0,004
852,6	-0,004
853	-0,004
853,4	-0,005
853,9	-0,004
854,3	-0,004
854,7	-0,004
855,2	-0,004
855,6	-0,004
856	-0,004
856,4	-0,003
856,9	-0,003
857,3	-0,003
857,7	-0,003
858,2	-0,004
858,6	-0,004
859	-0,004
859,4	-0,004
859,9	-0,004
860,3	-0,004
860,7	-0,004
861,1	-0,004
861,6	-0,003
862	-0,003
862,4	-0,003
862,9	-0,003
863,3	-0,003
863,7	-0,003
864,1	-0,003
864,6	-0,004
865	-0,004
865,4	-0,004
865,9	-0,004
866,3	-0,004
866,7	-0,004
867,1	-0,004
867,6	-0,003
868	-0,003
868,4	-0,004
868,8	-0,003
869,3	-0,003
869,7	-0,003
870,1	-0,003
870,6	-0,003
871	-0,004
871,4	-0,003
871,8	-0,003
872,3	-0,004
872,7	-0,004
873,1	-0,004
873,5	-0,004
874	-0,005
874,4	-0,005
874,8	-0,005
875,3	-0,005
875,7	-0,005
876,1	-0,005
876,5	-0,005
877	-0,004
877,4	-0,005
877,8	-0,005
878,2	-0,005
878,7	-0,005
879,1	-0,005
879,5	-0,005
879,9	-0,005
880,4	-0,005
880,8	-0,005
881,2	-0,004
881,7	-0,004
882,1	-0,004
882,5	-0,005
882,9	-0,005
883,4	-0,005
883,8	-0,005
884,2	-0,005
884,6	-0,005
885,1	-0,005
885,5	-0,006
885,9	-0,005
886,3	-0,005
886,8	-0,005
887,2	-0,005
887,6	-0,005
888	-0,005
888,5	-0,005
888,9	-0,004
889,3	-0,004
889,8	-0,004
890,2	-0,003
890,6	-0,003
891	-0,003
891,5	-0,002
891,9	-0,002
892,3	-0,003
892,7	-0,003
893,2	-0,003
893,6	-0,003
894	-0,003
894,4	-0,003
894,9	-0,003
895,3	-0,004
895,7	-0,003
896,1	-0,003
896,6	-0,004
897	-0,004
897,4	-0,004
897,8	-0,004
898,3	-0,004
898,7	-0,004
899,1	-0,003
899,5	-0,003
900	-0,003
900,4	-0,003
900,8	-0,003
901,2	-0,003
901,7	-0,003
902,1	-0,004
902,5	-0,003
902,9	-0,004
903,4	-0,003
903,8	-0,003
904,2	-0,004
904,6	-0,004
905,1	-0,003
905,5	-0,003
905,9	-0,003
906,3	-0,003
906,8	-0,003
907,2	-0,003
907,6	-0,002
908	-0,002
908,5	-0,002
908,9	-0,002
909,3	-0,002
909,7	-0,002
910,2	-0,001
910,6	-0,001
911	-0,001
911,4	-0,001
911,9	-0,001
912,3	-0,001
912,7	-0,001
913,1	-0,001
913,6	-0,001
914	-0,001
914,4	-0,001
914,8	-0,002
915,3	-0,002
915,7	-0,002
916,1	-0,002
916,5	-0,002
916,9	-0,002
917,4	-0,002
917,8	-0,002
918,2	-0,002
918,6	-0,003
919,1	-0,003
919,5	-0,003
919,9	-0,003
920,3	-0,003
920,8	-0,003
921,2	-0,003
921,6	-0,002
922	-0,002
922,5	-0,002
922,9	-0,002
923,3	-0,003
923,7	-0,003
924,2	-0,003
924,6	-0,003
925	-0,003
925,4	-0,003
925,8	-0,003
926,3	-0,003
926,7	-0,003
927,1	-0,003
927,5	-0,003
928	-0,004
928,4	-0,004
928,8	-0,003
929,2	-0,003
929,7	-0,003
930,1	-0,003
930,5	-0,003
930,9	-0,003
931,3	-0,003
931,8	-0,003
932,2	-0,003
932,6	-0,004
933	-0,004
933,5	-0,004
933,9	-0,004
934,3	-0,005
934,7	-0,005
935,2	-0,005
935,6	-0,004
936	-0,004
936,4	-0,004
936,8	-0,004
937,3	-0,004
937,7	-0,004
938,1	-0,004
938,5	-0,004
939	-0,005
939,4	-0,005
939,8	-0,005
940,2	-0,004
940,6	-0,004
941,1	-0,003
941,5	-0,003
941,9	-0,003
942,3	-0,003
942,8	-0,003
943,2	-0,003
943,6	-0,004
944	-0,004
944,4	-0,003
944,9	-0,004
945,3	-0,004
945,7	-0,005
946,1	-0,005
946,6	-0,004
947	-0,005
947,4	-0,005
947,8	-0,005
948,2	-0,005
948,7	-0,005
949,1	-0,005
949,5	-0,005
949,9	-0,006
950,3	-0,006
950,8	-0,007
951,2	-0,006
951,6	-0,007
952	-0,007
952,5	-0,006
952,9	-0,006
953,3	-0,006
953,7	-0,006
954,1	-0,006
954,6	-0,005
955	-0,005
955,4	-0,006
955,8	-0,007
956,2	-0,007
956,7	-0,008
957,1	-0,009
957,5	-0,009
957,9	-0,01
958,3	-0,01
958,8	-0,01
959,2	-0,01
959,6	-0,01
960	-0,01
960,5	-0,011
960,9	-0,01
961,3	-0,01
961,7	-0,01
962,1	-0,011
962,6	-0,01
963	-0,01
963,4	-0,01
963,8	-0,01
964,2	-0,01
964,7	-0,009
965,1	-0,008
965,5	-0,008
965,9	-0,008
966,3	-0,007
966,8	-0,008
967,2	-0,007
967,6	-0,007
968	-0,007
968,4	-0,007
968,9	-0,007
969,3	-0,007
969,7	-0,007
970,1	-0,006
970,5	-0,005
971	-0,005
971,4	-0,006
971,8	-0,006
972,2	-0,006
972,6	-0,006
973,1	-0,007
973,5	-0,008
973,9	-0,008
974,3	-0,008
974,7	-0,007
975,2	-0,007
975,6	-0,007
976	-0,007
976,4	-0,006
976,8	-0,006
977,3	-0,005
977,7	-0,005
978,1	-0,006
978,5	-0,007
978,9	-0,007
979,4	-0,008
979,8	-0,008
980,2	-0,009
980,6	-0,008
981	-0,008
981,5	-0,007
981,9	-0,007
982,3	-0,006
982,7	-0,006
983,1	-0,006
983,6	-0,006
984	-0,006
984,4	-0,006
984,8	-0,006
985,2	-0,007
985,6	-0,007
986,1	-0,007
986,5	-0,007
986,9	-0,007
987,3	-0,008
987,7	-0,007
988,2	-0,007
988,6	-0,007
989	-0,007
989,4	-0,007
989,8	-0,007
990,3	-0,006
990,7	-0,006
991,1	-0,006
991,5	-0,006
991,9	-0,006
992,3	-0,005
992,8	-0,006
993,2	-0,006
993,6	-0,006
994	-0,006
994,4	-0,006
994,9	-0,006
995,3	-0,006
995,7	-0,006
996,1	-0,006
996,5	-0,006
996,9	-0,006
997,4	-0,006
997,8	-0,005
998,2	-0,005
998,6	-0,005
999	-0,005
999,5	-0,004
999,9	-0,005
1000,3	-0,005
1000,7	-0,005
1001,1	-0,005
1001,5	-0,005
1002	-0,005
1002,4	-0,004
1002,8	-0,004
1003,2	-0,004
1003,6	-0,003
1004	-0,003
1004,5	-0,003
1004,9	-0,003
1005,3	-0,002
1005,7	-0,003
1006,1	-0,003
1006,6	-0,003
1007	-0,003
1007,4	-0,003
1007,8	-0,003
1008,2	-0,003
1008,6	-0,002
1009,1	-0,002
1009,5	-0,002
1009,9	-0,002
1010,3	-0,001
1010,7	-0,002
1011,1	-0,002
1011,6	-0,002
1012	-0,002
1012,4	-0,002
1012,8	-0,002
1013,2	-0,003
1013,6	-0,002
1014,1	-0,003
1014,5	-0,004
1014,9	-0,005
1015,3	-0,005
1015,7	-0,004
1016,1	-0,004
1016,6	-0,004
1017	-0,005
1017,4	-0,004
1017,8	-0,004
1018,2	-0,003
1018,6	-0,003
1019,1	-0,003
1019,5	-0,002
1019,9	-0,002
1020,3	-0,002
1020,7	-0,002
1021,1	-0,003
1021,6	-0,003
1022	-0,003
1022,4	-0,003
1022,8	-0,003
1023,2	-0,003
1023,6	-0,002
1024,1	-0,001
1024,5	-0,001
1024,9	-0,002
1025,3	-0,002
1025,7	-0,003
1026,1	-0,004
1026,6	-0,005
1027	-0,005
1027,4	-0,006
1027,8	-0,006
1028,2	-0,005
1028,6	-0,005
1029	-0,005
1029,5	-0,004
1029,9	-0,005
1030,3	-0,004
1030,7	-0,004
1031,1	-0,004
1031,5	-0,005
1032	-0,005
1032,4	-0,004
1032,8	-0,004
1033,2	-0,004
1033,6	-0,004
1034	-0,004
1034,4	-0,004
1034,9	-0,004
1035,3	-0,005
1035,7	-0,005
1036,1	-0,006
1036,5	-0,006
1036,9	-0,006
1037,4	-0,005
1037,8	-0,005
1038,2	-0,005
1038,6	-0,005
1039	-0,005
1039,4	-0,004
1039,8	-0,005
1040,3	-0,006
1040,7	-0,005
1041,1	-0,005
1041,5	-0,005
1041,9	-0,004
1042,3	-0,005
1042,7	-0,004
1043,2	-0,004
1043,6	-0,004
1044	-0,005
1044,4	-0,005
1044,8	-0,005
1045,2	-0,005
1045,6	-0,005
1046,1	-0,006
1046,5	-0,005
1046,9	-0,005
1047,3	-0,005
1047,7	-0,005
1048,1	-0,005
1048,5	-0,006
1049	-0,006
1049,4	-0,007
1049,8	-0,006
1050,2	-0,007
1050,6	-0,007
1051	-0,007
1051,4	-0,007
1051,9	-0,006
1052,3	-0,006
1052,7	-0,006
1053,1	-0,005
1053,5	-0,005
1053,9	-0,004
1054,3	-0,004
1054,8	-0,004
1055,2	-0,004
1055,6	-0,004
1056	-0,004
1056,4	-0,004
1056,8	-0,004
1057,2	-0,004
1057,6	-0,005
1058,1	-0,005
1058,5	-0,004
1058,9	-0,004
1059,3	-0,004
1059,7	-0,004
1060,1	-0,004
1060,5	-0,004
1061	-0,005
1061,4	-0,006
1061,8	-0,007
1062,2	-0,006
1062,6	-0,006
1063	-0,005
1063,4	-0,005
1063,8	-0,004
1064,3	-0,005
1064,7	-0,005
1065,1	-0,005
1065,5	-0,006
1065,9	-0,005
1066,3	-0,006
1066,7	-0,006
1067,1	-0,005
1067,6	-0,005
1068	-0,005
1068,4	-0,005
1068,8	-0,006
1069,2	-0,005
1069,6	-0,006
1070	-0,006
1070,4	-0,006
1070,9	-0,007
1071,3	-0,007
1071,7	-0,007
1072,1	-0,007
1072,5	-0,007
1072,9	-0,006
1073,3	-0,006
1073,7	-0,006
1074,2	-0,006
1074,6	-0,007
1075	-0,006
1075,4	-0,007
1075,8	-0,009
1076,2	-0,01
1076,6	-0,01
1077	-0,01
1077,5	-0,01
1077,9	-0,01
1078,3	-0,009
1078,7	-0,009
1079,1	-0,007
1079,5	-0,006
1079,9	-0,006
1080,3	-0,006
1080,7	-0,006
1081,2	-0,007
1081,6	-0,008
1082	-0,01
1082,4	-0,012
1082,8	-0,014
1083,2	-0,014
1083,6	-0,014
1084	-0,015
1084,5	-0,014
1084,9	-0,014
1085,3	-0,014
1085,7	-0,011
1086,1	-0,011
1086,5	-0,011
1086,9	-0,009
1087,3	-0,008
1087,7	-0,009
1088,2	-0,008
1088,6	-0,01
1089	-0,009
1089,4	-0,01
1089,8	-0,011
1090,2	-0,014
1090,6	-0,012
1091	-0,012
1091,4	-0,014
1091,9	-0,016
1092,3	-0,019
1092,7	-0,023
1093,1	-0,022
1093,5	-0,024
1093,9	-0,025
1094,3	-0,022
1094,7	-0,021
1095,1	-0,018
1095,5	-0,012
1096	-0,012
1096,4	-0,009
1096,8	-0,006
1097,2	-0,011
1097,6	-0,013
1098	-0,011
1098,4	-0,014
1098,8	-0,017
1099,2	-0,027
1099,6	-0,029
1100,1	-0,027
1100,5	-0,027
1100,9	-0,029
1101,3	-0,029
1101,7	-0,027
1102,1	-0,025
1102,5	-0,03
1102,9	-0,032
1103,3	-0,028
1103,7	-0,036
1104,2	-0,044
1104,6	-0,048
1105	-0,043
1105,4	-0,05
1105,8	-0,04
1106,2	-0,045
1106,6	-0,047
1107	-0,057
1107,4	-0,053
1107,8	-0,076
1108,3	-0,028
