Data from Absorbance_00019.txt Node
Date: Wed Aug 02 13:54:51 MSK 2023
User: vat
Spectrometer: MAYP114033
Trigger mode: 0
Integration Time (sec): 8,000000E-3
Scans to average: 10
Electric dark correction enabled: true
Nonlinearity correction enabled: false
Boxcar width: 3
XAxis mode: Wavelengths
Number of Pixels in Spectrum: 2068
>>>>>Begin Spectral Data<<<<<
199,4	-0,735
199,9	-0,065
200,4	0,339
200,8	0,705
201,3	0,852
201,8	0,911
202,2	0,943
202,7	0,966
203,2	1,019
203,6	1,036
204,1	1,045
204,6	1,048
205	1,057
205,5	1,075
206	1,071
206,4	1,068
206,9	1,076
207,4	1,087
207,8	1,117
208,3	1,135
208,8	1,134
209,2	1,168
209,7	1,187
210,2	1,222
210,6	1,25
211,1	1,253
211,5	1,277
212	1,308
212,5	1,306
212,9	1,341
213,4	1,343
213,9	1,353
214,3	1,369
214,8	1,361
215,3	1,355
215,7	1,387
216,2	1,388
216,7	1,415
217,1	1,437
217,6	1,449
218,1	1,472
218,5	1,505
219	1,514
219,5	1,519
219,9	1,54
220,4	1,557
220,9	1,572
221,3	1,589
221,8	1,619
222,3	1,636
222,7	1,684
223,2	1,687
223,6	1,691
224,1	1,709
224,6	1,713
225	1,709
225,5	1,725
226	1,712
226,4	1,731
226,9	1,74
227,4	1,747
227,8	1,761
228,3	1,804
228,8	1,823
229,2	1,835
229,7	1,853
230,2	1,86
230,6	1,88
231,1	1,893
231,5	1,866
232	1,861
232,5	1,855
232,9	1,836
233,4	1,869
233,9	1,877
234,3	1,891
234,8	1,924
235,3	1,94
235,7	1,969
236,2	1,994
236,7	1,991
237,1	1,992
237,6	2,007
238,1	2,003
238,5	2,014
239	2,018
239,4	2,024
239,9	2,023
240,4	2,032
240,8	2,038
241,3	2,033
241,8	2,025
242,2	2,026
242,7	2,023
243,2	2,034
243,6	2,042
244,1	2,028
244,6	2,043
245	2,06
245,5	2,074
245,9	2,087
246,4	2,076
246,9	2,074
247,3	2,092
247,8	2,112
248,3	2,112
248,7	2,094
249,2	2,095
249,7	2,126
250,1	2,122
250,6	2,128
251	2,1
251,5	2,094
252	2,117
252,4	2,128
252,9	2,106
253,4	2,111
253,8	2,127
254,3	2,132
254,8	2,146
255,2	2,141
255,7	2,139
256,1	2,15
256,6	2,158
257,1	2,132
257,5	2,13
258	2,125
258,5	2,126
258,9	2,115
259,4	2,109
259,9	2,109
260,3	2,113
260,8	2,121
261,2	2,127
261,7	2,147
262,2	2,138
262,6	2,16
263,1	2,149
263,6	2,147
264	2,139
264,5	2,133
264,9	2,111
265,4	2,134
265,9	2,114
266,3	2,136
266,8	2,158
267,3	2,167
267,7	2,195
268,2	2,214
268,7	2,212
269,1	2,225
269,6	2,212
270	2,198
270,5	2,221
271	2,179
271,4	2,174
271,9	2,167
272,4	2,154
272,8	2,167
273,3	2,162
273,7	2,147
274,2	2,173
274,7	2,157
275,1	2,166
275,6	2,15
276,1	2,151
276,5	2,154
277	2,142
277,4	2,138
277,9	2,162
278,4	2,172
278,8	2,204
279,3	2,193
279,8	2,209
280,2	2,22
280,7	2,202
281,1	2,208
281,6	2,184
282,1	2,176
282,5	2,17
283	2,153
283,4	2,16
283,9	2,157
284,4	2,145
284,8	2,165
285,3	2,162
285,8	2,168
286,2	2,174
286,7	2,156
287,1	2,158
287,6	2,134
288,1	2,117
288,5	2,112
289	2,081
289,5	2,046
289,9	2,016
290,4	1,97
290,8	1,928
291,3	1,866
291,8	1,802
292,2	1,75
292,7	1,693
293,1	1,639
293,6	1,588
294,1	1,535
294,5	1,486
295	1,444
295,5	1,398
295,9	1,36
296,4	1,324
296,8	1,291
297,3	1,266
297,8	1,239
298,2	1,215
298,7	1,195
299,1	1,176
299,6	1,158
300,1	1,145
300,5	1,13
301	1,119
301,5	1,107
301,9	1,098
302,4	1,087
302,8	1,078
303,3	1,069
303,8	1,06
304,2	1,051
304,7	1,043
305,1	1,035
305,6	1,028
306,1	1,019
306,5	1,011
307	1,003
307,4	0,996
307,9	0,989
308,4	0,979
308,8	0,972
309,3	0,964
309,8	0,956
310,2	0,948
310,7	0,939
311,1	0,931
311,6	0,924
312,1	0,916
312,5	0,909
313	0,902
313,4	0,896
313,9	0,888
314,4	0,881
314,8	0,873
315,3	0,865
315,7	0,858
316,2	0,85
316,7	0,842
317,1	0,835
317,6	0,829
318	0,822
318,5	0,815
319	0,808
319,4	0,801
319,9	0,794
320,3	0,785
320,8	0,778
321,3	0,771
321,7	0,764
322,2	0,755
322,6	0,748
323,1	0,74
323,6	0,733
324	0,727
324,5	0,72
324,9	0,712
325,4	0,706
325,9	0,7
326,3	0,693
326,8	0,686
327,2	0,678
327,7	0,672
328,2	0,664
328,6	0,658
329,1	0,651
329,5	0,644
330	0,637
330,5	0,63
330,9	0,622
331,4	0,615
331,8	0,606
332,3	0,599
332,8	0,592
333,2	0,586
333,7	0,579
334,1	0,574
334,6	0,566
335,1	0,561
335,5	0,555
336	0,549
336,4	0,541
336,9	0,534
337,4	0,526
337,8	0,521
338,3	0,513
338,7	0,506
339,2	0,499
339,7	0,492
340,1	0,486
340,6	0,48
341	0,474
341,5	0,467
342	0,462
342,4	0,455
342,9	0,448
343,3	0,443
343,8	0,436
344,2	0,43
344,7	0,424
345,2	0,418
345,6	0,413
346,1	0,407
346,5	0,401
347	0,396
347,5	0,391
347,9	0,385
348,4	0,379
348,8	0,373
349,3	0,368
349,8	0,362
350,2	0,356
350,7	0,351
351,1	0,346
351,6	0,342
352	0,337
352,5	0,332
353	0,327
353,4	0,323
353,9	0,318
354,3	0,312
354,8	0,308
355,3	0,303
355,7	0,299
356,2	0,296
356,6	0,291
357,1	0,286
357,5	0,282
358	0,278
358,5	0,274
358,9	0,269
359,4	0,265
359,8	0,261
360,3	0,258
360,8	0,255
361,2	0,251
361,7	0,247
362,1	0,244
362,6	0,24
363	0,237
363,5	0,233
364	0,23
364,4	0,226
364,9	0,224
365,3	0,22
365,8	0,216
366,3	0,213
366,7	0,21
367,2	0,207
367,6	0,205
368,1	0,202
368,5	0,2
369	0,199
369,5	0,197
369,9	0,195
370,4	0,192
370,8	0,19
371,3	0,188
371,7	0,185
372,2	0,182
372,7	0,18
373,1	0,177
373,6	0,175
374	0,173
374,5	0,171
374,9	0,169
375,4	0,167
375,9	0,165
376,3	0,164
376,8	0,162
377,2	0,161
377,7	0,159
378,2	0,157
378,6	0,156
379,1	0,154
379,5	0,153
380	0,151
380,4	0,149
380,9	0,147
381,4	0,145
381,8	0,143
382,3	0,141
382,7	0,139
383,2	0,137
383,6	0,135
384,1	0,134
384,6	0,133
385	0,131
385,5	0,13
385,9	0,128
386,4	0,126
386,8	0,125
387,3	0,123
387,7	0,121
388,2	0,119
388,7	0,117
389,1	0,116
389,6	0,114
390	0,112
390,5	0,111
390,9	0,109
391,4	0,107
391,9	0,106
392,3	0,104
392,8	0,102
393,2	0,101
393,7	0,1
394,1	0,099
394,6	0,099
395,1	0,099
395,5	0,098
396	0,098
396,4	0,097
396,9	0,095
397,3	0,094
397,8	0,092
398,2	0,091
398,7	0,09
399,2	0,089
399,6	0,088
400,1	0,088
400,5	0,088
401	0,087
401,4	0,086
401,9	0,086
402,4	0,085
402,8	0,084
403,3	0,083
403,7	0,082
404,2	0,082
404,6	0,082
405,1	0,081
405,5	0,081
406	0,08
406,5	0,08
406,9	0,079
407,4	0,079
407,8	0,079
408,3	0,078
408,7	0,078
409,2	0,078
409,6	0,077
410,1	0,077
410,6	0,076
411	0,075
411,5	0,075
411,9	0,075
412,4	0,073
412,8	0,072
413,3	0,072
413,7	0,072
414,2	0,072
414,7	0,071
415,1	0,07
415,6	0,07
416	0,07
416,5	0,069
416,9	0,069
417,4	0,068
417,8	0,068
418,3	0,067
418,8	0,067
419,2	0,066
419,7	0,066
420,1	0,065
420,6	0,064
421	0,064
421,5	0,063
421,9	0,063
422,4	0,063
422,8	0,062
423,3	0,062
423,8	0,062
424,2	0,062
424,7	0,062
425,1	0,062
425,6	0,061
426	0,061
426,5	0,06
426,9	0,06
427,4	0,06
427,9	0,06
428,3	0,06
428,8	0,06
429,2	0,059
429,7	0,059
430,1	0,058
430,6	0,058
431	0,057
431,5	0,057
431,9	0,057
432,4	0,056
432,8	0,056
433,3	0,056
433,8	0,054
434,2	0,054
434,7	0,053
435,1	0,053
435,6	0,053
436	0,052
436,5	0,052
436,9	0,052
437,4	0,052
437,8	0,052
438,3	0,051
438,8	0,051
439,2	0,051
439,7	0,051
440,1	0,051
440,6	0,051
441	0,05
441,5	0,051
441,9	0,05
442,4	0,05
442,8	0,05
443,3	0,05
443,7	0,05
444,2	0,049
444,7	0,05
445,1	0,049
445,6	0,049
446	0,049
446,5	0,049
446,9	0,049
447,4	0,049
447,8	0,048
448,3	0,048
448,7	0,048
449,2	0,047
449,6	0,047
450,1	0,046
450,6	0,046
451	0,046
451,5	0,046
451,9	0,046
452,4	0,046
452,8	0,046
453,3	0,047
453,7	0,047
454,2	0,046
454,6	0,047
455,1	0,047
455,5	0,046
456	0,045
456,4	0,045
456,9	0,044
457,3	0,044
457,8	0,044
458,3	0,044
458,7	0,044
459,2	0,044
459,6	0,044
460,1	0,045
460,5	0,045
461	0,044
461,4	0,044
461,9	0,044
462,3	0,044
462,8	0,043
463,2	0,042
463,7	0,043
464,1	0,042
464,6	0,043
465	0,042
465,5	0,042
466	0,042
466,4	0,042
466,9	0,041
467,3	0,042
467,8	0,041
468,2	0,041
468,7	0,042
469,1	0,043
469,6	0,042
470	0,042
470,5	0,042
470,9	0,042
471,4	0,041
471,8	0,04
472,3	0,04
472,7	0,041
473,2	0,04
473,6	0,04
474,1	0,04
474,5	0,04
475	0,04
475,4	0,04
475,9	0,039
476,4	0,039
476,8	0,039
477,3	0,039
477,7	0,04
478,2	0,04
478,6	0,04
479,1	0,039
479,5	0,039
480	0,039
480,4	0,039
480,9	0,039
481,3	0,038
481,8	0,038
482,2	0,037
482,7	0,037
483,1	0,037
483,6	0,038
484	0,038
484,5	0,037
484,9	0,037
485,4	0,037
485,8	0,037
486,3	0,04
486,7	0,039
487,2	0,038
487,6	0,038
488,1	0,038
488,5	0,039
489	0,039
489,4	0,035
489,9	0,036
490,4	0,038
490,8	0,038
491,3	0,038
491,7	0,038
492,2	0,039
492,6	0,039
493,1	0,038
493,5	0,038
494	0,038
494,4	0,038
494,9	0,038
495,3	0,039
495,8	0,038
496,2	0,039
496,7	0,039
497,1	0,039
497,6	0,039
498	0,039
498,5	0,038
498,9	0,038
499,4	0,038
499,8	0,038
500,3	0,037
500,7	0,037
501,2	0,036
501,6	0,036
502,1	0,036
502,5	0,036
503	0,035
503,4	0,036
503,9	0,037
504,3	0,037
504,8	0,037
505,2	0,037
505,7	0,037
506,1	0,037
506,6	0,037
507	0,036
507,5	0,036
507,9	0,037
508,4	0,036
508,8	0,036
509,3	0,036
509,7	0,036
510,2	0,036
510,6	0,037
511,1	0,037
511,5	0,037
512	0,036
512,4	0,036
512,9	0,036
513,3	0,036
513,8	0,036
514,2	0,036
514,7	0,036
515,1	0,037
515,6	0,037
516	0,037
516,5	0,036
516,9	0,036
517,4	0,036
517,8	0,035
518,3	0,035
518,7	0,036
519,2	0,036
519,6	0,037
520,1	0,037
520,5	0,036
521	0,036
521,4	0,037
521,9	0,037
522,3	0,036
522,8	0,035
523,2	0,034
523,7	0,034
524,1	0,034
524,6	0,034
525	0,034
525,5	0,034
525,9	0,035
526,4	0,035
526,8	0,035
527,3	0,035
527,7	0,035
528,2	0,035
528,6	0,035
529,1	0,035
529,5	0,036
530	0,036
530,4	0,037
530,9	0,037
531,3	0,036
531,8	0,036
532,2	0,035
532,6	0,035
533,1	0,036
533,5	0,035
534	0,034
534,4	0,035
534,9	0,035
535,3	0,035
535,8	0,034
536,2	0,033
536,7	0,033
537,1	0,034
537,6	0,034
538	0,034
538,5	0,034
538,9	0,034
539,4	0,034
539,8	0,034
540,3	0,034
540,7	0,034
541,2	0,034
541,6	0,035
542,1	0,035
542,5	0,035
543	0,035
543,4	0,035
543,9	0,035
544,3	0,034
544,8	0,034
545,2	0,034
545,7	0,034
546,1	0,034
546,5	0,033
547	0,033
547,4	0,033
547,9	0,033
548,3	0,033
548,8	0,033
549,2	0,033
549,7	0,033
550,1	0,033
550,6	0,033
551	0,032
551,5	0,032
551,9	0,032
552,4	0,032
552,8	0,032
553,3	0,032
553,7	0,032
554,2	0,033
554,6	0,033
555,1	0,033
555,5	0,033
555,9	0,033
556,4	0,033
556,8	0,033
557,3	0,032
557,7	0,032
558,2	0,033
558,6	0,033
559,1	0,033
559,5	0,033
560	0,032
560,4	0,032
560,9	0,032
561,3	0,033
561,8	0,032
562,2	0,032
562,7	0,033
563,1	0,033
563,6	0,033
564	0,033
564,4	0,033
564,9	0,033
565,3	0,033
565,8	0,033
566,2	0,032
566,7	0,032
567,1	0,032
567,6	0,031
568	0,031
568,5	0,031
568,9	0,031
569,4	0,032
569,8	0,032
570,3	0,032
570,7	0,032
571,1	0,032
571,6	0,032
572	0,032
572,5	0,031
572,9	0,031
573,4	0,031
573,8	0,031
574,3	0,031
574,7	0,031
575,2	0,031
575,6	0,031
576,1	0,031
576,5	0,031
576,9	0,031
577,4	0,031
577,8	0,031
578,3	0,03
578,7	0,031
579,2	0,03
579,6	0,03
580,1	0,03
580,5	0,03
581	0,029
581,4	0,03
581,9	0,03
582,3	0,03
582,7	0,029
583,2	0,029
583,6	0,029
584,1	0,03
584,5	0,029
585	0,029
585,4	0,029
585,9	0,03
586,3	0,03
586,8	0,03
587,2	0,03
587,6	0,03
588,1	0,03
588,5	0,03
589	0,029
589,4	0,029
589,9	0,029
590,3	0,029
590,8	0,028
591,2	0,028
591,7	0,028
592,1	0,028
592,5	0,029
593	0,029
593,4	0,028
593,9	0,028
594,3	0,028
594,8	0,028
595,2	0,027
595,7	0,027
596,1	0,027
596,6	0,027
597	0,027
597,4	0,028
597,9	0,027
598,3	0,027
598,8	0,027
599,2	0,027
599,7	0,027
600,1	0,027
600,6	0,027
601	0,027
601,4	0,027
601,9	0,027
602,3	0,026
602,8	0,027
603,2	0,027
603,7	0,027
604,1	0,026
604,6	0,026
605	0,026
605,4	0,027
605,9	0,026
606,3	0,026
606,8	0,026
607,2	0,026
607,7	0,027
608,1	0,027
608,6	0,027
609	0,027
609,4	0,027
609,9	0,026
610,3	0,026
610,8	0,026
611,2	0,026
611,7	0,026
612,1	0,026
612,6	0,026
613	0,025
613,4	0,025
613,9	0,026
614,3	0,026
614,8	0,026
615,2	0,026
615,7	0,025
616,1	0,025
616,6	0,026
617	0,025
617,4	0,025
617,9	0,025
618,3	0,024
618,8	0,024
619,2	0,025
619,7	0,025
620,1	0,025
620,5	0,024
621	0,025
621,4	0,025
621,9	0,025
622,3	0,025
622,8	0,025
623,2	0,024
623,6	0,025
624,1	0,024
624,5	0,024
625	0,024
625,4	0,023
625,9	0,024
626,3	0,024
626,8	0,024
627,2	0,024
627,6	0,024
628,1	0,024
628,5	0,024
629	0,024
629,4	0,024
629,9	0,024
630,3	0,023
630,7	0,024
631,2	0,023
631,6	0,024
632,1	0,024
632,5	0,024
633	0,024
633,4	0,024
633,8	0,023
634,3	0,023
634,7	0,023
635,2	0,023
635,6	0,023
636,1	0,022
636,5	0,022
636,9	0,022
637,4	0,022
637,8	0,021
638,3	0,021
638,7	0,021
639,2	0,021
639,6	0,021
640	0,021
640,5	0,021
640,9	0,021
641,4	0,021
641,8	0,021
642,2	0,021
642,7	0,021
643,1	0,02
643,6	0,02
644	0,02
644,5	0,02
644,9	0,02
645,3	0,02
645,8	0,02
646,2	0,02
646,7	0,02
647,1	0,02
647,6	0,02
648	0,021
648,4	0,021
648,9	0,021
649,3	0,021
649,8	0,021
650,2	0,021
650,6	0,021
651,1	0,02
651,5	0,019
652	0,019
652,4	0,019
652,9	0,019
653,3	0,018
653,7	0,018
654,2	0,018
654,6	0,017
655,1	0,014
655,5	0,008
655,9	0,005
656,4	0,003
656,8	0,004
657,3	0,004
657,7	0,005
658,2	0,005
658,6	0,008
659	0,012
659,5	0,02
659,9	0,026
660,4	0,027
660,8	0,027
661,2	0,026
661,7	0,026
662,1	0,024
662,6	0,023
663	0,022
663,4	0,022
663,9	0,021
664,3	0,021
664,8	0,02
665,2	0,02
665,6	0,019
666,1	0,019
666,5	0,019
667	0,019
667,4	0,018
667,9	0,018
668,3	0,018
668,7	0,018
669,2	0,018
669,6	0,019
670,1	0,019
670,5	0,019
670,9	0,019
671,4	0,019
671,8	0,019
672,3	0,018
672,7	0,018
673,1	0,018
673,6	0,018
674	0,018
674,5	0,017
674,9	0,018
675,3	0,017
675,8	0,018
676,2	0,018
676,7	0,018
677,1	0,018
677,5	0,018
678	0,018
678,4	0,018
678,9	0,018
679,3	0,018
679,7	0,018
680,2	0,018
680,6	0,018
681,1	0,017
681,5	0,017
681,9	0,017
682,4	0,017
682,8	0,016
683,3	0,016
683,7	0,016
684,1	0,016
684,6	0,017
685	0,017
685,5	0,017
685,9	0,017
686,3	0,017
686,8	0,017
687,2	0,017
687,7	0,017
688,1	0,016
688,5	0,016
689	0,016
689,4	0,016
689,9	0,016
690,3	0,016
690,7	0,016
691,2	0,016
691,6	0,017
692	0,017
692,5	0,016
692,9	0,017
693,4	0,017
693,8	0,016
694,2	0,016
694,7	0,016
695,1	0,017
695,6	0,017
696	0,016
696,4	0,016
696,9	0,017
697,3	0,017
697,8	0,016
698,2	0,016
698,6	0,016
699,1	0,016
699,5	0,016
699,9	0,016
700,4	0,016
700,8	0,016
701,3	0,015
701,7	0,016
702,1	0,016
702,6	0,016
703	0,016
703,5	0,016
703,9	0,016
704,3	0,016
704,8	0,016
705,2	0,016
705,6	0,016
706,1	0,016
706,5	0,015
707	0,015
707,4	0,015
707,8	0,015
708,3	0,016
708,7	0,016
709,2	0,016
709,6	0,017
710	0,017
710,5	0,016
710,9	0,017
711,3	0,017
711,8	0,016
712,2	0,016
712,7	0,016
713,1	0,016
713,5	0,016
714	0,016
714,4	0,016
714,8	0,016
715,3	0,016
715,7	0,016
716,2	0,016
716,6	0,016
717	0,016
717,5	0,016
717,9	0,016
718,3	0,016
718,8	0,016
719,2	0,016
719,7	0,016
720,1	0,015
720,5	0,015
721	0,015
721,4	0,015
721,8	0,015
722,3	0,015
722,7	0,015
723,2	0,015
723,6	0,015
724	0,015
724,5	0,015
724,9	0,015
725,3	0,016
725,8	0,015
726,2	0,015
726,7	0,015
727,1	0,015
727,5	0,015
728	0,015
728,4	0,015
728,8	0,015
729,3	0,015
729,7	0,015
730,1	0,015
730,6	0,015
731	0,015
731,5	0,015
731,9	0,015
732,3	0,015
732,8	0,015
733,2	0,014
733,6	0,014
734,1	0,014
734,5	0,014
734,9	0,013
735,4	0,013
735,8	0,013
736,3	0,013
736,7	0,013
737,1	0,013
737,6	0,013
738	0,014
738,4	0,014
738,9	0,014
739,3	0,014
739,7	0,014
740,2	0,014
740,6	0,014
741,1	0,014
741,5	0,013
741,9	0,013
742,4	0,013
742,8	0,013
743,2	0,014
743,7	0,014
744,1	0,014
744,5	0,014
745	0,014
745,4	0,015
745,8	0,015
746,3	0,015
746,7	0,015
747,2	0,015
747,6	0,015
748	0,014
748,5	0,014
748,9	0,014
749,3	0,014
749,8	0,014
750,2	0,013
750,6	0,013
751,1	0,013
751,5	0,013
751,9	0,013
752,4	0,013
752,8	0,013
753,3	0,013
753,7	0,013
754,1	0,013
754,6	0,014
755	0,014
755,4	0,014
755,9	0,014
756,3	0,014
756,7	0,014
757,2	0,014
757,6	0,014
758	0,014
758,5	0,014
758,9	0,014
759,3	0,014
759,8	0,014
760,2	0,014
760,6	0,013
761,1	0,014
761,5	0,013
761,9	0,013
762,4	0,013
762,8	0,013
763,3	0,013
763,7	0,013
764,1	0,013
764,6	0,013
765	0,012
765,4	0,012
765,9	0,012
766,3	0,012
766,7	0,012
767,2	0,012
767,6	0,013
768	0,013
768,5	0,013
768,9	0,013
769,3	0,012
769,8	0,012
770,2	0,012
770,6	0,012
771,1	0,011
771,5	0,011
771,9	0,011
772,4	0,011
772,8	0,011
773,2	0,011
773,7	0,011
774,1	0,011
774,5	0,012
775	0,011
775,4	0,012
775,8	0,012
776,3	0,012
776,7	0,012
777,1	0,012
777,6	0,012
778	0,012
778,4	0,012
778,9	0,012
779,3	0,013
779,7	0,013
780,2	0,013
780,6	0,013
781	0,012
781,5	0,012
781,9	0,012
782,3	0,012
782,8	0,012
783,2	0,012
783,6	0,011
784,1	0,011
784,5	0,012
784,9	0,012
785,4	0,012
785,8	0,012
786,2	0,012
786,7	0,012
787,1	0,012
787,5	0,012
788	0,012
788,4	0,012
788,8	0,011
789,3	0,011
789,7	0,011
790,1	0,012
790,6	0,012
791	0,012
791,4	0,012
791,9	0,012
792,3	0,012
792,7	0,012
793,2	0,012
793,6	0,012
794	0,012
794,5	0,012
794,9	0,012
795,3	0,012
795,8	0,012
796,2	0,012
796,6	0,012
797,1	0,012
797,5	0,012
797,9	0,012
798,4	0,012
798,8	0,012
799,2	0,012
799,7	0,012
800,1	0,012
800,5	0,012
801	0,012
801,4	0,013
801,8	0,013
802,2	0,013
802,7	0,013
803,1	0,013
803,5	0,013
804	0,012
804,4	0,012
804,8	0,012
805,3	0,012
805,7	0,011
806,1	0,011
806,6	0,011
807	0,011
807,4	0,011
807,9	0,011
808,3	0,011
808,7	0,012
809,2	0,011
809,6	0,012
810	0,012
810,4	0,012
810,9	0,012
811,3	0,012
811,7	0,012
812,2	0,012
812,6	0,012
813	0,012
813,5	0,012
813,9	0,012
814,3	0,012
814,8	0,012
815,2	0,012
815,6	0,012
816,1	0,012
816,5	0,011
816,9	0,011
817,3	0,011
817,8	0,012
818,2	0,012
818,6	0,012
819,1	0,012
819,5	0,011
819,9	0,012
820,4	0,012
820,8	0,011
821,2	0,011
821,7	0,012
822,1	0,012
822,5	0,012
822,9	0,012
823,4	0,012
823,8	0,012
824,2	0,012
824,7	0,012
825,1	0,012
825,5	0,012
826	0,012
826,4	0,012
826,8	0,011
827,3	0,011
827,7	0,01
828,1	0,01
828,5	0,01
829	0,009
829,4	0,009
829,8	0,009
830,3	0,01
830,7	0,01
831,1	0,009
831,6	0,009
832	0,01
832,4	0,01
832,8	0,01
833,3	0,01
833,7	0,01
834,1	0,01
834,6	0,01
835	0,01
835,4	0,01
835,8	0,01
836,3	0,01
836,7	0,011
837,1	0,011
837,6	0,011
838	0,011
838,4	0,011
838,9	0,011
839,3	0,011
839,7	0,011
840,1	0,011
840,6	0,011
841	0,011
841,4	0,011
841,9	0,011
842,3	0,011
842,7	0,011
843,1	0,011
843,6	0,011
844	0,011
844,4	0,011
844,9	0,011
845,3	0,011
845,7	0,011
846,2	0,01
846,6	0,01
847	0,01
847,4	0,01
847,9	0,01
848,3	0,01
848,7	0,01
849,2	0,01
849,6	0,01
850	0,01
850,4	0,011
850,9	0,01
851,3	0,01
851,7	0,011
852,2	0,011
852,6	0,011
853	0,01
853,4	0,01
853,9	0,011
854,3	0,011
854,7	0,011
855,2	0,011
855,6	0,01
856	0,01
856,4	0,01
856,9	0,01
857,3	0,01
857,7	0,01
858,2	0,01
858,6	0,01
859	0,01
859,4	0,009
859,9	0,009
860,3	0,01
860,7	0,01
861,1	0,01
861,6	0,011
862	0,011
862,4	0,011
862,9	0,011
863,3	0,011
863,7	0,011
864,1	0,011
864,6	0,01
865	0,01
865,4	0,01
865,9	0,01
866,3	0,01
866,7	0,01
867,1	0,01
867,6	0,01
868	0,01
868,4	0,01
868,8	0,009
869,3	0,01
869,7	0,01
870,1	0,01
870,6	0,009
871	0,009
871,4	0,009
871,8	0,009
872,3	0,009
872,7	0,009
873,1	0,009
873,5	0,008
874	0,008
874,4	0,009
874,8	0,009
875,3	0,008
875,7	0,008
876,1	0,008
876,5	0,009
877	0,009
877,4	0,009
877,8	0,009
878,2	0,009
878,7	0,009
879,1	0,01
879,5	0,009
879,9	0,009
880,4	0,009
880,8	0,009
881,2	0,009
881,7	0,009
882,1	0,009
882,5	0,009
882,9	0,008
883,4	0,008
883,8	0,008
884,2	0,008
884,6	0,008
885,1	0,008
885,5	0,008
885,9	0,009
886,3	0,009
886,8	0,009
887,2	0,008
887,6	0,009
888	0,009
888,5	0,009
888,9	0,009
889,3	0,009
889,8	0,009
890,2	0,009
890,6	0,01
891	0,01
891,5	0,01
891,9	0,01
892,3	0,01
892,7	0,01
893,2	0,01
893,6	0,01
894	0,01
894,4	0,01
894,9	0,01
895,3	0,01
895,7	0,01
896,1	0,009
896,6	0,009
897	0,009
897,4	0,009
897,8	0,009
898,3	0,009
898,7	0,009
899,1	0,009
899,5	0,009
900	0,009
900,4	0,009
900,8	0,009
901,2	0,009
901,7	0,008
902,1	0,008
902,5	0,008
902,9	0,008
903,4	0,008
903,8	0,008
904,2	0,008
904,6	0,008
905,1	0,008
905,5	0,009
905,9	0,009
906,3	0,009
906,8	0,009
907,2	0,01
907,6	0,01
908	0,01
908,5	0,01
908,9	0,01
909,3	0,01
909,7	0,011
910,2	0,011
910,6	0,011
911	0,011
911,4	0,012
911,9	0,011
912,3	0,011
912,7	0,011
913,1	0,011
913,6	0,012
914	0,012
914,4	0,011
914,8	0,011
915,3	0,011
915,7	0,011
916,1	0,011
916,5	0,011
916,9	0,011
917,4	0,011
917,8	0,011
918,2	0,01
918,6	0,01
919,1	0,009
919,5	0,01
919,9	0,009
920,3	0,009
920,8	0,009
921,2	0,009
921,6	0,009
922	0,01
922,5	0,009
922,9	0,009
923,3	0,009
923,7	0,01
924,2	0,01
924,6	0,01
925	0,01
925,4	0,01
925,8	0,01
926,3	0,01
926,7	0,009
927,1	0,009
927,5	0,009
928	0,009
928,4	0,009
928,8	0,009
929,2	0,008
929,7	0,008
930,1	0,008
930,5	0,008
930,9	0,007
931,3	0,007
931,8	0,007
932,2	0,007
932,6	0,007
933	0,007
933,5	0,007
933,9	0,008
934,3	0,008
934,7	0,008
935,2	0,008
935,6	0,008
936	0,009
936,4	0,009
936,8	0,009
937,3	0,009
937,7	0,009
938,1	0,009
938,5	0,009
939	0,008
939,4	0,008
939,8	0,008
940,2	0,008
940,6	0,008
941,1	0,008
941,5	0,009
941,9	0,009
942,3	0,009
942,8	0,009
943,2	0,009
943,6	0,009
944	0,009
944,4	0,009
944,9	0,009
945,3	0,009
945,7	0,008
946,1	0,008
946,6	0,008
947	0,008
947,4	0,007
947,8	0,007
948,2	0,007
948,7	0,007
949,1	0,007
949,5	0,006
949,9	0,006
950,3	0,005
950,8	0,005
951,2	0,005
951,6	0,005
952	0,005
952,5	0,005
952,9	0,005
953,3	0,005
953,7	0,005
954,1	0,005
954,6	0,005
955	0,005
955,4	0,004
955,8	0,004
956,2	0,004
956,7	0,004
957,1	0,004
957,5	0,003
957,9	0,003
958,3	0,003
958,8	0,003
959,2	0,002
959,6	0,002
960	0,002
960,5	0,002
960,9	0,001
961,3	0,002
961,7	0,002
962,1	0,002
962,6	0,002
963	0,002
963,4	0,002
963,8	0,003
964,2	0,003
964,7	0,002
965,1	0,003
965,5	0,003
965,9	0,003
966,3	0,004
966,8	0,003
967,2	0,004
967,6	0,003
968	0,004
968,4	0,004
968,9	0,004
969,3	0,004
969,7	0,005
970,1	0,005
970,5	0,006
971	0,006
971,4	0,006
971,8	0,005
972,2	0,005
972,6	0,005
973,1	0,004
973,5	0,004
973,9	0,004
974,3	0,004
974,7	0,004
975,2	0,004
975,6	0,004
976	0,004
976,4	0,005
976,8	0,004
977,3	0,004
977,7	0,005
978,1	0,004
978,5	0,005
978,9	0,004
979,4	0,004
979,8	0,004
980,2	0,003
980,6	0,003
981	0,003
981,5	0,003
981,9	0,003
982,3	0,004
982,7	0,004
983,1	0,004
983,6	0,003
984	0,004
984,4	0,004
984,8	0,003
985,2	0,003
985,6	0,003
986,1	0,003
986,5	0,004
986,9	0,003
987,3	0,003
987,7	0,003
988,2	0,004
988,6	0,004
989	0,004
989,4	0,004
989,8	0,005
990,3	0,005
990,7	0,005
991,1	0,005
991,5	0,005
991,9	0,005
992,3	0,005
992,8	0,004
993,2	0,005
993,6	0,005
994	0,005
994,4	0,005
994,9	0,005
995,3	0,005
995,7	0,006
996,1	0,006
996,5	0,005
996,9	0,005
997,4	0,005
997,8	0,005
998,2	0,005
998,6	0,005
999	0,005
999,5	0,005
999,9	0,005
1000,3	0,005
1000,7	0,005
1001,1	0,005
1001,5	0,005
1002	0,006
1002,4	0,007
1002,8	0,007
1003,2	0,007
1003,6	0,008
1004	0,008
1004,5	0,008
1004,9	0,008
1005,3	0,008
1005,7	0,008
1006,1	0,008
1006,6	0,007
1007	0,007
1007,4	0,008
1007,8	0,009
1008,2	0,009
1008,6	0,009
1009,1	0,009
1009,5	0,009
1009,9	0,009
1010,3	0,009
1010,7	0,008
1011,1	0,008
1011,6	0,009
1012	0,009
1012,4	0,009
1012,8	0,009
1013,2	0,008
1013,6	0,008
1014,1	0,008
1014,5	0,007
1014,9	0,007
1015,3	0,006
1015,7	0,007
1016,1	0,007
1016,6	0,008
1017	0,008
1017,4	0,008
1017,8	0,009
1018,2	0,009
1018,6	0,009
1019,1	0,008
1019,5	0,008
1019,9	0,008
1020,3	0,007
1020,7	0,007
1021,1	0,006
1021,6	0,007
1022	0,007
1022,4	0,008
1022,8	0,008
1023,2	0,009
1023,6	0,009
1024,1	0,01
1024,5	0,009
1024,9	0,009
1025,3	0,008
1025,7	0,007
1026,1	0,007
1026,6	0,007
1027	0,006
1027,4	0,006
1027,8	0,006
1028,2	0,006
1028,6	0,006
1029	0,007
1029,5	0,007
1029,9	0,007
1030,3	0,007
1030,7	0,008
1031,1	0,008
1031,5	0,008
1032	0,007
1032,4	0,008
1032,8	0,008
1033,2	0,008
1033,6	0,008
1034	0,007
1034,4	0,006
1034,9	0,006
1035,3	0,005
1035,7	0,005
1036,1	0,005
1036,5	0,004
1036,9	0,006
1037,4	0,006
1037,8	0,006
1038,2	0,007
1038,6	0,007
1039	0,007
1039,4	0,007
1039,8	0,006
1040,3	0,006
1040,7	0,006
1041,1	0,006
1041,5	0,006
1041,9	0,007
1042,3	0,006
1042,7	0,007
1043,2	0,007
1043,6	0,007
1044	0,007
1044,4	0,006
1044,8	0,005
1045,2	0,005
1045,6	0,005
1046,1	0,005
1046,5	0,005
1046,9	0,005
1047,3	0,006
1047,7	0,006
1048,1	0,006
1048,5	0,005
1049	0,006
1049,4	0,004
1049,8	0,004
1050,2	0,004
1050,6	0,004
1051	0,004
1051,4	0,004
1051,9	0,004
1052,3	0,005
1052,7	0,005
1053,1	0,005
1053,5	0,005
1053,9	0,006
1054,3	0,006
1054,8	0,005
1055,2	0,005
1055,6	0,005
1056	0,005
1056,4	0,005
1056,8	0,006
1057,2	0,006
1057,6	0,006
1058,1	0,005
1058,5	0,005
1058,9	0,005
1059,3	0,006
1059,7	0,005
1060,1	0,005
1060,5	0,006
1061	0,006
1061,4	0,005
1061,8	0,005
1062,2	0,005
1062,6	0,005
1063	0,006
1063,4	0,006
1063,8	0,006
1064,3	0,006
1064,7	0,007
1065,1	0,006
1065,5	0,006
1065,9	0,005
1066,3	0,006
1066,7	0,006
1067,1	0,007
1067,6	0,007
1068	0,007
1068,4	0,007
1068,8	0,006
1069,2	0,006
1069,6	0,005
1070	0,005
1070,4	0,005
1070,9	0,005
1071,3	0,005
1071,7	0,005
1072,1	0,004
1072,5	0,004
1072,9	0,005
1073,3	0,005
1073,7	0,005
1074,2	0,005
1074,6	0,006
1075	0,006
1075,4	0,006
1075,8	0,005
1076,2	0,005
1076,6	0,005
1077	0,003
1077,5	0,001
1077,9	0,001
1078,3	0,001
1078,7	0
1079,1	0,002
1079,5	0,001
1079,9	0,003
1080,3	0,003
1080,7	0,005
1081,2	0,005
1081,6	0,004
1082	0,002
1082,4	0,002
1082,8	-0,001
1083,2	0
1083,6	-0,002
1084	-0,003
1084,5	-0,001
1084,9	-0,002
1085,3	-0,004
1085,7	-0,002
1086,1	-0,002
1086,5	-0,002
1086,9	-0
1087,3	-0
1087,7	-0
1088,2	0,003
1088,6	0,001
1089	0,001
1089,4	-0,002
1089,8	-0,001
1090,2	-0,002
1090,6	0
1091	-0,001
1091,4	0
1091,9	-0,002
1092,3	-0,003
1092,7	-0,007
1093,1	-0,007
1093,5	-0,007
1093,9	-0,006
1094,3	-0,007
1094,7	-0,006
1095,1	-0,002
1095,5	-0,001
1096	0,001
1096,4	0,004
1096,8	0,005
1097,2	0,002
1097,6	-0,005
1098	-0,006
1098,4	-0,002
1098,8	-0,012
1099,2	-0,02
1099,6	-0,021
1100,1	-0,018
1100,5	-0,016
1100,9	-0,013
1101,3	-0,009
1101,7	-0,006
1102,1	-0,008
1102,5	-0,02
1102,9	-0,027
1103,3	-0,026
1103,7	-0,026
1104,2	-0,037
1104,6	-0,043
1105	-0,05
1105,4	-0,046
1105,8	-0,033
1106,2	-0,043
1106,6	-0,062
1107	-0,08
1107,4	-0,075
1107,8	-0,028
1108,3	-0,021
