Data from Absorbance_00005.txt Node
Date: Wed Aug 02 13:26:41 MSK 2023
User: vat
Spectrometer: MAYP114033
Trigger mode: 0
Integration Time (sec): 8,000000E-3
Scans to average: 10
Electric dark correction enabled: true
Nonlinearity correction enabled: false
Boxcar width: 3
XAxis mode: Wavelengths
Number of Pixels in Spectrum: 2068
>>>>>Begin Spectral Data<<<<<
199,4	-1,017
199,9	-0,16
200,4	0,232
200,8	0,672
201,3	0,876
201,8	0,969
202,2	1,016
202,7	1,026
203,2	1,074
203,6	1,116
204,1	1,105
204,6	1,115
205	1,111
205,5	1,111
206	1,124
206,4	1,122
206,9	1,141
207,4	1,163
207,8	1,18
208,3	1,203
208,8	1,226
209,2	1,264
209,7	1,291
210,2	1,279
210,6	1,293
211,1	1,301
211,5	1,322
212	1,337
212,5	1,336
212,9	1,35
213,4	1,383
213,9	1,399
214,3	1,413
214,8	1,409
215,3	1,402
215,7	1,415
216,2	1,431
216,7	1,448
217,1	1,467
217,6	1,472
218,1	1,489
218,5	1,511
219	1,527
219,5	1,531
219,9	1,55
220,4	1,571
220,9	1,583
221,3	1,603
221,8	1,633
222,3	1,654
222,7	1,684
223,2	1,682
223,6	1,676
224,1	1,698
224,6	1,728
225	1,726
225,5	1,728
226	1,735
226,4	1,765
226,9	1,783
227,4	1,802
227,8	1,803
228,3	1,835
228,8	1,868
229,2	1,884
229,7	1,903
230,2	1,925
230,6	1,947
231,1	1,953
231,5	1,959
232	1,946
232,5	1,943
232,9	1,942
233,4	1,973
233,9	1,959
234,3	1,974
234,8	1,972
235,3	1,982
235,7	1,988
236,2	1,989
236,7	1,984
237,1	1,994
237,6	2,017
238,1	2,038
238,5	2,053
239	2,079
239,4	2,098
239,9	2,1
240,4	2,117
240,8	2,106
241,3	2,106
241,8	2,095
242,2	2,094
242,7	2,097
243,2	2,114
243,6	2,111
244,1	2,095
244,6	2,099
245	2,118
245,5	2,123
245,9	2,128
246,4	2,105
246,9	2,118
247,3	2,144
247,8	2,152
248,3	2,158
248,7	2,136
249,2	2,133
249,7	2,174
250,1	2,177
250,6	2,175
251	2,176
251,5	2,166
252	2,172
252,4	2,175
252,9	2,143
253,4	2,132
253,8	2,137
254,3	2,123
254,8	2,136
255,2	2,162
255,7	2,159
256,1	2,181
256,6	2,191
257,1	2,21
257,5	2,203
258	2,207
258,5	2,186
258,9	2,191
259,4	2,195
259,9	2,2
260,3	2,18
260,8	2,206
261,2	2,2
261,7	2,218
262,2	2,218
262,6	2,208
263,1	2,204
263,6	2,199
264	2,201
264,5	2,206
264,9	2,193
265,4	2,211
265,9	2,216
266,3	2,22
266,8	2,235
267,3	2,241
267,7	2,247
268,2	2,263
268,7	2,254
269,1	2,217
269,6	2,219
270	2,209
270,5	2,213
271	2,193
271,4	2,187
271,9	2,192
272,4	2,239
272,8	2,257
273,3	2,256
273,7	2,237
274,2	2,267
274,7	2,275
275,1	2,278
275,6	2,264
276,1	2,233
276,5	2,239
277	2,221
277,4	2,236
277,9	2,231
278,4	2,234
278,8	2,229
279,3	2,257
279,8	2,264
280,2	2,278
280,7	2,259
281,1	2,258
281,6	2,251
282,1	2,272
282,5	2,254
283	2,264
283,4	2,269
283,9	2,237
284,4	2,225
284,8	2,224
285,3	2,221
285,8	2,208
286,2	2,166
286,7	2,144
287,1	2,128
287,6	2,095
288,1	2,055
288,5	2,005
289	1,963
289,5	1,928
289,9	1,882
290,4	1,841
290,8	1,796
291,3	1,755
291,8	1,71
292,2	1,68
292,7	1,65
293,1	1,622
293,6	1,596
294,1	1,574
294,5	1,551
295	1,535
295,5	1,515
295,9	1,501
296,4	1,492
296,8	1,476
297,3	1,467
297,8	1,454
298,2	1,444
298,7	1,436
299,1	1,423
299,6	1,415
300,1	1,414
300,5	1,406
301	1,404
301,5	1,399
301,9	1,391
302,4	1,384
302,8	1,374
303,3	1,364
303,8	1,357
304,2	1,347
304,7	1,338
305,1	1,332
305,6	1,325
306,1	1,32
306,5	1,311
307	1,301
307,4	1,292
307,9	1,283
308,4	1,273
308,8	1,266
309,3	1,255
309,8	1,247
310,2	1,239
310,7	1,229
311,1	1,22
311,6	1,209
312,1	1,199
312,5	1,19
313	1,182
313,4	1,174
313,9	1,165
314,4	1,156
314,8	1,146
315,3	1,136
315,7	1,125
316,2	1,111
316,7	1,099
317,1	1,089
317,6	1,08
318	1,069
318,5	1,059
319	1,049
319,4	1,039
319,9	1,029
320,3	1,017
320,8	1,005
321,3	0,996
321,7	0,987
322,2	0,974
322,6	0,965
323,1	0,954
323,6	0,944
324	0,935
324,5	0,924
324,9	0,913
325,4	0,903
325,9	0,891
326,3	0,881
326,8	0,87
327,2	0,857
327,7	0,846
328,2	0,834
328,6	0,823
329,1	0,811
329,5	0,801
330	0,791
330,5	0,781
330,9	0,77
331,4	0,76
331,8	0,75
332,3	0,74
332,8	0,728
333,2	0,717
333,7	0,706
334,1	0,697
334,6	0,687
335,1	0,677
335,5	0,667
336	0,657
336,4	0,647
336,9	0,639
337,4	0,627
337,8	0,617
338,3	0,607
338,7	0,597
339,2	0,587
339,7	0,578
340,1	0,567
340,6	0,557
341	0,548
341,5	0,538
342	0,529
342,4	0,52
342,9	0,511
343,3	0,502
343,8	0,494
344,2	0,485
344,7	0,478
345,2	0,469
345,6	0,461
346,1	0,453
346,5	0,445
347	0,437
347,5	0,43
347,9	0,422
348,4	0,415
348,8	0,408
349,3	0,401
349,8	0,393
350,2	0,385
350,7	0,379
351,1	0,372
351,6	0,365
352	0,358
352,5	0,351
353	0,346
353,4	0,34
353,9	0,334
354,3	0,327
354,8	0,321
355,3	0,315
355,7	0,31
356,2	0,304
356,6	0,297
357,1	0,291
357,5	0,286
358	0,282
358,5	0,276
358,9	0,271
359,4	0,265
359,8	0,26
360,3	0,256
360,8	0,251
361,2	0,246
361,7	0,241
362,1	0,237
362,6	0,233
363	0,229
363,5	0,224
364	0,22
364,4	0,216
364,9	0,212
365,3	0,208
365,8	0,204
366,3	0,2
366,7	0,196
367,2	0,193
367,6	0,189
368,1	0,186
368,5	0,184
369	0,181
369,5	0,179
369,9	0,176
370,4	0,173
370,8	0,17
371,3	0,167
371,7	0,164
372,2	0,16
372,7	0,158
373,1	0,154
373,6	0,152
374	0,149
374,5	0,147
374,9	0,144
375,4	0,142
375,9	0,14
376,3	0,137
376,8	0,135
377,2	0,132
377,7	0,13
378,2	0,128
378,6	0,126
379,1	0,124
379,5	0,123
380	0,121
380,4	0,12
380,9	0,117
381,4	0,116
381,8	0,113
382,3	0,11
382,7	0,109
383,2	0,107
383,6	0,106
384,1	0,105
384,6	0,103
385	0,103
385,5	0,101
385,9	0,1
386,4	0,097
386,8	0,096
387,3	0,095
387,7	0,094
388,2	0,092
388,7	0,091
389,1	0,089
389,6	0,088
390	0,086
390,5	0,084
390,9	0,082
391,4	0,08
391,9	0,079
392,3	0,078
392,8	0,077
393,2	0,076
393,7	0,075
394,1	0,074
394,6	0,073
395,1	0,072
395,5	0,072
396	0,071
396,4	0,07
396,9	0,068
397,3	0,068
397,8	0,067
398,2	0,066
398,7	0,066
399,2	0,065
399,6	0,063
400,1	0,062
400,5	0,061
401	0,06
401,4	0,059
401,9	0,058
402,4	0,057
402,8	0,056
403,3	0,055
403,7	0,054
404,2	0,053
404,6	0,052
405,1	0,051
405,5	0,05
406	0,05
406,5	0,049
406,9	0,048
407,4	0,048
407,8	0,047
408,3	0,046
408,7	0,045
409,2	0,044
409,6	0,042
410,1	0,042
410,6	0,041
411	0,041
411,5	0,04
411,9	0,04
412,4	0,04
412,8	0,04
413,3	0,039
413,7	0,038
414,2	0,037
414,7	0,036
415,1	0,035
415,6	0,035
416	0,034
416,5	0,034
416,9	0,033
417,4	0,032
417,8	0,031
418,3	0,03
418,8	0,028
419,2	0,028
419,7	0,028
420,1	0,027
420,6	0,027
421	0,026
421,5	0,025
421,9	0,026
422,4	0,025
422,8	0,024
423,3	0,023
423,8	0,023
424,2	0,023
424,7	0,023
425,1	0,022
425,6	0,021
426	0,021
426,5	0,02
426,9	0,02
427,4	0,019
427,9	0,019
428,3	0,018
428,8	0,018
429,2	0,017
429,7	0,017
430,1	0,016
430,6	0,016
431	0,016
431,5	0,015
431,9	0,015
432,4	0,015
432,8	0,014
433,3	0,014
433,8	0,013
434,2	0,012
434,7	0,012
435,1	0,011
435,6	0,011
436	0,01
436,5	0,01
436,9	0,01
437,4	0,009
437,8	0,009
438,3	0,008
438,8	0,008
439,2	0,008
439,7	0,008
440,1	0,008
440,6	0,007
441	0,007
441,5	0,007
441,9	0,007
442,4	0,007
442,8	0,006
443,3	0,006
443,7	0,006
444,2	0,006
444,7	0,006
445,1	0,006
445,6	0,006
446	0,006
446,5	0,006
446,9	0,006
447,4	0,006
447,8	0,006
448,3	0,006
448,7	0,005
449,2	0,005
449,6	0,005
450,1	0,004
450,6	0,004
451	0,004
451,5	0,004
451,9	0,004
452,4	0,003
452,8	0,003
453,3	0,004
453,7	0,004
454,2	0,004
454,6	0,004
455,1	0,003
455,5	0,003
456	0,003
456,4	0,002
456,9	0,002
457,3	0,001
457,8	0,002
458,3	0,002
458,7	0,002
459,2	0,002
459,6	0,001
460,1	0,001
460,5	0,001
461	0,001
461,4	0,001
461,9	0,001
462,3	0,002
462,8	0,002
463,2	0,001
463,7	0,001
464,1	0,001
464,6	0,001
465	0
465,5	0
466	0
466,4	-0
466,9	-0
467,3	-0
467,8	-0
468,2	-0
468,7	-0,001
469,1	-0
469,6	0
470	0
470,5	0
470,9	0
471,4	0
471,8	0,001
472,3	0,001
472,7	0
473,2	0
473,6	-0
474,1	-0,001
474,5	-0
475	-0
475,4	-0
475,9	-0
476,4	-0
476,8	-0
477,3	0
477,7	-0
478,2	-0
478,6	0
479,1	-0
479,5	-0
480	0
480,4	0
480,9	0
481,3	-0
481,8	-0,001
482,2	-0,001
482,7	-0
483,1	-0
483,6	-0
484	-0
484,5	-0,001
484,9	0
485,4	0,001
485,8	0,001
486,3	0,001
486,7	0,001
487,2	0,001
487,6	0,001
488,1	0,001
488,5	0
489	-0,001
489,4	-0,001
489,9	-0,002
490,4	-0,002
490,8	-0,002
491,3	-0,001
491,7	-0,001
492,2	0
492,6	-0
493,1	-0
493,5	0
494	-0
494,4	-0
494,9	-0,001
495,3	0
495,8	-0
496,2	0
496,7	-0
497,1	0
497,6	0
498	0,001
498,5	-0
498,9	-0
499,4	-0,001
499,8	0
500,3	-0
500,7	-0
501,2	-0
501,6	0
502,1	-0
502,5	0
503	0
503,4	0,001
503,9	0,001
504,3	0
504,8	0
505,2	0,001
505,7	-0
506,1	0
506,6	-0
507	-0
507,5	-0,001
507,9	-0,001
508,4	-0
508,8	0
509,3	-0
509,7	-0,001
510,2	-0,001
510,6	-0,001
511,1	-0,001
511,5	-0,002
512	-0,001
512,4	-0,001
512,9	-0,001
513,3	-0,001
513,8	-0
514,2	0
514,7	0,001
515,1	0,001
515,6	0,001
516	-0
516,5	0
516,9	0
517,4	-0
517,8	-0,001
518,3	-0
518,7	-0
519,2	0
519,6	0,001
520,1	0,001
520,5	0,001
521	0
521,4	0
521,9	0,001
522,3	0,001
522,8	-0
523,2	-0,001
523,7	-0
524,1	-0,001
524,6	-0,001
525	-0,001
525,5	-0,001
525,9	-0
526,4	-0,001
526,8	-0
527,3	-0
527,7	-0,001
528,2	-0,001
528,6	-0,002
529,1	-0,001
529,5	-0,001
530	-0,001
530,4	-0,001
530,9	-0,001
531,3	-0,001
531,8	-0,001
532,2	-0
532,6	-0,001
533,1	-0,001
533,5	-0
534	-0,001
534,4	-0
534,9	-0
535,3	-0,001
535,8	-0,001
536,2	-0,001
536,7	-0,001
537,1	-0,001
537,6	-0
538	0
538,5	0
538,9	-0
539,4	0
539,8	-0
540,3	-0
540,7	-0,001
541,2	-0,001
541,6	-0,001
542,1	-0,001
542,5	-0,001
543	-0,001
543,4	-0,001
543,9	-0,001
544,3	-0,001
544,8	-0,001
545,2	-0,001
545,7	-0,001
546,1	0
546,5	-0
547	-0,001
547,4	-0
547,9	-0
548,3	-0
548,8	-0,001
549,2	-0,001
549,7	-0,001
550,1	-0,001
550,6	-0,002
551	-0,003
551,5	-0,002
551,9	-0,002
552,4	-0,002
552,8	-0,002
553,3	-0,002
553,7	-0,001
554,2	-0,001
554,6	-0,001
555,1	-0,001
555,5	-0,001
555,9	-0,001
556,4	-0,001
556,8	-0,001
557,3	-0,002
557,7	-0,001
558,2	-0,001
558,6	-0,001
559,1	-0,001
559,5	-0,001
560	-0,001
560,4	-0,001
560,9	-0,001
561,3	-0,001
561,8	-0,001
562,2	-0,001
562,7	-0,001
563,1	-0,001
563,6	-0,001
564	-0,001
564,4	-0
564,9	-0
565,3	0
565,8	0
566,2	-0
566,7	-0
567,1	-0
567,6	-0,001
568	-0,001
568,5	-0,001
568,9	-0,001
569,4	0
569,8	0
570,3	0
570,7	0
571,1	0,001
571,6	0
572	0
572,5	0
572,9	-0
573,4	-0
573,8	-0
574,3	-0
574,7	-0
575,2	-0
575,6	-0
576,1	-0
576,5	-0
576,9	-0
577,4	-0
577,8	-0
578,3	-0
578,7	-0
579,2	-0
579,6	-0
580,1	-0
580,5	-0
581	-0
581,4	-0
581,9	-0
582,3	-0
582,7	-0,001
583,2	-0,001
583,6	-0,001
584,1	-0,001
584,5	-0,001
585	-0,001
585,4	-0,001
585,9	-0
586,3	-0
586,8	-0
587,2	-0
587,6	-0
588,1	-0,001
588,5	-0,001
589	-0,001
589,4	-0,001
589,9	-0,001
590,3	-0,001
590,8	-0
591,2	-0
591,7	-0,001
592,1	-0
592,5	0
593	0
593,4	-0
593,9	-0,001
594,3	-0,001
594,8	-0,001
595,2	-0,001
595,7	-0,001
596,1	-0,001
596,6	-0,001
597	-0,001
597,4	-0
597,9	-0
598,3	-0
598,8	-0,001
599,2	-0,001
599,7	-0,001
600,1	-0,001
600,6	-0,001
601	-0,001
601,4	-0,001
601,9	-0,001
602,3	-0,001
602,8	-0,001
603,2	-0,001
603,7	-0,001
604,1	-0,001
604,6	-0,001
605	-0,001
605,4	-0,001
605,9	-0,001
606,3	-0,001
606,8	-0,001
607,2	-0,001
607,7	-0,001
608,1	-0,001
608,6	-0,001
609	-0,001
609,4	-0
609,9	-0
610,3	-0
610,8	-0
611,2	-0
611,7	0
612,1	-0
612,6	0
613	0
613,4	-0
613,9	-0
614,3	-0
614,8	-0
615,2	-0
615,7	-0,001
616,1	-0,001
616,6	-0,001
617	-0,001
617,4	-0,001
617,9	-0,001
618,3	-0,001
618,8	-0
619,2	-0
619,7	-0
620,1	-0,001
620,5	-0,001
621	-0,001
621,4	-0,001
621,9	-0,001
622,3	-0,001
622,8	-0,001
623,2	-0
623,6	-0
624,1	-0
624,5	-0,001
625	-0,001
625,4	-0,001
625,9	-0,001
626,3	-0,001
626,8	-0,001
627,2	-0
627,6	-0
628,1	0
628,5	0
629	-0
629,4	0
629,9	-0
630,3	-0
630,7	-0
631,2	-0
631,6	-0
632,1	-0
632,5	-0
633	0
633,4	-0
633,8	-0
634,3	-0,001
634,7	-0,001
635,2	-0,001
635,6	-0,001
636,1	-0,002
636,5	-0,001
636,9	-0,001
637,4	-0,001
637,8	-0,001
638,3	-0,001
638,7	-0,002
639,2	-0,001
639,6	-0,001
640	-0,001
640,5	-0
640,9	-0
641,4	-0
641,8	-0
642,2	-0
642,7	-0,001
643,1	-0,001
643,6	-0,001
644	-0,001
644,5	-0,001
644,9	-0,001
645,3	-0,001
645,8	-0,001
646,2	-0,001
646,7	-0,001
647,1	-0,001
647,6	-0,001
648	-0,001
648,4	-0,001
648,9	-0,001
649,3	-0,001
649,8	-0,001
650,2	-0,001
650,6	-0,001
651,1	-0,001
651,5	-0,001
652	-0,001
652,4	-0,001
652,9	-0,002
653,3	-0,001
653,7	-0,002
654,2	-0,002
654,6	-0,002
655,1	-0,002
655,5	-0,001
655,9	-0,001
656,4	-0
656,8	-0,001
657,3	-0,001
657,7	-0,001
658,2	-0,001
658,6	-0,002
659	-0,002
659,5	-0,003
659,9	0
660,4	0,001
660,8	0,001
661,2	0
661,7	0
662,1	-0
662,6	-0,001
663	-0,001
663,4	-0,002
663,9	-0,001
664,3	-0,001
664,8	-0,001
665,2	-0,001
665,6	-0,001
666,1	-0,001
666,5	-0,001
667	-0,002
667,4	-0,002
667,9	-0,002
668,3	-0,002
668,7	-0,002
669,2	-0,002
669,6	-0,001
670,1	-0,001
670,5	-0,002
670,9	-0,002
671,4	-0,002
671,8	-0,002
672,3	-0,002
672,7	-0,002
673,1	-0,002
673,6	-0,002
674	-0,001
674,5	-0,002
674,9	-0,001
675,3	-0,001
675,8	-0,001
676,2	-0,001
676,7	-0,001
677,1	-0,001
677,5	-0,001
678	-0,002
678,4	-0,002
678,9	-0,002
679,3	-0,002
679,7	-0,002
680,2	-0,002
680,6	-0,002
681,1	-0,001
681,5	-0,001
681,9	-0,001
682,4	-0,001
682,8	-0,001
683,3	-0,001
683,7	-0,001
684,1	-0,002
684,6	-0,001
685	-0,001
685,5	-0,001
685,9	-0,001
686,3	-0,002
686,8	-0,002
687,2	-0,001
687,7	-0,002
688,1	-0,002
688,5	-0,002
689	-0,002
689,4	-0,001
689,9	-0,002
690,3	-0,002
690,7	-0,001
691,2	-0,001
691,6	-0,001
692	-0,001
692,5	-0,001
692,9	-0,001
693,4	-0,001
693,8	-0,001
694,2	-0,001
694,7	-0,001
695,1	-0,001
695,6	-0,001
696	-0,001
696,4	-0
696,9	-0
697,3	-0,001
697,8	-0,001
698,2	-0,001
698,6	-0,001
699,1	-0,001
699,5	-0,002
699,9	-0,002
700,4	-0,001
700,8	-0,001
701,3	-0,001
701,7	-0,001
702,1	-0,001
702,6	-0,001
703	-0,001
703,5	-0
703,9	-0
704,3	-0
704,8	-0,001
705,2	-0,001
705,6	-0,002
706,1	-0,002
706,5	-0,003
707	-0,003
707,4	-0,002
707,8	-0,003
708,3	-0,002
708,7	-0,002
709,2	-0,002
709,6	-0,001
710	-0,001
710,5	-0,001
710,9	-0,001
711,3	-0,001
711,8	-0,001
712,2	-0,001
712,7	-0,001
713,1	-0,002
713,5	-0,001
714	-0,002
714,4	-0,001
714,8	-0,001
715,3	-0,001
715,7	-0,001
716,2	-0,001
716,6	-0,001
717	-0,001
717,5	-0,001
717,9	-0,001
718,3	-0
718,8	-0
719,2	-0
719,7	-0
720,1	-0,001
720,5	-0,001
721	-0,001
721,4	-0,001
721,8	-0,002
722,3	-0,001
722,7	-0,001
723,2	-0,001
723,6	-0,001
724	-0,001
724,5	-0,001
724,9	-0
725,3	-0
725,8	-0
726,2	-0
726,7	-0
727,1	-0,001
727,5	-0,001
728	-0,001
728,4	-0,001
728,8	-0,001
729,3	-0,001
729,7	-0
730,1	-0
730,6	-0
731	0
731,5	-0
731,9	-0,001
732,3	-0,001
732,8	-0,001
733,2	-0,001
733,6	-0,001
734,1	-0,002
734,5	-0,002
734,9	-0,002
735,4	-0,002
735,8	-0,002
736,3	-0,002
736,7	-0,002
737,1	-0,002
737,6	-0,002
738	-0,002
738,4	-0,002
738,9	-0,002
739,3	-0,001
739,7	-0,001
740,2	-0,001
740,6	-0,001
741,1	-0,001
741,5	-0,001
741,9	-0,001
742,4	-0,001
742,8	-0,001
743,2	-0,001
743,7	-0,001
744,1	-0,001
744,5	-0,001
745	-0,001
745,4	-0,001
745,8	-0,001
746,3	-0,001
746,7	-0,001
747,2	-0,002
747,6	-0,002
748	-0,002
748,5	-0,002
748,9	-0,002
749,3	-0,002
749,8	-0,002
750,2	-0,002
750,6	-0,001
751,1	-0,002
751,5	-0,002
751,9	-0,002
752,4	-0,002
752,8	-0,002
753,3	-0,002
753,7	-0,002
754,1	-0,002
754,6	-0,001
755	-0,001
755,4	-0,001
755,9	-0,002
756,3	-0,001
756,7	-0,001
757,2	-0,001
757,6	-0,001
758	-0,002
758,5	-0,002
758,9	-0,002
759,3	-0,002
759,8	-0,002
760,2	-0,001
760,6	-0,001
761,1	-0,001
761,5	-0,001
761,9	-0,001
762,4	-0,001
762,8	-0,001
763,3	-0,001
763,7	-0,002
764,1	-0,002
764,6	-0,002
765	-0,002
765,4	-0,002
765,9	-0,002
766,3	-0,002
766,7	-0,001
767,2	-0,001
767,6	-0,001
768	-0,001
768,5	-0,001
768,9	-0,001
769,3	-0,001
769,8	-0,001
770,2	-0,001
770,6	-0,002
771,1	-0,002
771,5	-0,002
771,9	-0,002
772,4	-0,002
772,8	-0,002
773,2	-0,003
773,7	-0,003
774,1	-0,003
774,5	-0,003
775	-0,002
775,4	-0,002
775,8	-0,002
776,3	-0,001
776,7	-0,002
777,1	-0,001
777,6	-0,001
778	-0,001
778,4	-0,001
778,9	-0,001
779,3	-0,001
779,7	-0,002
780,2	-0,002
780,6	-0,002
781	-0,002
781,5	-0,002
781,9	-0,002
782,3	-0,002
782,8	-0,002
783,2	-0,001
783,6	-0,002
784,1	-0,002
784,5	-0,001
784,9	-0,001
785,4	-0,001
785,8	-0
786,2	-0
786,7	-0,001
787,1	-0,001
787,5	-0,001
788	-0,001
788,4	-0,001
788,8	-0,001
789,3	-0,001
789,7	-0,001
790,1	-0,001
790,6	-0,001
791	-0,001
791,4	-0,001
791,9	-0,001
792,3	-0
792,7	-0,001
793,2	-0,001
793,6	-0,001
794	-0,001
794,5	-0,001
794,9	-0,001
795,3	-0,001
795,8	-0,001
796,2	-0,001
796,6	-0,001
797,1	-0,001
797,5	-0,001
797,9	-0,001
798,4	-0,001
798,8	-0,001
799,2	-0,001
799,7	-0,001
800,1	-0,001
800,5	-0,001
801	-0
801,4	-0,001
801,8	-0,001
802,2	-0,001
802,7	-0,001
803,1	-0,001
803,5	-0,001
804	-0,001
804,4	-0,001
804,8	-0,001
805,3	-0,001
805,7	-0,001
806,1	-0
806,6	-0
807	-0
807,4	-0
807,9	-0,001
808,3	-0,001
808,7	-0,001
809,2	-0,001
809,6	-0,001
810	-0,001
810,4	-0,001
810,9	-0,001
811,3	-0,001
811,7	-0,001
812,2	-0,001
812,6	-0,002
813	-0,002
813,5	-0,002
813,9	-0,002
814,3	-0,002
814,8	-0,002
815,2	-0,002
815,6	-0,002
816,1	-0,002
816,5	-0,002
816,9	-0,002
817,3	-0,002
817,8	-0,001
818,2	-0,001
818,6	-0,001
819,1	-0,001
819,5	-0,001
819,9	-0,001
820,4	-0,001
820,8	-0,001
821,2	-0,001
821,7	-0
822,1	-0,001
822,5	-0
822,9	0
823,4	0
823,8	0
824,2	0
824,7	0
825,1	-0
825,5	-0
826	-0
826,4	-0,001
826,8	-0,001
827,3	-0,001
827,7	-0,001
828,1	-0,001
828,5	-0,002
829	-0,002
829,4	-0,002
829,8	-0,002
830,3	-0,002
830,7	-0,002
831,1	-0,002
831,6	-0,002
832	-0,002
832,4	-0,002
832,8	-0,001
833,3	-0,001
833,7	-0,001
834,1	-0,001
834,6	-0,001
835	-0,001
835,4	-0,001
835,8	-0,001
836,3	-0,001
836,7	-0,001
837,1	-0,001
837,6	-0,001
838	-0,001
838,4	-0,001
838,9	-0,001
839,3	-0,002
839,7	-0,002
840,1	-0,002
840,6	-0,002
841	-0,002
841,4	-0,002
841,9	-0,002
842,3	-0,002
842,7	-0,001
843,1	-0,002
843,6	-0,002
844	-0,002
844,4	-0,002
844,9	-0,002
845,3	-0,002
845,7	-0,003
846,2	-0,002
846,6	-0,003
847	-0,002
847,4	-0,002
847,9	-0,002
848,3	-0,002
848,7	-0,002
849,2	-0,001
849,6	-0,001
850	-0,001
850,4	-0,001
850,9	-0,001
851,3	-0,001
851,7	-0,001
852,2	-0,001
852,6	-0,001
853	-0,002
853,4	-0,002
853,9	-0,002
854,3	-0,002
854,7	-0,002
855,2	-0,002
855,6	-0,002
856	-0,002
856,4	-0,002
856,9	-0,002
857,3	-0,002
857,7	-0,002
858,2	-0,002
858,6	-0,001
859	-0,001
859,4	-0,001
859,9	-0,001
860,3	-0,001
860,7	-0,001
861,1	-0,001
861,6	-0,001
862	-0,001
862,4	-0,001
862,9	-0,001
863,3	-0,001
863,7	-0,001
864,1	-0,001
864,6	-0,002
865	-0,002
865,4	-0,002
865,9	-0,002
866,3	-0,002
866,7	-0,002
867,1	-0,002
867,6	-0,002
868	-0,001
868,4	-0,001
868,8	-0,001
869,3	-0,001
869,7	-0,001
870,1	-0,002
870,6	-0,002
871	-0,002
871,4	-0,002
871,8	-0,002
872,3	-0,003
872,7	-0,003
873,1	-0,003
873,5	-0,003
874	-0,003
874,4	-0,002
874,8	-0,002
875,3	-0,002
875,7	-0,002
876,1	-0,002
876,5	-0,002
877	-0,002
877,4	-0,002
877,8	-0,002
878,2	-0,002
878,7	-0,002
879,1	-0,002
879,5	-0,002
879,9	-0,002
880,4	-0,002
880,8	-0,001
881,2	-0,001
881,7	-0,001
882,1	-0,001
882,5	-0,001
882,9	-0,001
883,4	-0,001
883,8	-0,001
884,2	-0,001
884,6	-0,001
885,1	-0,001
885,5	-0,001
885,9	-0,001
886,3	-0,001
886,8	-0,001
887,2	-0,001
887,6	-0,001
888	-0,001
888,5	-0,001
888,9	-0,001
889,3	-0,001
889,8	-0,002
890,2	-0,001
890,6	-0,001
891	-0,001
891,5	-0,001
891,9	-0,001
892,3	-0,001
892,7	-0,001
893,2	-0,002
893,6	-0,002
894	-0,002
894,4	-0,002
894,9	-0,002
895,3	-0,002
895,7	-0,001
896,1	-0,001
896,6	-0,002
897	-0,002
897,4	-0,002
897,8	-0,002
898,3	-0,002
898,7	-0,002
899,1	-0,002
899,5	-0,002
900	-0,002
900,4	-0,002
900,8	-0,002
901,2	-0,002
901,7	-0,002
902,1	-0,002
902,5	-0,002
902,9	-0,002
903,4	-0,002
903,8	-0,002
904,2	-0,002
904,6	-0,002
905,1	-0,002
905,5	-0,002
905,9	-0,002
906,3	-0,001
906,8	-0,001
907,2	-0,001
907,6	-0
908	-0
908,5	-0
908,9	-0
909,3	-0,001
909,7	-0
910,2	-0
910,6	-0
911	-0,001
911,4	-0
911,9	-0
912,3	-0
912,7	-0
913,1	-0
913,6	0
914	0
914,4	-0
914,8	0
915,3	0
915,7	0
916,1	0
916,5	-0
916,9	-0
917,4	-0,001
917,8	-0,001
918,2	-0,001
918,6	-0,001
919,1	-0,001
919,5	-0,001
919,9	-0,001
920,3	-0,001
920,8	-0,002
921,2	-0,002
921,6	-0,002
922	-0,002
922,5	-0,002
922,9	-0,002
923,3	-0,002
923,7	-0,001
924,2	-0,001
924,6	-0,002
925	-0,002
925,4	-0,002
925,8	-0,002
926,3	-0,002
926,7	-0,002
927,1	-0,002
927,5	-0,002
928	-0,003
928,4	-0,003
928,8	-0,003
929,2	-0,002
929,7	-0,003
930,1	-0,003
930,5	-0,003
930,9	-0,003
931,3	-0,004
931,8	-0,004
932,2	-0,004
932,6	-0,004
933	-0,004
933,5	-0,004
933,9	-0,003
934,3	-0,003
934,7	-0,003
935,2	-0,003
935,6	-0,004
936	-0,003
936,4	-0,003
936,8	-0,003
937,3	-0,003
937,7	-0,003
938,1	-0,003
938,5	-0,003
939	-0,004
939,4	-0,005
939,8	-0,004
940,2	-0,004
940,6	-0,004
941,1	-0,003
941,5	-0,003
941,9	-0,003
942,3	-0,002
942,8	-0,003
943,2	-0,003
943,6	-0,003
944	-0,004
944,4	-0,003
944,9	-0,004
945,3	-0,004
945,7	-0,005
946,1	-0,004
946,6	-0,004
947	-0,004
947,4	-0,005
947,8	-0,004
948,2	-0,004
948,7	-0,004
949,1	-0,005
949,5	-0,006
949,9	-0,007
950,3	-0,006
950,8	-0,007
951,2	-0,007
951,6	-0,007
952	-0,007
952,5	-0,007
952,9	-0,006
953,3	-0,007
953,7	-0,007
954,1	-0,007
954,6	-0,007
955	-0,007
955,4	-0,007
955,8	-0,008
956,2	-0,008
956,7	-0,008
957,1	-0,009
957,5	-0,01
957,9	-0,01
958,3	-0,01
958,8	-0,01
959,2	-0,011
959,6	-0,011
960	-0,012
960,5	-0,011
960,9	-0,011
961,3	-0,011
961,7	-0,011
962,1	-0,011
962,6	-0,011
963	-0,011
963,4	-0,01
963,8	-0,01
964,2	-0,01
964,7	-0,01
965,1	-0,01
965,5	-0,01
965,9	-0,01
966,3	-0,01
966,8	-0,01
967,2	-0,01
967,6	-0,009
968	-0,009
968,4	-0,009
968,9	-0,009
969,3	-0,009
969,7	-0,008
970,1	-0,008
970,5	-0,008
971	-0,008
971,4	-0,007
971,8	-0,007
972,2	-0,007
972,6	-0,007
973,1	-0,008
973,5	-0,008
973,9	-0,008
974,3	-0,008
974,7	-0,008
975,2	-0,007
975,6	-0,008
976	-0,007
976,4	-0,007
976,8	-0,007
977,3	-0,007
977,7	-0,007
978,1	-0,008
978,5	-0,008
978,9	-0,007
979,4	-0,007
979,8	-0,007
980,2	-0,007
980,6	-0,007
981	-0,007
981,5	-0,007
981,9	-0,007
982,3	-0,007
982,7	-0,007
983,1	-0,007
983,6	-0,007
984	-0,007
984,4	-0,007
984,8	-0,008
985,2	-0,008
985,6	-0,007
986,1	-0,008
986,5	-0,007
986,9	-0,007
987,3	-0,007
987,7	-0,006
988,2	-0,006
988,6	-0,006
989	-0,006
989,4	-0,006
989,8	-0,006
990,3	-0,005
990,7	-0,006
991,1	-0,005
991,5	-0,005
991,9	-0,005
992,3	-0,004
992,8	-0,005
993,2	-0,005
993,6	-0,004
994	-0,005
994,4	-0,004
994,9	-0,004
995,3	-0,003
995,7	-0,003
996,1	-0,002
996,5	-0,002
996,9	-0,002
997,4	-0,002
997,8	-0,002
998,2	-0,003
998,6	-0,003
999	-0,003
999,5	-0,003
999,9	-0,003
1000,3	-0,004
1000,7	-0,004
1001,1	-0,004
1001,5	-0,004
1002	-0,004
1002,4	-0,003
1002,8	-0,003
1003,2	-0,002
1003,6	-0,002
1004	-0,002
1004,5	-0,001
1004,9	-0,002
1005,3	-0,001
1005,7	-0,001
1006,1	-0,002
1006,6	-0,001
1007	-0,001
1007,4	-0,001
1007,8	-0
1008,2	-0
1008,6	-0
1009,1	0
1009,5	-0
1009,9	-0
1010,3	0
1010,7	-0
1011,1	-0
1011,6	-0
1012	-0
1012,4	0,001
1012,8	0,001
1013,2	0
1013,6	0
1014,1	-0
1014,5	-0,001
1014,9	-0,001
1015,3	-0,002
1015,7	-0,002
1016,1	-0,001
1016,6	-0
1017	-0
1017,4	0
1017,8	-0
1018,2	-0
1018,6	-0
1019,1	-0,001
1019,5	-0,001
1019,9	-0,001
1020,3	-0,001
1020,7	0
1021,1	0
1021,6	0
1022	0,001
1022,4	0,001
1022,8	0,001
1023,2	0,002
1023,6	0,002
1024,1	0,002
1024,5	0,002
1024,9	0,002
1025,3	0,002
1025,7	0,001
1026,1	-0
1026,6	-0
1027	-0
1027,4	-0,001
1027,8	-0
1028,2	-0
1028,6	0,001
1029	0,001
1029,5	0,001
1029,9	0,001
1030,3	0,001
1030,7	0,001
1031,1	0
1031,5	0,001
1032	0
1032,4	-0
1032,8	-0
1033,2	0
1033,6	0
1034	-0
1034,4	-0,001
1034,9	-0,001
1035,3	-0,001
1035,7	-0,002
1036,1	-0,002
1036,5	-0,003
1036,9	-0,002
1037,4	-0,002
1037,8	-0,001
1038,2	-0,001
1038,6	-0,001
1039	-0,001
1039,4	-0,001
1039,8	-0,001
1040,3	-0,002
1040,7	-0,002
1041,1	-0,001
1041,5	0,001
1041,9	0,002
1042,3	0,002
1042,7	0,002
1043,2	0,003
1043,6	0,003
1044	0,002
1044,4	0,001
1044,8	0,001
1045,2	0,001
1045,6	0
1046,1	0
1046,5	0
1046,9	0,001
1047,3	0,001
1047,7	0
1048,1	0,001
1048,5	0,001
1049	0,001
1049,4	0,001
1049,8	0
1050,2	-0
1050,6	-0,001
1051	-0
1051,4	-0
1051,9	-0
1052,3	0
1052,7	0
1053,1	0
1053,5	0,001
1053,9	0
1054,3	0
1054,8	0,001
1055,2	0,001
1055,6	0,001
1056	0,001
1056,4	0,002
1056,8	0,002
1057,2	0,002
1057,6	0,001
1058,1	0
1058,5	0,001
1058,9	0,001
1059,3	0,001
1059,7	0,002
1060,1	0,001
1060,5	0,001
1061	0,001
1061,4	-0
1061,8	-0,001
1062,2	-0
1062,6	-0,001
1063	-0
1063,4	0
1063,8	0
1064,3	-0
1064,7	0
1065,1	-0,001
1065,5	-0,001
1065,9	-0,001
1066,3	-0
1066,7	-0
1067,1	0,001
1067,6	0,001
1068	0
1068,4	0,001
1068,8	0
1069,2	-0
1069,6	-0,001
1070	-0,001
1070,4	-0,001
1070,9	-0,001
1071,3	-0,001
1071,7	0
1072,1	0,001
1072,5	0,001
1072,9	0,003
1073,3	0,003
1073,7	0,003
1074,2	0,003
1074,6	0,003
1075	0,002
1075,4	0,002
1075,8	0,001
1076,2	0
1076,6	0,001
1077	0,001
1077,5	0,001
1077,9	0,001
1078,3	0,001
1078,7	0,002
1079,1	0,002
1079,5	-0
1079,9	0,001
1080,3	-0,001
1080,7	0
1081,2	-0
1081,6	-0,001
1082	-0,002
1082,4	-0,001
1082,8	-0,003
1083,2	-0,002
1083,6	-0,004
1084	-0,004
1084,5	-0,003
1084,9	-0,003
1085,3	-0,003
1085,7	-0,002
1086,1	-0,002
1086,5	0
1086,9	-0
1087,3	0
1087,7	-0
1088,2	-0,001
1088,6	-0,003
1089	0
1089,4	-0,001
1089,8	-0
1090,2	-0,003
1090,6	-0,001
1091	0
1091,4	-0
1091,9	-0,005
1092,3	-0,005
1092,7	-0,006
1093,1	-0,004
1093,5	-0,004
1093,9	-0,001
1094,3	-0,001
1094,7	0,002
1095,1	0,004
1095,5	0,003
1096	0,004
1096,4	0,004
1096,8	0,008
1097,2	0,004
1097,6	-0,002
1098	-0,007
1098,4	-0,005
1098,8	-0,007
1099,2	-0,011
1099,6	-0,018
1100,1	-0,016
1100,5	-0,011
1100,9	-0,011
1101,3	-0,004
1101,7	-0,01
1102,1	-0,012
1102,5	-0,014
1102,9	-0,013
1103,3	-0,023
1103,7	-0,016
1104,2	-0,029
1104,6	-0,031
1105	-0,034
1105,4	-0,037
1105,8	-0,034
1106,2	-0,029
1106,6	-0,045
1107	-0,059
1107,4	-0,06
1107,8	-0,036
1108,3	-0,06
