Data from Absorbance_00002.txt Node
Date: Wed Aug 02 13:20:14 MSK 2023
User: vat
Spectrometer: MAYP114033
Trigger mode: 0
Integration Time (sec): 8,000000E-3
Scans to average: 10
Electric dark correction enabled: true
Nonlinearity correction enabled: false
Boxcar width: 3
XAxis mode: Wavelengths
Number of Pixels in Spectrum: 2068
>>>>>Begin Spectral Data<<<<<
199,4	-0,508
199,9	-0,148
200,4	0,388
200,8	0,765
201,3	0,888
201,8	0,952
202,2	0,983
202,7	1,024
203,2	1,106
203,6	1,115
204,1	1,119
204,6	1,13
205	1,132
205,5	1,143
206	1,146
206,4	1,145
206,9	1,152
207,4	1,18
207,8	1,204
208,3	1,232
208,8	1,238
209,2	1,262
209,7	1,289
210,2	1,319
210,6	1,325
211,1	1,33
211,5	1,357
212	1,382
212,5	1,397
212,9	1,402
213,4	1,413
213,9	1,428
214,3	1,444
214,8	1,437
215,3	1,45
215,7	1,465
216,2	1,486
216,7	1,49
217,1	1,498
217,6	1,504
218,1	1,529
218,5	1,539
219	1,551
219,5	1,549
219,9	1,587
220,4	1,604
220,9	1,634
221,3	1,633
221,8	1,663
222,3	1,664
222,7	1,711
223,2	1,718
223,6	1,723
224,1	1,727
224,6	1,757
225	1,742
225,5	1,777
226	1,772
226,4	1,774
226,9	1,787
227,4	1,807
227,8	1,816
228,3	1,865
228,8	1,884
229,2	1,906
229,7	1,936
230,2	1,981
230,6	2,006
231,1	2,022
231,5	2,017
232	2,022
232,5	2,03
232,9	2,029
233,4	2,045
233,9	2,047
234,3	2,036
234,8	2,035
235,3	2,026
235,7	2,026
236,2	2,005
236,7	2,009
237,1	2,023
237,6	2,044
238,1	2,076
238,5	2,106
239	2,098
239,4	2,144
239,9	2,128
240,4	2,109
240,8	2,115
241,3	2,105
241,8	2,107
242,2	2,113
242,7	2,112
243,2	2,126
243,6	2,127
244,1	2,129
244,6	2,143
245	2,157
245,5	2,176
245,9	2,165
246,4	2,17
246,9	2,194
247,3	2,204
247,8	2,201
248,3	2,218
248,7	2,199
249,2	2,217
249,7	2,231
250,1	2,231
250,6	2,227
251	2,205
251,5	2,17
252	2,194
252,4	2,201
252,9	2,182
253,4	2,178
253,8	2,179
254,3	2,198
254,8	2,205
255,2	2,225
255,7	2,21
256,1	2,251
256,6	2,269
257,1	2,266
257,5	2,253
258	2,264
258,5	2,226
258,9	2,244
259,4	2,197
259,9	2,191
260,3	2,191
260,8	2,199
261,2	2,209
261,7	2,234
262,2	2,217
262,6	2,251
263,1	2,237
263,6	2,251
264	2,26
264,5	2,236
264,9	2,215
265,4	2,203
265,9	2,183
266,3	2,18
266,8	2,174
267,3	2,175
267,7	2,187
268,2	2,204
268,7	2,216
269,1	2,218
269,6	2,242
270	2,236
270,5	2,246
271	2,222
271,4	2,228
271,9	2,238
272,4	2,253
272,8	2,265
273,3	2,274
273,7	2,248
274,2	2,298
274,7	2,273
275,1	2,293
275,6	2,29
276,1	2,274
276,5	2,275
277	2,284
277,4	2,287
277,9	2,303
278,4	2,319
278,8	2,318
279,3	2,322
279,8	2,348
280,2	2,365
280,7	2,337
281,1	2,385
281,6	2,362
282,1	2,366
282,5	2,366
283	2,337
283,4	2,322
283,9	2,305
284,4	2,274
284,8	2,272
285,3	2,28
285,8	2,26
286,2	2,253
286,7	2,233
287,1	2,204
287,6	2,164
288,1	2,117
288,5	2,084
289	2,045
289,5	2,017
289,9	1,973
290,4	1,933
290,8	1,896
291,3	1,863
291,8	1,816
292,2	1,794
292,7	1,753
293,1	1,732
293,6	1,717
294,1	1,701
294,5	1,687
295	1,677
295,5	1,659
295,9	1,661
296,4	1,659
296,8	1,655
297,3	1,649
297,8	1,64
298,2	1,632
298,7	1,63
299,1	1,625
299,6	1,62
300,1	1,618
300,5	1,616
301	1,618
301,5	1,624
301,9	1,625
302,4	1,621
302,8	1,624
303,3	1,619
303,8	1,621
304,2	1,623
304,7	1,619
305,1	1,618
305,6	1,622
306,1	1,617
306,5	1,618
307	1,61
307,4	1,608
307,9	1,606
308,4	1,604
308,8	1,597
309,3	1,593
309,8	1,591
310,2	1,598
310,7	1,591
311,1	1,588
311,6	1,586
312,1	1,583
312,5	1,579
313	1,573
313,4	1,568
313,9	1,567
314,4	1,568
314,8	1,563
315,3	1,555
315,7	1,552
316,2	1,544
316,7	1,535
317,1	1,526
317,6	1,516
318	1,509
318,5	1,503
319	1,496
319,4	1,491
319,9	1,482
320,3	1,471
320,8	1,467
321,3	1,457
321,7	1,448
322,2	1,433
322,6	1,42
323,1	1,406
323,6	1,397
324	1,378
324,5	1,364
324,9	1,351
325,4	1,34
325,9	1,329
326,3	1,318
326,8	1,305
327,2	1,294
327,7	1,282
328,2	1,268
328,6	1,254
329,1	1,24
329,5	1,226
330	1,213
330,5	1,199
330,9	1,186
331,4	1,175
331,8	1,162
332,3	1,15
332,8	1,136
333,2	1,123
333,7	1,113
334,1	1,099
334,6	1,086
335,1	1,073
335,5	1,062
336	1,05
336,4	1,038
336,9	1,023
337,4	1,011
337,8	0,996
338,3	0,983
338,7	0,969
339,2	0,957
339,7	0,945
340,1	0,932
340,6	0,92
341	0,908
341,5	0,896
342	0,883
342,4	0,87
342,9	0,856
343,3	0,844
343,8	0,832
344,2	0,819
344,7	0,806
345,2	0,795
345,6	0,782
346,1	0,77
346,5	0,758
347	0,745
347,5	0,732
347,9	0,722
348,4	0,708
348,8	0,696
349,3	0,684
349,8	0,671
350,2	0,66
350,7	0,648
351,1	0,635
351,6	0,624
352	0,613
352,5	0,603
353	0,592
353,4	0,58
353,9	0,57
354,3	0,56
354,8	0,55
355,3	0,54
355,7	0,529
356,2	0,52
356,6	0,51
357,1	0,501
357,5	0,492
358	0,483
358,5	0,473
358,9	0,464
359,4	0,455
359,8	0,448
360,3	0,439
360,8	0,43
361,2	0,422
361,7	0,414
362,1	0,407
362,6	0,399
363	0,39
363,5	0,383
364	0,375
364,4	0,368
364,9	0,361
365,3	0,353
365,8	0,346
366,3	0,338
366,7	0,332
367,2	0,326
367,6	0,32
368,1	0,313
368,5	0,308
369	0,302
369,5	0,297
369,9	0,291
370,4	0,285
370,8	0,279
371,3	0,273
371,7	0,267
372,2	0,262
372,7	0,258
373,1	0,252
373,6	0,247
374	0,242
374,5	0,238
374,9	0,233
375,4	0,228
375,9	0,223
376,3	0,218
376,8	0,213
377,2	0,209
377,7	0,205
378,2	0,2
378,6	0,197
379,1	0,193
379,5	0,191
380	0,188
380,4	0,185
380,9	0,181
381,4	0,177
381,8	0,173
382,3	0,17
382,7	0,166
383,2	0,163
383,6	0,16
384,1	0,158
384,6	0,155
385	0,153
385,5	0,15
385,9	0,147
386,4	0,144
386,8	0,141
387,3	0,139
387,7	0,138
388,2	0,135
388,7	0,133
389,1	0,131
389,6	0,13
390	0,128
390,5	0,126
390,9	0,123
391,4	0,121
391,9	0,12
392,3	0,117
392,8	0,115
393,2	0,114
393,7	0,112
394,1	0,11
394,6	0,108
395,1	0,107
395,5	0,107
396	0,106
396,4	0,104
396,9	0,103
397,3	0,102
397,8	0,101
398,2	0,098
398,7	0,097
399,2	0,095
399,6	0,093
400,1	0,093
400,5	0,092
401	0,091
401,4	0,09
401,9	0,088
402,4	0,087
402,8	0,086
403,3	0,084
403,7	0,083
404,2	0,082
404,6	0,081
405,1	0,08
405,5	0,079
406	0,078
406,5	0,077
406,9	0,076
407,4	0,076
407,8	0,075
408,3	0,074
408,7	0,074
409,2	0,073
409,6	0,072
410,1	0,07
410,6	0,069
411	0,068
411,5	0,067
411,9	0,066
412,4	0,065
412,8	0,064
413,3	0,064
413,7	0,063
414,2	0,062
414,7	0,061
415,1	0,06
415,6	0,06
416	0,059
416,5	0,059
416,9	0,057
417,4	0,056
417,8	0,055
418,3	0,054
418,8	0,052
419,2	0,051
419,7	0,05
420,1	0,05
420,6	0,049
421	0,048
421,5	0,048
421,9	0,047
422,4	0,046
422,8	0,046
423,3	0,045
423,8	0,045
424,2	0,044
424,7	0,044
425,1	0,043
425,6	0,043
426	0,042
426,5	0,04
426,9	0,04
427,4	0,041
427,9	0,04
428,3	0,039
428,8	0,039
429,2	0,038
429,7	0,039
430,1	0,037
430,6	0,036
431	0,036
431,5	0,035
431,9	0,034
432,4	0,034
432,8	0,033
433,3	0,032
433,8	0,031
434,2	0,03
434,7	0,03
435,1	0,029
435,6	0,028
436	0,027
436,5	0,027
436,9	0,027
437,4	0,027
437,8	0,026
438,3	0,026
438,8	0,026
439,2	0,026
439,7	0,025
440,1	0,025
440,6	0,024
441	0,024
441,5	0,023
441,9	0,023
442,4	0,023
442,8	0,022
443,3	0,021
443,7	0,022
444,2	0,022
444,7	0,021
445,1	0,021
445,6	0,02
446	0,02
446,5	0,021
446,9	0,02
447,4	0,02
447,8	0,02
448,3	0,019
448,7	0,018
449,2	0,018
449,6	0,017
450,1	0,016
450,6	0,016
451	0,016
451,5	0,016
451,9	0,016
452,4	0,016
452,8	0,016
453,3	0,017
453,7	0,017
454,2	0,017
454,6	0,017
455,1	0,016
455,5	0,016
456	0,015
456,4	0,015
456,9	0,014
457,3	0,014
457,8	0,014
458,3	0,013
458,7	0,013
459,2	0,013
459,6	0,013
460,1	0,013
460,5	0,013
461	0,012
461,4	0,012
461,9	0,012
462,3	0,012
462,8	0,011
463,2	0,011
463,7	0,01
464,1	0,011
464,6	0,011
465	0,01
465,5	0,011
466	0,011
466,4	0,01
466,9	0,01
467,3	0,009
467,8	0,009
468,2	0,009
468,7	0,009
469,1	0,008
469,6	0,009
470	0,01
470,5	0,01
470,9	0,011
471,4	0,01
471,8	0,01
472,3	0,01
472,7	0,01
473,2	0,008
473,6	0,008
474,1	0,007
474,5	0,008
475	0,008
475,4	0,007
475,9	0,007
476,4	0,007
476,8	0,007
477,3	0,007
477,7	0,007
478,2	0,007
478,6	0,008
479,1	0,007
479,5	0,008
480	0,007
480,4	0,007
480,9	0,007
481,3	0,006
481,8	0,004
482,2	0,004
482,7	0,005
483,1	0,005
483,6	0,005
484	0,005
484,5	0,005
484,9	0,006
485,4	0,006
485,8	0,006
486,3	0,007
486,7	0,006
487,2	0,006
487,6	0,006
488,1	0,006
488,5	0,005
489	0,005
489,4	0,004
489,9	0,005
490,4	0,005
490,8	0,005
491,3	0,005
491,7	0,005
492,2	0,006
492,6	0,006
493,1	0,005
493,5	0,005
494	0,005
494,4	0,005
494,9	0,005
495,3	0,006
495,8	0,005
496,2	0,005
496,7	0,005
497,1	0,004
497,6	0,004
498	0,004
498,5	0,003
498,9	0,003
499,4	0,003
499,8	0,003
500,3	0,003
500,7	0,003
501,2	0,003
501,6	0,003
502,1	0,004
502,5	0,004
503	0,003
503,4	0,004
503,9	0,004
504,3	0,004
504,8	0,004
505,2	0,004
505,7	0,003
506,1	0,004
506,6	0,004
507	0,004
507,5	0,003
507,9	0,003
508,4	0,003
508,8	0,003
509,3	0,002
509,7	0,002
510,2	0,001
510,6	0,002
511,1	0,002
511,5	0,002
512	0,002
512,4	0,002
512,9	0,002
513,3	0,002
513,8	0,002
514,2	0,002
514,7	0,003
515,1	0,003
515,6	0,003
516	0,002
516,5	0,002
516,9	0,002
517,4	0,001
517,8	0,001
518,3	0,001
518,7	0,001
519,2	0,001
519,6	0,002
520,1	0,002
520,5	0,002
521	0,002
521,4	0,003
521,9	0,002
522,3	0,002
522,8	0,001
523,2	0,001
523,7	0,001
524,1	0
524,6	-0
525	-0,001
525,5	0
525,9	0
526,4	0
526,8	0
527,3	0,001
527,7	0,001
528,2	0,001
528,6	0,002
529,1	0,003
529,5	0,002
530	0,002
530,4	0,002
530,9	0,002
531,3	0,001
531,8	0,001
532,2	0
532,6	0
533,1	-0
533,5	-0
534	-0,001
534,4	0
534,9	0
535,3	0
535,8	-0
536,2	-0,001
536,7	-0
537,1	-0
537,6	-0
538	-0,001
538,5	-0,001
538,9	-0,001
539,4	-0
539,8	-0,001
540,3	-0
540,7	-0
541,2	0
541,6	0,001
542,1	0,001
542,5	0,001
543	0
543,4	-0
543,9	-0
544,3	-0
544,8	0
545,2	-0
545,7	-0
546,1	-0
546,5	0
547	-0
547,4	-0,001
547,9	-0,001
548,3	-0,001
548,8	-0
549,2	0
549,7	-0,001
550,1	-0
550,6	-0
551	-0,001
551,5	-0,001
551,9	-0,001
552,4	-0,002
552,8	-0,001
553,3	-0,001
553,7	-0,001
554,2	-0,001
554,6	-0,001
555,1	-0
555,5	0
555,9	0
556,4	-0
556,8	-0
557,3	-0
557,7	-0
558,2	-0
558,6	0
559,1	0
559,5	0,001
560	0
560,4	0
560,9	-0,001
561,3	-0,001
561,8	-0,001
562,2	-0,001
562,7	-0,001
563,1	-0,001
563,6	-0,001
564	-0
564,4	0
564,9	-0
565,3	0
565,8	-0
566,2	-0,001
566,7	-0,001
567,1	-0,001
567,6	-0,001
568	-0,001
568,5	-0,001
568,9	-0
569,4	0
569,8	0
570,3	0
570,7	0
571,1	0
571,6	0
572	0
572,5	0
572,9	-0
573,4	0
573,8	-0
574,3	-0
574,7	-0
575,2	-0,001
575,6	-0,001
576,1	-0,001
576,5	-0,001
576,9	-0
577,4	-0
577,8	-0
578,3	-0
578,7	-0
579,2	-0
579,6	-0
580,1	-0,001
580,5	-0,001
581	-0,001
581,4	-0,001
581,9	-0,001
582,3	-0,001
582,7	-0,001
583,2	-0,001
583,6	-0,001
584,1	-0,001
584,5	-0,001
585	-0,001
585,4	-0,001
585,9	-0,001
586,3	-0
586,8	-0
587,2	-0
587,6	-0
588,1	-0,001
588,5	-0,001
589	-0,001
589,4	-0,001
589,9	-0,001
590,3	-0,001
590,8	-0,001
591,2	-0,001
591,7	-0,001
592,1	-0,001
592,5	-0,001
593	-0,001
593,4	-0,001
593,9	-0
594,3	-0
594,8	-0
595,2	-0,001
595,7	-0,001
596,1	-0,001
596,6	-0,001
597	-0,001
597,4	-0,001
597,9	-0,002
598,3	-0,001
598,8	-0,002
599,2	-0,002
599,7	-0,002
600,1	-0,002
600,6	-0,002
601	-0,002
601,4	-0,002
601,9	-0,001
602,3	-0,001
602,8	-0,001
603,2	-0,001
603,7	-0,001
604,1	-0,001
604,6	-0,001
605	-0,001
605,4	-0,001
605,9	-0,001
606,3	-0,002
606,8	-0,002
607,2	-0,002
607,7	-0,002
608,1	-0,002
608,6	-0,001
609	-0,001
609,4	-0,001
609,9	-0,001
610,3	-0
610,8	-0,001
611,2	-0,001
611,7	-0,001
612,1	-0,001
612,6	-0,001
613	-0,001
613,4	-0,001
613,9	-0,001
614,3	-0,001
614,8	-0,001
615,2	-0,001
615,7	-0,001
616,1	-0,001
616,6	-0,001
617	-0,002
617,4	-0,002
617,9	-0,002
618,3	-0,002
618,8	-0,002
619,2	-0,001
619,7	-0,001
620,1	-0,001
620,5	-0,002
621	-0,001
621,4	-0
621,9	-0
622,3	-0
622,8	-0
623,2	-0
623,6	-0
624,1	-0,001
624,5	-0,001
625	-0,002
625,4	-0,002
625,9	-0,002
626,3	-0,002
626,8	-0,002
627,2	-0,001
627,6	-0,001
628,1	-0,001
628,5	-0
629	-0,001
629,4	-0,001
629,9	-0,001
630,3	-0,001
630,7	-0
631,2	-0
631,6	-0,001
632,1	-0,001
632,5	-0,001
633	-0,001
633,4	-0,001
633,8	-0,001
634,3	-0,002
634,7	-0,002
635,2	-0,001
635,6	-0,001
636,1	-0,002
636,5	-0,002
636,9	-0,002
637,4	-0,002
637,8	-0,002
638,3	-0,002
638,7	-0,003
639,2	-0,002
639,6	-0,002
640	-0,001
640,5	-0,001
640,9	-0,001
641,4	-0,001
641,8	-0,001
642,2	-0,002
642,7	-0,002
643,1	-0,002
643,6	-0,002
644	-0,002
644,5	-0,002
644,9	-0,002
645,3	-0,002
645,8	-0,002
646,2	-0,002
646,7	-0,002
647,1	-0,002
647,6	-0,002
648	-0,002
648,4	-0,002
648,9	-0,001
649,3	-0,002
649,8	-0,001
650,2	-0,002
650,6	-0,001
651,1	-0,001
651,5	-0,001
652	-0,001
652,4	-0,001
652,9	-0,002
653,3	-0,001
653,7	-0,002
654,2	-0,002
654,6	-0,002
655,1	-0,002
655,5	-0,001
655,9	-0,001
656,4	-0,001
656,8	-0,001
657,3	-0,001
657,7	-0,001
658,2	-0,001
658,6	-0,001
659	-0,002
659,5	-0,003
659,9	-0,001
660,4	-0,001
660,8	-0,001
661,2	-0,002
661,7	-0,002
662,1	-0,002
662,6	-0,002
663	-0,002
663,4	-0,002
663,9	-0,002
664,3	-0,002
664,8	-0,002
665,2	-0,002
665,6	-0,002
666,1	-0,002
666,5	-0,001
667	-0,001
667,4	-0,001
667,9	-0,001
668,3	-0,002
668,7	-0,002
669,2	-0,002
669,6	-0,001
670,1	-0,002
670,5	-0,001
670,9	-0,002
671,4	-0,001
671,8	-0,001
672,3	-0,001
672,7	-0,001
673,1	-0,001
673,6	-0,001
674	-0,002
674,5	-0,002
674,9	-0,002
675,3	-0,002
675,8	-0,002
676,2	-0,002
676,7	-0,002
677,1	-0,002
677,5	-0,002
678	-0,002
678,4	-0,002
678,9	-0,002
679,3	-0,002
679,7	-0,002
680,2	-0,002
680,6	-0,002
681,1	-0,002
681,5	-0,002
681,9	-0,002
682,4	-0,002
682,8	-0,002
683,3	-0,002
683,7	-0,002
684,1	-0,001
684,6	-0,001
685	-0,001
685,5	-0,001
685,9	-0,002
686,3	-0,002
686,8	-0,002
687,2	-0,002
687,7	-0,003
688,1	-0,003
688,5	-0,003
689	-0,003
689,4	-0,003
689,9	-0,002
690,3	-0,002
690,7	-0,002
691,2	-0,002
691,6	-0,002
692	-0,002
692,5	-0,002
692,9	-0,002
693,4	-0,003
693,8	-0,003
694,2	-0,003
694,7	-0,002
695,1	-0,002
695,6	-0,002
696	-0,002
696,4	-0,001
696,9	-0,001
697,3	-0,001
697,8	-0,001
698,2	-0,001
698,6	-0,001
699,1	-0,001
699,5	-0,002
699,9	-0,001
700,4	-0,001
700,8	-0,002
701,3	-0,002
701,7	-0,002
702,1	-0,002
702,6	-0,001
703	-0,002
703,5	-0,002
703,9	-0,002
704,3	-0,002
704,8	-0,002
705,2	-0,002
705,6	-0,002
706,1	-0,002
706,5	-0,003
707	-0,003
707,4	-0,003
707,8	-0,003
708,3	-0,003
708,7	-0,003
709,2	-0,002
709,6	-0,002
710	-0,001
710,5	-0,001
710,9	-0,001
711,3	-0,001
711,8	-0,001
712,2	-0,001
712,7	-0,001
713,1	-0,001
713,5	-0,001
714	-0,001
714,4	-0,002
714,8	-0,002
715,3	-0,002
715,7	-0,001
716,2	-0,001
716,6	-0,001
717	-0,001
717,5	-0,001
717,9	-0,001
718,3	-0,001
718,8	-0,001
719,2	-0,001
719,7	-0,002
720,1	-0,002
720,5	-0,002
721	-0,002
721,4	-0,002
721,8	-0,002
722,3	-0,001
722,7	-0,002
723,2	-0,001
723,6	-0,002
724	-0,002
724,5	-0,002
724,9	-0,002
725,3	-0,001
725,8	-0,002
726,2	-0,002
726,7	-0,001
727,1	-0,001
727,5	-0,001
728	-0,001
728,4	-0,002
728,8	-0,001
729,3	-0,001
729,7	-0,001
730,1	-0,001
730,6	-0,001
731	-0,002
731,5	-0,002
731,9	-0,002
732,3	-0,002
732,8	-0,002
733,2	-0,002
733,6	-0,002
734,1	-0,002
734,5	-0,002
734,9	-0,002
735,4	-0,002
735,8	-0,002
736,3	-0,002
736,7	-0,002
737,1	-0,002
737,6	-0,002
738	-0,002
738,4	-0,002
738,9	-0,002
739,3	-0,002
739,7	-0,002
740,2	-0,002
740,6	-0,001
741,1	-0,001
741,5	-0,001
741,9	-0,001
742,4	-0,001
742,8	-0,001
743,2	-0,001
743,7	-0,001
744,1	-0,002
744,5	-0,002
745	-0,001
745,4	-0,001
745,8	-0,001
746,3	-0,001
746,7	-0,002
747,2	-0,002
747,6	-0,002
748	-0,002
748,5	-0,003
748,9	-0,003
749,3	-0,003
749,8	-0,002
750,2	-0,002
750,6	-0,002
751,1	-0,002
751,5	-0,002
751,9	-0,002
752,4	-0,002
752,8	-0,002
753,3	-0,002
753,7	-0,003
754,1	-0,002
754,6	-0,002
755	-0,002
755,4	-0,002
755,9	-0,002
756,3	-0,002
756,7	-0,002
757,2	-0,002
757,6	-0,002
758	-0,002
758,5	-0,002
758,9	-0,002
759,3	-0,002
759,8	-0,002
760,2	-0,001
760,6	-0,001
761,1	-0,001
761,5	-0,002
761,9	-0,002
762,4	-0,002
762,8	-0,002
763,3	-0,002
763,7	-0,002
764,1	-0,002
764,6	-0,002
765	-0,001
765,4	-0,002
765,9	-0,002
766,3	-0,002
766,7	-0,002
767,2	-0,001
767,6	-0,001
768	-0,002
768,5	-0,001
768,9	-0,001
769,3	-0,001
769,8	-0,001
770,2	-0,001
770,6	-0,001
771,1	-0,001
771,5	-0,001
771,9	-0,001
772,4	-0,001
772,8	-0,001
773,2	-0,002
773,7	-0,002
774,1	-0,002
774,5	-0,002
775	-0,003
775,4	-0,003
775,8	-0,002
776,3	-0,002
776,7	-0,002
777,1	-0,002
777,6	-0,001
778	-0,002
778,4	-0,001
778,9	-0,001
779,3	-0,001
779,7	-0,001
780,2	-0,002
780,6	-0,002
781	-0,002
781,5	-0,002
781,9	-0,002
782,3	-0,002
782,8	-0,002
783,2	-0,001
783,6	-0,002
784,1	-0,002
784,5	-0,001
784,9	-0,001
785,4	-0,001
785,8	-0,001
786,2	-0,001
786,7	-0,001
787,1	-0,001
787,5	-0,001
788	-0,002
788,4	-0,002
788,8	-0,002
789,3	-0,002
789,7	-0,002
790,1	-0,002
790,6	-0,001
791	-0,001
791,4	-0,001
791,9	-0,001
792,3	-0,001
792,7	-0,001
793,2	-0,001
793,6	-0,001
794	-0,001
794,5	-0,001
794,9	-0,001
795,3	-0,001
795,8	-0,001
796,2	-0,001
796,6	-0,001
797,1	-0,001
797,5	-0,001
797,9	-0,001
798,4	-0,001
798,8	-0,001
799,2	-0,001
799,7	-0,001
800,1	-0,001
800,5	-0,001
801	-0,001
801,4	-0,002
801,8	-0,002
802,2	-0,002
802,7	-0,002
803,1	-0,002
803,5	-0,002
804	-0,002
804,4	-0,002
804,8	-0,002
805,3	-0,002
805,7	-0,002
806,1	-0,001
806,6	-0,001
807	-0,001
807,4	-0,001
807,9	-0,001
808,3	-0,001
808,7	-0,001
809,2	-0,001
809,6	-0,001
810	-0,001
810,4	-0,001
810,9	-0,001
811,3	-0,002
811,7	-0,002
812,2	-0,002
812,6	-0,002
813	-0,002
813,5	-0,003
813,9	-0,003
814,3	-0,002
814,8	-0,002
815,2	-0,002
815,6	-0,002
816,1	-0,002
816,5	-0,002
816,9	-0,002
817,3	-0,002
817,8	-0,002
818,2	-0,002
818,6	-0,002
819,1	-0,002
819,5	-0,002
819,9	-0,002
820,4	-0,002
820,8	-0,002
821,2	-0,002
821,7	-0,001
822,1	-0,001
822,5	-0,001
822,9	-0,001
823,4	-0,001
823,8	-0,001
824,2	-0,001
824,7	-0,001
825,1	-0,001
825,5	-0,001
826	-0,001
826,4	-0,001
826,8	-0,001
827,3	-0,001
827,7	-0,001
828,1	-0,002
828,5	-0,002
829	-0,002
829,4	-0,002
829,8	-0,002
830,3	-0,003
830,7	-0,003
831,1	-0,003
831,6	-0,003
832	-0,003
832,4	-0,003
832,8	-0,003
833,3	-0,003
833,7	-0,003
834,1	-0,002
834,6	-0,002
835	-0,002
835,4	-0,002
835,8	-0,002
836,3	-0,002
836,7	-0,002
837,1	-0,002
837,6	-0,001
838	-0,001
838,4	-0,001
838,9	-0,002
839,3	-0,002
839,7	-0,002
840,1	-0,002
840,6	-0,002
841	-0,002
841,4	-0,002
841,9	-0,002
842,3	-0,002
842,7	-0,002
843,1	-0,002
843,6	-0,002
844	-0,002
844,4	-0,002
844,9	-0,002
845,3	-0,002
845,7	-0,003
846,2	-0,003
846,6	-0,002
847	-0,002
847,4	-0,003
847,9	-0,002
848,3	-0,002
848,7	-0,002
849,2	-0,002
849,6	-0,002
850	-0,002
850,4	-0,002
850,9	-0,002
851,3	-0,002
851,7	-0,002
852,2	-0,002
852,6	-0,002
853	-0,003
853,4	-0,002
853,9	-0,002
854,3	-0,002
854,7	-0,002
855,2	-0,002
855,6	-0,002
856	-0,002
856,4	-0,002
856,9	-0,002
857,3	-0,001
857,7	-0,002
858,2	-0,002
858,6	-0,002
859	-0,002
859,4	-0,002
859,9	-0,002
860,3	-0,001
860,7	-0,001
861,1	-0,001
861,6	-0,001
862	-0,001
862,4	-0,001
862,9	-0,001
863,3	-0,001
863,7	-0,001
864,1	-0,002
864,6	-0,002
865	-0,002
865,4	-0,003
865,9	-0,002
866,3	-0,002
866,7	-0,002
867,1	-0,002
867,6	-0,001
868	-0,002
868,4	-0,001
868,8	-0,001
869,3	-0,001
869,7	-0,001
870,1	-0,001
870,6	-0,001
871	-0,002
871,4	-0,002
871,8	-0,002
872,3	-0,002
872,7	-0,003
873,1	-0,003
873,5	-0,003
874	-0,003
874,4	-0,003
874,8	-0,003
875,3	-0,003
875,7	-0,003
876,1	-0,003
876,5	-0,003
877	-0,002
877,4	-0,002
877,8	-0,002
878,2	-0,002
878,7	-0,002
879,1	-0,002
879,5	-0,002
879,9	-0,003
880,4	-0,002
880,8	-0,002
881,2	-0,002
881,7	-0,002
882,1	-0,001
882,5	-0,001
882,9	-0,001
883,4	-0,002
883,8	-0,002
884,2	-0,002
884,6	-0,002
885,1	-0,002
885,5	-0,002
885,9	-0,002
886,3	-0,002
886,8	-0,002
887,2	-0,002
887,6	-0,002
888	-0,002
888,5	-0,002
888,9	-0,002
889,3	-0,002
889,8	-0,003
890,2	-0,002
890,6	-0,002
891	-0,002
891,5	-0,002
891,9	-0,002
892,3	-0,002
892,7	-0,002
893,2	-0,002
893,6	-0,002
894	-0,002
894,4	-0,002
894,9	-0,002
895,3	-0,003
895,7	-0,003
896,1	-0,003
896,6	-0,002
897	-0,002
897,4	-0,002
897,8	-0,002
898,3	-0,002
898,7	-0,002
899,1	-0,002
899,5	-0,002
900	-0,002
900,4	-0,002
900,8	-0,002
901,2	-0,002
901,7	-0,002
902,1	-0,002
902,5	-0,001
902,9	-0,002
903,4	-0,001
903,8	-0,001
904,2	-0,002
904,6	-0,002
905,1	-0,002
905,5	-0,002
905,9	-0,002
906,3	-0,002
906,8	-0,002
907,2	-0,002
907,6	-0,002
908	-0,002
908,5	-0,002
908,9	-0,002
909,3	-0,002
909,7	-0,002
910,2	-0,002
910,6	-0,002
911	-0,002
911,4	-0,002
911,9	-0,002
912,3	-0,002
912,7	-0,002
913,1	-0,002
913,6	-0,002
914	-0,002
914,4	-0,002
914,8	-0,002
915,3	-0,002
915,7	-0,002
916,1	-0,002
916,5	-0,002
916,9	-0,002
917,4	-0,002
917,8	-0,002
918,2	-0,002
918,6	-0,002
919,1	-0,002
919,5	-0,002
919,9	-0,003
920,3	-0,003
920,8	-0,004
921,2	-0,004
921,6	-0,004
922	-0,004
922,5	-0,004
922,9	-0,004
923,3	-0,004
923,7	-0,003
924,2	-0,003
924,6	-0,004
925	-0,004
925,4	-0,003
925,8	-0,003
926,3	-0,003
926,7	-0,003
927,1	-0,003
927,5	-0,003
928	-0,003
928,4	-0,003
928,8	-0,003
929,2	-0,003
929,7	-0,004
930,1	-0,003
930,5	-0,004
930,9	-0,004
931,3	-0,004
931,8	-0,004
932,2	-0,004
932,6	-0,004
933	-0,004
933,5	-0,004
933,9	-0,004
934,3	-0,004
934,7	-0,005
935,2	-0,005
935,6	-0,005
936	-0,004
936,4	-0,004
936,8	-0,004
937,3	-0,004
937,7	-0,004
938,1	-0,004
938,5	-0,004
939	-0,004
939,4	-0,004
939,8	-0,004
940,2	-0,004
940,6	-0,004
941,1	-0,004
941,5	-0,004
941,9	-0,003
942,3	-0,003
942,8	-0,003
943,2	-0,003
943,6	-0,003
944	-0,004
944,4	-0,004
944,9	-0,005
945,3	-0,005
945,7	-0,005
946,1	-0,005
946,6	-0,005
947	-0,005
947,4	-0,005
947,8	-0,005
948,2	-0,005
948,7	-0,005
949,1	-0,006
949,5	-0,006
949,9	-0,007
950,3	-0,007
950,8	-0,008
951,2	-0,007
951,6	-0,007
952	-0,007
952,5	-0,007
952,9	-0,007
953,3	-0,007
953,7	-0,007
954,1	-0,008
954,6	-0,008
955	-0,008
955,4	-0,009
955,8	-0,01
956,2	-0,009
956,7	-0,009
957,1	-0,009
957,5	-0,01
957,9	-0,01
958,3	-0,01
958,8	-0,01
959,2	-0,01
959,6	-0,011
960	-0,011
960,5	-0,011
960,9	-0,011
961,3	-0,011
961,7	-0,011
962,1	-0,012
962,6	-0,011
963	-0,011
963,4	-0,01
963,8	-0,01
964,2	-0,01
964,7	-0,01
965,1	-0,01
965,5	-0,01
965,9	-0,01
966,3	-0,011
966,8	-0,011
967,2	-0,01
967,6	-0,01
968	-0,01
968,4	-0,009
968,9	-0,01
969,3	-0,009
969,7	-0,008
970,1	-0,008
970,5	-0,008
971	-0,008
971,4	-0,008
971,8	-0,008
972,2	-0,008
972,6	-0,008
973,1	-0,009
973,5	-0,009
973,9	-0,009
974,3	-0,009
974,7	-0,009
975,2	-0,009
975,6	-0,009
976	-0,008
976,4	-0,007
976,8	-0,007
977,3	-0,006
977,7	-0,006
978,1	-0,007
978,5	-0,006
978,9	-0,007
979,4	-0,007
979,8	-0,007
980,2	-0,007
980,6	-0,008
981	-0,007
981,5	-0,007
981,9	-0,008
982,3	-0,007
982,7	-0,008
983,1	-0,008
983,6	-0,007
984	-0,007
984,4	-0,007
984,8	-0,007
985,2	-0,007
985,6	-0,007
986,1	-0,006
986,5	-0,006
986,9	-0,006
987,3	-0,006
987,7	-0,006
988,2	-0,005
988,6	-0,005
989	-0,005
989,4	-0,006
989,8	-0,007
990,3	-0,006
990,7	-0,006
991,1	-0,006
991,5	-0,006
991,9	-0,006
992,3	-0,005
992,8	-0,005
993,2	-0,004
993,6	-0,004
994	-0,004
994,4	-0,004
994,9	-0,004
995,3	-0,004
995,7	-0,004
996,1	-0,004
996,5	-0,004
996,9	-0,004
997,4	-0,004
997,8	-0,004
998,2	-0,004
998,6	-0,004
999	-0,004
999,5	-0,004
999,9	-0,004
1000,3	-0,004
1000,7	-0,004
1001,1	-0,005
1001,5	-0,005
1002	-0,005
1002,4	-0,005
1002,8	-0,004
1003,2	-0,004
1003,6	-0,004
1004	-0,003
1004,5	-0,003
1004,9	-0,002
1005,3	-0,002
1005,7	-0,001
1006,1	-0,002
1006,6	-0,001
1007	-0,002
1007,4	-0,001
1007,8	-0,002
1008,2	-0,001
1008,6	-0,001
1009,1	-0,001
1009,5	-0,001
1009,9	-0,001
1010,3	-0,001
1010,7	-0
1011,1	-0
1011,6	-0
1012	-0,001
1012,4	-0,001
1012,8	-0
1013,2	-0
1013,6	-0,001
1014,1	-0,001
1014,5	-0,002
1014,9	-0,002
1015,3	-0,002
1015,7	-0,002
1016,1	-0,001
1016,6	-0,001
1017	-0,001
1017,4	-0,001
1017,8	-0,001
1018,2	-0
1018,6	-0
1019,1	-0
1019,5	-0
1019,9	0
1020,3	0,001
1020,7	0,001
1021,1	0
1021,6	0,001
1022	0,001
1022,4	0,001
1022,8	0
1023,2	0,001
1023,6	0,001
1024,1	0,002
1024,5	0,001
1024,9	0,001
1025,3	0,001
1025,7	0,001
1026,1	0
1026,6	0
1027	-0,001
1027,4	-0
1027,8	0
1028,2	0
1028,6	0,001
1029	0,001
1029,5	0,002
1029,9	0,002
1030,3	0,002
1030,7	0,002
1031,1	0,001
1031,5	0,001
1032	0
1032,4	0
1032,8	-0
1033,2	-0,001
1033,6	-0
1034	-0
1034,4	-0,001
1034,9	-0,001
1035,3	-0,001
1035,7	-0,002
1036,1	-0,001
1036,5	-0,001
1036,9	-0,001
1037,4	-0
1037,8	-0
1038,2	0,001
1038,6	0,001
1039	0,001
1039,4	0,001
1039,8	0,001
1040,3	-0
1040,7	-0,001
1041,1	-0,001
1041,5	-0
1041,9	-0
1042,3	-0,001
1042,7	-0
1043,2	-0
1043,6	0
1044	-0
1044,4	-0,001
1044,8	-0,001
1045,2	-0,001
1045,6	-0
1046,1	-0
1046,5	0
1046,9	-0
1047,3	0,001
1047,7	0,001
1048,1	0,001
1048,5	0,001
1049	0,002
1049,4	0,001
1049,8	0
1050,2	-0,001
1050,6	-0,001
1051	-0,001
1051,4	-0,001
1051,9	-0,001
1052,3	-0
1052,7	0,001
1053,1	0,001
1053,5	0,001
1053,9	0,001
1054,3	0,002
1054,8	0,002
1055,2	0,002
1055,6	0,002
1056	0,002
1056,4	0,002
1056,8	0,002
1057,2	0,001
1057,6	0,001
1058,1	-0
1058,5	-0
1058,9	0
1059,3	0,001
1059,7	0,001
1060,1	0
1060,5	0,001
1061	0,001
1061,4	0,001
1061,8	0
1062,2	-0
1062,6	-0
1063	0,001
1063,4	0,001
1063,8	0,001
1064,3	0,001
1064,7	0,001
1065,1	0,002
1065,5	0,001
1065,9	0,001
1066,3	0,001
1066,7	0
1067,1	0,001
1067,6	0,001
1068	0,001
1068,4	0,002
1068,8	0,003
1069,2	0,002
1069,6	0,002
1070	0,002
1070,4	0,002
1070,9	0,002
1071,3	0,002
1071,7	0,001
1072,1	0,001
1072,5	0,001
1072,9	0,002
1073,3	0,002
1073,7	0,002
1074,2	0,002
1074,6	0,002
1075	0,002
1075,4	0,002
1075,8	0,002
1076,2	0,002
1076,6	0,001
1077	0
1077,5	0
1077,9	0
1078,3	-0
1078,7	-0
1079,1	0,001
1079,5	-0
1079,9	0,002
1080,3	0,002
1080,7	0,002
1081,2	0,002
1081,6	0,002
1082	-0
1082,4	0,001
1082,8	-0,001
1083,2	-0,001
1083,6	-0
1084	-0,001
1084,5	-0,002
1084,9	-0,002
1085,3	-0,004
1085,7	-0,001
1086,1	-0
1086,5	-0
1086,9	0,001
1087,3	0,002
1087,7	0,002
1088,2	0,003
1088,6	0,002
1089	0,002
1089,4	0,002
1089,8	0
1090,2	-0,003
1090,6	-0,003
1091	-0,003
1091,4	-0,005
1091,9	-0,006
1092,3	-0,004
1092,7	-0,004
1093,1	0,001
1093,5	0,001
1093,9	0,002
1094,3	0,004
1094,7	0,002
1095,1	0,003
1095,5	-0,001
1096	-0,004
1096,4	-0,002
1096,8	0,001
1097,2	-0,003
1097,6	-0,005
1098	-0,007
1098,4	0,001
1098,8	-0,002
1099,2	-0,008
1099,6	-0,018
1100,1	-0,011
1100,5	-0,008
1100,9	-0,005
1101,3	0,005
1101,7	0,004
1102,1	0,008
1102,5	0,015
1102,9	0,006
1103,3	0,008
1103,7	-0,004
1104,2	-0,019
1104,6	-0,018
1105	-0,018
1105,4	-0,019
1105,8	-0,005
1106,2	-0,006
1106,6	-0,007
1107	-0,025
1107,4	-0,012
1107,8	-0,001
1108,3	0
