Data from Absorbance_00032.txt Node
Date: Wed Aug 02 14:18:36 MSK 2023
User: vat
Spectrometer: MAYP114033
Trigger mode: 0
Integration Time (sec): 8,000000E-3
Scans to average: 10
Electric dark correction enabled: true
Nonlinearity correction enabled: false
Boxcar width: 3
XAxis mode: Wavelengths
Number of Pixels in Spectrum: 2068
>>>>>Begin Spectral Data<<<<<
199,4	-0,438
199,9	-0,121
200,4	0,262
200,8	0,665
201,3	0,817
201,8	0,88
202,2	0,927
202,7	0,959
203,2	1,043
203,6	1,078
204,1	1,086
204,6	1,11
205	1,118
205,5	1,132
206	1,147
206,4	1,13
206,9	1,145
207,4	1,166
207,8	1,182
208,3	1,207
208,8	1,193
209,2	1,204
209,7	1,239
210,2	1,249
210,6	1,258
211,1	1,27
211,5	1,295
212	1,335
212,5	1,358
212,9	1,36
213,4	1,377
213,9	1,4
214,3	1,409
214,8	1,382
215,3	1,377
215,7	1,392
216,2	1,416
216,7	1,424
217,1	1,442
217,6	1,455
218,1	1,495
218,5	1,525
219	1,532
219,5	1,54
219,9	1,577
220,4	1,591
220,9	1,601
221,3	1,598
221,8	1,618
222,3	1,633
222,7	1,669
223,2	1,665
223,6	1,675
224,1	1,695
224,6	1,716
225	1,708
225,5	1,72
226	1,724
226,4	1,747
226,9	1,747
227,4	1,778
227,8	1,781
228,3	1,828
228,8	1,857
229,2	1,868
229,7	1,891
230,2	1,922
230,6	1,924
231,1	1,941
231,5	1,938
232	1,951
232,5	1,947
232,9	1,942
233,4	1,964
233,9	1,97
234,3	1,985
234,8	1,985
235,3	1,969
235,7	1,984
236,2	2,004
236,7	2,001
237,1	1,995
237,6	2,034
238,1	2,073
238,5	2,096
239	2,096
239,4	2,083
239,9	2,072
240,4	2,088
240,8	2,079
241,3	2,068
241,8	2,067
242,2	2,071
242,7	2,091
243,2	2,11
243,6	2,104
244,1	2,083
244,6	2,095
245	2,125
245,5	2,138
245,9	2,115
246,4	2,109
246,9	2,127
247,3	2,156
247,8	2,155
248,3	2,142
248,7	2,135
249,2	2,173
249,7	2,191
250,1	2,177
250,6	2,178
251	2,166
251,5	2,149
252	2,148
252,4	2,129
252,9	2,115
253,4	2,127
253,8	2,142
254,3	2,159
254,8	2,184
255,2	2,216
255,7	2,213
256,1	2,237
256,6	2,237
257,1	2,227
257,5	2,198
258	2,188
258,5	2,159
258,9	2,174
259,4	2,156
259,9	2,165
260,3	2,161
260,8	2,183
261,2	2,19
261,7	2,209
262,2	2,208
262,6	2,236
263,1	2,218
263,6	2,214
264	2,216
264,5	2,215
264,9	2,211
265,4	2,207
265,9	2,196
266,3	2,22
266,8	2,217
267,3	2,209
267,7	2,229
268,2	2,244
268,7	2,237
269,1	2,242
269,6	2,227
270	2,219
270,5	2,235
271	2,202
271,4	2,187
271,9	2,205
272,4	2,202
272,8	2,217
273,3	2,245
273,7	2,221
274,2	2,245
274,7	2,24
275,1	2,243
275,6	2,248
276,1	2,235
276,5	2,226
277	2,221
277,4	2,237
277,9	2,245
278,4	2,257
278,8	2,251
279,3	2,28
279,8	2,294
280,2	2,302
280,7	2,272
281,1	2,296
281,6	2,282
282,1	2,295
282,5	2,273
283	2,263
283,4	2,29
283,9	2,281
284,4	2,273
284,8	2,279
285,3	2,296
285,8	2,306
286,2	2,314
286,7	2,306
287,1	2,324
287,6	2,321
288,1	2,327
288,5	2,321
289	2,308
289,5	2,306
289,9	2,294
290,4	2,289
290,8	2,304
291,3	2,291
291,8	2,267
292,2	2,278
292,7	2,26
293,1	2,264
293,6	2,251
294,1	2,22
294,5	2,215
295	2,22
295,5	2,193
295,9	2,203
296,4	2,21
296,8	2,211
297,3	2,222
297,8	2,22
298,2	2,211
298,7	2,236
299,1	2,232
299,6	2,236
300,1	2,249
300,5	2,255
301	2,27
301,5	2,281
301,9	2,279
302,4	2,287
302,8	2,302
303,3	2,303
303,8	2,305
304,2	2,317
304,7	2,325
305,1	2,336
305,6	2,353
306,1	2,335
306,5	2,345
307	2,328
307,4	2,332
307,9	2,358
308,4	2,367
308,8	2,368
309,3	2,372
309,8	2,385
310,2	2,419
310,7	2,398
311,1	2,382
311,6	2,369
312,1	2,37
312,5	2,371
313	2,371
313,4	2,393
313,9	2,414
314,4	2,421
314,8	2,424
315,3	2,412
315,7	2,415
316,2	2,396
316,7	2,359
317,1	2,338
317,6	2,344
318	2,347
318,5	2,366
319	2,384
319,4	2,392
319,9	2,419
320,3	2,447
320,8	2,446
321,3	2,453
321,7	2,458
322,2	2,435
322,6	2,436
323,1	2,405
323,6	2,407
324	2,407
324,5	2,409
324,9	2,389
325,4	2,39
325,9	2,386
326,3	2,39
326,8	2,391
327,2	2,371
327,7	2,359
328,2	2,36
328,6	2,359
329,1	2,362
329,5	2,378
330	2,374
330,5	2,394
330,9	2,41
331,4	2,419
331,8	2,431
332,3	2,428
332,8	2,419
333,2	2,42
333,7	2,413
334,1	2,391
334,6	2,395
335,1	2,389
335,5	2,387
336	2,376
336,4	2,366
336,9	2,364
337,4	2,367
337,8	2,363
338,3	2,353
338,7	2,357
339,2	2,394
339,7	2,407
340,1	2,429
340,6	2,422
341	2,412
341,5	2,415
342	2,411
342,4	2,37
342,9	2,346
343,3	2,328
343,8	2,351
344,2	2,34
344,7	2,323
345,2	2,31
345,6	2,304
346,1	2,293
346,5	2,278
347	2,253
347,5	2,249
347,9	2,254
348,4	2,25
348,8	2,244
349,3	2,254
349,8	2,234
350,2	2,218
350,7	2,201
351,1	2,18
351,6	2,157
352	2,128
352,5	2,096
353	2,082
353,4	2,062
353,9	2,041
354,3	2,022
354,8	2,006
355,3	1,983
355,7	1,959
356,2	1,928
356,6	1,9
357,1	1,878
357,5	1,848
358	1,819
358,5	1,795
358,9	1,773
359,4	1,746
359,8	1,722
360,3	1,692
360,8	1,664
361,2	1,635
361,7	1,609
362,1	1,579
362,6	1,553
363	1,521
363,5	1,493
364	1,467
364,4	1,442
364,9	1,416
365,3	1,39
365,8	1,368
366,3	1,343
366,7	1,323
367,2	1,297
367,6	1,276
368,1	1,253
368,5	1,231
369	1,211
369,5	1,192
369,9	1,168
370,4	1,146
370,8	1,125
371,3	1,103
371,7	1,085
372,2	1,064
372,7	1,045
373,1	1,027
373,6	1,009
374	0,992
374,5	0,976
374,9	0,958
375,4	0,942
375,9	0,926
376,3	0,909
376,8	0,893
377,2	0,878
377,7	0,865
378,2	0,85
378,6	0,837
379,1	0,825
379,5	0,812
380	0,8
380,4	0,788
380,9	0,775
381,4	0,762
381,8	0,75
382,3	0,737
382,7	0,727
383,2	0,718
383,6	0,707
384,1	0,698
384,6	0,689
385	0,679
385,5	0,67
385,9	0,66
386,4	0,651
386,8	0,643
387,3	0,635
387,7	0,628
388,2	0,62
388,7	0,613
389,1	0,606
389,6	0,598
390	0,59
390,5	0,583
390,9	0,576
391,4	0,568
391,9	0,56
392,3	0,553
392,8	0,547
393,2	0,542
393,7	0,537
394,1	0,53
394,6	0,526
395,1	0,521
395,5	0,516
396	0,51
396,4	0,505
396,9	0,499
397,3	0,494
397,8	0,489
398,2	0,484
398,7	0,481
399,2	0,476
399,6	0,472
400,1	0,468
400,5	0,464
401	0,46
401,4	0,455
401,9	0,451
402,4	0,447
402,8	0,443
403,3	0,439
403,7	0,435
404,2	0,43
404,6	0,426
405,1	0,422
405,5	0,419
406	0,414
406,5	0,412
406,9	0,408
407,4	0,405
407,8	0,403
408,3	0,399
408,7	0,395
409,2	0,393
409,6	0,389
410,1	0,386
410,6	0,383
411	0,38
411,5	0,377
411,9	0,374
412,4	0,371
412,8	0,369
413,3	0,366
413,7	0,364
414,2	0,361
414,7	0,358
415,1	0,356
415,6	0,354
416	0,351
416,5	0,348
416,9	0,345
417,4	0,342
417,8	0,34
418,3	0,337
418,8	0,335
419,2	0,332
419,7	0,331
420,1	0,329
420,6	0,326
421	0,324
421,5	0,322
421,9	0,32
422,4	0,319
422,8	0,317
423,3	0,315
423,8	0,314
424,2	0,312
424,7	0,31
425,1	0,308
425,6	0,306
426	0,304
426,5	0,302
426,9	0,3
427,4	0,299
427,9	0,298
428,3	0,296
428,8	0,295
429,2	0,293
429,7	0,292
430,1	0,29
430,6	0,288
431	0,286
431,5	0,284
431,9	0,283
432,4	0,281
432,8	0,278
433,3	0,277
433,8	0,274
434,2	0,273
434,7	0,272
435,1	0,271
435,6	0,27
436	0,269
436,5	0,267
436,9	0,266
437,4	0,264
437,8	0,262
438,3	0,261
438,8	0,259
439,2	0,258
439,7	0,257
440,1	0,256
440,6	0,254
441	0,252
441,5	0,252
441,9	0,251
442,4	0,249
442,8	0,248
443,3	0,247
443,7	0,246
444,2	0,245
444,7	0,244
445,1	0,243
445,6	0,242
446	0,242
446,5	0,241
446,9	0,239
447,4	0,238
447,8	0,237
448,3	0,236
448,7	0,234
449,2	0,234
449,6	0,233
450,1	0,232
450,6	0,231
451	0,23
451,5	0,228
451,9	0,228
452,4	0,227
452,8	0,226
453,3	0,225
453,7	0,225
454,2	0,225
454,6	0,224
455,1	0,223
455,5	0,221
456	0,22
456,4	0,219
456,9	0,217
457,3	0,215
457,8	0,215
458,3	0,214
458,7	0,213
459,2	0,212
459,6	0,211
460,1	0,211
460,5	0,21
461	0,209
461,4	0,209
461,9	0,208
462,3	0,207
462,8	0,206
463,2	0,206
463,7	0,205
464,1	0,204
464,6	0,204
465	0,204
465,5	0,204
466	0,203
466,4	0,202
466,9	0,202
467,3	0,2
467,8	0,199
468,2	0,197
468,7	0,196
469,1	0,196
469,6	0,194
470	0,194
470,5	0,194
470,9	0,193
471,4	0,192
471,8	0,192
472,3	0,19
472,7	0,19
473,2	0,189
473,6	0,188
474,1	0,188
474,5	0,187
475	0,186
475,4	0,186
475,9	0,185
476,4	0,184
476,8	0,183
477,3	0,183
477,7	0,182
478,2	0,182
478,6	0,182
479,1	0,181
479,5	0,181
480	0,18
480,4	0,179
480,9	0,179
481,3	0,177
481,8	0,176
482,2	0,175
482,7	0,175
483,1	0,174
483,6	0,174
484	0,173
484,5	0,172
484,9	0,172
485,4	0,17
485,8	0,17
486,3	0,173
486,7	0,172
487,2	0,171
487,6	0,17
488,1	0,17
488,5	0,17
489	0,169
489,4	0,163
489,9	0,163
490,4	0,164
490,8	0,164
491,3	0,163
491,7	0,164
492,2	0,164
492,6	0,163
493,1	0,162
493,5	0,161
494	0,161
494,4	0,161
494,9	0,16
495,3	0,159
495,8	0,158
496,2	0,158
496,7	0,157
497,1	0,157
497,6	0,156
498	0,156
498,5	0,155
498,9	0,154
499,4	0,153
499,8	0,152
500,3	0,152
500,7	0,151
501,2	0,15
501,6	0,15
502,1	0,149
502,5	0,149
503	0,148
503,4	0,148
503,9	0,148
504,3	0,148
504,8	0,147
505,2	0,147
505,7	0,146
506,1	0,146
506,6	0,146
507	0,145
507,5	0,144
507,9	0,143
508,4	0,143
508,8	0,142
509,3	0,141
509,7	0,14
510,2	0,14
510,6	0,14
511,1	0,14
511,5	0,139
512	0,138
512,4	0,137
512,9	0,137
513,3	0,137
513,8	0,136
514,2	0,135
514,7	0,135
515,1	0,135
515,6	0,135
516	0,135
516,5	0,134
516,9	0,134
517,4	0,133
517,8	0,132
518,3	0,132
518,7	0,131
519,2	0,131
519,6	0,132
520,1	0,131
520,5	0,13
521	0,13
521,4	0,129
521,9	0,128
522,3	0,128
522,8	0,126
523,2	0,126
523,7	0,125
524,1	0,125
524,6	0,125
525	0,124
525,5	0,124
525,9	0,124
526,4	0,124
526,8	0,124
527,3	0,123
527,7	0,122
528,2	0,122
528,6	0,121
529,1	0,122
529,5	0,122
530	0,121
530,4	0,121
530,9	0,12
531,3	0,12
531,8	0,12
532,2	0,118
532,6	0,118
533,1	0,118
533,5	0,118
534	0,118
534,4	0,118
534,9	0,117
535,3	0,117
535,8	0,116
536,2	0,115
536,7	0,114
537,1	0,114
537,6	0,114
538	0,114
538,5	0,113
538,9	0,112
539,4	0,112
539,8	0,112
540,3	0,112
540,7	0,111
541,2	0,11
541,6	0,11
542,1	0,11
542,5	0,11
543	0,11
543,4	0,11
543,9	0,109
544,3	0,109
544,8	0,109
545,2	0,108
545,7	0,108
546,1	0,108
546,5	0,108
547	0,108
547,4	0,107
547,9	0,107
548,3	0,107
548,8	0,107
549,2	0,107
549,7	0,106
550,1	0,106
550,6	0,105
551	0,103
551,5	0,102
551,9	0,103
552,4	0,102
552,8	0,102
553,3	0,102
553,7	0,102
554,2	0,103
554,6	0,103
555,1	0,103
555,5	0,103
555,9	0,103
556,4	0,102
556,8	0,101
557,3	0,101
557,7	0,1
558,2	0,101
558,6	0,1
559,1	0,1
559,5	0,1
560	0,1
560,4	0,1
560,9	0,099
561,3	0,098
561,8	0,097
562,2	0,097
562,7	0,097
563,1	0,096
563,6	0,097
564	0,098
564,4	0,098
564,9	0,098
565,3	0,097
565,8	0,097
566,2	0,096
566,7	0,096
567,1	0,096
567,6	0,095
568	0,095
568,5	0,095
568,9	0,095
569,4	0,096
569,8	0,095
570,3	0,094
570,7	0,094
571,1	0,094
571,6	0,094
572	0,093
572,5	0,092
572,9	0,091
573,4	0,092
573,8	0,092
574,3	0,092
574,7	0,092
575,2	0,092
575,6	0,092
576,1	0,092
576,5	0,091
576,9	0,091
577,4	0,091
577,8	0,092
578,3	0,091
578,7	0,091
579,2	0,09
579,6	0,091
580,1	0,09
580,5	0,089
581	0,088
581,4	0,09
581,9	0,09
582,3	0,089
582,7	0,088
583,2	0,087
583,6	0,088
584,1	0,088
584,5	0,087
585	0,087
585,4	0,088
585,9	0,088
586,3	0,089
586,8	0,089
587,2	0,088
587,6	0,088
588,1	0,087
588,5	0,087
589	0,087
589,4	0,087
589,9	0,087
590,3	0,087
590,8	0,086
591,2	0,086
591,7	0,086
592,1	0,086
592,5	0,086
593	0,086
593,4	0,086
593,9	0,085
594,3	0,085
594,8	0,085
595,2	0,085
595,7	0,084
596,1	0,083
596,6	0,084
597	0,084
597,4	0,084
597,9	0,083
598,3	0,083
598,8	0,083
599,2	0,083
599,7	0,082
600,1	0,082
600,6	0,082
601	0,082
601,4	0,082
601,9	0,081
602,3	0,081
602,8	0,081
603,2	0,082
603,7	0,081
604,1	0,081
604,6	0,081
605	0,081
605,4	0,081
605,9	0,081
606,3	0,08
606,8	0,08
607,2	0,08
607,7	0,08
608,1	0,08
608,6	0,08
609	0,08
609,4	0,081
609,9	0,081
610,3	0,08
610,8	0,08
611,2	0,079
611,7	0,08
612,1	0,079
612,6	0,079
613	0,078
613,4	0,078
613,9	0,078
614,3	0,078
614,8	0,078
615,2	0,078
615,7	0,078
616,1	0,077
616,6	0,077
617	0,077
617,4	0,077
617,9	0,077
618,3	0,077
618,8	0,076
619,2	0,077
619,7	0,077
620,1	0,077
620,5	0,076
621	0,075
621,4	0,076
621,9	0,076
622,3	0,076
622,8	0,076
623,2	0,076
623,6	0,076
624,1	0,076
624,5	0,075
625	0,075
625,4	0,074
625,9	0,075
626,3	0,075
626,8	0,075
627,2	0,075
627,6	0,075
628,1	0,075
628,5	0,075
629	0,075
629,4	0,075
629,9	0,075
630,3	0,074
630,7	0,074
631,2	0,074
631,6	0,074
632,1	0,073
632,5	0,073
633	0,074
633,4	0,073
633,8	0,073
634,3	0,073
634,7	0,073
635,2	0,074
635,6	0,074
636,1	0,073
636,5	0,073
636,9	0,073
637,4	0,072
637,8	0,072
638,3	0,072
638,7	0,071
639,2	0,071
639,6	0,071
640	0,071
640,5	0,071
640,9	0,071
641,4	0,071
641,8	0,071
642,2	0,071
642,7	0,07
643,1	0,07
643,6	0,069
644	0,069
644,5	0,069
644,9	0,069
645,3	0,069
645,8	0,069
646,2	0,069
646,7	0,069
647,1	0,069
647,6	0,069
648	0,069
648,4	0,069
648,9	0,069
649,3	0,069
649,8	0,069
650,2	0,069
650,6	0,069
651,1	0,068
651,5	0,068
652	0,068
652,4	0,068
652,9	0,067
653,3	0,067
653,7	0,066
654,2	0,065
654,6	0,063
655,1	0,059
655,5	0,053
655,9	0,035
656,4	0,025
656,8	0,028
657,3	0,03
657,7	0,031
658,2	0,03
658,6	0,027
659	0,041
659,5	0,07
659,9	0,079
660,4	0,08
660,8	0,079
661,2	0,077
661,7	0,076
662,1	0,074
662,6	0,072
663	0,07
663,4	0,069
663,9	0,068
664,3	0,068
664,8	0,067
665,2	0,066
665,6	0,066
666,1	0,066
666,5	0,066
667	0,066
667,4	0,065
667,9	0,066
668,3	0,065
668,7	0,065
669,2	0,065
669,6	0,065
670,1	0,065
670,5	0,064
670,9	0,064
671,4	0,064
671,8	0,063
672,3	0,063
672,7	0,063
673,1	0,062
673,6	0,063
674	0,063
674,5	0,062
674,9	0,063
675,3	0,063
675,8	0,063
676,2	0,063
676,7	0,063
677,1	0,063
677,5	0,064
678	0,063
678,4	0,063
678,9	0,063
679,3	0,063
679,7	0,062
680,2	0,062
680,6	0,062
681,1	0,062
681,5	0,062
681,9	0,062
682,4	0,062
682,8	0,061
683,3	0,061
683,7	0,061
684,1	0,061
684,6	0,061
685	0,06
685,5	0,06
685,9	0,06
686,3	0,06
686,8	0,06
687,2	0,06
687,7	0,06
688,1	0,06
688,5	0,06
689	0,06
689,4	0,06
689,9	0,06
690,3	0,06
690,7	0,061
691,2	0,061
691,6	0,061
692	0,06
692,5	0,06
692,9	0,06
693,4	0,059
693,8	0,059
694,2	0,059
694,7	0,059
695,1	0,059
695,6	0,059
696	0,059
696,4	0,059
696,9	0,059
697,3	0,059
697,8	0,058
698,2	0,058
698,6	0,058
699,1	0,058
699,5	0,058
699,9	0,058
700,4	0,058
700,8	0,058
701,3	0,058
701,7	0,058
702,1	0,058
702,6	0,058
703	0,058
703,5	0,058
703,9	0,058
704,3	0,059
704,8	0,058
705,2	0,058
705,6	0,057
706,1	0,057
706,5	0,057
707	0,057
707,4	0,057
707,8	0,057
708,3	0,058
708,7	0,058
709,2	0,058
709,6	0,058
710	0,058
710,5	0,058
710,9	0,057
711,3	0,057
711,8	0,056
712,2	0,056
712,7	0,056
713,1	0,056
713,5	0,056
714	0,056
714,4	0,056
714,8	0,057
715,3	0,056
715,7	0,056
716,2	0,056
716,6	0,056
717	0,056
717,5	0,056
717,9	0,056
718,3	0,056
718,8	0,056
719,2	0,056
719,7	0,056
720,1	0,055
720,5	0,056
721	0,055
721,4	0,055
721,8	0,055
722,3	0,055
722,7	0,055
723,2	0,056
723,6	0,055
724	0,055
724,5	0,055
724,9	0,055
725,3	0,055
725,8	0,055
726,2	0,054
726,7	0,054
727,1	0,054
727,5	0,054
728	0,054
728,4	0,054
728,8	0,054
729,3	0,054
729,7	0,054
730,1	0,054
730,6	0,054
731	0,054
731,5	0,054
731,9	0,053
732,3	0,053
732,8	0,053
733,2	0,053
733,6	0,052
734,1	0,052
734,5	0,052
734,9	0,052
735,4	0,052
735,8	0,052
736,3	0,052
736,7	0,052
737,1	0,052
737,6	0,052
738	0,052
738,4	0,052
738,9	0,052
739,3	0,053
739,7	0,052
740,2	0,052
740,6	0,052
741,1	0,051
741,5	0,051
741,9	0,051
742,4	0,051
742,8	0,051
743,2	0,051
743,7	0,051
744,1	0,052
744,5	0,052
745	0,052
745,4	0,052
745,8	0,052
746,3	0,052
746,7	0,052
747,2	0,052
747,6	0,051
748	0,051
748,5	0,05
748,9	0,05
749,3	0,05
749,8	0,051
750,2	0,05
750,6	0,05
751,1	0,049
751,5	0,049
751,9	0,049
752,4	0,049
752,8	0,049
753,3	0,049
753,7	0,049
754,1	0,049
754,6	0,049
755	0,049
755,4	0,05
755,9	0,049
756,3	0,05
756,7	0,05
757,2	0,05
757,6	0,05
758	0,05
758,5	0,05
758,9	0,05
759,3	0,05
759,8	0,05
760,2	0,05
760,6	0,05
761,1	0,05
761,5	0,05
761,9	0,05
762,4	0,05
762,8	0,05
763,3	0,05
763,7	0,05
764,1	0,05
764,6	0,05
765	0,049
765,4	0,049
765,9	0,048
766,3	0,048
766,7	0,049
767,2	0,049
767,6	0,049
768	0,049
768,5	0,049
768,9	0,049
769,3	0,048
769,8	0,047
770,2	0,047
770,6	0,046
771,1	0,046
771,5	0,046
771,9	0,046
772,4	0,046
772,8	0,047
773,2	0,046
773,7	0,047
774,1	0,046
774,5	0,046
775	0,046
775,4	0,046
775,8	0,047
776,3	0,047
776,7	0,047
777,1	0,047
777,6	0,047
778	0,047
778,4	0,047
778,9	0,047
779,3	0,047
779,7	0,047
780,2	0,047
780,6	0,047
781	0,046
781,5	0,046
781,9	0,046
782,3	0,046
782,8	0,046
783,2	0,046
783,6	0,045
784,1	0,045
784,5	0,046
784,9	0,046
785,4	0,045
785,8	0,046
786,2	0,046
786,7	0,046
787,1	0,046
787,5	0,045
788	0,045
788,4	0,045
788,8	0,045
789,3	0,045
789,7	0,045
790,1	0,045
790,6	0,045
791	0,045
791,4	0,046
791,9	0,046
792,3	0,046
792,7	0,045
793,2	0,045
793,6	0,045
794	0,045
794,5	0,045
794,9	0,045
795,3	0,045
795,8	0,045
796,2	0,045
796,6	0,045
797,1	0,045
797,5	0,045
797,9	0,045
798,4	0,045
798,8	0,045
799,2	0,045
799,7	0,045
800,1	0,045
800,5	0,045
801	0,045
801,4	0,044
801,8	0,044
802,2	0,044
802,7	0,044
803,1	0,044
803,5	0,044
804	0,044
804,4	0,044
804,8	0,044
805,3	0,044
805,7	0,044
806,1	0,044
806,6	0,044
807	0,044
807,4	0,044
807,9	0,044
808,3	0,044
808,7	0,044
809,2	0,044
809,6	0,043
810	0,043
810,4	0,043
810,9	0,043
811,3	0,043
811,7	0,043
812,2	0,043
812,6	0,043
813	0,043
813,5	0,043
813,9	0,043
814,3	0,043
814,8	0,043
815,2	0,043
815,6	0,043
816,1	0,043
816,5	0,043
816,9	0,043
817,3	0,043
817,8	0,043
818,2	0,043
818,6	0,043
819,1	0,043
819,5	0,043
819,9	0,043
820,4	0,043
820,8	0,042
821,2	0,042
821,7	0,042
822,1	0,042
822,5	0,043
822,9	0,043
823,4	0,043
823,8	0,043
824,2	0,043
824,7	0,043
825,1	0,043
825,5	0,042
826	0,043
826,4	0,042
826,8	0,042
827,3	0,042
827,7	0,042
828,1	0,041
828,5	0,041
829	0,041
829,4	0,041
829,8	0,041
830,3	0,041
830,7	0,041
831,1	0,041
831,6	0,041
832	0,041
832,4	0,04
832,8	0,04
833,3	0,04
833,7	0,04
834,1	0,04
834,6	0,04
835	0,04
835,4	0,04
835,8	0,04
836,3	0,04
836,7	0,04
837,1	0,041
837,6	0,041
838	0,041
838,4	0,041
838,9	0,041
839,3	0,041
839,7	0,041
840,1	0,04
840,6	0,04
841	0,04
841,4	0,039
841,9	0,04
842,3	0,039
842,7	0,039
843,1	0,039
843,6	0,039
844	0,039
844,4	0,039
844,9	0,038
845,3	0,039
845,7	0,038
846,2	0,038
846,6	0,038
847	0,038
847,4	0,038
847,9	0,038
848,3	0,038
848,7	0,038
849,2	0,039
849,6	0,038
850	0,039
850,4	0,039
850,9	0,038
851,3	0,038
851,7	0,038
852,2	0,038
852,6	0,038
853	0,038
853,4	0,038
853,9	0,038
854,3	0,038
854,7	0,038
855,2	0,038
855,6	0,039
856	0,039
856,4	0,039
856,9	0,039
857,3	0,039
857,7	0,038
858,2	0,038
858,6	0,038
859	0,038
859,4	0,038
859,9	0,038
860,3	0,038
860,7	0,038
861,1	0,038
861,6	0,038
862	0,039
862,4	0,039
862,9	0,038
863,3	0,038
863,7	0,037
864,1	0,037
864,6	0,037
865	0,036
865,4	0,036
865,9	0,036
866,3	0,036
866,7	0,036
867,1	0,037
867,6	0,037
868	0,037
868,4	0,037
868,8	0,037
869,3	0,037
869,7	0,037
870,1	0,037
870,6	0,037
871	0,037
871,4	0,037
871,8	0,037
872,3	0,036
872,7	0,036
873,1	0,036
873,5	0,036
874	0,035
874,4	0,036
874,8	0,036
875,3	0,035
875,7	0,035
876,1	0,035
876,5	0,035
877	0,036
877,4	0,035
877,8	0,035
878,2	0,035
878,7	0,035
879,1	0,036
879,5	0,036
879,9	0,036
880,4	0,035
880,8	0,035
881,2	0,035
881,7	0,035
882,1	0,035
882,5	0,035
882,9	0,034
883,4	0,034
883,8	0,034
884,2	0,034
884,6	0,034
885,1	0,034
885,5	0,034
885,9	0,034
886,3	0,034
886,8	0,034
887,2	0,034
887,6	0,034
888	0,034
888,5	0,034
888,9	0,035
889,3	0,035
889,8	0,035
890,2	0,036
890,6	0,036
891	0,037
891,5	0,037
891,9	0,037
892,3	0,037
892,7	0,037
893,2	0,036
893,6	0,036
894	0,036
894,4	0,036
894,9	0,035
895,3	0,035
895,7	0,035
896,1	0,035
896,6	0,035
897	0,035
897,4	0,034
897,8	0,035
898,3	0,035
898,7	0,035
899,1	0,035
899,5	0,035
900	0,035
900,4	0,035
900,8	0,035
901,2	0,035
901,7	0,034
902,1	0,034
902,5	0,034
902,9	0,034
903,4	0,034
903,8	0,035
904,2	0,034
904,6	0,035
905,1	0,035
905,5	0,035
905,9	0,035
906,3	0,036
906,8	0,035
907,2	0,035
907,6	0,036
908	0,036
908,5	0,036
908,9	0,036
909,3	0,036
909,7	0,036
910,2	0,037
910,6	0,037
911	0,037
911,4	0,037
911,9	0,037
912,3	0,036
912,7	0,036
913,1	0,036
913,6	0,036
914	0,036
914,4	0,036
914,8	0,036
915,3	0,036
915,7	0,036
916,1	0,035
916,5	0,035
916,9	0,035
917,4	0,035
917,8	0,034
918,2	0,034
918,6	0,034
919,1	0,034
919,5	0,034
919,9	0,034
920,3	0,034
920,8	0,034
921,2	0,034
921,6	0,034
922	0,035
922,5	0,035
922,9	0,034
923,3	0,034
923,7	0,035
924,2	0,034
924,6	0,034
925	0,034
925,4	0,034
925,8	0,034
926,3	0,034
926,7	0,034
927,1	0,034
927,5	0,034
928	0,034
928,4	0,034
928,8	0,034
929,2	0,034
929,7	0,033
930,1	0,033
930,5	0,033
930,9	0,033
931,3	0,032
931,8	0,032
932,2	0,032
932,6	0,032
933	0,032
933,5	0,031
933,9	0,031
934,3	0,032
934,7	0,032
935,2	0,032
935,6	0,032
936	0,032
936,4	0,033
936,8	0,033
937,3	0,032
937,7	0,032
938,1	0,032
938,5	0,032
939	0,031
939,4	0,031
939,8	0,031
940,2	0,032
940,6	0,032
941,1	0,032
941,5	0,032
941,9	0,033
942,3	0,033
942,8	0,032
943,2	0,032
943,6	0,031
944	0,031
944,4	0,032
944,9	0,031
945,3	0,031
945,7	0,031
946,1	0,031
946,6	0,032
947	0,032
947,4	0,032
947,8	0,032
948,2	0,032
948,7	0,031
949,1	0,031
949,5	0,031
949,9	0,03
950,3	0,029
950,8	0,029
951,2	0,029
951,6	0,03
952	0,029
952,5	0,029
952,9	0,029
953,3	0,029
953,7	0,029
954,1	0,029
954,6	0,028
955	0,028
955,4	0,028
955,8	0,028
956,2	0,028
956,7	0,028
957,1	0,028
957,5	0,028
957,9	0,027
958,3	0,027
958,8	0,027
959,2	0,026
959,6	0,026
960	0,026
960,5	0,026
960,9	0,026
961,3	0,026
961,7	0,026
962,1	0,026
962,6	0,026
963	0,026
963,4	0,026
963,8	0,026
964,2	0,026
964,7	0,026
965,1	0,026
965,5	0,027
965,9	0,027
966,3	0,027
966,8	0,027
967,2	0,028
967,6	0,028
968	0,028
968,4	0,028
968,9	0,028
969,3	0,028
969,7	0,029
970,1	0,029
970,5	0,029
971	0,029
971,4	0,029
971,8	0,029
972,2	0,029
972,6	0,029
973,1	0,028
973,5	0,028
973,9	0,028
974,3	0,028
974,7	0,028
975,2	0,028
975,6	0,027
976	0,027
976,4	0,028
976,8	0,027
977,3	0,027
977,7	0,027
978,1	0,027
978,5	0,027
978,9	0,027
979,4	0,027
979,8	0,027
980,2	0,026
980,6	0,026
981	0,026
981,5	0,026
981,9	0,026
982,3	0,026
982,7	0,026
983,1	0,027
983,6	0,027
984	0,028
984,4	0,027
984,8	0,027
985,2	0,026
985,6	0,026
986,1	0,026
986,5	0,026
986,9	0,026
987,3	0,026
987,7	0,027
988,2	0,027
988,6	0,027
989	0,027
989,4	0,027
989,8	0,027
990,3	0,026
990,7	0,026
991,1	0,027
991,5	0,027
991,9	0,027
992,3	0,027
992,8	0,026
993,2	0,026
993,6	0,026
994	0,025
994,4	0,026
994,9	0,026
995,3	0,026
995,7	0,026
996,1	0,026
996,5	0,026
996,9	0,026
997,4	0,027
997,8	0,027
998,2	0,026
998,6	0,027
999	0,026
999,5	0,026
999,9	0,026
1000,3	0,026
1000,7	0,025
1001,1	0,025
1001,5	0,026
1002	0,026
1002,4	0,027
1002,8	0,028
1003,2	0,028
1003,6	0,029
1004	0,029
1004,5	0,029
1004,9	0,029
1005,3	0,028
1005,7	0,028
1006,1	0,028
1006,6	0,028
1007	0,028
1007,4	0,028
1007,8	0,028
1008,2	0,029
1008,6	0,029
1009,1	0,029
1009,5	0,029
1009,9	0,029
1010,3	0,029
1010,7	0,029
1011,1	0,029
1011,6	0,029
1012	0,029
1012,4	0,028
1012,8	0,029
1013,2	0,029
1013,6	0,028
1014,1	0,028
1014,5	0,027
1014,9	0,026
1015,3	0,025
1015,7	0,025
1016,1	0,026
1016,6	0,025
1017	0,026
1017,4	0,026
1017,8	0,027
1018,2	0,028
1018,6	0,027
1019,1	0,028
1019,5	0,028
1019,9	0,028
1020,3	0,028
1020,7	0,028
1021,1	0,027
1021,6	0,027
1022	0,027
1022,4	0,027
1022,8	0,027
1023,2	0,027
1023,6	0,027
1024,1	0,027
1024,5	0,027
1024,9	0,026
1025,3	0,027
1025,7	0,026
1026,1	0,026
1026,6	0,025
1027	0,025
1027,4	0,025
1027,8	0,025
1028,2	0,025
1028,6	0,026
1029	0,026
1029,5	0,027
1029,9	0,027
1030,3	0,027
1030,7	0,026
1031,1	0,026
1031,5	0,026
1032	0,025
1032,4	0,025
1032,8	0,025
1033,2	0,026
1033,6	0,025
1034	0,025
1034,4	0,025
1034,9	0,024
1035,3	0,024
1035,7	0,023
1036,1	0,023
1036,5	0,023
1036,9	0,024
1037,4	0,024
1037,8	0,025
1038,2	0,025
1038,6	0,025
1039	0,024
1039,4	0,025
1039,8	0,025
1040,3	0,024
1040,7	0,024
1041,1	0,024
1041,5	0,025
1041,9	0,026
1042,3	0,025
1042,7	0,025
1043,2	0,026
1043,6	0,025
1044	0,025
1044,4	0,023
1044,8	0,022
1045,2	0,022
1045,6	0,021
1046,1	0,021
1046,5	0,023
1046,9	0,023
1047,3	0,023
1047,7	0,024
1048,1	0,024
1048,5	0,024
1049	0,023
1049,4	0,022
1049,8	0,022
1050,2	0,021
1050,6	0,02
1051	0,021
1051,4	0,021
1051,9	0,022
1052,3	0,023
1052,7	0,023
1053,1	0,023
1053,5	0,024
1053,9	0,023
1054,3	0,024
1054,8	0,025
1055,2	0,025
1055,6	0,024
1056	0,024
1056,4	0,024
1056,8	0,024
1057,2	0,024
1057,6	0,023
1058,1	0,023
1058,5	0,023
1058,9	0,024
1059,3	0,026
1059,7	0,026
1060,1	0,025
1060,5	0,026
1061	0,025
1061,4	0,024
1061,8	0,023
1062,2	0,023
1062,6	0,022
1063	0,022
1063,4	0,022
1063,8	0,023
1064,3	0,022
1064,7	0,021
1065,1	0,02
1065,5	0,021
1065,9	0,021
1066,3	0,021
1066,7	0,021
1067,1	0,021
1067,6	0,022
1068	0,022
1068,4	0,022
1068,8	0,021
1069,2	0,021
1069,6	0,021
1070	0,021
1070,4	0,021
1070,9	0,021
1071,3	0,021
1071,7	0,022
1072,1	0,022
1072,5	0,023
1072,9	0,023
1073,3	0,023
1073,7	0,023
1074,2	0,023
1074,6	0,023
1075	0,023
1075,4	0,022
1075,8	0,021
1076,2	0,022
1076,6	0,021
1077	0,02
1077,5	0,02
1077,9	0,019
1078,3	0,019
1078,7	0,019
1079,1	0,02
1079,5	0,02
1079,9	0,022
1080,3	0,021
1080,7	0,022
1081,2	0,021
1081,6	0,021
1082	0,02
1082,4	0,019
1082,8	0,016
1083,2	0,016
1083,6	0,015
1084	0,015
1084,5	0,014
1084,9	0,014
1085,3	0,014
1085,7	0,016
1086,1	0,016
1086,5	0,017
1086,9	0,018
1087,3	0,019
1087,7	0,019
1088,2	0,018
1088,6	0,015
1089	0,016
1089,4	0,018
1089,8	0,016
1090,2	0,015
1090,6	0,016
1091	0,014
1091,4	0,015
1091,9	0,015
1092,3	0,014
1092,7	0,013
1093,1	0,015
1093,5	0,016
1093,9	0,017
1094,3	0,019
1094,7	0,014
1095,1	0,013
1095,5	0,01
1096	0,009
1096,4	0,006
1096,8	0,01
1097,2	0,004
1097,6	0,001
1098	0,004
1098,4	0,005
1098,8	0,006
1099,2	0,002
1099,6	0,003
1100,1	0,005
1100,5	0,005
1100,9	-0
1101,3	0,007
1101,7	-0,001
1102,1	-0,004
1102,5	-0,016
1102,9	-0,014
1103,3	-0,016
1103,7	-0,015
1104,2	-0,028
1104,6	-0,032
1105	-0,031
1105,4	-0,027
1105,8	-0,019
1106,2	-0,022
1106,6	-0,036
1107	-0,048
1107,4	-0,036
1107,8	-0,021
1108,3	0,308
