Data from Absorbance_00017.txt Node
Date: Wed Aug 02 13:51:36 MSK 2023
User: vat
Spectrometer: MAYP114033
Trigger mode: 0
Integration Time (sec): 8,000000E-3
Scans to average: 10
Electric dark correction enabled: true
Nonlinearity correction enabled: false
Boxcar width: 3
XAxis mode: Wavelengths
Number of Pixels in Spectrum: 2068
>>>>>Begin Spectral Data<<<<<
199,4	-0,791
199,9	-0,272
200,4	0,111
200,8	0,541
201,3	0,732
201,8	0,816
202,2	0,865
202,7	0,906
203,2	0,97
203,6	0,996
204,1	0,994
204,6	1,005
205	1,01
205,5	1,019
206	1,016
206,4	1,033
206,9	1,073
207,4	1,112
207,8	1,137
208,3	1,145
208,8	1,163
209,2	1,189
209,7	1,206
210,2	1,198
210,6	1,201
211,1	1,208
211,5	1,238
212	1,251
212,5	1,251
212,9	1,268
213,4	1,304
213,9	1,322
214,3	1,339
214,8	1,342
215,3	1,353
215,7	1,376
216,2	1,375
216,7	1,371
217,1	1,384
217,6	1,388
218,1	1,414
218,5	1,424
219	1,446
219,5	1,457
219,9	1,492
220,4	1,515
220,9	1,545
221,3	1,548
221,8	1,587
222,3	1,596
222,7	1,646
223,2	1,651
223,6	1,659
224,1	1,667
224,6	1,694
225	1,679
225,5	1,681
226	1,683
226,4	1,7
226,9	1,696
227,4	1,711
227,8	1,712
228,3	1,75
228,8	1,782
229,2	1,789
229,7	1,811
230,2	1,84
230,6	1,871
231,1	1,891
231,5	1,882
232	1,877
232,5	1,875
232,9	1,874
233,4	1,89
233,9	1,893
234,3	1,906
234,8	1,916
235,3	1,932
235,7	1,945
236,2	1,95
236,7	1,96
237,1	1,939
237,6	1,944
238,1	1,968
238,5	1,979
239	2,005
239,4	2,012
239,9	2,018
240,4	2,026
240,8	2,051
241,3	2,041
241,8	2,055
242,2	2,042
242,7	2,042
243,2	2,046
243,6	2,068
244,1	2,034
244,6	2,055
245	2,048
245,5	2,051
245,9	2,06
246,4	2,045
246,9	2,058
247,3	2,069
247,8	2,052
248,3	2,049
248,7	2,043
249,2	2,052
249,7	2,082
250,1	2,075
250,6	2,108
251	2,105
251,5	2,109
252	2,123
252,4	2,104
252,9	2,084
253,4	2,068
253,8	2,073
254,3	2,078
254,8	2,089
255,2	2,09
255,7	2,102
256,1	2,118
256,6	2,141
257,1	2,133
257,5	2,134
258	2,131
258,5	2,121
258,9	2,114
259,4	2,102
259,9	2,089
260,3	2,076
260,8	2,066
261,2	2,074
261,7	2,09
262,2	2,086
262,6	2,115
263,1	2,123
263,6	2,14
264	2,163
264,5	2,149
264,9	2,134
265,4	2,134
265,9	2,102
266,3	2,101
266,8	2,1
267,3	2,101
267,7	2,124
268,2	2,141
268,7	2,149
269,1	2,149
269,6	2,163
270	2,144
270,5	2,151
271	2,119
271,4	2,113
271,9	2,121
272,4	2,117
272,8	2,117
273,3	2,126
273,7	2,117
274,2	2,148
274,7	2,146
275,1	2,157
275,6	2,174
276,1	2,181
276,5	2,187
277	2,176
277,4	2,17
277,9	2,174
278,4	2,151
278,8	2,151
279,3	2,153
279,8	2,171
280,2	2,168
280,7	2,144
281,1	2,159
281,6	2,176
282,1	2,17
282,5	2,139
283	2,114
283,4	2,108
283,9	2,085
284,4	2,062
284,8	2,046
285,3	2,015
285,8	1,992
286,2	1,944
286,7	1,903
287,1	1,851
287,6	1,791
288,1	1,726
288,5	1,666
289	1,604
289,5	1,555
289,9	1,505
290,4	1,466
290,8	1,431
291,3	1,401
291,8	1,372
292,2	1,35
292,7	1,326
293,1	1,307
293,6	1,292
294,1	1,276
294,5	1,263
295	1,253
295,5	1,244
295,9	1,237
296,4	1,231
296,8	1,222
297,3	1,217
297,8	1,21
298,2	1,204
298,7	1,197
299,1	1,189
299,6	1,182
300,1	1,176
300,5	1,17
301	1,164
301,5	1,158
301,9	1,152
302,4	1,146
302,8	1,14
303,3	1,134
303,8	1,129
304,2	1,122
304,7	1,113
305,1	1,106
305,6	1,098
306,1	1,092
306,5	1,084
307	1,075
307,4	1,069
307,9	1,062
308,4	1,055
308,8	1,046
309,3	1,038
309,8	1,029
310,2	1,022
310,7	1,01
311,1	1,002
311,6	0,995
312,1	0,988
312,5	0,979
313	0,97
313,4	0,961
313,9	0,954
314,4	0,945
314,8	0,933
315,3	0,923
315,7	0,914
316,2	0,904
316,7	0,895
317,1	0,885
317,6	0,876
318	0,868
318,5	0,858
319	0,85
319,4	0,841
319,9	0,832
320,3	0,822
320,8	0,812
321,3	0,804
321,7	0,795
322,2	0,786
322,6	0,777
323,1	0,768
323,6	0,758
324	0,749
324,5	0,739
324,9	0,729
325,4	0,719
325,9	0,71
326,3	0,7
326,8	0,692
327,2	0,682
327,7	0,673
328,2	0,663
328,6	0,653
329,1	0,645
329,5	0,636
330	0,626
330,5	0,617
330,9	0,608
331,4	0,601
331,8	0,591
332,3	0,582
332,8	0,573
333,2	0,564
333,7	0,555
334,1	0,547
334,6	0,538
335,1	0,531
335,5	0,522
336	0,513
336,4	0,504
336,9	0,497
337,4	0,487
337,8	0,478
338,3	0,47
338,7	0,461
339,2	0,453
339,7	0,446
340,1	0,438
340,6	0,429
341	0,423
341,5	0,415
342	0,407
342,4	0,399
342,9	0,392
343,3	0,385
343,8	0,379
344,2	0,372
344,7	0,366
345,2	0,36
345,6	0,354
346,1	0,347
346,5	0,34
347	0,333
347,5	0,327
347,9	0,322
348,4	0,315
348,8	0,31
349,3	0,303
349,8	0,298
350,2	0,293
350,7	0,287
351,1	0,281
351,6	0,277
352	0,271
352,5	0,266
353	0,261
353,4	0,257
353,9	0,252
354,3	0,247
354,8	0,241
355,3	0,237
355,7	0,233
356,2	0,229
356,6	0,225
357,1	0,221
357,5	0,217
358	0,213
358,5	0,209
358,9	0,205
359,4	0,201
359,8	0,198
360,3	0,194
360,8	0,19
361,2	0,187
361,7	0,185
362,1	0,182
362,6	0,179
363	0,175
363,5	0,171
364	0,169
364,4	0,166
364,9	0,162
365,3	0,159
365,8	0,157
366,3	0,154
366,7	0,152
367,2	0,149
367,6	0,147
368,1	0,145
368,5	0,143
369	0,14
369,5	0,138
369,9	0,136
370,4	0,134
370,8	0,131
371,3	0,129
371,7	0,127
372,2	0,125
372,7	0,123
373,1	0,122
373,6	0,12
374	0,118
374,5	0,116
374,9	0,114
375,4	0,113
375,9	0,111
376,3	0,108
376,8	0,107
377,2	0,105
377,7	0,104
378,2	0,102
378,6	0,1
379,1	0,099
379,5	0,098
380	0,097
380,4	0,095
380,9	0,094
381,4	0,093
381,8	0,091
382,3	0,089
382,7	0,088
383,2	0,087
383,6	0,086
384,1	0,085
384,6	0,084
385	0,083
385,5	0,082
385,9	0,08
386,4	0,079
386,8	0,077
387,3	0,076
387,7	0,075
388,2	0,073
388,7	0,072
389,1	0,072
389,6	0,071
390	0,07
390,5	0,068
390,9	0,067
391,4	0,066
391,9	0,064
392,3	0,063
392,8	0,062
393,2	0,062
393,7	0,06
394,1	0,06
394,6	0,06
395,1	0,06
395,5	0,059
396	0,058
396,4	0,058
396,9	0,057
397,3	0,056
397,8	0,055
398,2	0,054
398,7	0,053
399,2	0,052
399,6	0,05
400,1	0,05
400,5	0,049
401	0,048
401,4	0,048
401,9	0,048
402,4	0,047
402,8	0,046
403,3	0,045
403,7	0,044
404,2	0,043
404,6	0,042
405,1	0,041
405,5	0,04
406	0,04
406,5	0,039
406,9	0,039
407,4	0,039
407,8	0,038
408,3	0,038
408,7	0,037
409,2	0,036
409,6	0,035
410,1	0,034
410,6	0,033
411	0,033
411,5	0,032
411,9	0,032
412,4	0,031
412,8	0,03
413,3	0,029
413,7	0,029
414,2	0,029
414,7	0,028
415,1	0,027
415,6	0,028
416	0,027
416,5	0,028
416,9	0,026
417,4	0,025
417,8	0,025
418,3	0,023
418,8	0,022
419,2	0,022
419,7	0,021
420,1	0,021
420,6	0,02
421	0,02
421,5	0,02
421,9	0,02
422,4	0,019
422,8	0,018
423,3	0,018
423,8	0,018
424,2	0,018
424,7	0,017
425,1	0,017
425,6	0,016
426	0,015
426,5	0,015
426,9	0,015
427,4	0,014
427,9	0,014
428,3	0,014
428,8	0,014
429,2	0,013
429,7	0,013
430,1	0,013
430,6	0,012
431	0,011
431,5	0,011
431,9	0,011
432,4	0,01
432,8	0,009
433,3	0,009
433,8	0,008
434,2	0,008
434,7	0,008
435,1	0,007
435,6	0,007
436	0,006
436,5	0,007
436,9	0,007
437,4	0,007
437,8	0,006
438,3	0,006
438,8	0,005
439,2	0,006
439,7	0,005
440,1	0,005
440,6	0,004
441	0,004
441,5	0,004
441,9	0,004
442,4	0,003
442,8	0,002
443,3	0,003
443,7	0,003
444,2	0,003
444,7	0,003
445,1	0,003
445,6	0,003
446	0,003
446,5	0,003
446,9	0,003
447,4	0,003
447,8	0,003
448,3	0,002
448,7	0,002
449,2	0,002
449,6	0,002
450,1	0,001
450,6	0
451	0,001
451,5	0,001
451,9	0,001
452,4	0,001
452,8	0,001
453,3	0,002
453,7	0,002
454,2	0,001
454,6	0,002
455,1	0,002
455,5	0,002
456	0,001
456,4	-0
456,9	0
457,3	0
457,8	0
458,3	-0
458,7	-0
459,2	-0
459,6	0
460,1	0
460,5	-0
461	-0
461,4	-0,001
461,9	-0,001
462,3	-0,001
462,8	-0,001
463,2	-0,001
463,7	-0,001
464,1	-0,002
464,6	-0,001
465	-0,002
465,5	-0,002
466	-0,002
466,4	-0,002
466,9	-0,002
467,3	-0,001
467,8	-0,001
468,2	-0,001
468,7	-0,001
469,1	-0,001
469,6	-0,001
470	-0,001
470,5	-0,001
470,9	-0,001
471,4	-0,001
471,8	-0,002
472,3	-0,002
472,7	-0,002
473,2	-0,002
473,6	-0,001
474,1	-0,001
474,5	-0
475	0
475,4	-0
475,9	-0
476,4	-0,001
476,8	-0,002
477,3	-0,002
477,7	-0,002
478,2	-0,002
478,6	-0,001
479,1	-0,001
479,5	-0,001
480	-0,001
480,4	-0,001
480,9	-0,001
481,3	-0,002
481,8	-0,002
482,2	-0,003
482,7	-0,002
483,1	-0,003
483,6	-0,003
484	-0,002
484,5	-0,002
484,9	-0,001
485,4	-0,001
485,8	-0,002
486,3	0
486,7	-0
487,2	-0,001
487,6	-0,001
488,1	-0,001
488,5	-0,001
489	-0,001
489,4	-0,003
489,9	-0,003
490,4	-0,001
490,8	-0,001
491,3	-0,001
491,7	-0,001
492,2	-0
492,6	-0
493,1	-0
493,5	-0
494	-0
494,4	0
494,9	-0
495,3	0
495,8	-0
496,2	0
496,7	0
497,1	0
497,6	0
498	0
498,5	-0
498,9	-0
499,4	-0,001
499,8	-0,001
500,3	-0,002
500,7	-0,002
501,2	-0,003
501,6	-0,003
502,1	-0,003
502,5	-0,003
503	-0,003
503,4	-0,002
503,9	-0,002
504,3	-0,001
504,8	-0,001
505,2	-0,001
505,7	-0,002
506,1	-0,001
506,6	-0,002
507	-0,002
507,5	-0,002
507,9	-0,002
508,4	-0,001
508,8	-0,001
509,3	-0
509,7	-0
510,2	-0,001
510,6	-0,001
511,1	-0,001
511,5	-0,001
512	-0,001
512,4	-0,002
512,9	-0,002
513,3	-0,002
513,8	-0,002
514,2	-0,001
514,7	-0,001
515,1	-0,001
515,6	-0,001
516	-0,001
516,5	-0,001
516,9	-0,001
517,4	-0,002
517,8	-0,003
518,3	-0,002
518,7	-0,001
519,2	-0,001
519,6	-0
520,1	-0
520,5	0
521	0
521,4	0
521,9	-0
522,3	-0,001
522,8	-0,002
523,2	-0,002
523,7	-0,001
524,1	-0,002
524,6	-0,002
525	-0,002
525,5	-0,001
525,9	-0,001
526,4	-0,001
526,8	-0,001
527,3	-0,001
527,7	-0,001
528,2	-0,001
528,6	-0,001
529,1	-0,001
529,5	-0
530	-0,001
530,4	-0,001
530,9	-0,001
531,3	-0
531,8	-0
532,2	-0,001
532,6	-0,001
533,1	-0,002
533,5	-0,002
534	-0,002
534,4	-0,002
534,9	-0,002
535,3	-0,002
535,8	-0,002
536,2	-0,002
536,7	-0,001
537,1	-0,002
537,6	-0,001
538	-0,001
538,5	-0,001
538,9	-0,001
539,4	-0,001
539,8	-0,001
540,3	-0,001
540,7	-0,002
541,2	-0,002
541,6	-0,002
542,1	-0,002
542,5	-0,002
543	-0,003
543,4	-0,003
543,9	-0,002
544,3	-0,002
544,8	-0,002
545,2	-0,002
545,7	-0,002
546,1	-0,002
546,5	-0,002
547	-0,002
547,4	-0,002
547,9	-0,002
548,3	-0,002
548,8	-0,001
549,2	-0,001
549,7	-0,002
550,1	-0,002
550,6	-0,002
551	-0,003
551,5	-0,003
551,9	-0,004
552,4	-0,004
552,8	-0,003
553,3	-0,003
553,7	-0,002
554,2	-0,001
554,6	-0,001
555,1	-0,001
555,5	-0,001
555,9	-0,001
556,4	-0,002
556,8	-0,001
557,3	-0,002
557,7	-0,002
558,2	-0,002
558,6	-0,002
559,1	-0,002
559,5	-0,002
560	-0,002
560,4	-0,002
560,9	-0,003
561,3	-0,003
561,8	-0,003
562,2	-0,003
562,7	-0,002
563,1	-0,002
563,6	-0,002
564	-0,001
564,4	-0,001
564,9	-0,001
565,3	-0,001
565,8	-0,001
566,2	-0,001
566,7	-0,001
567,1	-0,001
567,6	-0,001
568	-0,001
568,5	-0,001
568,9	-0,001
569,4	-0,001
569,8	-0,001
570,3	-0,001
570,7	-0,001
571,1	-0,001
571,6	-0,001
572	-0,001
572,5	-0,001
572,9	-0,002
573,4	-0,001
573,8	-0,001
574,3	-0,001
574,7	-0,001
575,2	-0,001
575,6	-0,001
576,1	-0,001
576,5	-0,002
576,9	-0,001
577,4	-0,001
577,8	-0,001
578,3	-0,001
578,7	-0,001
579,2	-0,001
579,6	-0,001
580,1	-0,001
580,5	-0,001
581	-0,002
581,4	-0,001
581,9	-0,001
582,3	-0,001
582,7	-0,002
583,2	-0,002
583,6	-0,002
584,1	-0,001
584,5	-0,002
585	-0,002
585,4	-0,001
585,9	-0
586,3	0
586,8	0
587,2	-0
587,6	0
588,1	-0
588,5	-0
589	-0,001
589,4	-0,001
589,9	-0,001
590,3	-0,001
590,8	-0,001
591,2	-0,001
591,7	-0,001
592,1	-0,001
592,5	-0
593	-0
593,4	-0,001
593,9	-0,001
594,3	-0,001
594,8	-0,001
595,2	-0,001
595,7	-0,001
596,1	-0,002
596,6	-0,002
597	-0,001
597,4	-0,001
597,9	-0,002
598,3	-0,002
598,8	-0,002
599,2	-0,002
599,7	-0,002
600,1	-0,002
600,6	-0,002
601	-0,002
601,4	-0,001
601,9	-0,002
602,3	-0,002
602,8	-0,002
603,2	-0,001
603,7	-0,002
604,1	-0,002
604,6	-0,001
605	-0,001
605,4	-0,001
605,9	-0,001
606,3	-0,002
606,8	-0,002
607,2	-0,002
607,7	-0,002
608,1	-0,002
608,6	-0,002
609	-0,001
609,4	-0,001
609,9	-0,001
610,3	-0,001
610,8	-0,001
611,2	-0,001
611,7	-0,001
612,1	-0,001
612,6	-0,001
613	-0,001
613,4	-0,001
613,9	-0,001
614,3	-0,001
614,8	-0,001
615,2	-0,001
615,7	-0,001
616,1	-0,001
616,6	-0,001
617	-0,001
617,4	-0,001
617,9	-0,001
618,3	-0,002
618,8	-0,001
619,2	-0,001
619,7	-0,001
620,1	-0,001
620,5	-0,001
621	-0,002
621,4	-0,001
621,9	-0,001
622,3	-0,001
622,8	-0,001
623,2	-0,002
623,6	-0,001
624,1	-0,001
624,5	-0,001
625	-0,002
625,4	-0,002
625,9	-0,002
626,3	-0,002
626,8	-0,001
627,2	-0,001
627,6	-0,001
628,1	-0
628,5	-0
629	-0,001
629,4	-0,001
629,9	-0,001
630,3	-0,002
630,7	-0,001
631,2	-0,002
631,6	-0,002
632,1	-0,001
632,5	-0,002
633	-0,001
633,4	-0,001
633,8	-0,001
634,3	-0,001
634,7	-0,001
635,2	-0
635,6	-0
636,1	-0,001
636,5	-0,001
636,9	-0,001
637,4	-0,001
637,8	-0,002
638,3	-0,002
638,7	-0,002
639,2	-0,002
639,6	-0,002
640	-0,002
640,5	-0,002
640,9	-0,002
641,4	-0,003
641,8	-0,003
642,2	-0,003
642,7	-0,003
643,1	-0,003
643,6	-0,003
644	-0,003
644,5	-0,003
644,9	-0,002
645,3	-0,002
645,8	-0,002
646,2	-0,002
646,7	-0,002
647,1	-0,002
647,6	-0,002
648	-0,002
648,4	-0,002
648,9	-0,002
649,3	-0,002
649,8	-0,002
650,2	-0,002
650,6	-0,002
651,1	-0,002
651,5	-0,002
652	-0,003
652,4	-0,003
652,9	-0,003
653,3	-0,003
653,7	-0,004
654,2	-0,004
654,6	-0,005
655,1	-0,006
655,5	-0,004
655,9	-0,003
656,4	-0,002
656,8	-0,003
657,3	-0,003
657,7	-0,003
658,2	-0,002
658,6	-0,002
659	-0,002
659,5	-0,002
659,9	0,003
660,4	0,005
660,8	0,004
661,2	0,003
661,7	0,003
662,1	0,001
662,6	0,001
663	-0
663,4	-0,001
663,9	-0,001
664,3	-0,001
664,8	-0,002
665,2	-0,002
665,6	-0,002
666,1	-0,002
666,5	-0,002
667	-0,002
667,4	-0,002
667,9	-0,001
668,3	-0,001
668,7	-0,001
669,2	-0,001
669,6	-0,001
670,1	-0,002
670,5	-0,002
670,9	-0,002
671,4	-0,002
671,8	-0,002
672,3	-0,002
672,7	-0,002
673,1	-0,002
673,6	-0,002
674	-0,002
674,5	-0,002
674,9	-0,002
675,3	-0,002
675,8	-0,002
676,2	-0,002
676,7	-0,002
677,1	-0,002
677,5	-0,002
678	-0,002
678,4	-0,002
678,9	-0,001
679,3	-0,001
679,7	-0,001
680,2	-0,001
680,6	-0,001
681,1	-0,001
681,5	-0,002
681,9	-0,002
682,4	-0,002
682,8	-0,003
683,3	-0,003
683,7	-0,003
684,1	-0,003
684,6	-0,003
685	-0,003
685,5	-0,003
685,9	-0,003
686,3	-0,003
686,8	-0,003
687,2	-0,003
687,7	-0,003
688,1	-0,003
688,5	-0,003
689	-0,003
689,4	-0,003
689,9	-0,003
690,3	-0,002
690,7	-0,002
691,2	-0,002
691,6	-0,002
692	-0,002
692,5	-0,002
692,9	-0,002
693,4	-0,003
693,8	-0,003
694,2	-0,003
694,7	-0,002
695,1	-0,002
695,6	-0,002
696	-0,002
696,4	-0,002
696,9	-0,002
697,3	-0,002
697,8	-0,002
698,2	-0,003
698,6	-0,003
699,1	-0,003
699,5	-0,003
699,9	-0,003
700,4	-0,002
700,8	-0,002
701,3	-0,003
701,7	-0,002
702,1	-0,002
702,6	-0,002
703	-0,002
703,5	-0,002
703,9	-0,002
704,3	-0,002
704,8	-0,002
705,2	-0,002
705,6	-0,002
706,1	-0,002
706,5	-0,003
707	-0,003
707,4	-0,003
707,8	-0,003
708,3	-0,003
708,7	-0,003
709,2	-0,002
709,6	-0,002
710	-0,002
710,5	-0,001
710,9	-0,001
711,3	-0,002
711,8	-0,002
712,2	-0,002
712,7	-0,002
713,1	-0,002
713,5	-0,002
714	-0,002
714,4	-0,002
714,8	-0,001
715,3	-0,001
715,7	-0,001
716,2	-0,001
716,6	-0,001
717	-0,001
717,5	-0,001
717,9	-0,001
718,3	-0,001
718,8	-0,001
719,2	-0,001
719,7	-0,001
720,1	-0,001
720,5	-0,001
721	-0,002
721,4	-0,002
721,8	-0,002
722,3	-0,002
722,7	-0,002
723,2	-0,002
723,6	-0,002
724	-0,002
724,5	-0,002
724,9	-0,002
725,3	-0,001
725,8	-0,002
726,2	-0,001
726,7	-0,001
727,1	-0,001
727,5	-0,001
728	-0,001
728,4	-0,001
728,8	-0,001
729,3	-0,001
729,7	-0,001
730,1	-0,001
730,6	-0,001
731	-0,001
731,5	-0,001
731,9	-0,002
732,3	-0,001
732,8	-0,001
733,2	-0,002
733,6	-0,002
734,1	-0,002
734,5	-0,002
734,9	-0,002
735,4	-0,003
735,8	-0,003
736,3	-0,003
736,7	-0,002
737,1	-0,003
737,6	-0,003
738	-0,002
738,4	-0,002
738,9	-0,001
739,3	-0,001
739,7	-0,002
740,2	-0,002
740,6	-0,002
741,1	-0,002
741,5	-0,002
741,9	-0,002
742,4	-0,002
742,8	-0,002
743,2	-0,002
743,7	-0,002
744,1	-0,002
744,5	-0,001
745	-0,001
745,4	-0,001
745,8	-0,001
746,3	-0,001
746,7	-0,001
747,2	-0,002
747,6	-0,002
748	-0,003
748,5	-0,003
748,9	-0,003
749,3	-0,003
749,8	-0,002
750,2	-0,003
750,6	-0,003
751,1	-0,003
751,5	-0,003
751,9	-0,003
752,4	-0,003
752,8	-0,003
753,3	-0,003
753,7	-0,003
754,1	-0,003
754,6	-0,002
755	-0,002
755,4	-0,002
755,9	-0,002
756,3	-0,001
756,7	-0,001
757,2	-0,001
757,6	-0,001
758	-0,001
758,5	-0,001
758,9	-0,001
759,3	-0,001
759,8	-0,001
760,2	-0,001
760,6	-0,001
761,1	-0,001
761,5	-0,001
761,9	-0,001
762,4	-0,001
762,8	-0,001
763,3	-0,001
763,7	-0,001
764,1	-0,001
764,6	-0,001
765	-0,001
765,4	-0,002
765,9	-0,002
766,3	-0,002
766,7	-0,002
767,2	-0,002
767,6	-0,002
768	-0,002
768,5	-0,002
768,9	-0,003
769,3	-0,003
769,8	-0,003
770,2	-0,003
770,6	-0,003
771,1	-0,003
771,5	-0,004
771,9	-0,003
772,4	-0,003
772,8	-0,003
773,2	-0,004
773,7	-0,003
774,1	-0,004
774,5	-0,003
775	-0,003
775,4	-0,003
775,8	-0,003
776,3	-0,003
776,7	-0,003
777,1	-0,003
777,6	-0,003
778	-0,003
778,4	-0,003
778,9	-0,003
779,3	-0,002
779,7	-0,002
780,2	-0,003
780,6	-0,003
781	-0,003
781,5	-0,003
781,9	-0,003
782,3	-0,003
782,8	-0,003
783,2	-0,003
783,6	-0,003
784,1	-0,003
784,5	-0,003
784,9	-0,002
785,4	-0,002
785,8	-0,002
786,2	-0,002
786,7	-0,002
787,1	-0,002
787,5	-0,003
788	-0,003
788,4	-0,003
788,8	-0,003
789,3	-0,003
789,7	-0,002
790,1	-0,002
790,6	-0,002
791	-0,002
791,4	-0,002
791,9	-0,002
792,3	-0,002
792,7	-0,002
793,2	-0,002
793,6	-0,002
794	-0,002
794,5	-0,002
794,9	-0,002
795,3	-0,001
795,8	-0,001
796,2	-0,001
796,6	-0,001
797,1	-0,001
797,5	-0,001
797,9	-0,001
798,4	-0,001
798,8	-0,001
799,2	-0,001
799,7	-0,001
800,1	-0,001
800,5	-0,001
801	-0,001
801,4	-0,002
801,8	-0,002
802,2	-0,002
802,7	-0,002
803,1	-0,002
803,5	-0,002
804	-0,002
804,4	-0,002
804,8	-0,002
805,3	-0,002
805,7	-0,002
806,1	-0,002
806,6	-0,002
807	-0,002
807,4	-0,002
807,9	-0,002
808,3	-0,002
808,7	-0,002
809,2	-0,002
809,6	-0,002
810	-0,002
810,4	-0,002
810,9	-0,002
811,3	-0,002
811,7	-0,002
812,2	-0,002
812,6	-0,002
813	-0,002
813,5	-0,002
813,9	-0,002
814,3	-0,002
814,8	-0,002
815,2	-0,002
815,6	-0,002
816,1	-0,002
816,5	-0,002
816,9	-0,002
817,3	-0,002
817,8	-0,001
818,2	-0,002
818,6	-0,002
819,1	-0,001
819,5	-0,002
819,9	-0,001
820,4	-0,002
820,8	-0,002
821,2	-0,002
821,7	-0,002
822,1	-0,002
822,5	-0,001
822,9	-0,001
823,4	-0,001
823,8	-0,001
824,2	-0,001
824,7	-0,001
825,1	-0,001
825,5	-0,001
826	-0,001
826,4	-0,001
826,8	-0,002
827,3	-0,002
827,7	-0,002
828,1	-0,002
828,5	-0,002
829	-0,003
829,4	-0,003
829,8	-0,003
830,3	-0,003
830,7	-0,003
831,1	-0,003
831,6	-0,003
832	-0,003
832,4	-0,003
832,8	-0,003
833,3	-0,003
833,7	-0,003
834,1	-0,003
834,6	-0,003
835	-0,003
835,4	-0,003
835,8	-0,003
836,3	-0,003
836,7	-0,003
837,1	-0,003
837,6	-0,003
838	-0,002
838,4	-0,002
838,9	-0,002
839,3	-0,003
839,7	-0,003
840,1	-0,003
840,6	-0,003
841	-0,003
841,4	-0,003
841,9	-0,003
842,3	-0,002
842,7	-0,002
843,1	-0,002
843,6	-0,003
844	-0,003
844,4	-0,003
844,9	-0,003
845,3	-0,003
845,7	-0,003
846,2	-0,003
846,6	-0,003
847	-0,003
847,4	-0,003
847,9	-0,003
848,3	-0,003
848,7	-0,003
849,2	-0,003
849,6	-0,003
850	-0,002
850,4	-0,002
850,9	-0,002
851,3	-0,002
851,7	-0,002
852,2	-0,002
852,6	-0,002
853	-0,003
853,4	-0,003
853,9	-0,002
854,3	-0,002
854,7	-0,002
855,2	-0,002
855,6	-0,002
856	-0,002
856,4	-0,002
856,9	-0,003
857,3	-0,002
857,7	-0,003
858,2	-0,003
858,6	-0,003
859	-0,003
859,4	-0,003
859,9	-0,003
860,3	-0,003
860,7	-0,003
861,1	-0,003
861,6	-0,003
862	-0,002
862,4	-0,002
862,9	-0,002
863,3	-0,002
863,7	-0,002
864,1	-0,002
864,6	-0,003
865	-0,003
865,4	-0,003
865,9	-0,003
866,3	-0,003
866,7	-0,003
867,1	-0,003
867,6	-0,003
868	-0,002
868,4	-0,003
868,8	-0,003
869,3	-0,003
869,7	-0,002
870,1	-0,003
870,6	-0,003
871	-0,003
871,4	-0,004
871,8	-0,004
872,3	-0,004
872,7	-0,004
873,1	-0,004
873,5	-0,004
874	-0,004
874,4	-0,004
874,8	-0,004
875,3	-0,004
875,7	-0,004
876,1	-0,004
876,5	-0,004
877	-0,003
877,4	-0,003
877,8	-0,003
878,2	-0,003
878,7	-0,003
879,1	-0,003
879,5	-0,003
879,9	-0,003
880,4	-0,003
880,8	-0,003
881,2	-0,003
881,7	-0,004
882,1	-0,004
882,5	-0,004
882,9	-0,004
883,4	-0,004
883,8	-0,004
884,2	-0,004
884,6	-0,003
885,1	-0,003
885,5	-0,004
885,9	-0,004
886,3	-0,004
886,8	-0,003
887,2	-0,004
887,6	-0,004
888	-0,004
888,5	-0,004
888,9	-0,003
889,3	-0,003
889,8	-0,003
890,2	-0,002
890,6	-0,002
891	-0,002
891,5	-0,001
891,9	-0,001
892,3	-0,001
892,7	-0,001
893,2	-0,001
893,6	-0,001
894	-0,001
894,4	-0,002
894,9	-0,002
895,3	-0,002
895,7	-0,002
896,1	-0,002
896,6	-0,003
897	-0,003
897,4	-0,003
897,8	-0,003
898,3	-0,003
898,7	-0,003
899,1	-0,003
899,5	-0,003
900	-0,002
900,4	-0,002
900,8	-0,002
901,2	-0,002
901,7	-0,002
902,1	-0,002
902,5	-0,002
902,9	-0,003
903,4	-0,003
903,8	-0,003
904,2	-0,003
904,6	-0,003
905,1	-0,003
905,5	-0,002
905,9	-0,002
906,3	-0,002
906,8	-0,002
907,2	-0,002
907,6	-0,001
908	-0,001
908,5	-0,001
908,9	-0,001
909,3	-0,001
909,7	-0
910,2	-0
910,6	-0
911	-0
911,4	-0
911,9	-0
912,3	-0
912,7	-0
913,1	0
913,6	0
914	0
914,4	0
914,8	-0
915,3	-0,001
915,7	-0
916,1	-0,001
916,5	-0
916,9	-0,001
917,4	-0,001
917,8	-0,001
918,2	-0,001
918,6	-0,001
919,1	-0,001
919,5	-0,001
919,9	-0,001
920,3	-0,002
920,8	-0,002
921,2	-0,002
921,6	-0,002
922	-0,002
922,5	-0,002
922,9	-0,002
923,3	-0,002
923,7	-0,002
924,2	-0,002
924,6	-0,002
925	-0,002
925,4	-0,002
925,8	-0,002
926,3	-0,002
926,7	-0,002
927,1	-0,002
927,5	-0,002
928	-0,002
928,4	-0,002
928,8	-0,002
929,2	-0,002
929,7	-0,002
930,1	-0,002
930,5	-0,003
930,9	-0,003
931,3	-0,003
931,8	-0,004
932,2	-0,004
932,6	-0,004
933	-0,003
933,5	-0,003
933,9	-0,003
934,3	-0,004
934,7	-0,004
935,2	-0,004
935,6	-0,004
936	-0,004
936,4	-0,004
936,8	-0,004
937,3	-0,004
937,7	-0,004
938,1	-0,003
938,5	-0,004
939	-0,004
939,4	-0,004
939,8	-0,003
940,2	-0,003
940,6	-0,003
941,1	-0,003
941,5	-0,003
941,9	-0,002
942,3	-0,002
942,8	-0,003
943,2	-0,003
943,6	-0,003
944	-0,004
944,4	-0,003
944,9	-0,003
945,3	-0,004
945,7	-0,004
946,1	-0,003
946,6	-0,003
947	-0,003
947,4	-0,004
947,8	-0,004
948,2	-0,004
948,7	-0,004
949,1	-0,005
949,5	-0,005
949,9	-0,006
950,3	-0,006
950,8	-0,006
951,2	-0,006
951,6	-0,006
952	-0,006
952,5	-0,006
952,9	-0,005
953,3	-0,006
953,7	-0,005
954,1	-0,006
954,6	-0,006
955	-0,007
955,4	-0,007
955,8	-0,008
956,2	-0,007
956,7	-0,007
957,1	-0,007
957,5	-0,007
957,9	-0,008
958,3	-0,008
958,8	-0,008
959,2	-0,008
959,6	-0,009
960	-0,009
960,5	-0,009
960,9	-0,009
961,3	-0,009
961,7	-0,009
962,1	-0,009
962,6	-0,009
963	-0,009
963,4	-0,008
963,8	-0,007
964,2	-0,008
964,7	-0,008
965,1	-0,008
965,5	-0,008
965,9	-0,007
966,3	-0,007
966,8	-0,008
967,2	-0,007
967,6	-0,006
968	-0,006
968,4	-0,006
968,9	-0,006
969,3	-0,005
969,7	-0,005
970,1	-0,004
970,5	-0,004
971	-0,004
971,4	-0,004
971,8	-0,005
972,2	-0,005
972,6	-0,006
973,1	-0,007
973,5	-0,007
973,9	-0,008
974,3	-0,007
974,7	-0,007
975,2	-0,007
975,6	-0,007
976	-0,006
976,4	-0,006
976,8	-0,007
977,3	-0,007
977,7	-0,007
978,1	-0,007
978,5	-0,007
978,9	-0,007
979,4	-0,007
979,8	-0,007
980,2	-0,006
980,6	-0,007
981	-0,006
981,5	-0,007
981,9	-0,006
982,3	-0,007
982,7	-0,007
983,1	-0,007
983,6	-0,007
984	-0,007
984,4	-0,007
984,8	-0,008
985,2	-0,008
985,6	-0,008
986,1	-0,008
986,5	-0,007
986,9	-0,006
987,3	-0,006
987,7	-0,005
988,2	-0,005
988,6	-0,005
989	-0,005
989,4	-0,005
989,8	-0,005
990,3	-0,005
990,7	-0,005
991,1	-0,005
991,5	-0,005
991,9	-0,004
992,3	-0,004
992,8	-0,005
993,2	-0,005
993,6	-0,004
994	-0,005
994,4	-0,005
994,9	-0,005
995,3	-0,005
995,7	-0,004
996,1	-0,004
996,5	-0,005
996,9	-0,005
997,4	-0,005
997,8	-0,005
998,2	-0,005
998,6	-0,005
999	-0,005
999,5	-0,004
999,9	-0,005
1000,3	-0,004
1000,7	-0,004
1001,1	-0,003
1001,5	-0,003
1002	-0,003
1002,4	-0,002
1002,8	-0,002
1003,2	-0,002
1003,6	-0,001
1004	-0,001
1004,5	-0,001
1004,9	-0,002
1005,3	-0,002
1005,7	-0,001
1006,1	-0,002
1006,6	-0,002
1007	-0,002
1007,4	-0,002
1007,8	-0,001
1008,2	-0,001
1008,6	-0,001
1009,1	-0
1009,5	-0
1009,9	-0
1010,3	-0
1010,7	-0
1011,1	-0,001
1011,6	-0
1012	-0,001
1012,4	-0
1012,8	0
1013,2	-0
1013,6	-0
1014,1	-0,001
1014,5	-0,002
1014,9	-0,002
1015,3	-0,003
1015,7	-0,002
1016,1	-0,002
1016,6	-0,002
1017	-0,003
1017,4	-0,002
1017,8	-0,002
1018,2	-0,001
1018,6	-0,002
1019,1	-0,001
1019,5	-0,001
1019,9	-0,001
1020,3	-0,001
1020,7	-0
1021,1	-0,001
1021,6	-0
1022	-0
1022,4	-0
1022,8	-0
1023,2	0
1023,6	0
1024,1	0
1024,5	-0
1024,9	-0,001
1025,3	-0,002
1025,7	-0,003
1026,1	-0,003
1026,6	-0,004
1027	-0,004
1027,4	-0,004
1027,8	-0,004
1028,2	-0,003
1028,6	-0,002
1029	-0,002
1029,5	-0,002
1029,9	-0,001
1030,3	-0,001
1030,7	-0,001
1031,1	-0,002
1031,5	-0,002
1032	-0,002
1032,4	-0,001
1032,8	-0,001
1033,2	-0,002
1033,6	-0,001
1034	-0,002
1034,4	-0,003
1034,9	-0,003
1035,3	-0,003
1035,7	-0,004
1036,1	-0,004
1036,5	-0,004
1036,9	-0,002
1037,4	-0,001
1037,8	-0,001
1038,2	-0,001
1038,6	-0,001
1039	-0,001
1039,4	-0,001
1039,8	-0,002
1040,3	-0,003
1040,7	-0,002
1041,1	-0,002
1041,5	-0,001
1041,9	-0,001
1042,3	-0,002
1042,7	-0,002
1043,2	-0,002
1043,6	-0,002
1044	-0,003
1044,4	-0,004
1044,8	-0,005
1045,2	-0,005
1045,6	-0,005
1046,1	-0,005
1046,5	-0,004
1046,9	-0,004
1047,3	-0,004
1047,7	-0,003
1048,1	-0,003
1048,5	-0,003
1049	-0,004
1049,4	-0,005
1049,8	-0,005
1050,2	-0,006
1050,6	-0,006
1051	-0,006
1051,4	-0,006
1051,9	-0,006
1052,3	-0,005
1052,7	-0,005
1053,1	-0,004
1053,5	-0,002
1053,9	-0,003
1054,3	-0,002
1054,8	-0,002
1055,2	-0,002
1055,6	-0,002
1056	-0,002
1056,4	-0,002
1056,8	-0,001
1057,2	-0,001
1057,6	-0,001
1058,1	-0,001
1058,5	-0,001
1058,9	-0,001
1059,3	-0,001
1059,7	-0,001
1060,1	-0,002
1060,5	-0,001
1061	-0,002
1061,4	-0,003
1061,8	-0,004
1062,2	-0,004
1062,6	-0,004
1063	-0,003
1063,4	-0,003
1063,8	-0,004
1064,3	-0,003
1064,7	-0,003
1065,1	-0,003
1065,5	-0,004
1065,9	-0,004
1066,3	-0,004
1066,7	-0,003
1067,1	-0,002
1067,6	-0,002
1068	-0,003
1068,4	-0,002
1068,8	-0,003
1069,2	-0,003
1069,6	-0,004
1070	-0,005
1070,4	-0,005
1070,9	-0,006
1071,3	-0,006
1071,7	-0,005
1072,1	-0,006
1072,5	-0,007
1072,9	-0,006
1073,3	-0,006
1073,7	-0,006
1074,2	-0,006
1074,6	-0,007
1075	-0,007
1075,4	-0,006
1075,8	-0,006
1076,2	-0,006
1076,6	-0,005
1077	-0,006
1077,5	-0,005
1077,9	-0,006
1078,3	-0,006
1078,7	-0,006
1079,1	-0,005
1079,5	-0,005
1079,9	-0,004
1080,3	-0,005
1080,7	-0,005
1081,2	-0,006
1081,6	-0,006
1082	-0,009
1082,4	-0,01
1082,8	-0,011
1083,2	-0,011
1083,6	-0,01
1084	-0,01
1084,5	-0,01
1084,9	-0,009
1085,3	-0,009
1085,7	-0,008
1086,1	-0,008
1086,5	-0,008
1086,9	-0,008
1087,3	-0,007
1087,7	-0,008
1088,2	-0,007
1088,6	-0,009
1089	-0,009
1089,4	-0,011
1089,8	-0,014
1090,2	-0,016
1090,6	-0,014
1091	-0,015
1091,4	-0,016
1091,9	-0,016
1092,3	-0,017
1092,7	-0,019
1093,1	-0,018
1093,5	-0,02
1093,9	-0,022
1094,3	-0,02
1094,7	-0,019
1095,1	-0,017
1095,5	-0,015
1096	-0,014
1096,4	-0,013
1096,8	-0,008
1097,2	-0,012
1097,6	-0,018
1098	-0,018
1098,4	-0,018
1098,8	-0,021
1099,2	-0,022
1099,6	-0,026
1100,1	-0,022
1100,5	-0,019
1100,9	-0,023
1101,3	-0,021
1101,7	-0,023
1102,1	-0,026
1102,5	-0,027
1102,9	-0,032
1103,3	-0,035
1103,7	-0,042
1104,2	-0,047
1104,6	-0,053
1105	-0,069
1105,4	-0,073
1105,8	-0,063
1106,2	-0,066
1106,6	-0,079
1107	-0,095
1107,4	-0,108
1107,8	-0,06
1108,3	0,555
