Data from Absorbance_00013.txt Node
Date: Wed Aug 02 13:43:03 MSK 2023
User: vat
Spectrometer: MAYP114033
Trigger mode: 0
Integration Time (sec): 8,000000E-3
Scans to average: 10
Electric dark correction enabled: true
Nonlinearity correction enabled: false
Boxcar width: 3
XAxis mode: Wavelengths
Number of Pixels in Spectrum: 2068
>>>>>Begin Spectral Data<<<<<
199,4	-0,876
199,9	-0,212
200,4	0,15
200,8	0,621
201,3	0,817
201,8	0,896
202,2	0,964
202,7	0,989
203,2	1,059
203,6	1,105
204,1	1,084
204,6	1,089
205	1,097
205,5	1,092
206	1,113
206,4	1,117
206,9	1,128
207,4	1,16
207,8	1,176
208,3	1,195
208,8	1,206
209,2	1,213
209,7	1,242
210,2	1,263
210,6	1,276
211,1	1,279
211,5	1,292
212	1,314
212,5	1,325
212,9	1,332
213,4	1,355
213,9	1,384
214,3	1,403
214,8	1,4
215,3	1,405
215,7	1,426
216,2	1,432
216,7	1,435
217,1	1,443
217,6	1,455
218,1	1,483
218,5	1,499
219	1,522
219,5	1,532
219,9	1,559
220,4	1,568
220,9	1,581
221,3	1,599
221,8	1,628
222,3	1,64
222,7	1,68
223,2	1,696
223,6	1,705
224,1	1,729
224,6	1,749
225	1,758
225,5	1,774
226	1,781
226,4	1,794
226,9	1,814
227,4	1,823
227,8	1,822
228,3	1,854
228,8	1,878
229,2	1,873
229,7	1,884
230,2	1,908
230,6	1,923
231,1	1,958
231,5	1,948
232	1,933
232,5	1,946
232,9	1,941
233,4	1,957
233,9	1,972
234,3	1,962
234,8	1,99
235,3	2,01
235,7	2,026
236,2	2,04
236,7	2,033
237,1	2,054
237,6	2,082
238,1	2,104
238,5	2,098
239	2,106
239,4	2,107
239,9	2,123
240,4	2,115
240,8	2,113
241,3	2,078
241,8	2,095
242,2	2,089
242,7	2,097
243,2	2,106
243,6	2,1
244,1	2,082
244,6	2,113
245	2,124
245,5	2,144
245,9	2,132
246,4	2,121
246,9	2,134
247,3	2,16
247,8	2,155
248,3	2,158
248,7	2,121
249,2	2,133
249,7	2,153
250,1	2,153
250,6	2,161
251	2,149
251,5	2,154
252	2,193
252,4	2,221
252,9	2,199
253,4	2,191
253,8	2,174
254,3	2,169
254,8	2,17
255,2	2,176
255,7	2,156
256,1	2,18
256,6	2,199
257,1	2,212
257,5	2,217
258	2,205
258,5	2,191
258,9	2,19
259,4	2,169
259,9	2,163
260,3	2,164
260,8	2,175
261,2	2,173
261,7	2,177
262,2	2,186
262,6	2,19
263,1	2,189
263,6	2,178
264	2,172
264,5	2,172
264,9	2,164
265,4	2,146
265,9	2,156
266,3	2,157
266,8	2,18
267,3	2,176
267,7	2,195
268,2	2,226
268,7	2,235
269,1	2,227
269,6	2,245
270	2,216
270,5	2,234
271	2,207
271,4	2,192
271,9	2,199
272,4	2,202
272,8	2,192
273,3	2,21
273,7	2,19
274,2	2,215
274,7	2,191
275,1	2,207
275,6	2,203
276,1	2,182
276,5	2,172
277	2,163
277,4	2,169
277,9	2,174
278,4	2,171
278,8	2,175
279,3	2,186
279,8	2,186
280,2	2,188
280,7	2,148
281,1	2,139
281,6	2,109
282,1	2,071
282,5	2,019
283	1,973
283,4	1,927
283,9	1,866
284,4	1,801
284,8	1,738
285,3	1,683
285,8	1,626
286,2	1,565
286,7	1,511
287,1	1,467
287,6	1,427
288,1	1,393
288,5	1,36
289	1,331
289,5	1,307
289,9	1,286
290,4	1,268
290,8	1,255
291,3	1,241
291,8	1,226
292,2	1,217
292,7	1,213
293,1	1,207
293,6	1,203
294,1	1,198
294,5	1,192
295	1,188
295,5	1,185
295,9	1,179
296,4	1,174
296,8	1,168
297,3	1,163
297,8	1,16
298,2	1,157
298,7	1,15
299,1	1,146
299,6	1,142
300,1	1,138
300,5	1,133
301	1,127
301,5	1,124
301,9	1,12
302,4	1,115
302,8	1,11
303,3	1,103
303,8	1,098
304,2	1,092
304,7	1,085
305,1	1,077
305,6	1,073
306,1	1,066
306,5	1,059
307	1,051
307,4	1,045
307,9	1,037
308,4	1,03
308,8	1,023
309,3	1,014
309,8	1,007
310,2	0,998
310,7	0,99
311,1	0,982
311,6	0,975
312,1	0,966
312,5	0,958
313	0,949
313,4	0,944
313,9	0,935
314,4	0,927
314,8	0,92
315,3	0,911
315,7	0,902
316,2	0,893
316,7	0,883
317,1	0,874
317,6	0,864
318	0,853
318,5	0,844
319	0,836
319,4	0,827
319,9	0,819
320,3	0,81
320,8	0,803
321,3	0,794
321,7	0,786
322,2	0,777
322,6	0,768
323,1	0,759
323,6	0,749
324	0,74
324,5	0,732
324,9	0,724
325,4	0,714
325,9	0,704
326,3	0,696
326,8	0,687
327,2	0,677
327,7	0,667
328,2	0,658
328,6	0,649
329,1	0,64
329,5	0,63
330	0,622
330,5	0,614
330,9	0,606
331,4	0,597
331,8	0,589
332,3	0,581
332,8	0,573
333,2	0,565
333,7	0,556
334,1	0,549
334,6	0,541
335,1	0,533
335,5	0,525
336	0,517
336,4	0,51
336,9	0,502
337,4	0,493
337,8	0,485
338,3	0,478
338,7	0,469
339,2	0,462
339,7	0,454
340,1	0,448
340,6	0,441
341	0,434
341,5	0,425
342	0,419
342,4	0,412
342,9	0,405
343,3	0,398
343,8	0,391
344,2	0,384
344,7	0,378
345,2	0,372
345,6	0,366
346,1	0,36
346,5	0,354
347	0,348
347,5	0,342
347,9	0,337
348,4	0,331
348,8	0,325
349,3	0,319
349,8	0,314
350,2	0,308
350,7	0,303
351,1	0,299
351,6	0,294
352	0,289
352,5	0,284
353	0,279
353,4	0,274
353,9	0,269
354,3	0,264
354,8	0,26
355,3	0,256
355,7	0,252
356,2	0,248
356,6	0,245
357,1	0,241
357,5	0,236
358	0,233
358,5	0,228
358,9	0,224
359,4	0,22
359,8	0,216
360,3	0,213
360,8	0,209
361,2	0,205
361,7	0,202
362,1	0,199
362,6	0,195
363	0,192
363,5	0,189
364	0,186
364,4	0,183
364,9	0,179
365,3	0,176
365,8	0,173
366,3	0,17
366,7	0,167
367,2	0,165
367,6	0,162
368,1	0,16
368,5	0,158
369	0,155
369,5	0,153
369,9	0,151
370,4	0,149
370,8	0,146
371,3	0,144
371,7	0,141
372,2	0,138
372,7	0,136
373,1	0,134
373,6	0,132
374	0,13
374,5	0,129
374,9	0,127
375,4	0,126
375,9	0,124
376,3	0,121
376,8	0,119
377,2	0,118
377,7	0,116
378,2	0,114
378,6	0,113
379,1	0,11
379,5	0,11
380	0,108
380,4	0,106
380,9	0,104
381,4	0,103
381,8	0,101
382,3	0,099
382,7	0,098
383,2	0,096
383,6	0,095
384,1	0,093
384,6	0,091
385	0,091
385,5	0,09
385,9	0,088
386,4	0,087
386,8	0,086
387,3	0,085
387,7	0,084
388,2	0,082
388,7	0,08
389,1	0,079
389,6	0,077
390	0,077
390,5	0,075
390,9	0,074
391,4	0,073
391,9	0,072
392,3	0,071
392,8	0,069
393,2	0,069
393,7	0,068
394,1	0,066
394,6	0,066
395,1	0,065
395,5	0,064
396	0,064
396,4	0,063
396,9	0,061
397,3	0,061
397,8	0,06
398,2	0,058
398,7	0,057
399,2	0,056
399,6	0,055
400,1	0,055
400,5	0,054
401	0,053
401,4	0,052
401,9	0,052
402,4	0,051
402,8	0,05
403,3	0,049
403,7	0,048
404,2	0,047
404,6	0,046
405,1	0,046
405,5	0,045
406	0,045
406,5	0,045
406,9	0,044
407,4	0,044
407,8	0,043
408,3	0,043
408,7	0,042
409,2	0,041
409,6	0,04
410,1	0,038
410,6	0,038
411	0,037
411,5	0,036
411,9	0,036
412,4	0,035
412,8	0,034
413,3	0,034
413,7	0,034
414,2	0,033
414,7	0,032
415,1	0,032
415,6	0,032
416	0,031
416,5	0,03
416,9	0,029
417,4	0,029
417,8	0,028
418,3	0,027
418,8	0,027
419,2	0,027
419,7	0,027
420,1	0,027
420,6	0,026
421	0,025
421,5	0,025
421,9	0,024
422,4	0,024
422,8	0,023
423,3	0,023
423,8	0,022
424,2	0,022
424,7	0,022
425,1	0,021
425,6	0,02
426	0,019
426,5	0,019
426,9	0,019
427,4	0,019
427,9	0,018
428,3	0,019
428,8	0,018
429,2	0,018
429,7	0,018
430,1	0,017
430,6	0,017
431	0,016
431,5	0,016
431,9	0,015
432,4	0,015
432,8	0,014
433,3	0,014
433,8	0,013
434,2	0,013
434,7	0,013
435,1	0,013
435,6	0,013
436	0,012
436,5	0,012
436,9	0,012
437,4	0,011
437,8	0,011
438,3	0,01
438,8	0,01
439,2	0,01
439,7	0,01
440,1	0,01
440,6	0,01
441	0,009
441,5	0,009
441,9	0,008
442,4	0,008
442,8	0,008
443,3	0,008
443,7	0,008
444,2	0,008
444,7	0,008
445,1	0,008
445,6	0,008
446	0,008
446,5	0,008
446,9	0,008
447,4	0,008
447,8	0,008
448,3	0,007
448,7	0,006
449,2	0,006
449,6	0,006
450,1	0,006
450,6	0,006
451	0,006
451,5	0,006
451,9	0,006
452,4	0,006
452,8	0,006
453,3	0,007
453,7	0,006
454,2	0,006
454,6	0,006
455,1	0,006
455,5	0,006
456	0,005
456,4	0,005
456,9	0,004
457,3	0,004
457,8	0,004
458,3	0,004
458,7	0,003
459,2	0,004
459,6	0,004
460,1	0,004
460,5	0,004
461	0,004
461,4	0,004
461,9	0,004
462,3	0,004
462,8	0,004
463,2	0,003
463,7	0,003
464,1	0,003
464,6	0,004
465	0,003
465,5	0,003
466	0,003
466,4	0,003
466,9	0,003
467,3	0,003
467,8	0,003
468,2	0,003
468,7	0,002
469,1	0,003
469,6	0,003
470	0,003
470,5	0,003
470,9	0,002
471,4	0,002
471,8	0,002
472,3	0,002
472,7	0,002
473,2	0,001
473,6	0,001
474,1	0,002
474,5	0,003
475	0,003
475,4	0,002
475,9	0,002
476,4	0,002
476,8	0,002
477,3	0,002
477,7	0,001
478,2	0,002
478,6	0,002
479,1	0,002
479,5	0,003
480	0,002
480,4	0,002
480,9	0,003
481,3	0,002
481,8	0,001
482,2	0,001
482,7	0,001
483,1	0,001
483,6	0,001
484	0,001
484,5	0,001
484,9	0,002
485,4	0,002
485,8	0,001
486,3	0,002
486,7	0,002
487,2	0,002
487,6	0,002
488,1	0,001
488,5	0,001
489	0,002
489,4	0
489,9	0,001
490,4	0,002
490,8	0,002
491,3	0,002
491,7	0,003
492,2	0,003
492,6	0,003
493,1	0,002
493,5	0,003
494	0,003
494,4	0,003
494,9	0,003
495,3	0,003
495,8	0,003
496,2	0,003
496,7	0,003
497,1	0,003
497,6	0,003
498	0,003
498,5	0,003
498,9	0,002
499,4	0,002
499,8	0,003
500,3	0,002
500,7	0,002
501,2	0,001
501,6	0,001
502,1	0,002
502,5	0,002
503	0,001
503,4	0,002
503,9	0,001
504,3	0,002
504,8	0,002
505,2	0,001
505,7	0,001
506,1	0,001
506,6	0,001
507	0,001
507,5	0
507,9	0,001
508,4	0,001
508,8	0,001
509,3	0,002
509,7	0,002
510,2	0,002
510,6	0,003
511,1	0,003
511,5	0,003
512	0,003
512,4	0,002
512,9	0,002
513,3	0,002
513,8	0,002
514,2	0,002
514,7	0,002
515,1	0,002
515,6	0,002
516	0,002
516,5	0,002
516,9	0,002
517,4	0,001
517,8	0,001
518,3	0,001
518,7	0,002
519,2	0,002
519,6	0,003
520,1	0,003
520,5	0,002
521	0,003
521,4	0,003
521,9	0,002
522,3	0,002
522,8	0,001
523,2	0,001
523,7	0,001
524,1	0,001
524,6	0,001
525	0,001
525,5	0,002
525,9	0,002
526,4	0,002
526,8	0,002
527,3	0,002
527,7	0,002
528,2	0,002
528,6	0,002
529,1	0,002
529,5	0,003
530	0,003
530,4	0,003
530,9	0,003
531,3	0,003
531,8	0,002
532,2	0,002
532,6	0,002
533,1	0,002
533,5	0,002
534	0,001
534,4	0,001
534,9	0,001
535,3	0,001
535,8	0,001
536,2	0,001
536,7	0,001
537,1	0,002
537,6	0,002
538	0,003
538,5	0,002
538,9	0,001
539,4	0,001
539,8	0,001
540,3	0
540,7	0
541,2	0
541,6	0,001
542,1	0,001
542,5	0,001
543	0,001
543,4	0,001
543,9	0,001
544,3	0,001
544,8	0,001
545,2	0,002
545,7	0,002
546,1	0,002
546,5	0,003
547	0,002
547,4	0,003
547,9	0,003
548,3	0,002
548,8	0,002
549,2	0,002
549,7	0,002
550,1	0,002
550,6	0,001
551	0,001
551,5	0,001
551,9	0
552,4	0,001
552,8	0,001
553,3	0,001
553,7	0,001
554,2	0,002
554,6	0,002
555,1	0,002
555,5	0,002
555,9	0,002
556,4	0,001
556,8	0,001
557,3	0
557,7	0,001
558,2	0,001
558,6	0,001
559,1	0,001
559,5	0,001
560	0,001
560,4	0,001
560,9	0,001
561,3	0,001
561,8	0,001
562,2	0,001
562,7	0,001
563,1	0,001
563,6	0,002
564	0,002
564,4	0,002
564,9	0,002
565,3	0,003
565,8	0,003
566,2	0,002
566,7	0,002
567,1	0,002
567,6	0,001
568	0,002
568,5	0,001
568,9	0,002
569,4	0,003
569,8	0,003
570,3	0,003
570,7	0,003
571,1	0,003
571,6	0,002
572	0,002
572,5	0,002
572,9	0,001
573,4	0,001
573,8	0,001
574,3	0,001
574,7	0,001
575,2	0,001
575,6	0,001
576,1	0,001
576,5	0,001
576,9	0,002
577,4	0,001
577,8	0,002
578,3	0,002
578,7	0,001
579,2	0,001
579,6	0,001
580,1	0,001
580,5	0,001
581	0
581,4	0,001
581,9	0,001
582,3	0,002
582,7	0,001
583,2	0,001
583,6	0,001
584,1	0,001
584,5	0,001
585	0,001
585,4	0,001
585,9	0,001
586,3	0,002
586,8	0,002
587,2	0,002
587,6	0,002
588,1	0,002
588,5	0,001
589	0,001
589,4	0,002
589,9	0,002
590,3	0,002
590,8	0,001
591,2	0,001
591,7	0,001
592,1	0,001
592,5	0,001
593	0,001
593,4	0,001
593,9	0,001
594,3	0,001
594,8	0,002
595,2	0,002
595,7	0,001
596,1	0,001
596,6	0,001
597	0,002
597,4	0,002
597,9	0,002
598,3	0,001
598,8	0,002
599,2	0,002
599,7	0,001
600,1	0,001
600,6	0
601	0,001
601,4	0
601,9	-0
602,3	-0
602,8	0
603,2	0,001
603,7	0,001
604,1	0,001
604,6	0,001
605	0,001
605,4	0,002
605,9	0,001
606,3	0,001
606,8	0,001
607,2	0,001
607,7	0,001
608,1	0,001
608,6	0,001
609	0,002
609,4	0,002
609,9	0,002
610,3	0,002
610,8	0,002
611,2	0,002
611,7	0,002
612,1	0,001
612,6	0,001
613	0,001
613,4	0,001
613,9	0,001
614,3	0,001
614,8	0,001
615,2	0,001
615,7	0,001
616,1	0,001
616,6	0,001
617	0,001
617,4	0,001
617,9	0,001
618,3	0,001
618,8	0,001
619,2	0,001
619,7	0,002
620,1	0,002
620,5	0,001
621	0,001
621,4	0,002
621,9	0,002
622,3	0,002
622,8	0,001
623,2	0,002
623,6	0,002
624,1	0,002
624,5	0,001
625	0,001
625,4	0,001
625,9	0,001
626,3	0,001
626,8	0,001
627,2	0,001
627,6	0,001
628,1	0,002
628,5	0,002
629	0,001
629,4	0,001
629,9	0,001
630,3	0,001
630,7	0,001
631,2	0,001
631,6	0,001
632,1	0,001
632,5	0,001
633	0,002
633,4	0,002
633,8	0,002
634,3	0,002
634,7	0,002
635,2	0,002
635,6	0,002
636,1	0,001
636,5	0,001
636,9	0,001
637,4	0,001
637,8	0
638,3	-0
638,7	0
639,2	0,001
639,6	0,001
640	0,001
640,5	0,001
640,9	0,001
641,4	0,001
641,8	0,001
642,2	0,001
642,7	0,001
643,1	0
643,6	0
644	0
644,5	0
644,9	0
645,3	0,001
645,8	0
646,2	0
646,7	0
647,1	0,001
647,6	0
648	0,001
648,4	0,001
648,9	0,001
649,3	0,001
649,8	0,001
650,2	0,001
650,6	0,001
651,1	0
651,5	-0
652	0
652,4	0
652,9	-0
653,3	0
653,7	0
654,2	0
654,6	-0,001
655,1	-0,003
655,5	-0,002
655,9	-0,001
656,4	-0,001
656,8	-0,002
657,3	-0,002
657,7	-0,002
658,2	-0,001
658,6	-0,001
659	-0,001
659,5	-0
659,9	0,004
660,4	0,006
660,8	0,006
661,2	0,005
661,7	0,005
662,1	0,004
662,6	0,004
663	0,003
663,4	0,003
663,9	0,003
664,3	0,003
664,8	0,002
665,2	0,002
665,6	0,002
666,1	0,002
666,5	0,002
667	0,002
667,4	0,001
667,9	0,002
668,3	0,002
668,7	0,002
669,2	0,001
669,6	0,001
670,1	0,001
670,5	0,001
670,9	0
671,4	0
671,8	0
672,3	0,001
672,7	0,001
673,1	0,001
673,6	0,001
674	0,002
674,5	0,002
674,9	0,002
675,3	0,001
675,8	0,001
676,2	0,001
676,7	0,001
677,1	0,001
677,5	0,001
678	0,001
678,4	0,001
678,9	0,001
679,3	0,001
679,7	0,001
680,2	0,001
680,6	0,001
681,1	0,001
681,5	0,001
681,9	0,001
682,4	0,001
682,8	0
683,3	0,001
683,7	0,001
684,1	0,001
684,6	0,001
685	0,001
685,5	0,001
685,9	0,001
686,3	0,001
686,8	0
687,2	0
687,7	0
688,1	-0
688,5	-0
689	-0
689,4	0
689,9	-0
690,3	0
690,7	0,001
691,2	0,001
691,6	0,001
692	0,001
692,5	0,001
692,9	0,001
693,4	0,001
693,8	0
694,2	0
694,7	0
695,1	0,001
695,6	0,001
696	0,001
696,4	0,001
696,9	0,002
697,3	0,002
697,8	0,001
698,2	0,001
698,6	0,001
699,1	0,001
699,5	0
699,9	0
700,4	0
700,8	0
701,3	0
701,7	0
702,1	0
702,6	0,001
703	0,001
703,5	0,001
703,9	0,001
704,3	0,002
704,8	0,001
705,2	0,002
705,6	0,001
706,1	0,001
706,5	0
707	0
707,4	0
707,8	0
708,3	0
708,7	0,001
709,2	0,001
709,6	0,001
710	0,002
710,5	0,001
710,9	0,002
711,3	0,001
711,8	0,001
712,2	0,001
712,7	0,001
713,1	0,001
713,5	0,001
714	0,001
714,4	0,002
714,8	0,002
715,3	0,002
715,7	0,002
716,2	0,002
716,6	0,001
717	0,001
717,5	0,001
717,9	0,001
718,3	0,001
718,8	0,001
719,2	0,001
719,7	0,001
720,1	0,001
720,5	0,001
721	0,001
721,4	0,001
721,8	0,001
722,3	0,001
722,7	0,001
723,2	0,002
723,6	0,001
724	0,002
724,5	0,002
724,9	0,002
725,3	0,002
725,8	0,001
726,2	0,001
726,7	0,001
727,1	0,001
727,5	0,001
728	0,001
728,4	0,001
728,8	0,001
729,3	0,001
729,7	0,002
730,1	0,002
730,6	0,001
731	0,001
731,5	0,001
731,9	0,001
732,3	0,001
732,8	0,001
733,2	0,001
733,6	0,001
734,1	0,001
734,5	0,001
734,9	0
735,4	0
735,8	0
736,3	0
736,7	0
737,1	0
737,6	0
738	0
738,4	0,001
738,9	0,001
739,3	0,001
739,7	0,001
740,2	0,001
740,6	0,001
741,1	0,001
741,5	0
741,9	0,001
742,4	0,001
742,8	0,001
743,2	0,001
743,7	0,001
744,1	0,002
744,5	0,002
745	0,002
745,4	0,002
745,8	0,002
746,3	0,001
746,7	0,001
747,2	0,001
747,6	0,001
748	0
748,5	0
748,9	0
749,3	0
749,8	0,001
750,2	0
750,6	0
751,1	0
751,5	0
751,9	0
752,4	-0
752,8	-0
753,3	-0
753,7	-0
754,1	0
754,6	0,001
755	0,001
755,4	0,001
755,9	0,001
756,3	0,001
756,7	0,002
757,2	0,001
757,6	0,001
758	0
758,5	0
758,9	0
759,3	0
759,8	0,001
760,2	0,001
760,6	0,001
761,1	0,001
761,5	0,001
761,9	0,001
762,4	0,001
762,8	0,001
763,3	0,001
763,7	0,001
764,1	0,001
764,6	0,001
765	0,001
765,4	0,001
765,9	0,001
766,3	0,001
766,7	0,001
767,2	0,001
767,6	0,001
768	0,001
768,5	0,001
768,9	0,001
769,3	0,001
769,8	0
770,2	0
770,6	0
771,1	0,001
771,5	0
771,9	0,001
772,4	0,001
772,8	0,001
773,2	0,001
773,7	0
774,1	-0
774,5	0
775	0
775,4	0
775,8	0
776,3	0,001
776,7	0,001
777,1	0,001
777,6	0,001
778	0,001
778,4	0,001
778,9	0,001
779,3	0,001
779,7	0,002
780,2	0,001
780,6	0,001
781	0,001
781,5	0
781,9	0
782,3	0
782,8	0
783,2	0
783,6	0
784,1	0,001
784,5	0,001
784,9	0,001
785,4	0,001
785,8	0,001
786,2	0,002
786,7	0,002
787,1	0,002
787,5	0,001
788	0,001
788,4	0,001
788,8	0,001
789,3	0
789,7	0,001
790,1	0,001
790,6	0,001
791	0,001
791,4	0,001
791,9	0,001
792,3	0,001
792,7	0,001
793,2	0,001
793,6	0,001
794	0,001
794,5	0,001
794,9	0,001
795,3	0,001
795,8	0,001
796,2	0,001
796,6	0,001
797,1	0,001
797,5	0,001
797,9	0
798,4	0
798,8	0,001
799,2	0,001
799,7	0,001
800,1	0,001
800,5	0,001
801	0,001
801,4	0,001
801,8	0,001
802,2	0,001
802,7	0,001
803,1	0,001
803,5	0,001
804	0,001
804,4	0,001
804,8	0,001
805,3	0,001
805,7	0,001
806,1	0,001
806,6	0,001
807	0,001
807,4	0,002
807,9	0,002
808,3	0,002
808,7	0,002
809,2	0,001
809,6	0,001
810	0,001
810,4	0,001
810,9	0,001
811,3	0,001
811,7	0,001
812,2	0,001
812,6	0,001
813	0,001
813,5	0,001
813,9	0,001
814,3	0,001
814,8	0,001
815,2	0,001
815,6	0,001
816,1	0,001
816,5	0,001
816,9	0,001
817,3	0,001
817,8	0,001
818,2	0,001
818,6	0,001
819,1	0,001
819,5	0,001
819,9	0,002
820,4	0,002
820,8	0,002
821,2	0,002
821,7	0,002
822,1	0,002
822,5	0,002
822,9	0,002
823,4	0,002
823,8	0,003
824,2	0,003
824,7	0,003
825,1	0,002
825,5	0,002
826	0,002
826,4	0,002
826,8	0,001
827,3	0,001
827,7	0,001
828,1	0,001
828,5	0,001
829	0
829,4	0
829,8	0
830,3	-0
830,7	-0
831,1	-0
831,6	-0
832	-0
832,4	-0
832,8	0
833,3	0
833,7	0
834,1	0,001
834,6	0,001
835	0,001
835,4	0,001
835,8	0,001
836,3	0,001
836,7	0,001
837,1	0,002
837,6	0,002
838	0,002
838,4	0,002
838,9	0,001
839,3	0,001
839,7	0,001
840,1	0,001
840,6	0,001
841	0,001
841,4	0,001
841,9	0,001
842,3	0,001
842,7	0,001
843,1	0,001
843,6	0
844	0
844,4	0
844,9	0
845,3	0
845,7	-0
846,2	0
846,6	0
847	0
847,4	0,001
847,9	0,001
848,3	0,001
848,7	0,001
849,2	0,001
849,6	0,001
850	0,001
850,4	0,001
850,9	0,001
851,3	0,001
851,7	0,001
852,2	0,001
852,6	0,001
853	0
853,4	0,001
853,9	0,001
854,3	0,001
854,7	0,001
855,2	0,001
855,6	0,001
856	0,001
856,4	0,001
856,9	0,001
857,3	0,001
857,7	0,001
858,2	0
858,6	0,001
859	0,001
859,4	0,001
859,9	0,001
860,3	0,001
860,7	0,001
861,1	0,002
861,6	0,002
862	0,002
862,4	0,002
862,9	0,002
863,3	0,002
863,7	0,002
864,1	0,001
864,6	0,001
865	0,001
865,4	0,001
865,9	0,001
866,3	0,001
866,7	0
867,1	0,001
867,6	0,001
868	0,001
868,4	0,001
868,8	0,001
869,3	0,001
869,7	0,001
870,1	0,001
870,6	0,001
871	0,001
871,4	0,001
871,8	0
872,3	0
872,7	0
873,1	0
873,5	-0
874	-0
874,4	-0
874,8	-0
875,3	-0
875,7	-0,001
876,1	-0,001
876,5	-0
877	-0
877,4	-0
877,8	-0
878,2	-0
878,7	-0
879,1	0
879,5	0
879,9	0
880,4	0
880,8	0
881,2	0,001
881,7	0,001
882,1	0,001
882,5	0,001
882,9	0
883,4	0
883,8	0
884,2	0
884,6	0
885,1	0
885,5	-0
885,9	0
886,3	0
886,8	0
887,2	0
887,6	-0
888	-0
888,5	-0
888,9	-0
889,3	0
889,8	0
890,2	0
890,6	0,001
891	0,001
891,5	0,001
891,9	0,001
892,3	0,001
892,7	0,001
893,2	0,001
893,6	0
894	0
894,4	0
894,9	0
895,3	0
895,7	0
896,1	0
896,6	0
897	-0
897,4	-0
897,8	-0
898,3	-0
898,7	-0
899,1	-0,001
899,5	-0,001
900	-0
900,4	-0
900,8	-0
901,2	-0
901,7	-0,001
902,1	-0
902,5	-0
902,9	-0
903,4	-0
903,8	-0
904,2	-0
904,6	0
905,1	0
905,5	0,001
905,9	0,001
906,3	0,001
906,8	0,001
907,2	0,001
907,6	0,002
908	0,002
908,5	0,001
908,9	0,002
909,3	0,001
909,7	0,001
910,2	0,001
910,6	0,001
911	0,001
911,4	0,001
911,9	0,001
912,3	0,001
912,7	0,002
913,1	0,002
913,6	0,002
914	0,002
914,4	0,001
914,8	0,001
915,3	0,001
915,7	0,001
916,1	0,001
916,5	0,001
916,9	0,001
917,4	0,001
917,8	0,001
918,2	0,001
918,6	0,001
919,1	0,001
919,5	0,001
919,9	0,001
920,3	0,001
920,8	0,001
921,2	0,001
921,6	0,001
922	0,002
922,5	0,001
922,9	0,001
923,3	0,001
923,7	0,001
924,2	0,001
924,6	0,001
925	0,001
925,4	0,001
925,8	0,001
926,3	0,001
926,7	0,001
927,1	0,001
927,5	0,001
928	0
928,4	0
928,8	0
929,2	0
929,7	-0
930,1	-0
930,5	-0
930,9	-0
931,3	-0
931,8	-0
932,2	-0,001
932,6	-0
933	-0
933,5	-0,001
933,9	-0,001
934,3	-0,001
934,7	-0,001
935,2	-0,001
935,6	-0,001
936	-0,001
936,4	-0,001
936,8	-0,001
937,3	-0,001
937,7	-0,001
938,1	-0,001
938,5	-0,001
939	-0,002
939,4	-0,001
939,8	-0,001
940,2	-0,001
940,6	-0,001
941,1	-0,001
941,5	-0,001
941,9	-0
942,3	-0
942,8	-0
943,2	0
943,6	-0
944	-0
944,4	0,001
944,9	0
945,3	0
945,7	-0,001
946,1	-0
946,6	0
947	-0
947,4	-0,001
947,8	-0,001
948,2	-0,001
948,7	-0,001
949,1	-0,002
949,5	-0,002
949,9	-0,002
950,3	-0,003
950,8	-0,003
951,2	-0,003
951,6	-0,003
952	-0,003
952,5	-0,004
952,9	-0,003
953,3	-0,004
953,7	-0,003
954,1	-0,004
954,6	-0,004
955	-0,004
955,4	-0,004
955,8	-0,004
956,2	-0,004
956,7	-0,004
957,1	-0,004
957,5	-0,005
957,9	-0,005
958,3	-0,004
958,8	-0,005
959,2	-0,005
959,6	-0,005
960	-0,006
960,5	-0,006
960,9	-0,006
961,3	-0,007
961,7	-0,007
962,1	-0,008
962,6	-0,007
963	-0,007
963,4	-0,007
963,8	-0,007
964,2	-0,007
964,7	-0,006
965,1	-0,006
965,5	-0,005
965,9	-0,005
966,3	-0,005
966,8	-0,005
967,2	-0,005
967,6	-0,005
968	-0,004
968,4	-0,004
968,9	-0,004
969,3	-0,004
969,7	-0,004
970,1	-0,003
970,5	-0,003
971	-0,003
971,4	-0,003
971,8	-0,003
972,2	-0,003
972,6	-0,003
973,1	-0,004
973,5	-0,004
973,9	-0,004
974,3	-0,004
974,7	-0,003
975,2	-0,004
975,6	-0,004
976	-0,003
976,4	-0,003
976,8	-0,003
977,3	-0,003
977,7	-0,003
978,1	-0,003
978,5	-0,003
978,9	-0,003
979,4	-0,003
979,8	-0,003
980,2	-0,004
980,6	-0,004
981	-0,004
981,5	-0,004
981,9	-0,004
982,3	-0,004
982,7	-0,004
983,1	-0,004
983,6	-0,004
984	-0,004
984,4	-0,004
984,8	-0,004
985,2	-0,004
985,6	-0,005
986,1	-0,005
986,5	-0,005
986,9	-0,005
987,3	-0,005
987,7	-0,005
988,2	-0,004
988,6	-0,004
989	-0,004
989,4	-0,004
989,8	-0,004
990,3	-0,003
990,7	-0,003
991,1	-0,003
991,5	-0,003
991,9	-0,002
992,3	-0,002
992,8	-0,002
993,2	-0,002
993,6	-0,002
994	-0,002
994,4	-0,002
994,9	-0,002
995,3	-0,002
995,7	-0,002
996,1	-0,001
996,5	-0,001
996,9	-0,001
997,4	-0,001
997,8	-0,001
998,2	-0,001
998,6	-0,001
999	-0,001
999,5	-0,001
999,9	-0,001
1000,3	-0,001
1000,7	-0,001
1001,1	-0,001
1001,5	-0,001
1002	-0,001
1002,4	-0
1002,8	-0,001
1003,2	-0
1003,6	0
1004	0
1004,5	0
1004,9	-0
1005,3	0
1005,7	0,001
1006,1	0,001
1006,6	0,001
1007	0,001
1007,4	0,001
1007,8	0,001
1008,2	0,001
1008,6	0,001
1009,1	0,001
1009,5	0,001
1009,9	0,001
1010,3	0,001
1010,7	0,001
1011,1	0,001
1011,6	0,002
1012	0,002
1012,4	0,002
1012,8	0,002
1013,2	0,002
1013,6	0,001
1014,1	0,001
1014,5	-0
1014,9	-0
1015,3	-0,001
1015,7	-0
1016,1	0,001
1016,6	0,001
1017	0,001
1017,4	0,002
1017,8	0,002
1018,2	0,003
1018,6	0,002
1019,1	0,001
1019,5	0,002
1019,9	0,002
1020,3	0,002
1020,7	0,002
1021,1	0,001
1021,6	0,002
1022	0,002
1022,4	0,002
1022,8	0,002
1023,2	0,002
1023,6	0,003
1024,1	0,004
1024,5	0,003
1024,9	0,003
1025,3	0,002
1025,7	0,001
1026,1	0,001
1026,6	0
1027	-0
1027,4	0
1027,8	0
1028,2	0
1028,6	0
1029	0,001
1029,5	0,001
1029,9	0,001
1030,3	0,001
1030,7	0,001
1031,1	0
1031,5	0,001
1032	-0
1032,4	0
1032,8	-0
1033,2	-0
1033,6	-0
1034	-0,001
1034,4	-0,001
1034,9	-0,001
1035,3	-0,001
1035,7	-0,002
1036,1	-0,002
1036,5	-0,002
1036,9	-0,001
1037,4	-0,001
1037,8	-0,001
1038,2	-0,001
1038,6	0
1039	0,001
1039,4	0,001
1039,8	-0
1040,3	-0
1040,7	0
1041,1	0
1041,5	0,001
1041,9	0,001
1042,3	0,001
1042,7	0,002
1043,2	0,002
1043,6	0,002
1044	0,001
1044,4	0,001
1044,8	0
1045,2	-0
1045,6	0
1046,1	-0
1046,5	0,001
1046,9	0,001
1047,3	0,001
1047,7	0,001
1048,1	0,001
1048,5	0
1049	0,001
1049,4	-0
1049,8	-0
1050,2	-0,001
1050,6	-0,001
1051	-0,001
1051,4	-0
1051,9	-0,001
1052,3	-0
1052,7	0
1053,1	0,001
1053,5	0,001
1053,9	0,001
1054,3	0,002
1054,8	0,001
1055,2	0,001
1055,6	0,001
1056	0,001
1056,4	0,001
1056,8	0,001
1057,2	0,001
1057,6	0,001
1058,1	0,001
1058,5	0,001
1058,9	0,002
1059,3	0,003
1059,7	0,003
1060,1	0,003
1060,5	0,003
1061	0,002
1061,4	0,001
1061,8	-0
1062,2	0
1062,6	-0,001
1063	-0
1063,4	-0
1063,8	0,001
1064,3	0
1064,7	0,001
1065,1	0
1065,5	0,001
1065,9	0,001
1066,3	0
1066,7	0
1067,1	0,001
1067,6	0,001
1068	0,001
1068,4	0,001
1068,8	0,001
1069,2	-0,001
1069,6	-0,001
1070	-0,002
1070,4	-0,002
1070,9	-0,002
1071,3	-0,002
1071,7	-0,002
1072,1	-0,001
1072,5	0
1072,9	0,001
1073,3	0,001
1073,7	0,001
1074,2	0,001
1074,6	0,001
1075	-0
1075,4	-0
1075,8	-0
1076,2	0,001
1076,6	0,001
1077	-0
1077,5	0
1077,9	0
1078,3	-0,001
1078,7	-0
1079,1	0
1079,5	-0,001
1079,9	0
1080,3	-0,001
1080,7	-0,001
1081,2	-0,001
1081,6	-0,003
1082	-0,005
1082,4	-0,004
1082,8	-0,005
1083,2	-0,005
1083,6	-0,004
1084	-0,006
1084,5	-0,004
1084,9	-0,004
1085,3	-0,004
1085,7	-0,004
1086,1	-0,005
1086,5	-0,003
1086,9	-0,001
1087,3	-0,001
1087,7	-0
1088,2	-0
1088,6	-0,001
1089	-0
1089,4	-0,001
1089,8	-0,001
1090,2	-0,003
1090,6	-0,001
1091	0,002
1091,4	0,002
1091,9	-0
1092,3	-0,002
1092,7	-0,002
1093,1	-0,001
1093,5	-0,003
1093,9	-0,007
1094,3	-0,005
1094,7	-0,004
1095,1	-0,001
1095,5	-0,001
1096	-0,002
1096,4	0,001
1096,8	0,003
1097,2	0,001
1097,6	0,003
1098	0,004
1098,4	0,002
1098,8	-0,001
1099,2	-0,004
1099,6	-0,005
1100,1	-0,002
1100,5	-0,005
1100,9	-0,007
1101,3	-0,001
1101,7	-0,004
1102,1	-0,003
1102,5	-0,009
1102,9	-0,012
1103,3	-0,006
1103,7	-0,008
1104,2	-0,02
1104,6	-0,019
1105	-0,021
1105,4	-0,015
1105,8	-0,006
1106,2	-0,013
1106,6	-0,016
1107	-0,013
1107,4	0,011
1107,8	0,069
1108,3	-0,287
