Data from Absorbance_00024.txt Node
Date: Wed Aug 02 14:04:36 MSK 2023
User: vat
Spectrometer: MAYP114033
Trigger mode: 0
Integration Time (sec): 8,000000E-3
Scans to average: 10
Electric dark correction enabled: true
Nonlinearity correction enabled: false
Boxcar width: 3
XAxis mode: Wavelengths
Number of Pixels in Spectrum: 2068
>>>>>Begin Spectral Data<<<<<
199,4	-0,625
199,9	-0,184
200,4	0,232
200,8	0,642
201,3	0,822
201,8	0,896
202,2	0,937
202,7	0,973
203,2	1,044
203,6	1,073
204,1	1,078
204,6	1,076
205	1,081
205,5	1,103
206	1,121
206,4	1,141
206,9	1,162
207,4	1,187
207,8	1,223
208,3	1,244
208,8	1,226
209,2	1,227
209,7	1,234
210,2	1,242
210,6	1,259
211,1	1,254
211,5	1,272
212	1,299
212,5	1,328
212,9	1,352
213,4	1,374
213,9	1,388
214,3	1,413
214,8	1,411
215,3	1,409
215,7	1,427
216,2	1,423
216,7	1,42
217,1	1,437
217,6	1,441
218,1	1,464
218,5	1,496
219	1,497
219,5	1,519
219,9	1,549
220,4	1,565
220,9	1,593
221,3	1,598
221,8	1,619
222,3	1,629
222,7	1,662
223,2	1,684
223,6	1,703
224,1	1,723
224,6	1,747
225	1,749
225,5	1,778
226	1,774
226,4	1,782
226,9	1,77
227,4	1,783
227,8	1,786
228,3	1,816
228,8	1,818
229,2	1,825
229,7	1,852
230,2	1,883
230,6	1,888
231,1	1,913
231,5	1,914
232	1,936
232,5	1,948
232,9	1,943
233,4	1,958
233,9	1,966
234,3	1,963
234,8	1,963
235,3	1,962
235,7	1,98
236,2	1,978
236,7	1,982
237,1	1,986
237,6	2,012
238,1	2,032
238,5	2,04
239	2,035
239,4	2,048
239,9	2,054
240,4	2,06
240,8	2,05
241,3	2,04
241,8	2,054
242,2	2,054
242,7	2,051
243,2	2,056
243,6	2,076
244,1	2,092
244,6	2,118
245	2,123
245,5	2,136
245,9	2,145
246,4	2,135
246,9	2,137
247,3	2,142
247,8	2,147
248,3	2,139
248,7	2,124
249,2	2,129
249,7	2,144
250,1	2,126
250,6	2,125
251	2,105
251,5	2,11
252	2,111
252,4	2,116
252,9	2,119
253,4	2,13
253,8	2,139
254,3	2,159
254,8	2,163
255,2	2,184
255,7	2,193
256,1	2,202
256,6	2,198
257,1	2,206
257,5	2,198
258	2,203
258,5	2,209
258,9	2,183
259,4	2,151
259,9	2,161
260,3	2,142
260,8	2,15
261,2	2,147
261,7	2,134
262,2	2,137
262,6	2,158
263,1	2,152
263,6	2,151
264	2,146
264,5	2,135
264,9	2,152
265,4	2,154
265,9	2,165
266,3	2,177
266,8	2,19
267,3	2,214
267,7	2,244
268,2	2,229
268,7	2,25
269,1	2,227
269,6	2,215
270	2,211
270,5	2,216
271	2,193
271,4	2,191
271,9	2,196
272,4	2,204
272,8	2,228
273,3	2,225
273,7	2,184
274,2	2,212
274,7	2,22
275,1	2,222
275,6	2,242
276,1	2,216
276,5	2,216
277	2,233
277,4	2,245
277,9	2,244
278,4	2,262
278,8	2,268
279,3	2,311
279,8	2,343
280,2	2,351
280,7	2,331
281,1	2,353
281,6	2,337
282,1	2,314
282,5	2,293
283	2,259
283,4	2,262
283,9	2,245
284,4	2,243
284,8	2,246
285,3	2,263
285,8	2,264
286,2	2,268
286,7	2,268
287,1	2,279
287,6	2,248
288,1	2,241
288,5	2,229
289	2,197
289,5	2,192
289,9	2,177
290,4	2,152
290,8	2,156
291,3	2,152
291,8	2,131
292,2	2,132
292,7	2,138
293,1	2,141
293,6	2,148
294,1	2,155
294,5	2,158
295	2,172
295,5	2,18
295,9	2,187
296,4	2,206
296,8	2,224
297,3	2,241
297,8	2,228
298,2	2,238
298,7	2,267
299,1	2,266
299,6	2,256
300,1	2,275
300,5	2,28
301	2,312
301,5	2,315
301,9	2,308
302,4	2,325
302,8	2,347
303,3	2,335
303,8	2,346
304,2	2,36
304,7	2,37
305,1	2,383
305,6	2,382
306,1	2,376
306,5	2,376
307	2,367
307,4	2,361
307,9	2,361
308,4	2,357
308,8	2,359
309,3	2,345
309,8	2,364
310,2	2,366
310,7	2,351
311,1	2,362
311,6	2,354
312,1	2,38
312,5	2,388
313	2,382
313,4	2,388
313,9	2,403
314,4	2,38
314,8	2,384
315,3	2,354
315,7	2,36
316,2	2,347
316,7	2,325
317,1	2,316
317,6	2,326
318	2,343
318,5	2,352
319	2,344
319,4	2,361
319,9	2,389
320,3	2,387
320,8	2,396
321,3	2,396
321,7	2,419
322,2	2,427
322,6	2,415
323,1	2,384
323,6	2,402
324	2,396
324,5	2,39
324,9	2,37
325,4	2,377
325,9	2,381
326,3	2,391
326,8	2,402
327,2	2,384
327,7	2,373
328,2	2,361
328,6	2,347
329,1	2,333
329,5	2,361
330	2,357
330,5	2,386
330,9	2,376
331,4	2,391
331,8	2,388
332,3	2,412
332,8	2,403
333,2	2,398
333,7	2,399
334,1	2,42
334,6	2,42
335,1	2,444
335,5	2,43
336	2,401
336,4	2,383
336,9	2,377
337,4	2,359
337,8	2,351
338,3	2,335
338,7	2,336
339,2	2,364
339,7	2,372
340,1	2,365
340,6	2,381
341	2,387
341,5	2,381
342	2,381
342,4	2,347
342,9	2,368
343,3	2,367
343,8	2,359
344,2	2,348
344,7	2,355
345,2	2,336
345,6	2,343
346,1	2,318
346,5	2,311
347	2,308
347,5	2,317
347,9	2,319
348,4	2,326
348,8	2,327
349,3	2,322
349,8	2,298
350,2	2,285
350,7	2,256
351,1	2,236
351,6	2,227
352	2,222
352,5	2,199
353	2,205
353,4	2,189
353,9	2,174
354,3	2,177
354,8	2,171
355,3	2,14
355,7	2,13
356,2	2,098
356,6	2,067
357,1	2,049
357,5	2,011
358	1,971
358,5	1,932
358,9	1,903
359,4	1,867
359,8	1,839
360,3	1,806
360,8	1,776
361,2	1,748
361,7	1,726
362,1	1,69
362,6	1,664
363	1,633
363,5	1,601
364	1,567
364,4	1,53
364,9	1,497
365,3	1,468
365,8	1,437
366,3	1,407
366,7	1,38
367,2	1,354
367,6	1,329
368,1	1,304
368,5	1,277
369	1,252
369,5	1,229
369,9	1,202
370,4	1,176
370,8	1,15
371,3	1,124
371,7	1,102
372,2	1,08
372,7	1,056
373,1	1,035
373,6	1,015
374	0,996
374,5	0,977
374,9	0,957
375,4	0,935
375,9	0,918
376,3	0,899
376,8	0,879
377,2	0,862
377,7	0,844
378,2	0,827
378,6	0,812
379,1	0,795
379,5	0,781
380	0,768
380,4	0,754
380,9	0,74
381,4	0,726
381,8	0,712
382,3	0,698
382,7	0,686
383,2	0,674
383,6	0,662
384,1	0,651
384,6	0,64
385	0,63
385,5	0,62
385,9	0,608
386,4	0,597
386,8	0,587
387,3	0,578
387,7	0,569
388,2	0,56
388,7	0,551
389,1	0,543
389,6	0,535
390	0,526
390,5	0,517
390,9	0,508
391,4	0,5
391,9	0,492
392,3	0,485
392,8	0,477
393,2	0,471
393,7	0,464
394,1	0,458
394,6	0,453
395,1	0,447
395,5	0,441
396	0,436
396,4	0,43
396,9	0,424
397,3	0,419
397,8	0,413
398,2	0,408
398,7	0,402
399,2	0,396
399,6	0,391
400,1	0,387
400,5	0,383
401	0,378
401,4	0,373
401,9	0,368
402,4	0,364
402,8	0,36
403,3	0,355
403,7	0,351
404,2	0,347
404,6	0,343
405,1	0,339
405,5	0,335
406	0,331
406,5	0,328
406,9	0,324
407,4	0,321
407,8	0,317
408,3	0,313
408,7	0,31
409,2	0,307
409,6	0,302
410,1	0,299
410,6	0,296
411	0,294
411,5	0,291
411,9	0,288
412,4	0,285
412,8	0,283
413,3	0,281
413,7	0,278
414,2	0,275
414,7	0,273
415,1	0,27
415,6	0,267
416	0,264
416,5	0,262
416,9	0,259
417,4	0,255
417,8	0,253
418,3	0,251
418,8	0,248
419,2	0,246
419,7	0,243
420,1	0,241
420,6	0,238
421	0,236
421,5	0,234
421,9	0,232
422,4	0,23
422,8	0,228
423,3	0,227
423,8	0,226
424,2	0,224
424,7	0,223
425,1	0,221
425,6	0,219
426	0,217
426,5	0,214
426,9	0,212
427,4	0,21
427,9	0,208
428,3	0,207
428,8	0,206
429,2	0,204
429,7	0,203
430,1	0,201
430,6	0,2
431	0,199
431,5	0,197
431,9	0,195
432,4	0,193
432,8	0,192
433,3	0,191
433,8	0,189
434,2	0,188
434,7	0,186
435,1	0,185
435,6	0,184
436	0,182
436,5	0,181
436,9	0,18
437,4	0,179
437,8	0,177
438,3	0,175
438,8	0,174
439,2	0,174
439,7	0,173
440,1	0,171
440,6	0,17
441	0,169
441,5	0,167
441,9	0,166
442,4	0,165
442,8	0,164
443,3	0,163
443,7	0,163
444,2	0,162
444,7	0,162
445,1	0,16
445,6	0,16
446	0,159
446,5	0,159
446,9	0,158
447,4	0,157
447,8	0,156
448,3	0,155
448,7	0,154
449,2	0,152
449,6	0,151
450,1	0,15
450,6	0,149
451	0,147
451,5	0,146
451,9	0,146
452,4	0,145
452,8	0,144
453,3	0,144
453,7	0,144
454,2	0,143
454,6	0,143
455,1	0,142
455,5	0,141
456	0,14
456,4	0,139
456,9	0,137
457,3	0,136
457,8	0,135
458,3	0,135
458,7	0,135
459,2	0,134
459,6	0,134
460,1	0,134
460,5	0,133
461	0,132
461,4	0,131
461,9	0,13
462,3	0,129
462,8	0,128
463,2	0,127
463,7	0,127
464,1	0,126
464,6	0,126
465	0,125
465,5	0,125
466	0,124
466,4	0,123
466,9	0,122
467,3	0,122
467,8	0,121
468,2	0,12
468,7	0,12
469,1	0,119
469,6	0,119
470	0,119
470,5	0,119
470,9	0,119
471,4	0,118
471,8	0,117
472,3	0,117
472,7	0,116
473,2	0,115
473,6	0,114
474,1	0,113
474,5	0,114
475	0,112
475,4	0,111
475,9	0,109
476,4	0,109
476,8	0,109
477,3	0,108
477,7	0,107
478,2	0,108
478,6	0,108
479,1	0,108
479,5	0,107
480	0,106
480,4	0,105
480,9	0,105
481,3	0,103
481,8	0,102
482,2	0,102
482,7	0,101
483,1	0,101
483,6	0,101
484	0,1
484,5	0,099
484,9	0,099
485,4	0,098
485,8	0,098
486,3	0,1
486,7	0,099
487,2	0,098
487,6	0,098
488,1	0,097
488,5	0,097
489	0,096
489,4	0,092
489,9	0,092
490,4	0,093
490,8	0,093
491,3	0,093
491,7	0,094
492,2	0,094
492,6	0,094
493,1	0,093
493,5	0,092
494	0,091
494,4	0,091
494,9	0,09
495,3	0,091
495,8	0,089
496,2	0,088
496,7	0,088
497,1	0,088
497,6	0,087
498	0,086
498,5	0,085
498,9	0,085
499,4	0,084
499,8	0,083
500,3	0,082
500,7	0,082
501,2	0,081
501,6	0,081
502,1	0,08
502,5	0,081
503	0,08
503,4	0,081
503,9	0,081
504,3	0,08
504,8	0,08
505,2	0,08
505,7	0,079
506,1	0,079
506,6	0,078
507	0,077
507,5	0,076
507,9	0,076
508,4	0,075
508,8	0,075
509,3	0,074
509,7	0,074
510,2	0,073
510,6	0,073
511,1	0,073
511,5	0,072
512	0,071
512,4	0,07
512,9	0,07
513,3	0,07
513,8	0,07
514,2	0,07
514,7	0,071
515,1	0,07
515,6	0,071
516	0,069
516,5	0,069
516,9	0,069
517,4	0,068
517,8	0,067
518,3	0,067
518,7	0,067
519,2	0,067
519,6	0,067
520,1	0,067
520,5	0,066
521	0,065
521,4	0,065
521,9	0,065
522,3	0,064
522,8	0,063
523,2	0,063
523,7	0,063
524,1	0,063
524,6	0,062
525	0,061
525,5	0,061
525,9	0,061
526,4	0,06
526,8	0,06
527,3	0,06
527,7	0,06
528,2	0,059
528,6	0,059
529,1	0,059
529,5	0,059
530	0,059
530,4	0,059
530,9	0,058
531,3	0,058
531,8	0,058
532,2	0,057
532,6	0,057
533,1	0,056
533,5	0,056
534	0,055
534,4	0,056
534,9	0,056
535,3	0,055
535,8	0,055
536,2	0,055
536,7	0,055
537,1	0,054
537,6	0,054
538	0,053
538,5	0,053
538,9	0,053
539,4	0,052
539,8	0,052
540,3	0,052
540,7	0,051
541,2	0,051
541,6	0,051
542,1	0,051
542,5	0,051
543	0,05
543,4	0,05
543,9	0,05
544,3	0,05
544,8	0,05
545,2	0,05
545,7	0,05
546,1	0,05
546,5	0,05
547	0,049
547,4	0,048
547,9	0,047
548,3	0,047
548,8	0,047
549,2	0,047
549,7	0,047
550,1	0,046
550,6	0,046
551	0,046
551,5	0,045
551,9	0,045
552,4	0,045
552,8	0,045
553,3	0,045
553,7	0,045
554,2	0,046
554,6	0,045
555,1	0,045
555,5	0,046
555,9	0,046
556,4	0,046
556,8	0,046
557,3	0,045
557,7	0,046
558,2	0,045
558,6	0,044
559,1	0,044
559,5	0,044
560	0,043
560,4	0,042
560,9	0,041
561,3	0,041
561,8	0,041
562,2	0,041
562,7	0,041
563,1	0,041
563,6	0,042
564	0,042
564,4	0,042
564,9	0,042
565,3	0,043
565,8	0,042
566,2	0,041
566,7	0,041
567,1	0,04
567,6	0,039
568	0,04
568,5	0,039
568,9	0,039
569,4	0,04
569,8	0,04
570,3	0,04
570,7	0,041
571,1	0,041
571,6	0,041
572	0,041
572,5	0,04
572,9	0,039
573,4	0,04
573,8	0,039
574,3	0,039
574,7	0,039
575,2	0,039
575,6	0,039
576,1	0,039
576,5	0,039
576,9	0,039
577,4	0,039
577,8	0,039
578,3	0,039
578,7	0,038
579,2	0,038
579,6	0,038
580,1	0,038
580,5	0,038
581	0,037
581,4	0,038
581,9	0,038
582,3	0,038
582,7	0,037
583,2	0,036
583,6	0,036
584,1	0,037
584,5	0,036
585	0,036
585,4	0,036
585,9	0,037
586,3	0,037
586,8	0,038
587,2	0,037
587,6	0,037
588,1	0,037
588,5	0,037
589	0,037
589,4	0,037
589,9	0,037
590,3	0,036
590,8	0,036
591,2	0,037
591,7	0,036
592,1	0,036
592,5	0,037
593	0,037
593,4	0,036
593,9	0,036
594,3	0,035
594,8	0,035
595,2	0,035
595,7	0,035
596,1	0,034
596,6	0,034
597	0,034
597,4	0,034
597,9	0,034
598,3	0,034
598,8	0,034
599,2	0,034
599,7	0,033
600,1	0,033
600,6	0,033
601	0,033
601,4	0,033
601,9	0,033
602,3	0,032
602,8	0,033
603,2	0,033
603,7	0,033
604,1	0,032
604,6	0,033
605	0,033
605,4	0,033
605,9	0,033
606,3	0,033
606,8	0,032
607,2	0,033
607,7	0,033
608,1	0,033
608,6	0,034
609	0,034
609,4	0,034
609,9	0,034
610,3	0,034
610,8	0,033
611,2	0,033
611,7	0,033
612,1	0,033
612,6	0,033
613	0,032
613,4	0,032
613,9	0,032
614,3	0,032
614,8	0,031
615,2	0,032
615,7	0,032
616,1	0,031
616,6	0,032
617	0,031
617,4	0,032
617,9	0,032
618,3	0,032
618,8	0,032
619,2	0,032
619,7	0,032
620,1	0,032
620,5	0,032
621	0,032
621,4	0,032
621,9	0,032
622,3	0,032
622,8	0,032
623,2	0,031
623,6	0,031
624,1	0,031
624,5	0,031
625	0,03
625,4	0,03
625,9	0,03
626,3	0,03
626,8	0,031
627,2	0,031
627,6	0,03
628,1	0,031
628,5	0,031
629	0,03
629,4	0,03
629,9	0,03
630,3	0,029
630,7	0,03
631,2	0,029
631,6	0,03
632,1	0,03
632,5	0,03
633	0,03
633,4	0,03
633,8	0,03
634,3	0,03
634,7	0,031
635,2	0,031
635,6	0,03
636,1	0,03
636,5	0,029
636,9	0,029
637,4	0,029
637,8	0,028
638,3	0,028
638,7	0,028
639,2	0,028
639,6	0,028
640	0,028
640,5	0,029
640,9	0,029
641,4	0,028
641,8	0,028
642,2	0,028
642,7	0,027
643,1	0,027
643,6	0,026
644	0,027
644,5	0,027
644,9	0,027
645,3	0,027
645,8	0,027
646,2	0,027
646,7	0,027
647,1	0,027
647,6	0,027
648	0,027
648,4	0,027
648,9	0,027
649,3	0,027
649,8	0,028
650,2	0,027
650,6	0,027
651,1	0,027
651,5	0,027
652	0,027
652,4	0,027
652,9	0,026
653,3	0,026
653,7	0,026
654,2	0,025
654,6	0,024
655,1	0,021
655,5	0,014
655,9	0,009
656,4	0,006
656,8	0,007
657,3	0,008
657,7	0,008
658,2	0,008
658,6	0,01
659	0,016
659,5	0,027
659,9	0,035
660,4	0,036
660,8	0,036
661,2	0,035
661,7	0,033
662,1	0,032
662,6	0,031
663	0,03
663,4	0,029
663,9	0,029
664,3	0,028
664,8	0,028
665,2	0,028
665,6	0,027
666,1	0,026
666,5	0,026
667	0,026
667,4	0,026
667,9	0,026
668,3	0,026
668,7	0,026
669,2	0,026
669,6	0,026
670,1	0,026
670,5	0,026
670,9	0,025
671,4	0,026
671,8	0,026
672,3	0,026
672,7	0,026
673,1	0,026
673,6	0,026
674	0,026
674,5	0,025
674,9	0,025
675,3	0,025
675,8	0,025
676,2	0,025
676,7	0,025
677,1	0,025
677,5	0,025
678	0,025
678,4	0,025
678,9	0,025
679,3	0,026
679,7	0,026
680,2	0,025
680,6	0,025
681,1	0,025
681,5	0,025
681,9	0,025
682,4	0,024
682,8	0,024
683,3	0,024
683,7	0,024
684,1	0,024
684,6	0,024
685	0,024
685,5	0,024
685,9	0,024
686,3	0,024
686,8	0,024
687,2	0,024
687,7	0,024
688,1	0,023
688,5	0,023
689	0,024
689,4	0,024
689,9	0,024
690,3	0,024
690,7	0,024
691,2	0,024
691,6	0,025
692	0,024
692,5	0,024
692,9	0,024
693,4	0,023
693,8	0,023
694,2	0,023
694,7	0,023
695,1	0,023
695,6	0,023
696	0,023
696,4	0,023
696,9	0,024
697,3	0,024
697,8	0,024
698,2	0,023
698,6	0,023
699,1	0,023
699,5	0,023
699,9	0,022
700,4	0,023
700,8	0,023
701,3	0,023
701,7	0,023
702,1	0,023
702,6	0,023
703	0,023
703,5	0,023
703,9	0,023
704,3	0,023
704,8	0,022
705,2	0,022
705,6	0,022
706,1	0,021
706,5	0,021
707	0,021
707,4	0,022
707,8	0,022
708,3	0,022
708,7	0,022
709,2	0,022
709,6	0,022
710	0,023
710,5	0,023
710,9	0,023
711,3	0,022
711,8	0,022
712,2	0,022
712,7	0,023
713,1	0,022
713,5	0,022
714	0,022
714,4	0,023
714,8	0,023
715,3	0,023
715,7	0,022
716,2	0,023
716,6	0,022
717	0,023
717,5	0,022
717,9	0,022
718,3	0,023
718,8	0,022
719,2	0,022
719,7	0,022
720,1	0,022
720,5	0,022
721	0,022
721,4	0,022
721,8	0,022
722,3	0,022
722,7	0,022
723,2	0,022
723,6	0,022
724	0,022
724,5	0,022
724,9	0,022
725,3	0,022
725,8	0,022
726,2	0,022
726,7	0,022
727,1	0,022
727,5	0,022
728	0,022
728,4	0,022
728,8	0,022
729,3	0,022
729,7	0,022
730,1	0,022
730,6	0,022
731	0,022
731,5	0,022
731,9	0,021
732,3	0,021
732,8	0,021
733,2	0,021
733,6	0,021
734,1	0,021
734,5	0,02
734,9	0,02
735,4	0,02
735,8	0,02
736,3	0,02
736,7	0,021
737,1	0,02
737,6	0,02
738	0,02
738,4	0,021
738,9	0,021
739,3	0,021
739,7	0,02
740,2	0,02
740,6	0,02
741,1	0,02
741,5	0,02
741,9	0,02
742,4	0,02
742,8	0,02
743,2	0,021
743,7	0,021
744,1	0,021
744,5	0,021
745	0,021
745,4	0,021
745,8	0,021
746,3	0,021
746,7	0,02
747,2	0,02
747,6	0,02
748	0,02
748,5	0,019
748,9	0,019
749,3	0,019
749,8	0,019
750,2	0,019
750,6	0,019
751,1	0,019
751,5	0,019
751,9	0,019
752,4	0,019
752,8	0,018
753,3	0,019
753,7	0,019
754,1	0,019
754,6	0,019
755	0,019
755,4	0,019
755,9	0,019
756,3	0,019
756,7	0,019
757,2	0,02
757,6	0,02
758	0,02
758,5	0,02
758,9	0,02
759,3	0,02
759,8	0,02
760,2	0,02
760,6	0,02
761,1	0,02
761,5	0,02
761,9	0,02
762,4	0,019
762,8	0,02
763,3	0,019
763,7	0,019
764,1	0,02
764,6	0,02
765	0,02
765,4	0,019
765,9	0,019
766,3	0,019
766,7	0,019
767,2	0,019
767,6	0,019
768	0,018
768,5	0,018
768,9	0,018
769,3	0,017
769,8	0,017
770,2	0,017
770,6	0,017
771,1	0,017
771,5	0,017
771,9	0,017
772,4	0,017
772,8	0,018
773,2	0,018
773,7	0,018
774,1	0,018
774,5	0,018
775	0,018
775,4	0,018
775,8	0,018
776,3	0,018
776,7	0,018
777,1	0,018
777,6	0,018
778	0,018
778,4	0,018
778,9	0,018
779,3	0,018
779,7	0,019
780,2	0,018
780,6	0,018
781	0,018
781,5	0,018
781,9	0,018
782,3	0,018
782,8	0,018
783,2	0,018
783,6	0,017
784,1	0,017
784,5	0,018
784,9	0,018
785,4	0,018
785,8	0,018
786,2	0,018
786,7	0,018
787,1	0,018
787,5	0,018
788	0,017
788,4	0,017
788,8	0,017
789,3	0,017
789,7	0,017
790,1	0,017
790,6	0,017
791	0,017
791,4	0,018
791,9	0,018
792,3	0,018
792,7	0,018
793,2	0,018
793,6	0,018
794	0,018
794,5	0,018
794,9	0,017
795,3	0,018
795,8	0,018
796,2	0,018
796,6	0,018
797,1	0,018
797,5	0,017
797,9	0,017
798,4	0,018
798,8	0,018
799,2	0,018
799,7	0,018
800,1	0,018
800,5	0,018
801	0,018
801,4	0,018
801,8	0,017
802,2	0,017
802,7	0,017
803,1	0,017
803,5	0,017
804	0,017
804,4	0,017
804,8	0,017
805,3	0,016
805,7	0,016
806,1	0,017
806,6	0,016
807	0,016
807,4	0,016
807,9	0,016
808,3	0,016
808,7	0,016
809,2	0,016
809,6	0,016
810	0,017
810,4	0,017
810,9	0,016
811,3	0,016
811,7	0,017
812,2	0,016
812,6	0,017
813	0,017
813,5	0,016
813,9	0,017
814,3	0,017
814,8	0,017
815,2	0,017
815,6	0,017
816,1	0,017
816,5	0,017
816,9	0,017
817,3	0,017
817,8	0,017
818,2	0,017
818,6	0,017
819,1	0,017
819,5	0,017
819,9	0,017
820,4	0,017
820,8	0,016
821,2	0,016
821,7	0,016
822,1	0,016
822,5	0,016
822,9	0,017
823,4	0,017
823,8	0,017
824,2	0,018
824,7	0,018
825,1	0,017
825,5	0,017
826	0,017
826,4	0,016
826,8	0,017
827,3	0,016
827,7	0,016
828,1	0,016
828,5	0,016
829	0,015
829,4	0,015
829,8	0,015
830,3	0,015
830,7	0,015
831,1	0,015
831,6	0,015
832	0,015
832,4	0,015
832,8	0,015
833,3	0,015
833,7	0,015
834,1	0,015
834,6	0,015
835	0,015
835,4	0,015
835,8	0,015
836,3	0,015
836,7	0,015
837,1	0,015
837,6	0,015
838	0,016
838,4	0,016
838,9	0,016
839,3	0,016
839,7	0,016
840,1	0,015
840,6	0,015
841	0,015
841,4	0,015
841,9	0,015
842,3	0,015
842,7	0,015
843,1	0,015
843,6	0,015
844	0,015
844,4	0,015
844,9	0,015
845,3	0,015
845,7	0,014
846,2	0,014
846,6	0,014
847	0,014
847,4	0,014
847,9	0,014
848,3	0,014
848,7	0,014
849,2	0,014
849,6	0,015
850	0,015
850,4	0,015
850,9	0,015
851,3	0,015
851,7	0,015
852,2	0,015
852,6	0,015
853	0,014
853,4	0,015
853,9	0,015
854,3	0,015
854,7	0,015
855,2	0,015
855,6	0,015
856	0,015
856,4	0,015
856,9	0,015
857,3	0,015
857,7	0,015
858,2	0,014
858,6	0,014
859	0,014
859,4	0,014
859,9	0,014
860,3	0,014
860,7	0,014
861,1	0,015
861,6	0,015
862	0,015
862,4	0,015
862,9	0,014
863,3	0,014
863,7	0,014
864,1	0,014
864,6	0,013
865	0,013
865,4	0,013
865,9	0,013
866,3	0,013
866,7	0,013
867,1	0,014
867,6	0,014
868	0,015
868,4	0,014
868,8	0,014
869,3	0,015
869,7	0,015
870,1	0,014
870,6	0,014
871	0,013
871,4	0,014
871,8	0,013
872,3	0,013
872,7	0,013
873,1	0,013
873,5	0,012
874	0,012
874,4	0,012
874,8	0,012
875,3	0,012
875,7	0,012
876,1	0,013
876,5	0,013
877	0,013
877,4	0,013
877,8	0,013
878,2	0,013
878,7	0,013
879,1	0,013
879,5	0,013
879,9	0,013
880,4	0,013
880,8	0,012
881,2	0,013
881,7	0,012
882,1	0,012
882,5	0,012
882,9	0,012
883,4	0,012
883,8	0,012
884,2	0,012
884,6	0,012
885,1	0,012
885,5	0,012
885,9	0,012
886,3	0,012
886,8	0,012
887,2	0,012
887,6	0,012
888	0,013
888,5	0,013
888,9	0,013
889,3	0,013
889,8	0,013
890,2	0,014
890,6	0,014
891	0,014
891,5	0,014
891,9	0,015
892,3	0,015
892,7	0,015
893,2	0,015
893,6	0,015
894	0,014
894,4	0,014
894,9	0,014
895,3	0,014
895,7	0,014
896,1	0,013
896,6	0,013
897	0,013
897,4	0,013
897,8	0,013
898,3	0,013
898,7	0,013
899,1	0,013
899,5	0,013
900	0,014
900,4	0,014
900,8	0,013
901,2	0,013
901,7	0,013
902,1	0,013
902,5	0,013
902,9	0,013
903,4	0,013
903,8	0,014
904,2	0,013
904,6	0,013
905,1	0,013
905,5	0,014
905,9	0,014
906,3	0,014
906,8	0,013
907,2	0,014
907,6	0,014
908	0,014
908,5	0,014
908,9	0,014
909,3	0,014
909,7	0,014
910,2	0,014
910,6	0,014
911	0,014
911,4	0,015
911,9	0,015
912,3	0,015
912,7	0,015
913,1	0,015
913,6	0,015
914	0,015
914,4	0,015
914,8	0,015
915,3	0,015
915,7	0,015
916,1	0,014
916,5	0,014
916,9	0,014
917,4	0,014
917,8	0,014
918,2	0,014
918,6	0,014
919,1	0,014
919,5	0,014
919,9	0,013
920,3	0,014
920,8	0,013
921,2	0,013
921,6	0,013
922	0,013
922,5	0,013
922,9	0,013
923,3	0,013
923,7	0,013
924,2	0,013
924,6	0,013
925	0,013
925,4	0,013
925,8	0,013
926,3	0,013
926,7	0,013
927,1	0,013
927,5	0,013
928	0,013
928,4	0,013
928,8	0,013
929,2	0,013
929,7	0,012
930,1	0,013
930,5	0,013
930,9	0,012
931,3	0,012
931,8	0,012
932,2	0,012
932,6	0,012
933	0,012
933,5	0,011
933,9	0,012
934,3	0,011
934,7	0,011
935,2	0,011
935,6	0,011
936	0,011
936,4	0,012
936,8	0,012
937,3	0,012
937,7	0,012
938,1	0,013
938,5	0,012
939	0,011
939,4	0,011
939,8	0,011
940,2	0,011
940,6	0,011
941,1	0,011
941,5	0,012
941,9	0,013
942,3	0,013
942,8	0,012
943,2	0,013
943,6	0,012
944	0,012
944,4	0,013
944,9	0,013
945,3	0,012
945,7	0,012
946,1	0,012
946,6	0,012
947	0,012
947,4	0,011
947,8	0,011
948,2	0,011
948,7	0,011
949,1	0,011
949,5	0,01
949,9	0,009
950,3	0,01
950,8	0,01
951,2	0,01
951,6	0,01
952	0,01
952,5	0,01
952,9	0,011
953,3	0,011
953,7	0,01
954,1	0,011
954,6	0,011
955	0,01
955,4	0,01
955,8	0,01
956,2	0,01
956,7	0,009
957,1	0,008
957,5	0,008
957,9	0,007
958,3	0,007
958,8	0,007
959,2	0,007
959,6	0,006
960	0,006
960,5	0,006
960,9	0,007
961,3	0,007
961,7	0,007
962,1	0,007
962,6	0,008
963	0,008
963,4	0,007
963,8	0,008
964,2	0,007
964,7	0,007
965,1	0,007
965,5	0,007
965,9	0,008
966,3	0,008
966,8	0,008
967,2	0,008
967,6	0,009
968	0,009
968,4	0,009
968,9	0,009
969,3	0,009
969,7	0,01
970,1	0,01
970,5	0,01
971	0,01
971,4	0,01
971,8	0,01
972,2	0,01
972,6	0,009
973,1	0,008
973,5	0,008
973,9	0,008
974,3	0,008
974,7	0,008
975,2	0,008
975,6	0,007
976	0,008
976,4	0,008
976,8	0,008
977,3	0,008
977,7	0,008
978,1	0,008
978,5	0,008
978,9	0,008
979,4	0,007
979,8	0,008
980,2	0,007
980,6	0,008
981	0,008
981,5	0,008
981,9	0,008
982,3	0,008
982,7	0,008
983,1	0,008
983,6	0,008
984	0,008
984,4	0,007
984,8	0,008
985,2	0,007
985,6	0,008
986,1	0,008
986,5	0,008
986,9	0,008
987,3	0,008
987,7	0,009
988,2	0,008
988,6	0,008
989	0,008
989,4	0,008
989,8	0,008
990,3	0,008
990,7	0,008
991,1	0,009
991,5	0,008
991,9	0,009
992,3	0,009
992,8	0,008
993,2	0,009
993,6	0,009
994	0,009
994,4	0,009
994,9	0,009
995,3	0,009
995,7	0,009
996,1	0,008
996,5	0,008
996,9	0,008
997,4	0,008
997,8	0,008
998,2	0,008
998,6	0,008
999	0,008
999,5	0,008
999,9	0,008
1000,3	0,008
1000,7	0,008
1001,1	0,008
1001,5	0,008
1002	0,008
1002,4	0,009
1002,8	0,009
1003,2	0,01
1003,6	0,01
1004	0,011
1004,5	0,011
1004,9	0,011
1005,3	0,011
1005,7	0,011
1006,1	0,011
1006,6	0,01
1007	0,01
1007,4	0,01
1007,8	0,011
1008,2	0,011
1008,6	0,011
1009,1	0,011
1009,5	0,011
1009,9	0,011
1010,3	0,011
1010,7	0,011
1011,1	0,011
1011,6	0,011
1012	0,011
1012,4	0,011
1012,8	0,012
1013,2	0,011
1013,6	0,011
1014,1	0,011
1014,5	0,011
1014,9	0,01
1015,3	0,009
1015,7	0,009
1016,1	0,01
1016,6	0,01
1017	0,01
1017,4	0,01
1017,8	0,01
1018,2	0,01
1018,6	0,01
1019,1	0,009
1019,5	0,01
1019,9	0,01
1020,3	0,01
1020,7	0,011
1021,1	0,011
1021,6	0,011
1022	0,011
1022,4	0,012
1022,8	0,011
1023,2	0,011
1023,6	0,011
1024,1	0,011
1024,5	0,011
1024,9	0,01
1025,3	0,01
1025,7	0,009
1026,1	0,008
1026,6	0,008
1027	0,007
1027,4	0,006
1027,8	0,007
1028,2	0,007
1028,6	0,008
1029	0,007
1029,5	0,007
1029,9	0,008
1030,3	0,007
1030,7	0,007
1031,1	0,007
1031,5	0,007
1032	0,008
1032,4	0,008
1032,8	0,008
1033,2	0,009
1033,6	0,009
1034	0,009
1034,4	0,009
1034,9	0,009
1035,3	0,009
1035,7	0,008
1036,1	0,008
1036,5	0,007
1036,9	0,008
1037,4	0,009
1037,8	0,009
1038,2	0,008
1038,6	0,009
1039	0,008
1039,4	0,009
1039,8	0,008
1040,3	0,008
1040,7	0,008
1041,1	0,008
1041,5	0,008
1041,9	0,009
1042,3	0,008
1042,7	0,009
1043,2	0,008
1043,6	0,009
1044	0,009
1044,4	0,007
1044,8	0,007
1045,2	0,007
1045,6	0,006
1046,1	0,006
1046,5	0,005
1046,9	0,005
1047,3	0,006
1047,7	0,006
1048,1	0,006
1048,5	0,005
1049	0,006
1049,4	0,005
1049,8	0,005
1050,2	0,005
1050,6	0,005
1051	0,005
1051,4	0,006
1051,9	0,006
1052,3	0,006
1052,7	0,007
1053,1	0,007
1053,5	0,008
1053,9	0,008
1054,3	0,009
1054,8	0,009
1055,2	0,009
1055,6	0,01
1056	0,009
1056,4	0,009
1056,8	0,009
1057,2	0,008
1057,6	0,008
1058,1	0,007
1058,5	0,007
1058,9	0,008
1059,3	0,008
1059,7	0,008
1060,1	0,007
1060,5	0,008
1061	0,008
1061,4	0,007
1061,8	0,006
1062,2	0,006
1062,6	0,006
1063	0,006
1063,4	0,006
1063,8	0,006
1064,3	0,007
1064,7	0,007
1065,1	0,007
1065,5	0,007
1065,9	0,007
1066,3	0,007
1066,7	0,007
1067,1	0,008
1067,6	0,008
1068	0,007
1068,4	0,007
1068,8	0,007
1069,2	0,006
1069,6	0,007
1070	0,006
1070,4	0,005
1070,9	0,005
1071,3	0,005
1071,7	0,005
1072,1	0,004
1072,5	0,005
1072,9	0,005
1073,3	0,006
1073,7	0,006
1074,2	0,004
1074,6	0,004
1075	0,005
1075,4	0,004
1075,8	0,004
1076,2	0,004
1076,6	0,004
1077	0,004
1077,5	0,004
1077,9	0,003
1078,3	0,003
1078,7	0,003
1079,1	0,004
1079,5	0,005
1079,9	0,006
1080,3	0,005
1080,7	0,007
1081,2	0,005
1081,6	0,005
1082	0,004
1082,4	0,002
1082,8	-0
1083,2	0,001
1083,6	-0,001
1084	-0
1084,5	-0,001
1084,9	-0,001
1085,3	-0
1085,7	0,002
1086,1	0,002
1086,5	0,003
1086,9	0,004
1087,3	0,005
1087,7	0,005
1088,2	0,004
1088,6	0,003
1089	0,003
1089,4	-0
1089,8	0
1090,2	-0,002
1090,6	-0,002
1091	0,001
1091,4	-0,001
1091,9	-0,003
1092,3	-0
1092,7	-0,005
1093,1	-0,004
1093,5	-0,005
1093,9	-0,006
1094,3	-0,005
1094,7	-0,007
1095,1	-0,006
1095,5	-0,004
1096	-0,005
1096,4	-0,001
1096,8	-0,001
1097,2	-0,005
1097,6	-0,005
1098	-0,003
1098,4	0,001
1098,8	-0,002
1099,2	-0,01
1099,6	-0,012
1100,1	-0,008
1100,5	-0,008
1100,9	-0,012
1101,3	-0,01
1101,7	-0,014
1102,1	-0,01
1102,5	-0,018
1102,9	-0,024
1103,3	-0,032
1103,7	-0,033
1104,2	-0,046
1104,6	-0,041
1105	-0,051
1105,4	-0,05
1105,8	-0,039
1106,2	-0,033
1106,6	-0,038
1107	-0,055
1107,4	-0,071
1107,8	-0,036
1108,3	-0,007
