Data from Absorbance_00035.txt Node
Date: Wed Aug 02 14:23:10 MSK 2023
User: vat
Spectrometer: MAYP114033
Trigger mode: 0
Integration Time (sec): 8,000000E-3
Scans to average: 10
Electric dark correction enabled: true
Nonlinearity correction enabled: false
Boxcar width: 3
XAxis mode: Wavelengths
Number of Pixels in Spectrum: 2068
>>>>>Begin Spectral Data<<<<<
199,4	-0,749
199,9	-0,167
200,4	0,231
200,8	0,682
201,3	0,867
201,8	0,92
202,2	0,935
202,7	0,966
203,2	1,023
203,6	1,054
204,1	1,044
204,6	1,049
205	1,061
205,5	1,073
206	1,071
206,4	1,074
206,9	1,091
207,4	1,107
207,8	1,129
208,3	1,147
208,8	1,171
209,2	1,196
209,7	1,213
210,2	1,227
210,6	1,26
211,1	1,259
211,5	1,268
212	1,296
212,5	1,296
212,9	1,316
213,4	1,326
213,9	1,334
214,3	1,346
214,8	1,353
215,3	1,329
215,7	1,353
216,2	1,369
216,7	1,392
217,1	1,399
217,6	1,408
218,1	1,429
218,5	1,458
219	1,479
219,5	1,496
219,9	1,517
220,4	1,549
220,9	1,567
221,3	1,579
221,8	1,613
222,3	1,617
222,7	1,632
223,2	1,64
223,6	1,629
224,1	1,659
224,6	1,685
225	1,696
225,5	1,717
226	1,737
226,4	1,739
226,9	1,766
227,4	1,79
227,8	1,783
228,3	1,816
228,8	1,849
229,2	1,853
229,7	1,875
230,2	1,906
230,6	1,9
231,1	1,908
231,5	1,898
232	1,89
232,5	1,885
232,9	1,889
233,4	1,887
233,9	1,888
234,3	1,908
234,8	1,915
235,3	1,924
235,7	1,942
236,2	1,949
236,7	1,965
237,1	1,981
237,6	1,995
238,1	2,023
238,5	2,032
239	2,04
239,4	2,05
239,9	2,046
240,4	2,047
240,8	2,047
241,3	2,038
241,8	2,032
242,2	2,045
242,7	2,043
243,2	2,06
243,6	2,059
244,1	2,053
244,6	2,073
245	2,084
245,5	2,079
245,9	2,094
246,4	2,077
246,9	2,085
247,3	2,102
247,8	2,089
248,3	2,1
248,7	2,091
249,2	2,094
249,7	2,116
250,1	2,128
250,6	2,139
251	2,127
251,5	2,106
252	2,121
252,4	2,117
252,9	2,104
253,4	2,107
253,8	2,112
254,3	2,126
254,8	2,145
255,2	2,144
255,7	2,145
256,1	2,171
256,6	2,174
257,1	2,163
257,5	2,152
258	2,158
258,5	2,155
258,9	2,151
259,4	2,124
259,9	2,11
260,3	2,104
260,8	2,098
261,2	2,096
261,7	2,106
262,2	2,103
262,6	2,123
263,1	2,123
263,6	2,123
264	2,14
264,5	2,132
264,9	2,115
265,4	2,121
265,9	2,112
266,3	2,109
266,8	2,112
267,3	2,123
267,7	2,146
268,2	2,171
268,7	2,161
269,1	2,159
269,6	2,173
270	2,191
270,5	2,188
271	2,16
271,4	2,145
271,9	2,167
272,4	2,17
272,8	2,193
273,3	2,172
273,7	2,159
274,2	2,177
274,7	2,18
275,1	2,184
275,6	2,181
276,1	2,171
276,5	2,184
277	2,186
277,4	2,203
277,9	2,214
278,4	2,23
278,8	2,252
279,3	2,253
279,8	2,272
280,2	2,265
280,7	2,253
281,1	2,265
281,6	2,259
282,1	2,26
282,5	2,262
283	2,242
283,4	2,261
283,9	2,247
284,4	2,238
284,8	2,231
285,3	2,231
285,8	2,241
286,2	2,25
286,7	2,237
287,1	2,237
287,6	2,224
288,1	2,227
288,5	2,23
289	2,212
289,5	2,206
289,9	2,208
290,4	2,223
290,8	2,234
291,3	2,22
291,8	2,198
292,2	2,195
292,7	2,165
293,1	2,163
293,6	2,125
294,1	2,1
294,5	2,077
295	2,052
295,5	2,025
295,9	2,009
296,4	1,992
296,8	1,969
297,3	1,943
297,8	1,913
298,2	1,885
298,7	1,855
299,1	1,83
299,6	1,798
300,1	1,783
300,5	1,766
301	1,758
301,5	1,75
301,9	1,743
302,4	1,73
302,8	1,72
303,3	1,707
303,8	1,701
304,2	1,689
304,7	1,674
305,1	1,664
305,6	1,656
306,1	1,65
306,5	1,636
307	1,618
307,4	1,607
307,9	1,599
308,4	1,584
308,8	1,573
309,3	1,562
309,8	1,558
310,2	1,552
310,7	1,539
311,1	1,528
311,6	1,52
312,1	1,513
312,5	1,502
313	1,487
313,4	1,477
313,9	1,469
314,4	1,46
314,8	1,449
315,3	1,437
315,7	1,426
316,2	1,416
316,7	1,402
317,1	1,39
317,6	1,378
318	1,368
318,5	1,357
319	1,347
319,4	1,337
319,9	1,327
320,3	1,317
320,8	1,308
321,3	1,297
321,7	1,287
322,2	1,274
322,6	1,261
323,1	1,251
323,6	1,241
324	1,228
324,5	1,217
324,9	1,209
325,4	1,2
325,9	1,191
326,3	1,181
326,8	1,169
327,2	1,157
327,7	1,146
328,2	1,131
328,6	1,118
329,1	1,108
329,5	1,097
330	1,087
330,5	1,079
330,9	1,07
331,4	1,061
331,8	1,052
332,3	1,04
332,8	1,031
333,2	1,023
333,7	1,011
334,1	0,999
334,6	0,99
335,1	0,979
335,5	0,969
336	0,956
336,4	0,942
336,9	0,932
337,4	0,919
337,8	0,908
338,3	0,896
338,7	0,885
339,2	0,875
339,7	0,867
340,1	0,857
340,6	0,847
341	0,836
341,5	0,825
342	0,816
342,4	0,807
342,9	0,796
343,3	0,788
343,8	0,779
344,2	0,771
344,7	0,761
345,2	0,752
345,6	0,742
346,1	0,732
346,5	0,722
347	0,712
347,5	0,703
347,9	0,695
348,4	0,685
348,8	0,676
349,3	0,667
349,8	0,658
350,2	0,649
350,7	0,639
351,1	0,63
351,6	0,622
352	0,614
352,5	0,607
353	0,599
353,4	0,591
353,9	0,583
354,3	0,576
354,8	0,569
355,3	0,563
355,7	0,555
356,2	0,549
356,6	0,542
357,1	0,535
357,5	0,527
358	0,52
358,5	0,513
358,9	0,506
359,4	0,5
359,8	0,493
360,3	0,488
360,8	0,482
361,2	0,476
361,7	0,471
362,1	0,465
362,6	0,459
363	0,453
363,5	0,447
364	0,442
364,4	0,435
364,9	0,43
365,3	0,425
365,8	0,419
366,3	0,415
366,7	0,411
367,2	0,406
367,6	0,402
368,1	0,398
368,5	0,394
369	0,391
369,5	0,387
369,9	0,383
370,4	0,379
370,8	0,375
371,3	0,371
371,7	0,367
372,2	0,363
372,7	0,359
373,1	0,355
373,6	0,352
374	0,349
374,5	0,346
374,9	0,343
375,4	0,34
375,9	0,337
376,3	0,334
376,8	0,331
377,2	0,329
377,7	0,326
378,2	0,323
378,6	0,32
379,1	0,317
379,5	0,315
380	0,311
380,4	0,307
380,9	0,304
381,4	0,301
381,8	0,297
382,3	0,293
382,7	0,29
383,2	0,287
383,6	0,285
384,1	0,281
384,6	0,278
385	0,276
385,5	0,273
385,9	0,27
386,4	0,266
386,8	0,262
387,3	0,259
387,7	0,256
388,2	0,252
388,7	0,249
389,1	0,246
389,6	0,243
390	0,239
390,5	0,237
390,9	0,233
391,4	0,229
391,9	0,226
392,3	0,222
392,8	0,22
393,2	0,218
393,7	0,216
394,1	0,214
394,6	0,212
395,1	0,211
395,5	0,21
396	0,209
396,4	0,207
396,9	0,204
397,3	0,203
397,8	0,202
398,2	0,2
398,7	0,198
399,2	0,196
399,6	0,195
400,1	0,194
400,5	0,193
401	0,192
401,4	0,191
401,9	0,189
402,4	0,187
402,8	0,186
403,3	0,184
403,7	0,183
404,2	0,181
404,6	0,18
405,1	0,179
405,5	0,178
406	0,177
406,5	0,177
406,9	0,176
407,4	0,175
407,8	0,174
408,3	0,173
408,7	0,173
409,2	0,172
409,6	0,171
410,1	0,17
410,6	0,169
411	0,168
411,5	0,167
411,9	0,166
412,4	0,164
412,8	0,163
413,3	0,163
413,7	0,162
414,2	0,162
414,7	0,16
415,1	0,16
415,6	0,16
416	0,159
416,5	0,159
416,9	0,157
417,4	0,156
417,8	0,154
418,3	0,152
418,8	0,151
419,2	0,151
419,7	0,15
420,1	0,149
420,6	0,148
421	0,147
421,5	0,147
421,9	0,147
422,4	0,146
422,8	0,145
423,3	0,145
423,8	0,145
424,2	0,145
424,7	0,145
425,1	0,145
425,6	0,143
426	0,142
426,5	0,141
426,9	0,14
427,4	0,139
427,9	0,138
428,3	0,138
428,8	0,138
429,2	0,137
429,7	0,137
430,1	0,136
430,6	0,135
431	0,134
431,5	0,134
431,9	0,133
432,4	0,132
432,8	0,131
433,3	0,131
433,8	0,129
434,2	0,129
434,7	0,128
435,1	0,127
435,6	0,127
436	0,127
436,5	0,126
436,9	0,126
437,4	0,125
437,8	0,124
438,3	0,124
438,8	0,123
439,2	0,123
439,7	0,123
440,1	0,122
440,6	0,122
441	0,121
441,5	0,12
441,9	0,12
442,4	0,12
442,8	0,119
443,3	0,119
443,7	0,119
444,2	0,119
444,7	0,119
445,1	0,118
445,6	0,117
446	0,117
446,5	0,117
446,9	0,117
447,4	0,116
447,8	0,116
448,3	0,116
448,7	0,115
449,2	0,115
449,6	0,115
450,1	0,114
450,6	0,113
451	0,113
451,5	0,113
451,9	0,113
452,4	0,113
452,8	0,113
453,3	0,113
453,7	0,113
454,2	0,112
454,6	0,112
455,1	0,111
455,5	0,11
456	0,109
456,4	0,108
456,9	0,107
457,3	0,107
457,8	0,106
458,3	0,106
458,7	0,106
459,2	0,106
459,6	0,106
460,1	0,107
460,5	0,107
461	0,107
461,4	0,106
461,9	0,106
462,3	0,105
462,8	0,105
463,2	0,105
463,7	0,105
464,1	0,104
464,6	0,105
465	0,104
465,5	0,104
466	0,103
466,4	0,103
466,9	0,102
467,3	0,102
467,8	0,102
468,2	0,102
468,7	0,102
469,1	0,103
469,6	0,103
470	0,103
470,5	0,103
470,9	0,103
471,4	0,102
471,8	0,101
472,3	0,101
472,7	0,1
473,2	0,099
473,6	0,099
474,1	0,099
474,5	0,099
475	0,099
475,4	0,099
475,9	0,098
476,4	0,098
476,8	0,098
477,3	0,098
477,7	0,097
478,2	0,098
478,6	0,098
479,1	0,099
479,5	0,098
480	0,098
480,4	0,098
480,9	0,097
481,3	0,096
481,8	0,095
482,2	0,094
482,7	0,095
483,1	0,094
483,6	0,094
484	0,094
484,5	0,094
484,9	0,095
485,4	0,094
485,8	0,094
486,3	0,097
486,7	0,096
487,2	0,096
487,6	0,095
488,1	0,095
488,5	0,096
489	0,096
489,4	0,09
489,9	0,091
490,4	0,092
490,8	0,094
491,3	0,094
491,7	0,094
492,2	0,094
492,6	0,094
493,1	0,094
493,5	0,093
494	0,093
494,4	0,093
494,9	0,093
495,3	0,092
495,8	0,092
496,2	0,093
496,7	0,093
497,1	0,093
497,6	0,093
498	0,093
498,5	0,093
498,9	0,093
499,4	0,093
499,8	0,092
500,3	0,092
500,7	0,091
501,2	0,091
501,6	0,091
502,1	0,09
502,5	0,09
503	0,09
503,4	0,09
503,9	0,091
504,3	0,091
504,8	0,09
505,2	0,09
505,7	0,091
506,1	0,091
506,6	0,091
507	0,09
507,5	0,089
507,9	0,089
508,4	0,089
508,8	0,089
509,3	0,089
509,7	0,089
510,2	0,089
510,6	0,09
511,1	0,091
511,5	0,09
512	0,09
512,4	0,089
512,9	0,089
513,3	0,089
513,8	0,088
514,2	0,088
514,7	0,088
515,1	0,089
515,6	0,089
516	0,088
516,5	0,089
516,9	0,089
517,4	0,089
517,8	0,088
518,3	0,088
518,7	0,089
519,2	0,089
519,6	0,089
520,1	0,089
520,5	0,089
521	0,089
521,4	0,089
521,9	0,089
522,3	0,088
522,8	0,087
523,2	0,087
523,7	0,087
524,1	0,087
524,6	0,087
525	0,087
525,5	0,088
525,9	0,088
526,4	0,087
526,8	0,087
527,3	0,088
527,7	0,087
528,2	0,086
528,6	0,086
529,1	0,087
529,5	0,087
530	0,087
530,4	0,087
530,9	0,087
531,3	0,087
531,8	0,087
532,2	0,087
532,6	0,087
533,1	0,086
533,5	0,086
534	0,086
534,4	0,086
534,9	0,085
535,3	0,085
535,8	0,085
536,2	0,085
536,7	0,085
537,1	0,084
537,6	0,084
538	0,084
538,5	0,084
538,9	0,084
539,4	0,084
539,8	0,084
540,3	0,083
540,7	0,083
541,2	0,083
541,6	0,083
542,1	0,083
542,5	0,083
543	0,083
543,4	0,083
543,9	0,083
544,3	0,082
544,8	0,082
545,2	0,082
545,7	0,083
546,1	0,082
546,5	0,083
547	0,083
547,4	0,082
547,9	0,082
548,3	0,082
548,8	0,082
549,2	0,082
549,7	0,082
550,1	0,081
550,6	0,081
551	0,08
551,5	0,08
551,9	0,08
552,4	0,08
552,8	0,08
553,3	0,08
553,7	0,08
554,2	0,081
554,6	0,081
555,1	0,081
555,5	0,081
555,9	0,08
556,4	0,08
556,8	0,08
557,3	0,08
557,7	0,08
558,2	0,08
558,6	0,08
559,1	0,08
559,5	0,08
560	0,079
560,4	0,078
560,9	0,078
561,3	0,078
561,8	0,077
562,2	0,077
562,7	0,077
563,1	0,077
563,6	0,078
564	0,078
564,4	0,078
564,9	0,077
565,3	0,078
565,8	0,078
566,2	0,077
566,7	0,077
567,1	0,077
567,6	0,076
568	0,076
568,5	0,076
568,9	0,075
569,4	0,076
569,8	0,076
570,3	0,075
570,7	0,075
571,1	0,075
571,6	0,074
572	0,074
572,5	0,073
572,9	0,073
573,4	0,074
573,8	0,074
574,3	0,074
574,7	0,073
575,2	0,073
575,6	0,073
576,1	0,074
576,5	0,073
576,9	0,073
577,4	0,073
577,8	0,073
578,3	0,073
578,7	0,073
579,2	0,072
579,6	0,072
580,1	0,072
580,5	0,071
581	0,07
581,4	0,071
581,9	0,071
582,3	0,071
582,7	0,07
583,2	0,07
583,6	0,069
584,1	0,07
584,5	0,069
585	0,069
585,4	0,07
585,9	0,07
586,3	0,07
586,8	0,07
587,2	0,07
587,6	0,07
588,1	0,069
588,5	0,069
589	0,069
589,4	0,069
589,9	0,068
590,3	0,068
590,8	0,068
591,2	0,068
591,7	0,068
592,1	0,068
592,5	0,069
593	0,069
593,4	0,068
593,9	0,067
594,3	0,066
594,8	0,067
595,2	0,066
595,7	0,065
596,1	0,065
596,6	0,065
597	0,065
597,4	0,065
597,9	0,065
598,3	0,064
598,8	0,064
599,2	0,064
599,7	0,064
600,1	0,064
600,6	0,063
601	0,063
601,4	0,063
601,9	0,063
602,3	0,062
602,8	0,062
603,2	0,063
603,7	0,063
604,1	0,062
604,6	0,062
605	0,062
605,4	0,062
605,9	0,062
606,3	0,061
606,8	0,061
607,2	0,061
607,7	0,061
608,1	0,061
608,6	0,061
609	0,061
609,4	0,061
609,9	0,062
610,3	0,061
610,8	0,061
611,2	0,06
611,7	0,06
612,1	0,06
612,6	0,06
613	0,059
613,4	0,06
613,9	0,06
614,3	0,06
614,8	0,059
615,2	0,059
615,7	0,059
616,1	0,058
616,6	0,058
617	0,058
617,4	0,058
617,9	0,058
618,3	0,057
618,8	0,058
619,2	0,058
619,7	0,058
620,1	0,058
620,5	0,057
621	0,057
621,4	0,057
621,9	0,057
622,3	0,057
622,8	0,057
623,2	0,056
623,6	0,056
624,1	0,056
624,5	0,056
625	0,055
625,4	0,055
625,9	0,055
626,3	0,055
626,8	0,055
627,2	0,055
627,6	0,054
628,1	0,055
628,5	0,055
629	0,054
629,4	0,054
629,9	0,054
630,3	0,054
630,7	0,054
631,2	0,053
631,6	0,054
632,1	0,053
632,5	0,053
633	0,053
633,4	0,053
633,8	0,053
634,3	0,053
634,7	0,053
635,2	0,053
635,6	0,052
636,1	0,052
636,5	0,052
636,9	0,052
637,4	0,051
637,8	0,051
638,3	0,051
638,7	0,051
639,2	0,051
639,6	0,05
640	0,05
640,5	0,05
640,9	0,05
641,4	0,05
641,8	0,049
642,2	0,049
642,7	0,049
643,1	0,049
643,6	0,049
644	0,049
644,5	0,049
644,9	0,049
645,3	0,049
645,8	0,048
646,2	0,048
646,7	0,048
647,1	0,047
647,6	0,047
648	0,047
648,4	0,047
648,9	0,048
649,3	0,048
649,8	0,048
650,2	0,048
650,6	0,048
651,1	0,047
651,5	0,047
652	0,047
652,4	0,046
652,9	0,046
653,3	0,046
653,7	0,046
654,2	0,045
654,6	0,043
655,1	0,039
655,5	0,033
655,9	0,022
656,4	0,015
656,8	0,018
657,3	0,019
657,7	0,02
658,2	0,02
658,6	0,02
659	0,03
659,5	0,05
659,9	0,059
660,4	0,061
660,8	0,06
661,2	0,058
661,7	0,056
662,1	0,054
662,6	0,052
663	0,05
663,4	0,049
663,9	0,048
664,3	0,047
664,8	0,047
665,2	0,046
665,6	0,046
666,1	0,045
666,5	0,045
667	0,044
667,4	0,044
667,9	0,044
668,3	0,044
668,7	0,043
669,2	0,043
669,6	0,043
670,1	0,043
670,5	0,043
670,9	0,043
671,4	0,043
671,8	0,043
672,3	0,043
672,7	0,043
673,1	0,043
673,6	0,043
674	0,044
674,5	0,043
674,9	0,043
675,3	0,043
675,8	0,043
676,2	0,043
676,7	0,043
677,1	0,042
677,5	0,042
678	0,042
678,4	0,042
678,9	0,042
679,3	0,043
679,7	0,043
680,2	0,043
680,6	0,042
681,1	0,042
681,5	0,042
681,9	0,042
682,4	0,041
682,8	0,04
683,3	0,04
683,7	0,04
684,1	0,04
684,6	0,04
685	0,04
685,5	0,04
685,9	0,04
686,3	0,04
686,8	0,04
687,2	0,04
687,7	0,04
688,1	0,04
688,5	0,039
689	0,04
689,4	0,04
689,9	0,04
690,3	0,04
690,7	0,04
691,2	0,04
691,6	0,04
692	0,04
692,5	0,04
692,9	0,04
693,4	0,039
693,8	0,039
694,2	0,038
694,7	0,038
695,1	0,039
695,6	0,039
696	0,038
696,4	0,039
696,9	0,04
697,3	0,039
697,8	0,039
698,2	0,039
698,6	0,039
699,1	0,039
699,5	0,039
699,9	0,038
700,4	0,038
700,8	0,038
701,3	0,038
701,7	0,038
702,1	0,038
702,6	0,038
703	0,037
703,5	0,038
703,9	0,038
704,3	0,038
704,8	0,038
705,2	0,038
705,6	0,037
706,1	0,038
706,5	0,037
707	0,037
707,4	0,037
707,8	0,038
708,3	0,037
708,7	0,038
709,2	0,038
709,6	0,038
710	0,038
710,5	0,038
710,9	0,037
711,3	0,037
711,8	0,037
712,2	0,037
712,7	0,037
713,1	0,037
713,5	0,037
714	0,037
714,4	0,037
714,8	0,037
715,3	0,037
715,7	0,037
716,2	0,037
716,6	0,037
717	0,037
717,5	0,037
717,9	0,037
718,3	0,037
718,8	0,037
719,2	0,037
719,7	0,037
720,1	0,037
720,5	0,037
721	0,036
721,4	0,036
721,8	0,036
722,3	0,036
722,7	0,036
723,2	0,037
723,6	0,036
724	0,037
724,5	0,036
724,9	0,036
725,3	0,036
725,8	0,036
726,2	0,036
726,7	0,036
727,1	0,036
727,5	0,036
728	0,035
728,4	0,035
728,8	0,035
729,3	0,035
729,7	0,035
730,1	0,035
730,6	0,036
731	0,035
731,5	0,035
731,9	0,035
732,3	0,035
732,8	0,034
733,2	0,034
733,6	0,034
734,1	0,034
734,5	0,034
734,9	0,034
735,4	0,034
735,8	0,034
736,3	0,034
736,7	0,034
737,1	0,034
737,6	0,034
738	0,034
738,4	0,034
738,9	0,035
739,3	0,035
739,7	0,034
740,2	0,035
740,6	0,035
741,1	0,034
741,5	0,034
741,9	0,034
742,4	0,034
742,8	0,034
743,2	0,034
743,7	0,034
744,1	0,034
744,5	0,034
745	0,034
745,4	0,034
745,8	0,034
746,3	0,034
746,7	0,034
747,2	0,034
747,6	0,033
748	0,033
748,5	0,033
748,9	0,032
749,3	0,032
749,8	0,032
750,2	0,032
750,6	0,032
751,1	0,032
751,5	0,032
751,9	0,032
752,4	0,032
752,8	0,032
753,3	0,032
753,7	0,032
754,1	0,032
754,6	0,032
755	0,032
755,4	0,032
755,9	0,032
756,3	0,032
756,7	0,032
757,2	0,033
757,6	0,033
758	0,033
758,5	0,033
758,9	0,033
759,3	0,033
759,8	0,033
760,2	0,033
760,6	0,033
761,1	0,033
761,5	0,032
761,9	0,032
762,4	0,032
762,8	0,032
763,3	0,032
763,7	0,032
764,1	0,032
764,6	0,032
765	0,032
765,4	0,031
765,9	0,031
766,3	0,031
766,7	0,031
767,2	0,031
767,6	0,031
768	0,031
768,5	0,031
768,9	0,031
769,3	0,031
769,8	0,031
770,2	0,03
770,6	0,03
771,1	0,029
771,5	0,029
771,9	0,029
772,4	0,029
772,8	0,029
773,2	0,029
773,7	0,029
774,1	0,029
774,5	0,029
775	0,03
775,4	0,03
775,8	0,03
776,3	0,03
776,7	0,03
777,1	0,03
777,6	0,03
778	0,03
778,4	0,03
778,9	0,03
779,3	0,03
779,7	0,03
780,2	0,03
780,6	0,03
781	0,03
781,5	0,029
781,9	0,029
782,3	0,029
782,8	0,029
783,2	0,03
783,6	0,029
784,1	0,029
784,5	0,029
784,9	0,029
785,4	0,029
785,8	0,029
786,2	0,029
786,7	0,029
787,1	0,029
787,5	0,029
788	0,029
788,4	0,029
788,8	0,029
789,3	0,029
789,7	0,029
790,1	0,029
790,6	0,029
791	0,029
791,4	0,029
791,9	0,029
792,3	0,03
792,7	0,03
793,2	0,029
793,6	0,029
794	0,029
794,5	0,029
794,9	0,029
795,3	0,029
795,8	0,029
796,2	0,029
796,6	0,029
797,1	0,029
797,5	0,029
797,9	0,029
798,4	0,029
798,8	0,029
799,2	0,029
799,7	0,029
800,1	0,029
800,5	0,029
801	0,029
801,4	0,029
801,8	0,029
802,2	0,029
802,7	0,029
803,1	0,029
803,5	0,029
804	0,028
804,4	0,028
804,8	0,028
805,3	0,028
805,7	0,028
806,1	0,028
806,6	0,027
807	0,027
807,4	0,028
807,9	0,027
808,3	0,027
808,7	0,027
809,2	0,027
809,6	0,027
810	0,027
810,4	0,027
810,9	0,027
811,3	0,027
811,7	0,027
812,2	0,027
812,6	0,027
813	0,027
813,5	0,027
813,9	0,027
814,3	0,027
814,8	0,027
815,2	0,027
815,6	0,027
816,1	0,027
816,5	0,027
816,9	0,027
817,3	0,027
817,8	0,028
818,2	0,027
818,6	0,027
819,1	0,027
819,5	0,027
819,9	0,027
820,4	0,027
820,8	0,026
821,2	0,026
821,7	0,026
822,1	0,026
822,5	0,027
822,9	0,027
823,4	0,027
823,8	0,027
824,2	0,028
824,7	0,028
825,1	0,027
825,5	0,027
826	0,027
826,4	0,027
826,8	0,027
827,3	0,027
827,7	0,027
828,1	0,027
828,5	0,026
829	0,026
829,4	0,026
829,8	0,026
830,3	0,026
830,7	0,026
831,1	0,026
831,6	0,026
832	0,026
832,4	0,026
832,8	0,025
833,3	0,026
833,7	0,025
834,1	0,025
834,6	0,025
835	0,025
835,4	0,025
835,8	0,025
836,3	0,025
836,7	0,025
837,1	0,025
837,6	0,025
838	0,026
838,4	0,026
838,9	0,025
839,3	0,025
839,7	0,025
840,1	0,025
840,6	0,025
841	0,025
841,4	0,025
841,9	0,025
842,3	0,025
842,7	0,025
843,1	0,025
843,6	0,024
844	0,024
844,4	0,024
844,9	0,024
845,3	0,024
845,7	0,024
846,2	0,024
846,6	0,024
847	0,024
847,4	0,024
847,9	0,024
848,3	0,024
848,7	0,024
849,2	0,024
849,6	0,024
850	0,024
850,4	0,024
850,9	0,024
851,3	0,024
851,7	0,024
852,2	0,024
852,6	0,024
853	0,024
853,4	0,024
853,9	0,024
854,3	0,024
854,7	0,024
855,2	0,024
855,6	0,024
856	0,024
856,4	0,024
856,9	0,024
857,3	0,024
857,7	0,024
858,2	0,024
858,6	0,023
859	0,023
859,4	0,023
859,9	0,023
860,3	0,024
860,7	0,024
861,1	0,024
861,6	0,025
862	0,025
862,4	0,025
862,9	0,024
863,3	0,024
863,7	0,023
864,1	0,023
864,6	0,023
865	0,023
865,4	0,023
865,9	0,024
866,3	0,024
866,7	0,024
867,1	0,024
867,6	0,024
868	0,024
868,4	0,023
868,8	0,024
869,3	0,023
869,7	0,024
870,1	0,023
870,6	0,023
871	0,023
871,4	0,023
871,8	0,022
872,3	0,022
872,7	0,021
873,1	0,022
873,5	0,021
874	0,021
874,4	0,021
874,8	0,021
875,3	0,021
875,7	0,021
876,1	0,021
876,5	0,021
877	0,021
877,4	0,022
877,8	0,021
878,2	0,021
878,7	0,022
879,1	0,022
879,5	0,022
879,9	0,022
880,4	0,021
880,8	0,021
881,2	0,021
881,7	0,021
882,1	0,021
882,5	0,021
882,9	0,021
883,4	0,021
883,8	0,021
884,2	0,021
884,6	0,021
885,1	0,021
885,5	0,021
885,9	0,021
886,3	0,021
886,8	0,022
887,2	0,021
887,6	0,021
888	0,021
888,5	0,021
888,9	0,022
889,3	0,022
889,8	0,021
890,2	0,022
890,6	0,022
891	0,023
891,5	0,023
891,9	0,023
892,3	0,023
892,7	0,023
893,2	0,023
893,6	0,023
894	0,023
894,4	0,022
894,9	0,022
895,3	0,022
895,7	0,023
896,1	0,022
896,6	0,022
897	0,022
897,4	0,022
897,8	0,021
898,3	0,022
898,7	0,021
899,1	0,022
899,5	0,022
900	0,022
900,4	0,022
900,8	0,022
901,2	0,022
901,7	0,022
902,1	0,021
902,5	0,021
902,9	0,021
903,4	0,021
903,8	0,021
904,2	0,021
904,6	0,021
905,1	0,021
905,5	0,022
905,9	0,022
906,3	0,022
906,8	0,022
907,2	0,022
907,6	0,023
908	0,023
908,5	0,023
908,9	0,023
909,3	0,023
909,7	0,023
910,2	0,023
910,6	0,023
911	0,023
911,4	0,023
911,9	0,023
912,3	0,023
912,7	0,023
913,1	0,023
913,6	0,024
914	0,024
914,4	0,024
914,8	0,023
915,3	0,023
915,7	0,023
916,1	0,023
916,5	0,022
916,9	0,022
917,4	0,022
917,8	0,022
918,2	0,022
918,6	0,022
919,1	0,022
919,5	0,022
919,9	0,022
920,3	0,022
920,8	0,022
921,2	0,022
921,6	0,022
922	0,022
922,5	0,022
922,9	0,021
923,3	0,021
923,7	0,022
924,2	0,021
924,6	0,021
925	0,021
925,4	0,021
925,8	0,021
926,3	0,021
926,7	0,02
927,1	0,02
927,5	0,02
928	0,02
928,4	0,02
928,8	0,02
929,2	0,02
929,7	0,02
930,1	0,02
930,5	0,02
930,9	0,02
931,3	0,02
931,8	0,02
932,2	0,019
932,6	0,019
933	0,019
933,5	0,018
933,9	0,019
934,3	0,018
934,7	0,018
935,2	0,018
935,6	0,019
936	0,019
936,4	0,019
936,8	0,019
937,3	0,019
937,7	0,02
938,1	0,02
938,5	0,019
939	0,019
939,4	0,019
939,8	0,02
940,2	0,02
940,6	0,02
941,1	0,02
941,5	0,02
941,9	0,021
942,3	0,02
942,8	0,02
943,2	0,02
943,6	0,02
944	0,02
944,4	0,02
944,9	0,019
945,3	0,019
945,7	0,019
946,1	0,019
946,6	0,02
947	0,019
947,4	0,019
947,8	0,019
948,2	0,019
948,7	0,019
949,1	0,019
949,5	0,018
949,9	0,018
950,3	0,018
950,8	0,017
951,2	0,017
951,6	0,017
952	0,018
952,5	0,017
952,9	0,018
953,3	0,018
953,7	0,018
954,1	0,018
954,6	0,018
955	0,017
955,4	0,017
955,8	0,017
956,2	0,017
956,7	0,017
957,1	0,017
957,5	0,016
957,9	0,015
958,3	0,015
958,8	0,014
959,2	0,014
959,6	0,014
960	0,013
960,5	0,013
960,9	0,014
961,3	0,014
961,7	0,014
962,1	0,014
962,6	0,014
963	0,015
963,4	0,015
963,8	0,015
964,2	0,014
964,7	0,015
965,1	0,015
965,5	0,015
965,9	0,016
966,3	0,016
966,8	0,016
967,2	0,017
967,6	0,017
968	0,017
968,4	0,017
968,9	0,017
969,3	0,017
969,7	0,017
970,1	0,018
970,5	0,019
971	0,019
971,4	0,018
971,8	0,018
972,2	0,018
972,6	0,018
973,1	0,017
973,5	0,016
973,9	0,016
974,3	0,016
974,7	0,016
975,2	0,016
975,6	0,016
976	0,016
976,4	0,016
976,8	0,016
977,3	0,016
977,7	0,016
978,1	0,015
978,5	0,015
978,9	0,014
979,4	0,014
979,8	0,014
980,2	0,013
980,6	0,014
981	0,014
981,5	0,014
981,9	0,015
982,3	0,015
982,7	0,015
983,1	0,016
983,6	0,016
984	0,016
984,4	0,016
984,8	0,016
985,2	0,015
985,6	0,014
986,1	0,014
986,5	0,014
986,9	0,015
987,3	0,014
987,7	0,015
988,2	0,015
988,6	0,016
989	0,015
989,4	0,015
989,8	0,015
990,3	0,015
990,7	0,015
991,1	0,015
991,5	0,015
991,9	0,016
992,3	0,016
992,8	0,015
993,2	0,015
993,6	0,015
994	0,014
994,4	0,014
994,9	0,014
995,3	0,014
995,7	0,014
996,1	0,014
996,5	0,014
996,9	0,015
997,4	0,015
997,8	0,015
998,2	0,015
998,6	0,016
999	0,016
999,5	0,017
999,9	0,016
1000,3	0,016
1000,7	0,016
1001,1	0,016
1001,5	0,016
1002	0,016
1002,4	0,016
1002,8	0,016
1003,2	0,016
1003,6	0,016
1004	0,016
1004,5	0,016
1004,9	0,016
1005,3	0,016
1005,7	0,016
1006,1	0,017
1006,6	0,017
1007	0,017
1007,4	0,017
1007,8	0,018
1008,2	0,018
1008,6	0,018
1009,1	0,018
1009,5	0,018
1009,9	0,017
1010,3	0,018
1010,7	0,017
1011,1	0,017
1011,6	0,017
1012	0,017
1012,4	0,017
1012,8	0,018
1013,2	0,017
1013,6	0,017
1014,1	0,016
1014,5	0,015
1014,9	0,015
1015,3	0,015
1015,7	0,015
1016,1	0,015
1016,6	0,015
1017	0,015
1017,4	0,016
1017,8	0,016
1018,2	0,016
1018,6	0,016
1019,1	0,017
1019,5	0,017
1019,9	0,017
1020,3	0,017
1020,7	0,017
1021,1	0,017
1021,6	0,016
1022	0,016
1022,4	0,016
1022,8	0,016
1023,2	0,017
1023,6	0,017
1024,1	0,017
1024,5	0,017
1024,9	0,017
1025,3	0,018
1025,7	0,017
1026,1	0,016
1026,6	0,015
1027	0,015
1027,4	0,015
1027,8	0,015
1028,2	0,014
1028,6	0,014
1029	0,014
1029,5	0,015
1029,9	0,015
1030,3	0,015
1030,7	0,015
1031,1	0,015
1031,5	0,015
1032	0,016
1032,4	0,016
1032,8	0,016
1033,2	0,016
1033,6	0,016
1034	0,015
1034,4	0,015
1034,9	0,014
1035,3	0,014
1035,7	0,013
1036,1	0,013
1036,5	0,012
1036,9	0,013
1037,4	0,013
1037,8	0,014
1038,2	0,015
1038,6	0,014
1039	0,014
1039,4	0,015
1039,8	0,014
1040,3	0,014
1040,7	0,014
1041,1	0,013
1041,5	0,015
1041,9	0,015
1042,3	0,014
1042,7	0,015
1043,2	0,015
1043,6	0,015
1044	0,015
1044,4	0,014
1044,8	0,014
1045,2	0,013
1045,6	0,013
1046,1	0,013
1046,5	0,014
1046,9	0,014
1047,3	0,014
1047,7	0,014
1048,1	0,014
1048,5	0,013
1049	0,013
1049,4	0,011
1049,8	0,011
1050,2	0,011
1050,6	0,01
1051	0,011
1051,4	0,011
1051,9	0,011
1052,3	0,012
1052,7	0,012
1053,1	0,012
1053,5	0,013
1053,9	0,012
1054,3	0,013
1054,8	0,013
1055,2	0,014
1055,6	0,014
1056	0,015
1056,4	0,015
1056,8	0,016
1057,2	0,016
1057,6	0,015
1058,1	0,014
1058,5	0,015
1058,9	0,015
1059,3	0,015
1059,7	0,014
1060,1	0,013
1060,5	0,014
1061	0,013
1061,4	0,012
1061,8	0,012
1062,2	0,013
1062,6	0,013
1063	0,014
1063,4	0,013
1063,8	0,013
1064,3	0,013
1064,7	0,013
1065,1	0,012
1065,5	0,012
1065,9	0,012
1066,3	0,013
1066,7	0,013
1067,1	0,013
1067,6	0,014
1068	0,012
1068,4	0,013
1068,8	0,012
1069,2	0,012
1069,6	0,012
1070	0,012
1070,4	0,011
1070,9	0,01
1071,3	0,011
1071,7	0,011
1072,1	0,01
1072,5	0,011
1072,9	0,012
1073,3	0,013
1073,7	0,014
1074,2	0,013
1074,6	0,014
1075	0,014
1075,4	0,012
1075,8	0,011
1076,2	0,011
1076,6	0,009
1077	0,009
1077,5	0,008
1077,9	0,008
1078,3	0,008
1078,7	0,008
1079,1	0,009
1079,5	0,009
1079,9	0,01
1080,3	0,01
1080,7	0,011
1081,2	0,01
1081,6	0,008
1082	0,007
1082,4	0,006
1082,8	0,003
1083,2	0,003
1083,6	0,002
1084	0,001
1084,5	0,003
1084,9	0,003
1085,3	0,005
1085,7	0,007
1086,1	0,008
1086,5	0,011
1086,9	0,012
1087,3	0,013
1087,7	0,013
1088,2	0,013
1088,6	0,011
1089	0,009
1089,4	0,01
1089,8	0,01
1090,2	0,008
1090,6	0,011
1091	0,01
1091,4	0,01
1091,9	0,009
1092,3	0,004
1092,7	0,003
1093,1	0,002
1093,5	0,001
1093,9	-0,001
1094,3	-0,001
1094,7	-0,004
1095,1	-0,003
1095,5	-0,004
1096	-0,005
1096,4	-0,006
1096,8	-0,004
1097,2	-0,009
1097,6	-0,01
1098	-0,013
1098,4	-0,012
1098,8	-0,014
1099,2	-0,023
1099,6	-0,023
1100,1	-0,022
1100,5	-0,02
1100,9	-0,017
1101,3	-0,011
1101,7	-0,009
1102,1	-0,009
1102,5	-0,022
1102,9	-0,024
1103,3	-0,03
1103,7	-0,031
1104,2	-0,044
1104,6	-0,046
1105	-0,055
1105,4	-0,051
1105,8	-0,039
1106,2	-0,039
1106,6	-0,05
1107	-0,066
1107,4	-0,094
1107,8	-0,05
1108,3	0,078
