Data from Absorbance_00009.txt Node
Date: Wed Aug 02 13:35:06 MSK 2023
User: vat
Spectrometer: MAYP114033
Trigger mode: 0
Integration Time (sec): 8,000000E-3
Scans to average: 10
Electric dark correction enabled: true
Nonlinearity correction enabled: false
Boxcar width: 3
XAxis mode: Wavelengths
Number of Pixels in Spectrum: 2068
>>>>>Begin Spectral Data<<<<<
199,4	-0,291
199,9	-0,11
200,4	0,346
200,8	0,717
201,3	0,846
201,8	0,922
202,2	0,958
202,7	0,981
203,2	1,043
203,6	1,077
204,1	1,08
204,6	1,113
205	1,126
205,5	1,131
206	1,129
206,4	1,142
206,9	1,131
207,4	1,142
207,8	1,156
208,3	1,175
208,8	1,182
209,2	1,213
209,7	1,228
210,2	1,253
210,6	1,288
211,1	1,278
211,5	1,302
212	1,334
212,5	1,338
212,9	1,37
213,4	1,394
213,9	1,403
214,3	1,444
214,8	1,439
215,3	1,432
215,7	1,451
216,2	1,437
216,7	1,425
217,1	1,451
217,6	1,455
218,1	1,465
218,5	1,492
219	1,506
219,5	1,517
219,9	1,564
220,4	1,551
220,9	1,563
221,3	1,574
221,8	1,6
222,3	1,634
222,7	1,693
223,2	1,711
223,6	1,736
224,1	1,767
224,6	1,791
225	1,782
225,5	1,778
226	1,772
226,4	1,787
226,9	1,791
227,4	1,799
227,8	1,801
228,3	1,835
228,8	1,855
229,2	1,857
229,7	1,876
230,2	1,919
230,6	1,948
231,1	1,971
231,5	1,99
232	1,995
232,5	1,989
232,9	1,979
233,4	1,978
233,9	1,968
234,3	1,989
234,8	1,978
235,3	1,968
235,7	1,984
236,2	1,993
236,7	2,011
237,1	2,002
237,6	2,003
238,1	2,029
238,5	2,043
239	2,063
239,4	2,052
239,9	2,033
240,4	2,049
240,8	2,071
241,3	2,048
241,8	2,071
242,2	2,077
242,7	2,102
243,2	2,103
243,6	2,129
244,1	2,114
244,6	2,15
245	2,152
245,5	2,151
245,9	2,135
246,4	2,14
246,9	2,134
247,3	2,155
247,8	2,156
248,3	2,165
248,7	2,149
249,2	2,169
249,7	2,192
250,1	2,199
250,6	2,193
251	2,147
251,5	2,138
252	2,147
252,4	2,154
252,9	2,147
253,4	2,125
253,8	2,12
254,3	2,155
254,8	2,152
255,2	2,163
255,7	2,155
256,1	2,17
256,6	2,187
257,1	2,194
257,5	2,179
258	2,188
258,5	2,196
258,9	2,201
259,4	2,201
259,9	2,212
260,3	2,197
260,8	2,21
261,2	2,218
261,7	2,214
262,2	2,206
262,6	2,187
263,1	2,16
263,6	2,175
264	2,173
264,5	2,164
264,9	2,162
265,4	2,171
265,9	2,179
266,3	2,188
266,8	2,189
267,3	2,182
267,7	2,198
268,2	2,227
268,7	2,211
269,1	2,22
269,6	2,234
270	2,219
270,5	2,262
271	2,232
271,4	2,198
271,9	2,225
272,4	2,228
272,8	2,248
273,3	2,254
273,7	2,215
274,2	2,247
274,7	2,238
275,1	2,213
275,6	2,198
276,1	2,173
276,5	2,165
277	2,164
277,4	2,157
277,9	2,158
278,4	2,182
278,8	2,179
279,3	2,185
279,8	2,177
280,2	2,159
280,7	2,133
281,1	2,118
281,6	2,078
282,1	2,042
282,5	1,994
283	1,944
283,4	1,896
283,9	1,831
284,4	1,769
284,8	1,705
285,3	1,651
285,8	1,596
286,2	1,549
286,7	1,501
287,1	1,459
287,6	1,418
288,1	1,384
288,5	1,357
289	1,33
289,5	1,304
289,9	1,283
290,4	1,265
290,8	1,253
291,3	1,24
291,8	1,224
292,2	1,215
292,7	1,21
293,1	1,203
293,6	1,197
294,1	1,191
294,5	1,186
295	1,182
295,5	1,177
295,9	1,173
296,4	1,171
296,8	1,168
297,3	1,164
297,8	1,16
298,2	1,155
298,7	1,151
299,1	1,143
299,6	1,135
300,1	1,129
300,5	1,125
301	1,12
301,5	1,116
301,9	1,11
302,4	1,104
302,8	1,099
303,3	1,093
303,8	1,088
304,2	1,081
304,7	1,074
305,1	1,067
305,6	1,062
306,1	1,055
306,5	1,048
307	1,04
307,4	1,032
307,9	1,025
308,4	1,018
308,8	1,011
309,3	1,005
309,8	0,999
310,2	0,992
310,7	0,985
311,1	0,978
311,6	0,971
312,1	0,961
312,5	0,953
313	0,944
313,4	0,934
313,9	0,925
314,4	0,917
314,8	0,907
315,3	0,899
315,7	0,89
316,2	0,881
316,7	0,871
317,1	0,862
317,6	0,854
318	0,845
318,5	0,836
319	0,828
319,4	0,818
319,9	0,81
320,3	0,8
320,8	0,791
321,3	0,782
321,7	0,774
322,2	0,763
322,6	0,755
323,1	0,745
323,6	0,735
324	0,727
324,5	0,718
324,9	0,709
325,4	0,7
325,9	0,691
326,3	0,683
326,8	0,675
327,2	0,665
327,7	0,656
328,2	0,646
328,6	0,637
329,1	0,628
329,5	0,619
330	0,61
330,5	0,601
330,9	0,592
331,4	0,584
331,8	0,575
332,3	0,567
332,8	0,558
333,2	0,549
333,7	0,541
334,1	0,533
334,6	0,526
335,1	0,519
335,5	0,511
336	0,502
336,4	0,495
336,9	0,486
337,4	0,478
337,8	0,469
338,3	0,461
338,7	0,453
339,2	0,445
339,7	0,438
340,1	0,43
340,6	0,424
341	0,417
341,5	0,41
342	0,404
342,4	0,396
342,9	0,389
343,3	0,383
343,8	0,377
344,2	0,371
344,7	0,365
345,2	0,359
345,6	0,353
346,1	0,347
346,5	0,341
347	0,335
347,5	0,329
347,9	0,324
348,4	0,318
348,8	0,312
349,3	0,307
349,8	0,302
350,2	0,296
350,7	0,291
351,1	0,285
351,6	0,281
352	0,276
352,5	0,271
353	0,266
353,4	0,262
353,9	0,257
354,3	0,253
354,8	0,249
355,3	0,245
355,7	0,24
356,2	0,236
356,6	0,232
357,1	0,229
357,5	0,224
358	0,221
358,5	0,216
358,9	0,213
359,4	0,209
359,8	0,206
360,3	0,203
360,8	0,199
361,2	0,195
361,7	0,193
362,1	0,19
362,6	0,186
363	0,182
363,5	0,18
364	0,177
364,4	0,173
364,9	0,171
365,3	0,168
365,8	0,165
366,3	0,161
366,7	0,158
367,2	0,156
367,6	0,155
368,1	0,152
368,5	0,15
369	0,148
369,5	0,147
369,9	0,145
370,4	0,142
370,8	0,14
371,3	0,137
371,7	0,135
372,2	0,132
372,7	0,131
373,1	0,128
373,6	0,126
374	0,124
374,5	0,123
374,9	0,121
375,4	0,119
375,9	0,118
376,3	0,116
376,8	0,114
377,2	0,112
377,7	0,111
378,2	0,109
378,6	0,107
379,1	0,106
379,5	0,105
380	0,104
380,4	0,103
380,9	0,101
381,4	0,1
381,8	0,099
382,3	0,097
382,7	0,095
383,2	0,093
383,6	0,091
384,1	0,09
384,6	0,088
385	0,087
385,5	0,086
385,9	0,085
386,4	0,083
386,8	0,083
387,3	0,082
387,7	0,08
388,2	0,079
388,7	0,078
389,1	0,077
389,6	0,076
390	0,074
390,5	0,073
390,9	0,072
391,4	0,069
391,9	0,068
392,3	0,067
392,8	0,066
393,2	0,066
393,7	0,065
394,1	0,064
394,6	0,063
395,1	0,063
395,5	0,062
396	0,062
396,4	0,061
396,9	0,06
397,3	0,059
397,8	0,058
398,2	0,057
398,7	0,056
399,2	0,055
399,6	0,053
400,1	0,053
400,5	0,053
401	0,052
401,4	0,052
401,9	0,051
402,4	0,051
402,8	0,05
403,3	0,049
403,7	0,048
404,2	0,047
404,6	0,047
405,1	0,046
405,5	0,045
406	0,045
406,5	0,045
406,9	0,044
407,4	0,043
407,8	0,043
408,3	0,042
408,7	0,042
409,2	0,041
409,6	0,039
410,1	0,038
410,6	0,038
411	0,037
411,5	0,037
411,9	0,037
412,4	0,036
412,8	0,036
413,3	0,036
413,7	0,035
414,2	0,035
414,7	0,034
415,1	0,033
415,6	0,033
416	0,032
416,5	0,032
416,9	0,031
417,4	0,031
417,8	0,03
418,3	0,029
418,8	0,028
419,2	0,028
419,7	0,028
420,1	0,028
420,6	0,027
421	0,026
421,5	0,026
421,9	0,026
422,4	0,025
422,8	0,024
423,3	0,023
423,8	0,023
424,2	0,022
424,7	0,022
425,1	0,021
425,6	0,021
426	0,02
426,5	0,02
426,9	0,02
427,4	0,021
427,9	0,021
428,3	0,02
428,8	0,02
429,2	0,02
429,7	0,019
430,1	0,019
430,6	0,019
431	0,018
431,5	0,018
431,9	0,018
432,4	0,017
432,8	0,017
433,3	0,016
433,8	0,015
434,2	0,015
434,7	0,014
435,1	0,014
435,6	0,014
436	0,013
436,5	0,013
436,9	0,013
437,4	0,012
437,8	0,012
438,3	0,011
438,8	0,011
439,2	0,011
439,7	0,011
440,1	0,011
440,6	0,011
441	0,01
441,5	0,011
441,9	0,011
442,4	0,01
442,8	0,01
443,3	0,01
443,7	0,01
444,2	0,01
444,7	0,01
445,1	0,01
445,6	0,01
446	0,011
446,5	0,011
446,9	0,011
447,4	0,011
447,8	0,011
448,3	0,01
448,7	0,009
449,2	0,009
449,6	0,009
450,1	0,008
450,6	0,007
451	0,007
451,5	0,008
451,9	0,008
452,4	0,008
452,8	0,008
453,3	0,009
453,7	0,01
454,2	0,009
454,6	0,009
455,1	0,009
455,5	0,009
456	0,008
456,4	0,007
456,9	0,007
457,3	0,007
457,8	0,006
458,3	0,007
458,7	0,007
459,2	0,007
459,6	0,007
460,1	0,007
460,5	0,007
461	0,007
461,4	0,006
461,9	0,007
462,3	0,007
462,8	0,007
463,2	0,007
463,7	0,006
464,1	0,006
464,6	0,006
465	0,005
465,5	0,005
466	0,005
466,4	0,005
466,9	0,004
467,3	0,005
467,8	0,004
468,2	0,004
468,7	0,005
469,1	0,005
469,6	0,005
470	0,006
470,5	0,006
470,9	0,006
471,4	0,005
471,8	0,005
472,3	0,005
472,7	0,005
473,2	0,004
473,6	0,004
474,1	0,004
474,5	0,005
475	0,005
475,4	0,005
475,9	0,005
476,4	0,004
476,8	0,005
477,3	0,005
477,7	0,005
478,2	0,005
478,6	0,005
479,1	0,005
479,5	0,005
480	0,005
480,4	0,005
480,9	0,004
481,3	0,003
481,8	0,002
482,2	0,002
482,7	0,002
483,1	0,002
483,6	0,002
484	0,003
484,5	0,004
484,9	0,004
485,4	0,004
485,8	0,004
486,3	0,005
486,7	0,005
487,2	0,004
487,6	0,004
488,1	0,004
488,5	0,003
489	0,003
489,4	0,002
489,9	0,002
490,4	0,003
490,8	0,003
491,3	0,003
491,7	0,004
492,2	0,005
492,6	0,005
493,1	0,004
493,5	0,004
494	0,004
494,4	0,005
494,9	0,004
495,3	0,004
495,8	0,004
496,2	0,004
496,7	0,004
497,1	0,005
497,6	0,004
498	0,005
498,5	0,005
498,9	0,005
499,4	0,004
499,8	0,004
500,3	0,003
500,7	0,003
501,2	0,003
501,6	0,003
502,1	0,003
502,5	0,003
503	0,003
503,4	0,003
503,9	0,004
504,3	0,004
504,8	0,003
505,2	0,004
505,7	0,004
506,1	0,003
506,6	0,003
507	0,002
507,5	0,002
507,9	0,002
508,4	0,002
508,8	0,002
509,3	0,002
509,7	0,003
510,2	0,003
510,6	0,003
511,1	0,003
511,5	0,003
512	0,003
512,4	0,003
512,9	0,002
513,3	0,003
513,8	0,003
514,2	0,003
514,7	0,004
515,1	0,004
515,6	0,004
516	0,004
516,5	0,004
516,9	0,004
517,4	0,004
517,8	0,003
518,3	0,003
518,7	0,003
519,2	0,004
519,6	0,004
520,1	0,004
520,5	0,003
521	0,003
521,4	0,004
521,9	0,003
522,3	0,003
522,8	0,002
523,2	0,002
523,7	0,003
524,1	0,003
524,6	0,002
525	0,003
525,5	0,004
525,9	0,004
526,4	0,004
526,8	0,004
527,3	0,004
527,7	0,004
528,2	0,004
528,6	0,004
529,1	0,004
529,5	0,004
530	0,004
530,4	0,004
530,9	0,004
531,3	0,004
531,8	0,005
532,2	0,005
532,6	0,005
533,1	0,004
533,5	0,004
534	0,004
534,4	0,004
534,9	0,003
535,3	0,003
535,8	0,003
536,2	0,002
536,7	0,002
537,1	0,003
537,6	0,003
538	0,003
538,5	0,003
538,9	0,002
539,4	0,003
539,8	0,003
540,3	0,002
540,7	0,003
541,2	0,003
541,6	0,003
542,1	0,003
542,5	0,004
543	0,003
543,4	0,003
543,9	0,003
544,3	0,003
544,8	0,003
545,2	0,004
545,7	0,004
546,1	0,004
546,5	0,004
547	0,004
547,4	0,004
547,9	0,004
548,3	0,004
548,8	0,003
549,2	0,004
549,7	0,003
550,1	0,003
550,6	0,002
551	0,001
551,5	0,001
551,9	0,002
552,4	0,001
552,8	0,001
553,3	0,001
553,7	0,002
554,2	0,002
554,6	0,003
555,1	0,002
555,5	0,003
555,9	0,003
556,4	0,002
556,8	0,003
557,3	0,002
557,7	0,003
558,2	0,003
558,6	0,003
559,1	0,003
559,5	0,003
560	0,003
560,4	0,002
560,9	0,002
561,3	0,003
561,8	0,002
562,2	0,002
562,7	0,002
563,1	0,002
563,6	0,003
564	0,003
564,4	0,003
564,9	0,004
565,3	0,004
565,8	0,003
566,2	0,003
566,7	0,004
567,1	0,003
567,6	0,002
568	0,002
568,5	0,002
568,9	0,002
569,4	0,002
569,8	0,002
570,3	0,002
570,7	0,003
571,1	0,003
571,6	0,003
572	0,003
572,5	0,003
572,9	0,002
573,4	0,003
573,8	0,003
574,3	0,003
574,7	0,002
575,2	0,002
575,6	0,002
576,1	0,003
576,5	0,002
576,9	0,002
577,4	0,002
577,8	0,003
578,3	0,002
578,7	0,002
579,2	0,002
579,6	0,003
580,1	0,003
580,5	0,003
581	0,002
581,4	0,003
581,9	0,003
582,3	0,003
582,7	0,002
583,2	0,002
583,6	0,002
584,1	0,003
584,5	0,002
585	0,003
585,4	0,003
585,9	0,003
586,3	0,003
586,8	0,003
587,2	0,003
587,6	0,003
588,1	0,003
588,5	0,003
589	0,003
589,4	0,003
589,9	0,003
590,3	0,003
590,8	0,003
591,2	0,003
591,7	0,003
592,1	0,003
592,5	0,003
593	0,004
593,4	0,003
593,9	0,004
594,3	0,003
594,8	0,003
595,2	0,003
595,7	0,003
596,1	0,002
596,6	0,003
597	0,003
597,4	0,003
597,9	0,002
598,3	0,002
598,8	0,002
599,2	0,002
599,7	0,002
600,1	0,002
600,6	0,002
601	0,002
601,4	0,002
601,9	0,002
602,3	0,002
602,8	0,002
603,2	0,002
603,7	0,002
604,1	0,002
604,6	0,002
605	0,002
605,4	0,002
605,9	0,001
606,3	0,001
606,8	0,002
607,2	0,002
607,7	0,002
608,1	0,002
608,6	0,002
609	0,002
609,4	0,002
609,9	0,002
610,3	0,002
610,8	0,002
611,2	0,002
611,7	0,002
612,1	0,002
612,6	0,001
613	0,001
613,4	0,001
613,9	0,002
614,3	0,002
614,8	0,002
615,2	0,002
615,7	0,002
616,1	0,002
616,6	0,002
617	0,002
617,4	0,002
617,9	0,002
618,3	0,001
618,8	0,002
619,2	0,002
619,7	0,002
620,1	0,002
620,5	0,002
621	0,002
621,4	0,002
621,9	0,003
622,3	0,002
622,8	0,003
623,2	0,003
623,6	0,003
624,1	0,004
624,5	0,003
625	0,003
625,4	0,003
625,9	0,003
626,3	0,003
626,8	0,003
627,2	0,002
627,6	0,002
628,1	0,003
628,5	0,003
629	0,003
629,4	0,002
629,9	0,002
630,3	0,002
630,7	0,002
631,2	0,002
631,6	0,002
632,1	0,002
632,5	0,002
633	0,002
633,4	0,002
633,8	0,002
634,3	0,002
634,7	0,002
635,2	0,002
635,6	0,002
636,1	0,002
636,5	0,002
636,9	0,002
637,4	0,002
637,8	0,002
638,3	0,002
638,7	0,001
639,2	0,001
639,6	0,001
640	0,001
640,5	0,001
640,9	0,002
641,4	0,001
641,8	0,001
642,2	0,001
642,7	0,001
643,1	0,001
643,6	0,001
644	0,001
644,5	0,001
644,9	0,001
645,3	0,001
645,8	0,001
646,2	0,001
646,7	0,001
647,1	0,002
647,6	0,001
648	0,002
648,4	0,002
648,9	0,002
649,3	0,002
649,8	0,002
650,2	0,002
650,6	0,003
651,1	0,002
651,5	0,002
652	0,001
652,4	0,001
652,9	0,001
653,3	0,001
653,7	0,001
654,2	0
654,6	-0,001
655,1	-0,002
655,5	-0,001
655,9	-0,001
656,4	-0,001
656,8	-0,001
657,3	-0,001
657,7	-0,001
658,2	-0
658,6	-0
659	-0
659,5	0
659,9	0,004
660,4	0,005
660,8	0,005
661,2	0,004
661,7	0,004
662,1	0,003
662,6	0,003
663	0,002
663,4	0,002
663,9	0,002
664,3	0,003
664,8	0,003
665,2	0,003
665,6	0,002
666,1	0,003
666,5	0,002
667	0,002
667,4	0,002
667,9	0,002
668,3	0,002
668,7	0,001
669,2	0,001
669,6	0,001
670,1	0,001
670,5	0
670,9	0
671,4	0,001
671,8	0,001
672,3	0,001
672,7	0,001
673,1	0,001
673,6	0,001
674	0,001
674,5	0
674,9	0,001
675,3	0,001
675,8	0,001
676,2	0,001
676,7	0,001
677,1	0,001
677,5	0,001
678	0,001
678,4	0,001
678,9	0,001
679,3	0,001
679,7	0,001
680,2	0,001
680,6	0,001
681,1	0,001
681,5	0,001
681,9	0
682,4	0
682,8	0
683,3	0,001
683,7	0,001
684,1	0,001
684,6	0,001
685	0,002
685,5	0,001
685,9	0,001
686,3	0,001
686,8	0,001
687,2	0,001
687,7	0,001
688,1	0,001
688,5	0,001
689	0,001
689,4	0,001
689,9	0,001
690,3	0,001
690,7	0,001
691,2	0,001
691,6	0,002
692	0,001
692,5	0,001
692,9	0,001
693,4	0,001
693,8	0,001
694,2	0,001
694,7	0
695,1	0,001
695,6	0,001
696	0,001
696,4	0,001
696,9	0,001
697,3	0,001
697,8	0,001
698,2	0,001
698,6	0,001
699,1	0
699,5	0
699,9	0,001
700,4	0,001
700,8	0,001
701,3	0,001
701,7	0,001
702,1	0,001
702,6	0,001
703	0,001
703,5	0,001
703,9	0,001
704,3	0,001
704,8	0,001
705,2	0,001
705,6	0,001
706,1	0
706,5	0
707	0
707,4	0
707,8	0,001
708,3	0,001
708,7	0,001
709,2	0,001
709,6	0,001
710	0,002
710,5	0,001
710,9	0,001
711,3	0,001
711,8	0
712,2	0,001
712,7	0,001
713,1	0
713,5	0,001
714	0,001
714,4	0,001
714,8	0,002
715,3	0,001
715,7	0,002
716,2	0,001
716,6	0,002
717	0,002
717,5	0,002
717,9	0,002
718,3	0,003
718,8	0,002
719,2	0,002
719,7	0,002
720,1	0,002
720,5	0,002
721	0,001
721,4	0,001
721,8	0,001
722,3	0,001
722,7	0
723,2	0
723,6	-0
724	-0
724,5	0
724,9	0
725,3	0,001
725,8	0,001
726,2	0,001
726,7	0,001
727,1	0,001
727,5	0,001
728	0,001
728,4	0,001
728,8	0,001
729,3	0,001
729,7	0,001
730,1	0,001
730,6	0,002
731	0,001
731,5	0,001
731,9	0,001
732,3	0,002
732,8	0,002
733,2	0,001
733,6	0,001
734,1	0,001
734,5	0,001
734,9	0,001
735,4	0
735,8	-0
736,3	-0
736,7	-0
737,1	-0
737,6	-0
738	-0
738,4	0
738,9	0
739,3	0
739,7	-0
740,2	0
740,6	-0
741,1	-0
741,5	-0
741,9	-0
742,4	-0
742,8	0
743,2	0,001
743,7	0,001
744,1	0,001
744,5	0,001
745	0,001
745,4	0,001
745,8	0,001
746,3	0,001
746,7	0,001
747,2	0,001
747,6	0,001
748	0,001
748,5	0
748,9	-0
749,3	0
749,8	0
750,2	0
750,6	-0
751,1	-0
751,5	0
751,9	0
752,4	-0
752,8	-0
753,3	-0,001
753,7	-0,001
754,1	-0,001
754,6	-0,001
755	-0,001
755,4	-0,001
755,9	-0
756,3	-0
756,7	0,001
757,2	0,001
757,6	0,001
758	0,001
758,5	0,001
758,9	0
759,3	0
759,8	-0
760,2	-0
760,6	-0
761,1	0
761,5	0
761,9	0,001
762,4	0
762,8	0
763,3	0
763,7	0
764,1	0
764,6	0
765	0
765,4	0
765,9	0
766,3	0,001
766,7	0,001
767,2	0,001
767,6	0,001
768	0,001
768,5	0,001
768,9	0,001
769,3	0,001
769,8	0,001
770,2	0
770,6	0,001
771,1	0
771,5	0
771,9	0
772,4	0
772,8	-0
773,2	-0,001
773,7	-0,001
774,1	-0,001
774,5	-0,002
775	-0,001
775,4	-0,002
775,8	-0,001
776,3	-0,001
776,7	-0,001
777,1	-0,001
777,6	-0,001
778	-0,001
778,4	-0,001
778,9	-0,001
779,3	-0
779,7	-0
780,2	-0
780,6	0
781	-0
781,5	-0
781,9	-0
782,3	-0,001
782,8	-0,001
783,2	-0
783,6	-0,001
784,1	-0
784,5	-0
784,9	0
785,4	0
785,8	0,001
786,2	0,001
786,7	0
787,1	0,001
787,5	0
788	-0
788,4	-0
788,8	-0
789,3	-0
789,7	-0
790,1	0
790,6	0
791	0
791,4	0,001
791,9	0,001
792,3	0,001
792,7	0,001
793,2	0
793,6	0
794	0
794,5	0
794,9	0
795,3	0
795,8	-0
796,2	-0
796,6	0
797,1	0
797,5	0
797,9	0,001
798,4	0,001
798,8	0,001
799,2	0,001
799,7	0,001
800,1	0,001
800,5	0,001
801	0,001
801,4	0,001
801,8	0,001
802,2	0,001
802,7	0,001
803,1	0,001
803,5	0,001
804	0,001
804,4	0,001
804,8	0,001
805,3	0,001
805,7	0,001
806,1	0,001
806,6	0,001
807	0,002
807,4	0,002
807,9	0,001
808,3	0,001
808,7	0,001
809,2	0,001
809,6	0,001
810	0,001
810,4	0,001
810,9	0,001
811,3	0,001
811,7	0,001
812,2	0,002
812,6	0,002
813	0,002
813,5	0,002
813,9	0,002
814,3	0,002
814,8	0,001
815,2	0,001
815,6	0,001
816,1	0,001
816,5	0,001
816,9	0,001
817,3	0,001
817,8	0,001
818,2	0,001
818,6	0,001
819,1	0,001
819,5	0,001
819,9	0,001
820,4	0,001
820,8	0,001
821,2	0,001
821,7	0,001
822,1	0,001
822,5	0,001
822,9	0,001
823,4	0,001
823,8	0,001
824,2	0,001
824,7	0,001
825,1	0,001
825,5	0,001
826	0,001
826,4	0,001
826,8	0,001
827,3	0,001
827,7	0
828,1	0
828,5	0
829	-0
829,4	0
829,8	0,001
830,3	0,001
830,7	0,001
831,1	0,001
831,6	0,001
832	0,001
832,4	0,001
832,8	0,001
833,3	0,001
833,7	0,001
834,1	0,001
834,6	0,001
835	0,001
835,4	0
835,8	0,001
836,3	0,001
836,7	0,001
837,1	0,001
837,6	0,001
838	0,001
838,4	0,001
838,9	0,001
839,3	0
839,7	0
840,1	-0
840,6	-0
841	-0,001
841,4	-0,001
841,9	-0,001
842,3	-0,001
842,7	-0,001
843,1	-0,001
843,6	-0,001
844	-0,001
844,4	-0,001
844,9	-0,001
845,3	-0,001
845,7	-0,001
846,2	-0,001
846,6	-0,001
847	-0,001
847,4	-0,001
847,9	-0,001
848,3	-0
848,7	-0
849,2	0
849,6	0
850	0
850,4	0,001
850,9	0,001
851,3	0
851,7	0,001
852,2	0,001
852,6	0,001
853	0
853,4	0
853,9	0
854,3	0
854,7	0,001
855,2	0,001
855,6	0
856	0
856,4	0
856,9	-0
857,3	0
857,7	-0,001
858,2	-0,001
858,6	-0,001
859	-0,001
859,4	-0,001
859,9	-0,001
860,3	-0,001
860,7	-0,001
861,1	-0,001
861,6	-0
862	-0
862,4	-0
862,9	-0
863,3	-0
863,7	-0
864,1	-0
864,6	-0
865	-0,001
865,4	-0
865,9	-0
866,3	-0
866,7	-0,001
867,1	-0
867,6	-0
868	-0
868,4	-0,001
868,8	-0,001
869,3	-0,001
869,7	-0,001
870,1	-0,001
870,6	-0,001
871	-0,001
871,4	-0,001
871,8	-0,001
872,3	-0,001
872,7	-0,002
873,1	-0,002
873,5	-0,002
874	-0,002
874,4	-0,001
874,8	-0,002
875,3	-0,002
875,7	-0,002
876,1	-0,002
876,5	-0,002
877	-0,002
877,4	-0,002
877,8	-0,001
878,2	-0,001
878,7	-0,001
879,1	-0,001
879,5	-0,001
879,9	-0,001
880,4	-0,001
880,8	-0,002
881,2	-0,001
881,7	-0,002
882,1	-0,002
882,5	-0,002
882,9	-0,002
883,4	-0,002
883,8	-0,002
884,2	-0,001
884,6	-0,001
885,1	-0,001
885,5	-0,001
885,9	-0
886,3	-0
886,8	-0
887,2	-0
887,6	-0
888	-0,001
888,5	-0,001
888,9	-0
889,3	-0,001
889,8	-0,001
890,2	-0,001
890,6	-0,001
891	-0,001
891,5	-0
891,9	-0
892,3	-0
892,7	-0
893,2	-0
893,6	-0
894	-0,001
894,4	-0,001
894,9	-0,002
895,3	-0,002
895,7	-0,002
896,1	-0,002
896,6	-0,002
897	-0,002
897,4	-0,002
897,8	-0,001
898,3	-0,001
898,7	-0
899,1	0
899,5	0,001
900	0,001
900,4	0,002
900,8	0,002
901,2	0,002
901,7	0,001
902,1	0,001
902,5	0,001
902,9	0
903,4	0,001
903,8	0,001
904,2	0,001
904,6	0,001
905,1	0,001
905,5	0,001
905,9	0,001
906,3	0,001
906,8	0,001
907,2	0,001
907,6	0,001
908	0,001
908,5	0,001
908,9	0,001
909,3	0,001
909,7	0,001
910,2	0,001
910,6	0,001
911	0,001
911,4	0,002
911,9	0,001
912,3	0,001
912,7	0,001
913,1	0,001
913,6	0,002
914	0,001
914,4	0,001
914,8	0,001
915,3	0,001
915,7	0,001
916,1	0,002
916,5	0,002
916,9	0,002
917,4	0,002
917,8	0,002
918,2	0,001
918,6	0,001
919,1	0,001
919,5	0,001
919,9	0,001
920,3	0,001
920,8	0,001
921,2	0,001
921,6	0,001
922	0,002
922,5	0,002
922,9	0,002
923,3	0,002
923,7	0,002
924,2	0,002
924,6	0,002
925	0,001
925,4	0,001
925,8	0,001
926,3	0,001
926,7	0
927,1	0
927,5	0
928	0
928,4	0
928,8	-0
929,2	0
929,7	0
930,1	0
930,5	0
930,9	0
931,3	0,001
931,8	0,001
932,2	-0
932,6	-0
933	-0
933,5	-0,001
933,9	-0,001
934,3	-0,001
934,7	-0,002
935,2	-0,001
935,6	-0,001
936	-0
936,4	-0
936,8	-0,001
937,3	-0,001
937,7	-0,001
938,1	-0
938,5	-0,001
939	-0,002
939,4	-0,002
939,8	-0,001
940,2	-0,001
940,6	-0,001
941,1	-0,001
941,5	-0,001
941,9	-0,001
942,3	-0,002
942,8	-0,002
943,2	-0,002
943,6	-0,002
944	-0,002
944,4	-0,002
944,9	-0,003
945,3	-0,003
945,7	-0,003
946,1	-0,003
946,6	-0,002
947	-0,003
947,4	-0,003
947,8	-0,002
948,2	-0,003
948,7	-0,003
949,1	-0,003
949,5	-0,003
949,9	-0,004
950,3	-0,004
950,8	-0,004
951,2	-0,003
951,6	-0,004
952	-0,004
952,5	-0,004
952,9	-0,004
953,3	-0,004
953,7	-0,005
954,1	-0,005
954,6	-0,005
955	-0,005
955,4	-0,006
955,8	-0,007
956,2	-0,006
956,7	-0,006
957,1	-0,007
957,5	-0,008
957,9	-0,008
958,3	-0,008
958,8	-0,007
959,2	-0,008
959,6	-0,008
960	-0,008
960,5	-0,008
960,9	-0,008
961,3	-0,008
961,7	-0,008
962,1	-0,008
962,6	-0,008
963	-0,008
963,4	-0,008
963,8	-0,007
964,2	-0,008
964,7	-0,007
965,1	-0,007
965,5	-0,007
965,9	-0,007
966,3	-0,006
966,8	-0,006
967,2	-0,006
967,6	-0,006
968	-0,006
968,4	-0,006
968,9	-0,006
969,3	-0,006
969,7	-0,007
970,1	-0,006
970,5	-0,006
971	-0,006
971,4	-0,006
971,8	-0,007
972,2	-0,007
972,6	-0,006
973,1	-0,007
973,5	-0,007
973,9	-0,006
974,3	-0,006
974,7	-0,006
975,2	-0,005
975,6	-0,006
976	-0,005
976,4	-0,006
976,8	-0,006
977,3	-0,006
977,7	-0,006
978,1	-0,007
978,5	-0,007
978,9	-0,006
979,4	-0,006
979,8	-0,006
980,2	-0,006
980,6	-0,005
981	-0,005
981,5	-0,005
981,9	-0,005
982,3	-0,005
982,7	-0,005
983,1	-0,004
983,6	-0,004
984	-0,004
984,4	-0,004
984,8	-0,004
985,2	-0,004
985,6	-0,004
986,1	-0,005
986,5	-0,005
986,9	-0,005
987,3	-0,005
987,7	-0,005
988,2	-0,004
988,6	-0,005
989	-0,004
989,4	-0,004
989,8	-0,004
990,3	-0,004
990,7	-0,004
991,1	-0,004
991,5	-0,004
991,9	-0,004
992,3	-0,003
992,8	-0,003
993,2	-0,003
993,6	-0,003
994	-0,003
994,4	-0,003
994,9	-0,003
995,3	-0,003
995,7	-0,003
996,1	-0,003
996,5	-0,003
996,9	-0,003
997,4	-0,003
997,8	-0,003
998,2	-0,003
998,6	-0,003
999	-0,002
999,5	-0,003
999,9	-0,003
1000,3	-0,002
1000,7	-0,003
1001,1	-0,003
1001,5	-0,003
1002	-0,003
1002,4	-0,002
1002,8	-0,002
1003,2	-0,001
1003,6	-0,001
1004	-0
1004,5	-0
1004,9	-0,001
1005,3	-0
1005,7	-0
1006,1	-0,001
1006,6	-0,001
1007	-0,002
1007,4	-0,001
1007,8	-0,001
1008,2	-0,001
1008,6	-0
1009,1	0
1009,5	0
1009,9	0
1010,3	0,001
1010,7	0,001
1011,1	0,001
1011,6	0,001
1012	0,001
1012,4	0,002
1012,8	0,002
1013,2	0,001
1013,6	0,002
1014,1	0,001
1014,5	0
1014,9	-0
1015,3	-0
1015,7	0
1016,1	0,001
1016,6	0,001
1017	0,001
1017,4	0,001
1017,8	0,002
1018,2	0,002
1018,6	0,002
1019,1	0,002
1019,5	0,002
1019,9	0,002
1020,3	0,002
1020,7	0,002
1021,1	0,001
1021,6	0
1022	-0
1022,4	-0
1022,8	0
1023,2	0,001
1023,6	0,001
1024,1	0,002
1024,5	0,002
1024,9	0,003
1025,3	0,003
1025,7	0,002
1026,1	0,001
1026,6	0,001
1027	0,001
1027,4	0,001
1027,8	0,002
1028,2	0,001
1028,6	0,002
1029	0,003
1029,5	0,003
1029,9	0,003
1030,3	0,003
1030,7	0,002
1031,1	0,002
1031,5	0,001
1032	0,001
1032,4	0,001
1032,8	0
1033,2	0
1033,6	0
1034	-0
1034,4	-0
1034,9	-0
1035,3	-0,002
1035,7	-0,002
1036,1	-0,002
1036,5	-0,003
1036,9	-0,002
1037,4	-0,002
1037,8	-0,002
1038,2	-0,002
1038,6	-0,001
1039	-0,001
1039,4	-0
1039,8	-0,001
1040,3	-0,002
1040,7	-0,001
1041,1	-0,001
1041,5	-0,001
1041,9	-0
1042,3	-0
1042,7	0,001
1043,2	0,001
1043,6	0,001
1044	0
1044,4	-0,001
1044,8	-0,001
1045,2	-0,001
1045,6	-0,002
1046,1	-0,002
1046,5	-0,002
1046,9	-0,002
1047,3	-0,002
1047,7	-0,001
1048,1	-0
1048,5	-0,001
1049	0
1049,4	-0,001
1049,8	-0
1050,2	-0,001
1050,6	-0,001
1051	-0,002
1051,4	-0,002
1051,9	-0,002
1052,3	-0,001
1052,7	-0,001
1053,1	-0,001
1053,5	-0,001
1053,9	-0,001
1054,3	0
1054,8	0,001
1055,2	0,001
1055,6	0,001
1056	0
1056,4	0,001
1056,8	0,001
1057,2	0
1057,6	-0,001
1058,1	-0,001
1058,5	0
1058,9	0,001
1059,3	0,002
1059,7	0,002
1060,1	0,001
1060,5	0,002
1061	0,002
1061,4	0
1061,8	-0,001
1062,2	-0,001
1062,6	-0,001
1063	-0,001
1063,4	-0,001
1063,8	-0,001
1064,3	-0,002
1064,7	-0,001
1065,1	-0,002
1065,5	-0,002
1065,9	-0,002
1066,3	-0,003
1066,7	-0,003
1067,1	-0,002
1067,6	-0,002
1068	-0,003
1068,4	-0,003
1068,8	-0,002
1069,2	-0,002
1069,6	-0,001
1070	-0,002
1070,4	-0,001
1070,9	-0,001
1071,3	-0
1071,7	0
1072,1	0
1072,5	0,001
1072,9	0,001
1073,3	-0
1073,7	0
1074,2	-0,001
1074,6	-0,002
1075	-0,001
1075,4	-0,001
1075,8	-0
1076,2	0,001
1076,6	0,001
1077	0,002
1077,5	0,002
1077,9	0,001
1078,3	0
1078,7	-0,001
1079,1	-0,001
1079,5	-0,002
1079,9	-0,001
1080,3	-0,002
1080,7	-0,001
1081,2	-0,002
1081,6	-0,002
1082	-0,004
1082,4	-0,004
1082,8	-0,007
1083,2	-0,008
1083,6	-0,01
1084	-0,01
1084,5	-0,01
1084,9	-0,009
1085,3	-0,009
1085,7	-0,006
1086,1	-0,005
1086,5	-0,002
1086,9	-0,001
1087,3	0,002
1087,7	0,001
1088,2	0,001
1088,6	-0,001
1089	0,001
1089,4	0
1089,8	0,001
1090,2	-0,003
1090,6	-0,002
1091	0,001
1091,4	0,001
1091,9	0
1092,3	-0,001
1092,7	-0,005
1093,1	0
1093,5	0
1093,9	-0,003
1094,3	-0,002
1094,7	-0,003
1095,1	-0,002
1095,5	-0
1096	-0,001
1096,4	0,001
1096,8	0,006
1097,2	0,006
1097,6	0,005
1098	0,004
1098,4	0,002
1098,8	-0,002
1099,2	-0,01
1099,6	-0,019
1100,1	-0,018
1100,5	-0,021
1100,9	-0,018
1101,3	-0,015
1101,7	-0,016
1102,1	-0,012
1102,5	-0,008
1102,9	-0,02
1103,3	-0,013
1103,7	-0,016
1104,2	-0,024
1104,6	-0,022
1105	-0,03
1105,4	-0,029
1105,8	-0,009
1106,2	-0,024
1106,6	-0,033
1107	-0,046
1107,4	-0,05
1107,8	-0,035
1108,3	-0
